CSV File for the City 3 on Day 59
1 - Minute m 
2 - Power Consumed at minute m 
3 - Power Produced at minute m 
4 - Energy Consumed since the beginning of the day 
5 - Energy Produced since the beginning of the day 
6 - Energy Lost since the beginning of the day on lines starting from the city
 
0 ; 2374509.980828529 ; 1.0543839954209521E8 ; 0.0 ; 0.0 ; 0.0
1 ; 2377301.1341020754 ; 1.0559123142296797E8 ; 2374509.980828529 ; 1.0543839954209521E8 ; 0.0
2 ; 2379663.617501674 ; 1.0605285486632487E8 ; 4751811.114930605 ; 2.1102963096506318E8 ; 0.0
3 ; 2382987.0863400437 ; 1.0682327217646724E8 ; 7131474.732432279 ; 3.1708248583138806E8 ; 0.0
4 ; 2385688.9859557915 ; 1.0790248543393171E8 ; 9514461.818772323 ; 4.239057580078553E8 ; 0.0
5 ; 2389516.7580658924 ; 1.0929049647885531E8 ; 1.1900150804728115E7 ; 5.31808243441787E8 ; 0.0
6 ; 2395301.73318009 ; 1.10987306895843E8 ; 1.4289667562794007E7 ; 6.410987399206424E8 ; 0.0
7 ; 2403634.449831715 ; 1.1299291800061697E8 ; 1.6684969295974098E7 ; 7.520860468164854E8 ; 0.0
8 ; 2414318.109128041 ; 1.1530733082870698E8 ; 1.9088603745805815E7 ; 8.650789648171024E8 ; 0.0
9 ; 2430914.5459541925 ; 1.1793054612640369E8 ; 2.1502921854933858E7 ; 9.803862956458094E8 ; 0.0
10 ; 2457240.875225907 ; 1.2086256434416014E8 ; 2.393383640088805E7 ; 1.098316841772213E9 ; 0.0
11 ; 2498641.2684419565 ; 1.2410338563257656E8 ; 2.6391077276113957E7 ; 1.219179406116373E9 ; 0.0
12 ; 2564986.3671005704 ; 1.2765300984105268E8 ; 2.8889718544555914E7 ; 1.3432827917489495E9 ; 0.0
13 ; 2629056.59029885 ; 1.3151143651913548E8 ; 3.1454704911656484E7 ; 1.4709358015900023E9 ; 0.0
14 ; 2635976.4316029474 ; 1.356786649205343E8 ; 3.408376150195533E7 ; 1.6024472381091378E9 ; 0.0
15 ; 2638885.7696192525 ; 1.401546940097195E8 ; 3.671973793355828E7 ; 1.7381259030296721E9 ; 0.0
16 ; 2641396.9561821762 ; 1.4493952247096875E8 ; 3.935862370317753E7 ; 1.8782805970393915E9 ; 0.0
17 ; 2645708.75226137 ; 1.5003314871967712E8 ; 4.20000206593597E7 ; 2.0232201195103602E9 ; 0.0
18 ; 2648444.792195867 ; 1.554355709157076E8 ; 4.464572941162107E7 ; 2.173253268230037E9 ; 0.0
19 ; 2650321.0209087115 ; 1.6114678697852352E8 ; 4.7294174203816935E7 ; 2.328688839145745E9 ; 0.0
20 ; 2652414.622294012 ; 1.6716679460382357E8 ; 4.994449522472565E7 ; 2.4898356261242685E9 ; 0.0
21 ; 2656484.189595272 ; 1.7349559128138092E8 ; 5.259690984701966E7 ; 2.657002420728092E9 ; 0.0
22 ; 2659698.7836503866 ; 1.8013317431378448E8 ; 5.525339403661493E7 ; 2.8304980120094733E9 ; 0.0
23 ; 2663258.6497314903 ; 1.8707954083578235E8 ; 5.7913092820265315E7 ; 3.010631186323258E9 ; 0.0
24 ; 2666385.141529881 ; 1.9433468783393425E8 ; 6.05763514699968E7 ; 3.1977107271590405E9 ; 0.0
25 ; 2668599.5439237426 ; 2.0058665306448546E8 ; 6.324273661152668E7 ; 3.3920454149929748E9 ; 0.0
26 ; 2672319.5701421783 ; 2.0058898110973576E8 ; 6.5911336155450426E7 ; 3.5926320680574603E9 ; 0.0
27 ; 2673364.6611701194 ; 2.0059143792197448E8 ; 6.85836557255926E7 ; 3.7932210491671963E9 ; 0.0
28 ; 2677039.7060622512 ; 2.0059402008864543E8 ; 7.125702038676272E7 ; 3.993812487089171E9 ; 0.0
29 ; 2681024.4186570575 ; 2.0059672414317888E8 ; 7.393406009282498E7 ; 4.1944065071778164E9 ; 0.0
30 ; 2681803.814338425 ; 2.0059954658163762E8 ; 7.661508451148205E7 ; 4.395003231320995E9 ; 0.0
31 ; 2685806.3338303855 ; 2.0060248387831673E8 ; 7.929688832582048E7 ; 4.595602777902633E9 ; 0.0
32 ; 2689039.069526828 ; 2.0060553250022107E8 ; 8.198269465965086E7 ; 4.79620526178095E9 ; 0.0
33 ; 2690993.5774766738 ; 2.006086889203721E8 ; 8.467173372917768E7 ; 4.996810794281171E9 ; 0.0
34 ; 2694647.568325272 ; 2.0061194962991866E8 ; 8.736272730665436E7 ; 5.197419483201543E9 ; 0.0
35 ; 2696079.4692110154 ; 2.006153111490492E8 ; 9.005737487497963E7 ; 5.398031432831462E9 ; 0.0
36 ; 2699504.370335519 ; 2.0061877003672138E8 ; 9.275345434419064E7 ; 5.598646743980511E9 ; 0.0
37 ; 2700603.889867042 ; 2.0062232289923987E8 ; 9.545295871452616E7 ; 5.799265514017232E9 ; 0.0
38 ; 2703149.618548126 ; 2.0062596639772686E8 ; 9.81535626043932E7 ; 5.9998878369164715E9 ; 0.0
39 ; 2707268.6286333934 ; 2.006296972545392E8 ; 1.0085671222294132E8 ; 6.2005138033141985E9 ; 0.0
40 ; 2708233.807424308 ; 2.0063351225869337E8 ; 1.0356398085157472E8 ; 6.401143500568738E9 ; 0.0
41 ; 2708429.1141596767 ; 2.0063740827036503E8 ; 1.0627221465899903E8 ; 6.601777012827432E9 ; 0.0
42 ; 2712277.0686561237 ; 2.006413822245327E8 ; 1.089806437731587E8 ; 6.802414421097796E9 ; 0.0
43 ; 2714183.7419344 ; 2.006454311338365E8 ; 1.1169292084181482E8 ; 7.0030558033223295E9 ; 0.0
44 ; 2713024.0185796404 ; 2.0064955209072274E8 ; 1.1440710458374922E8 ; 7.203701234456166E9 ; 0.0
45 ; 2716545.895329637 ; 2.0065374226894408E8 ; 1.1712012860232887E8 ; 7.404350786546889E9 ; 0.0
46 ; 2718115.5003695027 ; 2.0065799892448267E8 ; 1.198366744976585E8 ; 7.605004528815833E9 ; 0.0
47 ; 2719326.825786968 ; 2.006623193959605E8 ; 1.2255478999802801E8 ; 7.805662527740315E9 ; 0.0
48 ; 2720311.0167904743 ; 2.0066670110459802E8 ; 1.2527411682381497E8 ; 8.006324847136276E9 ; 0.0
49 ; 2721107.2348543974 ; 2.0067114155377817E8 ; 1.2799442784060545E8 ; 8.206991548240874E9 ; 0.0
50 ; 2720886.520071017 ; 2.0067563832826892E8 ; 1.3071553507545985E8 ; 8.407662689794653E9 ; 0.0
51 ; 2721629.0783656705 ; 2.0068018909315285E8 ; 1.3343642159553087E8 ; 8.608338328122921E9 ; 0.0
52 ; 2722515.439121171 ; 2.0068479159250915E8 ; 1.3615805067389655E8 ; 8.809018517216074E9 ; 0.0
53 ; 2726080.723617814 ; 2.006894436478881E8 ; 1.388805661130177E8 ; 9.009703308808582E9 ; 0.0
54 ; 2724565.81462915 ; 2.0069414315661502E8 ; 1.4160664683663553E8 ; 9.21039275245647E9 ; 0.0
55 ; 2725506.536883381 ; 2.006988880899568E8 ; 1.4433121265126467E8 ; 9.411086895613085E9 ; 0.0
56 ; 2725214.894870136 ; 2.007036764911798E8 ; 1.4705671918814805E8 ; 9.611785783703041E9 ; 0.0
57 ; 2726204.7214690787 ; 2.007085064735259E8 ; 1.4978193408301818E8 ; 9.812489460194221E9 ; 0.0
58 ; 2726342.2067651665 ; 2.007133762181292E8 ; 1.5250813880448726E8 ; 1.0013197966667747E10 ; 0.0
59 ; 2729027.7375716344 ; 2.0071828397189322E8 ; 1.5523448101125243E8 ; 1.0213911342885878E10 ; 0.0
60 ; 2728654.524448812 ; 2.0072322804534683E8 ; 1.5796350874882406E8 ; 1.041462962685777E10 ; 0.0
61 ; 2728464.4640810057 ; 2.0072820681049326E8 ; 1.6069216327327287E8 ; 1.0615352854903118E10 ; 0.0
62 ; 2728622.4640126014 ; 2.0073321869866556E8 ; 1.634206277373539E8 ; 1.0816081061713612E10 ; 0.0
63 ; 2731040.746629543 ; 2.0073826219839934E8 ; 1.6614925020136648E8 ; 1.1016814280412277E10 ; 0.0
64 ; 2731014.938231619 ; 2.00743335853332E8 ; 1.6888029094799602E8 ; 1.1217552542610676E10 ; 0.0
65 ; 2729512.021208858 ; 2.007484382601367E8 ; 1.7161130588622764E8 ; 1.1418295878464008E10 ; 0.0
66 ; 2731194.3469379726 ; 2.0075356806649643E8 ; 1.743408179074365E8 ; 1.1619044316724146E10 ; 0.0
67 ; 2730785.461185636 ; 2.007587239691245E8 ; 1.7707201225437447E8 ; 1.1819797884790642E10 ; 0.0
68 ; 2731017.013789134 ; 2.0076390471183464E8 ; 1.798027977155601E8 ; 1.2020556608759766E10 ; 0.0
69 ; 2731995.538499933 ; 2.0076910908366436E8 ; 1.8253381472934926E8 ; 1.22213205134716E10 ; 0.0
70 ; 2732296.805776144 ; 2.0077433591705376E8 ; 1.8526581026784918E8 ; 1.2422089622555264E10 ; 0.0
71 ; 2733410.2487858124 ; 2.0077958408608145E8 ; 1.8799810707362533E8 ; 1.2622863958472317E10 ; 0.0
72 ; 2732829.7471027942 ; 2.007848525047587E8 ; 1.9073151732241115E8 ; 1.2823643542558397E10 ; 0.0
73 ; 2734126.579172392 ; 2.0079014012538227E8 ; 1.9346434706951395E8 ; 1.3024428395063156E10 ; 0.0
74 ; 2734038.640748688 ; 2.0079544593694624E8 ; 1.9619847364868635E8 ; 1.3225218535188538E10 ; 0.0
75 ; 2732100.8600014346 ; 2.0080076896361205E8 ; 1.9893251228943503E8 ; 1.3426013981125484E10 ; 0.0
76 ; 2731873.6997656845 ; 2.008061082632369E8 ; 2.0166461314943647E8 ; 1.3626814750089096E10 ; 0.0
77 ; 2733027.369189843 ; 2.008114629259591E8 ; 2.0439648684920216E8 ; 1.3827620858352333E10 ; 0.0
78 ; 2733449.0107110385 ; 2.0081683207283947E8 ; 2.0712951421839198E8 ; 1.4028432321278292E10 ; 0.0
79 ; 2731609.002805643 ; 2.008222148545577E8 ; 2.0986296322910303E8 ; 1.4229249153351131E10 ; 0.0
80 ; 2731593.7490671896 ; 2.008276104501623E8 ; 2.1259457223190868E8 ; 1.4430071368205688E10 ; 0.0
81 ; 2730152.050274225 ; 2.0083301806587225E8 ; 2.1532616598097587E8 ; 1.4630898978655851E10 ; 0.0
82 ; 2731115.909153543 ; 2.0083843693392974E8 ; 2.180563180312501E8 ; 1.4831731996721724E10 ; 0.0
83 ; 2726507.3239985495 ; 2.0084386631150112E8 ; 2.2078743394040364E8 ; 1.5032570433655653E10 ; 0.0
84 ; 2727640.6625737688 ; 2.008493054796257E8 ; 2.2351394126440218E8 ; 1.5233414299967154E10 ; 0.0
85 ; 2727473.056240568 ; 2.0085475374220994E8 ; 2.2624158192697594E8 ; 1.543426360544678E10 ; 0.0
86 ; 2727379.402083473 ; 2.0086021042506546E8 ; 2.289690549832165E8 ; 1.563511835918899E10 ; 0.0
87 ; 2725326.640398401 ; 2.0086567487498957E8 ; 2.3169643438529998E8 ; 1.5835978569614056E10 ; 0.0
88 ; 2724170.2454899186 ; 2.008711464588864E8 ; 2.344217610256984E8 ; 1.6036844244489046E10 ; 0.0
89 ; 2722593.7335616085 ; 2.00876624562927E8 ; 2.3714593127118832E8 ; 1.6237715390947933E10 ; 0.0
90 ; 2722741.4572471688 ; 2.0088210859174684E8 ; 2.3986852500474992E8 ; 1.643859201551086E10 ; 0.0
91 ; 2721012.352400366 ; 2.0088759796767938E8 ; 2.425912664619971E8 ; 1.6639474124102608E10 ; 0.0
92 ; 2718388.288657424 ; 2.0089309213002387E8 ; 2.4531227881439745E8 ; 1.6840361722070288E10 ; 0.0
93 ; 2718921.964301807 ; 2.0089859053434592E8 ; 2.4803066710305488E8 ; 1.7041254814200312E10 ; 0.0
94 ; 2718430.603848796 ; 2.0090409265181002E8 ; 2.5074958906735668E8 ; 1.7242153404734657E10 ; 0.0
95 ; 2716798.678266293 ; 2.0090959796854138E8 ; 2.5346801967120546E8 ; 1.7443057497386467E10 ; 0.0
96 ; 2715576.4850717518 ; 2.0091510598501736E8 ; 2.5618481834947175E8 ; 1.7643967095355007E10 ; 0.0
97 ; 2713443.379417018 ; 2.009206162154855E8 ; 2.589003948345435E8 ; 1.7844882201340023E10 ; 0.0
98 ; 2712962.8369385996 ; 2.0092612818740863E8 ; 2.6161383821396053E8 ; 1.8045802817555508E10 ; 0.0
99 ; 2711950.2258943603 ; 2.0093164144093415E8 ; 2.6432680105089912E8 ; 1.8246728945742916E10 ; 0.0
100 ; 2710244.391120937 ; 2.0093715552838784E8 ; 2.6703875127679348E8 ; 1.844766058718385E10 ; 0.0
101 ; 2709377.941250649 ; 2.0094267001379013E8 ; 2.697489956679144E8 ; 1.864859774271224E10 ; 0.0
102 ; 2707007.0682113143 ; 2.009481844723941E8 ; 2.72458373609165E8 ; 1.884954041272603E10 ; 0.0
103 ; 2704898.7852242375 ; 2.009536984902443E8 ; 2.7516538067737633E8 ; 1.905048859719842E10 ; 0.0
104 ; 2704782.3858498614 ; 2.0095921166375527E8 ; 2.778702794626006E8 ; 1.9251442295688667E10 ; 0.0
105 ; 2703008.9013511343 ; 2.0096472359930876E8 ; 2.805750618484504E8 ; 1.945240150735242E10 ; 0.0
106 ; 2700613.5484693362 ; 2.0097023391286922E8 ; 2.832780707498016E8 ; 1.965336623095173E10 ; 0.0
107 ; 2700860.6247419114 ; 2.0097574222961602E8 ; 2.8597868429827094E8 ; 1.9854336464864597E10 ; 0.0
108 ; 2699311.4097352596 ; 2.009812481835923E8 ; 2.8867954492301285E8 ; 2.005531220709421E10 ; 0.0
109 ; 2698664.735098721 ; 2.0098675141736898E8 ; 2.913788563327481E8 ; 2.0256293455277805E10 ; 0.0
110 ; 2695162.4652941693 ; 2.0099225158172414E8 ; 2.9407752106784683E8 ; 2.0457280206695175E10 ; 0.0
111 ; 2695249.0633903067 ; 2.009977483353359E8 ; 2.96772683533141E8 ; 2.0658272458276897E10 ; 0.0
112 ; 2691892.6575308004 ; 2.010032413444892E8 ; 2.9946793259653133E8 ; 2.0859270206612232E10 ; 0.0
113 ; 2692163.927860881 ; 2.010087302827952E8 ; 3.021598252540621E8 ; 2.1060273447956722E10 ; 0.0
114 ; 2690830.5746817742 ; 2.0101421483092296E8 ; 3.04851989181923E8 ; 2.1261282178239517E10 ; 0.0
115 ; 2687632.3858338264 ; 2.0101969467634282E8 ; 3.0754281975660473E8 ; 2.146229639307044E10 ; 0.0
116 ; 2686000.538542163 ; 2.010251695130807E8 ; 3.1023045214243853E8 ; 2.166331608774678E10 ; 0.0
117 ; 2684918.9528494054 ; 2.0103063904148328E8 ; 3.129164526809807E8 ; 2.186434125725986E10 ; 0.0
118 ; 2682591.159862466 ; 2.0103610296799302E8 ; 3.156013716338301E8 ; 2.2065371896301346E10 ; 0.0
119 ; 2680457.876532345 ; 2.01041561004933E8 ; 3.182839627936925E8 ; 2.226640799926934E10 ; 0.0
120 ; 2679384.3746612533 ; 2.0104701287030065E8 ; 3.2096442067022485E8 ; 2.2467449560274273E10 ; 0.0
121 ; 2677668.8644771604 ; 2.0105245828757074E8 ; 3.236438050448861E8 ; 2.2668496573144573E10 ; 0.0
122 ; 2674630.8262484972 ; 2.0105789698550615E8 ; 3.2632147390936327E8 ; 2.2869549031432144E10 ; 0.0
123 ; 2674677.030540561 ; 2.01063328697977E8 ; 3.289961047356118E8 ; 2.3070606928417652E10 ; 0.0
124 ; 2671261.977670097 ; 2.010687531637873E8 ; 3.316707817661524E8 ; 2.3271670257115627E10 ; 0.0
125 ; 2668924.731588104 ; 2.0107417012650874E8 ; 3.3434204374382246E8 ; 2.3472739010279415E10 ; 0.0
126 ; 2667175.3146157125 ; 2.0107957933432144E8 ; 3.370109684754106E8 ; 2.3673813180405926E10 ; 0.0
127 ; 2664717.7937192516 ; 2.0108498053986147E8 ; 3.396781437900263E8 ; 2.3874892759740246E10 ; 0.0
128 ; 2660679.780072452 ; 2.010903735000745E8 ; 3.4234286158374554E8 ; 2.4075977740280106E10 ; 0.0
129 ; 2661987.5304771364 ; 2.0109575797607547E8 ; 3.45003541363818E8 ; 2.427706811378018E10 ; 0.0
130 ; 2658724.2407171368 ; 2.0110113373301417E8 ; 3.476655288942951E8 ; 2.4478163871756256E10 ; 0.0
131 ; 2656041.327068966 ; 2.011065005399462E8 ; 3.503242531350122E8 ; 2.467926500548927E10 ; 0.0
132 ; 2653740.5756940334 ; 2.0111185816970906E8 ; 3.529802944620812E8 ; 2.4880371506029217E10 ; 0.0
133 ; 2650061.923460913 ; 2.011172063988036E8 ; 3.556340350377752E8 ; 2.5081483364198925E10 ; 0.0
134 ; 2648409.542247483 ; 2.011225450072799E8 ; 3.582840969612361E8 ; 2.528260057059773E10 ; 0.0
135 ; 2644433.192483281 ; 2.0112787377862793E8 ; 3.609325065034836E8 ; 2.5483723115605007E10 ; 0.0
136 ; 2642578.603241212 ; 2.011331924996725E8 ; 3.635769396959669E8 ; 2.5684850989383636E10 ; 0.0
137 ; 2638716.6177211767 ; 2.0113850096047255E8 ; 3.662195182992081E8 ; 2.588598418188331E10 ; 0.0
138 ; 2635061.4880440948 ; 2.0114379895422408E8 ; 3.688582349169293E8 ; 2.608712268284378E10 ; 0.0
139 ; 2633342.5867490573 ; 2.0114908627716747E8 ; 3.714932964049734E8 ; 2.6288266481798004E10 ; 0.0
140 ; 2630613.6148183206 ; 2.011543627284978E8 ; 3.7412663899172246E8 ; 2.6489415568075172E10 ; 0.0
141 ; 2626053.6087383507 ; 2.0115962811027932E8 ; 3.767572526065408E8 ; 2.669056993080367E10 ; 0.0
142 ; 2623360.87959209 ; 2.0116488222736275E8 ; 3.7938330621527916E8 ; 2.6891729558913948E10 ; 0.0
143 ; 2620169.3905560854 ; 2.0117012488730612E8 ; 3.820066670948712E8 ; 2.709289444114131E10 ; 0.0
144 ; 2617004.567791149 ; 2.011753559002985E8 ; 3.846268364854273E8 ; 2.7294064566028618E10 ; 0.0
145 ; 2613522.619537005 ; 2.0118057507908675E8 ; 3.872438410532185E8 ; 2.7495239921928917E10 ; 0.0
146 ; 2613009.040036921 ; 2.0118578223890507E8 ; 3.898573636727555E8 ; 2.7696420497008003E10 ; 0.0
147 ; 2612030.526761633 ; 2.011909771974073E8 ; 3.924703727127924E8 ; 2.789760627924691E10 ; 0.0
148 ; 2607010.606681082 ; 2.011961597746016E8 ; 3.9508240323955405E8 ; 2.8098797256444317E10 ; 0.0
149 ; 2606951.240700153 ; 2.0120132979278794E8 ; 3.9768941384623516E8 ; 2.8299993416218918E10 ; 0.0
150 ; 2603356.8000774872 ; 2.0120648707649758E8 ; 4.002963650869353E8 ; 2.8501194746011707E10 ; 0.0
151 ; 2601245.263861939 ; 2.012116314524352E8 ; 4.028997218870128E8 ; 2.8702401233088203E10 ; 0.0
152 ; 2597887.746224381 ; 2.012167627494229E8 ; 4.0550096715087473E8 ; 2.8903612864540638E10 ; 0.0
153 ; 2598132.096405013 ; 2.012218807983465E8 ; 4.0809885489709914E8 ; 2.9104829627290062E10 ; 0.0
154 ; 2594797.5996521185 ; 2.012269854321036E8 ; 4.1069698699350417E8 ; 2.930605150808841E10 ; 0.0
155 ; 2592225.5182405654 ; 2.0123207648555398E8 ; 4.132917845931563E8 ; 2.950727849352051E10 ; 0.0
156 ; 2591513.3814366558 ; 2.012371537954713E8 ; 4.1588401011139685E8 ; 2.9708510570006065E10 ; 0.0
157 ; 2588240.8017952023 ; 2.0124221720049712E8 ; 4.184755234928335E8 ; 2.9909747723801537E10 ; 0.0
158 ; 2585312.499831898 ; 2.0124726654109606E8 ; 4.210637642946287E8 ; 3.0110989941002033E10 ; 0.0
159 ; 2584637.721895221 ; 2.012523016595132E8 ; 4.236490767944606E8 ; 3.031223720754313E10 ; 0.0
160 ; 2581818.0360219465 ; 2.0125732239973244E8 ; 4.262337145163558E8 ; 3.051348950920264E10 ; 0.0
161 ; 2579184.1568066995 ; 2.012623286074368E8 ; 4.2881553255237776E8 ; 3.071474683160237E10 ; 0.0
162 ; 2576602.3650952405 ; 2.0126732012997E8 ; 4.3139471670918447E8 ; 3.091600916020981E10 ; 0.0
163 ; 2574453.7808987116 ; 2.0127229681629938E8 ; 4.339713190742797E8 ; 3.111727648033978E10 ; 0.0
164 ; 2572045.439846901 ; 2.0127725851698023E8 ; 4.365457728551784E8 ; 3.131854877715608E10 ; 0.0
165 ; 2570417.0280936128 ; 2.0128220508412135E8 ; 4.391178182950253E8 ; 3.1519826035673058E10 ; 0.0
166 ; 2566726.6787783965 ; 2.012871363713519E8 ; 4.416882353231189E8 ; 3.172110824075718E10 ; 0.0
167 ; 2565613.1912113866 ; 2.012920522337894E8 ; 4.4425496200189734E8 ; 3.1922395377128532E10 ; 0.0
168 ; 2563154.0052123596 ; 2.0129695252800876E8 ; 4.4682057519310874E8 ; 3.212368742936232E10 ; 0.0
169 ; 2559636.950873898 ; 2.0130183711201265E8 ; 4.493837291983211E8 ; 3.2324984381890327E10 ; 0.0
170 ; 2556489.898697465 ; 2.013067058452026E8 ; 4.51943366149195E8 ; 3.252628621900234E10 ; 0.0
171 ; 2555420.8888966637 ; 2.0131155858835143E8 ; 4.5449985604789245E8 ; 3.272759292484754E10 ; 0.0
172 ; 2553671.170494051 ; 2.0131639520357642E8 ; 4.570552769367891E8 ; 3.2928904483435894E10 ; 0.0
173 ; 2550542.4143039715 ; 2.013212155543135E8 ; 4.596089481072832E8 ; 3.313022087863947E10 ; 0.0
174 ; 2548040.183636632 ; 2.0132601950529236E8 ; 4.6215949052158713E8 ; 3.3331542094193783E10 ; 0.0
175 ; 2547009.074710997 ; 2.0133080692251235E8 ; 4.6470753070522374E8 ; 3.3532868113699074E10 ; 0.0
176 ; 2545340.027124596 ; 2.013355776732193E8 ; 4.6725453977993476E8 ; 3.3734198920621586E10 ; 0.0
177 ; 2544155.5461263238 ; 2.0134033162588313E8 ; 4.6979987980705935E8 ; 3.3935534498294804E10 ; 0.0
178 ; 2543324.2257140907 ; 2.0134506865017617E8 ; 4.7234403535318565E8 ; 3.413687482992069E10 ; 0.0
179 ; 2541059.2334804814 ; 2.0134978861695224E8 ; 4.7488735957889974E8 ; 3.4338219898570866E10 ; 0.0
180 ; 2539260.8696716 ; 2.0135449139822644E8 ; 4.774284188123802E8 ; 3.453956968718782E10 ; 0.0
181 ; 2538350.424176749 ; 2.0135917686715582E8 ; 4.799676796820518E8 ; 3.4740924178586044E10 ; 0.0
182 ; 2538107.662982451 ; 2.0136384489802033E8 ; 4.8250603010622853E8 ; 3.49422833554532E10 ; 0.0
183 ; 2534357.369889749 ; 2.0136849536620477E8 ; 4.85044137769211E8 ; 3.514364720035122E10 ; 0.0
184 ; 2534215.004588187 ; 2.0137312814818123E8 ; 4.8757849513910073E8 ; 3.534501569571742E10 ; 0.0
185 ; 2531135.6243684664 ; 2.0137774312149197E8 ; 4.901127101436889E8 ; 3.55463888238656E10 ; 0.0
186 ; 2530232.3493213435 ; 2.013823401647332E8 ; 4.926438457680574E8 ; 3.574776656698709E10 ; 0.0
187 ; 2529995.645605921 ; 2.013869191575391E8 ; 4.951740781173788E8 ; 3.5949148907151825E10 ; 0.0
188 ; 2527250.624778745 ; 2.0139147998056653E8 ; 4.977040737629847E8 ; 3.6150535826309364E10 ; 0.0
189 ; 2525132.3914213106 ; 2.013960225154803E8 ; 5.0023132438776344E8 ; 3.635192730628993E10 ; 0.0
190 ; 2525643.9097698648 ; 2.0140054664493874E8 ; 5.0275645677918476E8 ; 3.655332332880541E10 ; 0.0
191 ; 2524296.9385706387 ; 2.0140505225257996E8 ; 5.0528210068895465E8 ; 3.675472387545035E10 ; 0.0
192 ; 2522791.8787768926 ; 2.0140953922300848E8 ; 5.0780639762752527E8 ; 3.695612892770293E10 ; 0.0
193 ; 2521924.8916135714 ; 2.014140074417823E8 ; 5.103291895063022E8 ; 3.7157538466925934E10 ; 0.0
194 ; 2517691.53568083 ; 2.0141845679540032E8 ; 5.128511143979157E8 ; 3.7358952474367714E10 ; 0.0
195 ; 2519359.7403929434 ; 2.014228871712904E8 ; 5.1536880593359655E8 ; 3.756037093116312E10 ; 0.0
196 ; 2516819.4480190985 ; 2.0142729845779765E8 ; 5.178881656739895E8 ; 3.7761793818334404E10 ; 0.0
197 ; 2515118.4128326382 ; 2.0143169054417306E8 ; 5.2040498512200856E8 ; 3.79632211167922E10 ; 0.0
198 ; 2515362.5762498416 ; 2.0143606332056272E8 ; 5.229201035348412E8 ; 3.816465280733637E10 ; 0.0
199 ; 2512238.463517789 ; 2.0144041667799705E8 ; 5.25435466111091E8 ; 3.836608887065694E10 ; 0.0
