CSV File for the City 6 on Day 37
1 - Minute m 
2 - Power Consumed at minute m 
3 - Power Produced at minute m 
4 - Energy Consumed since the beginning of the day 
5 - Energy Produced since the beginning of the day 
6 - Energy Lost since the beginning of the day on lines starting from the city
 
0 ; 1.1113358832464427E7 ; 1.055406564764544E8 ; 0.0 ; 0.0 ; 0.0
1 ; 1.1124333955896778E7 ; 1.056895748244409E8 ; 1.1113358832464427E7 ; 1.055406564764544E8 ; 0.0
2 ; 1.1136857021160567E7 ; 1.0614763567685184E8 ; 2.2237692788361207E7 ; 2.112302313008953E8 ; 0.0
3 ; 1.1150478581694469E7 ; 1.0691485960208058E8 ; 3.3374549809521772E7 ; 3.1737786697774714E8 ; 0.0
4 ; 1.1165276013886634E7 ; 1.0799126592274356E8 ; 4.452502839121624E7 ; 4.242927265798277E8 ; 0.0
5 ; 1.1186982120175106E7 ; 1.0937687235279351E8 ; 5.569030440510288E7 ; 5.322839925025713E8 ; 0.0
6 ; 1.121217340393556E7 ; 1.1107169463659379E8 ; 6.687728652527799E7 ; 6.416608648553648E8 ; 0.0
7 ; 1.1250869914822752E7 ; 1.1307574620500153E8 ; 7.808945992921355E7 ; 7.527325594919586E8 ; 0.0
8 ; 1.1305532546459097E7 ; 1.1538903786450446E8 ; 8.934032984403631E7 ; 8.658083056969602E8 ; 0.0
9 ; 1.1381489134844134E7 ; 1.1801157753525728E8 ; 1.006458623904954E8 ; 9.811973435614647E8 ; 0.0
10 ; 1.1507608785665069E7 ; 1.2094337005231106E8 ; 1.1202735152533954E8 ; 1.099208921096722E9 ; 0.0
11 ; 1.1706650222871086E7 ; 1.2418441704143015E8 ; 1.2353496031100461E8 ; 1.220152291149033E9 ; 0.0
12 ; 1.2022056856473431E7 ; 1.2773471687685016E8 ; 1.352416105338757E8 ; 1.3443367081904633E9 ; 0.0
13 ; 1.2326206650365755E7 ; 1.3159426472352004E8 ; 1.4726366739034915E8 ; 1.4720714250673134E9 ; 0.0
14 ; 1.2360317409558304E7 ; 1.3576305266128516E8 ; 1.5958987404071492E8 ; 1.6036656897908335E9 ; 0.0
15 ; 1.2378910840140227E7 ; 1.402410698836577E8 ; 1.7195019145027322E8 ; 1.7394287424521186E9 ; 0.0
16 ; 1.2389927050621256E7 ; 1.450283029597806E8 ; 1.8432910229041344E8 ; 1.8796698123357763E9 ; 0.0
17 ; 1.2407098087085614E7 ; 1.5012473614529046E8 ; 1.967190293410347E8 ; 2.024698115295557E9 ; 0.0
18 ; 1.2419231751696449E7 ; 1.5553035172623456E8 ; 2.0912612742812032E8 ; 2.1748228514408474E9 ; 0.0
19 ; 1.2433683447440477E7 ; 1.6124513037999645E8 ; 2.2154535917981675E8 ; 2.330353203167082E9 ; 0.0
20 ; 1.244834324410041E7 ; 1.6726905153818277E8 ; 2.3397904262725723E8 ; 2.491598333547078E9 ; 0.0
21 ; 1.2461433801400175E7 ; 1.7360209373834857E8 ; 2.4642738587135765E8 ; 2.658867385085261E9 ; 0.0
22 ; 1.2478764415000303E7 ; 1.8024423495395398E8 ; 2.5888881967275783E8 ; 2.8324694788236094E9 ; 0.0
23 ; 1.2493711543856218E7 ; 1.8719545289472497E8 ; 2.713675840877581E8 ; 3.012713713777563E9 ; 0.0
24 ; 1.2506696804510193E7 ; 1.9445572527234036E8 ; 2.838612956316143E8 ; 3.199909166672288E9 ; 0.0
25 ; 1.2526756673925646E7 ; 2.0071307092706156E8 ; 2.963679924361245E8 ; 3.3943648919446282E9 ; 0.0
26 ; 1.2539422355521405E7 ; 2.0072101605538443E8 ; 3.0889474911005014E8 ; 3.59507796287169E9 ; 0.0
27 ; 1.2550527315794526E7 ; 2.0072930888923606E8 ; 3.214341714655715E8 ; 3.7957989789270744E9 ; 0.0
28 ; 1.2565996693679234E7 ; 2.0073792906301534E8 ; 3.3398469878136605E8 ; 3.9965282878163104E9 ; 0.0
29 ; 1.2578455317807004E7 ; 2.007468569963131E8 ; 3.4655069547504526E8 ; 4.197266216879326E9 ; 0.0
30 ; 1.2593583010160763E7 ; 2.0075607395625645E8 ; 3.591291507928523E8 ; 4.398013073875639E9 ; 0.0
31 ; 1.2607579172103137E7 ; 2.0076556209652856E8 ; 3.71722733803013E8 ; 4.598769147831896E9 ; 0.0
32 ; 1.2621488732277587E7 ; 2.0077530447679767E8 ; 3.8433031297511613E8 ; 4.799534709928425E9 ; 0.0
33 ; 1.2629922274169844E7 ; 2.0078528506606656E8 ; 3.969518017073937E8 ; 5.000310014405223E9 ; 0.0
34 ; 1.2639767746322062E7 ; 2.0079548873313913E8 ; 4.0958172398156357E8 ; 5.20109529947129E9 ; 0.0
35 ; 1.2652447674440071E7 ; 2.0080590122703612E8 ; 4.222214917278856E8 ; 5.401890788204429E9 ; 0.0
36 ; 1.2669028821339514E7 ; 2.0081650914981225E8 ; 4.348739394023257E8 ; 5.602696689431465E9 ; 0.0
37 ; 1.2676586678762132E7 ; 2.0082729992385644E8 ; 4.475429682236652E8 ; 5.803513198581278E9 ; 0.0
38 ; 1.2685926302922128E7 ; 2.0083826175540766E8 ; 4.602195549024273E8 ; 6.004340498505135E9 ; 0.0
39 ; 1.2695113672129368E7 ; 2.0084938359570572E8 ; 4.7290548120534945E8 ; 6.205178760260542E9 ; 0.0
40 ; 1.2707609135762727E7 ; 2.0086065510091564E8 ; 4.8560059487747884E8 ; 6.406028143856248E9 ; 0.0
41 ; 1.2714546046118254E7 ; 2.008720665917256E8 ; 4.983082040132416E8 ; 6.606888798957164E9 ; 0.0
42 ; 1.2720361765504785E7 ; 2.008836090133126E8 ; 5.1102275005935985E8 ; 6.807760865548889E9 ; 0.0
43 ; 1.2732416225680467E7 ; 2.008952738962002E8 ; 5.237431118248646E8 ; 7.0086444745622015E9 ; 0.0
44 ; 1.2740316420828572E7 ; 2.0090705331839064E8 ; 5.364755280505451E8 ; 7.209539748458402E9 ; 0.0
45 ; 1.2749407099525295E7 ; 2.0091893986904138E8 ; 5.492158444713737E8 ; 7.410446801776793E9 ; 0.0
46 ; 1.2753800801640483E7 ; 2.0093092661386216E8 ; 5.61965251570899E8 ; 7.611365741645834E9 ; 0.0
47 ; 1.2757397540318165E7 ; 2.0094300706233793E8 ; 5.747190523725395E8 ; 7.812296668259696E9 ; 0.0
48 ; 1.2760786675832389E7 ; 2.0095517513682616E8 ; 5.874764499128577E8 ; 8.013239675322034E9 ; 0.0
49 ; 1.2767335784279387E7 ; 2.0096742514353326E8 ; 6.0023723658869E8 ; 8.21419485045886E9 ; 0.0
50 ; 1.2774168912073314E7 ; 2.009797517453435E8 ; 6.130045723729694E8 ; 8.415162275602394E9 ; 0.0
51 ; 1.2775363720238354E7 ; 2.0099214993644938E8 ; 6.257787412850428E8 ; 8.616142027347738E9 ; 0.0
52 ; 1.2781521377380945E7 ; 2.0100461501871562E8 ; 6.385541050052811E8 ; 8.817134177284187E9 ; 0.0
53 ; 1.2787918487945603E7 ; 2.0101714257969853E8 ; 6.51335626382662E8 ; 9.018138792302902E9 ; 0.0
54 ; 1.2788224111051187E7 ; 2.0102972847223443E8 ; 6.641235448706076E8 ; 9.2191559348826E9 ; 0.0
55 ; 1.2790269348822411E7 ; 2.0104236879550803E8 ; 6.769117689816588E8 ; 9.420185663354836E9 ; 0.0
56 ; 1.2793878815320209E7 ; 2.010550598775097E8 ; 6.897020383304812E8 ; 9.621228032150343E9 ; 0.0
57 ; 1.2796672944047507E7 ; 2.0106779825879267E8 ; 7.024959171458014E8 ; 9.822283092027853E9 ; 0.0
58 ; 1.2795669056291204E7 ; 2.0108058067744118E8 ; 7.152925900898489E8 ; 1.0023350890286646E10 ; 0.0
59 ; 1.280313725432133E7 ; 2.01093404055166E8 ; 7.280882591461401E8 ; 1.0224431470964087E10 ; 0.0
60 ; 1.28072731733196E7 ; 2.0110626548444572E8 ; 7.408913964004614E8 ; 1.0425524875019253E10 ; 0.0
61 ; 1.2807295059749184E7 ; 2.011191622166371E8 ; 7.53698669573781E8 ; 1.0626631140503698E10 ; 0.0
62 ; 1.2805979115998352E7 ; 2.0113209165098247E8 ; 7.665059646335301E8 ; 1.0827750302720335E10 ; 0.0
63 ; 1.281034802376175E7 ; 2.0114505132444534E8 ; 7.793119437495285E8 ; 1.1028882394371317E10 ; 0.0
64 ; 1.2812788157522552E7 ; 2.011580389023119E8 ; 7.921222917732903E8 ; 1.1230027445695763E10 ; 0.0
65 ; 1.2817416089415565E7 ; 2.011710521694981E8 ; 8.049350799308128E8 ; 1.1431185484598074E10 ; 0.0
66 ; 1.281268484380484E7 ; 2.0118408902250803E8 ; 8.177524960202284E8 ; 1.1632356536767572E10 ; 0.0
67 ; 1.2814596387643324E7 ; 2.011971474619928E8 ; 8.305651808640332E8 ; 1.1833540625790081E10 ; 0.0
68 ; 1.2820933219637886E7 ; 2.0121022558586216E8 ; 8.433797772516766E8 ; 1.2034737773252073E10 ; 0.0
69 ; 1.2820589054769458E7 ; 2.0122332158290625E8 ; 8.562007104713144E8 ; 1.2235947998837936E10 ; 0.0
70 ; 1.2821351093195293E7 ; 2.0123643372688657E8 ; 8.69021299526084E8 ; 1.2437171320420843E10 ; 0.0
71 ; 1.2821779106929734E7 ; 2.0124956037105998E8 ; 8.818426506192793E8 ; 1.263840775414773E10 ; 0.0
72 ; 1.2823217429064393E7 ; 2.0126269994310123E8 ; 8.94664429726209E8 ; 1.283965731451879E10 ; 0.0
73 ; 1.2825058470264044E7 ; 2.0127585094039282E8 ; 9.074876471552734E8 ; 1.3040920014461891E10 ; 0.0
74 ; 1.2825297492398122E7 ; 2.0128901192565385E8 ; 9.203127056255375E8 ; 1.3242195865402285E10 ; 0.0
75 ; 1.282923607206119E7 ; 2.013021815228807E8 ; 9.331380031179357E8 ; 1.3443484877327938E10 ; 0.0
76 ; 1.2824434248428447E7 ; 2.0131535841357628E8 ; 9.459672391899968E8 ; 1.3644787058850819E10 ; 0.0
77 ; 1.2828594194155041E7 ; 2.0132854133324438E8 ; 9.587916734384253E8 ; 1.3846102417264395E10 ; 0.0
78 ; 1.2819173061732903E7 ; 2.0134172906812972E8 ; 9.716202676325804E8 ; 1.404743095859764E10 ; 0.0
79 ; 1.2816263072677428E7 ; 2.013549204521842E8 ; 9.844394406943133E8 ; 1.424877268766577E10 ; 0.0
80 ; 1.281710314605797E7 ; 2.0136811436424232E8 ; 9.972557037669907E8 ; 1.4450127608117954E10 ; 0.0
81 ; 1.2810308408181837E7 ; 2.0138130972538993E8 ; 1.0100728069130486E9 ; 1.4651495722482197E10 ; 0.0
82 ; 1.28103834063979E7 ; 2.013945054965116E8 ; 1.0228831153212304E9 ; 1.4852877032207586E10 ; 0.0
83 ; 1.2804205962543577E7 ; 2.014077006760033E8 ; 1.0356934987276284E9 ; 1.5054271537704098E10 ; 0.0
84 ; 1.2799631474554244E7 ; 2.0142089429763794E8 ; 1.048497704690172E9 ; 1.52556792383801E10 ; 0.0
85 ; 1.2795919206676953E7 ; 2.014340854285727E8 ; 1.0612973361647263E9 ; 1.5457100132677738E10 ; 0.0
86 ; 1.2791833037487667E7 ; 2.0144727316748735E8 ; 1.0740932553714032E9 ; 1.5658534218106312E10 ; 0.0
87 ; 1.2787926799586039E7 ; 2.0146045664284426E8 ; 1.086885088408891E9 ; 1.58599814912738E10 ; 0.0
88 ; 1.2781928218256343E7 ; 2.0147363501126114E8 ; 1.099673015208477E9 ; 1.6061441947916645E10 ; 0.0
89 ; 1.2779623279870404E7 ; 2.014868074559884E8 ; 1.1124549434267333E9 ; 1.6262915582927906E10 ; 0.0
90 ; 1.2772711780871518E7 ; 2.014999731854836E8 ; 1.1252345667066038E9 ; 1.6464402390383894E10 ; 0.0
91 ; 1.2767756363838898E7 ; 2.0151313143207604E8 ; 1.1380072784874754E9 ; 1.6665902363569378E10 ; 0.0
92 ; 1.2761921054779878E7 ; 2.0152628145071524E8 ; 1.1507750348513143E9 ; 1.6867415495001453E10 ; 0.0
93 ; 1.275455902472947E7 ; 2.0153942251779744E8 ; 1.163536955906094E9 ; 1.706894177645217E10 ; 0.0
94 ; 1.2751694275775094E7 ; 2.0155255393006438E8 ; 1.1762915149308236E9 ; 1.7270481198969967E10 ; 0.0
95 ; 1.2744584692584248E7 ; 2.0156567500356975E8 ; 1.1890432092065988E9 ; 1.7472033752900032E10 ; 0.0
96 ; 1.2741277291312568E7 ; 2.0157878507270846E8 ; 1.201787793899183E9 ; 1.7673599427903603E10 ; 0.0
97 ; 1.2735203328278312E7 ; 2.015918834893044E8 ; 1.2145290711904955E9 ; 1.787517821297631E10 ; 0.0
98 ; 1.272766773161521E7 ; 2.016049696217529E8 ; 1.2272642745187738E9 ; 1.8076770096465614E10 ; 0.0
99 ; 1.2720948582669793E7 ; 2.0161804285421404E8 ; 1.239991942250389E9 ; 1.8278375066087368E10 ; 0.0
100 ; 1.2716929327517278E7 ; 2.016311025858536E8 ; 1.2527128908330588E9 ; 1.847999310894158E10 ; 0.0
101 ; 1.2705417080947079E7 ; 2.016441482301283E8 ; 1.265429820160576E9 ; 1.8681624211527435E10 ; 0.0
102 ; 1.2700952308806768E7 ; 2.0165717921411243E8 ; 1.2781352372415233E9 ; 1.8883268359757565E10 ; 0.0
103 ; 1.2696274888925664E7 ; 2.0167019497786364E8 ; 1.29083618955033E9 ; 1.9084925538971676E10 ; 0.0
104 ; 1.2690016229844173E7 ; 2.016831949738244E8 ; 1.3035324644392555E9 ; 1.928659573394954E10 ; 0.0
105 ; 1.2679465131374504E7 ; 2.01696178666258E8 ; 1.3162224806690996E9 ; 1.9488278928923363E10 ; 0.0
106 ; 1.2673838231274147E7 ; 2.017091455307157E8 ; 1.3289019458004742E9 ; 1.9689975107589622E10 ; 0.0
107 ; 1.2666780285887346E7 ; 2.017220950535342E8 ; 1.3415757840317483E9 ; 1.989168425312034E10 ; 0.0
108 ; 1.2657061904554242E7 ; 2.017350267313606E8 ; 1.3542425643176355E9 ; 2.0093406348173874E10 ; 0.0
109 ; 1.264940984316674E7 ; 2.0174794007070363E8 ; 1.3668996262221897E9 ; 2.0295141374905235E10 ; 0.0
110 ; 1.264443784914645E7 ; 2.0176083458750942E8 ; 1.3795490360653565E9 ; 2.049688931497594E10 ; 0.0
111 ; 1.2635190229287554E7 ; 2.0177370980676028E8 ; 1.3921934739145029E9 ; 2.069865014956345E10 ; 0.0
112 ; 1.2627441484350188E7 ; 2.0178656526209506E8 ; 1.4048286641437905E9 ; 2.090042385937021E10 ; 0.0
113 ; 1.2621237986918215E7 ; 2.0179940049544984E8 ; 1.4174561056281407E9 ; 2.1102210424632305E10 ; 0.0
114 ; 1.2612066368572997E7 ; 2.0181221505671757E8 ; 1.430077343615059E9 ; 2.1304009825127754E10 ; 0.0
115 ; 1.2604993503523422E7 ; 2.0182500850342596E8 ; 1.4426894099836318E9 ; 2.150582204018447E10 ; 0.0
116 ; 1.2598116806306824E7 ; 2.018377804004318E8 ; 1.4552944034871552E9 ; 2.1707647048687897E10 ; 0.0
117 ; 1.2586976946793485E7 ; 2.0185053031963173E8 ; 1.467892520293462E9 ; 2.190948482908833E10 ; 0.0
118 ; 1.25808136254114E7 ; 2.0186325783968717E8 ; 1.4804794972402556E9 ; 2.2111335359407963E10 ; 0.0
119 ; 1.2569616127340017E7 ; 2.0187596254576427E8 ; 1.493060310865667E9 ; 2.231319861724765E10 ; 0.0
120 ; 1.2561182749573484E7 ; 2.0188864402928638E8 ; 1.5056299269930072E9 ; 2.2515074579793415E10 ; 0.0
121 ; 1.2553852501140557E7 ; 2.0190130188769948E8 ; 1.5181911097425807E9 ; 2.27169632238227E10 ; 0.0
122 ; 1.2542756235774476E7 ; 2.019139357242491E8 ; 1.5307449622437212E9 ; 2.29188645257104E10 ; 0.0
123 ; 1.253278634120268E7 ; 2.0192654514776865E8 ; 1.5432877184794958E9 ; 2.312077846143465E10 ; 0.0
124 ; 1.2523224915043194E7 ; 2.0193912977247813E8 ; 1.5558205048206985E9 ; 2.332270500658242E10 ; 0.0
125 ; 1.251746433147554E7 ; 2.0195168921779275E8 ; 1.5683437297357416E9 ; 2.35246441363549E10 ; 0.0
126 ; 1.2508735162408834E7 ; 2.0196422310814103E8 ; 1.580861194067217E9 ; 2.3726595825572693E10 ; 0.0
127 ; 1.2496559788563225E7 ; 2.019767310727916E8 ; 1.593369929229626E9 ; 2.3928560048680836E10 ; 0.0
128 ; 1.2487278870500479E7 ; 2.0198921274568865E8 ; 1.6058664890181892E9 ; 2.4130536779753628E10 ; 0.0
129 ; 1.2478994630040111E7 ; 2.0200166776529494E8 ; 1.6183537678886898E9 ; 2.4332525992499317E10 ; 0.0
130 ; 1.2465507389728604E7 ; 2.020140957744427E8 ; 1.63083276251873E9 ; 2.453452766026461E10 ; 0.0
131 ; 1.2450409332640413E7 ; 2.020264964201914E8 ; 1.6432982699084585E9 ; 2.4736541756039055E10 ; 0.0
132 ; 1.2435602058864396E7 ; 2.020388693536922E8 ; 1.6557486792410989E9 ; 2.4938568252459248E10 ; 0.0
133 ; 1.2422370651098311E7 ; 2.0205121423005906E8 ; 1.6681842812999632E9 ; 2.514060712181294E10 ; 0.0
134 ; 1.2405324088843007E7 ; 2.0206353070824552E8 ; 1.6806066519510615E9 ; 2.5342658336043E10 ; 0.0
135 ; 1.2394711669734824E7 ; 2.020758184509275E8 ; 1.6930119760399046E9 ; 2.5544721866751244E10 ; 0.0
136 ; 1.2378651686607767E7 ; 2.0208807712439135E8 ; 1.7054066877096393E9 ; 2.574679768520217E10 ; 0.0
137 ; 1.2362387046787085E7 ; 2.0210030639842716E8 ; 1.7177853393962471E9 ; 2.594888576232656E10 ; 0.0
138 ; 1.2347350182810854E7 ; 2.0211250594622687E8 ; 1.7301477264430342E9 ; 2.6150986068724987E10 ; 0.0
139 ; 1.233695945616284E7 ; 2.0212467544428712E8 ; 1.742495076625845E9 ; 2.6353098574671215E10 ; 0.0
140 ; 1.2322434562813167E7 ; 2.0213681457231638E8 ; 1.754832036082008E9 ; 2.65552232501155E10 ; 0.0
141 ; 1.2303362864434412E7 ; 2.0214892301314637E8 ; 1.7671544706448212E9 ; 2.6757360064687817E10 ; 0.0
142 ; 1.2291065454125207E7 ; 2.0216100045264745E8 ; 1.7794578335092556E9 ; 2.6959508987700962E10 ; 0.0
143 ; 1.227376476952196E7 ; 2.0217304657964775E8 ; 1.7917488989633808E9 ; 2.716166998815361E10 ; 0.0
144 ; 1.2255527363191543E7 ; 2.0218506108585587E8 ; 1.8040226637329028E9 ; 2.7363843034733257E10 ; 0.0
145 ; 1.2243805982169226E7 ; 2.0219704366578713E8 ; 1.8162781910960944E9 ; 2.7566028095819115E10 ; 0.0
146 ; 1.2232816371745013E7 ; 2.0220899401669285E8 ; 1.8285219970782635E9 ; 2.77682251394849E10 ; 0.0
147 ; 1.222206376563447E7 ; 2.0222091183849308E8 ; 1.8407548134500086E9 ; 2.7970434133501595E10 ; 0.0
148 ; 1.2212995047716456E7 ; 2.022327968337119E8 ; 1.8529768772156432E9 ; 2.8172655045340088E10 ; 0.0
149 ; 1.2202893467634097E7 ; 2.022446487074157E8 ; 1.8651898722633595E9 ; 2.83748878421738E10 ; 0.0
150 ; 1.219101722328802E7 ; 2.0225646716715425E8 ; 1.8773927657309937E9 ; 2.8577132490881218E10 ; 0.0
151 ; 1.2179793404230071E7 ; 2.0226825192290413E8 ; 1.8895837829542818E9 ; 2.877938895804837E10 ; 0.0
152 ; 1.2166794356277563E7 ; 2.022800026870147E8 ; 1.901763576358512E9 ; 2.8981657209971275E10 ; 0.0
153 ; 1.2156529413785899E7 ; 2.0229171917415628E8 ; 1.9139303707147894E9 ; 2.918393721265829E10 ; 0.0
154 ; 1.2144506042836066E7 ; 2.0230340110127074E8 ; 1.9260869001285753E9 ; 2.9386228931832447E10 ; 0.0
155 ; 1.2135008970092267E7 ; 2.02315048187524E8 ; 1.9382314061714113E9 ; 2.958853233293372E10 ; 0.0
156 ; 1.2126654183549425E7 ; 2.023266601542606E8 ; 1.9503664151415036E9 ; 2.9790847381121243E10 ; 0.0
157 ; 1.2111764297280753E7 ; 2.023382367249604E8 ; 1.962493069325053E9 ; 2.99931740412755E10 ; 0.0
158 ; 1.2098559516902337E7 ; 2.0234977762519664E8 ; 1.9746048336223338E9 ; 3.019551227800046E10 ; 0.0
159 ; 1.2088283347493991E7 ; 2.023612825825962E8 ; 1.9867033931392362E9 ; 3.039786205562566E10 ; 0.0
160 ; 1.2075098298688987E7 ; 2.0237275132680154E8 ; 1.99879167648673E9 ; 3.0600223338208256E10 ; 0.0
161 ; 1.2063553218948087E7 ; 2.023841835894337E8 ; 2.010866774785419E9 ; 3.0802596089535057E10 ; 0.0
162 ; 1.2052506265280053E7 ; 2.0239557910405758E8 ; 2.022930328004367E9 ; 3.1004980273124493E10 ; 0.0
163 ; 1.2038321762371974E7 ; 2.024069376061481E8 ; 2.0349828342696471E9 ; 3.120737585222855E10 ; 0.0
164 ; 1.202979005626973E7 ; 2.0241825883305797E8 ; 2.0470211560320191E9 ; 3.1409782789834698E10 ; 0.0
165 ; 1.2016027905563153E7 ; 2.0242954252398694E8 ; 2.0590509460882888E9 ; 3.1612201048667755E10 ; 0.0
166 ; 1.2004344964861492E7 ; 2.0244078841995206E8 ; 2.071066973993852E9 ; 3.1814630591191742E10 ; 0.0
167 ; 1.199156966231044E7 ; 2.0245199626375932E8 ; 2.0830713189587133E9 ; 3.2017071379611694E10 ; 0.0
168 ; 1.197876342675186E7 ; 2.0246316579997647E8 ; 2.0950628886210237E9 ; 3.2219523375875454E10 ; 0.0
169 ; 1.1965774280176029E7 ; 2.024742967749069E8 ; 2.1070416520477755E9 ; 3.242198654167543E10 ; 0.0
170 ; 1.1958001337995986E7 ; 2.0248538893656456E8 ; 2.1190074263279514E9 ; 3.2624460838450336E10 ; 0.0
171 ; 1.1942203629822325E7 ; 2.0249644203465018E8 ; 2.1309654276659474E9 ; 3.28269462273869E10 ; 0.0
172 ; 1.19317455585832E7 ; 2.0250745582052794E8 ; 2.1429076312957697E9 ; 3.302944266942155E10 ; 0.0
173 ; 1.1922357344465196E7 ; 2.0251843004720372E8 ; 2.154839376854353E9 ; 3.3231950125242077E10 ; 0.0
174 ; 1.1911404938912326E7 ; 2.025293644693038E8 ; 2.166761734198818E9 ; 3.343446855528928E10 ; 0.0
175 ; 1.190609753705836E7 ; 2.0254025884305453E8 ; 2.1786731391377306E9 ; 3.3636997919758583E10 ; 0.0
176 ; 1.189669310037799E7 ; 2.0255111292626306E8 ; 2.190579236674789E9 ; 3.383953817860164E10 ; 0.0
177 ; 1.1892232261617571E7 ; 2.0256192647829852E8 ; 2.202475929775167E9 ; 3.40420892915279E10 ; 0.0
178 ; 1.1884397635960577E7 ; 2.025726992600741E8 ; 2.2143681620367846E9 ; 3.42446512180062E10 ; 0.0
179 ; 1.1874670370775603E7 ; 2.0258343103403014E8 ; 2.226252559672745E9 ; 3.444722391726627E10 ; 0.0
180 ; 1.186694912856524E7 ; 2.0259412156411746E8 ; 2.238127230043521E9 ; 3.46498073483003E10 ; 0.0
181 ; 1.186205908513535E7 ; 2.026047706157816E8 ; 2.2499941791720862E9 ; 3.485240146986442E10 ; 0.0
182 ; 1.1851092386619702E7 ; 2.0261537795594785E8 ; 2.2618562382572217E9 ; 3.50550062404802E10 ; 0.0
183 ; 1.1842976533860885E7 ; 2.0262594335300663E8 ; 2.2737073306438413E9 ; 3.525762161843615E10 ; 0.0
184 ; 1.1837240340600403E7 ; 2.0263646657679957E8 ; 2.285550307177702E9 ; 3.5460247561789154E10 ; 0.0
185 ; 1.1835577345522553E7 ; 2.0264694739860627E8 ; 2.2973875475183024E9 ; 3.566288402836595E10 ; 0.0
186 ; 1.1825731860845264E7 ; 2.0265738559113157E8 ; 2.309223124863825E9 ; 3.586553097576456E10 ; 0.0
187 ; 1.1816389512878409E7 ; 2.0266778092849308E8 ; 2.32104885672467E9 ; 3.606818836135569E10 ; 0.0
188 ; 1.1805136393023383E7 ; 2.0267813318620974E8 ; 2.3328652462375484E9 ; 3.627085614228418E10 ; 0.0
189 ; 1.1802421208137602E7 ; 2.0268844214119035E8 ; 2.344670382630572E9 ; 3.647353427547039E10 ; 0.0
190 ; 1.1796549957100548E7 ; 2.0269870757172295E8 ; 2.3564728038387094E9 ; 3.667622271761158E10 ; 0.0
191 ; 1.1787458489918765E7 ; 2.027089292574644E8 ; 2.3682693537958097E9 ; 3.6878921425183304E10 ; 0.0
192 ; 1.1783582794349443E7 ; 2.0271910697943062E8 ; 2.3800568122857285E9 ; 3.7081630354440765E10 ; 0.0
193 ; 1.1772783052441897E7 ; 2.0272924051998696E8 ; 2.391840395080078E9 ; 3.72843494614202E10 ; 0.0
194 ; 1.1765010845931293E7 ; 2.0273932966283923E8 ; 2.40361317813252E9 ; 3.7487078701940186E10 ; 0.0
195 ; 1.1759823007688358E7 ; 2.0274937419302505E8 ; 2.4153781889784517E9 ; 3.768981803160303E10 ; 0.0
