CSV File for the City 6 on Day 120
1 - Minute m 
2 - Power Consumed at minute m 
3 - Power Produced at minute m 
4 - Energy Consumed since the beginning of the day 
5 - Energy Produced since the beginning of the day 
6 - Energy Lost since the beginning of the day on lines starting from the city
 
0 ; 1.1285110003676781E7 ; 1.0616298027533528E8 ; 0.0 ; 0.0 ; 0.0
1 ; 1.1297214491426427E7 ; 1.0631389253252465E8 ; 1.1285110003676781E7 ; 1.0616298027533528E8 ; 0.0
2 ; 1.1313627255977688E7 ; 1.0677379498133537E8 ; 2.258232449510321E7 ; 2.1247687280785993E8 ; 0.0
3 ; 1.1322408750864731E7 ; 1.0754269107729042E8 ; 3.38959517510809E7 ; 3.192506677891953E8 ; 0.0
4 ; 1.1343778097751873E7 ; 1.0862058391388416E8 ; 4.521836050194563E7 ; 4.267933588664857E8 ; 0.0
5 ; 1.1362083935824415E7 ; 1.1000747620655179E8 ; 5.65621385996975E7 ; 5.354139427803699E8 ; 0.0
6 ; 1.1389832232594417E7 ; 1.1170337027834687E8 ; 6.792422253552191E7 ; 6.454214189869217E8 ; 0.0
7 ; 1.142827519401046E7 ; 1.1370826804750156E8 ; 7.931405476811633E7 ; 7.571247892652686E8 ; 0.0
8 ; 1.1479372041152105E7 ; 1.160221710170247E8 ; 9.074232996212679E7 ; 8.708330573127701E8 ; 0.0
9 ; 1.1562456258789247E7 ; 1.1864508026646829E8 ; 1.022217020032789E8 ; 9.868552283297949E8 ; 0.0
10 ; 1.168777289738931E7 ; 1.2157699644596887E8 ; 1.1378415826206814E8 ; 1.1055003085962632E9 ; 0.0
11 ; 1.1883782324432157E7 ; 1.2481791977264115E8 ; 1.2547193115945745E8 ; 1.227077305042232E9 ; 0.0
12 ; 1.2203023208364092E7 ; 1.283678500293704E8 ; 1.373557134838896E8 ; 1.3518952248148732E9 ; 0.0
13 ; 1.2505340751276763E7 ; 1.3222678656602007E8 ; 1.495587366922537E8 ; 1.4802630748442435E9 ; 0.0
14 ; 1.254245600809302E7 ; 1.3639472830303824E8 ; 1.6206407744353047E8 ; 1.6124898614102635E9 ; 0.0
15 ; 1.2558348873774389E7 ; 1.4087167373741597E8 ; 1.746065334516235E8 ; 1.7488845897133017E9 ; 0.0
16 ; 1.2573655490883153E7 ; 1.456576209509212E8 ; 1.8716488232539788E8 ; 1.8897562634507177E9 ; 0.0
17 ; 1.2589102169274848E7 ; 1.507525676205003E8 ; 1.9973853781628102E8 ; 2.035413884401639E9 ; 0.0
18 ; 1.2605936826019596E7 ; 1.561565110307181E8 ; 2.1232763998555586E8 ; 2.186166452022139E9 ; 0.0
19 ; 1.261799398453761E7 ; 1.618694480880802E8 ; 2.2493357681157544E8 ; 2.3423229630528574E9 ; 0.0
20 ; 1.2635459643609822E7 ; 1.6789137533706364E8 ; 2.3755157079611304E8 ; 2.504192411140938E9 ; 0.0
21 ; 1.2653496589120327E7 ; 1.7422228897766617E8 ; 2.5018703043972287E8 ; 2.6720837864780016E9 ; 0.0
22 ; 1.2666809214788508E7 ; 1.8086218488427174E8 ; 2.628405270288432E8 ; 2.846306075455668E9 ; 0.0
23 ; 1.2678069157749517E7 ; 1.878110586256224E8 ; 2.755073362436317E8 ; 3.0271682603399396E9 ; 0.0
24 ; 1.2695215211067904E7 ; 1.9506890548568195E8 ; 2.8818540540138125E8 ; 3.214979318965562E9 ; 0.0
25 ; 1.2712467478230072E7 ; 2.013237613833625E8 ; 3.0088062061244917E8 ; 3.410048224451244E9 ; 0.0
26 ; 1.2728781347378328E7 ; 2.013291689314292E8 ; 3.135930880906792E8 ; 3.611371985834606E9 ; 0.0
27 ; 1.2742255420564571E7 ; 2.0133489198367664E8 ; 3.2632186943805754E8 ; 3.8127011547660356E9 ; 0.0
28 ; 1.275830916223117E7 ; 2.0134092490404284E8 ; 3.3906412485862213E8 ; 4.014036046749712E9 ; 0.0
29 ; 1.2772547075408282E7 ; 2.0134726188208166E8 ; 3.518224340208533E8 ; 4.2153769716537547E9 ; 0.0
30 ; 1.278786760219582E7 ; 2.0135389695490766E8 ; 3.6459498109626156E8 ; 4.416724233535836E9 ; 0.0
31 ; 1.2796717570451574E7 ; 2.013608240287044E8 ; 3.7738284869845736E8 ; 4.618078130490744E9 ; 0.0
32 ; 1.281342254737823E7 ; 2.0136803689965996E8 ; 3.901795662689089E8 ; 4.819438954519448E9 ; 0.0
33 ; 1.2827148661013277E7 ; 2.013755292742095E8 ; 4.0299298881628716E8 ; 5.020806991419108E9 ; 0.0
34 ; 1.2842202984440643E7 ; 2.0138329478848282E8 ; 4.1582013747730047E8 ; 5.222182520693317E9 ; 0.0
35 ; 1.2854153928228037E7 ; 2.0139132702687144E8 ; 4.286623404617411E8 ; 5.4235658154818E9 ; 0.0
36 ; 1.2871969288953733E7 ; 2.0139961953964725E8 ; 4.415164943899691E8 ; 5.624957142508672E9 ; 0.0
37 ; 1.288103565455282E7 ; 2.0140816585957962E8 ; 4.5438846367892283E8 ; 5.826356762048319E9 ; 0.0
38 ; 1.2889456445901165E7 ; 2.014169595175147E8 ; 4.6726949933347565E8 ; 6.027764927907899E9 ; 0.0
39 ; 1.2901350492609553E7 ; 2.0142599405689305E8 ; 4.801589557793768E8 ; 6.229181887425413E9 ; 0.0
40 ; 1.2914013031760901E7 ; 2.014352630471953E8 ; 4.9306030627198637E8 ; 6.4306078814823065E9 ; 0.0
41 ; 1.292523291897079E7 ; 2.0144476009631723E8 ; 5.059743193037473E8 ; 6.632043144529502E9 ; 0.0
42 ; 1.2932510222626625E7 ; 2.0145447886188555E8 ; 5.1889955222271806E8 ; 6.833487904625819E9 ; 0.0
43 ; 1.2945180121139247E7 ; 2.014644130615343E8 ; 5.318320624453447E8 ; 7.034942383487705E9 ; 0.0
44 ; 1.2950931902912803E7 ; 2.014745564821699E8 ; 5.44777242566484E8 ; 7.236406796549239E9 ; 0.0
45 ; 1.2960351592263736E7 ; 2.0148490298825917E8 ; 5.577281744693968E8 ; 7.437881353031409E9 ; 0.0
46 ; 1.29650163595126E7 ; 2.014954465291787E8 ; 5.706885260616605E8 ; 7.639366256019669E9 ; 0.0
47 ; 1.2975127901981713E7 ; 2.0150618114566997E8 ; 5.836535424211731E8 ; 7.840861702548847E9 ; 0.0
48 ; 1.2976189879849002E7 ; 2.015171009754451E8 ; 5.966286703231548E8 ; 8.042367883694517E9 ; 0.0
49 ; 1.2986673224114172E7 ; 2.015282002579929E8 ; 6.096048602030038E8 ; 8.243884984669962E9 ; 0.0
50 ; 1.2992315470777513E7 ; 2.015394733386338E8 ; 6.22591533427118E8 ; 8.445413184927955E9 ; 0.0
51 ; 1.2995038873865943E7 ; 2.0155091467187414E8 ; 6.355838488978955E8 ; 8.646952658266588E9 ; 0.0
52 ; 1.3001025233007647E7 ; 2.0156251882410997E8 ; 6.485788877717614E8 ; 8.848503572938463E9 ; 0.0
53 ; 1.3011044974577865E7 ; 2.0157428047572982E8 ; 6.615799130047691E8 ; 9.050066091762573E9 ; 0.0
54 ; 1.301348335495269E7 ; 2.0158619442266455E8 ; 6.74590957979347E8 ; 9.251640372238302E9 ; 0.0
55 ; 1.3010928166344445E7 ; 2.015982555774315E8 ; 6.876044413342997E8 ; 9.453226566660967E9 ; 0.0
56 ; 1.299990716908753E7 ; 2.0161045896971837E8 ; 7.006153695006441E8 ; 9.654824822238398E9 ; 0.0
57 ; 1.2987959639159834E7 ; 2.0162279974654981E8 ; 7.136152766697316E8 ; 9.856435281208117E9 ; 0.0
58 ; 1.298259137171994E7 ; 2.0163527317207816E8 ; 7.266032363088914E8 ; 1.0058058080954666E10 ; 0.0
59 ; 1.296987560016736E7 ; 2.016478746270373E8 ; 7.395858276806114E8 ; 1.0259693354126745E10 ; 0.0
60 ; 1.295926533333512E7 ; 2.0166059960789663E8 ; 7.525557032807788E8 ; 1.0461341228753782E10 ; 0.0
61 ; 1.2948328284880696E7 ; 2.0167344372574908E8 ; 7.655149686141139E8 ; 1.066300182836168E10 ; 0.0
62 ; 1.2939129649307044E7 ; 2.016864027049657E8 ; 7.784632968989946E8 ; 1.086467527208743E10 ; 0.0
63 ; 1.292848373719245E7 ; 2.0169947238164642E8 ; 7.914024265483016E8 ; 1.1066361674792395E10 ; 0.0
64 ; 1.2917336163243158E7 ; 2.0171264870189467E8 ; 8.04330910285494E8 ; 1.1268061147174042E10 ; 0.0
65 ; 1.2906319992618464E7 ; 2.017259277199411E8 ; 8.172482464487371E8 ; 1.1469773795875937E10 ; 0.0
66 ; 1.2893574718765283E7 ; 2.0173930559614E8 ; 8.301545664413556E8 ; 1.1671499723595877E10 ; 0.0
67 ; 1.2883249374774287E7 ; 2.0175277859485918E8 ; 8.430481411601208E8 ; 1.1873239029192017E10 ; 0.0
68 ; 1.2873051708960239E7 ; 2.017663430822835E8 ; 8.559313905348952E8 ; 1.2074991807786877E10 ; 0.0
69 ; 1.286067807352853E7 ; 2.017799955241488E8 ; 8.688044422438555E8 ; 1.227675815086916E10 ; 0.0
70 ; 1.2849674828316389E7 ; 2.0179373248342285E8 ; 8.81665120317384E8 ; 1.2478538146393309E10 ; 0.0
71 ; 1.283898102934093E7 ; 2.0180755061794713E8 ; 8.945147951457003E8 ; 1.2680331878876732E10 ; 0.0
72 ; 1.2825178740031982E7 ; 2.0182144667805266E8 ; 9.073537761750413E8 ; 1.2882139429494678E10 ; 0.0
73 ; 1.2818522667347563E7 ; 2.0183541750416112E8 ; 9.201789549150733E8 ; 1.3083960876172731E10 ; 0.0
74 ; 1.2802441092777127E7 ; 2.018494600243815E8 ; 9.329974775824208E8 ; 1.3285796293676893E10 ; 0.0
75 ; 1.2793620401979223E7 ; 2.0186357125211132E8 ; 9.45799918675198E8 ; 1.3487645753701275E10 ; 0.0
76 ; 1.2775361605152842E7 ; 2.0187774828365058E8 ; 9.585935390771772E8 ; 1.3689509324953386E10 ; 0.0
77 ; 1.2766819502473718E7 ; 2.018919882958349E8 ; 9.7136890068233E8 ; 1.3891387073237038E10 ; 0.0
78 ; 1.2748948419652542E7 ; 2.0190628854369438E8 ; 9.841357201848037E8 ; 1.4093279061532873E10 ; 0.0
79 ; 1.2737142018936642E7 ; 2.0192064635814324E8 ; 9.968846686044563E8 ; 1.4295185350076567E10 ; 0.0
80 ; 1.2718511677735457E7 ; 2.0193505914370453E8 ; 1.0096218106233929E9 ; 1.449710599643471E10 ; 0.0
81 ; 1.2701874312610148E7 ; 2.019495243762741E8 ; 1.0223403223011284E9 ; 1.4699041055578415E10 ; 0.0
82 ; 1.268839203964346E7 ; 2.0196403960092667E8 ; 1.0350421966137385E9 ; 1.4900990579954689E10 ; 0.0
83 ; 1.2668304840171687E7 ; 2.0197860242976665E8 ; 1.047730588653382E9 ; 1.5102954619555616E10 ; 0.0
84 ; 1.2652674627727268E7 ; 2.019932105398262E8 ; 1.0603988934935536E9 ; 1.5304933221985382E10 ; 0.0
85 ; 1.2636938939079588E7 ; 2.020078616710119E8 ; 1.0730515681212809E9 ; 1.5506926432525208E10 ; 0.0
86 ; 1.261884893476228E7 ; 2.0202255362410104E8 ; 1.0856885070603604E9 ; 1.5708934294196218E10 ; 0.0
87 ; 1.2600749637318512E7 ; 2.0203728425878954E8 ; 1.0983073559951227E9 ; 1.591095684782032E10 ; 0.0
88 ; 1.2585447464066679E7 ; 2.020520514917907E8 ; 1.1109081056324413E9 ; 1.611299413207911E10 ; 0.0
89 ; 1.2568943853883239E7 ; 2.0206685329498625E8 ; 1.123493553096508E9 ; 1.63150461835709E10 ; 0.0
90 ; 1.255115998169144E7 ; 2.0208168769362938E8 ; 1.1360624969503913E9 ; 1.6517113036865887E10 ; 0.0
91 ; 1.2534037600020928E7 ; 2.0209655276459947E8 ; 1.1486136569320827E9 ; 1.6719194724559517E10 ; 0.0
92 ; 1.252043289765184E7 ; 2.0211144663470873E8 ; 1.1611476945321035E9 ; 1.6921291277324116E10 ; 0.0
93 ; 1.2503598706029158E7 ; 2.0212636747905964E8 ; 1.1736681274297554E9 ; 1.7123402723958824E10 ; 0.0
94 ; 1.2486703571539326E7 ; 2.0214131351945335E8 ; 1.1861717261357846E9 ; 1.7325529091437885E10 ; 0.0
95 ; 1.2467069955672033E7 ; 2.0215628302284762E8 ; 1.198658429707324E9 ; 1.752767040495734E10 ; 0.0
96 ; 1.2446197088450741E7 ; 2.0217127429986402E8 ; 1.211125499662996E9 ; 1.7729826687980186E10 ; 0.0
97 ; 1.242688051514028E7 ; 2.021862857033432E8 ; 1.2235716967514467E9 ; 1.7931997962280052E10 ; 0.0
98 ; 1.2411846799697837E7 ; 2.0220131562694734E8 ; 1.235998577266587E9 ; 1.8134184247983395E10 ; 0.0
99 ; 1.2394733353735592E7 ; 2.022163625038088E8 ; 1.248410424066285E9 ; 1.833638556361034E10 ; 0.0
100 ; 1.2377333262308009E7 ; 2.0223142480522394E8 ; 1.2608051574200206E9 ; 1.8538601926114147E10 ; 0.0
101 ; 1.2357803311455194E7 ; 2.0224650103939092E8 ; 1.2731824906823287E9 ; 1.8740833350919373E10 ; 0.0
102 ; 1.2336071076775132E7 ; 2.0226158975019032E8 ; 1.285540293993784E9 ; 1.8943079851958763E10 ; 0.0
103 ; 1.2315701403651806E7 ; 2.0227668951600754E8 ; 1.297876365070559E9 ; 1.9145341441708954E10 ; 0.0
104 ; 1.2299991007125234E7 ; 2.0229179894859594E8 ; 1.3101920664742107E9 ; 1.934761813122496E10 ; 0.0
105 ; 1.2280187360164734E7 ; 2.0230691669197905E8 ; 1.3224920574813359E9 ; 1.9549909930173557E10 ; 0.0
106 ; 1.2262539016099188E7 ; 2.023220414213915E8 ; 1.3347722448415005E9 ; 1.9752216846865536E10 ; 0.0
107 ; 1.2242384751803549E7 ; 2.0233717184225658E8 ; 1.3470347838575997E9 ; 1.9954538888286926E10 ; 0.0
108 ; 1.2225478863999857E7 ; 2.023523066892003E8 ; 1.3592771686094034E9 ; 2.0156876060129185E10 ; 0.0
109 ; 1.2204424023237031E7 ; 2.0236744472509983E8 ; 1.3715026474734032E9 ; 2.0359228366818386E10 ; 0.0
110 ; 1.218732544622344E7 ; 2.0238258474016574E8 ; 1.3837070714966402E9 ; 2.0561595811543488E10 ; 0.0
111 ; 1.216609646109113E7 ; 2.0239772555105713E8 ; 1.3958943969428637E9 ; 2.0763978396283653E10 ; 0.0
112 ; 1.2148513394105108E7 ; 2.0241286600002807E8 ; 1.4080604934039547E9 ; 2.096637612183471E10 ; 0.0
113 ; 1.2124461387343729E7 ; 2.0242800495410445E8 ; 1.42020900679806E9 ; 2.1168788987834736E10 ; 0.0
114 ; 1.2107987792010056E7 ; 2.0244314130429044E8 ; 1.4323334681854036E9 ; 2.137121699278884E10 ; 0.0
115 ; 1.2084664476708237E7 ; 2.0245827396480334E8 ; 1.4444414559774137E9 ; 2.1573660134093132E10 ; 0.0
116 ; 1.2069978378169205E7 ; 2.0247340187233576E8 ; 1.4565261204541218E9 ; 2.1776118408057934E10 ; 0.0
117 ; 1.204602702174087E7 ; 2.024885239853445E8 ; 1.4685960988322911E9 ; 2.197859180993027E10 ; 0.0
118 ; 1.202754286844128E7 ; 2.0250363928336474E8 ; 1.480642125854032E9 ; 2.2181080333915615E10 ; 0.0
119 ; 1.2008563655252228E7 ; 2.025187467663491E8 ; 1.4926696687224734E9 ; 2.238358397319898E10 ; 0.0
120 ; 1.1986861183408745E7 ; 2.025338454540302E8 ; 1.5046782323777256E9 ; 2.258610271996533E10 ; 0.0
121 ; 1.1966552610897532E7 ; 2.025489343853064E8 ; 1.5166650935611343E9 ; 2.2788636565419357E10 ; 0.0
122 ; 1.1944851340188913E7 ; 2.0256401261764938E8 ; 1.5286316461720319E9 ; 2.2991185499804665E10 ; 0.0
123 ; 1.1923953167526627E7 ; 2.0257907922653323E8 ; 1.5405764975122209E9 ; 2.3193749512422314E10 ; 0.0
124 ; 1.1903040620385664E7 ; 2.0259413330488384E8 ; 1.5525004506797476E9 ; 2.3396328591648846E10 ; 0.0
125 ; 1.1886162757912215E7 ; 2.0260917396254808E8 ; 1.5644034913001332E9 ; 2.3598922724953728E10 ; 0.0
126 ; 1.1861152714211367E7 ; 2.0262420032578206E8 ; 1.5762896540580454E9 ; 2.3801531898916275E10 ; 0.0
127 ; 1.1839909087864758E7 ; 2.0263921153675777E8 ; 1.5881508067722569E9 ; 2.4004156099242058E10 ; 0.0
128 ; 1.181978580229603E7 ; 2.0265420675308713E8 ; 1.5999907158601217E9 ; 2.4206795310778816E10 ; 0.0
129 ; 1.1799964949789112E7 ; 2.026691851473633E8 ; 1.6118105016624177E9 ; 2.4409449517531902E10 ; 0.0
130 ; 1.1778030610087961E7 ; 2.026841459067182E8 ; 1.6236104666122067E9 ; 2.4612118702679264E10 ; 0.0
131 ; 1.1750226204336438E7 ; 2.0269908823239574E8 ; 1.6353884972222946E9 ; 2.4814802848585983E10 ; 0.0
132 ; 1.1725846907070631E7 ; 2.0271401133934045E8 ; 1.647138723426631E9 ; 2.501750193681838E10 ; 0.0
133 ; 1.1700374534271065E7 ; 2.0272891445580047E8 ; 1.6588645703337016E9 ; 2.522021594815772E10 ; 0.0
134 ; 1.1672046336249834E7 ; 2.0274379682294467E8 ; 1.6705649448679726E9 ; 2.5422944862613518E10 ; 0.0
135 ; 1.164825925253575E7 ; 2.0275865769449338E8 ; 1.6822369912042224E9 ; 2.5625688659436462E10 ; 0.0
136 ; 1.1622978601255E7 ; 2.0277349633636203E8 ; 1.6938852504567583E9 ; 2.5828447317130955E10 ; 0.0
137 ; 1.1595562427387051E7 ; 2.027883120263175E8 ; 1.7055082290580132E9 ; 2.6031220813467316E10 ; 0.0
138 ; 1.1572572491782032E7 ; 2.0280310405364645E8 ; 1.7171037914854002E9 ; 2.6234009125493633E10 ; 0.0
139 ; 1.1541892597587943E7 ; 2.0281787171883518E8 ; 1.7286763639771821E9 ; 2.643681222954728E10 ; 0.0
140 ; 1.1519689654953877E7 ; 2.0283261433326083E8 ; 1.74021825657477E9 ; 2.6639630101266113E10 ; 0.0
141 ; 1.1494407296380432E7 ; 2.0284733121889347E8 ; 1.751737946229724E9 ; 2.6842462715599373E10 ; 0.0
142 ; 1.1466326408259977E7 ; 2.0286202170800817E8 ; 1.7632323535261045E9 ; 2.7045310046818268E10 ; 0.0
143 ; 1.1438149868822556E7 ; 2.0287668514290753E8 ; 1.7746986799343643E9 ; 2.7248172068526276E10 ; 0.0
144 ; 1.1408560951356955E7 ; 2.0289132087565354E8 ; 1.786136829803187E9 ; 2.745104875366918E10 ; 0.0
145 ; 1.1392280510957543E7 ; 2.029059282678087E8 ; 1.7975453907545438E9 ; 2.7653940074544834E10 ; 0.0
146 ; 1.136911731751897E7 ; 2.0292050669018635E8 ; 1.8089376712655013E9 ; 2.785684600281264E10 ; 0.0
147 ; 1.134772579901549E7 ; 2.0293505552260917E8 ; 1.8203067885830202E9 ; 2.8059766509502827E10 ; 0.0
148 ; 1.1328411167783344E7 ; 2.029495741536764E8 ; 1.8316545143820357E9 ; 2.8262701565025436E10 ; 0.0
149 ; 1.1301486794401478E7 ; 2.029640619805386E8 ; 1.842982925549819E9 ; 2.846565113917911E10 ; 0.0
150 ; 1.128000627524807E7 ; 2.0297851840868053E8 ; 1.8542844123442204E9 ; 2.866861520115965E10 ; 0.0
151 ; 1.1261174598772611E7 ; 2.0299294285171103E8 ; 1.8655644186194685E9 ; 2.887159371956833E10 ; 0.0
152 ; 1.1237340363346605E7 ; 2.030073347311603E8 ; 1.876825593218241E9 ; 2.907458666242004E10 ; 0.0
153 ; 1.121864597200989E7 ; 2.0302169347628394E8 ; 1.8880629335815876E9 ; 2.92775939971512E10 ; 0.0
154 ; 1.1193791282122348E7 ; 2.0303601852387354E8 ; 1.8992815795535975E9 ; 2.9480615690627483E10 ; 0.0
155 ; 1.1171671507626275E7 ; 2.0305030931807387E8 ; 1.9104753708357198E9 ; 2.9683651709151356E10 ; 0.0
156 ; 1.1148354347027795E7 ; 2.0306456531020597E8 ; 1.921647042343346E9 ; 2.988670201846943E10 ; 0.0
157 ; 1.1128464734980647E7 ; 2.0307878595859626E8 ; 1.932795396690374E9 ; 3.0089766583779636E10 ; 0.0
158 ; 1.1107333022614596E7 ; 2.0309297072841144E8 ; 1.9439238614253545E9 ; 3.029284536973823E10 ; 0.0
159 ; 1.1080890659616685E7 ; 2.031071190914987E8 ; 1.955031194447969E9 ; 3.0495938340466644E10 ; 0.0
160 ; 1.1062753157406325E7 ; 2.0312123052623156E8 ; 1.9661120851075857E9 ; 3.0699045459558144E10 ; 0.0
161 ; 1.1038500175590169E7 ; 2.0313530451736033E8 ; 1.977174838264992E9 ; 3.0902166690084373E10 ; 0.0
162 ; 1.1011540909047905E7 ; 2.0314934055586806E8 ; 1.9882133384405823E9 ; 3.1105301994601734E10 ; 0.0
163 ; 1.0993936661603492E7 ; 2.0316333813883072E8 ; 1.99922487934963E9 ; 3.13084513351576E10 ; 0.0
164 ; 1.0970317424434403E7 ; 2.0317729676928255E8 ; 2.0102188160112336E9 ; 3.1511614673296432E10 ; 0.0
165 ; 1.0948549766427662E7 ; 2.0319121595608512E8 ; 2.021189133435668E9 ; 3.1714791970065716E10 ; 0.0
166 ; 1.092368469951938E7 ; 2.032050952138014E8 ; 2.0321376832020957E9 ; 3.19179831860218E10 ; 0.0
167 ; 1.090015720211318E7 ; 2.0321893406257337E8 ; 2.0430613679016151E9 ; 3.2121188281235603E10 ; 0.0
168 ; 1.0880147829661693E7 ; 2.032327320280039E8 ; 2.0539615251037283E9 ; 3.2324407215298176E10 ; 0.0
169 ; 1.0854106315489123E7 ; 2.0324648864104238E8 ; 2.06484167293339E9 ; 3.252763994732618E10 ; 0.0
170 ; 1.0833860914073251E7 ; 2.032602034378741E8 ; 2.075695779248879E9 ; 3.273088643596722E10 ; 0.0
171 ; 1.081089025874649E7 ; 2.032738759598131E8 ; 2.0865296401629522E9 ; 3.2934146639405094E10 ; 0.0
172 ; 1.0789099110579813E7 ; 2.0328750575319847E8 ; 2.0973405304216986E9 ; 3.3137420515364906E10 ; 0.0
173 ; 1.076804109633966E7 ; 2.033010923692943E8 ; 2.1081296295322783E9 ; 3.3340708021118103E10 ; 0.0
174 ; 1.0746888160859177E7 ; 2.0331463536419213E8 ; 2.118897670628618E9 ; 3.3544009113487396E10 ; 0.0
175 ; 1.072984843363737E7 ; 2.0332813429871735E8 ; 2.129644558789477E9 ; 3.374732374885159E10 ; 0.0
176 ; 1.0708035464272017E7 ; 2.0334158873833802E8 ; 2.1403744072231145E9 ; 3.3950651883150307E10 ; 0.0
177 ; 1.0687796913297374E7 ; 2.033549982530767E8 ; 2.1510824426873865E9 ; 3.4153993471888645E10 ; 0.0
178 ; 1.0668786984753584E7 ; 2.0336836241742522E8 ; 2.1617702396006837E9 ; 3.4357348470141724E10 ; 0.0
179 ; 1.0650977963693002E7 ; 2.033816808102619E8 ; 2.1724390265854373E9 ; 3.456071683255915E10 ; 0.0
180 ; 1.0629343790985297E7 ; 2.0339495301477173E8 ; 2.1830900045491304E9 ; 3.4764098513369415E10 ; 0.0
181 ; 1.0612595940751169E7 ; 2.0340817861836874E8 ; 2.1937193483401155E9 ; 3.4967493466384186E10 ; 0.0
182 ; 1.0589601921776077E7 ; 2.0342135721262088E8 ; 2.2043319442808666E9 ; 3.5170901645002556E10 ; 0.0
183 ; 1.057110156448583E7 ; 2.034344883931774E8 ; 2.214921546202643E9 ; 3.537432300221518E10 ; 0.0
184 ; 1.0551736440951537E7 ; 2.0344757175969833E8 ; 2.225492647767129E9 ; 3.557775749060836E10 ; 0.0
185 ; 1.0533414839899834E7 ; 2.034606069157862E8 ; 2.2360443842080803E9 ; 3.578120506236806E10 ; 0.0
186 ; 1.0513082746849086E7 ; 2.0347359346892E8 ; 2.2465777990479803E9 ; 3.5984665669283844E10 ; 0.0
187 ; 1.0494362782304477E7 ; 2.03486531030391E8 ; 2.2570908817948294E9 ; 3.618813926275276E10 ; 0.0
188 ; 1.0471905919201126E7 ; 2.0349941921524066E8 ; 2.2675852445771337E9 ; 3.639162579378315E10 ; 0.0
189 ; 1.0455835701665193E7 ; 2.0351225764220053E8 ; 2.2780571504963346E9 ; 3.659512521299839E10 ; 0.0
190 ; 1.0437910346587436E7 ; 2.035250459336338E8 ; 2.288512986198E9 ; 3.6798637470640594E10 ; 0.0
191 ; 1.0416133428651558E7 ; 2.035377837154789E8 ; 2.2989508965445876E9 ; 3.700216251657423E10 ; 0.0
192 ; 1.039255591491399E7 ; 2.035504706171945E8 ; 2.309367029973239E9 ; 3.72057003002897E10 ; 0.0
193 ; 1.0375701618008718E7 ; 2.0356310627170667E8 ; 2.319759585888153E9 ; 3.74092507709069E10 ; 0.0
194 ; 1.0356712933462182E7 ; 2.0357569031535712E8 ; 2.3301352875061617E9 ; 3.7612813877178604E10 ; 0.0
195 ; 1.0339884056223651E7 ; 2.035882223878534E8 ; 2.340492000439624E9 ; 3.781638956749396E10 ; 0.0
