CSV File for the City 4 on Day 200
1 - Minute m 
2 - Power Consumed at minute m 
3 - Power Produced at minute m 
4 - Energy Consumed since the beginning of the day 
5 - Energy Produced since the beginning of the day 
6 - Energy Lost since the beginning of the day on lines starting from the city
 
0 ; 622231.106769716 ; 1.0581943170655707E8 ; 0.0 ; 0.0 ; 0.0
1 ; 633038.1046509064 ; 1.0596936786037683E8 ; 622231.106769716 ; 1.0581943170655707E8 ; 0.0
2 ; 636750.9108899119 ; 1.064283815637367E8 ; 1255269.2114206224 ; 2.117887995669339E8 ; 0.0
3 ; 648232.0998485945 ; 1.0719648110542136E8 ; 1892020.1223105344 ; 3.182171811306706E8 ; 0.0
4 ; 658833.6980352674 ; 1.082736740115304E8 ; 2540252.2221591286 ; 4.25413662236092E8 ; 0.0
5 ; 670521.2226598379 ; 1.096599669720462E8 ; 3199085.920194396 ; 5.336873362476224E8 ; 0.0
6 ; 688354.8563993998 ; 1.1135536577321473E8 ; 3869607.1428542337 ; 6.433473032196686E8 ; 0.0
7 ; 711601.7567655751 ; 1.1335987523726559E8 ; 4557961.999253633 ; 7.547026689928833E8 ; 0.0
8 ; 747077.9860151345 ; 1.156734991708926E8 ; 5269563.756019209 ; 8.680625442301489E8 ; 0.0
9 ; 797650.6412872513 ; 1.182962403237564E8 ; 6016641.742034343 ; 9.837360434010415E8 ; 0.0
10 ; 876167.6831460531 ; 1.2122810035805255E8 ; 6814292.383321594 ; 1.102032283724798E9 ; 0.0
11 ; 997959.329821388 ; 1.2446907982992926E8 ; 7690460.066467647 ; 1.2232603840828505E9 ; 0.0
12 ; 1198372.1294443489 ; 1.280191781832383E8 ; 8688419.396289036 ; 1.3477294639127798E9 ; 0.0
13 ; 1389585.8852402521 ; 1.318783937557841E8 ; 9886791.525733385 ; 1.475748642096018E9 ; 0.0
14 ; 1414285.1907593205 ; 1.360467237979061E8 ; 1.1276377410973638E7 ; 1.607627035851802E9 ; 0.0
15 ; 1425052.7550362581 ; 1.4052416450291038E8 ; 1.2690662601732958E7 ; 1.7436737596497083E9 ; 0.0
16 ; 1432394.3939066613 ; 1.4531071104856744E8 ; 1.4115715356769215E7 ; 1.8841979241526186E9 ; 0.0
17 ; 1441373.0321087765 ; 1.5040635764863124E8 ; 1.5548109750675876E7 ; 2.0295086352011862E9 ; 0.0
18 ; 1450761.5664193975 ; 1.5581109761311942E8 ; 1.6989482782784652E7 ; 2.1799149928498173E9 ; 0.0
19 ; 1463908.444918114 ; 1.615249234159324E8 ; 1.844024434920405E7 ; 2.335726090462937E9 ; 0.0
20 ; 1472719.334704221 ; 1.6754782676828542E8 ; 1.9904152794122163E7 ; 2.497251013878869E9 ; 0.0
21 ; 1483299.2576806839 ; 1.7387979869638416E8 ; 2.1376872128826384E7 ; 2.6647988406471543E9 ; 0.0
22 ; 1492591.3916104666 ; 1.8052082962178135E8 ; 2.2860171386507068E7 ; 2.8386786393435383E9 ; 0.0
23 ; 1501900.378967277 ; 1.8747090944291705E8 ; 2.4352762778117534E7 ; 3.0191994689653196E9 ; 0.0
24 ; 1511880.5710356035 ; 1.947300276164437E8 ; 2.585466315708481E7 ; 3.2066703784082365E9 ; 0.0
25 ; 1519782.7564093694 ; 2.009862141352593E8 ; 2.7366543728120416E7 ; 3.40140040602468E9 ; 0.0
26 ; 1528872.8464932195 ; 2.0099300564267695E8 ; 2.8886326484529786E7 ; 3.6023866201599393E9 ; 0.0
27 ; 1541131.1927321295 ; 2.0100016003109857E8 ; 3.0415199331023004E7 ; 3.803379625802616E9 ; 0.0
28 ; 1551175.3717959612 ; 2.010076657583087E8 ; 3.1956330523755133E7 ; 4.0043797858337145E9 ; 0.0
29 ; 1560505.8240128122 ; 2.0101551120542362E8 ; 3.3507505895551093E7 ; 4.2053874515920234E9 ; 0.0
30 ; 1571456.1373462293 ; 2.0102368473637864E8 ; 3.50680117195639E7 ; 4.406402962797447E9 ; 0.0
31 ; 1580008.6196751797 ; 2.010321747519566E8 ; 3.663946785691013E7 ; 4.607426647533826E9 ; 0.0
32 ; 1588126.8589749844 ; 2.010409697382554E8 ; 3.821947647658531E7 ; 4.808458822285783E9 ; 0.0
33 ; 1600063.2953082959 ; 2.0105005830961254E8 ; 3.98076033355603E7 ; 5.009499792024038E9 ; 0.0
34 ; 1603987.1146653143 ; 2.010594292461074E8 ; 4.14076666308686E7 ; 5.210549850333651E9 ; 0.0
35 ; 1614565.9963424602 ; 2.0106907152584353E8 ; 4.301165374553391E7 ; 5.411609279579758E9 ; 0.0
36 ; 1624847.7928597715 ; 2.010789743522771E8 ; 4.462621974187637E7 ; 5.612678351105601E9 ; 0.0
37 ; 1631034.5543714087 ; 2.010891271769042E8 ; 4.625106753473614E7 ; 5.813757325457878E9 ; 0.0
38 ; 1637214.3813693756 ; 2.0109951971765134E8 ; 4.788210208910755E7 ; 6.014846452634783E9 ; 0.0
39 ; 1648620.0580883909 ; 2.0111014197333094E8 ; 4.9519316470476925E7 ; 6.215945972352434E9 ; 0.0
40 ; 1651785.8050845151 ; 2.0112098423453176E8 ; 5.116793652856532E7 ; 6.417056114325765E9 ; 0.0
41 ; 1660521.4597507627 ; 2.011320370913103E8 ; 5.281972233364983E7 ; 6.618177098560296E9 ; 0.0
42 ; 1669922.1791596462 ; 2.0114329143804157E8 ; 5.448024379340059E7 ; 6.819309135651607E9 ; 0.0
43 ; 1675560.9793976524 ; 2.0115473847577113E8 ; 5.615016597256024E7 ; 7.020452427089648E9 ; 0.0
44 ; 1681188.2752699654 ; 2.011663697123918E8 ; 5.78257269519579E7 ; 7.221607165565419E9 ; 0.0
45 ; 1687449.7062244148 ; 2.011781769609469E8 ; 5.950691522722786E7 ; 7.422773535277811E9 ; 0.0
46 ; 1692436.4777131334 ; 2.011901523363379E8 ; 6.119436493345227E7 ; 7.623951712238758E9 ; 0.0
47 ; 1697444.062981011 ; 2.012022882506905E8 ; 6.28868014111654E7 ; 7.825141864575096E9 ; 0.0
48 ; 1704923.8158495156 ; 2.0121457740760902E8 ; 6.458424547414641E7 ; 8.026344152825787E9 ; 0.0
49 ; 1708619.2227198032 ; 2.012270127955253E8 ; 6.628916928999592E7 ; 8.227558730233396E9 ; 0.0
50 ; 1713206.0786483828 ; 2.0123958768032533E8 ; 6.799778851271573E7 ; 8.428785743028921E9 ; 0.0
51 ; 1715209.307981623 ; 2.01252295597416E8 ; 6.971099459136412E7 ; 8.630025330709246E9 ; 0.0
52 ; 1720391.2763179154 ; 2.0126513034337366E8 ; 7.142620389934574E7 ; 8.831277626306662E9 ; 0.0
53 ; 1723000.2555440331 ; 2.0127808596729782E8 ; 7.314659517566365E7 ; 9.032542756650036E9 ; 0.0
54 ; 1727752.8464021499 ; 2.0129115676197726E8 ; 7.486959543120769E7 ; 9.233820842617334E9 ; 0.0
55 ; 1732124.8095985686 ; 2.0130433725495863E8 ; 7.659734827760984E7 ; 9.435111999379313E9 ; 0.0
56 ; 1738054.9688883366 ; 2.0131762219959587E8 ; 7.83294730872084E7 ; 9.636416336634272E9 ; 0.0
57 ; 1742648.7987172229 ; 2.0133100656614515E8 ; 8.006752805609675E7 ; 9.837733958833868E9 ; 0.0
58 ; 1742170.0282340155 ; 2.0134448553295946E8 ; 8.181017685481396E7 ; 1.0039064965400013E10 ; 0.0
59 ; 1747482.2092606935 ; 2.013580544778271E8 ; 8.355234688304798E7 ; 1.0240409450932972E10 ; 0.0
60 ; 1751445.9357123943 ; 2.013717089694907E8 ; 8.529982909230867E7 ; 1.0441767505410799E10 ; 0.0
61 ; 1754960.599172456 ; 2.013854447593746E8 ; 8.705127502802107E7 ; 1.064313921438029E10 ; 0.0
62 ; 1758803.366787684 ; 2.013992577735434E8 ; 8.880623562719353E7 ; 1.0844524659139664E10 ; 0.0
63 ; 1762121.083231556 ; 2.0141314410490823E8 ; 9.056503899398121E7 ; 1.1045923916913208E10 ; 0.0
64 ; 1762995.597496628 ; 2.0142710000569272E8 ; 9.232716007721277E7 ; 1.1247337061018116E10 ; 0.0
65 ; 1769842.7992526963 ; 2.0144112188016668E8 ; 9.40901556747094E7 ; 1.144876416102381E10 ; 0.0
66 ; 1769600.058066437 ; 2.0145520627765217E8 ; 9.58599984739621E7 ; 1.1650205282903976E10 ; 0.0
67 ; 1773188.020243052 ; 2.0146934988580376E8 ; 9.762959853202854E7 ; 1.185166048918163E10 ; 0.0
68 ; 1775399.294927687 ; 2.0148354952416217E8 ; 9.940278655227159E7 ; 1.2053129839067432E10 ; 0.0
69 ; 1779349.2939881878 ; 2.0149780213797918E8 ; 1.0117818584719928E8 ; 1.2254613388591595E10 ; 0.0
70 ; 1782265.5337865974 ; 2.0151210479230917E8 ; 1.0295753514118746E8 ; 1.2456111190729574E10 ; 0.0
71 ; 1789701.2167731521 ; 2.015264546663623E8 ; 1.0473980067497405E8 ; 1.2657623295521883E10 ; 0.0
72 ; 1791330.7387148857 ; 2.015408490481128E8 ; 1.065295018917472E8 ; 1.2859149750188246E10 ; 0.0
73 ; 1792112.2029935515 ; 2.0155528532915518E8 ; 1.083208326304621E8 ; 1.3060690599236359E10 ; 0.0
74 ; 1793056.75435898 ; 2.0156976099980044E8 ; 1.1011294483345565E8 ; 1.3262245884565514E10 ; 0.0
75 ; 1794374.9328520878 ; 2.0158427364440447E8 ; 1.1190600158781463E8 ; 1.3463815645565313E10 ; 0.0
76 ; 1801668.0758229268 ; 2.0159882093691993E8 ; 1.1370037652066672E8 ; 1.3665399919209719E10 ; 0.0
77 ; 1803226.5774748903 ; 2.0161340063666284E8 ; 1.1550204459648964E8 ; 1.3866998740146639E10 ; 0.0
78 ; 1802865.795865867 ; 2.016280105842859E8 ; 1.1730527117396453E8 ; 1.4068612140783302E10 ; 0.0
79 ; 1806430.4413869563 ; 2.0164264869794884E8 ; 1.191081369698304E8 ; 1.4270240151367588E10 ; 0.0
80 ; 1804914.6213527548 ; 2.0165731296967813E8 ; 1.2091456741121735E8 ; 1.4471882800065536E10 ; 0.0
81 ; 1804758.8673597944 ; 2.016720014619072E8 ; 1.2271948203257011E8 ; 1.4673540113035215E10 ; 0.0
82 ; 1804174.2923404353 ; 2.0168671230418903E8 ; 1.245242408999299E8 ; 1.4875212114497122E10 ; 0.0
83 ; 1802091.135719545 ; 2.017014436900728E8 ; 1.2632841519227034E8 ; 1.5076898826801311E10 ; 0.0
84 ; 1808309.583845905 ; 2.0171619387413722E8 ; 1.2813050632798988E8 ; 1.5278600270491385E10 ; 0.0
85 ; 1806397.2035662888 ; 2.0173096116917259E8 ; 1.2993881591183577E8 ; 1.5480316464365522E10 ; 0.0
86 ; 1807135.0814975381 ; 2.0174574394350463E8 ; 1.3174521311540206E8 ; 1.5682047425534695E10 ; 0.0
87 ; 1805341.4931848026 ; 2.017605406184526E8 ; 1.335523481968996E8 ; 1.5883793169478199E10 ; 0.0
88 ; 1803757.3948613757 ; 2.0177534966591558E8 ; 1.353576896900844E8 ; 1.6085553710096651E10 ; 0.0
89 ; 1803250.0830639917 ; 2.0179016960607982E8 ; 1.3716144708494577E8 ; 1.6287329059762568E10 ; 0.0
90 ; 1803948.1758934367 ; 2.0180499900524148E8 ; 1.3896469716800976E8 ; 1.6489119229368647E10 ; 0.0
91 ; 1805716.6201876234 ; 2.0181983647373858E8 ; 1.4076864534390318E8 ; 1.6690924228373888E10 ; 0.0
92 ; 1804876.5349124002 ; 2.0183468066398668E8 ; 1.425743619640908E8 ; 1.6892744064847626E10 ; 0.0
93 ; 1804926.573629383 ; 2.0184953026861277E8 ; 1.443792384990032E8 ; 1.7094578745511612E10 ; 0.0
94 ; 1806164.970235198 ; 2.0186438401868233E8 ; 1.4618416507263258E8 ; 1.7296428275780224E10 ; 0.0
95 ; 1802329.1391198712 ; 2.0187924068201494E8 ; 1.4799033004286778E8 ; 1.7498292659798904E10 ; 0.0
96 ; 1802167.0273074992 ; 2.0189409906158337E8 ; 1.4979265918198764E8 ; 1.770017190048092E10 ; 0.0
97 ; 1804446.68994935 ; 2.0190895799399212E8 ; 1.5159482620929515E8 ; 1.7902065999542503E10 ; 0.0
98 ; 1802706.3708606109 ; 2.0192381634803128E8 ; 1.5339927289924452E8 ; 1.8103974957536495E10 ; 0.0
99 ; 1802568.20695476 ; 2.019386730233014E8 ; 1.5520197927010512E8 ; 1.8305898773884525E10 ; 0.0
100 ; 1801680.0558359565 ; 2.0195352694890612E8 ; 1.5700454747705987E8 ; 1.8507837446907825E10 ; 0.0
101 ; 1798898.1185300804 ; 2.019683770822086E8 ; 1.5880622753289583E8 ; 1.870979097385673E10 ; 0.0
102 ; 1800904.318591996 ; 2.0198322240764877E8 ; 1.6060512565142593E8 ; 1.891175935093894E10 ; 0.0
103 ; 1795446.4856449596 ; 2.0199806193561795E8 ; 1.624060299700179E8 ; 1.911374257334659E10 ; 0.0
104 ; 1798441.4396257347 ; 2.0201289470138785E8 ; 1.6420147645566288E8 ; 1.9315740635282207E10 ; 0.0
105 ; 1795836.0071937332 ; 2.0202771976409134E8 ; 1.6599991789528862E8 ; 1.9517753529983597E10 ; 0.0
106 ; 1795455.9553608038 ; 2.020425362057522E8 ; 1.6779575390248236E8 ; 1.971978124974769E10 ; 0.0
107 ; 1795599.918747031 ; 2.02057343130361E8 ; 1.6959120985784316E8 ; 1.992182378595344E10 ; 0.0
108 ; 1793304.9836527798 ; 2.020721396629952E8 ; 1.713868097765902E8 ; 2.01238811290838E10 ; 0.0
109 ; 1792559.0584561618 ; 2.0208692494898096E8 ; 1.7318011476024297E8 ; 2.0325953268746796E10 ; 0.0
110 ; 1790407.466436542 ; 2.0210169815309438E8 ; 1.7497267381869912E8 ; 2.0528040193695778E10 ; 0.0
111 ; 1788070.1959927436 ; 2.0211645845880035E8 ; 1.7676308128513566E8 ; 2.0730141891848873E10 ; 0.0
112 ; 1789499.0011757805 ; 2.0213120506752703E8 ; 1.785511514811284E8 ; 2.0932258350307674E10 ; 0.0
113 ; 1787641.7039599083 ; 2.0214593719797397E8 ; 1.803406504823042E8 ; 2.1134389555375202E10 ; 0.0
114 ; 1784751.4128649556 ; 2.0216065408545256E8 ; 1.821282921862641E8 ; 2.1336535492573177E10 ; 0.0
115 ; 1783123.822944928 ; 2.0217535498125657E8 ; 1.8391304359912905E8 ; 2.153869614665863E10 ; 0.0
116 ; 1782324.5887637474 ; 2.0219003915206194E8 ; 1.85696167422074E8 ; 2.174087150163989E10 ; 0.0
117 ; 1779786.6644591847 ; 2.0220470587935367E8 ; 1.8747849201083773E8 ; 2.194306154079195E10 ; 0.0
118 ; 1779254.147686823 ; 2.0221935445887902E8 ; 1.8925827867529693E8 ; 2.2145266246671303E10 ; 0.0
119 ; 1776655.740094025 ; 2.0223398420012546E8 ; 1.9103753282298374E8 ; 2.234748560113018E10 ; 0.0
120 ; 1777872.5121379655 ; 2.0224859442582184E8 ; 1.9281418856307778E8 ; 2.2549719585330307E10 ; 0.0
121 ; 1773533.7327273956 ; 2.0226318447146234E8 ; 1.9459206107521576E8 ; 2.275196817975613E10 ; 0.0
122 ; 1770030.6926458133 ; 2.0227775368485144E8 ; 1.9636559480794317E8 ; 2.2954231364227592E10 ; 0.0
123 ; 1769172.4703767898 ; 2.0229230142566898E8 ; 1.9813562550058898E8 ; 2.3156509117912445E10 ; 0.0
124 ; 1769650.8470958346 ; 2.023068270650548E8 ; 1.9990479797096577E8 ; 2.3358801419338116E10 ; 0.0
125 ; 1764644.1468919225 ; 2.0232132998521128E8 ; 2.0167444881806162E8 ; 2.356110824640317E10 ; 0.0
126 ; 1765193.2319089016 ; 2.0233580957902342E8 ; 2.0343909296495354E8 ; 2.3763429576388382E10 ; 0.0
127 ; 1762473.803269484 ; 2.0235026524969563E8 ; 2.0520428619686243E8 ; 2.3965765385967407E10 ; 0.0
128 ; 1758473.7960251984 ; 2.02364696410404E8 ; 2.069667600001319E8 ; 2.4168115651217102E10 ; 0.0
129 ; 1757603.4540328935 ; 2.023791024839636E8 ; 2.087252337961571E8 ; 2.4370480347627506E10 ; 0.0
130 ; 1752163.019889784 ; 2.0239348290251037E8 ; 2.1048283725019E8 ; 2.457285945011147E10 ; 0.0
131 ; 1750682.626582369 ; 2.0240783710719627E8 ; 2.1223500027007976E8 ; 2.477525293301398E10 ; 0.0
132 ; 1743627.6713466153 ; 2.024221645478974E8 ; 2.1398568289666212E8 ; 2.4977660770121178E10 ; 0.0
133 ; 1739223.2956248845 ; 2.024364646829348E8 ; 2.1572931056800872E8 ; 2.5180082934669075E10 ; 0.0
134 ; 1737642.1348905396 ; 2.024507369788066E8 ; 2.174685338636336E8 ; 2.538251939935201E10 ; 0.0
135 ; 1729677.4067841962 ; 2.0246498090993178E8 ; 2.1920617599852413E8 ; 2.5584970136330814E10 ; 0.0
136 ; 1724637.1730021234 ; 2.0247919595840424E8 ; 2.2093585340530834E8 ; 2.5787435117240746E10 ; 0.0
137 ; 1720192.9313604764 ; 2.0249338161375743E8 ; 2.2266049057831046E8 ; 2.598991431319915E10 ; 0.0
138 ; 1717134.1529096977 ; 2.025075373727385E8 ; 2.2438068350967094E8 ; 2.619240769481291E10 ; 0.0
139 ; 1712185.70515554 ; 2.0252166273909187E8 ; 2.2609781766258064E8 ; 2.6394915232185646E10 ; 0.0
140 ; 1706690.2274441042 ; 2.0253575722335157E8 ; 2.278100033677362E8 ; 2.6597436894924736E10 ; 0.0
141 ; 1700090.7119944957 ; 2.0254982034264204E8 ; 2.295166935951803E8 ; 2.6799972652148087E10 ; 0.0
142 ; 1696808.451947616 ; 2.0256385162048715E8 ; 2.312167843071748E8 ; 2.700252247249073E10 ; 0.0
143 ; 1689553.0071630483 ; 2.0257785058662686E8 ; 2.3291359275912243E8 ; 2.7205086324111217E10 ; 0.0
144 ; 1685701.793063725 ; 2.0259181677684116E8 ; 2.3460314576628548E8 ; 2.7407664174697845E10 ; 0.0
145 ; 1681361.6794500481 ; 2.026057497327813E8 ; 2.362888475593492E8 ; 2.7610255991474686E10 ; 0.0
146 ; 1678391.390439184 ; 2.0261964900180736E8 ; 2.3797020923879924E8 ; 2.7812861741207466E10 ; 0.0
147 ; 1677653.9598847209 ; 2.0263351413683292E8 ; 2.3964860062923843E8 ; 2.8015481390209274E10 ; 0.0
148 ; 1676075.8656493044 ; 2.0264734469617504E8 ; 2.4132625458912316E8 ; 2.8218114904346107E10 ; 0.0
149 ; 1674735.3626596758 ; 2.0266114024341092E8 ; 2.4300233045477247E8 ; 2.8420762249042282E10 ; 0.0
150 ; 1673169.4713723434 ; 2.026749003472396E8 ; 2.4467706581743214E8 ; 2.8623423389285694E10 ; 0.0
151 ; 1669672.8837278613 ; 2.0268862458134952E8 ; 2.4635023528880447E8 ; 2.8826098289632935E10 ; 0.0
152 ; 1664925.5157222021 ; 2.0270231252429086E8 ; 2.4801990817253232E8 ; 2.9028786914214283E10 ; 0.0
153 ; 1662452.5573159822 ; 2.0271596375935298E8 ; 2.4968483368825454E8 ; 2.9231489226738575E10 ; 0.0
154 ; 1661505.679994712 ; 2.0272957787444672E8 ; 2.513472862455705E8 ; 2.943420519049793E10 ; 0.0
155 ; 1656433.0866021528 ; 2.02743154461991E8 ; 2.530087919255652E8 ; 2.9636934768372375E10 ; 0.0
156 ; 1657532.2699059334 ; 2.0275669311880383E8 ; 2.5466522501216736E8 ; 2.9839677922834366E10 ; 0.0
157 ; 1656794.6585706836 ; 2.0277019344599757E8 ; 2.563227572820733E8 ; 3.004243461595317E10 ; 0.0
158 ; 1650569.0186924534 ; 2.0278365504887804E8 ; 2.5797955194064397E8 ; 3.024520480939917E10 ; 0.0
159 ; 1649614.1610779283 ; 2.027970775368476E8 ; 2.5963012095933643E8 ; 3.0447988464448048E10 ; 0.0
160 ; 1646232.226443208 ; 2.0281046052331161E8 ; 2.6127973512041435E8 ; 3.0650785541984894E10 ; 0.0
161 ; 1639451.1726977746 ; 2.0282380362558886E8 ; 2.6292596734685755E8 ; 3.0853596002508205E10 ; 0.0
162 ; 1641696.5461186653 ; 2.0283710646482477E8 ; 2.6456541851955533E8 ; 3.1056419806133793E10 ; 0.0
163 ; 1639823.190152322 ; 2.0285036866590843E8 ; 2.66207115065674E8 ; 3.1259256912598618E10 ; 0.0
164 ; 1637168.8956790278 ; 2.0286358985739216E8 ; 2.6784693825582632E8 ; 3.1462107281264526E10 ; 0.0
165 ; 1630775.1237654728 ; 2.0287676967141458E8 ; 2.6948410715150535E8 ; 3.1664970871121918E10 ; 0.0
166 ; 1632357.568516029 ; 2.0288990774362606E8 ; 2.711148822752708E8 ; 3.186784764079333E10 ; 0.0
167 ; 1627622.1562825153 ; 2.0290300371311724E8 ; 2.7274723984378684E8 ; 3.2070737548536957E10 ; 0.0
168 ; 1625867.9138449365 ; 2.0291605722234994E8 ; 2.743748620000694E8 ; 3.2273640552250072E10 ; 0.0
169 ; 1623495.162293928 ; 2.029290679170909E8 ; 2.760007299139143E8 ; 3.2476556609472424E10 ; 0.0
170 ; 1619193.7398245472 ; 2.0294203544634748E8 ; 2.7762422507620823E8 ; 3.2679485677389515E10 ; 0.0
171 ; 1619697.0461466883 ; 2.0295495946230614E8 ; 2.7924341881603277E8 ; 3.288242771283586E10 ; 0.0
172 ; 1613547.1478038172 ; 2.02967839620273E8 ; 2.8086311586217946E8 ; 3.308538267229817E10 ; 0.0
173 ; 1615924.8413672775 ; 2.0298067557861635E8 ; 2.824766630099833E8 ; 3.328835051191844E10 ; 0.0
174 ; 1609703.9501633423 ; 2.0299346699871153E8 ; 2.840925878513506E8 ; 3.349133118749706E10 ; 0.0
175 ; 1612369.0480661148 ; 2.030062135448876E8 ; 2.8570229180151397E8 ; 3.369432465449577E10 ; 0.0
176 ; 1608937.7103369874 ; 2.0301891488437605E8 ; 2.873146608495801E8 ; 3.3897330868040657E10 ; 0.0
177 ; 1604410.7649433848 ; 2.030315706872612E8 ; 2.889235985599171E8 ; 3.4100349782925034E10 ; 0.0
178 ; 1605852.1592304623 ; 2.0304418062643248E8 ; 2.9052800932486045E8 ; 3.4303381353612293E10 ; 0.0
179 ; 1602365.263847888 ; 2.030567443775384E8 ; 2.921338614840909E8 ; 3.450642553423872E10 ; 0.0
180 ; 1606349.8826533 ; 2.0306926161894205E8 ; 2.937362267479388E8 ; 3.4709482278616264E10 ; 0.0
181 ; 1599078.1189553924 ; 2.0308173203167832E8 ; 2.953425766305921E8 ; 3.491255154023521E10 ; 0.0
182 ; 1594527.5263211585 ; 2.0309415529941255E8 ; 2.969416547495475E8 ; 3.5115633272266884E10 ; 0.0
183 ; 1594023.8170859984 ; 2.0310653110840067E8 ; 2.9853618227586865E8 ; 3.53187274275663E10 ; 0.0
184 ; 1593925.5460869907 ; 2.0311885914745063E8 ; 3.0013020609295464E8 ; 3.55218339586747E10 ; 0.0
185 ; 1593931.383206743 ; 2.0313113910788542E8 ; 3.017241316390416E8 ; 3.572495281782215E10 ; 0.0
186 ; 1588631.3268029857 ; 2.0314337068350714E8 ; 3.033180630222483E8 ; 3.592808395693004E10 ; 0.0
187 ; 1589754.7636056403 ; 2.0315555357056248E8 ; 3.049066943490513E8 ; 3.613122732761355E10 ; 0.0
188 ; 1586178.1742037502 ; 2.0316768746770933E8 ; 3.0649644911265695E8 ; 3.633438288118411E10 ; 0.0
189 ; 1581623.3622404672 ; 2.0317977207598463E8 ; 3.080826272868607E8 ; 3.6537550568651825E10 ; 0.0
190 ; 1582029.3001441096 ; 2.031918070987732E8 ; 3.096642506491012E8 ; 3.6740730340727806E10 ; 0.0
191 ; 1583469.6511537062 ; 2.032037922417779E8 ; 3.1124627994924533E8 ; 3.694392214782658E10 ; 0.0
192 ; 1580234.6187472714 ; 2.0321572721299043E8 ; 3.12829749600399E8 ; 3.714712594006835E10 ; 0.0
193 ; 1577786.7135787285 ; 2.0322761172266373E8 ; 3.144099842191463E8 ; 3.735034166728134E10 ; 0.0
194 ; 1576259.728404211 ; 2.0323944548328462E8 ; 3.15987770932725E8 ; 3.7553569279004005E10 ; 0.0
195 ; 1574850.951816373 ; 2.0325122820954803E8 ; 3.1756403066112924E8 ; 3.775680872448729E10 ; 0.0
196 ; 1574114.154833068 ; 2.0326295961833167E8 ; 3.191388816129456E8 ; 3.796005995269684E10 ; 0.0
197 ; 1568865.5377973386 ; 2.0327463942867193E8 ; 3.207129957677787E8 ; 3.816332291231517E10 ; 0.0
198 ; 1569421.5548056178 ; 2.0328626736174023E8 ; 3.22281861305576E8 ; 3.836659755174384E10 ; 0.0
199 ; 1566932.534146946 ; 2.032978431408206E8 ; 3.2385128286038166E8 ; 3.856988381910558E10 ; 0.0
