CSV File for the City 4 on Day 37
1 - Minute m 
2 - Power Consumed at minute m 
3 - Power Produced at minute m 
4 - Energy Consumed since the beginning of the day 
5 - Energy Produced since the beginning of the day 
6 - Energy Lost since the beginning of the day on lines starting from the city
 
0 ; 6795646.995834055 ; 1.0557858794231322E8 ; 0.0 ; 0.0 ; 0.0
1 ; 6801628.915784814 ; 1.0572696602633297E8 ; 6795646.995834055 ; 1.0557858794231322E8 ; 0.0
2 ; 6808904.157965589 ; 1.061845366676887E8 ; 1.359727591161887E7 ; 2.113055539686462E8 ; 0.0
3 ; 6817355.138741828 ; 1.0695132249161315E8 ; 2.040618006958446E7 ; 3.174900906363349E8 ; 0.0
4 ; 6826522.106500788 ; 1.0802734475298446E8 ; 2.7223535208326288E7 ; 4.2444141312794805E8 ; 0.0
5 ; 6840692.33817298 ; 1.0941262293715048E8 ; 3.405005731482708E7 ; 5.324687578809325E8 ; 0.0
6 ; 6857248.168054418 ; 1.1110717436291102E8 ; 4.089074965300006E7 ; 6.41881380818083E8 ; 0.0
7 ; 6877791.509081729 ; 1.1311101380420893E8 ; 4.774799782105447E7 ; 7.52988555180994E8 ; 0.0
8 ; 6914690.410651042 ; 1.154241531481806E8 ; 5.46257893301362E7 ; 8.66099568985203E8 ; 0.0
9 ; 6962196.192698443 ; 1.1804660110699642E8 ; 6.1540479740787245E7 ; 9.815237221333836E8 ; 0.0
10 ; 7041934.063181243 ; 1.2097836299921238E8 ; 6.850267593348569E7 ; 1.09957032324038E9 ; 0.0
11 ; 7164298.049358271 ; 1.2421944061316928E8 ; 7.554460999666692E7 ; 1.2205486862395926E9 ; 0.0
12 ; 7361765.597048507 ; 1.277698321605263E8 ; 8.270890804602519E7 ; 1.3447681268527617E9 ; 0.0
13 ; 7551446.746349029 ; 1.3162953232272744E8 ; 9.00706736430737E7 ; 1.472537959013288E9 ; 0.0
14 ; 7575467.544440502 ; 1.357985323876024E8 ; 9.762212038942271E7 ; 1.6041674913360155E9 ; 0.0
15 ; 7581746.34492256 ; 1.4027682046801466E8 ; 1.0519758793386322E8 ; 1.7399660237236178E9 ; 0.0
16 ; 7592629.435925941 ; 1.450643817900215E8 ; 1.1277933427878578E8 ; 1.8802428441916325E9 ; 0.0
17 ; 7602615.0604133895 ; 1.5016119903482303E8 ; 1.2037196371471173E8 ; 2.025307225981654E9 ; 0.0
18 ; 7609572.575221586 ; 1.555672527170714E8 ; 1.2797457877512512E8 ; 2.175468425016477E9 ; 0.0
19 ; 7619234.259343807 ; 1.6128252158188853E8 ; 1.355841513503467E8 ; 2.3310356777335486E9 ; 0.0
20 ; 7628873.473250654 ; 1.6730698300404158E8 ; 1.4320338560969052E8 ; 2.4923181993154373E9 ; 0.0
21 ; 7637073.686672711 ; 1.7364061337484124E8 ; 1.5083225908294117E8 ; 2.659625182319479E9 ; 0.0
22 ; 7647259.21752673 ; 1.802833884650936E8 ; 1.584693327696139E8 ; 2.83326579569432E9 ; 0.0
23 ; 7654791.927861527 ; 1.8723528375549728E8 ; 1.6611659198714063E8 ; 3.013549184159414E9 ; 0.0
24 ; 7663242.488936605 ; 1.9449627472889894E8 ; 1.7377138391500217E8 ; 3.2007844679149113E9 ; 0.0
25 ; 7672269.317415935 ; 2.0075437801976773E8 ; 1.8143462640393877E8 ; 3.3952807426438103E9 ; 0.0
26 ; 7680696.3662600145 ; 2.0076311766092288E8 ; 1.891068957213547E8 ; 3.596035120663578E9 ; 0.0
27 ; 7688930.707804219 ; 2.0077223977815968E8 ; 1.9678759208761472E8 ; 3.796798238324501E9 ; 0.0
28 ; 7699122.440947099 ; 2.0078172196931687E8 ; 2.0447652279541895E8 ; 3.9975704781026607E9 ; 0.0
29 ; 7705973.582705179 ; 2.007915426959444E8 ; 2.1217564523636603E8 ; 4.1983522000719776E9 ; 0.0
30 ; 7714927.107631488 ; 2.0080168135188207E8 ; 2.198816188190712E8 ; 4.399143742767922E9 ; 0.0
31 ; 7722980.615280497 ; 2.0081211830618143E8 ; 2.2759654592670268E8 ; 4.599945424119804E9 ; 0.0
32 ; 7731742.0599138 ; 2.0082283492447746E8 ; 2.353195265419832E8 ; 4.800757542425985E9 ; 0.0
33 ; 7739588.6543032965 ; 2.0083381357267323E8 ; 2.43051268601897E8 ; 5.001580377350463E9 ; 0.0
34 ; 7744831.417690004 ; 2.0084503760645303E8 ; 2.5079085725620028E8 ; 5.202414190923136E9 ; 0.0
35 ; 7751896.814198424 ; 2.0085649134973973E8 ; 2.585356886738903E8 ; 5.403259228529589E9 ; 0.0
36 ; 7760626.597909535 ; 2.008681600647935E8 ; 2.6628758548808873E8 ; 5.604115719879329E9 ; 0.0
37 ; 7768408.365777389 ; 2.0088002991624206E8 ; 2.7404821208599824E8 ; 5.804983879944122E9 ; 0.0
38 ; 7773007.514266805 ; 2.0089208793094844E8 ; 2.818166204517756E8 ; 6.005863909860364E9 ; 0.0
39 ; 7781401.931090322 ; 2.009043219552763E8 ; 2.895896279660424E8 ; 6.206755997791312E9 ; 0.0
40 ; 7784605.777340971 ; 2.009167206110072E8 ; 2.973710298971327E8 ; 6.407660319746589E9 ; 0.0
41 ; 7790697.805238468 ; 2.0092927325089815E8 ; 3.0515563567447364E8 ; 6.608577040357595E9 ; 0.0
42 ; 7795949.0689219935 ; 2.0094196991464388E8 ; 3.129463334797121E8 ; 6.809506313608494E9 ; 0.0
43 ; 7800344.638626797 ; 2.0095480128582022E8 ; 3.207422825486341E8 ; 7.010448283523138E9 ; 0.0
44 ; 7806388.804517893 ; 2.009677586502297E8 ; 3.285426271872609E8 ; 7.211403084808958E9 ; 0.0
45 ; 7806628.988263954 ; 2.0098083385594553E8 ; 3.363490159917788E8 ; 7.4123708434591875E9 ; 0.0
46 ; 7813472.894109671 ; 2.0099401927524835E8 ; 3.4415564498004276E8 ; 7.613351677315133E9 ; 0.0
47 ; 7817052.491739422 ; 2.010073077685717E8 ; 3.519691178741524E8 ; 7.814345696590382E9 ; 0.0
48 ; 7821593.105426775 ; 2.0102069265050876E8 ; 3.597861703658918E8 ; 8.015353004358953E9 ; 0.0
49 ; 7825033.91960533 ; 2.0103416765788656E8 ; 3.676077634713186E8 ; 8.216373697009462E9 ; 0.0
50 ; 7825269.789534904 ; 2.0104772691987786E8 ; 3.754327973909239E8 ; 8.417407864667349E9 ; 0.0
51 ; 7827630.816995717 ; 2.0106136493009433E8 ; 3.8325806718045884E8 ; 8.618455591587227E9 ; 0.0
52 ; 7830276.837463142 ; 2.0107507652058718E8 ; 3.910856979974546E8 ; 8.81951695651732E9 ; 0.0
53 ; 7830932.053603686 ; 2.010888568376684E8 ; 3.989159748349177E8 ; 9.020592033037909E9 ; 0.0
54 ; 7833826.757242833 ; 2.011027013194579E8 ; 4.0674690688852143E8 ; 9.221680889875576E9 ; 0.0
55 ; 7835224.630442494 ; 2.011166056750588E8 ; 4.145807336457643E8 ; 9.422783591195034E9 ; 0.0
56 ; 7834843.532032835 ; 2.011305658652607E8 ; 4.224159582762068E8 ; 9.623900196870092E9 ; 0.0
57 ; 7839324.688269625 ; 2.0114457808467194E8 ; 4.3025080180823964E8 ; 9.825030762735353E9 ; 0.0
58 ; 7839760.2125292085 ; 2.0115863874518532E8 ; 4.3809012649650925E8 ; 1.0026175340820024E10 ; 0.0
59 ; 7841319.785413789 ; 2.011727444606826E8 ; 4.4592988670903844E8 ; 1.022733397956521E10 ; 0.0
60 ; 7842445.670728525 ; 2.011868920328903E8 ; 4.5377120649445224E8 ; 1.0428506724025892E10 ; 0.0
61 ; 7846794.498511116 ; 2.0120107843830082E8 ; 4.6161365216518074E8 ; 1.0629693616058783E10 ; 0.0
62 ; 7844372.979464742 ; 2.012153008160807E8 ; 4.694604466636919E8 ; 1.0830894694497084E10 ; 0.0
63 ; 7846575.410255729 ; 2.0122955645688987E8 ; 4.7730481964315665E8 ; 1.1032109995313164E10 ; 0.0
64 ; 7847620.585729352 ; 2.0124384279254308E8 ; 4.851513950534124E8 ; 1.1233339551770054E10 ; 0.0
65 ; 7851625.388546043 ; 2.012581573864479E8 ; 4.9299901563914174E8 ; 1.1434583394562597E10 ; 0.0
66 ; 7850713.557051699 ; 2.0127249792475882E8 ; 5.008506410276878E8 ; 1.1635841551949045E10 ; 0.0
67 ; 7850399.958033019 ; 2.0128686220819208E8 ; 5.087013545847395E8 ; 1.1837114049873804E10 ; 0.0
68 ; 7853854.502756921 ; 2.013012481444484E8 ; 5.1655175454277253E8 ; 1.2038400912081997E10 ; 0.0
69 ; 7854032.705493067 ; 2.0131565374119687E8 ; 5.244056090455294E8 ; 1.2239702160226446E10 ; 0.0
70 ; 7854433.356592175 ; 2.0133007709957522E8 ; 5.322596417510225E8 ; 1.2441017813967644E10 ; 0.0
71 ; 7854298.103743094 ; 2.01344516408166E8 ; 5.401140751076146E8 ; 1.2642347891067219E10 ; 0.0
72 ; 7855575.37407924 ; 2.0135896993741134E8 ; 5.479683732113577E8 ; 1.2843692407475386E10 ; 0.0
73 ; 7855213.343156602 ; 2.013734360344321E8 ; 5.558239485854369E8 ; 1.3045051377412798E10 ; 0.0
74 ; 7855389.985021054 ; 2.0138791311821923E8 ; 5.636791619285935E8 ; 1.324642481344723E10 ; 0.0
75 ; 7857269.490802417 ; 2.0140239967516878E8 ; 5.715345519136145E8 ; 1.3447812726565449E10 ; 0.0
76 ; 7860148.718396747 ; 2.0141689425493392E8 ; 5.793918214044169E8 ; 1.3649215126240618E10 ; 0.0
77 ; 7856489.562589136 ; 2.0143139546656883E8 ; 5.872519701228137E8 ; 1.3850632020495552E10 ; 0.0
78 ; 7856075.746660699 ; 2.0144590197494268E8 ; 5.951084596854029E8 ; 1.405206341596212E10 ; 0.0
79 ; 7852183.609803056 ; 2.014604124974026E8 ; 6.029645354320636E8 ; 1.4253509317937063E10 ; 0.0
80 ; 7850262.546381841 ; 2.0147492580066654E8 ; 6.108167190418667E8 ; 1.4454969730434465E10 ; 0.0
81 ; 7846452.066220007 ; 2.0148944069792894E8 ; 6.186669815882485E8 ; 1.4656444656235132E10 ; 0.0
82 ; 7847856.07501403 ; 2.0150395604616278E8 ; 6.265134336544685E8 ; 1.4857934096933062E10 ; 0.0
83 ; 7844508.110336678 ; 2.0151847074360365E8 ; 6.343612897294825E8 ; 1.5059438052979225E10 ; 0.0
84 ; 7840742.730003737 ; 2.0153298372740173E8 ; 6.422057978398192E8 ; 1.5260956523722828E10 ; 0.0
85 ; 7837506.482779723 ; 2.0154749397142997E8 ; 6.500465405698229E8 ; 1.546248950745023E10 ; 0.0
86 ; 7834855.080649272 ; 2.015620004842361E8 ; 6.578840470526026E8 ; 1.566403700142166E10 ; 0.0
87 ; 7832729.584479287 ; 2.0157650230712867E8 ; 6.657189021332519E8 ; 1.5865599001905895E10 ; 0.0
88 ; 7829637.328323757 ; 2.0159099851238725E8 ; 6.735516317177312E8 ; 1.6067175504213024E10 ; 0.0
89 ; 7827347.844659641 ; 2.0160548820158726E8 ; 6.81381269046055E8 ; 1.626876650272541E10 ; 0.0
90 ; 7825633.800528427 ; 2.0161997050403196E8 ; 6.892086168907146E8 ; 1.6470371990926998E10 ; 0.0
91 ; 7819900.350491933 ; 2.0163444457528365E8 ; 6.97034250691243E8 ; 1.667199196143103E10 ; 0.0
92 ; 7817947.398120548 ; 2.0164890959578675E8 ; 7.048541510417349E8 ; 1.6873626406006313E10 ; 0.0
93 ; 7811007.700457475 ; 2.0166336476957718E8 ; 7.126720984398555E8 ; 1.70752753156021E10 ; 0.0
94 ; 7811967.44485228 ; 2.016778093230708E8 ; 7.204831061403129E8 ; 1.7276938680371677E10 ; 0.0
95 ; 7808844.393000536 ; 2.0169224250392672E8 ; 7.282950735851651E8 ; 1.7478616489694748E10 ; 0.0
96 ; 7803125.384374739 ; 2.017066635799793E8 ; 7.361039179781656E8 ; 1.7680308732198673E10 ; 0.0
97 ; 7800127.117918962 ; 2.0172107183823484E8 ; 7.439070433625404E8 ; 1.7882015395778652E10 ; 0.0
98 ; 7795446.474063565 ; 2.017354665839282E8 ; 7.517071704804593E8 ; 1.8083736467616886E10 ; 0.0
99 ; 7791724.90187155 ; 2.0174984713963544E8 ; 7.595026169545228E8 ; 1.8285471934200813E10 ; 0.0
100 ; 7788358.695861127 ; 2.0176421284443897E8 ; 7.672943418563944E8 ; 1.848722178134045E10 ; 0.0
101 ; 7783865.721337231 ; 2.0177856305314112E8 ; 7.750827005522555E8 ; 1.868898599418489E10 ; 0.0
102 ; 7780427.497678977 ; 2.0179289713552368E8 ; 7.828665662735927E8 ; 1.8890764557238033E10 ; 0.0
103 ; 7778336.558194588 ; 2.0180721447564998E8 ; 7.906469937712717E8 ; 1.9092557454373558E10 ; 0.0
104 ; 7771842.745522389 ; 2.0182151447120684E8 ; 7.984253303294663E8 ; 1.929436466884921E10 ; 0.0
105 ; 7767374.031409459 ; 2.018357965328838E8 ; 8.061971730749887E8 ; 1.9496186183320415E10 ; 0.0
106 ; 7765032.96289826 ; 2.018500600837873E8 ; 8.139645471063982E8 ; 1.96980219798533E10 ; 0.0
107 ; 7760928.879787705 ; 2.0186430455888763E8 ; 8.217295800692965E8 ; 1.9899872039937084E10 ; 0.0
108 ; 7752793.126899742 ; 2.0187852940449667E8 ; 8.294905089490842E8 ; 2.010173634449597E10 ; 0.0
109 ; 7750055.855893027 ; 2.01892734077774E8 ; 8.372433020759839E8 ; 2.0303614873900467E10 ; 0.0
110 ; 7743508.752620968 ; 2.0190691804626036E8 ; 8.449933579318769E8 ; 2.050550760797824E10 ; 0.0
111 ; 7741457.080657589 ; 2.019210807874363E8 ; 8.527368666844978E8 ; 2.07074145260245E10 ; 0.0
112 ; 7735475.431369403 ; 2.0193522178830457E8 ; 8.604783237651554E8 ; 2.090933560681194E10 ; 0.0
113 ; 7731269.603727284 ; 2.019493405449948E8 ; 8.682137991965249E8 ; 2.1111270828600243E10 ; 0.0
114 ; 7724927.452480163 ; 2.019634365623893E8 ; 8.759450688002522E8 ; 2.1313220169145237E10 ; 0.0
115 ; 7720775.468686756 ; 2.0197750935376853E8 ; 8.836699962527324E8 ; 2.1515183605707626E10 ; 0.0
116 ; 7716120.789532041 ; 2.0199155844047502E8 ; 8.913907717214191E8 ; 2.1717161115061394E10 ; 0.0
117 ; 7710541.884013389 ; 2.020055833515949E8 ; 8.991068925109512E8 ; 2.191915267350187E10 ; 0.0
118 ; 7705923.66128008 ; 2.020195836236559E8 ; 9.068174343949646E8 ; 2.2121158256853462E10 ; 0.0
119 ; 7700092.520302296 ; 2.0203355880034068E8 ; 9.145233580562446E8 ; 2.232317784047712E10 ; 0.0
120 ; 7693440.948723256 ; 2.0204750843221503E8 ; 9.222234505765469E8 ; 2.2525211399277462E10 ; 0.0
121 ; 7691951.024258573 ; 2.0206143207646942E8 ; 9.299168915252701E8 ; 2.272725890770968E10 ; 0.0
122 ; 7683805.814515382 ; 2.02075329296674E8 ; 9.376088425495287E8 ; 2.2929320339786148E10 ; 0.0
123 ; 7679935.688898766 ; 2.020891996625455E8 ; 9.452926483640441E8 ; 2.313139566908282E10 ; 0.0
124 ; 7672811.751574401 ; 2.0210304274972594E8 ; 9.529725840529429E8 ; 2.3333484868745365E10 ; 0.0
125 ; 7668953.257824958 ; 2.0211685813957202E8 ; 9.606453958045173E8 ; 2.353558791149509E10 ; 0.0
126 ; 7660620.256751863 ; 2.0213064541895512E8 ; 9.683143490623423E8 ; 2.3737704769634663E10 ; 0.0
127 ; 7655643.066443381 ; 2.021444041800708E8 ; 9.759749693190942E8 ; 2.393983541505362E10 ; 0.0
128 ; 7649512.22044572 ; 2.021581340202575E8 ; 9.836306123855375E8 ; 2.414197981923369E10 ; 0.0
129 ; 7641092.3208572725 ; 2.0217183454182443E8 ; 9.912801246059833E8 ; 2.4344137953253944E10 ; 0.0
130 ; 7632980.297215254 ; 2.02185505351887E8 ; 9.989212169268405E8 ; 2.454630978779577E10 ; 0.0
131 ; 7625742.670442842 ; 2.0219914606221053E8 ; 1.0065541972240558E9 ; 2.4748495293147655E10 ; 0.0
132 ; 7617657.216047184 ; 2.0221275628906143E8 ; 1.0141799398944986E9 ; 2.4950694439209866E10 ; 0.0
133 ; 7607526.152316791 ; 2.0222633565306497E8 ; 1.0217975971105458E9 ; 2.5152907195498928E10 ; 0.0
134 ; 7603517.99584266 ; 2.0223988377907008E8 ; 1.0294051232628626E9 ; 2.5355133531151993E10 ; 0.0
135 ; 7592146.55868158 ; 2.0225340029602024E8 ; 1.0370086412587053E9 ; 2.5557373414931065E10 ; 0.0
136 ; 7584185.403035571 ; 2.022668848368305E8 ; 1.0446007878173869E9 ; 2.5759626815227085E10 ; 0.0
137 ; 7573911.220426781 ; 2.0228033703826988E8 ; 1.0521849732204224E9 ; 2.5961893700063915E10 ; 0.0
138 ; 7565589.470686639 ; 2.0229375654084957E8 ; 1.0597588844408492E9 ; 2.6164174037102184E10 ; 0.0
139 ; 7555224.26452751 ; 2.0230714298871583E8 ; 1.0673244739115359E9 ; 2.6366467793643032E10 ; 0.0
140 ; 7547447.475456087 ; 2.02320496029548E8 ; 1.0748796981760633E9 ; 2.656877493663175E10 ; 0.0
141 ; 7534876.9345329 ; 2.02333815314461E8 ; 1.0824271456515193E9 ; 2.6771095432661297E10 ; 0.0
142 ; 7526001.260399534 ; 2.023471004979122E8 ; 1.0899620225860522E9 ; 2.6973429247975758E10 ; 0.0
143 ; 7517476.928558683 ; 2.0236035123761255E8 ; 1.0974880238464518E9 ; 2.717577634847367E10 ; 0.0
144 ; 7508323.246387903 ; 2.0237356719444147E8 ; 1.1050055007750103E9 ; 2.7378136699711285E10 ; 0.0
145 ; 7500668.111390554 ; 2.0238674803236583E8 ; 1.1125138240213983E9 ; 2.7580510266905727E10 ; 0.0
146 ; 7494895.04111575 ; 2.0239989341836214E8 ; 1.120014492132789E9 ; 2.7782897014938095E10 ; 0.0
147 ; 7486618.692224405 ; 2.024130030223424E8 ; 1.1275093871739047E9 ; 2.7985296908356457E10 ; 0.0
148 ; 7481302.583042869 ; 2.0242607651708308E8 ; 1.1349960058661292E9 ; 2.81877099113788E10 ; 0.0
149 ; 7474422.699456798 ; 2.0243911357815725E8 ; 1.142477308449172E9 ; 2.839013598789588E10 ; 0.0
150 ; 7468722.408517763 ; 2.0245211388386968E8 ; 1.1499517311486287E9 ; 2.8592575101474037E10 ; 0.0
151 ; 7461452.6203156635 ; 2.0246507711519456E8 ; 1.1574204535571465E9 ; 2.8795027215357906E10 ; 0.0
152 ; 7452323.25480409 ; 2.0247800295571616E8 ; 1.164881906177462E9 ; 2.8997492292473103E10 ; 0.0
153 ; 7446501.987420978 ; 2.024908910915719E8 ; 1.1723342294322662E9 ; 2.9199970295428818E10 ; 0.0
154 ; 7440774.482707609 ; 2.025037412113978E8 ; 1.1797807314196873E9 ; 2.940246118652039E10 ; 0.0
155 ; 7431801.345676027 ; 2.0251655300627637E8 ; 1.1872215059023948E9 ; 2.960496492773179E10 ; 0.0
156 ; 7424775.726330718 ; 2.0252932616968668E8 ; 1.1946533072480707E9 ; 2.9807481480738064E10 ; 0.0
157 ; 7419305.189215564 ; 2.0254206039745644E8 ; 1.2020780829744015E9 ; 3.001001080690775E10 ; 0.0
158 ; 7410857.296436063 ; 2.025547553877163E8 ; 1.2094973881636171E9 ; 3.0212552867305206E10 ; 0.0
159 ; 7402435.106768127 ; 2.0256741084085584E8 ; 1.2169082454600532E9 ; 3.0415107622692924E10 ; 0.0
160 ; 7395841.198161735 ; 2.025800264594817E8 ; 1.2243106805668213E9 ; 3.061767503353378E10 ; 0.0
161 ; 7389281.658192595 ; 2.0259260194837707E8 ; 1.2317065217649832E9 ; 3.082025505999326E10 ; 0.0
162 ; 7381824.048508165 ; 2.0260513701446337E8 ; 1.2390958034231758E9 ; 3.1022847661941635E10 ; 0.0
163 ; 7374290.712277177 ; 2.026176313667629E8 ; 1.246477627471684E9 ; 3.1225452798956097E10 ; 0.0
164 ; 7366486.216726816 ; 2.0263008471636376E8 ; 1.2538519181839612E9 ; 3.142807043032286E10 ; 0.0
165 ; 7359720.728751043 ; 2.0264249677638564E8 ; 1.261218404400688E9 ; 3.1630700515039223E10 ; 0.0
166 ; 7351337.243805382 ; 2.0265486726194727E8 ; 1.2685781251294389E9 ; 3.183334301181561E10 ; 0.0
167 ; 7343847.312943443 ; 2.0266719589013526E8 ; 1.2759294623732443E9 ; 3.2035997879077557E10 ; 0.0
168 ; 7336255.846857195 ; 2.0267948237997413E8 ; 1.2832733096861877E9 ; 3.2238665074967693E10 ; 0.0
169 ; 7328191.367224093 ; 2.0269172645239758E8 ; 1.290609565533045E9 ; 3.2441344557347668E10 ; 0.0
170 ; 7321746.74402437 ; 2.0270392783022103E8 ; 1.297937756900269E9 ; 3.2644036283800064E10 ; 0.0
171 ; 7313153.280424157 ; 2.027160862381152E8 ; 1.3052595036442933E9 ; 3.2846740211630283E10 ; 0.0
172 ; 7306382.171914402 ; 2.0272820140258074E8 ; 1.3125726569247174E9 ; 3.3049456297868397E10 ; 0.0
173 ; 7298794.03897356 ; 2.0274027305192408E8 ; 1.3198790390966318E9 ; 3.3252184499270977E10 ; 0.0
174 ; 7296588.844052356 ; 2.0275230091623417E8 ; 1.3271778331356053E9 ; 3.3454924772322903E10 ; 0.0
175 ; 7289218.5603466565 ; 2.0276428472736E8 ; 1.3344744219796576E9 ; 3.3657677073239136E10 ; 0.0
176 ; 7285219.579565569 ; 2.027762242188894E8 ; 1.3417636405400043E9 ; 3.3860441357966496E10 ; 0.0
177 ; 7281119.623780383 ; 2.0278811912612835E8 ; 1.3490488601195698E9 ; 3.4063217582185387E10 ; 0.0
178 ; 7277584.32672744 ; 2.0279996918608153E8 ; 1.3563299797433503E9 ; 3.4266005701311516E10 ; 0.0
179 ; 7270864.699446084 ; 2.0281177413743317E8 ; 1.3636075640700777E9 ; 3.44688056704976E10 ; 0.0
180 ; 7267553.005182173 ; 2.028235337205292E8 ; 1.3708784287695239E9 ; 3.467161744463503E10 ; 0.0
181 ; 7261641.969749571 ; 2.0283524767735976E8 ; 1.3781459817747061E9 ; 3.487444097835556E10 ; 0.0
182 ; 7258159.935509508 ; 2.0284691575154266E8 ; 1.3854076237444558E9 ; 3.507727622603292E10 ; 0.0
183 ; 7252803.241874927 ; 2.028585376883073E8 ; 1.3926657836799653E9 ; 3.528012314178446E10 ; 0.0
184 ; 7248508.289719064 ; 2.0287011323447952E8 ; 1.3999185869218402E9 ; 3.548298167947277E10 ; 0.0
185 ; 7246005.729460116 ; 2.0288164213846692E8 ; 1.4071670952115593E9 ; 3.568585179270725E10 ; 0.0
186 ; 7238163.909286564 ; 2.028931241502447E8 ; 1.4144131009410193E9 ; 3.588873343484572E10 ; 0.0
187 ; 7236942.343843152 ; 2.0290455902134237E8 ; 1.4216512648503058E9 ; 3.6091626558995964E10 ; 0.0
188 ; 7232687.41876404 ; 2.029159465048307E8 ; 1.428888207194149E9 ; 3.62945311180173E10 ; 0.0
189 ; 7224484.780618182 ; 2.0292728635530937E8 ; 1.4361208946129131E9 ; 3.649744706452213E10 ; 0.0
190 ; 7217112.610183707 ; 2.0293857832889524E8 ; 1.4433453793935313E9 ; 3.670037435087744E10 ; 0.0
191 ; 7216644.673469712 ; 2.0294982218321085E8 ; 1.450562492003715E9 ; 3.690331292920634E10 ; 0.0
192 ; 7210926.768405746 ; 2.0296101767737368E8 ; 1.4577791366771848E9 ; 3.710626275138955E10 ; 0.0
193 ; 7206272.22453695 ; 2.0297216457198563E8 ; 1.4649900634455905E9 ; 3.7309223769066925E10 ; 0.0
194 ; 7203630.527226067 ; 2.0298326262912315E8 ; 1.4721963356701274E9 ; 3.751219593363891E10 ; 0.0
195 ; 7198379.4246234065 ; 2.0299431161232758E8 ; 1.4793999661973534E9 ; 3.771517919626803E10 ; 0.0
196 ; 7192636.342411908 ; 2.0300531128659612E8 ; 1.4865983456219769E9 ; 3.7918173507880356E10 ; 0.0
197 ; 7189380.222400433 ; 2.0301626141837314E8 ; 1.4937909819643888E9 ; 3.8121178819166954E10 ; 0.0
198 ; 7186071.995859303 ; 2.0302716177554157E8 ; 1.5009803621867893E9 ; 3.832419508058533E10 ; 0.0
199 ; 7178589.824693239 ; 2.0303801212741527E8 ; 1.5081664341826487E9 ; 3.852722224236087E10 ; 0.0
200 ; 7174604.452837725 ; 2.0304881224473104E8 ; 1.5153450240073419E9 ; 3.873026025448829E10 ; 0.0
201 ; 7170130.541749236 ; 1.7235202234066692E8 ; 1.5225196284601796E9 ; 3.893330906673302E10 ; 0.0
