CSV File for the City 4 on Day 7
1 - Minute m 
2 - Power Consumed at minute m 
3 - Power Produced at minute m 
4 - Energy Consumed since the beginning of the day 
5 - Energy Produced since the beginning of the day 
6 - Energy Lost since the beginning of the day on lines starting from the city
 
0 ; 6803019.515073679 ; 1.0559666444597891E8 ; 0.0 ; 0.0 ; 0.0
1 ; 6811711.677679705 ; 1.0574523530165857E8 ; 6803019.515073679 ; 1.0559666444597891E8 ; 0.0
2 ; 6815636.74835412 ; 1.062029861723353E8 ; 1.3614731192753386E7 ; 2.1134189974763748E8 ; 0.0
3 ; 6825204.76124626 ; 1.0696993750709069E8 ; 2.0430367941107504E7 ; 3.175448859199728E8 ; 0.0
4 ; 6837867.876598565 ; 1.0804610842554486E8 ; 2.7255572702353764E7 ; 4.2451482342706347E8 ; 0.0
5 ; 6849854.603998413 ; 1.09431516379565E8 ; 3.409344057895233E7 ; 5.325609318526083E8 ; 0.0
6 ; 6864090.045477054 ; 1.1112617682053587E8 ; 4.094329518295074E7 ; 6.419924482321733E8 ; 0.0
7 ; 6887943.466082579 ; 1.1313010288535464E8 ; 4.78073852284278E7 ; 7.531186250527092E8 ; 0.0
8 ; 6919281.449387144 ; 1.1544330511490148E8 ; 5.469532869451038E7 ; 8.662487279380639E8 ; 0.0
9 ; 6969030.383329378 ; 1.1806579121834773E8 ; 6.161461014389752E7 ; 9.816920330529654E8 ; 0.0
10 ; 7045757.118294222 ; 1.2099756589520526E8 ; 6.85836405272269E7 ; 1.0997578242713132E9 ; 0.0
11 ; 7171565.353484774 ; 1.242386307245206E8 ; 7.562939764552112E7 ; 1.2207553901665184E9 ; 0.0
12 ; 7370349.976331034 ; 1.2778898412724718E8 ; 8.28009629990059E7 ; 1.3449940208910391E9 ; 0.0
13 ; 7557797.097614421 ; 1.3164862140387315E8 ; 9.017131297533694E7 ; 1.4727830050182862E9 ; 0.0
14 ; 7580942.956331897 ; 1.3581753484522724E8 ; 9.772911007295136E7 ; 1.6044316264221594E9 ; 0.0
15 ; 7590908.956247764 ; 1.4029571391042918E8 ; 1.0531005302928326E8 ; 1.7402491612673867E9 ; 0.0
16 ; 7598059.13120042 ; 1.450831454625819E8 ; 1.1290096198553102E8 ; 1.880544875177816E9 ; 0.0
17 ; 7608524.648332499 ; 1.5017981405030057E8 ; 1.2049902111673144E8 ; 2.0256280206403978E9 ; 0.0
18 ; 7616701.6167074125 ; 1.55585702221718E8 ; 1.2810754576506394E8 ; 2.175807834690698E9 ; 0.0
19 ; 7622625.75006686 ; 1.6130079085721412E8 ; 1.3572424738177136E8 ; 2.331393536912416E9 ; 0.0
20 ; 7633688.354466625 ; 1.6732505950770727E8 ; 1.433468731318382E8 ; 2.49269432776963E9 ; 0.0
21 ; 7641561.830131296 ; 1.7365848672672442E8 ; 1.5098056148630482E8 ; 2.660019387277337E9 ; 0.0
22 ; 7651813.490979738 ; 1.8030105038638985E8 ; 1.586221233164361E8 ; 2.8336778740040617E9 ; 0.0
23 ; 7660860.523773603 ; 1.8725272796969765E8 ; 1.6627393680741584E8 ; 3.0139789243904514E9 ; 0.0
24 ; 7667798.797470936 ; 1.9451349683371252E8 ; 1.7393479733118945E8 ; 3.201231652360149E9 ; 0.0
25 ; 7675355.089877482 ; 2.007713753386917E8 ; 1.8160259612866038E8 ; 3.3957451491938615E9 ; 0.0
26 ; 7688141.321871565 ; 2.007798890823658E8 ; 1.8927795121853787E8 ; 3.596516524532553E9 ; 0.0
27 ; 7693784.816830161 ; 2.0078878558895624E8 ; 1.9696609254040945E8 ; 3.797296413614919E9 ; 0.0
28 ; 7703764.130334133 ; 2.00798043688283E8 ; 2.046598773572396E8 ; 3.9980851992038755E9 ; 0.0
29 ; 7711178.773233149 ; 2.0080764291191876E8 ; 2.1236364148757374E8 ; 4.1988832428921585E9 ; 0.0
30 ; 7721308.20169345 ; 2.0081756356956878E8 ; 2.200748202608069E8 ; 4.399690885804077E9 ; 0.0
31 ; 7728272.328945572 ; 2.00827786802098E8 ; 2.2779612846250033E8 ; 4.600508449373646E9 ; 0.0
32 ; 7736184.235941247 ; 2.0083829461445183E8 ; 2.355244007914459E8 ; 4.801336236175744E9 ; 0.0
33 ; 7742486.694959351 ; 2.0084906989162773E8 ; 2.4326058502738717E8 ; 5.002174530790195E9 ; 0.0
34 ; 7753185.2983409725 ; 2.0086009640066066E8 ; 2.510030717223465E8 ; 5.203023600681823E9 ; 0.0
35 ; 7755068.186716427 ; 2.0087135878131974E8 ; 2.587562570206875E8 ; 5.403883697082483E9 ; 0.0
36 ; 7763033.088095036 ; 2.0088284252791548E8 ; 2.6651132520740393E8 ; 5.604755055863803E9 ; 0.0
37 ; 7769705.993797693 ; 2.0089453396430695E8 ; 2.7427435829549897E8 ; 5.805637898391718E9 ; 0.0
38 ; 7777138.203680002 ; 2.0090642021389386E8 ; 2.820440642892967E8 ; 6.006532432356025E9 ; 0.0
39 ; 7785634.986361941 ; 2.009184891660944E8 ; 2.8982120249297667E8 ; 6.207438852569919E9 ; 0.0
40 ; 7790647.10453426 ; 2.0093072944054848E8 ; 2.976068374793386E8 ; 6.408357341736013E9 ; 0.0
41 ; 7793726.181580781 ; 2.0094313035005552E8 ; 3.0539748458387285E8 ; 6.609288071176562E9 ; 0.0
42 ; 7801051.9971574 ; 2.0095568186305225E8 ; 3.1319121076545364E8 ; 6.810231201526618E9 ; 0.0
43 ; 7806517.454021195 ; 2.0096837456626442E8 ; 3.2099226276261103E8 ; 7.01118688338967E9 ; 0.0
44 ; 7809268.804743163 ; 2.009811996280181E8 ; 3.2879878021663225E8 ; 7.212155257955935E9 ; 0.0
45 ; 7813566.252522853 ; 2.0099414876257524E8 ; 3.366080490213754E8 ; 7.413136457583953E9 ; 0.0
46 ; 7818812.213841649 ; 2.0100721419575647E8 ; 3.4442161527389824E8 ; 7.614130606346528E9 ; 0.0
47 ; 7821258.021166605 ; 2.0102038863203374E8 ; 3.522404274877399E8 ; 7.815137820542285E9 ; 0.0
48 ; 7823790.076566374 ; 2.010336652232082E8 ; 3.6006168550890654E8 ; 8.016158209174318E9 ; 0.0
49 ; 7827500.168572961 ; 2.0104703753873768E8 ; 3.6788547558547294E8 ; 8.217191874397527E9 ; 0.0
50 ; 7828104.369684918 ; 2.0106049953773743E8 ; 3.757129757540459E8 ; 8.418238911936264E9 ; 0.0
51 ; 7831873.229091062 ; 2.010740455426459E8 ; 3.8354108012373084E8 ; 8.619299411474E9 ; 0.0
52 ; 7836044.350202109 ; 2.0108767021452484E8 ; 3.913729533528219E8 ; 8.820373457016647E9 ; 0.0
53 ; 7836482.074765599 ; 2.0110136852994478E8 ; 3.9920899770302397E8 ; 9.021461127231173E9 ; 0.0
54 ; 7839001.632122895 ; 2.011151357593958E8 ; 4.070454797777896E8 ; 9.222562495761118E9 ; 0.0
55 ; 7838743.339266946 ; 2.011289674471541E8 ; 4.1488448140991247E8 ; 9.423677631520514E9 ; 0.0
56 ; 7842618.451243888 ; 2.0114285939253125E8 ; 4.227232247491794E8 ; 9.624806598967669E9 ; 0.0
57 ; 7848004.726617299 ; 2.011568076324289E8 ; 4.305658432004233E8 ; 9.825949458360199E9 ; 0.0
58 ; 7843931.4532926595 ; 2.0117080842512268E8 ; 4.384138479270406E8 ; 1.0027106265992628E10 ; 0.0
59 ; 7844898.801622031 ; 2.0118485823519775E8 ; 4.4625777938033324E8 ; 1.0228277074417751E10 ; 0.0
60 ; 7846701.862095912 ; 2.0119895371956256E8 ; 4.541026781819553E8 ; 1.0429461932652948E10 ; 0.0
61 ; 7849271.741997399 ; 2.0121309171446753E8 ; 4.619493800440512E8 ; 1.063066088637251E10 ; 0.0
62 ; 7851992.89113983 ; 2.0122726922346026E8 ; 4.697986517860486E8 ; 1.0831873978086979E10 ; 0.0
63 ; 7852227.18195878 ; 2.012414834062111E8 ; 4.776506446771884E8 ; 1.103310124731044E10 ; 0.0
64 ; 7856311.755871465 ; 2.0125573156814694E8 ; 4.855028718591472E8 ; 1.1234342730716652E10 ; 0.0
65 ; 7855090.874738152 ; 2.0127001115083468E8 ; 4.9335918361501867E8 ; 1.14355984622848E10 ; 0.0
66 ; 7854193.384725627 ; 2.0128431972305936E8 ; 5.012142744897568E8 ; 1.1636868473435635E10 ; 0.0
67 ; 7855135.039435142 ; 2.012986549725455E8 ; 5.0906846787448245E8 ; 1.1838152793158693E10 ; 0.0
68 ; 7859475.58690166 ; 2.0131301469827393E8 ; 5.169236029139176E8 ; 1.2039451448131239E10 ; 0.0
69 ; 7860327.090892208 ; 2.013273968033493E8 ; 5.2478307850081927E8 ; 1.2240764462829514E10 ; 0.0
70 ; 7859360.503343488 ; 2.013417992883771E8 ; 5.3264340559171146E8 ; 1.2442091859632862E10 ; 0.0
71 ; 7858864.30059952 ; 2.013562202453118E8 ; 5.40502766095055E8 ; 1.264343365892124E10 ; 0.0
72 ; 7861647.669792002 ; 2.013706578517403E8 ; 5.483616303956546E8 ; 1.2844789879166552E10 ; 0.0
73 ; 7863291.117640642 ; 2.013851103655683E8 ; 5.562232780654466E8 ; 1.3046160537018291E10 ; 0.0
74 ; 7862918.745593887 ; 2.0139957612007895E8 ; 5.640865691830872E8 ; 1.324754564738386E10 ; 0.0
75 ; 7863091.842646109 ; 2.0141405351933563E8 ; 5.719494879286811E8 ; 1.3448945223503939E10 ; 0.0
76 ; 7863706.822408395 ; 2.014285410339033E8 ; 5.798125797713273E8 ; 1.3650359277023273E10 ; 0.0
77 ; 7863755.717202229 ; 2.014430371968645E8 ; 5.876762865937357E8 ; 1.3851787818057177E10 ; 0.0
78 ; 7862629.9811681025 ; 2.0145754060010752E8 ; 5.955400423109379E8 ; 1.4053230855254042E10 ; 0.0
79 ; 7861391.551596064 ; 2.014720498908673E8 ; 6.03402672292106E8 ; 1.4254688395854149E10 ; 0.0
80 ; 7856276.57707989 ; 2.014865637684994E8 ; 6.112640638437021E8 ; 1.4456160445745016E10 ; 0.0
81 ; 7854735.363972095 ; 2.0150108098147058E8 ; 6.19120340420782E8 ; 1.4657647009513515E10 ; 0.0
82 ; 7850195.9370412845 ; 2.0151560032454956E8 ; 6.26975075784754E8 ; 1.4859148090494986E10 ; 0.0
83 ; 7851456.055353963 ; 2.0153012063618368E8 ; 6.348252717217953E8 ; 1.5060663690819534E10 ; 0.0
84 ; 7849671.800094575 ; 2.015446407960475E8 ; 6.426767277771493E8 ; 1.5262193811455717E10 ; 0.0
85 ; 7845558.030801388 ; 2.0155915972275147E8 ; 6.505263995772439E8 ; 1.5463738452251764E10 ; 0.0
86 ; 7842823.191719434 ; 2.0157367637169844E8 ; 6.583719576080453E8 ; 1.5665297611974516E10 ; 0.0
87 ; 7841710.356738173 ; 2.0158818973307815E8 ; 6.662147807997648E8 ; 1.5866871288346214E10 ; 0.0
88 ; 7836282.2736261105 ; 2.016026988299894E8 ; 6.74056491156503E8 ; 1.6068459478079292E10 ; 0.0
89 ; 7837613.218953784 ; 2.0161720271668088E8 ; 6.81892773430129E8 ; 1.627006217690928E10 ; 0.0
90 ; 7831737.282981628 ; 2.016317004769027E8 ; 6.897303866490828E8 ; 1.6471679379625961E10 ; 0.0
91 ; 7826423.53171153 ; 2.0164619122236046E8 ; 6.975621239320644E8 ; 1.6673311080102863E10 ; 0.0
92 ; 7825304.025653611 ; 2.01660674091265E8 ; 7.05388547463776E8 ; 1.6874957271325224E10 ; 0.0
93 ; 7823826.67268632 ; 2.0167514824697107E8 ; 7.132138514894296E8 ; 1.7076617945416489E10 ; 0.0
94 ; 7822718.246371382 ; 2.0168961287669915E8 ; 7.210376781621159E8 ; 1.727829309366346E10 ; 0.0
95 ; 7817677.047292212 ; 2.017040671903342E8 ; 7.288603964084873E8 ; 1.7479982706540157E10 ; 0.0
96 ; 7810508.0667931065 ; 2.0171851041929677E8 ; 7.366780734557796E8 ; 1.768168677373049E10 ; 0.0
97 ; 7808033.598377166 ; 2.0173294181548122E8 ; 7.444885815225726E8 ; 1.7883405284149788E10 ; 0.0
98 ; 7807466.952369893 ; 2.0174736065025657E8 ; 7.522966151209497E8 ; 1.808513822596527E10 ; 0.0
99 ; 7800671.9045836795 ; 2.0176176621352622E8 ; 7.601040820733197E8 ; 1.828688558661553E10 ; 0.0
100 ; 7803305.685405433 ; 2.01776157812842E8 ; 7.679047539779034E8 ; 1.8488647352829056E10 ; 0.0
101 ; 7792786.128177936 ; 2.0179053477256998E8 ; 7.757080596633089E8 ; 1.86904235106419E10 ; 0.0
102 ; 7789146.257575115 ; 2.0180489643310347E8 ; 7.835008457914867E8 ; 1.889221404541447E10 ; 0.0
103 ; 7790292.79185703 ; 2.0181924215012124E8 ; 7.912899920490619E8 ; 1.9094018941847572E10 ; 0.0
104 ; 7782364.260592036 ; 2.0183357129388762E8 ; 7.990802848409189E8 ; 1.9295838183997692E10 ; 0.0
105 ; 7779168.323864577 ; 2.0184788324859157E8 ; 8.068626491015109E8 ; 1.949767175529158E10 ; 0.0
106 ; 7777300.178600596 ; 2.0186217741172296E8 ; 8.146418174253755E8 ; 1.9699519638540173E10 ; 0.0
107 ; 7771001.6250677565 ; 2.018764531934829E8 ; 8.22419117603976E8 ; 1.9901381815951897E10 ; 0.0
108 ; 7768160.1451941235 ; 2.0189071001622674E8 ; 8.301901192290437E8 ; 2.010325826914538E10 ; 0.0
109 ; 7763137.397587892 ; 2.019049473139373E8 ; 8.379582793742379E8 ; 2.0305148979161606E10 ; 0.0
110 ; 7760202.408499188 ; 2.019191645317265E8 ; 8.457214167718258E8 ; 2.0507053926475544E10 ; 0.0
111 ; 7752200.134866898 ; 2.0193336112536398E8 ; 8.53481619180325E8 ; 2.070897309100727E10 ; 0.0
112 ; 7747366.202221228 ; 2.0194753656083056E8 ; 8.61233819315192E8 ; 2.0910906452132633E10 ; 0.0
113 ; 7745005.054312998 ; 2.0196169031389558E8 ; 8.689811855174133E8 ; 2.1112853988693462E10 ; 0.0
114 ; 7739714.5645692935 ; 2.0197582186971644E8 ; 8.767261905717262E8 ; 2.131481567900736E10 ; 0.0
115 ; 7734410.288438378 ; 2.0198993072245887E8 ; 8.844659051362954E8 ; 2.1516791500877075E10 ; 0.0
116 ; 7731538.678921655 ; 2.0200401637493715E8 ; 8.922003154247338E8 ; 2.1718781431599533E10 ; 0.0
117 ; 7727402.607817445 ; 2.0201807833827263E8 ; 8.999318541036555E8 ; 2.1920785447974472E10 ; 0.0
118 ; 7720220.633156353 ; 2.0203211613157E8 ; 9.076592567114729E8 ; 2.2122803526312744E10 ; 0.0
119 ; 7715448.1210229 ; 2.0204612928160962E8 ; 9.153794773446292E8 ; 2.2324835642444313E10 ; 0.0
120 ; 7710478.282984543 ; 2.0206011732255584E8 ; 9.230949254656521E8 ; 2.252688177172592E10 ; 0.0
121 ; 7706048.358062975 ; 2.0207407979567954E8 ; 9.308054037486366E8 ; 2.2728941889048477E10 ; 0.0
122 ; 7697765.916641565 ; 2.0208801624909487E8 ; 9.385114521066996E8 ; 2.293101596884416E10 ; 0.0
123 ; 7694994.916714212 ; 2.021019262375087E8 ; 9.462092180233412E8 ; 2.3133103985093254E10 ; 0.0
124 ; 7689512.960088761 ; 2.021158093219827E8 ; 9.539042129400554E8 ; 2.333520591133076E10 ; 0.0
125 ; 7682403.97066388 ; 2.0212966506970677E8 ; 9.615937259001441E8 ; 2.3537321720652744E10 ; 0.0
126 ; 7677136.793616344 ; 2.0214349305378366E8 ; 9.69276129870808E8 ; 2.373945138572245E10 ; 0.0
127 ; 7673493.433662346 ; 2.02157292853024E8 ; 9.769532666644243E8 ; 2.3941594878776234E10 ; 0.0
128 ; 7668689.167493596 ; 2.0217106405175117E8 ; 9.846267600980866E8 ; 2.4143752171629257E10 ; 0.0
129 ; 7659756.9800030645 ; 2.021848062396153E8 ; 9.922954492655802E8 ; 2.4345923235681007E10 ; 0.0
130 ; 7653875.336913428 ; 2.0219851901141638E8 ; 9.999552062455833E8 ; 2.4548108041920624E10 ; 0.0
131 ; 7643085.035187816 ; 2.0221220196693552E8 ; 1.0076090815824968E9 ; 2.475030656093204E10 ; 0.0
132 ; 7639101.885336058 ; 2.0222585471077424E8 ; 1.0152521666176846E9 ; 2.4952518762898975E10 ; 0.0
133 ; 7629718.095241599 ; 2.0223947685220107E8 ; 1.0228912685030206E9 ; 2.515474461760975E10 ; 0.0
134 ; 7618298.47481975 ; 2.0225306800500557E8 ; 1.0305209865982622E9 ; 2.535698409446195E10 ; 0.0
135 ; 7613160.476788251 ; 2.0226662778735882E8 ; 1.038139285073082E9 ; 2.5559237162466953E10 ; 0.0
136 ; 7602889.741993699 ; 2.022801558216804E8 ; 1.0457524455498703E9 ; 2.576150379025431E10 ; 0.0
137 ; 7595314.379928063 ; 2.0229365173451146E8 ; 1.0533553352918639E9 ; 2.5963783946075993E10 ; 0.0
138 ; 7584837.016041563 ; 2.0230711515639362E8 ; 1.060950649671792E9 ; 2.6166077597810505E10 ; 0.0
139 ; 7574257.987270807 ; 2.0232054572175312E8 ; 1.0685354866878335E9 ; 2.63683847129669E10 ; 0.0
140 ; 7567878.771390256 ; 2.0233394306879047E8 ; 1.0761097446751044E9 ; 2.6570705258688652E10 ; 0.0
141 ; 7558141.761497598 ; 2.0234730683937475E8 ; 1.0836776234464946E9 ; 2.6773039201757442E10 ; 0.0
142 ; 7552346.501364946 ; 2.0236063667894286E8 ; 1.091235765207992E9 ; 2.6975386508596817E10 ; 0.0
143 ; 7542588.170216137 ; 2.0237393223640308E8 ; 1.098788111709357E9 ; 2.717774714527576E10 ; 0.0
144 ; 7531493.456541079 ; 2.0238719316404286E8 ; 1.106330699879573E9 ; 2.7380121077512165E10 ; 0.0
145 ; 7525411.301416153 ; 2.0240041911744088E8 ; 1.1138621933361142E9 ; 2.758250827067621E10 ; 0.0
146 ; 7519629.374254146 ; 2.0241360975538266E8 ; 1.1213876046375303E9 ; 2.7784908689793648E10 ; 0.0
147 ; 7514806.072136749 ; 2.0242676473978004E8 ; 1.1289072340117846E9 ; 2.798732229954903E10 ; 0.0
148 ; 7508178.54438908 ; 2.0243988373559403E8 ; 1.1364220400839212E9 ; 2.818974906428881E10 ; 0.0
149 ; 7500982.544597854 ; 2.0245296641076115E8 ; 1.1439302186283102E9 ; 2.8392188948024406E10 ; 0.0
150 ; 7493648.833125281 ; 2.0246601243612275E8 ; 1.151431201172908E9 ; 2.859464191443517E10 ; 0.0
151 ; 7488176.53202686 ; 2.0247902148535737E8 ; 1.1589248500060334E9 ; 2.8797107926871292E10 ; 0.0
152 ; 7479568.71185133 ; 2.024919932349162E8 ; 1.1664130265380602E9 ; 2.899958694835665E10 ; 0.0
153 ; 7472382.984422475 ; 2.025049273639611E8 ; 1.1738925952499115E9 ; 2.9202078941591568E10 ; 0.0
154 ; 7466255.801597424 ; 2.0251782355430505E8 ; 1.181364978234334E9 ; 2.940458386895553E10 ; 0.0
155 ; 7460515.591527279 ; 2.0253068149035567E8 ; 1.1888312340359313E9 ; 2.9607101692509834E10 ; 0.0
156 ; 7454247.646760872 ; 2.0254350085906056E8 ; 1.1962917496274586E9 ; 2.980963237400019E10 ; 0.0
157 ; 7447863.4641797505 ; 2.0255628134985515E8 ; 1.2037459972742195E9 ; 3.0012175874859253E10 ; 0.0
158 ; 7438291.292258549 ; 2.0256902265461284E8 ; 1.2111938607383993E9 ; 3.0214732156209106E10 ; 0.0
159 ; 7430868.39613565 ; 2.0258172446759695E8 ; 1.2186321520306578E9 ; 3.041730117886372E10 ; 0.0
160 ; 7426462.183630371 ; 2.0259438648541495E8 ; 1.2260630204267933E9 ; 3.0619882903331318E10 ; 0.0
161 ; 7419005.390438432 ; 2.0260700840697438E8 ; 1.2334894826104238E9 ; 3.0822477289816734E10 ; 0.0
162 ; 7412398.719470366 ; 2.0261958993344066E8 ; 1.2409084880008621E9 ; 3.102508429822371E10 ; 0.0
163 ; 7406397.762181756 ; 2.0263213076819658E8 ; 1.2483208867203324E9 ; 3.122770388815715E10 ; 0.0
164 ; 7399939.733271134 ; 2.0264463061680368E8 ; 1.2557272844825141E9 ; 3.1430336018925346E10 ; 0.0
165 ; 7390580.723413537 ; 2.026570891869648E8 ; 1.2631272242157853E9 ; 3.163298064954215E10 ; 0.0
166 ; 7385548.058727227 ; 2.0266950618848866E8 ; 1.2705178049391987E9 ; 3.1835637738729115E10 ; 0.0
167 ; 7379782.95539376 ; 2.026818813332554E8 ; 1.277903352997926E9 ; 3.2038307244917603E10 ; 0.0
168 ; 7367317.407962469 ; 2.026942143351839E8 ; 1.2852831359533198E9 ; 3.224098912625086E10 ; 0.0
169 ; 7365090.803089177 ; 2.0270650491020018E8 ; 1.2926504533612823E9 ; 3.244368334058604E10 ; 0.0
170 ; 7357287.862571842 ; 2.0271875277620733E8 ; 1.3000155441643715E9 ; 3.2646389845496243E10 ; 0.0
171 ; 7348340.422746002 ; 2.0273095765305635E8 ; 1.3073728320269434E9 ; 3.284910859827245E10 ; 0.0
172 ; 7340614.606218834 ; 2.0274311926251844E8 ; 1.3147211724496894E9 ; 3.3051839555925507E10 ; 0.0
173 ; 7336317.874735946 ; 2.0275523732825825E8 ; 1.3220617870559082E9 ; 3.3254582675188026E10 ; 0.0
174 ; 7331338.103485384 ; 2.027673115758083E8 ; 1.329398104930644E9 ; 3.3457337912516285E10 ; 0.0
175 ; 7326667.912938415 ; 2.0277934173254442E8 ; 1.3367294430341294E9 ; 3.3660105224092094E10 ; 0.0
176 ; 7319571.804332045 ; 2.0279132752766213E8 ; 1.3440561109470677E9 ; 3.386288456582464E10 ; 0.0
177 ; 7316107.629553243 ; 2.0280326869215396E8 ; 1.3513756827513998E9 ; 3.40656758933523E10 ; 0.0
178 ; 7313088.419897817 ; 2.0281516495878786E8 ; 1.358691790380953E9 ; 3.4268479162044453E10 ; 0.0
179 ; 7308702.15362953 ; 2.0282701606208622E8 ; 1.3660048788008509E9 ; 3.447129432700324E10 ; 0.0
180 ; 7303013.15666593 ; 2.028388217383059E8 ; 1.3733135809544804E9 ; 3.467412134306533E10 ; 0.0
181 ; 7298657.404421714 ; 2.028505817254191E8 ; 1.3806165941111465E9 ; 3.4876960164803635E10 ; 0.0
182 ; 7295238.779477656 ; 2.0286229576309487E8 ; 1.3879152515155683E9 ; 3.507981074652905E10 ; 0.0
183 ; 7292712.845763177 ; 2.0287396359268147E8 ; 1.3952104902950459E9 ; 3.5282673042292145E10 ; 0.0
184 ; 7286947.280286089 ; 2.0288558495718932E8 ; 1.402503203140809E9 ; 3.548554700588483E10 ; 0.0
185 ; 7282439.958156277 ; 2.0289715960127488E8 ; 1.4097901504210951E9 ; 3.568843259084202E10 ; 0.0
186 ; 7277944.0695603145 ; 2.0290868727122483E8 ; 1.4170725903792515E9 ; 3.589132975044329E10 ; 0.0
187 ; 7272918.392670565 ; 2.0292016771494132E8 ; 1.4243505344488118E9 ; 3.6094238437714516E10 ; 0.0
188 ; 7270983.367442835 ; 2.0293160068192738E8 ; 1.4316234528414824E9 ; 3.629715860542946E10 ; 0.0
189 ; 7267107.454564657 ; 2.0294298592327324E8 ; 1.4388944362089252E9 ; 3.650009020611139E10 ; 0.0
190 ; 7259386.371377048 ; 2.0295432319164315E8 ; 1.4461615436634898E9 ; 3.670303319203466E10 ; 0.0
191 ; 7254973.619285924 ; 2.0296561224126258E8 ; 1.4534209300348668E9 ; 3.69059875152263E10 ; 0.0
192 ; 7249949.252449084 ; 2.029768528279061E8 ; 1.4606759036541526E9 ; 3.710895312746757E10 ; 0.0
193 ; 7246990.755207805 ; 2.0298804470888573E8 ; 1.4679258529066017E9 ; 3.731192998029547E10 ; 0.0
194 ; 7242463.874691683 ; 2.0299918764303982E8 ; 1.4751728436618094E9 ; 3.751491802500436E10 ; 0.0
195 ; 7238207.62977604 ; 2.0301028139072222E8 ; 1.4824153075365012E9 ; 3.77179172126474E10 ; 0.0
196 ; 7232562.609759607 ; 2.0302132571379203E8 ; 1.4896535151662772E9 ; 3.7920927494038124E10 ; 0.0
197 ; 7230548.655715746 ; 2.030323203756038E8 ; 1.4968860777760367E9 ; 3.8123948819751915E10 ; 0.0
198 ; 7222515.527976168 ; 2.0304326514099813E8 ; 1.5041166264317524E9 ; 3.832698114012752E10 ; 0.0
199 ; 7221921.710815232 ; 2.030541597762925E8 ; 1.5113391419597287E9 ; 3.853002440526852E10 ; 0.0
200 ; 7215633.854309128 ; 2.0306500404927278E8 ; 1.518561063670544E9 ; 3.873307856504481E10 ; 0.0
201 ; 7211590.778698553 ; 1.712124606085838E8 ; 1.525776697524853E9 ; 3.893614356909408E10 ; 0.0
