CSV File for the City 1 on Day 1
1 - Minute m 
2 - Power Consumed at minute m 
3 - Power Produced at minute m 
4 - Energy Consumed since the beginning of the day 
5 - Energy Produced since the beginning of the day 
6 - Energy Lost since the beginning of the day on lines starting from the city
 
0 ; 1.6003782062451797E7 ; 1.0538015344004986E8 ; 0.0 ; 0.0 ; 0.0
1 ; 1.6018865051949376E7 ; 1.0553279858529991E8 ; 1.6003782062451797E7 ; 1.0538015344004986E8 ; 0.0
2 ; 1.6042629527119035E7 ; 1.0599425072382542E8 ; 3.2022647114401173E7 ; 2.1091295202534977E8 ; 0.0
3 ; 1.6060559084263405E7 ; 1.067645134622708E8 ; 4.806527664152021E7 ; 3.169072027491752E8 ; 0.0
4 ; 1.6085249613949258E7 ; 1.0784359008979332E8 ; 6.412583572578362E7 ; 4.23671716211446E8 ; 0.0
5 ; 1.6115094071138343E7 ; 1.0923148354163235E8 ; 8.021108533973287E7 ; 5.315153063012393E8 ; 0.0
6 ; 1.6148768887803487E7 ; 1.1092819636524138E8 ; 9.632617941087121E7 ; 6.407467898428717E8 ; 0.0
7 ; 1.6204335397077052E7 ; 1.1293373068984538E8 ; 1.124749482986747E8 ; 7.516749862081131E8 ; 0.0
8 ; 1.6282299195682494E7 ; 1.1524808820024222E8 ; 1.2867928369575176E8 ; 8.646087168979585E8 ; 0.0
9 ; 1.6400758663801417E7 ; 1.1787127011558253E8 ; 1.4496158289143425E8 ; 9.798568050982008E8 ; 0.0
10 ; 1.657843376103143E7 ; 1.2080327717374265E8 ; 1.6136234155523568E8 ; 1.0977280752137833E9 ; 0.0
11 ; 1.686708888038379E7 ; 1.2404410962175539E8 ; 1.779407753162671E8 ; 1.218531352387526E9 ; 0.0
12 ; 1.7330874473269798E7 ; 1.2759376721258792E8 ; 1.948078641966509E8 ; 1.3425754620092814E9 ; 0.0
13 ; 1.7776906413120415E7 ; 1.3145224920836389E8 ; 2.1213873866992068E8 ; 1.4701692292218692E9 ; 0.0
14 ; 1.7830676459687673E7 ; 1.3561955438993275E8 ; 2.299156450830411E8 ; 1.601621478430233E9 ; 0.0
15 ; 1.784869692813864E7 ; 1.4009568107249653E8 ; 2.4774632154272878E8 ; 1.7372410328201656E9 ; 0.0
16 ; 1.7867281910490382E7 ; 1.4488062712683037E8 ; 2.6559501847086743E8 ; 1.877336713892662E9 ; 0.0
17 ; 1.789357061731271E7 ; 1.4997439000548068E8 ; 2.834623003813578E8 ; 2.0222173410194924E9 ; 0.0
18 ; 1.790811259212227E7 ; 1.5537696677320814E8 ; 3.013558709986705E8 ; 2.172191731024973E9 ; 0.0
19 ; 1.7929846989422727E7 ; 1.6108835414085546E8 ; 3.192639835907928E8 ; 2.327568697798181E9 ; 0.0
20 ; 1.7955773121008247E7 ; 1.6710854850177822E8 ; 3.371938305802155E8 ; 2.4886570519390364E9 ; 0.0
21 ; 1.7975944210986402E7 ; 1.73437545969965E8 ; 3.5514960370122373E8 ; 2.6557656004408145E9 ; 0.0
22 ; 1.7995919824309E7 ; 1.800753424189995E8 ; 3.731255479122101E8 ; 2.8292031464107795E9 ; 0.0
23 ; 1.8018727174216274E7 ; 1.8702193352107203E8 ; 3.911214677365191E8 ; 3.009278488829779E9 ; 0.0
24 ; 1.803466775353948E7 ; 1.9427731478532356E8 ; 4.0914019491073537E8 ; 3.196300422350851E9 ; 0.0
25 ; 1.805844820577828E7 ; 2.0052952249308363E8 ; 4.271748626642749E8 ; 3.3905777371361747E9 ; 0.0
26 ; 1.808256954476133E7 ; 2.0053209977001336E8 ; 4.452333108700532E8 ; 3.591107259629258E9 ; 0.0
27 ; 1.809997363831635E7 ; 2.005348111440366E8 ; 4.633158804148145E8 ; 3.7916393593992715E9 ; 0.0
28 ; 1.8115868350353952E7 ; 2.0053765182261735E8 ; 4.814158540531308E8 ; 3.9921741705433083E9 ; 0.0
29 ; 1.8137820014790118E7 ; 2.0054061701378268E8 ; 4.9953172240348476E8 ; 4.192711822365926E9 ; 0.0
30 ; 1.8159191772005863E7 ; 2.005437019510602E8 ; 5.176695424182749E8 ; 4.393252439379708E9 ; 0.0
31 ; 1.8176983550425004E7 ; 2.005469019155432E8 ; 5.3582873419028074E8 ; 4.593796141330769E9 ; 0.0
32 ; 1.8200280978636954E7 ; 2.0055021225511885E8 ; 5.540057177407057E8 ; 4.794343043246312E9 ; 0.0
33 ; 1.8215277250139683E7 ; 2.005536284009505E8 ; 5.722059987193427E8 ; 4.9948932555014305E9 ; 0.0
34 ; 1.823417576832052E7 ; 2.005571458813486E8 ; 5.904212759694824E8 ; 5.195446883902381E9 ; 0.0
35 ; 1.824578557375303E7 ; 2.0056076033319545E8 ; 6.08655451737803E8 ; 5.39600402978373E9 ; 0.0
36 ; 1.8267490799690533E7 ; 2.0056446751111177E8 ; 6.26901237311556E8 ; 5.596564790116925E9 ; 0.0
37 ; 1.8281453144297756E7 ; 2.0056826329456466E8 ; 6.451687281112465E8 ; 5.797129257628037E9 ; 0.0
38 ; 1.829631116615874E7 ; 2.0057214369312227E8 ; 6.634501812555442E8 ; 5.997697520922602E9 ; 0.0
39 ; 1.83119608280382E7 ; 2.0057610485005885E8 ; 6.81746492421703E8 ; 6.198269664615724E9 ; 0.0
40 ; 1.8321960768705383E7 ; 2.0058014304450908E8 ; 7.000584532497412E8 ; 6.398845769465782E9 ; 0.0
41 ; 1.834169970914457E7 ; 2.005842546923605E8 ; 7.183804140184466E8 ; 6.599425912510291E9 ; 0.0
42 ; 1.835092126020921E7 ; 2.005884363460617E8 ; 7.367221137275912E8 ; 6.800010167202652E9 ; 0.0
43 ; 1.8365790278256156E7 ; 2.0059268469351032E8 ; 7.550730349878004E8 ; 7.000598603548714E9 ; 0.0
44 ; 1.837529793957577E7 ; 2.0059699655617097E8 ; 7.734388252660565E8 ; 7.201191288242224E9 ; 0.0
45 ; 1.8383646702773783E7 ; 2.006013688865581E8 ; 7.918141232056323E8 ; 7.401788284798395E9 ; 0.0
46 ; 1.839733327770935E7 ; 2.006057987652053E8 ; 8.101977699084061E8 ; 7.602389653684954E9 ; 0.0
47 ; 1.8400710077509213E7 ; 2.0061028339722812E8 ; 8.285951031861155E8 ; 7.802995452450159E9 ; 0.0
48 ; 1.8409434170109425E7 ; 2.0061482010857412E8 ; 8.469958132636247E8 ; 8.003605735847387E9 ; 0.0
49 ; 1.8415424976602763E7 ; 2.0061940634204227E8 ; 8.65405247433734E8 ; 8.204220555955961E9 ; 0.0
50 ; 1.8425002636043385E7 ; 2.006240396531421E8 ; 8.838206724103369E8 ; 8.404839962298003E9 ; 0.0
51 ; 1.842497884844589E7 ; 2.0062871770585275E8 ; 9.022456750463803E8 ; 8.605464001951145E9 ; 0.0
52 ; 1.8433013841836154E7 ; 2.0063343826833272E8 ; 9.206706538948262E8 ; 8.806092719656998E9 ; 0.0
53 ; 1.843847805829075E7 ; 2.006381992086234E8 ; 9.391036677366624E8 ; 9.006726157925331E9 ; 0.0
54 ; 1.8441982528160643E7 ; 2.0064299849038124E8 ; 9.575421457949531E8 ; 9.207364357133955E9 ; 0.0
55 ; 1.84467768054557E7 ; 2.006478341686679E8 ; 9.759841283231138E8 ; 9.408007355624336E9 ; 0.0
56 ; 1.8456074355566733E7 ; 2.0065270438582152E8 ; 9.944309051285695E8 ; 9.608655189793005E9 ; 0.0
57 ; 1.8457982301803265E7 ; 2.0065760736742753E8 ; 1.0128869794841362E9 ; 9.809307894178827E9 ; 0.0
58 ; 1.8461333237117674E7 ; 2.0066254141840363E8 ; 1.0313449617859395E9 ; 1.0009965501546255E10 ; 0.0
59 ; 1.8467392675518338E7 ; 2.0066750491920912E8 ; 1.0498062950230571E9 ; 1.0210628042964659E10 ; 0.0
60 ; 1.847171458897649E7 ; 2.0067249632218692E8 ; 1.0682736876985755E9 ; 1.0411295547883867E10 ; 0.0
61 ; 1.847566109329841E7 ; 2.006775141480427E8 ; 1.0867454022875519E9 ; 1.0611968044206055E10 ; 0.0
62 ; 1.8477008870001376E7 ; 2.0068255698246488E8 ; 1.1052210633808503E9 ; 1.0812645558354097E10 ; 0.0
63 ; 1.8481656206335645E7 ; 2.0068762347288612E8 ; 1.1236980722508516E9 ; 1.1013328115336563E10 ; 0.0
64 ; 1.8483671830403633E7 ; 2.0069271232538652E8 ; 1.1421797284571872E9 ; 1.121401573880945E10 ; 0.0
65 ; 1.848785075673159E7 ; 2.006978223017367E8 ; 1.1606634002875907E9 ; 1.1414708451134836E10 ; 0.0
66 ; 1.8491342933564246E7 ; 2.0070295221657905E8 ; 1.1791512510443223E9 ; 1.1615406273436573E10 ; 0.0
67 ; 1.849038359342037E7 ; 2.0070810093474314E8 ; 1.1976425939778864E9 ; 1.1816109225653152E10 ; 0.0
68 ; 1.849663973357707E7 ; 2.007132673686926E8 ; 1.2161329775713067E9 ; 1.2016817326587896E10 ; 0.0
69 ; 1.849962719117881E7 ; 2.0071845047609872E8 ; 1.2346296173048837E9 ; 1.2217530593956589E10 ; 0.0
70 ; 1.8501853025094647E7 ; 2.0072364925753647E8 ; 1.2531292444960625E9 ; 1.2418249044432688E10 ; 0.0
71 ; 1.849955180852541E7 ; 2.007288627542985E8 ; 1.2716310975211573E9 ; 1.2618972693690224E10 ; 0.0
72 ; 1.850031776347973E7 ; 2.007340900463223E8 ; 1.2901306493296826E9 ; 1.2819701556444523E10 ; 0.0
73 ; 1.8505820505602732E7 ; 2.007393302502252E8 ; 1.3086309670931623E9 ; 1.3020435646490845E10 ; 0.0
74 ; 1.8509839650637954E7 ; 2.0074458251744345E8 ; 1.3271367875987651E9 ; 1.322117497674107E10 ; 0.0
75 ; 1.8504551558307137E7 ; 2.0074984603246945E8 ; 1.345646627249403E9 ; 1.3421919559258512E10 ; 0.0
76 ; 1.8509971988473106E7 ; 2.0075512001118308E8 ; 1.3641511788077102E9 ; 1.3622669405290981E10 ; 0.0
77 ; 1.8510597096330386E7 ; 2.0076040369927236E8 ; 1.3826611507961833E9 ; 1.3823424525302164E10 ; 0.0
78 ; 1.8507094225282222E7 ; 2.0076569637073883E8 ; 1.4011717478925138E9 ; 1.4024184929001436E10 ; 0.0
79 ; 1.850057578639957E7 ; 2.0077099732648367E8 ; 1.419678842117796E9 ; 1.4224950625372175E10 ; 0.0
80 ; 1.8493119302957717E7 ; 2.0077630589296976E8 ; 1.4381794179041955E9 ; 1.4425721622698658E10 ; 0.0
81 ; 1.848944160322119E7 ; 2.007816214209562E8 ; 1.4566725372071533E9 ; 1.4626497928591627E10 ; 0.0
82 ; 1.8481089769574575E7 ; 2.007869432843013E8 ; 1.4751619788103745E9 ; 1.4827279550012583E10 ; 0.0
83 ; 1.8481122161285896E7 ; 2.007922708788301E8 ; 1.4936430685799491E9 ; 1.5028066493296885E10 ; 0.0
84 ; 1.847216706237204E7 ; 2.0079760362126306E8 ; 1.512124190741235E9 ; 1.5228858764175714E10 ; 0.0
85 ; 1.846612728961676E7 ; 2.0080294094820276E8 ; 1.530596357803607E9 ; 1.5429656367796978E10 ; 0.0
86 ; 1.8461920426879544E7 ; 2.00808282315175E8 ; 1.5490624850932238E9 ; 1.563045930874518E10 ; 0.0
87 ; 1.8454913920339763E7 ; 2.0081362719572154E8 ; 1.5675244055201035E9 ; 1.5831267591060354E10 ; 0.0
88 ; 1.845407468458528E7 ; 2.008189750805416E8 ; 1.5859793194404433E9 ; 1.6032081218256075E10 ; 0.0
89 ; 1.844255439544427E7 ; 2.008243254766794E8 ; 1.6044333941250286E9 ; 1.6232900193336617E10 ; 0.0
90 ; 1.8440092691589925E7 ; 2.0082967790675482E8 ; 1.6228759485204728E9 ; 1.6433724518813295E10 ; 0.0
91 ; 1.843410377816194E7 ; 2.008350319082353E8 ; 1.6413160412120626E9 ; 1.663455419672005E10 ; 0.0
92 ; 1.842293698551212E7 ; 2.0084038703274632E8 ; 1.6597501449902246E9 ; 1.6835389228628286E10 ; 0.0
93 ; 1.8413882934392698E7 ; 2.0084574284541827E8 ; 1.6781730819757366E9 ; 1.7036229615661034E10 ; 0.0
94 ; 1.8406985163414337E7 ; 2.0085109892426786E8 ; 1.6965869649101293E9 ; 1.723707535850645E10 ; 0.0
95 ; 1.8400407353836372E7 ; 2.0085645485961187E8 ; 1.7149939500735435E9 ; 1.7437926457430717E10 ; 0.0
96 ; 1.8389351898825467E7 ; 2.0086181025351173E8 ; 1.7333943574273798E9 ; 1.763878291229033E10 ; 0.0
97 ; 1.838460622091733E7 ; 2.0086716471924695E8 ; 1.7517837093262053E9 ; 1.7839644722543842E10 ; 0.0
98 ; 1.83759077216945E7 ; 2.0087251788081574E8 ; 1.7701683155471225E9 ; 1.804051188726309E10 ; 0.0
99 ; 1.8367745717629414E7 ; 2.0087786937246165E8 ; 1.788544223268817E9 ; 1.8241384405143906E10 ; 0.0
100 ; 1.836189775787452E7 ; 2.0088321883822432E8 ; 1.8069119689864464E9 ; 1.844226227451637E10 ; 0.0
101 ; 1.8351045146333914E7 ; 2.0088856593151337E8 ; 1.8252738667443209E9 ; 1.864314549335459E10 ; 0.0
102 ; 1.8340548249821577E7 ; 2.0089391031470394E8 ; 1.8436249118906548E9 ; 1.8844034059286106E10 ; 0.0
103 ; 1.8331124217500765E7 ; 2.0089925165875268E8 ; 1.8619654601404765E9 ; 1.904492796960081E10 ; 0.0
104 ; 1.8321811510438256E7 ; 2.0090458964283317E8 ; 1.8802965843579772E9 ; 1.9245827221259563E10 ; 0.0
105 ; 1.8313000855845794E7 ; 2.0090992395398962E8 ; 1.8986183958684154E9 ; 1.9446731810902397E10 ; 0.0
106 ; 1.8307345860955648E7 ; 2.0091525428680786E8 ; 1.916931396724261E9 ; 1.9647641734856388E10 ; 0.0
107 ; 1.8297775562251825E7 ; 2.0092058034310266E8 ; 1.9352387425852168E9 ; 1.9848556989143196E10 ; 0.0
108 ; 1.828850236578521E7 ; 2.0092590183162057E8 ; 1.9535365181474686E9 ; 2.0049477569486298E10 ; 0.0
109 ; 1.827787073292352E7 ; 2.009312184677572E8 ; 1.9718250205132537E9 ; 2.0250403471317917E10 ; 0.0
110 ; 1.8265192838282477E7 ; 2.0093652997328863E8 ; 1.9901028912461772E9 ; 2.0451334689785675E10 ; 0.0
111 ; 1.8253995225110132E7 ; 2.009418360761156E8 ; 2.0083680840844598E9 ; 2.0652271219758965E10 ; 0.0
112 ; 1.8243509589571826E7 ; 2.009471365100203E8 ; 2.0266220793095698E9 ; 2.085321305583508E10 ; 0.0
113 ; 1.8236310757730555E7 ; 2.0095243101443458E8 ; 2.0448655888991416E9 ; 2.10541601923451E10 ; 0.0
114 ; 1.8224789921848964E7 ; 2.009577193342197E8 ; 2.063101899656872E9 ; 2.1255112623359535E10 ; 0.0
115 ; 1.8213417715442006E7 ; 2.0096300121945623E8 ; 2.081326689578721E9 ; 2.1456070342693756E10 ; 0.0
116 ; 1.820239103542718E7 ; 2.0096827642524397E8 ; 2.099540107294163E9 ; 2.165703334391321E10 ; 0.0
117 ; 1.8190026376521427E7 ; 2.0097354471151146E8 ; 2.11774249832959E9 ; 2.1858001620338455E10 ; 0.0
118 ; 1.8176441150641784E7 ; 2.009788058428342E8 ; 2.1359325247061114E9 ; 2.2058975165049965E10 ; 0.0
119 ; 1.8165354167705104E7 ; 2.0098405958826151E8 ; 2.1541089658567533E9 ; 2.22599539708928E10 ; 0.0
120 ; 1.8155197530446075E7 ; 2.009893057211514E8 ; 2.1722743200244584E9 ; 2.246093803048106E10 ; 0.0
121 ; 1.814276899019778E7 ; 2.00994544019013E8 ; 2.1904295175549045E9 ; 2.2661927336202213E10 ; 0.0
122 ; 1.812857319841844E7 ; 2.0099977426335627E8 ; 2.208572286545102E9 ; 2.2862921880221226E10 ; 0.0
123 ; 1.811657299311836E7 ; 2.010049962395486E8 ; 2.2267008597435207E9 ; 2.306392165448458E10 ; 0.0
124 ; 1.810425341203181E7 ; 2.010102097366778E8 ; 2.244817432736639E9 ; 2.326492665072413E10 ; 0.0
125 ; 1.8090593049726855E7 ; 2.0101541454742151E8 ; 2.2629216861486707E9 ; 2.3465936860460808E10 ; 0.0
126 ; 1.8079496029756233E7 ; 2.0102061046792224E8 ; 2.2810122791983976E9 ; 2.366695227500823E10 ; 0.0
127 ; 1.8066224052064013E7 ; 2.010257972976681E8 ; 2.2990917752281537E9 ; 2.386797288547615E10 ; 0.0
128 ; 1.8052338362006992E7 ; 2.010309748393789E8 ; 2.3171579992802176E9 ; 2.406899868277382E10 ; 0.0
129 ; 1.8034584534093287E7 ; 2.010361428988971E8 ; 2.335210337642225E9 ; 2.4270029657613197E10 ; 0.0
130 ; 1.802177174845789E7 ; 2.010413012850839E8 ; 2.353244922176318E9 ; 2.4471065800512093E10 ; 0.0
131 ; 1.8003739915752135E7 ; 2.0104644980971947E8 ; 2.371266693924776E9 ; 2.4672107101797176E10 ; 0.0
132 ; 1.7983552174957585E7 ; 2.0105158828740785E8 ; 2.389270433840528E9 ; 2.4873153551606895E10 ; 0.0
133 ; 1.796696527870002E7 ; 2.0105671653548574E8 ; 2.407253986015486E9 ; 2.5074205139894302E10 ; 0.0
134 ; 1.794714470693101E7 ; 2.0106183437393546E8 ; 2.4252209512941856E9 ; 2.5275261856429787E10 ; 0.0
135 ; 1.792856930941401E7 ; 2.0106694162530148E8 ; 2.4431680960011168E9 ; 2.5476323690803722E10 ; 0.0
136 ; 1.7905979251782123E7 ; 2.010720381146105E8 ; 2.4610966653105307E9 ; 2.5677390632429024E10 ; 0.0
137 ; 1.7884576218269292E7 ; 2.01077123669295E8 ; 2.4790026445623126E9 ; 2.5878462670543633E10 ; 0.0
138 ; 1.7861209306445338E7 ; 2.010821981191202E8 ; 2.496887220780582E9 ; 2.607953979421293E10 ; 0.0
139 ; 1.7845264753151253E7 ; 2.010872612961136E8 ; 2.514748430087027E9 ; 2.628062199233205E10 ; 0.0
140 ; 1.7820872422364473E7 ; 2.0109231303449798E8 ; 2.5325936948401785E9 ; 2.6481709253628162E10 ; 0.0
141 ; 1.7797576116382334E7 ; 2.010973531706269E8 ; 2.5504145672625427E9 ; 2.668280156666266E10 ; 0.0
142 ; 1.7778818426977694E7 ; 2.011023815429231E8 ; 2.568212143378925E9 ; 2.6883898919833286E10 ; 0.0
143 ; 1.7756348751751784E7 ; 2.011073979918191E8 ; 2.5859909618059025E9 ; 2.708500130137621E10 ; 0.0
144 ; 1.7737401164092086E7 ; 2.0111240235970065E8 ; 2.6037473105576544E9 ; 2.7286108699368027E10 ; 0.0
145 ; 1.772459383224946E7 ; 2.011173944908522E8 ; 2.6214847117217464E9 ; 2.7487221101727726E10 ; 0.0
146 ; 1.7706375373668633E7 ; 2.0112237423140472E8 ; 2.639209305553996E9 ; 2.768833849621858E10 ; 0.0
147 ; 1.7691348247823924E7 ; 2.011273414292856E8 ; 2.6569156809276648E9 ; 2.788946087044998E10 ; 0.0
148 ; 1.76758615158696E7 ; 2.011322959341705E8 ; 2.6746070291754885E9 ; 2.809058821187927E10 ; 0.0
149 ; 1.766604367479461E7 ; 2.0113723759743747E8 ; 2.692282890691358E9 ; 2.829172050781344E10 ; 0.0
150 ; 1.7643006328839142E7 ; 2.0114216627212232E8 ; 2.709948934366153E9 ; 2.8492857745410877E10 ; 0.0
151 ; 1.763232360188043E7 ; 2.011470818128763E8 ; 2.727591940694992E9 ; 2.8693999911683E10 ; 0.0
152 ; 1.761861432356241E7 ; 2.0115198407592532E8 ; 2.7452242642968726E9 ; 2.8895146993495876E10 ; 0.0
153 ; 1.7601175295689665E7 ; 2.0115687291903055E8 ; 2.762842878620435E9 ; 2.90962989775718E10 ; 0.0
154 ; 1.759024200626829E7 ; 2.0116174820145085E8 ; 2.780444053916125E9 ; 2.929745585049083E10 ; 0.0
155 ; 1.757229959376506E7 ; 2.0116660978390655E8 ; 2.7980342959223933E9 ; 2.949861759869228E10 ; 0.0
156 ; 1.7559784441672064E7 ; 2.0117145752854466E8 ; 2.8156065955161586E9 ; 2.9699784208476185E10 ; 0.0
157 ; 1.754385716519299E7 ; 2.0117629129890552E8 ; 2.8331663799578304E9 ; 2.990095566600473E10 ; 0.0
158 ; 1.752723183343088E7 ; 2.0118111095989048E8 ; 2.8507102371230235E9 ; 3.0102131957303635E10 ; 0.0
159 ; 1.750901458044536E7 ; 2.0118591637773126E8 ; 2.8682374689564543E9 ; 3.0303313068263527E10 ; 0.0
160 ; 1.7498543605362862E7 ; 2.0119070741996E8 ; 2.8857464835368996E9 ; 3.050449898464126E10 ; 0.0
161 ; 1.7479391026150692E7 ; 2.0119548395538077E8 ; 2.9032450271422625E9 ; 3.070568969206122E10 ; 0.0
162 ; 1.746538779285254E7 ; 2.012002458540423E8 ; 2.920724418168413E9 ; 3.0906885176016598E10 ; 0.0
163 ; 1.7448851848639805E7 ; 2.012049929872112E8 ; 2.9381898059612656E9 ; 3.110808542187064E10 ; 0.0
164 ; 1.743216388117155E7 ; 2.0120972522734678E8 ; 2.9556386578099055E9 ; 3.130929041485785E10 ; 0.0
165 ; 1.7414866986444682E7 ; 2.0121444244807658E8 ; 2.973070821691077E9 ; 3.1510500140085197E10 ; 0.0
166 ; 1.7399535770587105E7 ; 2.0121914452417266E8 ; 2.9904856886775217E9 ; 3.1711714582533276E10 ; 0.0
167 ; 1.7385918294230208E7 ; 2.012238313315291E8 ; 3.0078852244481087E9 ; 3.191293372705745E10 ; 0.0
168 ; 1.736706745119444E7 ; 2.012285027471402E8 ; 3.0252711427423387E9 ; 3.2114157558388977E10 ; 0.0
169 ; 1.7351823354290213E7 ; 2.0123315864907932E8 ; 3.042638210193533E9 ; 3.2315386061136116E10 ; 0.0
170 ; 1.733842959646302E7 ; 2.0123779891647887E8 ; 3.059990033547823E9 ; 3.2516619219785194E10 ; 0.0
171 ; 1.7317493551160835E7 ; 2.0124242342951068E8 ; 3.077328463144286E9 ; 3.271785701870167E10 ; 0.0
172 ; 1.7302478432748057E7 ; 2.0124703206936735E8 ; 3.094645956695447E9 ; 3.2919099442131184E10 ; 0.0
173 ; 1.728606119540932E7 ; 2.0125162471824422E8 ; 3.111948435128195E9 ; 3.312034647420055E10 ; 0.0
174 ; 1.7274797579623643E7 ; 2.0125620125932193E8 ; 3.129234496323604E9 ; 3.3321598098918793E10 ; 0.0
175 ; 1.7265661855233166E7 ; 2.0126076157674965E8 ; 3.146509293903228E9 ; 3.3522854300178116E10 ; 0.0
176 ; 1.725302341377095E7 ; 2.0126530555562904E8 ; 3.163774955758461E9 ; 3.3724115061754864E10 ; 0.0
177 ; 1.7245590284009766E7 ; 2.0126983308199862E8 ; 3.181027979172232E9 ; 3.3925380367310493E10 ; 0.0
178 ; 1.7238487993729617E7 ; 2.0127434404281887E8 ; 3.198273569456242E9 ; 3.412665020039249E10 ; 0.0
179 ; 1.7228524559789754E7 ; 2.0127883832595772E8 ; 3.2155120574499717E9 ; 3.432792454443531E10 ; 0.0
180 ; 1.7216423531172447E7 ; 2.012833158201767E8 ; 3.2327405820097613E9 ; 3.452920338276127E10 ; 0.0
181 ; 1.7207413662114564E7 ; 2.0128777641511747E8 ; 3.2499570055409336E9 ; 3.473048669858144E10 ; 0.0
182 ; 1.719530856381819E7 ; 2.01292220001289E8 ; 3.267164419203048E9 ; 3.493177447499656E10 ; 0.0
183 ; 1.7185466041384157E7 ; 2.012966464700551E8 ; 3.284359727766866E9 ; 3.513306669499785E10 ; 0.0
184 ; 1.7175181634058353E7 ; 2.013010557136223E8 ; 3.3015451938082504E9 ; 3.53343633414679E10 ; 0.0
185 ; 1.7170413091166962E7 ; 2.013054476250284E8 ; 3.318720375442309E9 ; 3.5535664397181526E10 ; 0.0
186 ; 1.715565284212593E7 ; 2.013098220981313E8 ; 3.335890788533476E9 ; 3.573696984480656E10 ; 0.0
187 ; 1.7143832219630003E7 ; 2.0131417902759817E8 ; 3.353046441375602E9 ; 3.5938279666904686E10 ; 0.0
188 ; 1.7132530587702326E7 ; 2.0131851830889517E8 ; 3.370190273595232E9 ; 3.613959384593228E10 ; 0.0
189 ; 1.7125717238803636E7 ; 2.0132283983827743E8 ; 3.3873228041829343E9 ; 3.634091236424118E10 ; 0.0
190 ; 1.711404066765413E7 ; 2.0132714351277933E8 ; 3.404448521421738E9 ; 3.654223520407946E10 ; 0.0
191 ; 1.710553571309426E7 ; 2.0133142923020533E8 ; 3.421562562089392E9 ; 3.674356234759224E10 ; 0.0
192 ; 1.7095199311860193E7 ; 2.0133569688912088E8 ; 3.4386680978024864E9 ; 3.694489377682244E10 ; 0.0
193 ; 1.7087609759944353E7 ; 2.0133994638884383E8 ; 3.4557632971143465E9 ; 3.714622947371156E10 ; 0.0
194 ; 1.7075993984034818E7 ; 2.0134417762943622E8 ; 3.472850906874291E9 ; 3.734756942010041E10 ; 0.0
195 ; 1.706258595259616E7 ; 2.0134839051169595E8 ; 3.489926900858326E9 ; 3.754891359772984E10 ; 0.0
