CSV File for the City 3 on Day 19
1 - Minute m 
2 - Power Consumed at minute m 
3 - Power Produced at minute m 
4 - Energy Consumed since the beginning of the day 
5 - Energy Produced since the beginning of the day 
6 - Energy Lost since the beginning of the day on lines starting from the city
 
0 ; 2373303.6774128797 ; 1.0523210112787113E8 ; 0.0 ; 0.0 ; 0.0
1 ; 2373719.421539725 ; 1.0538209597740841E8 ; 2373303.6774128797 ; 1.0523210112787113E8 ; 0.0
2 ; 2377528.239255373 ; 1.0584093312305436E8 ; 4747023.098952604 ; 2.1061419710527954E8 ; 0.0
3 ; 2381394.3025014726 ; 1.0660865536526376E8 ; 7124551.338207977 ; 3.164551302283339E8 ; 0.0
4 ; 2384695.9258468417 ; 1.0768531469620663E8 ; 9505945.640709449 ; 4.2306378559359765E8 ; 0.0
5 ; 2388656.3375381995 ; 1.0907097299992502E8 ; 1.189064156655629E7 ; 5.307491002898043E8 ; 0.0
6 ; 2394537.4421104966 ; 1.1076570149093524E8 ; 1.427929790409449E7 ; 6.398200732897294E8 ; 0.0
7 ; 2403219.9228705685 ; 1.1276957787176341E8 ; 1.6673835346204985E7 ; 7.505857747806646E8 ; 0.0
8 ; 2414191.7053501937 ; 1.1508268020475149E8 ; 1.9077055269075554E7 ; 8.633553526524279E8 ; 0.0
9 ; 2430255.7021533265 ; 1.1770507727775776E8 ; 2.1491246974425748E7 ; 9.784380328571794E8 ; 0.0
10 ; 2456829.530694391 ; 1.2063681704213208E8 ; 2.3921502676579073E7 ; 1.0961431101349373E9 ; 0.0
11 ; 2498191.2850291827 ; 1.2387791678393063E8 ; 2.6378332207273465E7 ; 1.2167799271770694E9 ; 0.0
12 ; 2566201.5484217377 ; 1.274283592170972E8 ; 2.887652349230265E7 ; 1.340657843961E9 ; 0.0
13 ; 2626400.6143682413 ; 1.3128809639028192E8 ; 3.1442725040724386E7 ; 1.4680862031780972E9 ; 0.0
14 ; 2633946.5636714622 ; 1.354570595156266E8 ; 3.406912565509263E7 ; 1.5993742995683792E9 ; 0.0
15 ; 2638000.9791251756 ; 1.399351705307892E8 ; 3.670307221876409E7 ; 1.7348313590840058E9 ; 0.0
16 ; 2640107.0117694163 ; 1.4472235173324367E8 ; 3.934107319788927E7 ; 1.874766529614795E9 ; 0.0
17 ; 2644257.021811717 ; 1.4981853190847364E8 ; 4.198118020965868E7 ; 2.0194888813480387E9 ; 0.0
18 ; 2647874.9043412493 ; 1.5522364917243707E8 ; 4.46254372314704E7 ; 2.169307413256512E9 ; 0.0
19 ; 2650458.364464489 ; 1.6093765153296396E8 ; 4.727331213581165E7 ; 2.3245310624289494E9 ; 0.0
20 ; 2652740.67548445 ; 1.6696049618959948E8 ; 4.992377050027614E7 ; 2.485468713961913E9 ; 0.0
21 ; 2656108.728556587 ; 1.7329214830106464E8 ; 5.257651117576059E7 ; 2.6524292101515126E9 ; 0.0
22 ; 2659097.77391428 ; 1.7993257964513564E8 ; 5.523261990431718E7 ; 2.825721358452577E9 ; 0.0
23 ; 2662605.3804975892 ; 1.8688176737790608E8 ; 5.7891717678231455E7 ; 3.0056539380977125E9 ; 0.0
24 ; 2665411.159993344 ; 1.9413969297059935E8 ; 6.0554323058729045E7 ; 3.1925357054756184E9 ; 0.0
25 ; 2667050.878307017 ; 2.0039438223413154E8 ; 6.321973421872239E7 ; 3.3866753984462175E9 ; 0.0
26 ; 2672009.411984326 ; 2.0039937065479675E8 ; 6.58867850970294E7 ; 3.587069780680349E9 ; 0.0
27 ; 2674057.4101502094 ; 2.0040441736346555E8 ; 6.855879450901373E7 ; 3.7874691513351455E9 ; 0.0
28 ; 2677357.9215409257 ; 2.0040951394465378E8 ; 7.123285191916394E7 ; 3.9878735686986113E9 ; 0.0
29 ; 2681038.16952446 ; 2.0041465338566467E8 ; 7.391020984070487E7 ; 4.1882830826432652E9 ; 0.0
30 ; 2681973.809719523 ; 2.0041982980584502E8 ; 7.659124801022933E7 ; 4.38869773602893E9 ; 0.0
31 ; 2685342.3419088926 ; 2.0042503824300092E8 ; 7.927322181994885E7 ; 4.589117565834775E9 ; 0.0
32 ; 2687793.6231866195 ; 2.0043027448426676E8 ; 8.195856416185774E7 ; 4.789542604077776E9 ; 0.0
33 ; 2691636.7220160468 ; 2.0043553493156737E8 ; 8.464635778504436E7 ; 4.989972878562042E9 ; 0.0
34 ; 2693680.5913469126 ; 2.0044081649406445E8 ; 8.733799450706041E7 ; 5.190408413493609E9 ; 0.0
35 ; 2696597.684419215 ; 2.0044611650172436E8 ; 9.003167509840733E7 ; 5.390849229987674E9 ; 0.0
36 ; 2698512.9742963533 ; 2.0045143263548812E8 ; 9.272827278282654E7 ; 5.591295346489398E9 ; 0.0
37 ; 2700346.5659830812 ; 2.00456762870552E8 ; 9.542678575712289E7 ; 5.7917467791248865E9 ; 0.0
38 ; 2704091.747042888 ; 2.004621054300526E8 ; 9.812713232310598E7 ; 5.992203541995439E9 ; 0.0
39 ; 2705624.242309511 ; 2.0046745874705043E8 ; 1.0083122407014887E8 ; 6.192665647425491E9 ; 0.0
40 ; 2706462.005925336 ; 2.0047282143316686E8 ; 1.0353684831245838E8 ; 6.393133106172542E9 ; 0.0
41 ; 2706402.56017496 ; 2.0047819225258186E8 ; 1.0624331031838372E8 ; 6.593605927605708E9 ; 0.0
42 ; 2712469.4640471498 ; 2.0048357010037342E8 ; 1.0894971287855868E8 ; 6.79408411985829E9 ; 0.0
43 ; 2712128.5300047086 ; 2.0048895398439032E8 ; 1.1166218234260583E8 ; 6.994567689958663E9 ; 0.0
44 ; 2714138.48800351 ; 2.004943430100148E8 ; 1.1437431087261054E8 ; 7.195056643943053E9 ; 0.0
45 ; 2715510.0219840873 ; 2.004997363672989E8 ; 1.1708844936061405E8 ; 7.395550986953068E9 ; 0.0
46 ; 2716293.5367416535 ; 2.0050513332006082E8 ; 1.1980395938259813E8 ; 7.596050723320367E9 ; 0.0
47 ; 2717169.1481008446 ; 2.0051053319660532E8 ; 1.2252025291933979E8 ; 7.796555856640428E9 ; 0.0
48 ; 2720523.4190887692 ; 2.00515935381797E8 ; 1.2523742206744063E8 ; 7.997066389837033E9 ; 0.0
49 ; 2718541.6578186033 ; 2.0052133931026366E8 ; 1.279579454865294E8 ; 8.19758232521883E9 ; 0.0
50 ; 2721527.0308796517 ; 2.0052674446054918E8 ; 1.30676487144348E8 ; 8.398103664529094E9 ; 0.0
51 ; 2721858.260977562 ; 2.005321503500652E8 ; 1.3339801417522764E8 ; 8.598630408989643E9 ; 0.0
52 ; 2723811.241715828 ; 2.0053755653071934E8 ; 1.361198724362052E8 ; 8.799162559339708E9 ; 0.0
53 ; 2724034.8621447966 ; 2.0054296258511698E8 ; 1.3884368367792103E8 ; 8.999700115870428E9 ; 0.0
54 ; 2724025.606930201 ; 2.005483681232515E8 ; 1.4156771854006582E8 ; 9.200243078455545E9 ; 0.0
55 ; 2724974.1863019825 ; 2.005537727796121E8 ; 1.4429174414699602E8 ; 9.400791446578796E9 ; 0.0
56 ; 2725635.0528610847 ; 2.0055917621064937E8 ; 1.47016718333298E8 ; 9.601345219358408E9 ; 0.0
57 ; 2726288.4826140907 ; 2.0056457809254828E8 ; 1.497423533861591E8 ; 9.801904395569057E9 ; 0.0
58 ; 2726531.9519551853 ; 2.0056997811926675E8 ; 1.524686418687732E8 ; 1.0002468973661606E10 ; 0.0
59 ; 2726923.670025832 ; 2.005753760008033E8 ; 1.551951738207284E8 ; 1.0203038951780872E10 ; 0.0
60 ; 2728283.7001830833 ; 2.0058077146166375E8 ; 1.5792209749075422E8 ; 1.0403614327781675E10 ; 0.0
61 ; 2728584.5043394784 ; 2.0058616423950103E8 ; 1.606503811909373E8 ; 1.060419509924334E10 ; 0.0
62 ; 2728225.3826743234 ; 2.0059155408390543E8 ; 1.633789656952768E8 ; 1.0804781263482841E10 ; 0.0
63 ; 2727542.6837565238 ; 2.00596940755327E8 ; 1.6610719107795113E8 ; 1.1005372817566748E10 ; 0.0
64 ; 2729313.723423511 ; 2.0060232402411318E8 ; 1.6883473376170766E8 ; 1.1205969758322075E10 ; 0.0
65 ; 2730537.8303814237 ; 2.006077036696478E8 ; 1.7156404748513117E8 ; 1.1406572082346188E10 ; 0.0
66 ; 2728709.5141906743 ; 2.0061307947957948E8 ; 1.742945853155126E8 ; 1.1607179786015835E10 ; 0.0
67 ; 2730785.5845724083 ; 2.0061845124912837E8 ; 1.7702329482970327E8 ; 1.1807792865495415E10 ; 0.0
68 ; 2731649.586576106 ; 2.0062381878046286E8 ; 1.7975408041427568E8 ; 1.2008411316744543E10 ; 0.0
69 ; 2732017.7580224625 ; 2.006291818821377E8 ; 1.8248573000085178E8 ; 1.2209035135525005E10 ; 0.0
70 ; 2731808.557710641 ; 2.0063454036858648E8 ; 1.8521774775887424E8 ; 1.2409664317407143E10 ; 0.0
71 ; 2732862.632511269 ; 2.0063989405966344E8 ; 1.879495563165849E8 ; 1.2610298857775728E10 ; 0.0
72 ; 2730964.0598172755 ; 2.0064524278022778E8 ; 1.9068241894909614E8 ; 1.2810938751835392E10 ; 0.0
73 ; 2730053.0857550194 ; 2.0065058635976726E8 ; 1.9341338300891343E8 ; 1.301158399461562E10 ; 0.0
74 ; 2733628.6467144853 ; 2.0065592463205585E8 ; 1.9614343609466845E8 ; 1.3212234580975388E10 ; 0.0
75 ; 2733141.7424334553 ; 2.0066125743484274E8 ; 1.9887706474138293E8 ; 1.3412890505607443E10 ; 0.0
76 ; 2731570.1134219924 ; 2.006665846095687E8 ; 2.016102064838164E8 ; 1.3613551763042286E10 ; 0.0
77 ; 2732651.890310991 ; 2.0067190600110775E8 ; 2.043417765972384E8 ; 1.3814218347651855E10 ; 0.0
78 ; 2732662.182768446 ; 2.00677221457531E8 ; 2.070744284875494E8 ; 1.4014890253652964E10 ; 0.0
79 ; 2730551.383032017 ; 2.0068253082989085E8 ; 2.0980709067031783E8 ; 1.4215567475110495E10 ; 0.0
80 ; 2730943.849637873 ; 2.0068783397202328E8 ; 2.1253764205334985E8 ; 1.4416250005940386E10 ; 0.0
81 ; 2728848.297330978 ; 2.006931307403669E8 ; 2.1526858590298772E8 ; 1.4616937839912409E10 ; 0.0
82 ; 2728859.8958204314 ; 2.0069842099379665E8 ; 2.179974342003187E8 ; 1.4817630970652775E10 ; 0.0
83 ; 2727437.8333209716 ; 2.007037045934712E8 ; 2.2072629409613913E8 ; 1.5018329391646572E10 ; 0.0
84 ; 2726563.80261358 ; 2.0070898140269262E8 ; 2.234537319294601E8 ; 1.5219033096240044E10 ; 0.0
85 ; 2726382.2715338576 ; 2.0071425128677714E8 ; 2.261802957320737E8 ; 1.5419742077642736E10 ; 0.0
86 ; 2723813.9811433833 ; 2.0071951411293614E8 ; 2.2890667800360754E8 ; 1.5620456328929514E10 ; 0.0
87 ; 2724689.188945932 ; 2.0072476975016627E8 ; 2.3163049198475093E8 ; 1.582117584304245E10 ; 0.0
88 ; 2722809.0370343076 ; 2.0073001806914818E8 ; 2.3435518117369685E8 ; 1.6021900612792616E10 ; 0.0
89 ; 2722592.6959360214 ; 2.0073525894215283E8 ; 2.3707799021073115E8 ; 1.6222630630861765E10 ; 0.0
90 ; 2722560.253008645 ; 2.007404922429549E8 ; 2.3980058290666717E8 ; 1.6423365889803917E10 ; 0.0
91 ; 2719860.2224630374 ; 2.007457178467526E8 ; 2.425231431596758E8 ; 1.6624106382046871E10 ; 0.0
92 ; 2719129.976792171 ; 2.007509356300934E8 ; 2.4524300338213885E8 ; 1.6824852099893623E10 ; 0.0
93 ; 2718432.5100345826 ; 2.0075614547080517E8 ; 2.47962133358931E8 ; 1.7025603035523716E10 ; 0.0
94 ; 2715911.480442891 ; 2.0076134724793243E8 ; 2.506805658689656E8 ; 1.7226359180994522E10 ; 0.0
95 ; 2716039.090511343 ; 2.007665408416769E8 ; 2.5339647734940848E8 ; 1.7427120528242455E10 ; 0.0
96 ; 2713498.207958984 ; 2.0077172613334242E8 ; 2.5611251643991983E8 ; 1.7627887069084133E10 ; 0.0
97 ; 2712637.403398371 ; 2.0077690300528383E8 ; 2.5882601464787883E8 ; 1.7828658795217476E10 ; 0.0
98 ; 2711298.151909062 ; 2.0078207134085923E8 ; 2.615386520512772E8 ; 1.802943569822276E10 ; 0.0
99 ; 2710346.91592545 ; 2.0078723102438566E8 ; 2.6424995020318624E8 ; 1.8230217769563618E10 ; 0.0
100 ; 2709193.194738321 ; 2.0079238194109768E8 ; 2.669602971191117E8 ; 1.8431005000588005E10 ; 0.0
101 ; 2706370.792776296 ; 2.007975239771089E8 ; 2.6966949031385E8 ; 1.8631797382529102E10 ; 0.0
102 ; 2706014.5487620695 ; 2.0080265701937613E8 ; 2.723758611066263E8 ; 1.883259490650621E10 ; 0.0
103 ; 2704237.710875284 ; 2.0080778095566574E8 ; 2.7508187565538836E8 ; 1.9033397563525585E10 ; 0.0
104 ; 2703319.5724017164 ; 2.008128956745225E8 ; 2.777861133662636E8 ; 1.923420534448125E10 ; 0.0
105 ; 2701707.8782866253 ; 2.008180010652402E8 ; 2.8048943293866533E8 ; 1.9435018240155773E10 ; 0.0
106 ; 2698887.4505974334 ; 2.0082309701783448E8 ; 2.8319114081695193E8 ; 1.9635836241221012E10 ; 0.0
107 ; 2699941.2741363337 ; 2.0082818342301723E8 ; 2.8589002826754934E8 ; 1.9836659338238846E10 ; 0.0
108 ; 2697966.817728389 ; 2.0083326017217276E8 ; 2.8858996954168564E8 ; 2.003748752166186E10 ; 0.0
109 ; 2695441.642924744 ; 2.0083832715733537E8 ; 2.9128793635941404E8 ; 2.0238320781834034E10 ; 0.0
110 ; 2693184.664806212 ; 2.0084338427116862E8 ; 2.9398337800233877E8 ; 2.043915910899137E10 ; 0.0
111 ; 2693121.740058658 ; 2.008484314069456E8 ; 2.9667656266714495E8 ; 2.064000249326254E10 ; 0.0
112 ; 2690574.738917766 ; 2.008534684585306E8 ; 2.993696844072036E8 ; 2.0840850924669483E10 ; 0.0
113 ; 2687995.870978127 ; 2.0085849532036212E8 ; 3.020602591461214E8 ; 2.1041704393128014E10 ; 0.0
114 ; 2688884.707507924 ; 2.008635118874366E8 ; 3.047482550170995E8 ; 2.1242562888448376E10 ; 0.0
115 ; 2686182.316018793 ; 2.0086851805529344E8 ; 3.074371397246074E8 ; 2.144342640033581E10 ; 0.0
116 ; 2683040.1424169075 ; 2.008735137200008E8 ; 3.101233220406262E8 ; 2.1644294918391106E10 ; 0.0
117 ; 2682822.499049425 ; 2.008784987781424E8 ; 3.128063621830431E8 ; 2.1845168432111107E10 ; 0.0
118 ; 2680935.0518422523 ; 2.008834731268051E8 ; 3.1548918468209255E8 ; 2.2046046930889248E10 ; 0.0
119 ; 2678330.519914444 ; 2.0088843666356722E8 ; 3.181701197339348E8 ; 2.2246930404016052E10 ; 0.0
120 ; 2676763.7013410693 ; 2.0089338928648764E8 ; 3.2084845025384927E8 ; 2.244781884067962E10 ; 0.0
121 ; 2674639.75269404 ; 2.0089833089409548E8 ; 3.2352521395519036E8 ; 2.2648712229966106E10 ; 0.0
122 ; 2672349.182972322 ; 2.0090326138538063E8 ; 3.261998537078844E8 ; 2.2849610560860203E10 ; 0.0
123 ; 2671403.1258679647 ; 2.0090818065978456E8 ; 3.288722028908567E8 ; 2.3050513822245583E10 ; 0.0
124 ; 2669738.83278696 ; 2.0091308861719203E8 ; 3.3154360601672465E8 ; 2.325142200290537E10 ; 0.0
125 ; 2666945.101605448 ; 2.0091798515792298E8 ; 3.342133448495116E8 ; 2.345233509152256E10 ; 0.0
126 ; 2665006.61921116 ; 2.009228701827253E8 ; 3.368802899511171E8 ; 2.3653253076680485E10 ; 0.0
127 ; 2662650.393765455 ; 2.0092774359276772E8 ; 3.3954529657032824E8 ; 2.385417594686321E10 ; 0.0
128 ; 2660394.854652231 ; 2.0093260528963324E8 ; 3.422079469640937E8 ; 2.405510369045598E10 ; 0.0
129 ; 2658860.6574570853 ; 2.0093745517531317E8 ; 3.448683418187459E8 ; 2.4256036295745613E10 ; 0.0
130 ; 2656123.2331971764 ; 2.0094229315220127E8 ; 3.47527202476203E8 ; 2.4456973750920925E10 ; 0.0
131 ; 2652965.8391960436 ; 2.009471191230884E8 ; 3.501833257094002E8 ; 2.4657916044073128E10 ; 0.0
132 ; 2650200.1082524853 ; 2.009519329911575E8 ; 3.528362915485962E8 ; 2.4858863163196217E10 ; 0.0
133 ; 2648087.472699231 ; 2.00956734659979E8 ; 3.5548649165684867E8 ; 2.5059815096187374E10 ; 0.0
134 ; 2642417.4449826935 ; 2.0096152403350618E8 ; 3.581345791295479E8 ; 2.5260771830847355E10 ; 0.0
135 ; 2639335.908302265 ; 2.009663010160713E8 ; 3.607769965745306E8 ; 2.546173335488086E10 ; 0.0
136 ; 2638225.8114338266 ; 2.0097106551238158E8 ; 3.6341633248283285E8 ; 2.566269965589693E10 ; 0.0
137 ; 2636033.1426289077 ; 2.0097581742751586E8 ; 3.660545582942667E8 ; 2.5863670721409313E10 ; 0.0
138 ; 2633071.3564198203 ; 2.0098055666692096E8 ; 3.686905914368956E8 ; 2.606464653883683E10 ; 0.0
139 ; 2628511.9974571345 ; 2.009852831364088E8 ; 3.713236627933154E8 ; 2.626562709550375E10 ; 0.0
140 ; 2625701.055158251 ; 2.0098999674215344E8 ; 3.7395217479077256E8 ; 2.646661237864016E10 ; 0.0
141 ; 2622756.3916223655 ; 2.0099469739068842E8 ; 3.765778758459308E8 ; 2.6667602375382313E10 ; 0.0
142 ; 2618599.096409751 ; 2.0099938498890418E8 ; 3.792006322375532E8 ; 2.6868597072773003E10 ; 0.0
143 ; 2618014.9195834342 ; 2.010040594440459E8 ; 3.818192313339629E8 ; 2.7069596457761906E10 ; 0.0
144 ; 2614162.4066082975 ; 2.0100872066371122E8 ; 3.8443724625354636E8 ; 2.727060051720595E10 ; 0.0
145 ; 2609208.500062229 ; 2.0101336855584842E8 ; 3.8705140866015464E8 ; 2.7471609237869663E10 ; 0.0
146 ; 2607840.1745698764 ; 2.010180030287545E8 ; 3.8966061716021687E8 ; 2.767262260642551E10 ; 0.0
147 ; 2609418.2315880596 ; 2.010226239910735E8 ; 3.922684573347868E8 ; 2.7873640609454266E10 ; 0.0
148 ; 2604557.270580362 ; 2.0102723135179505E8 ; 3.9487787556637484E8 ; 2.807466323344534E10 ; 0.0
149 ; 2601496.223152189 ; 2.01031825020253E8 ; 3.974824328369552E8 ; 2.8275690464797134E10 ; 0.0
150 ; 2600126.663662543 ; 2.0103640490612411E8 ; 4.0008392906010735E8 ; 2.8476722289817387E10 ; 0.0
151 ; 2596240.050542354 ; 2.0104097091942683E8 ; 4.026840557237699E8 ; 2.867775869472351E10 ; 0.0
152 ; 2595155.2482815958 ; 2.0104552297052038E8 ; 4.0528029577431226E8 ; 2.8878799665642937E10 ; 0.0
153 ; 2592203.081536937 ; 2.0105006097010377E8 ; 4.0787545102259386E8 ; 2.9079845188613457E10 ; 0.0
154 ; 2589729.7331372052 ; 2.0105458482921508E8 ; 4.104676541041308E8 ; 2.928089524958356E10 ; 0.0
155 ; 2589063.339988892 ; 2.0105909445923048E8 ; 4.13057383837268E8 ; 2.9481949834412777E10 ; 0.0
156 ; 2585196.1069538104 ; 2.0106358977186397E8 ; 4.156464471772569E8 ; 2.968300892887201E10 ; 0.0
157 ; 2582776.9745056853 ; 2.010680706791664E8 ; 4.182316432842107E8 ; 2.9884072518643875E10 ; 0.0
158 ; 2579296.9376762747 ; 2.010725370935254E8 ; 4.2081442025871634E8 ; 3.008514058932304E10 ; 0.0
159 ; 2579024.6240374986 ; 2.0107698892766482E8 ; 4.233937171963926E8 ; 3.0286213126416565E10 ; 0.0
160 ; 2576469.247990758 ; 2.0108142609464428E8 ; 4.259727418204301E8 ; 3.048729011534423E10 ; 0.0
161 ; 2574169.0082183615 ; 2.010858485078592E8 ; 4.285492110684209E8 ; 3.0688371541438873E10 ; 0.0
162 ; 2570333.9878695747 ; 2.0109025608104053E8 ; 4.3112338007663924E8 ; 3.088945738994673E10 ; 0.0
163 ; 2568546.576510088 ; 2.010946487282545E8 ; 4.336937140645088E8 ; 3.109054764602777E10 ; 0.0
164 ; 2566102.9320652885 ; 2.0109902636390278E8 ; 4.3626226064101887E8 ; 3.1291642294756027E10 ; 0.0
165 ; 2563167.2558944807 ; 2.0110338890272236E8 ; 4.388283635730842E8 ; 3.149274132111993E10 ; 0.0
166 ; 2563258.2106123203 ; 2.011077362597857E8 ; 4.4139153082897866E8 ; 3.169384471002265E10 ; 0.0
167 ; 2558650.493985297 ; 2.0111206835050076E8 ; 4.4395478903959095E8 ; 3.1894952446282436E10 ; 0.0
168 ; 2556931.657671723 ; 2.0111638509061125E8 ; 4.4651343953357625E8 ; 3.209606451463294E10 ; 0.0
169 ; 2553048.3875232385 ; 2.0112068639619678E8 ; 4.49070371191248E8 ; 3.229718089972355E10 ; 0.0
170 ; 2550586.916898101 ; 2.011249721836732E8 ; 4.5162341957877123E8 ; 3.2498301586119747E10 ; 0.0
171 ; 2548551.778366991 ; 2.0112924236979285E8 ; 4.541740064956693E8 ; 3.269942655830342E10 ; 0.0
172 ; 2546083.126596282 ; 2.0113349687164485E8 ; 4.567225582740363E8 ; 3.2900555800673214E10 ; 0.0
173 ; 2543214.6216994296 ; 2.0113773560665563E8 ; 4.5926864140063256E8 ; 3.3101689297544857E10 ; 0.0
174 ; 2541927.5280306335 ; 2.0114195849258924E8 ; 4.61811856022332E8 ; 3.3302827033151512E10 ; 0.0
175 ; 2539807.113954302 ; 2.0114616544754782E8 ; 4.6435378355036265E8 ; 3.35039689916441E10 ; 0.0
176 ; 2537814.4672152465 ; 2.0115035638997212E8 ; 4.6689359066431695E8 ; 3.370511515709165E10 ; 0.0
177 ; 2537557.4854904413 ; 2.0115453123864198E8 ; 4.694314051315322E8 ; 3.390626551348162E10 ; 0.0
178 ; 2536330.424691753 ; 2.0115868991267696E8 ; 4.7196896261702263E8 ; 3.4107420044720264E10 ; 0.0
179 ; 2534219.643507382 ; 2.011628323315368E8 ; 4.745052930417144E8 ; 3.4308578734632942E10 ; 0.0
180 ; 2533605.049755642 ; 2.0116695841502213E8 ; 4.7703951268522173E8 ; 3.450974156696448E10 ; 0.0
181 ; 2531016.386620753 ; 2.0117106808327505E8 ; 4.7957311773497736E8 ; 3.47109085253795E10 ; 0.0
182 ; 2531357.277697345 ; 2.011751612567798E8 ; 4.821041341215981E8 ; 3.4912079593462776E10 ; 0.0
183 ; 2529262.9337547002 ; 2.011792378563634E8 ; 4.8463549139929545E8 ; 3.511325475471956E10 ; 0.0
184 ; 2526414.090283158 ; 2.0118329780319643E8 ; 4.8716475433305013E8 ; 3.531443399257592E10 ; 0.0
185 ; 2524826.593788473 ; 2.011873410187937E8 ; 4.896911684233333E8 ; 3.551561729037912E10 ; 0.0
186 ; 2524285.8986493447 ; 2.0119136742501503E8 ; 4.9221599501712173E8 ; 3.571680463139791E10 ; 0.0
187 ; 2523584.077951802 ; 2.011953769440659E8 ; 4.9474028091577107E8 ; 3.591799599882293E10 ; 0.0
188 ; 2521504.3237897716 ; 2.011993694984984E8 ; 4.9726386499372286E8 ; 3.6119191375767E10 ; 0.0
189 ; 2518810.2477857363 ; 2.0120334501121193E8 ; 4.9978536931751263E8 ; 3.6320390745265495E10 ; 0.0
190 ; 2517650.236262452 ; 2.0120730340545392E8 ; 5.023041795652984E8 ; 3.652159409027671E10 ; 0.0
191 ; 2516279.4298526463 ; 2.0121124460482082E8 ; 5.048218298015608E8 ; 3.672280139368217E10 ; 0.0
192 ; 2516421.8844896057 ; 2.012151685332589E8 ; 5.073381092314135E8 ; 3.692401263828699E10 ; 0.0
193 ; 2513323.150419047 ; 2.0121907511506498E8 ; 5.098545311159031E8 ; 3.7125227806820244E10 ; 0.0
194 ; 2511844.4083891124 ; 2.012229642748875E8 ; 5.1236785426632214E8 ; 3.732644688193531E10 ; 0.0
195 ; 2510993.049356768 ; 2.012268359377272E8 ; 5.148796986747112E8 ; 3.75276698462102E10 ; 0.0
196 ; 2509325.8740694 ; 2.0123069002893814E8 ; 5.17390691724068E8 ; 3.772889668214793E10 ; 0.0
197 ; 2506561.3137354525 ; 2.0123452647422853E8 ; 5.199000175981374E8 ; 3.7930127372176865E10 ; 0.0
198 ; 2508014.0228687255 ; 2.012383451996617E8 ; 5.224065789118728E8 ; 3.813136189865109E10 ; 0.0
199 ; 2503786.171856008 ; 2.012421461316569E8 ; 5.2491459293474156E8 ; 3.833260024385075E10 ; 0.0
200 ; 2502422.638620492 ; 2.0124592919699034E8 ; 5.2741837910659754E8 ; 3.8533842389982414E10 ; 0.0
