CSV File for the City 1 on Day 260
1 - Minute m 
2 - Power Consumed at minute m 
3 - Power Produced at minute m 
4 - Energy Consumed since the beginning of the day 
5 - Energy Produced since the beginning of the day 
6 - Energy Lost since the beginning of the day on lines starting from the city
 
0 ; 5205150.3074220745 ; 1.0548186954766807E8 ; 0.0 ; 0.0 ; 0.0
1 ; 5216632.64522932 ; 1.0563477415659535E8 ; 5205150.3074220745 ; 1.0548186954766807E8 ; 0.0
2 ; 5236773.422584887 ; 1.0609646419173452E8 ; 1.0421782952651395E7 ; 2.1111664370426342E8 ; 0.0
3 ; 5254546.566036005 ; 1.0686694148024803E8 ; 1.565855637523628E7 ; 3.1721310789599794E8 ; 0.0
4 ; 5270892.499156389 ; 1.0794620766504449E8 ; 2.0913102941272285E7 ; 4.24080049376246E8 ; 0.0
5 ; 5300176.626624665 ; 1.0933426419385529E8 ; 2.6183995440428674E7 ; 5.3202625704129046E8 ; 0.0
6 ; 5336041.952366528 ; 1.110311123093848E8 ; 3.148417206705334E7 ; 6.413605212351458E8 ; 0.0
7 ; 5382797.749934576 ; 1.1303675304068685E8 ; 3.682021401941987E7 ; 7.523916335445306E8 ; 0.0
8 ; 5456821.83358234 ; 1.153511871959055E8 ; 4.220301176935445E7 ; 8.654283865852175E8 ; 0.0
9 ; 5571757.36771092 ; 1.1797441535649842E8 ; 4.765983360293679E7 ; 9.807795737811229E8 ; 0.0
10 ; 5754531.525911995 ; 1.2090643787303948E8 ; 5.323159097064771E7 ; 1.0987539891376214E9 ; 0.0
11 ; 6039021.322753163 ; 1.2414725486267129E8 ; 5.89861224965597E7 ; 1.219660427010661E9 ; 0.0
12 ; 6498731.69314089 ; 1.2769686620825121E8 ; 6.502514381931286E7 ; 1.3438076818733323E9 ; 0.0
13 ; 6936713.060573379 ; 1.3155527155920535E8 ; 7.152387551245375E7 ; 1.4715045480815835E9 ; 0.0
14 ; 6992678.563709197 ; 1.3572247033407617E8 ; 7.846058857302713E7 ; 1.6030598196407888E9 ; 0.0
15 ; 7007935.216425881 ; 1.4019846172471946E8 ; 8.545326713673633E7 ; 1.738782289974865E9 ; 0.0
16 ; 7025973.563703709 ; 1.4498324470208153E8 ; 9.246120235316221E7 ; 1.8789807516995845E9 ; 0.0
17 ; 7043604.769243079 ; 1.500768180234579E8 ; 9.948717591686593E7 ; 2.023963996401666E9 ; 0.0
18 ; 7062073.576338237 ; 1.5547918024111724E8 ; 1.06530780686109E8 ; 2.1740408144251237E9 ; 0.0
19 ; 7082867.192018315 ; 1.611903297121509E8 ; 1.1359285426244724E8 ; 2.3295199946662407E9 ; 0.0
20 ; 7099416.866189578 ; 1.6721026460939643E8 ; 1.2067572145446555E8 ; 2.4907103243783917E9 ; 0.0
21 ; 7114039.89969468 ; 1.735389829332702E8 ; 1.2777513832065514E8 ; 2.657920588987788E9 ; 0.0
22 ; 7136200.902033903 ; 1.801764825243386E8 ; 1.3488917822034982E8 ; 2.831459571921058E9 ; 0.0
23 ; 7150999.796054091 ; 1.8712276107645506E8 ; 1.420253791223837E8 ; 3.011636054445397E9 ; 0.0
24 ; 7176498.608631617 ; 1.9437781615028942E8 ; 1.491763789184378E8 ; 3.198758815521852E9 ; 0.0
25 ; 7195567.0934518995 ; 2.006296860852669E8 ; 1.5635287752706942E8 ; 3.3931366316721416E9 ; 0.0
26 ; 7211849.329269518 ; 2.006319160502859E8 ; 1.635484446205213E8 ; 3.5937663177574086E9 ; 0.0
27 ; 7230884.031261435 ; 2.0063427258236134E8 ; 1.7076029394979084E8 ; 3.7943982338076944E9 ; 0.0
28 ; 7248352.142930763 ; 2.0063675284691957E8 ; 1.7799117798105228E8 ; 3.9950325063900557E9 ; 0.0
29 ; 7262840.6033914955 ; 2.0063935394422737E8 ; 1.8523953012398306E8 ; 4.195669259236975E9 ; 0.0
30 ; 7276462.661439608 ; 2.0064207292213142E8 ; 1.9250237072737455E8 ; 4.396308613181203E9 ; 0.0
31 ; 7301194.954448199 ; 2.006449067882636E8 ; 1.9977883338881415E8 ; 4.596950686103334E9 ; 0.0
32 ; 7312232.466534187 ; 2.006478525216381E8 ; 2.0708002834326234E8 ; 4.797595592891598E9 ; 0.0
33 ; 7332931.580761535 ; 2.0065090708358276E8 ; 2.1439226080979654E8 ; 4.998243445413236E9 ; 0.0
34 ; 7344911.219699899 ; 2.0065406742796096E8 ; 2.2172519239055806E8 ; 5.198894352496819E9 ; 0.0
35 ; 7360008.253163542 ; 2.0065733051065505E8 ; 2.2907010361025795E8 ; 5.39954841992478E9 ; 0.0
36 ; 7379391.940806049 ; 2.006606932982952E8 ; 2.364301118634215E8 ; 5.600205750435435E9 ; 0.0
37 ; 7392093.59997989 ; 2.0066415277622846E8 ; 2.4380950380422756E8 ; 5.80086644373373E9 ; 0.0
38 ; 7408380.455515472 ; 2.0066770595573348E8 ; 2.5120159740420744E8 ; 6.001530596509959E9 ; 0.0
39 ; 7423123.320860364 ; 2.0067134988049486E8 ; 2.586099778597229E8 ; 6.2021983024656925E9 ; 0.0
40 ; 7431744.951661596 ; 2.006750816323584E8 ; 2.6603310118058327E8 ; 6.402869652346188E9 ; 0.0
41 ; 7441582.898559371 ; 2.0067889833639488E8 ; 2.734648461322449E8 ; 6.603544733978546E9 ; 0.0
42 ; 7456482.586511226 ; 2.0068279716530377E8 ; 2.809064290308043E8 ; 6.804223632314941E9 ; 0.0
43 ; 7465286.604535206 ; 2.0068677534319335E8 ; 2.8836291161731553E8 ; 7.004906429480246E9 ; 0.0
44 ; 7477688.179470905 ; 2.0069083014877468E8 ; 2.9582819822185075E8 ; 7.205593204823439E9 ; 0.0
45 ; 7486017.3230612185 ; 2.0069495891800937E8 ; 3.0330588640132165E8 ; 7.406284034972214E9 ; 0.0
46 ; 7492700.004260177 ; 2.0069915904625204E8 ; 3.107919037243829E8 ; 7.6069789938902235E9 ; 0.0
47 ; 7503483.813023514 ; 2.0070342798992753E8 ; 3.1828460372864306E8 ; 7.807678152936476E9 ; 0.0
48 ; 7507876.252849127 ; 2.0070776326778314E8 ; 3.2578808754166657E8 ; 8.008381580926403E9 ; 0.0
49 ; 7513536.166895867 ; 2.0071216246175528E8 ; 3.3329596379451567E8 ; 8.209089344194186E9 ; 0.0
50 ; 7515512.804717074 ; 2.0071662321748793E8 ; 3.4080949996141154E8 ; 8.409801506655941E9 ; 0.0
51 ; 7520398.58377891 ; 2.0072114324453914E8 ; 3.483250127661286E8 ; 8.610518129873428E9 ; 0.0
52 ; 7527544.343578488 ; 2.0072572031631008E8 ; 3.558454113499075E8 ; 8.811239273117968E9 ; 0.0
53 ; 7527838.523583212 ; 2.0073035226972836E8 ; 3.63372955693486E8 ; 9.011964993434278E9 ; 0.0
54 ; 7533299.59674448 ; 2.0073503700471625E8 ; 3.709007942170692E8 ; 9.212695345704006E9 ; 0.0
55 ; 7541307.7431217665 ; 2.0073977248347145E8 ; 3.784340938138137E8 ; 9.413430382708723E9 ; 0.0
56 ; 7538219.616770644 ; 2.0074455672958654E8 ; 3.859754015569354E8 ; 9.614170155192194E9 ; 0.0
57 ; 7544184.142670706 ; 2.007493878270303E8 ; 3.9351362117370605E8 ; 9.81491471192178E9 ; 0.0
58 ; 7542398.107871922 ; 2.0075426391901344E8 ; 4.0105780531637675E8 ; 1.001566409974881E10 ; 0.0
59 ; 7550442.579643538 ; 2.007591832067574E8 ; 4.086002034242487E8 ; 1.0216418363667824E10 ; 0.0
60 ; 7554212.503055528 ; 2.0076414394818476E8 ; 4.1615064600389224E8 ; 1.041717754687458E10 ; 0.0
61 ; 7557842.218110495 ; 2.0076914445654702E8 ; 4.2370485850694776E8 ; 1.0617941690822765E10 ; 0.0
62 ; 7559939.910250273 ; 2.0077418309900406E8 ; 4.3126270072505826E8 ; 1.0818710835279312E10 ; 0.0
63 ; 7564176.732113333 ; 2.007792582951678E8 ; 4.388226406353085E8 ; 1.1019485018378317E10 ; 0.0
64 ; 7562462.471222382 ; 2.00784368515622E8 ; 4.4638681736742187E8 ; 1.1220264276673485E10 ; 0.0
65 ; 7567491.56972921 ; 2.007895122804274E8 ; 4.5394927983864427E8 ; 1.1421048645189106E10 ; 0.0
66 ; 7570417.720307299 ; 2.0079468815762156E8 ; 4.615167714083735E8 ; 1.1621838157469534E10 ; 0.0
67 ; 7571518.3231291855 ; 2.0079989476172066E8 ; 4.6908718912868077E8 ; 1.1822632845627155E10 ; 0.0
68 ; 7570090.753825754 ; 2.008051307522298E8 ; 4.7665870745180994E8 ; 1.2023432740388876E10 ; 0.0
69 ; 7580637.028874344 ; 2.008103948321679E8 ; 4.8422879820563567E8 ; 1.2224237871141106E10 ; 0.0
70 ; 7578292.095873219 ; 2.0081568574661136E8 ; 4.9180943523451E8 ; 1.2425048265973274E10 ; 0.0
71 ; 7580227.971065002 ; 2.0082100228126124E8 ; 4.9938772733038324E8 ; 1.2625863951719885E10 ; 0.0
72 ; 7579660.75249715 ; 2.0082634326103675E8 ; 5.069679553014482E8 ; 1.2826684954001146E10 ; 0.0
73 ; 7582000.365823564 ; 2.0083170754869843E8 ; 5.1454761605394536E8 ; 1.3027511297262182E10 ; 0.0
74 ; 7585011.921742575 ; 2.008370940435026E8 ; 5.221296164197689E8 ; 1.322834300481088E10 ; 0.0
75 ; 7586640.60443865 ; 2.0084250167988962E8 ; 5.297146283415115E8 ; 1.3429180098854383E10 ; 0.0
76 ; 7583931.48908689 ; 2.0084792942620665E8 ; 5.373012689459502E8 ; 1.3630022600534273E10 ; 0.0
77 ; 7584994.523707597 ; 2.0085337628346652E8 ; 5.44885200435037E8 ; 1.383087052996048E10 ; 0.0
78 ; 7583660.371959556 ; 2.008588412841429E8 ; 5.524701949587446E8 ; 1.4031723906243946E10 ; 0.0
79 ; 7580169.4378198795 ; 2.008643234910024E8 ; 5.600538553307042E8 ; 1.423258274752809E10 ; 0.0
80 ; 7570400.940693896 ; 2.0086982199597394E8 ; 5.67634024768524E8 ; 1.4433447071019093E10 ; 0.0
81 ; 7574293.1626140475 ; 2.0087533591905487E8 ; 5.752044257092179E8 ; 1.4634316893015066E10 ; 0.0
82 ; 7563638.747884417 ; 2.0088086440725416E8 ; 5.827787188718319E8 ; 1.483519222893412E10 ; 0.0
83 ; 7560816.2449389575 ; 2.0088640663357198E8 ; 5.903423576197163E8 ; 1.5036073093341373E10 ; 0.0
84 ; 7554281.251169948 ; 2.008919617960151E8 ; 5.979031738646553E8 ; 1.5236959499974945E10 ; 0.0
85 ; 7549886.884296093 ; 2.0089752911664787E8 ; 6.054574551158252E8 ; 1.543785146177096E10 ; 0.0
86 ; 7543529.4463491235 ; 2.0090310784067762E8 ; 6.130073420001212E8 ; 1.5638748990887608E10 ; 0.0
87 ; 7539094.246919596 ; 2.0090869723557413E8 ; 6.205508714464704E8 ; 1.5839652098728285E10 ; 0.0
88 ; 7529227.6298330445 ; 2.0091429659022218E8 ; 6.2808996569339E8 ; 1.604056079596386E10 ; 0.0
89 ; 7522932.753865386 ; 2.0091990521410608E8 ; 6.356191933232231E8 ; 1.6241475092554081E10 ; 0.0
90 ; 7519641.332804426 ; 2.0092552243652582E8 ; 6.431421260770885E8 ; 1.6442394997768187E10 ; 0.0
91 ; 7512508.518466447 ; 2.009311476058434E8 ; 6.506617674098929E8 ; 1.6643320520204712E10 ; 0.0
92 ; 7503565.213333726 ; 2.0093678008875868E8 ; 6.581742759283594E8 ; 1.6844251667810555E10 ; 0.0
93 ; 7494801.908606585 ; 2.0094241926961386E8 ; 6.656778411416931E8 ; 1.7045188447899313E10 ; 0.0
94 ; 7490023.967240144 ; 2.0094806454972517E8 ; 6.731726430502996E8 ; 1.7246130867168926E10 ; 0.0
95 ; 7485702.810475879 ; 2.009537153467417E8 ; 6.806626670175397E8 ; 1.744707893171865E10 ; 0.0
96 ; 7476394.297077025 ; 2.009593710940294E8 ; 6.881483698280156E8 ; 1.764803264706539E10 ; 0.0
97 ; 7470876.113991792 ; 2.009650312400802E8 ; 6.956247641250926E8 ; 1.784899201815942E10 ; 0.0
98 ; 7462182.459141352 ; 2.009706952479449E8 ; 7.030956402390844E8 ; 1.80499570493995E10 ; 0.0
99 ; 7454485.087428852 ; 2.0097636259468874E8 ; 7.105578226982257E8 ; 1.8250927744647446E10 ; 0.0
100 ; 7449075.125321326 ; 2.009820327708696E8 ; 7.180123077856545E8 ; 1.8451904107242134E10 ; 0.0
101 ; 7442526.102718453 ; 2.0098770528003705E8 ; 7.254613829109758E8 ; 1.8652886140013004E10 ; 0.0
102 ; 7431533.21504141 ; 2.0099337963825163E8 ; 7.329039090136943E8 ; 1.885387384529304E10 ; 0.0
103 ; 7424540.882708769 ; 2.0099905537362435E8 ; 7.403354422287357E8 ; 1.9054867224931293E10 ; 0.0
104 ; 7418066.863987149 ; 2.0100473202587447E8 ; 7.477599831114445E8 ; 1.9255866280304916E10 ; 0.0
105 ; 7412578.421414009 ; 2.0101040914590546E8 ; 7.551780499754317E8 ; 1.945687101233079E10 ; 0.0
106 ; 7401240.911040599 ; 2.010160862953984E8 ; 7.625906283968457E8 ; 1.9657881421476696E10 ; 0.0
107 ; 7390798.646298789 ; 2.0102176304642206E8 ; 7.699918693078862E8 ; 1.9858897507772095E10 ; 0.0
108 ; 7383110.767505883 ; 2.0102743898105854E8 ; 7.77382667954185E8 ; 2.0059919270818516E10 ; 0.0
109 ; 7376812.0093693035 ; 2.010331136910446E8 ; 7.847657787216909E8 ; 2.0260946709799576E10 ; 0.0
110 ; 7365790.53841461 ; 2.0103878677742746E8 ; 7.921425907310601E8 ; 2.046197982349062E10 ; 0.0
111 ; 7363701.59189376 ; 2.0104445785023454E8 ; 7.995083812694747E8 ; 2.0663018610268047E10 ; 0.0
112 ; 7346450.010714463 ; 2.010501265281568E8 ; 8.068720828613685E8 ; 2.0864063068118282E10 ; 0.0
113 ; 7336970.14902191 ; 2.0105579243824485E8 ; 8.14218532872083E8 ; 2.106511319464644E10 ; 0.0
114 ; 7328349.037116704 ; 2.0106145521561742E8 ; 8.215555030211048E8 ; 2.1266168987084682E10 ; 0.0
115 ; 7317716.287686202 ; 2.010671145031817E8 ; 8.288838520582215E8 ; 2.14672304423003E10 ; 0.0
116 ; 7309699.783158501 ; 2.010727699513648E8 ; 8.362015683459077E8 ; 2.1668297556803482E10 ; 0.0
117 ; 7299447.743734192 ; 2.0107842121785635E8 ; 8.435112681290662E8 ; 2.186937032675485E10 ; 0.0
118 ; 7291768.855660877 ; 2.0108406796736112E8 ; 8.508107158728005E8 ; 2.2070448747972706E10 ; 0.0
119 ; 7279716.385483025 ; 2.0108970987136194E8 ; 8.581024847284614E8 ; 2.2271532815940067E10 ; 0.0
120 ; 7266258.019612527 ; 2.010953466078917E8 ; 8.653822011139444E8 ; 2.2472622525811428E10 ; 0.0
121 ; 7258229.100826364 ; 2.0110097786131492E8 ; 8.72648459133557E8 ; 2.267371787241932E10 ; 0.0
122 ; 7251116.762617611 ; 2.011066033221177E8 ; 8.799066882343833E8 ; 2.2874818850280636E10 ; 0.0
123 ; 7236882.427451726 ; 2.011122226867061E8 ; 8.871578049970009E8 ; 2.3075925453602753E10 ; 0.0
124 ; 7230235.575812965 ; 2.011178356572126E8 ; 8.943946874244527E8 ; 2.327703767628946E10 ; 0.0
125 ; 7213719.529500521 ; 2.011234419413102E8 ; 9.016249230002656E8 ; 2.347815551194667E10 ; 0.0
126 ; 7207827.366877302 ; 2.0112904125203374E8 ; 9.088386425297661E8 ; 2.367927895388798E10 ; 0.0
127 ; 7193049.635683825 ; 2.011346333076083E8 ; 9.160464698966434E8 ; 2.3880407995140015E10 ; 0.0
128 ; 7181104.748242081 ; 2.0114021783128443E8 ; 9.232395195323272E8 ; 2.4081542628447624E10 ; 0.0
129 ; 7171537.099181215 ; 2.0114579455117968E8 ; 9.304206242805693E8 ; 2.4282682846278908E10 ; 0.0
130 ; 7156803.101002746 ; 2.011513632001263E8 ; 9.375921613797505E8 ; 2.4483828640830086E10 ; 0.0
131 ; 7141559.947171179 ; 2.01156923515525E8 ; 9.447489644807532E8 ; 2.4684980004030212E10 ; 0.0
132 ; 7119694.785315337 ; 2.0116247523920426E8 ; 9.518905244279244E8 ; 2.488613692754574E10 ; 0.0
133 ; 7104669.84556418 ; 2.0116801811728495E8 ; 9.590102192132398E8 ; 2.5087299402784943E10 ; 0.0
134 ; 7086638.872110925 ; 2.0117355190005052E8 ; 9.661148890588039E8 ; 2.528846742090223E10 ; 0.0
135 ; 7071339.331444026 ; 2.0117907634182167E8 ; 9.732015279309149E8 ; 2.548964097280228E10 ; 0.0
136 ; 7053190.439778611 ; 2.0118459120083627E8 ; 9.802728672623589E8 ; 2.5690820049144104E10 ; 0.0
137 ; 7033634.559543716 ; 2.0119009623913357E8 ; 9.873260577021375E8 ; 2.589200464034494E10 ; 0.0
138 ; 7014853.1887503 ; 2.0119559122244284E8 ; 9.943596922616812E8 ; 2.6093194736584072E10 ; 0.0
139 ; 6998037.604547995 ; 2.0120107592007634E8 ; 1.0013745454504315E9 ; 2.6294390327806515E10 ; 0.0
140 ; 6979251.671355402 ; 2.0120655010482618E8 ; 1.0083725830549794E9 ; 2.649559140372659E10 ; 0.0
141 ; 6961181.051326374 ; 2.0121201355286512E8 ; 1.0153518347263348E9 ; 2.6696797953831417E10 ; 0.0
142 ; 6940402.338863889 ; 2.0121746604365107E8 ; 1.0223130157776612E9 ; 2.689800996738428E10 ; 0.0
143 ; 6921041.532328552 ; 2.0122290735983524E8 ; 1.029253418116525E9 ; 2.7099227433427933E10 ; 0.0
144 ; 6905677.326111039 ; 2.0122833728717342E8 ; 1.0361744596488537E9 ; 2.730045034078777E10 ; 0.0
145 ; 6892038.511080722 ; 2.0123375561444098E8 ; 1.0430801369749647E9 ; 2.7501678678074944E10 ; 0.0
146 ; 6881878.387021882 ; 2.0123916213335052E8 ; 1.0499721754860455E9 ; 2.7702912433689384E10 ; 0.0
147 ; 6872143.637256689 ; 2.0124455663847306E8 ; 1.0568540538730674E9 ; 2.7904151595822735E10 ; 0.0
148 ; 6857095.099663295 ; 2.012499389271616E8 ; 1.0637261975103241E9 ; 2.810539615246121E10 ; 0.0
149 ; 6846621.334777825 ; 2.012553087994779E8 ; 1.0705832926099874E9 ; 2.830664609138837E10 ; 0.0
150 ; 6835796.113522963 ; 2.0126066605812162E8 ; 1.077429913944765E9 ; 2.8507901400187847E10 ; 0.0
151 ; 6818991.912833156 ; 2.0126601050836226E8 ; 1.084265710058288E9 ; 2.8709162066245968E10 ; 0.0
152 ; 6813220.677425284 ; 2.012713419579734E8 ; 1.0910847019711213E9 ; 2.891042807675433E10 ; 0.0
153 ; 6800866.940125113 ; 2.012766602171693E8 ; 1.0978979226485467E9 ; 2.9111699418712303E10 ; 0.0
154 ; 6786490.97287116 ; 2.01281965098544E8 ; 1.104698789588672E9 ; 2.9312976078929474E10 ; 0.0
155 ; 6775375.139271455 ; 2.012872564170123E8 ; 1.111485280561543E9 ; 2.951425804402802E10 ; 0.0
156 ; 6766879.184895175 ; 2.01292533989753E8 ; 1.1182606557008145E9 ; 2.971554530044503E10 ; 0.0
157 ; 6749968.933932753 ; 2.0129779763615417E8 ; 1.1250275348857098E9 ; 2.9916837834434784E10 ; 0.0
158 ; 6739008.033665252 ; 2.0130304717776033E8 ; 1.1317775038196425E9 ; 3.011813563207094E10 ; 0.0
159 ; 6722056.378767181 ; 2.0130828243822145E8 ; 1.1385165118533077E9 ; 3.03194386792487E10 ; 0.0
160 ; 6714546.419604144 ; 2.0131350324324375E8 ; 1.145238568232075E9 ; 3.052074696168692E10 ; 0.0
161 ; 6699986.597854168 ; 2.013187094205424E8 ; 1.151953114651679E9 ; 3.0722060464930164E10 ; 0.0
162 ; 6686995.9099208955 ; 2.0132390079979548E8 ; 1.1586531012495332E9 ; 3.0923379174350708E10 ; 0.0
163 ; 6676580.3845864395 ; 2.013290772126001E8 ; 1.165340097159454E9 ; 3.1124703075150505E10 ; 0.0
164 ; 6665966.782445916 ; 2.0133423849242947E8 ; 1.1720166775440404E9 ; 3.1326032152363106E10 ; 0.0
165 ; 6654383.173594899 ; 2.0133938447459185E8 ; 1.1786826443264863E9 ; 3.1527366390855534E10 ; 0.0
166 ; 6639666.667675979 ; 2.013445149961908E8 ; 1.1853370275000813E9 ; 3.1728705775330124E10 ; 0.0
167 ; 6625795.000946656 ; 2.0134962989608663E8 ; 1.1919766941677573E9 ; 3.1930050290326313E10 ; 0.0
168 ; 6615922.917332462 ; 2.0135472901485962E8 ; 1.198602489168704E9 ; 3.21313999202224E10 ; 0.0
169 ; 6606846.120723729 ; 2.0135981219477388E8 ; 1.2052184120860364E9 ; 3.233275464923726E10 ; 0.0
170 ; 6591279.273463969 ; 2.0136487927974296E8 ; 1.2118252582067602E9 ; 3.2534114461432034E10 ; 0.0
171 ; 6576326.872904501 ; 2.013699301152964E8 ; 1.2184165374802241E9 ; 3.2735479340711777E10 ; 0.0
172 ; 6561105.274017327 ; 2.0137496454854736E8 ; 1.2249928643531287E9 ; 3.2936849270827072E10 ; 0.0
173 ; 6554562.097969704 ; 2.013799824281616E8 ; 1.231553969627146E9 ; 3.3138224235375618E10 ; 0.0
174 ; 6540370.865920143 ; 2.0138498360432717E8 ; 1.2381085317251158E9 ; 3.333960421780378E10 ; 0.0
175 ; 6531919.019002311 ; 2.0138996792872533E8 ; 1.2446489025910358E9 ; 3.3540989201408108E10 ; 0.0
176 ; 6525109.409738539 ; 2.0139493525450245E8 ; 1.251180821610038E9 ; 3.3742379169336834E10 ; 0.0
177 ; 6510836.283727416 ; 2.0139988543624273E8 ; 1.2577059310197766E9 ; 3.3943774104591335E10 ; 0.0
178 ; 6504137.507812433 ; 2.01404818329942E8 ; 1.264216767303504E9 ; 3.4145173990027576E10 ; 0.0
179 ; 6495105.656232955 ; 2.0140973379298207E8 ; 1.2707209048113165E9 ; 3.4346578808357517E10 ; 0.0
180 ; 6482978.615969258 ; 2.014146316841064E8 ; 1.2772160104675496E9 ; 3.45479885421505E10 ; 0.0
181 ; 6476455.746158614 ; 2.0141951186339617E8 ; 1.2836989890835187E9 ; 3.47494031738346E10 ; 0.0
182 ; 6461827.611515286 ; 2.0142437419224727E8 ; 1.2901754448296773E9 ; 3.4950822685698E10 ; 0.0
183 ; 6454698.016277812 ; 2.0142921853334817E8 ; 1.2966372724411926E9 ; 3.515224705989024E10 ; 0.0
184 ; 6443360.4860415505 ; 2.0143404475065836E8 ; 1.3030919704574704E9 ; 3.535367627842359E10 ; 0.0
185 ; 6434999.775279701 ; 2.014388527093875E8 ; 1.309535330943512E9 ; 3.555511032317425E10 ; 0.0
186 ; 6425025.163306197 ; 2.0144364227597538E8 ; 1.3159703307187917E9 ; 3.575654917588364E10 ; 0.0
187 ; 6419918.111611265 ; 2.0144841331807235E8 ; 1.322395355882098E9 ; 3.5957992818159615E10 ; 0.0
188 ; 6402428.589103659 ; 2.014531657045206E8 ; 1.3288152739937093E9 ; 3.6159441231477684E10 ; 0.0
189 ; 6397964.121678384 ; 2.014578993053359E8 ; 1.335217702582813E9 ; 3.6360894397182205E10 ; 0.0
190 ; 6387876.0780038 ; 2.014626139916899E8 ; 1.3416156667044914E9 ; 3.656235229648754E10 ; 0.0
191 ; 6376985.848566986 ; 2.0146730963589305E8 ; 1.3480035427824953E9 ; 3.676381491047923E10 ; 0.0
192 ; 6367483.676744609 ; 2.014719861113783E8 ; 1.3543805286310623E9 ; 3.696528222011513E10 ; 0.0
193 ; 6359444.361771869 ; 2.0147664329268482E8 ; 1.360748012307807E9 ; 3.716675420622651E10 ; 0.0
194 ; 6347625.562174563 ; 2.0148128105544278E8 ; 1.3671074566695788E9 ; 3.7368230849519196E10 ; 0.0
195 ; 6337069.979500129 ; 2.014858992763582E8 ; 1.3734550822317533E9 ; 3.756971213057464E10 ; 0.0
196 ; 6325331.228832182 ; 2.0149049783319852E8 ; 1.3797921522112534E9 ; 3.7771198029851E10 ; 0.0
197 ; 6316487.973955691 ; 2.0149507660477862E8 ; 1.3861174834400856E9 ; 3.79726885276842E10 ; 0.0
198 ; 6310733.131003255 ; 2.0149963547094712E8 ; 1.3924339714140413E9 ; 3.817418360428898E10 ; 0.0
199 ; 6300334.20223322 ; 2.015041743125733E8 ; 1.3987447045450444E9 ; 3.8375683239759926E10 ; 0.0
200 ; 6289119.194140408 ; 2.0150869301153448E8 ; 1.4050450387472777E9 ; 3.85771874140725E10 ; 0.0
201 ; 6272891.091663759 ; 1.9076080871932417E8 ; 1.4113341579414182E9 ; 3.877869610708404E10 ; 0.0
