CSV File for the City 1 on Day 74
1 - Minute m 
2 - Power Consumed at minute m 
3 - Power Produced at minute m 
4 - Energy Consumed since the beginning of the day 
5 - Energy Produced since the beginning of the day 
6 - Energy Lost since the beginning of the day on lines starting from the city
 
0 ; 1.602194926806713E7 ; 1.0549477105836794E8 ; 0.0 ; 0.0 ; 0.0
1 ; 1.6034139616865134E7 ; 1.0564769008313948E8 ; 1.602194926806713E7 ; 1.0549477105836794E8 ; 0.0
2 ; 1.6055361628581168E7 ; 1.0610939333295915E8 ; 3.2056088884932265E7 ; 2.1114246114150742E8 ; 0.0
3 ; 1.6073079979633735E7 ; 1.0687988253502709E8 ; 4.811145051351343E7 ; 3.1725185447446656E8 ; 0.0
4 ; 1.6100665713714717E7 ; 1.0795915924093354E8 ; 6.4184530493147165E7 ; 4.2413173700949365E8 ; 0.0
5 ; 1.6129913378026877E7 ; 1.0934722481681788E8 ; 8.028519620686188E7 ; 5.320908962504272E8 ; 0.0
6 ; 1.6166259308585953E7 ; 1.1104408043451211E8 ; 9.641510958488876E7 ; 6.41438121067245E8 ; 0.0
7 ; 1.6222850021555508E7 ; 1.1304972706380028E8 ; 1.1258136889347471E8 ; 7.524822015017571E8 ; 0.0
8 ; 1.6295603444698956E7 ; 1.1536416546591151E8 ; 1.2880421891503023E8 ; 8.655319285655575E8 ; 0.0
9 ; 1.6414313739239855E7 ; 1.1798739618834823E8 ; 1.4509982235972917E8 ; 9.80896094031469E8 ; 0.0
10 ; 1.6594038128316853E7 ; 1.20919419561131E8 ; 1.61514136098969E8 ; 1.0988834902198172E9 ; 0.0
11 ; 1.6882927602211054E7 ; 1.241602356945211E8 ; 1.7810817422728586E8 ; 1.2198029097809482E9 ; 0.0
12 ; 1.734750288599974E7 ; 1.2770984447825721E8 ; 1.9499110182949692E8 ; 1.3439631454754694E9 ; 0.0
13 ; 1.779115876195973E7 ; 1.3156824558231878E8 ; 2.1233860471549666E8 ; 1.4716729899537265E9 ; 0.0
14 ; 1.784695745474028E7 ; 1.3573543845920348E8 ; 2.301297634774564E8 ; 1.6032412355360453E9 ; 0.0
15 ; 1.786763195806975E7 ; 1.4021142234768206E8 ; 2.4797672093219668E8 ; 1.7389766739952488E9 ; 0.0
16 ; 1.788252603092806E7 ; 1.4499619627797058E8 ; 2.6584435289026642E8 ; 1.8791880963429308E9 ; 0.0
17 ; 1.7908972597212575E7 ; 1.5008975907823697E8 ; 2.837268789211945E8 ; 2.0241842926209013E9 ; 0.0
18 ; 1.7927451542401854E7 ; 1.5549210938234186E8 ; 3.0163585151840705E8 ; 2.174274051699138E9 ; 0.0
19 ; 1.7947855548833754E7 ; 1.6120324563869503E8 ; 3.195633030608089E8 ; 2.32976616108148E9 ; 0.0
20 ; 1.7971878941733617E7 ; 1.672231661200963E8 ; 3.375111586096426E8 ; 2.4909694067201753E9 ; 0.0
21 ; 1.7987905652720306E7 ; 1.7355186893441936E8 ; 3.554830375513762E8 ; 2.6581925728402715E9 ; 0.0
22 ; 1.800709178527481E7 ; 1.8018935203599143E8 ; 3.7347094320409656E8 ; 2.8317444417746906E9 ; 0.0
23 ; 1.8032059414420165E7 ; 1.8713561323751694E8 ; 3.9147803498937136E8 ; 3.0119337938106823E9 ; 0.0
24 ; 1.8052939369256955E7 ; 1.94390650222395E8 ; 4.0951009440379155E8 ; 3.199069407048199E9 ; 0.0
25 ; 1.8070841717768587E7 ; 2.0064250145546764E8 ; 4.275630337730485E8 ; 3.393460057270594E9 ; 0.0
26 ; 1.8093703527607687E7 ; 2.006447122325846E8 ; 4.456338754908171E8 ; 3.594102558726062E9 ; 0.0
27 ; 1.81150722365376E7 ; 2.006470492181492E8 ; 4.637275790184248E8 ; 3.7947472709586463E9 ; 0.0
28 ; 1.813805941643205E7 ; 2.0064950970438287E8 ; 4.818426512549624E8 ; 3.9953943201767955E9 ; 0.0
29 ; 1.8156593160287246E7 ; 2.0065209091680261E8 ; 4.999807106713944E8 ; 4.1960438298811784E9 ; 0.0
30 ; 1.8177031236888994E7 ; 2.0065479002609444E8 ; 5.1813730383168167E8 ; 4.396695920797981E9 ; 0.0
31 ; 1.8191637360458888E7 ; 2.006576041595447E8 ; 5.363143350685707E8 ; 4.597350710824076E9 ; 0.0
32 ; 1.8213611804852054E7 ; 2.0066053041195783E8 ; 5.545059724290296E8 ; 4.798008314983621E9 ; 0.0
33 ; 1.823195961012355E7 ; 2.006635658560034E8 ; 5.727195842338816E8 ; 4.998668845395578E9 ; 0.0
34 ; 1.824538795535874E7 ; 2.0066670755194843E8 ; 5.909515438440051E8 ; 5.199332411251582E9 ; 0.0
35 ; 1.8267084777115013E7 ; 2.0066995255674267E8 ; 6.091969317993639E8 ; 5.399999118803531E9 ; 0.0
36 ; 1.8283754217453144E7 ; 2.0067329793243676E8 ; 6.274640165764788E8 ; 5.600669071360273E9 ; 0.0
37 ; 1.8295617499669947E7 ; 2.00676740753923E8 ; 6.45747770793932E8 ; 5.80134236929271E9 ; 0.0
38 ; 1.831286596736708E7 ; 2.0068027811599776E8 ; 6.640433882936019E8 ; 6.002019110046634E9 ; 0.0
39 ; 1.8322805983154267E7 ; 2.0068390713975388E8 ; 6.823562542609689E8 ; 6.202699388162631E9 ; 0.0
40 ; 1.8342566259789754E7 ; 2.006876249783161E8 ; 7.006790602441232E8 ; 6.403383295302385E9 ; 0.0
41 ; 1.8356294576434977E7 ; 2.0069142882194126E8 ; 7.190216265039129E8 ; 6.604070920280702E9 ; 0.0
42 ; 1.8366156861298297E7 ; 2.0069531590250707E8 ; 7.373779210803479E8 ; 6.804762349102643E9 ; 0.0
43 ; 1.838001237586263E7 ; 2.0069928349741918E8 ; 7.557440779416462E8 ; 7.00545766500515E9 ; 0.0
44 ; 1.839380122400045E7 ; 2.0070332893296778E8 ; 7.741240903175088E8 ; 7.206156948502569E9 ; 0.0
45 ; 1.8402384521797143E7 ; 2.00707449587167E8 ; 7.925178915415093E8 ; 7.406860277435537E9 ; 0.0
46 ; 1.841080750110912E7 ; 2.0071164289211258E8 ; 8.109202760633065E8 ; 7.607567727022704E9 ; 0.0
47 ; 1.8416199168200698E7 ; 2.007159063358927E8 ; 8.293310835644156E8 ; 7.808279369914817E9 ; 0.0
48 ; 1.843013744231641E7 ; 2.0072023746408707E8 ; 8.477472827326163E8 ; 8.00899527625071E9 ; 0.0
49 ; 1.8435185500125885E7 ; 2.007246338808899E8 ; 8.661774201749327E8 ; 8.209715513714797E9 ; 0.0
50 ; 1.8443790523123085E7 ; 2.007290932498899E8 ; 8.846126056750586E8 ; 8.410440147595687E9 ; 0.0
51 ; 1.84445123084373E7 ; 2.0073361329454082E8 ; 9.030563961981816E8 ; 8.611169240845577E9 ; 0.0
52 ; 1.8449453305429064E7 ; 2.007381917983533E8 ; 9.21500908506619E8 ; 8.811902854140118E9 ; 0.0
53 ; 1.8457495404780507E7 ; 2.007428266048385E8 ; 9.399503618120481E8 ; 9.01264104593847E9 ; 0.0
54 ; 1.8463241278922793E7 ; 2.0074751561723104E8 ; 9.584078572168286E8 ; 9.21338387254331E9 ; 0.0
55 ; 1.8468348931058526E7 ; 2.007522567980182E8 ; 9.768710984957514E8 ; 9.414131388160542E9 ; 0.0
56 ; 1.8471234875336323E7 ; 2.007570481682991E8 ; 9.953394474268099E8 ; 9.614883644958559E9 ; 0.0
57 ; 1.8472108426205426E7 ; 2.0076188780699742E8 ; 1.0138106823021462E9 ; 9.815640693126858E9 ; 0.0
58 ; 1.8480460010536592E7 ; 2.0076677384994787E8 ; 1.0322827907283516E9 ; 1.0016402580933855E10 ; 0.0
59 ; 1.849036265022764E7 ; 2.007717044888759E8 ; 1.0507632507388881E9 ; 1.0217169354783802E10 ; 0.0
60 ; 1.8488301574437242E7 ; 2.0077667797028786E8 ; 1.0692536133891158E9 ; 1.0417941059272678E10 ; 0.0
61 ; 1.8490706514183458E7 ; 2.0078169259428775E8 ; 1.087741914963553E9 ; 1.0618717737242966E10 ; 0.0
62 ; 1.84941723443983E7 ; 2.0078674671333453E8 ; 1.1062326214777365E9 ; 1.0819499429837254E10 ; 0.0
63 ; 1.8503692686468612E7 ; 2.0079183873095292E8 ; 1.1247267938221347E9 ; 1.1020286176550589E10 ; 0.0
64 ; 1.850303164439707E7 ; 2.0079696710040912E8 ; 1.1432304865086033E9 ; 1.1221078015281542E10 ; 0.0
65 ; 1.851090583665234E7 ; 2.0080213032336202E8 ; 1.1617335181530004E9 ; 1.142187498238195E10 ; 0.0
66 ; 1.8506481825250067E7 ; 2.0080732694849834E8 ; 1.1802444239896526E9 ; 1.1622677112705313E10 ; 0.0
67 ; 1.851146234903446E7 ; 2.0081255557016024E8 ; 1.1987509058149028E9 ; 1.182348443965381E10 ; 0.0
68 ; 1.8517543344986532E7 ; 2.008178148269719E8 ; 1.2172623681639373E9 ; 1.202429699522397E10 ; 0.0
69 ; 1.852165318299554E7 ; 2.0082310340047178E8 ; 1.2357799115089238E9 ; 1.2225114810050941E10 ; 0.0
70 ; 1.8517664078219816E7 ; 2.0082842001375502E8 ; 1.2543015646919193E9 ; 1.2425937913451414E10 ; 0.0
71 ; 1.852501389758468E7 ; 2.008337634301314E8 ; 1.2728192287701392E9 ; 1.262676633346517E10 ; 0.0
72 ; 1.852327063204162E7 ; 2.008391324518018E8 ; 1.291344242667724E9 ; 1.2827600096895302E10 ; 0.0
73 ; 1.852290629540749E7 ; 2.0084452591855714E8 ; 1.3098675132997656E9 ; 1.3028439229347103E10 ; 0.0
74 ; 1.852551925540792E7 ; 2.008499427065023E8 ; 1.3283904195951731E9 ; 1.322928375526566E10 ; 0.0
75 ; 1.8530964595908426E7 ; 2.0085538172680682E8 ; 1.346915938850581E9 ; 1.3430133697972162E10 ; 0.0
76 ; 1.8527367200591132E7 ; 2.0086084192448497E8 ; 1.3654469034464893E9 ; 1.3630989079698969E10 ; 0.0
77 ; 1.853041102666191E7 ; 2.008663222772058E8 ; 1.3839742706470804E9 ; 1.3831849921623453E10 ; 0.0
78 ; 1.8526561222469818E7 ; 2.0087182179413474E8 ; 1.4025046816737423E9 ; 1.403271624390066E10 ; 0.0
79 ; 1.8519780710949123E7 ; 2.0087733951480755E8 ; 1.421031242896212E9 ; 1.4233588065694794E10 ; 0.0
80 ; 1.851838174123415E7 ; 2.0088287450803673E8 ; 1.4395510236071613E9 ; 1.44344654052096E10 ; 0.0
81 ; 1.851200197717808E7 ; 2.0088842587085107E8 ; 1.4580694053483953E9 ; 1.4635348279717638E10 ; 0.0
82 ; 1.8505280147408113E7 ; 2.0089399272746825E8 ; 1.4765814073255734E9 ; 1.483623670558849E10 ; 0.0
83 ; 1.850093248006269E7 ; 2.0089957422830063E8 ; 1.4950866874729815E9 ; 1.5037130698315958E10 ; 0.0
84 ; 1.8498215924757842E7 ; 2.0090516954899362E8 ; 1.5135876199530442E9 ; 1.5238030272544258E10 ; 0.0
85 ; 1.8491974114146065E7 ; 2.009107778894966E8 ; 1.5320858358778021E9 ; 1.5438935442093252E10 ; 0.0
86 ; 1.8486640513893824E7 ; 2.0091639847316593E8 ; 1.5505778099919481E9 ; 1.5639846219982748E10 ; 0.0
87 ; 1.847915275639647E7 ; 2.0092203054589945E8 ; 1.569064450505842E9 ; 1.5840762618455914E10 ; 0.0
88 ; 1.8470514934571505E7 ; 2.0092767337530172E8 ; 1.5875436032622385E9 ; 1.6041684649001814E10 ; 0.0
89 ; 1.8467950635481596E7 ; 2.0093332624987945E8 ; 1.60601411819681E9 ; 1.6242612322377115E10 ; 0.0
90 ; 1.845663209903616E7 ; 2.009389884782667E8 ; 1.6244820688322916E9 ; 1.6443545648626995E10 ; 0.0
91 ; 1.8453917126428083E7 ; 2.0094465938847843E8 ; 1.6429387009313278E9 ; 1.664448463710526E10 ; 0.0
92 ; 1.844849134327164E7 ; 2.009503383271924E8 ; 1.661392618057756E9 ; 1.684542929649374E10 ; 0.0
93 ; 1.8437143006932322E7 ; 2.009560246590577E8 ; 1.6798411094010277E9 ; 1.7046379634820932E10 ; 0.0
94 ; 1.8432587127221093E7 ; 2.0096171776603028E8 ; 1.69827825240796E9 ; 1.7247335659479992E10 ; 0.0
95 ; 1.8426809788084537E7 ; 2.0096741704673344E8 ; 1.716710839535181E9 ; 1.744829737724602E10 ; 0.0
96 ; 1.8418074753961496E7 ; 2.009731219158432E8 ; 1.7351376493232656E9 ; 1.7649264794292755E10 ; 0.0
97 ; 1.841270567264178E7 ; 2.0097883180349767E8 ; 1.753555724077227E9 ; 1.78502379162086E10 ; 0.0
98 ; 1.840071964468355E7 ; 2.0098454615472937E8 ; 1.7719684297498689E9 ; 1.8051216748012096E10 ; 0.0
99 ; 1.839565637793176E7 ; 2.009902644289197E8 ; 1.7903691493945525E9 ; 1.8252201294166824E10 ; 0.0
100 ; 1.838751090965386E7 ; 2.0099598609927508E8 ; 1.8087648057724843E9 ; 1.8453191558595745E10 ; 0.0
101 ; 1.8382556417558167E7 ; 2.010017106523236E8 ; 1.8271523166821382E9 ; 1.865418754469502E10 ; 0.0
102 ; 1.8367219141465038E7 ; 2.010074375874316E8 ; 1.8455348730996964E9 ; 1.8855189255347343E10 ; 0.0
103 ; 1.835782624228401E7 ; 2.0101316641633967E8 ; 1.8639020922411613E9 ; 1.9056196692934776E10 ; 0.0
104 ; 1.835215191365498E7 ; 2.0101889666271657E8 ; 1.8822599184834454E9 ; 1.9257209859351116E10 ; 0.0
105 ; 1.8340334745141014E7 ; 2.0102462786173144E8 ; 1.9006120703971004E9 ; 1.9458228756013832E10 ; 0.0
106 ; 1.8335890021247543E7 ; 2.0103035955964276E8 ; 1.9189524051422415E9 ; 1.9659253383875565E10 ; 0.0
107 ; 1.83250562166781E7 ; 2.010360913134037E8 ; 1.937288295163489E9 ; 1.9860283743435207E10 ; 0.0
108 ; 1.8312893083015423E7 ; 2.0104182269028327E8 ; 1.9556133513801672E9 ; 2.006131983474861E10 ; 0.0
109 ; 1.830877963615732E7 ; 2.0104755326750255E8 ; 1.9739262444631827E9 ; 2.0262361657438896E10 ; 0.0
110 ; 1.8296047530584257E7 ; 2.0105328263188538E8 ; 1.99223502409934E9 ; 2.0463409210706398E10 ; 0.0
111 ; 1.8286623811779946E7 ; 2.010590103795231E8 ; 2.0105310716299243E9 ; 2.0664462493338284E10 ; 0.0
112 ; 1.8275823927560475E7 ; 2.0106473611545244E8 ; 2.0288176954417043E9 ; 2.0865521503717808E10 ; 0.0
113 ; 1.8268026968720395E7 ; 2.0107045945334643E8 ; 2.0470935193692648E9 ; 2.106658623983326E10 ; 0.0
114 ; 1.825682492827852E7 ; 2.0107618001521736E8 ; 2.0653615463379853E9 ; 2.1267656699286606E10 ; 0.0
115 ; 1.8243521939560764E7 ; 2.0108189743113193E8 ; 2.0836183712662637E9 ; 2.1468732879301823E10 ; 0.0
116 ; 1.8235470362562653E7 ; 2.0108761133893707E8 ; 2.1018618932058244E9 ; 2.1669814776732956E10 ; 0.0
117 ; 1.822103669592674E7 ; 2.0109332138399732E8 ; 2.120097363568387E9 ; 2.187090238807189E10 ; 0.0
118 ; 1.821118700156182E7 ; 2.0109902721894205E8 ; 2.1383184002643137E9 ; 2.207199570945589E10 ; 0.0
119 ; 1.819600696663907E7 ; 2.011047285034228E8 ; 2.1565295872658753E9 ; 2.227309473667483E10 ; 0.0
120 ; 1.818957254703608E7 ; 2.011104249038804E8 ; 2.1747255942325144E9 ; 2.2474199465178253E10 ; 0.0
121 ; 1.8172972599229276E7 ; 2.0111611609332082E8 ; 2.1929151667795506E9 ; 2.2675309890082134E10 ; 0.0
122 ; 1.8163482516220998E7 ; 2.011218017511002E8 ; 2.21108813937878E9 ; 2.2876426006175453E10 ; 0.0
123 ; 1.8152540923292406E7 ; 2.011274815627181E8 ; 2.229251621895001E9 ; 2.307754780792655E10 ; 0.0
124 ; 1.813893667140991E7 ; 2.0113315521961865E8 ; 2.2474041628182936E9 ; 2.327867528948927E10 ; 0.0
125 ; 1.812539906901071E7 ; 2.0113882241899985E8 ; 2.2655430994897037E9 ; 2.347980844470889E10 ; 0.0
126 ; 1.8116815825044222E7 ; 2.011444828636299E8 ; 2.2836684985587144E9 ; 2.3680947267127888E10 ; 0.0
127 ; 1.8103666165010564E7 ; 2.0115013626167074E8 ; 2.3017853143837585E9 ; 2.3882091749991516E10 ; 0.0
128 ; 1.8089900609337363E7 ; 2.0115578232650858E8 ; 2.319888980548769E9 ; 2.4083241886253185E10 ; 0.0
129 ; 1.8075670896638446E7 ; 2.0116142077659065E8 ; 2.3379788811581063E9 ; 2.4284397668579693E10 ; 0.0
130 ; 1.8061291656606086E7 ; 2.011670513352684E8 ; 2.3560545520547447E9 ; 2.4485559089356285E10 ; 0.0
131 ; 1.803965063870456E7 ; 2.0117267373064685E8 ; 2.374115843711351E9 ; 2.4686726140691555E10 ; 0.0
132 ; 1.8017886597085293E7 ; 2.0117828769543916E8 ; 2.3921554943500557E9 ; 2.4887898814422203E10 ; 0.0
133 ; 1.8001102506478056E7 ; 2.0118389296682742E8 ; 2.410173380947141E9 ; 2.508907710211764E10 ; 0.0
134 ; 1.7983207050375838E7 ; 2.0118948928632814E8 ; 2.428174483453619E9 ; 2.529026099508447E10 ; 0.0
135 ; 1.796368518274597E7 ; 2.011950763996632E8 ; 2.446157690503995E9 ; 2.5491450484370796E10 ; 0.0
136 ; 1.7947520004529502E7 ; 2.0120065405663547E8 ; 2.464121375686741E9 ; 2.569264556077046E10 ; 0.0
137 ; 1.7926947406865917E7 ; 2.0120622201100907E8 ; 2.4820688956912704E9 ; 2.5893846214827095E10 ; 0.0
138 ; 1.790236951627414E7 ; 2.012117800203944E8 ; 2.4999958430981364E9 ; 2.6095052436838104E10 ; 0.0
139 ; 1.7882839963725217E7 ; 2.0121732784613708E8 ; 2.5178982126144104E9 ; 2.6296264216858498E10 ; 0.0
140 ; 1.7862465823722612E7 ; 2.0122286525321126E8 ; 2.5357810525781355E9 ; 2.6497481544704636E10 ; 0.0
141 ; 1.784360188587474E7 ; 2.0122839201011682E8 ; 2.5536435184018583E9 ; 2.6698704409957848E10 ; 0.0
142 ; 1.781985475553835E7 ; 2.012339078887804E8 ; 2.571487120287733E9 ; 2.6899932801967964E10 ; 0.0
143 ; 1.7802392235397033E7 ; 2.0123941266446003E8 ; 2.5893069750432715E9 ; 2.7101166709856743E10 ; 0.0
144 ; 1.777836071700536E7 ; 2.0124490611565325E8 ; 2.6071093672786684E9 ; 2.7302406122521202E10 ; 0.0
145 ; 1.7762309222055383E7 ; 2.0125038802400875E8 ; 2.6248877279956737E9 ; 2.7503651028636856E10 ; 0.0
146 ; 1.7750464980313443E7 ; 2.0125585817424086E8 ; 2.642650037217729E9 ; 2.7704901416660866E10 ; 0.0
147 ; 1.773937972173128E7 ; 2.012613163540477E8 ; 2.6604005021980424E9 ; 2.7906157274835106E10 ; 0.0
148 ; 1.7722728446375627E7 ; 2.0126676235403174E8 ; 2.6781398819197736E9 ; 2.810741859118915E10 ; 0.0
149 ; 1.7708806913272616E7 ; 2.012721959676236E8 ; 2.6958626103661494E9 ; 2.8308685353543182E10 ; 0.0
150 ; 1.7695954718428962E7 ; 2.0127761699100843E8 ; 2.713571417279422E9 ; 2.8509957549510807E10 ; 0.0
151 ; 1.7678748222448364E7 ; 2.0128302522305503E8 ; 2.731267371997851E9 ; 2.8711235166501816E10 ; 0.0
152 ; 1.766440359413533E7 ; 2.0128842046524736E8 ; 2.7489461202202992E9 ; 2.8912518191724873E10 ; 0.0
153 ; 1.7650738092798825E7 ; 2.0129380252161863E8 ; 2.7666105238144345E9 ; 2.911380661219012E10 ; 0.0
154 ; 1.763232144495424E7 ; 2.0129917119868764E8 ; 2.784261261907233E9 ; 2.931510041471174E10 ; 0.0
155 ; 1.761478002251449E7 ; 2.0130452630539745E8 ; 2.8018935833521876E9 ; 2.9516399585910427E10 ; 0.0
156 ; 1.760399722327445E7 ; 2.013098676530561E8 ; 2.819508363374702E9 ; 2.9717704112215824E10 ; 0.0
157 ; 1.7591743631423026E7 ; 2.013151950552796E8 ; 2.837112360597976E9 ; 2.991901397986888E10 ; 0.0
158 ; 1.7576057772555094E7 ; 2.013205083279367E8 ; 2.854704104229399E9 ; 3.012032917492416E10 ; 0.0
159 ; 1.7563146074935663E7 ; 2.013258072890958E8 ; 2.872280162001954E9 ; 3.0321649683252098E10 ; 0.0
160 ; 1.7542234963973865E7 ; 2.0133109175897342E8 ; 2.8898433080768895E9 ; 3.0522975490541195E10 ; 0.0
161 ; 1.753295453784851E7 ; 2.0133636155988485E8 ; 2.9073855430408635E9 ; 3.0724306582300167E10 ; 0.0
162 ; 1.7512606471137535E7 ; 2.013416165161962E8 ; 2.924918497578712E9 ; 3.092564294386005E10 ; 0.0
163 ; 1.749566058363342E7 ; 2.0134685645427817E8 ; 2.9424311040498495E9 ; 3.1126984560376247E10 ; 0.0
164 ; 1.748372995994694E7 ; 2.0135208120246157E8 ; 2.959926764633483E9 ; 3.1328331416830524E10 ; 0.0
165 ; 1.7467088272771627E7 ; 2.013572905909941E8 ; 2.97741049459343E9 ; 3.1529683498032986E10 ; 0.0
166 ; 1.745299107049534E7 ; 2.013624844519988E8 ; 2.994877582866202E9 ; 3.173104078862398E10 ; 0.0
167 ; 1.7435109450886473E7 ; 2.0136766261943385E8 ; 3.012330573936697E9 ; 3.193240327307598E10 ; 0.0
168 ; 1.7422534700465348E7 ; 2.0137282492905384E8 ; 3.0297656833875833E9 ; 3.2133770935695415E10 ; 0.0
169 ; 1.7406308797176138E7 ; 2.013779712183721E8 ; 3.0471882180880485E9 ; 3.233514376062447E10 ; 0.0
170 ; 1.738923887520357E7 ; 2.013831013266246E8 ; 3.064594526885225E9 ; 3.2536521731842842E10 ; 0.0
171 ; 1.7375099802722007E7 ; 2.013882150947348E8 ; 3.0819837657604284E9 ; 3.2737904833169468E10 ; 0.0
172 ; 1.7356491465920005E7 ; 2.013933123652799E8 ; 3.0993588655631504E9 ; 3.2939293048264202E10 ; 0.0
173 ; 1.734172517185905E7 ; 2.013983929824581E8 ; 3.1167153570290704E9 ; 3.3140686360629482E10 ; 0.0
174 ; 1.7333578673753627E7 ; 2.0140345679205707E8 ; 3.1340570822009296E9 ; 3.334208475361194E10 ; 0.0
175 ; 1.7325197809535813E7 ; 2.0140850364142308E8 ; 3.1513906608746834E9 ; 3.3543488210403996E10 ; 0.0
176 ; 1.7312259283922594E7 ; 2.0141353337943184E8 ; 3.1687158586842194E9 ; 3.3744896714045418E10 ; 0.0
177 ; 1.730131203811479E7 ; 2.0141854585645965E8 ; 3.186028117968142E9 ; 3.394631024742485E10 ; 0.0
178 ; 1.729409728930971E7 ; 2.0142354092435586E8 ; 3.203329430006257E9 ; 3.414772879328131E10 ; 0.0
179 ; 1.728059701293005E7 ; 2.014285184364162E8 ; 3.2206235272955666E9 ; 3.4349152334205666E10 ; 0.0
180 ; 1.7273884678359456E7 ; 2.0143347824735683E8 ; 3.2379041243084965E9 ; 3.455058085264208E10 ; 0.0
181 ; 1.726402237751875E7 ; 2.014384202132894E8 ; 3.255178008986856E9 ; 3.475201433088944E10 ; 0.0
182 ; 1.7254570172851764E7 ; 2.0144334419169688E8 ; 3.2724420313643746E9 ; 3.495345275110273E10 ; 0.0
183 ; 1.724662135379855E7 ; 2.014482500414101E8 ; 3.289696601537226E9 ; 3.5154896095294426E10 ; 0.0
184 ; 1.7236008856487155E7 ; 2.014531376225852E8 ; 3.3069432228910246E9 ; 3.535634434533584E10 ; 0.0
185 ; 1.7226289585382715E7 ; 2.0145800679668176E8 ; 3.324179231747512E9 ; 3.555779748295842E10 ; 0.0
186 ; 1.7213915544404767E7 ; 2.0146285742644146E8 ; 3.341405521332895E9 ; 3.5759255489755104E10 ; 0.0
187 ; 1.7207866655391797E7 ; 2.0146768937586766E8 ; 3.3586194368773E9 ; 3.596071834718155E10 ; 0.0
188 ; 1.719693388138601E7 ; 2.0147250251020566E8 ; 3.3758273035326915E9 ; 3.616218603655742E10 ; 0.0
189 ; 1.718535254079565E7 ; 2.014772966959233E8 ; 3.3930242374140773E9 ; 3.636365853906763E10 ; 0.0
190 ; 1.7176671631597396E7 ; 2.0148207180069253E8 ; 3.410209589954873E9 ; 3.656513583576355E10 ; 0.0
191 ; 1.7164485794106428E7 ; 2.0148682769337127E8 ; 3.4273862615864706E9 ; 3.676661790756424E10 ; 0.0
192 ; 1.715576182773875E7 ; 2.0149156424398616E8 ; 3.444550747380577E9 ; 3.6968104735257614E10 ; 0.0
193 ; 1.7146608763554502E7 ; 2.0149628132371557E8 ; 3.461706509208316E9 ; 3.71695962995016E10 ; 0.0
194 ; 1.7135300408142682E7 ; 2.015009788048733E8 ; 3.4788531179718704E9 ; 3.737109258082532E10 ; 0.0
195 ; 1.7124192765592974E7 ; 2.0150565656089276E8 ; 3.495988418380013E9 ; 3.757259355963019E10 ; 0.0
