CSV File for the City 1 on Day 189
1 - Minute m 
2 - Power Consumed at minute m 
3 - Power Produced at minute m 
4 - Energy Consumed since the beginning of the day 
5 - Energy Produced since the beginning of the day 
6 - Energy Lost since the beginning of the day on lines starting from the city
 
0 ; 2484776.761947639 ; 1.0545301302255079E8 ; 0.0 ; 0.0 ; 0.0
1 ; 2501337.5747688743 ; 1.0560587410862625E8 ; 2484776.761947639 ; 1.0545301302255079E8 ; 0.0
2 ; 2517063.120535303 ; 1.0606752428984389E8 ; 4986114.336716513 ; 2.1105888713117704E8 ; 0.0
3 ; 2539940.591071906 ; 1.0683796568050611E8 ; 7503177.457251816 ; 3.171264114210209E8 ; 0.0
4 ; 2564796.5703056683 ; 1.0791720018653977E8 ; 1.0043118048323723E7 ; 4.2396437710152704E8 ; 0.0
5 ; 2595206.397795168 ; 1.0930522949124223E8 ; 1.260791461862939E7 ; 5.318815772880668E8 ; 0.0
6 ; 2631967.655716759 ; 1.1100205504235849E8 ; 1.5203121016424559E7 ; 6.41186806779309E8 ; 0.0
7 ; 2681632.175254094 ; 1.130076780407145E8 ; 1.7835088672141317E7 ; 7.521888618216676E8 ; 0.0
8 ; 2764042.408520326 ; 1.153220994306106E8 ; 2.0516720847395413E7 ; 8.65196539862382E8 ; 0.0
9 ; 2883136.5762124667 ; 1.1794531989215422E8 ; 2.328076325591574E7 ; 9.805186392929926E8 ; 0.0
10 ; 3058049.0661793523 ; 1.2087733983567435E8 ; 2.6163899832128204E7 ; 1.0984639591851468E9 ; 0.0
11 ; 3350012.178422309 ; 1.2411815939832708E8 ; 2.922194889830756E7 ; 1.219341299020821E9 ; 0.0
12 ; 3817091.2646630644 ; 1.276677784429563E8 ; 3.2571961076729868E7 ; 1.3434594584191482E9 ; 0.0
13 ; 4261320.921251983 ; 1.3152619655923301E8 ; 3.6389052341392934E7 ; 1.4711272368621044E9 ; 0.0
14 ; 4311516.6717362255 ; 1.3569341306704986E8 ; 4.065037326264492E7 ; 1.6026534334213374E9 ; 0.0
15 ; 4336678.556063034 ; 1.401694270221064E8 ; 4.496188993438114E7 ; 1.738346846488387E9 ; 0.0
16 ; 4357614.401869668 ; 1.449542372235768E8 ; 4.9298568490444176E7 ; 1.8785162735104935E9 ; 0.0
17 ; 4382325.093238478 ; 1.50047842223716E8 ; 5.3656182892313845E7 ; 2.0234705107340703E9 ; 0.0
18 ; 4403215.774207926 ; 1.554502403392266E8 ; 5.8038507985552326E7 ; 2.173518352957786E9 ; 0.0
19 ; 4421085.202394327 ; 1.611614296641818E8 ; 6.244172375976025E7 ; 2.328968593297013E9 ; 0.0
20 ; 4442000.914929923 ; 1.6718140808427915E8 ; 6.686280896215458E7 ; 2.4901300229611945E9 ; 0.0
21 ; 4467329.050500588 ; 1.7351017329218718E8 ; 7.130480987708451E7 ; 2.6573114310454736E9 ; 0.0
22 ; 4489257.819214659 ; 1.8014772280373758E8 ; 7.57721389275851E7 ; 2.830821604337661E9 ; 0.0
23 ; 4511735.161037688 ; 1.8709405397471803E8 ; 8.026139674679975E7 ; 3.0109693271413984E9 ; 0.0
24 ; 4534807.717663004 ; 1.9434916401802456E8 ; 8.477313190783744E7 ; 3.1980633811161165E9 ; 0.0
25 ; 4557715.671391823 ; 2.006010909191272E8 ; 8.930793962550044E7 ; 3.392412545134141E9 ; 0.0
26 ; 4578126.448401566 ; 2.00603379490164E8 ; 9.386565529689227E7 ; 3.593013636053268E9 ; 0.0
27 ; 4603649.290203238 ; 2.0060579591176373E8 ; 9.844378174529384E7 ; 3.7936170155434318E9 ; 0.0
28 ; 4620433.921539974 ; 2.006083369962852E8 ; 1.0304743103549708E8 ; 3.9942228114551954E9 ; 0.0
29 ; 4642131.009319859 ; 2.0061099949692813E8 ; 1.0766786495703706E8 ; 4.194831148451481E9 ; 0.0
30 ; 4664927.946962339 ; 2.0061378012287107E8 ; 1.1230999596635692E8 ; 4.395442147948409E9 ; 0.0
31 ; 4684260.991130068 ; 2.006166755535813E8 ; 1.1697492391331926E8 ; 4.5960559280712805E9 ; 0.0
32 ; 4706367.847822422 ; 2.0061968245221826E8 ; 1.2165918490444933E8 ; 4.796672603624862E9 ; 0.0
33 ; 4725012.637940916 ; 2.0062279747807574E8 ; 1.2636555275227176E8 ; 4.99729228607708E9 ; 0.0
34 ; 4749837.446874648 ; 2.00626017298028E8 ; 1.3109056539021267E8 ; 5.197915083555156E9 ; 0.0
35 ; 4762333.793509819 ; 2.0062933859696364E8 ; 1.3584040283708733E8 ; 5.398541100853184E9 ; 0.0
36 ; 4784547.693804916 ; 2.0063275808720836E8 ; 1.4060273663059714E8 ; 5.599170439450148E9 ; 0.0
37 ; 4803139.001258839 ; 2.0063627251695067E8 ; 1.4538728432440206E8 ; 5.799803197537356E9 ; 0.0
38 ; 4824344.583886097 ; 2.006398786776979E8 ; 1.501904233256609E8 ; 6.000439470054307E9 ; 0.0
39 ; 4833987.281185566 ; 2.0064357341079864E8 ; 1.55014767909547E8 ; 6.201079348732005E9 ; 0.0
40 ; 4848160.276822042 ; 2.0064735361307615E8 ; 1.5984875519073257E8 ; 6.401722922142804E9 ; 0.0
41 ; 4868073.581413858 ; 2.0065121624162248E8 ; 1.646969154675546E8 ; 6.60237027575588E9 ; 0.0
42 ; 4883900.79302153 ; 2.006551583178072E8 ; 1.6956498904896846E8 ; 6.803021491997503E9 ; 0.0
43 ; 4895508.840263456 ; 2.0065917693055797E8 ; 1.7444888984199E8 ; 7.0036766503153105E9 ; 0.0
44 ; 4911237.171435181 ; 2.006632692389695E8 ; 1.7934439868225345E8 ; 7.204335827245869E9 ; 0.0
45 ; 4925105.95946545 ; 2.0066743247429994E8 ; 1.8425563585368863E8 ; 7.4049990964848385E9 ; 0.0
46 ; 4934327.015431755 ; 2.0067166394141033E8 ; 1.8918074181315407E8 ; 7.605666528959139E9 ; 0.0
47 ; 4946937.282414997 ; 2.006759610197037E8 ; 1.9411506882858583E8 ; 7.806338192900549E9 ; 0.0
48 ; 4957043.4128491925 ; 2.0068032116361555E8 ; 1.9906200611100084E8 ; 8.007014153920253E9 ; 0.0
49 ; 4961855.793625284 ; 2.006847419027077E8 ; 2.0401904952385002E8 ; 8.207694475083868E9 ; 0.0
50 ; 4974038.941272446 ; 2.006892208414114E8 ; 2.0898090531747532E8 ; 8.408379216986576E9 ; 0.0
51 ; 4979256.148254395 ; 2.0069375565846556E8 ; 2.1395494425874776E8 ; 8.609068437827988E9 ; 0.0
52 ; 4993177.471396462 ; 2.006983441060904E8 ; 2.1893420040700215E8 ; 8.809762193486454E9 ; 0.0
53 ; 4997084.922719368 ; 2.0070298400893465E8 ; 2.2392737787839863E8 ; 9.010460537592545E9 ; 0.0
54 ; 5002823.466293112 ; 2.0070767326283112E8 ; 2.28924462801118E8 ; 9.211163521601479E9 ; 0.0
55 ; 5015356.789463636 ; 2.0071240983339185E8 ; 2.339272862674111E8 ; 9.41187119486431E9 ; 0.0
56 ; 5017595.3137695305 ; 2.0071719175447166E8 ; 2.3894264305687475E8 ; 9.6125836046977E9 ; 0.0
57 ; 5027725.917753696 ; 2.0072201712652534E8 ; 2.4396023837064427E8 ; 9.813300796452171E9 ; 0.0
58 ; 5031957.155496713 ; 2.007268841148816E8 ; 2.4898796428839797E8 ; 1.0014022813578697E10 ; 0.0
59 ; 5039637.359054185 ; 2.00731790947954E8 ; 2.5401992144389468E8 ; 1.0214749697693579E10 ; 0.0
60 ; 5050553.161535395 ; 2.0073673591540673E8 ; 2.5905955880294886E8 ; 1.0415481488641533E10 ; 0.0
61 ; 5055276.598152167 ; 2.0074171736629117E8 ; 2.6411011196448424E8 ; 1.061621822455694E10 ; 0.0
62 ; 5059643.0607672185 ; 2.007467337071668E8 ; 2.6916538856263644E8 ; 1.0816959941923231E10 ; 0.0
63 ; 5069227.7722267555 ; 2.0075178340021843E8 ; 2.7422503162340367E8 ; 1.1017706675630398E10 ; 0.0
64 ; 5074122.027376141 ; 2.007568649613802E8 ; 2.792942593956304E8 ; 1.1218458459030617E10 ; 0.0
65 ; 5079452.809058114 ; 2.0076197695847502E8 ; 2.8436838142300653E8 ; 1.1419215323991997E10 ; 0.0
66 ; 5085821.117631388 ; 2.0076711800937656E8 ; 2.8944783423206466E8 ; 1.1619977300950472E10 ; 0.0
67 ; 5092677.480230018 ; 2.0077228678020072E8 ; 2.9453365534969604E8 ; 1.1820744418959848E10 ; 0.0
68 ; 5099756.628736541 ; 2.0077748198353115E8 ; 2.996263328299261E8 ; 1.202151670574005E10 ; 0.0
69 ; 5105243.857238409 ; 2.0078270237668335E8 ; 3.047260894586626E8 ; 1.2222294187723581E10 ; 0.0
70 ; 5109146.47127335 ; 2.0078794676001054E8 ; 3.0983133331590104E8 ; 1.2423076890100266E10 ; 0.0
71 ; 5114286.651050478 ; 2.0079321397525412E8 ; 3.149404797871744E8 ; 1.2623864836860275E10 ; 0.0
72 ; 5121061.304568214 ; 2.0079850290394068E8 ; 3.200547664382249E8 ; 1.282465805083553E10 ; 0.0
73 ; 5126504.278452212 ; 2.0080381246582687E8 ; 3.2517582774279314E8 ; 1.302545655373947E10 ; 0.0
74 ; 5133569.392269739 ; 2.0080914161739326E8 ; 3.3030233202124536E8 ; 1.3226260366205296E10 ; 0.0
75 ; 5138805.390389321 ; 2.0081448935038772E8 ; 3.354359014135151E8 ; 1.342706950782269E10 ; 0.0
76 ; 5141927.948203535 ; 2.0081985469041833E8 ; 3.405747068039044E8 ; 1.3627883997173077E10 ; 0.0
77 ; 5148318.784705698 ; 2.0082523669559577E8 ; 3.45716634752108E8 ; 1.3828703851863495E10 ; 0.0
78 ; 5148245.497976583 ; 2.0083063445522505E8 ; 3.508649535368137E8 ; 1.4029529088559092E10 ; 0.0
79 ; 5145398.82553976 ; 2.0083604708854547E8 ; 3.560131990347903E8 ; 1.4230359723014317E10 ; 0.0
80 ; 5147234.195085827 ; 2.0084147374351856E8 ; 3.6115859786033005E8 ; 1.4431195770102861E10 ; 0.0
81 ; 5139544.237667865 ; 2.0084691359566262E8 ; 3.6630583205541587E8 ; 1.463203724384638E10 ; 0.0
82 ; 5141330.44812169 ; 2.0085236584693328E8 ; 3.714453762930837E8 ; 1.4832884157442043E10 ; 0.0
83 ; 5142644.39591973 ; 2.0085782972464833E8 ; 3.765867067412054E8 ; 1.5033736523288977E10 ; 0.0
84 ; 5138178.005395682 ; 2.0086330448045617E8 ; 3.8172935113712513E8 ; 1.5234594353013624E10 ; 0.0
85 ; 5137568.596535925 ; 2.0086878938934642E8 ; 3.8686752914252084E8 ; 1.543545765749408E10 ; 0.0
86 ; 5136739.89632098 ; 2.008742837487011E8 ; 3.9200509773905677E8 ; 1.5636326446883427E10 ; 0.0
87 ; 5133464.631919289 ; 2.0087978687738544E8 ; 3.9714183763537776E8 ; 1.5837200730632128E10 ; 0.0
88 ; 5132039.348958505 ; 2.0088529811487693E8 ; 4.02275302267297E8 ; 1.6038080517509514E10 ; 0.0
89 ; 5132163.798406043 ; 2.0089081682043076E8 ; 4.074073416162555E8 ; 1.6238965815624392E10 ; 0.0
90 ; 5130340.242534379 ; 2.0089634237228113E8 ; 4.125395054146616E8 ; 1.6439856632444822E10 ; 0.0
91 ; 5126866.033361742 ; 2.0090187416687644E8 ; 4.17669845657196E8 ; 1.6640752974817104E10 ; 0.0
92 ; 5125910.920468616 ; 2.0090741161814705E8 ; 4.227967116905577E8 ; 1.684165484898398E10 ; 0.0
93 ; 5124205.444240549 ; 2.0091295415680495E8 ; 4.2792262261102635E8 ; 1.7042562260602127E10 ; 0.0
94 ; 5118191.658542499 ; 2.0091850122967348E8 ; 4.330468280552669E8 ; 1.724347521475893E10 ; 0.0
95 ; 5119799.409106222 ; 2.009240522990458E8 ; 4.3816501971380943E8 ; 1.7444393715988605E10 ; 0.0
96 ; 5114167.687452377 ; 2.0092960684207156E8 ; 4.432848191229156E8 ; 1.764531776828765E10 ; 0.0
97 ; 5109896.988315462 ; 2.0093516435016993E8 ; 4.48398986810368E8 ; 1.7846247375129723E10 ; 0.0
98 ; 5104108.937941269 ; 2.009407243284681E8 ; 4.5350888379868346E8 ; 1.8047182539479893E10 ; 0.0
99 ; 5103442.184990918 ; 2.009462862952646E8 ; 4.586129927366247E8 ; 1.824812326380836E10 ; 0.0
100 ; 5099167.607530885 ; 2.0095184978151524E8 ; 4.6371643492161566E8 ; 1.8449069550103626E10 ; 0.0
101 ; 5095928.851542294 ; 2.009574143303421E8 ; 4.6881560252914655E8 ; 1.8650021399885143E10 ; 0.0
102 ; 5092541.954841509 ; 2.0096297949656355E8 ; 4.7391153138068885E8 ; 1.8850978814215485E10 ; 0.0
103 ; 5088231.745609578 ; 2.009685448462446E8 ; 4.7900407333553034E8 ; 1.9051941793712048E10 ; 0.0
104 ; 5086563.040981191 ; 2.0097410995626703E8 ; 4.840923050811399E8 ; 1.9252910338558292E10 ; 0.0
105 ; 5080231.519765804 ; 2.0097967441391784E8 ; 4.891788681221211E8 ; 1.945388444851456E10 ; 0.0
106 ; 5077911.339841525 ; 2.0098523781649587E8 ; 4.942590996418869E8 ; 1.965486412292848E10 ; 0.0
107 ; 5071192.696319591 ; 2.0099079977093515E8 ; 4.9933701098172843E8 ; 1.9855849360744972E10 ; 0.0
108 ; 5067673.514682512 ; 2.009963598934446E8 ; 5.04408203678048E8 ; 2.0056840160515907E10 ; 0.0
109 ; 5065692.937306027 ; 2.0100191780916318E8 ; 5.0947587719273055E8 ; 2.025783652040935E10 ; 0.0
110 ; 5057714.242607894 ; 2.0100747315183008E8 ; 5.145415701300366E8 ; 2.0458838438218513E10 ; 0.0
111 ; 5051977.009491332 ; 2.0101302556346864E8 ; 5.195992843726445E8 ; 2.0659845911370342E10 ; 0.0
112 ; 5049466.708976067 ; 2.010185746940843E8 ; 5.246512613821358E8 ; 2.086085893693381E10 ; 0.0
113 ; 5041072.671853499 ; 2.0102412020137495E8 ; 5.297007280911119E8 ; 2.1061877511627895E10 ; 0.0
114 ; 5037537.469915895 ; 2.0102966175045395E8 ; 5.347418007629654E8 ; 2.126290163182927E10 ; 0.0
115 ; 5034049.515782619 ; 2.0103519901358464E8 ; 5.397793382328813E8 ; 2.1463931293579723E10 ; 0.0
116 ; 5026815.413737838 ; 2.0104073166992635E8 ; 5.448133877486639E8 ; 2.1664966492593307E10 ; 0.0
117 ; 5027212.391033158 ; 2.010462594052908E8 ; 5.498402031624018E8 ; 2.1866007224263233E10 ; 0.0
118 ; 5018302.862574975 ; 2.010517819119092E8 ; 5.54867415553435E8 ; 2.2067053483668526E10 ; 0.0
119 ; 5010280.0898283385 ; 2.0105729888820842E8 ; 5.598857184160099E8 ; 2.2268105265580437E10 ; 0.0
120 ; 5006632.7229395965 ; 2.0106281003859723E8 ; 5.648959985058383E8 ; 2.2469162564468647E10 ; 0.0
121 ; 4998273.1657373505 ; 2.0106831507326105E8 ; 5.699026312287779E8 ; 2.2670225374507244E10 ; 0.0
122 ; 4991680.507294112 ; 2.0107381370796514E8 ; 5.749009043945153E8 ; 2.2871293689580505E10 ; 0.0
123 ; 4986246.187668774 ; 2.010793056638663E8 ; 5.798925849018093E8 ; 2.307236750328847E10 ; 0.0
124 ; 4979539.928457174 ; 2.0108479066733187E8 ; 5.848788310894781E8 ; 2.327344680895234E10 ; 0.0
125 ; 4973637.9955752995 ; 2.0109026844976658E8 ; 5.898583710179353E8 ; 2.347453159961967E10 ; 0.0
126 ; 4962959.2667172635 ; 2.010957387474461E8 ; 5.948320090135106E8 ; 2.367562186806944E10 ; 0.0
127 ; 4955463.094455954 ; 2.0110120130135772E8 ; 5.997949682802279E8 ; 2.3876717606816887E10 ; 0.0
128 ; 4948904.409198146 ; 2.0110665585704723E8 ; 6.047504313746839E8 ; 2.4077818808118244E10 ; 0.0
129 ; 4945691.737256874 ; 2.011121021644722E8 ; 6.09699335783882E8 ; 2.4278925463975292E10 ; 0.0
130 ; 4932907.153211541 ; 2.0111753997786096E8 ; 6.146450275211389E8 ; 2.4480037566139763E10 ; 0.0
131 ; 4922700.361854493 ; 2.0112296905557743E8 ; 6.195779346743505E8 ; 2.4681155106117622E10 ; 0.0
132 ; 4910625.310349505 ; 2.0112838915999126E8 ; 6.245006350362049E8 ; 2.48822780751732E10 ; 0.0
133 ; 4895756.309071683 ; 2.011338000573532E8 ; 6.294112603465544E8 ; 2.508340646433319E10 ; 0.0
134 ; 4887057.275361443 ; 2.0113920151767528E8 ; 6.34307016655626E8 ; 2.5284540264390545E10 ; 0.0
135 ; 4872058.431221227 ; 2.011445933146159E8 ; 6.391940739309875E8 ; 2.548567946590822E10 ; 0.0
136 ; 4855149.962370059 ; 2.011499752253694E8 ; 6.440661323622087E8 ; 2.5686824059222836E10 ; 0.0
137 ; 4842096.644182726 ; 2.0115534703055984E8 ; 6.489212823245788E8 ; 2.5887974034448204E10 ; 0.0
138 ; 4832178.4395019105 ; 2.0116070851413912E8 ; 6.537633789687614E8 ; 2.6089129381478764E10 ; 0.0
139 ; 4818798.3657234805 ; 2.0116605946328893E8 ; 6.585955574082633E8 ; 2.62902900899929E10 ; 0.0
140 ; 4803223.796745887 ; 2.0117139966832653E8 ; 6.634143557739868E8 ; 2.649145614945619E10 ; 0.0
141 ; 4786662.369302718 ; 2.0117672892261413E8 ; 6.682175795707327E8 ; 2.6692627549124516E10 ; 0.0
142 ; 4772537.003766767 ; 2.01182047022472E8 ; 6.730042419400355E8 ; 2.689380427804713E10 ; 0.0
143 ; 4759675.948591116 ; 2.0118735376709446E8 ; 6.777767789438022E8 ; 2.7094986325069603E10 ; 0.0
144 ; 4743562.98278161 ; 2.0119264895846957E8 ; 6.825364548923934E8 ; 2.7296173678836697E10 ; 0.0
145 ; 4734719.666028601 ; 2.0119793240130144E8 ; 6.87280017875175E8 ; 2.7497366327795166E10 ; 0.0
146 ; 4729539.526568239 ; 2.012032039029359E8 ; 6.920147375412036E8 ; 2.769856426019647E10 ; 0.0
147 ; 4721723.768776494 ; 2.012084632732885E8 ; 6.967442770677719E8 ; 2.7899767464099403E10 ; 0.0
148 ; 4715368.242084418 ; 2.0121371032477573E8 ; 7.014660008365484E8 ; 2.8100975927372692E10 ; 0.0
149 ; 4710627.2710283715 ; 2.0121894487224844E8 ; 7.061813690786328E8 ; 2.8302189637697468E10 ; 0.0
150 ; 4698815.856686242 ; 2.0122416673292786E8 ; 7.108919963496612E8 ; 2.8503408582569717E10 ; 0.0
151 ; 4695865.462819809 ; 2.0122937572634405E8 ; 7.155908122063475E8 ; 2.8704632749302647E10 ; 0.0
152 ; 4686101.631943011 ; 2.0123457167427653E8 ; 7.202866776691673E8 ; 2.890586212502899E10 ; 0.0
153 ; 4678199.473757739 ; 2.012397544006973E8 ; 7.249727793011103E8 ; 2.910709669670327E10 ; 0.0
154 ; 4670217.012841111 ; 2.0124492373171562E8 ; 7.29650978774868E8 ; 2.9308336451103966E10 ; 0.0
155 ; 4662794.514747726 ; 2.0125007949552518E8 ; 7.343211957877091E8 ; 2.9509581374835682E10 ; 0.0
156 ; 4652648.0778490035 ; 2.012552215223529E8 ; 7.389839903024569E8 ; 2.9710831454331207E10 ; 0.0
157 ; 4647388.56110702 ; 2.012603496444098E8 ; 7.436366383803059E8 ; 2.991208667585356E10 ; 0.0
158 ; 4638119.8436299 ; 2.0126546369584358E8 ; 7.482840269414129E8 ; 3.011334702549797E10 ; 0.0
159 ; 4627717.6543754805 ; 2.012705635126928E8 ; 7.529221467850429E8 ; 3.0314612489193813E10 ; 0.0
160 ; 4623070.528247081 ; 2.0127564893284294E8 ; 7.575498644394183E8 ; 3.0515883052706505E10 ; 0.0
161 ; 4616762.51012924 ; 2.012807197959838E8 ; 7.621729349676654E8 ; 3.0717158701639347E10 ; 0.0
162 ; 4605050.244348397 ; 2.0128577594356865E8 ; 7.667896974777946E8 ; 3.091843942143533E10 ; 0.0
163 ; 4601706.799521631 ; 2.012908172187746E8 ; 7.71394747722143E8 ; 3.11197251973789E10 ; 0.0
164 ; 4594426.793425554 ; 2.0129584346646455E8 ; 7.759964545216647E8 ; 3.132101601459767E10 ; 0.0
165 ; 4585251.996852478 ; 2.0130085453315043E8 ; 7.805908813150903E8 ; 3.1522311858064137E10 ; 0.0
166 ; 4577268.44490539 ; 2.0130585026695776E8 ; 7.851761333119428E8 ; 3.1723612712597286E10 ; 0.0
167 ; 4569394.578783081 ; 2.013108305175914E8 ; 7.897534017568482E8 ; 3.1924918562864243E10 ; 0.0
168 ; 4558212.980156904 ; 2.0131579513630253E8 ; 7.943227963356313E8 ; 3.2126229393381832E10 ; 0.0
169 ; 4555859.230016013 ; 2.0132074397585678E8 ; 7.988810093157881E8 ; 3.2327545188518135E10 ; 0.0
170 ; 4541445.202498364 ; 2.0132567689050356E8 ; 8.034368685458041E8 ; 3.252886593249399E10 ; 0.0
171 ; 4536185.466755575 ; 2.0133059373594627E8 ; 8.079783137483025E8 ; 3.2730191609384495E10 ; 0.0
172 ; 4528089.382144389 ; 2.0133549436931372E8 ; 8.125144992150581E8 ; 3.293152220312044E10 ; 0.0
173 ; 4519880.254272812 ; 2.0134037864913243E8 ; 8.170425885972024E8 ; 3.3132857697489754E10 ; 0.0
174 ; 4512353.988354124 ; 2.013452464352999E8 ; 8.215624688514752E8 ; 3.3334198076138885E10 ; 0.0
175 ; 4510731.5196962925 ; 2.0135009758905885E8 ; 8.260748228398293E8 ; 3.3535543322574184E10 ; 0.0
176 ; 4506048.442144964 ; 2.0135493197297224E8 ; 8.305855543595256E8 ; 3.3736893420163242E10 ; 0.0
177 ; 4496646.569250246 ; 2.0135974945089933E8 ; 8.350916028016706E8 ; 3.3938248352136215E10 ; 0.0
178 ; 4493771.066930784 ; 2.0136454988797233E8 ; 8.395882493709208E8 ; 3.4139608101587116E10 ; 0.0
179 ; 4484149.505102225 ; 2.013693331505739E8 ; 8.440820204378515E8 ; 3.434097265147509E10 ; 0.0
180 ; 4482238.073318052 ; 2.0137409910631567E8 ; 8.485661699429538E8 ; 3.454234198462566E10 ; 0.0
181 ; 4475384.884962441 ; 2.0137884762401697E8 ; 8.530484080162718E8 ; 3.474371608373198E10 ; 0.0
182 ; 4467437.757960108 ; 2.0138357857368487E8 ; 8.575237929012343E8 ; 3.4945094931355995E10 ; 0.0
183 ; 4464720.139773254 ; 2.013882918264944E8 ; 8.619912306591944E8 ; 3.514647850992968E10 ; 0.0
184 ; 4458613.704100651 ; 2.0139298725476968E8 ; 8.664559507989676E8 ; 3.534786680175617E10 ; 0.0
185 ; 4454378.0623361 ; 2.0139766473196572E8 ; 8.709145645030682E8 ; 3.554925978901094E10 ; 0.0
186 ; 4442081.696549962 ; 2.0140232413265067E8 ; 8.753689425654043E8 ; 3.5750657453742905E10 ; 0.0
187 ; 4443183.607410916 ; 2.014069653324887E8 ; 8.798110242619543E8 ; 3.595205977787556E10 ; 0.0
188 ; 4434958.928506216 ; 2.014115882082235E8 ; 8.842542078693652E8 ; 3.6153466743208046E10 ; 0.0
189 ; 4428052.660108388 ; 2.0141619263766238E8 ; 8.886891667978715E8 ; 3.635487833141627E10 ; 0.0
190 ; 4425541.362112836 ; 2.0142077849966082E8 ; 8.931172194579799E8 ; 3.655629452405393E10 ; 0.0
191 ; 4416522.06070313 ; 2.0142534567410737E8 ; 8.975427608200928E8 ; 3.67577153025536E10 ; 0.0
192 ; 4414435.749561512 ; 2.0142989404190943E8 ; 9.01959282880796E8 ; 3.695914064822771E10 ; 0.0
193 ; 4403897.043427646 ; 2.014344234849791E8 ; 9.063737186303575E8 ; 3.7160570542269615E10 ; 0.0
194 ; 4400448.125650828 ; 2.0143893388621986E8 ; 9.107776156737852E8 ; 3.736200496575459E10 ; 0.0
195 ; 4390573.73691681 ; 2.014434251295133E8 ; 9.151780637994361E8 ; 3.7563443899640816E10 ; 0.0
196 ; 4386578.274583236 ; 2.0144789709970665E8 ; 9.195686375363529E8 ; 3.776488732477033E10 ; 0.0
197 ; 4384931.408616728 ; 2.0145234968260047E8 ; 9.239552158109361E8 ; 3.796633522187004E10 ; 0.0
198 ; 4376901.231238445 ; 2.0145678276493686E8 ; 9.283401472195529E8 ; 3.816778757155264E10 ; 0.0
199 ; 4369484.499097468 ; 2.0146119623438796E8 ; 9.327170484507914E8 ; 3.836924435431758E10 ; 0.0
200 ; 4367454.675978271 ; 2.0146558997954503E8 ; 9.370865329498888E8 ; 3.857070555055197E10 ; 0.0
201 ; 4355846.023827738 ; 1.9291239884338474E8 ; 9.414539876258671E8 ; 3.877217114053152E10 ; 0.0
