CSV File for the City 6 on Day 7
1 - Minute m 
2 - Power Consumed at minute m 
3 - Power Produced at minute m 
4 - Energy Consumed since the beginning of the day 
5 - Energy Produced since the beginning of the day 
6 - Energy Lost since the beginning of the day on lines starting from the city
 
0 ; 1.1124462942122327E7 ; 1.0555708966160503E8 ; 0.0 ; 0.0 ; 0.0
1 ; 1.113790451234093E7 ; 1.0570618325655508E8 ; 1.1124462942122327E7 ; 1.0555708966160503E8 ; 0.0
2 ; 1.1147052049874961E7 ; 1.0616440795380333E8 ; 2.226236745446326E7 ; 2.112632729181601E8 ; 0.0
3 ; 1.1161839348751841E7 ; 1.0693178234342378E8 ; 3.340941950433822E7 ; 3.1742768087196344E8 ; 0.0
4 ; 1.1180076384256681E7 ; 1.0800832380688941E8 ; 4.457125885309006E7 ; 4.243594632153872E8 ; 0.0
5 ; 1.1201199399747536E7 ; 1.0939404820953399E8 ; 5.5751335237346746E7 ; 5.3236778702227664E8 ; 0.0
6 ; 1.1225675816110117E7 ; 1.1108896959807095E8 ; 6.695253463709428E7 ; 6.417618352318106E8 ; 0.0
7 ; 1.126469904231166E7 ; 1.1309309991513401E8 ; 7.81782104532044E7 ; 7.528508048298815E8 ; 0.0
8 ; 1.1314009398030354E7 ; 1.1540644874334157E8 ; 8.944290949551605E7 ; 8.659439047450156E8 ; 0.0
9 ; 1.139761841859754E7 ; 1.180290230910312E8 ; 1.007569188935464E8 ; 9.813503534883572E8 ; 0.0
10 ; 1.1519304238856368E7 ; 1.209608272304864E8 ; 1.1215453731214394E8 ; 1.0993793765793884E9 ; 0.0
11 ; 1.1717774935948057E7 ; 1.2420186259720406E8 ; 1.236738415510003E8 ; 1.2203402038098748E9 ; 0.0
12 ; 1.2033138358236508E7 ; 1.2775212775568727E8 ; 1.3539161648694834E8 ; 1.3445420664070787E9 ; 0.0
13 ; 1.2338695367760139E7 ; 1.3161161843365252E8 ; 1.4742475484518486E8 ; 1.472294194162766E9 ; 0.0
14 ; 1.2371021549047684E7 ; 1.3578032762276232E8 ; 1.59763450212945E8 ; 1.6039058125964184E9 ; 0.0
15 ; 1.2386056149819924E7 ; 1.4025824574039817E8 ; 1.721344717619927E8 ; 1.7396861402191806E9 ; 0.0
16 ; 1.2402798666551359E7 ; 1.4504536084392646E8 ; 1.845205279118126E8 ; 1.8799443859595788E9 ; 0.0
17 ; 1.241805528463475E7 ; 1.5014165888663366E8 ; 1.9692332657836396E8 ; 2.0249897468035052E9 ; 0.0
18 ; 1.243031850897889E7 ; 1.5554712400318605E8 ; 2.093413818629987E8 ; 2.175131405690139E9 ; 0.0
19 ; 1.2447014355865732E7 ; 1.6126173881211063E8 ; 2.217717003719776E8 ; 2.330678529693325E9 ; 0.0
20 ; 1.2461259405017965E7 ; 1.672854847233334E8 ; 2.3421871472784334E8 ; 2.4919402685054355E9 ; 0.0
21 ; 1.2476799430820618E7 ; 1.7361834224006048E8 ; 2.4667997413286132E8 ; 2.659225753228769E9 ; 0.0
22 ; 1.2490248367319595E7 ; 1.8026029124604148E8 ; 2.5915677356368193E8 ; 2.832844095468829E9 ; 0.0
23 ; 1.2502455630413976E7 ; 1.8721131127127075E8 ; 2.7164702193100154E8 ; 3.0131043867148705E9 ; 0.0
24 ; 1.2516368069165763E7 ; 1.9447138173126185E8 ; 2.841494775614155E8 ; 3.200315697986141E9 ; 0.0
25 ; 1.2530259238649266E7 ; 2.0072852303517428E8 ; 2.9666584563058126E8 ; 3.394787079717403E9 ; 0.0
26 ; 1.254300775674447E7 ; 2.0073626280215073E8 ; 3.091961048692305E8 ; 3.5955156027525773E9 ; 0.0
27 ; 1.256041882149294E7 ; 2.0074435053541476E8 ; 3.2173911262597495E8 ; 3.796251865554728E9 ; 0.0
28 ; 1.2573196804619435E7 ; 2.0075276698934817E8 ; 3.342995314474679E8 ; 3.9969962160901427E9 ; 0.0
29 ; 1.2584615179586392E7 ; 2.007614935562898E8 ; 3.4687272825208735E8 ; 4.1977489830794907E9 ; 0.0
30 ; 1.259943059627473E7 ; 2.0077051233597162E8 ; 3.5945734343167377E8 ; 4.39851047663578E9 ; 0.0
31 ; 1.2614983907995148E7 ; 2.0077980618372548E8 ; 3.720567740279485E8 ; 4.599280988971752E9 ; 0.0
32 ; 1.262489952400721E7 ; 2.0078935874041075E8 ; 3.8467175793594366E8 ; 4.800060795155478E9 ; 0.0
33 ; 1.2639364548533773E7 ; 2.007991544469343E8 ; 3.9729665745995086E8 ; 5.000850153895888E9 ; 0.0
34 ; 1.2652931793760212E7 ; 2.0080917854605517E8 ; 4.0993602200848466E8 ; 5.201649308342823E9 ; 0.0
35 ; 1.266197828200741E7 ; 2.0081941707392702E8 ; 4.225889538022449E8 ; 5.402458486888878E9 ; 0.0
36 ; 1.2673401468175463E7 ; 2.008298568435595E8 ; 4.352509320842523E8 ; 5.603277903962805E9 ; 0.0
37 ; 1.2683425029064428E7 ; 2.008404854220972E8 ; 4.4792433355242777E8 ; 5.804107760806364E9 ; 0.0
38 ; 1.2693620973552525E7 ; 2.0085129110353988E8 ; 4.606077585814922E8 ; 6.004948246228461E9 ; 0.0
39 ; 1.2702773544923062E7 ; 2.0086226287826762E8 ; 4.733013795550447E8 ; 6.205799537332001E9 ; 0.0
40 ; 1.2714438396671243E7 ; 2.0087339040049863E8 ; 4.860041530999678E8 ; 6.406661800210268E9 ; 0.0
41 ; 1.2724731072640922E7 ; 2.0088466395459592E8 ; 4.98718591496639E8 ; 6.607535190610766E9 ; 0.0
42 ; 1.2731180074805366E7 ; 2.0089607442095658E8 ; 5.114433225692799E8 ; 6.808419854565362E9 ; 0.0
43 ; 1.2739731505917616E7 ; 2.0090761324205855E8 ; 5.241745026440853E8 ; 7.009315928986319E9 ; 0.0
44 ; 1.2747941639157604E7 ; 2.0091927238910738E8 ; 5.36914234150003E8 ; 7.210223542228377E9 ; 0.0
45 ; 1.2752777575765334E7 ; 2.0093104432961386E8 ; 5.496621757891606E8 ; 7.411142814617485E9 ; 0.0
46 ; 1.2764161630988205E7 ; 2.0094292199614224E8 ; 5.62414953364926E8 ; 7.612073858947099E9 ; 0.0
47 ; 1.2764617062343862E7 ; 2.009548987563943E8 ; 5.751791149959142E8 ; 7.813016780943241E9 ; 0.0
48 ; 1.2770090314079324E7 ; 2.0096696838473472E8 ; 5.87943732058258E8 ; 8.0139716796996355E9 ; 0.0
49 ; 1.2774143823029425E7 ; 2.0097912503521606E8 ; 6.007138223723373E8 ; 8.214938648084371E9 ; 0.0
50 ; 1.2776283456966894E7 ; 2.0099136321612492E8 ; 6.134879661953667E8 ; 8.415917773119587E9 ; 0.0
51 ; 1.2782069077829223E7 ; 2.0100367776604173E8 ; 6.262642496523336E8 ; 8.616909136335712E9 ; 0.0
52 ; 1.2787274450341973E7 ; 2.010160638313862E8 ; 6.390463187301629E8 ; 8.817912814101753E9 ; 0.0
53 ; 1.2791592238516197E7 ; 2.0102851684540436E8 ; 6.518335931805048E8 ; 9.01892887793314E9 ; 0.0
54 ; 1.2792675185428893E7 ; 2.0104103250854164E8 ; 6.64625185419021E8 ; 9.219957394778543E9 ; 0.0
55 ; 1.2796620714190794E7 ; 2.010536067701401E8 ; 6.774178606044499E8 ; 9.420998427287085E9 ; 0.0
56 ; 1.2800502061652964E7 ; 2.0106623581139204E8 ; 6.902144813186407E8 ; 9.622052034057224E9 ; 0.0
57 ; 1.2802848649212498E7 ; 2.0107891602948084E8 ; 7.030149833802937E8 ; 9.823118269868616E9 ; 0.0
58 ; 1.280818542301969E7 ; 2.010916440228388E8 ; 7.158178320295062E8 ; 1.0024197185898096E10 ; 0.0
59 ; 1.2807766445942346E7 ; 2.011044165774525E8 ; 7.286260174525259E8 ; 1.0225288829920935E10 ; 0.0
60 ; 1.2815581158348577E7 ; 2.0111723065414777E8 ; 7.414337838984683E8 ; 1.0426393246498386E10 ; 0.0
61 ; 1.2813004080415852E7 ; 2.0113008337678868E8 ; 7.542493650568168E8 ; 1.0627510477152534E10 ; 0.0
62 ; 1.2815595081174156E7 ; 2.011429720213275E8 ; 7.670623691372327E8 ; 1.0828640560529324E10 ; 0.0
63 ; 1.2816118227632599E7 ; 2.0115589400564644E8 ; 7.798779642184068E8 ; 1.1029783532550652E10 ; 0.0
64 ; 1.2818660999445936E7 ; 2.0116884688013357E8 ; 7.926940824460394E8 ; 1.1230939426556297E10 ; 0.0
65 ; 1.282316514835937E7 ; 2.011818283189406E8 ; 8.055127434454854E8 ; 1.143210827343643E10 ; 0.0
66 ; 1.2822550107595582E7 ; 2.0119483611187214E8 ; 8.183359085938448E8 ; 1.1633290101755371E10 ; 0.0
67 ; 1.2827428640250903E7 ; 2.0120786815685955E8 ; 8.311584587014403E8 ; 1.1834484937867243E10 ; 0.0
68 ; 1.2825688496472394E7 ; 2.012209224529763E8 ; 8.439858873416913E8 ; 1.2035692806024103E10 ; 0.0
69 ; 1.2827804330451418E7 ; 2.012339970939539E8 ; 8.568115758381636E8 ; 1.223691372847708E10 ; 0.0
70 ; 1.2834383886937924E7 ; 2.0124709026216102E8 ; 8.69639380168615E8 ; 1.2438147725571033E10 ; 0.0
71 ; 1.2832821287440099E7 ; 2.0126020022301072E8 ; 8.82473764055553E8 ; 1.2639394815833195E10 ; 0.0
72 ; 1.2833096571164617E7 ; 2.012733253197639E8 ; 8.95306585342993E8 ; 1.2840655016056206E10 ; 0.0
73 ; 1.2835216313027311E7 ; 2.0128646396869847E8 ; 9.081396819141576E8 ; 1.3041928341375969E10 ; 0.0
74 ; 1.283585340852808E7 ; 2.0129961465461725E8 ; 9.209748982271849E8 ; 1.3243214805344667E10 ; 0.0
75 ; 1.2834404606690947E7 ; 2.0131277592666876E8 ; 9.33810751635713E8 ; 1.3444514419999285E10 ; 0.0
76 ; 1.2836146232867815E7 ; 2.0132594639445755E8 ; 9.46645156242404E8 ; 1.3645827195925953E10 ; 0.0
77 ; 1.2834174726779079E7 ; 2.0133912472442228E8 ; 9.594813024752718E8 ; 1.384715314232041E10 ; 0.0
78 ; 1.2833551189611657E7 ; 2.013523096364614E8 ; 9.723154772020509E8 ; 1.4048492267044832E10 ; 0.0
79 ; 1.2829477560103184E7 ; 2.0136549990078846E8 ; 9.851490283916626E8 ; 1.4249844576681293E10 ; 0.0
80 ; 1.2827006747282738E7 ; 2.0137869433499947E8 ; 9.979785059517658E8 ; 1.4451210076582083E10 ; 0.0
81 ; 1.2821407896461032E7 ; 2.0139189180133688E8 ; 1.0108055126990485E9 ; 1.4652588770917082E10 ; 0.0
82 ; 1.2819076844868168E7 ; 2.0140509120413595E8 ; 1.0236269205955095E9 ; 1.4853980662718418E10 ; 0.0
83 ; 1.2817543033075828E7 ; 2.014182914874397E8 ; 1.0364459974403777E9 ; 1.5055385753922554E10 ; 0.0
84 ; 1.2811660722031295E7 ; 2.0143149163277045E8 ; 1.0492635404734535E9 ; 1.5256804045409994E10 ; 0.0
85 ; 1.2805782805524291E7 ; 2.0144469065704677E8 ; 1.0620752011954849E9 ; 1.5458235537042765E10 ; 0.0
86 ; 1.2804869855902625E7 ; 2.0145788761063492E8 ; 1.0748809840010092E9 ; 1.5659680227699812E10 ; 0.0
87 ; 1.2797256913768368E7 ; 2.0147108157552558E8 ; 1.087685853856912E9 ; 1.5861138115310448E10 ; 0.0
88 ; 1.2792677645437295E7 ; 2.0148427166362673E8 ; 1.1004831107706802E9 ; 1.6062609196885973E10 ; 0.0
89 ; 1.2788026603545029E7 ; 2.0149745701516443E8 ; 1.1132757884161174E9 ; 1.62640934685496E10 ; 0.0
90 ; 1.2787129303163655E7 ; 2.015106367971843E8 ; 1.1260638150196624E9 ; 1.6465590925564766E10 ; 0.0
91 ; 1.277841199318289E7 ; 2.0152381020214587E8 ; 1.1388509443228261E9 ; 1.666710156236195E10 ; 0.0
92 ; 1.2776963364863189E7 ; 2.0153697644660452E8 ; 1.151629356316009E9 ; 1.6868625372564096E10 ; 0.0
93 ; 1.2771454077873217E7 ; 2.015501347699737E8 ; 1.1644063196808722E9 ; 1.70701623490107E10 ; 0.0
94 ; 1.2766298078423774E7 ; 2.0156328443336287E8 ; 1.1771777737587454E9 ; 1.7271712483780674E10 ; 0.0
95 ; 1.276165489711002E7 ; 2.0157642471848562E8 ; 1.1899440718371692E9 ; 1.7473275768214035E10 ; 0.0
96 ; 1.2753151388186812E7 ; 2.0158955492663345E8 ; 1.2027057267342792E9 ; 1.767485219293252E10 ; 0.0
97 ; 1.274686398751175E7 ; 2.016026743777102E8 ; 1.215458878122466E9 ; 1.7876441747859154E10 ; 0.0
98 ; 1.273917572750983E7 ; 2.0161578240932417E8 ; 1.2282057421099777E9 ; 1.8078044422236862E10 ; 0.0
99 ; 1.2733714860303061E7 ; 2.016288783759329E8 ; 1.2409449178374875E9 ; 1.8279660204646187E10 ; 0.0
100 ; 1.2730552486488692E7 ; 2.016419616480382E8 ; 1.2536786326977906E9 ; 1.848128908302212E10 ; 0.0
101 ; 1.272456666969225E7 ; 2.0165503161142728E8 ; 1.2664091851842792E9 ; 1.868293104467016E10 ; 0.0
102 ; 1.2720095156130632E7 ; 2.016680876664577E8 ; 1.2791337518539715E9 ; 1.8884586076281586E10 ; 0.0
103 ; 1.2709963559648192E7 ; 2.0168112922738296E8 ; 1.291853847010102E9 ; 1.9086254163948044E10 ; 0.0
104 ; 1.2705264338831034E7 ; 2.0169415572171602E8 ; 1.3045638105697503E9 ; 1.9287935293175426E10 ; 0.0
105 ; 1.2700452522555988E7 ; 2.0170716658962873E8 ; 1.3172690749085813E9 ; 1.9489629448897144E10 ; 0.0
106 ; 1.2693758086835347E7 ; 2.017201612833845E8 ; 1.3299695274311373E9 ; 1.9691336615486774E10 ; 0.0
107 ; 1.2684719927774094E7 ; 2.0173313926680264E8 ; 1.3426632855179727E9 ; 1.989305677677016E10 ; 0.0
108 ; 1.2681100768822622E7 ; 2.0174610001475158E8 ; 1.355348005445747E9 ; 2.0094789916036964E10 ; 0.0
109 ; 1.2671812913967887E7 ; 2.0175904301267028E8 ; 1.3680291062145696E9 ; 2.0296536016051716E10 ; 0.0
110 ; 1.26677501908151E7 ; 2.0177196775611502E8 ; 1.3807009191285374E9 ; 2.0498295059064384E10 ; 0.0
111 ; 1.2656203301875921E7 ; 2.017848737503309E8 ; 1.3933686693193526E9 ; 2.07000670268205E10 ; 0.0
112 ; 1.2646880459489351E7 ; 2.0179776050984594E8 ; 1.4060248726212285E9 ; 2.090185190057083E10 ; 0.0
113 ; 1.2641844524416015E7 ; 2.018106275580869E8 ; 1.4186717530807178E9 ; 2.1103649661080677E10 ; 0.0
114 ; 1.2633352484281592E7 ; 2.0182347442701495E8 ; 1.4313135976051338E9 ; 2.1305460288638763E10 ; 0.0
115 ; 1.2627927503843369E7 ; 2.0183630065678078E8 ; 1.4439469500894153E9 ; 2.1507283763065777E10 ; 0.0
116 ; 1.2615958754331477E7 ; 2.018491057953974E8 ; 1.4565748775932586E9 ; 2.1709120063722557E10 ; 0.0
117 ; 1.2612655008622421E7 ; 2.0186188939842966E8 ; 1.4691908363475902E9 ; 2.1910969169517956E10 ; 0.0
118 ; 1.260224596999258E7 ; 2.018746510287E8 ; 1.4818034913562126E9 ; 2.2112831058916386E10 ; 0.0
119 ; 1.25959292567537E7 ; 2.0188739025600874E8 ; 1.4944057373262053E9 ; 2.2314705709945087E10 ; 0.0
120 ; 1.2586285507324517E7 ; 2.0190010665686893E8 ; 1.507001666582959E9 ; 2.2516593100201096E10 ; 0.0
121 ; 1.2579675378058676E7 ; 2.0191279981425413E8 ; 1.5195879520902834E9 ; 2.2718493206857964E10 ; 0.0
122 ; 1.257298775866476E7 ; 2.0192546931735897E8 ; 1.532167627468342E9 ; 2.292040600667222E10 ; 0.0
123 ; 1.2561515120476693E7 ; 2.0193811476137155E8 ; 1.544740615227007E9 ; 2.312233147598958E10 ; 0.0
124 ; 1.2549699400673985E7 ; 2.0195073574725702E8 ; 1.5573021303474836E9 ; 2.332426959075095E10 ; 0.0
125 ; 1.2543520441787804E7 ; 2.019633318815516E8 ; 1.5698518297481575E9 ; 2.3526220326498207E10 ; 0.0
126 ; 1.2534831222865356E7 ; 2.0197590277616695E8 ; 1.5823953501899452E9 ; 2.3728183658379757E10 ; 0.0
127 ; 1.252656136704864E7 ; 2.0198844804820365E8 ; 1.5949301814128106E9 ; 2.3930159561155926E10 ; 0.0
128 ; 1.2515899473995373E7 ; 2.0200096731977376E8 ; 1.6074567427798593E9 ; 2.413214800920413E10 ; 0.0
129 ; 1.2504323402686652E7 ; 2.020134602178321E8 ; 1.6199726422538548E9 ; 2.4334148976523903E10 ; 0.0
130 ; 1.2496093657923652E7 ; 2.0202592637401488E8 ; 1.6324769656565413E9 ; 2.4536162436741734E10 ; 0.0
131 ; 1.248233011862027E7 ; 2.0203836542448685E8 ; 1.644973059314465E9 ; 2.473818836311575E10 ; 0.0
132 ; 1.2464084116070623E7 ; 2.0205077700979477E8 ; 1.6574553894330852E9 ; 2.4940226728540237E10 ; 0.0
133 ; 1.245317336977924E7 ; 2.0206316077472824E8 ; 1.6699194735491557E9 ; 2.5142277505550034E10 ; 0.0
134 ; 1.244176745254087E7 ; 2.020755163681869E8 ; 1.682372646918935E9 ; 2.534434066632476E10 ; 0.0
135 ; 1.2427590490910694E7 ; 2.0208784344305348E8 ; 1.694814414371476E9 ; 2.5546416182692947E10 ; 0.0
136 ; 1.2416012879114993E7 ; 2.021001416560731E8 ; 1.7072420048623867E9 ; 2.5748504026136E10 ; 0.0
137 ; 1.2398472670683533E7 ; 2.021124106677377E8 ; 1.7196580177415018E9 ; 2.5950604167792076E10 ; 0.0
138 ; 1.2382970715475744E7 ; 2.0212465014217603E8 ; 1.7320564904121854E9 ; 2.6152716578459812E10 ; 0.0
139 ; 1.2366420554435195E7 ; 2.0213685974704832E8 ; 1.7444394611276612E9 ; 2.635484122860199E10 ; 0.0
140 ; 1.235496949824456E7 ; 2.021490391534459E8 ; 1.7568058816820965E9 ; 2.6556978088349037E10 ; 0.0
141 ; 1.2337491124222307E7 ; 2.0216118803579524E8 ; 1.769160851180341E9 ; 2.6759127127502483E10 ; 0.0
142 ; 1.2326507650249999E7 ; 2.0217330607176626E8 ; 1.7814983423045633E9 ; 2.696128831553828E10 ; 0.0
143 ; 1.2309893658894332E7 ; 2.021853929421846E8 ; 1.7938248499548132E9 ; 2.7163461621610046E10 ; 0.0
144 ; 1.229605141832476E7 ; 2.0219744833094805E8 ; 1.8061347436137075E9 ; 2.736564701455223E10 ; 0.0
145 ; 1.228588022757089E7 ; 2.0220947192494625E8 ; 1.8184307950320323E9 ; 2.756784446288318E10 ; 0.0
146 ; 1.2273191289754175E7 ; 2.0222146341398424E8 ; 1.830716675259603E9 ; 2.7770053934808125E10 ; 0.0
147 ; 1.2264683659288362E7 ; 2.0223342249070913E8 ; 1.8429898665493572E9 ; 2.7972275398222107E10 ; 0.0
148 ; 1.2254004460269956E7 ; 2.0224534885054004E8 ; 1.8552545502086456E9 ; 2.8174508820712814E10 ; 0.0
149 ; 1.2243739106088355E7 ; 2.0225724219160107E8 ; 1.8675085546689155E9 ; 2.8376754169563354E10 ; 0.0
150 ; 1.223266059710488E7 ; 2.0226910221465704E8 ; 1.879752293775004E9 ; 2.8579011411754955E10 ; 0.0
151 ; 1.2223063916412685E7 ; 2.0228092862305215E8 ; 1.8919849543721087E9 ; 2.8781280513969612E10 ; 0.0
152 ; 1.2213188460203404E7 ; 2.022927211226511E8 ; 1.9042080182885213E9 ; 2.8983561442592663E10 ; 0.0
153 ; 1.219923478578054E7 ; 2.0230447942178282E8 ; 1.9164212067487247E9 ; 2.9185854163715313E10 ; 0.0
154 ; 1.21909146011912E7 ; 2.0231620323118642E8 ; 1.9286204415345051E9 ; 2.9388158643137096E10 ; 0.0
155 ; 1.2182958498703005E7 ; 2.023278922639597E8 ; 1.9408113561356964E9 ; 2.9590474846368282E10 ; 0.0
156 ; 1.2166449608509503E7 ; 2.023395462355096E8 ; 1.9529943146343994E9 ; 2.979280273863224E10 ; 0.0
157 ; 1.2158018121289756E7 ; 2.0235116486350468E8 ; 1.965160764242909E9 ; 2.999514228486775E10 ; 0.0
158 ; 1.2147619464028109E7 ; 2.0236274786782983E8 ; 1.9773187823641987E9 ; 3.0197493449731255E10 ; 0.0
159 ; 1.2136539766087124E7 ; 2.0237429497054267E8 ; 1.9894664018282268E9 ; 3.0399856197599083E10 ; 0.0
160 ; 1.212711692216226E7 ; 2.0238580589583176E8 ; 2.0016029415943139E9 ; 3.0602230492569626E10 ; 0.0
161 ; 1.2111900799652614E7 ; 2.0239728036997673E8 ; 2.0137300585164762E9 ; 3.0804616298465458E10 ; 0.0
162 ; 1.2098642893068587E7 ; 2.024087181213097E8 ; 2.0258419593161287E9 ; 3.1007013578835434E10 ; 0.0
163 ; 1.2094967020078056E7 ; 2.0242011888017872E8 ; 2.0379406022091973E9 ; 3.1209422296956745E10 ; 0.0
164 ; 1.2083035970122596E7 ; 2.0243148237891245E8 ; 2.0500355692292752E9 ; 3.1411842415836926E10 ; 0.0
165 ; 1.2066915004831728E7 ; 2.024428083517862E8 ; 2.0621186051993978E9 ; 3.161427389821584E10 ; 0.0
166 ; 1.2056492144337898E7 ; 2.0245409653498968E8 ; 2.0741855202042296E9 ; 3.1816716706567627E10 ; 0.0
167 ; 1.2046630078786638E7 ; 2.0246534666659582E8 ; 2.0862420123485675E9 ; 3.2019170803102615E10 ; 0.0
168 ; 1.2035819671978623E7 ; 2.024765584865308E8 ; 2.098288642427354E9 ; 3.222163614976921E10 ; 0.0
169 ; 1.202398244123868E7 ; 2.0248773173654562E8 ; 2.1103244620993328E9 ; 3.242411270825574E10 ; 0.0
170 ; 1.2011225067745348E7 ; 2.0249886616018847E8 ; 2.1223484445405715E9 ; 3.2626600439992287E10 ; 0.0
171 ; 1.2000335132588249E7 ; 2.025099615027785E8 ; 2.134359669608317E9 ; 3.2829099306152473E10 ; 0.0
172 ; 1.1988912465783086E7 ; 2.0252101751138037E8 ; 2.146360004740905E9 ; 3.303160926765525E10 ; 0.0
173 ; 1.197699077246873E7 ; 2.025320339347802E8 ; 2.158348917206688E9 ; 3.323413028516663E10 ; 0.0
174 ; 1.197136848348573E7 ; 2.025430105234621E8 ; 2.1703259079791565E9 ; 3.343666231910141E10 ; 0.0
175 ; 1.1965322142242309E7 ; 2.0255394702958584E8 ; 2.182297276462642E9 ; 3.363920532962487E10 ; 0.0
176 ; 1.1952859212716438E7 ; 2.0256484320696557E8 ; 2.1942625986048846E9 ; 3.3841759276654457E10 ; 0.0
177 ; 1.1954825652218472E7 ; 2.0257569881104907E8 ; 2.206215457817601E9 ; 3.4044324119861423E10 ; 0.0
178 ; 1.194159435934748E7 ; 2.0258651359889805E8 ; 2.2181702834698195E9 ; 3.4246899818672474E10 ; 0.0
179 ; 1.193581673087787E7 ; 2.0259728732916927E8 ; 2.230111877829167E9 ; 3.444948633227137E10 ; 0.0
180 ; 1.193215135520148E7 ; 2.0260801976209626E8 ; 2.242047694560045E9 ; 3.465208361960054E10 ; 0.0
181 ; 1.1923782367786702E7 ; 2.0261871065947193E8 ; 2.253979845915246E9 ; 3.485469163936263E10 ; 0.0
182 ; 1.1917464966356725E7 ; 2.026293597846317E8 ; 2.265903628283033E9 ; 3.50573103500221E10 ; 0.0
183 ; 1.1908286006204598E7 ; 2.026399669024377E8 ; 2.2778210932493896E9 ; 3.525993970980673E10 ; 0.0
184 ; 1.190091350712165E7 ; 2.0265053177926302E8 ; 2.2897293792555943E9 ; 3.546257967670917E10 ; 0.0
185 ; 1.1891821282528833E7 ; 2.0266105418297714E8 ; 2.301630292762716E9 ; 3.5665230208488434E10 ; 0.0
186 ; 1.1882808821830798E7 ; 2.0267153388293168E8 ; 2.3135221140452447E9 ; 3.586789126267141E10 ; 0.0
187 ; 1.1878737825155746E7 ; 2.0268197064994666E8 ; 2.3254049228670754E9 ; 3.6070562796554344E10 ; 0.0
188 ; 1.1869350673205445E7 ; 2.0269236425629762E8 ; 2.337283660692231E9 ; 3.627324476720429E10 ; 0.0
189 ; 1.1864660689450406E7 ; 2.0270271447570294E8 ; 2.3491530113654366E9 ; 3.647593713146059E10 ; 0.0
190 ; 1.1859757610766E7 ; 2.0271302108331198E8 ; 2.361017672054887E9 ; 3.667863984593629E10 ; 0.0
191 ; 1.1851451997750456E7 ; 2.0272328385569325E8 ; 2.3728774296656528E9 ; 3.68813528670196E10 ; 0.0
192 ; 1.1844607008713689E7 ; 2.0273350257082373E8 ; 2.384728881663403E9 ; 3.708407615087529E10 ; 0.0
193 ; 1.1838891186931003E7 ; 2.0274367700807795E8 ; 2.3965734886721168E9 ; 3.728680965344611E10 ; 0.0
194 ; 1.1828504247595584E7 ; 2.0275380694821805E8 ; 2.408412379859048E9 ; 3.748955333045419E10 ; 0.0
195 ; 1.1825479079582775E7 ; 2.0276389217338383E8 ; 2.4202408841066437E9 ; 3.769230713740241E10 ; 0.0
