CSV File for the City 4 on Day 250
1 - Minute m 
2 - Power Consumed at minute m 
3 - Power Produced at minute m 
4 - Energy Consumed since the beginning of the day 
5 - Energy Produced since the beginning of the day 
6 - Energy Lost since the beginning of the day on lines starting from the city
 
0 ; 1511931.8412235545 ; 1.0575272027173069E8 ; 0.0 ; 0.0 ; 0.0
1 ; 1517856.773433806 ; 1.05902385026407E8 ; 1511931.8412235545 ; 1.0575272027173069E8 ; 0.0
2 ; 1521261.3929528224 ; 1.0636114937624004E8 ; 3029788.61465736 ; 2.116551052981377E8 ; 0.0
3 ; 1531646.720350192 ; 1.0712902360312283E8 ; 4551050.007610182 ; 3.1801625467437774E8 ; 0.0
4 ; 1542319.9435472002 ; 1.0820601709274149E8 ; 6082696.727960374 ; 4.2514527827750057E8 ; 0.0
5 ; 1554759.3669227536 ; 1.0959213822799832E8 ; 7625016.671507575 ; 5.3335129537024206E8 ; 0.0
6 ; 1570402.571078965 ; 1.1128739428972444E8 ; 9179776.038430328 ; 6.429434335982404E8 ; 0.0
7 ; 1594505.8715829342 ; 1.1329179136727518E8 ; 1.0750178609509293E7 ; 7.542308278879648E8 ; 0.0
8 ; 1627358.3075991757 ; 1.1560533428147274E8 ; 1.2344684481092228E7 ; 8.6752261925524E8 ; 0.0
9 ; 1677013.2162026677 ; 1.1822802652211583E8 ; 1.3972042788691403E7 ; 9.831279535367126E8 ; 0.0
10 ; 1754471.2565413772 ; 1.2115987020191884E8 ; 1.564905600489407E7 ; 1.1013559800588284E9 ; 0.0
11 ; 1872922.3653431295 ; 1.2440086602828869E8 ; 1.740352726143545E7 ; 1.2225158502607472E9 ; 0.0
12 ; 2075520.992696698 ; 1.2795101329381844E8 ; 1.927644962677858E7 ; 1.3469167162890358E9 ; 0.0
13 ; 2263222.4509356045 ; 1.3181030988579369E8 ; 2.135197061947528E7 ; 1.4748677295828543E9 ; 0.0
14 ; 2286130.098577198 ; 1.359787523144158E8 ; 2.3615193070410885E7 ; 1.606678039468648E9 ; 0.0
15 ; 2296056.8292841916 ; 1.404563357588625E8 ; 2.5901323168988083E7 ; 1.742656791783064E9 ; 0.0
16 ; 2303823.7988543427 ; 1.4524305412977853E8 ; 2.8197379998272274E7 ; 1.8831131275419264E9 ; 0.0
17 ; 2311949.116043191 ; 1.503389001463327E8 ; 3.0501203797126617E7 ; 2.028356181671705E9 ; 0.0
18 ; 2325029.7395163444 ; 1.5574386542562276E8 ; 3.281315291316981E7 ; 2.1786950818180375E9 ; 0.0
19 ; 2329907.997557831 ; 1.6145794058196256E8 ; 3.513818265268616E7 ; 2.3344389472436604E9 ; 0.0
20 ; 2340899.85429452 ; 1.6748111533345905E8 ; 3.746809065024399E7 ; 2.495896887825623E9 ; 0.0
21 ; 2347417.500663089 ; 1.7381337861326942E8 ; 3.9808990504538506E7 ; 2.663378003159082E9 ; 0.0
22 ; 2356976.979426793 ; 1.8045471868301743E8 ; 4.215640800520159E7 ; 2.8371913817723513E9 ; 0.0
23 ; 2364789.3597263456 ; 1.8740512324602234E8 ; 4.451338498462839E7 ; 3.0176461004553685E9 ; 0.0
24 ; 2373010.932559747 ; 1.9466457955823702E8 ; 4.6878174344354734E7 ; 3.2050512237013907E9 ; 0.0
25 ; 2383560.3347465466 ; 2.0092111543326893E8 ; 4.925118527691448E7 ; 3.399715803259628E9 ; 0.0
26 ; 2392907.798681427 ; 2.0092826538051796E8 ; 5.1634745611661024E7 ; 3.600636918692897E9 ; 0.0
27 ; 2399721.8325239946 ; 2.009357852245625E8 ; 5.4027653410342455E7 ; 3.801565184073415E9 ; 0.0
28 ; 2409057.0967370896 ; 2.009436614388099E8 ; 5.642737524286645E7 ; 4.0025009692979774E9 ; 0.0
29 ; 2418443.7222631965 ; 2.0095188051746958E8 ; 5.8836432339603536E7 ; 4.2034446307367873E9 ; 0.0
30 ; 2426936.8978839647 ; 2.0096042904585585E8 ; 6.125487606186673E7 ; 4.404396511254257E9 ; 0.0
31 ; 2432398.795654046 ; 2.0096929376222524E8 ; 6.36818129597507E7 ; 4.605356940300113E9 ; 0.0
32 ; 2443486.945490115 ; 2.0097846161130494E8 ; 6.611421175540474E7 ; 4.806326234062338E9 ; 0.0
33 ; 2451868.790129196 ; 2.0098791978982586E8 ; 6.855769870089486E7 ; 5.007304695673643E9 ; 0.0
34 ; 2454865.1635749005 ; 2.0099765578449506E8 ; 7.100956749102406E7 ; 5.208292615463469E9 ; 0.0
35 ; 2465075.298618546 ; 2.010076574029275E8 ; 7.346443265459897E7 ; 5.409290271247964E9 ; 0.0
36 ; 2471472.9251113525 ; 2.0101791279811442E8 ; 7.59295079532175E7 ; 5.610297928650891E9 ; 0.0
37 ; 2477656.767690369 ; 2.0102841048703417E8 ; 7.840098087832886E7 ; 5.811315841449006E9 ; 0.0
38 ; 2486971.8573242985 ; 2.0103913936402038E8 ; 8.087863764601924E7 ; 6.01234425193604E9 ; 0.0
39 ; 2493679.16921504 ; 2.010500887094943E8 ; 8.336560950334354E7 ; 6.21338339130006E9 ; 0.0
40 ; 2500469.073347125 ; 2.010612481946447E8 ; 8.585928867255858E7 ; 6.414433480009555E9 ; 0.0
41 ; 2502801.341094116 ; 2.0107260788260922E8 ; 8.83597577459057E7 ; 6.6154947282042E9 ; 0.0
42 ; 2509243.319061521 ; 2.0108415822667143E8 ; 9.086255908699982E7 ; 6.816567336086809E9 ; 0.0
43 ; 2516212.475222897 ; 2.0109589006594673E8 ; 9.337180240606134E7 ; 7.01765149431348E9 ; 0.0
44 ; 2520302.892292603 ; 2.0110779461898673E8 ; 9.588801488128424E7 ; 7.218747384379427E9 ; 0.0
45 ; 2526621.3043034417 ; 2.011198634756868E8 ; 9.840831777357684E7 ; 7.419855178998414E9 ; 0.0
46 ; 2530819.105519059 ; 2.0113208858783913E8 ; 1.0093493907788028E8 ; 7.620975042474101E9 ; 0.0
47 ; 2533086.243742548 ; 2.0114446225863224E8 ; 1.0346575818339933E8 ; 7.82210713106194E9 ; 0.0
48 ; 2538271.812944886 ; 2.011569771313594E8 ; 1.0599884442714188E8 ; 8.023251593320573E9 ; 0.0
49 ; 2543466.6040309775 ; 2.0116962617756206E8 ; 1.0853711624008676E8 ; 8.224408570451932E9 ; 0.0
50 ; 2544217.879333444 ; 2.0118240268480274E8 ; 1.1108058284411775E8 ; 8.425578196629494E9 ; 0.0
51 ; 2548851.170017397 ; 2.0119530024423137E8 ; 1.136248007234512E8 ; 8.626760599314297E9 ; 0.0
52 ; 2550011.663207786 ; 2.012083127380831E8 ; 1.1617365189346859E8 ; 8.827955899558529E9 ; 0.0
53 ; 2552210.931014286 ; 2.0122143432722217E8 ; 1.1872366355667637E8 ; 9.029164212296612E9 ; 0.0
54 ; 2555126.6587412166 ; 2.0123465943882576E8 ; 1.2127587448769066E8 ; 9.230385646623835E9 ; 0.0
55 ; 2559771.7662834846 ; 2.012479827542838E8 ; 1.2383100114643188E8 ; 9.43162030606266E9 ; 0.0
56 ; 2562845.3434939403 ; 2.0126139919737497E8 ; 1.2639077291271536E8 ; 9.632868288816944E9 ; 0.0
57 ; 2564283.0166126764 ; 2.0127490392276624E8 ; 1.289536182562093E8 ; 9.834129688014318E9 ; 0.0
58 ; 2565202.891636556 ; 2.0128849230487078E8 ; 1.3151790127282198E8 ; 1.0035404591937084E10 ; 0.0
59 ; 2568969.6710683373 ; 2.013021599270907E8 ; 1.3408310416445853E8 ; 1.0236693084241955E10 ; 0.0
60 ; 2572963.025870179 ; 2.0131590257146198E8 ; 1.3665207383552685E8 ; 1.0437995244169046E10 ; 0.0
61 ; 2572562.3644359806 ; 2.0132971620871186E8 ; 1.3922503686139703E8 ; 1.0639311146740509E10 ; 0.0
62 ; 2573840.555200056 ; 2.013435969887346E8 ; 1.41797599225833E8 ; 1.084064086294922E10 ; 0.0
63 ; 2578363.505946386 ; 2.0135754123148525E8 ; 1.4437143978103307E8 ; 1.1041984459937956E10 ; 0.0
64 ; 2582245.7209607614 ; 2.013715454182882E8 ; 1.4694980328697947E8 ; 1.1243342001169441E10 ; 0.0
65 ; 2583046.977820727 ; 2.0138560618355444E8 ; 1.4953204900794023E8 ; 1.1444713546587729E10 ; 0.0
66 ; 2586909.836209905 ; 2.0139972030689833E8 ; 1.5211509598576096E8 ; 1.1646099152771282E10 ; 0.0
67 ; 2585212.5306599233 ; 2.014138847056431E8 ; 1.5470200582197085E8 ; 1.184749887307818E10 ; 0.0
68 ; 2588927.2208944852 ; 2.0142809642770335E8 ; 1.5728721835263076E8 ; 1.2048912757783823E10 ; 0.0
69 ; 2589645.66241034 ; 2.0144235264483118E8 ; 1.5987614557352525E8 ; 1.2250340854211527E10 ; 0.0
70 ; 2591953.870163447 ; 2.0145665064621222E8 ; 1.624657912359356E8 ; 1.2451783206856358E10 ; 0.0
71 ; 2592146.4255779223 ; 2.0147098783239734E8 ; 1.6505774510609904E8 ; 1.265323985750257E10 ; 0.0
72 ; 2594070.9353224332 ; 2.014853617095556E8 ; 1.6764989153167695E8 ; 1.2854710845334967E10 ; 0.0
73 ; 2596296.8020761115 ; 2.014997698840338E8 ; 1.7024396246699938E8 ; 1.3056196207044521E10 ; 0.0
74 ; 2598027.7250391105 ; 2.015142100572087E8 ; 1.7284025926907548E8 ; 1.3257695976928555E10 ; 0.0
75 ; 2597567.0440414003 ; 2.015286800206171E8 ; 1.754382869941146E8 ; 1.3459210186985764E10 ; 0.0
76 ; 2602968.8290495146 ; 2.015431776513507E8 ; 1.78035854038156E8 ; 1.366073886700638E10 ; 0.0
77 ; 2601215.229559203 ; 2.0155770090770152E8 ; 1.8063882286720553E8 ; 1.386228204465773E10 ; 0.0
78 ; 2604110.9133402263 ; 2.015722478250453E8 ; 1.8324003809676474E8 ; 1.4063839745565432E10 ; 0.0
79 ; 2601070.266955476 ; 2.0158681651195034E8 ; 1.8584414901010498E8 ; 1.4265411993390476E10 ; 0.0
80 ; 2601075.00796054 ; 2.0160140514649957E8 ; 1.8844521927706045E8 ; 1.4466998809902426E10 ; 0.0
81 ; 2597985.2161129485 ; 2.0161601197281405E8 ; 1.9104629428502098E8 ; 1.4668600215048925E10 ; 0.0
82 ; 2598050.4947583205 ; 2.0163063529776737E8 ; 1.9364427950113392E8 ; 1.487021622702174E10 ; 0.0
83 ; 2595982.126169654 ; 2.0164527348787975E8 ; 1.9624232999589223E8 ; 1.5071846862319508E10 ; 0.0
84 ; 2594192.784105101 ; 2.0165992496638268E8 ; 1.9883831212206188E8 ; 1.5273492135807388E10 ; 0.0
85 ; 2593942.1367868343 ; 2.016745882104434E8 ; 2.0143250490616697E8 ; 1.5475152060773771E10 ; 0.0
86 ; 2593364.615070628 ; 2.0168926174854138E8 ; 2.0402644704295382E8 ; 1.5676826648984215E10 ; 0.0
87 ; 2589597.3918313067 ; 2.0170394415798724E8 ; 2.0661981165802446E8 ; 1.5878515910732756E10 ; 0.0
88 ; 2589336.3294521114 ; 2.0171863406257674E8 ; 2.0920940904985577E8 ; 1.6080219854890743E10 ; 0.0
89 ; 2588069.896676603 ; 2.017333301303715E8 ; 2.1179874537930787E8 ; 1.628193848895332E10 ; 0.0
90 ; 2586436.1062681 ; 2.017480310715999E8 ; 2.1438681527598447E8 ; 1.648367181908369E10 ; 0.0
91 ; 2585326.8518795334 ; 2.017627356366706E8 ; 2.1697325138225257E8 ; 1.668541985015529E10 ; 0.0
92 ; 2584152.308955573 ; 2.017774426142929E8 ; 2.195585782341321E8 ; 1.6887182585791962E10 ; 0.0
93 ; 2579840.7371491874 ; 2.0179215082969725E8 ; 2.221427305430877E8 ; 1.7088960028406254E10 ; 0.0
94 ; 2578303.556328838 ; 2.0180685914295074E8 ; 2.2472257128023687E8 ; 1.729075217923595E10 ; 0.0
95 ; 2576494.5421094648 ; 2.0182156644736168E8 ; 2.273008748365657E8 ; 1.7492559038378902E10 ; 0.0
96 ; 2576032.1678203274 ; 2.018362716679683E8 ; 2.2987736937867516E8 ; 1.7694380604826263E10 ; 0.0
97 ; 2576960.5716173607 ; 2.0185097376010725E8 ; 2.324534015464955E8 ; 1.7896216876494232E10 ; 0.0
98 ; 2572365.036335824 ; 2.0186567170805645E8 ; 2.3503036211811286E8 ; 1.809806785025434E10 ; 0.0
99 ; 2569997.2171285558 ; 2.0188036452374917E8 ; 2.376027271544487E8 ; 1.82999335219624E10 ; 0.0
100 ; 2570357.025283394 ; 2.0189505124555433E8 ; 2.4017272437157723E8 ; 1.850181388648615E10 ; 0.0
101 ; 2566160.531723608 ; 2.0190973093711978E8 ; 2.4274308139686063E8 ; 1.8703708937731705E10 ; 0.0
102 ; 2563946.454356516 ; 2.0192440268627524E8 ; 2.4530924192858425E8 ; 1.8905618668668823E10 ; 0.0
103 ; 2562426.3830561466 ; 2.0193906560399088E8 ; 2.4787318838294077E8 ; 1.91075430713551E10 ; 0.0
104 ; 2558589.411430197 ; 2.0195371882338908E8 ; 2.504356147659969E8 ; 1.930948213695909E10 ; 0.0
105 ; 2556781.934380095 ; 2.01968361498806E8 ; 2.529942041774271E8 ; 1.9511435855782482E10 ; 0.0
106 ; 2554892.2880903287 ; 2.0198299280490038E8 ; 2.555509861118072E8 ; 1.971340421728129E10 ; 0.0
107 ; 2549274.2453773622 ; 2.019976119358071E8 ; 2.5810587839989752E8 ; 1.991538721008619E10 ; 0.0
108 ; 2551094.362487697 ; 2.0201221810433257E8 ; 2.6065515264527488E8 ; 2.0117384822021996E10 ; 0.0
109 ; 2548575.414843343 ; 2.0202681054119015E8 ; 2.6320624700776258E8 ; 2.0319397040126328E10 ; 0.0
110 ; 2544659.227960855 ; 2.020413884942732E8 ; 2.6575482242260593E8 ; 2.052142385066752E10 ; 0.0
111 ; 2540149.9544791444 ; 2.020559512279636E8 ; 2.682994816505668E8 ; 2.0723465239161793E10 ; 0.0
112 ; 2537950.6742361053 ; 2.020704980224743E8 ; 2.708396316050459E8 ; 2.0925521190389755E10 ; 0.0
113 ; 2535227.498516687 ; 2.0208502817322323E8 ; 2.7337758227928203E8 ; 2.112759168841223E10 ; 0.0
114 ; 2532736.043213826 ; 2.0209954099023783E8 ; 2.759128097777987E8 ; 2.1329676716585453E10 ; 0.0
115 ; 2531776.5652452987 ; 2.0211403579758784E8 ; 2.7844554582101256E8 ; 2.153177625757569E10 ; 0.0
116 ; 2528854.390225142 ; 2.0212851193284532E8 ; 2.809773223862578E8 ; 2.173389029337328E10 ; 0.0
117 ; 2523944.4186923574 ; 2.0214296874657005E8 ; 2.8350617677648294E8 ; 2.1936018805306126E10 ; 0.0
118 ; 2522963.7681533406 ; 2.0215740560181955E8 ; 2.860301211951753E8 ; 2.2138161774052696E10 ; 0.0
119 ; 2520828.1558254873 ; 2.021718218736816E8 ; 2.8855308496332866E8 ; 2.2340319179654514E10 ; 0.0
120 ; 2517562.887439436 ; 2.0218621694882914E8 ; 2.9107391311915416E8 ; 2.2542491001528194E10 ; 0.0
121 ; 2514075.515827511 ; 2.0220059022509524E8 ; 2.935914760065936E8 ; 2.2744677218477024E10 ; 0.0
122 ; 2508133.0815527653 ; 2.0221494111106813E8 ; 2.961055515224211E8 ; 2.2946877808702118E10 ; 0.0
123 ; 2505796.5837417245 ; 2.0222926902570468E8 ; 2.9861368460397387E8 ; 2.3149092749813187E10 ; 0.0
124 ; 2504386.1996574798 ; 2.0224357339796135E8 ; 3.011194811877156E8 ; 2.335132201883889E10 ; 0.0
125 ; 2499515.0871792277 ; 2.0225785366644225E8 ; 3.036238673873731E8 ; 2.355356559223685E10 ; 0.0
126 ; 2496389.5388457747 ; 2.0227210927906266E8 ; 3.0612338247455233E8 ; 2.3755823445903294E10 ; 0.0
127 ; 2493690.3886003545 ; 2.0228633969272822E8 ; 3.086197720133981E8 ; 2.3958095555182358E10 ; 0.0
128 ; 2487853.501617477 ; 2.023005443730279E8 ; 3.1111346240199846E8 ; 2.4160381894875088E10 ; 0.0
129 ; 2485464.0856571137 ; 2.0231472279394096E8 ; 3.1360131590361595E8 ; 2.4362682439248116E10 ; 0.0
130 ; 2481026.9512283066 ; 2.0232887443755683E8 ; 3.160867799892731E8 ; 2.4564997162042057E10 ; 0.0
131 ; 2477977.9513267456 ; 2.023429987938072E8 ; 3.185678069405014E8 ; 2.4767326036479614E10 ; 0.0
132 ; 2467832.2443517973 ; 2.0235709536021003E8 ; 3.210457848918281E8 ; 2.4969669035273422E10 ; 0.0
133 ; 2461995.599902005 ; 2.023711636416244E8 ; 3.235136171361799E8 ; 2.5172026130633633E10 ; 0.0
134 ; 2455407.846556191 ; 2.023852031500164E8 ; 3.2597561273608196E8 ; 2.5374397294275257E10 ; 0.0
135 ; 2449920.9114160296 ; 2.0239921340423468E8 ; 3.2843102058263814E8 ; 2.5576782497425274E10 ; 0.0
136 ; 2440053.568926801 ; 2.0241319392979607E8 ; 3.308809414940542E8 ; 2.577918171082951E10 ; 0.0
137 ; 2435269.433355913 ; 2.0242714425867987E8 ; 3.33320995062981E8 ; 2.5981594904759304E10 ; 0.0
138 ; 2430225.584110356 ; 2.0244106392913133E8 ; 3.3575626449633694E8 ; 2.6184022049017982E10 ; 0.0
139 ; 2425464.7298590974 ; 2.0245495248547316E8 ; 3.381864900804473E8 ; 2.6386463112947113E10 ; 0.0
140 ; 2417063.7661428526 ; 2.02468809477925E8 ; 3.4061195481030643E8 ; 2.6588918065432587E10 ; 0.0
141 ; 2411279.489044029 ; 2.024826344624306E8 ; 3.430290185764493E8 ; 2.679138687491051E10 ; 0.0
142 ; 2406130.333735776 ; 2.0249642700049207E8 ; 3.454402980654933E8 ; 2.699386950937294E10 ; 0.0
143 ; 2398027.1738099996 ; 2.0251018665901092E8 ; 3.4784642839922905E8 ; 2.7196365936373432E10 ; 0.0
144 ; 2392207.6863422105 ; 2.0252391301013595E8 ; 3.5024445557303905E8 ; 2.7398876123032444E10 ; 0.0
145 ; 2387816.643977086 ; 2.0253760563111705E8 ; 3.526366632593813E8 ; 2.760140003604258E10 ; 0.0
146 ; 2384250.663958773 ; 2.0255126410416535E8 ; 3.550244799033584E8 ; 2.78039376416737E10 ; 0.0
147 ; 2382057.319602848 ; 2.0256488801631856E8 ; 3.574087305673172E8 ; 2.8006488905777863E10 ; 0.0
148 ; 2374984.8351555513 ; 2.025784769593124E8 ; 3.5979078788692003E8 ; 2.820905379379418E10 ; 0.0
149 ; 2372835.6767582637 ; 2.0259203052945673E8 ; 3.621657727220756E8 ; 2.8411632270753494E10 ; 0.0
150 ; 2369672.350777921 ; 2.0260554832751673E8 ; 3.645386083988339E8 ; 2.861422430128295E10 ; 0.0
151 ; 2362962.438276816 ; 2.0261902995859912E8 ; 3.669082807496118E8 ; 2.881682984961047E10 ; 0.0
152 ; 2360115.483798879 ; 2.0263247503204265E8 ; 3.692712431878886E8 ; 2.901944887956907E10 ; 0.0
153 ; 2356680.538948274 ; 2.026458831613129E8 ; 3.716313586716875E8 ; 2.9222081354601112E10 ; 0.0
154 ; 2349751.0929049077 ; 2.0265925396390152E8 ; 3.739880392106358E8 ; 2.9424727237762424E10 ; 0.0
155 ; 2347081.7946267375 ; 2.0267258706122917E8 ; 3.763377903035407E8 ; 2.9627386491726326E10 ; 0.0
156 ; 2345211.6090404717 ; 2.0268588207855234E8 ; 3.786848720981674E8 ; 2.9830059078787556E10 ; 0.0
157 ; 2342023.0392559846 ; 2.0269913864487392E8 ; 3.810300837072079E8 ; 3.0032744960866108E10 ; 0.0
158 ; 2335564.660207237 ; 2.0271235639285707E8 ; 3.833721067464639E8 ; 3.0235444099510983E10 ; 0.0
159 ; 2330062.036736627 ; 2.027255349587426E8 ; 3.857076714066711E8 ; 3.043815645590384E10 ; 0.0
160 ; 2328059.5509460857 ; 2.0273867398226938E8 ; 3.880377334434077E8 ; 3.0640881990862583E10 ; 0.0
161 ; 2322677.0652597495 ; 2.0275177310659796E8 ; 3.903657929943538E8 ; 3.0843620664844852E10 ; 0.0
162 ; 2319724.2796506216 ; 2.027648319782371E8 ; 3.926884700596135E8 ; 3.104637243795145E10 ; 0.0
163 ; 2317382.6048885966 ; 2.027778502469729E8 ; 3.9500819433926415E8 ; 3.1249137269929688E10 ; 0.0
164 ; 2314982.880240056 ; 2.0279082756580094E8 ; 3.973255769441528E8 ; 3.145191512017666E10 ; 0.0
165 ; 2309300.5598953026 ; 2.0280376359086087E8 ; 3.9964055982439286E8 ; 3.165470594774246E10 ; 0.0
166 ; 2304272.407999488 ; 2.028166579813733E8 ; 4.0194986038428813E8 ; 3.185750971133332E10 ; 0.0
167 ; 2299038.95241615 ; 2.0282951039957938E8 ; 4.0425413279228765E8 ; 3.2060326369314693E10 ; 0.0
168 ; 2295011.123272791 ; 2.0284232051068243E8 ; 4.0655317174470377E8 ; 3.226315587971427E10 ; 0.0
169 ; 2291424.5597345936 ; 2.028550879827918E8 ; 4.0884818286797655E8 ; 3.2465998200224953E10 ; 0.0
170 ; 2286089.1481377985 ; 2.02867812486869E8 ; 4.111396074277111E8 ; 3.2668853288207745E10 ; 0.0
171 ; 2282388.5717380503 ; 2.028804936966755E8 ; 4.1342569657584894E8 ; 3.2871721100694614E10 ; 0.0
172 ; 2280855.3625869034 ; 2.0289313128872278E8 ; 4.15708085147587E8 ; 3.307460159439129E10 ; 0.0
173 ; 2274015.8370476556 ; 2.0290572494222414E8 ; 4.179889405101739E8 ; 3.327749472568001E10 ; 0.0
174 ; 2269672.9787958222 ; 2.0291827433904815E8 ; 4.2026295634722155E8 ; 3.3480400450622234E10 ; 0.0
175 ; 2269098.7660159157 ; 2.0293077916367406E8 ; 4.225326293260174E8 ; 3.368331872496128E10 ; 0.0
176 ; 2264957.5662085083 ; 2.0294323910314873E8 ; 4.2480172809203327E8 ; 3.3886249504124954E10 ; 0.0
177 ; 2262263.9716717126 ; 2.02955653847045E8 ; 4.2706668565824175E8 ; 3.4089192743228104E10 ; 0.0
178 ; 2258675.952154213 ; 2.0296802308742192E8 ; 4.2932894962991345E8 ; 3.429214839707515E10 ; 0.0
179 ; 2255575.228918525 ; 2.0298034651878607E8 ; 4.3158762558206767E8 ; 3.4495116420162575E10 ; 0.0
180 ; 2251792.6946206926 ; 2.0299262383805454E8 ; 4.338432008109862E8 ; 3.469809676668136E10 ; 0.0
181 ; 2249498.7230998147 ; 2.030048547445192E8 ; 4.360949935056069E8 ; 3.490108939051941E10 ; 0.0
182 ; 2246077.9853167 ; 2.0301703893981218E8 ; 4.383444922287067E8 ; 3.510409424526393E10 ; 0.0
183 ; 2242140.0867246655 ; 2.030291761278727E8 ; 4.405905702140234E8 ; 3.530711128420374E10 ; 0.0
184 ; 2242154.0427232045 ; 2.030412660149151E8 ; 4.4283271030074805E8 ; 3.551014046033162E10 ; 0.0
185 ; 2238100.804185372 ; 2.03053308309398E8 ; 4.450748643434712E8 ; 3.5713181726346535E10 ; 0.0
186 ; 2231143.3421445577 ; 2.0306530272199446E8 ; 4.473129651476566E8 ; 3.591623503465593E10 ; 0.0
187 ; 2231235.9426555503 ; 2.0307724896556345E8 ; 4.4954410848980117E8 ; 3.611930033737792E10 ; 0.0
188 ; 2229258.7449584636 ; 2.0308914675512218E8 ; 4.5177534443245673E8 ; 3.632237758634348E10 ; 0.0
189 ; 2225736.256027791 ; 2.0310099580781946E8 ; 4.540046031774152E8 ; 3.65254667330986E10 ; 0.0
190 ; 2222046.144967996 ; 2.0311279584291005E8 ; 4.56230339433443E8 ; 3.6728567728906425E10 ; 0.0
191 ; 2221013.67418006 ; 2.031245465817299E8 ; 4.58452385578411E8 ; 3.693168052474934E10 ; 0.0
192 ; 2217486.8828886766 ; 2.031362477476722E8 ; 4.60673399252591E8 ; 3.713480507133107E10 ; 0.0
193 ; 2210393.561671659 ; 2.0314789906616455E8 ; 4.628908861354797E8 ; 3.733794131907874E10 ; 0.0
194 ; 2210360.6738176565 ; 2.0315950026464665E8 ; 4.6510127969715136E8 ; 3.7541089218144905E10 ; 0.0
195 ; 2208578.9437355353 ; 2.031710510725489E8 ; 4.67311640370969E8 ; 3.774424871840955E10 ; 0.0
196 ; 2205715.4326731246 ; 2.031825512212718E8 ; 4.6952021931470454E8 ; 3.79474197694821E10 ; 0.0
197 ; 2199869.6808274672 ; 2.0319400044416618E8 ; 4.7172593474737763E8 ; 3.815060232070338E10 ; 0.0
198 ; 2198258.9424980367 ; 2.0320539847651377E8 ; 4.739258044282051E8 ; 3.8353796321147545E10 ; 0.0
199 ; 2195934.3571500694 ; 2.03216745055509E8 ; 4.761240633707031E8 ; 3.855700171962406E10 ; 0.0
200 ; 2190567.0782784834 ; 2.0322803992024094E8 ; 4.783199977278532E8 ; 3.876021846467957E10 ; 0.0
