CSV File for the City 4 on Day 49
1 - Minute m 
2 - Power Consumed at minute m 
3 - Power Produced at minute m 
4 - Energy Consumed since the beginning of the day 
5 - Energy Produced since the beginning of the day 
6 - Energy Lost since the beginning of the day on lines starting from the city
 
0 ; 6795471.565394737 ; 1.0578372966033283E8 ; 0.0 ; 0.0 ; 0.0
1 ; 6802667.48736472 ; 1.059335307378478E8 ; 6795471.565394737 ; 1.0578372966033283E8 ; 0.0
2 ; 6811885.155278193 ; 1.06392420424324E8 ; 1.3598139052759457E7 ; 2.1171726039818063E8 ; 0.0
3 ; 6815309.3945743 ; 1.071604079774943E8 ; 2.0410024208037652E7 ; 3.1810968082250464E8 ; 0.0
4 ; 6829066.516131287 ; 1.0823750182540506E8 ; 2.722533360261195E7 ; 4.2527008879999894E8 ; 0.0
5 ; 6840223.3015116835 ; 1.0962370947745675E8 ; 3.405440011874324E7 ; 5.33507590625404E8 ; 0.0
6 ; 6856357.877696279 ; 1.1131903744201562E8 ; 4.089462342025492E7 ; 6.431313001028607E8 ; 0.0
7 ; 6881370.6033117585 ; 1.1332349115260422E8 ; 4.775098129795121E7 ; 7.544503375448763E8 ; 0.0
8 ; 6912328.591583717 ; 1.156370749045564E8 ; 5.463235190126297E7 ; 8.677738286974806E8 ; 0.0
9 ; 6962905.647116665 ; 1.1825979180382371E8 ; 6.154468049284668E7 ; 9.83410903602037E8 ; 0.0
10 ; 7040600.476548724 ; 1.2119164372933924E8 ; 6.850758613996334E7 ; 1.1016706954058607E9 ; 0.0
11 ; 7162925.307633323 ; 1.2443263130999658E8 ; 7.554818661651206E7 ; 1.2228623391352E9 ; 0.0
12 ; 7364118.968056271 ; 1.279827539169021E8 ; 8.271111192414539E7 ; 1.3472949704451966E9 ; 0.0
13 ; 7552634.5230394155 ; 1.3184200967112273E8 ; 9.007523089220166E7 ; 1.4752777243620987E9 ; 0.0
14 ; 7574537.011845358 ; 1.36010395466707E8 ; 9.762786541524108E7 ; 1.6071197340332215E9 ; 0.0
15 ; 7584172.898374028 ; 1.4048790700832093E8 ; 1.0520240242708644E8 ; 1.7431301294999285E9 ; 0.0
16 ; 7592527.320056621 ; 1.452745388624421E8 ; 1.1278657532546046E8 ; 1.8836180365082493E9 ; 0.0
17 ; 7600541.598222775 ; 1.5037028452070418E8 ; 1.2037910264551708E8 ; 2.0288925753706913E9 ; 0.0
18 ; 7608945.614287816 ; 1.5577513647370672E8 ; 1.2797964424373986E8 ; 2.1792628598913956E9 ; 0.0
19 ; 7619136.656758988 ; 1.6148908629340336E8 ; 1.3558858985802767E8 ; 2.3350379963651023E9 ; 0.0
20 ; 7628367.572305251 ; 1.675121247220612E8 ; 1.4320772651478666E8 ; 2.4965270826585054E9 ; 0.0
21 ; 7635653.901311636 ; 1.738442417657511E8 ; 1.5083609408709192E8 ; 2.6640392073805666E9 ; 0.0
22 ; 7646860.91989821 ; 1.8048542679036707E8 ; 1.5847174798840356E8 ; 2.8378834491463175E9 ; 0.0
23 ; 7653362.422202422 ; 1.8743566861828154E8 ; 1.6611860890830177E8 ; 3.0183688759366846E9 ; 0.0
24 ; 7661790.516635228 ; 1.9469495562390417E8 ; 1.7377197133050418E8 ; 3.205804544554966E9 ; 0.0
25 ; 7670423.48098893 ; 2.0095131672480223E8 ; 1.8143376184713942E8 ; 3.40049950017887E9 ; 0.0
26 ; 7679696.238494994 ; 2.0095828750761023E8 ; 1.8910418532812834E8 ; 3.601450816903672E9 ; 0.0
27 ; 7686651.635508503 ; 2.009656248369712E8 ; 1.9678388156662333E8 ; 3.8024091044112825E9 ; 0.0
28 ; 7696556.864851493 ; 2.0097331618055823E8 ; 2.0447053320213184E8 ; 4.003374729248254E9 ; 0.0
29 ; 7706409.726279711 ; 2.0098134897420445E8 ; 2.1216709006698334E8 ; 4.204348045428812E9 ; 0.0
30 ; 7712567.306469635 ; 2.0098971068706352E8 ; 2.1987349979326305E8 ; 4.405329394403016E9 ; 0.0
31 ; 7720802.014480708 ; 2.0099838887988222E8 ; 2.275860670997327E8 ; 4.606319105090079E9 ; 0.0
32 ; 7728932.282818633 ; 2.0100737125638905E8 ; 2.353068691142134E8 ; 4.807317493969961E9 ; 0.0
33 ; 7736997.5086773 ; 2.010166457079454E8 ; 2.4303580139703205E8 ; 5.00832486522635E9 ; 0.0
34 ; 7743681.09567683 ; 2.0102620035171717E8 ; 2.5077279890570936E8 ; 5.209341510934296E9 ; 0.0
35 ; 7751093.6394185135 ; 2.0103602356271386E8 ; 2.585164800013862E8 ; 5.410367711286013E9 ; 0.0
36 ; 7759591.97102751 ; 2.0104610400010332E8 ; 2.662675736408047E8 ; 5.611403734848726E9 ; 0.0
37 ; 7765507.008124334 ; 2.0105643062825236E8 ; 2.740271656118322E8 ; 5.812449838848829E9 ; 0.0
38 ; 7769806.353800808 ; 2.0106699273296544E8 ; 2.8179267261995655E8 ; 6.013506269477081E9 ; 0.0
39 ; 7773711.447196225 ; 2.010777799334019E8 ; 2.895624789737574E8 ; 6.214573262210047E9 ; 0.0
40 ; 7781395.136947675 ; 2.0108878219014508E8 ; 2.9733619042095363E8 ; 6.415651042143449E9 ; 0.0
41 ; 7788411.659801208 ; 2.0109998980988342E8 ; 3.051175855579013E8 ; 6.616739824333594E9 ; 0.0
42 ; 7793007.651008429 ; 2.0111139344713995E8 ; 3.129059972177025E8 ; 6.817839814143477E9 ; 0.0
43 ; 7799352.80980155 ; 2.0112298410345992E8 ; 3.2069900486871094E8 ; 7.018951207590617E9 ; 0.0
44 ; 7806980.743623202 ; 2.0113475312443507E8 ; 3.284983576785125E8 ; 7.2200741916940775E9 ; 0.0
45 ; 7808267.636252968 ; 2.0114669219491082E8 ; 3.363053384221357E8 ; 7.421208944818513E9 ; 0.0
46 ; 7811366.029837791 ; 2.0115879333269024E8 ; 3.4411360605838865E8 ; 7.622355637013424E9 ; 0.0
47 ; 7817649.500659199 ; 2.01171048881015E8 ; 3.5192497208822644E8 ; 7.823514430346114E9 ; 0.0
48 ; 7817348.527698885 ; 2.011834515000729E8 ; 3.5974262158888566E8 ; 8.024685479227129E9 ; 0.0
49 ; 7820130.853477853 ; 2.011959941577517E8 ; 3.6755997011658454E8 ; 8.225868930727201E9 ; 0.0
50 ; 7824210.402885055 ; 2.0120867011983082E8 ; 3.753801009700624E8 ; 8.4270649248849535E9 ; 0.0
51 ; 7826003.45382238 ; 2.0122147293977663E8 ; 3.8320431137294745E8 ; 8.628273595004784E9 ; 0.0
52 ; 7826567.048229356 ; 2.0123439644828415E8 ; 3.910303148267698E8 ; 8.829495067944561E9 ; 0.0
53 ; 7828572.534587888 ; 2.0124743474268633E8 ; 3.9885688187499917E8 ; 9.030729464392845E9 ; 0.0
54 ; 7831497.733895526 ; 2.012605821763329E8 ; 4.06685454409587E8 ; 9.231976899135532E9 ; 0.0
55 ; 7832969.88894406 ; 2.012738333480242E8 ; 4.1451695214348257E8 ; 9.433237481311865E9 ; 0.0
56 ; 7833300.083681495 ; 2.0128718309157062E8 ; 4.223499220324266E8 ; 9.63451131465989E9 ; 0.0
57 ; 7837595.2427144535 ; 2.0130062646553442E8 ; 4.301832221161081E8 ; 9.83579849775146E9 ; 0.0
58 ; 7836211.156812376 ; 2.013141587432001E8 ; 4.380208173588226E8 ; 1.0037099124216993E10 ; 0.0
59 ; 7842222.681666662 ; 2.013277754028091E8 ; 4.4585702851563495E8 ; 1.0238413282960194E10 ; 0.0
60 ; 7841500.572933516 ; 2.013414721180866E8 ; 4.536992511973016E8 ; 1.0439741058363003E10 ; 0.0
61 ; 7842610.300273894 ; 2.013552447490802E8 ; 4.615407517702351E8 ; 1.0641082530481089E10 ; 0.0
62 ; 7844002.041225915 ; 2.01369089333325E8 ; 4.69383362070509E8 ; 1.084243777523017E10 ; 0.0
63 ; 7846506.380088995 ; 2.0138300207734355E8 ; 4.772273641117349E8 ; 1.1043806864563494E10 ; 0.0
64 ; 7845391.00747839 ; 2.0139697934848565E8 ; 4.850738704918239E8 ; 1.1245189866640837E10 ; 0.0
65 ; 7846569.875097431 ; 2.0141101766710833E8 ; 4.929192614993023E8 ; 1.1446586845989323E10 ; 0.0
66 ; 7849776.329876986 ; 2.0142511369909465E8 ; 5.007658313743998E8 ; 1.1647997863656431E10 ; 0.0
67 ; 7850776.745982188 ; 2.014392642487065E8 ; 5.0861560770427674E8 ; 1.1849422977355526E10 ; 0.0
68 ; 7851091.270318429 ; 2.0145346625176498E8 ; 5.164663844502589E8 ; 1.2050862241604233E10 ; 0.0
69 ; 7853059.1796941515 ; 2.0146771676915094E8 ; 5.2431747572057736E8 ; 1.2252315707855997E10 ; 0.0
70 ; 7854677.692169701 ; 2.014820129806162E8 ; 5.3217053490027153E8 ; 1.2453783424625149E10 ; 0.0
71 ; 7853673.0693403585 ; 2.0149635217889583E8 ; 5.400252125924412E8 ; 1.2655265437605764E10 ; 0.0
72 ; 7851446.737363783 ; 2.0151073176411083E8 ; 5.478788856617815E8 ; 1.285676178978466E10 ; 0.0
73 ; 7852194.837801163 ; 2.0152514923845044E8 ; 5.557303323991454E8 ; 1.305827252154877E10 ; 0.0
74 ; 7855399.318960651 ; 2.0153960220112258E8 ; 5.635825272369466E8 ; 1.3259797670787222E10 ; 0.0
75 ; 7849185.275570416 ; 2.015540883435617E8 ; 5.714379265559072E8 ; 1.3461337272988344E10 ; 0.0
76 ; 7854084.923465289 ; 2.0156860544488224E8 ; 5.792871118314776E8 ; 1.3662891361331905E10 ; 0.0
77 ; 7855157.489243369 ; 2.0158315136756662E8 ; 5.871411967549429E8 ; 1.3864459966776787E10 ; 0.0
78 ; 7852806.429068507 ; 2.0159772405337712E8 ; 5.949963542441863E8 ; 1.4066043118144354E10 ; 0.0
79 ; 7850651.889317161 ; 2.0161232151948082E8 ; 6.028491606732548E8 ; 1.4267640842197731E10 ; 0.0
80 ; 7848595.94679326 ; 2.016269418547767E8 ; 6.10699812562572E8 ; 1.4469253163717213E10 ; 0.0
81 ; 7844886.595688894 ; 2.0164158321641558E8 ; 6.185484085093653E8 ; 1.467088010557199E10 ; 0.0
82 ; 7842915.206117474 ; 2.0165624382650238E8 ; 6.263932951050543E8 ; 1.4872521688788404E10 ; 0.0
83 ; 7842023.996025203 ; 2.0167092196897194E8 ; 6.342362103111718E8 ; 1.5074177932614906E10 ; 0.0
84 ; 7836696.401969382 ; 2.0168561598662883E8 ; 6.42078234307197E8 ; 1.5275848854583878E10 ; 0.0
85 ; 7835097.782297866 ; 2.01700324278343E8 ; 6.499149307091664E8 ; 1.5477534470570507E10 ; 0.0
86 ; 7832207.128539959 ; 2.0171504529639268E8 ; 6.577500284914643E8 ; 1.567923479484885E10 ; 0.0
87 ; 7827427.066708908 ; 2.0172977754394686E8 ; 6.655822356200042E8 ; 1.5880949840145243E10 ; 0.0
88 ; 7824815.214462815 ; 2.017445195726797E8 ; 6.734096626867131E8 ; 1.608267961768919E10 ; 0.0
89 ; 7822715.486242893 ; 2.0175926998050994E8 ; 6.812344779011759E8 ; 1.628442413726187E10 ; 0.0
90 ; 7819348.507313876 ; 2.0177402740945822E8 ; 6.890571933874187E8 ; 1.648618340724238E10 ; 0.0
91 ; 7817351.7857490815 ; 2.017887905436163E8 ; 6.968765418947326E8 ; 1.6687957434651838E10 ; 0.0
92 ; 7815178.250129552 ; 2.0180355810722175E8 ; 7.046938936804817E8 ; 1.6889746225195454E10 ; 0.0
93 ; 7812010.385230831 ; 2.0181832886283255E8 ; 7.125090719306113E8 ; 1.7091549783302675E10 ; 0.0
94 ; 7807826.9871113235 ; 2.018331016095958E8 ; 7.20321082315842E8 ; 1.729336811216551E10 ; 0.0
95 ; 7806757.81601803 ; 2.018478751816061E8 ; 7.281289093029534E8 ; 1.7495201213775105E10 ; 0.0
96 ; 7798553.884766762 ; 2.0186264844634762E8 ; 7.359356671189713E8 ; 1.769704908895671E10 ; 0.0
97 ; 7795284.745731809 ; 2.0187742030321637E8 ; 7.437342210037382E8 ; 1.7898911737403057E10 ; 0.0
98 ; 7791796.236459733 ; 2.0189218968211752E8 ; 7.5152950574947E8 ; 1.8100789157706272E10 ; 0.0
99 ; 7789610.249167169 ; 2.0190695554213405E8 ; 7.593213019859297E8 ; 1.830268134738839E10 ; 0.0
100 ; 7786386.689840608 ; 2.0192171687026253E8 ; 7.671109122350969E8 ; 1.8504588302930523E10 ; 0.0
101 ; 7783761.544551167 ; 2.019364726802128E8 ; 7.748972989249375E8 ; 1.8706510019800785E10 ; 0.0
102 ; 7778998.2676360225 ; 2.0195122201126766E8 ; 7.826810604694886E8 ; 1.8908446492481E10 ; 0.0
103 ; 7772640.1350602945 ; 2.0196596392719948E8 ; 7.904600587371247E8 ; 1.9110397714492268E10 ; 0.0
104 ; 7769366.544011118 ; 2.019806975152407E8 ; 7.98232698872185E8 ; 1.9312363678419468E10 ; 0.0
105 ; 7764985.699230264 ; 2.019954218851051E8 ; 8.060020654161961E8 ; 1.9514344375934708E10 ; 0.0
106 ; 7759283.378424569 ; 2.0201013616805756E8 ; 8.137670511154264E8 ; 1.9716339797819813E10 ; 0.0
107 ; 7755993.9206693 ; 2.0202483951602903E8 ; 8.21526334493851E8 ; 1.991834993398787E10 ; 0.0
108 ; 7751920.592047746 ; 2.020395311007749E8 ; 8.292823284145203E8 ; 2.01203747735039E10 ; 0.0
109 ; 7746919.071935105 ; 2.0205421011307406E8 ; 8.37034249006568E8 ; 2.0322414304604675E10 ; 0.0
110 ; 7745386.852969904 ; 2.0206887576196682E8 ; 8.44781168078503E8 ; 2.052446851471775E10 ; 0.0
111 ; 7739570.091938823 ; 2.020835272740292E8 ; 8.525265549314729E8 ; 2.0726537390479717E10 ; 0.0
112 ; 7734717.694571381 ; 2.0209816389268216E8 ; 8.602661250234118E8 ; 2.0928620917753746E10 ; 0.0
113 ; 7730049.182266721 ; 2.021127848775335E8 ; 8.680008427179831E8 ; 2.1130719081646427E10 ; 0.0
114 ; 7724020.452079089 ; 2.0212738950375107E8 ; 8.757308919002498E8 ; 2.133283186652396E10 ; 0.0
115 ; 7719110.253857927 ; 2.0214197706146535E8 ; 8.834549123523289E8 ; 2.153495925602771E10 ; 0.0
116 ; 7715410.669128537 ; 2.0215654685520002E8 ; 8.911740226061869E8 ; 2.1737101233089176E10 ; 0.0
117 ; 7710155.86820056 ; 2.0217109820332935E8 ; 8.988894332753154E8 ; 2.1939257779944378E10 ; 0.0
118 ; 7704284.70481784 ; 2.0218563043756035E8 ; 9.06599589143516E8 ; 2.214142887814771E10 ; 0.0
119 ; 7699448.864515502 ; 2.0220014290243906E8 ; 9.143038738483338E8 ; 2.234361450858527E10 ; 0.0
120 ; 7693418.484671654 ; 2.0221463495487946E8 ; 9.220033227128494E8 ; 2.254581465148771E10 ; 0.0
121 ; 7687425.842582276 ; 2.0222910596371397E8 ; 9.296967411975211E8 ; 2.274802928644259E10 ; 0.0
122 ; 7682722.796833291 ; 2.0224355530926415E8 ; 9.373841670401033E8 ; 2.2950258392406303E10 ; 0.0
123 ; 7678556.108962738 ; 2.0225798238293096E8 ; 9.450668898369366E8 ; 2.315250194771557E10 ; 0.0
124 ; 7672581.34014375 ; 2.022723865868036E8 ; 9.527454459458994E8 ; 2.33547599300985E10 ; 0.0
125 ; 7668022.825974299 ; 2.0228676733328542E8 ; 9.604180272860432E8 ; 2.3557032316685303E10 ; 0.0
126 ; 7658752.790472949 ; 2.02301124044737E8 ; 9.680860501120175E8 ; 2.375931908401859E10 ; 0.0
127 ; 7651842.128483113 ; 2.023154561531346E8 ; 9.757448029024905E8 ; 2.3961620208063328E10 ; 0.0
128 ; 7647137.929747877 ; 2.02329763099744E8 ; 9.833966450309736E8 ; 2.416393566421646E10 ; 0.0
129 ; 7643079.586062086 ; 2.0234404433480826E8 ; 9.910437829607214E8 ; 2.4366265427316204E10 ; 0.0
130 ; 7636227.205766148 ; 2.0235829931724966E8 ; 9.986868625467834E8 ; 2.4568609471651012E10 ; 0.0
131 ; 7627507.791145666 ; 2.0237252751438388E8 ; 1.0063230897525496E9 ; 2.477096777096826E10 ; 0.0
132 ; 7618479.43207217 ; 2.0238672840164718E8 ; 1.0139505975436953E9 ; 2.4973340298482647E10 ; 0.0
133 ; 7611238.111775443 ; 2.0240090146233493E8 ; 1.0215690769757675E9 ; 2.5175727026884293E10 ; 0.0
134 ; 7602309.490947476 ; 2.0241504618735126E8 ; 1.0291803150875429E9 ; 2.5378127928346626E10 ; 0.0
135 ; 7592447.665478489 ; 2.0242916207496974E8 ; 1.0367826245784904E9 ; 2.5580542974533978E10 ; 0.0
136 ; 7583390.735334295 ; 2.0244324863060385E8 ; 1.0443750722439688E9 ; 2.5782972136608948E10 ; 0.0
137 ; 7576677.326682132 ; 2.0245730536658725E8 ; 1.0519584629793031E9 ; 2.598541538523955E10 ; 0.0
138 ; 7565534.573304816 ; 2.0247133180196324E8 ; 1.0595351403059852E9 ; 2.618787269060614E10 ; 0.0
139 ; 7557103.720575382 ; 2.0248532746228316E8 ; 1.06710067487929E9 ; 2.6390344022408104E10 ; 0.0
140 ; 7548791.760738609 ; 2.0249929187941286E8 ; 1.0746577785998654E9 ; 2.6592829349870388E10 ; 0.0
141 ; 7539550.558318379 ; 2.0251322459134743E8 ; 1.082206570360604E9 ; 2.67953286417498E10 ; 0.0
142 ; 7529231.080748786 ; 2.0252712514203352E8 ; 1.0897461209189224E9 ; 2.699784186634115E10 ; 0.0
143 ; 7519948.128073945 ; 2.025409930811988E8 ; 1.0972753519996712E9 ; 2.720036899148318E10 ; 0.0
144 ; 7509284.761122713 ; 2.0255482796418867E8 ; 1.1047953001277452E9 ; 2.740290998456438E10 ; 0.0
145 ; 7503455.87222428 ; 2.0256862935180908E8 ; 1.1123045848888679E9 ; 2.760546481252857E10 ; 0.0
146 ; 7497636.2228325065 ; 2.0258239681017634E8 ; 1.1198080407610922E9 ; 2.780803344188038E10 ; 0.0
147 ; 7492600.267252881 ; 2.0259612991057253E8 ; 1.1273056769839246E9 ; 2.8010615838690556E10 ; 0.0
148 ; 7484417.78408265 ; 2.0260982822930685E8 ; 1.1347982772511775E9 ; 2.8213211968601128E10 ; 0.0
149 ; 7476763.241647796 ; 2.0262349134758246E8 ; 1.1422826950352602E9 ; 2.8415821796830433E10 ; 0.0
150 ; 7470372.598712493 ; 2.0263711885136873E8 ; 1.149759458276908E9 ; 2.8618445288178017E10 ; 0.0
151 ; 7461063.7856492 ; 2.0265071033127838E8 ; 1.1572298308756204E9 ; 2.8821082407029385E10 ; 0.0
152 ; 7459284.122150942 ; 2.0266426538244957E8 ; 1.1646908946612697E9 ; 2.9023733117360664E10 ; 0.0
153 ; 7449718.891270644 ; 2.0267778360443258E8 ; 1.1721501787834206E9 ; 2.9226397382743114E10 ; 0.0
154 ; 7442533.470237011 ; 2.026912646010809E8 ; 1.1795998976746912E9 ; 2.9429075166347546E10 ; 0.0
155 ; 7433431.23807974 ; 2.0270470798044664E8 ; 1.1870424311449282E9 ; 2.9631766430948627E10 ; 0.0
156 ; 7426785.590284093 ; 2.0271811335467985E8 ; 1.194475862383008E9 ; 2.9834471138929073E10 ; 0.0
157 ; 7419808.1945963185 ; 2.027314803399319E8 ; 1.201902647973292E9 ; 3.0037189252283752E10 ; 0.0
158 ; 7414707.811518994 ; 2.0274480855626243E8 ; 1.2093224561678884E9 ; 3.0239920732623684E10 ; 0.0
159 ; 7407561.947669779 ; 2.0275809762754998E8 ; 1.2167371639794073E9 ; 3.0442665541179947E10 ; 0.0
160 ; 7402399.572359457 ; 2.0277134718140593E8 ; 1.224144725927077E9 ; 3.0645423638807495E10 ; 0.0
161 ; 7393744.62956788 ; 2.027845568490918E8 ; 1.2315471254994366E9 ; 3.08481949859889E10 ; 0.0
162 ; 7387916.470116603 ; 2.0279772626543966E8 ; 1.2389408701290045E9 ; 3.105097954283799E10 ; 0.0
163 ; 7379329.038666563 ; 2.0281085506877548E8 ; 1.246328786599121E9 ; 3.1253777269103428E10 ; 0.0
164 ; 7370614.359711688 ; 2.0282394290084553E8 ; 1.2537081156377876E9 ; 3.1456588124172203E10 ; 0.0
165 ; 7364608.478817857 ; 2.0283698940674528E8 ; 1.2610787299974992E9 ; 3.1659412067073048E10 ; 0.0
166 ; 7358984.062918719 ; 2.0284999423485133E8 ; 1.2684433384763172E9 ; 3.1862249056479794E10 ; 0.0
167 ; 7352582.550945559 ; 2.0286295703675544E8 ; 1.2758023225392358E9 ; 3.2065099050714645E10 ; 0.0
168 ; 7343034.467080648 ; 2.0287587746720138E8 ; 1.2831549050901814E9 ; 3.22679620077514E10 ; 0.0
169 ; 7336130.704264039 ; 2.0288875518402398E8 ; 1.290497939557262E9 ; 3.24708378852186E10 ; 0.0
170 ; 7329482.199567036 ; 2.0290158984809026E8 ; 1.2978340702615259E9 ; 3.2673726640402626E10 ; 0.0
171 ; 7319854.010791481 ; 2.0291438112324315E8 ; 1.305163552461093E9 ; 3.2876628230250717E10 ; 0.0
172 ; 7312611.742227475 ; 2.0292712867624682E8 ; 1.3124834064718845E9 ; 3.307954261137396E10 ; 0.0
173 ; 7305205.584196415 ; 2.0293983217673424E8 ; 1.319796018214112E9 ; 3.3282469740050205E10 ; 0.0
174 ; 7300551.215251083 ; 2.0295249129715678E8 ; 1.3271012237983084E9 ; 3.348540957222694E10 ; 0.0
175 ; 7299717.077505205 ; 2.029651057127353E8 ; 1.3344017750135593E9 ; 3.3688362063524097E10 ; 0.0
176 ; 7294627.296278015 ; 2.0297767510141328E8 ; 1.3417014920910645E9 ; 3.389132716923683E10 ; 0.0
177 ; 7289606.989564052 ; 2.0299019914381167E8 ; 1.3489961193873425E9 ; 3.4094304844338245E10 ; 0.0
178 ; 7284088.453776535 ; 2.030026775231852E8 ; 1.3562857263769064E9 ; 3.4297295043482056E10 ; 0.0
179 ; 7280052.670138935 ; 2.030151099253803E8 ; 1.363569814830683E9 ; 3.450029772100524E10 ; 0.0
180 ; 7274355.507357893 ; 2.0302749603879467E8 ; 1.3708498675008218E9 ; 3.470331283093062E10 ; 0.0
181 ; 7269546.912561009 ; 2.0303983555433825E8 ; 1.3781242230081797E9 ; 3.490634032696941E10 ; 0.0
182 ; 7264750.008361961 ; 2.030521281653954E8 ; 1.3853937699207406E9 ; 3.510938016252375E10 ; 0.0
183 ; 7261069.004632077 ; 2.030643735677888E8 ; 1.3926585199291027E9 ; 3.531243229068915E10 ; 0.0
184 ; 7255307.706630413 ; 2.0307657145974422E8 ; 1.3999195889337347E9 ; 3.5515496664256935E10 ; 0.0
185 ; 7252291.128342498 ; 2.0308872154185686E8 ; 1.4071748966403651E9 ; 3.571857323571668E10 ; 0.0
186 ; 7248531.465356543 ; 2.031008235170588E8 ; 1.4144271877687075E9 ; 3.592166195725854E10 ; 0.0
187 ; 7242842.556659706 ; 2.0311287709058753E8 ; 1.421675719234064E9 ; 3.61247627807756E10 ; 0.0
188 ; 7239580.375858513 ; 2.031248819699557E8 ; 1.4289185617907238E9 ; 3.632787565786618E10 ; 0.0
189 ; 7231049.864879525 ; 2.0313683786492187E8 ; 1.4361581421665823E9 ; 3.6531000539836136E10 ; 0.0
190 ; 7229665.171103055 ; 2.0314874448746234E8 ; 1.443389192031462E9 ; 3.673413737770106E10 ; 0.0
191 ; 7223451.720890052 ; 2.031606015517439E8 ; 1.450618857202565E9 ; 3.693728612218852E10 ; 0.0
192 ; 7221194.807427289 ; 2.0317240877409768E8 ; 1.457842308923455E9 ; 3.7140446723740265E10 ; 0.0
193 ; 7212460.904598198 ; 2.0318416587299377E8 ; 1.4650635037308824E9 ; 3.7343619132514366E10 ; 0.0
194 ; 7211058.858088974 ; 2.031958725690169E8 ; 1.4722759646354806E9 ; 3.754680329838736E10 ; 0.0
195 ; 7207212.55196969 ; 2.0320752858484274E8 ; 1.4794870234935696E9 ; 3.7749999170956375E10 ; 0.0
196 ; 7202908.462227291 ; 2.032191336452153E8 ; 1.4866942360455394E9 ; 3.795320669954122E10 ; 0.0
197 ; 7198534.9468325935 ; 2.0323068747692496E8 ; 1.4938971445077667E9 ; 3.815642583318644E10 ; 0.0
198 ; 7191559.414653717 ; 2.0324218980878723E8 ; 1.5010956794545994E9 ; 3.835965652066337E10 ; 0.0
199 ; 7189898.105374846 ; 2.0325364037162247E8 ; 1.5082872388692532E9 ; 3.856289871047215E10 ; 0.0
200 ; 7183863.442053741 ; 2.0326503889823616E8 ; 1.515477136974628E9 ; 3.876615235084377E10 ; 0.0
201 ; 7179322.416731277 ; 1.5879952177679512E8 ; 1.5226610004166818E9 ; 3.896941738974201E10 ; 0.0
