CSV File for the City 1 on Day 103
1 - Minute m 
2 - Power Consumed at minute m 
3 - Power Produced at minute m 
4 - Energy Consumed since the beginning of the day 
5 - Energy Produced since the beginning of the day 
6 - Energy Lost since the beginning of the day on lines starting from the city
 
0 ; 1.6140052718361588E7 ; 1.0555132204167637E8 ; 0.0 ; 0.0 ; 0.0
1 ; 1.6157426810575278E7 ; 1.0570427680071145E8 ; 1.6140052718361588E7 ; 1.0555132204167637E8 ; 0.0
2 ; 1.6174310876650633E7 ; 1.0616601298353538E8 ; 3.2297479528936867E7 ; 2.1125559884238783E8 ; 0.0
3 ; 1.6195578280018147E7 ; 1.0693653201252866E8 ; 4.84717904055875E7 ; 3.174216118259232E8 ; 0.0
4 ; 1.621896405694238E7 ; 1.080158351616E8 ; 6.4667368685605645E7 ; 4.2435814383845186E8 ; 0.0
5 ; 1.624693001129039E7 ; 1.09403923549398E8 ; 8.088633274254802E7 ; 5.3237397900005186E8 ; 0.0
6 ; 1.6285175122297747E7 ; 1.1110079813324186E8 ; 9.71332627538384E7 ; 6.417779025494499E8 ; 0.0
7 ; 1.6343194959781652E7 ; 1.1310645970384467E8 ; 1.1341843787613615E8 ; 7.528787006826918E8 ; 0.0
8 ; 1.6416147192781202E7 ; 1.1542090888089895E8 ; 1.297616328359178E8 ; 8.659851603865365E8 ; 0.0
9 ; 1.6539703962613061E7 ; 1.1804414610958022E8 ; 1.46177780028699E8 ; 9.814060692674354E8 ; 0.0
10 ; 1.6720122412613684E7 ; 1.2097617165801597E8 ; 1.627174839913121E8 ; 1.0994502153770156E9 ; 0.0
11 ; 1.7006935472242318E7 ; 1.2421698561575308E8 ; 1.7943760640392578E8 ; 1.2204263870350316E9 ; 0.0
12 ; 1.7471432845855225E7 ; 1.2776658789324465E8 ; 1.964445418761681E8 ; 1.3446433726507847E9 ; 0.0
13 ; 1.7917840979533777E7 ; 1.3162497822236317E8 ; 2.1391597472202334E8 ; 1.4724099605440295E9 ; 0.0
14 ; 1.7966397152611125E7 ; 1.3579215615793324E8 ; 2.318338157015571E8 ; 1.6040349387663927E9 ; 0.0
15 ; 1.798980170765178E7 ; 1.4026812108026218E8 ; 2.4980021285416824E8 ; 1.739827094924326E9 ; 0.0
16 ; 1.8010641198678453E7 ; 1.4505287219863704E8 ; 2.6779001456182003E8 ; 1.8800952160045881E9 ; 0.0
17 ; 1.803256757662782E7 ; 1.5014640855573854E8 ; 2.8580065576049846E8 ; 2.0251480882032251E9 ; 0.0
18 ; 1.805558149036021E7 ; 1.555487290329181E8 ; 3.0383322333712626E8 ; 2.1752944967589636E9 ; 0.0
19 ; 1.8074591153785203E7 ; 1.61259832356267E8 ; 3.2188880482748646E8 ; 2.3308432257918816E9 ; 0.0
20 ; 1.809873784181293E7 ; 1.6727971710340473E8 ; 3.399633959812717E8 ; 2.4921030581481485E9 ; 0.0
21 ; 1.8121618604428444E7 ; 1.7360838171090177E8 ; 3.580621338230846E8 ; 2.659382775251553E9 ; 0.0
22 ; 1.8140124802189533E7 ; 1.8024582448225033E8 ; 3.7618375242751306E8 ; 2.832991156962455E9 ; 0.0
23 ; 1.8160846875062015E7 ; 1.8719204359629178E8 ; 3.943238772297026E8 ; 3.013236981444705E9 ; 0.0
24 ; 1.818370225760693E7 ; 1.9444703711600798E8 ; 4.124847241047646E8 ; 3.2004290250409966E9 ; 0.0
25 ; 1.8205621839963824E7 ; 2.006988438957687E8 ; 4.306684263623715E8 ; 3.3948760621570044E9 ; 0.0
26 ; 1.822727709782738E7 ; 2.0070100962747207E8 ; 4.4887404820233536E8 ; 3.595574906052773E9 ; 0.0
27 ; 1.8246470483988762E7 ; 2.0070330137478754E8 ; 4.6710132530016273E8 ; 3.796275915680245E9 ; 0.0
28 ; 1.826578132017954E7 ; 2.0070571682927862E8 ; 4.853477957841515E8 ; 3.9969792170550323E9 ; 0.0
29 ; 1.8291249589953538E7 ; 2.0070825361293265E8 ; 5.03613577104331E8 ; 4.1976849338843107E9 ; 0.0
30 ; 1.8311560183927633E7 ; 2.00710909287308E8 ; 5.2190482669428456E8 ; 4.398393187497243E9 ; 0.0
31 ; 1.833180711556075E7 ; 2.007136813624792E8 ; 5.402163868782122E8 ; 4.599104096784551E9 ; 0.0
32 ; 1.8350028709328964E7 ; 2.0071656730572388E8 ; 5.58548193993773E8 ; 4.79981777814703E9 ; 0.0
33 ; 1.8372023615568344E7 ; 2.0071956454990098E8 ; 5.76898222703102E8 ; 5.000534345452754E9 ; 0.0
34 ; 1.8386241482672397E7 ; 2.0072267050147936E8 ; 5.952702463186704E8 ; 5.201253910002655E9 ; 0.0
35 ; 1.840686329521277E7 ; 2.0072588254818147E8 ; 6.136564878013428E8 ; 5.401976580504134E9 ; 0.0
36 ; 1.8426499368778657E7 ; 2.007291980662159E8 ; 6.320633510965556E8 ; 5.602702463052316E9 ; 0.0
37 ; 1.8441049775257945E7 ; 2.007326144270776E8 ; 6.504898504653343E8 ; 5.803431661118531E9 ; 0.0
38 ; 1.845403905957275E7 ; 2.0073612900390267E8 ; 6.689309002405922E8 ; 6.0041642755456085E9 ; 0.0
39 ; 1.8471618414646856E7 ; 2.0073973917736983E8 ; 6.873849393001649E8 ; 6.204900404549511E9 ; 0.0
40 ; 1.848980904095604E7 ; 2.0074344234114558E8 ; 7.058565577148118E8 ; 6.405640143726881E9 ; 0.0
41 ; 1.850057118459549E7 ; 2.0074723590687597E8 ; 7.243463667557678E8 ; 6.606383586068027E9 ; 0.0
42 ; 1.8518043408086237E7 ; 2.0075111730873156E8 ; 7.428469379403633E8 ; 6.807130821974902E9 ; 0.0
43 ; 1.8528458035079014E7 ; 2.0075508400751522E8 ; 7.613649813484495E8 ; 7.007881939283634E9 ; 0.0
44 ; 1.8538249305172466E7 ; 2.0075913349434677E8 ; 7.798934393835285E8 ; 7.208637023291149E9 ; 0.0
45 ; 1.855430045207805E7 ; 2.007632632939398E8 ; 7.984316886887009E8 ; 7.409396156785496E9 ; 0.0
46 ; 1.8563682619943336E7 ; 2.0076747096748865E8 ; 8.16985989140779E8 ; 7.610159420079435E9 ; 0.0
47 ; 1.856745130100975E7 ; 2.0077175411518472E8 ; 8.355496717607224E8 ; 7.810926891046924E9 ; 0.0
48 ; 1.8582202898925353E7 ; 2.0077611037838298E8 ; 8.541171230617322E8 ; 8.011698645162108E9 ; 0.0
49 ; 1.8590471000060316E7 ; 2.0078053744143933E8 ; 8.726993259606575E8 ; 8.212474755540491E9 ; 0.0
50 ; 1.859814142905871E7 ; 2.0078503303324062E8 ; 8.912897969607178E8 ; 8.413255292981931E9 ; 0.0
51 ; 1.8603027009445302E7 ; 2.0078959492844903E8 ; 9.098879383897765E8 ; 8.614040326015171E9 ; 0.0
52 ; 1.8604768139477007E7 ; 2.0079422094848233E8 ; 9.284909653992218E8 ; 8.81482992094362E9 ; 0.0
53 ; 1.861663816222226E7 ; 2.0079890896225068E8 ; 9.470957335386988E8 ; 9.015624141892103E9 ; 0.0
54 ; 1.861727866209982E7 ; 2.0080365688667098E8 ; 9.65712371700921E8 ; 9.216423050854353E9 ; 0.0
55 ; 1.862590366135933E7 ; 2.0080846268697846E8 ; 9.843296503630209E8 ; 9.417226707741024E9 ; 0.0
56 ; 1.8636800866767276E7 ; 2.0081332437685445E8 ; 1.0029555540243802E9 ; 9.618035170428003E9 ; 0.0
57 ; 1.8641544366056565E7 ; 2.0081824001838836E8 ; 1.0215923548911475E9 ; 9.818848494804857E9 ; 0.0
58 ; 1.864350325127794E7 ; 2.0082320772189134E8 ; 1.040233899257204E9 ; 1.0019666734823246E10 ; 0.0
59 ; 1.8646785364665125E7 ; 2.0082822564557752E8 ; 1.058877402508482E9 ; 1.0220489942545137E10 ; 0.0
60 ; 1.8654269632745583E7 ; 2.0083329199512792E8 ; 1.077524187873147E9 ; 1.0421318168190716E10 ; 0.0
61 ; 1.8659626399944056E7 ; 2.0083840502315164E8 ; 1.0961784575058925E9 ; 1.0622151460185844E10 ; 0.0
62 ; 1.8668644014693122E7 ; 2.0084356302855694E8 ; 1.1148380839058366E9 ; 1.0822989865208996E10 ; 0.0
63 ; 1.8673501880847763E7 ; 2.0084876435584447E8 ; 1.1335067279205296E9 ; 1.1023833428237553E10 ; 0.0
64 ; 1.8674153822401375E7 ; 2.008540073943342E8 ; 1.1521802298013773E9 ; 1.1224682192593397E10 ; 0.0
65 ; 1.8680891047562342E7 ; 2.0085929057733572E8 ; 1.1708543836237786E9 ; 1.1425536199987732E10 ; 0.0
66 ; 1.8684092788282238E7 ; 2.008646123812719E8 ; 1.189535274671341E9 ; 1.1626395490565067E10 ; 0.0
67 ; 1.868749739622008E7 ; 2.0086997132476386E8 ; 1.208219367459623E9 ; 1.1827260102946339E10 ; 0.0
68 ; 1.8690541418114588E7 ; 2.0087536596768555E8 ; 1.226906864855843E9 ; 1.2028130074271103E10 ; 0.0
69 ; 1.8696147967903763E7 ; 2.0088079491019434E8 ; 1.2455974062739577E9 ; 1.2229005440238789E10 ; 0.0
70 ; 1.8699738119668573E7 ; 2.008862567917444E8 ; 1.2642935542418616E9 ; 1.2429886235148983E10 ; 0.0
71 ; 1.8703007842912234E7 ; 2.0089175029008836E8 ; 1.28299329236153E9 ; 1.2630772491940727E10 ; 0.0
72 ; 1.8705504640917167E7 ; 2.0089727412027192E8 ; 1.3016963002044423E9 ; 1.2831664242230816E10 ; 0.0
73 ; 1.8709100483121037E7 ; 2.0090282703362662E8 ; 1.3204018048453593E9 ; 1.3032561516351088E10 ; 0.0
74 ; 1.8710762543438584E7 ; 2.0090840781676376E8 ; 1.3391109053284802E9 ; 1.3233464343384714E10 ; 0.0
75 ; 1.8713684139039923E7 ; 2.009140152905738E8 ; 1.357821667871919E9 ; 1.3434372751201477E10 ; 0.0
76 ; 1.8713068592701327E7 ; 2.0091964830923378E8 ; 1.376535352010959E9 ; 1.363528676649205E10 ; 0.0
77 ; 1.872242260239683E7 ; 2.0092530575922543E8 ; 1.3952484206036603E9 ; 1.3836206414801285E10 ; 0.0
78 ; 1.871332101301302E7 ; 2.0093098655836645E8 ; 1.413970843206057E9 ; 1.403713172056051E10 ; 0.0
79 ; 1.8708055403964493E7 ; 2.0093668965485665E8 ; 1.4326841642190702E9 ; 1.4238062707118877E10 ; 0.0
80 ; 1.8711308745872624E7 ; 2.0094241402634084E8 ; 1.4513922196230347E9 ; 1.4438999396773733E10 ; 0.0
81 ; 1.8706564115821168E7 ; 2.0094815867898956E8 ; 1.4701035283689075E9 ; 1.4639941810800074E10 ; 0.0
82 ; 1.8702193017597888E7 ; 2.0095392264659894E8 ; 1.4888100924847286E9 ; 1.4840889969479063E10 ; 0.0
83 ; 1.8700378228477687E7 ; 2.009597049897108E8 ; 1.5075122855023265E9 ; 1.5041843892125662E10 ; 0.0
84 ; 1.8693453530407444E7 ; 2.0096550479475322E8 ; 1.5262126637308042E9 ; 1.5242803597115372E10 ; 0.0
85 ; 1.868900318864266E7 ; 2.0097132117320257E8 ; 1.5449061172612116E9 ; 1.5443769101910126E10 ; 0.0
86 ; 1.8682876023979183E7 ; 2.0097715326076716E8 ; 1.5635951204498544E9 ; 1.5644740423083328E10 ; 0.0
87 ; 1.8680453513705283E7 ; 2.0098300021659297E8 ; 1.5822779964738336E9 ; 1.5845717576344095E10 ; 0.0
88 ; 1.867841833621712E7 ; 2.0098886122249123E8 ; 1.6009584499875388E9 ; 1.6046700576560688E10 ; 0.0
89 ; 1.8669115399226956E7 ; 2.009947354821884E8 ; 1.619636868323756E9 ; 1.6247689437783178E10 ; 0.0
90 ; 1.8662501149133503E7 ; 2.0100062222059795E8 ; 1.638305983722983E9 ; 1.6448684173265368E10 ; 0.0
91 ; 1.8662995226277802E7 ; 2.0100652068311435E8 ; 1.6569684848721163E9 ; 1.6649684795485966E10 ; 0.0
92 ; 1.865425196581428E7 ; 2.010124301349285E8 ; 1.6756314800983942E9 ; 1.685069131616908E10 ; 0.0
93 ; 1.8653188579647496E7 ; 2.010183498603648E8 ; 1.6942857320642085E9 ; 1.7051703746304008E10 ; 0.0
94 ; 1.8649381394678693E7 ; 2.010242791622393E8 ; 1.712938920643856E9 ; 1.725272209616437E10 ; 0.0
95 ; 1.8642421664216492E7 ; 2.0103021736123872E8 ; 1.7315883020385346E9 ; 1.745374637532661E10 ; 0.0
96 ; 1.8634857951590497E7 ; 2.0103616379531962E8 ; 1.7502307237027512E9 ; 1.765477659268785E10 ; 0.0
97 ; 1.8629825137341306E7 ; 2.010421178191278E8 ; 1.7688655816543417E9 ; 1.785581275648317E10 ; 0.0
98 ; 1.8623337353227455E7 ; 2.0104807880343714E8 ; 1.787495406791683E9 ; 1.8056854874302296E10 ; 0.0
99 ; 1.8618008476784024E7 ; 2.0105404613460746E8 ; 1.8061187441449103E9 ; 1.8257902953105732E10 ; 0.0
100 ; 1.8605575181852683E7 ; 2.010600192140609E8 ; 1.8247367526216943E9 ; 1.845895699924034E10 ; 0.0
101 ; 1.859956376749971E7 ; 2.0106599745777667E8 ; 1.843342327803547E9 ; 1.8660017018454403E10 ; 0.0
102 ; 1.859815103067633E7 ; 2.010719802958029E8 ; 1.8619418915710466E9 ; 1.8861083015912178E10 ; 0.0
103 ; 1.8587947736947913E7 ; 2.0107796717178613E8 ; 1.880540042601723E9 ; 1.906215499620798E10 ; 0.0
104 ; 1.857847897238788E7 ; 2.0108395754251704E8 ; 1.899127990338671E9 ; 1.926323296337977E10 ; 0.0
105 ; 1.85713935968129E7 ; 2.0108995087749234E8 ; 1.9177064693110588E9 ; 1.9464316920922287E10 ; 0.0
106 ; 1.85663277532422E7 ; 2.010959466584924E8 ; 1.9362778629078717E9 ; 1.9665406871799778E10 ; 0.0
107 ; 1.855894668601771E7 ; 2.011019443791737E8 ; 1.954844190661114E9 ; 1.986650281845827E10 ; 0.0
108 ; 1.8550344347323257E7 ; 2.011079435446762E8 ; 1.9734031373471317E9 ; 2.0067604762837444E10 ; 0.0
109 ; 1.854503355789243E7 ; 2.0111394367124477E8 ; 1.991953481694455E9 ; 2.0268712706382122E10 ; 0.0
110 ; 1.8531951886311222E7 ; 2.0111994428586403E8 ; 2.0104985152523472E9 ; 2.0469826650053368E10 ; 0.0
111 ; 1.8524702353254583E7 ; 2.011259449259067E8 ; 2.0290304671386585E9 ; 2.0670946594339233E10 ; 0.0
112 ; 1.8516849012046643E7 ; 2.0113194513879466E8 ; 2.047555169491913E9 ; 2.087207253926514E10 ; 0.0
113 ; 1.850837045078109E7 ; 2.0113794448167217E8 ; 2.0660720185039597E9 ; 2.1073204484403934E10 ; 0.0
114 ; 1.8501760014515974E7 ; 2.0114394252109107E8 ; 2.0845803889547408E9 ; 2.1274342428885605E10 ; 0.0
115 ; 1.849048223945946E7 ; 2.0114993883270743E8 ; 2.1030821489692566E9 ; 2.1475486371406696E10 ; 0.0
116 ; 1.8482521872333482E7 ; 2.0115593300098926E8 ; 2.1215726312087162E9 ; 2.1676636310239403E10 ; 0.0
117 ; 1.8471490718218308E7 ; 2.0116192461893475E8 ; 2.1400551530810497E9 ; 2.187779224324039E10 ; 0.0
118 ; 1.8463098305989183E7 ; 2.011679132878011E8 ; 2.158526643799268E9 ; 2.2078954167859325E10 ; 0.0
119 ; 1.8453951654275246E7 ; 2.011738986168427E8 ; 2.176989742105257E9 ; 2.2280122081147125E10 ; 0.0
120 ; 1.8444841979389027E7 ; 2.011798802230595E8 ; 2.1954436937595325E9 ; 2.248129597976397E10 ; 0.0
121 ; 1.843537743523121E7 ; 2.0118585773095402E8 ; 2.2138885357389216E9 ; 2.268247585998703E10 ; 0.0
122 ; 1.8424948015304923E7 ; 2.0119183077229744E8 ; 2.232323913174153E9 ; 2.2883661717717983E10 ; 0.0
123 ; 1.8414566093893196E7 ; 2.011977989859042E8 ; 2.250748861189458E9 ; 2.308485354849028E10 ; 0.0
124 ; 1.8402161470765382E7 ; 2.0120376201741472E8 ; 2.269163427283351E9 ; 2.3286051347476185E10 ; 0.0
125 ; 1.8393551389440153E7 ; 2.0120971951908612E8 ; 2.2875655887541165E9 ; 2.34872551094936E10 ; 0.0
126 ; 1.8383303467924543E7 ; 2.0121567114959037E8 ; 2.3059591401435566E9 ; 2.3688464829012684E10 ; 0.0
127 ; 1.8372084255962778E7 ; 2.0122161657382E8 ; 2.324342443611481E9 ; 2.3889680500162273E10 ; 0.0
128 ; 1.8361194411350198E7 ; 2.0122755546270046E8 ; 2.342714527867444E9 ; 2.409090211673609E10 ; 0.0
129 ; 1.834628442106022E7 ; 2.0123348749300972E8 ; 2.3610757222787943E9 ; 2.429212967219879E10 ; 0.0
130 ; 1.8335261411340136E7 ; 2.01239412347204E8 ; 2.3794220066998544E9 ; 2.4493363159691803E10 ; 0.0
131 ; 1.831711990310379E7 ; 2.0124532971324995E8 ; 2.3977572681111946E9 ; 2.4694602572039005E10 ; 0.0
132 ; 1.830578444070806E7 ; 2.012512392844628E8 ; 2.4160743880142984E9 ; 2.4895847901752254E10 ; 0.0
133 ; 1.8282765377093975E7 ; 2.0125714075935042E8 ; 2.4343801724550066E9 ; 2.5097099141036716E10 ; 0.0
134 ; 1.8266107322631285E7 ; 2.0126303384146273E8 ; 2.4526629378321004E9 ; 2.5298356281796066E10 ; 0.0
135 ; 1.8249792806257527E7 ; 2.0126891823924682E8 ; 2.4709290451547318E9 ; 2.5499619315637527E10 ; 0.0
136 ; 1.8228343783741362E7 ; 2.0127479366590688E8 ; 2.4891788379609895E9 ; 2.5700888233876774E10 ; 0.0
137 ; 1.821383913921004E7 ; 2.0128065983926943E8 ; 2.507407181744731E9 ; 2.590216302754268E10 ; 0.0
138 ; 1.8195353110587943E7 ; 2.012865164816531E8 ; 2.525621020883941E9 ; 2.6103443687381947E10 ; 0.0
139 ; 1.8175955425788693E7 ; 2.0129236331974304E8 ; 2.5438163739945292E9 ; 2.6304730203863598E10 ; 0.0
140 ; 1.815668949317103E7 ; 2.0129820008447E8 ; 2.561992329420318E9 ; 2.6506022567183342E10 ; 0.0
141 ; 1.813684418382857E7 ; 2.013040265108934E8 ; 2.5801490189134893E9 ; 2.670732076726781E10 ; 0.0
142 ; 1.812116867281216E7 ; 2.013098423380885E8 ; 2.5982858630973177E9 ; 2.6908624793778706E10 ; 0.0
143 ; 1.8099438820788946E7 ; 2.0131564730903786E8 ; 2.6164070317701297E9 ; 2.7109934636116795E10 ; 0.0
144 ; 1.808625775514023E7 ; 2.0132144117052618E8 ; 2.6345064705909185E9 ; 2.731125028342583E10 ; 0.0
145 ; 1.8073208118316818E7 ; 2.0132722367303905E8 ; 2.652592728346059E9 ; 2.7512571724596355E10 ; 0.0
146 ; 1.805815320802485E7 ; 2.0133299457066515E8 ; 2.6706659364643755E9 ; 2.7713898948269394E10 ; 0.0
147 ; 1.8043270143966906E7 ; 2.0133875362100193E8 ; 2.6887240896724005E9 ; 2.7915231942840057E10 ; 0.0
148 ; 1.803480482568243E7 ; 2.0134450058506435E8 ; 2.706767359816367E9 ; 2.811657069646106E10 ; 0.0
149 ; 1.802111163259809E7 ; 2.01350235227197E8 ; 2.72480216464205E9 ; 2.8317915197046124E10 ; 0.0
150 ; 1.80059007876481E7 ; 2.0135595731498903E8 ; 2.7428232762746477E9 ; 2.851926543227332E10 ; 0.0
151 ; 1.7998555123309396E7 ; 2.0136166661919227E8 ; 2.760829177062296E9 ; 2.8720621389588306E10 ; 0.0
152 ; 1.7984835997947585E7 ; 2.0136736291364184E8 ; 2.7788277321856055E9 ; 2.89219830562075E10 ; 0.0
153 ; 1.7973533709419675E7 ; 2.0137304597517967E8 ; 2.796812568183553E9 ; 2.9123350419121143E10 ; 0.0
154 ; 1.795937689987341E7 ; 2.0137871558358055E8 ; 2.814786101892973E9 ; 2.932472346509632E10 ; 0.0
155 ; 1.7951082668459814E7 ; 2.013843715214808E8 ; 2.832745478792846E9 ; 2.95261021806799E10 ; 0.0
156 ; 1.7935254490643423E7 ; 2.0139001357430908E8 ; 2.850696561461306E9 ; 2.972748655220138E10 ; 0.0
157 ; 1.7924215026962664E7 ; 2.0139564153021994E8 ; 2.8686318159519496E9 ; 2.9928876565775692E10 ; 0.0
158 ; 1.7907126807922028E7 ; 2.014012551800292E8 ; 2.8865560309789124E9 ; 3.0130272207305912E10 ; 0.0
159 ; 1.7897304874893427E7 ; 2.0140685431715178E8 ; 2.9044631577868342E9 ; 3.0331673462485943E10 ; 0.0
160 ; 1.787999473802981E7 ; 2.0141243873754147E8 ; 2.922360462661728E9 ; 3.0533080316803093E10 ; 0.0
161 ; 1.786898534065363E7 ; 2.0141800823963273E8 ; 2.940240457399758E9 ; 3.0734492755540634E10 ; 0.0
162 ; 1.7860706867360737E7 ; 2.0142356262428457E8 ; 2.9581094427404113E9 ; 3.0935910763780266E10 ; 0.0
163 ; 1.7850682108009763E7 ; 2.0142910169472596E8 ; 2.975970149607772E9 ; 3.113733432640455E10 ; 0.0
164 ; 1.7831081255678724E7 ; 2.014346252565035E8 ; 2.9938208317157817E9 ; 3.1338763428099274E10 ; 0.0
165 ; 1.7818086393673696E7 ; 2.0144013311743036E8 ; 3.0116519129714603E9 ; 3.1540198053355778E10 ; 0.0
166 ; 1.7806527169073563E7 ; 2.014456250875372E8 ; 3.0294699993651342E9 ; 3.174163818647321E10 ; 0.0
167 ; 1.7793236435217604E7 ; 2.0145110097902468E8 ; 3.047276526534208E9 ; 3.1943083811560745E10 ; 0.0
168 ; 1.778004560046483E7 ; 2.014565606062173E8 ; 3.065069762969425E9 ; 3.214453491253977E10 ; 0.0
169 ; 1.7770676852242585E7 ; 2.0146200378551906E8 ; 3.08284980856989E9 ; 3.2345991473145985E10 ; 0.0
170 ; 1.775048970608659E7 ; 2.0146743033537036E8 ; 3.1006204854221325E9 ; 3.2547453476931503E10 ; 0.0
171 ; 1.773700317557171E7 ; 2.0147284007620624E8 ; 3.118370975128219E9 ; 3.2748920907266872E10 ; 0.0
172 ; 1.7722410396146078E7 ; 2.0147823283041623E8 ; 3.136107978303791E9 ; 3.295039374734308E10 ; 0.0
173 ; 1.771386431190906E7 ; 2.0148360842230526E8 ; 3.1538303886999373E9 ; 3.3151871980173496E10 ; 0.0
174 ; 1.7708740494902235E7 ; 2.0148896667805597E8 ; 3.1715442530118465E9 ; 3.3353355588595802E10 ; 0.0
175 ; 1.769618013304002E7 ; 2.0149430742569208E8 ; 3.1892529935067487E9 ; 3.3554844555273857E10 ; 0.0
176 ; 1.768530914344943E7 ; 2.0149963049504313E8 ; 3.2069491736397886E9 ; 3.375633886269955E10 ; 0.0
177 ; 1.7684956710565377E7 ; 2.015049357177102E8 ; 3.224634482783238E9 ; 3.3957838493194595E10 ; 0.0
178 ; 1.7671518166018095E7 ; 2.0151022292703277E8 ; 3.2423194394938035E9 ; 3.4159343428912304E10 ; 0.0
179 ; 1.7661269299402617E7 ; 2.015154919580566E8 ; 3.2599909576598215E9 ; 3.436085365183934E10 ; 0.0
180 ; 1.7656981737184722E7 ; 2.0152074264750275E8 ; 3.277652226959224E9 ; 3.456236914379739E10 ; 0.0
181 ; 1.7646415791403305E7 ; 2.0152597483373737E8 ; 3.2953092086964087E9 ; 3.476388988644489E10 ; 0.0
182 ; 1.764117724306919E7 ; 2.015311883567427E8 ; 3.312955624487812E9 ; 3.496541586127863E10 ; 0.0
183 ; 1.76286981340899E7 ; 2.0153638305808872E8 ; 3.330596801730881E9 ; 3.5166947049635376E10 ; 0.0
184 ; 1.7616175251189247E7 ; 2.0154155878090593E8 ; 3.348225499864971E9 ; 3.536848343269347E10 ; 0.0
185 ; 1.761323787553496E7 ; 2.0154671536985874E8 ; 3.3658416751161604E9 ; 3.557002499147437E10 ; 0.0
186 ; 1.7605322731529713E7 ; 2.0155185267112E8 ; 3.3834549129916954E9 ; 3.577157170684423E10 ; 0.0
187 ; 1.75964971926309E7 ; 2.0155697053234592E8 ; 3.401060235723225E9 ; 3.597312355951535E10 ; 0.0
188 ; 1.7584286480278578E7 ; 2.0156206880265224E8 ; 3.418656732915856E9 ; 3.61746805300477E10 ; 0.0
189 ; 1.7574049312323257E7 ; 2.015671473325908E8 ; 3.4362410193961344E9 ; 3.637624259885035E10 ; 0.0
190 ; 1.7569201547610857E7 ; 2.0157220597412682E8 ; 3.4538150687084575E9 ; 3.657780974618294E10 ; 0.0
191 ; 1.755979072745294E7 ; 2.015772445806172E8 ; 3.471384270256068E9 ; 3.677938195215707E10 ; 0.0
192 ; 1.7552179141983785E7 ; 2.015822630067891E8 ; 3.488944060983521E9 ; 3.6980959196737686E10 ; 0.0
193 ; 1.754551855410573E7 ; 2.015872611087196E8 ; 3.506496240125505E9 ; 3.718254145974448E10 ; 0.0
194 ; 1.7532296785354663E7 ; 2.0159223874381542E8 ; 3.5240417586796107E9 ; 3.7384128720853195E10 ; 0.0
195 ; 1.752608865879674E7 ; 2.01597195770794E8 ; 3.5415740554649653E9 ; 3.758572095959701E10 ; 0.0
