CSV File for the City 6 on Day 1
1 - Minute m 
2 - Power Consumed at minute m 
3 - Power Produced at minute m 
4 - Energy Consumed since the beginning of the day 
5 - Energy Produced since the beginning of the day 
6 - Energy Lost since the beginning of the day on lines starting from the city
 
0 ; 8677350.004924938 ; 1.023501608765382E7 ; 0.0 ; 0.0 ; 0.0
1 ; 8688670.252483467 ; 1.023501608765382E7 ; 8677350.004924938 ; 1.023501608765382E7 ; 0.0
2 ; 8702259.947696362 ; 1.023501608765382E7 ; 1.7366020257408403E7 ; 2.047003217530764E7 ; 0.0
3 ; 8710038.3468307 ; 1.023501608765382E7 ; 2.6068280205104765E7 ; 3.070504826296146E7 ; 0.0
4 ; 8721741.047003005 ; 1.023501608765382E7 ; 3.4778318551935464E7 ; 4.094006435061528E7 ; 0.0
5 ; 8735008.214020321 ; 1.023501608765382E7 ; 4.3500059598938465E7 ; 5.117508043826909E7 ; 0.0
6 ; 8759082.764227632 ; 1.023501608765382E7 ; 5.2235067812958784E7 ; 6.141009652592291E7 ; 0.0
7 ; 8789173.534309164 ; 1.023501608765382E7 ; 6.099415057718642E7 ; 7.164511261357673E7 ; 0.0
8 ; 8826816.259221029 ; 1.023501608765382E7 ; 6.978332411149558E7 ; 8.188012870123054E7 ; 0.0
9 ; 8898064.642051622 ; 1.023501608765382E7 ; 7.861014037071662E7 ; 9.211514478888436E7 ; 0.0
10 ; 8990675.511769373 ; 1.023501608765382E7 ; 8.750820501276824E7 ; 1.0235016087653817E8 ; 0.0
11 ; 9147058.09789913 ; 1.023501608765382E7 ; 9.649888052453761E7 ; 1.1258517696419199E8 ; 0.0
12 ; 9395012.002659552 ; 1.023501608765382E7 ; 1.0564593862243673E8 ; 1.228201930518458E8 ; 0.0
13 ; 9630756.466263754 ; 1.023501608765382E7 ; 1.1504095062509629E8 ; 1.3305520913949962E8 ; 0.0
14 ; 9661462.848560553 ; 1.023501608765382E7 ; 1.2467170709136005E8 ; 1.4329022522715345E8 ; 0.0
15 ; 9673957.69719962 ; 1.023501608765382E7 ; 1.343331699399206E8 ; 1.5352524131480727E8 ; 0.0
16 ; 9680295.528693683 ; 1.023501608765382E7 ; 1.4400712763712022E8 ; 1.6376025740246108E8 ; 0.0
17 ; 9695435.671068337 ; 1.023501608765382E7 ; 1.536874231658139E8 ; 1.739952734901149E8 ; 0.0
18 ; 9703108.640654175 ; 1.023501608765382E7 ; 1.6338285883688223E8 ; 1.842302895777687E8 ; 0.0
19 ; 9719539.91845381 ; 1.023501608765382E7 ; 1.730859674775364E8 ; 1.9446530566542253E8 ; 0.0
20 ; 9727870.734863058 ; 1.023501608765382E7 ; 1.8280550739599022E8 ; 2.0470032175307634E8 ; 0.0
21 ; 9736904.876522154 ; 1.023501608765382E7 ; 1.925333781308533E8 ; 2.1493533784073016E8 ; 0.0
22 ; 9750945.070698503 ; 1.023501608765382E7 ; 2.0227028300737545E8 ; 2.2517035392838398E8 ; 0.0
23 ; 9760716.47622188 ; 1.023501608765382E7 ; 2.1202122807807395E8 ; 2.354053700160378E8 ; 0.0
24 ; 9772825.108485112 ; 1.023501608765382E7 ; 2.2178194455429584E8 ; 2.456403861036916E8 ; 0.0
25 ; 9779948.490988085 ; 1.023501608765382E7 ; 2.3155476966278094E8 ; 2.5587540219134542E8 ; 0.0
26 ; 9797388.297990717 ; 1.023501608765382E7 ; 2.4133471815376902E8 ; 2.6611041827899924E8 ; 0.0
27 ; 9806075.575503105 ; 1.023501608765382E7 ; 2.5113210645175973E8 ; 2.763454343666531E8 ; 0.0
28 ; 9817991.922791488 ; 1.023501608765382E7 ; 2.6093818202726284E8 ; 2.865804504543069E8 ; 0.0
29 ; 9829588.53780249 ; 1.023501608765382E7 ; 2.7075617395005435E8 ; 2.968154665419607E8 ; 0.0
30 ; 9838153.271893093 ; 1.023501608765382E7 ; 2.8058576248785686E8 ; 3.0705048262961453E8 ; 0.0
31 ; 9851886.602227759 ; 1.023501608765382E7 ; 2.9042391575974995E8 ; 3.1728549871726835E8 ; 0.0
32 ; 9862353.372956779 ; 1.023501608765382E7 ; 3.002758023619777E8 ; 3.2752051480492216E8 ; 0.0
33 ; 9869064.758276066 ; 1.023501608765382E7 ; 3.1013815573493445E8 ; 3.37755530892576E8 ; 0.0
34 ; 9879216.188795814 ; 1.023501608765382E7 ; 3.200072204932105E8 ; 3.479905469802298E8 ; 0.0
35 ; 9889104.374138724 ; 1.023501608765382E7 ; 3.298864366820063E8 ; 3.582255630678836E8 ; 0.0
36 ; 9898470.813818231 ; 1.023501608765382E7 ; 3.39775541056145E8 ; 3.684605791555374E8 ; 0.0
37 ; 9908819.058124062 ; 1.023501608765382E7 ; 3.496740118699632E8 ; 3.7869559524319124E8 ; 0.0
38 ; 9914949.518230947 ; 1.023501608765382E7 ; 3.595828309280873E8 ; 3.8893061133084506E8 ; 0.0
39 ; 9922375.86553169 ; 1.023501608765382E7 ; 3.6949778044631827E8 ; 3.991656274184989E8 ; 0.0
40 ; 9931655.295413332 ; 1.023501608765382E7 ; 3.7942015631184995E8 ; 4.094006435061527E8 ; 0.0
41 ; 9937713.220725473 ; 1.023501608765382E7 ; 3.8935181160726327E8 ; 4.196356595938065E8 ; 0.0
42 ; 9948106.903975733 ; 1.023501608765382E7 ; 3.9928952482798874E8 ; 4.298706756814603E8 ; 0.0
43 ; 9950684.814619647 ; 1.023501608765382E7 ; 4.0923763173196447E8 ; 4.4010569176911414E8 ; 0.0
44 ; 9956505.497132985 ; 1.023501608765382E7 ; 4.191883165465841E8 ; 4.5034070785676795E8 ; 0.0
45 ; 9964194.307183469 ; 1.023501608765382E7 ; 4.291448220437171E8 ; 4.6057572394442177E8 ; 0.0
46 ; 9968027.098228477 ; 1.023501608765382E7 ; 4.3910901635090053E8 ; 4.708107400320756E8 ; 0.0
47 ; 9973319.009349532 ; 1.023501608765382E7 ; 4.49077043449129E8 ; 4.810457561197294E8 ; 0.0
48 ; 9977000.446932372 ; 1.023501608765382E7 ; 4.590503624584785E8 ; 4.912807722073832E8 ; 0.0
49 ; 9982745.10822463 ; 1.023501608765382E7 ; 4.690273629054109E8 ; 5.0151578829503703E8 ; 0.0
50 ; 9984104.010312364 ; 1.023501608765382E7 ; 4.790101080136355E8 ; 5.1175080438269085E8 ; 0.0
51 ; 9989233.079586733 ; 1.023501608765382E7 ; 4.889942120239479E8 ; 5.2198582047034466E8 ; 0.0
52 ; 9991300.735599693 ; 1.023501608765382E7 ; 4.9898344510353464E8 ; 5.322208365579985E8 ; 0.0
53 ; 9993200.504188506 ; 1.023501608765382E7 ; 5.0897474583913434E8 ; 5.424558526456523E8 ; 0.0
54 ; 9996731.317431375 ; 1.023501608765382E7 ; 5.189679463433228E8 ; 5.526908687333062E8 ; 0.0
55 ; 1.0000335867009923E7 ; 1.023501608765382E7 ; 5.289646776607542E8 ; 5.6292588482096E8 ; 0.0
56 ; 1.000025318081617E7 ; 1.023501608765382E7 ; 5.389650135277641E8 ; 5.731609009086139E8 ; 0.0
57 ; 1.0003139529590214E7 ; 1.023501608765382E7 ; 5.489652667085803E8 ; 5.833959169962678E8 ; 0.0
58 ; 1.0006254960824559E7 ; 1.023501608765382E7 ; 5.589684062381705E8 ; 5.936309330839217E8 ; 0.0
59 ; 1.0008325013712274E7 ; 1.023501608765382E7 ; 5.689746611989951E8 ; 6.038659491715755E8 ; 0.0
60 ; 1.0010945242885076E7 ; 1.023501608765382E7 ; 5.789829862127074E8 ; 6.141009652592294E8 ; 0.0
61 ; 1.0012567061663805E7 ; 1.023501608765382E7 ; 5.889939314555925E8 ; 6.243359813468833E8 ; 0.0
62 ; 1.001373976211237E7 ; 1.023501608765382E7 ; 5.990064985172563E8 ; 6.345709974345372E8 ; 0.0
63 ; 1.0016453362097712E7 ; 1.023501608765382E7 ; 6.090202382793686E8 ; 6.44806013522191E8 ; 0.0
64 ; 1.0015733893325752E7 ; 1.023501608765382E7 ; 6.190366916414664E8 ; 6.550410296098449E8 ; 0.0
65 ; 1.0019051040467592E7 ; 1.023501608765382E7 ; 6.290524255347922E8 ; 6.652760456974988E8 ; 0.0
66 ; 1.0022286919927496E7 ; 1.023501608765382E7 ; 6.390714765752598E8 ; 6.755110617851527E8 ; 0.0
67 ; 1.0020909887832059E7 ; 1.023501608765382E7 ; 6.490937634951873E8 ; 6.857460778728065E8 ; 0.0
68 ; 1.002365354590276E7 ; 1.023501608765382E7 ; 6.591146733830193E8 ; 6.959810939604604E8 ; 0.0
69 ; 1.002324703723496E7 ; 1.023501608765382E7 ; 6.69138326928922E8 ; 7.062161100481143E8 ; 0.0
70 ; 1.0027829284521941E7 ; 1.023501608765382E7 ; 6.79161573966157E8 ; 7.164511261357682E8 ; 0.0
71 ; 1.0024749682664301E7 ; 1.023501608765382E7 ; 6.891894032506789E8 ; 7.26686142223422E8 ; 0.0
72 ; 1.0029861827992912E7 ; 1.023501608765382E7 ; 6.992141529333432E8 ; 7.369211583110759E8 ; 0.0
73 ; 1.0030238330948448E7 ; 1.023501608765382E7 ; 7.092440147613361E8 ; 7.471561743987298E8 ; 0.0
74 ; 1.002930836709221E7 ; 1.023501608765382E7 ; 7.192742530922846E8 ; 7.573911904863837E8 ; 0.0
75 ; 1.0030943246333355E7 ; 1.023501608765382E7 ; 7.293035614593768E8 ; 7.676262065740376E8 ; 0.0
76 ; 1.0032135919383142E7 ; 1.023501608765382E7 ; 7.393345047057102E8 ; 7.778612226616914E8 ; 0.0
77 ; 1.0030942523171062E7 ; 1.023501608765382E7 ; 7.493666406250933E8 ; 7.880962387493453E8 ; 0.0
78 ; 1.0027990482426543E7 ; 1.023501608765382E7 ; 7.593975831482644E8 ; 7.983312548369992E8 ; 0.0
79 ; 1.0029497111425206E7 ; 1.023501608765382E7 ; 7.694255736306909E8 ; 8.08566270924653E8 ; 0.0
80 ; 1.0021672819835737E7 ; 1.023501608765382E7 ; 7.794550707421161E8 ; 8.188012870123069E8 ; 0.0
81 ; 1.0022691650770525E7 ; 1.023501608765382E7 ; 7.894767435619519E8 ; 8.290363030999608E8 ; 0.0
82 ; 1.0017344276568709E7 ; 1.023501608765382E7 ; 7.994994352127224E8 ; 8.392713191876147E8 ; 0.0
83 ; 1.0016597320042983E7 ; 1.023501608765382E7 ; 8.095167794892911E8 ; 8.495063352752686E8 ; 0.0
84 ; 1.0014942490928497E7 ; 1.023501608765382E7 ; 8.19533376809334E8 ; 8.597413513629224E8 ; 0.0
85 ; 1.0006070372327639E7 ; 1.023501608765382E7 ; 8.295483193002626E8 ; 8.699763674505763E8 ; 0.0
86 ; 1.0005567961599978E7 ; 1.023501608765382E7 ; 8.395543896725903E8 ; 8.802113835382302E8 ; 0.0
87 ; 1.0001148746218113E7 ; 1.023501608765382E7 ; 8.495599576341902E8 ; 8.90446399625884E8 ; 0.0
88 ; 9996127.124628715 ; 1.023501608765382E7 ; 8.595611063804083E8 ; 9.006814157135379E8 ; 0.0
89 ; 9994258.876012288 ; 1.023501608765382E7 ; 8.69557233505037E8 ; 9.109164318011918E8 ; 0.0
90 ; 9992227.86723955 ; 1.023501608765382E7 ; 8.795514923810493E8 ; 9.211514478888457E8 ; 0.0
91 ; 9987980.688618101 ; 1.023501608765382E7 ; 8.895437202482889E8 ; 9.313864639764996E8 ; 0.0
92 ; 9984408.812335111 ; 1.023501608765382E7 ; 8.995317009369069E8 ; 9.416214800641534E8 ; 0.0
93 ; 9978425.708996423 ; 1.023501608765382E7 ; 9.095161097492421E8 ; 9.518564961518073E8 ; 0.0
94 ; 9976264.428581532 ; 1.023501608765382E7 ; 9.194945354582385E8 ; 9.620915122394612E8 ; 0.0
95 ; 9970506.571135497 ; 1.023501608765382E7 ; 9.2947079988682E8 ; 9.72326528327115E8 ; 0.0
96 ; 9966870.633608196 ; 1.023501608765382E7 ; 9.394413064579555E8 ; 9.825615444147689E8 ; 0.0
97 ; 9962968.740998533 ; 1.023501608765382E7 ; 9.494081770915637E8 ; 9.927965605024228E8 ; 0.0
98 ; 9956762.455417039 ; 1.023501608765382E7 ; 9.593711458325622E8 ; 1.0030315765900767E9 ; 0.0
99 ; 9952179.959339254 ; 1.023501608765382E7 ; 9.693279082879792E8 ; 1.0132665926777306E9 ; 0.0
100 ; 9950239.63950816 ; 1.023501608765382E7 ; 9.792800882473185E8 ; 1.0235016087653844E9 ; 0.0
101 ; 9943085.959742917 ; 1.023501608765382E7 ; 9.892303278868266E8 ; 1.0337366248530383E9 ; 0.0
102 ; 9942882.474142952 ; 1.023501608765382E7 ; 9.991734138465695E8 ; 1.0439716409406922E9 ; 0.0
103 ; 9935423.44716401 ; 1.023501608765382E7 ; 1.0091162963207124E9 ; 1.0542066570283461E9 ; 0.0
104 ; 9929366.392226022 ; 1.023501608765382E7 ; 1.0190517197678765E9 ; 1.0644416731159999E9 ; 0.0
105 ; 9925171.750343084 ; 1.023501608765382E7 ; 1.0289810861601025E9 ; 1.0746766892036538E9 ; 0.0
106 ; 9917758.95371217 ; 1.023501608765382E7 ; 1.0389062579104456E9 ; 1.0849117052913077E9 ; 0.0
107 ; 9910128.99382961 ; 1.023501608765382E7 ; 1.0488240168641578E9 ; 1.0951467213789616E9 ; 0.0
108 ; 9910132.187538112 ; 1.023501608765382E7 ; 1.0587341458579874E9 ; 1.1053817374666154E9 ; 0.0
109 ; 9902665.160496214 ; 1.023501608765382E7 ; 1.0686442780455256E9 ; 1.1156167535542693E9 ; 0.0
110 ; 9898761.040381806 ; 1.023501608765382E7 ; 1.0785469432060218E9 ; 1.1258517696419232E9 ; 0.0
111 ; 9893588.002306161 ; 1.023501608765382E7 ; 1.0884457042464037E9 ; 1.136086785729577E9 ; 0.0
112 ; 9884486.13343125 ; 1.023501608765382E7 ; 1.09833929224871E9 ; 1.146321801817231E9 ; 0.0
113 ; 9877831.971376898 ; 1.023501608765382E7 ; 1.108223778382141E9 ; 1.1565568179048848E9 ; 0.0
114 ; 9874053.455057327 ; 1.023501608765382E7 ; 1.118101610353518E9 ; 1.1667918339925387E9 ; 0.0
115 ; 9866862.107298067 ; 1.023501608765382E7 ; 1.1279756638085754E9 ; 1.1770268500801926E9 ; 0.0
116 ; 9860920.024922993 ; 1.023501608765382E7 ; 1.1378425259158735E9 ; 1.1872618661678464E9 ; 0.0
117 ; 9856138.186621496 ; 1.023501608765382E7 ; 1.1477034459407966E9 ; 1.1974968822555003E9 ; 0.0
118 ; 9848516.454756744 ; 1.023501608765382E7 ; 1.157559584127418E9 ; 1.2077318983431542E9 ; 0.0
119 ; 9840223.290643407 ; 1.023501608765382E7 ; 1.1674081005821748E9 ; 1.217966914430808E9 ; 0.0
120 ; 9836920.436691234 ; 1.023501608765382E7 ; 1.1772483238728182E9 ; 1.228201930518462E9 ; 0.0
121 ; 9828603.80160769 ; 1.023501608765382E7 ; 1.1870852443095095E9 ; 1.2384369466061158E9 ; 0.0
122 ; 9822389.232357204 ; 1.023501608765382E7 ; 1.1969138481111171E9 ; 1.2486719626937697E9 ; 0.0
123 ; 9816171.556868637 ; 1.023501608765382E7 ; 1.2067362373434744E9 ; 1.2589069787814236E9 ; 0.0
124 ; 9809471.657571597 ; 1.023501608765382E7 ; 1.216552408900343E9 ; 1.2691419948690774E9 ; 0.0
125 ; 9799729.448209774 ; 1.023501608765382E7 ; 1.2263618805579145E9 ; 1.2793770109567313E9 ; 0.0
126 ; 9795641.80816538 ; 1.023501608765382E7 ; 1.2361616100061243E9 ; 1.2896120270443852E9 ; 0.0
127 ; 9791989.98536129 ; 1.023501608765382E7 ; 1.2459572518142896E9 ; 1.299847043132039E9 ; 0.0
128 ; 9782977.011655068 ; 1.023501608765382E7 ; 1.255749241799651E9 ; 1.310082059219693E9 ; 0.0
129 ; 9771598.699209074 ; 1.023501608765382E7 ; 1.265532218811306E9 ; 1.3203170753073468E9 ; 0.0
130 ; 9765143.663981978 ; 1.023501608765382E7 ; 1.275303817510515E9 ; 1.3305520913950007E9 ; 0.0
131 ; 9750749.389470438 ; 1.023501608765382E7 ; 1.285068961174497E9 ; 1.3407871074826546E9 ; 0.0
132 ; 9741329.181170382 ; 1.023501608765382E7 ; 1.2948197105639672E9 ; 1.3510221235703084E9 ; 0.0
133 ; 9731791.482031908 ; 1.023501608765382E7 ; 1.3045610397451377E9 ; 1.3612571396579623E9 ; 0.0
134 ; 9721590.777700111 ; 1.023501608765382E7 ; 1.3142928312271695E9 ; 1.3714921557456162E9 ; 0.0
135 ; 9708968.619295806 ; 1.023501608765382E7 ; 1.3240144220048697E9 ; 1.38172717183327E9 ; 0.0
136 ; 9698982.785683958 ; 1.023501608765382E7 ; 1.3337233906241655E9 ; 1.391962187920924E9 ; 0.0
137 ; 9687913.469296262 ; 1.023501608765382E7 ; 1.3434223734098494E9 ; 1.4021972040085778E9 ; 0.0
138 ; 9679737.343427489 ; 1.023501608765382E7 ; 1.3531102868791456E9 ; 1.4124322200962317E9 ; 0.0
139 ; 9664979.320071034 ; 1.023501608765382E7 ; 1.362790024222573E9 ; 1.4226672361838856E9 ; 0.0
140 ; 9657855.840579286 ; 1.023501608765382E7 ; 1.372455003542644E9 ; 1.4329022522715394E9 ; 0.0
141 ; 9645688.197487548 ; 1.023501608765382E7 ; 1.3821128593832233E9 ; 1.4431372683591933E9 ; 0.0
142 ; 9632147.312424695 ; 1.023501608765382E7 ; 1.391758547580711E9 ; 1.4533722844468472E9 ; 0.0
143 ; 9620605.708475359 ; 1.023501608765382E7 ; 1.4013906948931355E9 ; 1.463607300534501E9 ; 0.0
144 ; 9607760.795967981 ; 1.023501608765382E7 ; 1.411011300601611E9 ; 1.473842316622155E9 ; 0.0
145 ; 9602517.236701876 ; 1.023501608765382E7 ; 1.420619061397579E9 ; 1.4840773327098088E9 ; 0.0
146 ; 9589903.473194338 ; 1.023501608765382E7 ; 1.430221578634281E9 ; 1.4943123487974627E9 ; 0.0
147 ; 9586648.555475412 ; 1.023501608765382E7 ; 1.4398114821074753E9 ; 1.5045473648851166E9 ; 0.0
148 ; 9579235.064337848 ; 1.023501608765382E7 ; 1.4493981306629508E9 ; 1.5147823809727705E9 ; 0.0
149 ; 9568078.84203176 ; 1.023501608765382E7 ; 1.4589773657272885E9 ; 1.5250173970604243E9 ; 0.0
150 ; 9562388.590561196 ; 1.023501608765382E7 ; 1.4685454445693202E9 ; 1.5352524131480782E9 ; 0.0
151 ; 9555369.350842865 ; 1.023501608765382E7 ; 1.4781078331598814E9 ; 1.545487429235732E9 ; 0.0
152 ; 9544935.505092382 ; 1.023501608765382E7 ; 1.4876632025107243E9 ; 1.555722445323386E9 ; 0.0
153 ; 9533194.098932855 ; 1.023501608765382E7 ; 1.4972081380158167E9 ; 1.5659574614110398E9 ; 0.0
154 ; 9531257.112559743 ; 1.023501608765382E7 ; 1.5067413321147494E9 ; 1.5761924774986937E9 ; 0.0
155 ; 9522473.899971161 ; 1.023501608765382E7 ; 1.5162725892273092E9 ; 1.5864274935863476E9 ; 0.0
156 ; 9512464.272327563 ; 1.023501608765382E7 ; 1.5257950631272805E9 ; 1.5966625096740015E9 ; 0.0
157 ; 9502453.14014176 ; 1.023501608765382E7 ; 1.5353075273996081E9 ; 1.6068975257616553E9 ; 0.0
158 ; 9494664.053297292 ; 1.023501608765382E7 ; 1.5448099805397499E9 ; 1.6171325418493092E9 ; 0.0
159 ; 9487741.647771118 ; 1.023501608765382E7 ; 1.5543046445930471E9 ; 1.627367557936963E9 ; 0.0
160 ; 9476560.626779336 ; 1.023501608765382E7 ; 1.5637923862408183E9 ; 1.637602574024617E9 ; 0.0
161 ; 9467439.956167024 ; 1.023501608765382E7 ; 1.5732689468675976E9 ; 1.6478375901122708E9 ; 0.0
162 ; 9458990.316741899 ; 1.023501608765382E7 ; 1.5827363868237646E9 ; 1.6580726061999247E9 ; 0.0
163 ; 9453644.863061722 ; 1.023501608765382E7 ; 1.5921953771405065E9 ; 1.6683076222875786E9 ; 0.0
164 ; 9442234.002602542 ; 1.023501608765382E7 ; 1.6016490220035682E9 ; 1.6785426383752325E9 ; 0.0
165 ; 9433200.112816956 ; 1.023501608765382E7 ; 1.6110912560061707E9 ; 1.6887776544628863E9 ; 0.0
166 ; 9426949.120540526 ; 1.023501608765382E7 ; 1.6205244561189878E9 ; 1.6990126705505402E9 ; 0.0
167 ; 9418432.796038646 ; 1.023501608765382E7 ; 1.6299514052395284E9 ; 1.709247686638194E9 ; 0.0
168 ; 9408763.686337978 ; 1.023501608765382E7 ; 1.639369838035567E9 ; 1.719482702725848E9 ; 0.0
169 ; 9400330.803597528 ; 1.023501608765382E7 ; 1.648778601721905E9 ; 1.7297177188135018E9 ; 0.0
170 ; 9390890.416252036 ; 1.023501608765382E7 ; 1.6581789325255024E9 ; 1.7399527349011557E9 ; 0.0
171 ; 9382698.880085228 ; 1.023501608765382E7 ; 1.6675698229417546E9 ; 1.7501877509888096E9 ; 0.0
172 ; 9373861.221382162 ; 1.023501608765382E7 ; 1.6769525218218398E9 ; 1.7604227670764635E9 ; 0.0
173 ; 9368142.30284746 ; 1.023501608765382E7 ; 1.686326383043222E9 ; 1.7706577831641173E9 ; 0.0
174 ; 9360891.149588924 ; 1.023501608765382E7 ; 1.6956945253460693E9 ; 1.7808927992517712E9 ; 0.0
175 ; 9354982.233132567 ; 1.023501608765382E7 ; 1.7050554164956582E9 ; 1.791127815339425E9 ; 0.0
176 ; 9347766.516689574 ; 1.023501608765382E7 ; 1.7144103987287908E9 ; 1.801362831427079E9 ; 0.0
177 ; 9345089.945644576 ; 1.023501608765382E7 ; 1.7237581652454803E9 ; 1.8115978475147328E9 ; 0.0
178 ; 9339870.388886224 ; 1.023501608765382E7 ; 1.733103255191125E9 ; 1.8218328636023867E9 ; 0.0
179 ; 9334474.317240436 ; 1.023501608765382E7 ; 1.7424431255800111E9 ; 1.8320678796900406E9 ; 0.0
180 ; 9327774.44631583 ; 1.023501608765382E7 ; 1.7517775998972516E9 ; 1.8423028957776945E9 ; 0.0
181 ; 9323900.78956113 ; 1.023501608765382E7 ; 1.7611053743435674E9 ; 1.8525379118653483E9 ; 0.0
182 ; 9318498.48107855 ; 1.023501608765382E7 ; 1.7704292751331284E9 ; 1.8627729279530022E9 ; 0.0
183 ; 9310921.727524351 ; 1.023501608765382E7 ; 1.779747773614207E9 ; 1.873007944040656E9 ; 0.0
184 ; 9304904.206068074 ; 1.023501608765382E7 ; 1.7890586953417313E9 ; 1.88324296012831E9 ; 0.0
185 ; 9299263.390123727 ; 1.023501608765382E7 ; 1.7983635995477993E9 ; 1.8934779762159638E9 ; 0.0
186 ; 9298786.6689485 ; 1.023501608765382E7 ; 1.8076628629379232E9 ; 1.9037129923036177E9 ; 0.0
187 ; 9290921.053147165 ; 1.023501608765382E7 ; 1.8169616496068716E9 ; 1.9139480083912716E9 ; 0.0
188 ; 9282821.552679991 ; 1.023501608765382E7 ; 1.8262525706600187E9 ; 1.9241830244789255E9 ; 0.0
189 ; 9280839.878534794 ; 1.023501608765382E7 ; 1.8355353922126987E9 ; 1.9344180405665793E9 ; 0.0
190 ; 9275923.680577274 ; 1.023501608765382E7 ; 1.8448162320912335E9 ; 1.9446530566542332E9 ; 0.0
191 ; 9266775.326346386 ; 1.023501608765382E7 ; 1.8540921557718108E9 ; 1.954888072741887E9 ; 0.0
192 ; 9259973.804378055 ; 1.023501608765382E7 ; 1.8633589310981572E9 ; 1.965123088829541E9 ; 0.0
193 ; 9257919.193691468 ; 1.023501608765382E7 ; 1.8726189049025352E9 ; 1.9753581049171948E9 ; 0.0
194 ; 9253778.87094099 ; 1.023501608765382E7 ; 1.8818768240962267E9 ; 1.9855931210048487E9 ; 0.0
195 ; 9247698.04537954 ; 1.023501608765382E7 ; 1.8911306029671676E9 ; 1.9958281370925026E9 ; 0.0
196 ; 9245146.843116002 ; 1.023501608765382E7 ; 1.9003783010125473E9 ; 2.0060631531801565E9 ; 0.0
197 ; 9234900.288054122 ; 1.023501608765382E7 ; 1.9096234478556633E9 ; 2.0162981692678103E9 ; 0.0
198 ; 9231656.659566795 ; 1.023501608765382E7 ; 1.9188583481437175E9 ; 2.0265331853554642E9 ; 0.0
199 ; 9225564.6993928 ; 1.023501608765382E7 ; 1.9280900048032844E9 ; 2.036768201443118E9 ; 0.0
200 ; 9222983.165458346 ; 1.023501608765382E7 ; 1.9373155695026772E9 ; 2.047003217530772E9 ; 0.0
201 ; 9212173.752123542 ; 1.023501608765382E7 ; 1.9465385526681356E9 ; 2.0572382336184258E9 ; 0.0
202 ; 9212486.927892655 ; 1.023501608765382E7 ; 1.9557507264202592E9 ; 2.0674732497060797E9 ; 0.0
203 ; 9205352.790276542 ; 1.023501608765382E7 ; 1.964963213348152E9 ; 2.0777082657937336E9 ; 0.0
