CSV File for the City 1 on Day 41
1 - Minute m 
2 - Power Consumed at minute m 
3 - Power Produced at minute m 
4 - Energy Consumed since the beginning of the day 
5 - Energy Produced since the beginning of the day 
6 - Energy Lost since the beginning of the day on lines starting from the city
 
0 ; 1.597419911499725E7 ; 1.0533934885661647E8 ; 0.0 ; 0.0 ; 0.0
1 ; 1.5989997063682728E7 ; 1.0549175282348889E8 ; 1.597419911499725E7 ; 1.0533934885661647E8 ; 0.0
2 ; 1.6010042018035438E7 ; 1.0595298229406533E8 ; 3.1964196178679977E7 ; 2.1083110168010536E8 ; 0.0
3 ; 1.6032874028962824E7 ; 1.0672304292525381E8 ; 4.7974238196715415E7 ; 3.167840839741707E8 ; 0.0
4 ; 1.6053040791296717E7 ; 1.0780193994799167E8 ; 6.4007112225678235E7 ; 4.235071268994245E8 ; 0.0
5 ; 1.608079681163747E7 ; 1.091896780890795E8 ; 8.006015301697496E7 ; 5.3130906684741616E8 ; 0.0
6 ; 1.6122232086643888E7 ; 1.1088626149623361E8 ; 9.614094982861243E7 ; 6.404987449364957E8 ; 0.0
7 ; 1.6173813295716872E7 ; 1.1289169366889691E8 ; 1.1226318191525632E8 ; 7.513850064327292E8 ; 0.0
8 ; 1.6254320657667054E7 ; 1.1520597739734387E8 ; 1.2843699521097319E8 ; 8.642767001016262E8 ; 0.0
9 ; 1.637124545298841E7 ; 1.1782911471245784E8 ; 1.4469131586864024E8 ; 9.7948267749897E8 ; 0.0
10 ; 1.655071453095508E7 ; 1.2076110684823817E8 ; 1.6106256132162866E8 ; 1.097311792211428E9 ; 0.0
11 ; 1.6838908775413197E7 ; 1.240019542186307E8 ; 1.7761327585258374E8 ; 1.2180728990596662E9 ; 0.0
12 ; 1.7304356599331144E7 ; 1.2755165640968958E8 ; 1.9445218462799692E8 ; 1.342074853278297E9 ; 0.0
13 ; 1.7747817236562356E7 ; 1.3141021218741542E8 ; 2.1175654122732806E8 ; 1.4696265096879866E9 ; 0.0
14 ; 1.7801312042160228E7 ; 1.35577619520925E8 ; 2.2950435846389043E8 ; 1.601036721875402E9 ; 0.0
15 ; 1.7822581492399346E7 ; 1.4005387561994368E8 ; 2.4730567050605065E8 ; 1.736614341396327E9 ; 0.0
16 ; 1.784164807681583E7 ; 1.448389769850287E8 ; 2.6512825199844998E8 ; 1.8766682170162706E9 ; 0.0
17 ; 1.7865236100785423E7 ; 1.499329194684637E8 ; 2.829699000752658E8 ; 2.0215071940012994E9 ; 0.0
18 ; 1.7887218743337184E7 ; 1.5533569834344804E8 ; 3.0083513617605126E8 ; 2.1714401134697633E9 ; 0.0
19 ; 1.7904973143351495E7 ; 1.6104730837904444E8 ; 3.187223549193884E8 ; 2.3267758118132114E9 ; 0.0
20 ; 1.7925913889905866E7 ; 1.6706774391834483E8 ; 3.366273280627399E8 ; 2.487823120192256E9 ; 0.0
21 ; 1.7950120195941817E7 ; 1.7339699895744708E8 ; 3.545532419526458E8 ; 2.654890864110601E9 ; 0.0
22 ; 1.7969664046112753E7 ; 1.8003506722307956E8 ; 3.725033621485876E8 ; 2.828287863068048E9 ; 0.0
23 ; 1.7991284014963247E7 ; 1.869819422470312E8 ; 3.9047302619470036E8 ; 3.0083229302911277E9 ; 0.0
24 ; 1.8010882975825105E7 ; 1.9423761743591255E8 ; 4.084643102096636E8 ; 3.195304872538159E9 ; 0.0
25 ; 1.8031149812120993E7 ; 2.004901270333341E8 ; 4.2647519318548876E8 ; 3.3895424899740715E9 ; 0.0
26 ; 1.805163210994239E7 ; 2.0049301221430176E8 ; 4.4450634299760973E8 ; 3.5900326170074058E9 ; 0.0
27 ; 1.8070978448513296E7 ; 2.0049603566072956E8 ; 4.625579751075521E8 ; 3.7905256292217073E9 ; 0.0
28 ; 1.8090146439964317E7 ; 2.0049919085182628E8 ; 4.806289535560654E8 ; 3.9910216648824368E9 ; 0.0
29 ; 1.8111584882353894E7 ; 2.0050247139409176E8 ; 4.987190999960297E8 ; 4.191520855734263E9 ; 0.0
30 ; 1.8131605972682256E7 ; 2.0050587105152142E8 ; 5.168306848783836E8 ; 4.392023327128355E9 ; 0.0
31 ; 1.8154359180644896E7 ; 2.005093837697145E8 ; 5.349622908510658E8 ; 4.592529198179876E9 ; 0.0
32 ; 1.8166589784980383E7 ; 2.0051300369442287E8 ; 5.531166500317107E8 ; 4.793038581949591E9 ; 0.0
33 ; 1.8187006740651708E7 ; 2.0051672518512684E8 ; 5.712832398166912E8 ; 4.993551585644013E9 ; 0.0
34 ; 1.820428629703891E7 ; 2.0052054282423952E8 ; 5.894702465573429E8 ; 5.194068310829141E9 ; 0.0
35 ; 1.8226772407707803E7 ; 2.0052445142253417E8 ; 6.076745328543818E8 ; 5.39458885365338E9 ; 0.0
36 ; 1.8238358213984825E7 ; 2.005284460213611E8 ; 6.259013052620896E8 ; 5.595113305075914E9 ; 0.0
37 ; 1.825622168337814E7 ; 2.0053252189218348E8 ; 6.441396634760745E8 ; 5.795641751097276E9 ; 0.0
38 ; 1.8266997326671194E7 ; 2.0053667453391284E8 ; 6.623958851594526E8 ; 5.996174272989459E9 ; 0.0
39 ; 1.828451090107196E7 ; 2.0054089966847622E8 ; 6.806628824861238E8 ; 6.196710947523372E9 ; 0.0
40 ; 1.8297427014220197E7 ; 2.0054519323499528E8 ; 6.989473933871957E8 ; 6.397251847191848E9 ; 0.0
41 ; 1.8307152476991024E7 ; 2.005495513829068E8 ; 7.17244820401416E8 ; 6.597797040426843E9 ; 0.0
42 ; 1.8322911341351517E7 ; 2.0055397046430832E8 ; 7.35551972878407E8 ; 6.79834659180975E9 ; 0.0
43 ; 1.833504440016637E7 ; 2.0055844702576745E8 ; 7.538748842197585E8 ; 6.998900562274058E9 ; 0.0
44 ; 1.8346219138882957E7 ; 2.0056297779979476E8 ; 7.722099286199249E8 ; 7.199459009299826E9 ; 0.0
45 ; 1.8353601683446422E7 ; 2.0056755969614506E8 ; 7.905561477588079E8 ; 7.400021987099621E9 ; 0.0
46 ; 1.8364711792196907E7 ; 2.0057218979308018E8 ; 8.089097494422543E8 ; 7.600589546795766E9 ; 0.0
47 ; 1.8375453894093174E7 ; 2.0057686532870108E8 ; 8.272744612344512E8 ; 7.801161736588846E9 ; 0.0
48 ; 1.83820375314749E7 ; 2.005815836924322E8 ; 8.456499151285443E8 ; 8.001738601917547E9 ; 0.0
49 ; 1.8386481923357006E7 ; 2.0058634241672373E8 ; 8.640319526600193E8 ; 8.20232018560998E9 ; 0.0
50 ; 1.839478111998937E7 ; 2.005911391690194E8 ; 8.824184345833763E8 ; 8.402906528026703E9 ; 0.0
51 ; 1.8399351053431615E7 ; 2.0059597174402493E8 ; 9.008132157033657E8 ; 8.603497667195723E9 ; 0.0
52 ; 1.840385870280584E7 ; 2.0060083805630037E8 ; 9.192125667567973E8 ; 8.804093638939747E9 ; 0.0
53 ; 1.8410397027767934E7 ; 2.0060573613319123E8 ; 9.376164254596032E8 ; 9.004694476996048E9 ; 0.0
54 ; 1.841038887211137E7 ; 2.0061066410810527E8 ; 9.560268224873711E8 ; 9.20530021312924E9 ; 0.0
55 ; 1.8419853872520354E7 ; 2.006156202141365E8 ; 9.744372113594824E8 ; 9.405910877237345E9 ; 0.0
56 ; 1.8420964948523473E7 ; 2.0062060277803305E8 ; 9.928570652320027E8 ; 9.60652649745148E9 ; 0.0
57 ; 1.842755546316938E7 ; 2.0062561021450225E8 ; 1.0112780301805263E9 ; 9.807147100229513E9 ; 0.0
58 ; 1.842998879963922E7 ; 2.006306410208438E8 ; 1.0297055856436956E9 ; 1.0007772710444016E10 ; 0.0
59 ; 1.8431288272553194E7 ; 2.0063569377189904E8 ; 1.0481355744433348E9 ; 1.0208403351464859E10 ; 0.0
60 ; 1.843565417772264E7 ; 2.006407671153047E8 ; 1.066566862715888E9 ; 1.0409039045236757E10 ; 0.0
61 ; 1.8440854711753063E7 ; 2.006458597670366E8 ; 1.0850025168936107E9 ; 1.0609679812352062E10 ; 0.0
62 ; 1.8443935455807403E7 ; 2.0065097050722983E8 ; 1.1034433716053638E9 ; 1.0810325672119099E10 ; 0.0
63 ; 1.844649128567854E7 ; 2.0065609817626128E8 ; 1.1218873070611713E9 ; 1.101097664262633E10 ; 0.0
64 ; 1.844775363577194E7 ; 2.0066124167107955E8 ; 1.14033379834685E9 ; 1.1211632740802591E10 ; 0.0
65 ; 1.8453548781800274E7 ; 2.006663999417692E8 ; 1.158781551982622E9 ; 1.1412293982473671E10 ; 0.0
66 ; 1.8456569378148545E7 ; 2.0067157198833498E8 ; 1.1772351007644222E9 ; 1.161296038241544E10 ; 0.0
67 ; 1.845454881494633E7 ; 2.006767568576927E8 ; 1.1956916701425707E9 ; 1.1813631954403774E10 ; 0.0
68 ; 1.845842052204183E7 ; 2.006819536408548E8 ; 1.2141462189575171E9 ; 1.2014308711261467E10 ; 0.0
69 ; 1.8459647772122152E7 ; 2.006871614702975E8 ; 1.232604639479559E9 ; 1.221499066490232E10 ; 0.0
70 ; 1.845870154340291E7 ; 2.0069237951749834E8 ; 1.251064287251681E9 ; 1.2415677826372618E10 ; 0.0
71 ; 1.846254505574413E7 ; 2.006976069906333E8 ; 1.269522988795084E9 ; 1.2616370205890116E10 ; 0.0
72 ; 1.846525314994569E7 ; 2.0070284313242266E8 ; 1.2879855338508282E9 ; 1.2817067812880749E10 ; 0.0
73 ; 1.84683989467524E7 ; 2.0070808721811596E8 ; 1.306450787000774E9 ; 1.3017770656013172E10 ; 0.0
74 ; 1.8467999261546034E7 ; 2.0071333855360708E8 ; 1.3249191859475262E9 ; 1.3218478743231289E10 ; 0.0
75 ; 1.8466381270018075E7 ; 2.007185964736703E8 ; 1.3433871852090724E9 ; 1.3419192081784897E10 ; 0.0
76 ; 1.8468913076377597E7 ; 2.0072386034030962E8 ; 1.3618535664790905E9 ; 1.3619910678258568E10 ; 0.0
77 ; 1.8470807500234056E7 ; 2.007291295412134E8 ; 1.380322479555468E9 ; 1.3820634538598877E10 ; 0.0
78 ; 1.8465834473800026E7 ; 2.0073440348830768E8 ; 1.3987932870557022E9 ; 1.402136366814009E10 ; 0.0
79 ; 1.8459315345963422E7 ; 2.0073968161640084E8 ; 1.4172591215295022E9 ; 1.4222098071628399E10 ; 0.0
80 ; 1.8451986636726744E7 ; 2.0074496338191423E8 ; 1.4357184368754656E9 ; 1.44228377532448E10 ; 0.0
81 ; 1.8446417911270898E7 ; 2.0075024826169235E8 ; 1.4541704235121925E9 ; 1.4623582716626715E10 ; 0.0
82 ; 1.8445221149700847E7 ; 2.0075553575188738E8 ; 1.4726168414234633E9 ; 1.4824332964888407E10 ; 0.0
83 ; 1.8438036042002976E7 ; 2.0076082536691338E8 ; 1.4910620625731642E9 ; 1.5025088500640295E10 ; 0.0
84 ; 1.8433284404749755E7 ; 2.0076611663846496E8 ; 1.5095000986151671E9 ; 1.5225849326007208E10 ; 0.0
85 ; 1.8421881284566052E7 ; 2.0077140911459646E8 ; 1.527933383019917E9 ; 1.5426615442645674E10 ; 0.0
86 ; 1.841984152258588E7 ; 2.0077670235885754E8 ; 1.5463552643044832E9 ; 1.5627386851760271E10 ; 0.0
87 ; 1.8413848792748112E7 ; 2.0078199594948125E8 ; 1.564775105827069E9 ; 1.582816355411913E10 ; 0.0
88 ; 1.840340646391907E7 ; 2.0078728947862124E8 ; 1.5831889546198173E9 ; 1.6028945550068611E10 ; 0.0
89 ; 1.8397859513600994E7 ; 2.0079258255163503E8 ; 1.6015923610837364E9 ; 1.6229732839547232E10 ; 0.0
90 ; 1.8390881172167554E7 ; 2.007978747864098E8 ; 1.6199902205973375E9 ; 1.6430525422098867E10 ; 0.0
91 ; 1.8383800794309672E7 ; 2.0080316581272846E8 ; 1.638381101769505E9 ; 1.6631323296885277E10 ; 0.0
92 ; 1.837422636501666E7 ; 2.0080845527167305E8 ; 1.6567649025638146E9 ; 1.6832126462698006E10 ; 0.0
93 ; 1.8364774725795493E7 ; 2.0081374281506312E8 ; 1.6751391289288313E9 ; 1.7032934917969679E10 ; 0.0
94 ; 1.835979701092832E7 ; 2.0081902810492682E8 ; 1.6935039036546268E9 ; 1.723374866078474E10 ; 0.0
95 ; 1.8349763927318748E7 ; 2.008243108130027E8 ; 1.7118637006655552E9 ; 1.7434567688889668E10 ; 0.0
96 ; 1.8346355436938282E7 ; 2.0082959062027004E8 ; 1.730213464592874E9 ; 1.763539199970267E10 ; 0.0
97 ; 1.833134579287269E7 ; 2.0083486721650606E8 ; 1.7485598200298123E9 ; 1.783622159032294E10 ; 0.0
98 ; 1.8324547453563195E7 ; 2.008401402998683E8 ; 1.766891165822685E9 ; 1.8037056457539448E10 ; 0.0
99 ; 1.831717977048251E7 ; 2.008454095765005E8 ; 1.7852157132762482E9 ; 1.8237896597839317E10 ; 0.0
100 ; 1.8304253095346734E7 ; 2.0085067476016065E8 ; 1.8035328930467308E9 ; 1.8438742007415817E10 ; 0.0
101 ; 1.8293530445741083E7 ; 2.0085593557186955E8 ; 1.8218371461420774E9 ; 1.863959268217598E10 ; 0.0
102 ; 1.828837603453512E7 ; 2.0086119173957893E8 ; 1.8401306765878186E9 ; 1.884044861774785E10 ; 0.0
103 ; 1.82738411071735E7 ; 2.008664429978578E8 ; 1.8584190526223538E9 ; 1.9041309809487427E10 ; 0.0
104 ; 1.826894042211487E7 ; 2.008716890875959E8 ; 1.8766928937295272E9 ; 1.9242176252485283E10 ; 0.0
105 ; 1.825673970783425E7 ; 2.008769297557231E8 ; 1.894961834151642E9 ; 1.944304794157288E10 ; 0.0
106 ; 1.8246473824570462E7 ; 2.0088216475494403E8 ; 1.9132185738594763E9 ; 1.96439248713286E10 ; 0.0
107 ; 1.8234588390034486E7 ; 2.0088739384348688E8 ; 1.9314650476840467E9 ; 1.9844807036083546E10 ; 0.0
108 ; 1.8226969059601266E7 ; 2.0089261678486547E8 ; 1.9496996360740812E9 ; 2.0045694429927032E10 ; 0.0
109 ; 1.8217993503445067E7 ; 2.008978333476539E8 ; 1.9679266051336825E9 ; 2.02465870467119E10 ; 0.0
110 ; 1.820484151100368E7 ; 2.009030433052731E8 ; 1.9861445986371276E9 ; 2.044748488005955E10 ; 0.0
111 ; 1.819486192260342E7 ; 2.0090824643578836E8 ; 2.0043494401481314E9 ; 2.0648387923364826E10 ; 0.0
112 ; 1.8179318418989465E7 ; 2.009134425217174E8 ; 2.0225443020707347E9 ; 2.0849296169800613E10 ; 0.0
113 ; 1.8170209481240075E7 ; 2.0091863134984833E8 ; 2.0407236204897242E9 ; 2.105020961232233E10 ; 0.0
114 ; 1.8156185828090332E7 ; 2.009238127110668E8 ; 2.0588938299709642E9 ; 2.125112824367218E10 ; 0.0
115 ; 1.8148945048970122E7 ; 2.009289864001921E8 ; 2.0770500157990546E9 ; 2.1452052056383247E10 ; 0.0
116 ; 1.813432130456059E7 ; 2.009341522158213E8 ; 2.0951989608480248E9 ; 2.165298104278344E10 ; 0.0
117 ; 1.812458093835762E7 ; 2.0093930996018133E8 ; 2.1133332821525855E9 ; 2.185391519499926E10 ; 0.0
118 ; 1.8113448703467496E7 ; 2.0094445943898845E8 ; 2.131457863090943E9 ; 2.2054854504959442E10 ; 0.0
119 ; 1.8097651039352767E7 ; 2.009496004613146E8 ; 2.1495713117944107E9 ; 2.225579896439843E10 ; 0.0
120 ; 1.8082912203279834E7 ; 2.009547328394603E8 ; 2.1676689628337636E9 ; 2.2456748564859745E10 ; 0.0
121 ; 1.8070703638884023E7 ; 2.009598563888339E8 ; 2.1857518750370436E9 ; 2.2657703297699203E10 ; 0.0
122 ; 1.8057247508440543E7 ; 2.0096497092783642E8 ; 2.2038225786759276E9 ; 2.2858663154088036E10 ; 0.0
123 ; 1.8044292960051693E7 ; 2.0097007627775228E8 ; 2.221879826184368E9 ; 2.3059628125015873E10 ; 0.0
124 ; 1.803068772517768E7 ; 2.00975172262645E8 ; 2.2399241191444197E9 ; 2.3260598201293625E10 ; 0.0
125 ; 1.801694617205295E7 ; 2.0098025870925805E8 ; 2.2579548068695974E9 ; 2.346157337355627E10 ; 0.0
126 ; 1.800568090863867E7 ; 2.0098533544692025E8 ; 2.2759717530416503E9 ; 2.366255363226553E10 ; 0.0
127 ; 1.7990010569194067E7 ; 2.0099040230745578E8 ; 2.293977433950289E9 ; 2.386353896771245E10 ; 0.0
128 ; 1.79770943415456E7 ; 2.0099545912509832E8 ; 2.3119674445194826E9 ; 2.4064529370019905E10 ; 0.0
129 ; 1.795689053598334E7 ; 2.010005057364091E8 ; 2.329944538861028E9 ; 2.4265524829145004E10 ; 0.0
130 ; 1.794603481001932E7 ; 2.0100554198019898E8 ; 2.3479014293970118E9 ; 2.4466525334881413E10 ; 0.0
131 ; 1.7924812869815093E7 ; 2.010105676974539E8 ; 2.3658474642070312E9 ; 2.466753087686161E10 ; 0.0
132 ; 1.7903188493357535E7 ; 2.0101558273126376E8 ; 2.383772277076846E9 ; 2.4868541444559063E10 ; 0.0
133 ; 1.7882343748346083E7 ; 2.010205869267548E8 ; 2.401675465570204E9 ; 2.5069557027290325E10 ; 0.0
134 ; 1.786213464858269E7 ; 2.0102558013102466E8 ; 2.4195578093185496E9 ; 2.527057761421708E10 ; 0.0
135 ; 1.783944965583466E7 ; 2.0103056219308054E8 ; 2.437419943967132E9 ; 2.5471603194348103E10 ; 0.0
136 ; 1.7814536617968947E7 ; 2.010355329637803E8 ; 2.455259393622967E9 ; 2.5672633756541183E10 ; 0.0
137 ; 1.7797048909443777E7 ; 2.0104049229577586E8 ; 2.473073930240936E9 ; 2.5873669289504963E10 ; 0.0
138 ; 1.7775392199449737E7 ; 2.0104544004345933E8 ; 2.4908709791503797E9 ; 2.607470978180074E10 ; 0.0
139 ; 1.77550820478795E7 ; 2.0105037606291145E8 ; 2.508646371349829E9 ; 2.62757552218442E10 ; 0.0
140 ; 1.7731492465948984E7 ; 2.010553002118523E8 ; 2.526401453397709E9 ; 2.6476805597907112E10 ; 0.0
141 ; 1.771015638983727E7 ; 2.0106021234959427E8 ; 2.544132945863658E9 ; 2.6677860898118965E10 ; 0.0
142 ; 1.7686693033713058E7 ; 2.0106511233699664E8 ; 2.561843102253495E9 ; 2.687892111046856E10 ; 0.0
143 ; 1.766699537446018E7 ; 2.0107000003642288E8 ; 2.579529795287208E9 ; 2.7079986222805557E10 ; 0.0
144 ; 1.7643415626132958E7 ; 2.0107487531169897E8 ; 2.5971967906616683E9 ; 2.728105622284198E10 ; 0.0
145 ; 1.7626751545044992E7 ; 2.0107973802807418E8 ; 2.6148402062878013E9 ; 2.748213109815368E10 ; 0.0
146 ; 1.7612135225121167E7 ; 2.01084588052183E8 ; 2.632466957832846E9 ; 2.768321083618175E10 ; 0.0
147 ; 1.759552508601707E7 ; 2.0108942525200915E8 ; 2.650079093057967E9 ; 2.7884295424233932E10 ; 0.0
148 ; 1.758160355797769E7 ; 2.0109424949685064E8 ; 2.6676746181439843E9 ; 2.8085384849485943E10 ; 0.0
149 ; 1.7563322908137485E7 ; 2.0109906065728667E8 ; 2.685256221701962E9 ; 2.828647909898279E10 ; 0.0
150 ; 1.7552348778497767E7 ; 2.0110385860514587E8 ; 2.7028195446100993E9 ; 2.848757815964008E10 ; 0.0
151 ; 1.753377174830742E7 ; 2.011086432134755E8 ; 2.720371893388597E9 ; 2.8688682018245224E10 ; 0.0
152 ; 1.7514668748642284E7 ; 2.0111341435651255E8 ; 2.7379056651369042E9 ; 2.88897906614587E10 ; 0.0
153 ; 1.7494701159601975E7 ; 2.011181719096554E8 ; 2.7554203338855467E9 ; 2.9090904075815212E10 ; 0.0
154 ; 1.7482455764160708E7 ; 2.0112291574943715E8 ; 2.772915035045149E9 ; 2.929202224772487E10 ; 0.0
155 ; 1.7465202051666856E7 ; 2.0112764575349972E8 ; 2.7903974908093095E9 ; 2.9493145163474304E10 ; 0.0
156 ; 1.74495007796369E7 ; 2.0113236180056915E8 ; 2.807862692860976E9 ; 2.9694272809227802E10 ; 0.0
157 ; 1.7433114613581914E7 ; 2.011370637704319E8 ; 2.825312193640613E9 ; 2.989540517102837E10 ; 0.0
158 ; 1.7412302670690455E7 ; 2.0114175154391214E8 ; 2.842745308254195E9 ; 3.00965422347988E10 ; 0.0
159 ; 1.7401421136018787E7 ; 2.011464250028498E8 ; 2.8601576109248857E9 ; 3.0297683986342712E10 ; 0.0
160 ; 1.7384846339093033E7 ; 2.0115108403007966E8 ; 2.8775590320609045E9 ; 3.0498830411345562E10 ; 0.0
161 ; 1.7367095279779885E7 ; 2.011557285094114E8 ; 2.8949438783999977E9 ; 3.069998149537564E10 ; 0.0
162 ; 1.7349276588801026E7 ; 2.0116035832560995E8 ; 2.9123109736797776E9 ; 3.090113722388505E10 ; 0.0
163 ; 1.7333542572097134E7 ; 2.0116497336437738E8 ; 2.9296602502685785E9 ; 3.1102297582210663E10 ; 0.0
164 ; 1.7315708475146357E7 ; 2.011695735123347E8 ; 2.946993792840676E9 ; 3.130346255557504E10 ; 0.0
165 ; 1.7297150232675176E7 ; 2.0117415865700504E8 ; 2.964309501315822E9 ; 3.150463212908737E10 ; 0.0
166 ; 1.7278408095333066E7 ; 2.011787286867972E8 ; 2.981606651548497E9 ; 3.1705806287744377E10 ; 0.0
167 ; 1.726452839541129E7 ; 2.0118328349098974E8 ; 2.9988850596438303E9 ; 3.1906985016431175E10 ; 0.0
168 ; 1.7245672371634725E7 ; 2.01187822959716E8 ; 3.016149588039242E9 ; 3.2108168299922165E10 ; 0.0
169 ; 1.7227776914756954E7 ; 2.0119234698394948E8 ; 3.0333952604108768E9 ; 3.230935612288188E10 ; 0.0
170 ; 1.7210745092540167E7 ; 2.0119685545548987E8 ; 3.0506230373256335E9 ; 3.251054846986583E10 ; 0.0
171 ; 1.719487752445591E7 ; 2.0120134826694962E8 ; 3.067833782418174E9 ; 3.271174532532132E10 ; 0.0
172 ; 1.717107552402061E7 ; 2.0120582531174108E8 ; 3.08502865994263E9 ; 3.291294667358827E10 ; 0.0
173 ; 1.715774399194843E7 ; 2.01210286484064E8 ; 3.1021997354666505E9 ; 3.311415249890001E10 ; 0.0
174 ; 1.714494450547932E7 ; 2.0121473167889372E8 ; 3.119357479458599E9 ; 3.331536278538407E10 ; 0.0
175 ; 1.714027567472138E7 ; 2.012191607919696E8 ; 3.1365024239640784E9 ; 3.3516577517062965E10 ; 0.0
176 ; 1.71264940221361E7 ; 2.012235737197841E8 ; 3.1536426996387997E9 ; 3.3717796677854935E10 ; 0.0
177 ; 1.7114567908375807E7 ; 2.012279703595722E8 ; 3.170769193660936E9 ; 3.391902025157472E10 ; 0.0
178 ; 1.7106031204823814E7 ; 2.0123235060930115E8 ; 3.1878837615693116E9 ; 3.412024822193429E10 ; 0.0
179 ; 1.709309049324641E7 ; 2.0123671436766073E8 ; 3.2049897927741356E9 ; 3.4321480572543594E10 ; 0.0
180 ; 1.707997080118795E7 ; 2.0124106153405383E8 ; 3.222082883267382E9 ; 3.4522717286911255E10 ; 0.0
181 ; 1.7074555027717024E7 ; 2.0124539200858742E8 ; 3.23916285406857E9 ; 3.472395834844531E10 ; 0.0
182 ; 1.7058266333516523E7 ; 2.0124970569206387E8 ; 3.2562374090962873E9 ; 3.49252037404539E10 ; 0.0
183 ; 1.704969304837057E7 ; 2.0125400248597255E8 ; 3.273295675429804E9 ; 3.5126453446145966E10 ; 0.0
184 ; 1.703832041866561E7 ; 2.012582822924818E8 ; 3.290345368478174E9 ; 3.5327707448631935E10 ; 0.0
185 ; 1.7030891282790888E7 ; 2.0126254501443127E8 ; 3.3073836888968396E9 ; 3.5528965730924416E10 ; 0.0
186 ; 1.7017320070151918E7 ; 2.0126679055532438E8 ; 3.3244145801796303E9 ; 3.573022827593885E10 ; 0.0
187 ; 1.7004952310924016E7 ; 2.0127101881932127E8 ; 3.341431900249782E9 ; 3.593149506649417E10 ; 0.0
188 ; 1.6994588889038622E7 ; 2.0127522971123186E8 ; 3.358436852560706E9 ; 3.613276608531349E10 ; 0.0
189 ; 1.6982487388284326E7 ; 2.0127942313650927E8 ; 3.3754314414497447E9 ; 3.633404131502473E10 ; 0.0
190 ; 1.697505130332557E7 ; 2.012835990012435E8 ; 3.392413928838029E9 ; 3.653532073816124E10 ; 0.0
191 ; 1.6965574152147915E7 ; 2.0128775721215528E8 ; 3.4093889801413546E9 ; 3.673660433716248E10 ; 0.0
192 ; 1.695338121264725E7 ; 2.012918976765902E8 ; 3.4263545542935023E9 ; 3.693789209437464E10 ; 0.0
193 ; 1.693883475818137E7 ; 2.0129602030251312E8 ; 3.44330793550615E9 ; 3.713918399205123E10 ; 0.0
194 ; 1.6930534843858093E7 ; 2.0130012499850267E8 ; 3.4602467702643313E9 ; 3.7340480012353745E10 ; 0.0
195 ; 1.692021387248776E7 ; 2.0130421167374608E8 ; 3.4771773051081896E9 ; 3.754178013735225E10 ; 0.0
