CSV File for the City 1 on Day 359
1 - Minute m 
2 - Power Consumed at minute m 
3 - Power Produced at minute m 
4 - Energy Consumed since the beginning of the day 
5 - Energy Produced since the beginning of the day 
6 - Energy Lost since the beginning of the day on lines starting from the city
 
0 ; 1.6030051177594082E7 ; 1.0546117765649804E8 ; 0.0 ; 0.0 ; 0.0
1 ; 1.6044902947540767E7 ; 1.056140528165353E8 ; 1.6030051177594082E7 ; 1.0546117765649804E8 ; 0.0
2 ; 1.6058968565741869E7 ; 1.0607571588231668E8 ; 3.2074954125134848E7 ; 2.1107523047303334E8 ; 0.0
3 ; 1.607670092755895E7 ; 1.0684616887642586E8 ; 4.8133922690876715E7 ; 3.1715094635535E8 ; 0.0
4 ; 1.6102202768790016E7 ; 1.079254136206621E8 ; 6.4210623618435666E7 ; 4.239971152317759E8 ; 0.0
5 ; 1.6129427935658753E7 ; 1.0931345172288585E8 ; 8.031282638722569E7 ; 5.31922528852438E8 ; 0.0
6 ; 1.6171019552579189E7 ; 1.1101028456511238E8 ; 9.644225432288444E7 ; 6.412359805753238E8 ; 0.0
7 ; 1.6225055752978707E7 ; 1.1301591329305494E8 ; 1.1261327387546363E8 ; 7.522462651404362E8 ; 0.0
8 ; 1.6300325354173299E7 ; 1.1533033880729765E8 ; 1.2883832962844235E8 ; 8.652621784334911E8 ; 0.0
9 ; 1.6422071754109262E7 ; 1.1795356175625736E8 ; 1.4513865498261565E8 ; 9.805925172407887E8 ; 0.0
10 ; 1.6599824234744452E7 ; 1.208855825310604E8 ; 1.615607267367249E8 ; 1.098546078997046E9 ; 0.0
11 ; 1.6889582494566932E7 ; 1.2412640126243022E8 ; 1.7816055097146937E8 ; 1.2194316615281065E9 ; 0.0
12 ; 1.7349064430792805E7 ; 1.2767601781964335E8 ; 1.9505013346603632E8 ; 1.3435580627905366E9 ; 0.0
13 ; 1.7798104018540267E7 ; 1.3153443181157345E8 ; 2.1239919789682913E8 ; 1.47123408061018E9 ; 0.0
14 ; 1.785009962600584E7 ; 1.3570164258980376E8 ; 2.301973019153694E8 ; 1.6027685124217534E9 ; 0.0
15 ; 1.7869490268150516E7 ; 1.4017764925375003E8 ; 2.4804740154137522E8 ; 1.738470155011557E9 ; 0.0
16 ; 1.789003793619296E7 ; 1.4496245065769914E8 ; 2.6591689180952573E8 ; 1.8786478042653072E9 ; 0.0
17 ; 1.7909414514996234E7 ; 1.5005604541963574E8 ; 2.838069297457187E8 ; 2.0236102549230063E9 ; 0.0
18 ; 1.7932494675040763E7 ; 1.554584319316994E8 ; 3.0171634426071495E8 ; 2.173666300342642E9 ; 0.0
19 ; 1.795214445725382E7 ; 1.6116960837209085E8 ; 3.196488389357557E8 ; 2.329124732274341E9 ; 0.0
20 ; 1.797303558893067E7 ; 1.671895727182264E8 ; 3.3760098339300954E8 ; 2.490294340646432E9 ; 0.0
21 ; 1.799386473305293E7 ; 1.7351832276092842E8 ; 3.555740189819402E8 ; 2.6574839133646584E9 ; 0.0
22 ; 1.8012245135419708E7 ; 1.8015585611942977E8 ; 3.735678837149931E8 ; 2.831002236125587E9 ; 0.0
23 ; 1.803418400609859E7 ; 1.871021702569722E8 ; 3.9158012885041285E8 ; 3.0111580922450166E9 ; 0.0
24 ; 1.80601710183481E7 ; 1.9435726249677932E8 ; 4.096143128565114E8 ; 3.198260262501989E9 ; 0.0
25 ; 1.807834502504771E7 ; 2.006091709363807E8 ; 4.276744838748595E8 ; 3.3926175249987683E9 ; 0.0
26 ; 1.8100951415295474E7 ; 2.0061144050061768E8 ; 4.4575282889990723E8 ; 3.593226695935149E9 ; 0.0
27 ; 1.81192481512698E7 ; 2.006138374824475E8 ; 4.638537803152027E8 ; 3.7938381364357667E9 ; 0.0
28 ; 1.8138873566946376E7 ; 2.0061635880524588E8 ; 4.819730284664725E8 ; 3.9944519739182143E9 ; 0.0
29 ; 1.8161937996558834E7 ; 2.0061900133107057E8 ; 5.001119020334189E8 ; 4.19506833272346E9 ; 0.0
30 ; 1.8183945388461124E7 ; 2.006217618750483E8 ; 5.1827384002997774E8 ; 4.395687334054531E9 ; 0.0
31 ; 1.8198977276196282E7 ; 2.0062463721903208E8 ; 5.3645778541843885E8 ; 4.59630909592958E9 ; 0.0
32 ; 1.8215850194734026E7 ; 2.0062762412445137E8 ; 5.546567626946352E8 ; 4.796933733148612E9 ; 0.0
33 ; 1.823885590534724E7 ; 2.0063071934429857E8 ; 5.728726128893691E8 ; 4.997561357273064E9 ; 0.0
34 ; 1.8255870045999978E7 ; 2.006339196342132E8 ; 5.911114687947164E8 ; 5.198192076617362E9 ; 0.0
35 ; 1.827404934771393E7 ; 2.006372217626426E8 ; 6.093673388407164E8 ; 5.398825996251575E9 ; 0.0
36 ; 1.8289874614833966E7 ; 2.0064062252007395E8 ; 6.276413881884303E8 ; 5.599463218014218E9 ; 0.0
37 ; 1.8301221466695864E7 ; 2.0064411872734517E8 ; 6.459312628032643E8 ; 5.800103840534292E9 ; 0.0
38 ; 1.831858354624595E7 ; 2.0064770724305367E8 ; 6.642324842699602E8 ; 6.000747959261638E9 ; 0.0
39 ; 1.8337002648247972E7 ; 2.006513849700923E8 ; 6.825510678162061E8 ; 6.201395666504691E9 ; 0.0
40 ; 1.834919269400631E7 ; 2.0065514886134836E8 ; 7.00888070464454E8 ; 6.402047051474783E9 ; 0.0
41 ; 1.8364292862126686E7 ; 2.0065899592460853E8 ; 7.192372631584604E8 ; 6.602702200336131E9 ; 0.0
42 ; 1.837548020754441E7 ; 2.006629232267163E8 ; 7.376015560205871E8 ; 6.803361196260739E9 ; 0.0
43 ; 1.8390808021453828E7 ; 2.006669278970314E8 ; 7.559770362281315E8 ; 7.004024119487455E9 ; 0.0
44 ; 1.839810354306692E7 ; 2.0067100713024297E8 ; 7.743678442495854E8 ; 7.204691047384487E9 ; 0.0
45 ; 1.841206551360106E7 ; 2.006751581885883E8 ; 7.927659477926524E8 ; 7.40536205451473E9 ; 0.0
46 ; 1.8419358076258946E7 ; 2.0067937840352854E8 ; 8.111780133062534E8 ; 7.606037212703319E9 ; 0.0
47 ; 1.843017591800375E7 ; 2.0068366517693287E8 ; 8.295973713825123E8 ; 7.806716591106847E9 ; 0.0
48 ; 1.8436256079104442E7 ; 2.0068801598181918E8 ; 8.480275473005161E8 ; 8.00740025628378E9 ; 0.0
49 ; 1.844409062791559E7 ; 2.0069242836269918E8 ; 8.664638033796206E8 ; 8.208088272265599E9 ; 0.0
50 ; 1.8450277553559843E7 ; 2.0069689993557206E8 ; 8.849078940075362E8 ; 8.408780700628299E9 ; 0.0
51 ; 1.8449874782198783E7 ; 2.0070142838760862E8 ; 9.033581715610961E8 ; 8.609477600563871E9 ; 0.0
52 ; 1.8460790873668835E7 ; 2.0070601147656536E8 ; 9.218080463432949E8 ; 8.81017902895148E9 ; 0.0
53 ; 1.8462540206766356E7 ; 2.0071064702996454E8 ; 9.402688372169636E8 ; 9.010885040428047E9 ; 0.0
54 ; 1.8473915618207976E7 ; 2.0071533294407347E8 ; 9.5873137742373E8 ; 9.211595687458012E9 ; 0.0
55 ; 1.847343910980157E7 ; 2.0072006718271437E8 ; 9.77205293041938E8 ; 9.412311020402084E9 ; 0.0
56 ; 1.8480362712166052E7 ; 2.007248477759315E8 ; 9.956787321517395E8 ; 9.613031087584799E9 ; 0.0
57 ; 1.8483780828438412E7 ; 2.007296728185416E8 ; 1.0141590948639055E9 ; 9.813755935360731E9 ; 0.0
58 ; 1.849083579791025E7 ; 2.007345404685898E8 ; 1.032642875692344E9 ; 1.0014485608179274E10 ; 0.0
59 ; 1.8491279043922663E7 ; 2.007394489457318E8 ; 1.0511337114902542E9 ; 1.0215220148647863E10 ; 0.0
60 ; 1.8496914585044038E7 ; 2.0074439652955908E8 ; 1.0696249905341768E9 ; 1.0415959597593596E10 ; 0.0
61 ; 1.8503458203012165E7 ; 2.0074938155788502E8 ; 1.088121905119221E9 ; 1.0616703994123154E10 ; 0.0
62 ; 1.8507353096244402E7 ; 2.0075440242500404E8 ; 1.1066253633222332E9 ; 1.0817453375681038E10 ; 0.0
63 ; 1.8509826803229038E7 ; 2.007594575799373E8 ; 1.1251327164184775E9 ; 1.1018207778106043E10 ; 0.0
64 ; 1.8510594799701825E7 ; 2.0076454552467516E8 ; 1.1436425432217066E9 ; 1.121896723568598E10 ; 0.0
65 ; 1.8513484779905066E7 ; 2.0076966481242555E8 ; 1.1621531380214086E9 ; 1.1419731781210655E10 ; 0.0
66 ; 1.8520709458593234E7 ; 2.0077481404587653E8 ; 1.1806666228013136E9 ; 1.162050144602308E10 ; 0.0
67 ; 1.852160652106303E7 ; 2.0077999187547928E8 ; 1.1991873322599068E9 ; 1.1821276260068958E10 ; 0.0
68 ; 1.8524838921963453E7 ; 2.0078519699775758E8 ; 1.2177089387809699E9 ; 1.2022056251944437E10 ; 0.0
69 ; 1.8527522291260473E7 ; 2.0079042815364814E8 ; 1.2362337777029333E9 ; 1.2222841448942194E10 ; 0.0
70 ; 1.8528851987819493E7 ; 2.007956841268761E8 ; 1.2547612999941938E9 ; 1.2423631877095842E10 ; 0.0
71 ; 1.8532442322016504E7 ; 2.0080096374236822E8 ; 1.2732901519820132E9 ; 1.262442756122272E10 ; 0.0
72 ; 1.853026478264514E7 ; 2.0080626586470675E8 ; 1.2918225943040297E9 ; 1.2825228524965088E10 ; 0.0
73 ; 1.8530897888631668E7 ; 2.008115893966256E8 ; 1.310352859086675E9 ; 1.3026034790829794E10 ; 0.0
74 ; 1.8538671927938774E7 ; 2.008169332775502E8 ; 1.3288837569753065E9 ; 1.322684638022642E10 ; 0.0
75 ; 1.853336300641924E7 ; 2.0082229648218194E8 ; 1.3474224289032452E9 ; 1.342766331350397E10 ; 0.0
76 ; 1.8540486673482094E7 ; 2.0082767801912808E8 ; 1.3659557919096644E9 ; 1.362848560998615E10 ; 0.0
77 ; 1.8541414204577137E7 ; 2.0083307692957678E8 ; 1.3844962785831466E9 ; 1.382931328800528E10 ; 0.0
78 ; 1.8537575992937606E7 ; 2.008384922860178E8 ; 1.4030376927877238E9 ; 1.4030146364934856E10 ; 0.0
79 ; 1.853320839510628E7 ; 2.0084392319100806E8 ; 1.4215752687806613E9 ; 1.4230984857220875E10 ; 0.0
80 ; 1.8529222575296383E7 ; 2.00849368775982E8 ; 1.4401084771757677E9 ; 1.4431828780411882E10 ; 0.0
81 ; 1.8521491170499396E7 ; 2.0085482820010576E8 ; 1.458637699751064E9 ; 1.4632678149187864E10 ; 0.0
82 ; 1.8516111567435514E7 ; 2.008603006491746E8 ; 1.4771591909215634E9 ; 1.483353297738797E10 ; 0.0
83 ; 1.850963141955116E7 ; 2.008657853345525E8 ; 1.495675302488999E9 ; 1.5034393278037144E10 ; 0.0
84 ; 1.850880967452245E7 ; 2.00871281492153E8 ; 1.51418493390855E9 ; 1.5235259063371696E10 ; 0.0
85 ; 1.8501813023330916E7 ; 2.0087678838146034E8 ; 1.5326937435830724E9 ; 1.543613034486385E10 ; 0.0
86 ; 1.8495030419827785E7 ; 2.008823052845894E8 ; 1.5511955566064034E9 ; 1.563700713324531E10 ; 0.0
87 ; 1.8490249464952786E7 ; 2.0088783150538382E8 ; 1.569690587026231E9 ; 1.58378894385299E10 ; 0.0
88 ; 1.848232947951675E7 ; 2.0089336636855048E8 ; 1.5881808364911838E9 ; 1.6038777270035284E10 ; 0.0
89 ; 1.8479776443473484E7 ; 2.0089890921882975E8 ; 1.6066631659707005E9 ; 1.6239670636403835E10 ; 0.0
90 ; 1.8470564834728878E7 ; 2.0090445942019993E8 ; 1.625142942414174E9 ; 1.6440569545622665E10 ; 0.0
91 ; 1.846625132029293E7 ; 2.0091001635511458E8 ; 1.643613507248903E9 ; 1.6641474005042866E10 ; 0.0
92 ; 1.84571955767371E7 ; 2.0091557942377192E8 ; 1.662079758569196E9 ; 1.684238402139798E10 ; 0.0
93 ; 1.8451296181510177E7 ; 2.0092114804341474E8 ; 1.6805369541459332E9 ; 1.7043299600821753E10 ; 0.0
94 ; 1.8440949492856648E7 ; 2.0092672164766005E8 ; 1.6989882503274434E9 ; 1.7244220748865166E10 ; 0.0
95 ; 1.8438286323899914E7 ; 2.0093229968585664E8 ; 1.7174291998203E9 ; 1.7445147470512825E10 ; 0.0
96 ; 1.8427220437604863E7 ; 2.0093788162247026E8 ; 1.7358674861442E9 ; 1.764607977019868E10 ; 0.0
97 ; 1.8417788855630152E7 ; 2.0094346693649483E8 ; 1.754294706581805E9 ; 1.784701765182115E10 ; 0.0
98 ; 1.8414213011838324E7 ; 2.0094905512088853E8 ; 1.7727124954374352E9 ; 1.8047961118757645E10 ; 0.0
99 ; 1.840465295245323E7 ; 2.0095464568203413E8 ; 1.7911267084492736E9 ; 1.8248910173878532E10 ; 0.0
100 ; 1.839634172324168E7 ; 2.0096023813922223E8 ; 1.8095313614017267E9 ; 1.8449864819560566E10 ; 0.0
101 ; 1.838636982515665E7 ; 2.0096583202415657E8 ; 1.8279277031249683E9 ; 1.8650825057699787E10 ; 0.0
102 ; 1.8382048789995816E7 ; 2.009714268804805E8 ; 1.846314072950125E9 ; 1.8851790889723946E10 ; 0.0
103 ; 1.8370906148835786E7 ; 2.0097702226332358E8 ; 1.864696121740121E9 ; 1.9052762316604427E10 ; 0.0
104 ; 1.8362900220109988E7 ; 2.009826177388676E8 ; 1.8830670278889568E9 ; 1.9253739338867752E10 ; 0.0
105 ; 1.8351521184708737E7 ; 2.0098821288393104E8 ; 1.9014299281090667E9 ; 1.945472195660662E10 ; 0.0
106 ; 1.8344409122386564E7 ; 2.0099380728557128E8 ; 1.9197814492937756E9 ; 1.965571016949055E10 ; 0.0
107 ; 1.833223201039199E7 ; 2.0099940054070365E8 ; 1.938125858416162E9 ; 1.9856703976776123E10 ; 0.0
108 ; 1.8324219174532294E7 ; 2.010049922557368E8 ; 1.956458090426554E9 ; 2.0057703377316826E10 ; 0.0
109 ; 1.8310718674953308E7 ; 2.0101058204622343E8 ; 1.9747823096010861E9 ; 2.0258708369572563E10 ; 0.0
110 ; 1.83048213160517E7 ; 2.0101616953652585E8 ; 1.9930930282760394E9 ; 2.0459718951618786E10 ; 0.0
111 ; 1.8296068039243072E7 ; 2.0102175435949555E8 ; 2.011397849592091E9 ; 2.066073512115531E10 ; 0.0
112 ; 1.8286239505327113E7 ; 2.0102733615616658E8 ; 2.029693917631334E9 ; 2.086175687551481E10 ; 0.0
113 ; 1.8272558969268158E7 ; 2.0103291457546148E8 ; 2.0479801571366613E9 ; 2.1062784211670975E10 ; 0.0
114 ; 1.826077945411091E7 ; 2.0103848927390984E8 ; 2.0662527161059294E9 ; 2.1263817126246437E10 ; 0.0
115 ; 1.8253060144240484E7 ; 2.0104405991537836E8 ; 2.0845134955600402E9 ; 2.1464855615520348E10 ; 0.0
116 ; 1.8242461750776216E7 ; 2.0104962617081252E8 ; 2.1027665557042806E9 ; 2.1665899675435726E10 ; 0.0
117 ; 1.823325336111226E7 ; 2.010551877179887E8 ; 2.121009017455057E9 ; 2.1866949301606537E10 ; 0.0
118 ; 1.8222717531438068E7 ; 2.0106074424127686E8 ; 2.1392422708161693E9 ; 2.2068004489324524E10 ; 0.0
119 ; 1.821107098447744E7 ; 2.0106629543141267E8 ; 2.157464988347607E9 ; 2.22690652335658E10 ; 0.0
120 ; 1.819531862920212E7 ; 2.0107184098527956E8 ; 2.1756760593320847E9 ; 2.247013152899721E10 ; 0.0
121 ; 1.8184874352862135E7 ; 2.0107738060569927E8 ; 2.1938713779612865E9 ; 2.267120336998249E10 ; 0.0
122 ; 1.8175936916709483E7 ; 2.0108291400123125E8 ; 2.212056252314149E9 ; 2.287228075058819E10 ; 0.0
123 ; 1.8161184039574005E7 ; 2.0108844088598025E8 ; 2.2302321892308583E9 ; 2.307336366458942E10 ; 0.0
124 ; 1.8151170782135233E7 ; 2.0109396097941154E8 ; 2.2483933732704325E9 ; 2.32744521054754E10 ; 0.0
125 ; 1.8140725023607545E7 ; 2.01099474006174E8 ; 2.2665445440525675E9 ; 2.347554606645481E10 ; 0.0
126 ; 1.8126306483086105E7 ; 2.0110497969592997E8 ; 2.284685269076175E9 ; 2.3676645540460983E10 ; 0.0
127 ; 1.810994200620557E7 ; 2.0111047778319228E8 ; 2.3028115755592613E9 ; 2.3877750520156914E10 ; 0.0
128 ; 1.8098061605666526E7 ; 2.011159680071676E8 ; 2.320921517565467E9 ; 2.4078860997940105E10 ; 0.0
129 ; 1.808395434333629E7 ; 2.0112145011160633E8 ; 2.3390195791711335E9 ; 2.4279976965947273E10 ; 0.0
130 ; 1.8068252294032563E7 ; 2.011269238446581E8 ; 2.3571035335144696E9 ; 2.448109841605888E10 ; 0.0
131 ; 1.80492797297103E7 ; 2.0113238895873347E8 ; 2.375171785808502E9 ; 2.4682225339903538E10 ; 0.0
132 ; 1.8033460075961094E7 ; 2.011378452103706E8 ; 2.3932210655382123E9 ; 2.488335772886227E10 ; 0.0
133 ; 1.8014634790133014E7 ; 2.0114329236010778E8 ; 2.4112545256141734E9 ; 2.508449557407264E10 ; 0.0
134 ; 1.798884643080871E7 ; 2.011487301723603E8 ; 2.4292691604043064E9 ; 2.5285638866432747E10 ; 0.0
135 ; 1.797336390344976E7 ; 2.011541584153028E8 ; 2.447258006835115E9 ; 2.5486787596605106E10 ; 0.0
136 ; 1.7953285124802906E7 ; 2.0115957686075577E8 ; 2.4652313707385645E9 ; 2.568794175502041E10 ; 0.0
137 ; 1.7931563725971725E7 ; 2.011649852840765E8 ; 2.4831846558633676E9 ; 2.5889101331881165E10 ; 0.0
138 ; 1.7915339405904394E7 ; 2.0117038346405455E8 ; 2.5011162195893393E9 ; 2.609026631716524E10 ; 0.0
139 ; 1.789407619243807E7 ; 2.01175771182811E8 ; 2.5190315589952435E9 ; 2.6291436700629295E10 ; 0.0
140 ; 1.7875073434622604E7 ; 2.0118114822570148E8 ; 2.5369256351876817E9 ; 2.6492612471812107E10 ; 0.0
141 ; 1.785464299598121E7 ; 2.0118651438122332E8 ; 2.5548007086223044E9 ; 2.6693793620037807E10 ; 0.0
142 ; 1.783450461454621E7 ; 2.0119186944092578E8 ; 2.5726553516182857E9 ; 2.689498013441903E10 ; 0.0
143 ; 1.7807728275079966E7 ; 2.0119721319932407E8 ; 2.590489856232832E9 ; 2.7096172003859955E10 ; 0.0
144 ; 1.778692048433674E7 ; 2.0120254545381635E8 ; 2.6082975845079117E9 ; 2.729736921705928E10 ; 0.0
145 ; 1.7775588187538084E7 ; 2.01207866004604E8 ; 2.6260845049922485E9 ; 2.7498571762513096E10 ; 0.0
146 ; 1.7761857731776983E7 ; 2.0121317465461493E8 ; 2.6438600931797867E9 ; 2.76997796285177E10 ; 0.0
147 ; 1.7748502154893372E7 ; 2.012184712094296E8 ; 2.661621950911564E9 ; 2.7900992803172314E10 ; 0.0
148 ; 1.7734676414218012E7 ; 2.0122375547720996E8 ; 2.6793704530664573E9 ; 2.8102211274381744E10 ; 0.0
149 ; 1.7713481995149747E7 ; 2.0122902726863095E8 ; 2.697105129480675E9 ; 2.8303435029858955E10 ; 0.0
150 ; 1.770559755604964E7 ; 2.0123428639681464E8 ; 2.714818611475825E9 ; 2.8504664057127586E10 ; 0.0
151 ; 1.7690038148818806E7 ; 2.012395326772666E8 ; 2.7325242090318747E9 ; 2.8705898343524403E10 ; 0.0
152 ; 1.7672780107964788E7 ; 2.0124476592781472E8 ; 2.7502142471806936E9 ; 2.8907137876201668E10 ; 0.0
153 ; 1.7661626529589236E7 ; 2.012499859685504E8 ; 2.7678870272886586E9 ; 2.9108382642129482E10 ; 0.0
154 ; 1.764711901084722E7 ; 2.0125519262177178E8 ; 2.785548653818248E9 ; 2.9309632628098034E10 ; 0.0
155 ; 1.763009068681236E7 ; 2.012603857119288E8 ; 2.803195772829095E9 ; 2.9510887820719807E10 ; 0.0
156 ; 1.7618832383166157E7 ; 2.012655650655708E8 ; 2.8208258635159073E9 ; 2.9712148206431736E10 ; 0.0
157 ; 1.7603103508036558E7 ; 2.0127073051129538E8 ; 2.8384446958990736E9 ; 2.9913413771497307E10 ; 0.0
158 ; 1.7586054151342753E7 ; 2.0127588187969968E8 ; 2.85604779940711E9 ; 3.0114684502008602E10 ; 0.0
159 ; 1.7572531196965445E7 ; 2.012810190033329E8 ; 2.873633853558453E9 ; 3.03159603838883E10 ; 0.0
160 ; 1.7555885772704594E7 ; 2.01286141716651E8 ; 2.8912063847554183E9 ; 3.0517241402891636E10 ; 0.0
161 ; 1.754124411035802E7 ; 2.0129124985597253E8 ; 2.908762270528123E9 ; 3.0718527544608288E10 ; 0.0
162 ; 1.752581731419486E7 ; 2.0129634325943646E8 ; 2.926303514638481E9 ; 3.091981879446426E10 ; 0.0
163 ; 1.751109875738821E7 ; 2.0130142176696125E8 ; 2.943829331952676E9 ; 3.1121115137723698E10 ; 0.0
164 ; 1.7496892067650553E7 ; 2.0130648522020534E8 ; 2.961340430710064E9 ; 3.1322416559490658E10 ; 0.0
165 ; 1.7479284051525645E7 ; 2.0131153346252924E8 ; 2.9788373227777143E9 ; 3.1523723044710865E10 ; 0.0
166 ; 1.7464927782409962E7 ; 2.013165663389588E8 ; 2.99631660682924E9 ; 3.1725034578173393E10 ; 0.0
167 ; 1.7450272785396677E7 ; 2.013215836961497E8 ; 3.01378153461165E9 ; 3.1926351144512352E10 ; 0.0
168 ; 1.7431198142200697E7 ; 2.013265853823534E8 ; 3.0312318073970466E9 ; 3.21276727282085E10 ; 0.0
169 ; 1.7416450366890732E7 ; 2.01331571247384E8 ; 3.048663005539247E9 ; 3.2328999313590855E10 ; 0.0
170 ; 1.7399856161251128E7 ; 2.0133654114258653E8 ; 3.066079455906138E9 ; 3.2530330884838238E10 ; 0.0
171 ; 1.738147352902942E7 ; 2.0134149492080602E8 ; 3.083479312067389E9 ; 3.2731667425980824E10 ; 0.0
172 ; 1.736560003280923E7 ; 2.0134643243635792E8 ; 3.1008607855964184E9 ; 3.293300892090163E10 ; 0.0
173 ; 1.7353136205772173E7 ; 2.0135135354499942E8 ; 3.1182263856292276E9 ; 3.313435535333799E10 ; 0.0
174 ; 1.7342515482297797E7 ; 2.0135625810390165E8 ; 3.135579521835E9 ; 3.3335706706882988E10 ; 0.0
175 ; 1.73365496598129E7 ; 2.013611459716231E8 ; 3.152922037317298E9 ; 3.353706296498689E10 ; 0.0
176 ; 1.732851066406251E7 ; 2.0136601700808352E8 ; 3.170258586977111E9 ; 3.373842411095851E10 ; 0.0
177 ; 1.731719164775823E7 ; 2.013708710745392E8 ; 3.1875870976411734E9 ; 3.3939790127966595E10 ; 0.0
178 ; 1.7304302439459693E7 ; 2.013757080335587E8 ; 3.2049042892889314E9 ; 3.4141160999041134E10 ; 0.0
179 ; 1.72942620142722E7 ; 2.013805277489996E8 ; 3.222208591728391E9 ; 3.434253670707469E10 ; 0.0
180 ; 1.7284706945617743E7 ; 2.013853300859859E8 ; 3.2395028537426634E9 ; 3.454391723482369E10 ; 0.0
181 ; 1.7269374941483263E7 ; 2.0139011491088635E8 ; 3.256787560688281E9 ; 3.4745302564909676E10 ; 0.0
182 ; 1.726207063993585E7 ; 2.0139488209129333E8 ; 3.2740569356297646E9 ; 3.4946692679820564E10 ; 0.0
183 ; 1.72521712539664E7 ; 2.0139963149600255E8 ; 3.2913190062697005E9 ; 3.514808756191186E10 ; 0.0
184 ; 1.7244546561455898E7 ; 2.014043629949934E8 ; 3.308571177523667E9 ; 3.534948719340786E10 ; 0.0
185 ; 1.7234138611690983E7 ; 2.0140907645940983E8 ; 3.3258157240851226E9 ; 3.5550891556402855E10 ; 0.0
186 ; 1.7227186222216778E7 ; 2.014137717615422E8 ; 3.3430498626968136E9 ; 3.575230063286227E10 ; 0.0
187 ; 1.7215519366667945E7 ; 2.0141844877480924E8 ; 3.36027704891903E9 ; 3.595371440462381E10 ; 0.0
188 ; 1.7202804375914674E7 ; 2.014231073737411E8 ; 3.377492568285698E9 ; 3.615513285339862E10 ; 0.0
189 ; 1.7196034169411987E7 ; 2.0142774743396255E8 ; 3.3946953726616125E9 ; 3.635655596077236E10 ; 0.0
190 ; 1.718512151240211E7 ; 2.01432368832177E8 ; 3.4118914068310246E9 ; 3.655798370820632E10 ; 0.0
191 ; 1.7177307645435236E7 ; 2.0143697144615105E8 ; 3.4290765283434267E9 ; 3.67594160770385E10 ; 0.0
192 ; 1.7166318346880138E7 ; 2.0144155515469918E8 ; 3.446253835988862E9 ; 3.696085304848465E10 ; 0.0
193 ; 1.715930316093595E7 ; 2.0144611983766952E8 ; 3.463420154335742E9 ; 3.716229460363935E10 ; 0.0
194 ; 1.714701662622838E7 ; 2.0145066537592953E8 ; 3.480579457496678E9 ; 3.736374072347702E10 ; 0.0
195 ; 1.7140421728913337E7 ; 2.0145519165135264E8 ; 3.497726474122906E9 ; 3.756519138885295E10 ; 0.0
