CSV File for the City 4 on Day 19
1 - Minute m 
2 - Power Consumed at minute m 
3 - Power Produced at minute m 
4 - Energy Consumed since the beginning of the day 
5 - Energy Produced since the beginning of the day 
6 - Energy Lost since the beginning of the day on lines starting from the city
 
0 ; 4717136.827304264 ; 5.149157052941419E7 ; 0.0 ; 0.0 ; 0.0
1 ; 4723396.579244858 ; 5.164589151706849E7 ; 4717136.827304264 ; 5.149157052941419E7 ; 613.6199999999999
2 ; 4728189.404219875 ; 5.2108854480031446E7 ; 9440533.406549122 ; 1.0313746204648268E8 ; 1227.2399999999998
3 ; 4733943.333530188 ; 5.288045941830306E7 ; 1.4168722810768997E7 ; 1.552463165265141E8 ; 1840.8599999999997
4 ; 4740570.768161788 ; 5.39607063318833E7 ; 1.8902666144299187E7 ; 2.081267759448172E8 ; 2454.4799999999996
5 ; 4749336.779068114 ; 5.534959522077219E7 ; 2.3643236912460975E7 ; 2.620874822767005E8 ; 3068.0999999999995
6 ; 4757909.002120716 ; 5.704712608496971E7 ; 2.8392573691529088E7 ; 3.174370774974727E8 ; 3681.7199999999993
7 ; 4771388.11600961 ; 5.9053298924475886E7 ; 3.3150482693649802E7 ; 3.744842035824424E8 ; 4295.339999999999
8 ; 4796675.051532053 ; 6.136811373929069E7 ; 3.7921870809659414E7 ; 4.335375025069183E8 ; 4908.959999999999
9 ; 4827155.871206053 ; 6.3991570529414155E7 ; 4.271854586119147E7 ; 4.94905616246209E8 ; 5522.579999999999
10 ; 4879256.46267217 ; 6.6923669294846274E7 ; 4.754570173239752E7 ; 5.588971867756232E8 ; 6136.199999999999
11 ; 4957941.981780103 ; 7.016441003558703E7 ; 5.2424958195069686E7 ; 6.258208560704695E8 ; 6749.819999999999
12 ; 5088288.5429329835 ; 7.37137927516364E7 ; 5.738290017684979E7 ; 6.959852661060566E8 ; 7363.439999999999
13 ; 5208288.316833026 ; 7.75718174429944E7 ; 6.247118871978277E7 ; 7.69699058857693E8 ; 7977.059999999999
14 ; 5222590.513784492 ; 8.173848410966109E7 ; 6.767947703661579E7 ; 8.472708763006873E8 ; 8590.679999999998
15 ; 5228617.103677399 ; 8.621379275163637E7 ; 7.290206755040029E7 ; 9.290093604103484E8 ; 9204.3
16 ; 5234565.40514411 ; 9.099774336892034E7 ; 7.813068465407768E7 ; 1.0152231531619848E9 ; 9817.919999999998
17 ; 5239558.326520038 ; 9.609033596151295E7 ; 8.336525005922179E7 ; 1.1062208965309052E9 ; 10431.539999999997
18 ; 5243787.533345974 ; 1.0149157052941418E8 ; 8.860480838574183E7 ; 1.2023112324924183E9 ; 11045.159999999996
19 ; 5250968.239969753 ; 1.0720144707262406E8 ; 9.38485959190878E7 ; 1.3038028030218325E9 ; 11658.779999999995
20 ; 5258467.362647479 ; 1.1321996559114257E8 ; 9.909956415905756E7 ; 1.4110042500944564E9 ; 12272.399999999994
21 ; 5266134.9619695125 ; 1.1954712608496971E8 ; 1.0435803152170503E8 ; 1.524224215685599E9 ; 12886.019999999993
22 ; 5270175.03846869 ; 1.2618292855410552E8 ; 1.0962416648367454E8 ; 1.6437713417705688E9 ; 13499.639999999992
23 ; 5276128.407906247 ; 1.3312737299855E8 ; 1.1489434152214323E8 ; 1.7699542703246744E9 ; 14113.259999999991
24 ; 5282901.204367364 ; 1.4038045941830307E8 ; 1.2017046993004948E8 ; 1.9030816433232243E9 ; 14726.87999999999
25 ; 5290341.681020318 ; 1.4663022871154827E8 ; 1.2545337113441685E8 ; 2.0434621027415273E9 ; 15340.499999999989
26 ; 5293123.456389269 ; 1.4663022871154827E8 ; 1.3074371281543717E8 ; 2.1900923314530754E9 ; 15954.119999999988
27 ; 5299025.840006761 ; 1.4663022871154827E8 ; 1.3603683627182645E8 ; 2.3367225601646237E9 ; 16567.739999999987
28 ; 5304141.516751759 ; 1.4663022871154827E8 ; 1.413358621118332E8 ; 2.483352788876172E9 ; 17181.359999999986
29 ; 5309053.128949137 ; 1.4663022871154827E8 ; 1.4664000362858498E8 ; 2.6299830175877204E9 ; 17794.979999999985
30 ; 5315649.7913186895 ; 1.4663022871154827E8 ; 1.5194905675753412E8 ; 2.7766132462992687E9 ; 18408.599999999984
31 ; 5320294.211039846 ; 1.4663022871154827E8 ; 1.572647065488528E8 ; 2.923243475010817E9 ; 19022.219999999983
32 ; 5326816.630230856 ; 1.4663022871154827E8 ; 1.6258500075989264E8 ; 3.0698737037223654E9 ; 19635.839999999982
33 ; 5332304.804207769 ; 1.4663022871154827E8 ; 1.679118173901235E8 ; 3.2165039324339137E9 ; 20249.45999999998
34 ; 5336918.196754031 ; 1.4663022871154827E8 ; 1.7324412219433126E8 ; 3.363134161145462E9 ; 20863.07999999998
35 ; 5341426.682391946 ; 1.4663022871154827E8 ; 1.785810403910853E8 ; 3.5097643898570104E9 ; 21476.69999999998
36 ; 5345571.203540247 ; 1.4663022871154827E8 ; 1.8392246707347724E8 ; 3.6563946185685587E9 ; 22090.319999999978
37 ; 5352020.333153928 ; 1.4663022871154827E8 ; 1.8926803827701747E8 ; 3.803024847280107E9 ; 22703.939999999977
38 ; 5356170.742543199 ; 1.4663022871154827E8 ; 1.946200586101714E8 ; 3.9496550759916553E9 ; 23317.559999999976
39 ; 5357645.472354932 ; 1.4663022871154827E8 ; 1.999762293527146E8 ; 4.0962853047032037E9 ; 23931.179999999975
40 ; 5363365.159891616 ; 1.4663022871154827E8 ; 2.0533387482506952E8 ; 4.242915533414752E9 ; 24544.799999999974
41 ; 5365244.292747683 ; 1.4663022871154827E8 ; 2.1069723998496112E8 ; 4.3895457621263E9 ; 25158.419999999973
42 ; 5370830.100464469 ; 1.4663022871154827E8 ; 2.160624842777088E8 ; 4.536175990837848E9 ; 25772.03999999997
43 ; 5373313.624518256 ; 1.4663022871154827E8 ; 2.2143331437817326E8 ; 4.682806219549396E9 ; 26385.65999999997
44 ; 5376605.510755342 ; 1.4663022871154827E8 ; 2.268066280026915E8 ; 4.829436448260943E9 ; 26999.27999999997
45 ; 5379052.052897383 ; 1.4663022871154827E8 ; 2.3218323351344684E8 ; 4.976066676972491E9 ; 27612.89999999997
46 ; 5381421.229615841 ; 1.4663022871154827E8 ; 2.3756228556634423E8 ; 5.122696905684039E9 ; 28226.519999999968
47 ; 5383996.282430219 ; 1.4663022871154827E8 ; 2.4294370679596007E8 ; 5.269327134395587E9 ; 28840.139999999967
48 ; 5386630.746137554 ; 1.4663022871154827E8 ; 2.483277030783903E8 ; 5.415957363107135E9 ; 29453.759999999966
49 ; 5387192.610683258 ; 1.4663022871154827E8 ; 2.5371433382452786E8 ; 5.562587591818683E9 ; 30067.379999999965
50 ; 5390487.939533506 ; 1.4663022871154827E8 ; 2.5910152643521112E8 ; 5.7092178205302305E9 ; 30680.999999999964
51 ; 5390508.7327426355 ; 1.4663022871154827E8 ; 2.6449201437474462E8 ; 5.855848049241778E9 ; 31294.619999999963
52 ; 5393728.86844771 ; 1.4663022871154827E8 ; 2.6988252310748726E8 ; 6.002478277953326E9 ; 31908.23999999996
53 ; 5395657.3438671315 ; 1.4663022871154827E8 ; 2.75276251975935E8 ; 6.149108506664874E9 ; 32521.85999999996
54 ; 5395664.674405961 ; 1.4663022871154827E8 ; 2.806719093198021E8 ; 6.295738735376422E9 ; 33135.47999999996
55 ; 5397026.662525867 ; 1.4663022871154827E8 ; 2.8606757399420804E8 ; 6.44236896408797E9 ; 33749.09999999996
56 ; 5398818.373181953 ; 1.4663022871154827E8 ; 2.9146460065673393E8 ; 6.588999192799518E9 ; 34362.719999999965
57 ; 5398770.506900063 ; 1.4663022871154827E8 ; 2.9686341902991587E8 ; 6.7356294215110655E9 ; 34976.33999999997
58 ; 5400709.388130135 ; 1.4663022871154827E8 ; 3.0226218953681594E8 ; 6.882259650222613E9 ; 35589.95999999997
59 ; 5400399.585641868 ; 1.4663022871154827E8 ; 3.0766289892494607E8 ; 7.028889878934161E9 ; 36203.57999999997
60 ; 5401950.324978936 ; 1.4663022871154827E8 ; 3.1306329851058793E8 ; 7.175520107645709E9 ; 36817.199999999975
61 ; 5404614.652541073 ; 1.4663022871154827E8 ; 3.184652488355669E8 ; 7.322150336357257E9 ; 37430.81999999998
62 ; 5403490.533629301 ; 1.4663022871154827E8 ; 3.23869863488108E8 ; 7.468780565068805E9 ; 38044.43999999998
63 ; 5405446.544864499 ; 1.4663022871154827E8 ; 3.292733540217373E8 ; 7.615410793780353E9 ; 38658.05999999998
64 ; 5406561.187276963 ; 1.4663022871154827E8 ; 3.3467880056660175E8 ; 7.7620410224919E9 ; 39271.679999999986
65 ; 5408330.190178934 ; 1.4663022871154827E8 ; 3.400853617538787E8 ; 7.908671251203448E9 ; 39885.29999999999
66 ; 5407967.673194786 ; 1.4663022871154827E8 ; 3.4549369194405764E8 ; 8.055301479914996E9 ; 40498.91999999999
67 ; 5405317.789243995 ; 1.4663022871154827E8 ; 3.509016596172524E8 ; 8.201931708626544E9 ; 41112.53999999999
68 ; 5409540.730580499 ; 1.4663022871154827E8 ; 3.563069774064964E8 ; 8.348561937338092E9 ; 41726.159999999996
69 ; 5407856.864180549 ; 1.4663022871154827E8 ; 3.617165181370769E8 ; 8.49519216604964E9 ; 42339.78
70 ; 5408758.154819314 ; 1.4663022871154827E8 ; 3.671243750012575E8 ; 8.641822394761189E9 ; 42953.4
71 ; 5408423.055836568 ; 1.4663022871154827E8 ; 3.725331331560768E8 ; 8.788452623472736E9 ; 43567.020000000004
72 ; 5411177.856842305 ; 1.4663022871154827E8 ; 3.7794155621191335E8 ; 8.935082852184284E9 ; 44180.64000000001
73 ; 5411105.104824419 ; 1.4663022871154827E8 ; 3.833527340687556E8 ; 9.081713080895832E9 ; 44794.26000000001
74 ; 5412700.128222722 ; 1.4663022871154827E8 ; 3.8876383917358005E8 ; 9.22834330960738E9 ; 45407.88000000001
75 ; 5409645.87258004 ; 1.4663022871154827E8 ; 3.9417653930180275E8 ; 9.374973538318928E9 ; 46021.500000000015
76 ; 5412960.111799429 ; 1.4663022871154827E8 ; 3.995861851743828E8 ; 9.521603767030476E9 ; 46635.12000000002
77 ; 5410797.117585097 ; 1.4663022871154827E8 ; 4.049991452861822E8 ; 9.668233995742023E9 ; 47248.74000000002
78 ; 5411497.79227712 ; 1.4663022871154827E8 ; 4.1040994240376735E8 ; 9.814864224453571E9 ; 47862.36000000002
79 ; 5409568.626475374 ; 1.4663022871154827E8 ; 4.1582144019604445E8 ; 9.96149445316512E9 ; 48475.980000000025
80 ; 5407039.388289638 ; 1.4663022871154827E8 ; 4.2123100882251984E8 ; 1.0108124681876667E10 ; 49089.60000000003
81 ; 5405066.588833578 ; 1.4663022871154827E8 ; 4.2663804821080947E8 ; 1.0254754910588215E10 ; 49703.22000000003
82 ; 5403415.920131455 ; 1.4663022871154827E8 ; 4.3204311479964304E8 ; 1.0401385139299763E10 ; 50316.84000000003
83 ; 5401506.579516782 ; 1.4663022871154827E8 ; 4.374465307197745E8 ; 1.054801536801131E10 ; 50930.460000000036
84 ; 5399811.532351364 ; 1.4663022871154827E8 ; 4.4284803729929125E8 ; 1.0694645596722858E10 ; 51544.08000000004
85 ; 5398191.918866331 ; 1.4663022871154827E8 ; 4.482478488316426E8 ; 1.0841275825434406E10 ; 52157.70000000004
86 ; 5396863.803468164 ; 1.4663022871154827E8 ; 4.5364604075050896E8 ; 1.0987906054145954E10 ; 52771.32000000004
87 ; 5394930.415068273 ; 1.4663022871154827E8 ; 4.5904290455397713E8 ; 1.1134536282857502E10 ; 53384.940000000046
88 ; 5394169.345036433 ; 1.4663022871154827E8 ; 4.644378349690454E8 ; 1.128116651156905E10 ; 53998.56000000005
89 ; 5391852.265005305 ; 1.4663022871154827E8 ; 4.6983200431408185E8 ; 1.1427796740280598E10 ; 54612.18000000005
90 ; 5389057.543925802 ; 1.4663022871154827E8 ; 4.7522385657908714E8 ; 1.1574426968992146E10 ; 55225.800000000054
91 ; 5389387.066664863 ; 1.4663022871154827E8 ; 4.8061291412301296E8 ; 1.1721057197703693E10 ; 55839.42000000006
92 ; 5386028.378704726 ; 1.4663022871154827E8 ; 4.8600230118967783E8 ; 1.1867687426415241E10 ; 56453.04000000006
93 ; 5383932.377503112 ; 1.4663022871154827E8 ; 4.9138832956838256E8 ; 1.201431765512679E10 ; 57066.66000000006
94 ; 5381230.677312935 ; 1.4663022871154827E8 ; 4.9677226194588566E8 ; 1.2160947883838337E10 ; 57680.280000000064
95 ; 5377332.706703003 ; 1.4663022871154827E8 ; 5.0215349262319857E8 ; 1.2307578112549885E10 ; 58293.90000000007
96 ; 5375522.999937184 ; 1.4663022871154827E8 ; 5.075308253299016E8 ; 1.2454208341261433E10 ; 58907.52000000007
97 ; 5373690.3062147135 ; 1.4663022871154827E8 ; 5.1290634832983875E8 ; 1.260083856997298E10 ; 59521.14000000007
98 ; 5370962.087002027 ; 1.4663022871154827E8 ; 5.1828003863605344E8 ; 1.2747468798684528E10 ; 60134.760000000075
99 ; 5368118.010848754 ; 1.4663022871154827E8 ; 5.236510007230555E8 ; 1.2894099027396076E10 ; 60748.38000000008
100 ; 5367770.502888472 ; 1.4663022871154827E8 ; 5.2901911873390424E8 ; 1.3040729256107624E10 ; 61362.00000000008
101 ; 5365229.681859945 ; 1.4663022871154827E8 ; 5.3438688923679274E8 ; 1.3187359484819172E10 ; 61975.62000000008
102 ; 5359573.702394195 ; 1.4663022871154827E8 ; 5.397521189186527E8 ; 1.333398971353072E10 ; 62589.240000000085
103 ; 5355258.671950492 ; 1.4663022871154827E8 ; 5.451116926210469E8 ; 1.3480619942242268E10 ; 63202.86000000009
104 ; 5355724.667917655 ; 1.4663022871154827E8 ; 5.504669512929974E8 ; 1.3627250170953815E10 ; 63816.48000000009
105 ; 5351313.151871181 ; 1.4663022871154827E8 ; 5.55822675960915E8 ; 1.3773880399665363E10 ; 64430.10000000009
106 ; 5349913.617204765 ; 1.4663022871154827E8 ; 5.611739891127862E8 ; 1.3920510628376911E10 ; 65043.720000000096
107 ; 5346401.800190269 ; 1.4663022871154827E8 ; 5.66523902729991E8 ; 1.4067140857088459E10 ; 65657.3400000001
108 ; 5342086.660021245 ; 1.4663022871154827E8 ; 5.718703045301812E8 ; 1.4213771085800007E10 ; 66270.9600000001
109 ; 5340967.454546653 ; 1.4663022871154827E8 ; 5.772123911902024E8 ; 1.4360401314511555E10 ; 66884.58000000009
110 ; 5338559.396438792 ; 1.4663022871154827E8 ; 5.82553358644749E8 ; 1.4507031543223103E10 ; 67498.20000000008
111 ; 5331868.877327727 ; 1.4663022871154827E8 ; 5.878919180411879E8 ; 1.465366177193465E10 ; 68111.82000000008
112 ; 5330273.438995965 ; 1.4663022871154827E8 ; 5.932237869185156E8 ; 1.4800292000646198E10 ; 68725.44000000008
113 ; 5329857.296083779 ; 1.4663022871154827E8 ; 5.985540603575115E8 ; 1.4946922229357746E10 ; 69339.06000000007
114 ; 5324313.9674337115 ; 1.4663022871154827E8 ; 6.038839176535953E8 ; 1.5093552458069294E10 ; 69952.68000000007
115 ; 5323261.379879408 ; 1.4663022871154827E8 ; 6.09208231621029E8 ; 1.5240182686780842E10 ; 70566.30000000006
116 ; 5317818.890046575 ; 1.4663022871154827E8 ; 6.145314930009084E8 ; 1.538681291549239E10 ; 71179.92000000006
117 ; 5314194.4586144425 ; 1.4663022871154827E8 ; 6.19849311890955E8 ; 1.5533443144203938E10 ; 71793.54000000005
118 ; 5311032.1265515685 ; 1.4663022871154827E8 ; 6.251635063495694E8 ; 1.5680073372915485E10 ; 72407.16000000005
119 ; 5308064.625263071 ; 1.4663022871154827E8 ; 6.30474538476121E8 ; 1.5826703601627033E10 ; 73020.78000000004
120 ; 5305875.892609759 ; 1.4663022871154827E8 ; 6.35782603101384E8 ; 1.5973333830338581E10 ; 73634.40000000004
121 ; 5298983.724297721 ; 1.4663022871154827E8 ; 6.410884789939938E8 ; 1.6119964059050129E10 ; 74248.02000000003
122 ; 5297626.634426785 ; 1.4663022871154827E8 ; 6.463874627182915E8 ; 1.6266594287761677E10 ; 74861.64000000003
123 ; 5292467.8700997 ; 1.4663022871154827E8 ; 6.516850893527184E8 ; 1.6413224516473225E10 ; 75475.26000000002
124 ; 5288840.775592755 ; 1.4663022871154827E8 ; 6.56977557222818E8 ; 1.6559854745184772E10 ; 76088.88000000002
125 ; 5283226.054863298 ; 1.4663022871154827E8 ; 6.622663979984108E8 ; 1.670648497389632E10 ; 76702.50000000001
126 ; 5279478.520257919 ; 1.4663022871154827E8 ; 6.675496240532742E8 ; 1.6853115202607868E10 ; 77316.12000000001
127 ; 5276213.419191994 ; 1.4663022871154827E8 ; 6.728291025735321E8 ; 1.6999745431319416E10 ; 77929.74
128 ; 5274068.967482496 ; 1.4663022871154827E8 ; 6.781053159927241E8 ; 1.7146375660030964E10 ; 78543.36
129 ; 5266630.17931299 ; 1.4663022871154827E8 ; 6.833793849602065E8 ; 1.729300588874251E10 ; 79156.98
130 ; 5263084.309992565 ; 1.4663022871154827E8 ; 6.886460151395195E8 ; 1.743963611745406E10 ; 79770.59999999999
131 ; 5257821.329359621 ; 1.4663022871154827E8 ; 6.93909099449512E8 ; 1.7586266346165607E10 ; 80384.21999999999
132 ; 5254775.508086684 ; 1.4663022871154827E8 ; 6.991669207788717E8 ; 1.7732896574877155E10 ; 80997.83999999998
133 ; 5247000.051014672 ; 1.4663022871154827E8 ; 7.044216962869583E8 ; 1.7879526803588703E10 ; 81611.45999999998
134 ; 5241983.276392573 ; 1.4663022871154827E8 ; 7.09668696337973E8 ; 1.802615703230025E10 ; 82225.07999999997
135 ; 5235377.814514026 ; 1.4663022871154827E8 ; 7.149106796143656E8 ; 1.81727872610118E10 ; 82838.69999999997
136 ; 5227674.995477708 ; 1.4663022871154827E8 ; 7.201460574288796E8 ; 1.8319417489723347E10 ; 83452.31999999996
137 ; 5224051.187167273 ; 1.4663022871154827E8 ; 7.253737324243573E8 ; 1.8466047718434895E10 ; 84065.93999999996
138 ; 5216529.021552551 ; 1.4663022871154827E8 ; 7.305977836115246E8 ; 1.8612677947146442E10 ; 84679.55999999995
139 ; 5211547.145729682 ; 1.4663022871154827E8 ; 7.358143126330771E8 ; 1.875930817585799E10 ; 85293.17999999995
140 ; 5206006.667362368 ; 1.4663022871154827E8 ; 7.410258597788068E8 ; 1.890593840456954E10 ; 85906.79999999994
141 ; 5200283.38509462 ; 1.4663022871154827E8 ; 7.462318664461691E8 ; 1.9052568633281086E10 ; 86520.41999999994
142 ; 5193175.9664966585 ; 1.4663022871154827E8 ; 7.514321498312638E8 ; 1.9199198861992634E10 ; 87134.03999999994
143 ; 5186933.935656955 ; 1.4663022871154827E8 ; 7.566253257977605E8 ; 1.934582909070418E10 ; 87747.65999999993
144 ; 5178098.608631646 ; 1.4663022871154827E8 ; 7.618122597334174E8 ; 1.949245931941573E10 ; 88361.27999999993
145 ; 5175919.5977690555 ; 1.4663022871154827E8 ; 7.66990358342049E8 ; 1.9639089548127277E10 ; 88974.89999999992
146 ; 5172910.508469951 ; 1.4663022871154827E8 ; 7.72166277939818E8 ; 1.9785719776838825E10 ; 89588.51999999992
147 ; 5167691.733012528 ; 1.4663022871154827E8 ; 7.77339188448288E8 ; 1.9932350005550373E10 ; 90202.13999999991
148 ; 5163265.902763565 ; 1.4663022871154827E8 ; 7.825068801813005E8 ; 2.007898023426192E10 ; 90815.75999999991
149 ; 5159939.115356999 ; 1.4663022871154827E8 ; 7.876701460840641E8 ; 2.022561046297347E10 ; 91429.3799999999
150 ; 5156046.812085062 ; 1.4663022871154827E8 ; 7.928300851994212E8 ; 2.0372240691685017E10 ; 92042.9999999999
151 ; 5149741.358987451 ; 1.4663022871154827E8 ; 7.979861320115062E8 ; 2.0518870920396564E10 ; 92656.6199999999
152 ; 5145822.299048089 ; 1.4663022871154827E8 ; 8.031358733704937E8 ; 2.0665501149108112E10 ; 93270.23999999989
153 ; 5141069.9862137595 ; 1.4663022871154827E8 ; 8.082816956695417E8 ; 2.081213137781966E10 ; 93883.85999999988
154 ; 5136579.895040076 ; 1.4663022871154827E8 ; 8.134227656557555E8 ; 2.0958761606531208E10 ; 94497.47999999988
155 ; 5131604.576869232 ; 1.4663022871154827E8 ; 8.185593455507956E8 ; 2.1105391835242756E10 ; 95111.09999999987
156 ; 5126755.47849366 ; 1.4663022871154827E8 ; 8.236909501276648E8 ; 2.1252022063954304E10 ; 95724.71999999987
157 ; 5121178.058217306 ; 1.4663022871154827E8 ; 8.288177056061585E8 ; 2.139865229266585E10 ; 96338.33999999987
158 ; 5117954.412743367 ; 1.4663022871154827E8 ; 8.339388836643758E8 ; 2.15452825213774E10 ; 96951.95999999986
159 ; 5115314.129569104 ; 1.4663022871154827E8 ; 8.390568380771191E8 ; 2.1691912750088947E10 ; 97565.57999999986
160 ; 5109793.049002784 ; 1.4663022871154827E8 ; 8.441721522066882E8 ; 2.1838542978800495E10 ; 98179.19999999985
161 ; 5102177.248772528 ; 1.4663022871154827E8 ; 8.492819452556909E8 ; 2.1985173207512043E10 ; 98792.81999999985
162 ; 5099196.646459935 ; 1.4663022871154827E8 ; 8.543841225044634E8 ; 2.213180343622359E10 ; 99406.43999999984
163 ; 5096145.551432045 ; 1.4663022871154827E8 ; 8.594833191509234E8 ; 2.227843366493514E10 ; 100020.05999999984
164 ; 5089750.14222719 ; 1.4663022871154827E8 ; 8.645794647023554E8 ; 2.2425063893646687E10 ; 100633.67999999983
165 ; 5086816.598728607 ; 1.4663022871154827E8 ; 8.696692148445826E8 ; 2.2571694122358234E10 ; 101247.29999999983
166 ; 5080822.4766214555 ; 1.4663022871154827E8 ; 8.747560314433112E8 ; 2.2718324351069782E10 ; 101860.91999999982
167 ; 5075952.880508509 ; 1.4663022871154827E8 ; 8.798368539199327E8 ; 2.286495457978133E10 ; 102474.53999999982
168 ; 5070811.77104084 ; 1.4663022871154827E8 ; 8.849128068004413E8 ; 2.3011584808492878E10 ; 103088.15999999981
169 ; 5064229.539754889 ; 1.4663022871154827E8 ; 8.899836185714821E8 ; 2.3158215037204426E10 ; 103701.77999999981
170 ; 5060611.907999088 ; 1.4663022871154827E8 ; 8.950478481112369E8 ; 2.3304845265915974E10 ; 104315.3999999998
171 ; 5058788.183088479 ; 1.4663022871154827E8 ; 9.00108460019236E8 ; 2.345147549462752E10 ; 104929.0199999998
172 ; 5052072.505069421 ; 1.4663022871154827E8 ; 9.051672482023244E8 ; 2.359810572333907E10 ; 105542.6399999998
173 ; 5048408.142663431 ; 1.4663022871154827E8 ; 9.102193207073938E8 ; 2.3744735952050617E10 ; 106156.25999999979
174 ; 5042643.681979711 ; 1.4663022871154827E8 ; 9.152677288500572E8 ; 2.3891366180762165E10 ; 106769.87999999979
175 ; 5044370.363137034 ; 1.4663022871154827E8 ; 9.203103725320369E8 ; 2.4037996409473713E10 ; 107383.49999999978
176 ; 5037542.713320666 ; 1.4663022871154827E8 ; 9.253547428951739E8 ; 2.418462663818526E10 ; 107997.11999999978
