CSV File for the City 1 on Day 120
1 - Minute m 
2 - Power Consumed at minute m 
3 - Power Produced at minute m 
4 - Energy Consumed since the beginning of the day 
5 - Energy Produced since the beginning of the day 
6 - Energy Lost since the beginning of the day on lines starting from the city
 
0 ; 1.6218935096373225E7 ; 1.0556199720085368E8 ; 0.0 ; 0.0 ; 0.0
1 ; 1.6237459554623602E7 ; 1.0571495469632202E8 ; 1.6218935096373225E7 ; 1.0556199720085368E8 ; 0.0
2 ; 1.6261498671792671E7 ; 1.0617669345362404E8 ; 3.2456394650996827E7 ; 2.112769518971757E8 ; 0.0
3 ; 1.6276980237447478E7 ; 1.0694721485496902E8 ; 4.87178933227895E7 ; 3.1745364535079974E8 ; 0.0
4 ; 1.6304778279532462E7 ; 1.0802652013775468E8 ; 6.4994873560236976E7 ; 4.2440086020576876E8 ; 0.0
5 ; 1.6332768602809837E7 ; 1.094146103881551E8 ; 8.129965183976944E7 ; 5.3242738034352344E8 ; 0.0
6 ; 1.6372148562490521E7 ; 1.111114865353916E8 ; 9.763242044257927E7 ; 6.418419907316785E8 ; 0.0
7 ; 1.6425995677848265E7 ; 1.1311714934675723E8 ; 1.1400456900506979E8 ; 7.5295347726707E8 ; 0.0
8 ; 1.6504375985046E7 ; 1.1543159942345536E8 ; 1.3043056468291806E8 ; 8.660706266138272E8 ; 0.0
9 ; 1.6621826926546687E7 ; 1.1805483719730687E8 ; 1.4693494066796404E8 ; 9.815022260372826E8 ; 0.0
10 ; 1.6805355755395025E7 ; 1.2098686292836636E8 ; 1.6355676759451073E8 ; 1.0995570632345896E9 ; 0.0
11 ; 1.709271681449907E7 ; 1.2422767670347974E8 ; 1.8036212334990576E8 ; 1.220543926162956E9 ; 0.0
12 ; 1.7557593092621062E7 ; 1.2777727843580106E8 ; 1.9745484016440484E8 ; 1.3447716028664358E9 ; 0.0
13 ; 1.800723763782953E7 ; 1.3163566786527574E8 ; 2.150124332570259E8 ; 1.4725488813022368E9 ; 0.0
14 ; 1.8057277411844257E7 ; 1.3580284456008297E8 ; 2.3301967089485544E8 ; 1.6041845491675124E9 ; 0.0
15 ; 1.808297912921107E7 ; 1.4027880791901928E8 ; 2.510769483066997E8 ; 1.7399873937275953E9 ; 0.0
16 ; 1.8106553591686554E7 ; 1.4506355717479172E8 ; 2.6915992743591076E8 ; 1.8802662016466146E9 ; 0.0
17 ; 1.812864065536814E7 ; 1.501570913981789E8 ; 2.872664810275973E8 ; 2.0253297588214064E9 ; 0.0
18 ; 1.815187239717686E7 ; 1.5555940950300676E8 ; 3.0539512168296546E8 ; 2.1754868502195854E9 ; 0.0
19 ; 1.816814048123452E7 ; 1.6127051025187758E8 ; 3.235469940801423E8 ; 2.3310462597225924E9 ; 0.0
20 ; 1.819399701164905E7 ; 1.6729039226258203E8 ; 3.417151345613768E8 ; 2.49231676997447E9 ; 0.0
21 ; 1.8212634770575166E7 ; 1.7361905401511934E8 ; 3.599091315730259E8 ; 2.659607162237052E9 ; 0.0
22 ; 1.823456986903281E7 ; 1.8025649385924304E8 ; 3.7812176634360105E8 ; 2.8332262162521715E9 ; 0.0
23 ; 1.825572116877753E7 ; 1.8720271002244997E8 ; 3.9635633621263385E8 ; 3.0134827101114144E9 ; 0.0
24 ; 1.82856961814398E7 ; 1.9445770061832565E8 ; 4.146120573814114E8 ; 3.2006854201338644E9 ; 0.0
25 ; 1.8306687930004735E7 ; 2.00709504553345E8 ; 4.328977535628512E8 ; 3.39514312075219E9 ; 0.0
26 ; 1.8323579641370796E7 ; 2.0071166757257167E8 ; 4.512044414928559E8 ; 3.5958526253055353E9 ; 0.0
27 ; 1.834767968599875E7 ; 2.0071395679347065E8 ; 4.695280211342267E8 ; 3.796564292878107E9 ; 0.0
28 ; 1.836834992200398E7 ; 2.0071636996161714E8 ; 4.878757008202254E8 ; 3.997278249671578E9 ; 0.0
29 ; 1.8391809063145645E7 ; 2.0071890475283268E8 ; 5.062440507422294E8 ; 4.197994619633195E9 ; 0.0
30 ; 1.841229529499382E7 ; 2.0072155878196305E8 ; 5.2463585980537504E8 ; 4.398713524386027E9 ; 0.0
31 ; 1.843270845580671E7 ; 2.0072432961148176E8 ; 5.430481551003689E8 ; 4.599435083167991E9 ; 0.0
32 ; 1.845120536884974E7 ; 2.0072721475986397E8 ; 5.614808635561756E8 ; 4.800159412779472E9 ; 0.0
33 ; 1.8471426243086424E7 ; 2.007302117096838E8 ; 5.799320689250253E8 ; 5.000886627539336E9 ; 0.0
34 ; 1.8490421918928765E7 ; 2.007333179153931E8 ; 5.984034951681118E8 ; 5.20161683924902E9 ; 0.0
35 ; 1.851344894744056E7 ; 2.0073653081074858E8 ; 6.168939170870405E8 ; 5.4023501571644125E9 ; 0.0
36 ; 1.8531587765410647E7 ; 2.007398478158589E8 ; 6.35407366034481E8 ; 5.603086687975161E9 ; 0.0
37 ; 1.8545405223849904E7 ; 2.0074326634383184E8 ; 6.539389537998917E8 ; 5.803826535791019E9 ; 0.0
38 ; 1.8564085126321647E7 ; 2.0074678380700588E8 ; 6.724843590237416E8 ; 6.004569802134851E9 ; 0.0
39 ; 1.8584297916610736E7 ; 2.0075039762275723E8 ; 6.910484441500633E8 ; 6.205316585941857E9 ; 0.0
40 ; 1.8596185220266625E7 ; 2.0075410521887812E8 ; 7.09632742066674E8 ; 6.406066983564614E9 ; 0.0
41 ; 1.860977655215466E7 ; 2.007579040385269E8 ; 7.282289272869406E8 ; 6.606821088783492E9 ; 0.0
42 ; 1.862413872288683E7 ; 2.0076179154475424E8 ; 7.468387038390952E8 ; 6.807578992822019E9 ; 0.0
43 ; 1.8639427760881998E7 ; 2.0076576522461373E8 ; 7.65462842561982E8 ; 7.008340784366773E9 ; 0.0
44 ; 1.8650199066040948E7 ; 2.0076982259286797E8 ; 7.84102270322864E8 ; 7.209106549591387E9 ; 0.0
45 ; 1.8665770960846387E7 ; 2.0077396119530368E8 ; 8.02752469388905E8 ; 7.409876372184255E9 ; 0.0
46 ; 1.8677762250672918E7 ; 2.0077817861167148E8 ; 8.214182403497515E8 ; 7.610650333379559E9 ; 0.0
47 ; 1.868538379576524E7 ; 2.00782472458268E8 ; 8.400960026004244E8 ; 7.81142851199123E9 ; 0.0
48 ; 1.8694080561365362E7 ; 2.0078684039017802E8 ; 8.587813863961897E8 ; 8.012210984449498E9 ; 0.0
49 ; 1.8705243952084966E7 ; 2.0079128010319716E8 ; 8.77475466957555E8 ; 8.212997824839676E9 ; 0.0
50 ; 1.8713136221890192E7 ; 2.007957893354535E8 ; 8.961807109096401E8 ; 8.413789104942873E9 ; 0.0
51 ; 1.8719647272889096E7 ; 2.0080036586874965E8 ; 9.148938471315303E8 ; 8.614584894278326E9 ; 0.0
52 ; 1.8724026462191537E7 ; 2.0080500752964398E8 ; 9.336134944044194E8 ; 8.815385260147076E9 ; 0.0
53 ; 1.873449590904902E7 ; 2.0080971219029194E8 ; 9.52337520866611E8 ; 9.01619026767672E9 ; 0.0
54 ; 1.873897767031761E7 ; 2.0081447776906583E8 ; 9.7107201677566E8 ; 9.216999979867012E9 ; 0.0
55 ; 1.8735710621749382E7 ; 2.008193022309726E8 ; 9.898109944459777E8 ; 9.417814457636078E9 ; 0.0
56 ; 1.87226319105035E7 ; 2.0082418358788735E8 ; 1.0085467050677271E9 ; 9.61863375986705E9 ; 0.0
57 ; 1.8707017435952187E7 ; 2.0082911989861992E8 ; 1.0272693369782306E9 ; 9.819457943454937E9 ; 0.0
58 ; 1.8689166424475305E7 ; 2.0083410926883125E8 ; 1.0459763544141828E9 ; 1.0020287063353558E10 ; 0.0
59 ; 1.8681105461907566E7 ; 2.008391498508149E8 ; 1.0646655208386581E9 ; 1.0221121172622389E10 ; 0.0
60 ; 1.866451490579866E7 ; 2.0084423984315866E8 ; 1.0833466263005657E9 ; 1.0421960322473204E10 ; 0.0
61 ; 1.8651524837375592E7 ; 2.0084937749029964E8 ; 1.1020111412063644E9 ; 1.0622804562316362E10 ; 0.0
62 ; 1.863196609351099E7 ; 2.0085456108198628E8 ; 1.12066266604374E9 ; 1.0823653939806662E10 ; 0.0
63 ; 1.861845866791682E7 ; 2.0085978895265856E8 ; 1.1392946321372511E9 ; 1.1024508500888647E10 ; 0.0
64 ; 1.860446289684701E7 ; 2.0086505948075786E8 ; 1.157913090805168E9 ; 1.1225368289841305E10 ; 0.0
65 ; 1.858514322687942E7 ; 2.0087037108797646E8 ; 1.176517553702015E9 ; 1.1426233349322063E10 ; 0.0
66 ; 1.8568896415405355E7 ; 2.00875722238456E8 ; 1.1951026969288943E9 ; 1.162710372041004E10 ; 0.0
67 ; 1.8555219756449956E7 ; 2.0088111143794367E8 ; 1.2136715933442996E9 ; 1.1827979442648497E10 ; 0.0
68 ; 1.853864276973824E7 ; 2.008865372329134E8 ; 1.2322268131007495E9 ; 1.2028860554086441E10 ; 0.0
69 ; 1.8522763088751588E7 ; 2.0089199820965952E8 ; 1.2507654558704877E9 ; 1.2229747091319355E10 ; 0.0
70 ; 1.8507550995066736E7 ; 2.0089749299336913E8 ; 1.2692882189592392E9 ; 1.2430639089529015E10 ; 0.0
71 ; 1.8488486353501774E7 ; 2.0090302024717885E8 ; 1.287795769954306E9 ; 1.2631536582522385E10 ; 0.0
72 ; 1.8470277256450713E7 ; 2.0090857867122108E8 ; 1.3062842563078077E9 ; 1.2832439602769564E10 ; 0.0
73 ; 1.8457576099250294E7 ; 2.0091416700166446E8 ; 1.3247545335642583E9 ; 1.3033348181440784E10 ; 0.0
74 ; 1.8441702460615743E7 ; 2.009197840097526E8 ; 1.3432121096635087E9 ; 1.323426234844245E10 ; 0.0
75 ; 1.8423391633326523E7 ; 2.009254285008445E8 ; 1.3616538121241243E9 ; 1.3435182132452202E10 ; 0.0
76 ; 1.8405117278711412E7 ; 2.0093109931346023E8 ; 1.3800772037574508E9 ; 1.3636107560953047E10 ; 0.0
77 ; 1.8384549298681542E7 ; 2.0093679531833395E8 ; 1.3984823210361621E9 ; 1.3837038660266506E10 ; 0.0
78 ; 1.836117424091119E7 ; 2.0094251541747776E8 ; 1.4168668703348436E9 ; 1.403797545558484E10 ; 0.0
79 ; 1.833744573008704E7 ; 2.009482585432573E8 ; 1.435228044575755E9 ; 1.423891797100232E10 ; 0.0
80 ; 1.8317174886098165E7 ; 2.0095402365748182E8 ; 1.453565490305842E9 ; 1.4439866229545576E10 ; 0.0
81 ; 1.829167662457985E7 ; 2.0095980975050965E8 ; 1.47188266519194E9 ; 1.4640820253203058E10 ; 0.0
82 ; 1.8269623536120664E7 ; 2.0096561584037068E8 ; 1.49017434181652E9 ; 1.4841780062953568E10 ; 0.0
83 ; 1.8243942478795134E7 ; 2.0097144097190666E8 ; 1.5084439653526406E9 ; 1.5042745678793938E10 ; 0.0
84 ; 1.822297074971608E7 ; 2.009772842159305E8 ; 1.5266879078314357E9 ; 1.5243717119765844E10 ; 0.0
85 ; 1.8201090886474844E7 ; 2.0098314466840476E8 ; 1.5449108785811517E9 ; 1.5444694403981775E10 ; 0.0
86 ; 1.8176123208944887E7 ; 2.0098902144964042E8 ; 1.5631119694676266E9 ; 1.564567754865018E10 ; 0.0
87 ; 1.81502420176633E7 ; 2.0099491370351583E8 ; 1.5812880926765714E9 ; 1.5846666570099821E10 ; 0.0
88 ; 1.812505798927031E7 ; 2.0100082059671628E8 ; 1.5994383346942346E9 ; 1.6047661483803337E10 ; 0.0
89 ; 1.809899152156558E7 ; 2.010067413179945E8 ; 1.6175633926835048E9 ; 1.6248662304400053E10 ; 0.0
90 ; 1.8079798335497867E7 ; 2.0101267507745177E8 ; 1.6356623842050705E9 ; 1.6449669045718048E10 ; 0.0
91 ; 1.8051385378343716E7 ; 2.010186211058398E8 ; 1.6537421825405684E9 ; 1.66506817207955E10 ; 0.0
92 ; 1.8024940580730554E7 ; 2.010245786538835E8 ; 1.6717935679189122E9 ; 1.685170034190134E10 ; 0.0
93 ; 1.7997655641930077E7 ; 2.0103054699162385E8 ; 1.6898185084996426E9 ; 1.7052724920555223E10 ; 0.0
94 ; 1.797884533655104E7 ; 2.0103652540778133E8 ; 1.7078161641415727E9 ; 1.725375546754685E10 ; 0.0
95 ; 1.7948977178621147E7 ; 2.0104251320913905E8 ; 1.7257950094781237E9 ; 1.7454791992954628E10 ; 0.0
96 ; 1.792361671842407E7 ; 2.010485097199456E8 ; 1.7437439866567447E9 ; 1.765583450616377E10 ; 0.0
97 ; 1.789937294632565E7 ; 2.010545142813373E8 ; 1.7616676033751688E9 ; 1.7856883015883713E10 ; 0.0
98 ; 1.787062093020143E7 ; 2.0106052625077894E8 ; 1.7795669763214943E9 ; 1.805793753016505E10 ; 0.0
99 ; 1.784417893423583E7 ; 2.0106654500152352E8 ; 1.7974375972516959E9 ; 1.825899805641583E10 ; 0.0
100 ; 1.7820808288524494E7 ; 2.0107256992208958E8 ; 1.8152817761859317E9 ; 1.846006460141735E10 ; 0.0
101 ; 1.779587905803361E7 ; 2.0107860041575637E8 ; 1.833102584474456E9 ; 1.866113717133944E10 ; 0.0
102 ; 1.7766699640787937E7 ; 2.0108463590007612E8 ; 1.8508984635324898E9 ; 1.8862215771755196E10 ; 0.0
103 ; 1.7731634313725337E7 ; 2.01090675806403E8 ; 1.8686651631732776E9 ; 1.9063300407655273E10 ; 0.0
104 ; 1.771101804894962E7 ; 2.010967195794384E8 ; 1.8863967974870028E9 ; 1.9264391083461678E10 ; 0.0
105 ; 1.7684309726356223E7 ; 2.011027666767916E8 ; 1.9041078155359526E9 ; 1.9465487803041115E10 ; 0.0
106 ; 1.7659672666397627E7 ; 2.0110881656855658E8 ; 1.9217921252623088E9 ; 1.9666590569717907E10 ; 0.0
107 ; 1.763029872805625E7 ; 2.0111486873690262E8 ; 1.9394517979287064E9 ; 1.9867699386286465E10 ; 0.0
108 ; 1.7600376493560314E7 ; 2.0112092267568013E8 ; 1.9570820966567626E9 ; 2.006881425502337E10 ; 0.0
109 ; 1.75734688384226E7 ; 2.0112697789003992E8 ; 1.974682473150323E9 ; 2.0269935177699047E10 ; 0.0
110 ; 1.7544427417462464E7 ; 2.0113303389606628E8 ; 1.9922559419887455E9 ; 2.047106215558909E10 ; 0.0
111 ; 1.7517055980895165E7 ; 2.0113909022042286E8 ; 2.0098003694062078E9 ; 2.0672195189485153E10 ; 0.0
112 ; 1.7488075841819562E7 ; 2.0114514640001124E8 ; 2.027317425387103E9 ; 2.0873334279705578E10 ; 0.0
113 ; 1.7460667598595697E7 ; 2.0115120198164177E8 ; 2.0448055012289226E9 ; 2.107447942610559E10 ; 0.0
114 ; 1.743375471355564E7 ; 2.0115725652171618E8 ; 2.0622661688275182E9 ; 2.1275630628087234E10 ; 0.0
115 ; 1.7404511443709288E7 ; 2.0116330958592132E8 ; 2.0796999235410738E9 ; 2.147678788460895E10 ; 0.0
116 ; 1.737412771963841E7 ; 2.011693607489343E8 ; 2.0971044349847832E9 ; 2.1677951194194874E10 ; 0.0
117 ; 1.7345514549166113E7 ; 2.011754095941378E8 ; 2.1144785627044215E9 ; 2.187912055494381E10 ; 0.0
118 ; 1.7313235445634503E7 ; 2.011814557133459E8 ; 2.1318240772535877E9 ; 2.208029596453795E10 ; 0.0
119 ; 1.729092636684882E7 ; 2.0118749870653963E8 ; 2.149137312699222E9 ; 2.2281477420251293E10 ; 0.0
120 ; 1.7259447873774156E7 ; 2.0119353818161207E8 ; 2.166428239066071E9 ; 2.2482664918957832E10 ; 0.0
121 ; 1.723054133057822E7 ; 2.0119957375412256E8 ; 2.183687686939845E9 ; 2.2683858457139446E10 ; 0.0
122 ; 1.7198126495482553E7 ; 2.0120560504705974E8 ; 2.2009182282704234E9 ; 2.288505803089357E10 ; 0.0
123 ; 1.7169485487408455E7 ; 2.012116316906133E8 ; 2.218116354765906E9 ; 2.3086263635940628E10 ; 0.0
124 ; 1.713767569721736E7 ; 2.0121765332195354E8 ; 2.2352858402533145E9 ; 2.328747526763124E10 ; 0.0
125 ; 1.7108966208139397E7 ; 2.0122366958501923E8 ; 2.252423515950532E9 ; 2.3488692920953194E10 ; 0.0
126 ; 1.7079304839684695E7 ; 2.0122968013031283E8 ; 2.2695324821586714E9 ; 2.368991659053821E10 ; 0.0
127 ; 1.7048932055493608E7 ; 2.0123568461470312E8 ; 2.286611786998356E9 ; 2.3891146270668526E10 ; 0.0
128 ; 1.7016502434386734E7 ; 2.0124168270123485E8 ; 2.3036607190538497E9 ; 2.409238195528323E10 ; 0.0
129 ; 1.6987955430545952E7 ; 2.0124767405894533E8 ; 2.3206772214882364E9 ; 2.4293623637984467E10 ; 0.0
130 ; 1.695461606171592E7 ; 2.0125365836268726E8 ; 2.337665176918782E9 ; 2.449487131204341E10 ; 0.0
131 ; 1.6920313761479765E7 ; 2.012596352929583E8 ; 2.3546197929804983E9 ; 2.4696124970406097E10 ; 0.0
132 ; 1.6876716681066986E7 ; 2.0126560453573617E8 ; 2.371540106741978E9 ; 2.4897384605699055E10 ; 0.0
133 ; 1.684454942416374E7 ; 2.012715657823202E8 ; 2.388416823423045E9 ; 2.509865021023479E10 ; 0.0
134 ; 1.6806194943688706E7 ; 2.0127751872917786E8 ; 2.405261372847209E9 ; 2.5299921776017113E10 ; 0.0
135 ; 1.6761591820214337E7 ; 2.0128346307779735E8 ; 2.422067567790898E9 ; 2.5501199294746292E10 ; 0.0
136 ; 1.6730380197727269E7 ; 2.012893985345448E8 ; 2.438829159611112E9 ; 2.570248275782409E10 ; 0.0
137 ; 1.669550468148236E7 ; 2.01295324810527E8 ; 2.4555595398088393E9 ; 2.5903772156358635E10 ; 0.0
138 ; 1.6659930417119468E7 ; 2.013012416214586E8 ; 2.4722550444903216E9 ; 2.6105067481169163E10 ; 0.0
139 ; 1.6615734644019907E7 ; 2.0130714868753406E8 ; 2.488914974907441E9 ; 2.6306368722790623E10 ; 0.0
140 ; 1.6581337115051977E7 ; 2.0131304573330432E8 ; 2.505530709551461E9 ; 2.6507675871478157E10 ; 0.0
141 ; 1.6542612949442329E7 ; 2.0131893248755738E8 ; 2.522112046666513E9 ; 2.670898891721146E10 ; 0.0
142 ; 1.6502843914175866E7 ; 2.0132480868320325E8 ; 2.5386546596159554E9 ; 2.6910307849699017E10 ; 0.0
143 ; 1.6462526116388477E7 ; 2.01330674057163E8 ; 2.5551575035301313E9 ; 2.711163265838222E10 ; 0.0
144 ; 1.6430290325090602E7 ; 2.0133652835026142E8 ; 2.5716200296465197E9 ; 2.7312963332439384E10 ; 0.0
145 ; 1.6394817060435306E7 ; 2.0134237130712348E8 ; 2.58805031997161E9 ; 2.7514299860789646E10 ; 0.0
146 ; 1.6359635358145025E7 ; 2.0134820267607453E8 ; 2.6044451370320454E9 ; 2.771564223209677E10 ; 0.0
147 ; 1.6332781100036064E7 ; 2.0135402220904368E8 ; 2.6208047723901906E9 ; 2.7916990434772846E10 ; 0.0
148 ; 1.6305930335941518E7 ; 2.0135982966147056E8 ; 2.6371375534902267E9 ; 2.811834445698189E10 ; 0.0
149 ; 1.6268454495017728E7 ; 2.0136562479221544E8 ; 2.653443483826168E9 ; 2.8319704286643364E10 ; 0.0
150 ; 1.623751138374622E7 ; 2.0137140736347222E8 ; 2.6697119383211856E9 ; 2.852106991143558E10 ; 0.0
151 ; 1.6204465600734668E7 ; 2.0137717714068443E8 ; 2.6859494497049317E9 ; 2.8722441318799053E10 ; 0.0
152 ; 1.6176078450526675E7 ; 2.0138293389246413E8 ; 2.7021539153056664E9 ; 2.892381849593974E10 ; 0.0
153 ; 1.6144263915649332E7 ; 2.0138867739051357E8 ; 2.718329993756193E9 ; 2.9125201429832203E10 ; 0.0
154 ; 1.6107273333844723E7 ; 2.0139440740954942E8 ; 2.7344742576718426E9 ; 2.9326590107222717E10 ; 0.0
155 ; 1.6078317501500722E7 ; 2.0140012372722954E8 ; 2.750581531005687E9 ; 2.9527984514632267E10 ; 0.0
156 ; 1.6043184371189458E7 ; 2.014058261240824E8 ; 2.766659848507188E9 ; 2.9729384638359497E10 ; 0.0
157 ; 1.6011595755469512E7 ; 2.014115143834385E8 ; 2.7827030328783774E9 ; 2.9930790464483578E10 ; 0.0
158 ; 1.5979795462800894E7 ; 2.0141718829136458E8 ; 2.7987146286338468E9 ; 3.0132201978867016E10 ; 0.0
159 ; 1.5948533661002632E7 ; 2.0142284763659948E8 ; 2.8146944240966477E9 ; 3.033361916715838E10 ; 0.0
160 ; 1.5916640672569605E7 ; 2.014284922104926E8 ; 2.8306429577576504E9 ; 3.053504201479498E10 ; 0.0
161 ; 1.588439054689054E7 ; 2.0143412180694413E8 ; 2.84655959843022E9 ; 3.073647050700547E10 ; 0.0
162 ; 1.5855284825592292E7 ; 2.0143973622234723E8 ; 2.862443988977111E9 ; 3.0937904628812416E10 ; 0.0
163 ; 1.5815961333478339E7 ; 2.014453352555323E8 ; 2.8782992738027034E9 ; 3.1139344365034763E10 ; 0.0
164 ; 1.5789803024325607E7 ; 2.01450918707713E8 ; 2.894115235136182E9 ; 3.1340789700290295E10 ; 0.0
165 ; 1.5753633187071076E7 ; 2.0145648638243404E8 ; 2.909905038160507E9 ; 3.154224061899801E10 ; 0.0
166 ; 1.5721045306116967E7 ; 2.0146203808552057E8 ; 2.925658671347578E9 ; 3.1743697105380444E10 ; 0.0
167 ; 1.5691831200730346E7 ; 2.0146757362502936E8 ; 2.941379716653695E9 ; 3.1945159143465965E10 ; 0.0
168 ; 1.5656954148840873E7 ; 2.0147309281120154E8 ; 2.9570715478544254E9 ; 3.2146626717090996E10 ; 0.0
169 ; 1.5620888036816724E7 ; 2.0147859545641696E8 ; 2.9727285020032663E9 ; 3.23480998099022E10 ; 0.0
170 ; 1.5590442817873247E7 ; 2.0148408137514964E8 ; 2.988349390040083E9 ; 3.2549578405358616E10 ; 0.0
171 ; 1.55548285591214E7 ; 2.0148955038392523E8 ; 3.0039398328579564E9 ; 3.2751062486733765E10 ; 0.0
172 ; 1.5527049689399099E7 ; 2.014950023012794E8 ; 3.019494661417078E9 ; 3.295255203711769E10 ; 0.0
173 ; 1.5488197200566294E7 ; 2.015004369477177E8 ; 3.0350217111064773E9 ; 3.3154047039418972E10 ; 0.0
174 ; 1.5460626680878786E7 ; 2.0150585414567685E8 ; 3.0505099083070436E9 ; 3.335554747636669E10 ; 0.0
175 ; 1.5436242986738065E7 ; 2.0151125371948695E8 ; 3.065970534987922E9 ; 3.3557053330512367E10 ; 0.0
176 ; 1.5407034577334711E7 ; 2.0151663549533522E8 ; 3.0814067779746604E9 ; 3.3758564584231853E10 ; 0.0
177 ; 1.5381432123732412E7 ; 2.015219993012307E8 ; 3.0968138125519953E9 ; 3.396008121972719E10 ; 0.0
178 ; 1.5350106623166652E7 ; 2.015273449669701E8 ; 3.112195244675728E9 ; 3.416160321902842E10 ; 0.0
179 ; 1.5323551333334574E7 ; 2.0153267232410476E8 ; 3.1275453512988944E9 ; 3.436313056399539E10 ; 0.0
180 ; 1.5295291981021663E7 ; 2.015379812059087E8 ; 3.142868902632229E9 ; 3.4564663236319496E10 ; 0.0
181 ; 1.5267550674221043E7 ; 2.015432714473475E8 ; 3.1581641946132507E9 ; 3.4766201217525406E10 ; 0.0
182 ; 1.523378464381903E7 ; 2.0154854288504836E8 ; 3.173431745287472E9 ; 3.4967744488972755E10 ; 0.0
183 ; 1.520815943777836E7 ; 2.0155379535727096E8 ; 3.1886655299312906E9 ; 3.51692930318578E10 ; 0.0
184 ; 1.5180681768242199E7 ; 2.0155902870387933E8 ; 3.203873689369069E9 ; 3.537084682721507E10 ; 0.0
185 ; 1.5151241749609353E7 ; 2.0156424276631448E8 ; 3.2190543711373115E9 ; 3.557240585591895E10 ; 0.0
186 ; 1.5121738765920646E7 ; 2.01569437387568E8 ; 3.234205612886921E9 ; 3.5773970098685265E10 ; 0.0
187 ; 1.5096109492642557E7 ; 2.015746124121564E8 ; 3.2493273516528416E9 ; 3.597553953607283E10 ; 0.0
188 ; 1.5068434966830414E7 ; 2.0157976768609628E8 ; 3.264423461145484E9 ; 3.6177114148484985E10 ; 0.0
189 ; 1.5038382186244605E7 ; 2.015849030568802E8 ; 3.279491896112314E9 ; 3.637869391617108E10 ; 0.0
190 ; 1.5011020718140762E7 ; 2.0159001837345353E8 ; 3.2945302782985587E9 ; 3.658027881922796E10 ; 0.0
191 ; 1.4982454077385373E7 ; 2.0159511348619154E8 ; 3.3095412990166993E9 ; 3.678186883760141E10 ; 0.0
192 ; 1.4955160212565852E7 ; 2.016001882468778E8 ; 3.3245237530940847E9 ; 3.69834639510876E10 ; 0.0
193 ; 1.4929935208545817E7 ; 2.0160524250868267E8 ; 3.3394789133066506E9 ; 3.718506413933448E10 ; 0.0
194 ; 1.489713168666052E7 ; 2.0161027612614283E8 ; 3.3544088485151963E9 ; 3.738666938184316E10 ; 0.0
195 ; 1.4870295236608103E7 ; 2.0161528895514137E8 ; 3.3693059802018566E9 ; 3.758827965796931E10 ; 0.0
