CSV File for the City 4 on Day 231
1 - Minute m 
2 - Power Consumed at minute m 
3 - Power Produced at minute m 
4 - Energy Consumed since the beginning of the day 
5 - Energy Produced since the beginning of the day 
6 - Energy Lost since the beginning of the day on lines starting from the city
 
0 ; 624517.0912062658 ; 1.0534901915665773E8 ; 0.0 ; 0.0 ; 0.0
1 ; 632926.6831468594 ; 1.0549099900448358E8 ; 624517.0912062658 ; 1.0534901915665773E8 ; 0.0
2 ; 640877.9109698017 ; 1.0594212942169455E8 ; 1257443.7743531251 ; 2.108400181611413E8 ; 0.0
3 ; 649338.1067520034 ; 1.0670252999980062E8 ; 1898321.6853229268 ; 3.1678214758283585E8 ; 0.0
4 ; 658333.2596642638 ; 1.0777235059969985E8 ; 2547659.7920749304 ; 4.234846775826365E8 ; 0.0
5 ; 673164.8039470281 ; 1.091517760293585E8 ; 3205993.0517391944 ; 5.3125702818233633E8 ; 0.0
6 ; 690477.5069421774 ; 1.1084102750101808E8 ; 3879157.8556862227 ; 6.404088042116948E8 ; 0.0
7 ; 714205.8892588853 ; 1.1284035672830242E8 ; 4569635.3626284 ; 7.512498317127129E8 ; 0.0
8 ; 746648.8629320662 ; 1.1515002744244623E8 ; 5283841.251887286 ; 8.640901884410152E8 ; 0.0
9 ; 799346.4636770193 ; 1.177702810757801E8 ; 6030490.1148193525 ; 9.792402158834615E8 ; 0.0
10 ; 876279.263770501 ; 1.2070129095573932E8 ; 6829836.578496372 ; 1.0970104969592416E9 ; 0.0
11 ; 1001461.1789893213 ; 1.2394312058195296E8 ; 7706115.842266873 ; 1.217711787914981E9 ; 0.0
12 ; 1202066.162418364 ; 1.2749570645479193E8 ; 8707577.021256195 ; 1.341654908496934E9 ; 0.0
13 ; 1391423.7668236983 ; 1.3135887524682093E8 ; 9909643.183674559 ; 1.469150614951726E9 ; 0.0
14 ; 1415622.0858805443 ; 1.3553238552570945E8 ; 1.1301066950498257E7 ; 1.600509490198547E9 ; 0.0
15 ; 1427249.932256429 ; 1.400159735602227E8 ; 1.27166890363788E7 ; 1.7360418757242563E9 ; 0.0
16 ; 1435869.772026847 ; 1.448093876367369E8 ; 1.414393896863523E7 ; 1.876057849284479E9 ; 0.0
17 ; 1443337.4334841357 ; 1.499124065430105E8 ; 1.5579808740662076E7 ; 2.0208672369212158E9 ; 0.0
18 ; 1453921.7225787954 ; 1.5532484547107726E8 ; 1.7023146174146213E7 ; 2.1707796434642262E9 ; 0.0
19 ; 1462970.5801780166 ; 1.6104655456003913E8 ; 1.8477067896725006E7 ; 2.3261044889353037E9 ; 0.0
20 ; 1473964.9700450283 ; 1.6707741421838608E8 ; 1.994003847690302E7 ; 2.4871510434953427E9 ; 0.0
21 ; 1485317.6901483915 ; 1.7341732967104647E8 ; 2.141400344694805E7 ; 2.654228457713729E9 ; 0.0
22 ; 1494695.8610865944 ; 1.8006622589011705E8 ; 2.2899321137096442E7 ; 2.827645787384775E9 ; 0.0
23 ; 1503029.5210615525 ; 1.870240433215688E8 ; 2.4394016998183038E7 ; 3.0077120132748923E9 ; 0.0
24 ; 1513680.5675720945 ; 1.9429073445745963E8 ; 2.589704651924459E7 ; 3.1947360565964613E9 ; 0.0
25 ; 1526237.5087761804 ; 2.005543020553985E8 ; 2.7410727086816683E7 ; 3.3890267910539207E9 ; 0.0
26 ; 1533160.3982074775 ; 2.0056826310923934E8 ; 2.8936964595592864E7 ; 3.589581093109319E9 ; 0.0
27 ; 1545222.2294376928 ; 2.0058236178869402E8 ; 3.0470124993800342E7 ; 3.7901493562185583E9 ; 0.0
28 ; 1552700.7640539154 ; 2.0059657747048318E8 ; 3.2015347223238036E7 ; 3.990731718007252E9 ; 0.0
29 ; 1564998.6411225419 ; 2.0061089309719306E8 ; 3.3568047987291954E7 ; 4.1913282954777355E9 ; 0.0
30 ; 1573829.390841771 ; 2.0062529445600593E8 ; 3.51330466284145E7 ; 4.391939188574928E9 ; 0.0
31 ; 1583134.3102010794 ; 2.0063976961894313E8 ; 3.6706876019256264E7 ; 4.592564483030934E9 ; 0.0
32 ; 1589643.190930974 ; 2.0065430850582716E8 ; 3.829001032945734E7 ; 4.793204252649878E9 ; 0.0
33 ; 1602242.890697387 ; 2.0066890254087523E8 ; 3.987965352038832E7 ; 4.9938585611557045E9 ; 0.0
34 ; 1608180.8937001433 ; 2.0068354438110054E8 ; 4.148189641108571E7 ; 5.19452746369658E9 ; 0.0
35 ; 1620052.6225671775 ; 2.0069822770010036E8 ; 4.3090077304785855E7 ; 5.395211008077681E9 ; 0.0
36 ; 1625457.3568545482 ; 2.0071294701482582E8 ; 4.471012992735303E7 ; 5.595909235777781E9 ; 0.0
37 ; 1631600.0900839837 ; 2.0072769754591346E8 ; 4.633558728420758E7 ; 5.796622182792606E9 ; 0.0
38 ; 1643056.2314004004 ; 2.0074247510438812E8 ; 4.796718737429157E7 ; 5.99734988033852E9 ; 0.0
39 ; 1648165.95335279 ; 2.0075727599921438E8 ; 4.961024360569197E7 ; 6.198092355442908E9 ; 0.0
40 ; 1660847.6120373562 ; 2.0077209696143135E8 ; 5.1258409559044756E7 ; 6.398849631442122E9 ; 0.0
41 ; 1664169.3759047023 ; 2.0078693508155617E8 ; 5.291925717108211E7 ; 6.599621728403554E9 ; 0.0
42 ; 1671433.2447944714 ; 2.0080178775766495E8 ; 5.458342654698681E7 ; 6.80040866348511E9 ; 0.0
43 ; 1679178.4425119646 ; 2.0081665265211385E8 ; 5.6254859791781284E7 ; 7.001210451242775E9 ; 0.0
44 ; 1684196.075579231 ; 2.0083152765528953E8 ; 5.793403823429325E7 ; 7.202027103894889E9 ; 0.0
45 ; 1690612.5334467196 ; 2.0084641085510725E8 ; 5.9618234309872486E7 ; 7.402858631550179E9 ; 0.0
46 ; 1696359.1848711052 ; 2.0086130051123342E8 ; 6.130884684331921E7 ; 7.603705042405286E9 ; 0.0
47 ; 1701677.414218483 ; 2.008761950332081E8 ; 6.3005206028190315E7 ; 7.804566342916519E9 ; 0.0
48 ; 1705230.7416328723 ; 2.0089109296180388E8 ; 6.47068834424088E7 ; 8.005442537949727E9 ; 0.0
49 ; 1714571.2594155788 ; 2.009059929530804E8 ; 6.641211418404167E7 ; 8.2063336309115305E9 ; 0.0
50 ; 1711465.3165578898 ; 2.0092089376469475E8 ; 6.812668544345725E7 ; 8.407239623864611E9 ; 0.0
51 ; 1718358.0965595387 ; 2.009357942441074E8 ; 6.983815076001513E7 ; 8.608160517629305E9 ; 0.0
52 ; 1725439.9253037304 ; 2.0095069331838614E8 ; 7.155650885657467E7 ; 8.809096311873413E9 ; 0.0
53 ; 1728795.244514596 ; 2.009655899853635E8 ; 7.32819487818784E7 ; 9.0100470051918E9 ; 0.0
54 ; 1729692.5964349082 ; 2.009804833059442E8 ; 7.5010744026393E7 ; 9.211012595177162E9 ; 0.0
55 ; 1735584.4292283286 ; 2.0099537239739233E8 ; 7.67404366228279E7 ; 9.411993078483107E9 ; 0.0
56 ; 1739784.000301572 ; 2.010102564274577E8 ; 7.847602105205624E7 ; 9.612988450880499E9 ; 0.0
57 ; 1740492.9839331727 ; 2.010251346092216E8 ; 8.021580505235781E7 ; 9.813998707307957E9 ; 0.0
58 ; 1743718.6320561587 ; 2.0104000619656214E8 ; 8.195629803629097E7 ; 1.001502384191718E10 ; 0.0
59 ; 1753315.4299697338 ; 2.0105487048015454E8 ; 8.370001666834714E7 ; 1.021606384811374E10 ; 0.0
60 ; 1756496.498617269 ; 2.0106972678393477E8 ; 8.545333209831686E7 ; 1.0417118718593895E10 ; 0.0
61 ; 1756425.7969438883 ; 2.0108457446196496E8 ; 8.720982859693414E7 ; 1.061818844537783E10 ; 0.0
62 ; 1764620.8818169187 ; 2.010994128956496E8 ; 8.896625439387803E7 ; 1.0819273019839796E10 ; 0.0
63 ; 1762250.2575425324 ; 2.0111424149125677E8 ; 9.073087527569495E7 ; 1.1020372432735445E10 ; 0.0
64 ; 1769123.1612678277 ; 2.0112905967770714E8 ; 9.249312553323749E7 ; 1.1221486674226702E10 ; 0.0
65 ; 1771302.3659519448 ; 2.0114386690459746E8 ; 9.426224869450532E7 ; 1.142261573390441E10 ; 0.0
66 ; 1772641.3937238562 ; 2.0115866264043042E8 ; 9.603355106045726E7 ; 1.1623759600809008E10 ; 0.0
67 ; 1778265.970505866 ; 2.0117344637102598E8 ; 9.780619245418112E7 ; 1.1824918263449438E10 ; 0.0
68 ; 1781564.7031585556 ; 2.0118821759809333E8 ; 9.958445842468698E7 ; 1.2026091709820463E10 ; 0.0
69 ; 1784345.12337055 ; 2.0120297583794492E8 ; 1.0136602312784554E8 ; 1.2227279927418556E10 ; 0.0
70 ; 1788664.3151651968 ; 2.0121772062033617E8 ; 1.0315036825121608E8 ; 1.24284829032565E10 ; 0.0
71 ; 1790945.0631768692 ; 2.0123245148741737E8 ; 1.0493903256638128E8 ; 1.2629700623876837E10 ; 0.0
72 ; 1792773.5559024895 ; 2.0124716799278474E8 ; 1.0672997762955815E8 ; 1.2830933075364254E10 ; 0.0
73 ; 1795785.1359559707 ; 2.0126186970062077E8 ; 1.0852275118546064E8 ; 1.3032180243357038E10 ; 0.0
74 ; 1798837.1073688304 ; 2.0127655618491352E8 ; 1.1031853632141662E8 ; 1.323344211305766E10 ; 0.0
75 ; 1802184.368233749 ; 2.0129122702874705E8 ; 1.1211737342878544E8 ; 1.3434718669242573E10 ; 0.0
76 ; 1804288.5480107898 ; 2.013058818236556E8 ; 1.139195577970192E8 ; 1.363600989627132E10 ; 0.0
77 ; 1803044.856842765 ; 2.0132052016903478E8 ; 1.1572384634503E8 ; 1.3837315778094976E10 ; 0.0
78 ; 1809907.5002213991 ; 2.0133514167160413E8 ; 1.1752689120187277E8 ; 1.4038636298264011E10 ; 0.0
79 ; 1806979.2114555642 ; 2.013497459449162E8 ; 1.1933679870209417E8 ; 1.4239971439935616E10 ; 0.0
80 ; 1809001.82010528 ; 2.0136433260890707E8 ; 1.2114377791354974E8 ; 1.4441321185880531E10 ; 0.0
81 ; 1807792.5207542407 ; 2.0137890128948504E8 ; 1.2295277973365502E8 ; 1.4642685518489439E10 ; 0.0
82 ; 1807939.9975111254 ; 2.013934516181529E8 ; 1.2476057225440927E8 ; 1.4844064419778925E10 ; 0.0
83 ; 1807745.7329835487 ; 2.0140798323166165E8 ; 1.2656851225192039E8 ; 1.5045457871397078E10 ; 0.0
84 ; 1806568.5547081258 ; 2.014224957716919E8 ; 1.2837625798490393E8 ; 1.5246865854628738E10 ; 0.0
85 ; 1809096.4869592492 ; 2.0143698888456094E8 ; 1.3018282653961205E8 ; 1.544828835040043E10 ; 0.0
86 ; 1807328.529911184 ; 2.0145146222095302E8 ; 1.319919230265713E8 ; 1.5649725339284992E10 ; 0.0
87 ; 1812048.320914988 ; 2.014659154356705E8 ; 1.337992515564825E8 ; 1.5851176801505945E10 ; 0.0
88 ; 1809611.3803605186 ; 2.014803481874045E8 ; 1.3561129987739748E8 ; 1.6052642716941616E10 ; 0.0
89 ; 1807845.3678761811 ; 2.0149476013852304E8 ; 1.37420911257758E8 ; 1.625412306512902E10 ; 0.0
90 ; 1810243.6304342796 ; 2.0150915095487505E8 ; 1.3922875662563416E8 ; 1.6455617825267544E10 ; 0.0
91 ; 1807148.1358141548 ; 2.0152352030560946E8 ; 1.4103900025606844E8 ; 1.665712697622242E10 ; 0.0
92 ; 1806577.5918601982 ; 2.0153786786300725E8 ; 1.428461483918826E8 ; 1.6858650496528028E10 ; 0.0
93 ; 1807320.310619576 ; 2.0155219330232623E8 ; 1.446527259837428E8 ; 1.7060188364391035E10 ; 0.0
94 ; 1804315.289745578 ; 2.01566496301657E8 ; 1.4646004629436237E8 ; 1.7261740557693363E10 ; 0.0
95 ; 1807826.7340802047 ; 2.0158077654178914E8 ; 1.4826436158410794E8 ; 1.746330705399502E10 ; 0.0
96 ; 1806348.6098999323 ; 2.0159503370608735E8 ; 1.5007218831818813E8 ; 1.766488783053681E10 ; 0.0
97 ; 1803274.331848066 ; 2.0160926748037598E8 ; 1.5187853692808807E8 ; 1.78664828642429E10 ; 0.0
98 ; 1802856.4299715213 ; 2.016234775528319E8 ; 1.5368181125993612E8 ; 1.8068092131723278E10 ; 0.0
99 ; 1805012.8307017991 ; 2.0163766361388484E8 ; 1.5548466768990764E8 ; 1.826971560927611E10 ; 0.0
100 ; 1804217.3833597384 ; 2.0165182535612464E8 ; 1.5728968052060944E8 ; 1.8471353272889996E10 ; 0.0
101 ; 1804135.1353636556 ; 2.0166596247421476E8 ; 1.5909389790396917E8 ; 1.867300509824612E10 ; 0.0
102 ; 1801945.716843129 ; 2.0168007466481176E8 ; 1.6089803303933284E8 ; 1.8874671060720337E10 ; 0.0
103 ; 1801087.272101718 ; 2.0169416162649035E8 ; 1.6269997875617597E8 ; 1.9076351135385147E10 ; 0.0
104 ; 1802714.7206236809 ; 2.017082230596733E8 ; 1.645010660282777E8 ; 1.927804529701164E10 ; 0.0
105 ; 1799698.3752322004 ; 2.0172225866656628E8 ; 1.6630378074890137E8 ; 1.9479753520071312E10 ; 0.0
106 ; 1798363.210665992 ; 2.017362681510967E8 ; 1.6810347912413356E8 ; 1.9681475778737877E10 ; 0.0
107 ; 1797118.3224269166 ; 2.01750251218857E8 ; 1.6990184233479956E8 ; 1.9883212046888973E10 ; 0.0
108 ; 1795540.815596762 ; 2.017642075770513E8 ; 1.7169896065722647E8 ; 2.008496229810783E10 ; 0.0
109 ; 1795126.8583373816 ; 2.0177813693444595E8 ; 1.7349450147282323E8 ; 2.0286726505684883E10 ; 0.0
110 ; 1796789.138867977 ; 2.0179203900132287E8 ; 1.752896283311606E8 ; 2.0488504642619328E10 ; 0.0
111 ; 1794958.3966074784 ; 2.0180591348943633E8 ; 1.7708641747002858E8 ; 2.069029668162065E10 ; 0.0
112 ; 1790583.5168315338 ; 2.018197601119723E8 ; 1.7888137586663607E8 ; 2.089210259511009E10 ; 0.0
113 ; 1792140.7084025904 ; 2.018335785835104E8 ; 1.806719593834676E8 ; 2.109392235522206E10 ; 0.0
114 ; 1789183.8535744955 ; 2.0184736861998856E8 ; 1.8246410009187022E8 ; 2.1295755933805573E10 ; 0.0
115 ; 1790152.4049441998 ; 2.0186112993866965E8 ; 1.842532839454447E8 ; 2.149760330242556E10 ; 0.0
116 ; 1785079.1685775393 ; 2.018748622581105E8 ; 1.860434363503889E8 ; 2.169946443236423E10 ; 0.0
117 ; 1784466.0494614185 ; 2.0188856529813272E8 ; 1.8782851551896647E8 ; 2.190133929462234E10 ; 0.0
118 ; 1779436.8179586045 ; 2.0190223877979553E8 ; 1.896129815684279E8 ; 2.2103227859920475E10 ; 0.0
119 ; 1781486.905984983 ; 2.019158824253703E8 ; 1.9139241838638648E8 ; 2.230513009870027E10 ; 0.0
120 ; 1779404.1346043048 ; 2.0192949595831674E8 ; 1.9317390529237148E8 ; 2.250704598112564E10 ; 0.0
121 ; 1778706.2946506722 ; 2.0194307910326052E8 ; 1.949533094269758E8 ; 2.2708975477083958E10 ; 0.0
122 ; 1773794.249568667 ; 2.0195663158597246E8 ; 1.9673201572162646E8 ; 2.2910918556187218E10 ; 0.0
123 ; 1772668.2951966384 ; 2.0197015313334903E8 ; 1.9850580997119513E8 ; 2.311287518777319E10 ; 0.0
124 ; 1774556.395487116 ; 2.019836434733941E8 ; 2.0027847826639178E8 ; 2.331484534090654E10 ; 0.0
125 ; 1771873.6588850587 ; 2.019971023352019E8 ; 2.020530346618789E8 ; 2.3516828984379932E10 ; 0.0
126 ; 1767996.824760013 ; 2.0201052944894102E8 ; 2.0382490832076398E8 ; 2.3718826086715134E10 ; 0.0
127 ; 1767921.2881179948 ; 2.020239245458396E8 ; 2.05592905145524E8 ; 2.3920836616164074E10 ; 0.0
128 ; 1765803.8933019752 ; 2.0203728735817143E8 ; 2.07360826433642E8 ; 2.4122860540709915E10 ; 0.0
129 ; 1760236.043954898 ; 2.0205061761924288E8 ; 2.0912663032694396E8 ; 2.4324897828068085E10 ; 0.0
130 ; 1760305.492774476 ; 2.0206391506338093E8 ; 2.1088686637089887E8 ; 2.452694844568733E10 ; 0.0
131 ; 1753049.55942359 ; 2.0207717942592186E8 ; 2.1264717186367336E8 ; 2.472901236075071E10 ; 0.0
132 ; 1750261.8622680285 ; 2.0209041044320065E8 ; 2.1440022142309695E8 ; 2.4931089540176632E10 ; 0.0
133 ; 1744299.97848934 ; 2.0210360785254142E8 ; 2.16150483285365E8 ; 2.513317995061983E10 ; 0.0
134 ; 1740964.0816778198 ; 2.0211677139224815E8 ; 2.1789478326385432E8 ; 2.5335283558472374E10 ; 0.0
135 ; 1735005.2872251442 ; 2.021299008015964E8 ; 2.1963574734553215E8 ; 2.5537400329864624E10 ; 0.0
136 ; 1729336.5255141696 ; 2.021429958208254E8 ; 2.213707526327573E8 ; 2.573953023066622E10 ; 0.0
137 ; 1725582.6790834577 ; 2.021560561911309E8 ; 2.2310008915827146E8 ; 2.5941673226487045E10 ; 0.0
138 ; 1720255.019413903 ; 2.0216908165465838E8 ; 2.2482567183735493E8 ; 2.6143829282678177E10 ; 0.0
139 ; 1717375.2423607819 ; 2.02182071954497E8 ; 2.2654592685676882E8 ; 2.6345998364332836E10 ; 0.0
140 ; 1711406.6714770044 ; 2.0219502683467385E8 ; 2.282633020991296E8 ; 2.6548180436287334E10 ; 0.0
141 ; 1704688.6935790617 ; 2.0220794604014874E8 ; 2.2997470877060658E8 ; 2.675037546312201E10 ; 0.0
142 ; 1701476.129645595 ; 2.0222082931680942E8 ; 2.3167939746418563E8 ; 2.695258340916216E10 ; 0.0
143 ; 1697558.9479558517 ; 2.022336764114672E8 ; 2.333808735938312E8 ; 2.715480423847897E10 ; 0.0
144 ; 1690836.7689648606 ; 2.0224648707185298E8 ; 2.3507843254178706E8 ; 2.7357037914890438E10 ; 0.0
145 ; 1685556.553749849 ; 2.022592610466137E8 ; 2.3676926931075191E8 ; 2.755928440196229E10 ; 0.0
146 ; 1683844.9991741106 ; 2.0227199808530894E8 ; 2.3845482586450177E8 ; 2.7761543663008904E10 ; 0.0
147 ; 1683254.2546106447 ; 2.022846979384081E8 ; 2.401386708636759E8 ; 2.796381566109421E10 ; 0.0
148 ; 1679117.1012077434 ; 2.022973603572878E8 ; 2.4182192511828655E8 ; 2.816610035903262E10 ; 0.0
149 ; 1679625.7572273156 ; 2.0230998509422946E8 ; 2.4350104221949428E8 ; 2.8368397719389908E10 ; 0.0
150 ; 1676799.273932021 ; 2.023225719024174E8 ; 2.4518066797672158E8 ; 2.857070770448414E10 ; 0.0
151 ; 1674029.4485732352 ; 2.0233512053593692E8 ; 2.468574672506536E8 ; 2.8773030276386555E10 ; 0.0
152 ; 1674203.0032003135 ; 2.0234763074977294E8 ; 2.4853149669922683E8 ; 2.8975365396922493E10 ; 0.0
153 ; 1669341.1160030446 ; 2.023601022998086E8 ; 2.5020569970242715E8 ; 2.9177713027672264E10 ; 0.0
154 ; 1666318.3257234518 ; 2.0237253494282427E8 ; 2.518750408184302E8 ; 2.9380073129972073E10 ; 0.0
155 ; 1665167.6694042836 ; 2.023849284364968E8 ; 2.5354135914415362E8 ; 2.9582445664914898E10 ; 0.0
156 ; 1663559.7624732843 ; 2.0239728253939867E8 ; 2.5520652681355792E8 ; 2.9784830593351395E10 ; 0.0
157 ; 1657473.289891724 ; 2.024095970109978E8 ; 2.568700865760312E8 ; 2.9987227875890793E10 ; 0.0
158 ; 1654630.5608044907 ; 2.0242187161165717E8 ; 2.5852755986592293E8 ; 3.018963747290179E10 ; 0.0
159 ; 1652244.0685876838 ; 2.0243410610263485E8 ; 2.601821904267274E8 ; 3.0392059344513447E10 ; 0.0
160 ; 1650148.8248455238 ; 2.0244630024608392E8 ; 2.618344344953151E8 ; 3.059449345061608E10 ; 0.0
161 ; 1651368.38321513 ; 2.024584538050529E8 ; 2.6348458332016063E8 ; 3.0796939750862164E10 ; 0.0
162 ; 1645733.9277869933 ; 2.024705665434861E8 ; 2.6513595170337576E8 ; 3.0999398204667217E10 ; 0.0
163 ; 1647910.8851837781 ; 2.0248263822622415E8 ; 2.6678168563116276E8 ; 3.1201868771210705E10 ; 0.0
164 ; 1640982.5448749948 ; 2.0249466861900467E8 ; 2.6842959651634654E8 ; 3.1404351409436928E10 ; 0.0
165 ; 1640648.5678581947 ; 2.025066574884631E8 ; 2.7007057906122154E8 ; 3.160684607805593E10 ; 0.0
166 ; 1638575.5231950108 ; 2.0251860460213366E8 ; 2.7171122762907976E8 ; 3.1809352735544395E10 ; 0.0
167 ; 1635605.9812318187 ; 2.0253050972845033E8 ; 2.733498031522748E8 ; 3.201187134014653E10 ; 0.0
168 ; 1631626.8814121042 ; 2.0254237263674808E8 ; 2.749854091335066E8 ; 3.221440184987498E10 ; 0.0
169 ; 1628572.7921892519 ; 2.0255419309726408E8 ; 2.766170360149187E8 ; 3.241694422251173E10 ; 0.0
170 ; 1624612.3014424455 ; 2.0256597088113907E8 ; 2.782456088071079E8 ; 3.2619498415608994E10 ; 0.0
171 ; 1625486.5824151053 ; 2.0257770576041883E8 ; 2.7987022110855037E8 ; 3.282206438649013E10 ; 0.0
172 ; 1622160.8021879934 ; 2.0258939750805575E8 ; 2.814957076909655E8 ; 3.302464209225055E10 ; 0.0
173 ; 1616500.8688910631 ; 2.0260104589791036E8 ; 2.8311786849315345E8 ; 3.3227231489758606E10 ; 0.0
174 ; 1619626.4429002726 ; 2.0261265070475316E8 ; 2.847343693620445E8 ; 3.3429832535656517E10 ; 0.0
175 ; 1616717.055898994 ; 2.0262421170426634E8 ; 2.863539958049448E8 ; 3.363244518636127E10 ; 0.0
176 ; 1611741.0402090321 ; 2.026357286730456E8 ; 2.879707128608438E8 ; 3.3835069398065536E10 ; 0.0
177 ; 1610755.311825482 ; 2.0264720138860223E8 ; 2.8958245390105283E8 ; 3.4037705126738583E10 ; 0.0
178 ; 1608868.7994882052 ; 2.0265862962936485E8 ; 2.911932092128783E8 ; 3.4240352328127186E10 ; 0.0
179 ; 1607547.5029053462 ; 2.0267001317468172E8 ; 2.928020780123665E8 ; 3.444301095775655E10 ; 0.0
180 ; 1606865.1352056882 ; 2.0268135180482268E8 ; 2.9440962551527184E8 ; 3.464568097093124E10 ; 0.0
181 ; 1608313.6070543989 ; 2.026926453009814E8 ; 2.960164906504775E8 ; 3.484836232273606E10 ; 0.0
182 ; 1602675.2717452901 ; 2.027038934452775E8 ; 2.9762480425753194E8 ; 3.505105496803704E10 ; 0.0
183 ; 1600141.6424787394 ; 2.02715096020759E8 ; 2.992274795292772E8 ; 3.5253758861482315E10 ; 0.0
184 ; 1599294.815728347 ; 2.027262528114044E8 ; 3.0082762117175597E8 ; 3.5456473957503075E10 ; 0.0
185 ; 1596817.5366273262 ; 2.0273736360212523E8 ; 3.0242691598748434E8 ; 3.5659200210314476E10 ; 0.0
186 ; 1597446.2280030937 ; 2.0274842817876834E8 ; 3.040237335241117E8 ; 3.58619375739166E10 ; 0.0
187 ; 1594834.4619554202 ; 2.0275944632811835E8 ; 3.056211797521148E8 ; 3.6064686002095375E10 ; 0.0
188 ; 1591168.9383557471 ; 2.027704178379002E8 ; 3.072160142140702E8 ; 3.626744544842349E10 ; 0.0
189 ; 1590771.8487400191 ; 2.0278134249678156E8 ; 3.0880718315242594E8 ; 3.647021586626139E10 ; 0.0
190 ; 1587190.739043183 ; 2.0279222009437543E8 ; 3.10397955001166E8 ; 3.667299720875817E10 ; 0.0
191 ; 1585284.3413083092 ; 2.0280305042124268E8 ; 3.1198514574020916E8 ; 3.687578942885255E10 ; 0.0
192 ; 1585502.5755097573 ; 2.028138332688947E8 ; 3.1357043008151746E8 ; 3.707859247927379E10 ; 0.0
193 ; 1585767.9326697108 ; 2.0282456842979595E8 ; 3.1515593265702724E8 ; 3.728140631254269E10 ; 0.0
194 ; 1580574.6870504308 ; 2.0283525569736674E8 ; 3.1674170058969694E8 ; 3.748423088097248E10 ; 0.0
195 ; 1580509.4185399162 ; 2.0284589486598572E8 ; 3.1832227527674735E8 ; 3.7687066136669846E10 ; 0.0
196 ; 1577617.5351537263 ; 2.0285648573099273E8 ; 3.199027846952873E8 ; 3.788991203153583E10 ; 0.0
197 ; 1577576.6883991254 ; 2.0286702808869153E8 ; 3.2148040223044103E8 ; 3.809276851726682E10 ; 0.0
198 ; 1577579.86214519 ; 2.028775217363524E8 ; 3.2305797891884017E8 ; 3.8295635545355515E10 ; 0.0
199 ; 1573846.2507069835 ; 2.02887966472215E8 ; 3.2463555878098536E8 ; 3.8498513067091866E10 ; 0.0
