CSV File for the City 2 on Day 248
1 - Minute m 
2 - Power Consumed at minute m 
3 - Power Produced at minute m 
4 - Energy Consumed since the beginning of the day 
5 - Energy Produced since the beginning of the day 
6 - Energy Lost since the beginning of the day on lines starting from the city
 
0 ; 368146.62777632056 ; 1.0520996393094698E8 ; 0.0 ; 0.0 ; 0.0
1 ; 370996.6219681388 ; 1.0536383393197644E8 ; 368146.62777632056 ; 1.0520996393094698E8 ; 0.0
2 ; 372791.49774748133 ; 1.0582638967782035E8 ; 739143.2497444593 ; 2.105737978629234E8 ; 0.0
3 ; 375188.90724928543 ; 1.0659763232791758E8 ; 1111934.7474919406 ; 3.1640018754074377E8 ; 0.0
4 ; 376845.3029177208 ; 1.0767756294725019E8 ; 1487123.654741226 ; 4.2299781986866134E8 ; 0.0
5 ; 381001.0559849024 ; 1.0906618249235606E8 ; 1863968.9576589467 ; 5.3067538281591153E8 ; 0.0
6 ; 385916.15634099214 ; 1.1076349179811677E8 ; 2244970.013643849 ; 6.397415653082676E8 ; 0.0
7 ; 392839.3388254907 ; 1.1276949156571865E8 ; 2630886.1699848413 ; 7.505050571063844E8 ; 0.0
8 ; 400091.9056890328 ; 1.1508418235217237E8 ; 3023725.508810332 ; 8.63274548672103E8 ; 0.0
9 ; 414527.45544549316 ; 1.1770756456174493E8 ; 3423817.414499365 ; 9.783587310242754E8 ; 0.0
10 ; 436066.6451667268 ; 1.2063963843960577E8 ; 3838344.869944858 ; 1.0960662955860205E9 ; 0.0
11 ; 469673.2382030228 ; 1.238804040679178E8 ; 4274411.515111584 ; 1.2167059340256262E9 ; 0.0
12 ; 524299.7248235397 ; 1.2742986136451808E8 ; 4744084.753314607 ; 1.340586338093544E9 ; 0.0
13 ; 575743.9174951502 ; 1.3128801008423716E8 ; 5268384.478138147 ; 1.4680161994580622E9 ; 0.0
14 ; 582474.7180651956 ; 1.3545484982280815E8 ; 5844128.395633297 ; 1.5993042095422993E9 ; 0.0
15 ; 584814.5086319613 ; 1.3993038002322024E8 ; 6426603.113698493 ; 1.7347590593651075E9 ; 0.0
16 ; 586277.8450424916 ; 1.4471459998428723E8 ; 7011417.622330454 ; 1.8746894393883278E9 ; 0.0
17 ; 589079.5779649605 ; 1.4980750887112746E8 ; 7597695.4673729455 ; 2.019404039372615E9 ; 0.0
18 ; 592382.0642335153 ; 1.5520910572720307E8 ; 8186775.045337906 ; 2.1692115482437425E9 ; 0.0
19 ; 594720.5053972099 ; 1.60919389487532E8 ; 8779157.109571422 ; 2.3244206539709454E9 ; 0.0
20 ; 596199.0772914669 ; 1.6693835899267533E8 ; 9373877.614968631 ; 2.4853400434584775E9 ; 0.0
21 ; 600622.1541964235 ; 1.73266013003114E8 ; 9970076.692260098 ; 2.652278402451153E9 ; 0.0
22 ; 602543.8513665745 ; 1.7990235021364993E8 ; 1.057069884645652E7 ; 2.825544415454267E9 ; 0.0
23 ; 604128.7931993468 ; 1.868473692675104E8 ; 1.1173242697823094E7 ; 3.005446765667917E9 ; 0.0
24 ; 607566.4871569173 ; 1.941010687698773E8 ; 1.1777371491022442E7 ; 3.192294134935427E9 ; 0.0
25 ; 609985.8914907522 ; 2.0035148819880313E8 ; 1.2384937978179358E7 ; 3.3863952037053046E9 ; 0.0
26 ; 612195.9777036089 ; 2.003521739538728E8 ; 1.299492386967011E7 ; 3.5867466919041076E9 ; 0.0
27 ; 615180.4420390257 ; 2.0035289389179012E8 ; 1.3607119847373718E7 ; 3.7870988658579803E9 ; 0.0
28 ; 617236.7252513439 ; 2.003536465826822E8 ; 1.4222300289412744E7 ; 3.98745175974977E9 ; 0.0
29 ; 620721.0703217952 ; 2.003544306117007E8 ; 1.4839537014664087E7 ; 4.1878054063324523E9 ; 0.0
30 ; 621343.1756749767 ; 2.003552445862113E8 ; 1.5460258084985882E7 ; 4.388159836944153E9 ; 0.0
31 ; 624967.7966851853 ; 2.0035608714185658E8 ; 1.6081601260660859E7 ; 4.588515081530364E9 ; 0.0
32 ; 628016.1604147941 ; 2.003569569475533E8 ; 1.6706569057346044E7 ; 4.78887116867222E9 ; 0.0
33 ; 629076.2628632833 ; 2.0035785270950067E8 ; 1.733458521776084E7 ; 4.989228125619774E9 ; 0.0
34 ; 631097.6187962235 ; 2.003587731742868E8 ; 1.796366148062412E7 ; 5.189585978329274E9 ; 0.0
35 ; 632540.9834329237 ; 2.003597171311854E8 ; 1.8594759099420343E7 ; 5.389944751503561E9 ; 0.0
36 ; 635999.167037835 ; 2.0036068341373533E8 ; 1.9227300082853265E7 ; 5.590304468634747E9 ; 0.0
37 ; 637265.9822232391 ; 2.0036167090069565E8 ; 1.98632992498911E7 ; 5.790665152048482E9 ; 0.0
38 ; 637629.0905831044 ; 2.0036267851646274E8 ; 2.0500565232114337E7 ; 5.991026822949178E9 ; 0.0
39 ; 640468.0020059814 ; 2.0036370523103198E8 ; 2.1138194322697442E7 ; 6.19138950146564E9 ; 0.0
40 ; 642531.1298502756 ; 2.00364750059579E8 ; 2.1778662324703425E7 ; 6.391753206696672E9 ; 0.0
41 ; 645500.0683821337 ; 2.0036581206172895E8 ; 2.24211934545537E7 ; 6.592117956756251E9 ; 0.0
42 ; 646047.0061225045 ; 2.003668903405743E8 ; 2.3066693522935834E7 ; 6.79248376881798E9 ; 0.0
43 ; 647877.0329877959 ; 2.0036798404149505E8 ; 2.3712740529058337E7 ; 6.992850659158554E9 ; 0.0
44 ; 648758.863008892 ; 2.0036909235082808E8 ; 2.4360617562046133E7 ; 7.193218643200049E9 ; 0.0
45 ; 648922.0445847076 ; 2.003702144944258E8 ; 2.5009376425055023E7 ; 7.393587735550878E9 ; 0.0
46 ; 651983.2823940204 ; 2.0037134973613834E8 ; 2.565829846963973E7 ; 7.593957950045303E9 ; 0.0
47 ; 652448.6929174619 ; 2.0037249737624848E8 ; 2.631028175203375E7 ; 7.794329299781442E9 ; 0.0
48 ; 655011.6320629016 ; 2.003736567498831E8 ; 2.6962730444951214E7 ; 7.99470179715769E9 ; 0.0
49 ; 655690.5649153205 ; 2.0037482722542113E8 ; 2.7617742077014115E7 ; 8.195075453907573E9 ; 0.0
50 ; 656117.3310701931 ; 2.003760082029143E8 ; 2.8273432641929436E7 ; 8.395450281132994E9 ; 0.0
51 ; 657828.1997139883 ; 2.0037719911253324E8 ; 2.892954997299963E7 ; 8.595826289335909E9 ; 0.0
52 ; 657823.1268410071 ; 2.003783994130492E8 ; 2.958737817271362E7 ; 8.796203488448442E9 ; 0.0
53 ; 659524.6612908554 ; 2.0037960859035936E8 ; 3.0245201299554627E7 ; 8.996581887861492E9 ; 0.0
54 ; 659939.190890811 ; 2.003808261560611E8 ; 3.090472596084548E7 ; 9.19696149645185E9 ; 0.0
55 ; 660658.4416850536 ; 2.0038205164607987E8 ; 3.1564665151736293E7 ; 9.397342322607912E9 ; 0.0
56 ; 662913.5251147607 ; 2.0038328461935252E8 ; 3.2225323593421347E7 ; 9.597724374253992E9 ; 0.0
57 ; 663129.5891544138 ; 2.003845246565689E8 ; 3.2888237118536107E7 ; 9.798107658873344E9 ; 0.0
58 ; 663078.9922828497 ; 2.0038577135897124E8 ; 3.3551366707690522E7 ; 9.998492183529913E9 ; 0.0
59 ; 664318.1940052179 ; 2.003870243472117E8 ; 3.4214445699973375E7 ; 1.0198877954888884E10 ; 0.0
60 ; 664158.1004923885 ; 2.0038828326026767E8 ; 3.4878763893978596E7 ; 1.0399264979236095E10 ; 0.0
61 ; 664608.0098423612 ; 2.0038954775441316E8 ; 3.5542921994470984E7 ; 1.0599653262496363E10 ; 0.0
62 ; 667057.0403914348 ; 2.003908175022451E8 ; 3.620753000431334E7 ; 1.0800042810250776E10 ; 0.0
63 ; 665810.3319580987 ; 2.0039209219176266E8 ; 3.687458704470478E7 ; 1.1000433627753021E10 ; 0.0
64 ; 665807.3401982916 ; 2.0039337152549765E8 ; 3.754039737666288E7 ; 1.1200825719944784E10 ; 0.0
65 ; 668577.7402826163 ; 2.003946552196941E8 ; 3.820620471686117E7 ; 1.1401219091470282E10 ; 0.0
66 ; 668575.0702395376 ; 2.0039594300353453E8 ; 3.887478245714379E7 ; 1.1601613746689976E10 ; 0.0
67 ; 669757.9252784674 ; 2.003972346184108E8 ; 3.954335752738333E7 ; 1.180200968969351E10 ; 0.0
68 ; 669782.5556665029 ; 2.003985298172378E8 ; 4.02131154526618E7 ; 1.200240692431192E10 ; 0.0
69 ; 670514.2237295157 ; 2.0039982836380696E8 ; 4.08828980083283E7 ; 1.2202805454129158E10 ; 0.0
70 ; 670451.6520687115 ; 2.0040113003217822E8 ; 4.155341223205782E7 ; 1.2403205282492966E10 ; 0.0
71 ; 671050.6766216244 ; 2.0040243460610783E8 ; 4.222386388412653E7 ; 1.2603606412525145E10 ; 0.0
72 ; 672013.1634012213 ; 2.0040374187851042E8 ; 4.289491456074815E7 ; 1.2804008847131252E10 ; 0.0
73 ; 671155.1248066267 ; 2.0040505165095276E8 ; 4.3566927724149376E7 ; 1.3004412589009762E10 ; 0.0
74 ; 672114.0449746337 ; 2.0040636373317826E8 ; 4.4238082848956004E7 ; 1.3204817640660715E10 ; 0.0
75 ; 673526.5600046983 ; 2.0040767794265938E8 ; 4.491019689393064E7 ; 1.3405224004393894E10 ; 0.0
76 ; 673397.4938637654 ; 2.0040899410417712E8 ; 4.558372345393533E7 ; 1.3605631682336554E10 ; 0.0
77 ; 675570.8806903507 ; 2.004103120494255E8 ; 4.62571209477991E7 ; 1.3806040676440731E10 ; 0.0
78 ; 674797.4978712801 ; 2.0041163161663967E8 ; 4.693269182848945E7 ; 1.4006450988490156E10 ; 0.0
79 ; 675603.3571838624 ; 2.0041295265024605E8 ; 4.760748932636073E7 ; 1.4206862620106796E10 ; 0.0
80 ; 673636.2449109008 ; 2.0041427500053352E8 ; 4.828309268354459E7 ; 1.4407275572757042E10 ; 0.0
81 ; 673620.2136685157 ; 2.0041559852334383E8 ; 4.8956728928455494E7 ; 1.4607689847757576E10 ; 0.0
82 ; 674198.1073432202 ; 2.0041692307978043E8 ; 4.963034914212401E7 ; 1.480810544628092E10 ; 0.0
83 ; 673298.2752123238 ; 2.0041824853593457E8 ; 5.030454724946723E7 ; 1.50085223693607E10 ; 0.0
84 ; 672242.5559771536 ; 2.004195747626272E8 ; 5.097784552467956E7 ; 1.5208940617896635E10 ; 0.0
85 ; 673035.8413052926 ; 2.004209016351663E8 ; 5.165008808065671E7 ; 1.5409360192659262E10 ; 0.0
86 ; 673015.949969501 ; 2.0042222903311804E8 ; 5.2323123921962E7 ; 1.5609781094294428E10 ; 0.0
87 ; 671955.8128684616 ; 2.0042355684009147E8 ; 5.29961398719315E7 ; 1.5810203323327545E10 ; 0.0
88 ; 671214.038456006 ; 2.0042488494353542E8 ; 5.366809568479996E7 ; 1.6010626880167637E10 ; 0.0
89 ; 671155.357359665 ; 2.004262132345473E8 ; 5.433930972325597E7 ; 1.6211051765111172E10 ; 0.0
90 ; 671499.3169707563 ; 2.0042754160769257E8 ; 5.501046508061563E7 ; 1.6411477978345718E10 ; 0.0
91 ; 671227.5278091426 ; 2.0042886996083477E8 ; 5.568196439758639E7 ; 1.6611905519953411E10 ; 0.0
92 ; 671126.9569939704 ; 2.0043019819497502E8 ; 5.635319192539553E7 ; 1.6812334389914246E10 ; 0.0
93 ; 669669.4893280127 ; 2.0043152621410048E8 ; 5.70243188823895E7 ; 1.701276458810922E10 ; 0.0
94 ; 670157.4887043979 ; 2.0043285392504147E8 ; 5.769398837171751E7 ; 1.7213196114323322E10 ; 0.0
95 ; 668492.3404174339 ; 2.004341812373365E8 ; 5.836414586042191E7 ; 1.7413628968248363E10 ; 0.0
96 ; 667167.1160110061 ; 2.0043550806310466E8 ; 5.903263820083935E7 ; 1.76140631494857E10 ; 0.0
97 ; 667764.6740292993 ; 2.0043683431692532E8 ; 5.969980531685036E7 ; 1.7814498657548805E10 ; 0.0
98 ; 667425.5945161973 ; 2.0043815991572395E8 ; 6.0367569990879655E7 ; 1.801493549186573E10 ; 0.0
99 ; 668759.495072988 ; 2.0043948477866477E8 ; 6.103499558539585E7 ; 1.8215373651781456E10 ; 0.0
100 ; 667367.8650499526 ; 2.0044080882704866E8 ; 6.170375508046884E7 ; 1.841581313656012E10 ; 0.0
101 ; 666945.1264164896 ; 2.0044213198421684E8 ; 6.237112294551879E7 ; 1.861625394538717E10 ; 0.0
102 ; 665366.714427201 ; 2.004434541754598E8 ; 6.303806807193528E7 ; 1.8816696077371387E10 ; 0.0
103 ; 665569.2840613001 ; 2.0044477532793072E8 ; 6.3703434786362484E7 ; 1.901713953154685E10 ; 0.0
104 ; 664206.9957825402 ; 2.004460953705638E8 ; 6.436900407042378E7 ; 1.921758430687478E10 ; 0.0
105 ; 664960.311002522 ; 2.0044741423399687E8 ; 6.503321106620632E7 ; 1.9418030402245342E10 ; 0.0
106 ; 663893.4871914444 ; 2.0044873185049766E8 ; 6.5698171377208844E7 ; 1.961847781647934E10 ; 0.0
107 ; 663187.1230831911 ; 2.0045004815389445E8 ; 6.636206486440029E7 ; 1.9818926548329838E10 ; 0.0
108 ; 662670.1627155654 ; 2.0045136307950994E8 ; 6.702525198748348E7 ; 2.0019376596483734E10 ; 0.0
109 ; 662205.9603016604 ; 2.0045267656409854E8 ; 6.768792215019904E7 ; 2.0219827959563244E10 ; 0.0
110 ; 660798.1001424746 ; 2.0045398854578692E8 ; 6.835012811050071E7 ; 2.0420280636127342E10 ; 0.0
111 ; 660663.5523838442 ; 2.0045529896401772E8 ; 6.901092621064319E7 ; 2.062073462467313E10 ; 0.0
112 ; 659018.8204821412 ; 2.0045660775949582E8 ; 6.967158976302703E7 ; 2.0821189923637146E10 ; 0.0
113 ; 659760.5183474175 ; 2.0045791487413743E8 ; 7.033060858350916E7 ; 2.102164653139664E10 ; 0.0
114 ; 658454.6435434024 ; 2.0045922025102177E8 ; 7.099036910185657E7 ; 2.122210444627078E10 ; 0.0
115 ; 656819.2215289335 ; 2.0046052383434507E8 ; 7.164882374539998E7 ; 2.14225636665218E10 ; 0.0
116 ; 657943.526895427 ; 2.0046182556937683E8 ; 7.230564296692891E7 ; 2.1623024190356148E10 ; 0.0
117 ; 656334.1226940497 ; 2.0046312540241823E8 ; 7.296358649382435E7 ; 2.1823486015925526E10 ; 0.0
118 ; 655232.4235240851 ; 2.0046442328076264E8 ; 7.36199206165184E7 ; 2.2023949141327946E10 ; 0.0
119 ; 654057.9000679237 ; 2.004657191526579E8 ; 7.427515304004247E7 ; 2.2224413564608707E10 ; 0.0
120 ; 653033.8240888717 ; 2.0046701296727043E8 ; 7.49292109401104E7 ; 2.2424879283761364E10 ; 0.0
121 ; 653996.9711065638 ; 2.004683046746513E8 ; 7.558224476419927E7 ; 2.2625346296728634E10 ; 0.0
122 ; 652890.9361529675 ; 2.0046959422570342E8 ; 7.623624173530583E7 ; 2.2825814601403286E10 ; 0.0
123 ; 650549.0416019436 ; 2.004708815721509E8 ; 7.68891326714588E7 ; 2.302628419562899E10 ; 0.0
124 ; 649092.7662585704 ; 2.004721666665092E8 ; 7.753968171306074E7 ; 2.322675507720114E10 ; 0.0
125 ; 649895.1555451155 ; 2.0047344946205726E8 ; 7.81887744793193E7 ; 2.342722724386765E10 ; 0.0
126 ; 649115.8142983224 ; 2.004747299128105E8 ; 7.883866963486442E7 ; 2.362770069332971E10 ; 0.0
127 ; 647508.4114779182 ; 2.0047600797349524E8 ; 7.948778544916274E7 ; 2.382817542324252E10 ; 0.0
128 ; 647288.523821709 ; 2.0047728359952435E8 ; 8.013529386064066E7 ; 2.4028651431216015E10 ; 0.0
129 ; 645650.7783226246 ; 2.004785567469738E8 ; 8.078258238446237E7 ; 2.422912871481554E10 ; 0.0
130 ; 644554.883324658 ; 2.004798273725606E8 ; 8.1428233162785E7 ; 2.4429607271562515E10 ; 0.0
131 ; 641296.9177221035 ; 2.0048109543362135E8 ; 8.207278804610965E7 ; 2.4630087098935078E10 ; 0.0
132 ; 640685.924059695 ; 2.0048236088809207E8 ; 8.271408496383175E7 ; 2.48305681943687E10 ; 0.0
133 ; 639388.4019644883 ; 2.004836236944888E8 ; 8.335477088789144E7 ; 2.503105055525679E10 ; 0.0
134 ; 637810.7847134569 ; 2.0048488381188896E8 ; 8.399415928985593E7 ; 2.523153417895128E10 ; 0.0
135 ; 636919.4812725172 ; 2.0048614119991377E8 ; 8.463197007456939E7 ; 2.543201906276317E10 ; 0.0
136 ; 634417.8611550435 ; 2.004873958187113E8 ; 8.526888955584191E7 ; 2.563250520396308E10 ; 0.0
137 ; 632429.3301721404 ; 2.0048864762894022E8 ; 8.590330741699696E7 ; 2.583299259978179E10 ; 0.0
138 ; 631275.4506089183 ; 2.004898965917543E8 ; 8.653573674716909E7 ; 2.6033481247410732E10 ; 0.0
139 ; 629210.9820075029 ; 2.0049114266878763E8 ; 8.716701219777802E7 ; 2.6233971144002487E10 ; 0.0
140 ; 627629.0842903402 ; 2.0049238582214046E8 ; 8.779622317978552E7 ; 2.6434462286671276E10 ; 0.0
141 ; 625484.169015502 ; 2.004936260143656E8 ; 8.842385226407586E7 ; 2.6634954672493416E10 ; 0.0
142 ; 622867.0364066118 ; 2.0049486320845547E8 ; 8.904933643309136E7 ; 2.6835448298507782E10 ; 0.0
143 ; 622078.0149101941 ; 2.004960973678295E8 ; 8.967220346949796E7 ; 2.7035943161716236E10 ; 0.0
144 ; 619805.9431273727 ; 2.004973284563224E8 ; 9.029428148440816E7 ; 2.7236439259084064E10 ; 0.0
145 ; 619639.0606444088 ; 2.0049855643817267E8 ; 9.091408742753553E7 ; 2.7436936587540386E10 ; 0.0
146 ; 618603.6172350757 ; 2.0049978127801162E8 ; 9.153372648817994E7 ; 2.7637435143978558E10 ; 0.0
147 ; 617372.5277935066 ; 2.0050100294085294E8 ; 9.215233010541502E7 ; 2.783793492525657E10 ; 0.0
148 ; 615281.5311005022 ; 2.0050222139208266E8 ; 9.276970263320853E7 ; 2.8038435928197422E10 ; 0.0
149 ; 615103.2678665002 ; 2.0050343659744942E8 ; 9.338498416430902E7 ; 2.8238938149589504E10 ; 0.0
150 ; 613425.4899641073 ; 2.005046485230554E8 ; 9.400008743217553E7 ; 2.8439441586186954E10 ; 0.0
151 ; 613998.016510077 ; 2.0050585713534725E8 ; 9.461351292213964E7 ; 2.863994623471001E10 ; 0.0
152 ; 612221.156467567 ; 2.005070624011078E8 ; 9.522751093864973E7 ; 2.8840452091845356E10 ; 0.0
153 ; 612509.9066971968 ; 2.005082642874477E8 ; 9.58397320951173E7 ; 2.9040959154246464E10 ; 0.0
154 ; 610697.2005633946 ; 2.005094627617978E8 ; 9.64522420018145E7 ; 2.9241467418533913E10 ; 0.0
155 ; 609156.931380951 ; 2.0051065779190147E8 ; 9.70629392023779E7 ; 2.944197688129571E10 ; 0.0
156 ; 607850.2908929444 ; 2.005118493458075E8 ; 9.767209613375886E7 ; 2.9642487539087612E10 ; 0.0
157 ; 606741.784661313 ; 2.005130373918631E8 ; 9.82799464246518E7 ; 2.984299938843342E10 ; 0.0
158 ; 607510.9166468717 ; 2.0051422189870736E8 ; 9.888668820931311E7 ; 3.0043512425825283E10 ; 0.0
159 ; 606524.17507488 ; 2.0051540283526474E8 ; 9.949419912595998E7 ; 3.024402664772399E10 ; 0.0
160 ; 605182.1993434095 ; 2.00516580170739E8 ; 1.0010072330103485E8 ; 3.0444542050559258E10 ; 0.0
161 ; 603091.0826130846 ; 2.0051775387460738E8 ; 1.0070590550037827E8 ; 3.0645058630729996E10 ; 0.0
162 ; 601486.8730204019 ; 2.005189239166148E8 ; 1.0130899658299135E8 ; 3.0845576384604603E10 ; 0.0
163 ; 600166.6214677118 ; 2.0052009026676854E8 ; 1.0191048345601174E8 ; 3.1046095308521217E10 ; 0.0
164 ; 601504.3416464165 ; 2.0052125289533302E8 ; 1.0251065007747945E8 ; 3.1246615398787987E10 ; 0.0
165 ; 600383.4034707362 ; 2.0052241177282462E8 ; 1.0311215441912587E8 ; 3.144713665168332E10 ; 0.0
166 ; 598546.7719712069 ; 2.0052356687000707E8 ; 1.0371253782259661E8 ; 3.1647659063456142E10 ; 0.0
167 ; 596671.5658542363 ; 2.0052471815788668E8 ; 1.0431108459456782E8 ; 3.184818263032615E10 ; 0.0
168 ; 595964.9077570043 ; 2.005258656077079E8 ; 1.0490775616042206E8 ; 3.2048707348484035E10 ; 0.0
169 ; 594802.653887968 ; 2.0052700919094905E8 ; 1.0550372106817906E8 ; 3.2249233214091743E10 ; 0.0
170 ; 594244.8072868816 ; 2.0052814887931815E8 ; 1.0609852372206703E8 ; 3.2449760223282692E10 ; 0.0
171 ; 592006.8313759782 ; 2.0052928464474905E8 ; 1.0669276852935392E8 ; 3.265028837216201E10 ; 0.0
172 ; 592707.8697463088 ; 2.005304164593975E8 ; 1.0728477536072989E8 ; 3.285081765680676E10 ; 0.0
173 ; 591634.1519660259 ; 2.0053154429563752E8 ; 1.078774832304762E8 ; 3.3051348073266155E10 ; 0.0
174 ; 590838.0354940552 ; 2.0053266812605792E8 ; 1.0846911738244222E8 ; 3.3251879617561794E10 ; 0.0
175 ; 588061.0503928413 ; 2.0053378792345884E8 ; 1.0905995541793628E8 ; 3.345241228568785E10 ; 0.0
176 ; 589177.0784271919 ; 2.0053490366084847E8 ; 1.0964801646832912E8 ; 3.365294607361131E10 ; 0.0
177 ; 589261.9676132856 ; 2.0053601531143996E8 ; 1.1023719354675631E8 ; 3.3853480977272156E10 ; 0.0
178 ; 586389.601411379 ; 2.0053712284864834E8 ; 1.1082645551436959E8 ; 3.4054016992583595E10 ; 0.0
179 ; 587140.1157381659 ; 2.0053822624608767E8 ; 1.1141284511578096E8 ; 3.4254554115432243E10 ; 0.0
180 ; 586434.6250467572 ; 2.0053932547756815E8 ; 1.1199998523151913E8 ; 3.445509234167833E10 ; 0.0
181 ; 585791.9252892215 ; 2.0054042051709348E8 ; 1.125864198565659E8 ; 3.46556316671559E10 ; 0.0
182 ; 582537.7672247671 ; 2.0054151133885828E8 ; 1.1317221178185512E8 ; 3.485617208767299E10 ; 0.0
183 ; 582414.6949641388 ; 2.005425979172455E8 ; 1.137547495490799E8 ; 3.505671359901185E10 ; 0.0
184 ; 582052.4795952843 ; 2.005436802268241E8 ; 1.1433716424404404E8 ; 3.525725619692909E10 ; 0.0
185 ; 582934.8237735444 ; 2.005447582423467E8 ; 1.1491921672363932E8 ; 3.5457799877155914E10 ; 0.0
186 ; 580738.0658038204 ; 2.0054583193874735E8 ; 1.1550215154741287E8 ; 3.565834463539826E10 ; 0.0
187 ; 579668.9207344917 ; 2.0054690129113933E8 ; 1.160828896132167E8 ; 3.5858890467337006E10 ; 0.0
188 ; 580061.0886749856 ; 2.0054796627481318E8 ; 1.166625585339512E8 ; 3.605943736862814E10 ; 0.0
189 ; 578611.1547833065 ; 2.005490268652346E8 ; 1.1724261962262619E8 ; 3.6259985334902954E10 ; 0.0
190 ; 578778.1861983568 ; 2.005500830380427E8 ; 1.178212307774095E8 ; 3.646053436176819E10 ; 0.0
191 ; 577744.6173178253 ; 2.0055113476904795E8 ; 1.1840000896360785E8 ; 3.666108444480623E10 ; 0.0
192 ; 574769.219915171 ; 2.0055218203423047E8 ; 1.1897775358092567E8 ; 3.686163557957528E10 ; 0.0
193 ; 575592.9574277381 ; 2.0055322480973846E8 ; 1.1955252280084084E8 ; 3.706218776160951E10 ; 0.0
194 ; 576391.1837068215 ; 2.005542630718863E8 ; 1.2012811575826858E8 ; 3.726274098641925E10 ; 0.0
195 ; 574102.5978379628 ; 2.005552967971532E8 ; 1.207045069419754E8 ; 3.7463295249491135E10 ; 0.0
196 ; 573788.2646790028 ; 2.0055632596218154E8 ; 1.2127860953981337E8 ; 3.7663850546288284E10 ; 0.0
197 ; 572879.6855657003 ; 2.0055735054377538E8 ; 1.2185239780449237E8 ; 3.7864406872250465E10 ; 0.0
198 ; 570987.4826582953 ; 2.0055837051889914E8 ; 1.2242527749005806E8 ; 3.806496422279424E10 ; 0.0
199 ; 571030.5552408396 ; 2.0055938586467624E8 ; 1.2299626497271636E8 ; 3.826552259331314E10 ; 0.0
200 ; 570688.7958332978 ; 2.0056039655838764E8 ; 1.235672955279572E8 ; 3.846608197917782E10 ; 0.0
201 ; 568536.6221961409 ; 2.005614025774707E8 ; 1.241379843237905E8 ; 3.8666642375736206E10 ; 0.0
