CSV File for the City 3 on Day 192
1 - Minute m 
2 - Power Consumed at minute m 
3 - Power Produced at minute m 
4 - Energy Consumed since the beginning of the day 
5 - Energy Produced since the beginning of the day 
6 - Energy Lost since the beginning of the day on lines starting from the city
 
0 ; 319446.54476369126 ; 1.054400340795317E8 ; 0.0 ; 0.0 ; 0.0
1 ; 322389.49946755246 ; 1.0559286950248146E8 ; 319446.54476369126 ; 1.054400340795317E8 ; 0.0
2 ; 324046.76909710205 ; 1.06054496188966E8 ; 641836.0442312437 ; 2.1103290358201316E8 ; 0.0
3 ; 326422.67644197046 ; 1.0682491642019218E8 ; 965882.8133283458 ; 3.1708739977097917E8 ; 0.0
4 ; 331967.03587495163 ; 1.0790413225544846E8 ; 1292305.4897703163 ; 4.2391231619117135E8 ; 0.0
5 ; 336079.1972513512 ; 1.0929214551576728E8 ; 1624272.525645268 ; 5.318164484466198E8 ; 0.0
6 ; 339189.99478548765 ; 1.1098895776906785E8 ; 1960351.7228966192 ; 6.411085939623871E8 ; 0.0
7 ; 348264.9990881632 ; 1.1299457031705457E8 ; 2299541.717682107 ; 7.52097551731455E8 ; 0.0
8 ; 362012.33939521585 ; 1.1530898418411994E8 ; 2647806.71677027 ; 8.650921220485096E8 ; 0.0
9 ; 377794.2337384094 ; 1.1793220010847151E8 ; 3009819.0561654856 ; 9.804011062326295E8 ; 0.0
10 ; 403528.04211707995 ; 1.2086421853566045E8 ; 3387613.289903895 ; 1.0983333063411012E9 ; 0.0
11 ; 444515.53894329636 ; 1.2410503961464438E8 ; 3791141.3320209747 ; 1.2191975248767617E9 ; 0.0
12 ; 511262.5401458171 ; 1.2765466319646564E8 ; 4235656.870964271 ; 1.343302564491406E9 ; 0.0
13 ; 576050.1635830263 ; 1.3151308883557308E8 ; 4746919.411110088 ; 1.4709572276878717E9 ; 0.0
14 ; 581769.7057761429 ; 1.3568031579375923E8 ; 5322969.5746931145 ; 1.6024703165234447E9 ; 0.0
15 ; 586593.5106692713 ; 1.4015634304663146E8 ; 5904739.280469257 ; 1.738150632317204E9 ; 0.0
16 ; 588717.3626631462 ; 1.449411692924855E8 ; 6491332.791138529 ; 1.8783069753638353E9 ; 0.0
17 ; 592933.4506405032 ; 1.5003479296340206E8 ; 7080050.153801675 ; 2.0232481446563208E9 ; 0.0
18 ; 596008.7480151508 ; 1.5543721223834872E8 ; 7672983.604442178 ; 2.173282937619723E9 ; 0.0
19 ; 598902.3513967032 ; 1.61148425058037E8 ; 8268992.352457329 ; 2.3287201498580713E9 ; 0.0
20 ; 602470.7588762896 ; 1.6716842914126006E8 ; 8867894.703854032 ; 2.489868574916108E9 ; 0.0
21 ; 605284.0850750449 ; 1.7349722200242218E8 ; 9470365.462730322 ; 2.6570370040573683E9 ; 0.0
22 ; 609188.7936654438 ; 1.801348009699641E8 ; 1.0075649547805367E7 ; 2.8305342260597906E9 ; 0.0
23 ; 612668.6366125958 ; 1.870811632053905E8 ; 1.0684838341470812E7 ; 3.0106690270297546E9 ; 0.0
24 ; 614610.4594814694 ; 1.943363057226156E8 ; 1.1297506978083408E7 ; 3.197750190235145E9 ; 0.0
25 ; 618257.3275189736 ; 2.005882663055407E8 ; 1.1912117437564876E7 ; 3.392086495957761E9 ; 0.0
26 ; 620735.7462971553 ; 2.0059058956414574E8 ; 1.253037476508385E7 ; 3.5926747622633014E9 ; 0.0
27 ; 624499.9131134248 ; 2.0059304147816747E8 ; 1.3151110511381004E7 ; 3.793265351827447E9 ; 0.0
28 ; 627718.7010919008 ; 2.0059561866203165E8 ; 1.3775610424494429E7 ; 3.9938583933056145E9 ; 0.0
29 ; 631423.6209680261 ; 2.0059831767547852E8 ; 1.4403329125586329E7 ; 4.194454011967646E9 ; 0.0
30 ; 634333.5524935316 ; 2.0060113504002902E8 ; 1.5034752746554356E7 ; 4.395052329643125E9 ; 0.0
31 ; 636977.7645256041 ; 2.0060406725443226E8 ; 1.5669086299047887E7 ; 4.595653464683153E9 ; 0.0
32 ; 639762.834772559 ; 2.00607110809018E8 ; 1.630606406357349E7 ; 4.796257531937586E9 ; 0.0
33 ; 644036.8886170866 ; 2.006102621989035E8 ; 1.694582689834605E7 ; 4.996864642746604E9 ; 0.0
34 ; 646189.1955119878 ; 2.0061351793603012E8 ; 1.758986378696314E7 ; 5.197474904945507E9 ; 0.0
35 ; 648806.6863478316 ; 2.006168745600233E8 ; 1.8236052982475128E7 ; 5.398088422881537E9 ; 0.0
36 ; 652560.1812117447 ; 2.00620328647891E8 ; 1.888485966882296E7 ; 5.598705297441561E9 ; 0.0
37 ; 657302.2262442809 ; 2.0062387682258913E8 ; 1.9537419850034703E7 ; 5.799325626089452E9 ; 0.0
38 ; 656249.9202141918 ; 2.0062751576049593E8 ; 2.0194722076278985E7 ; 5.999949502912041E9 ; 0.0
39 ; 661419.7388585536 ; 2.0063124219784728E8 ; 2.0850971996493176E7 ; 6.200577018672537E9 ; 0.0
40 ; 661672.8930317471 ; 2.0063505293619177E8 ; 2.151239173535173E7 ; 6.401208260870384E9 ; 0.0
41 ; 665099.5751216536 ; 2.0063894484693068E8 ; 2.2174064628383476E7 ; 6.601843313806576E9 ; 0.0
42 ; 665829.1196600004 ; 2.0064291487500963E8 ; 2.283916420350513E7 ; 6.802482258653506E9 ; 0.0
43 ; 669232.5459525823 ; 2.00646960041832E8 ; 2.350499332316513E7 ; 7.003125173528516E9 ; 0.0
44 ; 671651.4217335827 ; 2.006510774474627E8 ; 2.417422586911771E7 ; 7.203772133570348E9 ; 0.0
45 ; 673969.1162672465 ; 2.0065526427219096E8 ; 2.4845877290851295E7 ; 7.404423211017811E9 ; 0.0
46 ; 674959.8446232186 ; 2.0065951777751783E8 ; 2.551984640711854E7 ; 7.605078475290002E9 ; 0.0
47 ; 676785.6221184982 ; 2.0066383530663198E8 ; 2.619480625174176E7 ; 7.80573799306752E9 ; 0.0
48 ; 678698.8598669604 ; 2.0066821428443408E8 ; 2.687159187386026E7 ; 8.006401828374152E9 ; 0.0
49 ; 679771.427843805 ; 2.0067265221716535E8 ; 2.755029073372722E7 ; 8.2070700426585865E9 ; 0.0
50 ; 680524.2063490237 ; 2.0067714669169343E8 ; 2.8230062161571026E7 ; 8.4077426948757515E9 ; 0.0
51 ; 681644.0091395277 ; 2.0068169537450376E8 ; 2.891058636792005E7 ; 8.608419841567446E9 ; 0.0
52 ; 684447.9222141018 ; 2.0068629601044056E8 ; 2.9592230377059575E7 ; 8.80910153694195E9 ; 0.0
53 ; 684232.6599239216 ; 2.0069094642123815E8 ; 3.0276678299273677E7 ; 9.00978783295239E9 ; 0.0
54 ; 686565.1203072988 ; 2.0069564450387883E8 ; 3.09609109591976E7 ; 9.210478779373629E9 ; 0.0
55 ; 687605.7531892658 ; 2.0070038822881028E8 ; 3.16474760795049E7 ; 9.411174423877508E9 ; 0.0
56 ; 688811.9847251975 ; 2.0070517563805172E8 ; 3.2335081832694165E7 ; 9.611874812106318E9 ; 0.0
57 ; 690461.0387188363 ; 2.007100048432148E8 ; 3.302389381741936E7 ; 9.81257998774437E9 ; 0.0
58 ; 689471.8970727327 ; 2.0071487402346233E8 ; 3.37143548561382E7 ; 1.0013289992587584E10 ; 0.0
59 ; 689960.1398630178 ; 2.0071978142342475E8 ; 3.440382675321093E7 ; 1.0214004866611046E10 ; 0.0
60 ; 692689.6100998429 ; 2.0072472535109204E8 ; 3.5093786893073946E7 ; 1.0414724648034472E10 ; 0.0
61 ; 693927.9238486058 ; 2.0072970417569646E8 ; 3.578647650317379E7 ; 1.0615449373385563E10 ; 0.0
62 ; 694829.0205433266 ; 2.0073471632559854E8 ; 3.64804044270224E7 ; 1.081617907756126E10 ; 0.0
63 ; 696917.4752845066 ; 2.0073976028618824E8 ; 3.717523344756573E7 ; 1.1016913793886858E10 ; 0.0
64 ; 697587.8797422014 ; 2.0074483459781018E8 ; 3.787215092285024E7 ; 1.1217653554173046E10 ; 0.0
65 ; 698499.6351711547 ; 2.007499378537209E8 ; 3.856973880259244E7 ; 1.1418398388770857E10 ; 0.0
66 ; 697634.4994644128 ; 2.0075506869808483E8 ; 3.9268238437763594E7 ; 1.1619148326624578E10 ; 0.0
67 ; 699801.6709124487 ; 2.00760225824014E8 ; 3.996587293722801E7 ; 1.1819903395322662E10 ; 0.0
68 ; 701894.5464851385 ; 2.0076540797165596E8 ; 4.066567460814046E7 ; 1.2020663621146677E10 ; 0.0
69 ; 701947.8521752299 ; 2.0077061392633304E8 ; 4.13675691546256E7 ; 1.2221429029118334E10 ; 0.0
70 ; 703034.4181405511 ; 2.0077584251673546E8 ; 4.206951700680083E7 ; 1.2422199643044666E10 ; 0.0
71 ; 703958.4235672265 ; 2.0078109261317024E8 ; 4.277255142494138E7 ; 1.2622975485561401E10 ; 0.0
72 ; 703799.5737850908 ; 2.0078636312586683E8 ; 4.347650984850861E7 ; 1.2823756578174572E10 ; 0.0
73 ; 705348.4286965 ; 2.0079165300334013E8 ; 4.41803094222937E7 ; 1.3024542941300438E10 ; 0.0
74 ; 707845.2963325869 ; 2.007969612308115E8 ; 4.48856578509902E7 ; 1.3225334594303778E10 ; 0.0
75 ; 707796.1261319148 ; 2.0080228682868698E8 ; 4.559350314732279E7 ; 1.342613155553459E10 ; 0.0
76 ; 707009.487360877 ; 2.0080762885109267E8 ; 4.63012992734547E7 ; 1.3626933842363277E10 ; 0.0
77 ; 709706.2919436547 ; 2.0081298638446632E8 ; 4.700830876081558E7 ; 1.382774147121437E10 ; 0.0
78 ; 706890.6725457871 ; 2.0081835854620436E8 ; 4.771801505275924E7 ; 1.4028554457598837E10 ; 0.0
79 ; 709493.7750832121 ; 2.008237444833628E8 ; 4.842490572530503E7 ; 1.422937281614504E10 ; 0.0
80 ; 708556.9175141396 ; 2.008291433714113E8 ; 4.913439950038824E7 ; 1.4430196560628403E10 ; 0.0
81 ; 708136.3958483277 ; 2.0083455441303843E8 ; 4.984295641790238E7 ; 1.4631025703999813E10 ; 0.0
82 ; 706941.9255767147 ; 2.008399768370071E8 ; 5.055109281375071E7 ; 1.4831860258412851E10 ; 0.0
83 ; 708833.0993002829 ; 2.0084540989705825E8 ; 5.125803473932742E7 ; 1.5032700235249859E10 ; 0.0
84 ; 707655.4048373989 ; 2.008508528708615E8 ; 5.19668678386277E7 ; 1.5233545645146917E10 ; 0.0
85 ; 708738.5058402858 ; 2.0085630505901098E8 ; 5.26745232434651E7 ; 1.5434396498017778E10 ; 0.0
86 ; 708925.6351774499 ; 2.0086176578406477E8 ; 5.338326174930539E7 ; 1.563525280307679E10 ; 0.0
87 ; 707901.2820364488 ; 2.008672343896262E8 ; 5.409218738448284E7 ; 1.5836114568860855E10 ; 0.0
88 ; 707554.9213621224 ; 2.0087271023946592E8 ; 5.4800088666519284E7 ; 1.603698180325048E10 ; 0.0
89 ; 707207.5781789324 ; 2.0087819271668214E8 ; 5.550764358788141E7 ; 1.6237854513489946E10 ; 0.0
90 ; 706624.758439651 ; 2.0088368122289866E8 ; 5.621485116606034E7 ; 1.6438732706206629E10 ; 0.0
91 ; 706633.9803715601 ; 2.0088917517749825E8 ; 5.6921475924499996E7 ; 1.6639616387429527E10 ; 0.0
92 ; 707293.6288546786 ; 2.0089467401689038E8 ; 5.762810990487155E7 ; 1.6840505562607025E10 ; 0.0
93 ; 705151.6768425632 ; 2.009001771938116E8 ; 5.833540353372623E7 ; 1.7041400236623915E10 ; 0.0
94 ; 706779.559864164 ; 2.009056841766574E8 ; 5.904055521056879E7 ; 1.7242300413817726E10 ; 0.0
95 ; 705586.8701577908 ; 2.009111944488438E8 ; 5.974733477043296E7 ; 1.7443206097994385E10 ; 0.0
96 ; 706333.1511343428 ; 2.0091670750819775E8 ; 6.045292164059075E7 ; 1.764411729244323E10 ; 0.0
97 ; 704283.7360794357 ; 2.0092222286637494E8 ; 6.115925479172509E7 ; 1.7845033999951427E10 ; 0.0
98 ; 704389.582673419 ; 2.009277400483035E8 ; 6.186353852780452E7 ; 1.8045956222817802E10 ; 0.0
99 ; 704246.6505043758 ; 2.0093325859165305E8 ; 6.256792811047794E7 ; 1.8246883962866104E10 ; 0.0
100 ; 703379.0807922347 ; 2.0093877804632705E8 ; 6.327217476098231E7 ; 1.8447817221457756E10 ; 0.0
101 ; 704332.0286457916 ; 2.0094429797397846E8 ; 6.3975553841774546E7 ; 1.864875599950408E10 ; 0.0
102 ; 700563.9865568258 ; 2.009498179475465E8 ; 6.467988587042034E7 ; 1.884970029747806E10 ; 0.0
103 ; 701559.3419578624 ; 2.009553375508147E8 ; 6.5380449856977165E7 ; 1.905065011542561E10 ; 0.0
104 ; 702423.5714350569 ; 2.0096085637798804E8 ; 6.6082009198935024E7 ; 1.9251605452976425E10 ; 0.0
105 ; 701060.9409248246 ; 2.0096637403328952E8 ; 6.678443277037008E7 ; 1.9452566309354412E10 ; 0.0
106 ; 702729.3015658438 ; 2.009718901305742E8 ; 6.74854937112949E7 ; 1.9653532683387703E10 ; 0.0
107 ; 700120.7929526429 ; 2.009774042929605E8 ; 6.818822301286075E7 ; 1.9854504573518276E10 ; 0.0
108 ; 698878.6854999706 ; 2.009829161524779E8 ; 6.888834380581339E7 ; 2.0055481977811237E10 ; 0.0
109 ; 697412.5834664132 ; 2.009884253497301E8 ; 6.958722249131335E7 ; 2.0256464893963715E10 ; 0.0
110 ; 697184.0587536629 ; 2.0099393153357294E8 ; 7.028463507477976E7 ; 2.0457453319313446E10 ; 0.0
111 ; 697084.5830259599 ; 2.009994343608065E8 ; 7.098181913353343E7 ; 2.065844725084702E10 ; 0.0
112 ; 697168.6725184937 ; 2.0100493349588072E8 ; 7.16789037165594E7 ; 2.0859446685207825E10 ; 0.0
113 ; 696685.8799740148 ; 2.0101042861061373E8 ; 7.237607238907789E7 ; 2.1060451618703705E10 ; 0.0
114 ; 694975.8602813114 ; 2.0101591938392255E8 ; 7.30727582690519E7 ; 2.126146204731432E10 ; 0.0
115 ; 693280.9694630496 ; 2.0102140550156528E8 ; 7.376773412933321E7 ; 2.1462477966698242E10 ; 0.0
116 ; 695353.5473536991 ; 2.010268866558947E8 ; 7.446101509879626E7 ; 2.1663499372199806E10 ; 0.0
117 ; 692202.0820705506 ; 2.0103236254562214E8 ; 7.515636864614996E7 ; 2.18645262588557E10 ; 0.0
118 ; 693826.2359508723 ; 2.010378328755917E8 ; 7.584857072822051E7 ; 2.2065558621401325E10 ; 0.0
119 ; 692401.1701551423 ; 2.0104329735656407E8 ; 7.654239696417138E7 ; 2.2266596454276917E10 ; 0.0
120 ; 693642.2170048638 ; 2.0104875570500943E8 ; 7.723479813432652E7 ; 2.246763975163348E10 ; 0.0
121 ; 689606.1463984041 ; 2.0105420764290932E8 ; 7.792844035133138E7 ; 2.266868850733849E10 ; 0.0
122 ; 689184.1097242093 ; 2.0105965289756674E8 ; 7.86180464977298E7 ; 2.28697427149814E10 ; 0.0
123 ; 688607.1100235686 ; 2.010650912014242E8 ; 7.9307230607454E7 ; 2.3070802367878967E10 ; 0.0
124 ; 687462.975905779 ; 2.0107052229188967E8 ; 7.999583771747757E7 ; 2.327186745908039E10 ; 0.0
125 ; 688852.0879209627 ; 2.0107594591116938E8 ; 8.068330069338335E7 ; 2.347293798137228E10 ; 0.0
126 ; 685233.8617805559 ; 2.0108136180610803E8 ; 8.137215278130431E7 ; 2.367401392728345E10 ; 0.0
127 ; 686229.7797809007 ; 2.010867697280351E8 ; 8.205738664308487E7 ; 2.3875095289089558E10 ; 0.0
128 ; 683962.441315783 ; 2.0109216943261805E8 ; 8.274361642286576E7 ; 2.4076182058817593E10 ; 0.0
129 ; 684100.2893637071 ; 2.0109756067972118E8 ; 8.342757886418155E7 ; 2.427727422825021E10 ; 0.0
130 ; 682132.1050555875 ; 2.0110294323327035E8 ; 8.411167915354526E7 ; 2.447837178892993E10 ; 0.0
131 ; 678899.4213924174 ; 2.0110831686112323E8 ; 8.479381125860085E7 ; 2.46794747321632E10 ; 0.0
132 ; 678313.3766224376 ; 2.0111368133494496E8 ; 8.547271067999326E7 ; 2.4880583049024323E10 ; 0.0
133 ; 677059.800239279 ; 2.0111903643008855E8 ; 8.61510240566157E7 ; 2.508169673035927E10 ; 0.0
134 ; 674005.1208551101 ; 2.0112438192548028E8 ; 8.682808385685498E7 ; 2.5282815766789356E10 ; 0.0
135 ; 674578.4376851525 ; 2.0112971760350972E8 ; 8.750208897771008E7 ; 2.5483940148714836E10 ; 0.0
136 ; 670755.7637287967 ; 2.011350432499241E8 ; 8.817666741539523E7 ; 2.5685069866318344E10 ; 0.0
137 ; 669091.1812989339 ; 2.011403586537268E8 ; 8.884742317912403E7 ; 2.5886204909568268E10 ; 0.0
138 ; 665644.406595189 ; 2.0114566360707995E8 ; 8.951651436042297E7 ; 2.6087345268221996E10 ; 0.0
139 ; 666175.7920458997 ; 2.011509579052109E8 ; 9.018215876701815E7 ; 2.6288490931829075E10 ; 0.0
140 ; 663708.0915666489 ; 2.0115624134632233E8 ; 9.084833455906406E7 ; 2.6489641889734287E10 ; 0.0
141 ; 660749.1699149138 ; 2.0116151373150572E8 ; 9.151204265063071E7 ; 2.669079813108061E10 ; 0.0
142 ; 660785.9866218141 ; 2.011667748646586E8 ; 9.217279182054563E7 ; 2.6891959644812115E10 ; 0.0
143 ; 658515.7230571102 ; 2.011720245524045E8 ; 9.283357780716744E7 ; 2.7093126419676773E10 ; 0.0
144 ; 656063.1188756227 ; 2.011772626040164E8 ; 9.349209353022455E7 ; 2.729429844422918E10 ; 0.0
145 ; 655567.7947649538 ; 2.0118248883134297E8 ; 9.414815664910017E7 ; 2.7495475706833195E10 ; 0.0
146 ; 654122.418431242 ; 2.0118770304873762E8 ; 9.480372444386512E7 ; 2.769665819566454E10 ; 0.0
147 ; 652083.6469339972 ; 2.011929050729902E8 ; 9.545784686229636E7 ; 2.7897845898713276E10 ; 0.0
148 ; 652162.0392613531 ; 2.0119809472326162E8 ; 9.610993050923036E7 ; 2.8099038803786266E10 ; 0.0
149 ; 651286.0381960053 ; 2.012032718210205E8 ; 9.676209254849172E7 ; 2.830023689850953E10 ; 0.0
150 ; 651820.726582565 ; 2.0120843618998256E8 ; 9.741337858668773E7 ; 2.850144017033055E10 ; 0.0
151 ; 649424.3113902273 ; 2.0121358765605202E8 ; 9.80651993132703E7 ; 2.8702648606520535E10 ; 0.0
152 ; 649623.1009273297 ; 2.012187260472655E8 ; 9.871462362466052E7 ; 2.8903862194176586E10 ; 0.0
153 ; 648093.1207675975 ; 2.012238511937378E8 ; 9.936424672558784E7 ; 2.910508092022385E10 ; 0.0
154 ; 647225.6968039805 ; 2.012289629276097E8 ; 1.0001233984635544E8 ; 2.9306304771417587E10 ; 0.0
155 ; 644492.0337312532 ; 2.012340610829978E8 ; 1.0065956554315943E8 ; 2.9507533734345196E10 ; 0.0
156 ; 644556.4322436377 ; 2.012391454959461E8 ; 1.0130405757689068E8 ; 2.9708767795428192E10 ; 0.0
157 ; 644477.719195801 ; 2.0124421600437945E8 ; 1.0194861400913432E8 ; 2.9910006940924137E10 ; 0.0
158 ; 643084.1782579251 ; 2.012492724480587E8 ; 1.0259309172833012E8 ; 3.0111251156928516E10 ; 0.0
159 ; 640704.5132385979 ; 2.0125431466853738E8 ; 1.0323617590658805E8 ; 3.0312500429376575E10 ; 0.0
160 ; 641333.6604687469 ; 2.0125934250912017E8 ; 1.0387688041982664E8 ; 3.0513754744045113E10 ; 0.0
161 ; 641182.3693134814 ; 2.0126435581482255E8 ; 1.0451821408029538E8 ; 3.0715014086554234E10 ; 0.0
162 ; 639205.3940369459 ; 2.0126935443233237E8 ; 1.0515939644960886E8 ; 3.0916278442369057E10 ; 0.0
163 ; 636804.7602497353 ; 2.0127433820997223E8 ; 1.0579860184364581E8 ; 3.1117547796801388E10 ; 0.0
164 ; 637323.6742411898 ; 2.012793069976637E8 ; 1.0643540660389555E8 ; 3.131882213501136E10 ; 0.0
165 ; 635849.0440584633 ; 2.0128426064689267E8 ; 1.0707273027813673E8 ; 3.1520101442009026E10 ; 0.0
166 ; 634006.3564484274 ; 2.0128919901067573E8 ; 1.0770857932219519E8 ; 3.172138570265592E10 ; 0.0
167 ; 632132.5399071276 ; 2.012941219435281E8 ; 1.0834258567864361E8 ; 3.1922674901666595E10 ; 0.0
168 ; 633171.8889859426 ; 2.0129902930143237E8 ; 1.0897471821855074E8 ; 3.2123969023610123E10 ; 0.0
169 ; 632770.3216997276 ; 2.0130392094180858E8 ; 1.0960789010753669E8 ; 3.2325268052911556E10 ; 0.0
170 ; 629755.037535472 ; 2.013087967234852E8 ; 1.1024066042923641E8 ; 3.2526571973853363E10 ; 0.0
171 ; 629108.1053676802 ; 2.0131365650667125E8 ; 1.1087041546677189E8 ; 3.2727880770576847E10 ; 0.0
172 ; 630086.2782532261 ; 2.0131850015292922E8 ; 1.1149952357213956E8 ; 3.292919442708352E10 ; 0.0
173 ; 626534.7353959559 ; 2.0132332752514917E8 ; 1.1212960985039279E8 ; 3.3130512927236446E10 ; 0.0
174 ; 627150.5726334101 ; 2.013281384875236E8 ; 1.1275614458578874E8 ; 3.3331836254761597E10 ; 0.0
175 ; 625717.0128765503 ; 2.0133293290552303E8 ; 1.1338329515842216E8 ; 3.353316439324912E10 ; 0.0
176 ; 626512.7660881159 ; 2.0133771064587286E8 ; 1.1400901217129871E8 ; 3.373449732615464E10 ; 0.0
177 ; 624550.1887773988 ; 2.0134247157653058E8 ; 1.1463552493738683E8 ; 3.3935835036800514E10 ; 0.0
178 ; 624327.1347890183 ; 2.0134721556666392E8 ; 1.1526007512616423E8 ; 3.4137177508377045E10 ; 0.0
179 ; 623051.3925160423 ; 2.0135194248663E8 ; 1.1588440226095325E8 ; 3.433852472394371E10 ; 0.0
180 ; 622157.551232536 ; 2.0135665220795462E8 ; 1.165074536534693E8 ; 3.453987666643034E10 ; 0.0
181 ; 622153.9514610646 ; 2.01361344603313E8 ; 1.1712961120470183E8 ; 3.47412333186383E10 ; 0.0
182 ; 619170.6371181523 ; 2.013660195465105E8 ; 1.1775176515616289E8 ; 3.494259466324161E10 ; 0.0
183 ; 618197.4711494306 ; 2.0137067691246435E8 ; 1.1837093579328103E8 ; 3.514396068278812E10 ; 0.0
184 ; 619298.2573270482 ; 2.0137531657718596E8 ; 1.1898913326443046E8 ; 3.5345331359700584E10 ; 0.0
185 ; 617603.7879917452 ; 2.013799384177638E8 ; 1.1960843152175751E8 ; 3.554670667627777E10 ; 0.0
186 ; 617685.0277079038 ; 2.0138454231234682E8 ; 1.2022603530974926E8 ; 3.574808661469553E10 ; 0.0
187 ; 616696.6409787356 ; 2.0138912814012843E8 ; 1.2084372033745717E8 ; 3.594947115700788E10 ; 0.0
188 ; 616574.5201417208 ; 2.0139369578133118E8 ; 1.214604169784359E8 ; 3.615086028514801E10 ; 0.0
189 ; 615705.2738027547 ; 2.0139824511719164E8 ; 1.2207699149857762E8 ; 3.6352253980929344E10 ; 0.0
190 ; 614989.7471436034 ; 2.014027760299461E8 ; 1.2269269677238038E8 ; 3.655365222604654E10 ; 0.0
191 ; 615544.9017735053 ; 2.0140728840281656E8 ; 1.2330768651952398E8 ; 3.6755055002076485E10 ; 0.0
192 ; 613968.3086128563 ; 2.014117821199973E8 ; 1.2392323142129749E8 ; 3.69564622904793E10 ; 0.0
193 ; 612758.4223212209 ; 2.0141625706664175E8 ; 1.2453719972991034E8 ; 3.71578740725993E10 ; 0.0
194 ; 611770.6383908512 ; 2.0142071312884998E8 ; 1.2514995815223156E8 ; 3.735929032966594E10 ; 0.0
195 ; 613105.6215106035 ; 2.014251501936564E8 ; 1.2576172879062241E8 ; 3.756071104279479E10 ; 0.0
196 ; 610766.5361191401 ; 2.0142956814901817E8 ; 1.2637483441213302E8 ; 3.776213619298845E10 ; 0.0
197 ; 610568.9911033524 ; 2.0143396688380355E8 ; 1.2698560094825216E8 ; 3.796356576113747E10 ; 0.0
198 ; 611433.6531251137 ; 2.0143834628778103E8 ; 1.2759616993935551E8 ; 3.816499972802127E10 ; 0.0
199 ; 609805.0073396 ; 2.014427062516087E8 ; 1.2820760359248061E8 ; 3.836643807430905E10 ; 0.0
200 ; 606769.9457184708 ; 2.0144704666682392E8 ; 1.2881740859982021E8 ; 3.856788078056066E10 ; 0.0
201 ; 607041.0831083121 ; 1.9386843333956614E8 ; 1.2942417854553868E8 ; 3.8769327827227486E10 ; 0.0
