CSV File for the City 3 on Day 5
1 - Minute m 
2 - Power Consumed at minute m 
3 - Power Produced at minute m 
4 - Energy Consumed since the beginning of the day 
5 - Energy Produced since the beginning of the day 
6 - Energy Lost since the beginning of the day on lines starting from the city
 
0 ; 2376686.236903607 ; 1.0533931238493517E8 ; 0.0 ; 0.0 ; 0.0
1 ; 2379164.7979773255 ; 1.0549171607255852E8 ; 2376686.236903607 ; 1.0533931238493517E8 ; 0.0
2 ; 2381253.6705398127 ; 1.0595294528422186E8 ; 4755851.034880932 ; 2.108310284574937E8 ; 0.0
3 ; 2383826.371961628 ; 1.0672300567948186E8 ; 7137104.705420746 ; 3.1678397374171555E8 ; 0.0
4 ; 2387875.3351321677 ; 1.0780190249181384E8 ; 9520931.077382375 ; 4.235069794211974E8 ; 0.0
5 ; 2392332.326822909 ; 1.0918964045038497E8 ; 1.1908806412514541E7 ; 5.3130888191301125E8 ; 0.0
6 ; 2396837.091409164 ; 1.1088622370504454E8 ; 1.430113873933745E7 ; 6.404985223633962E8 ; 0.0
7 ; 2404057.118924161 ; 1.128916557570759E8 ; 1.6697975830746613E7 ; 7.513847460684407E8 ; 0.0
8 ; 2416914.3931747507 ; 1.152059393982476E8 ; 1.9102032949670773E7 ; 8.642764018255166E8 ; 0.0
9 ; 2432542.148981077 ; 1.1782907666054541E8 ; 2.1518947342845522E7 ; 9.794823412237642E8 ; 0.0
10 ; 2459179.18928823 ; 1.2076106877864444E8 ; 2.3951489491826598E7 ; 1.0973114178843095E9 ; 0.0
11 ; 2499500.1301453523 ; 1.2400191616671827E8 ; 2.6410668681114826E7 ; 1.2180724866629539E9 ; 0.0
12 ; 2565897.538783644 ; 1.275516184105933E8 ; 2.891016881126018E7 ; 1.342074402829672E9 ; 0.0
13 ; 2628896.7923928807 ; 1.3141017427559441E8 ; 3.1476066350043822E7 ; 1.4696260212402654E9 ; 0.0
14 ; 2637751.6504623294 ; 1.355775817297359E8 ; 3.4104963142436706E7 ; 1.6010361955158598E9 ; 0.0
15 ; 2639735.64841651 ; 1.4005383798124915E8 ; 3.6742714792899035E7 ; 1.7366137772455957E9 ; 0.0
16 ; 2641464.277456414 ; 1.4483893952885088E8 ; 3.938245044131555E7 ; 1.8766676152268448E9 ; 0.0
17 ; 2645380.4617812196 ; 1.4993288222269174E8 ; 4.2023914718771964E7 ; 2.0215065547556956E9 ; 0.0
18 ; 2649405.1808755454 ; 1.5533566133360457E8 ; 4.466929518055318E7 ; 2.1714394369783874E9 ; 0.0
19 ; 2651033.5066155675 ; 1.6104727162811407E8 ; 4.731870036142873E7 ; 2.3267750983119917E9 ; 0.0
20 ; 2654779.789904834 ; 1.6706770744666353E8 ; 4.9969733868044294E7 ; 2.487822369940106E9 ; 0.0
21 ; 2657855.5308139464 ; 1.7339696278265002E8 ; 5.262451365794913E7 ; 2.6548900773867693E9 ; 0.0
22 ; 2660457.256864307 ; 1.800350313601026E8 ; 5.5282369188763075E7 ; 2.8282870401694193E9 ; 0.0
23 ; 2664866.465122177 ; 1.8698190670815998E8 ; 5.7942826445627384E7 ; 3.008322071529522E9 ; 0.0
24 ; 2666533.077682371 ; 1.9423758223087144E8 ; 6.060769291074956E7 ; 3.195303978237682E9 ; 0.0
25 ; 2669794.370162594 ; 2.0049009216940823E8 ; 6.327422598843193E7 ; 3.3895415604685535E9 ; 0.0
26 ; 2672794.8342300635 ; 2.0049297769648373E8 ; 6.594402035859452E7 ; 3.590031652637962E9 ; 0.0
27 ; 2675229.8657977628 ; 2.0049600149188477E8 ; 6.861681519282459E7 ; 3.7905246303344455E9 ; 0.0
28 ; 2679511.0827015196 ; 2.0049915703286925E8 ; 7.129204505862235E7 ; 3.99102063182633E9 ; 0.0
29 ; 2681664.2548388885 ; 2.0050243792416844E8 ; 7.397155614132386E7 ; 4.1915197888591995E9 ; 0.0
30 ; 2684857.125966346 ; 2.0050583792819244E8 ; 7.665322039616275E7 ; 4.392022226783368E9 ; 0.0
31 ; 2688072.498212114 ; 2.0050935098913518E8 ; 7.933807752212909E7 ; 4.59252806471156E9 ; 0.0
32 ; 2688564.4682738557 ; 2.005129712515171E8 ; 8.20261500203412E7 ; 4.793037415700695E9 ; 0.0
33 ; 2692760.277373469 ; 2.005166930737523E8 ; 8.471471448861507E7 ; 4.993550386952212E9 ; 0.0
34 ; 2696600.4835282634 ; 2.005205110373429E8 ; 8.740747476598853E7 ; 5.194067080025965E9 ; 0.0
35 ; 2698546.5975078363 ; 2.005244199522946E8 ; 9.010407524951679E7 ; 5.394587591063308E9 ; 0.0
36 ; 2699648.468669934 ; 2.0052841485932222E8 ; 9.280262184702462E7 ; 5.595112011015602E9 ; 0.0
37 ; 2702465.7184501556 ; 2.0053249102937332E8 ; 9.550227031569456E7 ; 5.795640425874925E9 ; 0.0
38 ; 2706383.4341139984 ; 2.0053664396095163E8 ; 9.820473603414471E7 ; 5.996172916904298E9 ; 0.0
39 ; 2705175.215526526 ; 2.0054086937567312E8 ; 1.0091111946825871E8 ; 6.19670956086525E9 ; 0.0
40 ; 2709298.0347391376 ; 2.0054516321243376E8 ; 1.0361629468378523E8 ; 6.397250430240923E9 ; 0.0
41 ; 2712182.8742153873 ; 2.0054952162052023E8 ; 1.0632559271852437E8 ; 6.597795593453357E9 ; 0.0
42 ; 2712877.301184158 ; 2.0055394095194566E8 ; 1.0903777559273976E8 ; 6.798345115073877E9 ; 0.0
43 ; 2715016.033998861 ; 2.0055841775325045E8 ; 1.1175065289392392E8 ; 6.998899056025823E9 ; 0.0
44 ; 2716142.0967754447 ; 2.0056294875696716E8 ; 1.1446566892792279E8 ; 7.199457473779073E9 ; 0.0
45 ; 2719939.344908006 ; 2.005675308729146E8 ; 1.1718181102469823E8 ; 7.40002042253604E9 ; 0.0
46 ; 2719505.4400869925 ; 2.005721611794543E8 ; 1.1990175036960623E8 ; 7.600587953408955E9 ; 0.0
47 ; 2718580.7484717006 ; 2.005768369148166E8 ; 1.2262125580969322E8 ; 7.801160114588408E9 ; 0.0
48 ; 2722215.489512078 ; 2.0058155546858013E8 ; 1.2533983655816492E8 ; 8.001736951503225E9 ; 0.0
49 ; 2722520.45646381 ; 2.0058631437336963E8 ; 1.28062052047677E8 ; 8.202318506971806E9 ; 0.0
50 ; 2723028.1338038156 ; 2.0059111129681963E8 ; 1.3078457250414081E8 ; 8.402904821345175E9 ; 0.0
51 ; 2724083.695240551 ; 2.005959440338395E8 ; 1.3350760063794462E8 ; 8.603495932641994E9 ; 0.0
52 ; 2725040.017111613 ; 2.0060081049920282E8 ; 1.3623168433318517E8 ; 8.804091876675835E9 ; 0.0
53 ; 2726563.1461559427 ; 2.00605708720476E8 ; 1.3895672435029677E8 ; 9.004692687175037E9 ; 0.0
54 ; 2726258.064475907 ; 2.0061063683129266E8 ; 1.4168328749645272E8 ; 9.205298395895514E9 ; 0.0
55 ; 2727314.109054376 ; 2.006155930649758E8 ; 1.444095455609286E8 ; 9.405909032726807E9 ; 0.0
56 ; 2727629.292938229 ; 2.0062057574850413E8 ; 1.47136859669983E8 ; 9.606524625791782E9 ; 0.0
57 ; 2727998.128343828 ; 2.0062558329681563E8 ; 1.4986448896292123E8 ; 9.807145201540287E9 ; 0.0
58 ; 2729846.0557948626 ; 2.006306142074396E8 ; 1.5259248709126505E8 ; 1.0007770784837103E10 ; 0.0
59 ; 2731325.693414461 ; 2.0063566705544505E8 ; 1.5532233314705992E8 ; 1.0208401399044542E10 ; 0.0
60 ; 2728347.412359025 ; 2.006407404886934E8 ; 1.5805365884047437E8 ; 1.0409037066099987E10 ; 0.0
61 ; 2731151.2407436976 ; 2.006458332233818E8 ; 1.607820062528334E8 ; 1.060967780658868E10 ; 0.0
62 ; 2731780.1185523304 ; 2.0065094403986266E8 ; 1.635131574935771E8 ; 1.0810323639812061E10 ; 0.0
63 ; 2731062.57268749 ; 2.006560717787257E8 ; 1.6624493761212942E8 ; 1.1010974583851925E10 ; 0.0
64 ; 2731508.4043745515 ; 2.0066121533712766E8 ; 1.689760001848169E8 ; 1.1211630655630651E10 ; 0.0
65 ; 2733333.5979133463 ; 2.006663736653561E8 ; 1.7170750858919144E8 ; 1.141229187096778E10 ; 0.0
66 ; 2733827.0257713236 ; 2.006715457636136E8 ; 1.744408421871048E8 ; 1.1612958244633135E10 ; 0.0
67 ; 2733966.213278381 ; 2.006767306790085E8 ; 1.771746692128761E8 ; 1.1813629790396748E10 ; 0.0
68 ; 2734098.2472997983 ; 2.006819275027404E8 ; 1.799086354261545E8 ; 1.2014306521075756E10 ; 0.0
69 ; 2732710.3327388377 ; 2.0068713536746708E8 ; 1.8264273367345428E8 ; 1.2214988448578497E10 ; 0.0
70 ; 2734335.4882401847 ; 2.0069235344484234E8 ; 1.8537544400619313E8 ; 1.2415675583945965E10 ; 0.0
71 ; 2734518.352819456 ; 2.0069758094321296E8 ; 1.881097794944333E8 ; 1.2616367937390808E10 ; 0.0
72 ; 2735778.9032771816 ; 2.007028171054646E8 ; 1.9084429784725276E8 ; 1.281706551833402E10 ; 0.0
73 ; 2735570.0069315517 ; 2.0070806120700708E8 ; 1.9358007675052994E8 ; 1.3017768335439486E10 ; 0.0
74 ; 2735551.663647709 ; 2.0071331255388921E8 ; 1.963156467574615E8 ; 1.3218476396646492E10 ; 0.0
75 ; 2735975.432467138 ; 2.0071857048103514E8 ; 1.990511984211092E8 ; 1.341918970920038E10 ; 0.0
76 ; 2736502.328892585 ; 2.0072383435059378E8 ; 2.0178717385357633E8 ; 1.3619908279681416E10 ; 0.0
77 ; 2736843.7333028223 ; 2.0072910355039358E8 ; 2.0452367618246892E8 ; 1.382063211403201E10 ; 0.0
78 ; 2735740.38247753 ; 2.0073437749249592E8 ; 2.0726051991577175E8 ; 1.4021361217582403E10 ; 0.0
79 ; 2734361.731698964 ; 2.0073965561183995E8 ; 2.0999626029824927E8 ; 1.42220955950749E10 ; 0.0
80 ; 2734677.8962513236 ; 2.0074493736497337E8 ; 2.1273062202994823E8 ; 1.4422835250686739E10 ; 0.0
81 ; 2733550.2822971377 ; 2.007502222288626E8 ; 2.1546529992619956E8 ; 1.4623580188051712E10 ; 0.0
82 ; 2733255.9029220156 ; 2.0075550969977772E8 ; 2.181988502084967E8 ; 1.4824330410280575E10 ; 0.0
83 ; 2731084.2371503185 ; 2.0076079929224655E8 ; 2.209321061114187E8 ; 1.5025085919980352E10 ; 0.0
84 ; 2730019.135313262 ; 2.0076609053807354E8 ; 2.23663190348569E8 ; 1.5225846719272598E10 ; 0.0
85 ; 2729072.560036112 ; 2.007713829854192E8 ; 2.2639320948388228E8 ; 1.5426612809810673E10 ; 0.0
86 ; 2729012.1126822364 ; 2.0077667619793564E8 ; 2.291222820439184E8 ; 1.5627384192796091E10 ; 0.0
87 ; 2728174.6866894714 ; 2.007819697539548E8 ; 2.3185129415660062E8 ; 1.5828160868994026E10 ; 0.0
88 ; 2727042.465626987 ; 2.0078726324572602E8 ; 2.345794688432901E8 ; 1.602894283874798E10 ; 0.0
89 ; 2726468.109914032 ; 2.00792556278699E8 ; 2.3730651130891708E8 ; 1.6229730101993706E10 ; 0.0
90 ; 2724520.5030068145 ; 2.007978484708502E8 ; 2.400329794188311E8 ; 1.6430522658272406E10 ; 0.0
91 ; 2723939.2812838713 ; 2.0080313945204866E8 ; 2.4275749992183793E8 ; 1.6631320506743256E10 ; 0.0
92 ; 2723568.2538474216 ; 2.008084288634596E8 ; 2.454814392031218E8 ; 1.6832123646195305E10 ; 0.0
93 ; 2721407.690861027 ; 2.0081371635698304E8 ; 2.4820500745696923E8 ; 1.7032932075058765E10 ; 0.0
94 ; 2720423.8578668726 ; 2.008190015947249E8 ; 2.5092641514783025E8 ; 1.723374579141575E10 ; 0.0
95 ; 2719171.6162901963 ; 2.0082428424849883E8 ; 2.5364683900569713E8 ; 1.7434564793010475E10 ; 0.0
96 ; 2719184.1345530176 ; 2.0082956399935675E8 ; 2.563660106219873E8 ; 1.7635389077258972E10 ; 0.0
97 ; 2717388.881950009 ; 2.0083484053714612E8 ; 2.5908519475654033E8 ; 1.7836218641258327E10 ; 0.0
98 ; 2716318.8713530167 ; 2.0084011356009245E8 ; 2.6180258363849035E8 ; 1.8037053481795475E10 ; 0.0
99 ; 2714516.7517245854 ; 2.0084538277440518E8 ; 2.6451890250984338E8 ; 1.8237893595355568E10 ; 0.0
100 ; 2711984.277262319 ; 2.0085064789390582E8 ; 2.6723341926156795E8 ; 1.8438738978129974E10 ; 0.0
101 ; 2712890.342802877 ; 2.0085590863967675E8 ; 2.699454035388303E8 ; 1.863958962602388E10 ; 0.0
102 ; 2711504.185247491 ; 2.0086116473972923E8 ; 2.7265829388163316E8 ; 1.8840445534663555E10 ; 0.0
103 ; 2710339.5952268466 ; 2.0086641592868993E8 ; 2.7536979806688064E8 ; 1.9041306699403286E10 ; 0.0
104 ; 2708712.090898436 ; 2.0087166194750434E8 ; 2.7808013766210747E8 ; 1.9242173115331974E10 ; 0.0
105 ; 2708346.5959991803 ; 2.0087690254315645E8 ; 2.807888497530059E8 ; 1.944304477727948E10 ; 0.0
106 ; 2704810.702372544 ; 2.0088213746840322E8 ; 2.834971963490051E8 ; 1.9643921679822636E10 ; 0.0
107 ; 2705174.029498185 ; 2.0088736648152357E8 ; 2.8620200705137765E8 ; 1.984480381729104E10 ; 0.0
108 ; 2703002.1763431816 ; 2.0089258934608045E8 ; 2.889071810808758E8 ; 2.0045691183772564E10 ; 0.0
109 ; 2700118.6257238244 ; 2.008978058306957E8 ; 2.91610183257219E8 ; 2.0246583773118645E10 ; 0.0
110 ; 2697807.027709593 ; 2.0090301570883635E8 ; 2.9431030188294286E8 ; 2.044748157894934E10 ; 0.0
111 ; 2697571.987774818 ; 2.0090821875861257E8 ; 2.9700810891065246E8 ; 2.0648384594658176E10 ; 0.0
112 ; 2697848.3429770772 ; 2.0091341476258555E8 ; 2.9970568089842725E8 ; 2.084929281341679E10 ; 0.0
113 ; 2695310.2018646956 ; 2.009186035075855E8 ; 3.0240352924140435E8 ; 2.1050206228179375E10 ; 0.0
114 ; 2692727.4898134302 ; 2.0092378478453904E8 ; 3.050988394432691E8 ; 2.125112483168696E10 ; 0.0
115 ; 2692462.6393448245 ; 2.0092895838830513E8 ; 3.077915669330825E8 ; 2.1452048616471497E10 ; 0.0
116 ; 2688795.198949665 ; 2.009341241175194E8 ; 3.1048402957242733E8 ; 2.1652977574859802E10 ; 0.0
117 ; 2688308.6419023057 ; 2.0093928177444628E8 ; 3.1317282477137697E8 ; 2.185391169897732E10 ; 0.0
118 ; 2685804.480001689 ; 2.0094443116483837E8 ; 3.158611334132793E8 ; 2.2054850980751766E10 ; 0.0
119 ; 2683827.99396105 ; 2.0094957209780297E8 ; 3.18546937893281E8 ; 2.2255795411916603E10 ; 0.0
120 ; 2684722.2048043115 ; 2.009547043856749E8 ; 3.21230765887242E8 ; 2.2456744984014404E10 ; 0.0
121 ; 2681994.712658369 ; 2.0095982784389588E8 ; 3.239154880920463E8 ; 2.2657699688400078E10 ; 0.0
122 ; 2680159.8250172264 ; 2.009649422908994E8 ; 3.2659748280470467E8 ; 2.2858659516243973E10 ; 0.0
123 ; 2678738.5681009986 ; 2.0097004754800144E8 ; 3.292776426297219E8 ; 2.3059624458534874E10 ; 0.0
124 ; 2674806.150388567 ; 2.009751434392962E8 ; 3.3195638119782287E8 ; 2.3260594506082874E10 ; 0.0
125 ; 2674023.552173934 ; 2.0098022979155698E8 ; 3.346311873482114E8 ; 2.346156964952217E10 ; 0.0
126 ; 2671307.5665850146 ; 2.009853064341417E8 ; 3.373052109003853E8 ; 2.366254987931373E10 ; 0.0
127 ; 2669712.277055932 ; 2.009903731989028E8 ; 3.399765184669703E8 ; 2.386353518574787E10 ; 0.0
128 ; 2667697.767879832 ; 2.0099542992010143E8 ; 3.4264623074402624E8 ; 2.4064525558946774E10 ; 0.0
129 ; 2665863.8566780654 ; 2.0100047643432572E8 ; 3.453139285119061E8 ; 2.4265520988866875E10 ; 0.0
130 ; 2663522.1606709757 ; 2.0100551258041263E8 ; 3.4797979236858416E8 ; 2.44665214653012E10 ; 0.0
131 ; 2659232.2833393444 ; 2.0101053819937345E8 ; 3.5064331452925515E8 ; 2.4667526977881615E10 ; 0.0
132 ; 2658112.0693474496 ; 2.0101555313432297E8 ; 3.533025468125945E8 ; 2.486853751608099E10 ; 0.0
133 ; 2655662.1313733864 ; 2.0102055723041153E8 ; 3.559606588819419E8 ; 2.5069553069215313E10 ; 0.0
134 ; 2653504.429169438 ; 2.010255503347603E8 ; 3.586163210133153E8 ; 2.5270573626445724E10 ; 0.0
135 ; 2648752.71399968 ; 2.010305322963995E8 ; 3.6126982544248474E8 ; 2.5471599176780483E10 ; 0.0
136 ; 2646681.410039821 ; 2.010355029662093E8 ; 3.639185781564844E8 ; 2.567262970907688E10 ; 0.0
137 ; 2643004.8282185136 ; 2.010404621968635E8 ; 3.6656525956652427E8 ; 2.587366521204309E10 ; 0.0
138 ; 2639223.608480801 ; 2.0104540984277552E8 ; 3.692082643947428E8 ; 2.6074705674239956E10 ; 0.0
139 ; 2636265.5291972025 ; 2.0105034576004693E8 ; 3.718474880032236E8 ; 2.6275751084082733E10 ; 0.0
140 ; 2634241.3858355335 ; 2.010552698064181E8 ; 3.744837535324208E8 ; 2.647680142984278E10 ; 0.0
141 ; 2630310.408581486 ; 2.0106018184122112E8 ; 3.7711799491825634E8 ; 2.66778566996492E10 ; 0.0
142 ; 2627973.5373662887 ; 2.010650817253348E8 ; 3.7974830532683784E8 ; 2.687891688149042E10 ; 0.0
143 ; 2622495.3811015435 ; 2.010699693211414E8 ; 3.823762788642041E8 ; 2.7079981963215755E10 ; 0.0
144 ; 2620979.4629273564 ; 2.0107484449248537E8 ; 3.8499877424530566E8 ; 2.7281051932536896E10 ; 0.0
145 ; 2619266.2290958865 ; 2.0107970710463402E8 ; 3.87619753708233E8 ; 2.748212677702938E10 ; 0.0
146 ; 2616311.8052648194 ; 2.0108455702423954E8 ; 3.902390199373289E8 ; 2.7683206484134014E10 ; 0.0
147 ; 2617007.8535477486 ; 2.0108939411930278E8 ; 3.928553317425937E8 ; 2.7884291041158253E10 ; 0.0
148 ; 2613447.409095422 ; 2.0109421825913867E8 ; 3.9547233959614146E8 ; 2.8085380435277557E10 ; 0.0
149 ; 2610739.11023378 ; 2.0109902931434286E8 ; 3.9808578700523686E8 ; 2.8286474653536697E10 ; 0.0
150 ; 2606922.4865915203 ; 2.0110382715676007E8 ; 4.0069652611547065E8 ; 2.848757368285104E10 ; 0.0
151 ; 2607560.1597054587 ; 2.011086116594534E8 ; 4.0330344860206217E8 ; 2.86886775100078E10 ; 0.0
152 ; 2604096.218777721 ; 2.0111338269667515E8 ; 4.059110087617676E8 ; 2.8889786121667255E10 ; 0.0
153 ; 2602199.9321580213 ; 2.0111814014383888E8 ; 4.0851510498054534E8 ; 2.909089950436393E10 ; 0.0
154 ; 2600725.780633034 ; 2.0112288387749243E8 ; 4.1111730491270334E8 ; 2.9292017644507767E10 ; 0.0
155 ; 2597307.647881005 ; 2.0112761377529216E8 ; 4.1371803069333637E8 ; 2.9493140528385258E10 ; 0.0
156 ; 2595225.424452757 ; 2.0113232971597832E8 ; 4.163153383412174E8 ; 2.969426814216055E10 ; 0.0
157 ; 2594131.3297879673 ; 2.0113703157935125E8 ; 4.189105637656702E8 ; 2.9895400471876526E10 ; 0.0
158 ; 2590817.5994312353 ; 2.011417192462486E8 ; 4.2150469509545815E8 ; 3.0096537503455875E10 ; 0.0
159 ; 2586812.6196306436 ; 2.011463925985237E8 ; 4.2409551269488937E8 ; 3.0297679222702126E10 ; 0.0
160 ; 2586337.022094452 ; 2.011510515190244E8 ; 4.2668232531452E8 ; 3.0498825615300648E10 ; 0.0
161 ; 2582779.009579761 ; 2.0115569589157304E8 ; 4.2926866233661443E8 ; 3.069997666681967E10 ; 0.0
162 ; 2582030.991208694 ; 2.011603256009472E8 ; 4.318514413461942E8 ; 3.0901132362711246E10 ; 0.0
163 ; 2578580.5196936303 ; 2.0116494053286114E8 ; 4.344334723374029E8 ; 3.1102292688312195E10 ; 0.0
164 ; 2575971.501232352 ; 2.0116954057394794E8 ; 4.370120528570965E8 ; 3.1303457628845055E10 ; 0.0
165 ; 2575503.4391596885 ; 2.0117412561174256E8 ; 4.395880243583288E8 ; 3.1504627169419003E10 ; 0.0
166 ; 2571790.88863403 ; 2.0117869553466535E8 ; 4.421635277974885E8 ; 3.1705801295030746E10 ; 0.0
167 ; 2570290.909940986 ; 2.0118325023200622E8 ; 4.4473531868612254E8 ; 3.190697999056541E10 ; 0.0
168 ; 2566788.9807375357 ; 2.0118778959390974E8 ; 4.473056095960635E8 ; 3.2108163240797417E10 ; 0.0
169 ; 2565810.593319949 ; 2.0119231351136026E8 ; 4.49872398576801E8 ; 3.2309351030391327E10 ; 0.0
170 ; 2560965.72138099 ; 2.0119682187616825E8 ; 4.5243820917012095E8 ; 3.2510543343902687E10 ; 0.0
171 ; 2560068.5191916963 ; 2.0120131458095673E8 ; 4.5499917489150196E8 ; 3.2711740165778854E10 ; 0.0
172 ; 2557851.8526481506 ; 2.0120579151914835E8 ; 4.5755924341069365E8 ; 3.291294148035981E10 ; 0.0
173 ; 2555617.7396640545 ; 2.01210252584953E8 ; 4.601170952633418E8 ; 3.311414727187896E10 ; 0.0
174 ; 2554499.9275269946 ; 2.0121469767335606E8 ; 4.6267271300300586E8 ; 3.3315357524463913E10 ; 0.0
175 ; 2550934.942653597 ; 2.0121912668010667E8 ; 4.652272129305329E8 ; 3.3516572222137268E10 ; 0.0
176 ; 2551218.007316274 ; 2.0122353950170696E8 ; 4.6777814787318647E8 ; 3.3717791348817375E10 ; 0.0
177 ; 2549376.594888804 ; 2.0122793603540128E8 ; 4.7032936588050276E8 ; 3.391901488831908E10 ; 0.0
178 ; 2548142.3153743157 ; 2.0123231617916626E8 ; 4.7287874247539157E8 ; 3.412024282435448E10 ; 0.0
179 ; 2547372.553662859 ; 2.0123667983170077E8 ; 4.754268847907659E8 ; 3.4321475140533646E10 ; 0.0
180 ; 2545117.271577859 ; 2.012410268924167E8 ; 4.779742573444287E8 ; 3.452271182036535E10 ; 0.0
181 ; 2544375.478057018 ; 2.0124535726142982E8 ; 4.8051937461600655E8 ; 3.472395284725777E10 ; 0.0
182 ; 2543752.896615853 ; 2.0124967083955124E8 ; 4.830637500940636E8 ; 3.4925198204519196E10 ; 0.0
183 ; 2540764.231320386 ; 2.012539675282788E8 ; 4.8560750299067944E8 ; 3.512644787535875E10 ; 0.0
184 ; 2538251.1019072086 ; 2.012582472297893E8 ; 4.881482672219998E8 ; 3.532770184288703E10 ; 0.0
185 ; 2538413.537723232 ; 2.012625098469306E8 ; 4.90686518323907E8 ; 3.552896009011682E10 ; 0.0
186 ; 2535072.0219175057 ; 2.0126675528321424E8 ; 4.9322493186163026E8 ; 3.573022259996375E10 ; 0.0
187 ; 2533730.4797441917 ; 2.0127098344280836E8 ; 4.957600038835478E8 ; 3.593148935524696E10 ; 0.0
188 ; 2532123.315212173 ; 2.0127519423053074E8 ; 4.98293734363292E8 ; 3.613276033868977E10 ; 0.0
189 ; 2532433.8006138667 ; 2.0127938755184227E8 ; 5.0082585767850417E8 ; 3.63340355329203E10 ; 0.0
190 ; 2531552.10438583 ; 2.0128356331284052E8 ; 5.0335829147911805E8 ; 3.6535314920472145E10 ; 0.0
191 ; 2529322.501717128 ; 2.0128772142025375E8 ; 5.058898435835039E8 ; 3.673659848378499E10 ; 0.0
192 ; 2527618.902080431 ; 2.012918617814349E8 ; 5.0841916608522105E8 ; 3.6937886205205246E10 ; 0.0
193 ; 2527400.7460405845 ; 2.012959843043561E8 ; 5.1094678498730147E8 ; 3.713917806698668E10 ; 0.0
194 ; 2524213.3344261027 ; 2.0130008889760312E8 ; 5.1347418573334205E8 ; 3.734047405129104E10 ; 0.0
195 ; 2525347.8173091365 ; 2.0130417547037026E8 ; 5.1599839906776816E8 ; 3.7541774140188644E10 ; 0.0
196 ; 2521754.65988937 ; 2.0130824393245524E8 ; 5.185237468850773E8 ; 3.774307831565901E10 ; 0.0
197 ; 2521244.884791481 ; 2.013122941942545E8 ; 5.210455015449667E8 ; 3.794438655959147E10 ; 0.0
198 ; 2519675.5349941063 ; 2.0131632616675836E8 ; 5.235667464297582E8 ; 3.814569885378572E10 ; 0.0
199 ; 2517041.9885470597 ; 2.013203397615469E8 ; 5.260864219647523E8 ; 3.834701517995248E10 ; 0.0
