CSV File for the City 6 on Day 11
1 - Minute m 
2 - Power Consumed at minute m 
3 - Power Produced at minute m 
4 - Energy Consumed since the beginning of the day 
5 - Energy Produced since the beginning of the day 
6 - Energy Lost since the beginning of the day on lines starting from the city
 
0 ; 1.1120983540245848E7 ; 1.0546492207653132E8 ; 0.0 ; 0.0 ; 0.0
1 ; 1.1132174765266074E7 ; 1.0561274345361882E8 ; 1.1120983540245848E7 ; 1.0546492207653132E8 ; 0.0
2 ; 1.1150243487453854E7 ; 1.0606976663631782E8 ; 2.225315830551192E7 ; 2.1107766553015015E8 ; 0.0
3 ; 1.1159112567518314E7 ; 1.0683602699761999E8 ; 3.3403401792965777E7 ; 3.1714743216646796E8 ; 0.0
4 ; 1.1173238516325321E7 ; 1.0791155890953869E8 ; 4.456251436048409E7 ; 4.2398345916408795E8 ; 0.0
5 ; 1.1194711667156378E7 ; 1.092963948873263E8 ; 5.573575287680942E7 ; 5.3189501807362664E8 ; 0.0
6 ; 1.1223347871510755E7 ; 1.1099056466326615E8 ; 6.6930464543965794E7 ; 6.41191412960953E8 ; 0.0
7 ; 1.125837707135201E7 ; 1.1299409423744774E8 ; 7.815381241547655E7 ; 7.521819776242192E8 ; 0.0
8 ; 1.1309912999732265E7 ; 1.153070049655509E8 ; 8.941218948682855E7 ; 8.651760718616669E8 ; 0.0
9 ; 1.1390668781354137E7 ; 1.179293127510482E8 ; 1.0072210248656082E8 ; 9.804830768272178E8 ; 0.0
10 ; 1.1515943030131433E7 ; 1.2086102740878999E8 ; 1.1211277126791495E8 ; 1.0984123895782661E9 ; 0.0
11 ; 1.171554437698414E7 ; 1.2410215225722107E8 ; 1.2362871429804638E8 ; 1.2192734169870563E9 ; 0.0
12 ; 1.2028894403858788E7 ; 1.276526839778966E8 ; 1.3534425867503053E8 ; 1.3433755692442772E9 ; 0.0
13 ; 1.233429545300688E7 ; 1.3151261275596625E8 ; 1.473731530788893E8 ; 1.471028253222174E9 ; 0.0
14 ; 1.2370378613369912E7 ; 1.3568192268795753E8 ; 1.597074485318962E8 ; 1.60254086597814E9 ; 0.0
15 ; 1.2387149992716348E7 ; 1.4016059241819048E8 ; 1.7207782714526612E8 ; 1.7382227886660976E9 ; 0.0
16 ; 1.2399654567078067E7 ; 1.4494859594657573E8 ; 1.8446497713798246E8 ; 1.8783833810842881E9 ; 0.0
17 ; 1.241381239773105E7 ; 1.5004590354082987E8 ; 1.968646317050605E8 ; 2.0233319770308638E9 ; 0.0
18 ; 1.2424859648132114E7 ; 1.5545248268570054E8 ; 2.0927844410279155E8 ; 2.1733778805716934E9 ; 0.0
19 ; 1.2437744554148892E7 ; 1.6116829900917438E8 ; 2.2170330375092366E8 ; 2.328830363257394E9 ; 0.0
20 ; 1.2451227587156842E7 ; 1.6719331713825968E8 ; 2.3414104830507255E8 ; 2.489998662266568E9 ; 0.0
21 ; 1.2471337915676715E7 ; 1.735275014518622E8 ; 2.4659227589222938E8 ; 2.657191979404828E9 ; 0.0
22 ; 1.2485375115930272E7 ; 1.8017081671295398E8 ; 2.590636138079061E8 ; 2.8307194808566904E9 ; 0.0
23 ; 1.250046038817529E7 ; 1.8712322857488346E8 ; 2.7154898892383635E8 ; 3.0108902975696445E9 ; 0.0
24 ; 1.2512888252813566E7 ; 1.9438470396636182E8 ; 2.8404944931201166E8 ; 3.198013526144528E9 ; 0.0
25 ; 1.2527865412301673E7 ; 2.0064325226437485E8 ; 2.9656233756482524E8 ; 3.39239823011089E9 ; 0.0
26 ; 1.2538621947652495E7 ; 2.006523915102913E8 ; 3.090902029771269E8 ; 3.5930414823752646E9 ; 0.0
27 ; 1.2555691896361247E7 ; 2.006618630346036E8 ; 3.216288249247794E8 ; 3.7936938738855557E9 ; 0.0
28 ; 1.2570413434227196E7 ; 2.0067164074006072E8 ; 3.3418451682114065E8 ; 3.9943557369201593E9 ; 0.0
29 ; 1.258322525078841E7 ; 2.0068170038241026E8 ; 3.467549302553678E8 ; 4.19502737766022E9 ; 0.0
30 ; 1.2596596472982677E7 ; 2.006920195217973E8 ; 3.593381555061562E8 ; 4.39570907804263E9 ; 0.0
31 ; 1.2605680356675973E7 ; 2.0070257744877863E8 ; 3.719347519791389E8 ; 4.596401097564427E9 ; 0.0
32 ; 1.2622027339343116E7 ; 2.007133550936416E8 ; 3.845404323358149E8 ; 4.7971036750132065E9 ; 0.0
33 ; 1.2633379320834775E7 ; 2.007243349258651E8 ; 3.97162459675158E8 ; 4.997817030106848E9 ; 0.0
34 ; 1.2646042788628383E7 ; 2.0073550084894687E8 ; 4.097958389959928E8 ; 5.198541365032713E9 ; 0.0
35 ; 1.2655395054050626E7 ; 2.0074683809447077E8 ; 4.224418817846212E8 ; 5.3992768658816595E9 ; 0.0
36 ; 1.2670184441804362E7 ; 2.0075833311819014E8 ; 4.350972768386718E8 ; 5.6000237039761305E9 ; 0.0
37 ; 1.268003764122237E7 ; 2.007699735000338E8 ; 4.4776746128047615E8 ; 5.80078203709432E9 ; 0.0
38 ; 1.2688125517274499E7 ; 2.007817478492695E8 ; 4.604474989216985E8 ; 6.001552010594354E9 ; 0.0
39 ; 1.2699446504453639E7 ; 2.0079364571555176E8 ; 4.73135624438973E8 ; 6.202333758443624E9 ; 0.0
40 ; 1.270658861953969E7 ; 2.0080565750620452E8 ; 4.8583507094342667E8 ; 6.403127404159175E9 ; 0.0
41 ; 1.2717006677102232E7 ; 2.0081777440981948E8 ; 4.9854165956296635E8 ; 6.60393306166538E9 ; 0.0
42 ; 1.272532502295153E7 ; 2.0082998832606062E8 ; 5.1125866624006855E8 ; 6.804750836075199E9 ; 0.0
43 ; 1.2734330184650315E7 ; 2.0084229180143896E8 ; 5.239839912630201E8 ; 7.005580824401259E9 ; 0.0
44 ; 1.2744364303585561E7 ; 2.0085467797074103E8 ; 5.367183214476704E8 ; 7.206423116202699E9 ; 0.0
45 ; 1.274797246574708E7 ; 2.0086714050374755E8 ; 5.49462685751256E8 ; 7.40727779417344E9 ; 0.0
46 ; 1.275830289302335E7 ; 2.0087967355685797E8 ; 5.622106582170031E8 ; 7.608144934677188E9 ; 0.0
47 ; 1.2761997862018356E7 ; 2.0089227172923216E8 ; 5.749689611100265E8 ; 7.809024608234046E9 ; 0.0
48 ; 1.2763455510396555E7 ; 2.00904930023068E8 ; 5.877309589720448E8 ; 8.009916879963278E9 ; 0.0
49 ; 1.2772371701264426E7 ; 2.0091764380764988E8 ; 6.004944144824414E8 ; 8.210821809986346E9 ; 0.0
50 ; 1.2775799847797105E7 ; 2.009304087868237E8 ; 6.132667861837058E8 ; 8.411739453793996E9 ; 0.0
51 ; 1.277834914774965E7 ; 2.0094322096957633E8 ; 6.26042586031503E8 ; 8.61266986258082E9 ; 0.0
52 ; 1.2781089982211502E7 ; 2.0095607664342335E8 ; 6.388209351792526E8 ; 8.813613083550396E9 ; 0.0
53 ; 1.2789319098624058E7 ; 2.009689723503321E8 ; 6.516020251614641E8 ; 9.014569160193819E9 ; 0.0
54 ; 1.2790474258140812E7 ; 2.0098190486493158E8 ; 6.643913442600882E8 ; 9.215538132544151E9 ; 0.0
55 ; 1.2793176004538331E7 ; 2.0099487117478338E8 ; 6.77181818518229E8 ; 9.416520037409082E9 ; 0.0
56 ; 1.2795235429220533E7 ; 2.0100786846250892E8 ; 6.899749945227673E8 ; 9.617514908583866E9 ; 0.0
57 ; 1.2799438422805794E7 ; 2.010208940895889E8 ; 7.027702299519879E8 ; 9.818522777046375E9 ; 0.0
58 ; 1.280136217670934E7 ; 2.0103394558166766E8 ; 7.155696683747936E8 ; 1.0019543671135963E10 ; 0.0
59 ; 1.2803805891769087E7 ; 2.010470206152134E8 ; 7.28371030551503E8 ; 1.022057761671763E10 ; 0.0
60 ; 1.2808469257830383E7 ; 2.0106011700539973E8 ; 7.41174836443272E8 ; 1.0421624637332844E10 ; 0.0
61 ; 1.2810275731787993E7 ; 2.0107323269508713E8 ; 7.539833057011024E8 ; 1.0622684754338243E10 ; 0.0
62 ; 1.2810422601925725E7 ; 2.0108636574479663E8 ; 7.667935814328904E8 ; 1.082375798703333E10 ; 0.0
63 ; 1.2812113560343517E7 ; 2.0109951432357788E8 ; 7.796040040348161E8 ; 1.1024844352778128E10 ; 0.0
64 ; 1.281564917287213E7 ; 2.011126767006847E8 ; 7.924161175951596E8 ; 1.1225943867101706E10 ; 0.0
65 ; 1.2815971320265464E7 ; 2.0112585123797986E8 ; 8.052317667680318E8 ; 1.1427056543802391E10 ; 0.0
66 ; 1.2817822260944322E7 ; 2.011390363829987E8 ; 8.180477380882972E8 ; 1.162818239504037E10 ; 0.0
67 ; 1.282156522943173E7 ; 2.0115223066260862E8 ; 8.308655603492416E8 ; 1.182932143142337E10 ; 0.0
68 ; 1.2820434200096913E7 ; 2.0116543267720821E8 ; 8.436871255786734E8 ; 1.203047366208598E10 ; 0.0
69 ; 1.2825395460105106E7 ; 2.0117864109541482E8 ; 8.565075597787703E8 ; 1.2231639094763187E10 ; 0.0
70 ; 1.2828343500885464E7 ; 2.0119185464919513E8 ; 8.693329552388754E8 ; 1.2432817735858603E10 ; 0.0
71 ; 1.2825656775499156E7 ; 2.0120507212939772E8 ; 8.821612987397609E8 ; 1.2634009590507797E10 ; 0.0
72 ; 1.2825908115256017E7 ; 2.0121829238165072E8 ; 8.9498695551526E8 ; 1.2835214662637196E10 ; 0.0
73 ; 1.2827630558388121E7 ; 2.0123151430259106E8 ; 9.07812863630516E8 ; 1.3036432955018847E10 ; 0.0
74 ; 1.283204863476219E7 ; 2.0124473683639583E8 ; 9.206404941889042E8 ; 1.3237664469321438E10 ; 0.0
75 ; 1.2829469775094079E7 ; 2.012579589715883E8 ; 9.334725428236663E8 ; 1.3438909206157833E10 ; 0.0
76 ; 1.2833323557592234E7 ; 2.012711797380945E8 ; 9.463020125987604E8 ; 1.3640167165129421E10 ; 0.0
77 ; 1.282894218590657E7 ; 2.0128439820452827E8 ; 9.591353361563526E8 ; 1.3841438344867516E10 ; 0.0
78 ; 1.282553662218887E7 ; 2.0129761347568494E8 ; 9.719642783422592E8 ; 1.4042722743072044E10 ; 0.0
79 ; 1.2825836540494485E7 ; 2.0131082469022554E8 ; 9.847898149644481E8 ; 1.424402035654773E10 ; 0.0
80 ; 1.2821376212579831E7 ; 2.0132403101853552E8 ; 9.976156515049425E8 ; 1.4445331181237955E10 ; 0.0
81 ; 1.2812731202680727E7 ; 2.013372316607428E8 ; 1.0104370277175224E9 ; 1.464665521225649E10 ; 0.0
82 ; 1.281399273790459E7 ; 2.013504258448822E8 ; 1.0232497589202031E9 ; 1.4847992443917234E10 ; 0.0
83 ; 1.2808963467190705E7 ; 2.0136361282519388E8 ; 1.0360637516581076E9 ; 1.5049342869762117E10 ; 0.0
84 ; 1.2805196054064468E7 ; 2.0137679188054478E8 ; 1.0488727151252984E9 ; 1.525070648258731E10 ; 0.0
85 ; 1.2800707137978505E7 ; 2.013899623129631E8 ; 1.0616779111793629E9 ; 1.5452083274467855E10 ; 0.0
86 ; 1.279796482801453E7 ; 2.014031234462766E8 ; 1.0744786183173413E9 ; 1.5653473236780819E10 ; 0.0
87 ; 1.2791982807336919E7 ; 2.0141627462484652E8 ; 1.087276583145356E9 ; 1.5854876360227095E10 ; 0.0
88 ; 1.2788569824172605E7 ; 2.0142941521238944E8 ; 1.1000685659526927E9 ; 1.6056292634851942E10 ; 0.0
89 ; 1.2782634418743324E7 ; 2.0144254459088027E8 ; 1.1128571357768652E9 ; 1.6257722050064331E10 ; 0.0
90 ; 1.2777202960447276E7 ; 2.014556621595301E8 ; 1.1256397701956086E9 ; 1.645916459465521E10 ; 0.0
91 ; 1.2771502077092595E7 ; 2.014687673338328E8 ; 1.138416973156056E9 ; 1.6660620256814741E10 ; 0.0
92 ; 1.276645956013166E7 ; 2.0148185954467568E8 ; 1.1511884752331486E9 ; 1.6862089024148575E10 ; 0.0
93 ; 1.276334507330509E7 ; 2.014949382375089E8 ; 1.1639549347932801E9 ; 1.706357088369325E10 ; 0.0
94 ; 1.2759339188018922E7 ; 2.015080028715695E8 ; 1.1767182798665853E9 ; 1.726506582193076E10 ; 0.0
95 ; 1.2751582239588525E7 ; 2.0152105291915572E8 ; 1.1894776190546043E9 ; 1.746657382480233E10 ; 0.0
96 ; 1.2745347508977626E7 ; 2.0153408786494827E8 ; 1.2022292012941928E9 ; 1.7668094877721485E10 ; 0.0
97 ; 1.274030665122785E7 ; 2.0154710720537484E8 ; 1.2149745488031704E9 ; 1.7869628965586433E10 ; 0.0
98 ; 1.2734881267382303E7 ; 2.015601104480148E8 ; 1.2277148554543984E9 ; 1.807117607279181E10 ; 0.0
99 ; 1.2727672936279375E7 ; 2.015730971110414E8 ; 1.2404497367217808E9 ; 1.8272736183239822E10 ; 0.0
100 ; 1.2722566638278818E7 ; 2.0158606672269827E8 ; 1.25317740965806E9 ; 1.8474309280350864E10 ; 0.0
101 ; 1.2716160136490807E7 ; 2.0159901882080874E8 ; 1.2658999762963388E9 ; 1.8675895347073563E10 ; 0.0
102 ; 1.270995569382917E7 ; 2.0161195295231456E8 ; 1.2786161364328296E9 ; 1.887749436589437E10 ; 0.0
103 ; 1.2702953115546988E7 ; 2.0162486867284292E8 ; 1.2913260921266587E9 ; 1.9079106318846687E10 ; 0.0
104 ; 1.2698001144734746E7 ; 2.0163776554629946E8 ; 1.3040290452422056E9 ; 1.928073118751953E10 ; 0.0
105 ; 1.2692720308806019E7 ; 2.0165064314448524E8 ; 1.3167270463869405E9 ; 1.948236895306583E10 ; 0.0
106 ; 1.2687815237599526E7 ; 2.0166350104673666E8 ; 1.3294197666957464E9 ; 1.9684019596210316E10 ; 0.0
107 ; 1.267706739748057E7 ; 2.0167633883958632E8 ; 1.342107581933346E9 ; 1.9885683097257053E10 ; 0.0
108 ; 1.2667573022655483E7 ; 2.0168915611644354E8 ; 1.3547846493308265E9 ; 2.008735943609664E10 ; 0.0
109 ; 1.2663709679702247E7 ; 2.0170195247729343E8 ; 1.367452222353482E9 ; 2.0289048592213085E10 ; 0.0
110 ; 1.265378919950044E7 ; 2.017147275284131E8 ; 1.3801159320331843E9 ; 2.049075054469038E10 ; 0.0
111 ; 1.2648573500773301E7 ; 2.017274808821038E8 ; 1.3927697212326846E9 ; 2.0692465272218792E10 ; 0.0
112 ; 1.2641715188548476E7 ; 2.017402121564386E8 ; 1.4054182947334578E9 ; 2.0894192753100895E10 ; 0.0
113 ; 1.2633886024039868E7 ; 2.0175292097502363E8 ; 1.4180600099220064E9 ; 2.109593296525733E10 ; 0.0
114 ; 1.2623600674728334E7 ; 2.0176560696677297E8 ; 1.4306938959460464E9 ; 2.1297685886232357E10 ; 0.0
115 ; 1.261817285578673E7 ; 2.017782697656957E8 ; 1.4433174966207747E9 ; 2.149945149319913E10 ; 0.0
116 ; 1.260826779370344E7 ; 2.017909090106947E8 ; 1.4559356694765615E9 ; 2.170122976296483E10 ; 0.0
117 ; 1.2599713739523327E7 ; 2.0180352434537634E8 ; 1.468543937270265E9 ; 2.1903020671975525E10 ; 0.0
118 ; 1.2593549210402198E7 ; 2.0181611541787034E8 ; 1.4811436510097885E9 ; 2.21048241963209E10 ; 0.0
119 ; 1.2586260897409352E7 ; 2.0182868188065952E8 ; 1.4937372002201908E9 ; 2.230664031173877E10 ; 0.0
120 ; 1.257751588465392E7 ; 2.0184122339041823E8 ; 1.5063234611176002E9 ; 2.250846899361943E10 ; 0.0
121 ; 1.2568339361787723E7 ; 2.018537396078596E8 ; 1.518900977002254E9 ; 2.271031021700985E10 ; 0.0
122 ; 1.2557497883025454E7 ; 2.0186623019759074E8 ; 1.5314693163640418E9 ; 2.291216395661771E10 ; 0.0
123 ; 1.254787170842883E7 ; 2.0187869482797533E8 ; 1.5440268142470672E9 ; 2.31140301868153E10 ; 0.0
124 ; 1.2540405383307172E7 ; 2.0189113317100352E8 ; 1.556574685955496E9 ; 2.3315908881643276E10 ; 0.0
125 ; 1.2529731445647681E7 ; 2.0190354490216845E8 ; 1.5691150913388033E9 ; 2.351780001481428E10 ; 0.0
126 ; 1.2522170807927856E7 ; 2.01915929700349E8 ; 1.581644822784451E9 ; 2.371970355971645E10 ; 0.0
127 ; 1.2512847481995553E7 ; 2.019282872476986E8 ; 1.5941669935923789E9 ; 2.3921619489416798E10 ; 0.0
128 ; 1.25010567167838E7 ; 2.0194061722953966E8 ; 1.6066798410743744E9 ; 2.4123547776664497E10 ; 0.0
129 ; 1.2493308893395886E7 ; 2.0195291933426324E8 ; 1.6191808977911582E9 ; 2.4325488393894035E10 ; 0.0
130 ; 1.2481864036168525E7 ; 2.0196519325323367E8 ; 1.631674206684554E9 ; 2.45274413132283E10 ; 0.0
131 ; 1.2469458264038296E7 ; 2.019774386806982E8 ; 1.6441560707207227E9 ; 2.4729406506481533E10 ; 0.0
132 ; 1.2455991897623457E7 ; 2.0198965531370062E8 ; 1.656625528984761E9 ; 2.493138394516223E10 ; 0.0
133 ; 1.2442169692959607E7 ; 2.0200184285199964E8 ; 1.6690815208823845E9 ; 2.5133373600475933E10 ; 0.0
134 ; 1.2424234616046652E7 ; 2.0201400099799097E8 ; 1.681523690575344E9 ; 2.5335375443327934E10 ; 0.0
135 ; 1.2412905035901276E7 ; 2.0202612945663318E8 ; 1.6939479251913908E9 ; 2.5537389444325924E10 ; 0.0
136 ; 1.239704320338329E7 ; 2.020382279353772E8 ; 1.706360830227292E9 ; 2.573941557378256E10 ; 0.0
137 ; 1.2382759124975935E7 ; 2.0205029614409944E8 ; 1.7187578734306753E9 ; 2.5941453801717937E10 ; 0.0
138 ; 1.2368555850136254E7 ; 2.0206233379503757E8 ; 1.7311406325556512E9 ; 2.6143504097862038E10 ; 0.0
139 ; 1.2357061238630032E7 ; 2.0207434060272995E8 ; 1.7435091884057875E9 ; 2.6345566431657074E10 ; 0.0
140 ; 1.2342535177683325E7 ; 2.0208631628395763E8 ; 1.7558662496444175E9 ; 2.6547640772259804E10 ; 0.0
141 ; 1.232620756706113E7 ; 2.020982605576891E8 ; 1.7682087848221009E9 ; 2.6749727088543762E10 ; 0.0
142 ; 1.2311594662484016E7 ; 2.0211017314502782E8 ; 1.780534992389162E9 ; 2.695182534910145E10 ; 0.0
143 ; 1.2297003257963441E7 ; 2.021220537691619E8 ; 1.792846587051646E9 ; 2.715393552224648E10 ; 0.0
144 ; 1.2281093471652335E7 ; 2.0213390215531653E8 ; 1.8051435903096094E9 ; 2.735605757601564E10 ; 0.0
145 ; 1.2271159487492329E7 ; 2.0214571803070825E8 ; 1.8174246837812617E9 ; 2.7558191478170956E10 ; 0.0
146 ; 1.225880327435242E7 ; 2.0215750112450168E8 ; 1.829695843268754E9 ; 2.7760337196201664E10 ; 0.0
147 ; 1.2247549456983602E7 ; 2.02169251167768E8 ; 1.8419546465431063E9 ; 2.7962494697326164E10 ; 0.0
148 ; 1.2239584886086507E7 ; 2.0218096789344543E8 ; 1.85420219600009E9 ; 2.816466394849393E10 ; 0.0
149 ; 1.2228539292510679E7 ; 2.0219265103630158E8 ; 1.8664417808861763E9 ; 2.8366844916387375E10 ; 0.0
150 ; 1.2214671035924682E7 ; 2.0220430033289748E8 ; 1.878670320178687E9 ; 2.8569037567423676E10 ; 0.0
151 ; 1.2206567358458892E7 ; 2.0221591552155334E8 ; 1.8908849912146118E9 ; 2.8771241867756573E10 ; 0.0
152 ; 1.219650842572355E7 ; 2.022274963423156E8 ; 1.9030915585730708E9 ; 2.8973457783278126E10 ; 0.0
153 ; 1.2184525053301293E7 ; 2.0223904253692594E8 ; 1.9152880669987943E9 ; 2.917568527962044E10 ; 0.0
154 ; 1.2172937396664834E7 ; 2.022505538487913E8 ; 1.9274725920520957E9 ; 2.9377924322157368E10 ; 0.0
155 ; 1.2164539091171172E7 ; 2.0226203002295542E8 ; 1.9396455294487605E9 ; 2.958017487600616E10 ; 0.0
156 ; 1.2151766572117155E7 ; 2.0227347080607167E8 ; 1.9518100685399318E9 ; 2.9782436906029118E10 ; 0.0
157 ; 1.2144328676146658E7 ; 2.0228487594637713E8 ; 1.9639618351120489E9 ; 2.998471037683519E10 ; 0.0
158 ; 1.2127928419013457E7 ; 2.0229624519366786E8 ; 1.9761061637881956E9 ; 3.0186995252781567E10 ; 0.0
159 ; 1.2115766784725642E7 ; 2.0230757829927513E8 ; 1.988234092207209E9 ; 3.0389291497975235E10 ; 0.0
160 ; 1.2107517984359436E7 ; 2.023188750160429E8 ; 2.0003498589919348E9 ; 3.059159907627451E10 ; 0.0
161 ; 1.2099081345427444E7 ; 2.023301350983063E8 ; 2.0124573769762943E9 ; 3.0793917951290554E10 ; 0.0
162 ; 1.2085384692403005E7 ; 2.0234135830187097E8 ; 2.0245564583217218E9 ; 3.099624808638886E10 ; 0.0
163 ; 1.207446476171192E7 ; 2.0235254438399348E8 ; 2.0366418430141249E9 ; 3.119858944469073E10 ; 0.0
164 ; 1.2062587358150696E7 ; 2.023636931033625E8 ; 2.0487163077758367E9 ; 3.1400941989074726E10 ; 0.0
165 ; 1.2049764906515172E7 ; 2.0237480422008088E8 ; 2.0607788951339874E9 ; 3.160330568217809E10 ; 0.0
166 ; 1.2038934634022461E7 ; 2.0238587749564862E8 ; 2.0728286600405025E9 ; 3.180568048639817E10 ; 0.0
167 ; 1.2028812088842947E7 ; 2.0239691269294643E8 ; 2.084867594674525E9 ; 3.2008066363893818E10 ; 0.0
168 ; 1.2018267497260373E7 ; 2.0240790957622027E8 ; 2.096896406763368E9 ; 3.2210463276586765E10 ; 0.0
169 ; 1.2006506781744545E7 ; 2.0241886791106635E8 ; 2.1089146742606282E9 ; 3.2412871186162987E10 ; 0.0
170 ; 1.1993947036071131E7 ; 2.02429787464417E8 ; 2.1209211810423727E9 ; 3.2615290054074055E10 ; 0.0
171 ; 1.19802272348744E7 ; 2.024406680045271E8 ; 2.1329151280784438E9 ; 3.281771984153847E10 ; 0.0
172 ; 1.1969745877169946E7 ; 2.0245150930096108E8 ; 2.1448953553133183E9 ; 3.3020160509543E10 ; 0.0
173 ; 1.1960577657967566E7 ; 2.0246231112458077E8 ; 2.1568651011904883E9 ; 3.322261201884396E10 ; 0.0
174 ; 1.195275362605147E7 ; 2.0247307324753338E8 ; 2.168825678848456E9 ; 3.342507432996854E10 ; 0.0
175 ; 1.1943696866554255E7 ; 2.0248379544324052E8 ; 2.1807784324745073E9 ; 3.3627547403216072E10 ; 0.0
176 ; 1.1935014746535102E7 ; 2.0249447748638728E8 ; 2.1927221293410616E9 ; 3.3830031198659313E10 ; 0.0
177 ; 1.1930151126117105E7 ; 2.0250511915291226E8 ; 2.204657144087597E9 ; 3.4032525676145702E10 ; 0.0
178 ; 1.1924423488796111E7 ; 2.0251572021999758E8 ; 2.216587295213714E9 ; 3.4235030795298615E10 ; 0.0
179 ; 1.191480252528656E7 ; 2.0252628046605983E8 ; 2.2285117187025104E9 ; 3.4437546515518616E10 ; 0.0
180 ; 1.1908695063006297E7 ; 2.0253679967074123E8 ; 2.240426521227797E9 ; 3.464007279598467E10 ; 0.0
181 ; 1.190480147369594E7 ; 2.0254727761490104E8 ; 2.2523352162908034E9 ; 3.484260959565541E10 ; 0.0
182 ; 1.1894208615700068E7 ; 2.0255771408060774E8 ; 2.264240017764499E9 ; 3.504515687327031E10 ; 0.0
183 ; 1.1888851176832777E7 ; 2.0256810885113144E8 ; 2.2761342263801994E9 ; 3.5247714587350914E10 ; 0.0
184 ; 1.188100295452815E7 ; 2.0257846171093646E8 ; 2.288023077557032E9 ; 3.545028269620204E10 ; 0.0
185 ; 1.1872272018664705E7 ; 2.0258877244567463E8 ; 2.2999040805115604E9 ; 3.565286115791298E10 ; 0.0
186 ; 1.1866815425493205E7 ; 2.025990408421786E8 ; 2.3117763525302253E9 ; 3.585544993035865E10 ; 0.0
187 ; 1.1860731298192697E7 ; 2.0260926668845582E8 ; 2.3236431679557185E9 ; 3.605804897120083E10 ; 0.0
188 ; 1.1852376727981228E7 ; 2.0261944977368236E8 ; 2.335503899253911E9 ; 3.626065823788928E10 ; 0.0
189 ; 1.1848209637343092E7 ; 2.0262958988819757E8 ; 2.347356275981892E9 ; 3.6463277687662964E10 ; 0.0
190 ; 1.1839124629008578E7 ; 2.0263968682349864E8 ; 2.359204485619235E9 ; 3.666590727755116E10 ; 0.0
191 ; 1.18297130730471E7 ; 2.026497403722356E8 ; 2.371043610248244E9 ; 3.6868546964374664E10 ; 0.0
192 ; 1.1824713560640864E7 ; 2.0265975032820657E8 ; 2.382873323321291E9 ; 3.70711967047469E10 ; 0.0
193 ; 1.1816323563001946E7 ; 2.0266971648635328E8 ; 2.394698036881932E9 ; 3.727385645507511E10 ; 0.0
194 ; 1.1809184482247466E7 ; 2.0267963864275667E8 ; 2.406514360444934E9 ; 3.747652617156146E10 ; 0.0
195 ; 1.1804080526167868E7 ; 2.0268951659463304E8 ; 2.4183235449271812E9 ; 3.7679205810204216E10 ; 0.0
