CSV File for the City 4 on Day 336
1 - Minute m 
2 - Power Consumed at minute m 
3 - Power Produced at minute m 
4 - Energy Consumed since the beginning of the day 
5 - Energy Produced since the beginning of the day 
6 - Energy Lost since the beginning of the day on lines starting from the city
 
0 ; 6857401.487031794 ; 1.0659613835653725E8 ; 0.0 ; 0.0 ; 0.0
1 ; 6861105.157535355 ; 1.067466386993007E8 ; 6857401.487031794 ; 1.0659613835653725E8 ; 0.0
2 ; 6867918.0623662695 ; 1.0720617373866215E8 ; 1.3718506644567149E7 ; 2.1334277705583796E8 ; 0.0
3 ; 6876362.39115662 ; 1.0797474657165205E8 ; 2.0586424706933416E7 ; 3.205489507945001E8 ; 0.0
4 ; 6889080.204399599 ; 1.0905235996205193E8 ; 2.7462787098090038E7 ; 4.2852369736615217E8 ; 0.0
5 ; 6903006.32970169 ; 1.1043901632908905E8 ; 3.435186730248964E7 ; 5.375760573282042E8 ; 0.0
6 ; 6917082.635897956 ; 1.1213471773740199E8 ; 4.125487363219133E7 ; 6.480150736572932E8 ; 0.0
7 ; 6940076.094271829 ; 1.141394658883754E8 ; 4.817195626808929E7 ; 7.601497913946952E8 ; 0.0
8 ; 6975243.76500687 ; 1.1645326211292899E8 ; 5.511203236236112E7 ; 8.742892572830706E8 ; 0.0
9 ; 7023269.795516967 ; 1.1907610736583102E8 ; 6.208727612736799E7 ; 9.907425193959996E8 ; 0.0
10 ; 7101848.558056383 ; 1.2200800222159564E8 ; 6.911054592288496E7 ; 1.1098186267618306E9 ; 0.0
11 ; 7225037.893545966 ; 1.2524894687200388E8 ; 7.621239448094134E7 ; 1.231826628983426E9 ; 0.0
12 ; 7423498.67464142 ; 1.2879894112527469E8 ; 8.343743237448731E7 ; 1.35707557585543E9 ; 0.0
13 ; 7613458.29491697 ; 1.3265798440689391E8 ; 9.086093104912873E7 ; 1.4858745169807045E9 ; 0.0
14 ; 7637788.60953023 ; 1.368260757620933E8 ; 9.84743893440457E7 ; 1.6185325013875985E9 ; 0.0
15 ; 7645447.108740262 ; 1.4130321385995322E8 ; 1.0611217795357592E8 ; 1.7553585771496918E9 ; 0.0
16 ; 7654013.548181953 ; 1.4608939699908897E8 ; 1.1375762506231618E8 ; 1.896661791009645E9 ; 0.0
17 ; 7661371.050241348 ; 1.5118462311486194E8 ; 1.2141163861049813E8 ; 2.042751188008734E9 ; 0.0
18 ; 7672543.051720055 ; 1.5658888978804487E8 ; 1.2907300966073948E8 ; 2.1939358111235957E9 ; 0.0
19 ; 7679893.285926877 ; 1.6230219425485626E8 ; 1.3674555271245953E8 ; 2.3505247009116406E9 ; 0.0
20 ; 7688521.216578338 ; 1.683245334182656E8 ; 1.444254459983864E8 ; 2.5128268951664968E9 ; 0.0
21 ; 7696482.392083211 ; 1.746559038604649E8 ; 1.5211396721496475E8 ; 2.6811514285847626E9 ; 0.0
22 ; 7710863.32935813 ; 1.8129630185638863E8 ; 1.5981044960704795E8 ; 2.8558073324452276E9 ; 0.0
23 ; 7717181.206705822 ; 1.8824572338816255E8 ; 1.6752131293640608E8 ; 3.037103634301616E9 ; 0.0
24 ; 7729079.913706532 ; 1.955041641603527E8 ; 1.7523849414311188E8 ; 3.225349357689779E9 ; 0.0
25 ; 7735003.889648649 ; 2.017596605140712E8 ; 1.8296757405681843E8 ; 3.4208535218501315E9 ; 0.0
26 ; 7742704.894764815 ; 2.0176575548033565E8 ; 1.9070257794646707E8 ; 3.6226131823642025E9 ; 0.0
27 ; 7755710.3086385 ; 2.017722133218491E8 ; 1.9844528284123188E8 ; 3.824378937844538E9 ; 0.0
28 ; 7762168.3605210595 ; 2.017790287969353E8 ; 2.062009931498704E8 ; 4.0261511511663876E9 ; 0.0
29 ; 7772554.727710203 ; 2.0178619647011012E8 ; 2.1396316151039144E8 ; 4.2279301799633226E9 ; 0.0
30 ; 7786179.60147688 ; 2.0179371072945374E8 ; 2.2173571623810166E8 ; 4.429716376433433E9 ; 0.0
31 ; 7787881.640918389 ; 2.0180156580391744E8 ; 2.2952189583957854E8 ; 4.631510087162887E9 ; 0.0
32 ; 7797895.904241636 ; 2.0180975578046164E8 ; 2.3730977748049694E8 ; 4.8333116529668045E9 ; 0.0
33 ; 7803995.377291261 ; 2.0181827462092933E8 ; 2.4510767338473856E8 ; 5.035121408747266E9 ; 0.0
34 ; 7811981.727136548 ; 2.0182711617856795E8 ; 2.5291166876202983E8 ; 5.236939683368196E9 ; 0.0
35 ; 7821030.820282737 ; 2.0183627421412188E8 ; 2.6072365048916638E8 ; 5.438766799546763E9 ; 0.0
36 ; 7826437.6759247305 ; 2.0184574241142705E8 ; 2.6854468130944914E8 ; 5.640603073760885E9 ; 0.0
37 ; 7834726.775675479 ; 2.0185551439244795E8 ; 2.7637111898537385E8 ; 5.842448816172313E9 ; 0.0
38 ; 7843326.923171552 ; 2.01865583731707E8 ; 2.8420584576104933E8 ; 6.04430433056476E9 ; 0.0
39 ; 7847543.216155679 ; 2.018759439700653E8 ; 2.920491726842209E8 ; 6.246169914296467E9 ; 0.0
40 ; 7852683.634500486 ; 2.018865886278217E8 ; 2.998967159003766E8 ; 6.448045858266532E9 ; 0.0
41 ; 7862155.358556436 ; 2.0189751121710613E8 ; 3.077493995348771E8 ; 6.649932446894354E9 ; 0.0
42 ; 7865738.3808920905 ; 2.019087052535499E8 ; 3.156115548934336E8 ; 6.85182995811146E9 ; 0.0
43 ; 7869641.316660874 ; 2.0192016426722413E8 ; 3.2347729327432567E8 ; 7.053738663365009E9 ; 0.0
44 ; 7875312.691835268 ; 2.0193188181284216E8 ; 3.3134693459098655E8 ; 7.255658827632234E9 ; 0.0
45 ; 7881644.467881015 ; 2.019438514792295E8 ; 3.3922224728282183E8 ; 7.457590709445076E9 ; 0.0
46 ; 7884066.637139232 ; 2.0195606689806896E8 ; 3.4710389175070286E8 ; 7.659534560924306E9 ; 0.0
47 ; 7889859.681173466 ; 2.0196852175193357E8 ; 3.549879583878421E8 ; 7.861490627822375E9 ; 0.0
48 ; 7894968.88223595 ; 2.0198120978162408E8 ; 3.6287781806901556E8 ; 8.063459149574308E9 ; 0.0
49 ; 7896143.730754669 ; 2.0199412479283124E8 ; 3.707727869512515E8 ; 8.265440359355932E9 ; 0.0
50 ; 7898447.832369921 ; 2.0200726066214567E8 ; 3.786689306820062E8 ; 8.467434484148764E9 ; 0.0
51 ; 7901542.710137371 ; 2.020206113424407E8 ; 3.865673785143761E8 ; 8.66944174481091E9 ; 0.0
52 ; 7903312.490247677 ; 2.020341708676552E8 ; 3.944689212245135E8 ; 8.87146235615335E9 ; 0.0
53 ; 7906223.063574161 ; 2.0204793335700515E8 ; 4.0237223371476114E8 ; 9.073496527021006E9 ; 0.0
54 ; 7909809.5337220635 ; 2.020618930186534E8 ; 4.102784567783353E8 ; 9.275544460378012E9 ; 0.0
55 ; 7914041.183166792 ; 2.0207604415286744E8 ; 4.181882663120573E8 ; 9.477606353396666E9 ; 0.0
56 ; 7914146.837097027 ; 2.0209038115469587E8 ; 4.261023074952241E8 ; 9.679682397549534E9 ; 0.0
57 ; 7914163.959637011 ; 2.0210489851619363E8 ; 4.3401645433232117E8 ; 9.88177277870423E9 ; 0.0
58 ; 7919199.084170143 ; 2.0211959082822624E8 ; 4.4193061829195815E8 ; 1.0083877677220423E10 ; 0.0
59 ; 7923609.785502495 ; 2.0213445278188223E8 ; 4.498498173761283E8 ; 1.0285997268048649E10 ; 0.0
60 ; 7924980.545297697 ; 2.0214947916952312E8 ; 4.577734271616308E8 ; 1.048813172083053E10 ; 0.0
61 ; 7923906.2886783285 ; 2.0216466488549823E8 ; 4.656984077069285E8 ; 1.0690281200000053E10 ; 0.0
62 ; 7931140.181936975 ; 2.0218000492655215E8 ; 4.7362231399560684E8 ; 1.0892445864885551E10 ; 0.0
63 ; 7926962.510144822 ; 2.0219549439195E8 ; 4.815534541775438E8 ; 1.1094625869812103E10 ; 0.0
64 ; 7931994.623419775 ; 2.0221112848334625E8 ; 4.8948041668768865E8 ; 1.1296821364204054E10 ; 0.0
65 ; 7934136.672637325 ; 2.0222690250441948E8 ; 4.974124113111084E8 ; 1.14990324926874E10 ; 0.0
66 ; 7934622.742525459 ; 2.0224281186029702E8 ; 5.0534654798374575E8 ; 1.170125939519182E10 ; 0.0
67 ; 7937908.686653363 ; 2.022588520567894E8 ; 5.132811707262712E8 ; 1.1903502207052116E10 ; 0.0
68 ; 7936223.880403919 ; 2.0227501869945514E8 ; 5.212190794129246E8 ; 1.2105761059108906E10 ; 0.0
69 ; 7941986.512271996 ; 2.0229130749251452E8 ; 5.291553032933285E8 ; 1.2308036077808361E10 ; 0.0
70 ; 7939010.023180419 ; 2.0230771423762974E8 ; 5.370972898056005E8 ; 1.2510327385300875E10 ; 0.0
71 ; 7942951.465288301 ; 2.0232423483256796E8 ; 5.450362998287809E8 ; 1.2712635099538504E10 ; 0.0
72 ; 7941689.685607882 ; 2.0234086526976195E8 ; 5.529792512940692E8 ; 1.291495933437107E10 ; 0.0
73 ; 7942238.066597377 ; 2.023576016347832E8 ; 5.609209409796771E8 ; 1.3117300199640833E10 ; 0.0
74 ; 7945518.695166302 ; 2.0237444010473946E8 ; 5.688631790462744E8 ; 1.3319657801275616E10 ; 0.0
75 ; 7947417.098692182 ; 2.0239137694660944E8 ; 5.768086977414408E8 ; 1.3522032241380356E10 ; 0.0
76 ; 7947367.784146603 ; 2.024084085155255E8 ; 5.84756114840133E8 ; 1.3724423618326965E10 ; 0.0
77 ; 7948287.705009618 ; 2.0242553125301394E8 ; 5.927034826242795E8 ; 1.3926832026842491E10 ; 0.0
78 ; 7945628.646957466 ; 2.0244274168520272E8 ; 6.006517703292891E8 ; 1.4129257558095505E10 ; 0.0
79 ; 7946160.655216619 ; 2.024600364210045E8 ; 6.085973989762466E8 ; 1.4331700299780708E10 ; 0.0
80 ; 7946726.213291892 ; 2.0247741215028274E8 ; 6.165435596314632E8 ; 1.4534160336201714E10 ; 0.0
81 ; 7942534.856688133 ; 2.0249486564200786E8 ; 6.24490285844755E8 ; 1.4736637748351995E10 ; 0.0
82 ; 7941912.0817592 ; 2.025123937424092E8 ; 6.324328207014432E8 ; 1.4939132613994003E10 ; 0.0
83 ; 7939931.82761725 ; 2.0252999337312904E8 ; 6.403747327832024E8 ; 1.5141645007736412E10 ; 0.0
84 ; 7936234.651493704 ; 2.0254766152938294E8 ; 6.483146646108197E8 ; 1.534417500110954E10 ; 0.0
85 ; 7933793.71276521 ; 2.0256539527813128E8 ; 6.562508992623134E8 ; 1.5546722662638924E10 ; 0.0
86 ; 7933562.254210888 ; 2.0258319175626555E8 ; 6.641846929750786E8 ; 1.5749288057917055E10 ; 0.0
87 ; 7929795.534673696 ; 2.0260104816881347E8 ; 6.721182552292894E8 ; 1.595187124967332E10 ; 0.0
88 ; 7928621.808161498 ; 2.026189617871652E8 ; 6.800480507639631E8 ; 1.6154472297842134E10 ; 0.0
89 ; 7926765.268587587 ; 2.026369299473238E8 ; 6.879766725721246E8 ; 1.63570912596293E10 ; 0.0
90 ; 7927419.971444695 ; 2.0265495004818216E8 ; 6.959034378407122E8 ; 1.6559728189576622E10 ; 0.0
91 ; 7921072.043387902 ; 2.026730195498281E8 ; 7.038308578121569E8 ; 1.6762383139624804E10 ; 0.0
92 ; 7918461.747605628 ; 2.0269113597187966E8 ; 7.117519298555448E8 ; 1.6965056159174631E10 ; 0.0
93 ; 7918913.824179774 ; 2.0270929689185154E8 ; 7.196703916031505E8 ; 1.7167747295146511E10 ; 0.0
94 ; 7917269.766678521 ; 2.027274999435544E8 ; 7.275893054273303E8 ; 1.7370456592038364E10 ; 0.0
95 ; 7912002.369063536 ; 2.0274574281552738E8 ; 7.355065751940088E8 ; 1.757318409198192E10 ; 0.0
96 ; 7909778.318940931 ; 2.0276402324950466E8 ; 7.434185775630723E8 ; 1.7775929834797447E10 ; 0.0
97 ; 7906788.591635441 ; 2.0278233903891706E8 ; 7.513283558820132E8 ; 1.797869385804695E10 ; 0.0
98 ; 7905134.43333463 ; 2.0280068802742845E8 ; 7.592351444736487E8 ; 1.818147619708587E10 ; 0.0
99 ; 7901433.744869697 ; 2.0281906810750738E8 ; 7.671402789069833E8 ; 1.8384276885113297E10 ; 0.0
100 ; 7898108.146061552 ; 2.0283747721903425E8 ; 7.75041712651853E8 ; 1.8587095953220802E10 ; 0.0
101 ; 7897963.591161902 ; 2.0285591334794378E8 ; 7.829398207979145E8 ; 1.878993343043984E10 ; 0.0
102 ; 7892725.389621276 ; 2.0287437452490255E8 ; 7.908377843890764E8 ; 1.899278934378778E10 ; 0.0
103 ; 7891836.981286161 ; 2.0289285882402167E8 ; 7.987305097786976E8 ; 1.9195663718312683E10 ; 0.0
104 ; 7885853.913761556 ; 2.0291136436160403E8 ; 8.066223467599838E8 ; 1.9398556577136703E10 ; 0.0
105 ; 7883655.546949269 ; 2.0292988929492593E8 ; 8.145082006737454E8 ; 1.9601467941498306E10 ; 0.0
106 ; 7881962.124396131 ; 2.0294843182105258E8 ; 8.223918562206947E8 ; 1.9804397830793232E10 ; 0.0
107 ; 7878039.5688544335 ; 2.029669901756869E8 ; 8.302738183450907E8 ; 2.0007346262614285E10 ; 0.0
108 ; 7875246.965592989 ; 2.0298556263205117E8 ; 8.381518579139452E8 ; 2.021031325278997E10 ; 0.0
109 ; 7869317.025890423 ; 2.0300414749980125E8 ; 8.460271048795382E8 ; 2.041329881542202E10 ; 0.0
110 ; 7866447.756171949 ; 2.0302274312397197E8 ; 8.538964219054286E8 ; 2.061630296292182E10 ; 0.0
111 ; 7865953.40622001 ; 2.030413478839541E8 ; 8.617628696616006E8 ; 2.0819325706045795E10 ; 0.0
112 ; 7862004.512715224 ; 2.030599601925014E8 ; 8.696288230678205E8 ; 2.102236705392975E10 ; 0.0
113 ; 7855523.594687944 ; 2.030785784947675E8 ; 8.774908275805358E8 ; 2.122542701412225E10 ; 0.0
114 ; 7851335.519938817 ; 2.0309720126737177E8 ; 8.853463511752237E8 ; 2.1428505592617016E10 ; 0.0
115 ; 7846720.071138984 ; 2.031158270174938E8 ; 8.931976866951625E8 ; 2.1631602793884388E10 ; 0.0
116 ; 7845638.030883214 ; 2.0313445428199536E8 ; 9.010444067663015E8 ; 2.1834718620901882E10 ; 0.0
117 ; 7839363.299472876 ; 2.031530816265692E8 ; 9.088900447971847E8 ; 2.2037853075183876E10 ; 0.0
118 ; 7834170.775233995 ; 2.0317170764491457E8 ; 9.167294080966576E8 ; 2.2241006156810444E10 ; 0.0
119 ; 7830525.57829269 ; 2.031903309579379E8 ; 9.245635788718916E8 ; 2.2444177864455357E10 ; 0.0
120 ; 7827613.707826669 ; 2.0320895021297863E8 ; 9.323941044501843E8 ; 2.2647368195413296E10 ; 0.0
121 ; 7824590.30613465 ; 2.032275640830592E8 ; 9.40221718158011E8 ; 2.2850577145626274E10 ; 0.0
122 ; 7817454.91179465 ; 2.032461712661585E8 ; 9.480463084641457E8 ; 2.305380470970933E10 ; 0.0
123 ; 7812645.602730812 ; 2.0326477048450828E8 ; 9.558637633759403E8 ; 2.325705088097549E10 ; 0.0
124 ; 7808916.081737175 ; 2.0328336048391175E8 ; 9.636764089786712E8 ; 2.346031565146E10 ; 0.0
125 ; 7805459.06849542 ; 2.033019400330837E8 ; 9.714853250604084E8 ; 2.3663599011943913E10 ; 0.0
126 ; 7800761.310837444 ; 2.0332050792301157E8 ; 9.792907841289037E8 ; 2.3866900951976997E10 ; 0.0
127 ; 7797556.177777644 ; 2.0333906296633667E8 ; 9.870915454397411E8 ; 2.407022145990001E10 ; 0.0
128 ; 7791072.293502922 ; 2.033576039967554E8 ; 9.948891016175188E8 ; 2.4273560522866344E10 ; 0.0
129 ; 7787092.924925503 ; 2.0337612986843917E8 ; 1.0026801739110217E9 ; 2.44769181268631E10 ; 0.0
130 ; 7780469.156009354 ; 2.0339463945547318E8 ; 1.0104672668359472E9 ; 2.4680294256731537E10 ; 0.0
131 ; 7775394.477805609 ; 2.0341313165131268E8 ; 1.0182477359919565E9 ; 2.488368889618701E10 ; 0.0
132 ; 7765562.942790548 ; 2.0343160536825702E8 ; 1.0260231304697621E9 ; 2.5087102027838326E10 ; 0.0
133 ; 7756680.552437592 ; 2.034500595369402E8 ; 1.0337886934125526E9 ; 2.529053363320658E10 ; 0.0
134 ; 7750396.52985259 ; 2.0346849310583782E8 ; 1.0415453739649901E9 ; 2.5493983692743523E10 ; 0.0
135 ; 7742591.18802749 ; 2.0348690504078987E8 ; 1.0492957704948428E9 ; 2.569745218584936E10 ; 0.0
136 ; 7735462.676769419 ; 2.0350529432453865E8 ; 1.0570383616828703E9 ; 2.5900939090890152E10 ; 0.0
137 ; 7726834.099677405 ; 2.035236599562814E8 ; 1.0647738243596396E9 ; 2.610444438521469E10 ; 0.0
138 ; 7722176.866573358 ; 2.0354200095123735E8 ; 1.0725006584593171E9 ; 2.630796804517097E10 ; 0.0
139 ; 7711960.845597169 ; 2.0356031634022868E8 ; 1.0802228353258905E9 ; 2.6511510046122208E10 ; 0.0
140 ; 7704506.7764575 ; 2.0357860516927463E8 ; 1.0879347961714878E9 ; 2.6715070362462437E10 ; 0.0
141 ; 7696306.203107954 ; 2.0359686649919865E8 ; 1.0956393029479454E9 ; 2.691864896763171E10 ; 0.0
142 ; 7688639.473186516 ; 2.0361509940524817E8 ; 1.1033356091510534E9 ; 2.712224583413091E10 ; 0.0
143 ; 7680899.433572066 ; 2.0363330297672632E8 ; 1.11102424862424E9 ; 2.7325860933536156E10 ; 0.0
144 ; 7669388.148209527 ; 2.0365147631663552E8 ; 1.118705148057812E9 ; 2.7529494236512882E10 ; 0.0
145 ; 7667063.070352762 ; 2.0366961854133224E8 ; 1.1263745362060215E9 ; 2.7733145712829517E10 ; 0.0
146 ; 7662270.361846696 ; 2.036877287801929E8 ; 1.1340415992763743E9 ; 2.793681533137085E10 ; 0.0
147 ; 7653834.319339107 ; 2.0370580617529026E8 ; 1.141703869638221E9 ; 2.8140503060151043E10 ; 0.0
148 ; 7649514.951869206 ; 2.037238498810799E8 ; 1.14935770395756E9 ; 2.8344208866326332E10 ; 0.0
149 ; 7645747.695808884 ; 2.0374185906409714E8 ; 1.1570072189094293E9 ; 2.8547932716207413E10 ; 0.0
150 ; 7637809.5065302 ; 2.037598329026628E8 ; 1.1646529666052382E9 ; 2.875167457527151E10 ; 0.0
151 ; 7633814.404360166 ; 2.037777705865989E8 ; 1.1722907761117685E9 ; 2.8955434408174175E10 ; 0.0
152 ; 7628146.699038276 ; 2.037956713169529E8 ; 1.1799245905161285E9 ; 2.9159212178760773E10 ; 0.0
153 ; 7621194.997954683 ; 2.0381353430573082E8 ; 1.1875527372151668E9 ; 2.9363007850077724E10 ; 0.0
154 ; 7616816.709149442 ; 2.0383135877563858E8 ; 1.1951739322131214E9 ; 2.9566821384383453E10 ; 0.0
155 ; 7610819.015731687 ; 2.0384914395983163E8 ; 1.2027907489222708E9 ; 2.9770652743159092E10 ; 0.0
156 ; 7607094.132040245 ; 2.0386688910167226E8 ; 1.2104015679380023E9 ; 2.9974501887118923E10 ; 0.0
157 ; 7598775.446427668 ; 2.0388459345449457E8 ; 1.2180086620700426E9 ; 3.0178368776220596E10 ; 0.0
158 ; 7597574.102035686 ; 2.039022562813767E8 ; 1.2256074375164702E9 ; 3.038225336967509E10 ; 0.0
159 ; 7587488.71583617 ; 2.0391987685492027E8 ; 1.233205011618506E9 ; 3.0586155625956467E10 ; 0.0
160 ; 7584527.2753723385 ; 2.0393745445703653E8 ; 1.2407925003343422E9 ; 3.0790075502811386E10 ; 0.0
161 ; 7575816.806965534 ; 2.039549883787392E8 ; 1.2483770276097145E9 ; 3.099401295726842E10 ; 0.0
162 ; 7571684.590986745 ; 2.0397247791994378E8 ; 1.25595284441668E9 ; 3.119796794564716E10 ; 0.0
163 ; 7565299.959879509 ; 2.0398992238927293E8 ; 1.2635245290076668E9 ; 3.1401940423567104E10 ; 0.0
164 ; 7559956.648933011 ; 2.04007321103868E8 ; 1.2710898289675462E9 ; 3.160593034595638E10 ; 0.0
165 ; 7554583.717117276 ; 2.040246733892062E8 ; 1.2786497856164792E9 ; 3.1809937667060246E10 ; 0.0
166 ; 7548710.88805435 ; 2.0404197857892355E8 ; 1.2862043693335965E9 ; 3.201396234044945E10 ; 0.0
167 ; 7542012.893597252 ; 2.0405923601464307E8 ; 1.2937530802216508E9 ; 3.2218004319028374E10 ; 0.0
168 ; 7532745.792529334 ; 2.0407644504580843E8 ; 1.3012950931152482E9 ; 3.242206355504302E10 ; 0.0
169 ; 7529800.902973403 ; 2.0409360502952254E8 ; 1.3088278389077775E9 ; 3.2626140000088825E10 ; 0.0
170 ; 7524881.891763166 ; 2.0411071533039093E8 ; 1.316357639810751E9 ; 3.2830233605118347E10 ; 0.0
171 ; 7519120.78380759 ; 2.0412777532037035E8 ; 1.3238825217025142E9 ; 3.303434432044874E10 ; 0.0
172 ; 7514545.618769909 ; 2.041447843786214E8 ; 1.3314016424863217E9 ; 3.3238472095769108E10 ; 0.0
173 ; 7507777.494022876 ; 2.04161741891366E8 ; 1.3389161881050916E9 ; 3.3442616880147728E10 ; 0.0
174 ; 7503784.555900444 ; 2.04178647251749E8 ; 1.3464239655991144E9 ; 3.3646778622039093E10 ; 0.0
175 ; 7499577.181889535 ; 2.041954998597041E8 ; 1.3539277501550148E9 ; 3.385095726929084E10 ; 0.0
176 ; 7492055.420062733 ; 2.0421229912182358E8 ; 1.3614273273369043E9 ; 3.4055152769150543E10 ; 0.0
177 ; 7492932.262236938 ; 2.0422904445123214E8 ; 1.368919382756967E9 ; 3.4259365068272366E10 ; 0.0
178 ; 7489032.5743896905 ; 2.0424573526746452E8 ; 1.376412315019204E9 ; 3.4463594112723595E10 ; 0.0
179 ; 7485727.452151407 ; 2.0426237099634656E8 ; 1.3839013475935936E9 ; 3.466783984799106E10 ; 0.0
180 ; 7482925.780533115 ; 2.0427895106988016E8 ; 1.391387075045745E9 ; 3.4872102218987404E10 ; 0.0
181 ; 7477430.460064051 ; 2.0429547492613128E8 ; 1.398870000826278E9 ; 3.507638117005728E10 ; 0.0
182 ; 7474740.103760138 ; 2.0431194200912157E8 ; 1.406347431286342E9 ; 3.528067664498341E10 ; 0.0
183 ; 7470580.637190791 ; 2.043283517687231E8 ; 1.4138221713901021E9 ; 3.548498858699254E10 ; 0.0
184 ; 7465898.807348737 ; 2.0434470366055617E8 ; 1.421292752027293E9 ; 3.568931693876126E10 ; 0.0
185 ; 7462596.314530942 ; 2.0436099714589018E8 ; 1.4287586508346417E9 ; 3.5893661642421814E10 ; 0.0
186 ; 7458687.559741856 ; 2.0437723169154745E8 ; 1.4362212471491725E9 ; 3.60980226395677E10 ; 0.0
187 ; 7455588.553404134 ; 2.0439340676980984E8 ; 1.4436799347089145E9 ; 3.6302399871259254E10 ; 0.0
188 ; 7450160.818345696 ; 2.044095218583281E8 ; 1.4511355232623186E9 ; 3.650679327802907E10 ; 0.0
189 ; 7449677.438573595 ; 2.0442557644003388E8 ; 1.4585856840806644E9 ; 3.67112027998874E10 ; 0.0
190 ; 7443446.619893007 ; 2.0444157000305435E8 ; 1.466035361519238E9 ; 3.691562837632743E10 ; 0.0
191 ; 7439075.319402626 ; 2.0445750204062927E8 ; 1.473478808139131E9 ; 3.712006994633048E10 ; 0.0
192 ; 7435915.454228403 ; 2.0447337205103052E8 ; 1.4809178834585338E9 ; 3.732452744837111E10 ; 0.0
193 ; 7431572.092343234 ; 2.0448917953748393E8 ; 1.4883537989127622E9 ; 3.752900082042214E10 ; 0.0
194 ; 7431801.205668147 ; 2.045049240080934E8 ; 1.4957853710051055E9 ; 3.7733489999959625E10 ; 0.0
195 ; 7426915.740191234 ; 2.045206049757672E8 ; 1.5032171722107737E9 ; 3.793799492396772E10 ; 0.0
196 ; 7421681.596878106 ; 2.045362219581465E8 ; 1.510644087950965E9 ; 3.814251552894349E10 ; 0.0
197 ; 7418818.442568524 ; 2.0455177447753575E8 ; 1.518065769547843E9 ; 3.8347051750901634E10 ; 0.0
198 ; 7414378.943411684 ; 2.0456726206083533E8 ; 1.5254845879904115E9 ; 3.855160352537917E10 ; 0.0
199 ; 7410819.667309534 ; 1.963228698267923E8 ; 1.532898966933823E9 ; 3.875617078744001E10 ; 0.0
200 ; 7404938.607545194 ; 1.561061154710171E8 ; 1.5403097866011326E9 ; 3.89524936572668E10 ; 0.0
201 ; 7403083.283847737 ; 1.5577333731191844E8 ; 1.5477147252086778E9 ; 3.9108599772737816E10 ; 0.0
