CSV File for the City 3 on Day 13
1 - Minute m 
2 - Power Consumed at minute m 
3 - Power Produced at minute m 
4 - Energy Consumed since the beginning of the day 
5 - Energy Produced since the beginning of the day 
6 - Energy Lost since the beginning of the day on lines starting from the city
 
0 ; 5948804.435174119 ; 7042874.193019453 ; 0.0 ; 0.0 ; 0.0
1 ; 5955145.468167029 ; 7042874.193019453 ; 5948804.435174119 ; 7042874.193019453 ; 0.0
2 ; 5959474.95208057 ; 7042874.193019453 ; 1.1903949903341148E7 ; 1.4085748386038907E7 ; 0.0
3 ; 5966589.1060343515 ; 7042874.193019453 ; 1.786342485542172E7 ; 2.112862257905836E7 ; 0.0
4 ; 5977370.141380179 ; 7042874.193019453 ; 2.3830013961456068E7 ; 2.8171496772077814E7 ; 0.0
5 ; 5986360.972357244 ; 7042874.193019453 ; 2.9807384102836248E7 ; 3.521437096509726E7 ; 0.0
6 ; 6001792.13867329 ; 7042874.193019453 ; 3.5793745075193495E7 ; 4.225724515811671E7 ; 0.0
7 ; 6020643.9514952535 ; 7042874.193019453 ; 4.1795537213866785E7 ; 4.930011935113616E7 ; 0.0
8 ; 6050272.64218568 ; 7042874.193019453 ; 4.781618116536204E7 ; 5.634299354415561E7 ; 0.0
9 ; 6092549.248165976 ; 7042874.193019453 ; 5.386645380754772E7 ; 6.338586773717506E7 ; 0.0
10 ; 6158944.485709588 ; 7042874.193019453 ; 5.99590030557137E7 ; 7.042874193019451E7 ; 0.0
11 ; 6262815.94231054 ; 7042874.193019453 ; 6.611794754142328E7 ; 7.747161612321396E7 ; 0.0
12 ; 6428050.173805739 ; 7042874.193019453 ; 7.238076348373382E7 ; 8.451449031623341E7 ; 0.0
13 ; 6581363.337312325 ; 7042874.193019453 ; 7.880881365753956E7 ; 9.155736450925286E7 ; 0.0
14 ; 6599363.149563845 ; 7042874.193019453 ; 8.539017699485189E7 ; 9.860023870227231E7 ; 0.0
15 ; 6609143.305860839 ; 7042874.193019453 ; 9.198954014441574E7 ; 1.0564311289529176E8 ; 0.0
16 ; 6614623.488695801 ; 7042874.193019453 ; 9.859868345027657E7 ; 1.1268598708831121E8 ; 0.0
17 ; 6622079.761755871 ; 7042874.193019453 ; 1.0521330693897237E8 ; 1.1972886128133066E8 ; 0.0
18 ; 6635085.279788194 ; 7042874.193019453 ; 1.1183538670072824E8 ; 1.2677173547435011E8 ; 0.0
19 ; 6637890.9453137275 ; 7042874.193019453 ; 1.1847047198051643E8 ; 1.3381460966736956E8 ; 0.0
20 ; 6648160.135645151 ; 7042874.193019453 ; 1.2510836292583016E8 ; 1.4085748386038902E8 ; 0.0
21 ; 6657025.767177872 ; 7042874.193019453 ; 1.317565230614753E8 ; 1.4790035805340847E8 ; 0.0
22 ; 6663030.129280867 ; 7042874.193019453 ; 1.384135488286532E8 ; 1.5494323224642792E8 ; 0.0
23 ; 6671693.8244978 ; 7042874.193019453 ; 1.4507657895793405E8 ; 1.6198610643944737E8 ; 0.0
24 ; 6679293.5558882095 ; 7042874.193019453 ; 1.5174827278243184E8 ; 1.6902898063246682E8 ; 0.0
25 ; 6686621.618237778 ; 7042874.193019453 ; 1.5842756633832005E8 ; 1.7607185482548627E8 ; 0.0
26 ; 6695897.73320069 ; 7042874.193019453 ; 1.651141879565578E8 ; 1.8311472901850572E8 ; 0.0
27 ; 6705304.824216247 ; 7042874.193019453 ; 1.718100856897585E8 ; 1.9015760321152517E8 ; 0.0
28 ; 6709632.932302678 ; 7042874.193019453 ; 1.7851539051397476E8 ; 1.9720047740454462E8 ; 0.0
29 ; 6717877.791332234 ; 7042874.193019453 ; 1.8522502344627744E8 ; 2.0424335159756407E8 ; 0.0
30 ; 6725050.463686701 ; 7042874.193019453 ; 1.9194290123760968E8 ; 2.1128622579058352E8 ; 0.0
31 ; 6735626.377096458 ; 7042874.193019453 ; 1.986679517012964E8 ; 2.1832909998360297E8 ; 0.0
32 ; 6739076.416927152 ; 7042874.193019453 ; 2.0540357807839283E8 ; 2.2537197417662242E8 ; 0.0
33 ; 6747051.37124192 ; 7042874.193019453 ; 2.1214265449532E8 ; 2.3241484836964187E8 ; 0.0
34 ; 6753572.732440697 ; 7042874.193019453 ; 2.1888970586656192E8 ; 2.3945772256266132E8 ; 0.0
35 ; 6759003.009178341 ; 7042874.193019453 ; 2.2564327859900263E8 ; 2.4650059675568077E8 ; 0.0
36 ; 6765683.933525442 ; 7042874.193019453 ; 2.3240228160818097E8 ; 2.5354347094870022E8 ; 0.0
37 ; 6773302.832637348 ; 7042874.193019453 ; 2.391679655417064E8 ; 2.6058634514171967E8 ; 0.0
38 ; 6777929.380262545 ; 7042874.193019453 ; 2.4594126837434375E8 ; 2.6762921933473912E8 ; 0.0
39 ; 6782100.291990595 ; 7042874.193019453 ; 2.527191977546063E8 ; 2.746720935277586E8 ; 0.0
40 ; 6789895.663822159 ; 7042874.193019453 ; 2.595012980465969E8 ; 2.8171496772077805E8 ; 0.0
41 ; 6795614.501439384 ; 7042874.193019453 ; 2.6629119371041906E8 ; 2.887578419137975E8 ; 0.0
42 ; 6800445.305872747 ; 7042874.193019453 ; 2.7308680821185845E8 ; 2.9580071610681695E8 ; 0.0
43 ; 6802976.446356893 ; 7042874.193019453 ; 2.798872535177312E8 ; 3.028435902998364E8 ; 0.0
44 ; 6807773.366346934 ; 7042874.193019453 ; 2.866902299640881E8 ; 3.0988646449285585E8 ; 0.0
45 ; 6810615.097467661 ; 7042874.193019453 ; 2.9349800333043504E8 ; 3.169293386858753E8 ; 0.0
46 ; 6814867.223292789 ; 7042874.193019453 ; 3.003086184279027E8 ; 3.2397221287889475E8 ; 0.0
47 ; 6817302.285853847 ; 7042874.193019453 ; 3.0712348565119547E8 ; 3.310150870719142E8 ; 0.0
48 ; 6818688.159985486 ; 7042874.193019453 ; 3.139407879370493E8 ; 3.3805796126493365E8 ; 0.0
49 ; 6821613.634464261 ; 7042874.193019453 ; 3.207594760970348E8 ; 3.451008354579531E8 ; 0.0
50 ; 6823300.934081515 ; 7042874.193019453 ; 3.275810897314991E8 ; 3.5214370965097255E8 ; 0.0
51 ; 6827625.304135842 ; 7042874.193019453 ; 3.344043906655806E8 ; 3.59186583843992E8 ; 0.0
52 ; 6827666.0517423805 ; 7042874.193019453 ; 3.412320159697164E8 ; 3.6622945803701144E8 ; 0.0
53 ; 6829070.289629679 ; 7042874.193019453 ; 3.480596820214588E8 ; 3.732723322300309E8 ; 0.0
54 ; 6830801.622854679 ; 7042874.193019453 ; 3.548887523110885E8 ; 3.8031520642305034E8 ; 0.0
55 ; 6834175.056459125 ; 7042874.193019453 ; 3.6171955393394315E8 ; 3.873580806160698E8 ; 0.0
56 ; 6836449.658798647 ; 7042874.193019453 ; 3.685537289904023E8 ; 3.9440095480908924E8 ; 0.0
57 ; 6837583.329327678 ; 7042874.193019453 ; 3.753901786492009E8 ; 4.014438290021087E8 ; 0.0
58 ; 6836449.019817529 ; 7042874.193019453 ; 3.822277619785286E8 ; 4.0848670319512814E8 ; 0.0
59 ; 6839955.873915068 ; 7042874.193019453 ; 3.8906421099834615E8 ; 4.155295773881476E8 ; 0.0
60 ; 6840599.604040089 ; 7042874.193019453 ; 3.959041668722612E8 ; 4.2257245158116704E8 ; 0.0
61 ; 6843261.856532761 ; 7042874.193019453 ; 4.027447664763013E8 ; 4.296153257741865E8 ; 0.0
62 ; 6843782.951528891 ; 7042874.193019453 ; 4.0958802833283406E8 ; 4.3665819996720594E8 ; 0.0
63 ; 6844529.104935189 ; 7042874.193019453 ; 4.16431811284363E8 ; 4.437010741602254E8 ; 0.0
64 ; 6846726.423685557 ; 7042874.193019453 ; 4.2327634038929814E8 ; 4.5074394835324484E8 ; 0.0
65 ; 6847282.936043011 ; 7042874.193019453 ; 4.301230668129837E8 ; 4.577868225462643E8 ; 0.0
66 ; 6846882.985261812 ; 7042874.193019453 ; 4.369703497490267E8 ; 4.6482969673928374E8 ; 0.0
67 ; 6849809.839972396 ; 7042874.193019453 ; 4.438172327342885E8 ; 4.718725709323032E8 ; 0.0
68 ; 6849633.164872459 ; 7042874.193019453 ; 4.506670425742609E8 ; 4.7891544512532264E8 ; 0.0
69 ; 6851580.693686249 ; 7042874.193019453 ; 4.5751667573913336E8 ; 4.859583193183421E8 ; 0.0
70 ; 6850619.170618899 ; 7042874.193019453 ; 4.643682564328196E8 ; 4.9300119351136154E8 ; 0.0
71 ; 6853254.113590795 ; 7042874.193019453 ; 4.712188756034385E8 ; 5.00044067704381E8 ; 0.0
72 ; 6851458.7624539845 ; 7042874.193019453 ; 4.780721297170293E8 ; 5.0708694189740044E8 ; 0.0
73 ; 6852784.316395348 ; 7042874.193019453 ; 4.8492358847948325E8 ; 5.141298160904199E8 ; 0.0
74 ; 6854505.953937603 ; 7042874.193019453 ; 4.917763727958786E8 ; 5.2117269028343934E8 ; 0.0
75 ; 6852431.721279341 ; 7042874.193019453 ; 4.986308787498162E8 ; 5.282155644764588E8 ; 0.0
76 ; 6854305.875281015 ; 7042874.193019453 ; 5.054833104710955E8 ; 5.3525843866947824E8 ; 0.0
77 ; 6855283.662288433 ; 7042874.193019453 ; 5.1233761634637654E8 ; 5.423013128624977E8 ; 0.0
78 ; 6852231.997613494 ; 7042874.193019453 ; 5.1919290000866497E8 ; 5.493441870555172E8 ; 0.0
79 ; 6850028.298749213 ; 7042874.193019453 ; 5.2604513200627846E8 ; 5.563870612485367E8 ; 0.0
80 ; 6851945.276147648 ; 7042874.193019453 ; 5.3289516030502766E8 ; 5.634299354415562E8 ; 0.0
81 ; 6846695.82340404 ; 7042874.193019453 ; 5.397471055811753E8 ; 5.704728096345757E8 ; 0.0
82 ; 6845218.354878498 ; 7042874.193019453 ; 5.465938014045794E8 ; 5.775156838275952E8 ; 0.0
83 ; 6842951.548517385 ; 7042874.193019453 ; 5.53439019759458E8 ; 5.845585580206147E8 ; 0.0
84 ; 6839712.084615831 ; 7042874.193019453 ; 5.602819713079753E8 ; 5.916014322136343E8 ; 0.0
85 ; 6835306.4449861385 ; 7042874.193019453 ; 5.671216833925911E8 ; 5.986443064066538E8 ; 0.0
86 ; 6834922.224307299 ; 7042874.193019453 ; 5.739569898375772E8 ; 6.056871805996733E8 ; 0.0
87 ; 6833136.901782862 ; 7042874.193019453 ; 5.807919120618845E8 ; 6.127300547926928E8 ; 0.0
88 ; 6831338.729572262 ; 7042874.193019453 ; 5.876250489636674E8 ; 6.197729289857123E8 ; 0.0
89 ; 6827259.924951746 ; 7042874.193019453 ; 5.944563876932397E8 ; 6.268158031787318E8 ; 0.0
90 ; 6825204.207259846 ; 7042874.193019453 ; 6.012836476181915E8 ; 6.338586773717513E8 ; 0.0
91 ; 6822288.242369823 ; 7042874.193019453 ; 6.081088518254514E8 ; 6.409015515647708E8 ; 0.0
92 ; 6819454.445311691 ; 7042874.193019453 ; 6.149311400678211E8 ; 6.479444257577903E8 ; 0.0
93 ; 6817453.008924321 ; 7042874.193019453 ; 6.217505945131328E8 ; 6.549872999508098E8 ; 0.0
94 ; 6813311.670842171 ; 7042874.193019453 ; 6.285680475220572E8 ; 6.620301741438293E8 ; 0.0
95 ; 6810531.602671748 ; 7042874.193019453 ; 6.353813591928993E8 ; 6.690730483368489E8 ; 0.0
96 ; 6806730.497620113 ; 7042874.193019453 ; 6.421918907955711E8 ; 6.761159225298684E8 ; 0.0
97 ; 6804929.826619316 ; 7042874.193019453 ; 6.489986212931912E8 ; 6.831587967228879E8 ; 0.0
98 ; 6801547.874379619 ; 7042874.193019453 ; 6.558035511198105E8 ; 6.902016709159074E8 ; 0.0
99 ; 6798519.433106528 ; 7042874.193019453 ; 6.626050989941901E8 ; 6.972445451089269E8 ; 0.0
100 ; 6795735.57302181 ; 7042874.193019453 ; 6.694036184272966E8 ; 7.042874193019464E8 ; 0.0
101 ; 6795207.74196074 ; 7042874.193019453 ; 6.761993540003184E8 ; 7.113302934949659E8 ; 0.0
102 ; 6786319.246000269 ; 7042874.193019453 ; 6.829945617422792E8 ; 7.183731676879854E8 ; 0.0
103 ; 6783421.639636008 ; 7042874.193019453 ; 6.897808809882795E8 ; 7.254160418810049E8 ; 0.0
104 ; 6779782.397664752 ; 7042874.193019453 ; 6.965643026279155E8 ; 7.324589160740244E8 ; 0.0
105 ; 6776453.7673435975 ; 7042874.193019453 ; 7.033440850255803E8 ; 7.39501790267044E8 ; 0.0
106 ; 6774634.148796395 ; 7042874.193019453 ; 7.101205387929239E8 ; 7.465446644600635E8 ; 0.0
107 ; 6770311.004839711 ; 7042874.193019453 ; 7.168951729417204E8 ; 7.53587538653083E8 ; 0.0
108 ; 6766310.699526899 ; 7042874.193019453 ; 7.2366548394656E8 ; 7.606304128461025E8 ; 0.0
109 ; 6760417.355420724 ; 7042874.193019453 ; 7.304317946460869E8 ; 7.67673287039122E8 ; 0.0
110 ; 6757452.185847964 ; 7042874.193019453 ; 7.371922120015076E8 ; 7.747161612321415E8 ; 0.0
111 ; 6756125.538191146 ; 7042874.193019453 ; 7.439496641873556E8 ; 7.81759035425161E8 ; 0.0
112 ; 6752013.7359034065 ; 7042874.193019453 ; 7.507057897255468E8 ; 7.888019096181805E8 ; 0.0
113 ; 6745932.20244576 ; 7042874.193019453 ; 7.574578034614502E8 ; 7.958447838112E8 ; 0.0
114 ; 6742191.494639977 ; 7042874.193019453 ; 7.64203735663896E8 ; 8.028876580042195E8 ; 0.0
115 ; 6736730.960357306 ; 7042874.193019453 ; 7.70945927158536E8 ; 8.09930532197239E8 ; 0.0
116 ; 6731749.4360097265 ; 7042874.193019453 ; 7.776826581188933E8 ; 8.169734063902586E8 ; 0.0
117 ; 6726678.612830278 ; 7042874.193019453 ; 7.84414407554903E8 ; 8.240162805832781E8 ; 0.0
118 ; 6723529.816517702 ; 7042874.193019453 ; 7.911410861677333E8 ; 8.310591547762976E8 ; 0.0
119 ; 6718640.204193798 ; 7042874.193019453 ; 7.97864615984251E8 ; 8.381020289693171E8 ; 0.0
120 ; 6713305.249124573 ; 7042874.193019453 ; 8.045832561884449E8 ; 8.451449031623366E8 ; 0.0
121 ; 6708378.116396446 ; 7042874.193019453 ; 8.112965614375694E8 ; 8.521877773553561E8 ; 0.0
122 ; 6704558.835233407 ; 7042874.193019453 ; 8.180049395539658E8 ; 8.592306515483756E8 ; 0.0
123 ; 6701539.643927438 ; 7042874.193019453 ; 8.247094983891993E8 ; 8.662735257413951E8 ; 0.0
124 ; 6694137.929278922 ; 7042874.193019453 ; 8.314110380331267E8 ; 8.733163999344146E8 ; 0.0
125 ; 6687449.212535427 ; 7042874.193019453 ; 8.381051759624057E8 ; 8.803592741274341E8 ; 0.0
126 ; 6683003.63828421 ; 7042874.193019453 ; 8.447926251749411E8 ; 8.874021483204536E8 ; 0.0
127 ; 6678206.1446458865 ; 7042874.193019453 ; 8.514756288132253E8 ; 8.944450225134732E8 ; 0.0
128 ; 6674139.643215618 ; 7042874.193019453 ; 8.581538349578712E8 ; 9.014878967064927E8 ; 0.0
129 ; 6668128.63084227 ; 7042874.193019453 ; 8.648279746010869E8 ; 9.085307708995122E8 ; 0.0
130 ; 6659406.750837798 ; 7042874.193019453 ; 8.714961032319292E8 ; 9.155736450925317E8 ; 0.0
131 ; 6655954.056122694 ; 7042874.193019453 ; 8.78155509982767E8 ; 9.226165192855512E8 ; 0.0
132 ; 6647455.080901547 ; 7042874.193019453 ; 8.848114640388896E8 ; 9.296593934785707E8 ; 0.0
133 ; 6639864.953245201 ; 7042874.193019453 ; 8.914589191197912E8 ; 9.367022676715902E8 ; 0.0
134 ; 6633294.729470225 ; 7042874.193019453 ; 8.980987840730363E8 ; 9.437451418646097E8 ; 0.0
135 ; 6624814.36145961 ; 7042874.193019453 ; 9.047320788025066E8 ; 9.507880160576292E8 ; 0.0
136 ; 6617962.505523262 ; 7042874.193019453 ; 9.113568931639662E8 ; 9.578308902506487E8 ; 0.0
137 ; 6610953.30306866 ; 7042874.193019453 ; 9.179748556694894E8 ; 9.648737644436682E8 ; 0.0
138 ; 6601322.147077773 ; 7042874.193019453 ; 9.24585808972558E8 ; 9.719166386366878E8 ; 0.0
139 ; 6595261.815918442 ; 7042874.193019453 ; 9.311871311196358E8 ; 9.789595128297073E8 ; 0.0
140 ; 6584048.588718005 ; 7042874.193019453 ; 9.377823929355543E8 ; 9.860023870227268E8 ; 0.0
141 ; 6575911.358489879 ; 7042874.193019453 ; 9.443664415242723E8 ; 9.930452612157463E8 ; 0.0
142 ; 6573314.875176279 ; 7042874.193019453 ; 9.509423528827622E8 ; 1.0000881354087658E9 ; 0.0
143 ; 6562468.1797825415 ; 7042874.193019453 ; 9.575156677579385E8 ; 1.0071310096017853E9 ; 0.0
144 ; 6553622.5253355745 ; 7042874.193019453 ; 9.64078135937721E8 ; 1.0141738837948048E9 ; 0.0
145 ; 6548433.570276578 ; 7042874.193019453 ; 9.706317584630566E8 ; 1.0212167579878243E9 ; 0.0
146 ; 6541892.789744542 ; 7042874.193019453 ; 9.771801920333332E8 ; 1.0282596321808438E9 ; 0.0
147 ; 6537289.347912412 ; 7042874.193019453 ; 9.837220848230777E8 ; 1.0353025063738633E9 ; 0.0
148 ; 6531396.779275874 ; 7042874.193019453 ; 9.902593741709901E8 ; 1.0423453805668828E9 ; 0.0
149 ; 6525577.189799231 ; 7042874.193019453 ; 9.96790770950266E8 ; 1.0493882547599024E9 ; 0.0
150 ; 6520930.888040864 ; 7042874.193019453 ; 1.0033163481400652E9 ; 1.0564311289529219E9 ; 0.0
151 ; 6516134.32688767 ; 7042874.193019453 ; 1.0098372790281061E9 ; 1.0634740031459414E9 ; 0.0
152 ; 6507995.174740489 ; 7042874.193019453 ; 1.0163534133549938E9 ; 1.0705168773389609E9 ; 0.0
153 ; 6506011.492683729 ; 7042874.193019453 ; 1.0228614085297343E9 ; 1.0775597515319803E9 ; 0.0
154 ; 6497947.733648449 ; 7042874.193019453 ; 1.029367420022418E9 ; 1.0846026257249997E9 ; 0.0
155 ; 6490956.120948037 ; 7042874.193019453 ; 1.0358653677560664E9 ; 1.091645499918019E9 ; 0.0
156 ; 6485159.833001665 ; 7042874.193019453 ; 1.0423563238770145E9 ; 1.0986883741110384E9 ; 0.0
157 ; 6479994.483050752 ; 7042874.193019453 ; 1.0488414837100161E9 ; 1.1057312483040578E9 ; 0.0
158 ; 6475487.632117569 ; 7042874.193019453 ; 1.0553214781930668E9 ; 1.1127741224970772E9 ; 0.0
159 ; 6468773.415501569 ; 7042874.193019453 ; 1.0617969658251843E9 ; 1.1198169966900966E9 ; 0.0
160 ; 6460238.016999669 ; 7042874.193019453 ; 1.0682657392406859E9 ; 1.126859870883116E9 ; 0.0
161 ; 6456821.397843484 ; 7042874.193019453 ; 1.0747259772576857E9 ; 1.1339027450761354E9 ; 0.0
162 ; 6449857.245671397 ; 7042874.193019453 ; 1.0811827986555293E9 ; 1.1409456192691548E9 ; 0.0
163 ; 6444516.099387619 ; 7042874.193019453 ; 1.0876326559012008E9 ; 1.1479884934621742E9 ; 0.0
164 ; 6441299.654112592 ; 7042874.193019453 ; 1.0940771720005884E9 ; 1.1550313676551936E9 ; 0.0
165 ; 6432062.555922704 ; 7042874.193019453 ; 1.100518471654701E9 ; 1.162074241848213E9 ; 0.0
166 ; 6428242.3860877585 ; 7042874.193019453 ; 1.1069505342106237E9 ; 1.1691171160412323E9 ; 0.0
167 ; 6420105.779070249 ; 7042874.193019453 ; 1.1133787765967114E9 ; 1.1761599902342517E9 ; 0.0
168 ; 6414563.492228037 ; 7042874.193019453 ; 1.1197988823757815E9 ; 1.1832028644272711E9 ; 0.0
169 ; 6406729.337808901 ; 7042874.193019453 ; 1.1262134458680096E9 ; 1.1902457386202905E9 ; 0.0
170 ; 6402905.781709017 ; 7042874.193019453 ; 1.1326201752058184E9 ; 1.19728861281331E9 ; 0.0
171 ; 6395413.881226985 ; 7042874.193019453 ; 1.1390230809875274E9 ; 1.2043314870063293E9 ; 0.0
172 ; 6388392.319013943 ; 7042874.193019453 ; 1.1454184948687544E9 ; 1.2113743611993487E9 ; 0.0
173 ; 6383585.651220953 ; 7042874.193019453 ; 1.1518068871877682E9 ; 1.218417235392368E9 ; 0.0
174 ; 6378791.380123817 ; 7042874.193019453 ; 1.1581904728389893E9 ; 1.2254601095853875E9 ; 0.0
175 ; 6375635.111456144 ; 7042874.193019453 ; 1.164569264219113E9 ; 1.2325029837784069E9 ; 0.0
176 ; 6372493.16985595 ; 7042874.193019453 ; 1.1709448993305693E9 ; 1.2395458579714262E9 ; 0.0
177 ; 6370416.539697406 ; 7042874.193019453 ; 1.177317392500425E9 ; 1.2465887321644456E9 ; 0.0
178 ; 6367398.5677212505 ; 7042874.193019453 ; 1.1836878090401225E9 ; 1.253631606357465E9 ; 0.0
179 ; 6360553.040631122 ; 7042874.193019453 ; 1.1900552076078439E9 ; 1.2606744805504844E9 ; 0.0
180 ; 6356381.994508223 ; 7042874.193019453 ; 1.196415760648475E9 ; 1.2677173547435038E9 ; 0.0
181 ; 6353942.870290223 ; 7042874.193019453 ; 1.2027721426429832E9 ; 1.2747602289365232E9 ; 0.0
182 ; 6348562.865896087 ; 7042874.193019453 ; 1.2091260855132735E9 ; 1.2818031031295426E9 ; 0.0
183 ; 6347365.728207378 ; 7042874.193019453 ; 1.2154746483791695E9 ; 1.288845977322562E9 ; 0.0
184 ; 6345516.04289614 ; 7042874.193019453 ; 1.2218220141073768E9 ; 1.2958888515155814E9 ; 0.0
185 ; 6339242.123689013 ; 7042874.193019453 ; 1.2281675301502728E9 ; 1.3029317257086008E9 ; 0.0
186 ; 6334411.406915886 ; 7042874.193019453 ; 1.2345067722739618E9 ; 1.3099745999016201E9 ; 0.0
187 ; 6333174.851220318 ; 7042874.193019453 ; 1.2408411836808777E9 ; 1.3170174740946395E9 ; 0.0
188 ; 6328012.062312723 ; 7042874.193019453 ; 1.247174358532098E9 ; 1.324060348287659E9 ; 0.0
189 ; 6326055.568750444 ; 7042874.193019453 ; 1.253502370594411E9 ; 1.3311032224806783E9 ; 0.0
190 ; 6320579.542581699 ; 7042874.193019453 ; 1.2598284261631613E9 ; 1.3381460966736977E9 ; 0.0
191 ; 6319913.984964809 ; 7042874.193019453 ; 1.266149005705743E9 ; 1.345188970866717E9 ; 0.0
192 ; 6310655.351989388 ; 7042874.193019453 ; 1.272468919690708E9 ; 1.3522318450597365E9 ; 0.0
193 ; 6311444.837069282 ; 7042874.193019453 ; 1.2787795750426972E9 ; 1.3592747192527559E9 ; 0.0
194 ; 6306535.077928274 ; 7042874.193019453 ; 1.2850910198797665E9 ; 1.3663175934457753E9 ; 0.0
195 ; 6303083.963834464 ; 7042874.193019453 ; 1.2913975549576948E9 ; 1.3733604676387947E9 ; 0.0
196 ; 6299149.046622994 ; 7042874.193019453 ; 1.2977006389215293E9 ; 1.380403341831814E9 ; 0.0
197 ; 6297532.515559415 ; 7042874.193019453 ; 1.3039997879681523E9 ; 1.3874462160248334E9 ; 0.0
198 ; 6293129.291171099 ; 7042874.193019453 ; 1.3102973204837117E9 ; 1.3944890902178528E9 ; 0.0
199 ; 6289107.813041846 ; 7042874.193019453 ; 1.3165904497748828E9 ; 1.4015319644108722E9 ; 0.0
200 ; 6285785.046125925 ; 7042874.193019453 ; 1.3228795575879247E9 ; 1.4085748386038916E9 ; 0.0
201 ; 6281070.20241568 ; 7042874.193019453 ; 1.3291653426340506E9 ; 1.415617712796911E9 ; 0.0
202 ; 6278459.942850751 ; 7042874.193019453 ; 1.3354464128364663E9 ; 1.4226605869899304E9 ; 0.0
203 ; 6277047.229220661 ; 7042874.193019453 ; 1.3417248727793171E9 ; 1.4297034611829498E9 ; 0.0
204 ; 6270549.423236263 ; 7042874.193019453 ; 1.3480019200085378E9 ; 1.4367463353759692E9 ; 0.0
205 ; 6266071.770879316 ; 7042874.193019453 ; 1.3542724694317741E9 ; 1.4437892095689886E9 ; 0.0
206 ; 6263231.023905896 ; 7042874.193019453 ; 1.3605385412026534E9 ; 1.450832083762008E9 ; 0.0
207 ; 6260782.772196721 ; 7042874.193019453 ; 1.3668017722265594E9 ; 1.4578749579550273E9 ; 0.0
208 ; 6257378.364315698 ; 7042874.193019453 ; 1.3730625549987562E9 ; 1.4649178321480467E9 ; 0.0
