CSV File for the City 2 on Day 72
1 - Minute m 
2 - Power Consumed at minute m 
3 - Power Produced at minute m 
4 - Energy Consumed since the beginning of the day 
5 - Energy Produced since the beginning of the day 
6 - Energy Lost since the beginning of the day on lines starting from the city
 
0 ; 1780568.174783563 ; 1.0524313452677116E8 ; 0.0 ; 0.0 ; 0.0
1 ; 1782364.4743924304 ; 1.0539710336213106E8 ; 1780568.174783563 ; 1.0524313452677116E8 ; 0.0
2 ; 1784468.1054650752 ; 1.0585974987325123E8 ; 3562932.649175993 ; 2.1064023788890222E8 ; 0.0
3 ; 1786755.7658618859 ; 1.0663107450359607E8 ; 5347400.754641068 ; 3.1649998776215345E8 ; 0.0
4 ; 1790820.1736975869 ; 1.0771107765171474E8 ; 7134156.520502954 ; 4.231310622657495E8 ; 0.0
5 ; 1794189.3374669086 ; 1.0909975966865617E8 ; 8924976.69420054 ; 5.3084213991746426E8 ; 0.0
6 ; 1796317.7244059262 ; 1.107971208556402E8 ; 1.0719166031667449E7 ; 6.399418995861204E8 ; 0.0
7 ; 1803836.4326205049 ; 1.1280316146202028E8 ; 1.2515483756073374E7 ; 7.507390204417605E8 ; 0.0
8 ; 1813098.325082516 ; 1.1511788168357033E8 ; 1.431932018869388E7 ; 8.635421819037808E8 ; 0.0
9 ; 1827903.32431958 ; 1.177412816611219E8 ; 1.6132418513776395E7 ; 9.786600635873511E8 ; 0.0
10 ; 1848288.5592591546 ; 1.2067336147957438E8 ; 1.7960321838095974E7 ; 1.096401345248473E9 ; 0.0
11 ; 1882765.1582978172 ; 1.2391412116729477E8 ; 1.9808610397355128E7 ; 1.2170747067280474E9 ; 0.0
12 ; 1934934.5281536817 ; 1.2746356069591603E8 ; 2.1691375555652946E7 ; 1.340988827895342E9 ; 0.0
13 ; 1988148.4527517997 ; 1.3132167998053879E8 ; 2.3626310083806626E7 ; 1.468452388591258E9 ; 0.0
14 ; 1994306.6893847408 ; 1.3548847888033158E8 ; 2.5614458536558427E7 ; 1.599774068571797E9 ; 0.0
15 ; 1996396.118856532 ; 1.3996395719952035E8 ; 2.7608765225943167E7 ; 1.7352625474521284E9 ; 0.0
16 ; 1999286.6854372579 ; 1.447481146887518E8 ; 2.9605161344799697E7 ; 1.8752265046516488E9 ; 0.0
17 ; 2001949.8927319 ; 1.4984095104680595E8 ; 3.1604448030236956E7 ; 2.0199746193404005E9 ; 0.0
18 ; 2004686.9434438515 ; 1.5524246592263395E8 ; 3.360639792296886E7 ; 2.1698155703872066E9 ; 0.0
19 ; 2006244.5972694326 ; 1.609526589176866E8 ; 3.561108486641271E7 ; 2.3250580363098407E9 ; 0.0
20 ; 2008307.4638699705 ; 1.6697152958849952E8 ; 3.761732946368214E7 ; 2.486010695227527E9 ; 0.0
21 ; 2010201.5525006426 ; 1.7329907744949695E8 ; 3.962563692755211E7 ; 2.6529822248160267E9 ; 0.0
22 ; 2013596.4179158225 ; 1.799353019759748E8 ; 4.1635838480052754E7 ; 2.8262813022655234E9 ; 0.0
23 ; 2017020.3830742892 ; 1.8688020260722196E8 ; 4.3649434897968575E7 ; 3.006216604241498E9 ; 0.0
24 ; 2017815.999259574 ; 1.941337787497403E8 ; 4.566645528104287E7 ; 3.19309680684872E9 ; 0.0
25 ; 2021276.5607184267 ; 2.003840706787075E8 ; 4.768427128030244E7 ; 3.38723058559846E9 ; 0.0
26 ; 2023149.9321733708 ; 2.0038462557817456E8 ; 4.970554784102087E7 ; 3.587614656277168E9 ; 0.0
27 ; 2025678.5529918014 ; 2.003852120692572E8 ; 5.172869777319424E7 ; 3.7879992818553424E9 ; 0.0
28 ; 2029617.752747044 ; 2.0038582946015167E8 ; 5.375437632618604E7 ; 3.9883844939245996E9 ; 0.0
29 ; 2030351.1633971888 ; 2.003864770425493E8 ; 5.578399407893308E7 ; 4.1887703233847513E9 ; 0.0
30 ; 2032975.058345895 ; 2.0038715409470633E8 ; 5.781434524233027E7 ; 4.3891568004273E9 ; 0.0
31 ; 2034368.405636372 ; 2.003878598843927E8 ; 5.984732030067616E7 ; 4.589543954522007E9 ; 0.0
32 ; 2038009.3520078107 ; 2.0038859367170164E8 ; 6.188168870631253E7 ; 4.7899318144064E9 ; 0.0
33 ; 2039471.5496090737 ; 2.003893547117054E8 ; 6.391969805832034E7 ; 4.990320408078101E9 ; 0.0
34 ; 2040832.1087729125 ; 2.0039014225694656E8 ; 6.5959169607929416E7 ; 5.190709762789806E9 ; 0.0
35 ; 2044218.978666501 ; 2.0039095555975708E8 ; 6.800000171670233E7 ; 5.391099905046753E9 ; 0.0
36 ; 2045151.7317885906 ; 2.003917938744E8 ; 7.004422069536883E7 ; 5.59149086060651E9 ; 0.0
37 ; 2048688.5460404798 ; 2.003926564590325E8 ; 7.208937242715742E7 ; 5.79188265448091E9 ; 0.0
38 ; 2050654.4294525587 ; 2.0039354257749054E8 ; 7.413806097319789E7 ; 5.992275310939942E9 ; 0.0
39 ; 2050967.196957796 ; 2.0039445150089753E8 ; 7.618871540265045E7 ; 6.192668853517433E9 ; 0.0
40 ; 2052584.085934788 ; 2.003953825091017E8 ; 7.823968259960824E7 ; 6.393063305018331E9 ; 0.0
41 ; 2054176.4656065414 ; 2.0039633489194766E8 ; 8.029226668554303E7 ; 6.593458687527432E9 ; 0.0
42 ; 2056283.0250244953 ; 2.0039730795038998E8 ; 8.234644315114957E7 ; 6.79385502241938E9 ; 0.0
43 ; 2056250.549558669 ; 2.003983009974556E8 ; 8.440272617617406E7 ; 6.99425233036977E9 ; 0.0
44 ; 2058280.046436491 ; 2.0039931335906494E8 ; 8.645897672573273E7 ; 7.194650631367226E9 ; 0.0
45 ; 2059983.2394873605 ; 2.004003443747201E8 ; 8.851725677216922E7 ; 7.395049944726291E9 ; 0.0
46 ; 2060502.8453304404 ; 2.0040139339806947E8 ; 9.057724001165658E7 ; 7.595450289101011E9 ; 0.0
47 ; 2062661.026115457 ; 2.0040245979735893E8 ; 9.263774285698703E7 ; 7.795851682499081E9 ; 0.0
48 ; 2061995.2774254312 ; 2.004035429557779E8 ; 9.470040388310249E7 ; 7.996254142296439E9 ; 0.0
49 ; 2063832.9525481884 ; 2.004046422717107E8 ; 9.676239916052793E7 ; 8.196657685252217E9 ; 0.0
50 ; 2063363.0064769294 ; 2.0040575715890092E8 ; 9.882623211307612E7 ; 8.397062327523928E9 ; 0.0
51 ; 2064919.2766116438 ; 2.004068870465386E8 ; 1.0088959511955304E8 ; 8.597468084682829E9 ; 0.0
52 ; 2066034.8331421143 ; 2.004080313792775E8 ; 1.0295451439616469E8 ; 8.797874971729368E9 ; 0.0
53 ; 2066028.4903125712 ; 2.0040918961719045E8 ; 1.050205492293068E8 ; 8.998283003108646E9 ; 0.0
54 ; 2066711.9643614313 ; 2.0041036123567054E8 ; 1.0708657771961938E8 ; 9.198692192725838E9 ; 0.0
55 ; 2066781.986859261 ; 2.00411545725284E8 ; 1.0915328968398081E8 ; 9.399102553961508E9 ; 0.0
56 ; 2067052.418501626 ; 2.0041274259158206E8 ; 1.1122007167084007E8 ; 9.599514099686792E9 ; 0.0
57 ; 2068134.0982368507 ; 2.0041395135487682E8 ; 1.132871240893417E8 ; 9.799926842278374E9 ; 0.0
58 ; 2068594.83289488 ; 2.004151715499868E8 ; 1.1535525818757854E8 ; 1.0000340793633251E10 ; 0.0
59 ; 2068202.714289835 ; 2.0041640272595719E8 ; 1.1742385302047342E8 ; 1.0200755965183237E10 ; 0.0
60 ; 2070002.006982434 ; 2.004176444457585E8 ; 1.1949205573476325E8 ; 1.0401172367909195E10 ; 0.0
61 ; 2070486.5889085361 ; 2.004188962859686E8 ; 1.2156205774174568E8 ; 1.0601590012354954E10 ; 0.0
62 ; 2071748.1327815724 ; 2.0042015783644095E8 ; 1.2363254433065422E8 ; 1.0802008908640923E10 ; 0.0
63 ; 2069740.0328436384 ; 2.0042142869996235E8 ; 1.2570429246343578E8 ; 1.1002429066477364E10 ; 0.0
64 ; 2072712.7806096398 ; 2.0042270849190348E8 ; 1.2777403249627942E8 ; 1.1202850495177326E10 ; 0.0
65 ; 2071307.42978469 ; 2.0042399683986428E8 ; 1.2984674527688906E8 ; 1.140327320366923E10 ; 0.0
66 ; 2072776.5254537244 ; 2.004252933833167E8 ; 1.3191805270667374E8 ; 1.1603697200509094E10 ; 0.0
67 ; 2073997.8711682055 ; 2.0042659777324635E8 ; 1.3399082923212747E8 ; 1.180412249389241E10 ; 0.0
68 ; 2072457.3752805614 ; 2.0042790967179564E8 ; 1.3606482710329568E8 ; 1.2004549091665657E10 ; 0.0
69 ; 2072333.8647052066 ; 2.004292287519087E8 ; 1.3813728447857624E8 ; 1.2204977001337452E10 ; 0.0
70 ; 2074245.5093941307 ; 2.0043055469698033E8 ; 1.4020961834328145E8 ; 1.2405406230089361E10 ; 0.0
71 ; 2073224.5081323518 ; 2.004318872005096E8 ; 1.422838638526756E8 ; 1.260583678478634E10 ; 0.0
72 ; 2073433.6091094934 ; 2.0043322596575898E8 ; 1.4435708836080793E8 ; 1.280626867198685E10 ; 0.0
73 ; 2075459.4710225945 ; 2.0043457070541993E8 ; 1.4643052196991742E8 ; 1.300670189795261E10 ; 0.0
74 ; 2074054.3770696903 ; 2.004359211412856E8 ; 1.4850598144094002E8 ; 1.320713646865803E10 ; 0.0
75 ; 2073892.08015907 ; 2.0043727700393105E8 ; 1.505800358180097E8 ; 1.3407572389799314E10 ; 0.0
76 ; 2073965.5506070787 ; 2.0043863803240117E8 ; 1.5265392789816877E8 ; 1.3608009666803246E10 ; 0.0
77 ; 2075243.9869872525 ; 2.004400039739072E8 ; 1.5472789344877586E8 ; 1.3808448304835648E10 ; 0.0
78 ; 2074765.4323017148 ; 2.004413745835314E8 ; 1.5680313743576312E8 ; 1.4008888308809555E10 ; 0.0
79 ; 2073522.2991801607 ; 2.0044274962394053E8 ; 1.5887790286806482E8 ; 1.4209329683393087E10 ; 0.0
80 ; 2072870.044873328 ; 2.004441288651079E8 ; 1.6095142516724497E8 ; 1.4409772433017029E10 ; 0.0
81 ; 2073882.4116914188 ; 2.0044551208404428E8 ; 1.630242952121183E8 ; 1.4610216561882137E10 ; 0.0
82 ; 2071116.5760567295 ; 2.0044689906453747E8 ; 1.6509817762380973E8 ; 1.481066207396618E10 ; 0.0
83 ; 2070651.5645600643 ; 2.004482895969004E8 ; 1.6716929419986644E8 ; 1.5011108973030718E10 ; 0.0
84 ; 2069151.672305017 ; 2.004496834777281E8 ; 1.692399457644265E8 ; 1.5211557262627619E10 ; 0.0
85 ; 2069890.615901293 ; 2.0045108050966293E8 ; 1.7130909743673152E8 ; 1.5412006946105347E10 ; 0.0
86 ; 2068980.9804126008 ; 2.0045248050116807E8 ; 1.733789880526328E8 ; 1.561245802661501E10 ; 0.0
87 ; 2067970.63607741 ; 2.0045388326630944E8 ; 1.754479690330454E8 ; 1.5812910507116177E10 ; 0.0
88 ; 2068012.4763235205 ; 2.0045528862454537E8 ; 1.7751593966912282E8 ; 1.6013364390382486E10 ; 0.0
89 ; 2065501.4355838643 ; 2.0045669640052405E8 ; 1.7958395214544633E8 ; 1.6213819679007032E10 ; 0.0
90 ; 2065682.6763630367 ; 2.0045810642388883E8 ; 1.816494535810302E8 ; 1.6414276375407557E10 ; 0.0
91 ; 2063729.5201252047 ; 2.0045951852909058E8 ; 1.8371513625739324E8 ; 1.6614734481831446E10 ; 0.0
92 ; 2063569.6542158725 ; 2.0046093255520743E8 ; 1.8577886577751845E8 ; 1.6815194000360537E10 ; 0.0
93 ; 2062646.4551590625 ; 2.0046234834577137E8 ; 1.8784243543173432E8 ; 1.7015654932915745E10 ; 0.0
94 ; 2062822.4944092797 ; 2.0046376574860173E8 ; 1.899050818868934E8 ; 1.7216117281261517E10 ; 0.0
95 ; 2062092.2052193242 ; 2.004651846156449E8 ; 1.9196790438130268E8 ; 1.7416581047010117E10 ; 0.0
96 ; 2061763.766447599 ; 2.004666048028206E8 ; 1.94029996586522E8 ; 1.7617046231625763E10 ; 0.0
97 ; 2058298.420722961 ; 2.0046802616987407E8 ; 1.9609176035296962E8 ; 1.7817512836428585E10 ; 0.0
98 ; 2059231.9028122767 ; 2.0046944858023426E8 ; 1.9815005877369258E8 ; 1.8017980862598457E10 ; 0.0
99 ; 2058656.367614071 ; 2.0047087190087754E8 ; 2.0020929067650485E8 ; 1.821845031117869E10 ; 0.0
100 ; 2056852.876082247 ; 2.0047229600219688E8 ; 2.022679470441189E8 ; 1.841892118307957E10 ; 0.0
101 ; 2055892.4594753804 ; 2.004737207578764E8 ; 2.0432479992020115E8 ; 1.8619393479081768E10 ; 0.0
102 ; 2055381.9005008978 ; 2.0047514604477066E8 ; 2.0638069237967652E8 ; 1.8819867199839645E10 ; 0.0
103 ; 2055252.1515676049 ; 2.004765717427892E8 ; 2.084360742801774E8 ; 1.9020342345884415E10 ; 0.0
104 ; 2053472.3935054413 ; 2.004779977347854E8 ; 2.1049132643174502E8 ; 1.9220818917627205E10 ; 0.0
105 ; 2051734.0138113128 ; 2.0047942390644988E8 ; 2.1254479882525048E8 ; 1.942129691536199E10 ; 0.0
106 ; 2051798.2285999018 ; 2.004808501462084E8 ; 2.145965328390618E8 ; 1.962177633926844E10 ; 0.0
107 ; 2049191.6141970835 ; 2.0048227634512368E8 ; 2.166483310676617E8 ; 1.982225718941465E10 ; 0.0
108 ; 2049792.2570078932 ; 2.0048370239680117E8 ; 2.1869752268185878E8 ; 2.0022739465759773E10 ; 0.0
109 ; 2048444.635153039 ; 2.0048512819729877E8 ; 2.2074731493886667E8 ; 2.0223223168156574E10 ; 0.0
110 ; 2047142.776103967 ; 2.0048655364504E8 ; 2.227957595740197E8 ; 2.0423708296353874E10 ; 0.0
111 ; 2045467.4080876184 ; 2.0048797864073098E8 ; 2.2484290235012367E8 ; 2.0624194849998913E10 ; 0.0
112 ; 2045401.4418111395 ; 2.0048940308728024E8 ; 2.2688836975821128E8 ; 2.0824682828639645E10 ; 0.0
113 ; 2044006.5156797823 ; 2.0049082688972235E8 ; 2.2893377120002243E8 ; 2.1025172231726925E10 ; 0.0
114 ; 2040171.1630213463 ; 2.0049224995514408E8 ; 2.309777777157022E8 ; 2.1225663058616646E10 ; 0.0
115 ; 2040590.7603799081 ; 2.0049367219261402E8 ; 2.3301794887872356E8 ; 2.142615530857179E10 ; 0.0
116 ; 2038509.648423573 ; 2.0049509351311445E8 ; 2.3505853963910347E8 ; 2.1626648980764404E10 ; 0.0
117 ; 2038567.8703855618 ; 2.0049651382947654E8 ; 2.3709704928752705E8 ; 2.182714407427752E10 ; 0.0
118 ; 2036464.0940322329 ; 2.0049793305631763E8 ; 2.391356171579126E8 ; 2.2027640588106995E10 ; 0.0
119 ; 2037204.7899455458 ; 2.0049935110998133E8 ; 2.4117208125194484E8 ; 2.222813852116331E10 ; 0.0
120 ; 2033762.3806655935 ; 2.0050076790847978E8 ; 2.4320928604189038E8 ; 2.2428637872273293E10 ; 0.0
121 ; 2033200.0168061752 ; 2.005021833714384E8 ; 2.4524304842255598E8 ; 2.2629138640181774E10 ; 0.0
122 ; 2030644.1863464061 ; 2.005035974200427E8 ; 2.4727624843936217E8 ; 2.282964082355321E10 ; 0.0
123 ; 2029536.6906445913 ; 2.0050500997698703E8 ; 2.4930689262570858E8 ; 2.3030144420973255E10 ; 0.0
124 ; 2029334.483473781 ; 2.005064209664259E8 ; 2.5133642931635317E8 ; 2.323064943095024E10 ; 0.0
125 ; 2025375.2342283211 ; 2.0050783031392637E8 ; 2.5336576379982695E8 ; 2.3431155851916668E10 ; 0.0
126 ; 2024763.5824187726 ; 2.0050923794642314E8 ; 2.5539113903405526E8 ; 2.3631663682230595E10 ; 0.0
127 ; 2023726.2906476834 ; 2.0051064379217488E8 ; 2.5741590261647403E8 ; 2.3832172920177017E10 ; 0.0
128 ; 2022561.569188173 ; 2.0051204778072226E8 ; 2.5943962890712172E8 ; 2.4032683563969193E10 ; 0.0
129 ; 2019461.2181088065 ; 2.00513449842848E8 ; 2.614621904763099E8 ; 2.4233195611749916E10 ; 0.0
130 ; 2018337.4842215474 ; 2.0051484991053796E8 ; 2.634816516944187E8 ; 2.4433709061592766E10 ; 0.0
131 ; 2016659.1274981585 ; 2.0051624791694412E8 ; 2.6549998917864025E8 ; 2.4634223911503304E10 ; 0.0
132 ; 2014285.1927801578 ; 2.005176437963488E8 ; 2.675166483061384E8 ; 2.4834740159420246E10 ; 0.0
133 ; 2012395.179822554 ; 2.005190374841303E8 ; 2.6953093349891853E8 ; 2.5035257803216595E10 ; 0.0
134 ; 2008667.067887404 ; 2.0052042891672972E8 ; 2.715433286787411E8 ; 2.5235776840700726E10 ; 0.0
135 ; 2006172.875058843 ; 2.0052181803161934E8 ; 2.735519957466285E8 ; 2.5436297269617455E10 ; 0.0
136 ; 2005059.7096123185 ; 2.0052320476727194E8 ; 2.7555816862168735E8 ; 2.5636819087649075E10 ; 0.0
137 ; 2001893.0910282824 ; 2.0052458906313127E8 ; 2.7756322833129966E8 ; 2.5837342292416348E10 ; 0.0
138 ; 2000358.0616637773 ; 2.005259708595839E8 ; 2.7956512142232794E8 ; 2.6037866881479477E10 ; 0.0
139 ; 1998515.1586465803 ; 2.0052735009793177E8 ; 2.8156547948399174E8 ; 2.623839285233906E10 ; 0.0
140 ; 1995215.322758946 ; 2.0052872672036606E8 ; 2.835639946426383E8 ; 2.6438920202436993E10 ; 0.0
141 ; 1992242.5198149725 ; 2.0053010066994187E8 ; 2.855592099653973E8 ; 2.663944892915736E10 ; 0.0
142 ; 1990014.5946224213 ; 2.0053147189055392E8 ; 2.8755145248521227E8 ; 2.68399790298273E10 ; 0.0
143 ; 1988482.49263448 ; 2.005328403269131E8 ; 2.895414670798347E8 ; 2.7040510501717854E10 ; 0.0
144 ; 1984159.9012959905 ; 2.0053420592452386E8 ; 2.915299495724692E8 ; 2.7241043342044765E10 ; 0.0
145 ; 1984272.4526007301 ; 2.0053556862966263E8 ; 2.935141094737652E8 ; 2.7441577547969288E10 ; 0.0
146 ; 1981305.6216853652 ; 2.0053692838935676E8 ; 2.954983819263659E8 ; 2.764211311659895E10 ; 0.0
147 ; 1981404.412748328 ; 2.005382851513643E8 ; 2.974796875480513E8 ; 2.7842650044988308E10 ; 0.0
148 ; 1979102.007805143 ; 2.005396388641547E8 ; 2.9946109196079963E8 ; 2.804318833013967E10 ; 0.0
149 ; 1976762.7789439154 ; 2.0054098947689E8 ; 3.014401939686048E8 ; 2.8243727969003826E10 ; 0.0
150 ; 1976090.7665761635 ; 2.0054233693940684E8 ; 3.034169567475487E8 ; 2.8444268958480717E10 ; 0.0
151 ; 1972570.4775052322 ; 2.0054368120219895E8 ; 3.053930475141249E8 ; 2.8644811295420124E10 ; 0.0
152 ; 1972023.0672003021 ; 2.0054502221640044E8 ; 3.073656179916301E8 ; 2.8845354976622322E10 ; 0.0
153 ; 1970025.2370716974 ; 2.005463599337697E8 ; 3.093376410588304E8 ; 2.9045899998838722E10 ; 0.0
154 ; 1967786.7027514875 ; 2.0054769430667362E8 ; 3.113076662959021E8 ; 2.924644635877249E10 ; 0.0
155 ; 1966742.7939338584 ; 2.0054902528807274E8 ; 3.1327545299865353E8 ; 2.9446994053079166E10 ; 0.0
156 ; 1964859.8246415863 ; 2.0055035283150655E8 ; 3.152421957925874E8 ; 2.964754307836724E10 ; 0.0
157 ; 1962593.7774561422 ; 2.0055167689107966E8 ; 3.17207055617229E8 ; 2.9848093431198746E10 ; 0.0
158 ; 1961328.691874815 ; 2.0055299742144826E8 ; 3.1916964939468515E8 ; 3.0048645108089825E10 ; 0.0
159 ; 1959120.947250323 ; 2.00554314377807E8 ; 3.2113097808655995E8 ; 3.0249198105511272E10 ; 0.0
160 ; 1957548.298089329 ; 2.0055562771587646E8 ; 3.2309009903381026E8 ; 3.044975241988908E10 ; 0.0
161 ; 1955472.0826905584 ; 2.0055693739189106E8 ; 3.250476473318996E8 ; 3.0650308047604958E10 ; 0.0
162 ; 1953982.0078932447 ; 2.0055824336258733E8 ; 3.270031194145901E8 ; 3.085086498499685E10 ; 0.0
163 ; 1953457.263599347 ; 2.0055954558519253E8 ; 3.289571014224834E8 ; 3.1051423228359436E10 ; 0.0
164 ; 1950231.3142734598 ; 2.0056084401741382E8 ; 3.309105586860827E8 ; 3.125198277394463E10 ; 0.0
165 ; 1949487.7665238471 ; 2.0056213861742774E8 ; 3.328607900003562E8 ; 3.1452543617962044E10 ; 0.0
166 ; 1947225.1285105948 ; 2.0056342934386984E8 ; 3.3481027776688004E8 ; 3.165310575657947E10 ; 0.0
167 ; 1946001.3170421193 ; 2.0056471615582514E8 ; 3.367575028953906E8 ; 3.185366918592334E10 ; 0.0
168 ; 1944286.9915968988 ; 2.0056599901281837E8 ; 3.3870350421243274E8 ; 3.2054233902079166E10 ; 0.0
169 ; 1941332.718268255 ; 2.0056727787480497E8 ; 3.406477912040296E8 ; 3.2254799901091984E10 ; 0.0
170 ; 1939227.3625082097 ; 2.0056855270216215E8 ; 3.425891239222979E8 ; 3.245536717896679E10 ; 0.0
171 ; 1938330.4050990143 ; 2.005698234556803E8 ; 3.4452835128480613E8 ; 3.2655935731668953E10 ; 0.0
172 ; 1935460.5514850689 ; 2.0057109009655485E8 ; 3.4646668168990517E8 ; 3.2856505555124634E10 ; 0.0
173 ; 1933942.888219752 ; 2.005723525863781E8 ; 3.484021422413902E8 ; 3.3057076645221188E10 ; 0.0
174 ; 1932512.0622463422 ; 2.0057361088713166E8 ; 3.5033608512961E8 ; 3.3257648997807564E10 ; 0.0
175 ; 1931513.4835848243 ; 2.005748649611788E8 ; 3.522685971918563E8 ; 3.3458222608694695E10 ; 0.0
176 ; 1931185.5291950374 ; 2.0057611477125746E8 ; 3.5420011067544115E8 ; 3.3658797473655872E10 ; 0.0
177 ; 1930577.3407030322 ; 2.0057736028047305E8 ; 3.5613129620463616E8 ; 3.385937358842713E10 ; 0.0
178 ; 1928146.702773136 ; 2.005786014522918E8 ; 3.5806187354533917E8 ; 3.4059950948707603E10 ; 0.0
179 ; 1926639.143496402 ; 2.0057983825053424E8 ; 3.599900202481123E8 ; 3.4260529550159897E10 ; 0.0
180 ; 1925899.8651744288 ; 2.005810706393689E8 ; 3.619166593916087E8 ; 3.446110938841043E10 ; 0.0
181 ; 1924050.7419907576 ; 2.005822985833062E8 ; 3.638425592567831E8 ; 3.46616904590498E10 ; 0.0
182 ; 1922056.8974672437 ; 2.0058352204719245E8 ; 3.657666099987739E8 ; 3.48622727576331E10 ; 0.0
183 ; 1921920.3782005217 ; 2.0058474099620435E8 ; 3.676886668962411E8 ; 3.50628562796803E10 ; 0.0
184 ; 1921397.827574092 ; 2.0058595539584324E8 ; 3.6961058727444166E8 ; 3.52634410206765E10 ; 0.0
185 ; 1920034.6404562378 ; 2.0058716521192992E8 ; 3.7153198510201573E8 ; 3.546402697607234E10 ; 0.0
186 ; 1917984.9380354623 ; 2.005883704105994E8 ; 3.73452019742472E8 ; 3.566461414128427E10 ; 0.0
187 ; 1917343.518635522 ; 2.0058957095829594E8 ; 3.753700046805075E8 ; 3.586520251169487E10 ; 0.0
188 ; 1916618.2444596523 ; 2.0059076682176816E8 ; 3.77287348199143E8 ; 3.606579208265317E10 ; 0.0
189 ; 1916188.2514536954 ; 2.0059195796806446E8 ; 3.792039664436026E8 ; 3.626638284947494E10 ; 0.0
190 ; 1914416.8170136374 ; 2.0059314436452833E8 ; 3.811201546950563E8 ; 3.6466974807443E10 ; 0.0
191 ; 1912963.316282005 ; 2.005943259787941E8 ; 3.8303457151206994E8 ; 3.6667567951807526E10 ; 0.0
192 ; 1911648.5724325657 ; 2.0059550277878264E8 ; 3.84947534828352E8 ; 3.6868162277786316E10 ; 0.0
193 ; 1908862.6495031174 ; 2.0059667473269725E8 ; 3.8685918340078455E8 ; 3.70687577805651E10 ; 0.0
194 ; 1909492.9165521946 ; 2.0059784180901974E8 ; 3.8876804605028766E8 ; 3.72693544552978E10 ; 0.0
195 ; 1908719.4841289811 ; 2.0059900397650644E8 ; 3.9067753896683985E8 ; 3.746995229710682E10 ; 0.0
196 ; 1907123.833960823 ; 2.0060016120418462E8 ; 3.925862584509688E8 ; 3.767055130108333E10 ; 0.0
197 ; 1906378.2859812235 ; 2.0060131346134877E8 ; 3.9449338228492963E8 ; 3.787115146228751E10 ; 0.0
198 ; 1905174.3020568087 ; 2.006024607175572E8 ; 3.963997605709109E8 ; 3.807175277574886E10 ; 0.0
199 ; 1904253.1449593105 ; 2.006036029426286E8 ; 3.9830493487296766E8 ; 3.827235523646642E10 ; 0.0
