CSV File for the City 4 on Day 103
1 - Minute m 
2 - Power Consumed at minute m 
3 - Power Produced at minute m 
4 - Energy Consumed since the beginning of the day 
5 - Energy Produced since the beginning of the day 
6 - Energy Lost since the beginning of the day on lines starting from the city
 
0 ; 6869439.270231792 ; 1.0623378743334469E8 ; 0.0 ; 0.0 ; 0.0
1 ; 6873961.93624168 ; 1.0638435129229617E8 ; 6869439.270231792 ; 1.0623378743334469E8 ; 0.0
2 ; 6880348.32651874 ; 1.0684394060987672E8 ; 1.3743401206473472E7 ; 2.1261813872564086E8 ; 0.0
3 ; 6887896.112322759 ; 1.0761255929763299E8 ; 2.062374953299221E7 ; 3.194620793355176E8 ; 0.0
4 ; 6897223.454030456 ; 1.0869021085881358E8 ; 2.751164564531497E7 ; 4.270746386331506E8 ; 0.0
5 ; 6909476.455053975 ; 1.1007689836970264E8 ; 3.440886909934542E7 ; 5.3576484949196416E8 ; 0.0
6 ; 6928005.561025182 ; 1.1177262446292755E8 ; 4.13183455543994E7 ; 6.458417478616668E8 ; 0.0
7 ; 6949276.432901896 ; 1.1377739131294948E8 ; 4.824635111542458E7 ; 7.576143723245944E8 ; 0.0
8 ; 6982943.906402264 ; 1.1609120062392277E8 ; 5.519562754832648E7 ; 8.713917636375439E8 ; 0.0
9 ; 7035002.5147466 ; 1.1871405362008023E8 ; 6.217857145472874E7 ; 9.874829642614667E8 ; 0.0
10 ; 7109997.253680708 ; 1.2164595103877234E8 ; 6.921357396947534E7 ; 1.106197017881547E9 ; 0.0
11 ; 7236134.354514923 ; 1.248868931262531E8 ; 7.632357122315605E7 ; 1.2278429689203193E9 ; 0.0
12 ; 7431935.56957546 ; 1.2843687963626847E8 ; 8.355970557767098E7 ; 1.3527298620465724E9 ; 0.0
13 ; 7625545.575218159 ; 1.3229590983146799E8 ; 9.099164114724644E7 ; 1.4811667416828408E9 ; 0.0
14 ; 7645855.804569364 ; 1.3646398248761892E8 ; 9.861718672246459E7 ; 1.613462651514309E9 ; 0.0
15 ; 7656918.499430892 ; 1.4094109590056682E8 ; 1.0626304252703395E8 ; 1.7499266340019279E9 ; 0.0
16 ; 7664571.324422363 ; 1.4572724789585063E8 ; 1.1391996102646485E8 ; 1.8908677299024947E9 ; 0.0
17 ; 7673967.89736888 ; 1.5082243584084287E8 ; 1.2158453235088721E8 ; 2.0365949777983453E9 ; 0.0
18 ; 7682637.847731701 ; 1.5622665665925944E8 ; 1.2925850024825609E8 ; 2.1874174136391883E9 ; 0.0
19 ; 7690507.283218118 ; 1.6193990684785172E8 ; 1.369411380959878E8 ; 2.3436440702984476E9 ; 0.0
20 ; 7701087.486292053 ; 1.6796218249507305E8 ; 1.446316453792059E8 ; 2.5055839771462994E9 ; 0.0
21 ; 7706901.685324856 ; 1.742934793014923E8 ; 1.5233273286549798E8 ; 2.673546159641372E9 ; 0.0
22 ; 7721023.944277941 ; 1.8093379260171318E8 ; 1.6003963455082282E8 ; 2.8478396389428644E9 ; 0.0
23 ; 7729625.156863897 ; 1.8788311738754934E8 ; 1.6776065849510077E8 ; 3.0287734315445776E9 ; 0.0
24 ; 7737181.8341293745 ; 1.9514144833220106E8 ; 1.7549028365196466E8 ; 3.216656548932127E9 ; 0.0
25 ; 7748175.1087352615 ; 2.0139682071336392E8 ; 1.8322746548609403E8 ; 3.411797997264328E9 ; 0.0
26 ; 7756014.435450834 ; 2.0140277647554824E8 ; 1.909756405948293E8 ; 3.613194817977692E9 ; 0.0
27 ; 7767703.132568523 ; 2.0140907878066573E8 ; 1.987316550302801E8 ; 3.8145975944532404E9 ; 0.0
28 ; 7770475.996985511 ; 2.0141572128051618E8 ; 2.0649935816284865E8 ; 4.0160066732339063E9 ; 0.0
29 ; 7783087.117762509 ; 2.0142269743556482E8 ; 2.1426983415983418E8 ; 4.2174223945144224E9 ; 0.0
30 ; 7790555.425951518 ; 2.01430000540097E8 ; 2.2205292127759668E8 ; 4.418845091949987E9 ; 0.0
31 ; 7798081.119826108 ; 2.0143762374681786E8 ; 2.298434767035482E8 ; 4.620275092490085E9 ; 0.0
32 ; 7808594.029219804 ; 2.0144556009074068E8 ; 2.376415578233743E8 ; 4.821712716236902E9 ; 0.0
33 ; 7817027.496798784 ; 2.014538025122277E8 ; 2.454501518525941E8 ; 5.023158276327642E9 ; 0.0
34 ; 7821909.6516079735 ; 2.0146234387906823E8 ; 2.532671793493929E8 ; 5.22461207883987E9 ; 0.0
35 ; 7834980.33032562 ; 2.0147117700749907E8 ; 2.6108908900100085E8 ; 5.426074422718939E9 ; 0.0
36 ; 7839358.386911434 ; 2.0148029468209374E8 ; 2.689240693313265E8 ; 5.627545599726438E9 ; 0.0
37 ; 7846685.622459219 ; 2.0148968967446333E8 ; 2.7676342771823794E8 ; 5.829025894408531E9 ; 0.0
38 ; 7852964.78311624 ; 2.0149935476073235E8 ; 2.8461011334069717E8 ; 6.030515584082994E9 ; 0.0
39 ; 7860890.232100638 ; 2.0150928273776704E8 ; 2.924630781238134E8 ; 6.232014938843727E9 ; 0.0
40 ; 7864830.4230827205 ; 2.0151946643815032E8 ; 3.0032396835591406E8 ; 6.433524221581494E9 ; 0.0
41 ; 7869808.520643006 ; 2.0152989874390894E8 ; 3.0818879877899677E8 ; 6.635043688019645E9 ; 0.0
42 ; 7878281.703807928 ; 2.015405725990118E8 ; 3.1605860729963976E8 ; 6.836573586763554E9 ; 0.0
43 ; 7882894.256802803 ; 2.0155148102066684E8 ; 3.239368890034477E8 ; 7.038114159362565E9 ; 0.0
44 ; 7887825.846744942 ; 2.0156261710945362E8 ; 3.318197832602505E8 ; 7.239665640383232E9 ; 0.0
45 ; 7894158.99109525 ; 2.0157397405833447E8 ; 3.3970760910699546E8 ; 7.441228257492685E9 ; 0.0
46 ; 7897484.434785897 ; 2.0158554516059375E8 ; 3.476017680980907E8 ; 7.64280223155102E9 ; 0.0
47 ; 7901217.912253907 ; 2.0159732381675795E8 ; 3.554992525328766E8 ; 7.844387776711614E9 ; 0.0
48 ; 7902558.360167995 ; 2.016093035405532E8 ; 3.634004704451305E8 ; 8.045985100528372E9 ; 0.0
49 ; 7909017.653068423 ; 2.0162147796395814E8 ; 3.713030288052985E8 ; 8.247594404068925E9 ; 0.0
50 ; 7908989.770142565 ; 2.0163384084141165E8 ; 3.7921204645836693E8 ; 8.449215882032883E9 ; 0.0
51 ; 7913661.782591169 ; 2.0164638605323485E8 ; 3.871210362285095E8 ; 8.650849722874294E9 ; 0.0
52 ; 7917032.635829195 ; 2.0165910760832644E8 ; 3.9503469801110065E8 ; 8.852496108927528E9 ; 0.0
53 ; 7918649.807719473 ; 2.0167199964618936E8 ; 4.0295173064692986E8 ; 9.054155216535854E9 ; 0.0
54 ; 7921068.984770888 ; 2.0168505643834516E8 ; 4.108703804546493E8 ; 9.255827216182043E9 ; 0.0
55 ; 7925157.617943253 ; 2.0169827238919073E8 ; 4.187914494394202E8 ; 9.457512272620388E9 ; 0.0
56 ; 7926912.585542961 ; 2.017116420363497E8 ; 4.2671660705736345E8 ; 9.659210545009579E9 ; 0.0
57 ; 7930259.030634988 ; 2.0172516005056798E8 ; 4.346435196429064E8 ; 9.860922187045929E9 ; 0.0
58 ; 7933288.826775909 ; 2.0173882123520124E8 ; 4.425737786735414E8 ; 1.0062647347096497E10 ; 0.0
59 ; 7935402.981732029 ; 2.0175262052533814E8 ; 4.5050706750031734E8 ; 1.0264386168331697E10 ; 0.0
60 ; 7933875.991305134 ; 2.0176655298660174E8 ; 4.5844247048204935E8 ; 1.0466138788857035E10 ; 0.0
61 ; 7937969.972257059 ; 2.0178061381366703E8 ; 4.6637634647335446E8 ; 1.0667905341843636E10 ; 0.0
62 ; 7941886.747014172 ; 2.0179479832853156E8 ; 4.7431431644561154E8 ; 1.0869685955657303E10 ; 0.0
63 ; 7941123.594825663 ; 2.018091019785723E8 ; 4.822562031926257E8 ; 1.1071480753985834E10 ; 0.0
64 ; 7946736.087430734 ; 2.01823520334419E8 ; 4.901973267874514E8 ; 1.1273289855964407E10 ; 0.0
65 ; 7945593.678772689 ; 2.0183804908767322E8 ; 4.981440628748821E8 ; 1.1475113376298826E10 ; 0.0
66 ; 7947055.670274098 ; 2.0185268404849768E8 ; 5.060896565536548E8 ; 1.16769514253865E10 ; 0.0
67 ; 7949489.376184915 ; 2.0186742114310065E8 ; 5.1403671222392887E8 ; 1.1878804109434998E10 ; 0.0
68 ; 7952030.856454259 ; 2.018822564111353E8 ; 5.219862016001138E8 ; 1.2080671530578098E10 ; 0.0
69 ; 7951359.759552664 ; 2.018971860030344E8 ; 5.2993823245656806E8 ; 1.2282553786989233E10 ; 0.0
70 ; 7954828.535147282 ; 2.0191220617729712E8 ; 5.378895922161207E8 ; 1.2484450972992268E10 ; 0.0
71 ; 7952670.259129627 ; 2.0192731329774293E8 ; 5.45844420751268E8 ; 1.2686363179169565E10 ; 0.0
72 ; 7958570.303144057 ; 2.0194250383074778E8 ; 5.537970910103977E8 ; 1.2888290492467308E10 ; 0.0
73 ; 7956952.053066058 ; 2.019577743424732E8 ; 5.617556613135418E8 ; 1.3090232996298056E10 ; 0.0
74 ; 7957859.540993268 ; 2.0197312149610034E8 ; 5.697126133666078E8 ; 1.329219077064053E10 ; 0.0
75 ; 7961407.376147994 ; 2.01988542049078E8 ; 5.77670472907601E8 ; 1.349416389213663E10 ; 0.0
76 ; 7964011.666224213 ; 2.020040328503929E8 ; 5.85631880283749E8 ; 1.3696152434185707E10 ; 0.0
77 ; 7961886.160264815 ; 2.0201959083786994E8 ; 5.935958919499732E8 ; 1.38981564670361E10 ; 0.0
78 ; 7962613.132857413 ; 2.0203521303550774E8 ; 6.015577781102381E8 ; 1.410017605787397E10 ; 0.0
79 ; 7961745.494031807 ; 2.0205089655085582E8 ; 6.095203912430955E8 ; 1.4302211270909477E10 ; 0.0
80 ; 7956230.864661464 ; 2.0206663857243735E8 ; 6.174821367371273E8 ; 1.4504262167460333E10 ; 0.0
81 ; 7958805.6207352225 ; 2.0208243636722127E8 ; 6.254383676017888E8 ; 1.470632880603277E10 ; 0.0
82 ; 7957008.538751361 ; 2.0209828727814707E8 ; 6.333971732225239E8 ; 1.4908411242399992E10 ; 0.0
83 ; 7954518.617072049 ; 2.021141887217047E8 ; 6.413541817612753E8 ; 1.5110509529678139E10 ; 0.0
84 ; 7952412.758825056 ; 2.0213013818557137E8 ; 6.493087003783474E8 ; 1.5312623718399843E10 ; 0.0
85 ; 7952166.037218327 ; 2.0214613322630706E8 ; 6.572611131371725E8 ; 1.5514753856585415E10 ; 0.0
86 ; 7948371.4536051825 ; 2.0216217146710974E8 ; 6.652132791743908E8 ; 1.5716899989811722E10 ; 0.0
87 ; 7949065.701391773 ; 2.0217825059563068E8 ; 6.73161650627996E8 ; 1.5919062161278831E10 ; 0.0
88 ; 7945996.0856028525 ; 2.0219436836185092E8 ; 6.811107163293878E8 ; 1.6121240411874462E10 ; 0.0
89 ; 7943405.9853592515 ; 2.0221052257601807E8 ; 6.890567124149907E8 ; 1.6323434780236313E10 ; 0.0
90 ; 7941633.245705939 ; 2.0222671110664436E8 ; 6.970001184003499E8 ; 1.652564530281233E10 ; 0.0
91 ; 7939580.461158616 ; 2.0224293187856445E8 ; 7.049417516460558E8 ; 1.6727872013918974E10 ; 0.0
92 ; 7937125.210208187 ; 2.0225918287105334E8 ; 7.128813321072145E8 ; 1.6930114945797539E10 ; 0.0
93 ; 7933865.076391744 ; 2.022754621160032E8 ; 7.208184573174226E8 ; 1.7132374128668592E10 ; 0.0
94 ; 7929990.843992109 ; 2.0229176769615814E8 ; 7.287523223938143E8 ; 1.7334649590784595E10 ; 0.0
95 ; 7929296.272948615 ; 2.023080977434065E8 ; 7.366823132378064E8 ; 1.7536941358480755E10 ; 0.0
96 ; 7925831.116702141 ; 2.0232445043712896E8 ; 7.446116095107551E8 ; 1.7739249456224163E10 ; 0.0
97 ; 7923272.073239594 ; 2.0234082400260144E8 ; 7.525374406274573E8 ; 1.7941573906661293E10 ; 0.0
98 ; 7922709.242282606 ; 2.0235721670945215E8 ; 7.604607127006968E8 ; 1.8143914730663895E10 ; 0.0
99 ; 7918533.219542674 ; 2.0237362687017047E8 ; 7.683834219429795E8 ; 1.834627194737335E10 ; 0.0
100 ; 7918455.342047144 ; 2.023900528386675E8 ; 7.763019551625221E8 ; 1.854864557424352E10 ; 0.0
101 ; 7913106.489573227 ; 2.024064930088858E8 ; 7.842204105045692E8 ; 1.8751035627082188E10 ; 0.0
102 ; 7911093.343093206 ; 2.0242294581345794E8 ; 7.921335169941424E8 ; 1.8953442120091072E10 ; 0.0
103 ; 7909020.344374652 ; 2.024394097224118E8 ; 8.000446103372356E8 ; 1.915586506590453E10 ; 0.0
104 ; 7905992.8381896885 ; 2.024558832419218E8 ; 8.079536306816102E8 ; 1.935830447562694E10 ; 0.0
105 ; 7902664.634256819 ; 2.0247236491310394E8 ; 8.158596235198E8 ; 1.9560760358868862E10 ; 0.0
106 ; 7899049.639914491 ; 2.0248885331085408E8 ; 8.237622881540568E8 ; 1.9763232723781967E10 ; 0.0
107 ; 7896857.219332085 ; 2.0250534704272765E8 ; 8.316613377939713E8 ; 1.9965721577092823E10 ; 0.0
108 ; 7893170.0293981545 ; 2.0252184474785963E8 ; 8.395581950133034E8 ; 2.016822692413555E10 ; 0.0
109 ; 7888552.594464376 ; 2.0253834509592316E8 ; 8.474513650427016E8 ; 2.037074876888341E10 ; 0.0
110 ; 7885182.020917944 ; 2.0255484678612605E8 ; 8.55339917637166E8 ; 2.0573287113979336E10 ; 0.0
111 ; 7881813.957972041 ; 2.025713485462434E8 ; 8.632250996580839E8 ; 2.077584196076546E10 ; 0.0
112 ; 7881156.613082225 ; 2.0258784913168532E8 ; 8.71106913616056E8 ; 2.0978413309311703E10 ; 0.0
113 ; 7874865.181810843 ; 2.0260434732459846E8 ; 8.789880702291381E8 ; 2.118100115844339E10 ; 0.0
114 ; 7871173.757552386 ; 2.0262084193300045E8 ; 8.86862935410949E8 ; 2.138360550576799E10 ; 0.0
115 ; 7869984.8425199995 ; 2.0263733178994545E8 ; 8.947341091685014E8 ; 2.158622634770099E10 ; 0.0
116 ; 7864871.931405691 ; 2.0265381575272045E8 ; 9.026040940110214E8 ; 2.1788863679490932E10 ; 0.0
117 ; 7858201.396474435 ; 2.026702927020706E8 ; 9.10468965942427E8 ; 2.1991517495243652E10 ; 0.0
118 ; 7855074.522671283 ; 2.0268676154145297E8 ; 9.183271673389015E8 ; 2.2194187787945724E10 ; 0.0
119 ; 7850451.7576002935 ; 2.0270322119631743E8 ; 9.261822418615729E8 ; 2.239687454948718E10 ; 0.0
120 ; 7848919.02689241 ; 2.0271967061341366E8 ; 9.340326936191732E8 ; 2.2599577770683495E10 ; 0.0
121 ; 7843416.497683878 ; 2.0273610876012358E8 ; 9.418816126460656E8 ; 2.280229744129691E10 ; 0.0
122 ; 7842787.064489166 ; 2.0275253462381798E8 ; 9.497250291437495E8 ; 2.3005033550057034E10 ; 0.0
123 ; 7838378.659983408 ; 2.0276894721123654E8 ; 9.575678162082386E8 ; 2.320778608468085E10 ; 0.0
124 ; 7829469.770910094 ; 2.0278534554789048E8 ; 9.65406194868222E8 ; 2.3410555031892086E10 ; 0.0
125 ; 7824919.297278278 ; 2.028017286774868E8 ; 9.732356646391321E8 ; 2.3613340377439976E10 ; 0.0
126 ; 7822955.942635206 ; 2.0281809566137356E8 ; 9.810605839364104E8 ; 2.3816142106117462E10 ; 0.0
127 ; 7819317.343078968 ; 2.0283444557800496E8 ; 9.888835398790456E8 ; 2.4018960201778835E10 ; 0.0
128 ; 7813005.739091877 ; 2.0285077752242628E8 ; 9.967028572221246E8 ; 2.4221794647356842E10 ; 0.0
129 ; 7809368.82631377 ; 2.0286709060577676E8 ; 1.0045158629612164E9 ; 2.442464542487927E10 ; 0.0
130 ; 7803298.373687956 ; 2.0288338395481104E8 ; 1.0123252317875302E9 ; 2.4627512515485046E10 ; 0.0
131 ; 7793602.357236675 ; 2.0289965671143737E8 ; 1.0201285301612182E9 ; 2.4830395899439857E10 ; 0.0
132 ; 7788025.074381483 ; 2.0291590803227273E8 ; 1.0279221325184548E9 ; 2.5033295556151295E10 ; 0.0
133 ; 7780334.055812798 ; 2.0293213708821362E8 ; 1.0357101575928363E9 ; 2.5236211464183567E10 ; 0.0
134 ; 7774570.8677227935 ; 2.0294834306402248E8 ; 1.0434904916486491E9 ; 2.5439143601271782E10 ; 0.0
135 ; 7768145.835670341 ; 2.029645251579287E8 ; 1.0512650625163718E9 ; 2.5642091944335804E10 ; 0.0
136 ; 7757879.713194297 ; 2.0298068258124393E8 ; 1.0590332083520422E9 ; 2.5845056469493732E10 ; 0.0
137 ; 7749740.740060712 ; 2.0299681455799094E8 ; 1.0667910880652364E9 ; 2.6048037152074978E10 ; 0.0
138 ; 7743038.981066016 ; 2.0301292032454598E8 ; 1.0745408288052971E9 ; 2.625103396663297E10 ; 0.0
139 ; 7735569.864262704 ; 2.0302899912929335E8 ; 1.0822838677863631E9 ; 2.6454046886957516E10 ; 0.0
140 ; 7729167.495209158 ; 2.0304505023229253E8 ; 1.090019437650626E9 ; 2.6657075886086807E10 ; 0.0
141 ; 7720423.840088469 ; 2.0306107290495682E8 ; 1.0977486051458352E9 ; 2.68601209363191E10 ; 0.0
142 ; 7711448.143590679 ; 2.030770664297434E8 ; 1.1054690289859235E9 ; 2.7063182009224056E10 ; 0.0
143 ; 7703100.922825466 ; 2.0309303009985414E8 ; 1.1131804771295142E9 ; 2.72662590756538E10 ; 0.0
144 ; 7696029.808001868 ; 2.03108963218947E8 ; 1.1208835780523398E9 ; 2.7469352105753654E10 ; 0.0
145 ; 7693708.9581921315 ; 2.0312486510085738E8 ; 1.1285796078603415E9 ; 2.7672461068972603E10 ; 0.0
146 ; 7686575.056577063 ; 2.0314073506932917E8 ; 1.1362733168185337E9 ; 2.787558593407346E10 ; 0.0
147 ; 7685653.742055643 ; 2.0315657245775533E8 ; 1.1439598918751106E9 ; 2.8078726669142788E10 ; 0.0
148 ; 7677424.253399088 ; 2.0317237660892698E8 ; 1.1516455456171663E9 ; 2.8281883241600544E10 ; 0.0
149 ; 7670028.101363437 ; 2.031881468747917E8 ; 1.1593229698705654E9 ; 2.8485055618209473E10 ; 0.0
150 ; 7664444.021000955 ; 2.0320388261621985E8 ; 1.1669929979719288E9 ; 2.8688243765084263E10 ; 0.0
151 ; 7661520.69144973 ; 2.032195832027788E8 ; 1.1746574419929297E9 ; 2.889144764770048E10 ; 0.0
152 ; 7655916.415216238 ; 2.032352480125151E8 ; 1.1823189626843793E9 ; 2.909466723090326E10 ; 0.0
153 ; 7650265.810082856 ; 2.032508764317441E8 ; 1.1899748790995955E9 ; 2.9297902478915775E10 ; 0.0
154 ; 7643964.634625706 ; 2.0326646785484657E8 ; 1.1976251449096785E9 ; 2.950115335534752E10 ; 0.0
155 ; 7637447.479957349 ; 2.032820216840722E8 ; 1.2052691095443041E9 ; 2.9704419823202366E10 ; 0.0
156 ; 7631430.291998498 ; 2.0329753732935E8 ; 1.2129065570242615E9 ; 2.9907701844886436E10 ; 0.0
157 ; 7629384.473944923 ; 2.0331301420810488E8 ; 1.2205379873162599E9 ; 3.0110999382215786E10 ; 0.0
158 ; 7623820.132498546 ; 2.0332845174508035E8 ; 1.2281673717902048E9 ; 3.031431239642389E10 ; 0.0
159 ; 7615612.59486995 ; 2.033438493721674E8 ; 1.2357911919227033E9 ; 3.051764084816897E10 ; 0.0
160 ; 7611558.033773169 ; 2.03359206528239E8 ; 1.243406804517573E9 ; 3.0720984697541134E10 ; 0.0
161 ; 7606697.709409659 ; 2.0337452265899003E8 ; 1.2510183625513463E9 ; 3.0924343904069374E10 ; 0.0
162 ; 7601921.925748966 ; 2.0338979721678254E8 ; 1.258625060260756E9 ; 3.1127718426728363E10 ; 0.0
163 ; 7593187.6586042745 ; 2.034050296604964E8 ; 1.266226982186505E9 ; 3.1331108223945145E10 ; 0.0
164 ; 7591309.223764886 ; 2.0342021945538464E8 ; 1.2738201698451095E9 ; 3.153451325360564E10 ; 0.0
165 ; 7583868.763900832 ; 2.0343536607293347E8 ; 1.2814114790688744E9 ; 3.1737933473061024E10 ; 0.0
166 ; 7579905.238089184 ; 2.034504689907273E8 ; 1.288995347832775E9 ; 3.1941368839133957E10 ; 0.0
167 ; 7571657.246124272 ; 2.0346552769231784E8 ; 1.2965752530708642E9 ; 3.2144819308124683E10 ; 0.0
168 ; 7569194.104751841 ; 2.0348054166709757E8 ; 1.3041469103169885E9 ; 3.2348284835817E10 ; 0.0
169 ; 7562475.005726725 ; 2.0349551041017744E8 ; 1.3117161044217403E9 ; 3.25517653774841E10 ; 0.0
170 ; 7555430.847812926 ; 2.0351043342226845E8 ; 1.319278579427467E9 ; 3.275526088789428E10 ; 0.0
171 ; 7548741.906018216 ; 2.0352531020956713E8 ; 1.32683401027528E9 ; 3.2958771321316547E10 ; 0.0
172 ; 7544435.5157168005 ; 2.0354014028364462E8 ; 1.3343827521812983E9 ; 3.3162296631526115E10 ; 0.0
173 ; 7539444.893617497 ; 2.0355492316133946E8 ; 1.341927187697015E9 ; 3.336583677180976E10 ; 0.0
174 ; 7536317.694894962 ; 2.035696583646539E8 ; 1.3494666325906324E9 ; 3.35693916949711E10 ; 0.0
175 ; 7532581.554114363 ; 2.035843454206532E8 ; 1.3570029502855275E9 ; 3.3772961353335754E10 ; 0.0
176 ; 7531121.656575185 ; 2.035989838613686E8 ; 1.3645355318396418E9 ; 3.397654569875641E10 ; 0.0
177 ; 7522987.73383742 ; 2.0361357322370306E8 ; 1.372066653496217E9 ; 3.418014468261778E10 ; 0.0
178 ; 7519786.132542876 ; 2.0362811304934007E8 ; 1.3795896412300544E9 ; 3.4383758255841484E10 ; 0.0
179 ; 7519223.688025534 ; 2.0364260288465562E8 ; 1.3871094273625972E9 ; 3.458738636889082E10 ; 0.0
180 ; 7512712.496715151 ; 2.0365704228063253E8 ; 1.3946286510506227E9 ; 3.479102897177548E10 ; 0.0
181 ; 7508741.992644557 ; 2.0367143079277778E8 ; 1.4021413635473378E9 ; 3.4994686014056114E10 ; 0.0
182 ; 7506014.038985526 ; 2.0368576798104244E8 ; 1.4096501055399823E9 ; 3.519835744484889E10 ; 0.0
183 ; 7503078.8024917655 ; 2.0370005340974402E8 ; 1.4171561195789678E9 ; 3.540204321282993E10 ; 0.0
184 ; 7500858.592799843 ; 2.037142866474913E8 ; 1.4246591983814595E9 ; 3.560574326623968E10 ; 0.0
185 ; 7496679.063856853 ; 2.0372846726711154E8 ; 1.4321600569742594E9 ; 3.580945755288717E10 ; 0.0
186 ; 7490727.704026126 ; 2.0374259484557992E8 ; 1.4396567360381162E9 ; 3.601318602015428E10 ; 0.0
187 ; 7486782.461804769 ; 2.0375666896395126E8 ; 1.4471474637421424E9 ; 3.621692861499986E10 ; 0.0
188 ; 7482358.332355645 ; 2.037706892072937E8 ; 1.4546342462039473E9 ; 3.642068528396381E10 ; 0.0
189 ; 7480599.558190713 ; 2.0378465516462466E8 ; 1.462116604536303E9 ; 3.6624455973171104E10 ; 0.0
190 ; 7478879.972450395 ; 2.0379856642884874E8 ; 1.4695972040944939E9 ; 3.682824062833573E10 ; 0.0
191 ; 7473070.639585705 ; 2.0381242259669724E8 ; 1.4770760840669444E9 ; 3.703203919476458E10 ; 0.0
192 ; 7470980.5625458835 ; 2.0382622326867002E8 ; 1.48454915470653E9 ; 3.7235851617361275E10 ; 0.0
193 ; 7464586.759587648 ; 2.0383996804897884E8 ; 1.4920201352690759E9 ; 3.7439677840629944E10 ; 0.0
194 ; 7465300.384193322 ; 2.0385365654549244E8 ; 1.4994847220286636E9 ; 3.7643517808678925E10 ; 0.0
195 ; 7457894.3651099475 ; 2.0386728836968353E8 ; 1.506950022412857E9 ; 3.784737146522442E10 ; 0.0
196 ; 7456007.640007727 ; 2.038808631365772E8 ; 1.514407916777967E9 ; 3.80512387535941E10 ; 0.0
197 ; 7451158.276411594 ; 2.0389438046470082E8 ; 1.5218639244179747E9 ; 3.8255119616730675E10 ; 0.0
198 ; 7449136.302085551 ; 2.039078399760359E8 ; 1.5293150826943862E9 ; 3.845901399719537E10 ; 0.0
199 ; 7446112.665989499 ; 2.0392124129597086E8 ; 1.536764218996472E9 ; 3.866292183717141E10 ; 0.0
200 ; 7445167.432496454 ; 1.750511938059591E8 ; 1.5442103316624613E9 ; 3.886684307846738E10 ; 0.0
