CSV File for the City 1 on Day 105
1 - Minute m 
2 - Power Consumed at minute m 
3 - Power Produced at minute m 
4 - Energy Consumed since the beginning of the day 
5 - Energy Produced since the beginning of the day 
6 - Energy Lost since the beginning of the day on lines starting from the city
 
0 ; 1.6153174590287052E7 ; 1.055532968647531E8 ; 0.0 ; 0.0 ; 0.0
1 ; 1.6161803447308226E7 ; 1.0570625221160382E8 ; 1.6153174590287052E7 ; 1.055532968647531E8 ; 0.0
2 ; 1.6183845824127592E7 ; 1.0616798894471899E8 ; 3.231497803759528E7 ; 2.1125954907635692E8 ; 0.0
3 ; 1.6202602578772264E7 ; 1.0693850847872376E8 ; 4.849882386172287E7 ; 3.174275380210759E8 ; 0.0
4 ; 1.622727124249848E7 ; 1.080178120804764E8 ; 6.470142644049513E7 ; 4.2436604649979967E8 ; 0.0
5 ; 1.6257486071613705E7 ; 1.0940590086235368E8 ; 8.092869768299362E7 ; 5.323838585802761E8 ; 0.0
6 ; 1.6296270893450897E7 ; 1.11102775776247E8 ; 9.718618375460732E7 ; 6.417897594426298E8 ; 0.0
7 ; 1.6353493739578849E7 ; 1.1310843760834509E8 ; 1.1348245464805822E8 ; 7.528925352188768E8 ; 0.0
8 ; 1.6430353378711464E7 ; 1.1542288697476804E8 ; 1.2983594838763706E8 ; 8.660009728272219E8 ; 0.0
9 ; 1.654666586024145E7 ; 1.1804612431811088E8 ; 1.4626630176634854E8 ; 9.814238598019899E8 ; 0.0
10 ; 1.672803848053295E7 ; 1.2097814990494114E8 ; 1.6281296762658998E8 ; 1.0994699841201007E9 ; 0.0
11 ; 1.701895932501533E7 ; 1.2421896382428375E8 ; 1.7954100610712293E8 ; 1.2204481340250418E9 ; 0.0
12 ; 1.7482984829933602E7 ; 1.2776856598711374E8 ; 1.9655996543213826E8 ; 1.3446670978493257E9 ; 0.0
13 ; 1.7926360794809505E7 ; 1.316269561268636E8 ; 2.1404295026207188E8 ; 1.4724356638364394E9 ; 0.0
14 ; 1.7981621761186827E7 ; 1.3579413380093837E8 ; 2.3196931105688137E8 ; 1.604062619963303E9 ; 0.0
15 ; 1.799671515761935E7 ; 1.4027009839321786E8 ; 2.499509328180682E8 ; 1.7398567537642415E9 ; 0.0
16 ; 1.8022341669495564E7 ; 1.4505484911751345E8 ; 2.6794764797568756E8 ; 1.8801268521574593E9 ; 0.0
17 ; 1.8038611143647518E7 ; 1.5014838502193365E8 ; 2.8596998964518315E8 ; 2.0251817012749727E9 ; 0.0
18 ; 1.8063321697307035E7 ; 1.555507049941017E8 ; 3.0400860078883064E8 ; 2.1753300862969065E9 ; 0.0
19 ; 1.808585222139922E7 ; 1.612618077671593E8 ; 3.220719224861377E8 ; 2.330880791291008E9 ; 0.0
20 ; 1.8108733122959714E7 ; 1.6728169192648146E8 ; 3.4015777470753694E8 ; 2.4921425990581675E9 ; 0.0
21 ; 1.8135049857577324E7 ; 1.736103559170212E8 ; 3.5826650783049667E8 ; 2.6594242909846487E9 ; 0.0
22 ; 1.8154742133658394E7 ; 1.8024779805119783E8 ; 3.76401557688074E8 ; 2.83303464690167E9 ; 0.0
23 ; 1.8175352936709736E7 ; 1.871940165172394E8 ; 3.945562998217324E8 ; 3.013282444952868E9 ; 0.0
24 ; 1.819602182741291E7 ; 1.9444900938788766E8 ; 4.1273165275844216E8 ; 3.2004764614701076E9 ; 0.0
25 ; 1.8221153778582484E7 ; 2.0070081552755874E8 ; 4.3092767458585507E8 ; 3.394925470857995E9 ; 0.0
26 ; 1.8240781155917857E7 ; 2.0070298063839865E8 ; 4.491488283644376E8 ; 3.595626286385554E9 ; 0.0
27 ; 1.825912252623199E7 ; 2.0070527179444274E8 ; 4.6738960952035546E8 ; 3.7963292670239525E9 ; 0.0
28 ; 1.8282298969757184E7 ; 2.0070768669765887E8 ; 4.8564873204658747E8 ; 3.997034538818395E9 ; 0.0
29 ; 1.8301802402443815E7 ; 2.00710222980401E8 ; 5.0393103101634467E8 ; 4.197742225516054E9 ; 0.0
30 ; 1.8323394637865197E7 ; 2.007128782144855E8 ; 5.222328334187885E8 ; 4.398452448496455E9 ; 0.0
31 ; 1.8344229234951906E7 ; 2.0071564992007053E8 ; 5.405562280566537E8 ; 4.59916532671094E9 ; 0.0
32 ; 1.836203306060759E7 ; 2.0071853557428288E8 ; 5.589004572916056E8 ; 4.799880976631011E9 ; 0.0
33 ; 1.838118933313314E7 ; 2.0072153261954248E8 ; 5.772624903522131E8 ; 5.000599512205294E9 ; 0.0
34 ; 1.840037231222283E7 ; 2.0072463847154307E8 ; 5.956436796853462E8 ; 5.201321044824836E9 ; 0.0
35 ; 1.8417135401659157E7 ; 2.0072785052685487E8 ; 6.140440519975691E8 ; 5.402045683296379E9 ; 0.0
36 ; 1.843664614352641E7 ; 2.0073116617012152E8 ; 6.324611873992282E8 ; 5.602773533823234E9 ; 0.0
37 ; 1.8449621377418287E7 ; 2.0073458278083158E8 ; 6.508978335427547E8 ; 5.803504699993355E9 ; 0.0
38 ; 1.8467912342654854E7 ; 2.0073809773965016E8 ; 6.693474549201729E8 ; 6.004239282774186E9 ; 0.0
39 ; 1.8485494393560346E7 ; 2.0074170843430242E8 ; 6.878153672628278E8 ; 6.204977380513836E9 ; 0.0
40 ; 1.850261564519098E7 ; 2.007454122650067E8 ; 7.06300861656388E8 ; 6.405719088948138E9 ; 0.0
41 ; 1.8514350120620728E7 ; 2.0074920664945868E8 ; 7.24803477301579E8 ; 6.606464501213145E9 ; 0.0
42 ; 1.8526235862185046E7 ; 2.0075308902737314E8 ; 7.433178274221997E8 ; 6.807213707862604E9 ; 0.0
43 ; 1.8543173420900375E7 ; 2.0075705686459288E8 ; 7.618440632843847E8 ; 7.007966796889977E9 ; 0.0
44 ; 1.8549785964512914E7 ; 2.007611076567779E8 ; 7.803872367052851E8 ; 7.20872385375457E9 ; 0.0
45 ; 1.8566517093172763E7 ; 2.0076523893269002E8 ; 7.98937022669798E8 ; 7.409484961411348E9 ; 0.0
46 ; 1.857680953564088E7 ; 2.007694482570903E8 ; 8.175035397629708E8 ; 7.610250200344038E9 ; 0.0
47 ; 1.8582146811697137E7 ; 2.0077373323326847E8 ; 8.360803492986116E8 ; 7.811019648601129E9 ; 0.0
48 ; 1.8590969753847368E7 ; 2.0077809150522423E8 ; 8.546624961103088E8 ; 8.011793381834397E9 ; 0.0
49 ; 1.860343158085839E7 ; 2.0078252075952113E8 ; 8.732534658641561E8 ; 8.212571473339622E9 ; 0.0
50 ; 1.8611423547271468E7 ; 2.0078701872683465E8 ; 8.918568974450145E8 ; 8.413353994099143E9 ; 0.0
51 ; 1.861881508618698E7 ; 2.0079158318321544E8 ; 9.10468320992286E8 ; 8.614141012825977E9 ; 0.0
52 ; 1.8621968377173446E7 ; 2.0079621195108902E8 ; 9.29087136078473E8 ; 8.814932596009193E9 ; 0.0
53 ; 1.862828131950218E7 ; 2.0080090290001282E8 ; 9.477091044556464E8 ; 9.015728807960283E9 ; 0.0
54 ; 1.8636363976713225E7 ; 2.00805653947211E8 ; 9.663373857751486E8 ; 9.216529710860296E9 ; 0.0
55 ; 1.8640678458876103E7 ; 2.0081046305790624E8 ; 9.849737497518618E8 ; 9.417335364807507E9 ; 0.0
56 ; 1.865173014550743E7 ; 2.0081532824546793E8 ; 1.003614428210738E9 ; 9.618145827865414E9 ; 0.0
57 ; 1.8651329428380143E7 ; 2.0082024757139432E8 ; 1.0222661583562454E9 ; 9.818961156110882E9 ; 0.0
58 ; 1.8658546635680344E7 ; 2.0082521914514565E8 ; 1.0409174877846255E9 ; 1.0019781403682276E10 ; 0.0
59 ; 1.866247142907195E7 ; 2.0083024112384468E8 ; 1.0595760344203058E9 ; 1.0220606622827421E10 ; 0.0
60 ; 1.8666856717178777E7 ; 2.0083531171185938E8 ; 1.0782385058493779E9 ; 1.0421436863951265E10 ; 0.0
61 ; 1.8671756128838364E7 ; 2.0084042916028184E8 ; 1.0969053625665567E9 ; 1.0622272175663124E10 ; 0.0
62 ; 1.8677221992870767E7 ; 2.0084559176631683E8 ; 1.115577118695395E9 ; 1.0823112604823406E10 ; 0.0
63 ; 1.8680729054739036E7 ; 2.0085079787259153E8 ; 1.1342543406882658E9 ; 1.1023958196589724E10 ; 0.0
64 ; 1.8690401528710004E7 ; 2.0085604586639822E8 ; 1.1529350697430048E9 ; 1.1224808994462315E10 ; 0.0
65 ; 1.8692264577051777E7 ; 2.008613341788798E8 ; 1.1716254712717147E9 ; 1.1425665040328712E10 ; 0.0
66 ; 1.869755569641726E7 ; 2.008666612841674E8 ; 1.1903177358487666E9 ; 1.1626526374507593E10 ; 0.0
67 ; 1.8695600281720467E7 ; 2.008720256984791E8 ; 1.209015291545184E9 ; 1.1827393035791761E10 ; 0.0
68 ; 1.870589963462141E7 ; 2.0087742597918686E8 ; 1.2277108918269043E9 ; 1.202826506149024E10 ; 0.0
69 ; 1.8710671238588214E7 ; 2.008828607238594E8 ; 1.2464167914615257E9 ; 1.2229142487469427E10 ; 0.0
70 ; 1.871349532206495E7 ; 2.0088832856928647E8 ; 1.2651274627001138E9 ; 1.2430025348193287E10 ; 0.0
71 ; 1.8716382454655744E7 ; 2.0089382819049093E8 ; 1.2838409580221786E9 ; 1.2630913676762573E10 ; 0.0
72 ; 1.872121136272872E7 ; 2.0089935829973337E8 ; 1.3025573404768343E9 ; 1.2831807504953064E10 ; 0.0
73 ; 1.8722496509799987E7 ; 2.0090491764551356E8 ; 1.3212785518395631E9 ; 1.3032706863252798E10 ; 0.0
74 ; 1.8726207290663827E7 ; 2.0091050501157302E8 ; 1.340001048349363E9 ; 1.3233611780898312E10 ; 0.0
75 ; 1.8729698173831005E7 ; 2.0091611921590203E8 ; 1.3587272556400268E9 ; 1.3434522285909885E10 ; 0.0
76 ; 1.873280358250856E7 ; 2.0092175910975435E8 ; 1.3774569538138578E9 ; 1.3635438405125788E10 ; 0.0
77 ; 1.8735691465929985E7 ; 2.009274235766718E8 ; 1.3961897573963664E9 ; 1.3836360164235542E10 ; 0.0
78 ; 1.8730168951766193E7 ; 2.009331115315218E8 ; 1.4149254488622963E9 ; 1.4037287587812214E10 ; 0.0
79 ; 1.873161985139468E7 ; 2.0093882191954884E8 ; 1.4336556178140626E9 ; 1.4238220699343735E10 ; 0.0
80 ; 1.872681760194369E7 ; 2.009445537154426E8 ; 1.4523872376654572E9 ; 1.4439159521263283E10 ; 0.0
81 ; 1.872079961184883E7 ; 2.0095030592242327E8 ; 1.471114055267401E9 ; 1.4640104074978725E10 ; 0.0
82 ; 1.87154542836083E7 ; 2.0095607757134575E8 ; 1.4898348548792498E9 ; 1.4841054380901148E10 ; 0.0
83 ; 1.871425684313171E7 ; 2.0096186771982327E8 ; 1.508550309162858E9 ; 1.5042010458472494E10 ; 0.0
84 ; 1.871540061840523E7 ; 2.0096767545137176E8 ; 1.5272645660059898E9 ; 1.5242972326192318E10 ; 0.0
85 ; 1.8709568616692938E7 ; 2.0097349987457472E8 ; 1.5459799666243951E9 ; 1.544394000164369E10 ; 0.0
86 ; 1.8702331269370895E7 ; 2.0097934012226987E8 ; 1.5646895352410882E9 ; 1.5644913501518265E10 ; 0.0
87 ; 1.8696132967347536E7 ; 2.0098519535075712E8 ; 1.583391866510459E9 ; 1.5845892841640535E10 ; 0.0
88 ; 1.86959622093813E7 ; 2.009910647390286E8 ; 1.6020879994778066E9 ; 1.6046878036991293E10 ; 0.0
89 ; 1.8686119020925444E7 ; 2.009969474880205E8 ; 1.620783961687188E9 ; 1.6247869101730322E10 ; 0.0
90 ; 1.8681627781740833E7 ; 2.0100284281988657E8 ; 1.6394700807081134E9 ; 1.6448866049218342E10 ; 0.0
91 ; 1.8679408554589707E7 ; 2.010087499772935E8 ; 1.6581517084898543E9 ; 1.6649868892038229E10 ; 0.0
92 ; 1.8675329572990596E7 ; 2.0101466822273785E8 ; 1.676831117044444E9 ; 1.6850877642015522E10 ; 0.0
93 ; 1.8668416820638467E7 ; 2.010205968378841E8 ; 1.6955064466174347E9 ; 1.705189231023826E10 ; 0.0
94 ; 1.8663450724407308E7 ; 2.0102653512292382E8 ; 1.7141748634380732E9 ; 1.7252912907076145E10 ; 0.0
95 ; 1.865858391937322E7 ; 2.0103248239595532E8 ; 1.7328383141624804E9 ; 1.745393944219907E10 ; 0.0
96 ; 1.865031210245655E7 ; 2.0103843799238363E8 ; 1.7514968980818536E9 ; 1.7654971924595024E10 ; 0.0
97 ; 1.8647392657082193E7 ; 2.0104440126434034E8 ; 1.7701472101843102E9 ; 1.7856010362587406E10 ; 0.0
98 ; 1.8641619264065363E7 ; 2.0105037158012286E8 ; 1.7887946028413923E9 ; 1.8057054763851746E10 ; 0.0
99 ; 1.8634877294840295E7 ; 2.0105634832365245E8 ; 1.8074362221054575E9 ; 1.825810513543187E10 ; 0.0
100 ; 1.862985341335944E7 ; 2.0106233089395094E8 ; 1.8260710994002979E9 ; 1.8459161483755524E10 ; 0.0
101 ; 1.862152606423543E7 ; 2.0106831870463538E8 ; 1.8447009528136573E9 ; 1.8660223814649475E10 ; 0.0
102 ; 1.8618686219452683E7 ; 2.0107431118343017E8 ; 1.8633224788778927E9 ; 1.886129213335411E10 ; 0.0
103 ; 1.860681582505571E7 ; 2.0108030777169618E8 ; 1.8819411650973454E9 ; 1.906236644453754E10 ; 0.0
104 ; 1.8595494127428822E7 ; 2.0108630792397657E8 ; 1.900547980922401E9 ; 1.926344675230924E10 ; 0.0
105 ; 1.8593022867013607E7 ; 2.0109231110755834E8 ; 1.9191434750498297E9 ; 1.9464533060233215E10 ; 0.0
106 ; 1.858628349767887E7 ; 2.0109831680204982E8 ; 1.9377364979168434E9 ; 1.9665625371340775E10 ; 0.0
107 ; 1.857897803190477E7 ; 2.011043244989728E8 ; 1.9563227814145222E9 ; 1.9866723688142826E10 ; 0.0
108 ; 1.8569574853523284E7 ; 2.0111033370136955E8 ; 1.9749017594464269E9 ; 2.00678280126418E10 ; 0.0
109 ; 1.856055006947527E7 ; 2.0111634392342383E8 ; 1.9934713342999501E9 ; 2.026893834634317E10 ; 0.0
110 ; 1.8556267725811936E7 ; 2.011223546900954E8 ; 2.0120318843694253E9 ; 2.0470054690266594E10 ; 0.0
111 ; 1.854701925620078E7 ; 2.01128365536768E8 ; 2.0305881520952373E9 ; 2.0671177044956688E10 ; 0.0
112 ; 1.8539694018655412E7 ; 2.011343760089097E8 ; 2.049135171351438E9 ; 2.0872305410493458E10 ; 0.0
113 ; 1.8528329744270284E7 ; 2.0114038566174597E8 ; 2.0676748653700933E9 ; 2.107343978650237E10 ; 0.0
114 ; 1.8522088650889423E7 ; 2.0114639405994406E8 ; 2.0862031951143637E9 ; 2.1274580172164116E10 ; 0.0
115 ; 1.851521905819357E7 ; 2.0115240077730936E8 ; 2.104725283765253E9 ; 2.147572656622406E10 ; 0.0
116 ; 1.8500789072797284E7 ; 2.0115840539649248E8 ; 2.1232405028234468E9 ; 2.167687896700137E10 ; 0.0
117 ; 1.8494270489953354E7 ; 2.0116440750870708E8 ; 2.141741291896244E9 ; 2.187803737239786E10 ; 0.0
118 ; 1.8485058451278247E7 ; 2.0117040671345782E8 ; 2.1602355623861976E9 ; 2.207920177990657E10 ; 0.0
119 ; 1.847376746547559E7 ; 2.0117640261827853E8 ; 2.178720620837476E9 ; 2.228037218662003E10 ; 0.0
120 ; 1.847034212361858E7 ; 2.0118239483847943E8 ; 2.1971943883029513E9 ; 2.2481548589238308E10 ; 0.0
121 ; 1.8456772006892234E7 ; 2.0118838299690402E8 ; 2.21566473042657E9 ; 2.2682730984076786E10 ; 0.0
122 ; 1.844781683700072E7 ; 2.0119436672369435E8 ; 2.234121502433462E9 ; 2.288391936707369E10 ; 0.0
123 ; 1.843384425035659E7 ; 2.012003456560653E8 ; 2.252569319270463E9 ; 2.3085113733797382E10 ; 0.0
124 ; 1.842898123808092E7 ; 2.012063194380864E8 ; 2.2710031635208197E9 ; 2.328631407945345E10 ; 0.0
125 ; 1.8415550215784498E7 ; 2.0121228772047234E8 ; 2.2894321447589006E9 ; 2.3487520398891537E10 ; 0.0
126 ; 1.8402105703099236E7 ; 2.0121825016038036E8 ; 2.307847694974685E9 ; 2.3688732686612007E10 ; 0.0
127 ; 1.839084713172016E7 ; 2.0122420642121542E8 ; 2.3262498006777844E9 ; 2.388995093677239E10 ; 0.0
128 ; 1.8381360490560666E7 ; 2.012301561724421E8 ; 2.3446406478095045E9 ; 2.4091175143193604E10 ; 0.0
129 ; 1.836712713190948E7 ; 2.012360990894036E8 ; 2.363022008300065E9 ; 2.4292405299366047E10 ; 0.0
130 ; 1.83582561442395E7 ; 2.012420348531469E8 ; 2.3813891354319744E9 ; 2.4493641398455452E10 ; 0.0
131 ; 1.833774490843665E7 ; 2.012479631502545E8 ; 2.399747391576214E9 ; 2.4694883433308598E10 ; 0.0
132 ; 1.832471533510436E7 ; 2.01253883672682E8 ; 2.4180851364846506E9 ; 2.489613139645885E10 ; 0.0
133 ; 1.8306875399674907E7 ; 2.012597961176015E8 ; 2.436409851819755E9 ; 2.5097385280131535E10 ; 0.0
134 ; 1.828821983970405E7 ; 2.0126570018725097E8 ; 2.45471672721943E9 ; 2.5298645076249138E10 ; 0.0
135 ; 1.8272617052426048E7 ; 2.012715955887882E8 ; 2.473004947059134E9 ; 2.549991077643639E10 ; 0.0
136 ; 1.82560340282471E7 ; 2.0127748203415087E8 ; 2.49127756411156E9 ; 2.5701182372025177E10 ; 0.0
137 ; 1.8239763989688665E7 ; 2.0128335923992077E8 ; 2.5095335981398067E9 ; 2.5902459854059326E10 ; 0.0
138 ; 1.8218096171676774E7 ; 2.0128922692719346E8 ; 2.5277733621294956E9 ; 2.6103743213299248E10 ; 0.0
139 ; 1.8199975218678158E7 ; 2.0129508482145217E8 ; 2.5459914583011723E9 ; 2.630503244022644E10 ; 0.0
140 ; 1.8180386645242903E7 ; 2.0130093265244627E8 ; 2.5641914335198503E9 ; 2.6506327525047894E10 ; 0.0
141 ; 1.816336706920415E7 ; 2.0130677015407395E8 ; 2.582371820165093E9 ; 2.670762845770034E10 ; 0.0
142 ; 1.81471429573594E7 ; 2.0131259706426913E8 ; 2.6005351872342973E9 ; 2.6908935227854416E10 ; 0.0
143 ; 1.8124947455787003E7 ; 2.0131841312489215E8 ; 2.6186823301916566E9 ; 2.7110247824918686E10 ; 0.0
144 ; 1.8105034692859504E7 ; 2.013242180816245E8 ; 2.636807277647444E9 ; 2.731156623804358E10 ; 0.0
145 ; 1.809745153152352E7 ; 2.01330011683867E8 ; 2.6549123123403034E9 ; 2.7512890456125202E10 ; 0.0
146 ; 1.808374361698798E7 ; 2.0133579368464166E8 ; 2.673009763871827E9 ; 2.771422046780907E10 ; 0.0
147 ; 1.807147227316496E7 ; 2.0134156384049687E8 ; 2.6910935074888153E9 ; 2.7915556261493713E10 ; 0.0
148 ; 1.8061882556416687E7 ; 2.0134732191141587E8 ; 2.70916497976198E9 ; 2.811689782533421E10 ; 0.0
149 ; 1.8049092173550066E7 ; 2.0135306766072845E8 ; 2.7272268623183966E9 ; 2.8318245147245625E10 ; 0.0
150 ; 1.8036710705261987E7 ; 2.0135880085502553E8 ; 2.7452759544919467E9 ; 2.8519598214906353E10 ; 0.0
151 ; 1.8019864264227353E7 ; 2.0136452126407674E8 ; 2.763312665197209E9 ; 2.872095701576138E10 ; 0.0
152 ; 1.800985535548854E7 ; 2.0137022866075104E8 ; 2.7813325294614363E9 ; 2.8922321537025455E10 ; 0.0
153 ; 1.7999636410637677E7 ; 2.013759228209395E8 ; 2.799342384816925E9 ; 2.9123691765686207E10 ; 0.0
154 ; 1.7985242438596107E7 ; 2.0138160352348137E8 ; 2.817342021227563E9 ; 2.9325067688507145E10 ; 0.0
155 ; 1.7974407217682265E7 ; 2.013872705500921E8 ; 2.835327263666159E9 ; 2.9526449292030624E10 ; 0.0
156 ; 1.7960446767076943E7 ; 2.0139292368529412E8 ; 2.8533016708838415E9 ; 2.9727836562580715E10 ; 0.0
157 ; 1.7949775010345932E7 ; 2.0139856271634978E8 ; 2.8712621176509185E9 ; 2.992922948626601E10 ; 0.0
158 ; 1.793657948496106E7 ; 2.014041874331967E8 ; 2.8892118926612644E9 ; 3.013062804898236E10 ; 0.0
159 ; 1.7926067288823377E7 ; 2.0140979762838513E8 ; 2.9071484721462255E9 ; 3.0332032236415558E10 ; 0.0
160 ; 1.7909002472859066E7 ; 2.014153930970175E8 ; 2.925074539435049E9 ; 3.053344203404394E10 ; 0.0
161 ; 1.7902516676011138E7 ; 2.0142097363669E8 ; 2.942983541907908E9 ; 3.073485742714096E10 ; 0.0
162 ; 1.7885437080593787E7 ; 2.014265390474359E8 ; 2.960886058583919E9 ; 3.093627840077765E10 ; 0.0
163 ; 1.7874763709267788E7 ; 2.0143208913167113E8 ; 2.9787714956645126E9 ; 3.1137704939825085E10 ; 0.0
164 ; 1.7857453072380245E7 ; 2.0143762369414127E8 ; 2.9966462593737803E9 ; 3.1339137028956757E10 ; 0.0
165 ; 1.7845255580032E7 ; 2.0144314254187045E8 ; 3.0145037124461603E9 ; 3.1540574652650898E10 ; 0.0
166 ; 1.783229226247081E7 ; 2.0144864548411208E8 ; 3.032348968026192E9 ; 3.174201779519277E10 ; 0.0
167 ; 1.7823267599798772E7 ; 2.0145413233230093E8 ; 3.050181260288663E9 ; 3.194346644067688E10 ; 0.0
168 ; 1.780932615613916E7 ; 2.0145960290000683E8 ; 3.0680045278884616E9 ; 3.2144920573009182E10 ; 0.0
169 ; 1.779203338875398E7 ; 2.014650570028901E8 ; 3.085813854044601E9 ; 3.2346380175909187E10 ; 0.0
170 ; 1.7783777337530907E7 ; 2.014704944586582E8 ; 3.103605887433355E9 ; 3.254784523291208E10 ; 0.0
171 ; 1.7769401453002896E7 ; 2.0147591508702376E8 ; 3.121389664770886E9 ; 3.2749315727370735E10 ; 0.0
172 ; 1.775223917828721E7 ; 2.0148131870966426E8 ; 3.139159066223889E9 ; 3.295079164245776E10 ; 0.0
173 ; 1.77429019756547E7 ; 2.0148670515018266E8 ; 3.156911305402176E9 ; 3.3152272961167423E10 ; 0.0
174 ; 1.77353386166433E7 ; 2.014920742340695E8 ; 3.1746542073778305E9 ; 3.3353759666317604E10 ; 0.0
175 ; 1.772611711823669E7 ; 2.0149742578866616E8 ; 3.192389545994474E9 ; 3.3555251740551674E10 ; 0.0
176 ; 1.7714856011989646E7 ; 2.015027596431293E8 ; 3.2101156631127105E9 ; 3.375674916634034E10 ; 0.0
177 ; 1.770725719836837E7 ; 2.0150807562839648E8 ; 3.2278305191247E9 ; 3.3958251925983467E10 ; 0.0
178 ; 1.7697289328127123E7 ; 2.015133735771528E8 ; 3.2455377763230686E9 ; 3.4159760001611862E10 ; 0.0
179 ; 1.7688855491134208E7 ; 2.0151865332379854E8 ; 3.2632350656511955E9 ; 3.436127337518902E10 ; 0.0
180 ; 1.768371318404553E7 ; 2.0152391470441812E8 ; 3.2809239211423297E9 ; 3.456279202851282E10 ; 0.0
181 ; 1.7676513500721622E7 ; 2.0152915755674967E8 ; 3.298607634326375E9 ; 3.476431594321723E10 ; 0.0
182 ; 1.766641893811263E7 ; 2.0153438172015578E8 ; 3.3162841478270965E9 ; 3.496584510077398E10 ; 0.0
183 ; 1.7659980287982065E7 ; 2.0153958703559518E8 ; 3.333950566765209E9 ; 3.516737948249413E10 ; 0.0
184 ; 1.764975028031091E7 ; 2.015447733455951E8 ; 3.351610547053191E9 ; 3.536891906952973E10 ; 0.0
185 ; 1.764400833708628E7 ; 2.015499404942248E8 ; 3.3692602973335023E9 ; 3.557046384287533E10 ; 0.0
186 ; 1.764082277687617E7 ; 2.0155508832706964E8 ; 3.3869043056705885E9 ; 3.577201378336955E10 ; 0.0
187 ; 1.7627017986770056E7 ; 2.0156021669120622E8 ; 3.4045451284474645E9 ; 3.5973568871696625E10 ; 0.0
188 ; 1.7617536827973887E7 ; 2.0156532543517807E8 ; 3.4221721464342346E9 ; 3.617512908838783E10 ; 0.0
189 ; 1.7610983839149486E7 ; 2.0157041440897217E8 ; 3.4397896832622085E9 ; 3.637669441382301E10 ; 0.0
190 ; 1.760378791706693E7 ; 2.015754834639963E8 ; 3.457400667101358E9 ; 3.657826482823199E10 ; 0.0
191 ; 1.7594133722783543E7 ; 2.0158053245305684E8 ; 3.475004455018425E9 ; 3.6779840311695984E10 ; 0.0
192 ; 1.75831938680415E7 ; 2.0158556123033768E8 ; 3.4925985887412086E9 ; 3.698142084414904E10 ; 0.0
193 ; 1.757953176155861E7 ; 2.0159056965137923E8 ; 3.51018178260925E9 ; 3.718300640537938E10 ; 0.0
194 ; 1.7569582377576955E7 ; 2.0159555757305858E8 ; 3.5277613143708086E9 ; 3.738459697503076E10 ; 0.0
195 ; 1.7559423240250252E7 ; 2.016005248535699E8 ; 3.5453308967483854E9 ; 3.758619253260382E10 ; 0.0
