CSV File for the City 3 on Day 63
1 - Minute m 
2 - Power Consumed at minute m 
3 - Power Produced at minute m 
4 - Energy Consumed since the beginning of the day 
5 - Energy Produced since the beginning of the day 
6 - Energy Lost since the beginning of the day on lines starting from the city
 
0 ; 2375672.646822503 ; 1.0545564779813245E8 ; 0.0 ; 0.0 ; 0.0
1 ; 2378064.0779725797 ; 1.056085135913251E8 ; 2375672.646822503 ; 1.0545564779813245E8 ; 0.0
2 ; 2379057.3517433964 ; 1.0607016808176944E8 ; 4753736.724795083 ; 2.1106416138945755E8 ; 0.0
3 ; 2383201.3192307064 ; 1.0684061335314035E8 ; 7132794.076538479 ; 3.17134329471227E8 ; 0.0
4 ; 2388712.3824386057 ; 1.0791985128326046E8 ; 9515995.395769186 ; 4.2397494282436734E8 ; 0.0
5 ; 2390717.6397646787 ; 1.0930788353021687E8 ; 1.1904707778207792E7 ; 5.318947941076278E8 ; 0.0
6 ; 2395865.229370563 ; 1.110047115197812E8 ; 1.4295425417972472E7 ; 6.412026776378447E8 ; 0.0
7 ; 2404571.5540751233 ; 1.1301033643435013E8 ; 1.6691290647343034E7 ; 7.522073891576259E8 ; 0.0
8 ; 2415633.824610278 ; 1.1532475920360273E8 ; 1.9095862201418158E7 ; 8.65217725591976E8 ; 0.0
9 ; 2430950.688219979 ; 1.1794798049704528E8 ; 2.1511496026028436E7 ; 9.805424847955787E8 ; 0.0
10 ; 2458097.355340635 ; 1.2088000071858245E8 ; 2.3942446714248415E7 ; 1.098490465292624E9 ; 0.0
11 ; 2500958.960381218 ; 1.2412082000321814E8 ; 2.640054406958905E7 ; 1.2193704660112064E9 ; 0.0
12 ; 2564880.91167618 ; 1.2767043821594843E8 ; 2.8901503029970266E7 ; 1.3434912860144246E9 ; 0.0
13 ; 2628206.79871359 ; 1.3152885495286864E8 ; 3.1466383941646446E7 ; 1.471161724230373E9 ; 0.0
14 ; 2637422.785715798 ; 1.3569606954447258E8 ; 3.409459074036004E7 ; 1.6026905791832416E9 ; 0.0
15 ; 2640461.445940262 ; 1.4017208106108105E8 ; 3.673201352607583E7 ; 1.738386648727714E9 ; 0.0
16 ; 2642140.5077868043 ; 1.449568883202975E8 ; 3.9372474972016096E7 ; 1.878558729788795E9 ; 0.0
17 ; 2644504.605561858 ; 1.5005048989635023E8 ; 4.20146154798029E7 ; 2.0235156181090925E9 ; 0.0
18 ; 2647958.426948755 ; 1.5545288413115215E8 ; 4.465912008536476E7 ; 2.1735661080054426E9 ; 0.0
19 ; 2652961.539020129 ; 1.6116406914688066E8 ; 4.7307078512313515E7 ; 2.329018992136595E9 ; 0.0
20 ; 2654740.7447404554 ; 1.671840428598608E8 ; 4.996004005133364E7 ; 2.4901830612834754E9 ; 0.0
21 ; 2657728.233786245 ; 1.735128029955218E8 ; 5.26147807960741E7 ; 2.6573671041433363E9 ; 0.0
22 ; 2660472.119425626 ; 1.8015034710419005E8 ; 5.527250902986035E7 ; 2.8308799071388583E9 ; 0.0
23 ; 2664199.2239054698 ; 1.8709667257748014E8 ; 5.793298114928597E7 ; 3.011030254243048E9 ; 0.0
24 ; 2668019.0794623047 ; 1.943517766650511E8 ; 6.059718037319144E7 ; 3.1981269268205285E9 ; 0.0
25 ; 2670543.373304555 ; 2.006036973896896E8 ; 6.326519945265374E7 ; 3.3924787034855795E9 ; 0.0
26 ; 2672346.4238717486 ; 2.0060597960103944E8 ; 6.59357428259583E7 ; 3.593082400875269E9 ; 0.0
27 ; 2675892.003395829 ; 2.0060838951708415E8 ; 6.860808924983005E7 ; 3.7936883804763083E9 ; 0.0
28 ; 2678238.544460658 ; 2.006109239870739E8 ; 7.128398125322588E7 ; 3.9942967699933925E9 ; 0.0
29 ; 2681993.6616502646 ; 2.006135798003545E8 ; 7.396221979768653E7 ; 4.1949076939804664E9 ; 0.0
30 ; 2684400.8468865203 ; 2.0061635370125628E8 ; 7.66442134593368E7 ; 4.395521273780821E9 ; 0.0
31 ; 2686070.6957725068 ; 2.006192424031879E8 ; 7.932861430622332E7 ; 4.596137627482077E9 ; 0.0
32 ; 2689317.6663539545 ; 2.0062224260185793E8 ; 8.201468500199583E7 ; 4.796756869885264E9 ; 0.0
33 ; 2691968.1785404235 ; 2.0062535098756742E8 ; 8.470400266834979E7 ; 4.997379112487123E9 ; 0.0
34 ; 2695145.410656513 ; 2.0062856425653812E8 ; 8.739597084689021E7 ; 5.1980044634746895E9 ; 0.0
35 ; 2698721.2081931713 ; 2.006318791212585E8 ; 9.009111625754672E7 ; 5.398633027731228E9 ; 0.0
36 ; 2699798.55233808 ; 2.0063529231984565E8 ; 9.278983746573989E7 ; 5.599264906852487E9 ; 0.0
37 ; 2702652.8013415663 ; 2.00638800624436E8 ; 9.548963601807797E7 ; 5.799900199172332E9 ; 0.0
38 ; 2703782.4658601787 ; 2.0064240084862843E8 ; 9.819228881941953E7 ; 6.000538999796768E9 ; 0.0
39 ; 2708170.6471288037 ; 2.0064608985401416E8 ; 1.008960712852797E8 ; 6.201181400645396E9 ; 0.0
40 ; 2707403.784048355 ; 2.0064986455583456E8 ; 1.0360424193240851E8 ; 6.401827490499411E9 ; 0.0
41 ; 2711163.6020463207 ; 2.0065372192781484E8 ; 1.0631164571645686E8 ; 6.602477355055245E9 ; 0.0
42 ; 2711320.40329233 ; 2.006576590062245E8 ; 1.0902280931850319E8 ; 6.80313107698306E9 ; 0.0
43 ; 2713615.6792496378 ; 2.006616728932195E8 ; 1.1173412972179551E8 ; 7.0037887359892845E9 ; 0.0
44 ; 2717223.952266491 ; 2.0066576075952116E8 ; 1.1444774540104516E8 ; 7.204450408882504E9 ; 0.0
45 ; 2716392.2118175053 ; 2.0066991984648785E8 ; 1.1716496935331164E8 ; 7.405116169642026E9 ; 0.0
46 ; 2719200.517929507 ; 2.0067414746763483E8 ; 1.1988136156512915E8 ; 7.605786089488514E9 ; 0.0
47 ; 2721279.0566256116 ; 2.006784410096555E8 ; 1.2260056208305866E8 ; 7.806460236956149E9 ; 0.0
48 ; 2720458.794514643 ; 2.0068279793299654E8 ; 1.2532184113968426E8 ; 8.007138677965805E9 ; 0.0
49 ; 2722390.86879736 ; 2.0068721577203563E8 ; 1.280422999341989E8 ; 8.207821475898802E9 ; 0.0
50 ; 2723640.7384460205 ; 2.006916921349086E8 ; 1.3076469080299626E8 ; 8.408508691670837E9 ; 0.0
51 ; 2723881.987210934 ; 2.0069622470302966E8 ; 1.3348833154144229E8 ; 8.609200383805746E9 ; 0.0
52 ; 2724373.2302222583 ; 2.0070081123034537E8 ; 1.3621221352865323E8 ; 8.809896608508776E9 ; 0.0
53 ; 2724602.9903534674 ; 2.00705449542359E8 ; 1.389365867588755E8 ; 9.01059741973912E9 ; 0.0
54 ; 2726082.710432586 ; 2.0071013753496072E8 ; 1.4166118974922895E8 ; 9.211302869281479E9 ; 0.0
55 ; 2726175.753744149 ; 2.0071487317309362E8 ; 1.4438727245966154E8 ; 9.412013006816439E9 ; 0.0
56 ; 2727082.101311231 ; 2.0071965448928487E8 ; 1.471134482134057E8 ; 9.612727879989532E9 ; 0.0
57 ; 2728475.1123529747 ; 2.007244795820667E8 ; 1.4984053031471694E8 ; 9.813447534478817E9 ; 0.0
58 ; 2729487.126369296 ; 2.007293466143105E8 ; 1.525690054270699E8 ; 1.0014172014060884E10 ; 0.0
59 ; 2729039.1984757194 ; 2.0073425381149396E8 ; 1.552984925534392E8 ; 1.0214901360675196E10 ; 0.0
60 ; 2728660.303416932 ; 2.007391994599196E8 ; 1.5802753175191492E8 ; 1.041563561448669E10 ; 0.0
61 ; 2730273.9577499046 ; 2.0074418190490028E8 ; 1.6075619205533186E8 ; 1.061637481394661E10 ; 0.0
62 ; 2732032.4732888695 ; 2.0074919954892567E8 ; 1.6348646601308176E8 ; 1.081711899585151E10 ; 0.0
63 ; 2730788.6797618093 ; 2.0075425084982145E8 ; 1.6621849848637062E8 ; 1.1017868195400434E10 ; 0.0
64 ; 2731570.0266749547 ; 2.0075933431891212E8 ; 1.6894928716613242E8 ; 1.1218622446250256E10 ; 0.0
65 ; 2731038.133559468 ; 2.0076444851919615E8 ; 1.7168085719280738E8 ; 1.1419381780569168E10 ; 0.0
66 ; 2733986.7455076464 ; 2.0076959206354076E8 ; 1.7441189532636684E8 ; 1.1620146229088364E10 ; 0.0
67 ; 2733482.6293220087 ; 2.0077476361290318E8 ; 1.771458820718745E8 ; 1.1820915821151905E10 ; 0.0
68 ; 2732930.0859006145 ; 2.0077996187458366E8 ; 1.7987936470119652E8 ; 1.2021690584764809E10 ; 0.0
69 ; 2733285.5198384747 ; 2.007851856005142E8 ; 1.8261229478709713E8 ; 1.2222470546639393E10 ; 0.0
70 ; 2733785.706645198 ; 2.0079043358558726E8 ; 1.853455803069356E8 ; 1.2423255732239906E10 ; 0.0
71 ; 2732465.9293364384 ; 2.0079570466602632E8 ; 1.880793660135808E8 ; 1.2624046165825493E10 ; 0.0
72 ; 2734472.872814364 ; 2.008009977178015E8 ; 1.9081183194291723E8 ; 1.282484187049152E10 ; 0.0
73 ; 2734058.1634994633 ; 2.00806311655091E8 ; 1.9354630481573159E8 ; 1.3025642868209322E10 ; 0.0
74 ; 2733694.3740367293 ; 2.008116454287897E8 ; 1.9628036297923106E8 ; 1.3226449179864412E10 ; 0.0
75 ; 2735758.28968721 ; 2.00816998025066E8 ; 1.990140573532678E8 ; 1.3427260825293201E10 ; 0.0
76 ; 2734653.760486646 ; 2.0082236846396637E8 ; 2.01749815642955E8 ; 1.3628077823318268E10 ; 0.0
77 ; 2733507.6811110503 ; 2.008277557980685E8 ; 2.0448446940344164E8 ; 1.3828900191782234E10 ; 0.0
78 ; 2733973.0343034635 ; 2.0083315911118212E8 ; 2.0721797708455268E8 ; 1.4029727947580303E10 ; 0.0
79 ; 2733004.8638908616 ; 2.008385775170973E8 ; 2.0995195011885613E8 ; 1.4230561106691484E10 ; 0.0
80 ; 2733425.828540428 ; 2.0084401015837938E8 ; 2.12684954982747E8 ; 1.4431399684208582E10 ; 0.0
81 ; 2731394.5152452816 ; 2.0084945620521E8 ; 2.154183808112874E8 ; 1.463224369436696E10 ; 0.0
82 ; 2732633.523183049 ; 2.008549148542728E8 ; 2.181497753265327E8 ; 1.483309315057217E10 ; 0.0
83 ; 2730470.1175757577 ; 2.00860385327683E8 ; 2.2088240884971574E8 ; 1.5033948065426443E10 ; 0.0
84 ; 2727756.7395873405 ; 2.0086586687195984E8 ; 2.236128789672915E8 ; 1.5234808450754126E10 ; 0.0
85 ; 2727120.769426641 ; 2.008713587570403E8 ; 2.2634063570687884E8 ; 1.5435674317626085E10 ; 0.0
86 ; 2725791.077344066 ; 2.008768602753332E8 ; 2.2906775647630548E8 ; 1.5636545676383125E10 ; 0.0
87 ; 2727171.5923754843 ; 2.008823707408122E8 ; 2.3179354755364954E8 ; 1.5837422536658459E10 ; 0.0
88 ; 2726273.3208855405 ; 2.0088788948814645E8 ; 2.3452071914602503E8 ; 1.6038304907399271E10 ; 0.0
89 ; 2724095.8036507317 ; 2.0089341587186766E8 ; 2.3724699246691057E8 ; 1.6239192796887417E10 ; 0.0
90 ; 2724014.3754792833 ; 2.00898949265572E8 ; 2.399710882705613E8 ; 1.6440086212759285E10 ; 0.0
91 ; 2722495.085583589 ; 2.0090448906115627E8 ; 2.426951026460406E8 ; 1.6640985162024857E10 ; 0.0
92 ; 2720799.2608600035 ; 2.0091003466808587E8 ; 2.454175977316242E8 ; 1.6841889651086014E10 ; 0.0
93 ; 2721687.3128209766 ; 2.0091558551269454E8 ; 2.4813839699248418E8 ; 1.7042799685754099E10 ; 0.0
94 ; 2719146.5220672796 ; 2.0092114103751388E8 ; 2.5086008430530515E8 ; 1.7243715271266792E10 ; 0.0
95 ; 2718864.9651900325 ; 2.009267007006316E8 ; 2.5357923082737243E8 ; 1.7444636412304306E10 ; 0.0
96 ; 2718666.9200498234 ; 2.0093226397507748E8 ; 2.5629809579256245E8 ; 1.7645563113004936E10 ; 0.0
97 ; 2715261.4798465623 ; 2.0093783034823582E8 ; 2.5901676271261227E8 ; 1.7846495376980015E10 ; 0.0
98 ; 2714689.4336081077 ; 2.0094339932128316E8 ; 2.6173202419245884E8 ; 1.804743320732825E10 ; 0.0
99 ; 2713974.759988457 ; 2.0094897040865028E8 ; 2.6444671362606695E8 ; 1.8248376606649532E10 ; 0.0
100 ; 2711540.7955894675 ; 2.009545431375076E8 ; 2.671606883860554E8 ; 1.844932557705818E10 ; 0.0
101 ; 2709935.973524659 ; 2.0096011704727256E8 ; 2.6987222918164486E8 ; 1.865028012019569E10 ; 0.0
102 ; 2710131.01684025 ; 2.009656916891387E8 ; 2.725821651551695E8 ; 1.885124023724296E10 ; 0.0
103 ; 2708368.5941425897 ; 2.009712666256246E8 ; 2.7529229617200977E8 ; 1.9052205928932102E10 ; 0.0
104 ; 2707133.022704547 ; 2.0097684143014255E8 ; 2.780006647661524E8 ; 1.9253177195557728E10 ; 0.0
105 ; 2705631.030759325 ; 2.0098241568658593E8 ; 2.807077977888569E8 ; 1.945415403698787E10 ; 0.0
106 ; 2703896.149837231 ; 2.0098798898893407E8 ; 2.8341342881961626E8 ; 1.9655136452674454E10 ; 0.0
107 ; 2702800.8556198208 ; 2.0099356094087437E8 ; 2.861173249694535E8 ; 1.9856124441663387E10 ; 0.0
108 ; 2700631.347389915 ; 2.0099913115544033E8 ; 2.8882012582507336E8 ; 2.0057118002604263E10 ; 0.0
109 ; 2698969.495903763 ; 2.0100469925466555E8 ; 2.915207571724633E8 ; 2.0258117133759705E10 ; 0.0
110 ; 2698698.9018296273 ; 2.0101026486925203E8 ; 2.942197266683671E8 ; 2.045912183301437E10 ; 0.0
111 ; 2696226.576610035 ; 2.0101582763825294E8 ; 2.969184255701967E8 ; 2.066013209788362E10 ; 0.0
112 ; 2695389.8671055073 ; 2.0102138720876884E8 ; 2.996146521468067E8 ; 2.0861147925521873E10 ; 0.0
113 ; 2693601.009384585 ; 2.010269432356568E8 ; 3.023100420139122E8 ; 2.1062169312730644E10 ; 0.0
114 ; 2690937.2318852693 ; 2.0103249538125157E8 ; 3.050036430232968E8 ; 2.12631962559663E10 ; 0.0
115 ; 2689018.8623615815 ; 2.0103804331509915E8 ; 3.07694580255182E8 ; 2.1464228751347553E10 ; 0.0
116 ; 2687632.385105987 ; 2.0104358671370083E8 ; 3.1038359911754364E8 ; 2.166526679466265E10 ; 0.0
117 ; 2687208.337674635 ; 2.010491252602686E8 ; 3.130712315026496E8 ; 2.186631038137635E10 ; 0.0
118 ; 2686707.43718047 ; 2.0105465864449042E8 ; 3.157584398403242E8 ; 2.206735950663662E10 ; 0.0
119 ; 2683817.4589555175 ; 2.010601865623055E8 ; 3.184451472775047E8 ; 2.226841416528111E10 ; 0.0
120 ; 2682347.2999453745 ; 2.010657087156888E8 ; 3.211289647364602E8 ; 2.2469474351843414E10 ; 0.0
121 ; 2678439.8282002592 ; 2.0107122481244448E8 ; 3.2381131203640556E8 ; 2.2670540060559105E10 ; 0.0
122 ; 2676902.595245269 ; 2.0107673456600797E8 ; 3.2648975186460584E8 ; 2.2871611285371548E10 ; 0.0
123 ; 2676784.8836098886 ; 2.0108223769525617E8 ; 3.291666544598511E8 ; 2.3072688019937557E10 ; 0.0
124 ; 2675436.0198441185 ; 2.0108773392432538E8 ; 3.31843439343461E8 ; 2.3273770257632812E10 ; 0.0
125 ; 2672106.151603941 ; 2.0109322298243672E8 ; 3.345188753633051E8 ; 2.3474857991557137E10 ; 0.0
126 ; 2669742.907661118 ; 2.010987046037286E8 ; 3.37190981514909E8 ; 2.3675951214539574E10 ; 0.0
127 ; 2668801.0631079916 ; 2.0110417852709615E8 ; 3.3986072442257017E8 ; 2.3877049919143303E10 ; 0.0
128 ; 2666671.648101365 ; 2.0110964449603707E8 ; 3.4252952548567814E8 ; 2.40781540976704E10 ; 0.0
129 ; 2664648.856728024 ; 2.011151022585035E8 ; 3.451961971337795E8 ; 2.4279263742166435E10 ; 0.0
130 ; 2661201.486901286 ; 2.0112055156676024E8 ; 3.4786084599050754E8 ; 2.448037884442494E10 ; 0.0
131 ; 2658627.992088512 ; 2.0112599217724827E8 ; 3.505220474774088E8 ; 2.46814993959917E10 ; 0.0
132 ; 2657494.5569975344 ; 2.0113142385045388E8 ; 3.531806754694973E8 ; 2.488262538816895E10 ; 0.0
133 ; 2653031.8181616976 ; 2.0113684635078308E8 ; 3.5583817002649486E8 ; 2.50837568120194E10 ; 0.0
134 ; 2650447.4517423026 ; 2.0114225944644076E8 ; 3.584912018446566E8 ; 2.5284893658370186E10 ; 0.0
135 ; 2647286.1050414545 ; 2.0114766290931478E8 ; 3.611416492963989E8 ; 2.5486035917816628E10 ; 0.0
136 ; 2644859.8845329266 ; 2.011530565148646E8 ; 3.637889354014403E8 ; 2.568718358072594E10 ; 0.0
137 ; 2642763.681777868 ; 2.0115844004201418E8 ; 3.6643379528597325E8 ; 2.5888336637240807E10 ; 0.0
138 ; 2638656.2062379858 ; 2.0116381327304912E8 ; 3.6907655896775115E8 ; 2.608949507728282E10 ; 0.0
139 ; 2636125.425112629 ; 2.0116917599351782E8 ; 3.717152151739891E8 ; 2.629065889055587E10 ; 0.0
140 ; 2633526.092383398 ; 2.011745279921363E8 ; 3.743513405991017E8 ; 2.649182806654939E10 ; 0.0
141 ; 2630948.62595565 ; 2.0117986906069702E8 ; 3.769848666914851E8 ; 2.6693002594541527E10 ; 0.0
142 ; 2627247.4762747525 ; 2.0118519899398074E8 ; 3.7961581531744075E8 ; 2.6894182463602222E10 ; 0.0
143 ; 2623480.111149146 ; 2.0119051758967218E8 ; 3.822430627937155E8 ; 2.7095367662596203E10 ; 0.0
144 ; 2620798.5153882983 ; 2.0119582464827865E8 ; 3.848665429048646E8 ; 2.7296558180185875E10 ; 0.0
145 ; 2617584.619665852 ; 2.012011199730518E8 ; 3.874873414202529E8 ; 2.7497754004834152E10 ; 0.0
146 ; 2617383.4562654044 ; 2.0120640336991236E8 ; 3.901049260399188E8 ; 2.7698955124807205E10 ; 0.0
147 ; 2612731.573417943 ; 2.0121167464737776E8 ; 3.927223094961842E8 ; 2.7900161528177116E10 ; 0.0
148 ; 2611600.0016523763 ; 2.0121693361649236E8 ; 3.9533504106960213E8 ; 2.8101373202824493E10 ; 0.0
149 ; 2608922.3171076276 ; 2.0122218009076035E8 ; 3.979466410712545E8 ; 2.8302590136440987E10 ; 0.0
150 ; 2607508.221372301 ; 2.0122741388608113E8 ; 4.005555633883621E8 ; 2.8503812316531746E10 ; 0.0
151 ; 2605700.017324759 ; 2.0123263482068714E8 ; 4.031630716097344E8 ; 2.8705039730417828E10 ; 0.0
152 ; 2602136.369176523 ; 2.0123784271508393E8 ; 4.0576877162705916E8 ; 2.8906272365238514E10 ; 0.0
153 ; 2600253.2141285352 ; 2.0124303739199233E8 ; 4.0837090799623567E8 ; 2.9107510207953598E10 ; 0.0
154 ; 2598423.2590816165 ; 2.012482186762931E8 ; 4.109711612103642E8 ; 2.930875324534559E10 ; 0.0
155 ; 2595652.545935864 ; 2.0125338639497316E8 ; 4.135695844694458E8 ; 2.951000146402188E10 ; 0.0
156 ; 2593170.6000584615 ; 2.0125854037707403E8 ; 4.161652370153817E8 ; 2.9711254850416855E10 ; 0.0
157 ; 2591771.4222805602 ; 2.0126368045364216E8 ; 4.1875840761544013E8 ; 2.991251339079393E10 ; 0.0
158 ; 2589622.6902194964 ; 2.0126880645768094E8 ; 4.213501790377207E8 ; 3.0113777071247574E10 ; 0.0
159 ; 2587143.1076280745 ; 2.012739182241045E8 ; 4.239398017279402E8 ; 3.0315045877705254E10 ; 0.0
160 ; 2584456.0331342164 ; 2.0127901558969313E8 ; 4.2652694483556825E8 ; 3.051631979592936E10 ; 0.0
161 ; 2582392.8603865895 ; 2.0128409839305046E8 ; 4.291114008687025E8 ; 3.0717598811519054E10 ; 0.0
162 ; 2579963.600764934 ; 2.0128916647456178E8 ; 4.316937937290891E8 ; 3.0918882909912106E10 ; 0.0
163 ; 2577971.1285479465 ; 2.012942196763544E8 ; 4.34273757329854E8 ; 3.112017207638667E10 ; 0.0
164 ; 2575857.076548398 ; 2.0129925784225887E8 ; 4.36851728458402E8 ; 3.1321466296063023E10 ; 0.0
165 ; 2571850.8995264396 ; 2.013042808177719E8 ; 4.394275855349504E8 ; 3.152276555390528E10 ; 0.0
166 ; 2571509.5041331635 ; 2.0130928845002055E8 ; 4.419994364344768E8 ; 3.1724069834723053E10 ; 0.0
167 ; 2570805.0236755805 ; 2.013142805877275E8 ; 4.4457094593860996E8 ; 3.1925379123173073E10 ; 0.0
168 ; 2565683.471527099 ; 2.013192570811777E8 ; 4.471417509622855E8 ; 3.21266934037608E10 ; 0.0
169 ; 2563794.424513981 ; 2.0132421778218633E8 ; 4.497074344338126E8 ; 3.2328012660841976E10 ; 0.0
170 ; 2562821.0044811247 ; 2.0132916254406732E8 ; 4.522712288583266E8 ; 3.252933687862416E10 ; 0.0
171 ; 2558961.6605233448 ; 2.013340912216036E8 ; 4.5483404986280775E8 ; 3.273066604116823E10 ; 0.0
172 ; 2557167.542464934 ; 2.0133900367101806E8 ; 4.573930115233311E8 ; 3.293200013238983E10 ; 0.0
173 ; 2555235.0541018005 ; 2.013438997499454E8 ; 4.59950179065796E8 ; 3.313333913606085E10 ; 0.0
174 ; 2552151.0111313155 ; 2.0134877931740537E8 ; 4.6250541411989784E8 ; 3.3334683035810795E10 ; 0.0
175 ; 2551759.0722039635 ; 2.0135364223377636E8 ; 4.650575651310291E8 ; 3.35360318151282E10 ; 0.0
176 ; 2549871.494155402 ; 2.0135848836077043E8 ; 4.6760932420323306E8 ; 3.3737385457361977E10 ; 0.0
177 ; 2548230.61045854 ; 2.0136331756140876E8 ; 4.7015919569738847E8 ; 3.3938743945722748E10 ; 0.0
178 ; 2546218.0465677124 ; 2.013681296999983E8 ; 4.72707426307847E8 ; 3.4140107263284157E10 ; 0.0
179 ; 2546939.2854000097 ; 2.0137292464210883E8 ; 4.7525364435441476E8 ; 3.4341475392984154E10 ; 0.0
180 ; 2544566.273199189 ; 2.0137770225455123E8 ; 4.778005836398148E8 ; 3.454284831762626E10 ; 0.0
181 ; 2541358.854219412 ; 2.013824624053561E8 ; 4.80345149913014E8 ; 3.474422601988081E10 ; 0.0
182 ; 2540630.4090179172 ; 2.0138720496375322E8 ; 4.8288650876723343E8 ; 3.494560848228617E10 ; 0.0
183 ; 2539094.562890064 ; 2.0139192980015188E8 ; 4.8542713917625135E8 ; 3.514699568724992E10 ; 0.0
184 ; 2537617.1057024025 ; 2.0139663678612158E8 ; 4.879662337391414E8 ; 3.534838761705008E10 ; 0.0
185 ; 2537627.0715146135 ; 2.0140132579437354E8 ; 4.905038508448438E8 ; 3.5549784253836205E10 ; 0.0
186 ; 2536726.838553283 ; 2.014059966987429E8 ; 4.930414779163584E8 ; 3.575118557963058E10 ; 0.0
187 ; 2533743.6853621406 ; 2.014106493741713E8 ; 4.955782047549117E8 ; 3.595259157632932E10 ; 0.0
188 ; 2531596.68502609 ; 2.0141528369669008E8 ; 4.981119484402739E8 ; 3.615400222570349E10 ; 0.0
189 ; 2532139.2579341177 ; 2.0141989954340434E8 ; 5.006435451253E8 ; 3.6355417509400185E10 ; 0.0
190 ; 2528447.6331547205 ; 2.0142449679247704E8 ; 5.031756843832341E8 ; 3.655683740894359E10 ; 0.0
191 ; 2529399.967738129 ; 2.0142907532311404E8 ; 5.0570413201638883E8 ; 3.675826190573607E10 ; 0.0
192 ; 2526605.4749484924 ; 2.0143363501554936E8 ; 5.08233531984127E8 ; 3.695969098105918E10 ; 0.0
193 ; 2526048.0767546673 ; 2.014381757510311E8 ; 5.1076013745907545E8 ; 3.716112461607473E10 ; 0.0
194 ; 2522952.5917714653 ; 2.0144269741180772E8 ; 5.1328618553583014E8 ; 3.736256279182576E10 ; 0.0
195 ; 2522115.9531726344 ; 2.0144719988111478E8 ; 5.158091381276016E8 ; 3.7564005489237564E10 ; 0.0
196 ; 2520640.4701922224 ; 2.0145168304316217E8 ; 5.1833125408077425E8 ; 3.7765452689118675E10 ; 0.0
197 ; 2517684.1500347583 ; 2.0145614678312165E8 ; 5.2085189455096644E8 ; 3.7966904372161835E10 ; 0.0
198 ; 2516923.1538410573 ; 2.0146059098711503E8 ; 5.233695787010012E8 ; 3.8168360518944954E10 ; 0.0
199 ; 2517617.558000247 ; 2.0146501554220232E8 ; 5.258865018548423E8 ; 3.836982110993207E10 ; 0.0
200 ; 2514603.6542806467 ; 2.0146942033637074E8 ; 5.284041194128426E8 ; 3.857128612547427E10 ; 0.0
