CSV File for the City 6 on Day 33
1 - Minute m 
2 - Power Consumed at minute m 
3 - Power Produced at minute m 
4 - Energy Consumed since the beginning of the day 
5 - Energy Produced since the beginning of the day 
6 - Energy Lost since the beginning of the day on lines starting from the city
 
0 ; 1.1111460548299745E7 ; 1.0547328627633426E8 ; 0.0 ; 0.0 ; 0.0
1 ; 1.112644215308332E7 ; 1.0562125865507299E8 ; 1.1111460548299745E7 ; 1.0547328627633426E8 ; 0.0
2 ; 1.1138443456582634E7 ; 1.0607842601204845E8 ; 2.2237902701383065E7 ; 2.1109454493140724E8 ; 0.0
3 ; 1.1149191000631971E7 ; 1.0684482144099313E8 ; 3.3376346157965697E7 ; 3.171729709434557E8 ; 0.0
4 ; 1.1166553795265727E7 ; 1.0792047693592936E8 ; 4.452553715859767E7 ; 4.240177923844488E8 ; 0.0
5 ; 1.1189759449454507E7 ; 1.0930542261820334E8 ; 5.56920909538634E7 ; 5.319382693203782E8 ; 0.0
6 ; 1.1213797270544352E7 ; 1.1099968591102657E8 ; 6.6881850403317906E7 ; 6.412436919385815E8 ; 0.0
7 ; 1.1250062406924745E7 ; 1.1300329070315742E8 ; 7.809564767386226E7 ; 7.522433778496081E8 ; 0.0
8 ; 1.1305091751394816E7 ; 1.1531625655290568E8 ; 8.9345710080787E7 ; 8.652466685527655E8 ; 0.0
9 ; 1.1383511921181012E7 ; 1.1793859798873514E8 ; 1.0065080183218181E8 ; 9.805629251056712E8 ; 0.0
10 ; 1.1508222594321795E7 ; 1.2087032396150792E8 ; 1.1203431375336282E8 ; 1.0985015230944064E9 ; 0.0
11 ; 1.1704483219184004E7 ; 1.24111437494908E8 ; 1.2354253634768462E8 ; 1.2193718470559144E9 ; 0.0
12 ; 1.202479539320095E7 ; 1.2766193556525138E8 ; 1.3524701956686863E8 ; 1.3434832845508225E9 ; 0.0
13 ; 1.2331263466946054E7 ; 1.3152180922167593E8 ; 1.472718149600696E8 ; 1.4711452201160738E9 ; 0.0
14 ; 1.2367454303469095E7 ; 1.3569104393571794E8 ; 1.5960307842701566E8 ; 1.6026670293377497E9 ; 0.0
15 ; 1.2379858243749343E7 ; 1.4016962014906752E8 ; 1.7197053273048475E8 ; 1.7383580732734675E9 ; 0.0
16 ; 1.239398549013484E7 ; 1.449575139729664E8 ; 1.843503909742341E8 ; 1.878527693422535E9 ; 0.0
17 ; 1.2407806002394835E7 ; 1.50054697984203E8 ; 1.9674437646436894E8 ; 2.0234852073955014E9 ; 0.0
18 ; 1.2425278614564428E7 ; 1.5546114206143117E8 ; 2.0915218246676376E8 ; 2.1735399053797045E9 ; 0.0
19 ; 1.2436475231948672E7 ; 1.6117681421062854E8 ; 2.2157746108132818E8 ; 2.3290010474411354E9 ; 0.0
20 ; 1.2451312149470761E7 ; 1.672016813380626E8 ; 2.3401393631327686E8 ; 2.490177861651764E9 ; 0.0
21 ; 1.246486967295016E7 ; 1.7353570994091913E8 ; 2.4646524846274763E8 ; 2.6573795429898267E9 ; 0.0
22 ; 1.2477184271796096E7 ; 1.8017886669776058E8 ; 2.5893011813569778E8 ; 2.8309152529307456E9 ; 0.0
23 ; 1.2495317773072097E7 ; 1.8713111895169926E8 ; 2.714073024074939E8 ; 3.011094119628506E9 ; 0.0
24 ; 1.2510181077567408E7 ; 1.9439243508772832E8 ; 2.83902620180566E8 ; 3.1982252385802054E9 ; 0.0
25 ; 1.2523232873436911E7 ; 2.0065082570993015E8 ; 2.964128012581334E8 ; 3.392617673667934E9 ; 0.0
26 ; 1.253706451145929E7 ; 2.0065980987038183E8 ; 3.0893603413157034E8 ; 3.593268499377864E9 ; 0.0
27 ; 1.2552174875404704E7 ; 2.0066912971213976E8 ; 3.2147309864302963E8 ; 3.7939283092482457E9 ; 0.0
28 ; 1.2568814295505425E7 ; 2.0067875977356303E8 ; 3.3402527351843435E8 ; 3.9945974389603853E9 ; 0.0
29 ; 1.2582721359635523E7 ; 2.0068867629127914E8 ; 3.4659408781393975E8 ; 4.195276198733948E9 ; 0.0
30 ; 1.2590537438181419E7 ; 2.0069885717347202E8 ; 3.591768091735753E8 ; 4.395964875025228E9 ; 0.0
31 ; 1.2605151740598662E7 ; 2.00709281946544E8 ; 3.717673466117567E8 ; 4.5966637321987E9 ; 0.0
32 ; 1.2622993622876601E7 ; 2.007199316833031E8 ; 3.8437249835235536E8 ; 4.797373014145244E9 ; 0.0
33 ; 1.2634399882264646E7 ; 2.0073078891924828E8 ; 3.9699549197523195E8 ; 4.998092945828547E9 ; 0.0
34 ; 1.2646806713323254E7 ; 2.0074183756210804E8 ; 4.096298918574966E8 ; 5.198823734747795E9 ; 0.0
35 ; 1.266000896951672E7 ; 2.0075306279856545E8 ; 4.2227669857081985E8 ; 5.399565572309903E9 ; 0.0
36 ; 1.2668889906239584E7 ; 2.0076445100108507E8 ; 4.3493670754033655E8 ; 5.600318635108469E9 ; 0.0
37 ; 1.2678095814812599E7 ; 2.007759896369307E8 ; 4.476055974465761E8 ; 5.801083086109554E9 ; 0.0
38 ; 1.2691923617184045E7 ; 2.0078766718080792E8 ; 4.602836932613887E8 ; 6.001859075746485E9 ; 0.0
39 ; 1.2700796035828426E7 ; 2.0079947303205836E8 ; 4.7297561687857276E8 ; 6.202646742927293E9 ; 0.0
40 ; 1.271545565748496E7 ; 2.008113974369462E8 ; 4.856764129144012E8 ; 6.403446215959352E9 ; 0.0
41 ; 1.27186277938434E7 ; 2.008234314162915E8 ; 4.983918685718861E8 ; 6.604257613396297E9 ; 0.0
42 ; 1.2724854842197271E7 ; 2.008355666984965E8 ; 5.111104963657295E8 ; 6.805081044812589E9 ; 0.0
43 ; 1.2730093793324603E7 ; 2.0084779565786514E8 ; 5.238353512079268E8 ; 7.0059166115110855E9 ; 0.0
44 ; 1.274398479421353E7 ; 2.008601112580165E8 ; 5.365654450012514E8 ; 7.206764407168951E9 ; 0.0
45 ; 1.2753720730126502E7 ; 2.0087250700012904E8 ; 5.493094297954649E8 ; 7.407624518426968E9 ; 0.0
46 ; 1.2756655920315912E7 ; 2.0088497687571603E8 ; 5.620631505255914E8 ; 7.608497025427096E9 ; 0.0
47 ; 1.2762055810280157E7 ; 2.0089751532361385E8 ; 5.748198064459072E8 ; 7.809382002302813E9 ; 0.0
48 ; 1.2765350828298952E7 ; 2.0091011719086185E8 ; 5.875818622561874E8 ; 8.010279517626427E9 ; 0.0
49 ; 1.2772838785284761E7 ; 2.009227776971568E8 ; 6.003472130844864E8 ; 8.211189634817288E9 ; 0.0
50 ; 1.2775117732816797E7 ; 2.0093549240257785E8 ; 6.131200518697711E8 ; 8.412112412514445E9 ; 0.0
51 ; 1.2778930006218672E7 ; 2.0094825717829403E8 ; 6.258951696025879E8 ; 8.613047904917023E9 ; 0.0
52 ; 1.2784150720664658E7 ; 2.0096106817998314E8 ; 6.386740996088066E8 ; 8.813996162095316E9 ; 0.0
53 ; 1.2785850226003869E7 ; 2.0097392182371256E8 ; 6.514582503294712E8 ; 9.0149572302753E9 ; 0.0
54 ; 1.2788220378550848E7 ; 2.0098681476405072E8 ; 6.642441005554751E8 ; 9.215931152099012E9 ; 0.0
55 ; 1.279172953403834E7 ; 2.0099974387419724E8 ; 6.77032320934026E8 ; 9.416917966863064E9 ; 0.0
56 ; 1.2796928586286608E7 ; 2.010127062279393E8 ; 6.898240504680643E8 ; 9.61791771073726E9 ; 0.0
57 ; 1.2798812761071013E7 ; 2.0102569908325845E8 ; 7.02620979054351E8 ; 9.8189304169652E9 ; 0.0
58 ; 1.2801377065646006E7 ; 2.0103871986742836E8 ; 7.154197918154219E8 ; 1.0019956116048458E10 ; 0.0
59 ; 1.2804489552087784E7 ; 2.0105176616346052E8 ; 7.28221168881068E8 ; 1.0220994835915886E10 ; 0.0
60 ; 1.28062376512055E7 ; 2.010648356977664E8 ; 7.410256584331558E8 ; 1.0422046602079346E10 ; 0.0
61 ; 1.280606151031694E7 ; 2.0107792632892016E8 ; 7.538318960843613E8 ; 1.0623111437777113E10 ; 0.0
62 ; 1.2812218883556783E7 ; 2.010910360374151E8 ; 7.666379575946783E8 ; 1.0824189364106033E10 ; 0.0
63 ; 1.2812737169119366E7 ; 2.0110416291631907E8 ; 7.79450176478235E8 ; 1.1025280400143448E10 ; 0.0
64 ; 1.2813518081833657E7 ; 2.011173051627432E8 ; 7.922629136473544E8 ; 1.1226384563059767E10 ; 0.0
65 ; 1.2818770046174124E7 ; 2.0113046107004628E8 ; 8.05076431729188E8 ; 1.142750186822251E10 ; 0.0
66 ; 1.2823356579727711E7 ; 2.0114362902070573E8 ; 8.178952017753621E8 ; 1.1628632329292555E10 ; 0.0
67 ; 1.2819216866535326E7 ; 2.0115680747979268E8 ; 8.307185583550899E8 ; 1.1829775958313261E10 ; 0.0
68 ; 1.2823705271921342E7 ; 2.0116999498899454E8 ; 8.435377752216252E8 ; 1.2030932765793055E10 ; 0.0
69 ; 1.2825302902453745E7 ; 2.011831901611344E8 ; 8.563614804935466E8 ; 1.223210276078205E10 ; 0.0
70 ; 1.282542633842607E7 ; 2.011963916751421E8 ; 8.691867833960004E8 ; 1.2433285950943184E10 ; 0.0
71 ; 1.2828493669367753E7 ; 2.012095982714351E8 ; 8.820122097344265E8 ; 1.2634482342618326E10 ; 0.0
72 ; 1.2827389040227775E7 ; 2.0122280874767265E8 ; 8.948407034037943E8 ; 1.2835691940889761E10 ; 0.0
73 ; 1.2830918496509857E7 ; 2.0123602195484927E8 ; 9.07668092444022E8 ; 1.3036914749637434E10 ; 0.0
74 ; 1.2828970195547357E7 ; 2.0124923679369792E8 ; 9.20499010940532E8 ; 1.3238150771592283E10 ; 0.0
75 ; 1.2831641307772689E7 ; 2.0126245221137473E8 ; 9.333279811360793E8 ; 1.343940000838598E10 ; 0.0
76 ; 1.2829260482544623E7 ; 2.012756671984015E8 ; 9.46159622443852E8 ; 1.3640662460597355E10 ; 0.0
77 ; 1.2830275618672866E7 ; 2.0128888078584307E8 ; 9.589888829263966E8 ; 1.3841938127795757E10 ; 0.0
78 ; 1.2830041307605188E7 ; 2.0130209204269943E8 ; 9.718191585450695E8 ; 1.40432270085816E10 ; 0.0
79 ; 1.2824318519299962E7 ; 2.0131530007349437E8 ; 9.846491998526746E8 ; 1.42445291006243E10 ; 0.0
80 ; 1.2820550949316269E7 ; 2.013285040160442E8 ; 9.974735183719746E8 ; 1.4445844400697794E10 ; 0.0
81 ; 1.2816613435313681E7 ; 2.0134170303939107E8 ; 1.0102940693212909E9 ; 1.4647172904713839E10 ; 0.0
82 ; 1.2813334473936884E7 ; 2.0135489634188753E8 ; 1.0231106827566046E9 ; 1.484851460775323E10 ; 0.0
83 ; 1.2807132631406168E7 ; 2.0136808314941993E8 ; 1.0359240172305415E9 ; 1.5049869504095118E10 ; 0.0
84 ; 1.2805010556105768E7 ; 2.0138126271375912E8 ; 1.0487311498619477E9 ; 1.5251237587244537E10 ; 0.0
85 ; 1.279901169279836E7 ; 2.013944343110284E8 ; 1.0615361604180534E9 ; 1.5452618849958296E10 ; 0.0
86 ; 1.2795053205981616E7 ; 2.0140759724027905E8 ; 1.0743351721108518E9 ; 1.5654013284269323E10 ; 0.0
87 ; 1.2786957314548118E7 ; 2.0142075082216537E8 ; 1.0871302253168335E9 ; 1.5855420881509602E10 ; 0.0
88 ; 1.2784091421611378E7 ; 2.0143389439771095E8 ; 1.0999171826313815E9 ; 1.6056841632331766E10 ; 0.0
89 ; 1.278134233117367E7 ; 2.014470273271592E8 ; 1.1127012740529928E9 ; 1.6258275526729477E10 ; 0.0
90 ; 1.2774182077709233E7 ; 2.01460148988902E8 ; 1.1254826163841665E9 ; 1.6459722554056637E10 ; 0.0
91 ; 1.2771518551578999E7 ; 2.0147325877847978E8 ; 1.1382567984618757E9 ; 1.6661182703045538E10 ; 0.0
92 ; 1.2762847062945655E7 ; 2.014863561076485E8 ; 1.1510283170134547E9 ; 1.6862655961824018E10 ; 0.0
93 ; 1.2756414596018078E7 ; 2.0149944040350753E8 ; 1.1637911640764003E9 ; 1.7064142317931667E10 ; 0.0
94 ; 1.2756337778683472E7 ; 2.0151251110768494E8 ; 1.1765475786724184E9 ; 1.7265641758335175E10 ; 0.0
95 ; 1.2749328822011858E7 ; 2.01525567675575E8 ; 1.1893039164511018E9 ; 1.746715426944286E10 ; 0.0
96 ; 1.2739704730883062E7 ; 2.0153860957562476E8 ; 1.2020532452731137E9 ; 1.7668679837118435E10 ; 0.0
97 ; 1.273671919971682E7 ; 2.0155163628866595E8 ; 1.2147929500039968E9 ; 1.787021844669406E10 ; 0.0
98 ; 1.2729847837568766E7 ; 2.0156464730728868E8 ; 1.2275296692037137E9 ; 1.8071770082982727E10 ; 0.0
99 ; 1.2723967655625198E7 ; 2.0157764213525438E8 ; 1.2402595170412824E9 ; 1.8273334730290016E10 ; 0.0
100 ; 1.2720262729329443E7 ; 2.0159062028694504E8 ; 1.2529834846969075E9 ; 1.847491237242527E10 ; 0.0
101 ; 1.271371084182187E7 ; 2.0160358128684604E8 ; 1.2657037474262369E9 ; 1.8676502992712215E10 ; 0.0
102 ; 1.2705987929520745E7 ; 2.0161652466906053E8 ; 1.2784174582680588E9 ; 1.887810657399906E10 ; 0.0
103 ; 1.2701319443985926E7 ; 2.016294499768531E8 ; 1.2911234461975796E9 ; 1.907972309866812E10 ; 0.0
104 ; 1.2691725164473167E7 ; 2.0164235676222053E8 ; 1.3038247656415656E9 ; 1.9281352548644974E10 ; 0.0
105 ; 1.2685718296694951E7 ; 2.016552445854882E8 ; 1.3165164908060386E9 ; 1.9482994905407196E10 ; 0.0
106 ; 1.2677597535369743E7 ; 2.0166811301493007E8 ; 1.3292022091027336E9 ; 1.9684650149992683E10 ; 0.0
107 ; 1.2670721385514557E7 ; 2.0168096162641072E8 ; 1.3418798066381032E9 ; 1.9886318263007614E10 ; 0.0
108 ; 1.2662762436228406E7 ; 2.0169379000304842E8 ; 1.3545505280236177E9 ; 2.0087999224634026E10 ; 0.0
109 ; 1.2654738732842008E7 ; 2.017065977348971E8 ; 1.3672132904598463E9 ; 2.0289693014637074E10 ; 0.0
110 ; 1.264727921004865E7 ; 2.0171938441864675E8 ; 1.3798680291926882E9 ; 2.049139961237197E10 ; 0.0
111 ; 1.2639532341161441E7 ; 2.0173214965734053E8 ; 1.392515308402737E9 ; 2.069311899679062E10 ; 0.0
112 ; 1.2633237942410065E7 ; 2.0174489306010795E8 ; 1.4051548407438984E9 ; 2.089485114644796E10 ; 0.0
113 ; 1.2622815721177297E7 ; 2.017576142419125E8 ; 1.4177880786863084E9 ; 2.1096596039508068E10 ; 0.0
114 ; 1.2615237019226696E7 ; 2.017703128233138E8 ; 1.4304108944074857E9 ; 2.129835365374998E10 ; 0.0
115 ; 1.260921427109622E7 ; 2.017829884302421E8 ; 1.4430261314267125E9 ; 2.1500123966573296E10 ; 0.0
116 ; 1.2601193511865178E7 ; 2.0179564069378555E8 ; 1.4556353456978087E9 ; 2.1701906955003536E10 ; 0.0
117 ; 1.2591656793600474E7 ; 2.018082692499889E8 ; 1.468236539209674E9 ; 2.1903702595697323E10 ; 0.0
118 ; 1.258305082666879E7 ; 2.0182087373966268E8 ; 1.4808281960032744E9 ; 2.210551086494731E10 ; 0.0
119 ; 1.2576706582928708E7 ; 2.0183345380820283E8 ; 1.4934112468299432E9 ; 2.2307331738686974E10 ; 0.0
120 ; 1.256692572268708E7 ; 2.018460091054199E8 ; 1.5059879534128718E9 ; 2.250916519249518E10 ; 0.0
121 ; 1.2555762005955178E7 ; 2.0185853928537688E8 ; 1.5185548791355588E9 ; 2.2711011201600597E10 ; 0.0
122 ; 1.254666960104069E7 ; 2.018710440062359E8 ; 1.531110641141514E9 ; 2.2912869740885975E10 ; 0.0
123 ; 1.2536002542764567E7 ; 2.0188352293011272E8 ; 1.5436573107425547E9 ; 2.3114740784892212E10 ; 0.0
124 ; 1.2527313193406202E7 ; 2.018959757229385E8 ; 1.5561933132853193E9 ; 2.3316624307822323E10 ; 0.0
125 ; 1.2518874190995088E7 ; 2.0190840205432907E8 ; 1.5687206264787254E9 ; 2.351852028354526E10 ; 0.0
126 ; 1.2506545333980897E7 ; 2.019208015974604E8 ; 1.5812395006697204E9 ; 2.372042868559959E10 ; 0.0
127 ; 1.2496470121080846E7 ; 2.0193317402895075E8 ; 1.5937460460037012E9 ; 2.3922349487197052E10 ; 0.0
128 ; 1.2487424173701704E7 ; 2.0194551902874854E8 ; 1.606242516124782E9 ; 2.4124282661226E10 ; 0.0
129 ; 1.248081303911347E7 ; 2.0195783628002575E8 ; 1.6187299402984838E9 ; 2.432622818025475E10 ; 0.0
130 ; 1.2468270508729467E7 ; 2.0197012546907684E8 ; 1.6312107533375974E9 ; 2.4528186016534775E10 ; 0.0
131 ; 1.2454766049576277E7 ; 2.019823862852225E8 ; 1.6436790238463268E9 ; 2.4730156142003853E10 ; 0.0
132 ; 1.2436475147710262E7 ; 2.0199461842071822E8 ; 1.656133789895903E9 ; 2.4932138528289074E10 ; 0.0
133 ; 1.2425646559599025E7 ; 2.0200682157066715E8 ; 1.6685702650436134E9 ; 2.5134133146709793E10 ; 0.0
134 ; 1.240943507834865E7 ; 2.020189954329375E8 ; 1.6809959116032124E9 ; 2.533613996828046E10 ; 0.0
135 ; 1.2396021277661111E7 ; 2.0203113970808363E8 ; 1.693405346681561E9 ; 2.5538158963713398E10 ; 0.0
136 ; 1.2381431345820848E7 ; 2.020432540992711E8 ; 1.705801367959222E9 ; 2.5740190103421482E10 ; 0.0
137 ; 1.2370840367303729E7 ; 2.0205533831220528E8 ; 1.718182799305043E9 ; 2.5942233357520752E10 ; 0.0
138 ; 1.2351303420960281E7 ; 2.0206739205506343E8 ; 1.7305536396723466E9 ; 2.614428869583296E10 ; 0.0
139 ; 1.2334355191009594E7 ; 2.020794150384298E8 ; 1.7429049430933068E9 ; 2.6346356087888023E10 ; 0.0
140 ; 1.232195821075147E7 ; 2.0209140697523403E8 ; 1.7552392982843163E9 ; 2.6548435502926453E10 ; 0.0
141 ; 1.2305882774187932E7 ; 2.021033675806923E8 ; 1.7675612564950678E9 ; 2.6750526909901688E10 ; 0.0
142 ; 1.2288990590642229E7 ; 2.021152965722512E8 ; 1.7798671392692559E9 ; 2.695263027748238E10 ; 0.0
143 ; 1.2272747678112062E7 ; 2.0212719366953453E8 ; 1.792156129859898E9 ; 2.715474557405463E10 ; 0.0
144 ; 1.2260154539744848E7 ; 2.0213905859429204E8 ; 1.8044288775380101E9 ; 2.7356872767724163E10 ; 0.0
145 ; 1.2247348312130062E7 ; 2.021508910703511E8 ; 1.816689032077755E9 ; 2.7559011826318455E10 ; 0.0
146 ; 1.2239187618204003E7 ; 2.0216269082357016E8 ; 1.828936380389885E9 ; 2.7761162717388805E10 ; 0.0
147 ; 1.2227826755452564E7 ; 2.0217445758179465E8 ; 1.841175568008089E9 ; 2.7963325408212376E10 ; 0.0
148 ; 1.2213688589330507E7 ; 2.0218619107481474E8 ; 1.8534033947635417E9 ; 2.816549986579417E10 ; 0.0
149 ; 1.2201189718077622E7 ; 2.02197891034325E8 ; 1.8656170833528721E9 ; 2.8367686056868984E10 ; 0.0
150 ; 1.2196571400226185E7 ; 2.0220955719388613E8 ; 1.8778182730709498E9 ; 2.856988394790331E10 ; 0.0
151 ; 1.2177567672003504E7 ; 2.0222118928888816E8 ; 1.890014844471176E9 ; 2.8772093505097195E10 ; 0.0
152 ; 1.2171000198344259E7 ; 2.0223278705651537E8 ; 1.9021924121431794E9 ; 2.897431469438608E10 ; 0.0
153 ; 1.216308939548471E7 ; 2.0224435023571306E8 ; 1.9143634123415236E9 ; 2.9176547481442596E10 ; 0.0
154 ; 1.2147620993913308E7 ; 2.022558785671554E8 ; 1.9265265017370083E9 ; 2.937879183167831E10 ; 0.0
155 ; 1.2136724642858362E7 ; 2.0226737179321504E8 ; 1.9386741227309217E9 ; 2.9581047710245464E10 ; 0.0
156 ; 1.2122363998189248E7 ; 2.0227882965793395E8 ; 1.95081084737378E9 ; 2.978331508203868E10 ; 0.0
157 ; 1.2112382104012365E7 ; 2.022902519069957E8 ; 1.9629332113719692E9 ; 2.9985593911696613E10 ; 0.0
158 ; 1.210154848702528E7 ; 2.0230163828769872E8 ; 1.9750455934759815E9 ; 3.0187884163603607E10 ; 0.0
159 ; 1.2087280338465411E7 ; 2.023129885489311E8 ; 1.9871471419630067E9 ; 3.0390185801891304E10 ; 0.0
160 ; 1.207689179061975E7 ; 2.0232430244114617E8 ; 1.9992344223014722E9 ; 3.0592498790440235E10 ; 0.0
161 ; 1.2064125177716551E7 ; 2.023355797163395E8 ; 2.011311314092092E9 ; 3.0794823092881382E10 ; 0.0
162 ; 1.205605737085321E7 ; 2.023468201280267E8 ; 2.0233754392698085E9 ; 3.099715867259772E10 ; 0.0
163 ; 1.2040338945768945E7 ; 2.0235802343122223E8 ; 2.0354314966406617E9 ; 3.1199505492725746E10 ; 0.0
164 ; 1.202742100480579E7 ; 2.0236918938241932E8 ; 2.0474718355864305E9 ; 3.1401863516156967E10 ; 0.0
165 ; 1.2017364600352995E7 ; 2.0238031773957053E8 ; 2.0594992565912364E9 ; 3.1604232705539387E10 ; 0.0
166 ; 1.2005000778416542E7 ; 2.0239140826206946E8 ; 2.0715166211915894E9 ; 3.1806613023278957E10 ; 0.0
167 ; 1.1993874963993873E7 ; 2.0240246071073312E8 ; 2.083521621970006E9 ; 3.2009004431541027E10 ; 0.0
168 ; 1.1980005421155974E7 ; 2.0241347484778494E8 ; 2.0955154969339998E9 ; 3.221140689225176E10 ; 0.0
169 ; 1.1967964915409409E7 ; 2.0242445043683898E8 ; 2.1074955023551557E9 ; 3.2413820367099545E10 ; 0.0
170 ; 1.1955955672111064E7 ; 2.0243538724288434E8 ; 2.119463467270565E9 ; 3.2616244817536385E10 ; 0.0
171 ; 1.194416571706937E7 ; 2.0244628503227067E8 ; 2.131419422942676E9 ; 3.281868020477927E10 ; 0.0
172 ; 1.1930424086734597E7 ; 2.0245714357269406E8 ; 2.1433635886597455E9 ; 3.3021126489811543E10 ; 0.0
173 ; 1.191973373973795E7 ; 2.0246796263318375E8 ; 2.15529401274648E9 ; 3.3223583633384235E10 ; 0.0
174 ; 1.19123226884034E7 ; 2.0247874198408934E8 ; 2.167213746486218E9 ; 3.3426051596017418E10 ; 0.0
175 ; 1.1904253885624042E7 ; 2.0248948139706865E8 ; 2.1791260691746216E9 ; 3.3628530338001507E10 ; 0.0
176 ; 1.1898486386800347E7 ; 2.02500180645076E8 ; 2.1910303230602455E9 ; 3.3831019819398575E10 ; 0.0
177 ; 1.1887417264135025E7 ; 2.0251083950235125E8 ; 2.202928809447046E9 ; 3.403352000004365E10 ; 0.0
178 ; 1.1883460014900893E7 ; 2.0252145774440908E8 ; 2.2148162267111807E9 ; 3.4236030839546E10 ; 0.0
179 ; 1.1876759314233826E7 ; 2.02532035148029E8 ; 2.2266996867260814E9 ; 3.443855229729041E10 ; 0.0
180 ; 1.1869735375827853E7 ; 2.0254257149124572E8 ; 2.238576446040315E9 ; 3.464108433243844E10 ; 0.0
181 ; 1.1857091696681624E7 ; 2.0255306655333987E8 ; 2.250446181416143E9 ; 3.484362690392969E10 ; 0.0
182 ; 1.1854243715704855E7 ; 2.025635201148294E8 ; 2.2623032731128244E9 ; 3.5046179970483025E10 ; 0.0
183 ; 1.1846680627620932E7 ; 2.0257393195746103E8 ; 2.2741575168285294E9 ; 3.5248743490597855E10 ; 0.0
184 ; 1.183825935838572E7 ; 2.025843018642026E8 ; 2.28600419745615E9 ; 3.545131742255531E10 ; 0.0
185 ; 1.1832523627412034E7 ; 2.0259462961923522E8 ; 2.2978424568145356E9 ; 3.565390172441952E10 ; 0.0
186 ; 1.1827200442710042E7 ; 2.0260491500794634E8 ; 2.3096749804419475E9 ; 3.585649635403875E10 ; 0.0
187 ; 1.1815406849676605E7 ; 2.0261515781692266E8 ; 2.3215021808846574E9 ; 3.60591012690467E10 ; 0.0
188 ; 1.1809808883084917E7 ; 2.026253578339438E8 ; 2.333317587734334E9 ; 3.6261716426863625E10 ; 0.0
189 ; 1.1801369893951843E7 ; 2.0263551484797597E8 ; 2.345127396617419E9 ; 3.646434178469757E10 ; 0.0
190 ; 1.1795199161057755E7 ; 2.0264562864916623E8 ; 2.3569287665113707E9 ; 3.666697729954555E10 ; 0.0
191 ; 1.1788293909936242E7 ; 2.0265569902883676E8 ; 2.3687239656724286E9 ; 3.686962292819472E10 ; 0.0
192 ; 1.1781139187170357E7 ; 2.026657257794797E8 ; 2.380512259582365E9 ; 3.707227862722356E10 ; 0.0
193 ; 1.177448013734025E7 ; 2.0267570869475204E8 ; 2.3922933987695355E9 ; 3.727494435300304E10 ; 0.0
194 ; 1.1768187492904983E7 ; 2.0268564756947088E8 ; 2.4040678789068756E9 ; 3.747762006169779E10 ; 0.0
195 ; 1.1761416365736267E7 ; 2.026955421996089E8 ; 2.4158360663997808E9 ; 3.7680305709267265E10 ; 0.0
