CSV File for the City 4 on Day 224
1 - Minute m 
2 - Power Consumed at minute m 
3 - Power Produced at minute m 
4 - Energy Consumed since the beginning of the day 
5 - Energy Produced since the beginning of the day 
6 - Energy Lost since the beginning of the day on lines starting from the city
 
0 ; 478749.04003726476 ; 1.0540592449474552E8 ; 0.0 ; 0.0 ; 0.0
1 ; 487366.1048927755 ; 1.05550741606597E8 ; 478749.04003726476 ; 1.0540592449474552E8 ; 0.0
2 ; 492248.98361821275 ; 1.0600486087722757E8 ; 966115.1449300402 ; 2.1095666610134253E8 ; 0.0
3 ; 503019.8012800198 ; 1.0676836333075821E8 ; 1458364.1285482529 ; 3.169615269785701E8 ; 0.0
4 ; 515652.057533498 ; 1.0784133508068317E8 ; 1961383.9298282727 ; 4.237298903093283E8 ; 0.0
5 ; 526856.5035614303 ; 1.0922386502484775E8 ; 2477035.9873617706 ; 5.315712253900115E8 ; 0.0
6 ; 542501.8936699191 ; 1.1091604145623031E8 ; 3003892.4909232007 ; 6.407950904148593E8 ; 0.0
7 ; 566155.8125689328 ; 1.1291794761451751E8 ; 3546394.38459312 ; 7.517111318710896E8 ; 0.0
8 ; 602114.2255869074 ; 1.1522965645084143E8 ; 4112550.1971620526 ; 8.646290794856071E8 ; 0.0
9 ; 652410.511095263 ; 1.178512251725173E8 ; 4714664.42274896 ; 9.798587359364486E8 ; 0.0
10 ; 733313.9283223802 ; 1.2078269037985003E8 ; 5367074.933844223 ; 1.0977099611089659E9 ; 0.0
11 ; 853952.7325890163 ; 1.2402406467869017E8 ; 6100388.862166603 ; 1.2184926514888158E9 ; 0.0
12 ; 1054182.5094080844 ; 1.2757533546318713E8 ; 6954341.59475562 ; 1.342516716167506E9 ; 0.0
13 ; 1245746.9609885176 ; 1.3143646613303602E8 ; 8008524.104163704 ; 1.4700920516306932E9 ; 0.0
14 ; 1270281.4119041504 ; 1.356073994809217E8 ; 9254271.065152222 ; 1.601528517763729E9 ; 0.0
15 ; 1279376.0845556664 ; 1.4008806255571193E8 ; 1.0524552477056373E7 ; 1.7371359172446508E9 ; 0.0
16 ; 1288902.3314099207 ; 1.4487837211772022E8 ; 1.180392856161204E7 ; 1.8772239798003628E9 ; 0.0
17 ; 1299161.1978089774 ; 1.499782398739681E8 ; 1.309283089302196E7 ; 2.022102351918083E9 ; 0.0
18 ; 1307457.8414786244 ; 1.553875769266103E8 ; 1.4391992090830937E7 ; 2.172080591792051E9 ; 0.0
19 ; 1319862.675456938 ; 1.6110629716215256E8 ; 1.569944993230956E7 ; 2.3274681687186613E9 ; 0.0
20 ; 1328074.3287514343 ; 1.6713431955647388E8 ; 1.7019312607766498E7 ; 2.488574465880814E9 ; 0.0
21 ; 1338889.3419310583 ; 1.7347156952857772E8 ; 1.834738693651793E7 ; 2.655708785437288E9 ; 0.0
22 ; 1349202.4103324474 ; 1.8011797954675424E8 ; 1.968627627844899E7 ; 2.8291803549658656E9 ; 0.0
23 ; 1359621.3478345245 ; 1.8707348919893283E8 ; 2.103547868878144E7 ; 3.00929833451262E9 ; 0.0
24 ; 1372843.9392803686 ; 1.9433804491224402E8 ; 2.2395100036615964E7 ; 3.1963718237115526E9 ; 0.0
25 ; 1382051.9112376135 ; 2.0059964036493492E8 ; 2.3767943975896332E7 ; 3.3907098686237965E9 ; 0.0
26 ; 1390883.855848057 ; 2.0061178193587E8 ; 2.5149995887133945E7 ; 3.5913095089887314E9 ; 0.0
27 ; 1398655.0459615295 ; 2.0062420261142212E8 ; 2.6540879742982E7 ; 3.7919212909246016E9 ; 0.0
28 ; 1410930.910139637 ; 2.0063687062781718E8 ; 2.793953478894353E7 ; 3.9925454935360236E9 ; 0.0
29 ; 1421798.971554565 ; 2.0064975819888076E8 ; 2.9350465699083164E7 ; 4.193182364163841E9 ; 0.0
30 ; 1430308.6638467324 ; 2.0066284100204372E8 ; 3.077226467063773E7 ; 4.393832122362721E9 ; 0.0
31 ; 1439870.5636254668 ; 2.0067609772022492E8 ; 3.220257333448446E7 ; 4.594494963364765E9 ; 0.0
32 ; 1450347.140535751 ; 2.0068950963899657E8 ; 3.364244389810993E7 ; 4.7951710610849905E9 ; 0.0
33 ; 1459211.510471871 ; 2.0070306029565644E8 ; 3.509279103864568E7 ; 4.995860570723987E9 ; 0.0
34 ; 1468212.0857388338 ; 2.0071673517546278E8 ; 3.655200254911755E7 ; 5.196563631019643E9 ; 0.0
35 ; 1474932.9680964595 ; 2.0073052144980282E8 ; 3.802021463485638E7 ; 5.397280366195106E9 ; 0.0
36 ; 1483075.0382362274 ; 2.0074440775109735E8 ; 3.949514760295284E7 ; 5.598010887644908E9 ; 0.0
37 ; 1494338.094509247 ; 2.007583839795624E8 ; 4.097822264118907E7 ; 5.798755295396006E9 ; 0.0
38 ; 1501177.3054540807 ; 2.00772441137404E8 ; 4.247256073569831E7 ; 5.999513679375568E9 ; 0.0
39 ; 1508596.14853134 ; 2.0078657118652567E8 ; 4.3973738041152395E7 ; 6.200286120512973E9 ; 0.0
40 ; 1516348.890438683 ; 2.008007669263269E8 ; 4.5482334189683735E7 ; 6.401072691699498E9 ; 0.0
41 ; 1525323.8342647317 ; 2.0081502188863868E8 ; 4.699868308012242E7 ; 6.601873458625825E9 ; 0.0
42 ; 1532951.931112235 ; 2.0082933024726415E8 ; 4.852400691438715E7 ; 6.802688480514463E9 ; 0.0
43 ; 1538490.0497912348 ; 2.0084368673996487E8 ; 5.005695884549939E7 ; 7.003517810761727E9 ; 0.0
44 ; 1545973.5280828031 ; 2.0085808660105708E8 ; 5.159544889529062E7 ; 7.204361497501692E9 ; 0.0
45 ; 1554326.4930252212 ; 2.0087252550306156E8 ; 5.314142242337342E7 ; 7.405219584102749E9 ; 0.0
46 ; 1558454.7449643419 ; 2.0088699950608703E8 ; 5.4695748916398644E7 ; 7.60609210960581E9 ; 0.0
47 ; 1563196.9215653932 ; 2.0090150501383027E8 ; 5.625420366136298E7 ; 7.806979109111897E9 ; 0.0
48 ; 1567902.857424471 ; 2.0091603873524588E8 ; 5.7817400582928374E7 ; 8.007880614125728E9 ; 0.0
49 ; 1573391.0342551358 ; 2.0093059765108284E8 ; 5.938530344035284E7 ; 8.208796652860973E9 ; 0.0
50 ; 1576223.289332168 ; 2.0094517898460704E8 ; 6.0958694474607974E7 ; 8.409727250512056E9 ; 0.0
51 ; 1582655.1503647903 ; 2.0095978017593068E8 ; 6.253491776394014E7 ; 8.610672429496664E9 ; 0.0
52 ; 1585155.220075137 ; 2.0097439885945648E8 ; 6.4117572914304934E7 ; 8.811632209672594E9 ; 0.0
53 ; 1589396.033930825 ; 2.0098903284401628E8 ; 6.570272813438007E7 ; 9.012606608532051E9 ; 0.0
54 ; 1593824.4627209392 ; 2.010036800953463E8 ; 6.72921241683109E7 ; 9.213595641376068E9 ; 0.0
55 ; 1596775.4559452278 ; 2.010183387205921E8 ; 6.888594863103184E7 ; 9.414599321471415E9 ; 0.0
56 ; 1599662.7124250527 ; 2.0103300695458078E8 ; 7.048272408697706E7 ; 9.615617660192007E9 ; 0.0
57 ; 1603716.0369968638 ; 2.0104768314763474E8 ; 7.208238679940212E7 ; 9.816650667146587E9 ; 0.0
58 ; 1607991.70510354 ; 2.0106236575473315E8 ; 7.368610283639899E7 ; 1.0017698350294222E10 ; 0.0
59 ; 1613049.0672234495 ; 2.0107705332585362E8 ; 7.529409454150254E7 ; 1.0218760716048956E10 ; 0.0
60 ; 1617032.1583188176 ; 2.0109174449735004E8 ; 7.690714360872598E7 ; 1.041983776937481E10 ; 0.0
61 ; 1622184.3233420395 ; 2.0110643798424107E8 ; 7.85241757670448E7 ; 1.062092951387216E10 ; 0.0
62 ; 1625364.6570899608 ; 2.011211325733015E8 ; 8.014636009038684E7 ; 1.0822035951856401E10 ; 0.0
63 ; 1629362.2555722394 ; 2.011358271168616E8 ; 8.17717247474768E7 ; 1.1023157084429703E10 ; 0.0
64 ; 1630829.7973898305 ; 2.0115052052723345E8 ; 8.340108700304905E7 ; 1.1224292911546564E10 ; 0.0
65 ; 1635535.1291310575 ; 2.0116521177169168E8 ; 8.503191680043888E7 ; 1.1425443432073797E10 ; 0.0
66 ; 1638276.546272437 ; 2.0117989986794713E8 ; 8.666745192956994E7 ; 1.162660864384549E10 ; 0.0
67 ; 1645463.485399316 ; 2.0119458388005823E8 ; 8.830572847584239E7 ; 1.1827788543713436E10 ; 0.0
68 ; 1647005.305866253 ; 2.012092629147322E8 ; 8.99511919612417E7 ; 1.2028983127593494E10 ; 0.0
69 ; 1651035.300779006 ; 2.0122393611797428E8 ; 9.159819726710796E7 ; 1.2230192390508226E10 ; 0.0
70 ; 1652648.1726898788 ; 2.0123860267204756E8 ; 9.324923256788696E7 ; 1.2431416326626202E10 ; 0.0
71 ; 1655674.4100934716 ; 2.0125326179271084E8 ; 9.490188074057685E7 ; 1.2632654929298248E10 ; 0.0
72 ; 1657785.5877914773 ; 2.0126791272670585E8 ; 9.655755515067032E7 ; 1.283390819109096E10 ; 0.0
73 ; 1660966.1559741593 ; 2.0128255474946812E8 ; 9.821534073846179E7 ; 1.3035176103817665E10 ; 0.0
74 ; 1666505.7070031313 ; 2.0129718716303888E8 ; 9.987630689443596E7 ; 1.3236458658567133E10 ; 0.0
75 ; 1666998.0867783178 ; 2.0131180929415804E8 ; 1.0154281260143909E8 ; 1.3437755845730171E10 ; 0.0
76 ; 1671683.0352074204 ; 2.013264204925205E8 ; 1.032098106882174E8 ; 1.363906765502433E10 ; 0.0
77 ; 1676540.5570621951 ; 2.0134102012917948E8 ; 1.0488149372342482E8 ; 1.3840394075516851E10 ; 0.0
78 ; 1675915.268189655 ; 2.0135560759508336E8 ; 1.0655803428048702E8 ; 1.404173509564603E10 ; 0.0
79 ; 1677066.2120431622 ; 2.013701822997328E8 ; 1.0823394954867667E8 ; 1.4243090703241114E10 ; 0.0
80 ; 1677203.8365197103 ; 2.013847436699474E8 ; 1.0991101576071984E8 ; 1.4444460885540846E10 ; 0.0
81 ; 1677300.077451588 ; 2.013992911487312E8 ; 1.1158821959723954E8 ; 1.4645845629210793E10 ; 0.0
82 ; 1677719.2870788358 ; 2.0141382419422853E8 ; 1.1326551967469113E8 ; 1.4847244920359524E10 ; 0.0
83 ; 1677706.8569596298 ; 2.0142834227876157E8 ; 1.1494323896176997E8 ; 1.5048658744553753E10 ; 0.0
84 ; 1680548.5221530604 ; 2.014428448879427E8 ; 1.166209458187296E8 ; 1.5250087086832514E10 ; 0.0
85 ; 1677328.7747637741 ; 2.01457331519855E8 ; 1.1830149434088266E8 ; 1.5451529931720457E10 ; 0.0
86 ; 1678274.856160301 ; 2.0147180168429443E8 ; 1.1997882311564644E8 ; 1.5652987263240313E10 ; 0.0
87 ; 1678713.0562877636 ; 2.0148625490206936E8 ; 1.2165709797180673E8 ; 1.5854459064924606E10 ; 0.0
88 ; 1681409.2033300975 ; 2.0150069070435154E8 ; 1.233358110280945E8 ; 1.6055945319826675E10 ; 0.0
89 ; 1680878.7618658755 ; 2.0151510863207498E8 ; 1.250172202314246E8 ; 1.6257446010531027E10 ; 0.0
90 ; 1680058.1851764002 ; 2.0152950823537803E8 ; 1.2669809899329047E8 ; 1.6458961119163101E10 ; 0.0
91 ; 1681660.6605776686 ; 2.0154388907308596E8 ; 1.2837815717846687E8 ; 1.666049062739848E10 ; 0.0
92 ; 1680394.6657875348 ; 2.0155825071222976E8 ; 1.3005981783904454E8 ; 1.6862034516471565E10 ; 0.0
93 ; 1679720.4737562092 ; 2.0157259272759914E8 ; 1.3174021250483207E8 ; 1.7063592767183796E10 ; 0.0
94 ; 1680489.52715488 ; 2.0158691470132643E8 ; 1.3341993297858828E8 ; 1.7265165359911396E10 ; 0.0
95 ; 1682200.504173047 ; 2.0160121622249907E8 ; 1.3510042250574318E8 ; 1.7466752274612724E10 ; 0.0
96 ; 1680193.5624576984 ; 2.0161549688679856E8 ; 1.3678262300991622E8 ; 1.7668353490835224E10 ; 0.0
97 ; 1679794.9779871097 ; 2.0162975629616398E8 ; 1.3846281657237393E8 ; 1.7869968987722023E10 ; 0.0
98 ; 1679326.8064267798 ; 2.016439940584775E8 ; 1.4014261155036104E8 ; 1.807159874401819E10 ; 0.0
99 ; 1681312.4285515104 ; 2.016582097872713E8 ; 1.4182193835678783E8 ; 1.8273242738076668E10 ; 0.0
100 ; 1678905.9041171917 ; 2.0167240310145324E8 ; 1.4350325078533936E8 ; 1.8474900947863937E10 ; 0.0
101 ; 1676749.28641576 ; 2.016865736250507E8 ; 1.4518215668945655E8 ; 1.867657335096539E10 ; 0.0
102 ; 1677127.5932367276 ; 2.017007209869706E8 ; 1.468589059758723E8 ; 1.887825992459044E10 ; 0.0
103 ; 1676715.3809186043 ; 2.0171484482077512E8 ; 1.4853603356910902E8 ; 1.9079960645577408E10 ; 0.0
104 ; 1675125.1795421778 ; 2.0172894476447126E8 ; 1.502127489500276E8 ; 1.9281675490398182E10 ; 0.0
105 ; 1674825.8370921148 ; 2.0174302046031377E8 ; 1.518878741295698E8 ; 1.9483404435162655E10 ; 0.0
106 ; 1674593.8394199156 ; 2.017570715546204E8 ; 1.535626999666619E8 ; 1.9685147455622967E10 ; 0.0
107 ; 1671967.7888127903 ; 2.017710976975984E8 ; 1.552372938060818E8 ; 1.9886904527177586E10 ; 0.0
108 ; 1673347.2353171732 ; 2.017850985431819E8 ; 1.569092615948946E8 ; 2.0088675624875183E10 ; 0.0
109 ; 1673579.8894478863 ; 2.0179907374887872E8 ; 1.5858260883021176E8 ; 2.0290460723418365E10 ; 0.0
110 ; 1671670.3746097512 ; 2.01813022975627E8 ; 1.6025618871965966E8 ; 2.0492259797167244E10 ; 0.0
111 ; 1673880.7626383319 ; 2.018269458876599E8 ; 1.619278590942694E8 ; 2.069407282014287E10 ; 0.0
112 ; 1670446.8631834676 ; 2.018408421523787E8 ; 1.6360173985690773E8 ; 2.0895899766030533E10 ; 0.0
113 ; 1670045.612363741 ; 2.018547114402331E8 ; 1.652721867200912E8 ; 2.109774060818291E10 ; 0.0
114 ; 1668362.2477442317 ; 2.0186855342460877E8 ; 1.6694223233245495E8 ; 2.1299595319623142E10 ; 0.0
115 ; 1664999.095485235 ; 2.0188236778172126E8 ; 1.6861059458019918E8 ; 2.1501463873047752E10 ; 0.0
116 ; 1667207.6131423016 ; 2.0189615419051617E8 ; 1.7027559367568442E8 ; 2.1703346240829475E10 ; 0.0
117 ; 1665146.3102805328 ; 2.0190991233257505E8 ; 1.7194280128882673E8 ; 2.1905242395019993E10 ; 0.0
118 ; 1661094.3450559666 ; 2.0192364189202657E8 ; 1.7360794759910727E8 ; 2.210715230735257E10 ; 0.0
119 ; 1661019.055662228 ; 2.0193734255546272E8 ; 1.7526904194416323E8 ; 2.2309075949244595E10 ; 0.0
120 ; 1659413.1445945734 ; 2.0195101401186E8 ; 1.7693006099982545E8 ; 2.2511013291800056E10 ; 0.0
121 ; 1656657.3618930862 ; 2.0196465595250472E8 ; 1.7858947414442003E8 ; 2.2712964305811916E10 ; 0.0
122 ; 1657207.994584718 ; 2.0197826807092246E8 ; 1.8024613150631312E8 ; 2.291492896176442E10 ; 0.0
123 ; 1656396.852539241 ; 2.019918500628119E8 ; 1.8190333950089782E8 ; 2.3116907229835342E10 ; 0.0
124 ; 1653437.1238464743 ; 2.020054016259817E8 ; 1.8355973635343707E8 ; 2.3318899079898155E10 ; 0.0
125 ; 1653407.7025243796 ; 2.0201892246029115E8 ; 1.8521317347728354E8 ; 2.3520904481524136E10 ; 0.0
126 ; 1653988.9976573184 ; 2.0203241226759425E8 ; 1.8686658117980793E8 ; 2.372292340398443E10 ; 0.0
127 ; 1650223.6081981696 ; 2.0204587075168648E8 ; 1.8852057017746526E8 ; 2.392495581625202E10 ; 0.0
128 ; 1647000.2222111735 ; 2.0205929761825457E8 ; 1.9017079378566343E8 ; 2.4127001687003708E10 ; 0.0
129 ; 1648316.8783716145 ; 2.0207269257482922E8 ; 1.918177940078746E8 ; 2.4329060984621964E10 ; 0.0
130 ; 1642101.4559007783 ; 2.0208605533073997E8 ; 1.9346611088624623E8 ; 2.4531133677196793E10 ; 0.0
131 ; 1638632.0032080142 ; 2.0209938559707293E8 ; 1.9510821234214702E8 ; 2.4733219732527534E10 ; 0.0
132 ; 1633638.8319423688 ; 2.021126830866303E8 ; 1.9674684434535503E8 ; 2.4935319118124607E10 ; 0.0
133 ; 1628678.0507777948 ; 2.0212594751389262E8 ; 1.983804831772974E8 ; 2.513743180121124E10 ; 0.0
134 ; 1624537.3100877786 ; 2.0213917859498233E8 ; 2.000091612280752E8 ; 2.5339557748725132E10 ; 0.0
135 ; 1620094.2131146626 ; 2.0215237604763004E8 ; 2.0163369853816298E8 ; 2.5541696927320114E10 ; 0.0
136 ; 1615779.8399714727 ; 2.0216553959114194E8 ; 2.0325379275127763E8 ; 2.5743849303367744E10 ; 0.0
137 ; 1611238.8164337182 ; 2.0217866894636932E8 ; 2.048695725912491E8 ; 2.5946014842958885E10 ; 0.0
138 ; 1605636.517032446 ; 2.0219176383567962E8 ; 2.0648081140768284E8 ; 2.6148193511905254E10 ; 0.0
139 ; 1601683.2343161446 ; 2.022048239829288E8 ; 2.0808644792471528E8 ; 2.6350385275740932E10 ; 0.0
140 ; 1598680.256434818 ; 2.0221784911343566E8 ; 2.0968813115903142E8 ; 2.655259009972386E10 ; 0.0
141 ; 1593295.9771065072 ; 2.0223083895395684E8 ; 2.1128681141546625E8 ; 2.6754807948837296E10 ; 0.0
142 ; 1588081.8292855863 ; 2.0224379323266384E8 ; 2.1288010739257276E8 ; 2.6957038787791252E10 ; 0.0
143 ; 1583681.347773096 ; 2.0225671167912072E8 ; 2.1446818922185835E8 ; 2.7159282581023914E10 ; 0.0
144 ; 1577946.1511699746 ; 2.0226959402426326E8 ; 2.1605187056963146E8 ; 2.7361539292703033E10 ; 0.0
145 ; 1574943.0104395421 ; 2.0228244000037917E8 ; 2.1762981672080144E8 ; 2.7563808886727295E10 ; 0.0
146 ; 1573893.0982954754 ; 2.0229524934108934E8 ; 2.19204759731241E8 ; 2.7766091326727673E10 ; 0.0
147 ; 1573277.786527865 ; 2.0230802178133E8 ; 2.2077865282953647E8 ; 2.7968386576068764E10 ; 0.0
148 ; 1571301.752804131 ; 2.0232075705733603E8 ; 2.2235193061606434E8 ; 2.8170694597850094E10 ; 0.0
149 ; 1566174.3518159948 ; 2.02333454906625E8 ; 2.2392323236886847E8 ; 2.837301535490743E10 ; 0.0
150 ; 1566692.6017532786 ; 2.023461150679821E8 ; 2.2548940672068447E8 ; 2.8575348809814053E10 ; 0.0
151 ; 1562383.9029262585 ; 2.0235873728144598E8 ; 2.2705609932243773E8 ; 2.8777694924882034E10 ; 0.0
152 ; 1562171.8151791003 ; 2.0237132128829518E8 ; 2.28618483225364E8 ; 2.898005366216348E10 ; 0.0
153 ; 1559641.8722674646 ; 2.0238386683103547E8 ; 2.301806550405431E8 ; 2.9182424983451775E10 ; 0.0
154 ; 1556080.9151835688 ; 2.023963736533878E8 ; 2.3174029691281056E8 ; 2.938480885028281E10 ; 0.0
155 ; 1554908.4659157055 ; 2.02408841500277E8 ; 2.3329637782799414E8 ; 2.95872052239362E10 ; 0.0
156 ; 1553804.884193111 ; 2.0242127011782095E8 ; 2.3485128629390985E8 ; 2.9789614065436478E10 ; 0.0
157 ; 1551234.0600432772 ; 2.024336592533204E8 ; 2.3640509117810297E8 ; 2.99920353355543E10 ; 0.0
158 ; 1548674.6959113302 ; 2.024460086552496E8 ; 2.3795632523814625E8 ; 3.0194468994807617E10 ; 0.0
159 ; 1545173.1258526582 ; 2.0245831807324716E8 ; 2.3950499993405756E8 ; 3.0396915003462868E10 ; 0.0
160 ; 1545573.3896669021 ; 2.0247058725810757E8 ; 2.410501730599102E8 ; 3.0599373321536114E10 ; 0.0
161 ; 1543791.2530906368 ; 2.0248281596177322E8 ; 2.4259574644957712E8 ; 3.080184390879422E10 ; 0.0
162 ; 1540834.249089113 ; 2.0249500393732685E8 ; 2.4413953770266777E8 ; 3.1004326724755993E10 ; 0.0
163 ; 1539442.542876249 ; 2.0250715093898454E8 ; 2.456803719517569E8 ; 3.120682172869332E10 ; 0.0
164 ; 1537212.7537369747 ; 2.02519256722089E8 ; 2.4721981449463314E8 ; 3.1409328879632305E10 ; 0.0
165 ; 1534906.863166916 ; 2.025313210431033E8 ; 2.487570272483701E8 ; 3.1611848136354393E10 ; 0.0
166 ; 1531216.6790541243 ; 2.0254334365960518E8 ; 2.5029193411153704E8 ; 3.1814379457397495E10 ; 0.0
167 ; 1527413.1727577355 ; 2.0255532433028138E8 ; 2.5182315079059115E8 ; 3.2016922801057102E10 ; 0.0
168 ; 1527824.5559324038 ; 2.025672628149227E8 ; 2.533505639633489E8 ; 3.2219478125387383E10 ; 0.0
169 ; 1524752.9117725077 ; 2.0257915887441903E8 ; 2.548783885192813E8 ; 3.2422045388202305E10 ; 0.0
170 ; 1524728.3905679937 ; 2.0259101227075514E8 ; 2.5640314143105382E8 ; 3.2624624547076725E10 ; 0.0
171 ; 1521994.644188692 ; 2.0260282276700628E8 ; 2.579278698216218E8 ; 3.282721555934748E10 ; 0.0
172 ; 1519043.1985895238 ; 2.0261459012733454E8 ; 2.594498644658105E8 ; 3.3029818382114487E10 ; 0.0
173 ; 1516601.682694109 ; 2.0262631411698508E8 ; 2.6096890766440004E8 ; 3.323243297224182E10 ; 0.0
174 ; 1515590.0789505201 ; 2.0263799450228307E8 ; 2.6248550934709415E8 ; 3.3435059286358807E10 ; 0.0
175 ; 1513470.2278705318 ; 2.026496310506304E8 ; 2.6400109942604467E8 ; 3.3637697280861088E10 ; 0.0
176 ; 1510899.3776405915 ; 2.026612235305031E8 ; 2.655145696539152E8 ; 3.3840346911911716E10 ; 0.0
177 ; 1511964.8194349378 ; 2.0267277171144858E8 ; 2.670254690315558E8 ; 3.404300813544222E10 ; 0.0
178 ; 1509790.0242917112 ; 2.026842753640835E8 ; 2.685374338509907E8 ; 3.4245680907153667E10 ; 0.0
179 ; 1508501.430708519 ; 2.0269573426009142E8 ; 2.700472238752824E8 ; 3.444836518251775E10 ; 0.0
180 ; 1505709.0763381438 ; 2.0270714817222115E8 ; 2.7155572530599093E8 ; 3.465106091677785E10 ; 0.0
181 ; 1504780.2957610781 ; 2.027185168742847E8 ; 2.730614343823291E8 ; 3.4853768064950066E10 ; 0.0
182 ; 1503608.6692642653 ; 2.027298401411561E8 ; 2.7456621467809016E8 ; 3.505648658182435E10 ; 0.0
183 ; 1502811.5289366955 ; 2.0274111774876976E8 ; 2.760698233473544E8 ; 3.525921642196551E10 ; 0.0
184 ; 1502866.5743625264 ; 2.0275234947411945E8 ; 2.775726348762911E8 ; 3.546195753971428E10 ; 0.0
185 ; 1500360.74099603 ; 2.0276353509525716E8 ; 2.790755014506536E8 ; 3.56647098891884E10 ; 0.0
186 ; 1498997.2476348013 ; 2.027746743912924E8 ; 2.805758621916496E8 ; 3.586747342428366E10 ; 0.0
187 ; 1497620.3641632667 ; 2.027857671423913E8 ; 2.8207485943928444E8 ; 3.607024809867495E10 ; 0.0
188 ; 1493792.13683472 ; 2.0279681312977615E8 ; 2.835724798034477E8 ; 3.6273033865817345E10 ; 0.0
189 ; 1492691.553743338 ; 2.02807812135725E8 ; 2.8506627194028246E8 ; 3.647583067894712E10 ; 0.0
190 ; 1492083.2534363824 ; 2.0281876394357124E8 ; 2.865589634940258E8 ; 3.667863849108285E10 ; 0.0
191 ; 1492114.814806542 ; 2.0282966833770347E8 ; 2.880510467474622E8 ; 3.688145725502642E10 ; 0.0
192 ; 1489801.5439477484 ; 2.0284052510356548E8 ; 2.8954316156226873E8 ; 3.708428692336412E10 ; 0.0
193 ; 1489642.859198885 ; 2.028513340276563E8 ; 2.910329631062165E8 ; 3.728712744846769E10 ; 0.0
194 ; 1484063.254671407 ; 2.0286209489753026E8 ; 2.9252260596541536E8 ; 3.7489978782495346E10 ; 0.0
195 ; 1483772.6344065906 ; 2.0287280750179744E8 ; 2.9400666922008675E8 ; 3.7692840877392876E10 ; 0.0
196 ; 1483086.0606569056 ; 2.028834716301239E8 ; 2.954904418544933E8 ; 3.789571368489468E10 ; 0.0
197 ; 1481133.5059403277 ; 2.0289408707323214E8 ; 2.969735279151502E8 ; 3.80985971565248E10 ; 0.0
198 ; 1482164.5480417344 ; 2.029046536229018E8 ; 2.9845466142109054E8 ; 3.830149124359804E10 ; 0.0
199 ; 1480214.7439998025 ; 2.0291517107197008E8 ; 2.999368259691323E8 ; 3.850439589722094E10 ; 0.0
