CSV File for the City 3 on Day 168
1 - Minute m 
2 - Power Consumed at minute m 
3 - Power Produced at minute m 
4 - Energy Consumed since the beginning of the day 
5 - Energy Produced since the beginning of the day 
6 - Energy Lost since the beginning of the day on lines starting from the city
 
0 ; 855097.2391186289 ; 1.0551953933769307E8 ; 0.0 ; 0.0 ; 0.0
1 ; 857594.4250321687 ; 1.056724789346736E8 ; 855097.2391186289 ; 1.0551953933769307E8 ; 0.0
2 ; 859114.9071496032 ; 1.0613420108348355E8 ; 1712691.6641507978 ; 2.1119201827236667E8 ; 0.0
3 ; 861221.5830034586 ; 1.0690470735530454E8 ; 2571806.571300401 ; 3.173262193558502E8 ; 0.0
4 ; 863268.8931390488 ; 1.0798399915945351E8 ; 3433028.1543038595 ; 4.2423092671115476E8 ; 0.0
5 ; 866590.7810196783 ; 1.0937207773515111E8 ; 4296297.047442908 ; 5.3221492587060827E8 ; 0.0
6 ; 872538.3019782184 ; 1.110689441441361E8 ; 5162887.828462587 ; 6.415870036057594E8 ; 0.0
7 ; 878637.5589266323 ; 1.1307459926422888E8 ; 6035426.130440805 ; 7.526559477498955E8 ; 0.0
8 ; 891175.2316876606 ; 1.1538904378393239E8 ; 6914063.689367438 ; 8.657305470141244E8 ; 0.0
9 ; 906581.6186283223 ; 1.1801227819814926E8 ; 7805238.921055098 ; 9.811195907980568E8 ; 0.0
10 ; 932146.6093656565 ; 1.2094430280507618E8 ; 8711820.53968342 ; 1.099131868996206E9 ; 0.0
11 ; 974273.0707812016 ; 1.2418511770432213E8 ; 9643967.149049077 ; 1.2200761718012822E9 ; 0.0
12 ; 1039371.4453048256 ; 1.2773472279627809E8 ; 1.0618240219830278E7 ; 1.3442612895056043E9 ; 0.0
13 ; 1102141.6955998638 ; 1.3159311778274739E8 ; 1.1657611665135104E7 ; 1.4719960123018823E9 ; 0.0
14 ; 1107782.0976768334 ; 1.3576030216882747E8 ; 1.2759753360734968E7 ; 1.6035891300846295E9 ; 0.0
15 ; 1111937.6368518313 ; 1.402362752660153E8 ; 1.3867535458411802E7 ; 1.739349432253457E9 ; 0.0
16 ; 1112600.0080093867 ; 1.4502103619649056E8 ; 1.4979473095263634E7 ; 1.8795857075194724E9 ; 0.0
17 ; 1115232.4456039546 ; 1.5011458389851442E8 ; 1.6092073103273021E7 ; 2.024606743715963E9 ; 0.0
18 ; 1118176.5976162585 ; 1.5551691713286626E8 ; 1.7207305548876975E7 ; 2.174721327614477E9 ; 0.0
19 ; 1119796.3319072684 ; 1.6122803449022916E8 ; 1.8325482146493234E7 ; 2.3302382447473435E9 ; 0.0
20 ; 1122132.4876106137 ; 1.6724793439942142E8 ; 1.9445278478400502E7 ; 2.4914662792375727E9 ; 0.0
21 ; 1125386.8557104084 ; 1.735766151363668E8 ; 2.0567410966011114E7 ; 2.658714213636994E9 ; 0.0
22 ; 1128291.0794087404 ; 1.8021407483368623E8 ; 2.1692797821721524E7 ; 2.8322908287733607E9 ; 0.0
23 ; 1129851.0742021606 ; 1.8716031149079424E8 ; 2.2821088901130263E7 ; 3.012504903607047E9 ; 0.0
24 ; 1133106.386110793 ; 1.944153229843794E8 ; 2.3950939975332424E7 ; 3.1996652150978413E9 ; 0.0
25 ; 1135534.56648968 ; 2.0066714797733492E8 ; 2.5084046361443218E7 ; 3.3940805380822206E9 ; 0.0
26 ; 1138580.9734092306 ; 2.006693319665541E8 ; 2.62195809279329E7 ; 3.5947476860595555E9 ; 0.0
27 ; 1142218.2661054991 ; 2.0067164181877598E8 ; 2.735816190134213E7 ; 3.7954170180261097E9 ; 0.0
28 ; 1142557.1932541013 ; 2.0067407502824154E8 ; 2.850038016744763E7 ; 3.996088659844886E9 ; 0.0
29 ; 1146116.357613799 ; 2.0067662902067024E8 ; 2.9642937360701732E7 ; 4.1967627348731275E9 ; 0.0
30 ; 1148073.9503717215 ; 2.006793011637541E8 ; 3.078905371831553E7 ; 4.397439363893798E9 ; 0.0
31 ; 1151481.8261252707 ; 2.0068208877734002E8 ; 3.193712766868725E7 ; 4.598118665057552E9 ; 0.0
32 ; 1151405.2314940721 ; 2.0068498914323568E8 ; 3.3088609494812522E7 ; 4.798800753834892E9 ; 0.0
33 ; 1156852.585140763 ; 2.0068799951458478E8 ; 3.4240014726306595E7 ; 4.999485742978128E9 ; 0.0
34 ; 1157540.403072392 ; 2.006911171247676E8 ; 3.539686731144736E7 ; 5.200173742492713E9 ; 0.0
35 ; 1159878.6583944662 ; 2.0069433919579256E8 ; 3.6554407714519754E7 ; 5.40086485961748E9 ; 0.0
36 ; 1161496.7827429282 ; 2.006976629461537E8 ; 3.771428637291422E7 ; 5.601559198813272E9 ; 0.0
37 ; 1164636.7051765735 ; 2.0070108559813794E8 ; 3.887578315565714E7 ; 5.802256861759426E9 ; 0.0
38 ; 1165350.7577128366 ; 2.0070460438457337E8 ; 4.004041986083372E7 ; 6.002957947357564E9 ; 0.0
39 ; 1167589.6545963276 ; 2.0070821655501777E8 ; 4.120577061854655E7 ; 6.203662551742137E9 ; 0.0
40 ; 1168751.3823867007 ; 2.007119193813915E8 ; 4.237336027314288E7 ; 6.404370768297154E9 ; 0.0
41 ; 1171214.5944537737 ; 2.0071571016306612E8 ; 4.354211165552958E7 ; 6.605082687678546E9 ; 0.0
42 ; 1172572.1689637972 ; 2.0071958623142302E8 ; 4.4713326249983355E7 ; 6.805798397841612E9 ; 0.0
43 ; 1172631.920412769 ; 2.007235449539011E8 ; 4.588589841894715E7 ; 7.006517984073035E9 ; 0.0
44 ; 1174784.0033379844 ; 2.0072758373755553E8 ; 4.7058530339359924E7 ; 7.207241529026937E9 ; 0.0
45 ; 1175712.5336473056 ; 2.007317000321514E8 ; 4.823331434269791E7 ; 7.407969112764492E9 ; 0.0
46 ; 1175622.6860071407 ; 2.0073589133281887E8 ; 4.940902687634522E7 ; 7.608700812796643E9 ; 0.0
47 ; 1179648.3338759227 ; 2.0074015518229613E8 ; 5.058464956235236E7 ; 7.809436704129462E9 ; 0.0
48 ; 1178991.5249259877 ; 2.007444891727885E8 ; 5.176429789622828E7 ; 8.010176859311758E9 ; 0.0
49 ; 1180463.019818653 ; 2.0074889094747144E8 ; 5.294328942115427E7 ; 8.210921348484547E9 ; 0.0
50 ; 1178991.2840242952 ; 2.0075335820166513E8 ; 5.4123752440972924E7 ; 8.411670239432018E9 ; 0.0
51 ; 1179897.542769499 ; 2.0075788868370813E8 ; 5.530274372499722E7 ; 8.612423597633684E9 ; 0.0
52 ; 1181520.3768022032 ; 2.007624801955563E8 ; 5.648264126776672E7 ; 8.813181486317392E9 ; 0.0
53 ; 1181525.788255793 ; 2.0076713059313336E8 ; 5.766416164456893E7 ; 9.013943966512949E9 ; 0.0
54 ; 1182348.3352063359 ; 2.0077183778645653E8 ; 5.884568743282472E7 ; 9.214711097106083E9 ; 0.0
55 ; 1182555.056016008 ; 2.0077659973956147E8 ; 6.002803576803106E7 ; 9.41548293489254E9 ; 0.0
56 ; 1182165.8998380392 ; 2.0078141447024807E8 ; 6.1210590824047066E7 ; 9.616259534632101E9 ; 0.0
57 ; 1183092.4799702102 ; 2.0078628004966778E8 ; 6.2392756723885104E7 ; 9.817040949102348E9 ; 0.0
58 ; 1183142.1483539597 ; 2.0079119460177156E8 ; 6.357584920385531E7 ; 1.0017827229152016E10 ; 0.0
59 ; 1184204.4720029226 ; 2.0079615630263692E8 ; 6.475899135220927E7 ; 1.0218618423753788E10 ; 0.0
60 ; 1184450.9796265708 ; 2.0080116337968984E8 ; 6.594319582421219E7 ; 1.0419414580056425E10 ; 0.0
61 ; 1184045.3034263917 ; 2.0080621411083713E8 ; 6.712764680383876E7 ; 1.0620215743436115E10 ; 0.0
62 ; 1184385.044621739 ; 2.0081130682352325E8 ; 6.831169210726514E7 ; 1.0821021957546953E10 ; 0.0
63 ; 1184660.7568674993 ; 2.00816439893724E8 ; 6.949607715188688E7 ; 1.1021833264370476E10 ; 0.0
64 ; 1188222.3955320765 ; 2.008216117448887E8 ; 7.068073790875438E7 ; 1.12226497042642E10 ; 0.0
65 ; 1185140.0322553844 ; 2.008268208468413E8 ; 7.186896030428645E7 ; 1.1423471316009089E10 ; 0.0
66 ; 1185620.478205748 ; 2.0083206571464977E8 ; 7.305410033654183E7 ; 1.162429813685593E10 ; 0.0
67 ; 1184538.9554710584 ; 2.0083734490747198E8 ; 7.423972081474757E7 ; 1.182513020257058E10 ; 0.0
68 ; 1185670.0270370434 ; 2.0084265702738592E8 ; 7.542425977021863E7 ; 1.2025967547478052E10 ; 0.0
69 ; 1187238.267556988 ; 2.0084800071821043E8 ; 7.660992979725567E7 ; 1.2226810204505438E10 ; 0.0
70 ; 1187584.9546624585 ; 2.0085337466432273E8 ; 7.779716806481266E7 ; 1.2427658205223648E10 ; 0.0
71 ; 1186710.2512343966 ; 2.008587775894776E8 ; 7.898475301947512E7 ; 1.262851157988797E10 ; 0.0
72 ; 1185838.605463781 ; 2.0086420825563294E8 ; 8.017146327070951E7 ; 1.2829370357477448E10 ; 0.0
73 ; 1186690.9309502891 ; 2.0086966546178535E8 ; 8.13573018761733E7 ; 1.303023456573308E10 ; 0.0
74 ; 1187045.4808357705 ; 2.0087514804281947E8 ; 8.254399280712359E7 ; 1.3231104231194866E10 ; 0.0
75 ; 1186719.6359779586 ; 2.0088065486837357E8 ; 8.373103828795935E7 ; 1.3431979379237686E10 ; 0.0
76 ; 1185799.5638321773 ; 2.0088618484172416E8 ; 8.49177579239373E7 ; 1.363286003410606E10 ; 0.0
77 ; 1186583.7839657883 ; 2.008917368986914E8 ; 8.610355748776948E7 ; 1.3833746218947784E10 ; 0.0
78 ; 1185879.0855375805 ; 2.0089731000656715E8 ; 8.729014127173527E7 ; 1.4034637955846476E10 ; 0.0
79 ; 1185780.5802343232 ; 2.0090290316306716E8 ; 8.847602035727285E7 ; 1.4235535265853043E10 ; 0.0
80 ; 1184423.487714806 ; 2.0090851539530802E8 ; 8.966180093750717E7 ; 1.443643816901611E10 ; 0.0
81 ; 1183239.0682804468 ; 2.0091414575881028E8 ; 9.084622442522198E7 ; 1.4637346684411417E10 ; 0.0
82 ; 1182979.5514474108 ; 2.0091979333652797E8 ; 9.202946349350242E7 ; 1.4838260830170227E10 ; 0.0
83 ; 1180310.0536041977 ; 2.0092545723790494E8 ; 9.321244304494983E7 ; 1.5039180623506756E10 ; 0.0
84 ; 1179542.3640535315 ; 2.0093113659795868E8 ; 9.439275309855403E7 ; 1.5240106080744661E10 ; 0.0
85 ; 1179106.1683548915 ; 2.0093683057639104E8 ; 9.557229546260756E7 ; 1.544103721734262E10 ; 0.0
86 ; 1177673.7838229255 ; 2.0094253835672647E8 ; 9.675140163096246E7 ; 1.5641974047919012E10 ; 0.0
87 ; 1178259.3926172412 ; 2.009482591454771E8 ; 9.792907541478539E7 ; 1.5842916586275738E10 ; 0.0
88 ; 1177177.2063252127 ; 2.0095399217133483E8 ; 9.910733480740263E7 ; 1.6043864845421215E10 ; 0.0
89 ; 1175224.1850989931 ; 2.0095973668438992E8 ; 1.0028451201372784E8 ; 1.624481883759255E10 ; 0.0
90 ; 1175566.2174452469 ; 2.0096549195537543E8 ; 1.0145973619882683E8 ; 1.644577857427694E10 ; 0.0
91 ; 1174262.8445046514 ; 2.0097125727493763E8 ; 1.0263530241627207E8 ; 1.6646744066232315E10 ; 0.0
92 ; 1171621.7015262353 ; 2.0097703195293137E8 ; 1.0380956526077673E8 ; 1.6847715323507252E10 ; 0.0
93 ; 1172389.4889511599 ; 2.0098281531773996E8 ; 1.0498118696230297E8 ; 1.7048692355460182E10 ; 0.0
94 ; 1168505.324668136 ; 2.009886067156192E8 ; 1.0615357645125413E8 ; 1.7249675170777924E10 ; 0.0
95 ; 1168275.1405810078 ; 2.0099440551006478E8 ; 1.0732208177592227E8 ; 1.745066377749354E10 ; 0.0
96 ; 1168106.2813212178 ; 2.0100021108120242E8 ; 1.0849035691650328E8 ; 1.7651658183003605E10 ; 0.0
97 ; 1166494.6842828686 ; 2.0100602282520008E8 ; 1.096584631978245E8 ; 1.785265839408481E10 ; 0.0
98 ; 1165062.6380952422 ; 2.0101184015370187E8 ; 1.1082495788210736E8 ; 1.8053664416910007E10 ; 0.0
99 ; 1164038.1583697465 ; 2.010176624932826E8 ; 1.119900205202026E8 ; 1.825467625706371E10 ; 0.0
100 ; 1162614.4628500796 ; 2.010234892849227E8 ; 1.1315405867857236E8 ; 1.845569391955699E10 ; 0.0
101 ; 1161987.9718214516 ; 2.010293199835025E8 ; 1.1431667314142244E8 ; 1.8656717408841915E10 ; 0.0
102 ; 1160506.7365422493 ; 2.0103515405731574E8 ; 1.154786611132439E8 ; 1.8857746728825417E10 ; 0.0
103 ; 1157241.6306779007 ; 2.010409909876009E8 ; 1.1663916784978615E8 ; 1.9058781882882732E10 ; 0.0
104 ; 1157414.4355236166 ; 2.0104683026809067E8 ; 1.1779640948046404E8 ; 1.9259822873870335E10 ; 0.0
105 ; 1155344.6333585589 ; 2.0105267140457818E8 ; 1.1895382391598766E8 ; 1.9460869704138424E10 ; 0.0
106 ; 1154414.3701528946 ; 2.010585139144996E8 ; 1.2010916854934621E8 ; 1.9661922375543003E10 ; 0.0
107 ; 1153143.942373223 ; 2.0106435732653296E8 ; 1.212635829194991E8 ; 1.9862980889457504E10 ; 0.0
108 ; 1150793.6879289325 ; 2.0107020118021178E8 ; 1.2241672686187232E8 ; 2.006404524678404E10 ; 0.0
109 ; 1150108.294050838 ; 2.0107604502555382E8 ; 1.2356752054980125E8 ; 2.026511544796425E10 ; 0.0
110 ; 1149334.3102051972 ; 2.0108188842270362E8 ; 1.2471762884385209E8 ; 2.0466191492989803E10 ; 0.0
111 ; 1146539.327718704 ; 2.010877309415891E8 ; 1.2586696315405728E8 ; 2.0667273381412506E10 ; 0.0
112 ; 1145035.9758233353 ; 2.010935721615909E8 ; 1.2701350248177598E8 ; 2.0868361112354095E10 ; 0.0
113 ; 1145439.7292886719 ; 2.0109941167122465E8 ; 1.2815853845759931E8 ; 2.1069454684515686E10 ; 0.0
114 ; 1143786.6103573996 ; 2.0110524906783506E8 ; 1.2930397818688798E8 ; 2.1270554096186913E10 ; 0.0
115 ; 1141602.239926718 ; 2.0111108395730206E8 ; 1.3044776479724538E8 ; 2.147165934525475E10 ; 0.0
116 ; 1140963.12498359 ; 2.0111691595375788E8 ; 1.315893670371721E8 ; 2.167277042921205E10 ; 0.0
117 ; 1138815.2888337646 ; 2.0112274467931506E8 ; 1.3273033016215569E8 ; 2.187388734516581E10 ; 0.0
118 ; 1138182.7526706934 ; 2.0112856976380473E8 ; 1.3386914545098945E8 ; 2.2075010089845123E10 ; 0.0
119 ; 1135618.310818526 ; 2.0113439084452498E8 ; 1.3500732820366016E8 ; 2.227613865960893E10 ; 0.0
120 ; 1131400.0432864951 ; 2.011402075659987E8 ; 1.3614294651447868E8 ; 2.2477273050453453E10 ; 0.0
121 ; 1131444.4992143053 ; 2.0114601957974064E8 ; 1.372743465577652E8 ; 2.267841325801945E10 ; 0.0
122 ; 1131662.6258447752 ; 2.0115182654403338E8 ; 1.3840579105697948E8 ; 2.2879559277599194E10 ; 0.0
123 ; 1129259.1531239324 ; 2.011576281237116E8 ; 1.3953745368282425E8 ; 2.3080711104143227E10 ; 0.0
124 ; 1127023.885409028 ; 2.011634239899547E8 ; 1.406667128359482E8 ; 2.3281868732266937E10 ; 0.0
125 ; 1122999.0846645867 ; 2.0116921382008725E8 ; 1.4179373672135723E8 ; 2.3483032156256893E10 ; 0.0
126 ; 1122849.4466537957 ; 2.0117499729738665E8 ; 1.429167358060218E8 ; 2.368420137007698E10 ; 0.0
127 ; 1120597.2790700172 ; 2.0118077411089846E8 ; 1.440395852526756E8 ; 2.3885376367374367E10 ; 0.0
128 ; 1119558.569003932 ; 2.0118654395525828E8 ; 1.451601825317456E8 ; 2.4086557141485264E10 ; 0.0
129 ; 1116748.5099013422 ; 2.0119230653052047E8 ; 1.4627974110074955E8 ; 2.428774368544052E10 ; 0.0
130 ; 1114552.8688921556 ; 2.0119806154199335E8 ; 1.473964896106509E8 ; 2.4488935991971043E10 ; 0.0
131 ; 1112614.4741107998 ; 2.0120380870008028E8 ; 1.4851104247954306E8 ; 2.4690134053513035E10 ; 0.0
132 ; 1110384.2130193727 ; 2.0120954772012675E8 ; 1.4962365695365387E8 ; 2.4891337862213116E10 ; 0.0
133 ; 1108206.2038119237 ; 2.0121527832227343E8 ; 1.5073404116667324E8 ; 2.5092547409933243E10 ; 0.0
134 ; 1104259.3486596209 ; 2.0122100023131406E8 ; 1.5184224737048516E8 ; 2.5293762688255516E10 ; 0.0
135 ; 1102495.6492985778 ; 2.0122671317655912E8 ; 1.529465067191448E8 ; 2.549498368848683E10 ; 0.0
136 ; 1097107.9856492633 ; 2.0123241689170417E8 ; 1.5404900236844337E8 ; 2.569621040166339E10 ; 0.0
137 ; 1096880.1458260717 ; 2.012381111147033E8 ; 1.5514611035409263E8 ; 2.5897442818555096E10 ; 0.0
138 ; 1093197.3445722552 ; 2.0124379558764684E8 ; 1.562429904999187E8 ; 2.60986809296698E10 ; 0.0
139 ; 1090097.0623871218 ; 2.0124947005664387E8 ; 1.5733618784449095E8 ; 2.6299924725257446E10 ; 0.0
140 ; 1087456.453785492 ; 2.0125513427170882E8 ; 1.5842628490687805E8 ; 2.650117419531409E10 ; 0.0
141 ; 1086131.2132697115 ; 2.012607879866522E8 ; 1.5951374136066353E8 ; 2.67024293295858E10 ; 0.0
142 ; 1082552.1286855412 ; 2.0126643095897532E8 ; 1.6059987257393324E8 ; 2.6903690117572453E10 ; 0.0
143 ; 1078732.8575938235 ; 2.0127206294976875E8 ; 1.6168242470261878E8 ; 2.710495654853143E10 ; 0.0
144 ; 1077243.8162093842 ; 2.0127768372361457E8 ; 1.627611575602126E8 ; 2.7306228611481197E10 ; 0.0
145 ; 1073084.045917968 ; 2.0128329304849178E8 ; 1.63838401376422E8 ; 2.750750629520481E10 ; 0.0
146 ; 1073342.2654079096 ; 2.012888906956855E8 ; 1.6491148542233995E8 ; 2.7708789588253304E10 ; 0.0
147 ; 1070932.9225084384 ; 2.0129447643969923E8 ; 1.6598482768774787E8 ; 2.791007847894899E10 ; 0.0
148 ; 1070041.0748137648 ; 2.0130005005816996E8 ; 1.670557606102563E8 ; 2.811137295538869E10 ; 0.0
149 ; 1068850.6483920498 ; 2.013056113317868E8 ; 1.6812580168507007E8 ; 2.831267300544686E10 ; 0.0
150 ; 1064782.1161575813 ; 2.0131116004421216E8 ; 1.6919465233346212E8 ; 2.851397861677865E10 ; 0.0
151 ; 1062955.2498921033 ; 2.0131669598200557E8 ; 1.702594344496197E8 ; 2.871528977682286E10 ; 0.0
152 ; 1061979.3206489088 ; 2.0132221893455052E8 ; 1.7132238969951183E8 ; 2.8916606472804867E10 ; 0.0
153 ; 1060694.9320213487 ; 2.0132772869398364E8 ; 1.7238436902016073E8 ; 2.9117928691739418E10 ; 0.0
154 ; 1057675.926282543 ; 2.0133322505512637E8 ; 1.7344506395218208E8 ; 2.9319256420433403E10 ; 0.0
155 ; 1055371.7628368519 ; 2.0133870781541902E8 ; 1.7450273987846464E8 ; 2.952058964548853E10 ; 0.0
156 ; 1054334.0104805366 ; 2.013441767748572E8 ; 1.7555811164130148E8 ; 2.9721928353303947E10 ; 0.0
157 ; 1052819.6308017722 ; 2.0134963173593017E8 ; 1.76612445651782E8 ; 2.9923272530078804E10 ; 0.0
158 ; 1051190.268123253 ; 2.0135507250356176E8 ; 1.7766526528258377E8 ; 3.0124622161814735E10 ; 0.0
159 ; 1048891.2182673698 ; 2.0136049888505286E8 ; 1.78716455550707E8 ; 3.03259772343183E10 ; 0.0
160 ; 1046888.9471718739 ; 2.0136591069002607E8 ; 1.797653467689744E8 ; 3.052733773320335E10 ; 0.0
161 ; 1045052.969618238 ; 2.0137130773037243E8 ; 1.8081223571614626E8 ; 3.0728703643893375E10 ; 0.0
162 ; 1043378.964948894 ; 2.0137668982019958E8 ; 1.818572886857645E8 ; 3.093007495162375E10 ; 0.0
163 ; 1042943.8556883325 ; 2.013820567757819E8 ; 1.8290066765071338E8 ; 3.1131451641443947E10 ; 0.0
164 ; 1039843.4386874746 ; 2.013874084155124E8 ; 1.8394361150640172E8 ; 3.133283369821973E10 ; 0.0
165 ; 1037122.1977843712 ; 2.013927445598561E8 ; 1.849834549450892E8 ; 3.1534221106635242E10 ; 0.0
166 ; 1034459.717313818 ; 2.013980650313049E8 ; 1.8602057714287356E8 ; 3.17356138511951E10 ; 0.0
167 ; 1032940.3145531286 ; 2.0140336965433425E8 ; 1.8705503686018738E8 ; 3.1937011916226402E10 ; 0.0
168 ; 1031049.1203481902 ; 2.0140865825536096E8 ; 1.8808797717474052E8 ; 3.2138415285880737E10 ; 0.0
169 ; 1030161.5304323208 ; 2.0141393066270256E8 ; 1.891190262950887E8 ; 3.2339823944136097E10 ; 0.0
170 ; 1027468.2071760804 ; 2.0141918670653808E8 ; 1.9014918782552102E8 ; 3.2541237874798798E10 ; 0.0
171 ; 1026099.7206953206 ; 2.014244262188699E8 ; 1.911766560326971E8 ; 3.2742657061505337E10 ; 0.0
172 ; 1021928.827862583 ; 2.0142964903348714E8 ; 1.9220275575339243E8 ; 3.2944081487724205E10 ; 0.0
173 ; 1021930.417432428 ; 2.014348549859301E8 ; 1.9322468458125502E8 ; 3.314551113675769E10 ; 0.0
174 ; 1020461.1571316293 ; 2.0144004391345567E8 ; 1.9424661499868745E8 ; 3.334694599174362E10 ; 0.0
175 ; 1019390.1987913289 ; 2.014452156550045E8 ; 1.952670761558191E8 ; 3.3548386035657078E10 ; 0.0
176 ; 1016637.2503200605 ; 2.0145037005116844E8 ; 1.962864663546104E8 ; 3.374983125131208E10 ; 0.0
177 ; 1017010.7847216497 ; 2.0145550694415963E8 ; 1.9730310360493046E8 ; 3.395128162136325E10 ; 0.0
178 ; 1014895.1274547133 ; 2.014606261777803E8 ; 1.983201143896521E8 ; 3.415273712830741E10 ; 0.0
179 ; 1012521.3246431807 ; 2.014657275973938E8 ; 1.9933500951710683E8 ; 3.435419775448519E10 ; 0.0
180 ; 1011310.6671176044 ; 2.0147081104989624E8 ; 2.0034753084175003E8 ; 3.455566348208259E10 ; 0.0
181 ; 1011001.0183221751 ; 2.0147587638368925E8 ; 2.0135884150886762E8 ; 3.4757134293132484E10 ; 0.0
182 ; 1009302.5061864767 ; 2.0148092344865367E8 ; 2.023698425271898E8 ; 3.4958610169516174E10 ; 0.0
183 ; 1008252.6382165855 ; 2.014859520961239E8 ; 2.0337914503337628E8 ; 3.516009109296483E10 ; 0.0
184 ; 1004995.0059622846 ; 2.0149096217886317E8 ; 2.0438739767159286E8 ; 3.536157704506095E10 ; 0.0
185 ; 1004093.3893850491 ; 2.0149595355103973E8 ; 2.0539239267755514E8 ; 3.5563068007239815E10 ; 0.0
186 ; 1000925.203744183 ; 2.0150092606820345E8 ; 2.063964860669402E8 ; 3.5764563960790855E10 ; 0.0
187 ; 1001347.8758898906 ; 2.0150587958726352E8 ; 2.0739741127068436E8 ; 3.596606488685906E10 ; 0.0
188 ; 998917.8320196682 ; 2.015108139664667E8 ; 2.0839875914657426E8 ; 3.616757076644633E10 ; 0.0
189 ; 997839.8241887401 ; 2.0151572906537625E8 ; 2.0939767697859392E8 ; 3.6369081580412796E10 ; 0.0
190 ; 996155.5282135912 ; 2.0152062474485153E8 ; 2.1039551680278265E8 ; 3.657059730947817E10 ; 0.0
191 ; 994800.701515614 ; 2.0152550086702833E8 ; 2.1139167233099625E8 ; 3.677211793422302E10 ; 0.0
192 ; 993734.547811632 ; 2.015303572952996E8 ; 2.1238647303251186E8 ; 3.697364343509005E10 ; 0.0
193 ; 990420.8274459948 ; 2.0153519389429715E8 ; 2.133802075803235E8 ; 3.717517379238535E10 ; 0.0
194 ; 990184.9899517117 ; 2.0154001052987352E8 ; 2.1437062840776947E8 ; 3.737670898627965E10 ; 0.0
195 ; 989555.7179227624 ; 2.015448070690847E8 ; 2.1536081339772117E8 ; 3.7578248996809525E10 ; 0.0
196 ; 986687.1827651244 ; 2.0154958338017327E8 ; 2.1635036911564395E8 ; 3.777979380387861E10 ; 0.0
197 ; 983155.7753803734 ; 2.0155433933255205E8 ; 2.1733705629840907E8 ; 3.798134338725878E10 ; 0.0
198 ; 983769.5001020199 ; 2.0155907479678836E8 ; 2.1832021207378945E8 ; 3.818289772659133E10 ; 0.0
199 ; 981534.9435505638 ; 2.015637896445887E8 ; 2.1930398157389146E8 ; 3.838445680138812E10 ; 0.0
