CSV File for the City 4 on Day 48
1 - Minute m 
2 - Power Consumed at minute m 
3 - Power Produced at minute m 
4 - Energy Consumed since the beginning of the day 
5 - Energy Produced since the beginning of the day 
6 - Energy Lost since the beginning of the day on lines starting from the city
 
0 ; 6798460.969761569 ; 1.0576811435899767E8 ; 0.0 ; 0.0 ; 0.0
1 ; 6805171.460126741 ; 1.0591784918571132E8 ; 6798460.969761569 ; 1.0576811435899767E8 ; 0.0
2 ; 6809491.411867924 ; 1.063766779834514E8 ; 1.360363242988831E7 ; 2.11685963544709E8 ; 0.0
3 ; 6818406.946566644 ; 1.0714461050164014E8 ; 2.0413123841756232E7 ; 3.180626415281604E8 ; 0.0
4 ; 6828987.434647801 ; 1.0822165562753135E8 ; 2.7231530788322877E7 ; 4.2520725202980053E8 ; 0.0
5 ; 6839670.300003497 ; 1.0960782128894383E8 ; 3.406051822297068E7 ; 5.334289076573319E8 ; 0.0
6 ; 6856691.566109143 ; 1.1130311436392334E8 ; 4.090018852297418E7 ; 6.430367289462757E8 ; 0.0
7 ; 6881322.699894069 ; 1.1330754059961069E8 ; 4.775688008908332E7 ; 7.54339843310199E8 ; 0.0
8 ; 6914215.039107802 ; 1.1562110454246932E8 ; 5.463820278897739E7 ; 8.676473839098097E8 ; 0.0
9 ; 6961849.702088399 ; 1.1824380948180276E8 ; 6.155241782808519E7 ; 9.832684884522791E8 ; 0.0
10 ; 7040188.743202949 ; 1.2117565740817851E8 ; 6.851426753017358E7 ; 1.1015122979340818E9 ; 0.0
11 ; 7164944.630013675 ; 1.2441664898797563E8 ; 7.555445627337654E7 ; 1.2226879553422604E9 ; 0.0
12 ; 7361353.951909197 ; 1.2796678355481502E8 ; 8.271940090339021E7 ; 1.347104604330236E9 ; 0.0
13 ; 7554026.155875774 ; 1.318260591181292E8 ; 9.008075485529941E7 ; 1.475071387885051E9 ; 0.0
14 ; 7572171.98383204 ; 1.359944723886147E8 ; 9.763478101117519E7 ; 1.6068974470031803E9 ; 0.0
15 ; 7584012.928777561 ; 1.40472018819808E8 ; 1.0520695299500723E8 ; 1.742891919391795E9 ; 0.0
16 ; 7590703.151849913 ; 1.452586926645684E8 ; 1.1279096592378479E8 ; 1.883363938211603E9 ; 0.0
17 ; 7599704.632730797 ; 1.5035448704485002E8 ; 1.203816690756347E8 ; 2.0286226308761714E9 ; 0.0
18 ; 7610061.39891881 ; 1.557593940328341E8 ; 1.279813737083655E8 ; 2.1789771179210215E9 ; 0.0
19 ; 7621092.9249535175 ; 1.6147340474126688E8 ; 1.355914351072843E8 ; 2.3347365119538555E9 ; 0.0
20 ; 7628818.875823935 ; 1.6749650942072603E8 ; 1.4321252803223783E8 ; 2.4962099166951222E9 ; 0.0
21 ; 7637573.400504178 ; 1.7382869756151077E8 ; 1.5084134690806177E8 ; 2.663706426115848E9 ; 0.0
22 ; 7642867.646867894 ; 1.804699579979111E8 ; 1.5847892030856594E8 ; 2.8375351236773586E9 ; 0.0
23 ; 7651345.137574933 ; 1.8742027901274997E8 ; 1.6612178795543385E8 ; 3.0180050816752696E9 ; 0.0
24 ; 7662454.603383838 ; 1.946796484402899E8 ; 1.737731330930088E8 ; 3.2054253606880198E9 ; 0.0
25 ; 7670124.286094863 ; 2.0093609466402474E8 ; 1.8143558769639263E8 ; 3.4001050091283097E9 ; 0.0
26 ; 7680190.9704576 ; 2.0094315274848974E8 ; 1.891057119824875E8 ; 3.6010411037923346E9 ; 0.0
27 ; 7688358.068068266 ; 2.0095057905327475E8 ; 1.967859029529451E8 ; 3.8019842565408244E9 ; 0.0
28 ; 7698192.951063023 ; 2.0095836056226897E8 ; 2.0447426102101338E8 ; 4.002934835594099E9 ; 0.0
29 ; 7705654.786778981 ; 2.0096648425217444E8 ; 2.1217245397207642E8 ; 4.2038931961563683E9 ; 0.0
30 ; 7714427.500749874 ; 2.0097493716024542E8 ; 2.198781087588554E8 ; 4.404859680408543E9 ; 0.0
31 ; 7719749.160617874 ; 2.0098370644438976E8 ; 2.275925362596053E8 ; 4.605834617568789E9 ; 0.0
32 ; 7728781.825516398 ; 2.0099277943570355E8 ; 2.3531228542022318E8 ; 4.806818324013178E9 ; 0.0
33 ; 7736660.078300849 ; 2.010021436836626E8 ; 2.4304106724573958E8 ; 5.007811103448881E9 ; 0.0
34 ; 7744661.723461573 ; 2.0101178699430937E8 ; 2.507777273240404E8 ; 5.208813247132544E9 ; 0.0
35 ; 7751818.994768055 ; 2.010216974618632E8 ; 2.5852238904750198E8 ; 5.409825034126853E9 ; 0.0
36 ; 7758253.143838453 ; 2.01031863494241E8 ; 2.6627420804227003E8 ; 5.6108467315887165E9 ; 0.0
37 ; 7765699.396601296 ; 2.010422738330123E8 ; 2.7403246118610847E8 ; 5.811878595082957E9 ; 0.0
38 ; 7772185.4132099645 ; 2.01052917568329E8 ; 2.817981605827098E8 ; 6.01292086891597E9 ; 0.0
39 ; 7778727.557455795 ; 2.0106378414936996E8 ; 2.8957034599591976E8 ; 6.213973786484299E9 ; 0.0
40 ; 7781830.303102474 ; 2.0107486339082852E8 ; 2.9734907355337554E8 ; 6.415037570633669E9 ; 0.0
41 ; 7787856.584111742 ; 2.0108614547594717E8 ; 3.0513090385647804E8 ; 6.616112434024497E9 ; 0.0
42 ; 7792628.202204325 ; 2.0109762095657504E8 ; 3.129187604405898E8 ; 6.817198579500444E9 ; 0.0
43 ; 7800521.426441741 ; 2.0110928075068888E8 ; 3.2071138864279413E8 ; 7.01829620045702E9 ; 0.0
44 ; 7804278.920246196 ; 2.01121116137782E8 ; 3.2851191006923586E8 ; 7.219405481207708E9 ; 0.0
45 ; 7807445.036508303 ; 2.011331187524868E8 ; 3.3631618898948205E8 ; 7.42052659734549E9 ; 0.0
46 ; 7811033.886551035 ; 2.011452805767595E8 ; 3.4412363402599037E8 ; 7.621659716097978E9 ; 0.0
47 ; 7814193.126737164 ; 2.0115759393091837E8 ; 3.519346679125414E8 ; 7.822804996674737E9 ; 0.0
48 ; 7817459.854113908 ; 2.0117005146379218E8 ; 3.5974886103927857E8 ; 8.023962590605656E9 ; 0.0
49 ; 7820018.131445365 ; 2.0118264614220235E8 ; 3.675663208933925E8 ; 8.2251326420694475E9 ; 0.0
50 ; 7821896.338070703 ; 2.0119537123997274E8 ; 3.7538633902483785E8 ; 8.42631528821165E9 ; 0.0
51 ; 7825730.555398598 ; 2.012082203266326E8 ; 3.8320823536290854E8 ; 8.627510659451622E9 ; 0.0
52 ; 7828910.302272745 ; 2.0122118725595358E8 ; 3.910339659183071E8 ; 8.828718879778255E9 ; 0.0
53 ; 7830073.268954901 ; 2.012342661544397E8 ; 3.9886287622057986E8 ; 9.029940067034208E9 ; 0.0
54 ; 7829806.964933637 ; 2.0124745140986836E8 ; 4.0669294948953474E8 ; 9.231174333188648E9 ; 0.0
55 ; 7833712.297276275 ; 2.0126073765996403E8 ; 4.1452275645446837E8 ; 9.432421784598516E9 ; 0.0
56 ; 7834961.690731443 ; 2.0127411978127015E8 ; 4.223564687517446E8 ; 9.63368252225848E9 ; 0.0
57 ; 7835629.643742509 ; 2.0128759287827206E8 ; 4.301914304424761E8 ; 9.834956642039751E9 ; 0.0
58 ; 7837252.9938320145 ; 2.013011522728115E8 ; 4.380270600862186E8 ; 1.0036244234918022E10 ; 0.0
59 ; 7839033.752943582 ; 2.0131479349382457E8 ; 4.458643130800506E8 ; 1.0237545387190834E10 ; 0.0
60 ; 7839558.937142407 ; 2.0132851226742524E8 ; 4.5370334683299416E8 ; 1.0438860180684658E10 ; 0.0
61 ; 7841315.079454635 ; 2.0134230450735074E8 ; 4.615429057701366E8 ; 1.0640188692952084E10 ; 0.0
62 ; 7844185.318307555 ; 2.013561663057781E8 ; 4.6938422084959126E8 ; 1.0841530997459435E10 ; 0.0
63 ; 7844332.620249121 ; 2.0137009392451692E8 ; 4.7722840616789883E8 ; 1.1042887163765213E10 ; 0.0
64 ; 7845680.339718371 ; 2.013840837865792E8 ; 4.850727387881479E8 ; 1.124425725768973E10 ; 0.0
65 ; 7846759.714337951 ; 2.0139813246812305E8 ; 4.9291841912786627E8 ; 1.1445641341476309E10 ; 0.0
66 ; 7848071.301973764 ; 2.0141223669076565E8 ; 5.007651788422042E8 ; 1.1647039473944431E10 ; 0.0
67 ; 7848951.423960904 ; 2.0142639331425738E8 ; 5.08613250144178E8 ; 1.1848451710635197E10 ; 0.0
68 ; 7850119.553913946 ; 2.014405993295085E8 ; 5.164622015681389E8 ; 1.2049878103949453E10 ; 0.0
69 ; 7852008.952803253 ; 2.014548518519575E8 ; 5.2431232112205285E8 ; 1.2251318703278961E10 ; 0.0
70 ; 7851840.46889675 ; 2.0146914811526993E8 ; 5.321643300748561E8 ; 1.2452773555130919E10 ; 0.0
71 ; 7851427.2403837 ; 2.0148348546535578E8 ; 5.400161705437529E8 ; 1.265424270324619E10 ; 0.0
72 ; 7854685.657368357 ; 2.0149786135469288E8 ; 5.478675977841367E8 ; 1.2855726188711544E10 ; 0.0
73 ; 7855533.184492727 ; 2.0151227333694348E8 ; 5.55722283441505E8 ; 1.3057224050066236E10 ; 0.0
74 ; 7854808.43225898 ; 2.015267190618514E8 ; 5.635778166259977E8 ; 1.325873632340318E10 ; 0.0
75 ; 7853156.255915796 ; 2.0154119627040732E8 ; 5.714326250582566E8 ; 1.346026304246503E10 ; 0.0
76 ; 7852879.259614592 ; 2.0155570279026878E8 ; 5.792857813141724E8 ; 1.3661804238735437E10 ; 0.0
77 ; 7854886.906987869 ; 2.0157023653142372E8 ; 5.87138660573787E8 ; 1.3863359941525705E10 ; 0.0
78 ; 7851985.791129638 ; 2.0158479548208484E8 ; 5.949935474807749E8 ; 1.4064930178057129E10 ; 0.0
79 ; 7850104.082430906 ; 2.01599377704803E8 ; 6.028455332719045E8 ; 1.4266514973539213E10 ; 0.0
80 ; 7848685.885400001 ; 2.0161398133278918E8 ; 6.106956373543354E8 ; 1.4468114351244017E10 ; 0.0
81 ; 7844441.937506116 ; 2.0162860456643328E8 ; 6.185443232397355E8 ; 1.4669728332576805E10 ; 0.0
82 ; 7840702.607033385 ; 2.0164324567000988E8 ; 6.263887651772416E8 ; 1.4871356937143238E10 ; 0.0
83 ; 7838715.876671545 ; 2.016579029685609E8 ; 6.342294677842749E8 ; 1.5073000182813248E10 ; 0.0
84 ; 7838890.0492739715 ; 2.0167257484494534E8 ; 6.420681836609465E8 ; 1.5274658085781809E10 ; 0.0
85 ; 7838961.121701376 ; 2.0168725973704743E8 ; 6.499070737102205E8 ; 1.5476330660626755E10 ; 0.0
86 ; 7836260.227078294 ; 2.017019561351343E8 ; 6.577460348319218E8 ; 1.5678017920363802E10 ; 0.0
87 ; 7831484.579447983 ; 2.0171666257935482E8 ; 6.655822950590001E8 ; 1.5879719876498936E10 ; 0.0
88 ; 7824995.835232298 ; 2.017313776573721E8 ; 6.734137796384481E8 ; 1.608143653907829E10 ; 0.0
89 ; 7822124.606892811 ; 2.0174610000212193E8 ; 6.812387754736804E8 ; 1.6283167916735662E10 ; 0.0
90 ; 7821782.7200759705 ; 2.017608282896906E8 ; 6.890609000805732E8 ; 1.6484914016737785E10 ; 0.0
91 ; 7816076.296618358 ; 2.0177556123730475E8 ; 6.968826828006492E8 ; 1.6686674845027475E10 ; 0.0
92 ; 7811541.859678415 ; 2.0179029760142764E8 ; 7.046987590972675E8 ; 1.688845040626478E10 ; 0.0
93 ; 7811115.531281501 ; 2.0180503617595565E8 ; 7.125103009569459E8 ; 1.7090240703866207E10 ; 0.0
94 ; 7808508.62193036 ; 2.0181977579050913E8 ; 7.203214164882274E8 ; 1.7292045740042164E10 ; 0.0
95 ; 7805124.144227394 ; 2.0183451530881298E8 ; 7.281299251101577E8 ; 1.7493865515832672E10 ; 0.0
96 ; 7802905.534553534 ; 2.0184925362716112E8 ; 7.359350492543851E8 ; 1.7695700031141483E10 ; 0.0
97 ; 7798979.177733781 ; 2.0186398967296106E8 ; 7.437379547889386E8 ; 1.7897549284768646E10 ; 0.0
98 ; 7794172.918821535 ; 2.01878722403353E8 ; 7.515369339666724E8 ; 1.809941327444161E10 ; 0.0
99 ; 7791402.931085332 ; 2.0189345080390072E8 ; 7.59331106885494E8 ; 1.8301291996844963E10 ; 0.0
100 ; 7787903.829963347 ; 2.0190817388734874E8 ; 7.671225098165793E8 ; 1.8503185447648865E10 ; 0.0
101 ; 7785334.16206133 ; 2.019228906924433E8 ; 7.749104136465427E8 ; 1.8705093621536213E10 ; 0.0
102 ; 7778136.324980362 ; 2.0193760028281307E8 ; 7.82695747808604E8 ; 1.8907016512228657E10 ; 0.0
103 ; 7774351.819470554 ; 2.0195230174590614E8 ; 7.904738841335844E8 ; 1.910895411251147E10 ; 0.0
104 ; 7770130.91726545 ; 2.0196699419198084E8 ; 7.982482359530549E8 ; 1.9310906414257378E10 ; 0.0
105 ; 7766157.106938472 ; 2.0198167675314653E8 ; 8.060183668703203E8 ; 1.951287340844936E10 ; 0.0
106 ; 7761998.574059242 ; 2.019963485824526E8 ; 8.137845239772588E8 ; 1.9714855085202507E10 ; 0.0
107 ; 7757715.067953867 ; 2.0201100885302222E8 ; 8.21546522551318E8 ; 1.9916851433784958E10 ; 0.0
108 ; 7752296.471109403 ; 2.0202565675722903E8 ; 8.293042376192719E8 ; 2.011886244263798E10 ; 0.0
109 ; 7747843.142811371 ; 2.02040291505914E8 ; 8.370565340903813E8 ; 2.032088809939521E10 ; 0.0
110 ; 7743914.7123746285 ; 2.020549123276405E8 ; 8.448043772331927E8 ; 2.0522928390901123E10 ; 0.0
111 ; 7736038.204123984 ; 2.0206951846798566E8 ; 8.525482919455674E8 ; 2.0724983303228764E10 ; 0.0
112 ; 7732935.018821637 ; 2.0208410918886584E8 ; 8.602843301496913E8 ; 2.092705282169675E10 ; 0.0
113 ; 7730954.100689933 ; 2.0209868376789436E8 ; 8.68017265168513E8 ; 2.1129136930885616E10 ; 0.0
114 ; 7727061.30800714 ; 2.021132414977702E8 ; 8.757482192692028E8 ; 2.133123561465351E10 ; 0.0
115 ; 7717342.715017004 ; 2.0212778168569538E8 ; 8.8347528057721E8 ; 2.153334885615128E10 ; 0.0
116 ; 7713671.229173091 ; 2.021423036528203E8 ; 8.911926232922269E8 ; 2.1735476637836975E10 ; 0.0
117 ; 7709306.9265613835 ; 2.021568067337147E8 ; 8.989062945214E8 ; 2.1937618941489796E10 ; 0.0
118 ; 7705687.638642006 ; 2.021712902758639E8 ; 9.066156014479613E8 ; 2.213977574822351E10 ; 0.0
119 ; 7700547.98617669 ; 2.0218575363918775E8 ; 9.143212890866033E8 ; 2.2341947038499374E10 ; 0.0
120 ; 7693709.342715781 ; 2.0220019619558278E8 ; 9.2202183707278E8 ; 2.254413279213856E10 ; 0.0
121 ; 7687804.423172216 ; 2.0221461732848445E8 ; 9.297155464154958E8 ; 2.2746332988334145E10 ; 0.0
122 ; 7682004.348998076 ; 2.0222901643245018E8 ; 9.37403350838668E8 ; 2.294854760566263E10 ; 0.0
123 ; 7676035.3417941155 ; 2.022433929127611E8 ; 9.45085355187666E8 ; 2.3150776622095078E10 ; 0.0
124 ; 7670443.629058242 ; 2.0225774618504173E8 ; 9.527613905294602E8 ; 2.335302001500784E10 ; 0.0
125 ; 7667137.124398749 ; 2.02272075674897E8 ; 9.604318341585184E8 ; 2.3555277761192883E10 ; 0.0
126 ; 7657237.398402072 ; 2.0228638081756553E8 ; 9.680989712829171E8 ; 2.375754983686778E10 ; 0.0
127 ; 7654309.975670804 ; 2.0230066105758825E8 ; 9.757562086813192E8 ; 2.3959836217685345E10 ; 0.0
128 ; 7648371.828535899 ; 2.0231491584849185E8 ; 9.8341051865699E8 ; 2.416213687874293E10 ; 0.0
129 ; 7640766.8119286485 ; 2.0232914465248612E8 ; 9.91058890485526E8 ; 2.4364451794591423E10 ; 0.0
130 ; 7635651.6870099185 ; 2.023433469401747E8 ; 9.986996572974546E8 ; 2.4566780939243908E10 ; 0.0
131 ; 7625957.794793958 ; 2.0235752219027832E8 ; 1.0063353089844645E9 ; 2.4769124286184082E10 ; 0.0
132 ; 7618081.028509349 ; 2.0237166988937023E8 ; 1.0139612667792585E9 ; 2.497148180837436E10 ; 0.0
133 ; 7610128.8948266255 ; 2.0238578953162295E8 ; 1.0215793478077679E9 ; 2.517385347826373E10 ; 0.0
134 ; 7599479.746766892 ; 2.0239988061856607E8 ; 1.0291894767025945E9 ; 2.5376239267795353E10 ; 0.0
135 ; 7593453.93813287 ; 2.0241394265885416E8 ; 1.0367889564493614E9 ; 2.5578639148413918E10 ; 0.0
136 ; 7583339.761864702 ; 2.0242797516804492E8 ; 1.0443824103874943E9 ; 2.5781053091072773E10 ; 0.0
137 ; 7574864.786820838 ; 2.024419776683865E8 ; 1.051965750149359E9 ; 2.5983481066240818E10 ; 0.0
138 ; 7566275.278657638 ; 2.0245594968861383E8 ; 1.0595406149361799E9 ; 2.6185923043909206E10 ; 0.0
139 ; 7556711.244252719 ; 2.0246989076375365E8 ; 1.0671068902148376E9 ; 2.638837899359782E10 ; 0.0
140 ; 7545666.452473935 ; 2.0248380043493742E8 ; 1.0746636014590902E9 ; 2.6590848884361572E10 ; 0.0
141 ; 7536525.563200086 ; 2.024976782492223E8 ; 1.082209267911564E9 ; 2.679333268479651E10 ; 0.0
142 ; 7529176.088207544 ; 2.0251152375941947E8 ; 1.089745793474764E9 ; 2.699583036304573E10 ; 0.0
143 ; 7522200.309537052 ; 2.0252533652392927E8 ; 1.0972749695629716E9 ; 2.719834188680515E10 ; 0.0
144 ; 7513472.2142073205 ; 2.025391161065836E8 ; 1.1047971698725085E9 ; 2.740086722332908E10 ; 0.0
145 ; 7502759.563061099 ; 2.0255286207649425E8 ; 1.112310642086716E9 ; 2.760340633943566E10 ; 0.0
146 ; 7496785.8740746705 ; 2.0256657400790766E8 ; 1.119813401649777E9 ; 2.7805959201512157E10 ; 0.0
147 ; 7489679.767230133 ; 2.025802514800657E8 ; 1.1273101875238516E9 ; 2.8008525775520065E10 ; 0.0
148 ; 7483056.79872436 ; 2.025938940770716E8 ; 1.1347998672910817E9 ; 2.821110602700013E10 ; 0.0
149 ; 7473846.982737355 ; 2.0260750138776183E8 ; 1.142282924089806E9 ; 2.84136999210772E10 ; 0.0
150 ; 7468286.338637134 ; 2.026210730055826E8 ; 1.1497567710725434E9 ; 2.8616307422464962E10 ; 0.0
151 ; 7460158.817390519 ; 2.026346085284716E8 ; 1.1572250574111805E9 ; 2.8818928495470543E10 ; 0.0
152 ; 7455466.510816267 ; 2.026481075587443E8 ; 1.164685216228571E9 ; 2.9021563103999016E10 ; 0.0
153 ; 7448498.579732433 ; 2.0266156970298475E8 ; 1.1721406827393873E9 ; 2.922421121155776E10 ; 0.0
154 ; 7442747.271877136 ; 2.0267499457194066E8 ; 1.1795891813191197E9 ; 2.9426872781260742E10 ; 0.0
155 ; 7435915.346971646 ; 2.0268838178042266E8 ; 1.1870319285909967E9 ; 2.9629547775832684E10 ; 0.0
156 ; 7429682.429557566 ; 2.0270173094720733E8 ; 1.1944678439379685E9 ; 2.9832236157613106E10 ; 0.0
157 ; 7422022.185176326 ; 2.0271504169494417E8 ; 1.201897526367526E9 ; 3.0034937888560314E10 ; 0.0
158 ; 7415196.142894251 ; 2.0272831365006617E8 ; 1.2093195485527024E9 ; 3.0237652930255257E10 ; 0.0
159 ; 7407676.202615468 ; 2.0274154644270355E8 ; 1.2167347446955967E9 ; 3.0440381243905323E10 ; 0.0
160 ; 7399332.696402246 ; 2.027547397066012E8 ; 1.2241424208982122E9 ; 3.0643122790348026E10 ; 0.0
161 ; 7392832.592694567 ; 2.0276789307903907E8 ; 1.2315417535946145E9 ; 3.0845877530054626E10 ; 0.0
162 ; 7386194.992900658 ; 2.0278100620075557E8 ; 1.238934586187309E9 ; 3.1048645423133667E10 ; 0.0
163 ; 7376465.140572168 ; 2.0279407871587393E8 ; 1.2463207811802096E9 ; 3.1251426429334423E10 ; 0.0
164 ; 7369934.728971692 ; 2.0280711027183145E8 ; 1.2536972463207817E9 ; 3.1454220508050297E10 ; 0.0
165 ; 7364848.388708369 ; 2.0282010051931116E8 ; 1.2610671810497534E9 ; 3.165702761832213E10 ; 0.0
166 ; 7356881.344548888 ; 2.0283304911217645E8 ; 1.2684320294384618E9 ; 3.185984771884144E10 ; 0.0
167 ; 7348300.847476321 ; 2.0284595570740762E8 ; 1.2757889107830107E9 ; 3.2062680767953613E10 ; 0.0
168 ; 7342846.50754835 ; 2.028588199650414E8 ; 1.283137211630487E9 ; 3.2265526723661022E10 ; 0.0
169 ; 7334787.292997498 ; 2.028716415481122E8 ; 1.2904800581380353E9 ; 3.2468385543626064E10 ; 0.0
170 ; 7325684.470040245 ; 2.028844201225959E8 ; 1.297814845431033E9 ; 3.2671257185174175E10 ; 0.0
171 ; 7320765.383815319 ; 2.0289715535735545E8 ; 1.3051405299010732E9 ; 3.2874141605296772E10 ; 0.0
172 ; 7312647.088384717 ; 2.0290984692408884E8 ; 1.3124612952848885E9 ; 3.307703876065413E10 ; 0.0
173 ; 7304219.061996057 ; 2.0292249449727848E8 ; 1.3197739423732731E9 ; 3.3279948607578217E10 ; 0.0
174 ; 7299904.606703529 ; 2.0293509775414297E8 ; 1.327078161435269E9 ; 3.3482871102075497E10 ; 0.0
175 ; 7294747.554420399 ; 2.0294765637459034E8 ; 1.3343780660419726E9 ; 3.368580619982964E10 ; 0.0
176 ; 7292457.357175605 ; 2.029601700411729E8 ; 1.341672813596393E9 ; 3.388875385620423E10 ; 0.0
177 ; 7286388.904706094 ; 2.0297263843904406E8 ; 1.3489652709535687E9 ; 3.4091714026245403E10 ; 0.0
178 ; 7281565.658446892 ; 2.029850612559165E8 ; 1.3562516598582747E9 ; 3.429468666468445E10 ; 0.0
179 ; 7279574.45712034 ; 2.0299743818202198E8 ; 1.3635332255167215E9 ; 3.449767172594036E10 ; 0.0
180 ; 7272999.336622604 ; 2.030097689100723E8 ; 1.370812799973842E9 ; 3.470066916412238E10 ; 0.0
181 ; 7269237.281290689 ; 2.0302205313522223E8 ; 1.3780857993104646E9 ; 3.4903678933032455E10 ; 0.0
182 ; 7262857.924364056 ; 2.0303429055503324E8 ; 1.3853550365917554E9 ; 3.510670098616768E10 ; 0.0
183 ; 7260676.075002827 ; 2.030464808694388E8 ; 1.3926178945161195E9 ; 3.530973527672271E10 ; 0.0
184 ; 7254745.371857334 ; 2.030586237807109E8 ; 1.3998785705911224E9 ; 3.551278175759215E10 ; 0.0
185 ; 7250522.0268665645 ; 2.030707189934278E8 ; 1.4071333159629798E9 ; 3.5715840381372856E10 ; 0.0
186 ; 7246520.442488381 ; 2.030827662144428E8 ; 1.4143838379898465E9 ; 3.591891110036629E10 ; 0.0
187 ; 7241950.078725906 ; 2.030947651528542E8 ; 1.421630358432335E9 ; 3.612199386658073E10 ; 0.0
188 ; 7237729.174240119 ; 2.0310671551997653E8 ; 1.4288723085110607E9 ; 3.632508863173358E10 ; 0.0
189 ; 7231182.319399405 ; 2.031186170293124E8 ; 1.4361100376853008E9 ; 3.6528195347253555E10 ; 0.0
190 ; 7228600.071969491 ; 2.031304693965257E8 ; 1.4433412200047002E9 ; 3.673131396428287E10 ; 0.0
191 ; 7222255.968699351 ; 2.0314227233941567E8 ; 1.4505698200766697E9 ; 3.693444443367939E10 ; 0.0
192 ; 7218183.427760984 ; 2.031540255778917E8 ; 1.4577920760453691E9 ; 3.713758670601881E10 ; 0.0
193 ; 7213016.211052759 ; 2.031657288339494E8 ; 1.4650102594731302E9 ; 3.7340740731596695E10 ; 0.0
194 ; 7206941.129692714 ; 2.0317738183164713E8 ; 1.472223275684183E9 ; 3.754390646043064E10 ; 0.0
195 ; 7204500.492003965 ; 2.031889842970836E8 ; 1.4794302168138757E9 ; 3.774708384226229E10 ; 0.0
196 ; 7199636.388820088 ; 2.0320053595837623E8 ; 1.4866347173058796E9 ; 3.795027282655937E10 ; 0.0
197 ; 7197143.19368446 ; 2.0321203654564017E8 ; 1.4938343536946998E9 ; 3.8153473362517746E10 ; 0.0
198 ; 7195185.649713747 ; 2.0322348579096824E8 ; 1.5010314968883843E9 ; 3.8356685399063385E10 ; 0.0
199 ; 7185690.53200693 ; 2.0323488342841142E8 ; 1.508226682538098E9 ; 3.8559908884854355E10 ; 0.0
200 ; 7181131.639898651 ; 2.032462291939601E8 ; 1.515412373070105E9 ; 3.876314376828277E10 ; 0.0
201 ; 7178237.6740558995 ; 1.5986778207538834E8 ; 1.5225935047100036E9 ; 3.896638999747673E10 ; 0.0
