CSV File for the City 4 on Day 75
1 - Minute m 
2 - Power Consumed at minute m 
3 - Power Produced at minute m 
4 - Energy Consumed since the beginning of the day 
5 - Energy Produced since the beginning of the day 
6 - Energy Lost since the beginning of the day on lines starting from the city
 
0 ; 6818111.286048887 ; 1.0608650933781794E8 ; 0.0 ; 0.0 ; 0.0
1 ; 6825179.5498135695 ; 1.062369830697372E8 ; 6818111.286048887 ; 1.0608650933781794E8 ; 0.0
2 ; 6829003.094239381 ; 1.066964892908592E8 ; 1.3643290835862458E7 ; 2.1232349240755513E8 ; 0.0
3 ; 6838121.984825226 ; 1.0746503269269705E8 ; 2.0472293930101838E7 ; 3.190199816984143E8 ; 0.0
4 ; 6847718.4798938 ; 1.0854261748892146E8 ; 2.7310415914927065E7 ; 4.264850143911114E8 ; 0.0
5 ; 6860481.223782842 ; 1.0992924738891554E8 ; 3.415813439482087E7 ; 5.3502763188003284E8 ; 0.0
6 ; 6876149.3147242945 ; 1.1162492557398465E8 ; 4.1018615618603714E7 ; 6.449568792689483E8 ; 0.0
7 ; 6900486.166615422 ; 1.1362965467657143E8 ; 4.789476493332801E7 ; 7.565818048429329E8 ; 0.0
8 ; 6931217.621408631 ; 1.1594343676278847E8 ; 5.479525109994343E7 ; 8.702114595195043E8 ; 0.0
9 ; 6984082.45738596 ; 1.1856627331853843E8 ; 6.172646872135206E7 ; 9.861548962822928E8 ; 0.0
10 ; 7060424.407318148 ; 1.2149816523943883E8 ; 6.871055117873803E7 ; 1.1047211696008313E9 ; 0.0
11 ; 7185743.887374426 ; 1.247391128247113E8 ; 7.577097558605617E7 ; 1.22621933484027E9 ; 0.0
12 ; 7383597.421963343 ; 1.2828911577513418E8 ; 8.29567194734306E7 ; 1.3509584476649814E9 ; 0.0
13 ; 7571354.662308127 ; 1.3214817319508994E8 ; 9.034031689539395E7 ; 1.4792475634401155E9 ; 0.0
14 ; 7595697.818713428 ; 1.3631628359867603E8 ; 9.791167155770208E7 ; 1.6113957366352053E9 ; 0.0
15 ; 7604822.188078358 ; 1.4079344491977972E8 ; 1.055073693764155E8 ; 1.7477120202338812E9 ; 0.0
16 ; 7611177.422481388 ; 1.455796545259585E8 ; 1.1311219156449386E8 ; 1.888505465153661E9 ; 0.0
17 ; 7621468.374552671 ; 1.5067490923590693E8 ; 1.2072336898697525E8 ; 2.0340851196796196E9 ; 0.0
18 ; 7626757.76736537 ; 1.560792053402419E8 ; 1.2834483736152792E8 ; 2.1847600289155264E9 ; 0.0
19 ; 7638353.3089021435 ; 1.6179253862529275E8 ; 1.359715951288933E8 ; 2.3408392342557683E9 ; 0.0
20 ; 7647559.587564196 ; 1.678149043995463E8 ; 1.4360994843779543E8 ; 2.502631772881061E9 ; 0.0
21 ; 7658588.016634446 ; 1.741462975223725E8 ; 1.5125750802535963E8 ; 2.670446677280607E9 ; 0.0
22 ; 7663891.560377804 ; 1.8078671243463522E8 ; 1.5891609604199407E8 ; 2.84459297480298E9 ; 0.0
23 ; 7672639.505428921 ; 1.877361431907872E8 ; 1.6657998760237187E8 ; 3.025379687237615E9 ; 0.0
24 ; 7681279.877016603 ; 1.9499458349204618E8 ; 1.7425262710780078E8 ; 3.2131158304284024E9 ; 0.0
25 ; 7691162.977740778 ; 2.0125006761844307E8 ; 1.819339069848174E8 ; 3.408110413920449E9 ; 0.0
26 ; 7698802.457488166 ; 2.012561364998919E8 ; 1.8962506996255815E8 ; 3.609360481538892E9 ; 0.0
27 ; 7707478.5607632585 ; 2.0126255227522135E8 ; 1.9732387242004633E8 ; 3.8106166180387836E9 ; 0.0
28 ; 7716768.280165146 ; 2.012693075727003E8 ; 2.050313509808096E8 ; 4.011879170314005E9 ; 0.0
29 ; 7729223.912077601 ; 2.012763948363631E8 ; 2.1274811926097474E8 ; 4.2131484778867054E9 ; 0.0
30 ; 7736196.9098614035 ; 2.0128380635815266E8 ; 2.2047734317305234E8 ; 4.414424872723068E9 ; 0.0
31 ; 7741389.587884457 ; 2.0129153430889717E8 ; 2.2821354008291376E8 ; 4.615708679081221E9 ; 0.0
32 ; 7750317.006684307 ; 2.0129957076792884E8 ; 2.359549296707982E8 ; 4.817000213390118E9 ; 0.0
33 ; 7756077.994769882 ; 2.0130790775118735E8 ; 2.4370524667748252E8 ; 5.018299784158047E9 ; 0.0
34 ; 7766689.154383995 ; 2.013165372376859E8 ; 2.514613246722524E8 ; 5.219607691909234E9 ; 0.0
35 ; 7771360.1221707715 ; 2.013254511942512E8 ; 2.5922801382663637E8 ; 5.42092422914692E9 ; 0.0
36 ; 7778602.04862658 ; 2.013346415984791E8 ; 2.6699937394880715E8 ; 5.622249680341171E9 ; 0.0
37 ; 7783990.600918309 ; 2.0134410045987478E8 ; 2.747779759974337E8 ; 5.823584321939651E9 ; 0.0
38 ; 7792082.711485251 ; 2.0135381983917335E8 ; 2.82561966598352E8 ; 6.024928422399526E9 ; 0.0
39 ; 7796909.980545921 ; 2.013637918658567E8 ; 2.903540493098373E8 ; 6.226282242238699E9 ; 0.0
40 ; 7802013.228890257 ; 2.0137400875390345E8 ; 2.981509592903832E8 ; 6.427646034104556E9 ; 0.0
41 ; 7810035.002062516 ; 2.0138446281582293E8 ; 3.0595297251927346E8 ; 6.629020042858459E9 ; 0.0
42 ; 7816589.32609139 ; 2.013951464750391E8 ; 3.1376300752133596E8 ; 6.830404505674282E9 ; 0.0
43 ; 7822586.092617898 ; 2.0140605227669874E8 ; 3.2157959684742737E8 ; 7.031799652149322E9 ; 0.0
44 ; 7826154.182766987 ; 2.014171728969882E8 ; 3.2940218294004524E8 ; 7.233205704426021E9 ; 0.0
45 ; 7828309.849607229 ; 2.014285011510464E8 ; 3.372283371228122E8 ; 7.434622877323009E9 ; 0.0
46 ; 7833971.02372688 ; 2.0144002999956712E8 ; 3.4505664697241944E8 ; 7.636051378474055E9 ; 0.0
47 ; 7838632.95583392 ; 2.0145175255418462E8 ; 3.528906179961463E8 ; 7.837491408473622E9 ; 0.0
48 ; 7842345.486790645 ; 2.0146366208173636E8 ; 3.6072925095198023E8 ; 8.038943161027807E9 ; 0.0
49 ; 7842276.296811613 ; 2.0147575200749686E8 ; 3.685715964387709E8 ; 8.240406823109544E9 ; 0.0
50 ; 7847707.347836597 ; 2.0148801591747355E8 ; 3.7641387273558253E8 ; 8.441882575117041E9 ; 0.0
51 ; 7847457.19777646 ; 2.0150044755985275E8 ; 3.8426158008341914E8 ; 8.643370591034513E9 ; 0.0
52 ; 7852247.095146819 ; 2.015130408456808E8 ; 3.921090372811956E8 ; 8.844871038594366E9 ; 0.0
53 ; 7852175.657823214 ; 2.0152578984886053E8 ; 3.999612843763424E8 ; 9.046384079440046E9 ; 0.0
54 ; 7855686.135592711 ; 2.0153868880553937E8 ; 4.078134600341656E8 ; 9.247909869288906E9 ; 0.0
55 ; 7856664.445316808 ; 2.0155173211296034E8 ; 4.156691461697583E8 ; 9.449448558094446E9 ; 0.0
56 ; 7857435.037973924 ; 2.0156491432784253E8 ; 4.235258106150751E8 ; 9.651000290207407E9 ; 0.0
57 ; 7861258.514655564 ; 2.0157823016435277E8 ; 4.3138324565304905E8 ; 9.85256520453525E9 ; 0.0
58 ; 7861814.0489951605 ; 2.0159167449172544E8 ; 4.3924450416770464E8 ; 1.0054143434699602E10 ; 0.0
59 ; 7864884.971750726 ; 2.016052423315825E8 ; 4.471063182166998E8 ; 1.0255735109191328E10 ; 0.0
60 ; 7866388.449133787 ; 2.016189288550016E8 ; 4.549712031884505E8 ; 1.0457340351522911E10 ; 0.0
61 ; 7865748.750903084 ; 2.0163272937937582E8 ; 4.628375916375843E8 ; 1.0658959280377913E10 ; 0.0
62 ; 7871707.811358296 ; 2.0164663936510336E8 ; 4.707033403884874E8 ; 1.0860592009757288E10 ; 0.0
63 ; 7872081.258194237 ; 2.0166065441214368E8 ; 4.785750481998457E8 ; 1.106223864912239E10 ; 0.0
64 ; 7871816.515177471 ; 2.0167477025647083E8 ; 4.864471294580399E8 ; 1.1263899303534534E10 ; 0.0
65 ; 7872971.824676099 ; 2.0168898276645246E8 ; 4.9431894597321737E8 ; 1.1465574073791006E10 ; 0.0
66 ; 7874134.453744296 ; 2.0170328793917972E8 ; 5.0219191779789346E8 ; 1.1667263056557459E10 ; 0.0
67 ; 7876324.470706831 ; 2.0171768189676994E8 ; 5.1006605225163776E8 ; 1.186896634449664E10 ; 0.0
68 ; 7879103.105845778 ; 2.017321608826615E8 ; 5.179423767223446E8 ; 1.207068402639341E10 ; 0.0
69 ; 7876761.607232972 ; 2.017467212579182E8 ; 5.258214798281903E8 ; 1.2272416187276072E10 ; 0.0
70 ; 7877589.799247623 ; 2.0176135949755746E8 ; 5.336982414354233E8 ; 1.2474162908533989E10 ; 0.0
71 ; 7878753.93225926 ; 2.017760721869152E8 ; 5.41575831234671E8 ; 1.2675924268031546E10 ; 0.0
72 ; 7880268.351725325 ; 2.0179085601805824E8 ; 5.494545851669302E8 ; 1.287770034021846E10 ; 0.0
73 ; 7880068.438541484 ; 2.0180570778625366E8 ; 5.573348535186555E8 ; 1.3079491196236519E10 ; 0.0
74 ; 7883357.123248379 ; 2.0182062438650224E8 ; 5.652149219571971E8 ; 1.3281296904022772E10 ; 0.0
75 ; 7881183.181034495 ; 2.0183560281014293E8 ; 5.730982790804454E8 ; 1.3483117528409273E10 ; 0.0
76 ; 7884814.128543412 ; 2.0185064014153332E8 ; 5.809794622614799E8 ; 1.3684953131219416E10 ; 0.0
77 ; 7884343.768570548 ; 2.018657335548099E8 ; 5.888642763900232E8 ; 1.3886803771360949E10 ; 0.0
78 ; 7880582.01983443 ; 2.0188088031073216E8 ; 5.967486201585938E8 ; 1.4088669504915758E10 ; 0.0
79 ; 7879055.499111152 ; 2.018960777536117E8 ; 6.046292021784282E8 ; 1.429055038522649E10 ; 0.0
80 ; 7878461.745062187 ; 2.019113233083291E8 ; 6.125082576775393E8 ; 1.4492446462980103E10 ; 0.0
81 ; 7875308.161335712 ; 2.0192661447743884E8 ; 6.203867194226016E8 ; 1.4694357786288431E10 ; 0.0
82 ; 7874662.290204371 ; 2.0194194883836302E8 ; 6.282620275839373E8 ; 1.489628440076587E10 ; 0.0
83 ; 7873900.825945004 ; 2.019573240406739E8 ; 6.361366898741417E8 ; 1.5098226349604233E10 ; 0.0
84 ; 7868412.413148316 ; 2.019727378034644E8 ; 6.440105907000867E8 ; 1.5300183673644907E10 ; 0.0
85 ; 7867532.964515626 ; 2.0198818791280648E8 ; 6.51879003113235E8 ; 1.5502156411448372E10 ; 0.0
86 ; 7864123.445059527 ; 2.0200367221929565E8 ; 6.597465360777507E8 ; 1.5704144599361177E10 ; 0.0
87 ; 7865845.004558011 ; 2.0201918863568056E8 ; 6.676106595228102E8 ; 1.5906148271580473E10 ; 0.0
88 ; 7859397.362934879 ; 2.0203473513457626E8 ; 6.754765045273682E8 ; 1.6108167460216154E10 ; 0.0
89 ; 7857024.484487408 ; 2.0205030974625918E8 ; 6.83335901890303E8 ; 1.631020219535073E10 ; 0.0
90 ; 7856647.200362854 ; 2.020659105565419E8 ; 6.911929263747904E8 ; 1.651225250509699E10 ; 0.0
91 ; 7853347.335352929 ; 2.0208153570472613E8 ; 6.990495735751532E8 ; 1.6714318415653532E10 ; 0.0
92 ; 7851262.740952837 ; 2.020971833816314E8 ; 7.069029209105061E8 ; 1.6916399951358257E10 ; 0.0
93 ; 7847767.032377803 ; 2.0211285182769778E8 ; 7.14754183651459E8 ; 1.711849713473989E10 ; 0.0
94 ; 7844149.120083195 ; 2.0212853933115995E8 ; 7.226019506838368E8 ; 1.732060998656759E10 ; 0.0
95 ; 7840639.448920962 ; 2.0214424422629106E8 ; 7.3044609980392E8 ; 1.752273852589875E10 ; 0.0
96 ; 7839198.7176510785 ; 2.0215996489171356E8 ; 7.38286739252841E8 ; 1.7724882770125042E10 ; 0.0
97 ; 7834057.74168904 ; 2.0217569974877533E8 ; 7.461259379704921E8 ; 1.7927042735016754E10 ; 0.0
98 ; 7830810.3471993795 ; 2.0219144725998864E8 ; 7.539599957121812E8 ; 1.812921843476553E10 ; 0.0
99 ; 7824403.536396008 ; 2.0220720592752966E8 ; 7.617908060593805E8 ; 1.8331409882025517E10 ; 0.0
100 ; 7823706.505933322 ; 2.0222297429179698E8 ; 7.696152095957766E8 ; 1.8533617087953045E10 ; 0.0
101 ; 7822445.588903956 ; 2.0223875093002617E8 ; 7.774389161017098E8 ; 1.8735840062244843E10 ; 0.0
102 ; 7815839.141322201 ; 2.0225453445495906E8 ; 7.852613616906137E8 ; 1.893807881317487E10 ; 0.0
103 ; 7812870.009285456 ; 2.0227032351356542E8 ; 7.93077200831936E8 ; 1.914033334762983E10 ; 0.0
104 ; 7809192.2770351 ; 2.0228611678581506E8 ; 8.008900708412215E8 ; 1.9342603671143394E10 ; 0.0
105 ; 7808588.577462606 ; 2.0230191298349836E8 ; 8.086992631182566E8 ; 1.954488978792921E10 ; 0.0
106 ; 7803400.723826328 ; 2.0231771084909382E8 ; 8.165078516957191E8 ; 1.974719170091271E10 ; 0.0
107 ; 7797636.690325351 ; 2.0233350915468007E8 ; 8.243112524195454E8 ; 1.9949509411761803E10 ; 0.0
108 ; 7794838.240742677 ; 2.0234930670089138E8 ; 8.321088891098708E8 ; 2.015184292091648E10 ; 0.0
109 ; 7789693.579057445 ; 2.0236510231591424E8 ; 8.399037273506135E8 ; 2.035419222761737E10 ; 0.0
110 ; 7785787.713792841 ; 2.0238089485452405E8 ; 8.476934209296709E8 ; 2.0556557329933285E10 ; 0.0
111 ; 7780467.671107485 ; 2.0239668319715968E8 ; 8.554792086434637E8 ; 2.0758938224787807E10 ; 0.0
112 ; 7777088.436597282 ; 2.024124662490351E8 ; 8.632596763145713E8 ; 2.0961334907984966E10 ; 0.0
113 ; 7772921.856789546 ; 2.024282429392857E8 ; 8.710367647511685E8 ; 2.1163747374234E10 ; 0.0
114 ; 7769745.217348811 ; 2.0244401222014868E8 ; 8.788096866079581E8 ; 2.1366175617173286E10 ; 0.0
115 ; 7766644.999173604 ; 2.0245977306617588E8 ; 8.865794318253069E8 ; 2.1568619629393436E10 ; 0.0
116 ; 7759857.066334783 ; 2.0247552447347742E8 ; 8.943460768244805E8 ; 2.1771079402459614E10 ; 0.0
117 ; 7754432.825944745 ; 2.024912654589953E8 ; 9.021059338908153E8 ; 2.197355492693309E10 ; 0.0
118 ; 7750367.414339318 ; 2.0250699505980557E8 ; 9.0986036671676E8 ; 2.2176046192392086E10 ; 0.0
119 ; 7745731.392522779 ; 2.0252271233244786E8 ; 9.176107341310993E8 ; 2.2378553187451893E10 ; 0.0
120 ; 7743769.477647151 ; 2.025384163522812E8 ; 9.253564655236222E8 ; 2.258107589978434E10 ; 0.0
121 ; 7737244.138264241 ; 2.0255410621286505E8 ; 9.331002350012693E8 ; 2.278361431613662E10 ; 0.0
122 ; 7731796.271279666 ; 2.0256978102536452E8 ; 9.408374791395336E8 ; 2.2986168422349483E10 ; 0.0
123 ; 7723124.208598491 ; 2.025854399179786E8 ; 9.485692754108133E8 ; 2.3188738203374847E10 ; 0.0
124 ; 7718809.19038972 ; 2.026010820353909E8 ; 9.562923996194118E8 ; 2.3391323643292828E10 ; 0.0
125 ; 7713473.709078484 ; 2.026167065382413E8 ; 9.640112088098016E8 ; 2.359392472532822E10 ; 0.0
126 ; 7710572.783788917 ; 2.0263231260261837E8 ; 9.7172468251888E8 ; 2.3796541431866463E10 ; 0.0
127 ; 7702921.926527355 ; 2.0264789941957113E8 ; 9.794352553026689E8 ; 2.399917374446908E10 ; 0.0
128 ; 7700702.638109035 ; 2.0266346619463977E8 ; 9.871381772291963E8 ; 2.4201821643888653E10 ; 0.0
129 ; 7695427.83677001 ; 2.0267901214740416E8 ; 9.948388798673054E8 ; 2.4404485110083294E10 ; 0.0
130 ; 7686149.797350493 ; 2.026945365110498E8 ; 1.0025343077040755E9 ; 2.4607164122230698E10 ; 0.0
131 ; 7679189.003330615 ; 2.0271003853195027E8 ; 1.010220457501426E9 ; 2.480985865874175E10 ; 0.0
132 ; 7671589.865880035 ; 2.0272551746926546E8 ; 1.0178996465047566E9 ; 2.50125686972737E10 ; 0.0
133 ; 7660372.09341496 ; 2.027409725945553E8 ; 1.0255712363706366E9 ; 2.5215294214742966E10 ; 0.0
134 ; 7654733.089299059 ; 2.0275640319140765E8 ; 1.0332316084640515E9 ; 2.541803518733752E10 ; 0.0
135 ; 7645209.855683953 ; 2.0277180855508077E8 ; 1.0408863415533506E9 ; 2.5620791590528927E10 ; 0.0
136 ; 7639037.560684473 ; 2.0278718799215865E8 ; 1.0485315514090345E9 ; 2.5823563399084007E10 ; 0.0
137 ; 7631073.058454373 ; 2.028025408202197E8 ; 1.0561705889697189E9 ; 2.6026350587076164E10 ; 0.0
138 ; 7620706.033447611 ; 2.028178663675175E8 ; 1.0638016620281733E9 ; 2.6229153127896385E10 ; 0.0
139 ; 7612139.604061076 ; 2.028331639726737E8 ; 1.071422368061621E9 ; 2.6431970994263905E10 ; 0.0
140 ; 7602775.933149145 ; 2.0284843298438203E8 ; 1.079034507665682E9 ; 2.663480415823658E10 ; 0.0
141 ; 7596407.350140935 ; 2.0286367276112348E8 ; 1.0866372835988312E9 ; 2.6837652591220963E10 ; 0.0
142 ; 7586947.8099021185 ; 2.028788826708918E8 ; 1.0942336909489722E9 ; 2.7040516263982086E10 ; 0.0
143 ; 7578109.105962567 ; 2.028940620909293E8 ; 1.1018206387588744E9 ; 2.7243395146652977E10 ; 0.0
144 ; 7567772.103479795 ; 2.0290921040747204E8 ; 1.109398747864837E9 ; 2.7446289208743908E10 ; 0.0
145 ; 7563154.387668186 ; 2.0292432701550463E8 ; 1.1169665199683168E9 ; 2.764919841915138E10 ; 0.0
146 ; 7558723.653394846 ; 2.0293941131852368E8 ; 1.124529674355985E9 ; 2.785212274616688E10 ; 0.0
147 ; 7550292.624613078 ; 2.0295446272830993E8 ; 1.1320883980093799E9 ; 2.8055062157485405E10 ; 0.0
148 ; 7543471.478232624 ; 2.0296948066470873E8 ; 1.139638690633993E9 ; 2.8258016620213715E10 ; 0.0
149 ; 7540839.199802953 ; 2.0298446455541825E8 ; 1.1471821621122255E9 ; 2.846098610087842E10 ; 0.0
150 ; 7532216.5007791575 ; 2.029994138357853E8 ; 1.1547230013120284E9 ; 2.866397056543384E10 ; 0.0
151 ; 7525695.24788169 ; 2.030143279486086E8 ; 1.1622552178128076E9 ; 2.8866969979269627E10 ; 0.0
152 ; 7519060.196059646 ; 2.0302920634394902E8 ; 1.1697809130606892E9 ; 2.9069984307218235E10 ; 0.0
153 ; 7515011.3190920595 ; 2.030440484789464E8 ; 1.177299973256749E9 ; 2.9273013513562183E10 ; 0.0
154 ; 7508248.476466745 ; 2.03058853817643E8 ; 1.184814984575841E9 ; 2.947605756204113E10 ; 0.0
155 ; 7499720.836883084 ; 2.030736218308133E8 ; 1.1923232330523076E9 ; 2.9679116415858772E10 ; 0.0
156 ; 7495853.208461644 ; 2.030883519957995E8 ; 1.1998229538891907E9 ; 2.9882190037689587E10 ; 0.0
157 ; 7488926.58048229 ; 2.0310304379635316E8 ; 1.2073188070976524E9 ; 3.0085278389685387E10 ; 0.0
158 ; 7480220.489209567 ; 2.031176967224819E8 ; 1.2148077336781347E9 ; 3.028838143348174E10 ; 0.0
159 ; 7475867.933231603 ; 2.031323102703019E8 ; 1.2222879541673443E9 ; 3.049149913020422E10 ; 0.0
160 ; 7470001.632377054 ; 2.0314688394189528E8 ; 1.229763822100576E9 ; 3.069463144047452E10 ; 0.0
161 ; 7462152.701075661 ; 2.0316141724517247E8 ; 1.237233823732953E9 ; 3.0897778324416416E10 ; 0.0
162 ; 7455989.497062164 ; 2.0317590969373938E8 ; 1.2446959764340286E9 ; 3.1100939741661587E10 ; 0.0
163 ; 7453616.802475302 ; 2.0319036080676907E8 ; 1.2521519659310908E9 ; 3.1304115651355328E10 ; 0.0
164 ; 7444467.617241665 ; 2.0320477010887784E8 ; 1.259605582733566E9 ; 3.1507306012162098E10 ; 0.0
165 ; 7436209.605384528 ; 2.0321913713000557E8 ; 1.2670500503508077E9 ; 3.1710510782270977E10 ; 0.0
166 ; 7431687.338360965 ; 2.0323346140530026E8 ; 1.2744862599561923E9 ; 3.191372991940098E10 ; 0.0
167 ; 7425034.156248943 ; 2.032477424750062E8 ; 1.2819179472945533E9 ; 3.2116963380806282E10 ; 0.0
168 ; 7417660.124598978 ; 2.0326197988435623E8 ; 1.2893429814508023E9 ; 3.232021112328129E10 ; 0.0
169 ; 7412897.555169499 ; 2.0327617318346748E8 ; 1.2967606415754013E9 ; 3.2523473103165646E10 ; 0.0
170 ; 7403530.13601589 ; 2.032903219272407E8 ; 1.304173539130571E9 ; 3.2726749276349113E10 ; 0.0
171 ; 7398038.298073463 ; 2.0330442567526287E8 ; 1.3115770692665868E9 ; 3.2930039598276356E10 ; 0.0
172 ; 7390727.387799287 ; 2.033184839917132E8 ; 1.3189751075646603E9 ; 3.313334402395162E10 ; 0.0
173 ; 7383577.053829357 ; 2.033324964452722E8 ; 1.3263658349524596E9 ; 3.3336662507943333E10 ; 0.0
174 ; 7380436.260768972 ; 2.0334646260903376E8 ; 1.333749412006289E9 ; 3.3539995004388603E10 ; 0.0
175 ; 7374167.329442634 ; 2.0336038206042027E8 ; 1.341129848267058E9 ; 3.374334146699764E10 ; 0.0
176 ; 7373308.483911725 ; 2.0337425438110033E8 ; 1.3485040155965006E9 ; 3.394670184905806E10 ; 0.0
177 ; 7367124.55768257 ; 2.0338807915690932E8 ; 1.3558773240804124E9 ; 3.415007610343916E10 ; 0.0
178 ; 7360650.872893229 ; 2.0340185597777274E8 ; 1.363244448638095E9 ; 3.435346418259607E10 ; 0.0
179 ; 7361508.029046605 ; 2.034155844376318E8 ; 1.3706050995109882E9 ; 3.4556866038573845E10 ; 0.0
180 ; 7355614.319684425 ; 2.0342926413437143E8 ; 1.3779666075400348E9 ; 3.4760281623011475E10 ; 0.0
181 ; 7353097.089218064 ; 2.0344289466975102E8 ; 1.3853222218597193E9 ; 3.496371088714584E10 ; 0.0
182 ; 7348522.289255392 ; 2.03456475649337E8 ; 1.3926753189489374E9 ; 3.51671537818156E10 ; 0.0
183 ; 7343746.5154679995 ; 2.0347000668243784E8 ; 1.4000238412381928E9 ; 3.5370610257464935E10 ; 0.0
184 ; 7337898.224735396 ; 2.0348348738204104E8 ; 1.4073675877536607E9 ; 3.557408026414737E10 ; 0.0
185 ; 7336526.570948516 ; 2.0349691736475235E8 ; 1.4147054859783962E9 ; 3.577756375152941E10 ; 0.0
186 ; 7328506.072021257 ; 2.035102962507367E8 ; 1.4220420125493448E9 ; 3.5981060668894165E10 ; 0.0
187 ; 7326787.194395936 ; 2.0352362366366118E8 ; 1.429370518621366E9 ; 3.6184570965144905E10 ; 0.0
188 ; 7319829.281296371 ; 2.0353689923063993E8 ; 1.436697305815762E9 ; 3.638809458880856E10 ; 0.0
189 ; 7319009.337836907 ; 2.0355012258218056E8 ; 1.4440171350970583E9 ; 3.65916314880392E10 ; 0.0
190 ; 7313495.415412973 ; 2.035632933521325E8 ; 1.4513361444348953E9 ; 3.679518161062138E10 ; 0.0
191 ; 7310257.400234542 ; 2.0357641117763692E8 ; 1.4586496398503082E9 ; 3.699874490397352E10 ; 0.0
192 ; 7305695.850231689 ; 2.0358947569907832E8 ; 1.4659598972505426E9 ; 3.720232131515115E10 ; 0.0
193 ; 7302293.546092968 ; 2.0360248656003743E8 ; 1.4732655931007743E9 ; 3.7405910790850235E10 ; 0.0
194 ; 7298900.761758203 ; 2.0361544340724587E8 ; 1.4805678866468673E9 ; 3.760951327741027E10 ; 0.0
195 ; 7290686.479023038 ; 2.0362834589054218E8 ; 1.4878667874086254E9 ; 3.781312872081752E10 ; 0.0
196 ; 7290143.955636843 ; 2.0364119366282916E8 ; 1.4951574738876483E9 ; 3.801675706670806E10 ; 0.0
197 ; 7283793.494499317 ; 2.0365398638003254E8 ; 1.502447617843285E9 ; 3.822039826037089E10 ; 0.0
198 ; 7278635.872808661 ; 2.0366672370106113E8 ; 1.5097314113377843E9 ; 3.842405224675092E10 ; 0.0
199 ; 7273193.385967168 ; 2.0367940528776807E8 ; 1.517010047210593E9 ; 3.862771897045198E10 ; 0.0
200 ; 7271755.590147221 ; 1.8599339078965622E8 ; 1.5242832405965602E9 ; 3.8831398375739746E10 ; 0.0
201 ; 7266239.570948384 ; 1.5486460670127133E8 ; 1.5315549961867075E9 ; 3.90173917665294E10 ; 0.0
