CSV File for the City 2 on Day 21
1 - Minute m 
2 - Power Consumed at minute m 
3 - Power Produced at minute m 
4 - Energy Consumed since the beginning of the day 
5 - Energy Produced since the beginning of the day 
6 - Energy Lost since the beginning of the day on lines starting from the city
 
0 ; 1.0281728536630262E7 ; 1.2202874558995446E7 ; 0.0 ; 0.0 ; 0.0
1 ; 1.029397688100003E7 ; 1.2202874558995446E7 ; 1.0281728536630262E7 ; 1.2202874558995446E7 ; 0.0
2 ; 1.030405857605306E7 ; 1.2202874558995446E7 ; 2.0575705417630292E7 ; 2.4405749117990892E7 ; 0.0
3 ; 1.0315775553138439E7 ; 1.2202874558995446E7 ; 3.0879763993683353E7 ; 3.660862367698634E7 ; 0.0
4 ; 1.0334575580981623E7 ; 1.2202874558995446E7 ; 4.119553954682179E7 ; 4.8811498235981785E7 ; 0.0
5 ; 1.0351215895708164E7 ; 1.2202874558995446E7 ; 5.1530115127803415E7 ; 6.101437279497723E7 ; 0.0
6 ; 1.0373953934759874E7 ; 1.2202874558995446E7 ; 6.188133102351158E7 ; 7.321724735397267E7 ; 0.0
7 ; 1.0408860963807547E7 ; 1.2202874558995446E7 ; 7.225528495827146E7 ; 8.542012191296811E7 ; 0.0
8 ; 1.0459802847178668E7 ; 1.2202874558995446E7 ; 8.266414592207901E7 ; 9.762299647196355E7 ; 0.0
9 ; 1.0538717222019646E7 ; 1.2202874558995446E7 ; 9.312394876925768E7 ; 1.09825871030959E8 ; 0.0
10 ; 1.0650661746669825E7 ; 1.2202874558995446E7 ; 1.0366266599127732E8 ; 1.2202874558995444E8 ; 0.0
11 ; 1.0838176482775062E7 ; 1.2202874558995446E7 ; 1.1431332773794715E8 ; 1.342316201489499E8 ; 0.0
12 ; 1.1140592588840313E7 ; 1.2202874558995446E7 ; 1.2515150422072221E8 ; 1.4643449470794535E8 ; 0.0
13 ; 1.143219321691368E7 ; 1.2202874558995446E7 ; 1.3629209680956253E8 ; 1.586373692669408E8 ; 0.0
14 ; 1.1461356563868653E7 ; 1.2202874558995446E7 ; 1.477242900264762E8 ; 1.7084024382593626E8 ; 0.0
15 ; 1.1476580939301282E7 ; 1.2202874558995446E7 ; 1.5918564659034485E8 ; 1.830431183849317E8 ; 0.0
16 ; 1.1494244291153643E7 ; 1.2202874558995446E7 ; 1.7066222752964613E8 ; 1.9524599294392717E8 ; 0.0
17 ; 1.1507461241240961E7 ; 1.2202874558995446E7 ; 1.8215647182079977E8 ; 2.0744886750292262E8 ; 0.0
18 ; 1.1517599700178044E7 ; 1.2202874558995446E7 ; 1.9366393306204072E8 ; 2.1965174206191808E8 ; 0.0
19 ; 1.1533285182447137E7 ; 1.2202874558995446E7 ; 2.0518153276221877E8 ; 2.3185461662091354E8 ; 0.0
20 ; 1.1546370825342651E7 ; 1.2202874558995446E7 ; 2.167148179446659E8 ; 2.44057491179909E8 ; 0.0
21 ; 1.155685187216783E7 ; 1.2202874558995446E7 ; 2.2826118877000856E8 ; 2.5626036573890445E8 ; 0.0
22 ; 1.157062417009564E7 ; 1.2202874558995446E7 ; 2.398180406421764E8 ; 2.684632402978999E8 ; 0.0
23 ; 1.158744140187176E7 ; 1.2202874558995446E7 ; 2.5138866481227204E8 ; 2.806661148568953E8 ; 0.0
24 ; 1.1599438035991715E7 ; 1.2202874558995446E7 ; 2.629761062141438E8 ; 2.9286898941589075E8 ; 0.0
25 ; 1.160964902379542E7 ; 1.2202874558995446E7 ; 2.7457554425013554E8 ; 3.050718639748862E8 ; 0.0
26 ; 1.1623561905030046E7 ; 1.2202874558995446E7 ; 2.8618519327393097E8 ; 3.172747385338816E8 ; 0.0
27 ; 1.1638186384715151E7 ; 1.2202874558995446E7 ; 2.9780875517896104E8 ; 3.2947761309287703E8 ; 0.0
28 ; 1.1651960436305638E7 ; 1.2202874558995446E7 ; 3.094469415636762E8 ; 3.4168048765187246E8 ; 0.0
29 ; 1.1661597228852978E7 ; 1.2202874558995446E7 ; 3.210989019999818E8 ; 3.538833622108679E8 ; 0.0
30 ; 1.167565863227273E7 ; 1.2202874558995446E7 ; 3.327604992288348E8 ; 3.660862367698633E8 ; 0.0
31 ; 1.1687943925609488E7 ; 1.2202874558995446E7 ; 3.444361578611075E8 ; 3.7828911132885873E8 ; 0.0
32 ; 1.1701549447850639E7 ; 1.2202874558995446E7 ; 3.56124101786717E8 ; 3.9049198588785416E8 ; 0.0
33 ; 1.1712633566825466E7 ; 1.2202874558995446E7 ; 3.6782565123456764E8 ; 4.026948604468496E8 ; 0.0
34 ; 1.172256864400485E7 ; 1.2202874558995446E7 ; 3.795382848013931E8 ; 4.14897735005845E8 ; 0.0
35 ; 1.173221938036614E7 ; 1.2202874558995446E7 ; 3.912608534453979E8 ; 4.2710060956484044E8 ; 0.0
36 ; 1.1743537693329971E7 ; 1.2202874558995446E7 ; 4.0299307282576406E8 ; 4.3930348412383586E8 ; 0.0
37 ; 1.1755252447676305E7 ; 1.2202874558995446E7 ; 4.1473661051909405E8 ; 4.515063586828313E8 ; 0.0
38 ; 1.1764261273477374E7 ; 1.2202874558995446E7 ; 4.2649186296677035E8 ; 4.637092332418267E8 ; 0.0
39 ; 1.1775417069460081E7 ; 1.2202874558995446E7 ; 4.382561242402477E8 ; 4.7591210780082214E8 ; 0.0
40 ; 1.1785069263358567E7 ; 1.2202874558995446E7 ; 4.500315413097078E8 ; 4.8811498235981756E8 ; 0.0
41 ; 1.1790932826362606E7 ; 1.2202874558995446E7 ; 4.618166105730664E8 ; 5.00317856918813E8 ; 0.0
42 ; 1.1798657863072937E7 ; 1.2202874558995446E7 ; 4.73607543399429E8 ; 5.125207314778084E8 ; 0.0
43 ; 1.1807238408251828E7 ; 1.2202874558995446E7 ; 4.8540620126250196E8 ; 5.2472360603680384E8 ; 0.0
44 ; 1.1812300918909095E7 ; 1.2202874558995446E7 ; 4.972134396707538E8 ; 5.369264805957993E8 ; 0.0
45 ; 1.1819591866196644E7 ; 1.2202874558995446E7 ; 5.0902574058966285E8 ; 5.491293551547948E8 ; 0.0
46 ; 1.1824820935954066E7 ; 1.2202874558995446E7 ; 5.208453324558595E8 ; 5.613322297137903E8 ; 0.0
47 ; 1.1831863608593699E7 ; 1.2202874558995446E7 ; 5.326701533918136E8 ; 5.735351042727858E8 ; 0.0
48 ; 1.1835091150520109E7 ; 1.2202874558995446E7 ; 5.445020170004072E8 ; 5.857379788317813E8 ; 0.0
49 ; 1.1839731956320664E7 ; 1.2202874558995446E7 ; 5.563371081509273E8 ; 5.979408533907768E8 ; 0.0
50 ; 1.1841665647512639E7 ; 1.2202874558995446E7 ; 5.68176840107248E8 ; 6.101437279497722E8 ; 0.0
51 ; 1.1845842887566352E7 ; 1.2202874558995446E7 ; 5.800185057547606E8 ; 6.223466025087677E8 ; 0.0
52 ; 1.1849974739663398E7 ; 1.2202874558995446E7 ; 5.91864348642327E8 ; 6.345494770677632E8 ; 0.0
53 ; 1.1853724652507538E7 ; 1.2202874558995446E7 ; 6.037143233819903E8 ; 6.467523516267587E8 ; 0.0
54 ; 1.1856615150413578E7 ; 1.2202874558995446E7 ; 6.155680480344979E8 ; 6.589552261857542E8 ; 0.0
55 ; 1.1859628753883822E7 ; 1.2202874558995446E7 ; 6.274246631849115E8 ; 6.711581007447497E8 ; 0.0
56 ; 1.1862918624185162E7 ; 1.2202874558995446E7 ; 6.392842919387953E8 ; 6.833609753037452E8 ; 0.0
57 ; 1.186357668292342E7 ; 1.2202874558995446E7 ; 6.511472105629805E8 ; 6.955638498627406E8 ; 0.0
58 ; 1.1867481580570579E7 ; 1.2202874558995446E7 ; 6.63010787245904E8 ; 7.077667244217361E8 ; 0.0
59 ; 1.1866263005668016E7 ; 1.2202874558995446E7 ; 6.748782688264745E8 ; 7.199695989807316E8 ; 0.0
60 ; 1.1870190287194815E7 ; 1.2202874558995446E7 ; 6.867445318321426E8 ; 7.321724735397271E8 ; 0.0
61 ; 1.187064726743302E7 ; 1.2202874558995446E7 ; 6.986147221193374E8 ; 7.443753480987226E8 ; 0.0
62 ; 1.1874940173461728E7 ; 1.2202874558995446E7 ; 7.104853693867705E8 ; 7.565782226577181E8 ; 0.0
63 ; 1.1876039634324027E7 ; 1.2202874558995446E7 ; 7.223603095602322E8 ; 7.687810972167135E8 ; 0.0
64 ; 1.18813800740161E7 ; 1.2202874558995446E7 ; 7.342363491945562E8 ; 7.80983971775709E8 ; 0.0
65 ; 1.1880065125733776E7 ; 1.2202874558995446E7 ; 7.461177292685723E8 ; 7.931868463347045E8 ; 0.0
66 ; 1.188592011048514E7 ; 1.2202874558995446E7 ; 7.579977943943061E8 ; 8.053897208937E8 ; 0.0
67 ; 1.188351121841298E7 ; 1.2202874558995446E7 ; 7.698837145047913E8 ; 8.175925954526955E8 ; 0.0
68 ; 1.1884617071406867E7 ; 1.2202874558995446E7 ; 7.817672257232043E8 ; 8.29795470011691E8 ; 0.0
69 ; 1.1886230257008584E7 ; 1.2202874558995446E7 ; 7.936518427946111E8 ; 8.419983445706865E8 ; 0.0
70 ; 1.1885818008583402E7 ; 1.2202874558995446E7 ; 8.055380730516196E8 ; 8.54201219129682E8 ; 0.0
71 ; 1.1887604887238331E7 ; 1.2202874558995446E7 ; 8.174238910602031E8 ; 8.664040936886774E8 ; 0.0
72 ; 1.1888018399923714E7 ; 1.2202874558995446E7 ; 8.293114959474415E8 ; 8.786069682476729E8 ; 0.0
73 ; 1.1889688615176702E7 ; 1.2202874558995446E7 ; 8.411995143473651E8 ; 8.908098428066684E8 ; 0.0
74 ; 1.1890852032820836E7 ; 1.2202874558995446E7 ; 8.530892029625418E8 ; 9.030127173656639E8 ; 0.0
75 ; 1.1890450974235596E7 ; 1.2202874558995446E7 ; 8.649800549953626E8 ; 9.152155919246594E8 ; 0.0
76 ; 1.1889054012063755E7 ; 1.2202874558995446E7 ; 8.768705059695983E8 ; 9.274184664836549E8 ; 0.0
77 ; 1.1890843703099806E7 ; 1.2202874558995446E7 ; 8.88759559981662E8 ; 9.396213410426503E8 ; 0.0
78 ; 1.1886449010483593E7 ; 1.2202874558995446E7 ; 9.006504036847619E8 ; 9.518242156016458E8 ; 0.0
79 ; 1.1888493099076271E7 ; 1.2202874558995446E7 ; 9.125368526952455E8 ; 9.640270901606413E8 ; 0.0
80 ; 1.1880776545336885E7 ; 1.2202874558995446E7 ; 9.244253457943218E8 ; 9.762299647196368E8 ; 0.0
81 ; 1.1877197548208227E7 ; 1.2202874558995446E7 ; 9.363061223396586E8 ; 9.884328392786323E8 ; 0.0
82 ; 1.1873247854118107E7 ; 1.2202874558995446E7 ; 9.481833198878669E8 ; 1.0006357138376278E9 ; 0.0
83 ; 1.1869842021902654E7 ; 1.2202874558995446E7 ; 9.60056567741985E8 ; 1.0128385883966233E9 ; 0.0
84 ; 1.1864377176934028E7 ; 1.2202874558995446E7 ; 9.719264097638876E8 ; 1.0250414629556187E9 ; 0.0
85 ; 1.1861725023033172E7 ; 1.2202874558995446E7 ; 9.837907869408216E8 ; 1.0372443375146142E9 ; 0.0
86 ; 1.185829284559614E7 ; 1.2202874558995446E7 ; 9.956525119638548E8 ; 1.0494472120736097E9 ; 0.0
87 ; 1.1854046443820886E7 ; 1.2202874558995446E7 ; 1.007510804809451E9 ; 1.0616500866326052E9 ; 0.0
88 ; 1.184758313916595E7 ; 1.2202874558995446E7 ; 1.0193648512532718E9 ; 1.0738529611916006E9 ; 0.0
89 ; 1.18458871542352E7 ; 1.2202874558995446E7 ; 1.0312124343924378E9 ; 1.086055835750596E9 ; 0.0
90 ; 1.1839509774304349E7 ; 1.2202874558995446E7 ; 1.043058321546673E9 ; 1.0982587103095915E9 ; 0.0
91 ; 1.1832108214472273E7 ; 1.2202874558995446E7 ; 1.0548978313209774E9 ; 1.110461584868587E9 ; 0.0
92 ; 1.1830797581812095E7 ; 1.2202874558995446E7 ; 1.0667299395354497E9 ; 1.1226644594275825E9 ; 0.0
93 ; 1.1826839790359743E7 ; 1.2202874558995446E7 ; 1.078560737117262E9 ; 1.134867333986578E9 ; 0.0
94 ; 1.1820830966077719E7 ; 1.2202874558995446E7 ; 1.0903875769076216E9 ; 1.1470702085455735E9 ; 0.0
95 ; 1.181470311367183E7 ; 1.2202874558995446E7 ; 1.1022084078736994E9 ; 1.159273083104569E9 ; 0.0
96 ; 1.1810847152738793E7 ; 1.2202874558995446E7 ; 1.1140231109873712E9 ; 1.1714759576635644E9 ; 0.0
97 ; 1.1805324342539633E7 ; 1.2202874558995446E7 ; 1.12583395814011E9 ; 1.18367883222256E9 ; 0.0
98 ; 1.1800760763252879E7 ; 1.2202874558995446E7 ; 1.1376392824826496E9 ; 1.1958817067815554E9 ; 0.0
99 ; 1.179113927649896E7 ; 1.2202874558995446E7 ; 1.1494400432459025E9 ; 1.208084581340551E9 ; 0.0
100 ; 1.1786699557686279E7 ; 1.2202874558995446E7 ; 1.1612311825224016E9 ; 1.2202874558995464E9 ; 0.0
101 ; 1.1781874512538722E7 ; 1.2202874558995446E7 ; 1.173017882080088E9 ; 1.2324903304585419E9 ; 0.0
102 ; 1.177534080261604E7 ; 1.2202874558995446E7 ; 1.1847997565926266E9 ; 1.2446932050175374E9 ; 0.0
103 ; 1.1767086261371477E7 ; 1.2202874558995446E7 ; 1.1965750973952427E9 ; 1.2568960795765328E9 ; 0.0
104 ; 1.1764043679149251E7 ; 1.2202874558995446E7 ; 1.208342183656614E9 ; 1.2690989541355283E9 ; 0.0
105 ; 1.1756749525111148E7 ; 1.2202874558995446E7 ; 1.2201062273357632E9 ; 1.2813018286945238E9 ; 0.0
106 ; 1.1752000695269998E7 ; 1.2202874558995446E7 ; 1.2318629768608744E9 ; 1.2935047032535193E9 ; 0.0
107 ; 1.1741637246603757E7 ; 1.2202874558995446E7 ; 1.2436149775561445E9 ; 1.3057075778125148E9 ; 0.0
108 ; 1.173686071207451E7 ; 1.2202874558995446E7 ; 1.2553566148027482E9 ; 1.3179104523715103E9 ; 0.0
109 ; 1.1729209340869572E7 ; 1.2202874558995446E7 ; 1.2670934755148227E9 ; 1.3301133269305058E9 ; 0.0
110 ; 1.1725096018210268E7 ; 1.2202874558995446E7 ; 1.2788226848556924E9 ; 1.3423162014895012E9 ; 0.0
111 ; 1.1715900390360555E7 ; 1.2202874558995446E7 ; 1.2905477808739026E9 ; 1.3545190760484967E9 ; 0.0
112 ; 1.1710858395154389E7 ; 1.2202874558995446E7 ; 1.3022636812642632E9 ; 1.3667219506074922E9 ; 0.0
113 ; 1.1702806725932512E7 ; 1.2202874558995446E7 ; 1.3139745396594176E9 ; 1.3789248251664877E9 ; 0.0
114 ; 1.1692972088541998E7 ; 1.2202874558995446E7 ; 1.3256773463853502E9 ; 1.3911276997254832E9 ; 0.0
115 ; 1.1685625925409595E7 ; 1.2202874558995446E7 ; 1.3373703184738922E9 ; 1.4033305742844787E9 ; 0.0
116 ; 1.1677959615023172E7 ; 1.2202874558995446E7 ; 1.3490559443993018E9 ; 1.4155334488434741E9 ; 0.0
117 ; 1.1670450680977711E7 ; 1.2202874558995446E7 ; 1.360733904014325E9 ; 1.4277363234024696E9 ; 0.0
118 ; 1.1661216412548315E7 ; 1.2202874558995446E7 ; 1.3724043546953027E9 ; 1.4399391979614651E9 ; 0.0
119 ; 1.165236282536711E7 ; 1.2202874558995446E7 ; 1.384065571107851E9 ; 1.4521420725204606E9 ; 0.0
120 ; 1.1647307321366698E7 ; 1.2202874558995446E7 ; 1.3957179339332182E9 ; 1.464344947079456E9 ; 0.0
121 ; 1.1640245466602735E7 ; 1.2202874558995446E7 ; 1.407365241254585E9 ; 1.4765478216384516E9 ; 0.0
122 ; 1.162661819285415E7 ; 1.2202874558995446E7 ; 1.4190054867211878E9 ; 1.488750696197447E9 ; 0.0
123 ; 1.1619826198747268E7 ; 1.2202874558995446E7 ; 1.430632104914042E9 ; 1.5009535707564425E9 ; 0.0
124 ; 1.1612898991545735E7 ; 1.2202874558995446E7 ; 1.4422519311127892E9 ; 1.513156445315438E9 ; 0.0
125 ; 1.1602383091708474E7 ; 1.2202874558995446E7 ; 1.4538648301043348E9 ; 1.5253593198744335E9 ; 0.0
126 ; 1.1597185604935855E7 ; 1.2202874558995446E7 ; 1.4654672131960433E9 ; 1.537562194433429E9 ; 0.0
127 ; 1.158900254433113E7 ; 1.2202874558995446E7 ; 1.4770643988009791E9 ; 1.5497650689924245E9 ; 0.0
128 ; 1.1577649666514061E7 ; 1.2202874558995446E7 ; 1.4886534013453102E9 ; 1.56196794355142E9 ; 0.0
129 ; 1.1569414140183091E7 ; 1.2202874558995446E7 ; 1.5002310510118244E9 ; 1.5741708181104155E9 ; 0.0
130 ; 1.155772536509348E7 ; 1.2202874558995446E7 ; 1.5118004651520076E9 ; 1.586373692669411E9 ; 0.0
131 ; 1.1541228427608512E7 ; 1.2202874558995446E7 ; 1.523358190517101E9 ; 1.5985765672284064E9 ; 0.0
132 ; 1.1530509943445468E7 ; 1.2202874558995446E7 ; 1.5348994189447095E9 ; 1.610779441787402E9 ; 0.0
133 ; 1.1515878102804128E7 ; 1.2202874558995446E7 ; 1.546429928888155E9 ; 1.6229823163463974E9 ; 0.0
134 ; 1.1501967390007876E7 ; 1.2202874558995446E7 ; 1.5579458069909592E9 ; 1.635185190905393E9 ; 0.0
135 ; 1.1490996409699867E7 ; 1.2202874558995446E7 ; 1.5694477743809671E9 ; 1.6473880654643884E9 ; 0.0
136 ; 1.1474511575492011E7 ; 1.2202874558995446E7 ; 1.580938770790667E9 ; 1.6595909400233839E9 ; 0.0
137 ; 1.1462714418378802E7 ; 1.2202874558995446E7 ; 1.592413282366159E9 ; 1.6717938145823793E9 ; 0.0
138 ; 1.1448505831710406E7 ; 1.2202874558995446E7 ; 1.6038759967845378E9 ; 1.6839966891413748E9 ; 0.0
139 ; 1.143978752322405E7 ; 1.2202874558995446E7 ; 1.6153245026162481E9 ; 1.6961995637003703E9 ; 0.0
140 ; 1.1419791118265819E7 ; 1.2202874558995446E7 ; 1.6267642901394722E9 ; 1.7084024382593658E9 ; 0.0
141 ; 1.14070120570018E7 ; 1.2202874558995446E7 ; 1.638184081257738E9 ; 1.7206053128183613E9 ; 0.0
142 ; 1.1394856180331988E7 ; 1.2202874558995446E7 ; 1.64959109331474E9 ; 1.7328081873773568E9 ; 0.0
143 ; 1.137745539237986E7 ; 1.2202874558995446E7 ; 1.660985949495072E9 ; 1.7450110619363523E9 ; 0.0
144 ; 1.1363599130726092E7 ; 1.2202874558995446E7 ; 1.6723634048874516E9 ; 1.7572139364953477E9 ; 0.0
145 ; 1.1357333364812799E7 ; 1.2202874558995446E7 ; 1.6837270040181777E9 ; 1.7694168110543432E9 ; 0.0
146 ; 1.1342998041013232E7 ; 1.2202874558995446E7 ; 1.6950843373829906E9 ; 1.7816196856133387E9 ; 0.0
147 ; 1.1333138328240555E7 ; 1.2202874558995446E7 ; 1.7064273354240038E9 ; 1.7938225601723342E9 ; 0.0
148 ; 1.1322006356220363E7 ; 1.2202874558995446E7 ; 1.7177604737522445E9 ; 1.8060254347313297E9 ; 0.0
149 ; 1.1311026021598924E7 ; 1.2202874558995446E7 ; 1.7290824801084647E9 ; 1.8182283092903252E9 ; 0.0
150 ; 1.1302040572636202E7 ; 1.2202874558995446E7 ; 1.7403935061300635E9 ; 1.8304311838493207E9 ; 0.0
151 ; 1.129311536278542E7 ; 1.2202874558995446E7 ; 1.7516955467026997E9 ; 1.8426340584083161E9 ; 0.0
152 ; 1.1282350240128038E7 ; 1.2202874558995446E7 ; 1.762988662065485E9 ; 1.8548369329673116E9 ; 0.0
153 ; 1.1269971242066922E7 ; 1.2202874558995446E7 ; 1.774271012305613E9 ; 1.867039807526307E9 ; 0.0
154 ; 1.1263787534811512E7 ; 1.2202874558995446E7 ; 1.78554098354768E9 ; 1.8792426820853026E9 ; 0.0
155 ; 1.125009964851087E7 ; 1.2202874558995446E7 ; 1.7968047710824914E9 ; 1.891445556644298E9 ; 0.0
156 ; 1.12442907997234E7 ; 1.2202874558995446E7 ; 1.8080548707310023E9 ; 1.9036484312032936E9 ; 0.0
157 ; 1.1228259786431488E7 ; 1.2202874558995446E7 ; 1.8192991615307257E9 ; 1.915851305762289E9 ; 0.0
158 ; 1.122196260524157E7 ; 1.2202874558995446E7 ; 1.8305274213171573E9 ; 1.9280541803212845E9 ; 0.0
159 ; 1.1208085911726572E7 ; 1.2202874558995446E7 ; 1.8417493839223988E9 ; 1.94025705488028E9 ; 0.0
160 ; 1.1198494989766669E7 ; 1.2202874558995446E7 ; 1.8529574698341253E9 ; 1.9524599294392755E9 ; 0.0
161 ; 1.1188582727143621E7 ; 1.2202874558995446E7 ; 1.8641559648238919E9 ; 1.964662803998271E9 ; 0.0
162 ; 1.11771112451182E7 ; 1.2202874558995446E7 ; 1.8753445475510354E9 ; 1.9768656785572665E9 ; 0.0
163 ; 1.1167689893512225E7 ; 1.2202874558995446E7 ; 1.8865216587961535E9 ; 1.989068553116262E9 ; 0.0
164 ; 1.1157628124104697E7 ; 1.2202874558995446E7 ; 1.8976893486896658E9 ; 2.0012714276752574E9 ; 0.0
165 ; 1.1141548814729922E7 ; 1.2202874558995446E7 ; 1.9088469768137705E9 ; 2.013474302234253E9 ; 0.0
166 ; 1.113434158376948E7 ; 1.2202874558995446E7 ; 1.9199885256285005E9 ; 2.0256771767932484E9 ; 0.0
167 ; 1.112341060389574E7 ; 1.2202874558995446E7 ; 1.93112286721227E9 ; 2.037880051352244E9 ; 0.0
168 ; 1.110918479870391E7 ; 1.2202874558995446E7 ; 1.9422462778161657E9 ; 2.0500829259112394E9 ; 0.0
169 ; 1.1100036580677886E7 ; 1.2202874558995446E7 ; 1.9533554626148696E9 ; 2.0622858004702349E9 ; 0.0
170 ; 1.1085803246395886E7 ; 1.2202874558995446E7 ; 1.9644554991955476E9 ; 2.0744886750292304E9 ; 0.0
171 ; 1.107752771998692E7 ; 1.2202874558995446E7 ; 1.9755413024419434E9 ; 2.0866915495882258E9 ; 0.0
172 ; 1.1067937429747174E7 ; 1.2202874558995446E7 ; 1.9866188301619303E9 ; 2.0988944241472213E9 ; 0.0
173 ; 1.1055525378486471E7 ; 1.2202874558995446E7 ; 1.9976867675916774E9 ; 2.1110972987062168E9 ; 0.0
174 ; 1.104935229968842E7 ; 1.2202874558995446E7 ; 2.0087422929701638E9 ; 2.1233001732652123E9 ; 0.0
175 ; 1.1042690934206456E7 ; 1.2202874558995446E7 ; 2.0197916452698522E9 ; 2.1355030478242078E9 ; 0.0
176 ; 1.1035381259989196E7 ; 1.2202874558995446E7 ; 2.0308343362040586E9 ; 2.147705922383203E9 ; 0.0
177 ; 1.102555856535445E7 ; 1.2202874558995446E7 ; 2.041869717464048E9 ; 2.1599087969421983E9 ; 0.0
178 ; 1.1021596835141253E7 ; 1.2202874558995446E7 ; 2.0528952760294023E9 ; 2.1721116715011935E9 ; 0.0
179 ; 1.101555574647874E7 ; 1.2202874558995446E7 ; 2.0639168728645434E9 ; 2.184314546060189E9 ; 0.0
180 ; 1.1005764859433621E7 ; 1.2202874558995446E7 ; 2.0749324286110222E9 ; 2.196517420619184E9 ; 0.0
181 ; 1.099833477988743E7 ; 1.2202874558995446E7 ; 2.085938193470456E9 ; 2.2087202951781793E9 ; 0.0
182 ; 1.0992588192988046E7 ; 1.2202874558995446E7 ; 2.0969365282503433E9 ; 2.2209231697371745E9 ; 0.0
183 ; 1.0985831127123564E7 ; 1.2202874558995446E7 ; 2.1079291164433315E9 ; 2.2331260442961698E9 ; 0.0
184 ; 1.097923644749654E7 ; 1.2202874558995446E7 ; 2.118914947570455E9 ; 2.245328918855165E9 ; 0.0
185 ; 1.0972418028509522E7 ; 1.2202874558995446E7 ; 2.1298941840179517E9 ; 2.2575317934141603E9 ; 0.0
186 ; 1.0962561072982145E7 ; 1.2202874558995446E7 ; 2.1408666020464613E9 ; 2.2697346679731555E9 ; 0.0
187 ; 1.095952842706681E7 ; 1.2202874558995446E7 ; 2.1518291631194434E9 ; 2.2819375425321507E9 ; 0.0
188 ; 1.0952525398152344E7 ; 1.2202874558995446E7 ; 2.16278869154651E9 ; 2.294140417091146E9 ; 0.0
189 ; 1.0943800558750018E7 ; 1.2202874558995446E7 ; 2.1737412169446626E9 ; 2.3063432916501412E9 ; 0.0
190 ; 1.0937426628533728E7 ; 1.2202874558995446E7 ; 2.1846850175034127E9 ; 2.3185461662091365E9 ; 0.0
191 ; 1.0930595457906209E7 ; 1.2202874558995446E7 ; 2.1956224441319466E9 ; 2.3307490407681317E9 ; 0.0
192 ; 1.0927338190100227E7 ; 1.2202874558995446E7 ; 2.206553039589853E9 ; 2.342951915327127E9 ; 0.0
193 ; 1.0914268651862942E7 ; 1.2202874558995446E7 ; 2.217480377779953E9 ; 2.355154789886122E9 ; 0.0
194 ; 1.0908854459953228E7 ; 1.2202874558995446E7 ; 2.228394646431816E9 ; 2.3673576644451175E9 ; 0.0
195 ; 1.0905671059747797E7 ; 1.2202874558995446E7 ; 2.2393035008917694E9 ; 2.3795605390041127E9 ; 0.0
196 ; 1.0896691540110085E7 ; 1.2202874558995446E7 ; 2.250209171951517E9 ; 2.391763413563108E9 ; 0.0
