CSV File for the City 1 on Day 21
1 - Minute m 
2 - Power Consumed at minute m 
3 - Power Produced at minute m 
4 - Energy Consumed since the beginning of the day 
5 - Energy Produced since the beginning of the day 
6 - Energy Lost since the beginning of the day on lines starting from the city
 
0 ; 1.1845463013875624E7 ; 1.4055322162858125E7 ; 0.0 ; 0.0 ; 0.0
1 ; 1.1855084382433185E7 ; 1.4055322162858125E7 ; 1.1845463013875624E7 ; 1.4055322162858125E7 ; 0.0
2 ; 1.1868159666674845E7 ; 1.4055322162858125E7 ; 2.370054739630881E7 ; 2.811064432571625E7 ; 0.0
3 ; 1.1883256193228606E7 ; 1.4055322162858125E7 ; 3.5568707062983654E7 ; 4.216596648857437E7 ; 0.0
4 ; 1.1899218602219388E7 ; 1.4055322162858125E7 ; 4.7451963256212264E7 ; 5.62212886514325E7 ; 0.0
5 ; 1.192212127424124E7 ; 1.4055322162858125E7 ; 5.935118185843165E7 ; 7.027661081429063E7 ; 0.0
6 ; 1.1952494978441458E7 ; 1.4055322162858125E7 ; 7.127330313267289E7 ; 8.433193297714876E7 ; 0.0
7 ; 1.1995849818480404E7 ; 1.4055322162858125E7 ; 8.322579811111435E7 ; 9.838725514000688E7 ; 0.0
8 ; 1.2050423271827538E7 ; 1.4055322162858125E7 ; 9.522164792959476E7 ; 1.1244257730286501E8 ; 0.0
9 ; 1.2138467829849944E7 ; 1.4055322162858125E7 ; 1.0727207120142229E8 ; 1.2649789946572314E8 ; 0.0
10 ; 1.2273147357607672E7 ; 1.4055322162858125E7 ; 1.1941053903127223E8 ; 1.4055322162858126E8 ; 0.0
11 ; 1.2487419459026366E7 ; 1.4055322162858125E7 ; 1.3168368638887991E8 ; 1.5460854379143938E8 ; 0.0
12 ; 1.2834595667926563E7 ; 1.4055322162858125E7 ; 1.441711058479063E8 ; 1.686638659542975E8 ; 0.0
13 ; 1.316673193415942E7 ; 1.4055322162858125E7 ; 1.5700570151583284E8 ; 1.8271918811715564E8 ; 0.0
14 ; 1.3209105247903563E7 ; 1.4055322162858125E7 ; 1.7017243344999227E8 ; 1.9677451028001377E8 ; 0.0
15 ; 1.3222139155926047E7 ; 1.4055322162858125E7 ; 1.8338153869789582E8 ; 2.108298324428719E8 ; 0.0
16 ; 1.3236664487406252E7 ; 1.4055322162858125E7 ; 1.9660367785382187E8 ; 2.2488515460573003E8 ; 0.0
17 ; 1.3251556890474044E7 ; 1.4055322162858125E7 ; 2.0984034234122813E8 ; 2.3894047676858816E8 ; 0.0
18 ; 1.3272805064570311E7 ; 1.4055322162858125E7 ; 2.2309189923170218E8 ; 2.5299579893144628E8 ; 0.0
19 ; 1.3283612206391994E7 ; 1.4055322162858125E7 ; 2.363647042962725E8 ; 2.670511210943044E8 ; 0.0
20 ; 1.3301391215911575E7 ; 1.4055322162858125E7 ; 2.4964831650266448E8 ; 2.811064432571625E8 ; 0.0
21 ; 1.3316948340465965E7 ; 1.4055322162858125E7 ; 2.6294970771857604E8 ; 2.9516176542002064E8 ; 0.0
22 ; 1.3331919207410159E7 ; 1.4055322162858125E7 ; 2.7626665605904204E8 ; 3.0921708758287877E8 ; 0.0
23 ; 1.334526303060145E7 ; 1.4055322162858125E7 ; 2.895985752664522E8 ; 3.232724097457369E8 ; 0.0
24 ; 1.3361754582757518E7 ; 1.4055322162858125E7 ; 3.0294383829705364E8 ; 3.37327731908595E8 ; 0.0
25 ; 1.3378549546648944E7 ; 1.4055322162858125E7 ; 3.1630559287981117E8 ; 3.5138305407145315E8 ; 0.0
26 ; 1.339235577601447E7 ; 1.4055322162858125E7 ; 3.296841424264601E8 ; 3.654383762343113E8 ; 0.0
27 ; 1.3408442932737082E7 ; 1.4055322162858125E7 ; 3.4307649820247453E8 ; 3.794936983971694E8 ; 0.0
28 ; 1.3426809506377777E7 ; 1.4055322162858125E7 ; 3.564849411352116E8 ; 3.9354902056002754E8 ; 0.0
29 ; 1.3439573849091234E7 ; 1.4055322162858125E7 ; 3.6991175064158934E8 ; 4.0760434272288567E8 ; 0.0
30 ; 1.3452156769524388E7 ; 1.4055322162858125E7 ; 3.833513244906806E8 ; 4.216596648857438E8 ; 0.0
31 ; 1.3467141627180746E7 ; 1.4055322162858125E7 ; 3.96803481260205E8 ; 4.357149870486019E8 ; 0.0
32 ; 1.3481486439792823E7 ; 1.4055322162858125E7 ; 4.102706228873857E8 ; 4.4977030921146005E8 ; 0.0
33 ; 1.349830667329212E7 ; 1.4055322162858125E7 ; 4.2375210932717854E8 ; 4.638256313743182E8 ; 0.0
34 ; 1.350701394645881E7 ; 1.4055322162858125E7 ; 4.3725041600047064E8 ; 4.778809535371763E8 ; 0.0
35 ; 1.3522684136915449E7 ; 1.4055322162858125E7 ; 4.5075742994692945E8 ; 4.9193627570003444E8 ; 0.0
36 ; 1.3529443879278312E7 ; 1.4055322162858125E7 ; 4.642801140838449E8 ; 5.0599159786289257E8 ; 0.0
37 ; 1.3546994111104287E7 ; 1.4055322162858125E7 ; 4.778095579631232E8 ; 5.200469200257507E8 ; 0.0
38 ; 1.355141451142759E7 ; 1.4055322162858125E7 ; 4.913565520742275E8 ; 5.341022421886088E8 ; 0.0
39 ; 1.356815404099824E7 ; 1.4055322162858125E7 ; 5.049079665856551E8 ; 5.481575643514669E8 ; 0.0
40 ; 1.3580746867899403E7 ; 1.4055322162858125E7 ; 5.184761206266533E8 ; 5.62212886514325E8 ; 0.0
41 ; 1.3587200370290013E7 ; 1.4055322162858125E7 ; 5.3205686749455273E8 ; 5.762682086771832E8 ; 0.0
42 ; 1.3598919836585632E7 ; 1.4055322162858125E7 ; 5.456440678648428E8 ; 5.903235308400413E8 ; 0.0
43 ; 1.3603731654662015E7 ; 1.4055322162858125E7 ; 5.592429877014284E8 ; 6.043788530028994E8 ; 0.0
44 ; 1.3615650026679764E7 ; 1.4055322162858125E7 ; 5.728467193560904E8 ; 6.184341751657575E8 ; 0.0
45 ; 1.3621144939685179E7 ; 1.4055322162858125E7 ; 5.864623693827702E8 ; 6.324894973286157E8 ; 0.0
46 ; 1.3628179916103413E7 ; 1.4055322162858125E7 ; 6.000835143224554E8 ; 6.465448194914738E8 ; 0.0
47 ; 1.3634318045874046E7 ; 1.4055322162858125E7 ; 6.137116942385588E8 ; 6.606001416543319E8 ; 0.0
48 ; 1.3643804737713782E7 ; 1.4055322162858125E7 ; 6.273460122844328E8 ; 6.7465546381719E8 ; 0.0
49 ; 1.3641351660787713E7 ; 1.4055322162858125E7 ; 6.409898170221466E8 ; 6.887107859800482E8 ; 0.0
50 ; 1.364921061801734E7 ; 1.4055322162858125E7 ; 6.546311686829343E8 ; 7.027661081429063E8 ; 0.0
51 ; 1.3655123213319516E7 ; 1.4055322162858125E7 ; 6.682803793009516E8 ; 7.168214303057644E8 ; 0.0
52 ; 1.365614493114277E7 ; 1.4055322162858125E7 ; 6.819355025142711E8 ; 7.308767524686226E8 ; 0.0
53 ; 1.3657197152615415E7 ; 1.4055322162858125E7 ; 6.95591647445414E8 ; 7.449320746314807E8 ; 0.0
54 ; 1.3661411401942795E7 ; 1.4055322162858125E7 ; 7.092488445980294E8 ; 7.589873967943388E8 ; 0.0
55 ; 1.3666179297270155E7 ; 1.4055322162858125E7 ; 7.229102559999722E8 ; 7.73042718957197E8 ; 0.0
56 ; 1.3669048751229426E7 ; 1.4055322162858125E7 ; 7.365764352972424E8 ; 7.870980411200551E8 ; 0.0
57 ; 1.3673005072535945E7 ; 1.4055322162858125E7 ; 7.502454840484718E8 ; 8.011533632829132E8 ; 0.0
58 ; 1.3674877204877162E7 ; 1.4055322162858125E7 ; 7.639184891210078E8 ; 8.152086854457713E8 ; 0.0
59 ; 1.3676155699258724E7 ; 1.4055322162858125E7 ; 7.775933663258849E8 ; 8.292640076086295E8 ; 0.0
60 ; 1.3681460797047129E7 ; 1.4055322162858125E7 ; 7.912695220251436E8 ; 8.433193297714876E8 ; 0.0
61 ; 1.3684331967583891E7 ; 1.4055322162858125E7 ; 8.049509828221908E8 ; 8.573746519343457E8 ; 0.0
62 ; 1.3686517844564868E7 ; 1.4055322162858125E7 ; 8.186353147897747E8 ; 8.714299740972039E8 ; 0.0
63 ; 1.369319593297849E7 ; 1.4055322162858125E7 ; 8.323218326343396E8 ; 8.85485296260062E8 ; 0.0
64 ; 1.3690585388143703E7 ; 1.4055322162858125E7 ; 8.460150285673181E8 ; 8.995406184229201E8 ; 0.0
65 ; 1.3691323630417177E7 ; 1.4055322162858125E7 ; 8.597056139554617E8 ; 9.135959405857782E8 ; 0.0
66 ; 1.369626757999478E7 ; 1.4055322162858125E7 ; 8.73396937585879E8 ; 9.276512627486364E8 ; 0.0
67 ; 1.3697860087247517E7 ; 1.4055322162858125E7 ; 8.870932051658738E8 ; 9.417065849114945E8 ; 0.0
68 ; 1.3697358781440558E7 ; 1.4055322162858125E7 ; 9.007910652531213E8 ; 9.557619070743526E8 ; 0.0
69 ; 1.3699533589560675E7 ; 1.4055322162858125E7 ; 9.144884240345619E8 ; 9.698172292372108E8 ; 0.0
70 ; 1.3701074793560699E7 ; 1.4055322162858125E7 ; 9.281879576241225E8 ; 9.838725514000689E8 ; 0.0
71 ; 1.3700584307670804E7 ; 1.4055322162858125E7 ; 9.418890324176832E8 ; 9.97927873562927E8 ; 0.0
72 ; 1.3701235195057228E7 ; 1.4055322162858125E7 ; 9.555896167253541E8 ; 1.0119831957257851E9 ; 0.0
73 ; 1.3702972291976865E7 ; 1.4055322162858125E7 ; 9.692908519204113E8 ; 1.0260385178886433E9 ; 0.0
74 ; 1.3707347223822245E7 ; 1.4055322162858125E7 ; 9.829938242123882E8 ; 1.0400938400515014E9 ; 0.0
75 ; 1.370676555563712E7 ; 1.4055322162858125E7 ; 9.967011714362104E8 ; 1.0541491622143595E9 ; 0.0
76 ; 1.3703248886386724E7 ; 1.4055322162858125E7 ; 1.0104079369918475E9 ; 1.0682044843772177E9 ; 0.0
77 ; 1.3705910649920784E7 ; 1.4055322162858125E7 ; 1.0241111858782343E9 ; 1.0822598065400758E9 ; 0.0
78 ; 1.3703274925852532E7 ; 1.4055322162858125E7 ; 1.0378170965281551E9 ; 1.0963151287029338E9 ; 0.0
79 ; 1.369788195592947E7 ; 1.4055322162858125E7 ; 1.0515203714540076E9 ; 1.1103704508657918E9 ; 0.0
80 ; 1.3696199140547935E7 ; 1.4055322162858125E7 ; 1.0652182534099371E9 ; 1.1244257730286498E9 ; 0.0
81 ; 1.3689431014200345E7 ; 1.4055322162858125E7 ; 1.0789144525504851E9 ; 1.1384810951915078E9 ; 0.0
82 ; 1.3683686377922373E7 ; 1.4055322162858125E7 ; 1.0926038835646856E9 ; 1.1525364173543658E9 ; 0.0
83 ; 1.368119823143061E7 ; 1.4055322162858125E7 ; 1.1062875699426079E9 ; 1.1665917395172238E9 ; 0.0
84 ; 1.367588867253583E7 ; 1.4055322162858125E7 ; 1.1199687681740384E9 ; 1.1806470616800818E9 ; 0.0
85 ; 1.3675784851162825E7 ; 1.4055322162858125E7 ; 1.1336446568465743E9 ; 1.1947023838429399E9 ; 0.0
86 ; 1.366569462467416E7 ; 1.4055322162858125E7 ; 1.1473204416977372E9 ; 1.2087577060057979E9 ; 0.0
87 ; 1.3660086386362273E7 ; 1.4055322162858125E7 ; 1.1609861363224113E9 ; 1.2228130281686559E9 ; 0.0
88 ; 1.3653979322638331E7 ; 1.4055322162858125E7 ; 1.1746462227087736E9 ; 1.236868350331514E9 ; 0.0
89 ; 1.3650421237114761E7 ; 1.4055322162858125E7 ; 1.188300202031412E9 ; 1.250923672494372E9 ; 0.0
90 ; 1.364646616209868E7 ; 1.4055322162858125E7 ; 1.2019506232685266E9 ; 1.26497899465723E9 ; 0.0
91 ; 1.3641680507195912E7 ; 1.4055322162858125E7 ; 1.2155970894306252E9 ; 1.279034316820088E9 ; 0.0
92 ; 1.3637981581950495E7 ; 1.4055322162858125E7 ; 1.2292387699378211E9 ; 1.293089638982946E9 ; 0.0
93 ; 1.3628105132879311E7 ; 1.4055322162858125E7 ; 1.2428767515197716E9 ; 1.307144961145804E9 ; 0.0
94 ; 1.3619317774777869E7 ; 1.4055322162858125E7 ; 1.2565048566526508E9 ; 1.321200283308662E9 ; 0.0
95 ; 1.3617879487889998E7 ; 1.4055322162858125E7 ; 1.2701241744274287E9 ; 1.33525560547152E9 ; 0.0
96 ; 1.361033393142207E7 ; 1.4055322162858125E7 ; 1.2837420539153187E9 ; 1.349310927634378E9 ; 0.0
97 ; 1.3601159564698873E7 ; 1.4055322162858125E7 ; 1.2973523878467407E9 ; 1.363366249797236E9 ; 0.0
98 ; 1.3596351763622995E7 ; 1.4055322162858125E7 ; 1.3109535474114397E9 ; 1.377421571960094E9 ; 0.0
99 ; 1.3590096479079546E7 ; 1.4055322162858125E7 ; 1.3245498991750627E9 ; 1.391476894122952E9 ; 0.0
100 ; 1.3582810075909745E7 ; 1.4055322162858125E7 ; 1.3381399956541421E9 ; 1.40553221628581E9 ; 0.0
101 ; 1.3576741137559297E7 ; 1.4055322162858125E7 ; 1.351722805730052E9 ; 1.419587538448668E9 ; 0.0
102 ; 1.3567481370753754E7 ; 1.4055322162858125E7 ; 1.3652995468676114E9 ; 1.433642860611526E9 ; 0.0
103 ; 1.3563607721823169E7 ; 1.4055322162858125E7 ; 1.3788670282383652E9 ; 1.447698182774384E9 ; 0.0
104 ; 1.3557473503352875E7 ; 1.4055322162858125E7 ; 1.3924306359601884E9 ; 1.461753504937242E9 ; 0.0
105 ; 1.354806337316967E7 ; 1.4055322162858125E7 ; 1.4059881094635413E9 ; 1.4758088271001E9 ; 0.0
106 ; 1.3541445753832411E7 ; 1.4055322162858125E7 ; 1.419536172836711E9 ; 1.489864149262958E9 ; 0.0
107 ; 1.3533792813113185E7 ; 1.4055322162858125E7 ; 1.4330776185905433E9 ; 1.503919471425816E9 ; 0.0
108 ; 1.352243708565036E7 ; 1.4055322162858125E7 ; 1.4466114114036565E9 ; 1.517974793588674E9 ; 0.0
109 ; 1.351618695590989E7 ; 1.4055322162858125E7 ; 1.460133848489307E9 ; 1.532030115751532E9 ; 0.0
110 ; 1.3506492407095678E7 ; 1.4055322162858125E7 ; 1.473650035445217E9 ; 1.54608543791439E9 ; 0.0
111 ; 1.3500063603027493E7 ; 1.4055322162858125E7 ; 1.4871565278523126E9 ; 1.560140760077248E9 ; 0.0
112 ; 1.349117273090624E7 ; 1.4055322162858125E7 ; 1.5006565914553401E9 ; 1.574196082240106E9 ; 0.0
113 ; 1.3484022248917388E7 ; 1.4055322162858125E7 ; 1.5141477641862464E9 ; 1.588251404402964E9 ; 0.0
114 ; 1.3473183020482074E7 ; 1.4055322162858125E7 ; 1.5276317864351637E9 ; 1.6023067265658221E9 ; 0.0
115 ; 1.3462919312694907E7 ; 1.4055322162858125E7 ; 1.5411049694556458E9 ; 1.6163620487286801E9 ; 0.0
116 ; 1.3455104288867189E7 ; 1.4055322162858125E7 ; 1.5545678887683406E9 ; 1.6304173708915381E9 ; 0.0
117 ; 1.3449513749549119E7 ; 1.4055322162858125E7 ; 1.5680229930572078E9 ; 1.6444726930543962E9 ; 0.0
118 ; 1.3440767650321444E7 ; 1.4055322162858125E7 ; 1.581472506806757E9 ; 1.6585280152172542E9 ; 0.0
119 ; 1.3425804963297863E7 ; 1.4055322162858125E7 ; 1.5949132744570785E9 ; 1.6725833373801122E9 ; 0.0
120 ; 1.341742671637991E7 ; 1.4055322162858125E7 ; 1.6083390794203763E9 ; 1.6866386595429702E9 ; 0.0
121 ; 1.3409298919151008E7 ; 1.4055322162858125E7 ; 1.6217565061367562E9 ; 1.7006939817058282E9 ; 0.0
122 ; 1.3398455867851336E7 ; 1.4055322162858125E7 ; 1.6351658050559072E9 ; 1.7147493038686862E9 ; 0.0
123 ; 1.3389401461449036E7 ; 1.4055322162858125E7 ; 1.6485642609237585E9 ; 1.7288046260315442E9 ; 0.0
124 ; 1.3380370077312635E7 ; 1.4055322162858125E7 ; 1.6619536623852077E9 ; 1.7428599481944022E9 ; 0.0
125 ; 1.3370046800742673E7 ; 1.4055322162858125E7 ; 1.6753340324625204E9 ; 1.7569152703572602E9 ; 0.0
126 ; 1.3357729268309511E7 ; 1.4055322162858125E7 ; 1.688704079263263E9 ; 1.7709705925201182E9 ; 0.0
127 ; 1.3347635689285371E7 ; 1.4055322162858125E7 ; 1.7020618085315726E9 ; 1.7850259146829762E9 ; 0.0
128 ; 1.3339898316090329E7 ; 1.4055322162858125E7 ; 1.7154094442208579E9 ; 1.7990812368458343E9 ; 0.0
129 ; 1.3322119649845505E7 ; 1.4055322162858125E7 ; 1.7287493425369482E9 ; 1.8131365590086923E9 ; 0.0
130 ; 1.3313823341248883E7 ; 1.4055322162858125E7 ; 1.7420714621867938E9 ; 1.8271918811715503E9 ; 0.0
131 ; 1.3300155698499735E7 ; 1.4055322162858125E7 ; 1.7553852855280428E9 ; 1.8412472033344083E9 ; 0.0
132 ; 1.3283427132006668E7 ; 1.4055322162858125E7 ; 1.7686854412265425E9 ; 1.8553025254972663E9 ; 0.0
133 ; 1.3265812474369425E7 ; 1.4055322162858125E7 ; 1.781968868358549E9 ; 1.8693578476601243E9 ; 0.0
134 ; 1.3249203342436038E7 ; 1.4055322162858125E7 ; 1.7952346808329186E9 ; 1.8834131698229823E9 ; 0.0
135 ; 1.3233128193377066E7 ; 1.4055322162858125E7 ; 1.8084838841753547E9 ; 1.8974684919858403E9 ; 0.0
136 ; 1.3217969816547554E7 ; 1.4055322162858125E7 ; 1.8217170123687317E9 ; 1.9115238141486983E9 ; 0.0
137 ; 1.3203744258906763E7 ; 1.4055322162858125E7 ; 1.8349349821852794E9 ; 1.9255791363115563E9 ; 0.0
138 ; 1.3186361038600339E7 ; 1.4055322162858125E7 ; 1.8481387264441862E9 ; 1.9396344584744143E9 ; 0.0
139 ; 1.3171971951102694E7 ; 1.4055322162858125E7 ; 1.8613250874827867E9 ; 1.9536897806372724E9 ; 0.0
140 ; 1.315738005451306E7 ; 1.4055322162858125E7 ; 1.8744970594338894E9 ; 1.9677451028001304E9 ; 0.0
141 ; 1.3137583767519366E7 ; 1.4055322162858125E7 ; 1.8876544394884024E9 ; 1.9818004249629884E9 ; 0.0
142 ; 1.312136210988224E7 ; 1.4055322162858125E7 ; 1.9007920232559218E9 ; 1.9958557471258464E9 ; 0.0
143 ; 1.3101692308741331E7 ; 1.4055322162858125E7 ; 1.9139133853658042E9 ; 2.0099110692887044E9 ; 0.0
144 ; 1.3086632534868782E7 ; 1.4055322162858125E7 ; 1.9270150776745455E9 ; 2.0239663914515624E9 ; 0.0
145 ; 1.307463604496547E7 ; 1.4055322162858125E7 ; 1.9401017102094142E9 ; 2.0380217136144204E9 ; 0.0
146 ; 1.3065916770047419E7 ; 1.4055322162858125E7 ; 1.9531763462543797E9 ; 2.0520770357772784E9 ; 0.0
147 ; 1.3053012845769191E7 ; 1.4055322162858125E7 ; 1.9662422630244272E9 ; 2.0661323579401364E9 ; 0.0
148 ; 1.3039838800769849E7 ; 1.4055322162858125E7 ; 1.9792952758701963E9 ; 2.0801876801029944E9 ; 0.0
149 ; 1.3030944397582754E7 ; 1.4055322162858125E7 ; 1.9923351146709661E9 ; 2.0942430022658525E9 ; 0.0
150 ; 1.301478371382467E7 ; 1.4055322162858125E7 ; 2.005366059068549E9 ; 2.1082983244287105E9 ; 0.0
151 ; 1.3004304001497738E7 ; 1.4055322162858125E7 ; 2.0183808427823737E9 ; 2.1223536465915685E9 ; 0.0
152 ; 1.2993494674318615E7 ; 1.4055322162858125E7 ; 2.0313851467838714E9 ; 2.1364089687544265E9 ; 0.0
153 ; 1.2982930935081514E7 ; 1.4055322162858125E7 ; 2.04437864145819E9 ; 2.1504642909172845E9 ; 0.0
154 ; 1.2966488786292752E7 ; 1.4055322162858125E7 ; 2.0573615723932714E9 ; 2.1645196130801425E9 ; 0.0
155 ; 1.2959842567509903E7 ; 1.4055322162858125E7 ; 2.0703280611795642E9 ; 2.1785749352430005E9 ; 0.0
156 ; 1.2947839490537208E7 ; 1.4055322162858125E7 ; 2.0832879037470741E9 ; 2.1926302574058585E9 ; 0.0
157 ; 1.2933611982876651E7 ; 1.4055322162858125E7 ; 2.0962357432376113E9 ; 2.2066855795687165E9 ; 0.0
158 ; 1.2921081156108897E7 ; 1.4055322162858125E7 ; 2.1091693552204878E9 ; 2.2207409017315745E9 ; 0.0
159 ; 1.2908855408748899E7 ; 1.4055322162858125E7 ; 2.1220904363765967E9 ; 2.2347962238944325E9 ; 0.0
160 ; 1.2895161967709498E7 ; 1.4055322162858125E7 ; 2.1349992917853456E9 ; 2.2488515460572906E9 ; 0.0
161 ; 1.2882290063049497E7 ; 1.4055322162858125E7 ; 2.147894453753055E9 ; 2.2629068682201486E9 ; 0.0
162 ; 1.2868841008390179E7 ; 1.4055322162858125E7 ; 2.1607767438161044E9 ; 2.2769621903830066E9 ; 0.0
163 ; 1.2855775883378744E7 ; 1.4055322162858125E7 ; 2.1736455848244944E9 ; 2.2910175125458646E9 ; 0.0
164 ; 1.2845358132164681E7 ; 1.4055322162858125E7 ; 2.1865013607078733E9 ; 2.3050728347087226E9 ; 0.0
165 ; 1.2833291646545067E7 ; 1.4055322162858125E7 ; 2.199346718840038E9 ; 2.3191281568715806E9 ; 0.0
166 ; 1.281854683994809E7 ; 1.4055322162858125E7 ; 2.2121800104865828E9 ; 2.3331834790344386E9 ; 0.0
167 ; 1.2806368958473332E7 ; 1.4055322162858125E7 ; 2.224998557326531E9 ; 2.3472388011972966E9 ; 0.0
168 ; 1.27901613273213E7 ; 1.4055322162858125E7 ; 2.237804926285004E9 ; 2.3612941233601546E9 ; 0.0
169 ; 1.2781613675659847E7 ; 1.4055322162858125E7 ; 2.2505950876123257E9 ; 2.3753494455230126E9 ; 0.0
170 ; 1.2764067496343708E7 ; 1.4055322162858125E7 ; 2.2633767012879853E9 ; 2.3894047676858706E9 ; 0.0
171 ; 1.2752279162430909E7 ; 1.4055322162858125E7 ; 2.276140768784329E9 ; 2.4034600898487287E9 ; 0.0
172 ; 1.2743213298417283E7 ; 1.4055322162858125E7 ; 2.2888930479467597E9 ; 2.4175154120115867E9 ; 0.0
173 ; 1.272917751145559E7 ; 1.4055322162858125E7 ; 2.301636261245177E9 ; 2.4315707341744447E9 ; 0.0
174 ; 1.2719071979347553E7 ; 1.4055322162858125E7 ; 2.3143654387566323E9 ; 2.4456260563373027E9 ; 0.0
175 ; 1.2713576591393806E7 ; 1.4055322162858125E7 ; 2.32708451073598E9 ; 2.4596813785001607E9 ; 0.0
176 ; 1.2706869135362769E7 ; 1.4055322162858125E7 ; 2.339798087327374E9 ; 2.4737367006630187E9 ; 0.0
177 ; 1.2697811653420849E7 ; 1.4055322162858125E7 ; 2.3525049564627366E9 ; 2.4877920228258767E9 ; 0.0
178 ; 1.2690382399991075E7 ; 1.4055322162858125E7 ; 2.3652027681161575E9 ; 2.5018473449887347E9 ; 0.0
179 ; 1.2681664858143538E7 ; 1.4055322162858125E7 ; 2.3778931505161486E9 ; 2.5159026671515927E9 ; 0.0
180 ; 1.267489886874578E7 ; 1.4055322162858125E7 ; 2.390574815374292E9 ; 2.5299579893144507E9 ; 0.0
181 ; 1.2666205409606209E7 ; 1.4055322162858125E7 ; 2.4032497142430377E9 ; 2.5440133114773088E9 ; 0.0
182 ; 1.2657021787449766E7 ; 1.4055322162858125E7 ; 2.4159159196526437E9 ; 2.5580686336401668E9 ; 0.0
183 ; 1.2647151736130506E7 ; 1.4055322162858125E7 ; 2.4285729414400935E9 ; 2.572123955803025E9 ; 0.0
184 ; 1.2642503743003147E7 ; 1.4055322162858125E7 ; 2.441220093176224E9 ; 2.586179277965883E9 ; 0.0
185 ; 1.2633164605357362E7 ; 1.4055322162858125E7 ; 2.4538625969192276E9 ; 2.600234600128741E9 ; 0.0
186 ; 1.2626119965971792E7 ; 1.4055322162858125E7 ; 2.466495761524585E9 ; 2.614289922291599E9 ; 0.0
187 ; 1.2619201233797846E7 ; 1.4055322162858125E7 ; 2.4791218814905567E9 ; 2.628345244454457E9 ; 0.0
188 ; 1.261328942732626E7 ; 1.4055322162858125E7 ; 2.4917410827243547E9 ; 2.642400566617315E9 ; 0.0
189 ; 1.2605692432294408E7 ; 1.4055322162858125E7 ; 2.504354372151681E9 ; 2.656455888780173E9 ; 0.0
190 ; 1.2593974649645234E7 ; 1.4055322162858125E7 ; 2.5169600645839753E9 ; 2.670511210943031E9 ; 0.0
191 ; 1.2588179443904191E7 ; 1.4055322162858125E7 ; 2.5295540392336206E9 ; 2.684566533105889E9 ; 0.0
192 ; 1.2574503981821558E7 ; 1.4055322162858125E7 ; 2.542142218677525E9 ; 2.698621855268747E9 ; 0.0
193 ; 1.257125546259705E7 ; 1.4055322162858125E7 ; 2.5547167226593466E9 ; 2.712677177431605E9 ; 0.0
194 ; 1.256383628027588E7 ; 1.4055322162858125E7 ; 2.5672879781219435E9 ; 2.726732499594463E9 ; 0.0
195 ; 1.2550388601477131E7 ; 1.4055322162858125E7 ; 2.5798518144022193E9 ; 2.740787821757321E9 ; 0.0
