CSV File for the City 1 on Day 262
1 - Minute m 
2 - Power Consumed at minute m 
3 - Power Produced at minute m 
4 - Energy Consumed since the beginning of the day 
5 - Energy Produced since the beginning of the day 
6 - Energy Lost since the beginning of the day on lines starting from the city
 
0 ; 5577932.539875477 ; 1.055029039172323E8 ; 0.0 ; 0.0 ; 0.0
1 ; 5592781.211228835 ; 1.0565583066332173E8 ; 5577932.539875477 ; 1.055029039172323E8 ; 0.0
2 ; 5608839.859788626 ; 1.0611754099841174E8 ; 1.1170713751104312E7 ; 2.1115873458055404E8 ; 0.0
3 ; 5622974.208348795 ; 1.0688803659375471E8 ; 1.6779553610892937E7 ; 3.172762755789658E8 ; 0.0
4 ; 5642161.326018748 ; 1.0796731894988644E8 ; 2.2402527819241732E7 ; 4.241643121727205E8 ; 0.0
5 ; 5667051.027229002 ; 1.0935538938737375E8 ; 2.804468914526048E7 ; 5.3213163112260693E8 ; 0.0
6 ; 5703983.184229669 ; 1.1105224903849652E8 ; 3.371174017248948E7 ; 6.414870205099807E8 ; 0.0
7 ; 5751360.900274143 ; 1.1305789883998507E8 ; 3.941572335671915E7 ; 7.525392695484772E8 ; 0.0
8 ; 5823751.54038427 ; 1.1537233952691984E8 ; 4.5167084256993294E7 ; 8.655971683884623E8 ; 0.0
9 ; 5936613.011368028 ; 1.1799557162788558E8 ; 5.0990835797377564E7 ; 9.809695079153821E8 ; 0.0
10 ; 6121413.222779575 ; 1.209275954614554E8 ; 5.692744880874559E7 ; 1.0989650795432677E9 ; 0.0
11 ; 6405878.637901201 ; 1.2416841113405845E8 ; 6.3048862031525165E7 ; 1.219892675004723E9 ; 0.0
12 ; 6862992.524474969 ; 1.2771801853926554E8 ; 6.945474066942637E7 ; 1.3440610861387815E9 ; 0.0
13 ; 7304379.294718475 ; 1.3157641735850358E8 ; 7.631773319390133E7 ; 1.4717791046780472E9 ; 0.0
14 ; 7358175.9866729565 ; 1.357436070631879E8 ; 8.36221124886198E7 ; 1.6033555220365508E9 ; 0.0
15 ; 7372531.008256397 ; 1.4021958691823792E8 ; 9.098028847529276E7 ; 1.7390991290997386E9 ; 0.0
16 ; 7391788.2454283815 ; 1.450043559869235E8 ; 9.835281948354915E7 ; 1.8793187160179765E9 ; 0.0
17 ; 7408470.73556598 ; 1.500979131369646E8 ; 1.0574460772897753E8 ; 2.0243230720049E9 ; 0.0
18 ; 7425777.193354309 ; 1.5550025704779446E8 ; 1.131530784645435E8 ; 2.174420985141865E9 ; 0.0
19 ; 7444189.678883374 ; 1.612113862188773E8 ; 1.2057885565789782E8 ; 2.329921242189659E9 ; 0.0
20 ; 7460918.920798937 ; 1.6723129897896066E8 ; 1.2802304533678119E8 ; 2.4911326284085364E9 ; 0.0
21 ; 7481274.733006487 ; 1.7355999349613413E8 ; 1.3548396425758013E8 ; 2.658363927387497E9 ; 0.0
22 ; 7499574.600484933 ; 1.801974677885571E8 ; 1.429652389905866E8 ; 2.831923920883631E9 ; 0.0
23 ; 7515566.459404963 ; 1.8714371973571825E8 ; 1.5046481359107155E8 ; 3.0121213886721883E9 ; 0.0
24 ; 7532933.563608131 ; 1.943987470900864E8 ; 1.5798038005047652E8 ; 3.1992651084079065E9 ; 0.0
25 ; 7545747.002166541 ; 2.0065058838720083E8 ; 1.6551331361408466E8 ; 3.393663855497993E9 ; 0.0
26 ; 7569109.447996638 ; 2.006527889945975E8 ; 1.730590606162512E8 ; 3.594314443885194E9 ; 0.0
27 ; 7589288.299887907 ; 2.0065511564874327E8 ; 1.8062817006424785E8 ; 3.7949672328797913E9 ; 0.0
28 ; 7606330.131733726 ; 2.0065756571372348E8 ; 1.8821745836413574E8 ; 3.9956223485285344E9 ; 0.0
29 ; 7623601.268636476 ; 2.006601364861832E8 ; 1.9582378849586946E8 ; 4.196279914242258E9 ; 0.0
30 ; 7636732.22344186 ; 2.0066282520670986E8 ; 2.0344738976450592E8 ; 4.396940050728441E9 ; 0.0
31 ; 7656063.856823082 ; 2.0066562907082257E8 ; 2.110841219879478E8 ; 4.597602875935151E9 ; 0.0
32 ; 7673136.06744746 ; 2.00668545239498E8 ; 2.1874018584477088E8 ; 4.798268505005974E9 ; 0.0
33 ; 7687579.37145339 ; 2.006715708491777E8 ; 2.2641332191221833E8 ; 4.998937050245472E9 ; 0.0
34 ; 7704562.358663149 ; 2.0067470302121145E8 ; 2.3410090128367174E8 ; 5.199608621094649E9 ; 0.0
35 ; 7716504.120510002 ; 2.0067793887070426E8 ; 2.4180546364233488E8 ; 5.400283324115861E9 ; 0.0
36 ; 7736606.771407036 ; 2.0068127551474422E8 ; 2.495219677628449E8 ; 5.600961262986566E9 ; 0.0
37 ; 7742848.648233754 ; 2.0068471007999873E8 ; 2.5725857453425193E8 ; 5.801642538501309E9 ; 0.0
38 ; 7766449.451736915 ; 2.0068823970967555E8 ; 2.6500142318248567E8 ; 6.002327248581308E9 ; 0.0
39 ; 7774753.922481445 ; 2.0069186156985274E8 ; 2.7276787263422257E8 ; 6.203015488290984E9 ; 0.0
40 ; 7785301.707313698 ; 2.0069557285518804E8 ; 2.80542626556704E8 ; 6.403707349860837E9 ; 0.0
41 ; 7798122.128293594 ; 2.0069937079402462E8 ; 2.883279282640177E8 ; 6.604402922716025E9 ; 0.0
42 ; 7805838.850132962 ; 2.0070325265291426E8 ; 2.961260503923113E8 ; 6.80510229351005E9 ; 0.0
43 ; 7816073.891811966 ; 2.007072157405833E8 ; 3.039318892424442E8 ; 7.005805546162964E9 ; 0.0
44 ; 7824572.477364742 ; 2.007112574113693E8 ; 3.117479631342562E8 ; 7.206512761903547E9 ; 0.0
45 ; 7834801.0670555895 ; 2.0071537506815827E8 ; 3.195725356116209E8 ; 7.407224019314917E9 ; 0.0
46 ; 7845259.764008595 ; 2.0071956616485497E8 ; 3.274073366786765E8 ; 7.607939394383075E9 ; 0.0
47 ; 7849654.746274772 ; 2.007238282084174E8 ; 3.3525259644268507E8 ; 7.80865896054793E9 ; 0.0
48 ; 7857764.813721181 ; 2.0072815876048908E8 ; 3.4310225118895984E8 ; 8.009382788756347E9 ; 0.0
49 ; 7859159.060292578 ; 2.0073255543866146E8 ; 3.50960016002681E8 ; 8.210110947516836E9 ; 0.0
50 ; 7867651.185168189 ; 2.0073701591739726E8 ; 3.588191750629736E8 ; 8.410843502955498E9 ; 0.0
51 ; 7870655.313781426 ; 2.0074153792864725E8 ; 3.666868262481418E8 ; 8.611580518872894E9 ; 0.0
52 ; 7873007.714967456 ; 2.0074611926218873E8 ; 3.7455748156192327E8 ; 8.812322056801542E9 ; 0.0
53 ; 7875551.904075962 ; 2.0075075776571485E8 ; 3.824304892768907E8 ; 9.01306817606373E9 ; 0.0
54 ; 7880924.185046728 ; 2.0075545134470168E8 ; 3.903060411809667E8 ; 9.213818933829445E9 ; 0.0
55 ; 7878483.713866992 ; 2.007601979620779E8 ; 3.981869653660134E8 ; 9.414574385174147E9 ; 0.0
56 ; 7886279.816647429 ; 2.0076499563772112E8 ; 4.060654490798804E8 ; 9.615334583136225E9 ; 0.0
57 ; 7887721.236661171 ; 2.0076984244780302E8 ; 4.139517288965278E8 ; 9.816099578773947E9 ; 0.0
58 ; 7892019.035953125 ; 2.0077473652400282E8 ; 4.21839450133189E8 ; 1.001686942122175E10 ; 0.0
59 ; 7891928.918265868 ; 2.0077967605260915E8 ; 4.297314691691421E8 ; 1.0217644157745752E10 ; 0.0
60 ; 7893800.629645508 ; 2.0078465927352613E8 ; 4.37623398087408E8 ; 1.041842383379836E10 ; 0.0
61 ; 7902792.938441612 ; 2.0078968447920036E8 ; 4.4551719871705353E8 ; 1.0619208493071886E10 ; 0.0
62 ; 7902047.899359493 ; 2.0079475001348227E8 ; 4.5341999165549517E8 ; 1.0819998177551086E10 ; 0.0
63 ; 7903824.586714812 ; 2.007998542704352E8 ; 4.6132203955485463E8 ; 1.102079292756457E10 ; 0.0
64 ; 7903703.50008325 ; 2.0080499569310346E8 ; 4.6922586414156944E8 ; 1.1221592781835005E10 ; 0.0
65 ; 7903449.797349101 ; 2.008101727722494E8 ; 4.771295676416527E8 ; 1.1422397777528109E10 ; 0.0
66 ; 7908035.45611575 ; 2.0081538404506955E8 ; 4.850330174390018E8 ; 1.1623207950300358E10 ; 0.0
67 ; 7910120.6075909175 ; 2.0082062809389704E8 ; 4.929410528951175E8 ; 1.1824023334345427E10 ; 0.0
68 ; 7913861.415404573 ; 2.0082590354489794E8 ; 5.0085117350270844E8 ; 1.2024843962439323E10 ; 0.0
69 ; 7912503.798770706 ; 2.008312090667679E8 ; 5.08765034918113E8 ; 1.222566986598422E10 ; 0.0
70 ; 7910681.724969191 ; 2.0083654336943427E8 ; 5.166775387168837E8 ; 1.242650107505099E10 ; 0.0
71 ; 7916174.272175354 ; 2.0084190520276874E8 ; 5.245882204418529E8 ; 1.2627337618420424E10 ; 0.0
72 ; 7914947.552200293 ; 2.0084729335531455E8 ; 5.325043947140283E8 ; 1.2828179523623192E10 ; 0.0
73 ; 7917082.422649618 ; 2.0085270665303162E8 ; 5.404193422662286E8 ; 1.3029026816978506E10 ; 0.0
74 ; 7917260.381591937 ; 2.0085814395806253E8 ; 5.483364246888782E8 ; 1.3229879523631538E10 ; 0.0
75 ; 7920426.803271624 ; 2.008636041675222E8 ; 5.562536850704701E8 ; 1.3430737667589602E10 ; 0.0
76 ; 7921310.607284325 ; 2.0086908621231282E8 ; 5.641741118737417E8 ; 1.3631601271757124E10 ; 0.0
77 ; 7917220.259568964 ; 2.0087458905596596E8 ; 5.72095422481026E8 ; 1.3832470357969437E10 ; 0.0
78 ; 7916618.688960179 ; 2.008801116935129E8 ; 5.80012642740595E8 ; 1.4033344947025402E10 ; 0.0
79 ; 7910495.894190906 ; 2.008856531503847E8 ; 5.879292614295552E8 ; 1.4234225058718914E10 ; 0.0
80 ; 7903696.919405512 ; 2.0089121248134187E8 ; 5.958397573237461E8 ; 1.4435110711869299E10 ; 0.0
81 ; 7897451.999704938 ; 2.0089678876943514E8 ; 6.037434542431515E8 ; 1.4636001924350641E10 ; 0.0
82 ; 7892347.3595092185 ; 2.0090238112499663E8 ; 6.116409062428565E8 ; 1.4836898713120077E10 ; 0.0
83 ; 7887275.192088153 ; 2.0090798868466234E8 ; 6.195332536023657E8 ; 1.5037801094245073E10 ; 0.0
84 ; 7881263.047938188 ; 2.009136106104252E8 ; 6.274205287944539E8 ; 1.5238709082929735E10 ; 0.0
85 ; 7873939.706226496 ; 2.0091924608871925E8 ; 6.353017918423921E8 ; 1.5439622693540161E10 ; 0.0
86 ; 7872685.025073808 ; 2.0092489432953376E8 ; 6.431757315486186E8 ; 1.564054193962888E10 ; 0.0
87 ; 7863159.338391251 ; 2.0093055456555763E8 ; 6.510484165736923E8 ; 1.5841466833958414E10 ; 0.0
88 ; 7858144.788538681 ; 2.009362260513533E8 ; 6.589115759120836E8 ; 1.6042397388523972E10 ; 0.0
89 ; 7846056.041402787 ; 2.009419080625596E8 ; 6.667697207006223E8 ; 1.6243333614575325E10 ; 0.0
90 ; 7842565.512738405 ; 2.0094759989512268E8 ; 6.746157767420251E8 ; 1.6444275522637884E10 ; 0.0
91 ; 7836321.2669325955 ; 2.0095330086455518E8 ; 6.824583422547635E8 ; 1.6645223122533007E10 ; 0.0
92 ; 7830328.5774873495 ; 2.0095901030522195E8 ; 6.902946635216961E8 ; 1.6846176423397562E10 ; 0.0
93 ; 7820413.7802901035 ; 2.009647275696522E8 ; 6.981249920991834E8 ; 1.7047135433702784E10 ; 0.0
94 ; 7815498.794001313 ; 2.0097045202787745E8 ; 7.059454058794736E8 ; 1.7248100161272434E10 ; 0.0
95 ; 7804823.955274192 ; 2.009761830667938E8 ; 7.137609046734749E8 ; 1.7449070613300312E10 ; 0.0
96 ; 7797859.859739613 ; 2.0098192008954886E8 ; 7.215657286287491E8 ; 1.7650046796367107E10 ; 0.0
97 ; 7792702.518109729 ; 2.0098766251495153E8 ; 7.293635884884888E8 ; 1.7851028716456657E10 ; 0.0
98 ; 7783730.3074328685 ; 2.009934097769045E8 ; 7.371562910065985E8 ; 1.8052016378971607E10 ; 0.0
99 ; 7773717.724802559 ; 2.0099916132385853E8 ; 7.449400213140314E8 ; 1.8253009788748512E10 ; 0.0
100 ; 7769204.2818603385 ; 2.0100491661828783E8 ; 7.52713739038834E8 ; 1.8454008950072372E10 ; 0.0
101 ; 7761907.957024396 ; 2.0101067513618565E8 ; 7.604829433206943E8 ; 1.865501386669066E10 ; 0.0
102 ; 7755083.338831362 ; 2.010164363665796E8 ; 7.682448512777188E8 ; 1.8856024541826843E10 ; 0.0
103 ; 7741327.48784857 ; 2.0102219981106564E8 ; 7.759999346165501E8 ; 1.9057040978193424E10 ; 0.0
104 ; 7734747.508775989 ; 2.010279649833606E8 ; 7.837412621043986E8 ; 1.925806317800449E10 ; 0.0
105 ; 7723389.539328693 ; 2.010337314088717E8 ; 7.914760096131746E8 ; 1.945909114298785E10 ; 0.0
106 ; 7714007.714826138 ; 2.010394986242836E8 ; 7.991993991525033E8 ; 1.966012487439672E10 ; 0.0
107 ; 7709141.916403505 ; 2.0104526617716104E8 ; 8.069134068673294E8 ; 1.9861164373021004E10 ; 0.0
108 ; 7701744.342647069 ; 2.010510336255674E8 ; 8.146225487837329E8 ; 2.0062209639198166E10 ; 0.0
109 ; 7689398.2032961305 ; 2.010568005376982E8 ; 8.2232429312638E8 ; 2.0263260672823734E10 ; 0.0
110 ; 7677659.077670831 ; 2.01062566491529E8 ; 8.300136913296762E8 ; 2.046431747336143E10 ; 0.0
111 ; 7670637.331945549 ; 2.0106833107447687E8 ; 8.37691350407347E8 ; 2.066538003985296E10 ; 0.0
112 ; 7659326.792697195 ; 2.0107409388307583E8 ; 8.453619877392925E8 ; 2.0866448370927437E10 ; 0.0
113 ; 7651542.944824984 ; 2.010798545226642E8 ; 8.530213145319897E8 ; 2.1067522464810513E10 ; 0.0
114 ; 7638783.179225382 ; 2.0108561260708475E8 ; 8.606728574768146E8 ; 2.1268602319333176E10 ; 0.0
115 ; 7631235.36231085 ; 2.010913677583965E8 ; 8.6831164065604E8 ; 2.146968793194026E10 ; 0.0
116 ; 7620606.358928089 ; 2.0109711960659775E8 ; 8.759428760183508E8 ; 2.1670779299698658E10 ; 0.0
117 ; 7611625.687555972 ; 2.0110286778935987E8 ; 8.835634823772789E8 ; 2.1871876419305256E10 ; 0.0
118 ; 7601072.955581116 ; 2.011086119517717E8 ; 8.91175108064835E8 ; 2.2072979287094616E10 ; 0.0
119 ; 7589791.053094285 ; 2.0111435174609366E8 ; 8.98776181020416E8 ; 2.2274087899046387E10 ; 0.0
120 ; 7576758.081112925 ; 2.0112008683152163E8 ; 9.063659720735103E8 ; 2.247520225079248E10 ; 0.0
121 ; 7565366.687930184 ; 2.0112581687395984E8 ; 9.139427301546233E8 ; 2.2676322337624E10 ; 0.0
122 ; 7558584.626661845 ; 2.011315415458028E8 ; 9.215080968425535E8 ; 2.287744815449796E10 ; 0.0
123 ; 7541441.171989829 ; 2.011372605257253E8 ; 9.290666814692154E8 ; 2.3078579696043762E10 ; 0.0
124 ; 7531651.829045321 ; 2.0114297349848092E8 ; 9.366081226412052E8 ; 2.327971695656949E10 ; 0.0
125 ; 7521287.331280945 ; 2.0114868015470794E8 ; 9.441397744702505E8 ; 2.348085993006797E10 ; 0.0
126 ; 7509590.701851499 ; 2.0115438019074306E8 ; 9.516610618015314E8 ; 2.368200861022268E10 ; 0.0
127 ; 7493043.907746708 ; 2.0116007330844185E8 ; 9.591706525033829E8 ; 2.388316299041342E10 ; 0.0
128 ; 7485820.908901813 ; 2.011657592150065E8 ; 9.666636964111296E8 ; 2.4084323063721863E10 ; 0.0
129 ; 7470333.710097446 ; 2.0117143762281975E8 ; 9.741495173200314E8 ; 2.428548882293687E10 ; 0.0
130 ; 7459650.568409514 ; 2.0117710824928546E8 ; 9.816198510301288E8 ; 2.448666026055969E10 ; 0.0
131 ; 7443595.023030605 ; 2.011827708166749E8 ; 9.890795015985384E8 ; 2.4687837368808975E10 ; 0.0
132 ; 7422405.302339587 ; 2.0118842505197915E8 ; 9.96523096621569E8 ; 2.488902013962565E10 ; 0.0
133 ; 7408153.818894249 ; 2.0119407068676692E8 ; 1.0039455019239086E9 ; 2.5090208564677628E10 ; 0.0
134 ; 7386922.285703463 ; 2.0119970745704773E8 ; 1.0113536557428029E9 ; 2.5291402635364395E10 ; 0.0
135 ; 7370717.794714696 ; 2.0120533510314015E8 ; 1.0187405780285063E9 ; 2.549260234282144E10 ; 0.0
136 ; 7349394.760607387 ; 2.0121095336954513E8 ; 1.026111295823221E9 ; 2.5693807677924583E10 ; 0.0
137 ; 7328800.549642306 ; 2.012165620048239E8 ; 1.0334606905838283E9 ; 2.589501863129413E10 ; 0.0
138 ; 7316282.32044351 ; 2.0122216076148045E8 ; 1.0407894911334707E9 ; 2.6096235193298954E10 ; 0.0
139 ; 7295603.753104325 ; 2.0122774939584848E8 ; 1.0481057734539142E9 ; 2.6297457354060436E10 ; 0.0
140 ; 7279167.535123924 ; 2.0123332766798225E8 ; 1.0554013772070185E9 ; 2.6498685103456284E10 ; 0.0
141 ; 7254828.92514794 ; 2.012388953415517E8 ; 1.0626805447421424E9 ; 2.6699918431124268E10 ; 0.0
142 ; 7235951.2154576015 ; 2.012444521837413E8 ; 1.0699353736672903E9 ; 2.690115732646582E10 ; 0.0
143 ; 7219489.3109048065 ; 2.012499979651527E8 ; 1.077171324882748E9 ; 2.7102401778649563E10 ; 0.0
144 ; 7202175.742192139 ; 2.0125553245971072E8 ; 1.0843908141936526E9 ; 2.7303651776614716E10 ; 0.0
145 ; 7181499.238095624 ; 2.01261055444573E8 ; 1.0915929899358447E9 ; 2.7504907309074425E10 ; 0.0
146 ; 7172726.884418653 ; 2.0126656670004272E8 ; 1.0987744891739402E9 ; 2.7706168364518997E10 ; 0.0
147 ; 7166951.4887414025 ; 2.0127206600948462E8 ; 1.105947216058359E9 ; 2.790743493121904E10 ; 0.0
148 ; 7147035.340813926 ; 2.0127755315924403E8 ; 1.1131141675471003E9 ; 2.8108706997228523E10 ; 0.0
149 ; 7136687.013418478 ; 2.012830279385686E8 ; 1.1202612028879142E9 ; 2.8309984550387768E10 ; 0.0
150 ; 7126663.076733395 ; 2.0128849013953304E8 ; 1.1273978899013326E9 ; 2.8511267578326336E10 ; 0.0
151 ; 7111522.244314945 ; 2.0129393955696666E8 ; 1.134524552978066E9 ; 2.871255606846587E10 ; 0.0
152 ; 7096710.79113366 ; 2.0129937598838302E8 ; 1.1416360752223809E9 ; 2.8913850008022835E10 ; 0.0
153 ; 7086669.364180151 ; 2.0130479923391253E8 ; 1.1487327860135145E9 ; 2.911514938401122E10 ; 0.0
154 ; 7071977.011089219 ; 2.0131020909623724E8 ; 1.1558194553776946E9 ; 2.9316454183245132E10 ; 0.0
155 ; 7060545.890280273 ; 2.0131560538052788E8 ; 1.162891432388784E9 ; 2.951776439234137E10 ; 0.0
156 ; 7051355.192010479 ; 2.0132098789438325E8 ; 1.1699519782790642E9 ; 2.9719079997721897E10 ; 0.0
157 ; 7034996.648552749 ; 2.0132635644777152E8 ; 1.1770033334710746E9 ; 2.992040098561628E10 ; 0.0
158 ; 7024769.563305918 ; 2.0133171085297382E8 ; 1.1840383301196272E9 ; 3.0121727342064053E10 ; 0.0
159 ; 7011343.47951365 ; 2.0133705092452964E8 ; 1.191063099682933E9 ; 3.0323059052917027E10 ; 0.0
160 ; 6993948.550600094 ; 2.0134237647918403E8 ; 1.1980744431624467E9 ; 3.0524396103841557E10 ; 0.0
161 ; 6985877.445131975 ; 2.0134768733583692E8 ; 1.2050683917130468E9 ; 3.072573848032074E10 ; 0.0
162 ; 6972871.9374350775 ; 2.0135298331549388E8 ; 1.2120542691581788E9 ; 3.0927086167656578E10 ; 0.0
163 ; 6956384.687652414 ; 2.013582642412187E8 ; 1.219027141095614E9 ; 3.1128439150972073E10 ; 0.0
164 ; 6942098.763785455 ; 2.013635299380876E8 ; 1.2259835257832663E9 ; 3.132979741521329E10 ; 0.0
165 ; 6938681.869152219 ; 2.013687802331451E8 ; 1.2329256245470517E9 ; 3.153116094515138E10 ; 0.0
166 ; 6915946.229954681 ; 2.0137401495536095E8 ; 1.239864306416204E9 ; 3.1732529725384525E10 ; 0.0
167 ; 6903341.565989771 ; 2.013792339355892E8 ; 1.2467802526461587E9 ; 3.1933903740339886E10 ; 0.0
168 ; 6894722.50028707 ; 2.013844370065281E8 ; 1.2536835942121484E9 ; 3.2135282974275475E10 ; 0.0
169 ; 6884666.455313989 ; 2.0138962400268158E8 ; 1.2605783167124355E9 ; 3.2336667411282E10 ; 0.0
170 ; 6865752.371429915 ; 2.0139479476032197E8 ; 1.2674629831677494E9 ; 3.2538057035284683E10 ; 0.0
171 ; 6854382.282836301 ; 2.0139994911745405E8 ; 1.2743287355391793E9 ; 3.2739451830045006E10 ; 0.0
172 ; 6843566.8650814 ; 2.014050869137801E8 ; 1.2811831178220155E9 ; 3.294085177916246E10 ; 0.0
173 ; 6828346.29385055 ; 2.014102079906664E8 ; 1.2880266846870968E9 ; 3.314225686607624E10 ; 0.0
174 ; 6818395.976546427 ; 2.014153121911106E8 ; 1.2948550309809475E9 ; 3.3343667074066906E10 ; 0.0
175 ; 6808111.731607831 ; 2.0142039935971034E8 ; 1.301673426957494E9 ; 3.354508238625802E10 ; 0.0
176 ; 6795879.847370011 ; 2.014254693426327E8 ; 1.308481538689102E9 ; 3.374650278561773E10 ; 0.0
177 ; 6786399.096596 ; 2.014305219875849E8 ; 1.3152774185364718E9 ; 3.394792825496036E10 ; 0.0
178 ; 6777526.198357804 ; 2.0143555714378577E8 ; 1.3220638176330678E9 ; 3.4149358776947945E10 ; 0.0
179 ; 6764319.573127871 ; 2.0144057466193828E8 ; 1.3288413438314257E9 ; 3.4350794334091732E10 ; 0.0
180 ; 6755066.402641266 ; 2.014455743942029E8 ; 1.3356056634045537E9 ; 3.455223490875367E10 ; 0.0
181 ; 6747090.877597534 ; 2.014505561941718E8 ; 1.342360729807195E9 ; 3.475368048314787E10 ; 0.0
182 ; 6737757.622648356 ; 2.0145551991684398E8 ; 1.3491078206847925E9 ; 3.495513103934204E10 ; 0.0
183 ; 6728085.772363712 ; 2.014604654186012E8 ; 1.3558455783074408E9 ; 3.515658655925889E10 ; 0.0
184 ; 6711667.20482513 ; 2.014653925571846E8 ; 1.3625736640798044E9 ; 3.535804702467749E10 ; 0.0
185 ; 6704966.51108661 ; 2.0147030119167206E8 ; 1.3692853312846296E9 ; 3.555951241723467E10 ; 0.0
186 ; 6693997.886404806 ; 2.0147519118245643E8 ; 1.3759902977957163E9 ; 3.5760982718426346E10 ; 0.0
187 ; 6680779.871649341 ; 2.014800623912244E8 ; 1.382684295682121E9 ; 3.59624579096088E10 ; 0.0
188 ; 6672836.752018595 ; 2.0148491468093595E8 ; 1.3893650755537703E9 ; 3.616393797200003E10 ; 0.0
189 ; 6665450.162166149 ; 2.0148974791580462E8 ; 1.396037912305789E9 ; 3.636542288668097E10 ; 0.0
190 ; 6655310.784324832 ; 2.014945619612782E8 ; 1.402703362467955E9 ; 3.656691263459677E10 ; 0.0
191 ; 6642312.8262344645 ; 2.014993566840203E8 ; 1.40935867325228E9 ; 3.676840719655805E10 ; 0.0
192 ; 6631495.292633769 ; 2.0150413195189235E8 ; 1.4160009860785146E9 ; 3.696990655324207E10 ; 0.0
193 ; 6618733.809032393 ; 2.01508887633936E8 ; 1.4226324813711483E9 ; 3.717141068519396E10 ; 0.0
194 ; 6609799.510354758 ; 2.015136236003565E8 ; 1.4292512151801808E9 ; 3.7372919572827896E10 ; 0.0
195 ; 6605984.78555797 ; 2.0151833972250623E8 ; 1.4358610146905355E9 ; 3.757443319642825E10 ; 0.0
196 ; 6591572.749351618 ; 2.0152303587286896E8 ; 1.4424669994760935E9 ; 3.777595153615076E10 ; 0.0
197 ; 6583075.393614231 ; 2.0152771192504445E8 ; 1.449058572225445E9 ; 3.797747457202363E10 ; 0.0
198 ; 6568420.842117875 ; 2.0153236775373363E8 ; 1.4556416476190593E9 ; 3.817900228394867E10 ; 0.0
199 ; 6554423.276073908 ; 2.0153700323472437E8 ; 1.462210068461177E9 ; 3.83805346517024E10 ; 0.0
200 ; 6550132.39797098 ; 2.0154161824487737E8 ; 1.468764491737251E9 ; 3.8582071654937126E10 ; 0.0
201 ; 6538522.616047279 ; 1.8917278914927655E8 ; 1.475314624135222E9 ; 3.878361327318201E10 ; 0.0
