CSV File for the City 4 on Day 346
1 - Minute m 
2 - Power Consumed at minute m 
3 - Power Produced at minute m 
4 - Energy Consumed since the beginning of the day 
5 - Energy Produced since the beginning of the day 
6 - Energy Lost since the beginning of the day on lines starting from the city
 
0 ; 6836887.253717735 ; 1.0635245256651303E8 ; 0.0 ; 0.0 ; 0.0
1 ; 6843426.511239054 ; 1.0650303028772306E8 ; 6836887.253717735 ; 1.0635245256651303E8 ; 0.0
2 ; 6850203.951793276 ; 1.0696263321198067E8 ; 1.368031376495679E7 ; 2.128554828542361E8 ; 0.0
3 ; 6859161.879899873 ; 1.0773126486702466E8 ; 2.0530517716750063E7 ; 3.1981811606621677E8 ; 0.0
4 ; 6869239.448282006 ; 1.088089284074716E8 ; 2.7389679596649937E7 ; 4.275493809332414E8 ; 0.0
5 ; 6884486.857313944 ; 1.1019562659967303E8 ; 3.425891904493194E7 ; 5.36358309340713E8 ; 0.0
6 ; 6899212.71371173 ; 1.1189136180821821E8 ; 4.114340590224589E7 ; 6.46553935940386E8 ; 0.0
7 ; 6922816.5201039715 ; 1.1389613598423487E8 ; 4.804261861595762E7 ; 7.584452977486043E8 ; 0.0
8 ; 6953914.290429002 ; 1.1620995065562248E8 ; 5.496543513606159E7 ; 8.723414337328391E8 ; 0.0
9 ; 7003302.540862626 ; 1.1883280691933274E8 ; 6.191934942649059E7 ; 9.885513843884616E8 ; 0.0
10 ; 7083277.211317428 ; 1.2176470543578798E8 ; 6.892265196735321E7 ; 1.1073841913077943E9 ; 0.0
11 ; 7206752.63879736 ; 1.2500564642550561E8 ; 7.600592917867064E7 ; 1.2291488967435822E9 ; 0.0
12 ; 7405644.685922883 ; 1.2855562966796818E8 ; 8.3212681817468E7 ; 1.354154543169088E9 ; 0.0
13 ; 7595571.110298799 ; 1.3241465450275338E8 ; 9.061832650339088E7 ; 1.4827101728370562E9 ; 0.0
14 ; 7618573.120062547 ; 1.3658271983290958E8 ; 9.821389761368968E7 ; 1.6151248273398094E9 ; 0.0
15 ; 7626496.264782716 ; 1.410598241305372E8 ; 1.0583247073375222E8 ; 1.751707547172719E9 ; 0.0
16 ; 7634656.849606512 ; 1.4584596544450864E8 ; 1.1345896699853493E8 ; 1.8927673713032563E9 ; 0.0
17 ; 7644902.972806235 ; 1.5094114141023454E8 ; 1.2109362384814145E8 ; 2.0386133367477648E9 ; 0.0
18 ; 7653803.694109728 ; 1.563453492613634E8 ; 1.2873852682094768E8 ; 2.1895544781579995E9 ; 0.0
19 ; 7661296.941431541 ; 1.6205858584327862E8 ; 1.363923305150574E8 ; 2.345899827419363E9 ; 0.0
20 ; 7671709.6805347325 ; 1.680808476282414E8 ; 1.4405362745648897E8 ; 2.5079584132626414E9 ; 0.0
21 ; 7675899.061364497 ; 1.7441213073201236E8 ; 1.517253371370237E8 ; 2.676039260890883E9 ; 0.0
22 ; 7688084.908434457 ; 1.8105243093177307E8 ; 1.594012361983882E8 ; 2.8504513916228952E9 ; 0.0
23 ; 7698284.277184125 ; 1.8800174368516177E8 ; 1.6708932110682264E8 ; 3.0315038225546684E9 ; 0.0
24 ; 7707445.587783795 ; 1.9526006415023196E8 ; 1.7478760538400677E8 ; 3.21950556623983E9 ; 0.0
25 ; 7716275.647003145 ; 2.0151542810432363E8 ; 1.8249505097179055E8 ; 3.414765630390062E9 ; 0.0
26 ; 7721565.302380539 ; 2.015213780021863E8 ; 1.902113266187937E8 ; 3.6162810584943857E9 ; 0.0
27 ; 7730622.756091212 ; 2.0152767752246043E8 ; 1.9793289192117423E8 ; 3.817802436496572E9 ; 0.0
28 ; 7741015.486144491 ; 2.0153432083619988E8 ; 2.0566351467726544E8 ; 4.0193301140190325E9 ; 0.0
29 ; 7748159.187070807 ; 2.0154130192186788E8 ; 2.1340453016340992E8 ; 4.2208644348552322E9 ; 0.0
30 ; 7758069.496085161 ; 2.0154861458692816E8 ; 2.2115268935048074E8 ; 4.422405736777101E9 ; 0.0
31 ; 7768063.312529369 ; 2.0155625248912942E8 ; 2.289107588465659E8 ; 4.623954351364029E9 ; 0.0
32 ; 7773716.6433214 ; 2.0156420915734878E8 ; 2.3667882215909526E8 ; 4.825510603853158E9 ; 0.0
33 ; 7784778.137180176 ; 2.0157247801187518E8 ; 2.4445253880241665E8 ; 5.027074813010507E9 ; 0.0
34 ; 7792484.882686675 ; 2.0158105238402742E8 ; 2.5223731693959683E8 ; 5.228647291022382E9 ; 0.0
35 ; 7795843.327665208 ; 2.0158992553501788E8 ; 2.600298018222835E8 ; 5.430228343406409E9 ; 0.0
36 ; 7803738.843925987 ; 2.015990906739865E8 ; 2.6782564514994872E8 ; 5.631818268941427E9 ; 0.0
37 ; 7812407.445398255 ; 2.0160854097514492E8 ; 2.756293839938747E8 ; 5.833417359615414E9 ; 0.0
38 ; 7818198.294297786 ; 2.0161826959398374E8 ; 2.83441791439273E8 ; 6.035025900590559E9 ; 0.0
39 ; 7824030.776398863 ; 2.0162826968250987E8 ; 2.912599897335708E8 ; 6.236644170184543E9 ; 0.0
40 ; 7831801.2347972775 ; 2.0163853440349197E8 ; 2.9908402050996965E8 ; 6.438272439867052E9 ; 0.0
41 ; 7836750.570707364 ; 2.0164905694370413E8 ; 3.0691582174476695E8 ; 6.639910974270544E9 ; 0.0
42 ; 7840194.431454127 ; 2.0165983052616695E8 ; 3.1475257231547433E8 ; 6.841560031214249E9 ; 0.0
43 ; 7848202.9782655435 ; 2.0167084842139545E8 ; 3.2259276674692845E8 ; 7.043219861740416E9 ; 0.0
44 ; 7851308.549685642 ; 2.0168210395766968E8 ; 3.30440969725194E8 ; 7.244890710161811E9 ; 0.0
45 ; 7857182.047868631 ; 2.0169359053035185E8 ; 3.3829227827487963E8 ; 7.44657281411948E9 ; 0.0
46 ; 7862293.97844897 ; 2.017053016102789E8 ; 3.4614946032274824E8 ; 7.648266404649832E9 ; 0.0
47 ; 7866052.856165057 ; 2.0171723075126436E8 ; 3.5401175430119723E8 ; 7.849971706260111E9 ; 0.0
48 ; 7868672.174462426 ; 2.017293715967468E8 ; 3.618778071573623E8 ; 8.051688937011375E9 ; 0.0
49 ; 7872511.696354264 ; 2.0174171788562608E8 ; 3.697464793318247E8 ; 8.253418308608122E9 ; 0.0
50 ; 7874700.718812205 ; 2.0175426345732915E8 ; 3.77618991028179E8 ; 8.455160026493748E9 ; 0.0
51 ; 7875378.433760248 ; 2.017670022561504E8 ; 3.854936917469912E8 ; 8.656914289951077E9 ; 0.0
52 ; 7878759.468287123 ; 2.0177992833491033E8 ; 3.9336907018075144E8 ; 8.858681292207228E9 ; 0.0
53 ; 7884121.625898443 ; 2.017930358579788E8 ; 4.0124782964903855E8 ; 9.060461220542137E9 ; 0.0
54 ; 7884356.261935388 ; 2.0180631910370657E8 ; 4.09131951274937E8 ; 9.262254256400116E9 ; 0.0
55 ; 7883619.023765108 ; 2.0181977246630996E8 ; 4.170163075368724E8 ; 9.464060575503822E9 ; 0.0
56 ; 7888977.538904936 ; 2.0183339045725134E8 ; 4.248999265606375E8 ; 9.665880347970133E9 ; 0.0
57 ; 7890815.197088497 ; 2.0184716770615757E8 ; 4.3278890409954244E8 ; 9.867713738427383E9 ; 0.0
58 ; 7893155.842868897 ; 2.0186109896131617E8 ; 4.406797192966309E8 ; 1.0069560906133541E10 ; 0.0
59 ; 7893606.8261292465 ; 2.0187517908978853E8 ; 4.4857287513949984E8 ; 1.0271422005094858E10 ; 0.0
60 ; 7894821.794949962 ; 2.0188940307717606E8 ; 4.564664819656291E8 ; 1.0473297184184647E10 ; 0.0
61 ; 7897230.666925123 ; 2.0190376602707478E8 ; 4.6436130376057905E8 ; 1.0675186587261822E10 ; 0.0
62 ; 7900520.399470165 ; 2.0191826316025063E8 ; 4.722585344275042E8 ; 1.0877090353288897E10 ; 0.0
63 ; 7900468.324066722 ; 2.0193288981356695E8 ; 4.8015905482697433E8 ; 1.1079008616449146E10 ; 0.0
64 ; 7902376.113346235 ; 2.0194764143869227E8 ; 4.8805952315104103E8 ; 1.1280941506262712E10 ; 0.0
65 ; 7900996.080683215 ; 2.01962513600616E8 ; 4.9596189926438725E8 ; 1.1482889147701405E10 ; 0.0
66 ; 7906640.478738172 ; 2.0197750197599623E8 ; 5.038628953450705E8 ; 1.1684851661302021E10 ; 0.0
67 ; 7908120.727666747 ; 2.019926023513631E8 ; 5.1176953582380867E8 ; 1.1886829163278017E10 ; 0.0
68 ; 7908406.634248689 ; 2.0200781062119922E8 ; 5.196776565514754E8 ; 1.208882176562938E10 ; 0.0
69 ; 7913092.988142639 ; 2.0202312278591588E8 ; 5.275860631857241E8 ; 1.2290829576250578E10 ; 0.0
70 ; 7910660.45253791 ; 2.0203853494974357E8 ; 5.3549915617386675E8 ; 1.2492852699036493E10 ; 0.0
71 ; 7912210.796314666 ; 2.020540433185527E8 ; 5.434098166264046E8 ; 1.2694891233986237E10 ; 0.0
72 ; 7914773.698866856 ; 2.020696441976194E8 ; 5.513220274227194E8 ; 1.2896945277304789E10 ; 0.0
73 ; 7913469.883612792 ; 2.020853339893498E8 ; 5.592368011215862E8 ; 1.3099014921502407E10 ; 0.0
74 ; 7914864.228205373 ; 2.0210110919097486E8 ; 5.67150271005199E8 ; 1.3301100255491756E10 ; 0.0
75 ; 7914218.8791787075 ; 2.0211696639222634E8 ; 5.750651352334043E8 ; 1.3503201364682732E10 ; 0.0
76 ; 7916781.138066074 ; 2.02132902273004E8 ; 5.82979354112583E8 ; 1.3705318331074959E10 ; 0.0
77 ; 7918445.9910559645 ; 2.0214891360104248E8 ; 5.908961352506491E8 ; 1.3907451233347963E10 ; 0.0
78 ; 7917260.736678023 ; 2.0216499722958538E8 ; 5.988145812417051E8 ; 1.4109600146949005E10 ; 0.0
79 ; 7916383.309673683 ; 2.021811500950736E8 ; 6.067318419783831E8 ; 1.431176514417859E10 ; 0.0
80 ; 7912711.460373017 ; 2.021973692148538E8 ; 6.146482252880567E8 ; 1.4513946294273664E10 ; 0.0
81 ; 7911825.417658574 ; 2.0221365168491185E8 ; 6.225609367484298E8 ; 1.4716143663488518E10 ; 0.0
82 ; 7909414.262086942 ; 2.0222999467763647E8 ; 6.304727621660883E8 ; 1.491835731517343E10 ; 0.0
83 ; 7905385.317044396 ; 2.0224639543961617E8 ; 6.383821764281753E8 ; 1.5120587309851067E10 ; 0.0
84 ; 7907748.768435695 ; 2.0226285128947327E8 ; 6.462875617452197E8 ; 1.5322833705290682E10 ; 0.0
85 ; 7903066.23267085 ; 2.0227935961573762E8 ; 6.541953105136554E8 ; 1.5525096556580154E10 ; 0.0
86 ; 7901839.457170315 ; 2.0229591787476242E8 ; 6.620983767463263E8 ; 1.5727375916195892E10 ; 0.0
87 ; 7896956.653747587 ; 2.0231252358868372E8 ; 6.700002162034967E8 ; 1.5929671834070654E10 ; 0.0
88 ; 7897403.513957372 ; 2.0232917434342578E8 ; 6.778971728572443E8 ; 1.6131984357659338E10 ; 0.0
89 ; 7894417.558281014 ; 2.0234586778675252E8 ; 6.857945763712016E8 ; 1.6334313532002764E10 ; 0.0
90 ; 7891296.669845444 ; 2.0236260162636676E8 ; 6.936889939294827E8 ; 1.6536659399789516E10 ; 0.0
91 ; 7891037.163318593 ; 2.023793736280574E8 ; 7.015802905993282E8 ; 1.6739022001415884E10 ; 0.0
92 ; 7886068.483190906 ; 2.023961816138949E8 ; 7.094713277626468E8 ; 1.6941401375043941E10 ; 0.0
93 ; 7884485.289664562 ; 2.024130234604756E8 ; 7.173573962458377E8 ; 1.7143797556657837E10 ; 0.0
94 ; 7881306.989813224 ; 2.0242989709721386E8 ; 7.252418815355022E8 ; 1.7346210580118313E10 ; 0.0
95 ; 7883449.549484591 ; 2.024468005046833E8 ; 7.331231885253154E8 ; 1.7548640477215527E10 ; 0.0
96 ; 7875286.684932051 ; 2.0246373171300507E8 ; 7.410066380748E8 ; 1.775108727772021E10 ; 0.0
97 ; 7872969.595101984 ; 2.024806888002842E8 ; 7.48881924759732E8 ; 1.7953551009433216E10 ; 0.0
98 ; 7869749.201755946 ; 2.024976698910923E8 ; 7.56754894354834E8 ; 1.81560316982335E10 ; 0.0
99 ; 7869639.636706626 ; 2.0251467315499657E8 ; 7.6462464355659E8 ; 1.8358529368124596E10 ; 0.0
100 ; 7861605.096334994 ; 2.0253169680513403E8 ; 7.724942831932966E8 ; 1.856104404127959E10 ; 0.0
101 ; 7858619.87566884 ; 2.0254873909683043E8 ; 7.803558882896316E8 ; 1.8763575738084724E10 ; 0.0
102 ; 7855224.616147331 ; 2.025657983262625E8 ; 7.882145081653005E8 ; 1.8966124477181557E10 ; 0.0
103 ; 7855040.44158861 ; 2.0258287282916316E8 ; 7.960697327814478E8 ; 1.916869027550782E10 ; 0.0
104 ; 7850369.501124653 ; 2.0259996097956836E8 ; 8.039247732230364E8 ; 1.9371273148336983E10 ; 0.0
105 ; 7845468.396734829 ; 2.0261706118860444E8 ; 8.11775142724161E8 ; 1.957387310931655E10 ; 0.0
106 ; 7843144.528597036 ; 2.026341719033155E8 ; 8.196206111208959E8 ; 1.9776490170505157E10 ; 0.0
107 ; 7839486.409598882 ; 2.0265129160552925E8 ; 8.274637556494929E8 ; 1.9979124342408474E10 ; 0.0
108 ; 7836245.936598688 ; 2.0266841881076062E8 ; 8.353032420590917E8 ; 2.0181775634014004E10 ; 0.0
109 ; 7833686.335113524 ; 2.0268555206715178E8 ; 8.431394879956903E8 ; 2.0384444052824764E10 ; 0.0
110 ; 7830841.838847541 ; 2.0270268995444807E8 ; 8.509731743308039E8 ; 2.0587129604891914E10 ; 0.0
111 ; 7824458.200304039 ; 2.0271983108300796E8 ; 8.588040161696514E8 ; 2.0789832294846363E10 ; 0.0
112 ; 7821886.548192553 ; 2.0273697409284708E8 ; 8.666284743699554E8 ; 2.099255212592937E10 ; 0.0
113 ; 7817096.515006568 ; 2.0275411765271422E8 ; 8.744503609181479E8 ; 2.1195289100022217E10 ; 0.0
114 ; 7813221.144295327 ; 2.0277126045919916E8 ; 8.822674574331545E8 ; 2.139804321767493E10 ; 0.0
115 ; 7808207.435259329 ; 2.0278840123587093E8 ; 8.900806785774498E8 ; 2.160081447813413E10 ; 0.0
116 ; 7803157.929671213 ; 2.028055387324454E8 ; 8.978888860127091E8 ; 2.180360287937E10 ; 0.0
117 ; 7797961.639300682 ; 2.028226717239817E8 ; 9.056920439423803E8 ; 2.2006408418102444E10 ; 0.0
118 ; 7795102.402110634 ; 2.0283979901010624E8 ; 9.13490005581681E8 ; 2.2209231089826424E10 ; 0.0
119 ; 7791855.856238108 ; 2.028569194142633E8 ; 9.212851079837916E8 ; 2.241207088883653E10 ; 0.0
120 ; 7788186.3105372265 ; 2.0287403178299174E8 ; 9.290769638400297E8 ; 2.2614927808250793E10 ; 0.0
121 ; 7781650.353558943 ; 2.0289113498522627E8 ; 9.368651501505669E8 ; 2.2817801840033787E10 ; 0.0
122 ; 7776310.03567251 ; 2.0290822791162348E8 ; 9.446468005041258E8 ; 2.3020692975019012E10 ; 0.0
123 ; 7773857.3706866475 ; 2.029253094739105E8 ; 9.524231105397984E8 ; 2.3223601202930637E10 ; 0.0
124 ; 7771236.230156157 ; 2.0294237860425675E8 ; 9.60196967910485E8 ; 2.342652651240455E10 ; 0.0
125 ; 7761479.009072451 ; 2.02959434254667E8 ; 9.679682041406412E8 ; 2.3629468891008804E10 ; 0.0
126 ; 7758187.142855697 ; 2.0297647539639574E8 ; 9.757296831497136E8 ; 2.383242832526347E10 ; 0.0
127 ; 7753427.49292376 ; 2.029935010193815E8 ; 9.834878702925693E8 ; 2.4035404800659866E10 ; 0.0
128 ; 7748121.62449309 ; 2.0301051013170096E8 ; 9.91241297785493E8 ; 2.423839830167925E10 ; 0.0
129 ; 7744813.526458307 ; 2.0302750175904197E8 ; 9.989894194099861E8 ; 2.444140881181095E10 ; 0.0
130 ; 7737711.1021747 ; 2.0304447494419432E8 ; 1.0067342329364444E9 ; 2.4644436313569992E10 ; 0.0
131 ; 7730145.292603448 ; 2.0306142874655858E8 ; 1.0144719440386192E9 ; 2.4847480788514187E10 ; 0.0
132 ; 7720750.812015163 ; 2.0307836224167165E8 ; 1.0222020893312227E9 ; 2.5050542217260746E10 ; 0.0
133 ; 7713105.289414752 ; 2.0309527452074856E8 ; 1.0299228401432378E9 ; 2.525362057950242E10 ; 0.0
134 ; 7706508.509936008 ; 2.031121646902401E8 ; 1.0376359454326526E9 ; 2.5456715854023167E10 ; 0.0
135 ; 7698070.8514763815 ; 2.0312903187140572E8 ; 1.0453424539425886E9 ; 2.5659828018713406E10 ; 0.0
136 ; 7688335.009818579 ; 2.0314587519990095E8 ; 1.053040524794065E9 ; 2.5862957050584812E10 ; 0.0
137 ; 7680824.387473909 ; 2.031626938253789E8 ; 1.0607288598038836E9 ; 2.6066102925784714E10 ; 0.0
138 ; 7675013.021661204 ; 2.0317948691110554E8 ; 1.0684096841913575E9 ; 2.6269265619610092E10 ; 0.0
139 ; 7664478.114791729 ; 2.0319625363358796E8 ; 1.0760846972130187E9 ; 2.64724451065212E10 ; 0.0
140 ; 7658033.144295882 ; 2.0321299318221542E8 ; 1.0837491753278103E9 ; 2.6675641360154785E10 ; 0.0
141 ; 7649013.916028337 ; 2.0322970475891244E8 ; 1.0914072084721062E9 ; 2.6878854353337E10 ; 0.0
142 ; 7640323.30764419 ; 2.0324638757780382E8 ; 1.0990562223881345E9 ; 2.7082084058095913E10 ; 0.0
143 ; 7631636.915221912 ; 2.0326304086489087E8 ; 1.1066965456957786E9 ; 2.7285330445673717E10 ; 0.0
144 ; 7624625.862971483 ; 2.0327966385773867E8 ; 1.1143281826110005E9 ; 2.748859348653861E10 ; 0.0
145 ; 7614889.013222637 ; 2.0329625580517387E8 ; 1.121952808473972E9 ; 2.7691873150396347E10 ; 0.0
146 ; 7610994.8681421485 ; 2.0331281596699262E8 ; 1.1295676974871948E9 ; 2.7895169406201523E10 ; 0.0
147 ; 7604647.765010396 ; 2.0332934361367828E8 ; 1.137178692355337E9 ; 2.8098482222168514E10 ; 0.0
148 ; 7599928.4815248 ; 2.0334583802612874E8 ; 1.1447833401203473E9 ; 2.8301811565782192E10 ; 0.0
149 ; 7594595.202974947 ; 2.0336229849539262E8 ; 1.152383268601872E9 ; 2.850515740380832E10 ; 0.0
150 ; 7588381.317960673 ; 2.033787243224145E8 ; 1.159977863804847E9 ; 2.870851970230371E10 ; 0.0
151 ; 7585374.780743682 ; 2.033951148177885E8 ; 1.1675662451228077E9 ; 2.8911898426626125E10 ; 0.0
152 ; 7576748.195786553 ; 2.0341146930152014E8 ; 1.1751516199035513E9 ; 2.9115293541443913E10 ; 0.0
153 ; 7572500.329799836 ; 2.034277871027958E8 ; 1.1827283680993378E9 ; 2.9318705010745434E10 ; 0.0
154 ; 7566368.8289075345 ; 2.0344406755976033E8 ; 1.1903008684291377E9 ; 2.952213279784823E10 ; 0.0
155 ; 7559789.770918203 ; 2.0346031001930135E8 ; 1.1978672372580452E9 ; 2.972557686540799E10 ; 0.0
156 ; 7552435.372940329 ; 2.0347651383684126E8 ; 1.2054270270289633E9 ; 2.992903717542729E10 ; 0.0
157 ; 7546019.156832885 ; 2.0349267837613565E8 ; 1.2129794624019036E9 ; 3.0132513689264133E10 ; 0.0
158 ; 7540405.254433346 ; 2.0350880300907838E8 ; 1.2205254815587366E9 ; 3.033600636764027E10 ; 0.0
159 ; 7535049.16514086 ; 2.035248871155133E8 ; 1.22806588681317E9 ; 3.053951517064935E10 ; 0.0
160 ; 7528559.811399915 ; 2.0354093008305156E8 ; 1.2356009359783108E9 ; 3.0743040057764862E10 ; 0.0
161 ; 7525718.752259801 ; 2.0355693130689552E8 ; 1.2431294957897108E9 ; 3.094658098784791E10 ; 0.0
162 ; 7517458.7421400165 ; 2.0357289018966788E8 ; 1.2506552145419705E9 ; 3.1150137919154808E10 ; 0.0
163 ; 7512171.211557564 ; 2.0358880614124638E8 ; 1.2581726732841105E9 ; 3.1353710809344475E10 ; 0.0
164 ; 7507223.4591899635 ; 2.0360467857860407E8 ; 1.2656848444956682E9 ; 3.155729961548572E10 ; 0.0
165 ; 7500959.87926995 ; 2.0362050692565462E8 ; 1.273192067954858E9 ; 3.1760904294064327E10 ; 0.0
166 ; 7491697.983335126 ; 2.0363629061310235E8 ; 1.280693027834128E9 ; 3.1964524800989983E10 ; 0.0
167 ; 7486229.237345701 ; 2.0365202907829744E8 ; 1.288184725817463E9 ; 3.2168161091603085E10 ; 0.0
168 ; 7481253.241032873 ; 2.0366772176509547E8 ; 1.2956709550548086E9 ; 3.237181312068138E10 ; 0.0
169 ; 7474998.69889572 ; 2.036833681237217E8 ; 1.3031522082958415E9 ; 3.2575480842446476E10 ; 0.0
170 ; 7468998.3557504425 ; 2.0369896761063924E8 ; 1.3106272069947371E9 ; 3.2779164210570198E10 ; 0.0
171 ; 7461468.963382619 ; 2.0371451968842193E8 ; 1.3180962053504877E9 ; 3.2982863178180836E10 ; 0.0
172 ; 7453947.009791151 ; 2.0373002382563087E8 ; 1.3255576743138704E9 ; 3.318657769786926E10 ; 0.0
173 ; 7448092.162029118 ; 2.0374547949669483E8 ; 1.3330116213236616E9 ; 3.339030772169489E10 ; 0.0
174 ; 7446101.1115640635 ; 2.0376088618179473E8 ; 1.3404597134856906E9 ; 3.3594053201191586E10 ; 0.0
175 ; 7441308.713190195 ; 2.0377624336675143E8 ; 1.3479058145972548E9 ; 3.379781408737338E10 ; 0.0
176 ; 7438968.563360961 ; 2.0379155054291716E8 ; 1.3553471233104448E9 ; 3.400159033074013E10 ; 0.0
177 ; 7434041.107094545 ; 2.0380680720707035E8 ; 1.3627860918738058E9 ; 3.4205381881283047E10 ; 0.0
178 ; 7428775.164735897 ; 2.038220128613138E8 ; 1.3702201329809003E9 ; 3.440918868849012E10 ; 0.0
179 ; 7426649.563353014 ; 2.038371670129757E8 ; 1.377648908145636E9 ; 3.461301070135143E10 ; 0.0
180 ; 7420454.719063019 ; 2.0385226917451426E8 ; 1.3850755577089891E9 ; 3.481684786836441E10 ; 0.0
181 ; 7419009.777915664 ; 2.0386731886342478E8 ; 1.3924960124280522E9 ; 3.5020700137538925E10 ; 0.0
182 ; 7417790.21297188 ; 2.0388231560214975E8 ; 1.399915022205968E9 ; 3.522456745640235E10 ; 0.0
183 ; 7412614.025482217 ; 2.0389725891799203E8 ; 1.4073328124189398E9 ; 3.54284497720045E10 ; 0.0
184 ; 7403307.2304314235 ; 2.0391214834303012E8 ; 1.414745426444422E9 ; 3.563234703092249E10 ; 0.0
185 ; 7400723.868139436 ; 2.0392698341403648E8 ; 1.4221487336748533E9 ; 3.5836259179265526E10 ; 0.0
186 ; 7399074.221955628 ; 2.0394176367239824E8 ; 1.4295494575429928E9 ; 3.6040186162679565E10 ; 0.0
187 ; 7395032.240881941 ; 2.039564886640402E8 ; 1.4369485317649484E9 ; 3.624412792635197E10 ; 0.0
188 ; 7391704.007302796 ; 2.0397115793935037E8 ; 1.4443435640058303E9 ; 3.644808441501601E10 ; 0.0
189 ; 7384413.773839876 ; 2.0398577105310756E8 ; 1.451735268013133E9 ; 3.665205557295536E10 ; 0.0
190 ; 7383649.438254606 ; 2.0400032756441134E8 ; 1.459119681786973E9 ; 3.685604134400847E10 ; 0.0
191 ; 7377625.175130475 ; 2.0401482703661412E8 ; 1.4665033312252276E9 ; 3.706004167157288E10 ; 0.0
192 ; 7371492.786837891 ; 2.040292690372551E8 ; 1.473880956400358E9 ; 3.72640564986095E10 ; 0.0
193 ; 7366616.871475871 ; 2.040436531379964E8 ; 1.4812524491871958E9 ; 3.746808576764675E10 ; 0.0
194 ; 7367229.916363097 ; 2.0405797891456103E8 ; 1.4886190660586717E9 ; 3.7672129420784744E10 ; 0.0
195 ; 7362817.917637257 ; 2.0407224594667277E8 ; 1.4959862959750347E9 ; 3.78761873996993E10 ; 0.0
196 ; 7359492.932346391 ; 2.0408645381799772E8 ; 1.503349113892672E9 ; 3.808025964564597E10 ; 0.0
197 ; 7355298.966507232 ; 2.0410060211608788E8 ; 1.5107086068250184E9 ; 3.8284346099463974E10 ; 0.0
198 ; 7347880.570589872 ; 2.0411469043232596E8 ; 1.5180639057915256E9 ; 3.848844670158006E10 ; 0.0
199 ; 7346845.879830326 ; 2.0412871836187238E8 ; 1.5254117863621154E9 ; 3.869256139201239E10 ; 0.0
200 ; 7343529.348171648 ; 1.6622182271020958E8 ; 1.5327586322419457E9 ; 3.889669011037426E10 ; 0.0
