CSV File for the City 4 on Day 204
1 - Minute m 
2 - Power Consumed at minute m 
3 - Power Produced at minute m 
4 - Energy Consumed since the beginning of the day 
5 - Energy Produced since the beginning of the day 
6 - Energy Lost since the beginning of the day on lines starting from the city
 
0 ; 525223.2063532774 ; 1.0575800914478889E8 ; 0.0 ; 0.0 ; 0.0
1 ; 529466.2498399607 ; 1.0590769852993804E8 ; 525223.2063532774 ; 1.0575800914478889E8 ; 0.0
2 ; 538411.3054785682 ; 1.063664855389941E8 ; 1054689.456193238 ; 2.1166570767472693E8 ; 0.0
3 ; 548385.9783617799 ; 1.0713438026520401E8 ; 1593100.7616718062 ; 3.1803219321372104E8 ; 0.0
4 ; 556573.7891211269 ; 1.0821139191753268E8 ; 2141486.740033586 ; 4.2516657347892505E8 ; 0.0
5 ; 569540.28384627 ; 1.0959752871742117E8 ; 2698060.529154713 ; 5.3337796539645773E8 ; 0.0
6 ; 586982.0569551443 ; 1.1129279780271009E8 ; 3267600.8130009826 ; 6.42975494113879E8 ; 0.0
7 ; 612345.2999306995 ; 1.1329720514120674E8 ; 3854582.869956127 ; 7.54268291916589E8 ; 0.0
8 ; 647094.0382426584 ; 1.1561075545624709E8 ; 4466928.169886827 ; 8.675654970577958E8 ; 0.0
9 ; 698624.4898986428 ; 1.1823345216636765E8 ; 5114022.208129485 ; 9.831762525140429E8 ; 0.0
10 ; 774394.3419106753 ; 1.2116529734085882E8 ; 5812646.698028128 ; 1.1014097046804104E9 ; 0.0
11 ; 899614.6686179026 ; 1.2440629167254052E8 ; 6587041.039938803 ; 1.2225750020212693E9 ; 0.0
12 ; 1098994.3786048004 ; 1.279564344685928E8 ; 7486655.708556705 ; 1.3469812936938097E9 ; 0.0
13 ; 1289824.4869053434 ; 1.3181572365972525E8 ; 8585650.087161506 ; 1.4749377281624026E9 ; 0.0
14 ; 1314905.7229423209 ; 1.3598415582740146E8 ; 9875474.57406685 ; 1.6067534518221278E9 ; 0.0
15 ; 1322735.0302059927 ; 1.4046172624828535E8 ; 1.119038029700917E7 ; 1.7427376076495292E9 ; 0.0
16 ; 1333454.2793194621 ; 1.4524842895456973E8 ; 1.2513115327215163E7 ; 1.8831993338978145E9 ; 0.0
17 ; 1343663.840356193 ; 1.503442568084139E8 ; 1.3846569606534624E7 ; 2.0284477628523843E9 ; 0.0
18 ; 1355234.3823721204 ; 1.5574920158837682E8 ; 1.5190233446890818E7 ; 2.178792019660798E9 ; 0.0
19 ; 1361467.858474337 ; 1.614632540854936E8 ; 1.6545467829262938E7 ; 2.334541221249175E9 ; 0.0
20 ; 1372481.2245902475 ; 1.6748640420651725E8 ; 1.7906935687737275E7 ; 2.4960044753346686E9 ; 0.0
21 ; 1382395.0621241182 ; 1.738186410818254E8 ; 1.927941691232752E7 ; 2.663490879541186E9 ; 0.0
22 ; 1394045.4244535796 ; 1.804599531755715E8 ; 2.066181197445164E7 ; 2.837309520623011E9 ; 0.0
23 ; 1401686.5337237685 ; 1.8741032839581966E8 ; 2.2055857398905218E7 ; 3.0177694737985826E9 ; 0.0
24 ; 1413863.25606253 ; 1.946697542026297E8 ; 2.3457543932628985E7 ; 3.205179802194402E9 ; 0.0
25 ; 1424893.5872845289 ; 2.0092625861051702E8 ; 2.4871407188691515E7 ; 3.399849556397032E9 ; 0.0
26 ; 1431825.0403421063 ; 2.009333763243569E8 ; 2.6296300775976043E7 ; 3.600775815007549E9 ; 0.0
27 ; 1444354.4047347044 ; 2.009408633568821E8 ; 2.772812581631815E7 ; 3.801709191331906E9 ; 0.0
28 ; 1454609.416518053 ; 2.0094870636079264E8 ; 2.9172480221052855E7 ; 4.002650054688788E9 ; 0.0
29 ; 1463504.6845318612 ; 2.0095689199952802E8 ; 3.062708963757091E7 ; 4.2035987610495806E9 ; 0.0
30 ; 1472044.7003105325 ; 2.0096540701668912E8 ; 3.209059432210277E7 ; 4.4045556530491085E9 ; 0.0
31 ; 1484380.4268015572 ; 2.009742382972893E8 ; 3.3562639022413306E7 ; 4.605521060065798E9 ; 0.0
32 ; 1492589.3127866918 ; 2.0098337292095998E8 ; 3.504701944921486E7 ; 4.806495298363087E9 ; 0.0
33 ; 1500059.9761690076 ; 2.009927982073908E8 ; 3.653960876200155E7 ; 5.007478671284047E9 ; 0.0
34 ; 1512528.2220748528 ; 2.0100250175440496E8 ; 3.803966873817056E7 ; 5.208471469491438E9 ; 0.0
35 ; 1516598.0632320596 ; 2.010124714691559E8 ; 3.955219696024541E7 ; 5.409473971245843E9 ; 0.0
36 ; 1527907.9661183322 ; 2.0102269559299046E8 ; 4.1068795023477465E7 ; 5.610486442714999E9 ; 0.0
37 ; 1535541.0918467871 ; 2.0103316272055486E8 ; 4.25967029895958E7 ; 5.81150913830799E9 ; 0.0
38 ; 1543092.8464286015 ; 2.0104386181373248E8 ; 4.413224408144259E7 ; 6.012542301028545E9 ; 0.0
39 ; 1552410.2769445549 ; 2.0105478221099573E8 ; 4.567533692787119E7 ; 6.213586162842278E9 ; 0.0
40 ; 1559408.9799919613 ; 2.0106591363273668E8 ; 4.7227747204815745E7 ; 6.414640945053273E9 ; 0.0
41 ; 1565087.3556221565 ; 2.0107724618311262E8 ; 4.87871561848077E7 ; 6.61570685868601E9 ; 0.0
42 ; 1572974.8618039703 ; 2.0108877034890726E8 ; 5.035224354042986E7 ; 6.816784104869123E9 ; 0.0
43 ; 1580512.1001519747 ; 2.011004769958698E8 ; 5.192521840223383E7 ; 7.017872875218031E9 ; 0.0
44 ; 1587452.4499145155 ; 2.0111235736295253E8 ; 5.350573050238581E7 ; 7.218973352213901E9 ; 0.0
45 ; 1592775.5319329142 ; 2.011244030548254E8 ; 5.5093182952300325E7 ; 7.420085709576853E9 ; 0.0
46 ; 1596565.7859446798 ; 2.0113660603300506E8 ; 5.668595848423324E7 ; 7.621210112631679E9 ; 0.0
47 ; 1601501.4577200317 ; 2.0114895860589656E8 ; 5.8282524270177916E7 ; 7.822346718664683E9 ; 0.0
48 ; 1607164.1695482237 ; 2.0116145341800776E8 ; 5.988402572789795E7 ; 8.02349567727058E9 ; 0.0
49 ; 1612423.6609159068 ; 2.0117408343856245E8 ; 6.149118989744617E7 ; 8.224657130688588E9 ; 0.0
50 ; 1620605.5210351748 ; 2.0118684194970635E8 ; 6.3103613558362074E7 ; 8.425831214127151E9 ; 0.0
51 ; 1623293.6411611731 ; 2.0119972253447038E8 ; 6.4724219079397246E7 ; 8.627018056076857E9 ; 0.0
52 ; 1625240.9229939496 ; 2.012127190646312E8 ; 6.634751272055842E7 ; 8.828217778611326E9 ; 0.0
53 ; 1629577.4429067716 ; 2.0122582568858418E8 ; 6.797275364355236E7 ; 9.029430497675957E9 ; 0.0
54 ; 1632646.582502931 ; 2.0123903681932533E8 ; 6.960233108645913E7 ; 9.23065632336454E9 ; 0.0
55 ; 1639071.8826570406 ; 2.0125234712261942E8 ; 7.123497766896206E7 ; 9.431895360183865E9 ; 0.0
56 ; 1644278.0916933175 ; 2.0126575150541702E8 ; 7.28740495516191E7 ; 9.633147707306484E9 ; 0.0
57 ; 1646104.6342889923 ; 2.0127924510456944E8 ; 7.451832764331241E7 ; 9.834413458811901E9 ; 0.0
58 ; 1652498.1482679269 ; 2.012928232758788E8 ; 7.61644322776014E7 ; 1.003569270391647E10 ; 0.0
59 ; 1652597.22355685 ; 2.0130648158351117E8 ; 7.781693042586933E7 ; 1.0236985527192348E10 ; 0.0
60 ; 1657300.4128610962 ; 2.0132021578979236E8 ; 7.946952764942618E7 ; 1.043829200877586E10 ; 0.0
61 ; 1663467.4606206361 ; 2.013340218453984E8 ; 8.112682806228727E7 ; 1.0639612224565653E10 ; 0.0
62 ; 1663674.4888179542 ; 2.0134789587994784E8 ; 8.279029552290791E7 ; 1.084094624641105E10 ; 0.0
63 ; 1667764.798834271 ; 2.0136183419299784E8 ; 8.445397001172587E7 ; 1.1042294142290998E10 ; 0.0
64 ; 1672148.8137224126 ; 2.0137583324544168E8 ; 8.612173481056014E7 ; 1.1243655976483995E10 ; 0.0
65 ; 1674081.7102737087 ; 2.0138988965130296E8 ; 8.779388362428255E7 ; 1.1445031809729437E10 ; 0.0
66 ; 1679814.3501296616 ; 2.0140400016991895E8 ; 8.946796533455627E7 ; 1.164642169938074E10 ; 0.0
67 ; 1681368.8728626156 ; 2.0141816169850314E8 ; 9.114777968468593E7 ; 1.1847825699550657E10 ; 0.0
68 ; 1687749.7746267703 ; 2.014323712650762E8 ; 9.282914855754855E7 ; 1.204924386124916E10 ; 0.0
69 ; 1691477.3571349205 ; 2.014466260217531E8 ; 9.451689833217533E7 ; 1.2250676232514236E10 ; 0.0
70 ; 1693005.905060402 ; 2.0146092323837367E8 ; 9.620837568931025E7 ; 1.245212285853599E10 ; 0.0
71 ; 1695955.3727492455 ; 2.0147526029646266E8 ; 9.790138159437065E7 ; 1.2653583781774363E10 ; 0.0
72 ; 1699721.7636810998 ; 2.0148963468350583E8 ; 9.959733696711989E7 ; 1.2855059042070826E10 ; 0.0
73 ; 1701660.1477685403 ; 2.015040439875284E8 ; 1.0129705873080099E8 ; 1.3056548676754332E10 ; 0.0
74 ; 1703476.4867154977 ; 2.0151848589196163E8 ; 1.0299871887856953E8 ; 1.325805272074186E10 ; 0.0
75 ; 1707275.1417786612 ; 2.0153295817078426E8 ; 1.0470219536528502E8 ; 1.3459571206633821E10 ; 0.0
76 ; 1711127.8329398234 ; 2.0154745868392503E8 ; 1.0640947050706369E8 ; 1.3661104164804605E10 ; 0.0
77 ; 1714150.5172949333 ; 2.0156198537291363E8 ; 1.081205983400035E8 ; 1.3862651623488531E10 ; 0.0
78 ; 1713262.248689106 ; 2.015765362567671E8 ; 1.0983474885729843E8 ; 1.4064213608861444E10 ; 0.0
79 ; 1714781.255012009 ; 2.0159110942809957E8 ; 1.1154801110598753E8 ; 1.4265790145118212E10 ; 0.0
80 ; 1715954.0381413612 ; 2.0160570304944345E8 ; 1.1326279236099954E8 ; 1.446738125454631E10 ; 0.0
81 ; 1715284.67928711 ; 2.0162031534977084E8 ; 1.149787463991409E8 ; 1.4668986957595755E10 ; 0.0
82 ; 1718619.8328890984 ; 2.0163494462120417E8 ; 1.16694031078428E8 ; 1.4870607272945526E10 ; 0.0
83 ; 1715792.4846858343 ; 2.0164958921590602E8 ; 1.184126509113171E8 ; 1.507224221756673E10 ; 0.0
84 ; 1716810.769913764 ; 2.0166424754313782E8 ; 1.2012844339600293E8 ; 1.5273891806782637E10 ; 0.0
85 ; 1718276.848637711 ; 2.0167891806647855E8 ; 1.218452541659167E8 ; 1.5475556054325775E10 ; 0.0
86 ; 1716096.5057173148 ; 2.016935993011939E8 ; 1.2356353101455441E8 ; 1.5677234972392254E10 ; 0.0
87 ; 1717225.6150079789 ; 2.0170828981174818E8 ; 1.2527962752027172E8 ; 1.5878928571693447E10 ; 0.0
88 ; 1716544.0431563111 ; 2.017229882094502E8 ; 1.269968531352797E8 ; 1.6080636861505196E10 ; 0.0
89 ; 1718836.600368842 ; 2.0173769315022618E8 ; 1.2871339717843601E8 ; 1.6282359849714645E10 ; 0.0
90 ; 1717985.2634796093 ; 2.0175240333251226E8 ; 1.3043223377880485E8 ; 1.6484097542864872E10 ; 0.0
91 ; 1719131.4737687348 ; 2.0176711749525952E8 ; 1.3215021904228446E8 ; 1.6685849946197384E10 ; 0.0
92 ; 1717191.0698693532 ; 2.0178183441604576E8 ; 1.338693505160532E8 ; 1.6887617063692644E10 ; 0.0
93 ; 1716623.7307989914 ; 2.017965529092874E8 ; 1.3558654158592254E8 ; 1.708939889810869E10 ; 0.0
94 ; 1716510.3160201036 ; 2.018112718245463E8 ; 1.3730316531672153E8 ; 1.729119545101798E10 ; 0.0
95 ; 1714584.2241950715 ; 2.0182599004492584E8 ; 1.3901967563274163E8 ; 1.7493006722842525E10 ; 0.0
96 ; 1716159.6316676536 ; 2.0184070648555097E8 ; 1.407342598569367E8 ; 1.769483271288745E10 ; 0.0
97 ; 1717596.6441120564 ; 2.0185542009212828E8 ; 1.4245041948860434E8 ; 1.7896673419373E10 ; 0.0
98 ; 1714857.7156958538 ; 2.018701298395805E8 ; 1.441680161327164E8 ; 1.809852883946513E10 ; 0.0
99 ; 1714097.1133317736 ; 2.018848347307524E8 ; 1.4588287384841225E8 ; 1.830039896930471E10 ; 0.0
100 ; 1715991.975910161 ; 2.0189953379518294E8 ; 1.47596970961744E8 ; 1.850228380403546E10 ; 0.0
101 ; 1714107.8102820711 ; 2.0191422608794078E8 ; 1.4931296293765417E8 ; 1.8704183337830643E10 ; 0.0
102 ; 1713344.0281735067 ; 2.0192891068851924E8 ; 1.5102707074793625E8 ; 1.8906097563918583E10 ; 0.0
103 ; 1711684.1100449148 ; 2.019435866997875E8 ; 1.5274041477610976E8 ; 1.91080264746071E10 ; 0.0
104 ; 1711323.1379166404 ; 2.0195825324699494E8 ; 1.5445209888615468E8 ; 1.930997006130689E10 ; 0.0
105 ; 1709981.7076677273 ; 2.0197290947682548E8 ; 1.5616342202407134E8 ; 1.9511928314553883E10 ; 0.0
106 ; 1710579.9055494987 ; 2.019875545564994E8 ; 1.5787340373173907E8 ; 1.971390122403071E10 ; 0.0
107 ; 1709904.5571139972 ; 2.0200218767291996E8 ; 1.5958398363728857E8 ; 1.9915888778587208E10 ; 0.0
108 ; 1709351.8709654182 ; 2.0201680803186235E8 ; 1.6129388819440258E8 ; 2.0117890966260128E10 ; 0.0
109 ; 1707306.051267921 ; 2.0203141485720256E8 ; 1.63003240065368E8 ; 2.0319907774291992E10 ; 0.0
110 ; 1707146.802140029 ; 2.0204600739018416E8 ; 1.6471054611663592E8 ; 2.0521939189149197E10 ; 0.0
111 ; 1703803.6177981503 ; 2.0206058488872093E8 ; 1.6641769291877595E8 ; 2.072398519653938E10 ; 0.0
112 ; 1705951.1258776125 ; 2.0207514662673327E8 ; 1.681214965365741E8 ; 2.09260457814281E10 ; 0.0
113 ; 1702435.5035331969 ; 2.020896918935167E8 ; 1.698274476624517E8 ; 2.1128120928054832E10 ; 0.0
114 ; 1702966.2319266936 ; 2.0210421999314064E8 ; 1.715298831659849E8 ; 2.133021061994835E10 ; 0.0
115 ; 1701645.058589428 ; 2.0211873024387616E8 ; 1.7323284939791158E8 ; 2.153231483994149E10 ; 0.0
116 ; 1698939.4557747229 ; 2.021332219776505E8 ; 1.74934494456501E8 ; 2.1734433570185368E10 ; 0.0
117 ; 1698859.8621822956 ; 2.021476945395278E8 ; 1.7663343391227573E8 ; 2.1936566792163017E10 ; 0.0
118 ; 1695606.7713825584 ; 2.021621472872141E8 ; 1.7833229377445802E8 ; 2.2138714486702545E10 ; 0.0
119 ; 1693839.9121972302 ; 2.0217657959058535E8 ; 1.800279005458406E8 ; 2.2340876633989758E10 ; 0.0
120 ; 1696199.6546542114 ; 2.0219099083123758E8 ; 1.8172174045803782E8 ; 2.254305321358034E10 ; 0.0
121 ; 1693128.4317271889 ; 2.0220538040205786E8 ; 1.8341794011269203E8 ; 2.274524420441158E10 ; 0.0
122 ; 1688419.4687525248 ; 2.0221974770681477E8 ; 1.8511106854441923E8 ; 2.2947449584813637E10 ; 0.0
123 ; 1690897.9664453343 ; 2.0223409215976807E8 ; 1.8679948801317176E8 ; 2.314966933252045E10 ; 0.0
124 ; 1684469.3643830942 ; 2.0224841318529573E8 ; 1.884903859796171E8 ; 2.3351903424680218E10 ; 0.0
125 ; 1687308.6776915533 ; 2.0226271021753794E8 ; 1.901748553440002E8 ; 2.3554151837865513E10 ; 0.0
126 ; 1683340.3246822122 ; 2.022769827000574E8 ; 1.9186216402169174E8 ; 2.375641454808305E10 ; 0.0
127 ; 1684637.0697644502 ; 2.0229123008551458E8 ; 1.9354550434637395E8 ; 2.3958691530783108E10 ; 0.0
128 ; 1679950.102024864 ; 2.0230545183535752E8 ; 1.952301414161384E8 ; 2.416098276086862E10 ; 0.0
129 ; 1677922.0236639925 ; 2.0231964741952553E8 ; 1.9691009151816326E8 ; 2.436328821270398E10 ; 0.0
130 ; 1674101.9126305096 ; 2.023338163161657E8 ; 1.9858801354182726E8 ; 2.4565607860123505E10 ; 0.0
131 ; 1670424.1847688425 ; 2.0234795801136214E8 ; 2.0026211545445776E8 ; 2.476794167643967E10 ; 0.0
132 ; 1667705.3345345296 ; 2.0236207199887684E8 ; 2.0193253963922662E8 ; 2.4970289634451035E10 ; 0.0
133 ; 1663531.1669115764 ; 2.0237615777990195E8 ; 2.0360024497376114E8 ; 2.5172651706449913E10 ; 0.0
134 ; 1655049.7198090074 ; 2.0239021486282253E8 ; 2.052637761406727E8 ; 2.5375027864229816E10 ; 0.0
135 ; 1652608.6298844316 ; 2.024042427629899E8 ; 2.069188258604817E8 ; 2.557741807909264E10 ; 0.0
136 ; 1648708.3705404976 ; 2.0241824100250423E8 ; 2.0857143449036613E8 ; 2.577982232185563E10 ; 0.0
137 ; 1644094.6108736508 ; 2.0243220911000675E8 ; 2.1022014286090663E8 ; 2.598224056285813E10 ; 0.0
138 ; 1640193.7582759042 ; 2.0244614662048057E8 ; 2.1186423747178027E8 ; 2.618467277196814E10 ; 0.0
139 ; 1632906.3003405666 ; 2.0246005307506007E8 ; 2.1350443123005617E8 ; 2.638711891858862E10 ; 0.0
140 ; 1628020.3041471855 ; 2.0247392802084807E8 ; 2.1513733753039673E8 ; 2.658957897166368E10 ; 0.0
141 ; 1622567.2707615753 ; 2.0248777101074082E8 ; 2.167653578345439E8 ; 2.679205289968453E10 ; 0.0
142 ; 1619042.8346238122 ; 2.025015816032602E8 ; 2.183879251053055E8 ; 2.699454067069527E10 ; 0.0
143 ; 1615025.9589651958 ; 2.0251535936239284E8 ; 2.200069679399293E8 ; 2.719704225229853E10 ; 0.0
144 ; 1608862.590362999 ; 2.0252910385743597E8 ; 2.216219938988945E8 ; 2.7399557611660923E10 ; 0.0
145 ; 1606768.5316726984 ; 2.0254281466284946E8 ; 2.2323085648925748E8 ; 2.760208671551836E10 ; 0.0
146 ; 1602468.5202759632 ; 2.0255649135811397E8 ; 2.2483762502093017E8 ; 2.780462953018121E10 ; 0.0
147 ; 1601467.0652822154 ; 2.025701335275949E8 ; 2.2644009354120612E8 ; 2.800718602153932E10 ; 0.0
148 ; 1600064.7148015762 ; 2.0258374076041174E8 ; 2.2804156060648835E8 ; 2.8209756155066917E10 ; 0.0
149 ; 1599511.836371428 ; 2.0259731265031278E8 ; 2.2964162532128993E8 ; 2.8412339895827328E10 ; 0.0
150 ; 1597945.5665303215 ; 2.026108487955548E8 ; 2.3124113715766135E8 ; 2.8614937208477642E10 ; 0.0
151 ; 1595888.632863062 ; 2.0262434879878762E8 ; 2.3283908272419167E8 ; 2.8817548057273197E10 ; 0.0
152 ; 1591238.1606367256 ; 2.0263781226694316E8 ; 2.3443497135705474E8 ; 2.9020172406071983E10 ; 0.0
153 ; 1589853.887812929 ; 2.026512388111289E8 ; 2.3602620951769146E8 ; 2.922281021833893E10 ; 0.0
154 ; 1586933.5357380817 ; 2.026646280465257E8 ; 2.376160634055044E8 ; 2.942546145715006E10 ; 0.0
155 ; 1584678.5367455108 ; 2.026779795922893E8 ; 2.392029969412425E8 ; 2.9628126085196583E10 ; 0.0
156 ; 1581968.9331724958 ; 2.0269129307145616E8 ; 2.40787675477988E8 ; 2.983080406478887E10 ; 0.0
157 ; 1582194.1287412532 ; 2.0270456811085248E8 ; 2.423696444111605E8 ; 3.003349535786033E10 ; 0.0
158 ; 1577570.7111599073 ; 2.027178043410071E8 ; 2.4395183853990176E8 ; 3.023619992597118E10 ; 0.0
159 ; 1576080.7994284048 ; 2.0273100139606762E8 ; 2.4552940925106168E8 ; 3.0438917730312187E10 ; 0.0
160 ; 1573849.5528263114 ; 2.0274415891371965E8 ; 2.4710549005049008E8 ; 3.0641648731708256E10 ; 0.0
161 ; 1571591.654759882 ; 2.027572765351095E8 ; 2.486793396033164E8 ; 3.0844392890621975E10 ; 0.0
162 ; 1571305.3140786537 ; 2.0277035390476948E8 ; 2.5025093125807628E8 ; 3.1047150167157085E10 ; 0.0
163 ; 1568512.4632786468 ; 2.0278339067054623E8 ; 2.5182223657215494E8 ; 3.1249920521061855E10 ; 0.0
164 ; 1566374.7527006613 ; 2.0279638648353174E8 ; 2.533907490354336E8 ; 3.1452703911732403E10 ; 0.0
165 ; 1562121.6677432035 ; 2.0280934099799696E8 ; 2.5495712378813425E8 ; 3.1655500298215935E10 ; 0.0
166 ; 1561750.1371161833 ; 2.028222538713279E8 ; 2.5651924545587745E8 ; 3.1858309639213932E10 ; 0.0
167 ; 1557599.5679998666 ; 2.028351247639643E8 ; 2.5808099559299365E8 ; 3.206113189308526E10 ; 0.0
168 ; 1553378.7481360936 ; 2.0284795333934027E8 ; 2.5963859516099352E8 ; 3.2263967017849224E10 ; 0.0
169 ; 1551768.5377792085 ; 2.028607392638276E8 ; 2.6119197390912962E8 ; 3.2466814971188564E10 ; 0.0
170 ; 1552046.0673980447 ; 2.0287348220668063E8 ; 2.6274374244690883E8 ; 3.2669675710452393E10 ; 0.0
171 ; 1548464.9212032338 ; 2.0288618183998382E8 ; 2.6429578851430687E8 ; 3.2872549192659073E10 ; 0.0
172 ; 1547717.3346742825 ; 2.028988378386007E8 ; 2.658442534355101E8 ; 3.3075435374499058E10 ; 0.0
173 ; 1543060.3715387764 ; 2.029114498801249E8 ; 2.6739197077018437E8 ; 3.3278334212337658E10 ; 0.0
174 ; 1542293.9698670798 ; 2.0292401764483324E8 ; 2.6893503114172316E8 ; 3.348124566221778E10 ; 0.0
175 ; 1543137.665923608 ; 2.0293654081564012E8 ; 2.704773251115902E8 ; 3.3684169679862614E10 ; 0.0
176 ; 1538931.8082524505 ; 2.0294901907805386E8 ; 2.720204627775138E8 ; 3.3887106220678253E10 ; 0.0
177 ; 1538014.9293036787 ; 2.0296145212013462E8 ; 2.7355939458576626E8 ; 3.4090055239756306E10 ; 0.0
178 ; 1535315.493342781 ; 2.0297383963245374E8 ; 2.7509740951506996E8 ; 3.4293016691876442E10 ; 0.0
179 ; 1531417.1586899604 ; 2.029861813080547E8 ; 2.766327250084127E8 ; 3.4495990531508896E10 ; 0.0
180 ; 1534728.4517864455 ; 2.0299847684241524E8 ; 2.781641421671027E8 ; 3.469897671281695E10 ; 0.0
181 ; 1531019.6349239736 ; 2.0301072593341142E8 ; 2.7969887061888915E8 ; 3.490197518965936E10 ; 0.0
182 ; 1529364.4033466994 ; 2.030229282812822E8 ; 2.8122989025381315E8 ; 3.510498591559277E10 ; 0.0
183 ; 1528623.3011641172 ; 2.03035083588596E8 ; 2.8275925465715986E8 ; 3.5308008843874054E10 ; 0.0
184 ; 1527180.633467566 ; 2.0304719156021804E8 ; 2.8428787795832396E8 ; 3.551104392746265E10 ; 0.0
185 ; 1525581.0037580219 ; 2.030592519032791E8 ; 2.858150585917915E8 ; 3.5714091119022865E10 ; 0.0
186 ; 1523092.795268129 ; 2.0307126432714513E8 ; 2.873406395955495E8 ; 3.591715037092615E10 ; 0.0
187 ; 1522741.1360149118 ; 2.030832285433884E8 ; 2.8886373239081764E8 ; 3.6120221635253296E10 ; 0.0
188 ; 1519606.5046421075 ; 2.0309514426575908E8 ; 2.903864735268326E8 ; 3.6323304863796684E10 ; 0.0
189 ; 1518839.9745770586 ; 2.031070112101585E8 ; 2.919060800314747E8 ; 3.652640000806245E10 ; 0.0
190 ; 1516233.97660466 ; 2.031188290946128E8 ; 2.934249200060518E8 ; 3.6729507019272606E10 ; 0.0
191 ; 1514214.82402221 ; 2.0313059763924792E8 ; 2.949411539826564E8 ; 3.693262584836722E10 ; 0.0
192 ; 1512918.6160643469 ; 2.0314231656626517E8 ; 2.9645536880667865E8 ; 3.713575644600647E10 ; 0.0
193 ; 1511937.7416988604 ; 2.0315398559991804E8 ; 2.97968287422743E8 ; 3.733889876257274E10 ; 0.0
194 ; 1511863.7384188992 ; 2.0316560446648943E8 ; 2.994802251644419E8 ; 3.754205274817265E10 ; 0.0
195 ; 1508344.288469602 ; 2.0317717289427E8 ; 3.0099208890286076E8 ; 3.7745218352639145E10 ; 0.0
196 ; 1509388.9176732625 ; 2.0318869061353722E8 ; 3.025004331913304E8 ; 3.794839552553342E10 ; 0.0
197 ; 1505231.6927727854 ; 2.0320015735653502E8 ; 3.0400982210900366E8 ; 3.815158421614696E10 ; 0.0
198 ; 1503728.1150472392 ; 2.0321157285745436E8 ; 3.0551505380177647E8 ; 3.8354784373503494E10 ; 0.0
199 ; 1502771.8038739401 ; 2.032229368524144E8 ; 3.070187819168237E8 ; 3.855799594636095E10 ; 0.0
