CSV File for the City 2 on Day 3
1 - Minute m 
2 - Power Consumed at minute m 
3 - Power Produced at minute m 
4 - Energy Consumed since the beginning of the day 
5 - Energy Produced since the beginning of the day 
6 - Energy Lost since the beginning of the day on lines starting from the city
 
0 ; 1.0296705815609436E7 ; 1.2234531622241357E7 ; 0.0 ; 0.0 ; 0.0
1 ; 1.0307779500116508E7 ; 1.2234531622241357E7 ; 1.0296705815609436E7 ; 1.2234531622241357E7 ; 0.0
2 ; 1.0318364977554144E7 ; 1.2234531622241357E7 ; 2.0604485315725945E7 ; 2.4469063244482715E7 ; 0.0
3 ; 1.0331864703419924E7 ; 1.2234531622241357E7 ; 3.0922850293280087E7 ; 3.6703594866724074E7 ; 0.0
4 ; 1.0348249376758607E7 ; 1.2234531622241357E7 ; 4.125471499670001E7 ; 4.893812648896543E7 ; 0.0
5 ; 1.0364262855549447E7 ; 1.2234531622241357E7 ; 5.160296437345862E7 ; 6.1172658111206785E7 ; 0.0
6 ; 1.038864873134346E7 ; 1.2234531622241357E7 ; 6.196722722900806E7 ; 7.340718973344815E7 ; 0.0
7 ; 1.042384141428585E7 ; 1.2234531622241357E7 ; 7.235587596035153E7 ; 8.564172135568951E7 ; 0.0
8 ; 1.0475582322432924E7 ; 1.2234531622241357E7 ; 8.277971737463738E7 ; 9.787625297793087E7 ; 0.0
9 ; 1.0548558606425656E7 ; 1.2234531622241357E7 ; 9.32552996970703E7 ; 1.1011078460017224E8 ; 0.0
10 ; 1.0667178091689244E7 ; 1.2234531622241357E7 ; 1.0380385830349596E8 ; 1.223453162224136E8 ; 0.0
11 ; 1.0853525866371568E7 ; 1.2234531622241357E7 ; 1.144710363951852E8 ; 1.3457984784465495E8 ; 0.0
12 ; 1.1154863177707309E7 ; 1.2234531622241357E7 ; 1.2532456226155677E8 ; 1.468143794668963E8 ; 0.0
13 ; 1.144483911795767E7 ; 1.2234531622241357E7 ; 1.364794254392641E8 ; 1.5904891108913764E8 ; 0.0
14 ; 1.1477541317271482E7 ; 1.2234531622241357E7 ; 1.4792426455722177E8 ; 1.71283442711379E8 ; 0.0
15 ; 1.148962589315646E7 ; 1.2234531622241357E7 ; 1.5940180587449324E8 ; 1.8351797433362034E8 ; 0.0
16 ; 1.1504610441811966E7 ; 1.2234531622241357E7 ; 1.708914317676497E8 ; 1.957525059558617E8 ; 0.0
17 ; 1.1519601327250097E7 ; 1.2234531622241357E7 ; 1.823960422094617E8 ; 2.0798703757810304E8 ; 0.0
18 ; 1.1530898669660851E7 ; 1.2234531622241357E7 ; 1.9391564353671178E8 ; 2.2022156920034438E8 ; 0.0
19 ; 1.1546410904626356E7 ; 1.2234531622241357E7 ; 2.0544654220637262E8 ; 2.3245610082258573E8 ; 0.0
20 ; 1.155765859914115E7 ; 1.2234531622241357E7 ; 2.16992953110999E8 ; 2.4469063244482708E8 ; 0.0
21 ; 1.157203312435715E7 ; 1.2234531622241357E7 ; 2.2855061171014014E8 ; 2.5692516406706843E8 ; 0.0
22 ; 1.1585094924685089E7 ; 1.2234531622241357E7 ; 2.401226448344973E8 ; 2.691596956893098E8 ; 0.0
23 ; 1.1598561703959428E7 ; 1.2234531622241357E7 ; 2.517077397591824E8 ; 2.8139422731155115E8 ; 0.0
24 ; 1.161341053318547E7 ; 1.2234531622241357E7 ; 2.6330630146314183E8 ; 2.9362875893379253E8 ; 0.0
25 ; 1.162318465608762E7 ; 1.2234531622241357E7 ; 2.749197119963273E8 ; 3.058632905560339E8 ; 0.0
26 ; 1.1637610025946455E7 ; 1.2234531622241357E7 ; 2.865428966524149E8 ; 3.180978221782753E8 ; 0.0
27 ; 1.1651356347061714E7 ; 1.2234531622241357E7 ; 2.9818050667836136E8 ; 3.3033235380051666E8 ; 0.0
28 ; 1.166512863157641E7 ; 1.2234531622241357E7 ; 3.0983186302542305E8 ; 3.4256688542275804E8 ; 0.0
29 ; 1.1676519097227016E7 ; 1.2234531622241357E7 ; 3.2149699165699947E8 ; 3.548014170449994E8 ; 0.0
30 ; 1.1692121543471059E7 ; 1.2234531622241357E7 ; 3.331735107542265E8 ; 3.670359486672408E8 ; 0.0
31 ; 1.1701426123032613E7 ; 1.2234531622241357E7 ; 3.4486563229769754E8 ; 3.792704802894822E8 ; 0.0
32 ; 1.1713107724127889E7 ; 1.2234531622241357E7 ; 3.565670584207302E8 ; 3.9150501191172355E8 ; 0.0
33 ; 1.1725177345531084E7 ; 1.2234531622241357E7 ; 3.6828016614485806E8 ; 4.0373954353396493E8 ; 0.0
34 ; 1.1736842751382543E7 ; 1.2234531622241357E7 ; 3.8000534349038917E8 ; 4.159740751562063E8 ; 0.0
35 ; 1.1744922684801742E7 ; 1.2234531622241357E7 ; 3.917421862417717E8 ; 4.282086067784477E8 ; 0.0
36 ; 1.175769475256408E7 ; 1.2234531622241357E7 ; 4.0348710892657346E8 ; 4.4044313840068907E8 ; 0.0
37 ; 1.1767631262654768E7 ; 1.2234531622241357E7 ; 4.152448036791375E8 ; 4.5267767002293044E8 ; 0.0
38 ; 1.177766159246777E7 ; 1.2234531622241357E7 ; 4.270124349417923E8 ; 4.649122016451718E8 ; 0.0
39 ; 1.1788361332540223E7 ; 1.2234531622241357E7 ; 4.387900965342601E8 ; 4.771467332674132E8 ; 0.0
40 ; 1.1795466230976475E7 ; 1.2234531622241357E7 ; 4.505784578668003E8 ; 4.893812648896546E8 ; 0.0
41 ; 1.1802061743705733E7 ; 1.2234531622241357E7 ; 4.623739240977768E8 ; 5.0161579651189595E8 ; 0.0
42 ; 1.1809959814590288E7 ; 1.2234531622241357E7 ; 4.741759858414825E8 ; 5.1385032813413733E8 ; 0.0
43 ; 1.1820401396366073E7 ; 1.2234531622241357E7 ; 4.859859456560728E8 ; 5.260848597563787E8 ; 0.0
44 ; 1.1828535260804264E7 ; 1.2234531622241357E7 ; 4.9780634705243886E8 ; 5.3831939137862E8 ; 0.0
45 ; 1.1833419630381819E7 ; 1.2234531622241357E7 ; 5.096348823132431E8 ; 5.505539230008614E8 ; 0.0
46 ; 1.1837632485767478E7 ; 1.2234531622241357E7 ; 5.214683019436249E8 ; 5.627884546231028E8 ; 0.0
47 ; 1.1845657754054623E7 ; 1.2234531622241357E7 ; 5.333059344293924E8 ; 5.750229862453442E8 ; 0.0
48 ; 1.1849266772411378E7 ; 1.2234531622241357E7 ; 5.45151592183447E8 ; 5.872575178675855E8 ; 0.0
49 ; 1.1853023304899475E7 ; 1.2234531622241357E7 ; 5.570008589558583E8 ; 5.994920494898269E8 ; 0.0
50 ; 1.1857730787661782E7 ; 1.2234531622241357E7 ; 5.688538822607578E8 ; 6.117265811120683E8 ; 0.0
51 ; 1.1860323624172956E7 ; 1.2234531622241357E7 ; 5.807116130484196E8 ; 6.239611127343097E8 ; 0.0
52 ; 1.1864609977879943E7 ; 1.2234531622241357E7 ; 5.925719366725925E8 ; 6.36195644356551E8 ; 0.0
53 ; 1.1865622708319388E7 ; 1.2234531622241357E7 ; 6.044365466504725E8 ; 6.484301759787924E8 ; 0.0
54 ; 1.18707130850799E7 ; 1.2234531622241357E7 ; 6.16302169358792E8 ; 6.606647076010338E8 ; 0.0
55 ; 1.1873908498911511E7 ; 1.2234531622241357E7 ; 6.281728824438719E8 ; 6.728992392232752E8 ; 0.0
56 ; 1.1873565300413268E7 ; 1.2234531622241357E7 ; 6.400467909427834E8 ; 6.851337708455166E8 ; 0.0
57 ; 1.1882992519802354E7 ; 1.2234531622241357E7 ; 6.519203562431966E8 ; 6.973683024677579E8 ; 0.0
58 ; 1.1880562151166487E7 ; 1.2234531622241357E7 ; 6.638033487629989E8 ; 7.096028340899993E8 ; 0.0
59 ; 1.1880990900758872E7 ; 1.2234531622241357E7 ; 6.756839109141654E8 ; 7.218373657122407E8 ; 0.0
60 ; 1.1890649493458573E7 ; 1.2234531622241357E7 ; 6.875649018149242E8 ; 7.340718973344821E8 ; 0.0
61 ; 1.1890505552158827E7 ; 1.2234531622241357E7 ; 6.994555513083829E8 ; 7.463064289567235E8 ; 0.0
62 ; 1.1891301161643876E7 ; 1.2234531622241357E7 ; 7.113460568605417E8 ; 7.585409605789648E8 ; 0.0
63 ; 1.1894877528910145E7 ; 1.2234531622241357E7 ; 7.232373580221856E8 ; 7.707754922012062E8 ; 0.0
64 ; 1.189731436384778E7 ; 1.2234531622241357E7 ; 7.351322355510957E8 ; 7.830100238234476E8 ; 0.0
65 ; 1.1898017051350806E7 ; 1.2234531622241357E7 ; 7.470295499149435E8 ; 7.95244555445689E8 ; 0.0
66 ; 1.1898255361867344E7 ; 1.2234531622241357E7 ; 7.589275669662943E8 ; 8.074790870679303E8 ; 0.0
67 ; 1.1900556186892215E7 ; 1.2234531622241357E7 ; 7.708258223281616E8 ; 8.197136186901717E8 ; 0.0
68 ; 1.1901338175774252E7 ; 1.2234531622241357E7 ; 7.827263785150539E8 ; 8.319481503124131E8 ; 0.0
69 ; 1.1905060833255805E7 ; 1.2234531622241357E7 ; 7.946277166908281E8 ; 8.441826819346545E8 ; 0.0
70 ; 1.1904187569692353E7 ; 1.2234531622241357E7 ; 8.065327775240839E8 ; 8.564172135568959E8 ; 0.0
71 ; 1.1904814614358675E7 ; 1.2234531622241357E7 ; 8.184369650937762E8 ; 8.686517451791372E8 ; 0.0
72 ; 1.190350174614558E7 ; 1.2234531622241357E7 ; 8.303417797081349E8 ; 8.808862768013786E8 ; 0.0
73 ; 1.1907984213035282E7 ; 1.2234531622241357E7 ; 8.422452814542805E8 ; 8.9312080842362E8 ; 0.0
74 ; 1.1906668242205026E7 ; 1.2234531622241357E7 ; 8.541532656673157E8 ; 9.053553400458614E8 ; 0.0
75 ; 1.191017128114165E7 ; 1.2234531622241357E7 ; 8.660599339095207E8 ; 9.175898716681027E8 ; 0.0
76 ; 1.191255044301554E7 ; 1.2234531622241357E7 ; 8.779701051906624E8 ; 9.298244032903441E8 ; 0.0
77 ; 1.1909477649962759E7 ; 1.2234531622241357E7 ; 8.89882655633678E8 ; 9.420589349125855E8 ; 0.0
78 ; 1.1910814489773706E7 ; 1.2234531622241357E7 ; 9.017921332836407E8 ; 9.542934665348269E8 ; 0.0
79 ; 1.1904319007298939E7 ; 1.2234531622241357E7 ; 9.137029477734145E8 ; 9.665279981570683E8 ; 0.0
80 ; 1.190345806467021E7 ; 1.2234531622241357E7 ; 9.256072667807134E8 ; 9.787625297793096E8 ; 0.0
81 ; 1.1896559264563093E7 ; 1.2234531622241357E7 ; 9.375107248453836E8 ; 9.90997061401551E8 ; 0.0
82 ; 1.1896801899364082E7 ; 1.2234531622241357E7 ; 9.494072841099467E8 ; 1.0032315930237924E9 ; 0.0
83 ; 1.189163928447459E7 ; 1.2234531622241357E7 ; 9.613040860093108E8 ; 1.0154661246460338E9 ; 0.0
84 ; 1.1889249696412608E7 ; 1.2234531622241357E7 ; 9.731957252937855E8 ; 1.0277006562682751E9 ; 0.0
85 ; 1.1884122219416147E7 ; 1.2234531622241357E7 ; 9.85084974990198E8 ; 1.0399351878905165E9 ; 0.0
86 ; 1.1877329036284147E7 ; 1.2234531622241357E7 ; 9.969690972096142E8 ; 1.0521697195127579E9 ; 0.0
87 ; 1.187979964617134E7 ; 1.2234531622241357E7 ; 1.0088464262458982E9 ; 1.0644042511349993E9 ; 0.0
88 ; 1.1871496509590486E7 ; 1.2234531622241357E7 ; 1.0207262258920696E9 ; 1.0766387827572405E9 ; 0.0
89 ; 1.1868850156952921E7 ; 1.2234531622241357E7 ; 1.0325977224016601E9 ; 1.0888733143794818E9 ; 0.0
90 ; 1.1862473265495796E7 ; 1.2234531622241357E7 ; 1.0444665725586131E9 ; 1.101107846001723E9 ; 0.0
91 ; 1.1856723734872177E7 ; 1.2234531622241357E7 ; 1.0563290458241088E9 ; 1.1133423776239643E9 ; 0.0
92 ; 1.1855682804537782E7 ; 1.2234531622241357E7 ; 1.0681857695589811E9 ; 1.1255769092462056E9 ; 0.0
93 ; 1.1849587151779348E7 ; 1.2234531622241357E7 ; 1.080041452363519E9 ; 1.1378114408684468E9 ; 0.0
94 ; 1.1848585596011007E7 ; 1.2234531622241357E7 ; 1.0918910395152984E9 ; 1.150045972490688E9 ; 0.0
95 ; 1.18410954480549E7 ; 1.2234531622241357E7 ; 1.1037396251113093E9 ; 1.1622805041129293E9 ; 0.0
96 ; 1.183717588719767E7 ; 1.2234531622241357E7 ; 1.115580720559364E9 ; 1.1745150357351706E9 ; 0.0
97 ; 1.1830231343585702E7 ; 1.2234531622241357E7 ; 1.1274178964465618E9 ; 1.1867495673574119E9 ; 0.0
98 ; 1.1822980252913332E7 ; 1.2234531622241357E7 ; 1.1392481277901475E9 ; 1.1989840989796531E9 ; 0.0
99 ; 1.1821259714475956E7 ; 1.2234531622241357E7 ; 1.1510711080430608E9 ; 1.2112186306018944E9 ; 0.0
100 ; 1.1816054582715308E7 ; 1.2234531622241357E7 ; 1.1628923677575366E9 ; 1.2234531622241356E9 ; 0.0
101 ; 1.1812633551936187E7 ; 1.2234531622241357E7 ; 1.174708422340252E9 ; 1.235687693846377E9 ; 0.0
102 ; 1.1800268618661836E7 ; 1.2234531622241357E7 ; 1.186521055892188E9 ; 1.2479222254686182E9 ; 0.0
103 ; 1.1797039068495048E7 ; 1.2234531622241357E7 ; 1.19832132451085E9 ; 1.2601567570908594E9 ; 0.0
104 ; 1.1792650350267807E7 ; 1.2234531622241357E7 ; 1.210118363579345E9 ; 1.2723912887131007E9 ; 0.0
105 ; 1.1785207756809393E7 ; 1.2234531622241357E7 ; 1.2219110139296129E9 ; 1.284625820335342E9 ; 0.0
106 ; 1.1779959774296723E7 ; 1.2234531622241357E7 ; 1.2336962216864223E9 ; 1.2968603519575832E9 ; 0.0
107 ; 1.1774766656057518E7 ; 1.2234531622241357E7 ; 1.245476181460719E9 ; 1.3090948835798244E9 ; 0.0
108 ; 1.1763372196359564E7 ; 1.2234531622241357E7 ; 1.2572509481167767E9 ; 1.3213294152020657E9 ; 0.0
109 ; 1.1757110199031582E7 ; 1.2234531622241357E7 ; 1.2690143203131363E9 ; 1.333563946824307E9 ; 0.0
110 ; 1.1759277543049023E7 ; 1.2234531622241357E7 ; 1.280771430512168E9 ; 1.3457984784465482E9 ; 0.0
111 ; 1.1748248657757007E7 ; 1.2234531622241357E7 ; 1.292530708055217E9 ; 1.3580330100687895E9 ; 0.0
112 ; 1.1739516476742523E7 ; 1.2234531622241357E7 ; 1.304278956712974E9 ; 1.3702675416910307E9 ; 0.0
113 ; 1.1734107167379519E7 ; 1.2234531622241357E7 ; 1.3160184731897166E9 ; 1.382502073313272E9 ; 0.0
114 ; 1.1723646544640856E7 ; 1.2234531622241357E7 ; 1.3277525803570962E9 ; 1.3947366049355133E9 ; 0.0
115 ; 1.1721106887199169E7 ; 1.2234531622241357E7 ; 1.339476226901737E9 ; 1.4069711365577545E9 ; 0.0
116 ; 1.1714151498264989E7 ; 1.2234531622241357E7 ; 1.3511973337889361E9 ; 1.4192056681799958E9 ; 0.0
117 ; 1.1706366286083814E7 ; 1.2234531622241357E7 ; 1.3629114852872012E9 ; 1.431440199802237E9 ; 0.0
118 ; 1.1697483312857086E7 ; 1.2234531622241357E7 ; 1.3746178515732849E9 ; 1.4436747314244783E9 ; 0.0
119 ; 1.1690667541228598E7 ; 1.2234531622241357E7 ; 1.386315334886142E9 ; 1.4559092630467196E9 ; 0.0
120 ; 1.1684994600638408E7 ; 1.2234531622241357E7 ; 1.3980060024273705E9 ; 1.4681437946689608E9 ; 0.0
121 ; 1.167019930122758E7 ; 1.2234531622241357E7 ; 1.409690997028009E9 ; 1.480378326291202E9 ; 0.0
122 ; 1.166810501502801E7 ; 1.2234531622241357E7 ; 1.4213611963292365E9 ; 1.4926128579134433E9 ; 0.0
123 ; 1.1658890734415058E7 ; 1.2234531622241357E7 ; 1.4330293013442645E9 ; 1.5048473895356846E9 ; 0.0
124 ; 1.1652636096050858E7 ; 1.2234531622241357E7 ; 1.4446881920786796E9 ; 1.5170819211579258E9 ; 0.0
125 ; 1.1642247990500497E7 ; 1.2234531622241357E7 ; 1.4563408281747303E9 ; 1.529316452780167E9 ; 0.0
126 ; 1.1635016725931885E7 ; 1.2234531622241357E7 ; 1.4679830761652308E9 ; 1.5415509844024084E9 ; 0.0
127 ; 1.1625229540701449E7 ; 1.2234531622241357E7 ; 1.4796180928911626E9 ; 1.5537855160246496E9 ; 0.0
128 ; 1.1618010083099617E7 ; 1.2234531622241357E7 ; 1.491243322431864E9 ; 1.5660200476468909E9 ; 0.0
129 ; 1.1605401876734264E7 ; 1.2234531622241357E7 ; 1.5028613325149636E9 ; 1.5782545792691321E9 ; 0.0
130 ; 1.159400714429132E7 ; 1.2234531622241357E7 ; 1.514466734391698E9 ; 1.5904891108913734E9 ; 0.0
131 ; 1.1583689508033007E7 ; 1.2234531622241357E7 ; 1.5260607415359893E9 ; 1.6027236425136147E9 ; 0.0
132 ; 1.1573324588300664E7 ; 1.2234531622241357E7 ; 1.5376444310440223E9 ; 1.614958174135856E9 ; 0.0
133 ; 1.1560718928831747E7 ; 1.2234531622241357E7 ; 1.549217755632323E9 ; 1.6271927057580972E9 ; 0.0
134 ; 1.1545900501045315E7 ; 1.2234531622241357E7 ; 1.5607784745611548E9 ; 1.6394272373803384E9 ; 0.0
135 ; 1.153460515176681E7 ; 1.2234531622241357E7 ; 1.5723243750622E9 ; 1.6516617690025797E9 ; 0.0
136 ; 1.1522766568731852E7 ; 1.2234531622241357E7 ; 1.5838589802139668E9 ; 1.663896300624821E9 ; 0.0
137 ; 1.150958893688037E7 ; 1.2234531622241357E7 ; 1.5953817467826986E9 ; 1.6761308322470622E9 ; 0.0
138 ; 1.1495498214822074E7 ; 1.2234531622241357E7 ; 1.606891335719579E9 ; 1.6883653638693035E9 ; 0.0
139 ; 1.1480267907352809E7 ; 1.2234531622241357E7 ; 1.618386833934401E9 ; 1.7005998954915447E9 ; 0.0
140 ; 1.1464962335781652E7 ; 1.2234531622241357E7 ; 1.629867101841754E9 ; 1.712834427113786E9 ; 0.0
141 ; 1.1451613193390334E7 ; 1.2234531622241357E7 ; 1.6413320641775355E9 ; 1.7250689587360272E9 ; 0.0
142 ; 1.1438323591310231E7 ; 1.2234531622241357E7 ; 1.652783677370926E9 ; 1.7373034903582685E9 ; 0.0
143 ; 1.142815643519376E7 ; 1.2234531622241357E7 ; 1.6642220009622362E9 ; 1.7495380219805098E9 ; 0.0
144 ; 1.1411631918070376E7 ; 1.2234531622241357E7 ; 1.67565015739743E9 ; 1.761772553602751E9 ; 0.0
145 ; 1.1402945917086491E7 ; 1.2234531622241357E7 ; 1.6870617893155003E9 ; 1.7740070852249923E9 ; 0.0
146 ; 1.1397629332052894E7 ; 1.2234531622241357E7 ; 1.6984647352325869E9 ; 1.7862416168472335E9 ; 0.0
147 ; 1.1383137135040207E7 ; 1.2234531622241357E7 ; 1.7098623645646398E9 ; 1.7984761484694748E9 ; 0.0
148 ; 1.1371091162150567E7 ; 1.2234531622241357E7 ; 1.72124550169968E9 ; 1.810710680091716E9 ; 0.0
149 ; 1.1364714917011106E7 ; 1.2234531622241357E7 ; 1.7326165928618307E9 ; 1.8229452117139573E9 ; 0.0
150 ; 1.1353864690711912E7 ; 1.2234531622241357E7 ; 1.7439813077788417E9 ; 1.8351797433361986E9 ; 0.0
151 ; 1.1344540024494814E7 ; 1.2234531622241357E7 ; 1.7553351724695537E9 ; 1.8474142749584398E9 ; 0.0
152 ; 1.1335729120169267E7 ; 1.2234531622241357E7 ; 1.7666797124940486E9 ; 1.859648806580681E9 ; 0.0
153 ; 1.1324519170813637E7 ; 1.2234531622241357E7 ; 1.7780154416142178E9 ; 1.8718833382029223E9 ; 0.0
154 ; 1.1315665545276668E7 ; 1.2234531622241357E7 ; 1.7893399607850313E9 ; 1.8841178698251636E9 ; 0.0
155 ; 1.1303708667269351E7 ; 1.2234531622241357E7 ; 1.800655626330308E9 ; 1.8963524014474049E9 ; 0.0
156 ; 1.129508273360972E7 ; 1.2234531622241357E7 ; 1.8119593349975774E9 ; 1.9085869330696461E9 ; 0.0
157 ; 1.1285750718418382E7 ; 1.2234531622241357E7 ; 1.823254417731187E9 ; 1.9208214646918874E9 ; 0.0
158 ; 1.1277254688071046E7 ; 1.2234531622241357E7 ; 1.8345401684496055E9 ; 1.9330559963141286E9 ; 0.0
159 ; 1.1265117197307914E7 ; 1.2234531622241357E7 ; 1.8458174231376765E9 ; 1.94529052793637E9 ; 0.0
160 ; 1.1252607124677287E7 ; 1.2234531622241357E7 ; 1.8570825403349843E9 ; 1.9575250595586112E9 ; 0.0
161 ; 1.1247548492393909E7 ; 1.2234531622241357E7 ; 1.8683351474596615E9 ; 1.9697595911808524E9 ; 0.0
162 ; 1.1235433488048157E7 ; 1.2234531622241357E7 ; 1.8795826959520555E9 ; 1.9819941228030937E9 ; 0.0
163 ; 1.122750870072773E7 ; 1.2234531622241357E7 ; 1.8908181294401035E9 ; 1.994228654425335E9 ; 0.0
164 ; 1.1218840520576257E7 ; 1.2234531622241357E7 ; 1.9020456381408312E9 ; 2.0064631860475762E9 ; 0.0
165 ; 1.1202173569026029E7 ; 1.2234531622241357E7 ; 1.9132644786614075E9 ; 2.0186977176698174E9 ; 0.0
166 ; 1.1192322004386684E7 ; 1.2234531622241357E7 ; 1.9244666522304335E9 ; 2.0309322492920587E9 ; 0.0
167 ; 1.1185042104038354E7 ; 1.2234531622241357E7 ; 1.9356589742348201E9 ; 2.0431667809143E9 ; 0.0
168 ; 1.1176727605085282E7 ; 1.2234531622241357E7 ; 1.9468440163388584E9 ; 2.0554013125365412E9 ; 0.0
169 ; 1.1162175634689713E7 ; 1.2234531622241357E7 ; 1.9580207439439437E9 ; 2.0676358441587825E9 ; 0.0
170 ; 1.1155828010249062E7 ; 1.2234531622241357E7 ; 1.9691829195786335E9 ; 2.0798703757810237E9 ; 0.0
171 ; 1.1139880705485094E7 ; 1.2234531622241357E7 ; 1.9803387475888827E9 ; 2.092104907403265E9 ; 0.0
172 ; 1.1129189216466485E7 ; 1.2234531622241357E7 ; 1.9914786282943678E9 ; 2.1043394390255063E9 ; 0.0
173 ; 1.112209229591197E7 ; 1.2234531622241357E7 ; 2.0026078175108342E9 ; 2.1165739706477475E9 ; 0.0
174 ; 1.1112209410745287E7 ; 1.2234531622241357E7 ; 2.0137299098067462E9 ; 2.1288085022699888E9 ; 0.0
175 ; 1.1107824850435108E7 ; 1.2234531622241357E7 ; 2.0248421192174916E9 ; 2.14104303389223E9 ; 0.0
176 ; 1.1100830164359303E7 ; 1.2234531622241357E7 ; 2.0359499440679266E9 ; 2.1532775655144715E9 ; 0.0
177 ; 1.1095869561668918E7 ; 1.2234531622241357E7 ; 2.047050774232286E9 ; 2.165512097136713E9 ; 0.0
178 ; 1.1087057758816533E7 ; 1.2234531622241357E7 ; 2.0581466437939548E9 ; 2.1777466287589545E9 ; 0.0
179 ; 1.1080498253139142E7 ; 1.2234531622241357E7 ; 2.0692337015527713E9 ; 2.189981160381196E9 ; 0.0
180 ; 1.1074261984077906E7 ; 1.2234531622241357E7 ; 2.0803141998059106E9 ; 2.2022156920034375E9 ; 0.0
181 ; 1.1067358457431711E7 ; 1.2234531622241357E7 ; 2.0913884617899885E9 ; 2.214450223625679E9 ; 0.0
182 ; 1.1063202544809055E7 ; 1.2234531622241357E7 ; 2.1024558202474203E9 ; 2.2266847552479205E9 ; 0.0
183 ; 1.1054463507114971E7 ; 1.2234531622241357E7 ; 2.1135190227922294E9 ; 2.238919286870162E9 ; 0.0
184 ; 1.1048725284966137E7 ; 1.2234531622241357E7 ; 2.1245734862993443E9 ; 2.2511538184924035E9 ; 0.0
185 ; 1.104102051680669E7 ; 1.2234531622241357E7 ; 2.1356222115843105E9 ; 2.263388350114645E9 ; 0.0
186 ; 1.1035112408487918E7 ; 1.2234531622241357E7 ; 2.1466632321011171E9 ; 2.2756228817368865E9 ; 0.0
187 ; 1.1031663273893211E7 ; 1.2234531622241357E7 ; 2.157698344509605E9 ; 2.287857413359128E9 ; 0.0
188 ; 1.1021911544721207E7 ; 1.2234531622241357E7 ; 2.1687300077834983E9 ; 2.3000919449813695E9 ; 0.0
189 ; 1.1017162350674476E7 ; 1.2234531622241357E7 ; 2.1797519193282194E9 ; 2.312326476603611E9 ; 0.0
190 ; 1.100795465812448E7 ; 1.2234531622241357E7 ; 2.190769081678894E9 ; 2.3245610082258525E9 ; 0.0
191 ; 1.1001667614403004E7 ; 1.2234531622241357E7 ; 2.2017770363370185E9 ; 2.336795539848094E9 ; 0.0
192 ; 1.09970258961773E7 ; 1.2234531622241357E7 ; 2.2127787039514213E9 ; 2.3490300714703355E9 ; 0.0
193 ; 1.0988205295753144E7 ; 1.2234531622241357E7 ; 2.2237757298475986E9 ; 2.361264603092577E9 ; 0.0
194 ; 1.0980718360798838E7 ; 1.2234531622241357E7 ; 2.2347639351433516E9 ; 2.3734991347148185E9 ; 0.0
195 ; 1.0978678917707179E7 ; 1.2234531622241357E7 ; 2.2457446535041504E9 ; 2.38573366633706E9 ; 0.0
