CSV File for the City 6 on Day 49
1 - Minute m 
2 - Power Consumed at minute m 
3 - Power Produced at minute m 
4 - Energy Consumed since the beginning of the day 
5 - Energy Produced since the beginning of the day 
6 - Energy Lost since the beginning of the day on lines starting from the city
 
0 ; 1.1114786435723536E7 ; 1.0572714894738129E8 ; 0.0 ; 0.0 ; 0.0
1 ; 1.112572269899317E7 ; 1.0587736092581803E8 ; 1.1114786435723536E7 ; 1.0572714894738129E8 ; 0.0
2 ; 1.1138178449445534E7 ; 1.0633662091015664E8 ; 2.2240509134716704E7 ; 2.116045098731993E8 ; 0.0
3 ; 1.115238453619344E7 ; 1.0710493731651795E8 ; 3.337868758416224E7 ; 3.1794113078335595E8 ; 0.0
4 ; 1.1169108274891589E7 ; 1.0818231780676234E8 ; 4.453107212035568E7 ; 4.250460680998739E8 ; 0.0
5 ; 1.1190552266120952E7 ; 1.095687692076174E8 ; 5.5700180395247266E7 ; 5.3322838590663624E8 ; 0.0
6 ; 1.1214406452376952E7 ; 1.1126429743577978E8 ; 6.689073266136822E7 ; 6.427971551142536E8 ; 0.0
7 ; 1.1253255372961994E7 ; 1.1326890743081546E8 ; 7.810513911374517E7 ; 7.540614525500335E8 ; 0.0
8 ; 1.1305361900439624E7 ; 1.1558260309757328E8 ; 8.935839448670717E7 ; 8.673303599808489E8 ; 0.0
9 ; 1.138886796986589E7 ; 1.1820538725964576E8 ; 1.0066375638714679E8 ; 9.829129630784222E8 ; 0.0
10 ; 1.150853776494276E7 ; 1.2113726162515366E8 ; 1.1205262435701267E8 ; 1.101118350338068E9 ; 0.0
11 ; 1.170586110339695E7 ; 1.2437822676581863E8 ; 1.2356116212195544E8 ; 1.2222556119632215E9 ; 0.0
12 ; 1.2023999779677693E7 ; 1.2792828210991898E8 ; 1.3526702322535238E8 ; 1.3466338387290401E9 ; 0.0
13 ; 1.2328773730619363E7 ; 1.3178742594933397E8 ; 1.4729102300503007E8 ; 1.4745621208389592E9 ; 0.0
14 ; 1.236359398462894E7 ; 1.3595565546047115E8 ; 1.5961979673564944E8 ; 1.6063495467882931E9 ; 0.0
15 ; 1.2377746551225903E7 ; 1.4043296673848158E8 ; 1.7198339072027838E8 ; 1.7423052022487643E9 ; 0.0
16 ; 1.2390816405511357E7 ; 1.4521935484379938E8 ; 1.8436113727150428E8 ; 1.8827381689872458E9 ; 0.0
17 ; 1.2405442835989505E7 ; 1.5031481385972783E8 ; 1.9675195367701563E8 ; 2.0279575238310452E9 ; 0.0
18 ; 1.241986182829715E7 ; 1.5571933695953935E8 ; 2.0915739651300514E8 ; 2.178272337690773E9 ; 0.0
19 ; 1.2432520050476654E7 ; 1.6143291648137358E8 ; 2.2157725834130228E8 ; 2.3339916746503124E9 ; 0.0
20 ; 1.2449536015136331E7 ; 1.6745554400910965E8 ; 2.3400977839177892E8 ; 2.495424591131686E9 ; 0.0
21 ; 1.2464185289908722E7 ; 1.7378721045735744E8 ; 2.4645931440691525E8 ; 2.6628801351407957E9 ; 0.0
22 ; 1.2480970771105051E7 ; 1.8042790615874803E8 ; 2.5892349969682395E8 ; 2.836667345598153E9 ; 0.0
23 ; 1.2493580517686784E7 ; 1.8737762095180154E8 ; 2.71404470467929E8 ; 3.0170952517569013E9 ; 0.0
24 ; 1.2508040744461179E7 ; 1.9463634426779968E8 ; 2.838980509856158E8 ; 3.204472872708703E9 ; 0.0
25 ; 1.2520275101336977E7 ; 2.0089210611345658E8 ; 2.9640609173007697E8 ; 3.399109216976503E9 ; 0.0
26 ; 1.253546802034142E7 ; 2.008984431887366E8 ; 3.089263668314139E8 ; 3.6000013230899596E9 ; 0.0
27 ; 1.2549725170027029E7 ; 2.0090511348815563E8 ; 3.214618348517553E8 ; 3.800899766278696E9 ; 0.0
28 ; 1.2562077901795318E7 ; 2.009121056186893E8 ; 3.3401156002178234E8 ; 4.001804879766852E9 ; 0.0
29 ; 1.2576679552096464E7 ; 2.0091940815836766E8 ; 3.4657363792357767E8 ; 4.202716985385541E9 ; 0.0
30 ; 1.2587898721790643E7 ; 2.009270097155123E8 ; 3.5915031747567415E8 ; 4.403636393543909E9 ; 0.0
31 ; 1.260264890379586E7 ; 2.009348989817111E8 ; 3.717382161974648E8 ; 4.604563403259421E9 ; 0.0
32 ; 1.261502169091855E7 ; 2.0094306477853552E8 ; 3.8434086510126066E8 ; 4.805498302241133E9 ; 0.0
33 ; 1.2628698803008974E7 ; 2.009514960981322E8 ; 3.969558867921792E8 ; 5.006441367019669E9 ; 0.0
34 ; 1.2639130145296808E7 ; 2.009601821379247E8 ; 4.095845855951882E8 ; 5.207392863117801E9 ; 0.0
35 ; 1.2648786185411857E7 ; 2.0096911232973987E8 ; 4.22223715740485E8 ; 5.408353045255726E9 ; 0.0
36 ; 1.2662525008966118E7 ; 2.009782763637303E8 ; 4.348725019258969E8 ; 5.609322157585465E9 ; 0.0
37 ; 1.2672525153076487E7 ; 2.0098766420750213E8 ; 4.47535026934863E8 ; 5.810300433949196E9 ; 0.0
38 ; 1.268598586913631E7 ; 2.0099726612087768E8 ; 4.6020755208793944E8 ; 6.011288098156698E9 ; 0.0
39 ; 1.2695269103696477E7 ; 2.01007072666729E8 ; 4.728935379570758E8 ; 6.2122853642775755E9 ; 0.0
40 ; 1.270378340697462E7 ; 2.0101707471831372E8 ; 4.8558880706077224E8 ; 6.413292436944304E9 ; 0.0
41 ; 1.2711876014478454E7 ; 2.0102726346353036E8 ; 4.9829259046774685E8 ; 6.614309511662619E9 ; 0.0
42 ; 1.2721402413392166E7 ; 2.0103763040649086E8 ; 5.110044664822253E8 ; 6.815336775126149E9 ; 0.0
43 ; 1.2727875401569968E7 ; 2.0104816736678174E8 ; 5.237258688956175E8 ; 7.01637440553264E9 ; 0.0
44 ; 1.2738093145028137E7 ; 2.0105886647675914E8 ; 5.3645374429718745E8 ; 7.217422572899423E9 ; 0.0
45 ; 1.2742817853508575E7 ; 2.0106972017719164E8 ; 5.491918374422156E8 ; 7.418481439376182E9 ; 0.0
46 ; 1.2749569315506814E7 ; 2.010807212115366E8 ; 5.619346552957242E8 ; 7.619551159553373E9 ; 0.0
47 ; 1.275626946630369E7 ; 2.0109186261910456E8 ; 5.74684224611231E8 ; 7.82063188076491E9 ; 0.0
48 ; 1.2754229162349313E7 ; 2.01103137727339E8 ; 5.874404940775347E8 ; 8.021723743384014E9 ; 0.0
49 ; 1.2764533485794293E7 ; 2.0111454014341065E8 ; 6.00194723239884E8 ; 8.222826881111353E9 ; 0.0
50 ; 1.2767630771973161E7 ; 2.0112606374530074E8 ; 6.129592567256783E8 ; 8.423941421254764E9 ; 0.0
51 ; 1.276992520369979E7 ; 2.011377026725242E8 ; 6.257268874976515E8 ; 8.625067485000065E9 ; 0.0
52 ; 1.2773010214745406E7 ; 2.0114945131662196E8 ; 6.384968127013513E8 ; 8.826205187672588E9 ; 0.0
53 ; 1.2777690213130455E7 ; 2.0116130431153303E8 ; 6.512698229160967E8 ; 9.02735463898921E9 ; 0.0
54 ; 1.2781916001118356E7 ; 2.0117325652393898E8 ; 6.640475131292272E8 ; 9.228515943300743E9 ; 0.0
55 ; 1.2785294385151334E7 ; 2.0118530304365835E8 ; 6.768294291303455E8 ; 9.429689199824682E9 ; 0.0
56 ; 1.2788899153982908E7 ; 2.011974391741551E8 ; 6.896147235154969E8 ; 9.630874502868341E9 ; 0.0
57 ; 1.279235755987137E7 ; 2.0120966042321312E8 ; 7.024036226694797E8 ; 9.832071942042496E9 ; 0.0
58 ; 1.2796033832282357E7 ; 2.0122196249381828E8 ; 7.15195980229351E8 ; 1.003328160246571E10 ; 0.0
59 ; 1.2796059913861405E7 ; 2.01234341275281E8 ; 7.279920140616333E8 ; 1.0234503564959528E10 ; 0.0
60 ; 1.2801347033078207E7 ; 2.0124679283462417E8 ; 7.407880739754947E8 ; 1.043573790623481E10 ; 0.0
61 ; 1.2801438455522714E7 ; 2.0125931340825474E8 ; 7.535894210085729E8 ; 1.0636984699069433E10 ; 0.0
62 ; 1.2805465798626462E7 ; 2.012718993939318E8 ; 7.663908594640956E8 ; 1.0838244012477688E10 ; 0.0
63 ; 1.2806697176596086E7 ; 2.012845473430396E8 ; 7.79196325262722E8 ; 1.103951591187162E10 ; 0.0
64 ; 1.2808298392700966E7 ; 2.0129725395316878E8 ; 7.920030224393181E8 ; 1.124080045921466E10 ; 0.0
65 ; 1.2810680381489908E7 ; 2.0131001606100756E8 ; 8.04811320832019E8 ; 1.144209771316783E10 ; 0.0
66 ; 1.281013738665021E7 ; 2.013228306355406E8 ; 8.176220012135088E8 ; 1.1643407729228838E10 ; 0.0
67 ; 1.2812853143362982E7 ; 2.0133569477155137E8 ; 8.30432138600159E8 ; 1.1844730559864378E10 ; 0.0
68 ; 1.2811971069942433E7 ; 2.013486056834227E8 ; 8.43244991743522E8 ; 1.204606625463593E10 ; 0.0
69 ; 1.2817551178852597E7 ; 2.0136156069922814E8 ; 8.560569628134645E8 ; 1.2247414860319351E10 ; 0.0
70 ; 1.2817008262826199E7 ; 2.0137455725510564E8 ; 8.688745139923171E8 ; 1.244877642101858E10 ; 0.0
71 ; 1.2816321246997397E7 ; 2.013875928899053E8 ; 8.816915222551433E8 ; 1.2650150978273685E10 ; 0.0
72 ; 1.2818325195785904E7 ; 2.0140066524010077E8 ; 8.945078435021406E8 ; 1.2851538571163591E10 ; 0.0
73 ; 1.2819590529159565E7 ; 2.0141377203495494E8 ; 9.073261686979265E8 ; 1.3052939236403692E10 ; 0.0
74 ; 1.2818662237780066E7 ; 2.014269110919296E8 ; 9.201457592270861E8 ; 1.3254353008438646E10 ; 0.0
75 ; 1.2821162979881266E7 ; 2.0144008031232885E8 ; 9.329644214648662E8 ; 1.3455779919530577E10 ; 0.0
76 ; 1.282241085220341E7 ; 2.014532776771657E8 ; 9.457855844447474E8 ; 1.3657219999842905E10 ; 0.0
77 ; 1.281902694177024E7 ; 2.0146650124324238E8 ; 9.586079952969508E8 ; 1.3858673277520071E10 ; 0.0
78 ; 1.28202623745252E7 ; 2.0147974913943374E8 ; 9.71427022238721E8 ; 1.4060139778763313E10 ; 0.0
79 ; 1.2812553460651401E7 ; 2.0149301956316438E8 ; 9.842472846132462E8 ; 1.4261619527902746E10 ; 0.0
80 ; 1.2809740975661075E7 ; 2.0150631077706972E8 ; 9.970598380738976E8 ; 1.446311254746591E10 ; 0.0
81 ; 1.2808995730015958E7 ; 2.0151962110583234E8 ; 1.0098695790495586E9 ; 1.466461885824298E10 ; 0.0
82 ; 1.2799265490715384E7 ; 2.01532948933184E8 ; 1.0226785747795746E9 ; 1.4866138479348812E10 ; 0.0
83 ; 1.2797114362226991E7 ; 2.0154629269906542E8 ; 1.03547784027029E9 ; 1.5067671428281996E10 ; 0.0
84 ; 1.2794962306121277E7 ; 2.0155965089693528E8 ; 1.048274954632517E9 ; 1.5269217720981062E10 ; 0.0
85 ; 1.2791465116951834E7 ; 2.015730220712209E8 ; 1.0610699169386382E9 ; 1.5470777371877996E10 ; 0.0
86 ; 1.2785429053124705E7 ; 2.0158640481490242E8 ; 1.0738613820555902E9 ; 1.5672350393949217E10 ; 0.0
87 ; 1.2783614647660693E7 ; 2.015997977672244E8 ; 1.0866468111087148E9 ; 1.587393679876412E10 ; 0.0
88 ; 1.277237582163904E7 ; 2.01613199611527E8 ; 1.0994304257563756E9 ; 1.6075536596531345E10 ; 0.0
89 ; 1.2773134904711455E7 ; 2.0162660907319084E8 ; 1.1122028015780146E9 ; 1.6277149796142872E10 ; 0.0
90 ; 1.2765376245628241E7 ; 2.016400249176893E8 ; 1.124975936482726E9 ; 1.6478776405216063E10 ; 0.0
91 ; 1.2762139810245072E7 ; 2.0165344594874206E8 ; 1.1377413127283545E9 ; 1.668041643013375E10 ; 0.0
92 ; 1.2756436589172335E7 ; 2.016668710065652E8 ; 1.1505034525385995E9 ; 1.6882069876082493E10 ; 0.0
93 ; 1.2749145322145224E7 ; 2.016802989662114E8 ; 1.1632598891277719E9 ; 1.7083736747089058E10 ; 0.0
94 ; 1.2747021140373973E7 ; 2.016937287359962E8 ; 1.176009034449917E9 ; 1.728541704605527E10 ; 0.0
95 ; 1.2738558104037441E7 ; 2.0170715925600556E8 ; 1.188756055590291E9 ; 1.7487110774791267E10 ; 0.0
96 ; 1.2733251318507226E7 ; 2.0172058949667966E8 ; 1.2014946136943285E9 ; 1.768881793404727E10 ; 0.0
97 ; 1.2728084796146927E7 ; 2.0173401845746943E8 ; 1.2142278650128357E9 ; 1.7890538523543953E10 ; 0.0
98 ; 1.2722401697514951E7 ; 2.017474451655614E8 ; 1.2269559498089826E9 ; 1.8092272542001423E10 ; 0.0
99 ; 1.2715391300091922E7 ; 2.017608686746673E8 ; 1.2396783515064976E9 ; 1.8294019987166985E10 ; 0.0
100 ; 1.2709610797456026E7 ; 2.0177428806387502E8 ; 1.2523937428065896E9 ; 1.8495780855841652E10 ; 0.0
101 ; 1.2701856860548122E7 ; 2.0178770243655708E8 ; 1.2651033536040456E9 ; 1.8697555143905525E10 ; 0.0
102 ; 1.269828159068365E7 ; 2.0180111091933423E8 ; 1.2778052104645936E9 ; 1.8899342846342083E10 ; 0.0
103 ; 1.2694241443772206E7 ; 2.0181451266109046E8 ; 1.2905034920552773E9 ; 1.9101143957261417E10 ; 0.0
104 ; 1.268489667309703E7 ; 2.01827906832037E8 ; 1.3031977334990497E9 ; 1.930295846992251E10 ; 0.0
105 ; 1.2677162978520319E7 ; 2.0184129262282282E8 ; 1.3158826301721468E9 ; 1.9504786376754547E10 ; 0.0
106 ; 1.2669953345105937E7 ; 2.018546692436887E8 ; 1.3285597931506672E9 ; 1.970662766937737E10 ; 0.0
107 ; 1.2665412749215672E7 ; 2.0186803592366275E8 ; 1.341229746495773E9 ; 1.990848233862106E10 ; 0.0
108 ; 1.2655020762699462E7 ; 2.0188139190979537E8 ; 1.3538951592449887E9 ; 2.0110350374544724E10 ; 0.0
109 ; 1.2649805975608878E7 ; 2.0189473646643096E8 ; 1.366550180007688E9 ; 2.0312231766454517E10 ; 0.0
110 ; 1.2642391326715099E7 ; 2.019080688745153E8 ; 1.3791999859832969E9 ; 2.0514126502920948E10 ; 0.0
111 ; 1.2635959060960097E7 ; 2.0192138843093562E8 ; 1.3918423773100119E9 ; 2.0716034571795464E10 ; 0.0
112 ; 1.2627136799142115E7 ; 2.0193469444789287E8 ; 1.404478336370972E9 ; 2.09179559602264E10 ; 0.0
113 ; 1.261711529123251E7 ; 2.0194798625230318E8 ; 1.417105473170114E9 ; 2.111989065467429E10 ; 0.0
114 ; 1.261171766575078E7 ; 2.0196126318522826E8 ; 1.4297225884613466E9 ; 2.1321838640926594E10 ; 0.0
115 ; 1.2601833738680987E7 ; 2.0197452460133213E8 ; 1.4423343061270974E9 ; 2.152379990411182E10 ; 0.0
116 ; 1.2592682387144623E7 ; 2.0198776986836365E8 ; 1.4549361398657784E9 ; 2.1725774428713154E10 ; 0.0
117 ; 1.2585497002991393E7 ; 2.0200099836666304E8 ; 1.467528822252923E9 ; 2.1927762198581516E10 ; 0.0
118 ; 1.2577195900625462E7 ; 2.020142094886912E8 ; 1.4801143192559144E9 ; 2.212976319694818E10 ; 0.0
119 ; 1.2567170498126345E7 ; 2.0202740263858095E8 ; 1.49269151515654E9 ; 2.233177740643687E10 ; 0.0
120 ; 1.255677739766121E7 ; 2.0204057723170862E8 ; 1.5052586856546662E9 ; 2.253380480907545E10 ; 0.0
121 ; 1.2551171572716452E7 ; 2.0205373269428542E8 ; 1.5178154630523274E9 ; 2.273584538630716E10 ; 0.0
122 ; 1.254500751147891E7 ; 2.020668684629674E8 ; 1.5303666346250439E9 ; 2.2937899119001446E10 ; 0.0
123 ; 1.25325404525307E7 ; 2.020799839844827E8 ; 1.5429116421365228E9 ; 2.3139965987464413E10 ; 0.0
124 ; 1.2526836436743816E7 ; 2.02093078715276E8 ; 1.5554441825890534E9 ; 2.3342045971448895E10 ; 0.0
125 ; 1.2510791265530176E7 ; 2.0210615212116855E8 ; 1.5679710190257971E9 ; 2.354413905016417E10 ; 0.0
126 ; 1.2505236677079946E7 ; 2.0211920367703363E8 ; 1.5804818102913272E9 ; 2.374624520228534E10 ; 0.0
127 ; 1.2496738970587438E7 ; 2.02132232866486E8 ; 1.5929870469684072E9 ; 2.394836440596237E10 ; 0.0
128 ; 1.2485609208377589E7 ; 2.0214523918158543E8 ; 1.6054837859389946E9 ; 2.4150496638828857E10 ; 0.0
129 ; 1.247608286217892E7 ; 2.0215822212255296E8 ; 1.6179693951473722E9 ; 2.4352641878010445E10 ; 0.0
130 ; 1.2464586820663916E7 ; 2.0217118119749966E8 ; 1.630445478009551E9 ; 2.4554800100133E10 ; 0.0
131 ; 1.245053809962997E7 ; 2.0218411592216715E8 ; 1.642910064830215E9 ; 2.4756971281330498E10 ; 0.0
132 ; 1.2438647627092633E7 ; 2.0219702581967926E8 ; 1.6553606029298449E9 ; 2.4959155397252666E10 ; 0.0
133 ; 1.2425845576852152E7 ; 2.0220991042030448E8 ; 1.6677992505569375E9 ; 2.5161352423072346E10 ; 0.0
134 ; 1.2409519742623594E7 ; 2.022227692612284E8 ; 1.6802250961337895E9 ; 2.536356233349265E10 ; 0.0
135 ; 1.2395038172352105E7 ; 2.0223560188633612E8 ; 1.692634615876413E9 ; 2.5565785102753876E10 ; 0.0
136 ; 1.2384581232155865E7 ; 2.022484078460035E8 ; 1.7050296540487652E9 ; 2.5768020704640213E10 ; 0.0
137 ; 1.2367175059718657E7 ; 2.0226118669689748E8 ; 1.717414235280921E9 ; 2.5970269112486217E10 ; 0.0
138 ; 1.235291868144834E7 ; 2.0227393800178477E8 ; 1.7297814103406396E9 ; 2.6172530299183113E10 ; 0.0
139 ; 1.2336978364582723E7 ; 2.0228666132934833E8 ; 1.742134329022088E9 ; 2.63748042371849E10 ; 0.0
140 ; 1.2322096648902334E7 ; 2.022993562540117E8 ; 1.7544713073866708E9 ; 2.6577090898514248E10 ; 0.0
141 ; 1.230303540546359E7 ; 2.0231202235577038E8 ; 1.7667934040355732E9 ; 2.677939025476826E10 ; 0.0
142 ; 1.2289684688302591E7 ; 2.0232465922003046E8 ; 1.779096439441037E9 ; 2.698170227712403E10 ; 0.0
143 ; 1.2274237561338197E7 ; 2.0233726643745348E8 ; 1.7913861241293395E9 ; 2.7184026936344063E10 ; 0.0
144 ; 1.2262534029797833E7 ; 2.0234984360380787E8 ; 1.8036603616906776E9 ; 2.7386364202781517E10 ; 0.0
145 ; 1.224661171025261E7 ; 2.0236239031982642E8 ; 1.8159228957204754E9 ; 2.7588714046385326E10 ; 0.0
146 ; 1.2241538570448173E7 ; 2.023749061910694E8 ; 1.828169507430728E9 ; 2.7791076436705154E10 ; 0.0
147 ; 1.2228405664635103E7 ; 2.023873908277932E8 ; 1.840411046001176E9 ; 2.7993451342896225E10 ; 0.0
148 ; 1.2217230155420346E7 ; 2.023998438448244E8 ; 1.8526394516658113E9 ; 2.819583873372402E10 ; 0.0
149 ; 1.2206306219461417E7 ; 2.024122648614386E8 ; 1.8648566818212316E9 ; 2.8398238577568844E10 ; 0.0
150 ; 1.2197941253698245E7 ; 2.0242465350124428E8 ; 1.877062988040693E9 ; 2.8600650842430283E10 ; 0.0
151 ; 1.2188162861812042E7 ; 2.0243700939207125E8 ; 1.8892609292943914E9 ; 2.8803075495931526E10 ; 0.0
152 ; 1.2175459830955435E7 ; 2.0244933216586325E8 ; 1.9014490921562035E9 ; 2.9005512505323597E10 ; 0.0
153 ; 1.2160923266681204E7 ; 2.0246162145857507E8 ; 1.913624551987159E9 ; 2.920796183748946E10 ; 0.0
154 ; 1.2150408727257749E7 ; 2.0247387691007355E8 ; 1.9257854752538402E9 ; 2.9410423458948036E10 ; 0.0
155 ; 1.2144641887879556E7 ; 2.0248609816404238E8 ; 1.937935883981098E9 ; 2.961289733585811E10 ; 0.0
156 ; 1.2129343565369679E7 ; 2.0249828486789078E8 ; 1.9500805258689775E9 ; 2.9815383434022152E10 ; 0.0
157 ; 1.211837841905151E7 ; 2.0251043667266536E8 ; 1.9622098694343472E9 ; 3.001788171889004E10 ; 0.0
158 ; 1.2109382302667696E7 ; 2.0252255323296586E8 ; 1.9743282478533986E9 ; 3.0220392155562706E10 ; 0.0
159 ; 1.209771834675333E7 ; 2.025346342068636E8 ; 1.9864376301560662E9 ; 3.0422914708795673E10 ; 0.0
160 ; 1.2082312367150161E7 ; 2.0254667925582358E8 ; 1.9985353485028195E9 ; 3.0625449343002537E10 ; 0.0
161 ; 1.2069541157936767E7 ; 2.0255868804462892E8 ; 2.0106176608699696E9 ; 3.082799602225836E10 ; 0.0
162 ; 1.2059997515174631E7 ; 2.0257066024130878E8 ; 2.0226872020279064E9 ; 3.103055471030299E10 ; 0.0
163 ; 1.2049333603438605E7 ; 2.0258259551706862E8 ; 2.034747199543081E9 ; 3.12331253705443E10 ; 0.0
164 ; 1.2039154054834291E7 ; 2.025944935462232E8 ; 2.0467965331465197E9 ; 3.1435707966061367E10 ; 0.0
165 ; 1.2029381529585587E7 ; 2.0260635400613207E8 ; 2.058835687201354E9 ; 3.163830245960759E10 ; 0.0
166 ; 1.2015427109875135E7 ; 2.0261817657713756E8 ; 2.0708650687309396E9 ; 3.184090881361372E10 ; 0.0
167 ; 1.2002324366456747E7 ; 2.0262996094250494E8 ; 2.0828804958408148E9 ; 3.2043526990190857E10 ; 0.0
168 ; 1.1991604218281189E7 ; 2.0264170678836492E8 ; 2.0948828202072716E9 ; 3.224615695113336E10 ; 0.0
169 ; 1.1977100176664714E7 ; 2.0265341380365816E8 ; 2.1068744244255528E9 ; 3.2448798657921726E10 ; 0.0
170 ; 1.1966070778647875E7 ; 2.0266508168008205E8 ; 2.1188515246022177E9 ; 3.2651452071725384E10 ; 0.0
171 ; 1.195359816617307E7 ; 2.0267671011203924E8 ; 2.1308175953808656E9 ; 3.2854117153405464E10 ; 0.0
172 ; 1.1938957030770436E7 ; 2.02688298796588E8 ; 2.1427711935470386E9 ; 3.30567938635175E10 ; 0.0
173 ; 1.1934460905429792E7 ; 2.026998474333948E8 ; 2.154710150577809E9 ; 3.325948216231409E10 ; 0.0
174 ; 1.1925062583226703E7 ; 2.02711355724688E8 ; 2.1666446114832387E9 ; 3.3462182009747486E10 ; 0.0
175 ; 1.1915349040606579E7 ; 2.027228233752139E8 ; 2.1785696740664654E9 ; 3.3664893365472176E10 ; 0.0
176 ; 1.1910132457393475E7 ; 2.027342500921939E8 ; 2.190485023107072E9 ; 3.386761618884739E10 ; 0.0
177 ; 1.190074650645E7 ; 2.0274563558528334E8 ; 2.2023951555644655E9 ; 3.4070350438939583E10 ; 0.0
178 ; 1.1894482288716795E7 ; 2.02756979566532E8 ; 2.2142959020709157E9 ; 3.4273096074524868E10 ; 0.0
179 ; 1.1889762237491516E7 ; 2.027682817503457E8 ; 2.2261903843596325E9 ; 3.44758530540914E10 ; 0.0
180 ; 1.1879197303175975E7 ; 2.027795418534497E8 ; 2.238080146597124E9 ; 3.467862133584174E10 ; 0.0
181 ; 1.1873714830459232E7 ; 2.0279075959485295E8 ; 2.2499593439003E9 ; 3.488140087769519E10 ; 0.0
182 ; 1.1867326395785369E7 ; 2.02801934695814E8 ; 2.261833058730759E9 ; 3.508419163729005E10 ; 0.0
183 ; 1.1861300212549318E7 ; 2.02813066879808E8 ; 2.2737003851265445E9 ; 3.528699357198586E10 ; 0.0
184 ; 1.1851902860116163E7 ; 2.0282415587249476E8 ; 2.2855616853390937E9 ; 3.548980663886567E10 ; 0.0
185 ; 1.1841568457482629E7 ; 2.0283520140168804E8 ; 2.2974135881992097E9 ; 3.569263079473817E10 ; 0.0
186 ; 1.1836740653481843E7 ; 2.0284620319732618E8 ; 2.3092551566566925E9 ; 3.5895465996139854E10 ; 0.0
187 ; 1.1825670529441295E7 ; 2.0285716099144322E8 ; 2.3210918973101745E9 ; 3.609831219933718E10 ; 0.0
188 ; 1.1821217247556597E7 ; 2.0286807451814157E8 ; 2.332917567839616E9 ; 3.630116936032862E10 ; 0.0
189 ; 1.1816052090561688E7 ; 2.0287894351356536E8 ; 2.3447387850871725E9 ; 3.650403743484676E10 ; 0.0
190 ; 1.180857706292047E7 ; 2.0288976771587485E8 ; 2.3565548371777344E9 ; 3.670691637836033E10 ; 0.0
191 ; 1.1801114028411666E7 ; 2.029005468652217E8 ; 2.368363414240655E9 ; 3.69098061460762E10 ; 0.0
192 ; 1.1791022735598555E7 ; 2.0291128070372516E8 ; 2.380164528269067E9 ; 3.711270669294142E10 ; 0.0
193 ; 1.1786045167451173E7 ; 2.0292196897544888E8 ; 2.3919555510046654E9 ; 3.731561797364515E10 ; 0.0
194 ; 1.1775434789092025E7 ; 2.02932611426379E8 ; 2.4037415961721168E9 ; 3.75185399426206E10 ; 0.0
195 ; 1.1769613687242238E7 ; 2.029432078044025E8 ; 2.415517030961209E9 ; 3.7721472554046974E10 ; 0.0
