CSV File for the City 6 on Day 84
1 - Minute m 
2 - Power Consumed at minute m 
3 - Power Produced at minute m 
4 - Energy Consumed since the beginning of the day 
5 - Energy Produced since the beginning of the day 
6 - Energy Lost since the beginning of the day on lines starting from the city
 
0 ; 1.1172298270262217E7 ; 1.0606041821749154E8 ; 0.0 ; 0.0 ; 0.0
1 ; 1.118002637467073E7 ; 1.0621128806754673E8 ; 1.1172298270262217E7 ; 1.0606041821749154E8 ; 0.0
2 ; 1.119160980765289E7 ; 1.0667115114953575E8 ; 2.2352324644932948E7 ; 2.1227170628503826E8 ; 0.0
3 ; 1.1206972228947477E7 ; 1.0744001137187278E8 ; 3.354393445258584E7 ; 3.18942857434574E8 ; 0.0
4 ; 1.122224965420154E7 ; 1.0851787224005228E8 ; 4.4750906681533314E7 ; 4.263828688064468E8 ; 0.0
5 ; 1.1242629661535136E7 ; 1.0990473683626437E8 ; 5.597315633573485E7 ; 5.349007410464991E8 ; 0.0
6 ; 1.1268765558206823E7 ; 1.1160060780110958E8 ; 6.721578599726999E7 ; 6.448054778827634E8 ; 0.0
7 ; 1.130550837975617E7 ; 1.1360548731766433E8 ; 7.848455155547681E7 ; 7.564060856838729E8 ; 0.0
8 ; 1.1359732396690385E7 ; 1.1591937709811729E8 ; 8.979005993523298E7 ; 8.700115730015373E8 ; 0.0
9 ; 1.1440402566372171E7 ; 1.185422783731687E8 ; 1.0114979233192337E8 ; 9.859309500996547E8 ; 0.0
10 ; 1.1568138216503689E7 ; 1.21474191884345E8 ; 1.1259019489829554E8 ; 1.1044732284728234E9 ; 0.0
11 ; 1.1761575248830395E7 ; 1.2471511787934157E8 ; 1.2415833311479923E8 ; 1.2259474203571684E9 ; 0.0
12 ; 1.207893788001076E7 ; 1.28265056110463E8 ; 1.3591990836362964E8 ; 1.35066253823651E9 ; 0.0
13 ; 1.2386237841113236E7 ; 1.3212400583618283E8 ; 1.479988462436404E8 ; 1.478927594346973E9 ; 0.0
14 ; 1.2417185328807402E7 ; 1.3629196582580096E8 ; 1.6038508408475363E8 ; 1.6110516001831558E9 ; 0.0
15 ; 1.2433395493224382E7 ; 1.4076893436712855E8 ; 1.7280226941356105E8 ; 1.7473435660089567E9 ; 0.0
16 ; 1.2445986725233486E7 ; 1.4555490927708933E8 ; 1.8523566490678543E8 ; 1.8881125003760853E9 ; 0.0
17 ; 1.246370092715788E7 ; 1.5064988791508266E8 ; 1.9768165163201892E8 ; 2.0336674096531746E9 ; 0.0
18 ; 1.2477414881927205E7 ; 1.5605386719891846E8 ; 2.101453525591768E8 ; 2.1843172975682573E9 ; 0.0
19 ; 1.2492729738033175E7 ; 1.6176684362310228E8 ; 2.22622767441104E8 ; 2.3403711647671757E9 ; 0.0
20 ; 1.2507141102527792E7 ; 1.677888132792199E8 ; 2.3511549717913717E8 ; 2.502138008390278E9 ; 0.0
21 ; 1.2524635927821487E7 ; 1.7411977187815353E8 ; 2.4762263828166497E8 ; 2.669926821669498E9 ; 0.0
22 ; 1.2535276571276138E7 ; 1.8075971477384406E8 ; 2.6014727420948645E8 ; 2.8440465935476513E9 ; 0.0
23 ; 1.2549449212247886E7 ; 1.8770863698830807E8 ; 2.726825507807626E8 ; 3.0248063083214955E9 ; 0.0
24 ; 1.2564889275260504E7 ; 1.9496653323761302E8 ; 2.852319999930105E8 ; 3.2125149453098035E9 ; 0.0
25 ; 1.257978461429439E7 ; 2.012214388567056E8 ; 2.97796889268271E8 ; 3.4074814785474167E9 ; 0.0
26 ; 1.2594187665121797E7 ; 2.0122689586333597E8 ; 3.1037667388256544E8 ; 3.6087029174041224E9 ; 0.0
27 ; 1.260442016972961E7 ; 2.0123266751010627E8 ; 3.2297086154768723E8 ; 3.8099298132674584E9 ; 0.0
28 ; 1.2621919825143196E7 ; 2.0123874755825117E8 ; 3.355752817174168E8 ; 4.0111624807775645E9 ; 0.0
29 ; 1.2633067844959682E7 ; 2.0124512959752217E8 ; 3.4819720154256004E8 ; 4.212401228335816E9 ; 0.0
30 ; 1.265010675748834E7 ; 2.0125180707224783E8 ; 3.608302693875197E8 ; 4.413646357933338E9 ; 0.0
31 ; 1.2659807569337273E7 ; 2.012587733066302E8 ; 3.734803761450081E8 ; 4.614898165005586E9 ; 0.0
32 ; 1.2673629098230429E7 ; 2.0126602152911586E8 ; 3.8614018371434534E8 ; 4.816156938312216E9 ; 0.0
33 ; 1.2688929394636966E7 ; 2.0127354489570773E8 ; 3.9881381281257576E8 ; 5.0174229598413315E9 ; 0.0
34 ; 1.2701373201098308E7 ; 2.0128133651210672E8 ; 4.1150274220721275E8 ; 5.21869650473704E9 ; 0.0
35 ; 1.271150186212889E7 ; 2.0128938945459765E8 ; 4.2420411540831107E8 ; 5.419977841249146E9 ; 0.0
36 ; 1.2721518142505027E7 ; 2.0129769678961676E8 ; 4.3691561727044E8 ; 5.621267230703744E9 ; 0.0
37 ; 1.2735283538665263E7 ; 2.0130625159195882E8 ; 4.4963713541294503E8 ; 5.8225649274933605E9 ; 0.0
38 ; 1.2743243247563172E7 ; 2.013150469616024E8 ; 4.6237241895161027E8 ; 6.0238711790853195E9 ; 0.0
39 ; 1.2755745686273504E7 ; 2.013240760391488E8 ; 4.7511566219917345E8 ; 6.225186226046922E9 ; 0.0
40 ; 1.2765949216129221E7 ; 2.0133333201988602E8 ; 4.8787140788544697E8 ; 6.426510302086071E9 ; 0.0
41 ; 1.2774316176528845E7 ; 2.0134280816650233E8 ; 5.006373571015762E8 ; 6.627843634105957E9 ; 0.0
42 ; 1.2785120671055675E7 ; 2.0135249782048643E8 ; 5.134116732781051E8 ; 6.829186442272459E9 ; 0.0
43 ; 1.279325199740004E7 ; 2.0136239441225934E8 ; 5.2619679394916075E8 ; 7.030538940092945E9 ; 0.0
44 ; 1.280198187566493E7 ; 2.0137249147009188E8 ; 5.389900459465607E8 ; 7.231901334505204E9 ; 0.0
45 ; 1.2808079221600369E7 ; 2.013827826278671E8 ; 5.517920278222257E8 ; 7.433273825975296E9 ; 0.0
46 ; 1.2814524701277247E7 ; 2.0139326163175127E8 ; 5.646001070438261E8 ; 7.634656608603163E9 ; 0.0
47 ; 1.2821076708972618E7 ; 2.0140392234584057E8 ; 5.774146317451034E8 ; 7.836049870234914E9 ; 0.0
48 ; 1.2826945497591207E7 ; 2.0141475875685143E8 ; 5.902357084540759E8 ; 8.037453792580754E9 ; 0.0
49 ; 1.283331444217199E7 ; 2.0142576497792357E8 ; 6.030626539516672E8 ; 8.238868551337605E9 ; 0.0
50 ; 1.2838487971163852E7 ; 2.014369352516047E8 ; 6.158959683938391E8 ; 8.440294316315529E9 ; 0.0
51 ; 1.283821690436054E7 ; 2.0144826395208415E8 ; 6.28734456365003E8 ; 8.641731251567133E9 ; 0.0
52 ; 1.2842639853997594E7 ; 2.0145974558674115E8 ; 6.415726732693635E8 ; 8.843179515519217E9 ; 0.0
53 ; 1.2849170915964507E7 ; 2.0147137479707134E8 ; 6.544153131233611E8 ; 9.044639261105957E9 ; 0.0
54 ; 1.2845949752140688E7 ; 2.014831463590524E8 ; 6.672644840393256E8 ; 9.246110635903028E9 ; 0.0
55 ; 1.2851636300243573E7 ; 2.0149505518300617E8 ; 6.801104337914662E8 ; 9.447593782262081E9 ; 0.0
56 ; 1.2854922094828285E7 ; 2.0150709631301266E8 ; 6.929620700917099E8 ; 9.649088837445087E9 ; 0.0
57 ; 1.2862468696490929E7 ; 2.0151926492592618E8 ; 7.058169921865381E8 ; 9.8505959337581E9 ; 0.0
58 ; 1.2862812834890448E7 ; 2.0153155633004242E8 ; 7.18679460883029E8 ; 1.0052115198684027E10 ; 0.0
59 ; 1.2865574145782476E7 ; 2.015439659634605E8 ; 7.315422737179195E8 ; 1.0253646755014069E10 ; 0.0
60 ; 1.2872497005018787E7 ; 2.015564893921813E8 ; 7.444078478637019E8 ; 1.045519072097753E10 ; 0.0
61 ; 1.2871764766504468E7 ; 2.0156912230797985E8 ; 7.572803448687208E8 ; 1.065674721036971E10 ; 0.0
62 ; 1.2875973482839042E7 ; 2.0158186052608657E8 ; 7.701521096352253E8 ; 1.085831633267769E10 ; 0.0
63 ; 1.2877848734829132E7 ; 2.0159469998270887E8 ; 7.830280831180643E8 ; 1.1059898193203777E10 ; 0.0
64 ; 1.2881160413358334E7 ; 2.016076367324221E8 ; 7.959059318528935E8 ; 1.1261492893186485E10 ; 0.0
65 ; 1.2884241343931938E7 ; 2.0162066694545573E8 ; 8.087870922662518E8 ; 1.1463100529918907E10 ; 0.0
66 ; 1.2886571320919728E7 ; 2.0163378690489778E8 ; 8.216713336101837E8 ; 1.1664721196864363E10 ; 0.0
67 ; 1.2890655891477624E7 ; 2.0164699300383937E8 ; 8.345579049311035E8 ; 1.186635498376926E10 ; 0.0
68 ; 1.2892764727738723E7 ; 2.0166028174247733E8 ; 8.47448560822581E8 ; 1.20680019767731E10 ; 0.0
69 ; 1.2895357264184907E7 ; 2.016736497251919E8 ; 8.603413255503198E8 ; 1.2269662258515577E10 ; 0.0
70 ; 1.2894955762186278E7 ; 2.0168709365761402E8 ; 8.732366828145047E8 ; 1.2471335908240768E10 ; 0.0
71 ; 1.2898279909421459E7 ; 2.0170061034369567E8 ; 8.86131638576691E8 ; 1.2673023001898382E10 ; 0.0
72 ; 1.2898438041664211E7 ; 2.017141966827938E8 ; 8.990299184861125E8 ; 1.2874723612242079E10 ; 0.0
73 ; 1.2898628664474487E7 ; 2.017278496667785E8 ; 9.119283565277767E8 ; 1.3076437808924873E10 ; 0.0
74 ; 1.290133113422328E7 ; 2.017415663771734E8 ; 9.248269851922512E8 ; 1.3278165658591652E10 ; 0.0
75 ; 1.2904837881353466E7 ; 2.0175534398233566E8 ; 9.377283163264744E8 ; 1.3479907224968824E10 ; 0.0
76 ; 1.2902618298220638E7 ; 2.0176917973468205E8 ; 9.506331542078279E8 ; 1.368166256895116E10 ; 0.0
77 ; 1.290577284079636E7 ; 2.017830709679659E8 ; 9.635357725060486E8 ; 1.3883431748685843E10 ; 0.0
78 ; 1.2900915615626395E7 ; 2.0179701509460935E8 ; 9.764415453468449E8 ; 1.4085214819653809E10 ; 0.0
79 ; 1.2896604772365639E7 ; 2.018110096030946E8 ; 9.893424609624712E8 ; 1.4287011834748419E10 ; 0.0
80 ; 1.2896750114762392E7 ; 2.018250520554167E8 ; 1.0022390657348369E9 ; 1.4488822844351513E10 ; 0.0
81 ; 1.2887539157958707E7 ; 2.018391400846001E8 ; 1.0151358158495994E9 ; 1.4690647896406929E10 ; 0.0
82 ; 1.2889881804877473E7 ; 2.0185327139228064E8 ; 1.0280233550075581E9 ; 1.489248703649153E10 ; 0.0
83 ; 1.2887891933312932E7 ; 2.01867443746354E8 ; 1.0409132368124356E9 ; 1.509434030788381E10 ; 0.0
84 ; 1.2884042666179374E7 ; 2.0188165497869137E8 ; 1.0538011287457485E9 ; 1.5296207751630163E10 ; 0.0
85 ; 1.2878818446639797E7 ; 2.0189590298292226E8 ; 1.0666851714119279E9 ; 1.5498089406608854E10 ; 0.0
86 ; 1.2873151870379899E7 ; 2.019101857122853E8 ; 1.0795639898585677E9 ; 1.5699985309591776E10 ; 0.0
87 ; 1.2874579764605338E7 ; 2.0192450117754552E8 ; 1.0924371417289476E9 ; 1.5901895495304062E10 ; 0.0
88 ; 1.2869507726497196E7 ; 2.0193884744497848E8 ; 1.105311721493553E9 ; 1.6103819996481607E10 ; 0.0
89 ; 1.2865857029314889E7 ; 2.0195322263442007E8 ; 1.11818122922005E9 ; 1.6305758843926586E10 ; 0.0
90 ; 1.2859231758804083E7 ; 2.01967624917381E8 ; 1.131047086249365E9 ; 1.6507712066561007E10 ; 0.0
91 ; 1.2854613894934967E7 ; 2.01982052515225E8 ; 1.1439063180081692E9 ; 1.6709679691478388E10 ; 0.0
92 ; 1.2851149573335081E7 ; 2.0199650369740957E8 ; 1.156760931903104E9 ; 1.6911661743993612E10 ; 0.0
93 ; 1.284757438395548E7 ; 2.020109767797875E8 ; 1.1696120814764392E9 ; 1.7113658247691021E10 ; 0.0
94 ; 1.2842993874002922E7 ; 2.020254701229684E8 ; 1.1824596558603947E9 ; 1.731566922447081E10 ; 0.0
95 ; 1.284176256403712E7 ; 2.0203998213073832E8 ; 1.1953026497343976E9 ; 1.7517694694593777E10 ; 0.0
96 ; 1.2834776978666544E7 ; 2.0205451124853584E8 ; 1.2081444122984347E9 ; 1.7719734676724514E10 ; 0.0
97 ; 1.282783447462988E7 ; 2.0206905596198365E8 ; 1.2209791892771013E9 ; 1.792178918797305E10 ; 0.0
98 ; 1.2823242982448628E7 ; 2.0208361479547328E8 ; 1.2338070237517312E9 ; 1.812385824393503E10 ; 0.0
99 ; 1.2820503870319223E7 ; 2.0209818631080198E8 ; 1.2466302667341797E9 ; 1.8325941858730507E10 ; 0.0
100 ; 1.2816894924563259E7 ; 2.0211276910585982E8 ; 1.2594507706044989E9 ; 1.852804004504131E10 ; 0.0
101 ; 1.280676595608577E7 ; 2.0212736181336555E8 ; 1.272267665529062E9 ; 1.873015281414717E10 ; 0.0
102 ; 1.2802209846533103E7 ; 2.0214196309964958E8 ; 1.2850744314851477E9 ; 1.8932280175960537E10 ; 0.0
103 ; 1.279929517583628E7 ; 2.021565716634826E8 ; 1.2978766413316808E9 ; 1.913442213906019E10 ; 0.0
104 ; 1.2790023011976179E7 ; 2.02171186234948E8 ; 1.310675936507517E9 ; 1.933657871072367E10 ; 0.0
105 ; 1.278347679621448E7 ; 2.0218580557435718E8 ; 1.3234659595194933E9 ; 1.953874989695862E10 ; 0.0
106 ; 1.2777779102077074E7 ; 2.0220042847120544E8 ; 1.336249436315708E9 ; 1.9740935702532974E10 ; 0.0
107 ; 1.2771091963172713E7 ; 2.0221505374316767E8 ; 1.349027215417785E9 ; 1.994313613100418E10 ; 0.0
108 ; 1.2767066331621533E7 ; 2.0222968023513216E8 ; 1.3617983073809576E9 ; 2.014535118474735E10 ; 0.0
109 ; 1.2759776772984002E7 ; 2.0224430681827098E8 ; 1.3745653737125793E9 ; 2.034758086498248E10 ; 0.0
110 ; 1.2753922882103905E7 ; 2.0225893238914594E8 ; 1.3873251504855633E9 ; 2.054982517180075E10 ; 0.0
111 ; 1.2748600809339708E7 ; 2.0227355586884838E8 ; 1.4000790733676672E9 ; 2.0752084104189896E10 ; 0.0
112 ; 1.2742299137845976E7 ; 2.0228817620217186E8 ; 1.412827674177007E9 ; 2.0954357660058743E10 ; 0.0
113 ; 1.2735888386281757E7 ; 2.023027923568164E8 ; 1.425569973314853E9 ; 2.1156645836260914E10 ; 0.0
114 ; 1.2729881087901764E7 ; 2.0231740332262313E8 ; 1.4383058617011347E9 ; 2.135894862861773E10 ; 0.0
115 ; 1.2719748172955813E7 ; 2.023320081108378E8 ; 1.4510357427890365E9 ; 2.1561266031940353E10 ; 0.0
116 ; 1.271403413567638E7 ; 2.0234660575340256E8 ; 1.4637554909619923E9 ; 2.176359804005119E10 ; 0.0
117 ; 1.2708442948056905E7 ; 2.0236119530227497E8 ; 1.4764695250976686E9 ; 2.1965944645804592E10 ; 0.0
118 ; 1.2701996007062351E7 ; 2.023757758287723E8 ; 1.4891779680457256E9 ; 2.216830584110687E10 ; 0.0
119 ; 1.2693942371768208E7 ; 2.0239034642294127E8 ; 1.501879964052788E9 ; 2.2370681616935642E10 ; 0.0
120 ; 1.2683299572656956E7 ; 2.0240490619295144E8 ; 1.5145739064245563E9 ; 2.2573071963358585E10 ; 0.0
121 ; 1.2676538007819656E7 ; 2.024194542645118E8 ; 1.5272572059972131E9 ; 2.2775476869551537E10 ; 0.0
122 ; 1.2666411188304882E7 ; 2.024339897803091E8 ; 1.5399337440050328E9 ; 2.2977896323816048E10 ; 0.0
123 ; 1.2660602471907793E7 ; 2.0244851189946797E8 ; 1.5526001551933377E9 ; 2.3180330313596355E10 ; 0.0
124 ; 1.265671961487547E7 ; 2.024630197970308E8 ; 1.5652607576652455E9 ; 2.3382778825495823E10 ; 0.0
125 ; 1.2645663812253738E7 ; 2.0247751266345757E8 ; 1.577917477280121E9 ; 2.3585241845292854E10 ; 0.0
126 ; 1.2636826096305767E7 ; 2.024919897041444E8 ; 1.5905631410923748E9 ; 2.378771935795631E10 ; 0.0
127 ; 1.2625688804929808E7 ; 2.0250645013896015E8 ; 1.6031999671886806E9 ; 2.3990211347660454E10 ; 0.0
128 ; 1.2619585675661398E7 ; 2.0252089320180044E8 ; 1.6158256559936104E9 ; 2.4192717797799416E10 ; 0.0
129 ; 1.2611486196567563E7 ; 2.025353181401581E8 ; 1.6284452416692717E9 ; 2.4395238691001217E10 ; 0.0
130 ; 1.2599561947671782E7 ; 2.0254972421470985E8 ; 1.6410567278658392E9 ; 2.4597774009141376E10 ; 0.0
131 ; 1.2587423055397652E7 ; 2.025641106989184E8 ; 1.6536562898135111E9 ; 2.4800323733356087E10 ; 0.0
132 ; 1.2573546754148318E7 ; 2.02578476878649E8 ; 1.666243712868909E9 ; 2.5002887844055004E10 ; 0.0
133 ; 1.2562444165084375E7 ; 2.0259282205180043E8 ; 1.6788172596230571E9 ; 2.5205466320933655E10 ; 0.0
134 ; 1.254933441205438E7 ; 2.026071455279495E8 ; 1.6913797037881415E9 ; 2.5408059142985455E10 ; 0.0
135 ; 1.2537037025535077E7 ; 2.0262144662800878E8 ; 1.7039290382001958E9 ; 2.5610666288513405E10 ; 0.0
136 ; 1.252330369671993E7 ; 2.0263572468389657E8 ; 1.716466075225731E9 ; 2.5813287735141415E10 ; 0.0
137 ; 1.2511904285123395E7 ; 2.0264997903821927E8 ; 1.7289893789224508E9 ; 2.601592345982531E10 ; 0.0
138 ; 1.2497084555588247E7 ; 2.0266420904396525E8 ; 1.7415012832075741E9 ; 2.621857343886353E10 ; 0.0
139 ; 1.2484680010174353E7 ; 2.0267841406420973E8 ; 1.7539983677631624E9 ; 2.6421237647907494E10 ; 0.0
140 ; 1.2472801070223754E7 ; 2.0269259347183055E8 ; 1.7664830477733366E9 ; 2.6623916061971703E10 ; 0.0
141 ; 1.2454221046044966E7 ; 2.0270674664923412E8 ; 1.7789558488435605E9 ; 2.6826608655443535E10 ; 0.0
142 ; 1.2446046494872935E7 ; 2.027208729880912E8 ; 1.7914100698896055E9 ; 2.702931540209277E10 ; 0.0
143 ; 1.242773719234823E7 ; 2.0273497188908252E8 ; 1.8038561163844786E9 ; 2.723203627508086E10 ; 0.0
144 ; 1.241243700343046E7 ; 2.0274904276165292E8 ; 1.8162838535768268E9 ; 2.7434771246969944E10 ; 0.0
145 ; 1.2406376881006718E7 ; 2.0276308502377492E8 ; 1.8286962905802572E9 ; 2.7637520289731598E10 ; 0.0
146 ; 1.2399902306886693E7 ; 2.0277709810172027E8 ; 1.841102667461264E9 ; 2.784028337475537E10 ; 0.0
147 ; 1.2389881215191437E7 ; 2.0279108142983994E8 ; 1.8535025697681506E9 ; 2.804306047285709E10 ; 0.0
148 ; 1.2377504433053656E7 ; 2.028050344503515E8 ; 1.865892450983342E9 ; 2.824585155428693E10 ; 0.0
149 ; 1.2372724191501861E7 ; 2.0281895661313456E8 ; 1.8782699554163957E9 ; 2.844865658873728E10 ; 0.0
150 ; 1.2358457877953706E7 ; 2.0283284737553287E8 ; 1.8906426796078975E9 ; 2.8651475545350418E10 ; 0.0
151 ; 1.2348695171188796E7 ; 2.0284670620216376E8 ; 1.9030011374858513E9 ; 2.8854308392725952E10 ; 0.0
152 ; 1.2339513142564133E7 ; 2.0286053256473404E8 ; 1.91534983265704E9 ; 2.9057155098928116E10 ; 0.0
153 ; 1.2330039176767167E7 ; 2.0287432594186243E8 ; 1.9276893457996042E9 ; 2.926001563149285E10 ; 0.0
154 ; 1.2322328792063594E7 ; 2.0288808581890813E8 ; 1.9400193849763713E9 ; 2.9462889957434715E10 ; 0.0
155 ; 1.231237855182056E7 ; 2.029018116878053E8 ; 1.952341713768435E9 ; 2.9665778043253624E10 ; 0.0
156 ; 1.2299728626135983E7 ; 2.029155030469033E8 ; 1.9646540923202555E9 ; 2.986867985494143E10 ; 0.0
157 ; 1.2293068792285448E7 ; 2.0292915940081254E8 ; 1.9769538209463916E9 ; 3.007159535798833E10 ; 0.0
158 ; 1.2277853333150674E7 ; 2.0294278026025534E8 ; 1.989246889738677E9 ; 3.0274524517389145E10 ; 0.0
159 ; 1.2269260206288194E7 ; 2.029563651419223E8 ; 2.0015247430718277E9 ; 3.04774672976494E10 ; 0.0
160 ; 1.2262076264610087E7 ; 2.029699135683332E8 ; 2.0137940032781157E9 ; 3.068042366279132E10 ; 0.0
161 ; 1.2248563001654558E7 ; 2.0298342506770286E8 ; 2.0260560795427258E9 ; 3.0883393576359653E10 ; 0.0
162 ; 1.2241642946675383E7 ; 2.0299689917381153E8 ; 2.0383046425443804E9 ; 3.1086377001427357E10 ; 0.0
163 ; 1.2232861610476559E7 ; 2.0301033542587957E8 ; 2.0505462854910557E9 ; 3.128937390060117E10 ; 0.0
164 ; 1.2223103739326814E7 ; 2.030237333684465E8 ; 2.0627791471015322E9 ; 3.149238423602705E10 ; 0.0
165 ; 1.2211042397724152E7 ; 2.0303709255125397E8 ; 2.075002250840859E9 ; 3.1695407969395496E10 ; 0.0
166 ; 1.2199073083779387E7 ; 2.0305041252913278E8 ; 2.087213293238583E9 ; 3.189844506194675E10 ; 0.0
167 ; 1.2192335671441935E7 ; 2.0306369286189365E8 ; 2.0994123663223624E9 ; 3.2101495474475883E10 ; 0.0
168 ; 1.2182482057821507E7 ; 2.030769331142216E8 ; 2.1116047019938045E9 ; 3.2304559167337776E10 ; 0.0
169 ; 1.2170194133043405E7 ; 2.0309013285557377E8 ; 2.123787184051626E9 ; 3.2507636100452E10 ; 0.0
170 ; 1.215945531043094E7 ; 2.0310329166008094E8 ; 2.1359573781846693E9 ; 3.2710726233307575E10 ; 0.0
171 ; 1.2150113540912466E7 ; 2.0311640910645187E8 ; 2.1481168334951E9 ; 3.2913829524967655E10 ; 0.0
172 ; 1.2138450791858051E7 ; 2.0312948477788112E8 ; 2.1602669470360126E9 ; 3.311694593407411E10 ; 0.0
173 ; 1.2131700195776856E7 ; 2.0314251826195982E8 ; 2.172405397827871E9 ; 3.332007541885199E10 ; 0.0
174 ; 1.2118038907636577E7 ; 2.0315550915058926E8 ; 2.184537098023648E9 ; 3.352321793711395E10 ; 0.0
175 ; 1.2117542159024315E7 ; 2.031684570398975E8 ; 2.1966551369312844E9 ; 3.3726373446264538E10 ; 0.0
176 ; 1.2108519439248625E7 ; 2.0318136153015852E8 ; 2.2087726790903087E9 ; 3.3929541903304436E10 ; 0.0
177 ; 1.2104076491114097E7 ; 2.0319422222571406E8 ; 2.220881198529557E9 ; 3.4132723264834595E10 ; 0.0
178 ; 1.2099735527250702E7 ; 2.032070387348981E8 ; 2.2329852750206714E9 ; 3.433591748706031E10 ; 0.0
179 ; 1.2088401508985829E7 ; 2.032198106699636E8 ; 2.245085010547922E9 ; 3.453912452579521E10 ; 0.0
180 ; 1.2084173515242478E7 ; 2.0323253764701176E8 ; 2.257173412056908E9 ; 3.474234433646517E10 ; 0.0
181 ; 1.2073989739193741E7 ; 2.032452192859235E8 ; 2.2692575855721507E9 ; 3.494557687411218E10 ; 0.0
182 ; 1.2071704572019866E7 ; 2.0325785521029317E8 ; 2.2813315753113446E9 ; 3.514882209339811E10 ; 0.0
183 ; 1.2065542449427767E7 ; 2.0327044504736426E8 ; 2.2934032798833647E9 ; 3.5352079948608406E10 ; 0.0
184 ; 1.2055787362182328E7 ; 2.0328298842796734E8 ; 2.3054688223327923E9 ; 3.555535039365577E10 ; 0.0
185 ; 1.2052198478064738E7 ; 2.0329548498645988E8 ; 2.3175246096949744E9 ; 3.575863338208374E10 ; 0.0
186 ; 1.2043965484112918E7 ; 2.033079343606681E8 ; 2.329576808173039E9 ; 3.59619288670702E10 ; 0.0
187 ; 1.2038831536341943E7 ; 2.033203361918304E8 ; 2.3416207736571517E9 ; 3.616523680143086E10 ; 0.0
188 ; 1.2030819541175576E7 ; 2.033326901245429E8 ; 2.353659605193494E9 ; 3.6368557137622696E10 ; 0.0
189 ; 1.20261579910828E7 ; 2.0334499580670652E8 ; 2.365690424734669E9 ; 3.657188982774724E10 ; 0.0
190 ; 1.202039258860271E7 ; 2.0335725288947576E8 ; 2.377716582725752E9 ; 3.677523482355395E10 ; 0.0
191 ; 1.2016164466961537E7 ; 2.0336946102720907E8 ; 2.3897369753143544E9 ; 3.697859207644342E10 ; 0.0
192 ; 1.2008488979070663E7 ; 2.033816198774209E8 ; 2.401753139781316E9 ; 3.718196153747063E10 ; 0.0
193 ; 1.2002341383436594E7 ; 2.0339372910073507E8 ; 2.4137616287603865E9 ; 3.7385343157348045E10 ; 0.0
194 ; 1.1996998576758442E7 ; 2.0340578836083978E8 ; 2.425763970143823E9 ; 3.7588736886448784E10 ; 0.0
195 ; 1.1989628661041897E7 ; 2.0341779732444382E8 ; 2.4377609687205815E9 ; 3.779214267480962E10 ; 0.0
