CSV File for the City 4 on Day 217
1 - Minute m 
2 - Power Consumed at minute m 
3 - Power Produced at minute m 
4 - Energy Consumed since the beginning of the day 
5 - Energy Produced since the beginning of the day 
6 - Energy Lost since the beginning of the day on lines starting from the city
 
0 ; 436615.9000915763 ; 1.0552975227397504E8 ; 0.0 ; 0.0 ; 0.0
1 ; 443277.4284645982 ; 1.0567749832382917E8 ; 436615.9000915763 ; 1.0552975227397504E8 ; 0.0
2 ; 451754.3066528398 ; 1.0613447410805234E8 ; 879893.3285561744 ; 2.1120725059780422E8 ; 0.0
3 ; 459978.22857446247 ; 1.0690071021655369E8 ; 1331647.6352090142 ; 3.1734172470585656E8 ; 0.0
4 ; 473875.88580480457 ; 1.0797623587279105E8 ; 1791625.8637834766 ; 4.2424243492241025E8 ; 0.0
5 ; 485731.2278882308 ; 1.0936107828566492E8 ; 2265501.7495882814 ; 5.322186707952013E8 ; 0.0
6 ; 505390.1319995085 ; 1.1105526197808209E8 ; 2751232.977476512 ; 6.415797490808662E8 ; 0.0
7 ; 526081.9234029707 ; 1.1305880812422019E8 ; 3256623.1094760206 ; 7.526350110589483E8 ; 0.0
8 ; 559183.4339353562 ; 1.1537173393245375E8 ; 3782705.032878991 ; 8.656938191831684E8 ; 0.0
9 ; 611967.4262585191 ; 1.1799405211272341E8 ; 4341888.466814348 ; 9.810655531156222E8 ; 0.0
10 ; 690259.9607647898 ; 1.2092577046497864E8 ; 4953855.893072867 ; 1.0990596052283456E9 ; 0.0
11 ; 813352.7658023925 ; 1.2416689161889628E8 ; 5644115.853837657 ; 1.2199853756933243E9 ; 0.0
12 ; 1013148.7888899958 ; 1.2771741294479945E8 ; 6457468.6196400495 ; 1.3441522673122206E9 ; 0.0
13 ; 1204177.8421571897 ; 1.315773266427387E8 ; 7470617.408530045 ; 1.47186968025702E9 ; 0.0
14 ; 1226613.9670714673 ; 1.3574662000277346E8 ; 8674795.250687234 ; 1.6034470068997588E9 ; 0.0
15 ; 1239978.232110688 ; 1.402252758165291E8 ; 9901409.217758702 ; 1.7391936269025323E9 ; 0.0
16 ; 1247604.3033172523 ; 1.450132729098281E8 ; 1.114138744986939E7 ; 1.8794189027190614E9 ; 0.0
17 ; 1258393.0401578767 ; 1.5011058675976357E8 ; 1.2388991753186643E7 ; 2.0244321756288896E9 ; 0.0
18 ; 1267945.9227003255 ; 1.5551719015743506E8 ; 1.364738479334452E7 ; 2.1745427623886533E9 ; 0.0
19 ; 1279514.4913180226 ; 1.6123305387938473E8 ; 1.4915330716044845E7 ; 2.330059952546088E9 ; 0.0
20 ; 1287509.5254728491 ; 1.672581473357034E8 ; 1.6194845207362868E7 ; 2.4912930064254727E9 ; 0.0
21 ; 1299717.8963534064 ; 1.7359243916965297E8 ; 1.7482354732835717E7 ; 2.658551153761176E9 ; 0.0
22 ; 1310859.6936310392 ; 1.80235897791304E8 ; 1.8782072629189122E7 ; 2.832143592930829E9 ; 0.0
23 ; 1316858.694278629 ; 1.8718849183511126E8 ; 2.009293232282016E7 ; 3.012379490722133E9 ; 0.0
24 ; 1329587.6494327255 ; 1.9445019053783607E8 ; 2.140979101709879E7 ; 3.1995679825572443E9 ; 0.0
25 ; 1341267.1214094365 ; 2.0070900493657106E8 ; 2.2739378666531514E7 ; 3.3940181730950804E9 ; 0.0
26 ; 1350013.561211864 ; 2.0071845413268748E8 ; 2.408064578794095E7 ; 3.5947271780316515E9 ; 0.0
27 ; 1360263.9365997624 ; 2.007282799786543E8 ; 2.5430659349152815E7 ; 3.795445632164339E9 ; 0.0
28 ; 1370822.854910226 ; 2.007384564304548E8 ; 2.6790923285752576E7 ; 3.9961739121429935E9 ; 0.0
29 ; 1377840.2781250773 ; 2.0074895889938417E8 ; 2.81617461406628E7 ; 4.196912368573448E9 ; 0.0
30 ; 1388545.6017965206 ; 2.0075976427236724E8 ; 2.9539586418787878E7 ; 4.397661327472833E9 ; 0.0
31 ; 1398988.6291969062 ; 2.0077085090216818E8 ; 3.0928132020584397E7 ; 4.5984210917452E9 ; 0.0
32 ; 1407294.2075722169 ; 2.0078219857466504E8 ; 3.23271206497813E7 ; 4.799191942647368E9 ; 0.0
33 ; 1418726.9398680269 ; 2.00793788459321E8 ; 3.3734414857353516E7 ; 4.9999741412220335E9 ; 0.0
34 ; 1425490.558056254 ; 2.0080560304795465E8 ; 3.515314179722154E7 ; 5.2007679296813545E9 ; 0.0
35 ; 1435450.9048917252 ; 2.0081762608595112E8 ; 3.657863235527779E7 ; 5.401573532729309E9 ; 0.0
36 ; 1442479.2067991488 ; 2.0082984249919882E8 ; 3.801408326016951E7 ; 5.60239115881526E9 ; 0.0
37 ; 1453335.5022917646 ; 2.0084223831929606E8 ; 3.945656246696866E7 ; 5.803221001314459E9 ; 0.0
38 ; 1459982.530806365 ; 2.0085480060894993E8 ; 4.0909897969260424E7 ; 6.004063239633755E9 ; 0.0
39 ; 1468142.2873673737 ; 2.0086751738897663E8 ; 4.236988050006679E7 ; 6.204918040242704E9 ; 0.0
40 ; 1476220.2603815454 ; 2.008803775679015E8 ; 4.383802278743416E7 ; 6.405785557631681E9 ; 0.0
41 ; 1484497.4521650518 ; 2.0089337087482846E8 ; 4.53142430478157E7 ; 6.606665935199583E9 ; 0.0
42 ; 1489325.566756499 ; 2.00906487795996E8 ; 4.6798740499980755E7 ; 6.807559306074411E9 ; 0.0
43 ; 1497208.4010021253 ; 2.0091971951524174E8 ; 4.828806606673726E7 ; 7.008465793870407E9 ; 0.0
44 ; 1504512.4066043138 ; 2.00933057858453E8 ; 4.978527446773938E7 ; 7.209385513385649E9 ; 0.0
45 ; 1510256.5540180693 ; 2.0094649524197453E8 ; 5.128978687434369E7 ; 7.410318571244102E9 ; 0.0
46 ; 1515911.301073747 ; 2.0096002462486896E8 ; 5.2800043428361766E7 ; 7.611265066486076E9 ; 0.0
47 ; 1521171.2219430874 ; 2.009736394648737E8 ; 5.431595472943551E7 ; 7.812225091110946E9 ; 0.0
48 ; 1526849.5124823619 ; 2.009873336778655E8 ; 5.58371259513786E7 ; 8.013198730575819E9 ; 0.0
49 ; 1530581.4122832653 ; 2.010011016006239E8 ; 5.736397546386096E7 ; 8.214186064253685E9 ; 0.0
50 ; 1536533.0243378712 ; 2.010149379566757E8 ; 5.889455687614422E7 ; 8.415187165854309E9 ; 0.0
51 ; 1542239.7135930776 ; 2.010288378250017E8 ; 6.0431089900482096E7 ; 8.616202103810986E9 ; 0.0
52 ; 1543847.7479570624 ; 2.0104279661138958E8 ; 6.197332961407518E7 ; 8.817230941635986E9 ; 0.0
53 ; 1549987.903884008 ; 2.0105681002222562E8 ; 6.351717736203224E7 ; 9.018273738247375E9 ; 0.0
54 ; 1553027.9177953592 ; 2.010708740405265E8 ; 6.506716526591625E7 ; 9.219330548269602E9 ; 0.0
55 ; 1556866.527971446 ; 2.0108498490402478E8 ; 6.662019318371161E7 ; 9.42040142231013E9 ; 0.0
56 ; 1562527.3222119438 ; 2.010991390851331E8 ; 6.817705971168305E7 ; 9.621486407214153E9 ; 0.0
57 ; 1564476.710773146 ; 2.0111333327262506E8 ; 6.9739587033895E7 ; 9.822585546299286E9 ; 0.0
58 ; 1569609.434149351 ; 2.0112756435488242E8 ; 7.130406374466814E7 ; 1.002369887957191E10 ; 0.0
59 ; 1573706.1416394718 ; 2.011418294045709E8 ; 7.28736731788175E7 ; 1.0224826443926794E10 ; 0.0
60 ; 1576911.6965522994 ; 2.011561256646174E8 ; 7.444737932045697E7 ; 1.0425968273331366E10 ; 0.0
61 ; 1579944.3499214672 ; 2.011704505353729E8 ; 7.602429101700927E7 ; 1.0627124398995983E10 ; 0.0
62 ; 1583453.1759305755 ; 2.0118480156285527E8 ; 7.760423536693074E7 ; 1.0828294849531357E10 ; 0.0
63 ; 1590037.435471503 ; 2.0119917642797515E8 ; 7.918768854286131E7 ; 1.1029479651094212E10 ; 0.0
64 ; 1591855.8620160248 ; 2.012135729366571E8 ; 8.077772597833282E7 ; 1.1230678827522186E10 ; 0.0
65 ; 1595773.252658585 ; 2.0122798901077658E8 ; 8.236958184034884E7 ; 1.1431892400458843E10 ; 0.0
66 ; 1597808.3333166288 ; 2.0124242267983925E8 ; 8.396535509300743E7 ; 1.163312038946962E10 ; 0.0
67 ; 1600350.5111892666 ; 2.0125687207333767E8 ; 8.556316342632405E7 ; 1.183436281214946E10 ; 0.0
68 ; 1605403.8851252806 ; 2.0127133541372472E8 ; 8.716351393751332E7 ; 1.2035619684222797E10 ; 0.0
69 ; 1606242.935018077 ; 2.012858110099499E8 ; 8.87689178226386E7 ; 1.2236891019636522E10 ; 0.0
70 ; 1611655.8510369132 ; 2.0130029725150913E8 ; 9.037516075765668E7 ; 1.2438176830646473E10 ; 0.0
71 ; 1615900.220628333 ; 2.013147926029633E8 ; 9.198681660869358E7 ; 1.2639477127897982E10 ; 0.0
72 ; 1617440.168172459 ; 2.0132929559888485E8 ; 9.360271682932192E7 ; 1.2840791920500944E10 ; 0.0
73 ; 1621532.9789666517 ; 2.0134380483919585E8 ; 9.522015699749438E7 ; 1.3042121216099829E10 ; 0.0
74 ; 1627183.521895875 ; 2.013583189848637E8 ; 9.684168997646104E7 ; 1.3243465020939024E10 ; 0.0
75 ; 1629292.504455923 ; 2.0137283675392458E8 ; 9.846887349835691E7 ; 1.3444823339923887E10 ; 0.0
76 ; 1631664.0591958722 ; 2.0138735691780657E8 ; 1.0009816600281283E8 ; 1.3646196176677813E10 ; 0.0
77 ; 1635133.690749428 ; 2.0140187829792762E8 ; 1.0172983006200871E8 ; 1.384758353359562E10 ; 0.0
78 ; 1632393.6979455452 ; 2.0141639976254538E8 ; 1.0336496375275813E8 ; 1.4048985411893547E10 ; 0.0
79 ; 1635755.7032959897 ; 2.0143092022383836E8 ; 1.0499735745070368E8 ; 1.4250401811656092E10 ; 0.0
80 ; 1636636.5067731277 ; 2.0144543863519928E8 ; 1.0663311315399967E8 ; 1.445183273187993E10 ; 0.0
81 ; 1638636.9974884023 ; 2.0145995398872322E8 ; 1.082697496607728E8 ; 1.465327817051513E10 ; 0.0
82 ; 1639590.0542145001 ; 2.0147446531287566E8 ; 1.0990838665826121E8 ; 1.4854738124503853E10 ; 0.0
83 ; 1639049.0549918131 ; 2.0148897167032483E8 ; 1.1154797671247572E8 ; 1.5056212589816729E10 ; 0.0
84 ; 1638383.3268205065 ; 2.0150347215592661E8 ; 1.1318702576746753E8 ; 1.5257701561487053E10 ; 0.0
85 ; 1640689.2520843113 ; 2.0151796589484918E8 ; 1.1482540909428804E8 ; 1.5459205033642979E10 ; 0.0
86 ; 1640028.0870856727 ; 2.015324520408265E8 ; 1.1646609834637235E8 ; 1.5660722999537828E10 ; 0.0
87 ; 1639918.704766863 ; 2.0154692977453148E8 ; 1.1810612643345803E8 ; 1.5862255451578655E10 ; 0.0
88 ; 1640358.8968584158 ; 2.015613983020587E8 ; 1.197460451382249E8 ; 1.6063802381353188E10 ; 0.0
89 ; 1641610.3925590962 ; 2.015758568535089E8 ; 1.2138640403508331E8 ; 1.6265363779655247E10 ; 0.0
90 ; 1640134.7029663506 ; 2.015903046816674E8 ; 1.230280144276424E8 ; 1.6466939636508755E10 ; 0.0
91 ; 1641072.0443606437 ; 2.0160474106076962E8 ; 1.2466814913060875E8 ; 1.6668529941190422E10 ; 0.0
92 ; 1640177.1862672963 ; 2.0161916528534698E8 ; 1.2630922117496939E8 ; 1.6870134682251192E10 ; 0.0
93 ; 1643543.6633559228 ; 2.016335766691474E8 ; 1.2794939836123669E8 ; 1.707175384753654E10 ; 0.0
94 ; 1640689.9922997768 ; 2.01647974544125E8 ; 1.2959294202459261E8 ; 1.7273387424205685E10 ; 0.0
95 ; 1641821.8033003234 ; 2.016623582594939E8 ; 1.3123363201689239E8 ; 1.747503539874981E10 ; 0.0
96 ; 1639596.3357666065 ; 2.0167672718084183E8 ; 1.3287545382019271E8 ; 1.7676697757009304E10 ; 0.0
97 ; 1641026.8718176403 ; 2.0169108068929872E8 ; 1.345150501559593E8 ; 1.7878374484190147E10 ; 0.0
98 ; 1639742.8641282937 ; 2.0170541818075705E8 ; 1.3615607702777696E8 ; 1.8080065564879448E10 ; 0.0
99 ; 1640963.906359853 ; 2.017197390651397E8 ; 1.3779581989190525E8 ; 1.8281770983060204E10 ; 0.0
100 ; 1638345.762063919 ; 2.017340427657129E8 ; 1.394367837982651E8 ; 1.8483490722125343E10 ; 0.0
101 ; 1639805.611572059 ; 2.0174832871843994E8 ; 1.4107512956032902E8 ; 1.8685224764891056E10 ; 0.0
102 ; 1639584.2628199807 ; 2.017625963713741E8 ; 1.4271493517190108E8 ; 1.8886973093609497E10 ; 0.0
103 ; 1640368.4439061054 ; 2.017768451840874E8 ; 1.4435451943472105E8 ; 1.908873568998087E10 ; 0.0
104 ; 1640282.5926073063 ; 2.0179107462713292E8 ; 1.4599488787862715E8 ; 1.9290512535164955E10 ; 0.0
105 ; 1637884.8754961595 ; 2.018052841815386E8 ; 1.4763517047123447E8 ; 1.9492303609792088E10 ; 0.0
106 ; 1636745.2414550837 ; 2.0181947333833042E8 ; 1.4927305534673062E8 ; 1.9694108893973625E10 ; 0.0
107 ; 1635090.6817837758 ; 2.0183364159808275E8 ; 1.509098005881857E8 ; 1.9895928367311954E10 ; 0.0
108 ; 1635947.857224582 ; 2.018477884704946E8 ; 1.5254489126996946E8 ; 2.0097762008910038E10 ; 0.0
109 ; 1633282.0919256473 ; 2.0186191347398967E8 ; 1.5418083912719405E8 ; 2.029960979738053E10 ; 0.0
110 ; 1633038.1828533327 ; 2.018760161353389E8 ; 1.558141212191197E8 ; 2.0501471710854523E10 ; 0.0
111 ; 1634988.8950396595 ; 2.018900959893041E8 ; 1.5744715940197304E8 ; 2.070334772698986E10 ; 0.0
112 ; 1632232.5341901009 ; 2.0190415257830113E8 ; 1.590821482970127E8 ; 2.0905237822979164E10 ; 0.0
113 ; 1631613.2880067646 ; 2.019181854520818E8 ; 1.6071438083120278E8 ; 2.1107141975557465E10 ; 0.0
114 ; 1630069.271586411 ; 2.0193219416743279E8 ; 1.6234599411920953E8 ; 2.130906016100955E10 ; 0.0
115 ; 1628223.414294772 ; 2.019461782878912E8 ; 1.6397606339079595E8 ; 2.151099235517698E10 ; 0.0
116 ; 1629194.2693514458 ; 2.0196013738347507E8 ; 1.6560428680509073E8 ; 2.171293853346487E10 ; 0.0
117 ; 1626601.4692850115 ; 2.019740710304284E8 ; 1.6723348107444218E8 ; 2.1914898670848347E10 ; 0.0
118 ; 1627625.6882687022 ; 2.0198797881097972E8 ; 1.688600825437272E8 ; 2.2116872741878777E10 ; 0.0
119 ; 1627208.4681241154 ; 2.020018603131132E8 ; 1.7048770823199588E8 ; 2.2318860720689754E10 ; 0.0
120 ; 1624048.9464421119 ; 2.020157151303519E8 ; 1.7211491670012E8 ; 2.252086258100287E10 ; 0.0
121 ; 1622018.392059575 ; 2.02029542861552E8 ; 1.737389656465621E8 ; 2.272287829613322E10 ; 0.0
122 ; 1621797.405876804 ; 2.020433431107079E8 ; 1.7536098403862166E8 ; 2.2924907838994774E10 ; 0.0
123 ; 1621249.1348152382 ; 2.0205711548676717E8 ; 1.7698278144449848E8 ; 2.312695118210548E10 ; 0.0
124 ; 1619032.518949298 ; 2.0207085960345486E8 ; 1.7860403057931373E8 ; 2.3329008297592247E10 ; 0.0
125 ; 1616483.3799537157 ; 2.0208457507910678E8 ; 1.8022306309826303E8 ; 2.35310791571957E10 ; 0.0
126 ; 1615352.8637330844 ; 2.020982615365111E8 ; 1.8183954647821674E8 ; 2.3733163732274807E10 ; 0.0
127 ; 1613476.4498365938 ; 2.0211191860275784E8 ; 1.8345489934194982E8 ; 2.3935261993811317E10 ; 0.0
128 ; 1611673.5151302333 ; 2.021255459090959E8 ; 1.850683757917864E8 ; 2.4137373912414074E10 ; 0.0
129 ; 1609205.8536341952 ; 2.0213914309079704E8 ; 1.8668004930691662E8 ; 2.433949945832317E10 ; 0.0
130 ; 1607799.5962607423 ; 2.0215270978702658E8 ; 1.8828925516055083E8 ; 2.4541638601413967E10 ; 0.0
131 ; 1604240.7001208758 ; 2.0216624564072043E8 ; 1.898970547568116E8 ; 2.4743791311200993E10 ; 0.0
132 ; 1598640.309154278 ; 2.0217975029846796E8 ; 1.9150129545693246E8 ; 2.4945957556841713E10 ; 0.0
133 ; 1594666.924958716 ; 2.0219322341040075E8 ; 1.9309993576608673E8 ; 2.5148137307140182E10 ; 0.0
134 ; 1592498.4381437278 ; 2.022066646300863E8 ; 1.9469460269104543E8 ; 2.5350330530550583E10 ; 0.0
135 ; 1586600.5547222674 ; 2.0222007361442724E8 ; 1.9628710112918916E8 ; 2.5552537195180668E10 ; 0.0
136 ; 1583799.3417963947 ; 2.0223345002356496E8 ; 1.9787370168391144E8 ; 2.5754757268795094E10 ; 0.0
137 ; 1576240.923727159 ; 2.02246793520788E8 ; 1.9945750102570784E8 ; 2.5956990718818657E10 ; 0.0
138 ; 1572931.7685803133 ; 2.0226010377244464E8 ; 2.01033741949435E8 ; 2.6159237512339443E10 ; 0.0
139 ; 1567533.6260263238 ; 2.0227338044785964E8 ; 2.026066737180153E8 ; 2.636149761611189E10 ; 0.0
140 ; 1564991.4453050303 ; 2.0228662321925482E8 ; 2.0417420734404165E8 ; 2.656377099655975E10 ; 0.0
141 ; 1557998.5025997309 ; 2.0229983176167327E8 ; 2.0573919878934667E8 ; 2.6766057619779003E10 ; 0.0
142 ; 1555674.187773231 ; 2.023130057529072E8 ; 2.0729719729194638E8 ; 2.6968357451540676E10 ; 0.0
143 ; 1550902.030646765 ; 2.0232614487342885E8 ; 2.088528714797196E8 ; 2.7170670457293583E10 ; 0.0
144 ; 1544473.03109725 ; 2.0233924880632487E8 ; 2.1040377351036638E8 ; 2.737299660216701E10 ; 0.0
145 ; 1545944.8293744859 ; 2.023523172372334E8 ; 2.1194824654146364E8 ; 2.7575335850973335E10 ; 0.0
146 ; 1540842.8816683728 ; 2.0236534985428423E8 ; 2.1349419137083814E8 ; 2.7777688168210567E10 ; 0.0
147 ; 1539450.4151136093 ; 2.0237834634804145E8 ; 2.150350342525065E8 ; 2.798005351806485E10 ; 0.0
148 ; 1537397.81759003 ; 2.023913064114489E8 ; 2.165744846676201E8 ; 2.818243186441289E10 ; 0.0
149 ; 1536661.1056588164 ; 2.0240422973977786E8 ; 2.1811188248521012E8 ; 2.838482317082434E10 ; 0.0
150 ; 1534144.9006328846 ; 2.024171160305772E8 ; 2.1964854359086895E8 ; 2.8587227400564117E10 ; 0.0
151 ; 1531091.887937803 ; 2.024299649836259E8 ; 2.2118268849150184E8 ; 2.8789644516594696E10 ; 0.0
152 ; 1529843.4839643354 ; 2.0244277630088705E8 ; 2.2271378037943965E8 ; 2.8992074481578323E10 ; 0.0
153 ; 1527226.6146260973 ; 2.0245554968646494E8 ; 2.2424362386340398E8 ; 2.919451725787921E10 ; 0.0
154 ; 1526711.6901970024 ; 2.024682848465629E8 ; 2.257708504780301E8 ; 2.9396972807565678E10 ; 0.0
155 ; 1524883.7296965239 ; 2.0248098148944393E8 ; 2.2729756216822708E8 ; 2.959944109241224E10 ; 0.0
156 ; 1522819.6185414651 ; 2.024936393253924E8 ; 2.288224458979236E8 ; 2.9801922073901684E10 ; 0.0
157 ; 1519139.0204351577 ; 2.0250625806667787E8 ; 2.3034526551646507E8 ; 3.0004415713227077E10 ; 0.0
158 ; 1519372.2187888585 ; 2.0251883742752028E8 ; 2.3186440453690022E8 ; 3.0206921971293755E10 ; 0.0
159 ; 1515780.1036105612 ; 2.0253137712405664E8 ; 2.3338377675568908E8 ; 3.0409440808721275E10 ; 0.0
160 ; 1514668.954126924 ; 2.025438768743093E8 ; 2.3489955685929966E8 ; 3.0611972185845333E10 ; 0.0
161 ; 1511719.059909204 ; 2.0255633639815545E8 ; 2.3641422581342658E8 ; 3.0814516062719643E10 ; 0.0
162 ; 1509489.8092563448 ; 2.025687554172982E8 ; 2.3792594487333578E8 ; 3.1017072399117798E10 ; 0.0
163 ; 1507331.949829653 ; 2.0258113365523854E8 ; 2.3943543468259212E8 ; 3.1219641154535095E10 ; 0.0
164 ; 1504835.7077239666 ; 2.025934708372488E8 ; 2.409427666324218E8 ; 3.1422222288190334E10 ; 0.0
165 ; 1503162.7934043407 ; 2.0260576669034722E8 ; 2.4244760234014577E8 ; 3.1624815759027584E10 ; 0.0
166 ; 1502852.5732351302 ; 2.0261802094327354E8 ; 2.439507651335501E8 ; 3.182742152571793E10 ; 0.0
167 ; 1499712.3481786733 ; 2.026302333264657E8 ; 2.4545361770678523E8 ; 3.20300395466612E10 ; 0.0
168 ; 1498115.255667595 ; 2.0264240357203746E8 ; 2.4695333005496392E8 ; 3.2232669779987667E10 ; 0.0
169 ; 1495337.7691236224 ; 2.026545314137572E8 ; 2.484514453106315E8 ; 3.2435312183559704E10 ; 0.0
170 ; 1494091.84549331 ; 2.026666165870274E8 ; 2.4994678307975513E8 ; 3.263796671497346E10 ; 0.0
171 ; 1491838.0922096113 ; 2.026786588288651E8 ; 2.5144087492524844E8 ; 3.284063333156049E10 ; 0.0
172 ; 1490584.7785693102 ; 2.0269065787788332E8 ; 2.5293271301745805E8 ; 3.3043311990389355E10 ; 0.0
173 ; 1489254.562237856 ; 2.0270261347427303E8 ; 2.5442329779602736E8 ; 3.324600264826724E10 ; 0.0
174 ; 1487633.906455814 ; 2.0271452535978618E8 ; 2.5591255235826522E8 ; 3.3448705261741512E10 ; 0.0
175 ; 1486419.276950316 ; 2.027263932777193E8 ; 2.5740018626472104E8 ; 3.36514197871013E10 ; 0.0
176 ; 1482945.6328655453 ; 2.0273821697289783E8 ; 2.5888660554167137E8 ; 3.3854146180379017E10 ; 0.0
177 ; 1483703.5934805092 ; 2.0274999619166118E8 ; 2.603695511745369E8 ; 3.4056884397351913E10 ; 0.0
178 ; 1481750.4732955848 ; 2.0276173068184847E8 ; 2.618532547680174E8 ; 3.4259634393543575E10 ; 0.0
179 ; 1479018.5556896809 ; 2.027734201927848E8 ; 2.63335005241313E8 ; 3.4462396124225426E10 ; 0.0
180 ; 1477440.6153777633 ; 2.0278506447526813E8 ; 2.648140237970027E8 ; 3.466516954441821E10 ; 0.0
181 ; 1476219.9014255898 ; 2.0279666328155693E8 ; 2.6629146441238046E8 ; 3.486795460889348E10 ; 0.0
182 ; 1474001.9857730216 ; 2.0280821636535808E8 ; 2.6776768431380606E8 ; 3.507075127217503E10 ; 0.0
183 ; 1472154.686571365 ; 2.0281972348181552E8 ; 2.692416862995791E8 ; 3.527355948854039E10 ; 0.0
184 ; 1472128.8613502309 ; 2.0283118438749942E8 ; 2.7071384098615044E8 ; 3.547637921202221E10 ; 0.0
185 ; 1469646.0169477684 ; 2.0284259884039557E8 ; 2.721859698475007E8 ; 3.5679210396409706E10 ; 0.0
186 ; 1470830.9967060888 ; 2.028539665998957E8 ; 2.736556158644484E8 ; 3.58820529952501E10 ; 0.0
187 ; 1466896.547524679 ; 2.0286528742678773E8 ; 2.751264468611545E8 ; 3.608490696185E10 ; 0.0
188 ; 1466791.0837320918 ; 2.028765610832469E8 ; 2.765933434086792E8 ; 3.628777224927679E10 ; 0.0
189 ; 1466480.663397454 ; 2.0288778733282697E8 ; 2.7806013449241126E8 ; 3.649064881036003E10 ; 0.0
190 ; 1462855.9915526751 ; 2.0289896594045213E8 ; 2.795266151558087E8 ; 3.6693536597692856E10 ; 0.0
191 ; 1463252.8465760269 ; 2.0291009667240906E8 ; 2.8098947114736134E8 ; 3.689643556363331E10 ; 0.0
192 ; 1461181.959399919 ; 2.029211792963394E8 ; 2.824527239939374E8 ; 3.709934566030572E10 ; 0.0
193 ; 1460744.1245465763 ; 2.029322135812326E8 ; 2.839139059533373E8 ; 3.730226683960206E10 ; 0.0
194 ; 1459896.2766129319 ; 2.0294319929741928E8 ; 2.853746500778839E8 ; 3.750519905318329E10 ; 0.0
195 ; 1457948.9686855958 ; 2.0295413621656457E8 ; 2.8683454635449684E8 ; 3.7708142252480705E10 ; 0.0
196 ; 1454838.1574847195 ; 2.02965024111662E8 ; 2.882924953231824E8 ; 3.791109638869727E10 ; 0.0
197 ; 1455703.0810652983 ; 2.0297586275702772E8 ; 2.897473334806671E8 ; 3.811406141280894E10 ; 0.0
198 ; 1452335.3141467306 ; 2.0298665192829487E8 ; 2.912030365617324E8 ; 3.831703727556596E10 ; 0.0
199 ; 1451621.3892443713 ; 2.0299739140240824E8 ; 2.9265537187587917E8 ; 3.8520023927494255E10 ; 0.0
