CSV File for the City 2 on Day 91
1 - Minute m 
2 - Power Consumed at minute m 
3 - Power Produced at minute m 
4 - Energy Consumed since the beginning of the day 
5 - Energy Produced since the beginning of the day 
6 - Energy Lost since the beginning of the day on lines starting from the city
 
0 ; 1789007.7508025689 ; 1.0525470820776555E8 ; 0.0 ; 0.0 ; 0.0
1 ; 1790854.0059209925 ; 1.0540868602032113E8 ; 1789007.7508025689 ; 1.0525470820776555E8 ; 0.0
2 ; 1792096.7573485237 ; 1.0587134078463462E8 ; 3579861.7567235613 ; 2.1066339422808668E8 ; 0.0
3 ; 1796083.1104920446 ; 1.0664267287411606E8 ; 5371958.514072085 ; 3.165347350127213E8 ; 0.0
4 ; 1797922.0241180635 ; 1.0772268262344575E8 ; 7168041.62456413 ; 4.2317740788683736E8 ; 0.0
5 ; 1801276.2159051835 ; 1.09111370326707E8 ; 8965963.648682194 ; 5.309000905102831E8 ; 0.0
6 ; 1806002.4677832266 ; 1.1080873623571393E8 ; 1.0767239864587378E7 ; 6.400114608369901E8 ; 0.0
7 ; 1812815.3714419298 ; 1.1281478055855566E8 ; 1.2573242332370605E7 ; 7.508201970727041E8 ; 0.0
8 ; 1821650.574696085 ; 1.1512950345837718E8 ; 1.4386057703812536E7 ; 8.636349776312597E8 ; 0.0
9 ; 1834730.7901796508 ; 1.1775290505241287E8 ; 1.620770827850862E7 ; 9.787644810896368E8 ; 0.0
10 ; 1857788.083296079 ; 1.2068498541128623E8 ; 1.804243906868827E7 ; 1.0965173861420498E9 ; 0.0
11 ; 1891860.1549698533 ; 1.2392574455858573E8 ; 1.990022715198435E7 ; 1.2172023715533361E9 ; 0.0
12 ; 1946409.742236506 ; 1.2747518247072288E8 ; 2.17920873069542E7 ; 1.3411281161119218E9 ; 0.0
13 ; 1996652.8786902018 ; 1.3133329907707417E8 ; 2.3738497049190708E7 ; 1.4686032985826447E9 ; 0.0
14 ; 2003379.8539894933 ; 1.355000942604053E8 ; 2.573514992788091E7 ; 1.599936597659719E9 ; 0.0
15 ; 2005627.786107905 ; 1.3997556785757118E8 ; 2.7738529781870402E7 ; 1.7354366919201243E9 ; 0.0
16 ; 2007324.3501538027 ; 1.447597196604828E8 ; 2.9744157567978308E7 ; 1.8754122597776954E9 ; 0.0
17 ; 2010703.8975047288 ; 1.4985254941732594E8 ; 3.175148191813211E7 ; 2.0201719794381783E9 ; 0.0
18 ; 2012592.4439630124 ; 1.5525405683401734E8 ; 3.376218581563684E7 ; 2.170024528855504E9 ; 0.0
19 ; 2013795.4259302346 ; 1.6096424157587668E8 ; 3.577477825959986E7 ; 2.3252785856895213E9 ; 0.0
20 ; 2016441.9381743707 ; 1.669831032694939E8 ; 3.778857368553009E7 ; 2.486242827265398E9 ; 0.0
21 ; 2020851.6952665092 ; 1.7331064150476745E8 ; 3.980501562370446E7 ; 2.653225930534892E9 ; 0.0
22 ; 2023858.4732176568 ; 1.7994685583708835E8 ; 4.182586731897097E7 ; 2.8265365720396595E9 ; 0.0
23 ; 2025464.9992101856 ; 1.8689174578964525E8 ; 4.384972579218863E7 ; 3.006483427876748E9 ; 0.0
24 ; 2027848.3996354237 ; 1.941453108558218E8 ; 4.5875190791398816E7 ; 3.1933751736663933E9 ; 0.0
25 ; 2030362.2435495874 ; 2.003955913998468E8 ; 4.790303919103424E7 ; 3.387520484522215E9 ; 0.0
26 ; 2032968.5948556657 ; 2.0039613469619796E8 ; 4.993340143458383E7 ; 3.587916075922062E9 ; 0.0
27 ; 2035797.0458176665 ; 2.0039670945703137E8 ; 5.1966370029439494E7 ; 3.78831221061826E9 ; 0.0
28 ; 2038346.5414233585 ; 2.003973150814752E8 ; 5.400216707525716E7 ; 3.988708920075291E9 ; 0.0
29 ; 2041363.114193431 ; 2.0039795095136952E8 ; 5.604051361668052E7 ; 4.1891062351567664E9 ; 0.0
30 ; 2041504.8952676775 ; 2.0039861643371552E8 ; 5.808187673087395E7 ; 4.389504186108136E9 ; 0.0
31 ; 2044190.637620371 ; 2.0039931088306114E8 ; 6.012338162614163E7 ; 4.589902802541852E9 ; 0.0
32 ; 2047784.1759729218 ; 2.004000336438088E8 ; 6.2167572263762005E7 ; 4.790302113424913E9 ; 0.0
33 ; 2048467.4047122002 ; 2.0040078405243134E8 ; 6.421535643973493E7 ; 4.990702147068722E9 ; 0.0
34 ; 2052912.2165382057 ; 2.004015614395861E8 ; 6.626382384444713E7 ; 5.191102931121153E9 ; 0.0
35 ; 2054898.9203456165 ; 2.004023651321181E8 ; 6.831673606098533E7 ; 5.391504492560739E9 ; 0.0
36 ; 2055794.473630372 ; 2.0040319445494586E8 ; 7.037163498133095E7 ; 5.591906857692857E9 ; 0.0
37 ; 2056951.1315700018 ; 2.0040404873282498E8 ; 7.242742945496131E7 ; 5.792310052147802E9 ; 0.0
38 ; 2059175.8335438378 ; 2.0040492729198724E8 ; 7.448438058653131E7 ; 5.992714100880628E9 ; 0.0
39 ; 2060071.501415624 ; 2.0040582946165293E8 ; 7.654355642007515E7 ; 6.193119028172615E9 ; 0.0
40 ; 2062816.5127534468 ; 2.0040675457541785E8 ; 7.860362792149077E7 ; 6.393524857634268E9 ; 0.0
41 ; 2064388.8085427785 ; 2.0040770197251537E8 ; 8.066644443424422E7 ; 6.593931612209685E9 ; 0.0
42 ; 2065997.1515269189 ; 2.0040867099895704E8 ; 8.273083324278699E7 ; 6.7943393141822E9 ; 0.0
43 ; 2067684.6903356677 ; 2.0040966100855467E8 ; 8.47968303943139E7 ; 6.994747985181157E9 ; 0.0
44 ; 2068743.0994034288 ; 2.0041067136382872E8 ; 8.686451508464956E7 ; 7.195157646189712E9 ; 0.0
45 ; 2070175.8200871658 ; 2.0041170143680742E8 ; 8.893325818405299E7 ; 7.39556831755354E9 ; 0.0
46 ; 2069827.7957051727 ; 2.0041275060972258E8 ; 9.100343400414015E7 ; 7.595980018990348E9 ; 0.0
47 ; 2072482.6987027586 ; 2.0041381827560732E8 ; 9.307326179984532E7 ; 7.79639276960007E9 ; 0.0
48 ; 2073423.4207276227 ; 2.0041490383880207E8 ; 9.514574449854808E7 ; 7.996806587875677E9 ; 0.0
49 ; 2071823.0855680238 ; 2.0041600671537495E8 ; 9.72191679192757E7 ; 8.197221491714479E9 ; 0.0
50 ; 2075118.7409843327 ; 2.0041712633346233E8 ; 9.929099100484373E7 ; 8.397637498429854E9 ; 0.0
51 ; 2075216.1368232467 ; 2.0041826213353604E8 ; 1.0136610974582806E8 ; 8.598054624763317E9 ; 0.0
52 ; 2075461.254475558 ; 2.0041941356860316E8 ; 1.0344132588265131E8 ; 8.798472886896852E9 ; 0.0
53 ; 2077175.0959019787 ; 2.0042058010434383E8 ; 1.0551678713712688E8 ; 8.998892300465456E9 ; 0.0
54 ; 2078575.8745786194 ; 2.0042176121919334E8 ; 1.0759396223302886E8 ; 9.1993128805698E9 ; 0.0
55 ; 2077760.176015931 ; 2.004229564043734E8 ; 1.0967253810760748E8 ; 9.399734641788992E9 ; 0.0
56 ; 2078850.2497521332 ; 2.004241651638779E8 ; 1.1175029828362341E8 ; 9.600157598193365E9 ; 0.0
57 ; 2079875.4993818793 ; 2.0042538701441798E8 ; 1.1382914853337555E8 ; 9.800581763357243E9 ; 0.0
58 ; 2079671.5584566598 ; 2.00426621485331E8 ; 1.1590902403275743E8 ; 1.000100715037166E10 ; 0.0
59 ; 2080749.9949107906 ; 2.0042786811845762E8 ; 1.1798869559121409E8 ; 1.020143377185699E10 ; 0.0
60 ; 2081467.1076300219 ; 2.0042912646799102E8 ; 1.2006944558612488E8 ; 1.0401861639975449E10 ; 0.0
61 ; 2080927.3478098037 ; 2.004303961003019E8 ; 1.2215091269375491E8 ; 1.060229076644344E10 ; 0.0
62 ; 2081976.8534833393 ; 2.0043167659374255E8 ; 1.2423184004156472E8 ; 1.0802721162543741E10 ; 0.0
63 ; 2082912.7343092982 ; 2.0043296753843337E8 ; 1.2631381689504805E8 ; 1.1003152839137484E10 ; 0.0
64 ; 2082673.0018986557 ; 2.0043426853603444E8 ; 1.2839672962935735E8 ; 1.1203585806675917E10 ; 0.0
65 ; 2084092.609164398 ; 2.0043557919950482E8 ; 1.3047940263125601E8 ; 1.140402007521195E10 ; 0.0
66 ; 2084226.3335215703 ; 2.0043689915285188E8 ; 1.3256349524042042E8 ; 1.1604455654411455E10 ; 0.0
67 ; 2084583.2195650632 ; 2.0043822803087297E8 ; 1.3464772157394198E8 ; 1.1804892553564306E10 ; 0.0
68 ; 2084404.5984965668 ; 2.0043956547889104E8 ; 1.3673230479350704E8 ; 1.2005330781595179E10 ; 0.0
69 ; 2083617.475725277 ; 2.0044091115248615E8 ; 1.388167093920036E8 ; 1.220577034707407E10 ; 0.0
70 ; 2085497.8427519607 ; 2.004422647172244E8 ; 1.4090032686772886E8 ; 1.2406211258226557E10 ; 0.0
71 ; 2087607.2895546027 ; 2.004436258483854E8 ; 1.429858247104808E8 ; 1.260665352294378E10 ; 0.0
72 ; 2085491.2250972611 ; 2.0044499423068982E8 ; 1.450734320000354E8 ; 1.2807097148792166E10 ; 0.0
73 ; 2086742.2453814046 ; 2.0044636955802783E8 ; 1.4715892322513267E8 ; 1.3007542143022856E10 ; 0.0
74 ; 2087631.8689756922 ; 2.004477515331893E8 ; 1.492456654705141E8 ; 1.3207988512580883E10 ; 0.0
75 ; 2086014.9613928385 ; 2.004491398675968E8 ; 1.513332973394898E8 ; 1.3408436264114073E10 ; 0.0
76 ; 2087650.4246916883 ; 2.0045053428104198E8 ; 1.5341931230088264E8 ; 1.360888540398167E10 ; 0.0
77 ; 2087435.9839511022 ; 2.0045193450142574E8 ; 1.555069627255743E8 ; 1.3809335938262712E10 ; 0.0
78 ; 2086242.907803217 ; 2.004533402645031E8 ; 1.575943987095254E8 ; 1.4009787872764137E10 ; 0.0
79 ; 2086950.5054356356 ; 2.004547513136326E8 ; 1.596806416173286E8 ; 1.421024121302864E10 ; 0.0
80 ; 2086005.3838952605 ; 2.0045616739953125E8 ; 1.6176759212276426E8 ; 1.4410695964342274E10 ; 0.0
81 ; 2085971.3472380158 ; 2.0045758828003463E8 ; 1.638535975066595E8 ; 1.4611152131741804E10 ; 0.0
82 ; 2084256.301116294 ; 2.0045901371986303E8 ; 1.659395688538975E8 ; 1.481160972002184E10 ; 0.0
83 ; 2084043.988081094 ; 2.004604434903932E8 ; 1.680238251550138E8 ; 1.5012068733741703E10 ; 0.0
84 ; 2083771.5878122544 ; 2.0046187736943612E8 ; 1.701078691430949E8 ; 1.5212529177232096E10 ; 0.0
85 ; 2082490.175688461 ; 2.004633151410211E8 ; 1.7219164073090714E8 ; 1.5412991054601532E10 ; 0.0
86 ; 2082534.6430516832 ; 2.004647565951856E8 ; 1.7427413090659562E8 ; 1.5613454369742554E10 ; 0.0
87 ; 2082772.8250189188 ; 2.0046620152777162E8 ; 1.763566655496473E8 ; 1.581391912633774E10 ; 0.0
88 ; 2082528.4108806825 ; 2.004676497402277E8 ; 1.784394383746662E8 ; 1.601438532786551E10 ; 0.0
89 ; 2081290.208364874 ; 2.0046910103941756E8 ; 1.805219667855469E8 ; 1.621485297760574E10 ; 0.0
90 ; 2082058.9568923302 ; 2.0047055523743433E8 ; 1.8260325699391177E8 ; 1.6415322078645157E10 ; 0.0
91 ; 2080459.3719350975 ; 2.0047201215142095E8 ; 1.846853159508041E8 ; 1.6615792633882591E10 ; 0.0
92 ; 2079622.2150640716 ; 2.0047347160339642E8 ; 1.867657753227392E8 ; 1.6816264646034012E10 ; 0.0
93 ; 2078558.4983735073 ; 2.0047493342008772E8 ; 1.888453975378033E8 ; 1.701673811763741E10 ; 0.0
94 ; 2076189.453800968 ; 2.004763974327675E8 ; 1.909239560361768E8 ; 1.7217213051057495E10 ; 0.0
95 ; 2076506.563839649 ; 2.0047786347709718E8 ; 1.9300014548997778E8 ; 1.741768944849026E10 ; 0.0
96 ; 2076119.882837356 ; 2.0047933139297554E8 ; 1.9507665205381742E8 ; 1.7618167311967358E10 ; 0.0
97 ; 2075222.845133201 ; 2.0048080102439255E8 ; 1.9715277193665478E8 ; 1.7818646643360332E10 ; 0.0
98 ; 2075518.7956568666 ; 2.0048227221928832E8 ; 1.99227994781788E8 ; 1.8019127444384724E10 ; 0.0
99 ; 2072832.0981932606 ; 2.0048374482941714E8 ; 2.0130351357744485E8 ; 1.821960971660401E10 ; 0.0
100 ; 2072922.575053046 ; 2.0048521871021622E8 ; 2.033763456756381E8 ; 1.842009346143343E10 ; 0.0
101 ; 2072526.7942425383 ; 2.0048669372067925E8 ; 2.0544926825069115E8 ; 1.8620578680143646E10 ; 0.0
102 ; 2070996.3923027907 ; 2.004881697232345E8 ; 2.0752179504493368E8 ; 1.8821065373864326E10 ; 0.0
103 ; 2069553.6426931622 ; 2.0048964658362734E8 ; 2.0959279143723646E8 ; 1.9021553543587563E10 ; 0.0
104 ; 2067733.8605993097 ; 2.0049112417080712E8 ; 2.1166234507992962E8 ; 1.922204319017119E10 ; 0.0
105 ; 2068656.4889601122 ; 2.0049260235681805E8 ; 2.1373007894052893E8 ; 1.9422534314341995E10 ; 0.0
106 ; 2067822.373458004 ; 2.0049408101669422E8 ; 2.1579873542948905E8 ; 1.9623026916698814E10 ; 0.0
107 ; 2066260.0313228427 ; 2.0049556002835837E8 ; 2.1786655780294704E8 ; 1.9823520997715508E10 ; 0.0
108 ; 2064024.225550451 ; 2.0049703927252468E8 ; 2.1993281783426988E8 ; 2.0024016557743866E10 ; 0.0
109 ; 2064915.8935960538 ; 2.0049851863260478E8 ; 2.2199684205982032E8 ; 2.022451359701639E10 ; 0.0
110 ; 2062792.4849472991 ; 2.0049999799461743E8 ; 2.2406175795341638E8 ; 2.0425012115649E10 ; 0.0
111 ; 2062284.3975601732 ; 2.0050147724710175E8 ; 2.2612455043836367E8 ; 2.0625512113643616E10 ; 0.0
112 ; 2061322.3289089254 ; 2.0050295628103334E8 ; 2.2818683483592385E8 ; 2.0826013590890717E10 ; 0.0
113 ; 2061347.6401960342 ; 2.0050443498974368E8 ; 2.3024815716483277E8 ; 2.102651654717175E10 ; 0.0
114 ; 2057536.2675346464 ; 2.0050591326884267E8 ; 2.323095048050288E8 ; 2.122702098216149E10 ; 0.0
115 ; 2058242.6780233625 ; 2.005073910161438E8 ; 2.3436704107256344E8 ; 2.1427526895430332E10 ; 0.0
116 ; 2056618.2303446098 ; 2.005088681315923E8 ; 2.364252837505868E8 ; 2.1628034286446476E10 ; 0.0
117 ; 2055611.9887422768 ; 2.00510344517196E8 ; 2.3848190198093143E8 ; 2.1828543154578068E10 ; 0.0
118 ; 2053363.4879112418 ; 2.0051182007695848E8 ; 2.405375139696737E8 ; 2.2029053499095264E10 ; 0.0
119 ; 2053655.9041080899 ; 2.005132947168151E8 ; 2.4259087745758495E8 ; 2.2229565319172222E10 ; 0.0
120 ; 2051042.1752708016 ; 2.005147683445712E8 ; 2.4464453336169302E8 ; 2.2430078613889038E10 ; 0.0
121 ; 2051112.1207940164 ; 2.0051624086984253E8 ; 2.4669557553696382E8 ; 2.263059338223361E10 ; 0.0
122 ; 2048976.8978352144 ; 2.005177122039981E8 ; 2.4874668765775785E8 ; 2.283110962310345E10 ; 0.0
123 ; 2047235.1828771024 ; 2.0051918226010495E8 ; 2.5079566455559307E8 ; 2.303162733530745E10 ; 0.0
124 ; 2046775.3833691748 ; 2.005206509528753E8 ; 2.5284289973847017E8 ; 2.3232146517567554E10 ; 0.0
125 ; 2045228.2250390442 ; 2.0052211819861504E8 ; 2.5488967512183934E8 ; 2.343266716852043E10 ; 0.0
126 ; 2043129.009578917 ; 2.0052358391517484E8 ; 2.5693490334687838E8 ; 2.3633189286719048E10 ; 0.0
127 ; 2041673.2544643718 ; 2.0052504802190265E8 ; 2.589780323564573E8 ; 2.3833712870634224E10 ; 0.0
128 ; 2041514.643062885 ; 2.0052651043959787E8 ; 2.6101970561092165E8 ; 2.4034237918656128E10 ; 0.0
129 ; 2040645.5638505358 ; 2.0052797109046763E8 ; 2.6306122025398454E8 ; 2.4234764429095726E10 ; 0.0
130 ; 2038345.398192475 ; 2.0052942989808422E8 ; 2.6510186581783506E8 ; 2.4435292400186195E10 ; 0.0
131 ; 2036134.1381824925 ; 2.005308867873443E8 ; 2.6714021121602753E8 ; 2.463582183008428E10 ; 0.0
132 ; 2033215.9481292225 ; 2.0053234168442968E8 ; 2.6917634535421E8 ; 2.4836352716871624E10 ; 0.0
133 ; 2031919.9479023493 ; 2.005337945167693E8 ; 2.7120956130233926E8 ; 2.5036885058556053E10 ; 0.0
134 ; 2028734.3644395832 ; 2.005352452130028E8 ; 2.732414812502416E8 ; 2.5237418853072823E10 ; 0.0
135 ; 2027674.0807567232 ; 2.0053669370294526E8 ; 2.752702156146812E8 ; 2.5437954098285824E10 ; 0.0
136 ; 2025361.4846443923 ; 2.005381399175534E8 ; 2.772978896954379E8 ; 2.563849079198877E10 ; 0.0
137 ; 2022498.4911385777 ; 2.0053958378889272E8 ; 2.793232511800823E8 ; 2.5839028931906322E10 ; 0.0
138 ; 2020419.6169190728 ; 2.0054102525010616E8 ; 2.813457496712209E8 ; 2.6039568515695213E10 ; 0.0
139 ; 2019013.2163715807 ; 2.005424642353835E8 ; 2.8336616928814E8 ; 2.624010954094532E10 ; 0.0
140 ; 2015235.8506195329 ; 2.0054390067993245E8 ; 2.853851825045116E8 ; 2.6440652005180702E10 ; 0.0
141 ; 2013698.4705157648 ; 2.0054533451994988E8 ; 2.8740041835513115E8 ; 2.6641195905860634E10 ; 0.0
142 ; 2011092.954663787 ; 2.0054676569259503E8 ; 2.8941411682564694E8 ; 2.6841741240380585E10 ; 0.0
143 ; 2009045.0486266925 ; 2.0054819413596308E8 ; 2.9142520978031075E8 ; 2.704228800607318E10 ; 0.0
144 ; 2007649.4644423276 ; 2.005496197890597E8 ; 2.934342548289375E8 ; 2.7242836200209145E10 ; 0.0
145 ; 2004944.0565372838 ; 2.0055104259177676E8 ; 2.954419042933798E8 ; 2.7443385819998203E10 ; 0.0
146 ; 2004204.6324232912 ; 2.005524624848687E8 ; 2.9744684834991705E8 ; 2.764393686258998E10 ; 0.0
147 ; 2003958.2013423182 ; 2.0055387940992975E8 ; 2.9945105298234034E8 ; 2.784448932507485E10 ; 0.0
148 ; 2000341.9755287746 ; 2.00555293309372E8 ; 3.014550111836827E8 ; 2.804504320448478E10 ; 0.0
149 ; 1998477.9699615897 ; 2.0055670412640423E8 ; 3.0345535315921146E8 ; 2.824559849779415E10 ; 0.0
150 ; 1998055.6235999127 ; 2.005581118050114E8 ; 3.0545383112917304E8 ; 2.8446155201920555E10 ; 0.0
151 ; 1997498.487825928 ; 2.0055951628993493E8 ; 3.074518867527729E8 ; 2.8646713313725567E10 ; 0.0
152 ; 1994518.9844944575 ; 2.005609175266537E8 ; 3.0944938524059886E8 ; 2.8847272830015503E10 ; 0.0
153 ; 1991369.2351281613 ; 2.0056231546136555E8 ; 3.114439042250933E8 ; 2.9047833747542156E10 ; 0.0
154 ; 1991099.2770775997 ; 2.0056371004096967E8 ; 3.1343527346022147E8 ; 2.924839606300352E10 ; 0.0
155 ; 1989820.3285334534 ; 2.005651012130492E8 ; 3.154263727372991E8 ; 2.944895977304449E10 ; 0.0
156 ; 1987203.5949996056 ; 2.0056648892585495E8 ; 3.1741619306583256E8 ; 2.964952487425754E10 ; 0.0
157 ; 1988166.3632576298 ; 2.005678731282892E8 ; 3.1940339666083217E8 ; 2.9850091363183395E10 ; 0.0
158 ; 1985480.3619189686 ; 2.0056925376989022E8 ; 3.213915630240898E8 ; 3.0050659236311684E10 ; 0.0
159 ; 1983102.7716626483 ; 2.0057063080081758E8 ; 3.233770433860088E8 ; 3.0251228490081573E10 ; 0.0
160 ; 1982071.3783252172 ; 2.0057200417183742E8 ; 3.2536014615767145E8 ; 3.0451799120882393E10 ; 0.0
161 ; 1979079.0785919921 ; 2.005733738343087E8 ; 3.273422175359967E8 ; 3.065237112505423E10 ; 0.0
162 ; 1978561.6031852504 ; 2.0057473974016967E8 ; 3.293212966145887E8 ; 3.085294449888854E10 ; 0.0
163 ; 1977437.4217909244 ; 2.0057610184192488E8 ; 3.312998582177739E8 ; 3.1053519238628708E10 ; 0.0
164 ; 1974348.214571409 ; 2.005774600926325E8 ; 3.332772956395648E8 ; 3.1254095340470634E10 ; 0.0
165 ; 1973555.485838748 ; 2.0057881444589227E8 ; 3.352516438541362E8 ; 3.1454672800563267E10 ; 0.0
166 ; 1970838.96530561 ; 2.005801648558337E8 ; 3.37225199339975E8 ; 3.165525161500916E10 ; 0.0
167 ; 1970076.5612367343 ; 2.0058151127710468E8 ; 3.391960383052806E8 ; 3.1855831779864994E10 ; 0.0
168 ; 1967926.7486013258 ; 2.005828536648605E8 ; 3.4116611486651736E8 ; 3.2056413291142097E10 ; 0.0
169 ; 1965669.5191260988 ; 2.0058419197475314E8 ; 3.431340416151187E8 ; 3.2256996144806957E10 ; 0.0
170 ; 1964677.7274403232 ; 2.0058552616292122E8 ; 3.450997111342448E8 ; 3.245758033678171E10 ; 0.0
171 ; 1964869.5642399804 ; 2.0058685618597978E8 ; 3.470643888616851E8 ; 3.2658165862944633E10 ; 0.0
172 ; 1960306.2170451684 ; 2.005881820010108E8 ; 3.490292584259251E8 ; 3.285875271913061E10 ; 0.0
173 ; 1960859.53598739 ; 2.005895035655539E8 ; 3.5098956464297026E8 ; 3.3059340901131622E10 ; 0.0
174 ; 1958658.5099389353 ; 2.0059082083759725E8 ; 3.5295042417895764E8 ; 3.3259930404697178E10 ; 0.0
175 ; 1957242.694776421 ; 2.0059213377556893E8 ; 3.549090826888966E8 ; 3.3460521225534775E10 ; 0.0
176 ; 1957632.0506516418 ; 2.0059344233832857E8 ; 3.56866325383673E8 ; 3.3661113359310345E10 ; 0.0
177 ; 1954520.7488544125 ; 2.0059474648515898E8 ; 3.588239574343247E8 ; 3.3861706801648674E10 ; 0.0
178 ; 1954010.3104478167 ; 2.0059604617575848E8 ; 3.607784781831791E8 ; 3.4062301548133835E10 ; 0.0
179 ; 1953334.6913954285 ; 2.005973413702331E8 ; 3.627324884936269E8 ; 3.4262897594309593E10 ; 0.0
180 ; 1954150.7342480882 ; 2.0059863202908924E8 ; 3.646858231850223E8 ; 3.4463494935679825E10 ; 0.0
181 ; 1951667.0064397631 ; 2.005999181132266E8 ; 3.666399739192704E8 ; 3.4664093567708916E10 ; 0.0
182 ; 1949167.7510177167 ; 2.0060119958393103E8 ; 3.6859164092571014E8 ; 3.486469348582214E10 ; 0.0
183 ; 1950359.9654196769 ; 2.0060247640286806E8 ; 3.7054080867672783E8 ; 3.5065294685406075E10 ; 0.0
184 ; 1947678.0600833963 ; 2.0060374853207627E8 ; 3.724911686421475E8 ; 3.5265897161808945E10 ; 0.0
185 ; 1946822.026087373 ; 2.006050159339609E8 ; 3.744388467022309E8 ; 3.546650091034102E10 ; 0.0
186 ; 1946702.7380717162 ; 2.0060627857128805E8 ; 3.763856687283182E8 ; 3.566710592627498E10 ; 0.0
187 ; 1945031.3970241677 ; 2.0060753640717843E8 ; 3.7833237146638995E8 ; 3.586771220484627E10 ; 0.0
188 ; 1945253.9718911746 ; 2.0060878940510195E8 ; 3.802774028634141E8 ; 3.606831974125345E10 ; 0.0
189 ; 1944267.446212762 ; 2.0061003752887195E8 ; 3.822226568353053E8 ; 3.6268928530658554E10 ; 0.0
190 ; 1941513.057548124 ; 2.0061128074263993E8 ; 3.8416692428151804E8 ; 3.646953856818742E10 ; 0.0
191 ; 1942684.3380894458 ; 2.006125190108904E8 ; 3.8610843733906615E8 ; 3.667014984893006E10 ; 0.0
192 ; 1940021.3804088533 ; 2.0061375229843575E8 ; 3.880511216771556E8 ; 3.687076236794095E10 ; 0.0
193 ; 1938568.8186805139 ; 2.0061498057041144E8 ; 3.899911430575645E8 ; 3.707137612023939E10 ; 0.0
194 ; 1939416.5190222492 ; 2.0061620379227123E8 ; 3.91929711876245E8 ; 3.72719911008098E10 ; 0.0
195 ; 1936837.9124831478 ; 2.0061742192978257E8 ; 3.9386912839526725E8 ; 3.747260730460207E10 ; 0.0
196 ; 1935845.2495343178 ; 2.0061863494902232E8 ; 3.958059663077504E8 ; 3.767322472653185E10 ; 0.0
197 ; 1934562.6885235414 ; 2.0061984281637225E8 ; 3.977418115572847E8 ; 3.787384336148087E10 ; 0.0
198 ; 1934233.6852969031 ; 2.0062104549851495E8 ; 3.9967637424580824E8 ; 3.807446320429725E10 ; 0.0
199 ; 1932828.1723459265 ; 2.0062224296242982E8 ; 4.0161060793110514E8 ; 3.827508424979576E10 ; 0.0
