CSV File for the City 2 on Day 347
1 - Minute m 
2 - Power Consumed at minute m 
3 - Power Produced at minute m 
4 - Energy Consumed since the beginning of the day 
5 - Energy Produced since the beginning of the day 
6 - Energy Lost since the beginning of the day on lines starting from the city
 
0 ; 1787016.1076903027 ; 1.0526719503342655E8 ; 0.0 ; 0.0 ; 0.0
1 ; 1788876.3545870334 ; 1.0542117577045149E8 ; 1787016.1076903027 ; 1.0526719503342655E8 ; 0.0
2 ; 1791478.423104526 ; 1.0588383329599223E8 ; 3575892.462277336 ; 2.1068837080387804E8 ; 0.0
3 ; 1792699.8008723136 ; 1.066551679373923E8 ; 5367370.8853818625 ; 3.1657220409987026E8 ; 0.0
4 ; 1797193.4670445167 ; 1.0773517998746276E8 ; 7160070.686254176 ; 4.2322737203726256E8 ; 0.0
5 ; 1799751.120837022 ; 1.0912386970304579E8 ; 8957264.153298693 ; 5.309625520247253E8 ; 0.0
6 ; 1804172.799841189 ; 1.1082123730373344E8 ; 1.0757015274135714E7 ; 6.40086421727771E8 ; 0.0
7 ; 1809253.9443914343 ; 1.1282728297075689E8 ; 1.2561188073976904E7 ; 7.509076590315045E8 ; 0.0
8 ; 1820264.217218549 ; 1.1514200684605789E8 ; 1.437044201836834E7 ; 8.637349420022614E8 ; 0.0
9 ; 1832744.6712443845 ; 1.1776540903155553E8 ; 1.619070623558689E7 ; 9.788769488483193E8 ; 0.0
10 ; 1855038.1555549873 ; 1.2069748958861536E8 ; 1.8023450906831272E7 ; 1.0966423578798747E9 ; 0.0
11 ; 1888611.759755696 ; 1.239382485377284E8 ; 1.987848906238626E7 ; 1.2173398474684901E9 ; 0.0
12 ; 1942257.0072834855 ; 1.274876858584036E8 ; 2.1767100822141957E7 ; 1.3412780960062184E9 ; 0.0
13 ; 1996108.6936728293 ; 1.313458014892754E8 ; 2.3709357829425443E7 ; 1.468765781864622E9 ; 0.0
14 ; 2000533.6545670293 ; 1.355125953284248E8 ; 2.570546652309827E7 ; 1.6001115833538976E9 ; 0.0
15 ; 2002987.9961326825 ; 1.3998806723390996E8 ; 2.77060001776653E7 ; 1.7356241786823225E9 ; 0.0
16 ; 2006448.34239647 ; 1.447722170244998E8 ; 2.9708988173797984E7 ; 1.8756122459162326E9 ; 0.0
17 ; 2008629.3566661454 ; 1.4986504448060217E8 ; 3.1715436516194455E7 ; 2.0203844629407325E9 ; 0.0
18 ; 2010707.6842044108 ; 1.5526654934537494E8 ; 3.37240658728606E7 ; 2.1702495074213347E9 ; 0.0
19 ; 2012833.1448916558 ; 1.6097673132600704E8 ; 3.573477355706501E7 ; 2.32551605676671E9 ; 0.0
20 ; 2015645.7125010146 ; 1.669955900951549E8 ; 3.774760670195667E7 ; 2.4864927880927167E9 ; 0.0
21 ; 2018888.8607974832 ; 1.73323125292518E8 ; 3.976325241445768E7 ; 2.6534883781878715E9 ; 0.0
22 ; 2021769.5107933753 ; 1.7995933652653605E8 ; 4.178214127525516E7 ; 2.8268115034803896E9 ; 0.0
23 ; 2024162.7917223496 ; 1.8690422337619048E8 ; 4.380391078604853E7 ; 3.0067708400069256E9 ; 0.0
24 ; 2025929.3606214875 ; 1.941577853928908E8 ; 4.582807357777088E7 ; 3.1936750633831162E9 ; 0.0
25 ; 2029531.967921104 ; 2.0040806300061184E8 ; 4.785400293839237E7 ; 3.387832848776007E9 ; 0.0
26 ; 2030318.973301001 ; 2.004086035347913E8 ; 4.988353490631347E7 ; 3.588240911776619E9 ; 0.0
27 ; 2032439.3414612089 ; 2.0040917576926586E8 ; 5.191385387961447E7 ; 3.7886495153114104E9 ; 0.0
28 ; 2035990.3738703986 ; 2.0040977916508958E8 ; 5.3946293221075684E7 ; 3.989058691080676E9 ; 0.0
29 ; 2038999.2598218939 ; 2.0041041316582224E8 ; 5.598228359494608E7 ; 4.1894684702457657E9 ; 0.0
30 ; 2040641.9155275212 ; 2.004110771995548E8 ; 5.802128285476797E7 ; 4.389878883411588E9 ; 0.0
31 ; 2042112.2164036136 ; 2.004117706809025E8 ; 6.006192477029549E7 ; 4.590289960611142E9 ; 0.0
32 ; 2045523.3069469975 ; 2.0041249301295382E8 ; 6.2104036986699104E7 ; 4.790701731292045E9 ; 0.0
33 ; 2046518.8452050632 ; 2.004132435891634E8 ; 6.4149560293646105E7 ; 4.991114224304998E9 ; 0.0
34 ; 2049764.539496791 ; 2.0041402179517972E8 ; 6.6196079138851166E7 ; 5.191527467894162E9 ; 0.0
35 ; 2050988.6792619948 ; 2.0041482701059905E8 ; 6.824584367834796E7 ; 5.391941489689342E9 ; 0.0
36 ; 2052876.0655930066 ; 2.0041565861063856E8 ; 7.029683235760996E7 ; 5.592356316699941E9 ; 0.0
37 ; 2055595.5336697479 ; 2.0041651596772394E8 ; 7.234970842320296E7 ; 5.792771975310579E9 ; 0.0
38 ; 2058318.113684882 ; 2.004173984529864E8 ; 7.440530395687272E7 ; 5.993188491278303E9 ; 0.0
39 ; 2059921.5021768871 ; 2.0041830543766692E8 ; 7.64636220705576E7 ; 6.19360588973129E9 ; 0.0
40 ; 2060570.9879400511 ; 2.0041923629442573E8 ; 7.852354357273448E7 ; 6.394024195168957E9 ; 0.0
41 ; 2062531.195558052 ; 2.004201903985562E8 ; 8.058411456067453E7 ; 6.594443431463383E9 ; 0.0
42 ; 2063418.7020833704 ; 2.0042116712910393E8 ; 8.264664575623259E7 ; 6.794863621861938E9 ; 0.0
43 ; 2065897.4886962764 ; 2.0042216586989146E8 ; 8.471006445831595E7 ; 6.995284788991042E9 ; 0.0
44 ; 2067087.195539524 ; 2.00423186010451E8 ; 8.677596194701223E7 ; 7.195706954860933E9 ; 0.0
45 ; 2067848.9171497263 ; 2.0042422694686726E8 ; 8.884304914255175E7 ; 7.396130140871385E9 ; 0.0
46 ; 2068974.2849233476 ; 2.0042528808253366E8 ; 9.091089805970147E7 ; 7.596554367818252E9 ; 0.0
47 ; 2070283.9546056404 ; 2.0042636882882512E8 ; 9.297987234462482E7 ; 7.796979655900785E9 ; 0.0
48 ; 2071998.7778273798 ; 2.0042746860569116E8 ; 9.505015629923046E7 ; 7.99740602472961E9 ; 0.0
49 ; 2072370.4449092902 ; 2.004285868421735E8 ; 9.712215507705784E7 ; 8.197833493335301E9 ; 0.0
50 ; 2071880.9197502441 ; 2.0042972297685206E8 ; 9.919452552196713E7 ; 8.398262080177475E9 ; 0.0
51 ; 2072462.5062233543 ; 2.0043087645822394E8 ; 1.0126640644171737E8 ; 8.598691803154327E9 ; 0.0
52 ; 2073944.5331408628 ; 2.004320467450193E8 ; 1.0333886894794072E8 ; 8.79912267961255E9 ; 0.0
53 ; 2073915.0045115568 ; 2.0043323330645904E8 ; 1.0541281348108159E8 ; 8.99955472635757E9 ; 0.0
54 ; 2074466.3349857705 ; 2.0043443562245795E8 ; 1.0748672848559314E8 ; 9.19998795966403E9 ; 0.0
55 ; 2076496.4834881835 ; 2.0043565318377796E8 ; 1.0956119482057892E8 ; 9.400422395286488E9 ; 0.0
56 ; 2076881.7806221351 ; 2.004368854921354E8 ; 1.116376913040671E8 ; 9.600858048470266E9 ; 0.0
57 ; 2076387.6674081122 ; 2.004381320602663E8 ; 1.1371457308468924E8 ; 9.801294933962402E9 ; 0.0
58 ; 2077238.5240443079 ; 2.0043939241195342E8 ; 1.1579096075209735E8 ; 1.0001733066022669E10 ; 0.0
59 ; 2078546.6879136227 ; 2.0044066608201876E8 ; 1.1786819927614166E8 ; 1.0202172458434622E10 ; 0.0
60 ; 2078156.0717985218 ; 2.0044195261628485E8 ; 1.1994674596405528E8 ; 1.040261312451664E10 ; 0.0
61 ; 2080125.378208956 ; 2.0044325157150817E8 ; 1.220249020358538E8 ; 1.0603055077132925E10 ; 0.0
62 ; 2078723.0004190102 ; 2.0044456251528776E8 ; 1.2410502741406275E8 ; 1.0803498328704433E10 ; 0.0
63 ; 2079422.6184408218 ; 2.004458850259517E8 ; 1.2618375041448176E8 ; 1.100394289121972E10 ; 0.0
64 ; 2080501.1431809452 ; 2.0044721869242442E8 ; 1.2826317303292258E8 ; 1.1204388776245672E10 ; 0.0
65 ; 2081783.248726031 ; 2.00448563114077E8 ; 1.3034367417610353E8 ; 1.1404835994938097E10 ; 0.0
66 ; 2081698.643216617 ; 2.00449917900563E8 ; 1.3242545742482956E8 ; 1.1605284558052174E10 ; 0.0
67 ; 2081988.4752145647 ; 2.0045128267164186E8 ; 1.3450715606804618E8 ; 1.1805734475952736E10 ; 0.0
68 ; 2081282.4662232548 ; 2.0045265705699158E8 ; 1.3658914454326075E8 ; 1.2006185758624378E10 ; 0.0
69 ; 2082224.647342416 ; 2.004540406960129E8 ; 1.38670427009484E8 ; 1.220663841568137E10 ; 0.0
70 ; 2082214.4855459929 ; 2.0045543323762617E8 ; 1.407526516568264E8 ; 1.2407092456377382E10 ; 0.0
71 ; 2083092.7698043606 ; 2.004568343400625E8 ; 1.428348661423724E8 ; 1.260754788961501E10 ; 0.0
72 ; 2083720.9487848503 ; 2.0045824367065084E8 ; 1.4491795891217676E8 ; 1.2808004723955072E10 ; 0.0
73 ; 2083000.8614167187 ; 2.0045966090560162E8 ; 1.4700167986096162E8 ; 1.3008462967625723E10 ; 0.0
74 ; 2084784.1193863272 ; 2.0046108572978848E8 ; 1.4908468072237834E8 ; 1.3208922628531324E10 ; 0.0
75 ; 2082990.7709563659 ; 2.0046251783652893E8 ; 1.5116946484176466E8 ; 1.3409383714261112E10 ; 0.0
76 ; 2084735.0196482553 ; 2.0046395692736456E8 ; 1.5325245561272103E8 ; 1.3609846232097641E10 ; 0.0
77 ; 2084038.5410433833 ; 2.0046540271184206E8 ; 1.5533719063236928E8 ; 1.3810310189025005E10 ; 0.0
78 ; 2084267.090545866 ; 2.0046685490729526E8 ; 1.5742122917341265E8 ; 1.4010775591736847E10 ; 0.0
79 ; 2084839.8612540741 ; 2.004683132386289E8 ; 1.595054962639585E8 ; 1.4211242446644142E10 ; 0.0
80 ; 2082471.588092367 ; 2.0046977743810493E8 ; 1.6159033612521258E8 ; 1.441171075988277E10 ; 0.0
81 ; 2082723.3022993666 ; 2.0047124724513128E8 ; 1.6367280771330494E8 ; 1.4612180537320875E10 ; 0.0
82 ; 2082157.7687672933 ; 2.0047272240605408E8 ; 1.6575553101560432E8 ; 1.4812651784566006E10 ; 0.0
83 ; 2082639.3607289672 ; 2.0047420267395288E8 ; 1.678376887843716E8 ; 1.501312450697206E10 ; 0.0
84 ; 2080104.2300650084 ; 2.004756878084402E8 ; 1.699203281451006E8 ; 1.5213598709646011E10 ; 0.0
85 ; 2080578.103036666 ; 2.0047717757546458E8 ; 1.720004323751656E8 ; 1.5414074397454453E10 ; 0.0
86 ; 2078768.7848858268 ; 2.004786717471179E8 ; 1.7408101047820228E8 ; 1.5614551575029917E10 ; 0.0
87 ; 2078839.3615837593 ; 2.0048017010144717E8 ; 1.761597792630881E8 ; 1.5815030246777035E10 ; 0.0
88 ; 2078190.3102770636 ; 2.0048167242227054E8 ; 1.7823861862467188E8 ; 1.6015510416878483E10 ; 0.0
89 ; 2077784.7383214652 ; 2.004831784989979E8 ; 1.8031680893494895E8 ; 1.6215992089300753E10 ; 0.0
90 ; 2077568.238868524 ; 2.0048468812645614E8 ; 1.823945936732704E8 ; 1.6416475267799751E10 ; 0.0
91 ; 2075273.6002287283 ; 2.0048620110471877E8 ; 1.8447216191213894E8 ; 1.6616959955926207E10 ; 0.0
92 ; 2075672.611597042 ; 2.0048771723894042E8 ; 1.8654743551236767E8 ; 1.6817446157030926E10 ; 0.0
93 ; 2074025.0368438466 ; 2.0048923633919582E8 ; 1.886231081239647E8 ; 1.7017933874269867E10 ; 0.0
94 ; 2074788.4898444738 ; 2.0049075822032338E8 ; 1.9069713316080853E8 ; 1.7218423110609062E10 ; 0.0
95 ; 2072785.3775652014 ; 2.0049228270177332E8 ; 1.92771921650653E8 ; 1.7418913868829384E10 ; 0.0
96 ; 2073204.399404033 ; 2.0049380960746038E8 ; 1.948447070282182E8 ; 1.761940615153116E10 ; 0.0
97 ; 2071613.0747309045 ; 2.0049533876562095E8 ; 1.9691791142762223E8 ; 1.781989996113862E10 ; 0.0
98 ; 2070353.4502660048 ; 2.0049687000867456E8 ; 1.9898952450235313E8 ; 1.802039529990424E10 ; 0.0
99 ; 2070874.0237436537 ; 2.0049840317308968E8 ; 2.0105987795261914E8 ; 1.8220892169912914E10 ; 0.0
100 ; 2070063.7105044487 ; 2.004999380992539E8 ; 2.031307519763628E8 ; 1.8421390573086002E10 ; 0.0
101 ; 2069867.9564090988 ; 2.005014746313479E8 ; 2.0520081568686724E8 ; 1.8621890511185257E10 ; 0.0
102 ; 2066893.9141849906 ; 2.00503012617224E8 ; 2.0727068364327633E8 ; 1.8822391985816605E10 ; 0.0
103 ; 2067284.3868330542 ; 2.005045519082883E8 ; 2.0933757755746132E8 ; 1.902289499843383E10 ; 0.0
104 ; 2065734.0141974897 ; 2.0050609235938668E8 ; 2.1140486194429436E8 ; 1.9223399550342117E10 ; 0.0
105 ; 2064361.4475521548 ; 2.0050763382869485E8 ; 2.1347059595849186E8 ; 1.9423905642701504E10 ; 0.0
106 ; 2064199.5607720704 ; 2.005091761776118E8 ; 2.15534957406044E8 ; 1.9624413276530197E10 ; 0.0
107 ; 2063154.3104650017 ; 2.005107192706569E8 ; 2.1759915696681607E8 ; 1.982492245270781E10 ; 0.0
108 ; 2060592.252690016 ; 2.005122629753707E8 ; 2.1966231127728108E8 ; 2.0025433171978466E10 ; 0.0
109 ; 2060684.9794227476 ; 2.005138071622187E8 ; 2.217229035299711E8 ; 2.022594543495384E10 ; 0.0
110 ; 2058089.8813692448 ; 2.0051535170449862E8 ; 2.2378358850939384E8 ; 2.042645924211606E10 ; 0.0
111 ; 2058909.0478839043 ; 2.0051689647825098E8 ; 2.2584167839076307E8 ; 2.0626974593820557E10 ; 0.0
112 ; 2056981.628081527 ; 2.005184413621725E8 ; 2.2790058743864697E8 ; 2.082749149029881E10 ; 0.0
113 ; 2055808.277234958 ; 2.0051998623753262E8 ; 2.299575690667285E8 ; 2.102800993166098E10 ; 0.0
114 ; 2055176.3900310288 ; 2.0052153098809275E8 ; 2.3201337734396347E8 ; 2.1228529917898514E10 ; 0.0
115 ; 2054230.0473873299 ; 2.005230755000287E8 ; 2.340685537339945E8 ; 2.142905144888661E10 ; 0.0
116 ; 2052643.3609024594 ; 2.0052461966185528E8 ; 2.3612278378138185E8 ; 2.162957452438664E10 ; 0.0
117 ; 2050877.1011036192 ; 2.0052616336435404E8 ; 2.381754271422843E8 ; 2.1830099144048492E10 ; 0.0
118 ; 2049902.085387263 ; 2.0052770650050303E8 ; 2.4022630424338794E8 ; 2.2030625307412846E10 ; 0.0
119 ; 2048979.5245562922 ; 2.0052924896540946E8 ; 2.422762063287752E8 ; 2.223115301391335E10 ; 0.0
120 ; 2047414.0074173065 ; 2.005307906562444E8 ; 2.4432518585333148E8 ; 2.2431682262878757E10 ; 0.0
121 ; 2046200.3215332166 ; 2.0053233147217992E8 ; 2.463725998607488E8 ; 2.2632213053535004E10 ; 0.0
122 ; 2045920.2411247331 ; 2.005338713143284E8 ; 2.48418800182282E8 ; 2.2832745385007183E10 ; 0.0
123 ; 2044389.7250918266 ; 2.0053541008568385E8 ; 2.5046472042340672E8 ; 2.303327925632151E10 ; 0.0
124 ; 2043099.7784743903 ; 2.005369476910655E8 ; 2.5250911014849854E8 ; 2.3233814666407196E10 ; 0.0
125 ; 2039677.7855643185 ; 2.0053848403706306E8 ; 2.5455220992697293E8 ; 2.3434351614098263E10 ; 0.0
126 ; 2038342.2128790396 ; 2.0054001903198433E8 ; 2.5659188771253726E8 ; 2.3634890098135326E10 ; 0.0
127 ; 2037961.7627523069 ; 2.005415525858041E8 ; 2.586302299254163E8 ; 2.3835430117167313E10 ; 0.0
128 ; 2036239.665583536 ; 2.005430846101153E8 ; 2.606681916881686E8 ; 2.4035971669753117E10 ; 0.0
129 ; 2035908.1649977393 ; 2.0054461501808155E8 ; 2.6270443135375214E8 ; 2.423651475436323E10 ; 0.0
130 ; 2034459.7715380688 ; 2.005461437243916E8 ; 2.6474033951874986E8 ; 2.4437059369381313E10 ; 0.0
131 ; 2030659.5474012725 ; 2.0054767064521518E8 ; 2.6677479929028794E8 ; 2.4637605513105705E10 ; 0.0
132 ; 2029333.6089308676 ; 2.0054919569816038E8 ; 2.688054588376892E8 ; 2.483815318375092E10 ; 0.0
133 ; 2028551.212233296 ; 2.005507188022326E8 ; 2.708347924466201E8 ; 2.503870237944908E10 ; 0.0
134 ; 2025433.7974518365 ; 2.00552239877795E8 ; 2.728633436588534E8 ; 2.5239253098251312E10 ; 0.0
135 ; 2022165.013945149 ; 2.0055375884653008E8 ; 2.7488877745630527E8 ; 2.543980533812911E10 ; 0.0
136 ; 2021067.0152654913 ; 2.005552756314028E8 ; 2.769109424702504E8 ; 2.564035909697564E10 ; 0.0
137 ; 2017497.2964482273 ; 2.0055679015662482E8 ; 2.789320094855159E8 ; 2.584091437260704E10 ; 0.0
138 ; 2016584.9938674218 ; 2.0055830234762016E8 ; 2.809495067819641E8 ; 2.6041471162763664E10 ; 0.0
139 ; 2014123.0639386452 ; 2.0055981213099182E8 ; 2.829660917758315E8 ; 2.6242029465111286E10 ; 0.0
140 ; 2010092.5090548538 ; 2.0056131943448973E8 ; 2.8498021483977014E8 ; 2.644258927724228E10 ; 0.0
141 ; 2009876.044346297 ; 2.0056282418697962E8 ; 2.86990307348825E8 ; 2.664315059667677E10 ; 0.0
142 ; 2006385.6007845178 ; 2.005643263184132E8 ; 2.8900018339317125E8 ; 2.684371342086375E10 ; 0.0
143 ; 2004922.3287551294 ; 2.0056582575979912E8 ; 2.910065689939558E8 ; 2.7044277747182163E10 ; 0.0
144 ; 2002974.8719510017 ; 2.0056732244317502E8 ; 2.9301149132271093E8 ; 2.7244843572941963E10 ; 0.0
145 ; 2000330.8523435537 ; 2.005688163015805E8 ; 2.950144661946619E8 ; 2.744541089538514E10 ; 0.0
146 ; 1999086.791459288 ; 2.0057030726903108E8 ; 2.970147970470055E8 ; 2.764597971168672E10 ; 0.0
147 ; 1997458.2015157132 ; 2.00571795280493E8 ; 2.9901388383846474E8 ; 2.7846550018955753E10 ; 0.0
148 ; 1996054.9848855322 ; 2.0057328027185875E8 ; 3.010113420399805E8 ; 2.8047121814236248E10 ; 0.0
149 ; 1994224.3243682198 ; 2.005747621799237E8 ; 3.03007397024866E8 ; 2.8247695094508106E10 ; 0.0
150 ; 1990887.9665540087 ; 2.0057624094236317E8 ; 3.050016213492342E8 ; 2.844826985668803E10 ; 0.0
151 ; 1991848.1876409305 ; 2.0057771649771056E8 ; 3.069925093157882E8 ; 2.8648846097630394E10 ; 0.0
152 ; 1989377.0793078467 ; 2.0057918878533605E8 ; 3.089843575034291E8 ; 2.8849423814128105E10 ; 0.0
153 ; 1986895.8061913254 ; 2.005806577454261E8 ; 3.1097373458273697E8 ; 2.905000300291344E10 ; 0.0
154 ; 1986146.4422803496 ; 2.0058212331896344E8 ; 3.129606303889283E8 ; 2.9250583660658867E10 ; 0.0
155 ; 1983903.6038775223 ; 2.0058358544770816E8 ; 3.1494677683120865E8 ; 2.945116578397783E10 ; 0.0
156 ; 1982473.8204732572 ; 2.0058504407417887E8 ; 3.169306804350862E8 ; 2.9651749369425537E10 ; 0.0
157 ; 1981598.3503758372 ; 2.005864991416348E8 ; 3.1891315425555944E8 ; 2.9852334413499718E10 ; 0.0
158 ; 1979607.5262419593 ; 2.0058795059405857E8 ; 3.208947526059353E8 ; 3.0052920912641354E10 ; 0.0
159 ; 1977901.8800841474 ; 2.0058939837613922E8 ; 3.2287436013217723E8 ; 3.0253508863235413E10 ; 0.0
160 ; 1976674.8030753913 ; 2.0059084243325612E8 ; 3.248522620122614E8 ; 3.0454098261611553E10 ; 0.0
161 ; 1975046.2234840065 ; 2.0059228271146315E8 ; 3.2682893681533676E8 ; 3.0654689104044807E10 ; 0.0
162 ; 1972542.0846921608 ; 2.0059371915747356E8 ; 3.2880398303882074E8 ; 3.085528138675627E10 ; 0.0
163 ; 1971926.7690794899 ; 2.0059515171864524E8 ; 3.307765251235129E8 ; 3.1055875105913746E10 ; 0.0
164 ; 1969978.9239653123 ; 2.0059658034296647E8 ; 3.3274845189259243E8 ; 3.1256470257632393E10 ; 0.0
165 ; 1968776.8545620053 ; 2.005980049790422E8 ; 3.3471843081655777E8 ; 3.145706683797536E10 ; 0.0
166 ; 1966534.8570728395 ; 2.0059942557608068E8 ; 3.3668720767111975E8 ; 3.1657664842954403E10 ; 0.0
167 ; 1964708.7491498913 ; 2.006008420838806E8 ; 3.386537425281926E8 ; 3.1858264268530483E10 ; 0.0
168 ; 1962792.3688830212 ; 2.0060225445281857E8 ; 3.406184512773425E8 ; 3.2058865110614365E10 ; 0.0
169 ; 1961177.0659638362 ; 2.006036626338371E8 ; 3.425812436462255E8 ; 3.2259467365067184E10 ; 0.0
170 ; 1958723.5624152273 ; 2.0060506657843283E8 ; 3.445424207121894E8 ; 3.2460071027701023E10 ; 0.0
171 ; 1956379.7197902203 ; 2.006064662386452E8 ; 3.465011442746046E8 ; 3.2660676094279457E10 ; 0.0
172 ; 1955361.971359793 ; 2.006078615670456E8 ; 3.4845752399439484E8 ; 3.28612825605181E10 ; 0.0
173 ; 1954522.513730585 ; 2.006092525167266E8 ; 3.504128859657546E8 ; 3.3061890422085148E10 ; 0.0
174 ; 1952276.5291955515 ; 2.0061063904129183E8 ; 3.523674084794852E8 ; 3.3262499674601875E10 ; 0.0
175 ; 1951328.4511280525 ; 2.0061202109484586E8 ; 3.5431968500868076E8 ; 3.3463110313643166E10 ; 0.0
176 ; 1950898.8077228551 ; 2.0061339863198465E8 ; 3.562710134598088E8 ; 3.366372233473801E10 ; 0.0
177 ; 1949810.4174082465 ; 2.0061477160778618E8 ; 3.582219122675317E8 ; 3.3864335733369995E10 ; 0.0
178 ; 1949290.426883292 ; 2.0061613997780147E8 ; 3.601717226849399E8 ; 3.4064950504977783E10 ; 0.0
179 ; 1948369.090681764 ; 2.0061750369804567E8 ; 3.621210131118232E8 ; 3.4265566644955585E10 ; 0.0
180 ; 1947515.0348425237 ; 2.006188627249897E8 ; 3.64069382202505E8 ; 3.446618414865363E10 ; 0.0
181 ; 1945378.8625205946 ; 2.00620217015552E8 ; 3.6601689723734754E8 ; 3.4666803011378624E10 ; 0.0
182 ; 1944351.805576111 ; 2.006215665270905E8 ; 3.679622760998681E8 ; 3.486742322839417E10 ; 0.0
183 ; 1942243.1825885596 ; 2.006229112173949E8 ; 3.699066279054442E8 ; 3.5068044794921265E10 ; 0.0
184 ; 1942683.2492152564 ; 2.006242510446792E8 ; 3.718488710880328E8 ; 3.526866770613866E10 ; 0.0
185 ; 1941257.5208196866 ; 2.006255859675745E8 ; 3.73791554337248E8 ; 3.5469291957183334E10 ; 0.0
186 ; 1939415.984345207 ; 2.006269159451219E8 ; 3.757328118580677E8 ; 3.566991754315091E10 ; 0.0
187 ; 1939253.2611793848 ; 2.0062824093676564E8 ; 3.776722278424129E8 ; 3.587054445909603E10 ; 0.0
188 ; 1939484.5264861675 ; 2.006295609023466E8 ; 3.796114811035923E8 ; 3.60711727000328E10 ; 0.0
189 ; 1936770.4548117367 ; 2.0063087580209577E8 ; 3.8155096563007843E8 ; 3.627180226093514E10 ; 0.0
190 ; 1935745.9830703856 ; 2.006321855966282E8 ; 3.834877360848902E8 ; 3.6472433136737236E10 ; 0.0
191 ; 1934087.067746126 ; 2.006334902469367E8 ; 3.8542348206796056E8 ; 3.667306532233386E10 ; 0.0
192 ; 1933324.6210602322 ; 2.006347897143864E8 ; 3.8735756913570666E8 ; 3.6873698812580795E10 ; 0.0
193 ; 1932176.8915145097 ; 2.006360839607087E8 ; 3.892908937567669E8 ; 3.707433360229518E10 ; 0.0
194 ; 1930981.6977877966 ; 2.0063737294799596E8 ; 3.912230706482814E8 ; 3.727496968625589E10 ; 0.0
195 ; 1929777.1321841995 ; 2.006386566386962E8 ; 3.931540523460692E8 ; 3.747560705920389E10 ; 0.0
196 ; 1929315.5838756282 ; 2.0063993499560782E8 ; 3.950838294782534E8 ; 3.767624571584258E10 ; 0.0
197 ; 1927354.0831338167 ; 2.0064120798187467E8 ; 3.970131450621291E8 ; 3.787688565083819E10 ; 0.0
198 ; 1926223.6615074193 ; 2.006424755609812E8 ; 3.989404991452629E8 ; 3.807752685882006E10 ; 0.0
199 ; 1928037.2104950203 ; 2.006437376967477E8 ; 4.008667228067703E8 ; 3.827816933438104E10 ; 0.0
