CSV File for the City 2 on Day 1
1 - Minute m 
2 - Power Consumed at minute m 
3 - Power Produced at minute m 
4 - Energy Consumed since the beginning of the day 
5 - Energy Produced since the beginning of the day 
6 - Energy Lost since the beginning of the day on lines starting from the city
 
0 ; 1.0298707466455093E7 ; 1.2158749032753425E7 ; 0.0 ; 0.0 ; 0.0
1 ; 1.0311046542774383E7 ; 1.2158749032753425E7 ; 1.0298707466455093E7 ; 1.2158749032753425E7 ; 0.0
2 ; 1.0321852709128674E7 ; 1.2158749032753425E7 ; 2.0609754009229474E7 ; 2.431749806550685E7 ; 0.0
3 ; 1.0334110589838902E7 ; 1.2158749032753425E7 ; 3.0931606718358148E7 ; 3.6476247098260276E7 ; 0.0
4 ; 1.0347095721680459E7 ; 1.2158749032753425E7 ; 4.126571730819705E7 ; 4.86349961310137E7 ; 0.0
5 ; 1.0367891534680596E7 ; 1.2158749032753425E7 ; 5.161281302987751E7 ; 6.079374516376712E7 ; 0.0
6 ; 1.0393384110207805E7 ; 1.2158749032753425E7 ; 6.198070456455811E7 ; 7.295249419652055E7 ; 0.0
7 ; 1.042939309598099E7 ; 1.2158749032753425E7 ; 7.237408867476591E7 ; 8.511124322927397E7 ; 0.0
8 ; 1.0480134950804923E7 ; 1.2158749032753425E7 ; 8.28034817707469E7 ; 9.72699922620274E7 ; 0.0
9 ; 1.0552576431036422E7 ; 1.2158749032753425E7 ; 9.328361672155182E7 ; 1.0942874129478082E8 ; 0.0
10 ; 1.0668739073547361E7 ; 1.2158749032753425E7 ; 1.0383619315258825E8 ; 1.2158749032753424E8 ; 0.0
11 ; 1.0858491896544125E7 ; 1.2158749032753425E7 ; 1.1450493222613561E8 ; 1.3374623936028767E8 ; 0.0
12 ; 1.1156511292994037E7 ; 1.2158749032753425E7 ; 1.2536342412267974E8 ; 1.459049883930411E8 ; 0.0
13 ; 1.1447720991807438E7 ; 1.2158749032753425E7 ; 1.365199354156738E8 ; 1.5806373742579454E8 ; 0.0
14 ; 1.1480794960313603E7 ; 1.2158749032753425E7 ; 1.4796765640748122E8 ; 1.7022248645854798E8 ; 0.0
15 ; 1.1492443867176652E7 ; 1.2158749032753425E7 ; 1.594484513677948E8 ; 1.8238123549130142E8 ; 0.0
16 ; 1.1508116181869728E7 ; 1.2158749032753425E7 ; 1.7094089523497146E8 ; 1.9453998452405486E8 ; 0.0
17 ; 1.1521871656485548E7 ; 1.2158749032753425E7 ; 1.8244901141684118E8 ; 2.066987335568083E8 ; 0.0
18 ; 1.1534544774573619E7 ; 1.2158749032753425E7 ; 1.9397088307332674E8 ; 2.1885748258956173E8 ; 0.0
19 ; 1.1547068831686525E7 ; 1.2158749032753425E7 ; 2.0550542784790036E8 ; 2.3101623162231517E8 ; 0.0
20 ; 1.1559949855777128E7 ; 1.2158749032753425E7 ; 2.170524966795869E8 ; 2.431749806550686E8 ; 0.0
21 ; 1.1574444541243164E7 ; 1.2158749032753425E7 ; 2.28612446535364E8 ; 2.5533372968782204E8 ; 0.0
22 ; 1.15922230583579E7 ; 1.2158749032753425E7 ; 2.4018689107660717E8 ; 2.6749247872057548E8 ; 0.0
23 ; 1.1604305358765487E7 ; 1.2158749032753425E7 ; 2.5177911413496506E8 ; 2.796512277533289E8 ; 0.0
24 ; 1.1614321077774119E7 ; 1.2158749032753425E7 ; 2.6338341949373055E8 ; 2.918099767860823E8 ; 0.0
25 ; 1.1625687815689139E7 ; 1.2158749032753425E7 ; 2.7499774057150465E8 ; 3.0396872581883574E8 ; 0.0
26 ; 1.1641708636376914E7 ; 1.2158749032753425E7 ; 2.866234283871938E8 ; 3.1612747485158914E8 ; 0.0
27 ; 1.165605353276237E7 ; 1.2158749032753425E7 ; 2.982651370235707E8 ; 3.2828622388434255E8 ; 0.0
28 ; 1.16668254921253E7 ; 1.2158749032753425E7 ; 3.0992119055633307E8 ; 3.4044497291709596E8 ; 0.0
29 ; 1.1680791038095292E7 ; 1.2158749032753425E7 ; 3.2158801604845834E8 ; 3.5260372194984937E8 ; 0.0
30 ; 1.1693115763474403E7 ; 1.2158749032753425E7 ; 3.3326880708655363E8 ; 3.647624709826028E8 ; 0.0
31 ; 1.1703880931960743E7 ; 1.2158749032753425E7 ; 3.4496192285002804E8 ; 3.769212200153562E8 ; 0.0
32 ; 1.1719677446473205E7 ; 1.2158749032753425E7 ; 3.566658037819888E8 ; 3.890799690481096E8 ; 0.0
33 ; 1.1726851048205737E7 ; 1.2158749032753425E7 ; 3.68385481228462E8 ; 4.01238718080863E8 ; 0.0
34 ; 1.1738085364517653E7 ; 1.2158749032753425E7 ; 3.801123322766677E8 ; 4.133974671136164E8 ; 0.0
35 ; 1.1751845994385261E7 ; 1.2158749032753425E7 ; 3.9185041764118534E8 ; 4.255562161463698E8 ; 0.0
36 ; 1.1763073808953045E7 ; 1.2158749032753425E7 ; 4.036022636355706E8 ; 4.377149651791232E8 ; 0.0
37 ; 1.177161624057711E7 ; 1.2158749032753425E7 ; 4.1536533744452363E8 ; 4.4987371421187663E8 ; 0.0
38 ; 1.1779224597132815E7 ; 1.2158749032753425E7 ; 4.2713695368510073E8 ; 4.6203246324463004E8 ; 0.0
39 ; 1.179088733216955E7 ; 1.2158749032753425E7 ; 4.3891617828223354E8 ; 4.7419121227738345E8 ; 0.0
40 ; 1.1798905294597361E7 ; 1.2158749032753425E7 ; 4.5070706561440307E8 ; 4.8634996131013685E8 ; 0.0
41 ; 1.180634028879364E7 ; 1.2158749032753425E7 ; 4.6250597090900046E8 ; 4.9850871034289026E8 ; 0.0
42 ; 1.182063034924383E7 ; 1.2158749032753425E7 ; 4.743123111977941E8 ; 5.106674593756437E8 ; 0.0
43 ; 1.1825290537890855E7 ; 1.2158749032753425E7 ; 4.861329415470379E8 ; 5.228262084083971E8 ; 0.0
44 ; 1.1834702811717458E7 ; 1.2158749032753425E7 ; 4.9795823208492875E8 ; 5.349849574411505E8 ; 0.0
45 ; 1.1837046349904105E7 ; 1.2158749032753425E7 ; 5.097929348966462E8 ; 5.471437064739039E8 ; 0.0
46 ; 1.1844858106702266E7 ; 1.2158749032753425E7 ; 5.216299812465503E8 ; 5.593024555066574E8 ; 0.0
47 ; 1.1849287820964951E7 ; 1.2158749032753425E7 ; 5.334748393532526E8 ; 5.714612045394108E8 ; 0.0
48 ; 1.1856113001053216E7 ; 1.2158749032753425E7 ; 5.453241271742176E8 ; 5.836199535721643E8 ; 0.0
49 ; 1.1860880296367388E7 ; 1.2158749032753425E7 ; 5.571802401752708E8 ; 5.957787026049178E8 ; 0.0
50 ; 1.1862685193443034E7 ; 1.2158749032753425E7 ; 5.690411204716382E8 ; 6.079374516376712E8 ; 0.0
51 ; 1.1864091047292093E7 ; 1.2158749032753425E7 ; 5.809038056650813E8 ; 6.200962006704247E8 ; 0.0
52 ; 1.1869845167231536E7 ; 1.2158749032753425E7 ; 5.927678967123734E8 ; 6.322549497031782E8 ; 0.0
53 ; 1.1873756592309272E7 ; 1.2158749032753425E7 ; 6.046377418796049E8 ; 6.444136987359316E8 ; 0.0
54 ; 1.1874563289356548E7 ; 1.2158749032753425E7 ; 6.165114984719142E8 ; 6.565724477686851E8 ; 0.0
55 ; 1.1878965868928047E7 ; 1.2158749032753425E7 ; 6.283860617612708E8 ; 6.687311968014386E8 ; 0.0
56 ; 1.1881744233723082E7 ; 1.2158749032753425E7 ; 6.402650276301988E8 ; 6.80889945834192E8 ; 0.0
57 ; 1.1881558693177786E7 ; 1.2158749032753425E7 ; 6.521467718639219E8 ; 6.930486948669455E8 ; 0.0
58 ; 1.188988908437138E7 ; 1.2158749032753425E7 ; 6.640283305570997E8 ; 7.05207443899699E8 ; 0.0
59 ; 1.1891301933972422E7 ; 1.2158749032753425E7 ; 6.75918219641471E8 ; 7.173661929324524E8 ; 0.0
60 ; 1.189446875966198E7 ; 1.2158749032753425E7 ; 6.878095215754435E8 ; 7.295249419652059E8 ; 0.0
61 ; 1.1893928654582242E7 ; 1.2158749032753425E7 ; 6.997039903351055E8 ; 7.416836909979594E8 ; 0.0
62 ; 1.189769772440124E7 ; 1.2158749032753425E7 ; 7.115979189896878E8 ; 7.538424400307128E8 ; 0.0
63 ; 1.1894576113467308E7 ; 1.2158749032753425E7 ; 7.23495616714089E8 ; 7.660011890634663E8 ; 0.0
64 ; 1.1901776453028016E7 ; 1.2158749032753425E7 ; 7.353901928275564E8 ; 7.781599380962198E8 ; 0.0
65 ; 1.1903852354676465E7 ; 1.2158749032753425E7 ; 7.472919692805843E8 ; 7.903186871289732E8 ; 0.0
66 ; 1.1903392707624331E7 ; 1.2158749032753425E7 ; 7.591958216352608E8 ; 8.024774361617267E8 ; 0.0
67 ; 1.1906760082465678E7 ; 1.2158749032753425E7 ; 7.710992143428851E8 ; 8.146361851944802E8 ; 0.0
68 ; 1.1909023414310385E7 ; 1.2158749032753425E7 ; 7.830059744253508E8 ; 8.267949342272336E8 ; 0.0
69 ; 1.1907011889525054E7 ; 1.2158749032753425E7 ; 7.949149978396611E8 ; 8.389536832599871E8 ; 0.0
70 ; 1.1909055566610884E7 ; 1.2158749032753425E7 ; 8.068220097291862E8 ; 8.511124322927406E8 ; 0.0
71 ; 1.1914601146225624E7 ; 1.2158749032753425E7 ; 8.187310652957971E8 ; 8.63271181325494E8 ; 0.0
72 ; 1.1911332161574744E7 ; 1.2158749032753425E7 ; 8.306456664420227E8 ; 8.754299303582475E8 ; 0.0
73 ; 1.1910222400987713E7 ; 1.2158749032753425E7 ; 8.425569986035974E8 ; 8.87588679391001E8 ; 0.0
74 ; 1.191492141783466E7 ; 1.2158749032753425E7 ; 8.544672210045851E8 ; 8.997474284237545E8 ; 0.0
75 ; 1.1916847897801524E7 ; 1.2158749032753425E7 ; 8.663821424224198E8 ; 9.119061774565079E8 ; 0.0
76 ; 1.1912624388962546E7 ; 1.2158749032753425E7 ; 8.782989903202213E8 ; 9.240649264892614E8 ; 0.0
77 ; 1.191568864964534E7 ; 1.2158749032753425E7 ; 8.902116147091838E8 ; 9.362236755220149E8 ; 0.0
78 ; 1.1915144521179784E7 ; 1.2158749032753425E7 ; 9.021273033588291E8 ; 9.483824245547683E8 ; 0.0
79 ; 1.191079633742373E7 ; 1.2158749032753425E7 ; 9.140424478800089E8 ; 9.605411735875218E8 ; 0.0
80 ; 1.1907319603174858E7 ; 1.2158749032753425E7 ; 9.259532442174326E8 ; 9.726999226202753E8 ; 0.0
81 ; 1.1903273868139239E7 ; 1.2158749032753425E7 ; 9.378605638206074E8 ; 9.848586716530287E8 ; 0.0
82 ; 1.1901688237264628E7 ; 1.2158749032753425E7 ; 9.497638376887467E8 ; 9.970174206857822E8 ; 0.0
83 ; 1.1896951505822709E7 ; 1.2158749032753425E7 ; 9.616655259260113E8 ; 1.0091761697185357E9 ; 0.0
84 ; 1.1894162257700251E7 ; 1.2158749032753425E7 ; 9.73562477431834E8 ; 1.0213349187512891E9 ; 0.0
85 ; 1.188961982297542E7 ; 1.2158749032753425E7 ; 9.854566396895342E8 ; 1.0334936677840426E9 ; 0.0
86 ; 1.1887179963527542E7 ; 1.2158749032753425E7 ; 9.973462595125096E8 ; 1.0456524168167961E9 ; 0.0
87 ; 1.1884892545479223E7 ; 1.2158749032753425E7 ; 1.0092334394760371E9 ; 1.0578111658495495E9 ; 0.0
88 ; 1.187541940823396E7 ; 1.2158749032753425E7 ; 1.0211183320215163E9 ; 1.069969914882303E9 ; 0.0
89 ; 1.1873752840413053E7 ; 1.2158749032753425E7 ; 1.0329937514297503E9 ; 1.0821286639150565E9 ; 0.0
90 ; 1.1866624749749715E7 ; 1.2158749032753425E7 ; 1.0448675042701634E9 ; 1.09428741294781E9 ; 0.0
91 ; 1.1866156396681793E7 ; 1.2158749032753425E7 ; 1.0567341290199131E9 ; 1.1064461619805634E9 ; 0.0
92 ; 1.186086125412704E7 ; 1.2158749032753425E7 ; 1.0686002854165949E9 ; 1.1186049110133169E9 ; 0.0
93 ; 1.1859480821311675E7 ; 1.2158749032753425E7 ; 1.080461146670722E9 ; 1.1307636600460703E9 ; 0.0
94 ; 1.1849086362382375E7 ; 1.2158749032753425E7 ; 1.0923206274920337E9 ; 1.1429224090788238E9 ; 0.0
95 ; 1.1847352074630376E7 ; 1.2158749032753425E7 ; 1.1041697138544161E9 ; 1.1550811581115773E9 ; 0.0
96 ; 1.184090921991417E7 ; 1.2158749032753425E7 ; 1.1160170659290464E9 ; 1.1672399071443307E9 ; 0.0
97 ; 1.1838025965158667E7 ; 1.2158749032753425E7 ; 1.1278579751489606E9 ; 1.1793986561770842E9 ; 0.0
98 ; 1.1833129560730934E7 ; 1.2158749032753425E7 ; 1.1396960011141193E9 ; 1.1915574052098377E9 ; 0.0
99 ; 1.1825317642998587E7 ; 1.2158749032753425E7 ; 1.1515291306748502E9 ; 1.2037161542425911E9 ; 0.0
100 ; 1.1819329440203495E7 ; 1.2158749032753425E7 ; 1.163354448317849E9 ; 1.2158749032753446E9 ; 0.0
101 ; 1.1812022075226521E7 ; 1.2158749032753425E7 ; 1.1751737777580523E9 ; 1.228033652308098E9 ; 0.0
102 ; 1.181160629242805E7 ; 1.2158749032753425E7 ; 1.186985799833279E9 ; 1.2401924013408515E9 ; 0.0
103 ; 1.1803309608961025E7 ; 1.2158749032753425E7 ; 1.198797406125707E9 ; 1.252351150373605E9 ; 0.0
104 ; 1.1800090676242882E7 ; 1.2158749032753425E7 ; 1.210600715734668E9 ; 1.2645098994063585E9 ; 0.0
105 ; 1.1790538885601055E7 ; 1.2158749032753425E7 ; 1.2224008064109108E9 ; 1.276668648439112E9 ; 0.0
106 ; 1.178387310021572E7 ; 1.2158749032753425E7 ; 1.234191345296512E9 ; 1.2888273974718654E9 ; 0.0
107 ; 1.1780776943336666E7 ; 1.2158749032753425E7 ; 1.2459752183967276E9 ; 1.300986146504619E9 ; 0.0
108 ; 1.1777006924106903E7 ; 1.2158749032753425E7 ; 1.2577559953400643E9 ; 1.3131448955373724E9 ; 0.0
109 ; 1.1767195730136741E7 ; 1.2158749032753425E7 ; 1.2695330022641711E9 ; 1.3253036445701258E9 ; 0.0
110 ; 1.1760424704791298E7 ; 1.2158749032753425E7 ; 1.2813001979943078E9 ; 1.3374623936028793E9 ; 0.0
111 ; 1.175204826694432E7 ; 1.2158749032753425E7 ; 1.293060622699099E9 ; 1.3496211426356328E9 ; 0.0
112 ; 1.1745194865385186E7 ; 1.2158749032753425E7 ; 1.3048126709660435E9 ; 1.3617798916683862E9 ; 0.0
113 ; 1.1742988180236187E7 ; 1.2158749032753425E7 ; 1.3165578658314288E9 ; 1.3739386407011397E9 ; 0.0
114 ; 1.1733706333552768E7 ; 1.2158749032753425E7 ; 1.3283008540116649E9 ; 1.3860973897338932E9 ; 0.0
115 ; 1.172667052744567E7 ; 1.2158749032753425E7 ; 1.3400345603452177E9 ; 1.3982561387666466E9 ; 0.0
116 ; 1.17164531368426E7 ; 1.2158749032753425E7 ; 1.3517612308726633E9 ; 1.4104148877994E9 ; 0.0
117 ; 1.1711927029205594E7 ; 1.2158749032753425E7 ; 1.3634776840095057E9 ; 1.4225736368321536E9 ; 0.0
118 ; 1.1701742914319772E7 ; 1.2158749032753425E7 ; 1.3751896110387113E9 ; 1.434732385864907E9 ; 0.0
119 ; 1.1697291705918744E7 ; 1.2158749032753425E7 ; 1.386891353953031E9 ; 1.4468911348976605E9 ; 0.0
120 ; 1.169148715879523E7 ; 1.2158749032753425E7 ; 1.3985886456589499E9 ; 1.459049883930414E9 ; 0.0
121 ; 1.1681559184263637E7 ; 1.2158749032753425E7 ; 1.410280132817745E9 ; 1.4712086329631674E9 ; 0.0
122 ; 1.1674537728159783E7 ; 1.2158749032753425E7 ; 1.4219616920020087E9 ; 1.483367381995921E9 ; 0.0
123 ; 1.1667979745880388E7 ; 1.2158749032753425E7 ; 1.4336362297301683E9 ; 1.4955261310286744E9 ; 0.0
124 ; 1.165931496438863E7 ; 1.2158749032753425E7 ; 1.4453042094760487E9 ; 1.5076848800614278E9 ; 0.0
125 ; 1.1648274651112005E7 ; 1.2158749032753425E7 ; 1.4569635244404373E9 ; 1.5198436290941813E9 ; 0.0
126 ; 1.1642537544638848E7 ; 1.2158749032753425E7 ; 1.4686117990915494E9 ; 1.5320023781269348E9 ; 0.0
127 ; 1.1630988992331695E7 ; 1.2158749032753425E7 ; 1.4802543366361883E9 ; 1.5441611271596882E9 ; 0.0
128 ; 1.1624248108802091E7 ; 1.2158749032753425E7 ; 1.49188532562852E9 ; 1.5563198761924417E9 ; 0.0
129 ; 1.1615359857273761E7 ; 1.2158749032753425E7 ; 1.503509573737322E9 ; 1.5684786252251952E9 ; 0.0
130 ; 1.1603430182926495E7 ; 1.2158749032753425E7 ; 1.515124933594596E9 ; 1.5806373742579486E9 ; 0.0
131 ; 1.1595352667596027E7 ; 1.2158749032753425E7 ; 1.5267283637775223E9 ; 1.592796123290702E9 ; 0.0
132 ; 1.1580460172725866E7 ; 1.2158749032753425E7 ; 1.5383237164451184E9 ; 1.6049548723234556E9 ; 0.0
133 ; 1.1568305057271222E7 ; 1.2158749032753425E7 ; 1.5499041766178443E9 ; 1.617113621356209E9 ; 0.0
134 ; 1.1554409315216206E7 ; 1.2158749032753425E7 ; 1.5614724816751156E9 ; 1.6292723703889625E9 ; 0.0
135 ; 1.1542769453284698E7 ; 1.2158749032753425E7 ; 1.573026890990332E9 ; 1.641431119421716E9 ; 0.0
136 ; 1.1526803457820624E7 ; 1.2158749032753425E7 ; 1.5845696604436166E9 ; 1.6535898684544694E9 ; 0.0
137 ; 1.1515631070484618E7 ; 1.2158749032753425E7 ; 1.5960964639014373E9 ; 1.665748617487223E9 ; 0.0
138 ; 1.1503061127806788E7 ; 1.2158749032753425E7 ; 1.607612094971922E9 ; 1.6779073665199764E9 ; 0.0
139 ; 1.1490277220600333E7 ; 1.2158749032753425E7 ; 1.6191151560997288E9 ; 1.6900661155527298E9 ; 0.0
140 ; 1.1476336494598635E7 ; 1.2158749032753425E7 ; 1.6306054333203292E9 ; 1.7022248645854833E9 ; 0.0
141 ; 1.146329554644762E7 ; 1.2158749032753425E7 ; 1.6420817698149278E9 ; 1.7143836136182368E9 ; 0.0
142 ; 1.1448381200449439E7 ; 1.2158749032753425E7 ; 1.6535450653613753E9 ; 1.7265423626509902E9 ; 0.0
143 ; 1.1440872365635768E7 ; 1.2158749032753425E7 ; 1.6649934465618248E9 ; 1.7387011116837437E9 ; 0.0
144 ; 1.1422091946520122E7 ; 1.2158749032753425E7 ; 1.6764343189274607E9 ; 1.7508598607164972E9 ; 0.0
145 ; 1.141245575465937E7 ; 1.2158749032753425E7 ; 1.6878564108739808E9 ; 1.7630186097492507E9 ; 0.0
146 ; 1.1405697431346277E7 ; 1.2158749032753425E7 ; 1.6992688666286402E9 ; 1.775177358782004E9 ; 0.0
147 ; 1.1391411167681694E7 ; 1.2158749032753425E7 ; 1.7106745640599864E9 ; 1.7873361078147576E9 ; 0.0
148 ; 1.1382927768135816E7 ; 1.2158749032753425E7 ; 1.722065975227668E9 ; 1.799494856847511E9 ; 0.0
149 ; 1.1377402961855678E7 ; 1.2158749032753425E7 ; 1.7334489029958038E9 ; 1.8116536058802645E9 ; 0.0
150 ; 1.1363247907509021E7 ; 1.2158749032753425E7 ; 1.7448263059576595E9 ; 1.823812354913018E9 ; 0.0
151 ; 1.1353494888843503E7 ; 1.2158749032753425E7 ; 1.7561895538651686E9 ; 1.8359711039457715E9 ; 0.0
152 ; 1.1346221229726331E7 ; 1.2158749032753425E7 ; 1.767543048754012E9 ; 1.848129852978525E9 ; 0.0
153 ; 1.1332782630430985E7 ; 1.2158749032753425E7 ; 1.7788892699837384E9 ; 1.8602886020112784E9 ; 0.0
154 ; 1.132278105451004E7 ; 1.2158749032753425E7 ; 1.7902220526141694E9 ; 1.8724473510440319E9 ; 0.0
155 ; 1.1313840863255411E7 ; 1.2158749032753425E7 ; 1.8015448336686795E9 ; 1.8846061000767853E9 ; 0.0
156 ; 1.130555388247215E7 ; 1.2158749032753425E7 ; 1.812858674531935E9 ; 1.8967648491095388E9 ; 0.0
157 ; 1.1298060404003458E7 ; 1.2158749032753425E7 ; 1.824164228414407E9 ; 1.9089235981422923E9 ; 0.0
158 ; 1.128436642524964E7 ; 1.2158749032753425E7 ; 1.8354622888184104E9 ; 1.9210823471750457E9 ; 0.0
159 ; 1.127861818375581E7 ; 1.2158749032753425E7 ; 1.84674665524366E9 ; 1.9332410962077992E9 ; 0.0
160 ; 1.1266965834391387E7 ; 1.2158749032753425E7 ; 1.8580252734274158E9 ; 1.9453998452405527E9 ; 0.0
161 ; 1.1256183061670171E7 ; 1.2158749032753425E7 ; 1.8692922392618072E9 ; 1.9575585942733061E9 ; 0.0
162 ; 1.1244351349706214E7 ; 1.2158749032753425E7 ; 1.8805484223234773E9 ; 1.9697173433060596E9 ; 0.0
163 ; 1.1239332811251016E7 ; 1.2158749032753425E7 ; 1.8917927736731834E9 ; 1.981876092338813E9 ; 0.0
164 ; 1.1226872427945925E7 ; 1.2158749032753425E7 ; 1.9030321064844344E9 ; 1.9940348413715665E9 ; 0.0
165 ; 1.1214632490331987E7 ; 1.2158749032753425E7 ; 1.9142589789123802E9 ; 2.00619359040432E9 ; 0.0
166 ; 1.1207947582717774E7 ; 1.2158749032753425E7 ; 1.925473611402712E9 ; 2.0183523394370735E9 ; 0.0
167 ; 1.1194285816279354E7 ; 1.2158749032753425E7 ; 1.9366815589854298E9 ; 2.030511088469827E9 ; 0.0
168 ; 1.118634417493713E7 ; 1.2158749032753425E7 ; 1.9478758448017092E9 ; 2.0426698375025804E9 ; 0.0
169 ; 1.1173557028221313E7 ; 1.2158749032753425E7 ; 1.9590621889766464E9 ; 2.0548285865353339E9 ; 0.0
170 ; 1.116686047541528E7 ; 1.2158749032753425E7 ; 1.9702357460048678E9 ; 2.0669873355680873E9 ; 0.0
171 ; 1.115141545469011E7 ; 1.2158749032753425E7 ; 1.981402606480283E9 ; 2.0791460846008408E9 ; 0.0
172 ; 1.1141169929523528E7 ; 1.2158749032753425E7 ; 1.9925540219349732E9 ; 2.0913048336335943E9 ; 0.0
173 ; 1.1132444973698488E7 ; 1.2158749032753425E7 ; 2.0036951918644967E9 ; 2.1034635826663477E9 ; 0.0
174 ; 1.112573751052204E7 ; 1.2158749032753425E7 ; 2.014827636838195E9 ; 2.1156223316991012E9 ; 0.0
175 ; 1.1119789649799312E7 ; 1.2158749032753425E7 ; 2.0259533743487172E9 ; 2.1277810807318547E9 ; 0.0
176 ; 1.1111419376628717E7 ; 1.2158749032753425E7 ; 2.0370731639985166E9 ; 2.1399398297646081E9 ; 0.0
177 ; 1.110634144050916E7 ; 1.2158749032753425E7 ; 2.0481845833751452E9 ; 2.1520985787973614E9 ; 0.0
178 ; 1.1098367125718E7 ; 1.2158749032753425E7 ; 2.0592909248156543E9 ; 2.164257327830115E9 ; 0.0
179 ; 1.1091299876076808E7 ; 1.2158749032753425E7 ; 2.0703892919413724E9 ; 2.1764160768628683E9 ; 0.0
180 ; 1.1086616329766743E7 ; 1.2158749032753425E7 ; 2.081480591817449E9 ; 2.188574825895622E9 ; 0.0
181 ; 1.1078443866343398E7 ; 1.2158749032753425E7 ; 2.0925672081472158E9 ; 2.2007335749283752E9 ; 0.0
182 ; 1.1072156549816713E7 ; 1.2158749032753425E7 ; 2.1036456520135593E9 ; 2.2128923239611287E9 ; 0.0
183 ; 1.1066782459629796E7 ; 1.2158749032753425E7 ; 2.114717808563376E9 ; 2.225051072993882E9 ; 0.0
184 ; 1.1059900109245788E7 ; 1.2158749032753425E7 ; 2.1257845910230057E9 ; 2.2372098220266356E9 ; 0.0
185 ; 1.1051040441027295E7 ; 1.2158749032753425E7 ; 2.1368444911322515E9 ; 2.249368571059389E9 ; 0.0
186 ; 1.104611740678511E7 ; 1.2158749032753425E7 ; 2.147895531573279E9 ; 2.2615273200921426E9 ; 0.0
187 ; 1.1039083183824737E7 ; 1.2158749032753425E7 ; 2.158941648980064E9 ; 2.273686069124896E9 ; 0.0
188 ; 1.1033194756736115E7 ; 1.2158749032753425E7 ; 2.1699807321638885E9 ; 2.2858448181576495E9 ; 0.0
189 ; 1.1027126727086835E7 ; 1.2158749032753425E7 ; 2.1810139269206247E9 ; 2.298003567190403E9 ; 0.0
190 ; 1.1017919960880524E7 ; 1.2158749032753425E7 ; 2.1920410536477118E9 ; 2.3101623162231565E9 ; 0.0
191 ; 1.1011568291777465E7 ; 1.2158749032753425E7 ; 2.2030589736085925E9 ; 2.32232106525591E9 ; 0.0
192 ; 1.100876411182705E7 ; 1.2158749032753425E7 ; 2.21407054190037E9 ; 2.3344798142886634E9 ; 0.0
193 ; 1.1000379947396051E7 ; 1.2158749032753425E7 ; 2.225079306012197E9 ; 2.346638563321417E9 ; 0.0
194 ; 1.0994163334072914E7 ; 1.2158749032753425E7 ; 2.2360796859595933E9 ; 2.3587973123541703E9 ; 0.0
195 ; 1.0986440907440046E7 ; 1.2158749032753425E7 ; 2.2470738492936664E9 ; 2.370956061386924E9 ; 0.0
