CSV File for the City 4 on Day 194
1 - Minute m 
2 - Power Consumed at minute m 
3 - Power Produced at minute m 
4 - Energy Consumed since the beginning of the day 
5 - Energy Produced since the beginning of the day 
6 - Energy Lost since the beginning of the day on lines starting from the city
 
0 ; 833060.2068612103 ; 1.0590247697788659E8 ; 0.0 ; 0.0 ; 0.0
1 ; 841078.4314141325 ; 1.0605265522142583E8 ; 833060.2068612103 ; 1.0590247697788659E8 ; 0.0
2 ; 848456.4863460952 ; 1.0651189082546869E8 ; 1674138.6382753428 ; 2.1195513219931242E8 ; 0.0
3 ; 858372.5039376626 ; 1.0728019043909365E8 ; 2522595.124621438 ; 3.184670230247811E8 ; 0.0
4 ; 869008.3986594665 ; 1.0835756007132405E8 ; 3380967.6285591004 ; 4.2574721346387476E8 ; 0.0
5 ; 880981.9052694985 ; 1.0974400504129183E8 ; 4249976.027218567 ; 5.341047735351988E8 ; 0.0
6 ; 896817.1918849557 ; 1.1143952993280795E8 ; 5130957.932488065 ; 6.438487785764906E8 ; 0.0
7 ; 919254.2855914156 ; 1.1344413855421638E8 ; 6027775.124373021 ; 7.552883085092986E8 ; 0.0
8 ; 955967.4259271577 ; 1.1575783390433258E8 ; 6947029.409964437 ; 8.68732447063515E8 ; 0.0
9 ; 1004909.1046353197 ; 1.1838061814516848E8 ; 7902996.835891594 ; 9.844902809678476E8 ; 0.0
10 ; 1084727.572346257 ; 1.2131249258201963E8 ; 8907905.940526914 ; 1.1028708991130161E9 ; 0.0
11 ; 1205629.750352854 ; 1.2455345765134135E8 ; 9992633.51287317 ; 1.2241833916950357E9 ; 0.0
12 ; 1404374.812528613 ; 1.2810351291667828E8 ; 1.1198263263226025E7 ; 1.3487368493463771E9 ; 0.0
13 ; 1597704.8844787488 ; 1.3196265707273489E8 ; 1.2602638075754639E7 ; 1.4768403622630553E9 ; 0.0
14 ; 1621568.032073054 ; 1.3613088795749933E8 ; 1.4200342960233387E7 ; 1.6088030193357902E9 ; 0.0
15 ; 1630436.5768148843 ; 1.40608202572156E8 ; 1.5821910992306441E7 ; 1.7449339072932894E9 ; 0.0
16 ; 1638970.308091227 ; 1.453945971083611E8 ; 1.7452347569121324E7 ; 1.8855421098654454E9 ; 0.0
17 ; 1648563.5625205243 ; 1.5049006698230353E8 ; 1.909131787721255E7 ; 2.0309367069738064E9 ; 0.0
18 ; 1656165.2153628236 ; 1.558946068748514E8 ; 2.0739881439733073E7 ; 2.18142677395611E9 ; 0.0
19 ; 1666948.2618891853 ; 1.6160821077698138E8 ; 2.2396046655095898E7 ; 2.337321380830961E9 ; 0.0
20 ; 1678159.173384968 ; 1.6763087203961495E8 ; 2.4062994916985083E7 ; 2.4989295916079426E9 ; 0.0
21 ; 1687492.7341354992 ; 1.739625834269431E8 ; 2.574115409037005E7 ; 2.6665604636475577E9 ; 0.0
22 ; 1698549.9757441487 ; 1.8060333717230517E8 ; 2.7428646824505553E7 ; 2.840523047074501E9 ; 0.0
23 ; 1705231.063607855 ; 1.875531250356984E8 ; 2.9127196800249703E7 ; 3.021126384246806E9 ; 0.0
24 ; 1717242.4567635155 ; 1.948119383620317E8 ; 3.083242786385756E7 ; 3.2086795092825046E9 ; 0.0
25 ; 1725948.641025798 ; 2.010678090374759E8 ; 3.2549670320621077E7 ; 3.403491447644536E9 ; 0.0
26 ; 1735858.0190772542 ; 2.0107427558368218E8 ; 3.427561896164688E7 ; 3.604559256682012E9 ; 0.0
27 ; 1742723.0516642313 ; 2.010810977384898E8 ; 3.601147698072413E7 ; 3.805633532265694E9 ; 0.0
28 ; 1756413.4322377413 ; 2.010882657564069E8 ; 3.775420003238837E7 ; 4.006714630004184E9 ; 0.0
29 ; 1762455.57104574 ; 2.0109576975298378E8 ; 3.951061346462611E7 ; 4.2078028957605906E9 ; 0.0
30 ; 1774513.4567440008 ; 2.0110359975297645E8 ; 4.127306903567185E7 ; 4.408898665513575E9 ; 0.0
31 ; 1779107.5780964273 ; 2.011117457352545E8 ; 4.304758249241585E7 ; 4.610002265266551E9 ; 0.0
32 ; 1792041.578255569 ; 2.0112019767425147E8 ; 4.482669007051228E7 ; 4.811114011001805E9 ; 0.0
33 ; 1798622.4119603713 ; 2.0112894557783842E8 ; 4.661873164876785E7 ; 5.012234208676057E9 ; 0.0
34 ; 1810011.2228604802 ; 2.0113797952157414E8 ; 4.841735406072822E7 ; 5.213363154253895E9 ; 0.0
35 ; 1815818.3579078012 ; 2.0114728967934975E8 ; 5.02273652835887E7 ; 5.414501133775469E9 ; 0.0
36 ; 1822237.559692944 ; 2.0115686635050005E8 ; 5.20431836414965E7 ; 5.615648423454819E9 ; 0.0
37 ; 1834014.071857348 ; 2.0116669998349813E8 ; 5.386542120118944E7 ; 5.816805289805319E9 ; 0.0
38 ; 1837788.1518007906 ; 2.0117678119638595E8 ; 5.569943527304679E7 ; 6.017971989788817E9 ; 0.0
39 ; 1846014.8876427058 ; 2.0118710079412034E8 ; 5.753722342484758E7 ; 6.219148770985204E9 ; 0.0
40 ; 1854183.5792330094 ; 2.0119764978303325E8 ; 5.9383238312490284E7 ; 6.420335871779325E9 ; 0.0
41 ; 1863545.6137998393 ; 2.0120841938261756E8 ; 6.123742189172329E7 ; 6.621533521562358E9 ; 0.0
42 ; 1868407.5079789967 ; 2.0121940103485596E8 ; 6.310096750552313E7 ; 6.822741940944976E9 ; 0.0
43 ; 1874441.6552365301 ; 2.0123058641131204E8 ; 6.496937501350213E7 ; 7.023961341979832E9 ; 0.0
44 ; 1881031.7950245736 ; 2.0124196741820052E8 ; 6.6843816668738656E7 ; 7.225191928391144E9 ; 0.0
45 ; 1886361.1228666226 ; 2.0125353619964606E8 ; 6.872484846376322E7 ; 7.426433895809344E9 ; 0.0
46 ; 1889868.8874682875 ; 2.0126528513933346E8 ; 7.061120958662984E7 ; 7.62768743200899E9 ; 0.0
47 ; 1896742.0448120665 ; 2.0127720686074E8 ; 7.250107847409813E7 ; 7.828952717148324E9 ; 0.0
48 ; 1902743.2674699607 ; 2.012892942261297E8 ; 7.43978205189102E7 ; 8.030229924009064E9 ; 0.0
49 ; 1907276.405711545 ; 2.013015403344764E8 ; 7.630056378638016E7 ; 8.231519218235193E9 ; 0.0
50 ; 1909186.8088588617 ; 2.0131393851846966E8 ; 7.82078401920917E7 ; 8.43282075856967E9 ; 0.0
51 ; 1914129.6687166975 ; 2.013264823407441E8 ; 8.011702700095056E7 ; 8.634134697088139E9 ; 0.0
52 ; 1917754.8479462285 ; 2.0133916558946034E8 ; 8.203115666966726E7 ; 8.835461179428883E9 ; 0.0
53 ; 1921168.6737613776 ; 2.013519822733528E8 ; 8.394891151761349E7 ; 9.036800345018343E9 ; 0.0
54 ; 1924712.6014962504 ; 2.0136492661634755E8 ; 8.587008019137487E7 ; 9.238152327291697E9 ; 0.0
55 ; 1927965.5767169737 ; 2.0137799305184275E8 ; 8.779479279287112E7 ; 9.439517253908045E9 ; 0.0
56 ; 1930025.2103748533 ; 2.0139117621673268E8 ; 8.972275836958809E7 ; 9.640895246959888E9 ; 0.0
57 ; 1934836.368717127 ; 2.0140447094524726E8 ; 9.165278357996294E7 ; 9.84228642317662E9 ; 0.0
58 ; 1938470.0550863452 ; 2.0141787226266968E8 ; 9.358761994868007E7 ; 1.0043690894121868E10 ; 0.0
59 ; 1939740.0637219863 ; 2.0143137537898618E8 ; 9.552609000376642E7 ; 1.0245108766384539E10 ; 0.0
60 ; 1943666.3470844193 ; 2.0144497568251503E8 ; 9.74658300674884E7 ; 1.0446540141763525E10 ; 0.0
61 ; 1948475.8613015886 ; 2.0145866873355484E8 ; 9.940949641457282E7 ; 1.064798511744604E10 ; 0.0
62 ; 1952446.0337455994 ; 2.0147245025808552E8 ; 1.013579722758744E8 ; 1.0849443786179594E10 ; 0.0
63 ; 1955552.46155277 ; 2.0148631614155114E8 ; 1.0331041830962001E8 ; 1.105091623643768E10 ; 0.0
64 ; 1956935.3665767985 ; 2.0150026242274764E8 ; 1.0526597077117278E8 ; 1.1252402552579231E10 ; 0.0
65 ; 1962205.5829544559 ; 2.0151428528783518E8 ; 1.0722290613774958E8 ; 1.145390281500198E10 ; 0.0
66 ; 1963658.6074558108 ; 2.0152838106449062E8 ; 1.0918511172070403E8 ; 1.1655417100289816E10 ; 0.0
67 ; 1966578.167535812 ; 2.0154254621621218E8 ; 1.1114877032815984E8 ; 1.1856945481354307E10 ; 0.0
68 ; 1969926.6072493636 ; 2.0155677733678606E8 ; 1.1311534849569565E8 ; 1.2058488027570518E10 ; 0.0
69 ; 1972415.1704404773 ; 2.0157107114492163E8 ; 1.1508527510294501E8 ; 1.2260044804907305E10 ; 0.0
70 ; 1974705.1792174103 ; 2.0158542447906023E8 ; 1.170576902733855E8 ; 1.2461615876052227E10 ; 0.0
71 ; 1976808.237406014 ; 2.0159983429236022E8 ; 1.1903239545260291E8 ; 1.2663201300531288E10 ; 0.0
72 ; 1981001.5807682246 ; 2.016142976478598E8 ; 1.2100920369000892E8 ; 1.2864801134823648E10 ; 0.0
73 ; 1983711.520133477 ; 2.0162881171381772E8 ; 1.2299020527077715E8 ; 1.3066415432471508E10 ; 0.0
74 ; 1985151.7956860643 ; 2.0164337375923035E8 ; 1.2497391679091063E8 ; 1.3268044244185326E10 ; 0.0
75 ; 1988112.3852854618 ; 2.0165798114952374E8 ; 1.269590685865967E8 ; 1.3469687617944555E10 ; 0.0
76 ; 1990712.9541448602 ; 2.016726313424173E8 ; 1.2894718097188216E8 ; 1.3671345599094078E10 ; 0.0
77 ; 1993671.3768378652 ; 2.016873218839558E8 ; 1.3093789392602703E8 ; 1.3873018230436495E10 ; 0.0
78 ; 1991221.9223619332 ; 2.0170205040470603E8 ; 1.329315653028649E8 ; 1.407470555232045E10 ; 0.0
79 ; 1993563.524660618 ; 2.0171681461611348E8 ; 1.3492278722522682E8 ; 1.4276407602725157E10 ; 0.0
80 ; 1991919.1187448204 ; 2.0173161230701473E8 ; 1.3691635074988744E8 ; 1.447812441734127E10 ; 0.0
81 ; 1993465.4768403645 ; 2.0174644134030023E8 ; 1.3890826986863226E8 ; 1.4679856029648285E10 ; 0.0
82 ; 1994555.7478398548 ; 2.0176129964972317E8 ; 1.4090173534547263E8 ; 1.4881602470988585E10 ; 0.0
83 ; 1992540.0141882603 ; 2.0177618523684862E8 ; 1.428962910933125E8 ; 1.5083363770638308E10 ; 0.0
84 ; 1994525.1749130879 ; 2.017910961681386E8 ; 1.4488883110750076E8 ; 1.5285139955875156E10 ; 0.0
85 ; 1991351.8049680628 ; 2.0180603057216692E8 ; 1.4688335628241384E8 ; 1.5486931052043295E10 ; 0.0
86 ; 1991156.8610639651 ; 2.0182098663696015E8 ; 1.488747080873819E8 ; 1.5688737082615461E10 ; 0.0
87 ; 1992537.8055978438 ; 2.0183596260745788E8 ; 1.5086586494844586E8 ; 1.5890558069252422E10 ; 0.0
88 ; 1992210.4429234464 ; 2.0185095678308913E8 ; 1.528584027540437E8 ; 1.609239403185988E10 ; 0.0
89 ; 1992054.0504124982 ; 2.0186596751545864E8 ; 1.5485061319696715E8 ; 1.629424498864297E10 ; 0.0
90 ; 1990863.9278692908 ; 2.0188099320613915E8 ; 1.5684266724737966E8 ; 1.6496110956158428E10 ; 0.0
91 ; 1989053.7213301407 ; 2.018960323045646E8 ; 1.5883353117524895E8 ; 1.6697991949364567E10 ; 0.0
92 ; 1990054.891698441 ; 2.0191108330602032E8 ; 1.608225848965791E8 ; 1.6899887981669132E10 ; 0.0
93 ; 1985865.8799222524 ; 2.0192614474972507E8 ; 1.6281263978827754E8 ; 1.7101799064975153E10 ; 0.0
94 ; 1987593.7742128388 ; 2.0194121521700162E8 ; 1.6479850566819978E8 ; 1.7303725209724876E10 ; 0.0
95 ; 1988412.1205406098 ; 2.0195629332953122E8 ; 1.667860994424126E8 ; 1.750566642494188E10 ; 0.0
96 ; 1985274.1575576607 ; 2.0197137774768847E8 ; 1.6877451156295323E8 ; 1.770762271827141E10 ; 0.0
97 ; 1984227.177595736 ; 2.019864671689526E8 ; 1.707597857205109E8 ; 1.79095940960191E10 ; 0.0
98 ; 1983321.064580999 ; 2.020015603263918E8 ; 1.7274401289810663E8 ; 1.8111580563188053E10 ; 0.0
99 ; 1982973.2423867374 ; 2.0201665598721695E8 ; 1.7472733396268764E8 ; 1.8313582123514446E10 ; 0.0
100 ; 1982597.108852395 ; 2.0203175295140195E8 ; 1.7671030720507437E8 ; 1.8515598779501663E10 ; 0.0
101 ; 1980565.9326443449 ; 2.0204685005036667E8 ; 1.7869290431392676E8 ; 1.8717630532453064E10 ; 0.0
102 ; 1979409.544636987 ; 2.0206194614572045E8 ; 1.806734702465711E8 ; 1.891967738250343E10 ; 0.0
103 ; 1978502.5499377353 ; 2.0207704012806267E8 ; 1.826528797912081E8 ; 1.912173932864915E10 ; 0.0
104 ; 1974960.189386253 ; 2.0209213091583788E8 ; 1.846313823411458E8 ; 1.9323816368777214E10 ; 0.0
105 ; 1977029.9860526957 ; 2.02107217454243E8 ; 1.8660634253053206E8 ; 1.952590849969305E10 ; 0.0
106 ; 1974037.5998126445 ; 2.021222987141837E8 ; 1.8858337251658475E8 ; 1.9728015717147293E10 ; 0.0
107 ; 1972683.4255953182 ; 2.0213737369127807E8 ; 1.905574101163974E8 ; 1.9930138015861477E10 ; 0.0
108 ; 1970614.0594140487 ; 2.0215244140490517E8 ; 1.9253009354199272E8 ; 2.0132275389552753E10 ; 0.0
109 ; 1971707.3805670273 ; 2.0216750089729604E8 ; 1.9450070760140678E8 ; 2.0334427830957657E10 ; 0.0
110 ; 1970295.6620158672 ; 2.021825512326656E8 ; 1.964724149819738E8 ; 2.0536595331854954E10 ; 0.0
111 ; 1966021.6023663897 ; 2.02197591496383E8 ; 1.9844271064398965E8 ; 2.073877788308762E10 ; 0.0
112 ; 1965599.3306207974 ; 2.0221262079417905E8 ; 2.0040873224635604E8 ; 2.0940975474584003E10 ; 0.0
113 ; 1963708.5866138071 ; 2.0222763825138855E8 ; 2.0237433157697684E8 ; 2.114318809537818E10 ; 0.0
114 ; 1964644.7776167004 ; 2.0224264301222628E8 ; 2.0433804016359064E8 ; 2.134541573362957E10 ; 0.0
115 ; 1959533.7466557636 ; 2.022576342390945E8 ; 2.0630268494120735E8 ; 2.1547658376641796E10 ; 0.0
116 ; 1955667.4748843668 ; 2.0227261111192107E8 ; 2.082622186878631E8 ; 2.174991601088089E10 ; 0.0
117 ; 1954914.4117669335 ; 2.0228757282752627E8 ; 2.1021788616274747E8 ; 2.195218862199281E10 ; 0.0
118 ; 1955433.4312175135 ; 2.023025185990172E8 ; 2.1217280057451442E8 ; 2.2154476194820335E10 ; 0.0
119 ; 1950879.637217651 ; 2.023174476552084E8 ; 2.1412823400573194E8 ; 2.2356778713419353E10 ; 0.0
120 ; 1949737.2674291856 ; 2.0233235924006742E8 ; 2.1607911364294958E8 ; 2.2559096161074562E10 ; 0.0
121 ; 1946258.929413119 ; 2.0234725261218432E8 ; 2.1802885091037875E8 ; 2.276142852031463E10 ; 0.0
122 ; 1943933.5021659045 ; 2.023621270442636E8 ; 2.1997510983979186E8 ; 2.296377577292681E10 ; 0.0
123 ; 1943434.4197138571 ; 2.0237698182263818E8 ; 2.2191904334195778E8 ; 2.3166137899971073E10 ; 0.0
124 ; 1940632.4044545945 ; 2.0239181624680352E8 ; 2.2386247776167163E8 ; 2.3368514881793713E10 ; 0.0
125 ; 1939354.2948433235 ; 2.0240662962897196E8 ; 2.2580311016612622E8 ; 2.3570906698040516E10 ; 0.0
126 ; 1935666.0099342577 ; 2.0242142129364532E8 ; 2.2774246446096954E8 ; 2.3773313327669487E10 ; 0.0
127 ; 1936335.4446163413 ; 2.024361905772057E8 ; 2.2967813047090378E8 ; 2.397573474896313E10 ; 0.0
128 ; 1932557.2204117395 ; 2.0245093682752332E8 ; 2.3161446591552013E8 ; 2.4178170939540337E10 ; 0.0
129 ; 1930069.8494208565 ; 2.0246565940358058E8 ; 2.3354702313593188E8 ; 2.438062187636786E10 ; 0.0
130 ; 1925686.9446611507 ; 2.024803576751118E8 ; 2.3547709298535272E8 ; 2.458308753577144E10 ; 0.0
131 ; 1920092.7997551847 ; 2.024950310222576E8 ; 2.3740277993001387E8 ; 2.4785567893446552E10 ; 0.0
132 ; 1914998.9929507815 ; 2.025096788352337E8 ; 2.3932287272976905E8 ; 2.498806292446881E10 ; 0.0
133 ; 1910349.4412975737 ; 2.0252430051401308E8 ; 2.4123787172271982E8 ; 2.5190572603304047E10 ; 0.0
134 ; 1906734.1164981702 ; 2.0253889546802124E8 ; 2.4314822116401738E8 ; 2.5393096903818058E10 ; 0.0
135 ; 1901735.538044222 ; 2.0255346311584353E8 ; 2.4505495528051555E8 ; 2.559563579928608E10 ; 0.0
136 ; 1899071.4638771228 ; 2.0256800288494468E8 ; 2.4695669081855977E8 ; 2.5798189262401924E10 ; 0.0
137 ; 1888575.283901386 ; 2.0258251421139917E8 ; 2.4885576228243688E8 ; 2.600075726528687E10 ; 0.0
138 ; 1883741.5967002357 ; 2.0259699653963277E8 ; 2.5074433756633827E8 ; 2.620333977949827E10 ; 0.0
139 ; 1877013.488282092 ; 2.0261144932217413E8 ; 2.526280791630385E8 ; 2.64059367760379E10 ; 0.0
140 ; 1873278.3441690656 ; 2.026258720194163E8 ; 2.5450509265132058E8 ; 2.6608548225360073E10 ; 0.0
141 ; 1870094.058857054 ; 2.0264026409938774E8 ; 2.5637837099548966E8 ; 2.681117409737949E10 ; 0.0
142 ; 1865675.9602878662 ; 2.026546250375322E8 ; 2.582484650543467E8 ; 2.7013814361478878E10 ; 0.0
143 ; 1859377.4256443803 ; 2.026689543164974E8 ; 2.6011414101463458E8 ; 2.721646898651641E10 ; 0.0
144 ; 1852306.7061881071 ; 2.0268325142593166E8 ; 2.6197351844027895E8 ; 2.741913794083291E10 ; 0.0
145 ; 1846931.9427074245 ; 2.0269751586228892E8 ; 2.6382582514646706E8 ; 2.762182119225884E10 ; 0.0
146 ; 1844037.0756105792 ; 2.027117471286408E8 ; 2.6567275708917448E8 ; 2.7824518708121128E10 ; 0.0
147 ; 1843211.1974097604 ; 2.027259447344962E8 ; 2.6751679416478506E8 ; 2.8027230455249767E10 ; 0.0
148 ; 1839606.999077674 ; 2.027401081956278E8 ; 2.6936000536219484E8 ; 2.8229956399984264E10 ; 0.0
149 ; 1835228.1277390998 ; 2.0275423703390506E8 ; 2.711996123612725E8 ; 2.8432696508179893E10 ; 0.0
150 ; 1834760.0515161646 ; 2.0276833077713367E8 ; 2.730348404890116E8 ; 2.86354507452138E10 ; 0.0
151 ; 1834550.1696203959 ; 2.0278238895890123E8 ; 2.7486960054052776E8 ; 2.8838219075990932E10 ; 0.0
152 ; 1827356.0164495448 ; 2.0279641111842838E8 ; 2.7670415071014816E8 ; 2.9041001464949833E10 ; 0.0
153 ; 1826804.1224026084 ; 2.028103968004261E8 ; 2.785315067265977E8 ; 2.924379787606826E10 ; 0.0
154 ; 1825090.0288994417 ; 2.0282434555495766E8 ; 2.8035831084900033E8 ; 2.9446608272868687E10 ; 0.0
155 ; 1820306.0233444436 ; 2.0283825693730646E8 ; 2.8218340087789977E8 ; 2.9649432618423645E10 ; 0.0
156 ; 1817350.631679777 ; 2.0285213050784823E8 ; 2.840037069012442E8 ; 2.985227087536095E10 ; 0.0
157 ; 1814808.9016302417 ; 2.0286596583192822E8 ; 2.85821057532924E8 ; 3.0055123005868797E10 ; 0.0
158 ; 1811701.342787268 ; 2.0287976247974288E8 ; 2.876358664345542E8 ; 3.0257988971700726E10 ; 0.0
159 ; 1809618.580478017 ; 2.0289352002622598E8 ; 2.894475677773415E8 ; 3.046086873418047E10 ; 0.0
160 ; 1803871.1875717172 ; 2.029072380509387E8 ; 2.912571863578195E8 ; 3.0663762254206696E10 ; 0.0
161 ; 1803961.0335000805 ; 2.0292091613796395E8 ; 2.930610575453912E8 ; 3.0866669492257633E10 ; 0.0
162 ; 1801888.8594909462 ; 2.0293455387580442E8 ; 2.948650185788913E8 ; 3.1069590408395596E10 ; 0.0
163 ; 1796667.085306212 ; 2.0294815085728437E8 ; 2.966669074383822E8 ; 3.12725249622714E10 ; 0.0
164 ; 1796365.034086271 ; 2.0296170667945504E8 ; 2.9846357452368844E8 ; 3.1475473113128685E10 ; 0.0
165 ; 1789942.9975524077 ; 2.029752209435032E8 ; 3.002599395577747E8 ; 3.167843481980814E10 ; 0.0
166 ; 1787705.637866134 ; 2.0298869325466344E8 ; 3.020498825553271E8 ; 3.1881410040751644E10 ; 0.0
167 ; 1785754.736147283 ; 2.0300212322213316E8 ; 3.0383758819319326E8 ; 3.2084398734006306E10 ; 0.0
168 ; 1782824.8606695472 ; 2.030155104589908E8 ; 3.0562334292934054E8 ; 3.228740085722844E10 ; 0.0
169 ; 1780223.0018693972 ; 2.0302885458211714E8 ; 3.074061677900101E8 ; 3.249041636768743E10 ; 0.0
170 ; 1777047.1720905383 ; 2.0304215521211886E8 ; 3.091863907918795E8 ; 3.269344522226955E10 ; 0.0
171 ; 1774349.459123167 ; 2.0305541197325557E8 ; 3.1096343796397E8 ; 3.289648737748167E10 ; 0.0
172 ; 1770930.8412214317 ; 2.0306862449336863E8 ; 3.127377874230932E8 ; 3.3099542789454926E10 ; 0.0
173 ; 1769095.316702261 ; 2.0308179240381306E8 ; 3.1450871826431465E8 ; 3.3302611413948296E10 ; 0.0
174 ; 1763723.4988207591 ; 2.030949153393916E8 ; 3.162778135810169E8 ; 3.3505693206352108E10 ; 0.0
175 ; 1763201.56646848 ; 2.03107992938291E8 ; 3.180415370798377E8 ; 3.3708788121691498E10 ; 0.0
176 ; 1759465.18004065 ; 2.031210248420207E8 ; 3.1980473864630616E8 ; 3.3911896114629787E10 ; 0.0
177 ; 1759391.3418146546 ; 2.0313401069535348E8 ; 3.215642038263468E8 ; 3.411501713947181E10 ; 0.0
178 ; 1754468.66416959 ; 2.031469501462684E8 ; 3.2332359516816145E8 ; 3.4318151150167164E10 ; 0.0
179 ; 1755311.9667248316 ; 2.0315984284589535E8 ; 3.2507806383233106E8 ; 3.452129810031343E10 ; 0.0
180 ; 1752896.3008751308 ; 2.03172688448462E8 ; 3.268333757990559E8 ; 3.4724457943159325E10 ; 0.0
181 ; 1751054.3442062314 ; 2.0318548661124206E8 ; 3.28586272099931E8 ; 3.492763063160779E10 ; 0.0
182 ; 1746700.4087373242 ; 2.031982369945056E8 ; 3.303373264441372E8 ; 3.513081611821903E10 ; 0.0
183 ; 1746300.1839747638 ; 2.032109392614712E8 ; 3.320840268528745E8 ; 3.533401435521354E10 ; 0.0
184 ; 1745772.3013005357 ; 2.0322359307825935E8 ; 3.3383032703684926E8 ; 3.553722529447501E10 ; 0.0
185 ; 1743129.2922905018 ; 2.0323619811384782E8 ; 3.355760993381498E8 ; 3.5740448887553276E10 ; 0.0
186 ; 1740145.5557174317 ; 2.0324875404002824E8 ; 3.373192286304403E8 ; 3.594368508566712E10 ; 0.0
187 ; 1740066.2414772965 ; 2.0326126053136438E8 ; 3.390593741861577E8 ; 3.614693383970715E10 ; 0.0
188 ; 1734482.3212685303 ; 2.0327371726515174E8 ; 3.40799440427635E8 ; 3.635019510023852E10 ; 0.0
189 ; 1734579.5764773858 ; 2.0328612392137855E8 ; 3.425339227489036E8 ; 3.655346881750367E10 ; 0.0
190 ; 1731205.7683507008 ; 2.0329848018268794E8 ; 3.44268502325381E8 ; 3.675675494142505E10 ; 0.0
191 ; 1729688.428151637 ; 2.033107857343417E8 ; 3.459997080937317E8 ; 3.6960053421607735E10 ; 0.0
192 ; 1726897.1635502826 ; 2.033230402641849E8 ; 3.477293965218833E8 ; 3.716336420734208E10 ; 0.0
193 ; 1725211.5280188483 ; 2.033352434626119E8 ; 3.4945629368543357E8 ; 3.736668724760626E10 ; 0.0
194 ; 1727318.301562531 ; 2.0334739502253348E8 ; 3.511815052134524E8 ; 3.757002249106887E10 ; 0.0
195 ; 1720567.1825679527 ; 2.0335949463934508E8 ; 3.5290882351501495E8 ; 3.777336988609141E10 ; 0.0
196 ; 1718275.4110446528 ; 2.0337154201089594E8 ; 3.546293906975829E8 ; 3.797672938073075E10 ; 0.0
197 ; 1715568.2949964122 ; 2.033835368374596E8 ; 3.5634766610862756E8 ; 3.8180100922741646E10 ; 0.0
198 ; 1714728.9660885823 ; 2.0339547882170495E8 ; 3.58063234403624E8 ; 3.838348445957911E10 ; 0.0
199 ; 1712889.0621184318 ; 2.0340736766866872E8 ; 3.597779633697126E8 ; 3.858687993840082E10 ; 0.0
