CSV File for the City 6 on Day 324
1 - Minute m 
2 - Power Consumed at minute m 
3 - Power Produced at minute m 
4 - Energy Consumed since the beginning of the day 
5 - Energy Produced since the beginning of the day 
6 - Energy Lost since the beginning of the day on lines starting from the city
 
0 ; 1.1252703652778149E7 ; 1.066603113289496E8 ; 0.0 ; 0.0 ; 0.0
1 ; 1.1262575375654515E7 ; 1.0681102783030337E8 ; 1.1252703652778149E7 ; 1.066603113289496E8 ; 0.0
2 ; 1.1275855745880853E7 ; 1.0727075760627767E8 ; 2.2515279028432664E7 ; 2.1347133915925297E8 ; 0.0
3 ; 1.1293341094534472E7 ; 1.0803950332208925E8 ; 3.379113477431352E7 ; 3.2074209676553065E8 ; 0.0
4 ; 1.1308981807095354E7 ; 1.0911726735355008E8 ; 4.508447586884799E7 ; 4.287816000876199E8 ; 0.0
5 ; 1.1325577746352281E7 ; 1.1050405177826339E8 ; 5.6393457675943345E7 ; 5.3789886744117E8 ; 0.0
6 ; 1.1354127205786476E7 ; 1.1219985836782756E8 ; 6.771903542229563E7 ; 6.484029192194333E8 ; 0.0
7 ; 1.13915033145216E7 ; 1.1420468858111751E8 ; 7.907316262808211E7 ; 7.606027775872608E8 ; 0.0
8 ; 1.144341313825077E7 ; 1.1651854355870175E8 ; 9.04646659426037E7 ; 8.748074661683784E8 ; 0.0
9 ; 1.152634037371795E7 ; 1.1914142411844707E8 ; 1.0190807908085448E8 ; 9.913260097270801E8 ; 0.0
10 ; 1.165173126306538E7 ; 1.220733307523492E8 ; 1.1343441945457242E8 ; 1.1104674338455272E9 ; 0.0
11 ; 1.1848441592419123E7 ; 1.2531426362461993E8 ; 1.250861507176378E8 ; 1.2325407645978763E9 ; 0.0
12 ; 1.216598961486581E7 ; 1.2886422257104746E8 ; 1.3693459231005692E8 ; 1.3578550282224963E9 ; 0.0
13 ; 1.247289431381168E7 ; 1.3272320709963602E8 ; 1.4910058192492273E8 ; 1.4867192507935438E9 ; 0.0
14 ; 1.250914929160239E7 ; 1.3689121639251894E8 ; 1.6157347623873442E8 ; 1.61944245789318E9 ; 0.0
15 ; 1.2518120262325803E7 ; 1.4136824930912757E8 ; 1.7408262553033683E8 ; 1.756333674285699E9 ; 0.0
16 ; 1.2537906082150793E7 ; 1.4615430439058712E8 ; 1.8660074579266262E8 ; 1.8977019235948265E9 ; 0.0
17 ; 1.2550916400146095E7 ; 1.5124937986529914E8 ; 1.991386518748134E8 ; 2.0438562279854136E9 ; 0.0
18 ; 1.256256888210699E7 ; 1.566534736556604E8 ; 2.116895682749595E8 ; 2.195105607850713E9 ; 0.0
19 ; 1.258159068195666E7 ; 1.6236658338585892E8 ; 2.242521371570665E8 ; 2.3517590815063734E9 ; 0.0
20 ; 1.2598522781336885E7 ; 1.6838870639067796E8 ; 2.3683372783902314E8 ; 2.5141256648922324E9 ; 0.0
21 ; 1.261220312959555E7 ; 1.7471983972523335E8 ; 2.4943225062036002E8 ; 2.6825143712829103E9 ; 0.0
22 ; 1.2627352042042082E7 ; 1.813599801755606E8 ; 2.6204445374995556E8 ; 2.857234211008144E9 ; 0.0
23 ; 1.264373898482437E7 ; 1.8830912426996636E8 ; 2.746718057919977E8 ; 3.0385941911837044E9 ; 0.0
24 ; 1.2659632115670295E7 ; 1.955672682910514E8 ; 2.8731554477682203E8 ; 3.2269033154536705E9 ; 0.0
25 ; 1.2669283871891135E7 ; 2.01822449186496E8 ; 2.9997517689249235E8 ; 3.422470583744722E9 ; 0.0
26 ; 1.2687175390149526E7 ; 2.0182821061904147E8 ; 3.126444607643835E8 ; 3.6242930329312177E9 ; 0.0
27 ; 1.2701941668190615E7 ; 2.0183431750486702E8 ; 3.25331636154533E8 ; 3.826121243550259E9 ; 0.0
28 ; 1.2715999508133102E7 ; 2.018407652741299E8 ; 3.380335778227236E8 ; 4.027955561055126E9 ; 0.0
29 ; 1.2732047757442098E7 ; 2.0184754917818004E8 ; 3.5074957733085674E8 ; 4.229796326329256E9 ; 0.0
30 ; 1.2746282755455373E7 ; 2.0185466430364174E8 ; 3.6348162508829886E8 ; 4.431643875507436E9 ; 0.0
31 ; 1.2761362096530989E7 ; 2.0186210558652234E8 ; 3.7622790784375423E8 ; 4.633498539811077E9 ; 0.0
32 ; 1.2775172811461518E7 ; 2.0186986782626626E8 ; 3.889892699402852E8 ; 4.835360645397599E9 ; 0.0
33 ; 1.2783010839930821E7 ; 2.018779456996793E8 ; 4.017644427517467E8 ; 5.0372305132238655E9 ; 0.0
34 ; 1.2801228099175543E7 ; 2.018863337746522E8 ; 4.1454745359167755E8 ; 5.239108458923545E9 ; 0.0
35 ; 1.281320378704016E7 ; 2.018950265236201E8 ; 4.273486816908531E8 ; 5.440994792698197E9 ; 0.0
36 ; 1.282551616761375E7 ; 2.0190401833669895E8 ; 4.401618854778933E8 ; 5.642889819221817E9 ; 0.0
37 ; 1.2839521500907965E7 ; 2.019133035344487E8 ; 4.5298740164550704E8 ; 5.844793837558516E9 ; 0.0
38 ; 1.2845994415273422E7 ; 2.019228763802169E8 ; 4.65826923146415E8 ; 6.046707141092964E9 ; 0.0
39 ; 1.2859232904257875E7 ; 2.0193273109202492E8 ; 4.786729175616884E8 ; 6.248630017473181E9 ; 0.0
40 ; 1.2869450019228159E7 ; 2.0194286185396442E8 ; 4.915321504659463E8 ; 6.450562748565206E9 ; 0.0
41 ; 1.288221250761215E7 ; 2.0195326282707748E8 ; 5.044016004851745E8 ; 6.65250561041917E9 ; 0.0
42 ; 1.2890104007064518E7 ; 2.019639281597002E8 ; 5.1728381299278665E8 ; 6.854458873246248E9 ; 0.0
43 ; 1.2899219115123454E7 ; 2.0197485199725506E8 ; 5.3017391699985117E8 ; 7.056422801405949E9 ; 0.0
44 ; 1.2906619909118844E7 ; 2.0198602849148154E8 ; 5.430731361149746E8 ; 7.258397653403204E9 ; 0.0
45 ; 1.291387007555408E7 ; 2.019974518091012E8 ; 5.559797560240935E8 ; 7.460383681894686E9 ; 0.0
46 ; 1.292359459480208E7 ; 2.020091161399153E8 ; 5.688936260996476E8 ; 7.662381133703787E9 ; 0.0
47 ; 1.2927361506164728E7 ; 2.0202101570433912E8 ; 5.818172206944497E8 ; 7.864390249843702E9 ; 0.0
48 ; 1.2938827543325273E7 ; 2.0203314476037967E8 ; 5.947445822006143E8 ; 8.066411265548041E9 ; 0.0
49 ; 1.2943398744721875E7 ; 2.020454976100664E8 ; 6.076834097439396E8 ; 8.268444410308421E9 ; 0.0
50 ; 1.2948628580262072E7 ; 2.0205806860534817E8 ; 6.206268084886615E8 ; 8.470489907918488E9 ; 0.0
51 ; 1.2951983246626493E7 ; 2.0207085215347093E8 ; 6.335754370689236E8 ; 8.672547976523836E9 ; 0.0
52 ; 1.2955168367513008E7 ; 2.0208384272185344E8 ; 6.465274203155501E8 ; 8.874618828677307E9 ; 0.0
53 ; 1.2963283858669246E7 ; 2.0209703484247956E8 ; 6.594825886830631E8 ; 9.07670267139916E9 ; 0.0
54 ; 1.2965346370008942E7 ; 2.021104231158268E8 ; 6.724458725417324E8 ; 9.27879970624164E9 ; 0.0
55 ; 1.2968335304500703E7 ; 2.02124002214352E8 ; 6.854112189117414E8 ; 9.480910129357468E9 ; 0.0
56 ; 1.297589063006353E7 ; 2.0213776688555598E8 ; 6.983795542162421E8 ; 9.68303413157182E9 ; 0.0
57 ; 1.2977770868049812E7 ; 2.021517119546485E8 ; 7.113554448463056E8 ; 9.885171898457375E9 ; 0.0
58 ; 1.298195873859611E7 ; 2.021658323268363E8 ; 7.243332157143555E8 ; 1.0087323610412024E10 ; 0.0
59 ; 1.2986990024639852E7 ; 2.0218012298925635E8 ; 7.373151744529516E8 ; 1.028948944273886E10 ; 0.0
60 ; 1.2990895428337408E7 ; 2.0219457901257613E8 ; 7.503021644775914E8 ; 1.0491669565728115E10 ; 0.0
61 ; 1.2995937159545237E7 ; 2.022091955522828E8 ; 7.632930599059289E8 ; 1.0693864144740692E10 ; 0.0
62 ; 1.2996188282853268E7 ; 2.0222396784968284E8 ; 7.76288997065474E8 ; 1.0896073340292974E10 ; 0.0
63 ; 1.2998508369463554E7 ; 2.022388912326325E8 ; 7.892851853483273E8 ; 1.1098297308142658E10 ; 0.0
64 ; 1.3007836238186259E7 ; 2.0225396111601996E8 ; 8.022836937177908E8 ; 1.130053619937529E10 ; 0.0
65 ; 1.3006577100856045E7 ; 2.0226917300201774E8 ; 8.152915299559771E8 ; 1.150279016049131E10 ; 0.0
66 ; 1.3013701457442928E7 ; 2.022845224801248E8 ; 8.282981070568331E8 ; 1.1705059333493328E10 ; 0.0
67 ; 1.301719380978749E7 ; 2.023000052270159E8 ; 8.41311808514276E8 ; 1.1907343855973454E10 ; 0.0
68 ; 1.3019030527042838E7 ; 2.0231561700621545E8 ; 8.543290023240635E8 ; 1.210964386120047E10 ; 0.0
69 ; 1.302065465005649E7 ; 2.0233135366761172E8 ; 8.673480328511064E8 ; 1.2311959478206686E10 ; 0.0
70 ; 1.3025368416380435E7 ; 2.0234721114682737E8 ; 8.803686875011629E8 ; 1.2514290831874298E10 ; 0.0
71 ; 1.3025732969627827E7 ; 2.0236318546446007E8 ; 8.933940559175433E8 ; 1.2716638043021126E10 ; 0.0
72 ; 1.302690751994883E7 ; 2.0237927272520766E8 ; 9.064197888871711E8 ; 1.2919001228485586E10 ; 0.0
73 ; 1.3033947380496835E7 ; 2.0239546911688963E8 ; 9.1944669640712E8 ; 1.3121380501210794E10 ; 0.0
74 ; 1.3033394450865727E7 ; 2.02411770909378E8 ; 9.324806437876168E8 ; 1.3323775970327684E10 ; 0.0
75 ; 1.3034206587192617E7 ; 2.0242817445344776E8 ; 9.455140382384826E8 ; 1.3526187741237062E10 ; 0.0
76 ; 1.3039458230375398E7 ; 2.024446761795582E8 ; 9.585482448256752E8 ; 1.372861591569051E10 ; 0.0
77 ; 1.3041547416337915E7 ; 2.0246127259657365E8 ; 9.715877030560507E8 ; 1.3931060591870068E10 ; 0.0
78 ; 1.3042356754089352E7 ; 2.0247796029043388E8 ; 9.846292504723886E8 ; 1.413352186446664E10 ; 0.0
79 ; 1.303660577036234E7 ; 2.0249473592278117E8 ; 9.97671607226478E8 ; 1.4335999824757074E10 ; 0.0
80 ; 1.3036696984328596E7 ; 2.0251159622955233E8 ; 1.0107082129968404E9 ; 1.4538494560679855E10 ; 0.0
81 ; 1.3036697784957716E7 ; 2.0252853801954263E8 ; 1.023744909981169E9 ; 1.4741006156909409E10 ; 0.0
82 ; 1.3029095965128934E7 ; 2.0254555817294753E8 ; 1.0367816077661268E9 ; 1.4943534694928951E10 ; 0.0
83 ; 1.302825386873463E7 ; 2.025626536398886E8 ; 1.0498107037312557E9 ; 1.5146080253101898E10 ; 0.0
84 ; 1.3024728458832162E7 ; 2.0257982143892854E8 ; 1.0628389575999902E9 ; 1.5348642906741787E10 ; 0.0
85 ; 1.3021470243807025E7 ; 2.0259705865558028E8 ; 1.0758636860588224E9 ; 1.5551222728180716E10 ; 0.0
86 ; 1.3017001062679654E7 ; 2.0261436244081452E8 ; 1.0888851563026295E9 ; 1.5753819786836296E10 ; 0.0
87 ; 1.301992129504344E7 ; 2.0263173000956947E8 ; 1.1019021573653092E9 ; 1.5956434149277111E10 ; 0.0
88 ; 1.3012829961469967E7 ; 2.0264915863926658E8 ; 1.1149220786603527E9 ; 1.615906587928668E10 ; 0.0
89 ; 1.3008918350105021E7 ; 2.0266664566833517E8 ; 1.1279349086218226E9 ; 1.6361715037925947E10 ; 0.0
90 ; 1.3006562711450616E7 ; 2.0268418849474895E8 ; 1.1409438269719276E9 ; 1.6564381683594282E10 ; 0.0
91 ; 1.3009798289847063E7 ; 2.0270178457457685E8 ; 1.1539503896833782E9 ; 1.6767065872089031E10 ; 0.0
92 ; 1.3000971280309109E7 ; 2.027194314205502E8 ; 1.1669601879732254E9 ; 1.6969767656663609E10 ; 0.0
93 ; 1.2998544406793237E7 ; 2.027371266006487E8 ; 1.1799611592535346E9 ; 1.7172487088084158E10 ; 0.0
94 ; 1.299467709936265E7 ; 2.0275486773670617E8 ; 1.192959703660328E9 ; 1.7375224214684807E10 ; 0.0
95 ; 1.2991080938441955E7 ; 2.0277265250303808E8 ; 1.2059543807596905E9 ; 1.7577979082421513E10 ; 0.0
96 ; 1.2988180951304844E7 ; 2.027904786250918E8 ; 1.2189454616981325E9 ; 1.778075173492455E10 ; 0.0
97 ; 1.2985256937606646E7 ; 2.0280834387812084E8 ; 1.2319336426494374E9 ; 1.798354221354964E10 ; 0.0
98 ; 1.29833456447225E7 ; 2.028262460858838E8 ; 1.244918899587044E9 ; 1.818635055742776E10 ; 0.0
99 ; 1.2980156730447782E7 ; 2.0284418311936864E8 ; 1.2579022452317665E9 ; 1.8389176803513645E10 ; 0.0
100 ; 1.29731852080269E7 ; 2.0286215289554322E8 ; 1.2708824019622142E9 ; 1.8592020986633015E10 ; 0.0
101 ; 1.296673252567794E7 ; 2.0288015337613213E8 ; 1.283855587170241E9 ; 1.8794883139528557E10 ; 0.0
102 ; 1.2965304702120231E7 ; 2.0289818256642047E8 ; 1.296822319695919E9 ; 1.899776329290469E10 ; 0.0
103 ; 1.2959409576588782E7 ; 2.029162385140845E8 ; 1.3097876243980393E9 ; 1.920066147547111E10 ; 0.0
104 ; 1.2955026206280395E7 ; 2.0293431930804944E8 ; 1.3227470339746282E9 ; 1.9403577713985195E10 ; 0.0
105 ; 1.2951390182219328E7 ; 2.0295242307737467E8 ; 1.3357020601809087E9 ; 1.9606512033293243E10 ; 0.0
106 ; 1.2946894405738551E7 ; 2.0297054799016556E8 ; 1.348653450363128E9 ; 1.9809464456370617E10 ; 0.0
107 ; 1.294129420277047E7 ; 2.0298869225251278E8 ; 1.3616003447688665E9 ; 2.0012435004360783E10 ; 0.0
108 ; 1.2938025918763408E7 ; 2.0300685410745814E8 ; 1.374541638971637E9 ; 2.0215423696613297E10 ; 0.0
109 ; 1.2931925328993699E7 ; 2.030250318339872E8 ; 1.3874796648904004E9 ; 2.0418430550720757E10 ; 0.0
110 ; 1.2922399779595979E7 ; 2.030432237460479E8 ; 1.4004115902193942E9 ; 2.0621455582554745E10 ; 0.0
111 ; 1.2918560213390885E7 ; 2.0306142819159555E8 ; 1.4133339899989903E9 ; 2.0824498806300793E10 ; 0.0
112 ; 1.2915618663392792E7 ; 2.0307964355166316E8 ; 1.4262525502123811E9 ; 2.102756023449239E10 ; 0.0
113 ; 1.2907213557717562E7 ; 2.0309786823945725E8 ; 1.439168168875774E9 ; 2.1230639878044052E10 ; 0.0
114 ; 1.2902890638937924E7 ; 2.0311610069947815E8 ; 1.4520753824334915E9 ; 2.143373774628351E10 ; 0.0
115 ; 1.2899407141837133E7 ; 2.0313433940666512E8 ; 1.4649782730724294E9 ; 2.1636853846982986E10 ; 0.0
116 ; 1.2887395702342441E7 ; 2.031525828655651E8 ; 1.4778776802142665E9 ; 2.1839988186389652E10 ; 0.0
117 ; 1.2884527557109615E7 ; 2.0317082960952502E8 ; 1.490765075916609E9 ; 2.204314076925522E10 ; 0.0
118 ; 1.2881717607823003E7 ; 2.0318907819990715E8 ; 1.5036496034737186E9 ; 2.2246311598864742E10 ; 0.0
119 ; 1.2872274493922237E7 ; 2.0320732722532678E8 ; 1.5165313210815415E9 ; 2.2449500677064648E10 ; 0.0
120 ; 1.286539172899579E7 ; 2.0322557530091214E8 ; 1.5294035955754638E9 ; 2.2652708004289974E10 ; 0.0
121 ; 1.2864960988908766E7 ; 2.032438210675855E8 ; 1.5422689873044596E9 ; 2.2855933579590885E10 ; 0.0
122 ; 1.2854997789420722E7 ; 2.0326206319136566E8 ; 1.5551339482933683E9 ; 2.305917740065847E10 ; 0.0
123 ; 1.2849431127216505E7 ; 2.0328030036269033E8 ; 1.567988946082789E9 ; 2.3262439463849834E10 ; 0.0
124 ; 1.2837887344000157E7 ; 2.0329853129575914E8 ; 1.5808383772100055E9 ; 2.3465719764212524E10 ; 0.0
125 ; 1.2831311633978533E7 ; 2.033167547278956E8 ; 1.5936762645540056E9 ; 2.366901829550828E10 ; 0.0
126 ; 1.2824511234114733E7 ; 2.0333496941892812E8 ; 1.6065075761879842E9 ; 2.3872335050236176E10 ; 0.0
127 ; 1.2820419310522089E7 ; 2.0335317415058976E8 ; 1.6193320874220989E9 ; 2.40756700196551E10 ; 0.0
128 ; 1.2813469818425031E7 ; 2.033713677259356E8 ; 1.632152506732621E9 ; 2.427902319380569E10 ; 0.0
129 ; 1.2802805836618206E7 ; 2.0338954896877772E8 ; 1.644965976551046E9 ; 2.4482394561531628E10 ; 0.0
130 ; 1.2792552234553656E7 ; 2.0340771672313714E8 ; 1.657768782387664E9 ; 2.4685784110500404E10 ; 0.0
131 ; 1.2784356027962903E7 ; 2.0342586985271245E8 ; 1.6705613346222177E9 ; 2.488919182722354E10 ; 0.0
132 ; 1.2770755821165396E7 ; 2.0344400724036413E8 ; 1.6833456906501806E9 ; 2.5092617697076252E10 ; 0.0
133 ; 1.2762079124139683E7 ; 2.0346212778761494E8 ; 1.696116446471346E9 ; 2.5296061704316616E10 ; 0.0
134 ; 1.2749816754778825E7 ; 2.034802304141649E8 ; 1.7088785255954857E9 ; 2.5499523832104233E10 ; 0.0
135 ; 1.2736986262395632E7 ; 2.0349831405742162E8 ; 1.7216283423502645E9 ; 2.57030040625184E10 ; 0.0
136 ; 1.2728509653845176E7 ; 2.035163776720443E8 ; 1.7343653286126602E9 ; 2.590650237657582E10 ; 0.0
137 ; 1.2711338753773391E7 ; 2.0353442022950196E8 ; 1.7470938382665052E9 ; 2.6110018754247864E10 ; 0.0
138 ; 1.2702724996010596E7 ; 2.0355244071764502E8 ; 1.7598051770202787E9 ; 2.6313553174477367E10 ; 0.0
139 ; 1.268993481479523E7 ; 2.0357043814028987E8 ; 1.7725079020162892E9 ; 2.651710561519501E10 ; 0.0
140 ; 1.2678215302683534E7 ; 2.0358841151681626E8 ; 1.7851978368310845E9 ; 2.67206760533353E10 ; 0.0
141 ; 1.2664099962532455E7 ; 2.0360635988177663E8 ; 1.797876052133768E9 ; 2.6924264464852116E10 ; 0.0
142 ; 1.2652157193876693E7 ; 2.0362428228451774E8 ; 1.8105401520963006E9 ; 2.712787082473389E10 ; 0.0
143 ; 1.2639730693254067E7 ; 2.0364217778881356E8 ; 1.8231923092901773E9 ; 2.733149510701841E10 ; 0.0
144 ; 1.2625224291914843E7 ; 2.0366004547250944E8 ; 1.8358320399834313E9 ; 2.7535137284807224E10 ; 0.0
145 ; 1.2619267244622221E7 ; 2.0367788442717716E8 ; 1.8484572642753463E9 ; 2.7738797330279736E10 ; 0.0
146 ; 1.2615459813673016E7 ; 2.0369569375778034E8 ; 1.8610765315199685E9 ; 2.7942475214706913E10 ; 0.0
147 ; 1.2601575856630227E7 ; 2.0371347258235016E8 ; 1.8736919913336415E9 ; 2.8146170908464695E10 ; 0.0
148 ; 1.2596033397448992E7 ; 2.0373122003167102E8 ; 1.8862935671902719E9 ; 2.8349884381047047E10 ; 0.0
149 ; 1.2591409617280638E7 ; 2.037489352489755E8 ; 1.8988896005877209E9 ; 2.8553615601078716E10 ; 0.0
150 ; 1.2578181456647858E7 ; 2.0376661738964877E8 ; 1.9114810102050016E9 ; 2.875736453632769E10 ; 0.0
151 ; 1.2570388174310878E7 ; 2.0378426562094212E8 ; 1.9240591916616495E9 ; 2.896113115371734E10 ; 0.0
152 ; 1.256660423664495E7 ; 2.038018791216947E8 ; 1.9366295798359604E9 ; 2.916491541933828E10 ; 0.0
153 ; 1.2553997307654183E7 ; 2.0381945708206433E8 ; 1.9491961840726054E9 ; 2.9368717298459976E10 ; 0.0
154 ; 1.2548328198668325E7 ; 2.0383699870326576E8 ; 1.9617501813802595E9 ; 2.957253675554204E10 ; 0.0
155 ; 1.2539571773901267E7 ; 2.038545031973175E8 ; 1.9742985095789278E9 ; 2.9776373754245308E10 ; 0.0
156 ; 1.2526404389428766E7 ; 2.038719697867959E8 ; 1.986838081352829E9 ; 2.9980228257442627E10 ; 0.0
157 ; 1.252127880473352E7 ; 2.0388939770459673E8 ; 1.9993644857422578E9 ; 3.0184100227229424E10 ; 0.0
158 ; 1.2510858062859703E7 ; 2.0390678619370392E8 ; 2.0118857645469913E9 ; 3.038798962493402E10 ; 0.0
159 ; 1.2506289446691316E7 ; 2.039241345069654E8 ; 2.0243966226098511E9 ; 3.0591896411127724E10 ; 0.0
160 ; 1.249638516419537E7 ; 2.0394144190687555E8 ; 2.0369029120565424E9 ; 3.079582054563469E10 ; 0.0
161 ; 1.2487590069385823E7 ; 2.0395870766536415E8 ; 2.0493992972207377E9 ; 3.0999761987541565E10 ; 0.0
162 ; 1.2478131596364785E7 ; 2.0397593106359172E8 ; 2.0618868872901235E9 ; 3.120372069520693E10 ; 0.0
163 ; 1.247388804104973E7 ; 2.0399311139175105E8 ; 2.0743650188864882E9 ; 3.140769662627052E10 ; 0.0
164 ; 1.2462191557338843E7 ; 2.0401024794887444E8 ; 2.086838906927538E9 ; 3.161168973766227E10 ; 0.0
165 ; 1.245139860083435E7 ; 2.040273400426469E8 ; 2.0993010984848769E9 ; 3.1815699985611145E10 ; 0.0
166 ; 1.2447692098437542E7 ; 2.0404438698922488E8 ; 2.1117524970857112E9 ; 3.2019727325653793E10 ; 0.0
167 ; 1.2433873690930298E7 ; 2.0406138811306024E8 ; 2.1242001891841488E9 ; 3.2223771712643017E10 ; 0.0
168 ; 1.2428587408272991E7 ; 2.040783427467296E8 ; 2.1366340628750792E9 ; 3.2427833100756077E10 ; 0.0
169 ; 1.2418764927046021E7 ; 2.040952502307688E8 ; 2.1490626502833524E9 ; 3.2631911443502808E10 ; 0.0
170 ; 1.2412582008870935E7 ; 2.0411210991351193E8 ; 2.161481415210398E9 ; 3.2836006693733578E10 ; 0.0
171 ; 1.2403421980228307E7 ; 2.0412892115093553E8 ; 2.1738939972192693E9 ; 3.304011880364709E10 ; 0.0
172 ; 1.2392611972460799E7 ; 2.0414568330650708E8 ; 2.1862974191994977E9 ; 3.3244247724798027E10 ; 0.0
173 ; 1.2383668577001657E7 ; 2.041623957510381E8 ; 2.1986900311719584E9 ; 3.3448393408104534E10 ; 0.0
174 ; 1.2377403867745636E7 ; 2.0417905786254156E8 ; 2.21107369974896E9 ; 3.365255580385557E10 ; 0.0
175 ; 1.237194771592449E7 ; 2.0419566902609336E8 ; 2.2234511036167054E9 ; 3.3856734861718113E10 ; 0.0
176 ; 1.2367018156177178E7 ; 2.04212228633698E8 ; 2.2358230513326297E9 ; 3.4060930530744205E10 ; 0.0
177 ; 1.2365942513128674E7 ; 2.0422873608415803E8 ; 2.2481900694888067E9 ; 3.4265142759377903E10 ; 0.0
178 ; 1.2356239384722507E7 ; 2.0424519078294754E8 ; 2.2605560120019355E9 ; 3.446937149546206E10 ; 0.0
179 ; 1.235623408584803E7 ; 2.0426159214208904E8 ; 2.272912251386658E9 ; 3.467361668624501E10 ; 0.0
180 ; 1.2346983983226273E7 ; 2.0427793958003417E8 ; 2.285268485472506E9 ; 3.48778782783871E10 ; 0.0
181 ; 1.2340782922161823E7 ; 2.0429423252154765E8 ; 2.2976154694557323E9 ; 3.508215621796713E10 ; 0.0
182 ; 1.2321290494354311E7 ; 2.043E8 ; 2.3099562523778944E9 ; 3.528645045048868E10 ; 0.0
183 ; 1.2295540218305431E7 ; 2.043E8 ; 2.3222775428722486E9 ; 3.549075045048868E10 ; 0.0
184 ; 1.227526449339028E7 ; 2.043E8 ; 2.334573083090554E9 ; 3.569505045048868E10 ; 0.0
185 ; 1.2250183039927045E7 ; 2.043E8 ; 2.3468483475839443E9 ; 3.589935045048868E10 ; 0.0
186 ; 1.2228708353820901E7 ; 2.043E8 ; 2.3590985306238713E9 ; 3.610365045048868E10 ; 0.0
187 ; 1.2205349874265112E7 ; 2.043E8 ; 2.371327238977692E9 ; 3.630795045048868E10 ; 0.0
188 ; 1.2181544649491921E7 ; 2.043E8 ; 2.3835325888519573E9 ; 3.651225045048868E10 ; 0.0
189 ; 1.2163157786877003E7 ; 2.043E8 ; 2.395714133501449E9 ; 3.671655045048868E10 ; 0.0
190 ; 1.2134786317801403E7 ; 2.043E8 ; 2.4078772912883263E9 ; 3.692085045048868E10 ; 0.0
191 ; 1.2115392959283E7 ; 2.043E8 ; 2.4200120776061277E9 ; 3.712515045048868E10 ; 0.0
192 ; 1.2087689259964926E7 ; 2.043E8 ; 2.4321274705654106E9 ; 3.732945045048868E10 ; 0.0
193 ; 1.2068231761838628E7 ; 2.043E8 ; 2.4442151598253756E9 ; 3.753375045048868E10 ; 0.0
194 ; 1.2044447806089973E7 ; 2.043E8 ; 2.456283391587214E9 ; 3.773805045048868E10 ; 0.0
195 ; 1.2025251502265884E7 ; 2.043E8 ; 2.468327839393304E9 ; 3.794235045048868E10 ; 0.0
196 ; 1.199712210406528E7 ; 2.043E8 ; 2.48035309089557E9 ; 3.814665045048868E10 ; 0.0
197 ; 1.1973412798881115E7 ; 2.043E8 ; 2.492350212999635E9 ; 3.835095045048868E10 ; 0.0
