CSV File for the City 4 on Day 57
1 - Minute m 
2 - Power Consumed at minute m 
3 - Power Produced at minute m 
4 - Energy Consumed since the beginning of the day 
5 - Energy Produced since the beginning of the day 
6 - Energy Lost since the beginning of the day on lines starting from the city
 
0 ; 6797834.390328552 ; 1.0589776552927944E8 ; 0.0 ; 0.0 ; 0.0
1 ; 6806018.936079463 ; 1.060479323152895E8 ; 6797834.390328552 ; 1.0589776552927944E8 ; 0.0
2 ; 6814310.143118168 ; 1.0650715742593786E8 ; 1.3603853326408014E7 ; 2.1194569784456894E8 ; 0.0
3 ; 6820746.589440806 ; 1.0727544758568102E8 ; 2.0418163469526183E7 ; 3.184528552705068E8 ; 0.0
4 ; 6834080.283327676 ; 1.0835280887302297E8 ; 2.7238910058966987E7 ; 4.257283028561878E8 ; 0.0
5 ; 6844337.811791095 ; 1.0973924666967112E8 ; 3.407299034229466E7 ; 5.340811117292108E8 ; 0.0
6 ; 6859715.105118769 ; 1.1143476561416629E8 ; 4.0917328154085755E7 ; 6.438203583988819E8 ; 0.0
7 ; 6882141.324075338 ; 1.1343936956088823E8 ; 4.777704325920452E7 ; 7.552551240130482E8 ; 0.0
8 ; 6914644.20595237 ; 1.1575306154526252E8 ; 5.465918458327986E7 ; 8.686944935739365E8 ; 0.0
9 ; 6967576.712037392 ; 1.1837584375589168E8 ; 6.157382878923223E7 ; 9.84447555119199E8 ; 0.0
10 ; 7042778.603878524 ; 1.2130771751420456E8 ; 6.854140550126962E7 ; 1.1028233988750906E9 ; 0.0
11 ; 7167506.2053561155 ; 1.2454868326206455E8 ; 7.558418410514815E7 ; 1.224131116389295E9 ; 0.0
12 ; 7367560.811706337 ; 1.2809874055760822E8 ; 8.275169031050427E7 ; 1.3486797996513596E9 ; 0.0
13 ; 7555233.304490106 ; 1.3195788807940674E8 ; 9.01192511222106E7 ; 1.4767785402089677E9 ; 0.0
14 ; 7580098.187295443 ; 1.3612612363885766E8 ; 9.767448442670071E7 ; 1.6087364282883744E9 ; 0.0
15 ; 7584669.9919637265 ; 1.406034442005353E8 ; 1.0525458261399615E8 ; 1.744862551927232E9 ; 0.0
16 ; 7595092.707732358 ; 1.4538984591006002E8 ; 1.1283925260595988E8 ; 1.8854659961277673E9 ; 0.0
17 ; 7602201.887670841 ; 1.504853241288909E8 ; 1.2043434531369224E8 ; 2.0308558420378273E9 ; 0.0
18 ; 7611096.908346523 ; 1.5588987347532058E8 ; 1.2803654720136309E8 ; 2.181341166166718E9 ; 0.0
19 ; 7621212.705150181 ; 1.6160348787084505E8 ; 1.3564764410970962E8 ; 2.3372310396420383E9 ; 0.0
20 ; 7630669.823398388 ; 1.676261605910078E8 ; 1.432688568148598E8 ; 2.498834527512883E9 ; 0.0
21 ; 7638274.2007221645 ; 1.7395788431977257E8 ; 1.508995266382582E8 ; 2.666460688103891E9 ; 0.0
22 ; 7647693.245728084 ; 1.8059865120646644E8 ; 1.5853780083898035E8 ; 2.8404185724236636E9 ; 0.0
23 ; 7654972.546114176 ; 1.8754845292434484E8 ; 1.6618549408470842E8 ; 3.02101722363013E9 ; 0.0
24 ; 7663941.907293726 ; 1.9480728072987086E8 ; 1.738404666308226E8 ; 3.208565676554475E9 ; 0.0
25 ; 7673364.776411225 ; 2.0106316642004293E8 ; 1.8150440853811634E8 ; 3.4033729572843456E9 ; 0.0
26 ; 7680901.398747138 ; 2.0106964842752543E8 ; 1.8917777331452757E8 ; 3.6044361237043886E9 ; 0.0
27 ; 7691805.979494989 ; 2.0107648640219274E8 ; 1.9685867471327472E8 ; 3.805505772131914E9 ; 0.0
28 ; 7702646.618934642 ; 2.010836705123604E8 ; 2.045504806927697E8 ; 4.0065822585341067E9 ; 0.0
29 ; 7707094.646518352 ; 2.0109119078981805E8 ; 2.1225312731170434E8 ; 4.2076659290464673E9 ; 0.0
30 ; 7714722.922355989 ; 2.0109903717855868E8 ; 2.199602219582227E8 ; 4.408757119836286E9 ; 0.0
31 ; 7722341.917417126 ; 2.011071995801585E8 ; 2.2767494488057867E8 ; 4.609856157014844E9 ; 0.0
32 ; 7731680.0498616 ; 2.0111566789560804E8 ; 2.353972867979958E8 ; 4.810963356595002E9 ; 0.0
33 ; 7736822.144514375 ; 2.0112443206347924E8 ; 2.4312896684785742E8 ; 5.01207902449061E9 ; 0.0
34 ; 7747243.903758691 ; 2.011334820943877E8 ; 2.508657889923718E8 ; 5.21320345655409E9 ; 0.0
35 ; 7752753.33252231 ; 2.0114280810177428E8 ; 2.586130328961305E8 ; 5.414336938648478E9 ; 0.0
36 ; 7758697.558642147 ; 2.0115240032908627E8 ; 2.663657862286528E8 ; 5.615479746750252E9 ; 0.0
37 ; 7768302.038248441 ; 2.0116224917348188E8 ; 2.741244837872949E8 ; 5.816632147079338E9 ; 0.0
38 ; 7772233.107202631 ; 2.0117234520621902E8 ; 2.8189278582554334E8 ; 6.01779439625282E9 ; 0.0
39 ; 7778572.065797187 ; 2.011826791899152E8 ; 2.89665018932746E8 ; 6.218966741459039E9 ; 0.0
40 ; 7785519.130540726 ; 2.0119324209288514E8 ; 2.974435909985432E8 ; 6.420149420648954E9 ; 0.0
41 ; 7791895.502400227 ; 2.0120402510077378E8 ; 3.0522911012908393E8 ; 6.621342662741839E9 ; 0.0
42 ; 7796156.12321071 ; 2.0121501962570918E8 ; 3.1302100563148415E8 ; 6.822546687842613E9 ; 0.0
43 ; 7799805.706063594 ; 2.0122621731320024E8 ; 3.208171617546949E8 ; 7.023761707468323E9 ; 0.0
44 ; 7805248.968153349 ; 2.0123761004700032E8 ; 3.2861696746075845E8 ; 7.224987924781523E9 ; 0.0
45 ; 7807744.986583502 ; 2.0124918995215243E8 ; 3.364222164289118E8 ; 7.426225534828523E9 ; 0.0
46 ; 7812686.116958469 ; 2.0126094939642113E8 ; 3.4422996141549534E8 ; 7.627474724780675E9 ; 0.0
47 ; 7814057.135806862 ; 2.0127288099030623E8 ; 3.520426475324538E8 ; 7.828735674177096E9 ; 0.0
48 ; 7821042.855093555 ; 2.012849775858203E8 ; 3.5985670466826063E8 ; 8.030008555167402E9 ; 0.0
49 ; 7822938.495930209 ; 2.0129723227419958E8 ; 3.676777475233542E8 ; 8.231293532753222E9 ; 0.0
50 ; 7824675.520189025 ; 2.0130963838270363E8 ; 3.7550068601928437E8 ; 8.432590765027422E9 ; 0.0
51 ; 7827294.962944438 ; 2.0132218947064635E8 ; 3.833253615394734E8 ; 8.633900403410126E9 ; 0.0
52 ; 7829298.5302323755 ; 2.0133487932478693E8 ; 3.9115265650241786E8 ; 8.835222592880772E9 ; 0.0
53 ; 7831075.952752217 ; 2.013477019541972E8 ; 3.9898195503265023E8 ; 9.036557472205559E9 ; 0.0
54 ; 7833923.388995534 ; 2.0136065158470914E8 ; 4.0681303098540246E8 ; 9.237905174159756E9 ; 0.0
55 ; 7835986.318977202 ; 2.013737226530349E8 ; 4.14646954374398E8 ; 9.439265825744465E9 ; 0.0
56 ; 7833910.7160614235 ; 2.013869098006406E8 ; 4.224829406933752E8 ; 9.6406395483975E9 ; 0.0
57 ; 7837696.371169983 ; 2.0140020786744636E8 ; 4.303168514094366E8 ; 9.84202645819814E9 ; 0.0
58 ; 7840060.298561554 ; 2.0141361188541368E8 ; 4.3815454778060657E8 ; 1.0043426666065586E10 ; 0.0
59 ; 7843542.98381636 ; 2.0142711707207534E8 ; 4.4599460807916814E8 ; 1.0244840277951E10 ; 0.0
60 ; 7841589.487681849 ; 2.0144071882405376E8 ; 4.538381510629845E8 ; 1.0446267395023075E10 ; 0.0
61 ; 7844549.853144066 ; 2.0145441271060732E8 ; 4.616797405506664E8 ; 1.064770811384713E10 ; 0.0
62 ; 7844788.6894007735 ; 2.0146819446723846E8 ; 4.6952429040381044E8 ; 1.0849162526557737E10 ; 0.0
63 ; 7848931.236980571 ; 2.0148205998939115E8 ; 4.7736907909321123E8 ; 1.1050630721024977E10 ; 0.0
64 ; 7847310.497632185 ; 2.0149600532626143E8 ; 4.852180103301918E8 ; 1.1252112781014368E10 ; 0.0
65 ; 7849488.230609982 ; 2.0151002667473924E8 ; 4.93065320827824E8 ; 1.145360878634063E10 ; 0.0
66 ; 7848914.670991961 ; 2.0152412037349728E8 ; 5.0091480905843395E8 ; 1.165511881301537E10 ; 0.0
67 ; 7850435.5109198075 ; 2.015382828972381E8 ; 5.087637237294259E8 ; 1.1856642933388866E10 ; 0.0
68 ; 7851329.474783181 ; 2.0155251085110912E8 ; 5.166141592403457E8 ; 1.2058181216286104E10 ; 0.0
69 ; 7854951.649227498 ; 2.0156680096529126E8 ; 5.244654887151289E8 ; 1.2259733727137213E10 ; 0.0
70 ; 7852598.767169489 ; 2.0158115008976617E8 ; 5.323204403643564E8 ; 1.2461300528102505E10 ; 0.0
71 ; 7853516.868050209 ; 2.0159555518926427E8 ; 5.401730391315259E8 ; 1.266288167819227E10 ; 0.0
72 ; 7852471.082386473 ; 2.0161001333839458E8 ; 5.480265559995761E8 ; 1.2864477233381535E10 ; 0.0
73 ; 7857695.8008236205 ; 2.0162452171695623E8 ; 5.558790270819626E8 ; 1.3066087246719929E10 ; 0.0
74 ; 7857712.225307658 ; 2.0163907760542983E8 ; 5.637367228827862E8 ; 1.3267711768436886E10 ; 0.0
75 ; 7858747.053257329 ; 2.016536783806469E8 ; 5.715944351080939E8 ; 1.3469350846042316E10 ; 0.0
76 ; 7859357.970557055 ; 2.0166832151163384E8 ; 5.794531821613512E8 ; 1.3671004524422964E10 ; 0.0
77 ; 7857900.6441032635 ; 2.0168300455562663E8 ; 5.873125401319083E8 ; 1.3872672845934597E10 ; 0.0
78 ; 7855946.670014702 ; 2.0169772515425283E8 ; 5.951704407760116E8 ; 1.4074355850490223E10 ; 0.0
79 ; 7850694.639566541 ; 2.0171248102987552E8 ; 6.030263874460263E8 ; 1.4276053575644476E10 ; 0.0
80 ; 7850237.330049936 ; 2.017272699820947E8 ; 6.108770820855929E8 ; 1.447776605667435E10 ; 0.0
81 ; 7847682.272363093 ; 2.0174208988440132E8 ; 6.187273194156429E8 ; 1.4679493326656445E10 ; 0.0
82 ; 7847882.338187305 ; 2.0175693868097836E8 ; 6.265750016880059E8 ; 1.4881235416540846E10 ; 0.0
83 ; 7843257.980679887 ; 2.01771814383644E8 ; 6.344228840261933E8 ; 1.5082992355221825E10 ; 0.0
84 ; 7840078.983280808 ; 2.0178671506893164E8 ; 6.422661420068731E8 ; 1.5284764169605469E10 ; 0.0
85 ; 7840451.787284666 ; 2.0180163887530124E8 ; 6.501062209901539E8 ; 1.54865508846744E10 ; 0.0
86 ; 7835526.248988862 ; 2.01816584000477E8 ; 6.579466727774385E8 ; 1.5688352523549702E10 ; 0.0
87 ; 7830958.415909211 ; 2.0183154869890633E8 ; 6.657821990264274E8 ; 1.5890169107550179E10 ; 0.0
88 ; 7831655.242816122 ; 2.0184653127933457E8 ; 6.736131574423366E8 ; 1.6092000656249084E10 ; 0.0
89 ; 7827261.248436487 ; 2.0186153010249126E8 ; 6.814448126851526E8 ; 1.629384718752842E10 ; 0.0
90 ; 7823651.127239399 ; 2.0187654357888225E8 ; 6.892720739335891E8 ; 1.649570871763091E10 ; 0.0
91 ; 7820718.796649631 ; 2.018915701666839E8 ; 6.970957250608284E8 ; 1.6697585261209793E10 ; 0.0
92 ; 7816772.488079286 ; 2.0190660836973423E8 ; 7.04916443857478E8 ; 1.6899476831376476E10 ; 0.0
93 ; 7815712.123343997 ; 2.019216567356166E8 ; 7.127332163455573E8 ; 1.710138343974621E10 ; 0.0
94 ; 7812192.202436006 ; 2.0193671385383213E8 ; 7.205489284689013E8 ; 1.7303305096481827E10 ; 0.0
95 ; 7806817.442136431 ; 2.0195177835405666E8 ; 7.283611206713372E8 ; 1.750524181033566E10 ; 0.0
96 ; 7806515.474867773 ; 2.019668489044778E8 ; 7.361679381134737E8 ; 1.7707193588689716E10 ; 0.0
97 ; 7802005.890501528 ; 2.019819242102091E8 ; 7.439744535883415E8 ; 1.7909160437594193E10 ; 0.0
98 ; 7796985.447227775 ; 2.019970030117772E8 ; 7.51776459478843E8 ; 1.81111423618044E10 ; 0.0
99 ; 7793506.058436828 ; 2.0201208408367875E8 ; 7.595734449260707E8 ; 1.8313139364816177E10 ; 0.0
100 ; 7790622.821940507 ; 2.0202716623300362E8 ; 7.673669509845076E8 ; 1.8515151448899857E10 ; 0.0
101 ; 7787588.249420452 ; 2.0204224829812142E8 ; 7.751575738064481E8 ; 1.871717861513286E10 ; 0.0
102 ; 7781303.662546083 ; 2.020573291474282E8 ; 7.829451620558685E8 ; 1.891922086343098E10 ; 0.0
103 ; 7780696.118530684 ; 2.0207240767815048E8 ; 7.907264657184145E8 ; 1.9121278192578407E10 ; 0.0
104 ; 7776810.698901987 ; 2.0208748281520376E8 ; 7.985071618369452E8 ; 1.9323350600256557E10 ; 0.0
105 ; 7770160.795513124 ; 2.0210255351010326E8 ; 8.062839725358472E8 ; 1.9525438083071762E10 ; 0.0
106 ; 7764703.050523054 ; 2.0211761873992378E8 ; 8.140541333313603E8 ; 1.9727540636581867E10 ; 0.0
107 ; 7760685.324772731 ; 2.0213267750630683E8 ; 8.218188363818834E8 ; 1.9929658255321793E10 ; 0.0
108 ; 7757468.761952878 ; 2.0214772883451262E8 ; 8.295795217066561E8 ; 2.01317909328281E10 ; 0.0
109 ; 7753654.921982299 ; 2.021627717725146E8 ; 8.37336990468609E8 ; 2.033393866166261E10 ; 0.0
110 ; 7748027.813889114 ; 2.0217780539013466E8 ; 8.450906453905913E8 ; 2.0536101433435123E10 ; 0.0
111 ; 7746254.424569177 ; 2.0219282877821693E8 ; 8.528386732044804E8 ; 2.0738279238825256E10 ; 0.0
112 ; 7742238.756890333 ; 2.0220784104783857E8 ; 8.605849276290495E8 ; 2.0940472067603474E10 ; 0.0
113 ; 7736450.619926697 ; 2.022228413295554E8 ; 8.683271663859398E8 ; 2.1142679908651314E10 ; 0.0
114 ; 7733660.36027903 ; 2.0223782877268106E8 ; 8.760636170058665E8 ; 2.134490274998087E10 ; 0.0
115 ; 7725849.437649485 ; 2.0225280254459772E8 ; 8.837972773661456E8 ; 2.154714057875355E10 ; 0.0
116 ; 7721454.5345215965 ; 2.022677618300974E8 ; 8.915231268037951E8 ; 2.174939338129815E10 ; 0.0
117 ; 7714201.929166631 ; 2.0228270583075172E8 ; 8.992445813383167E8 ; 2.1951661143128246E10 ; 0.0
118 ; 7711336.512717474 ; 2.0229763376430947E8 ; 9.069587832674834E8 ; 2.2153943848959E10 ; 0.0
119 ; 7705183.213245447 ; 2.0231254486411998E8 ; 9.146701197802008E8 ; 2.235624148272331E10 ; 0.0
120 ; 7699173.48188752 ; 2.023274383785818E8 ; 9.223753029934462E8 ; 2.255855402758743E10 ; 0.0
121 ; 7694341.910476494 ; 2.0234231357061473E8 ; 9.300744764753338E8 ; 2.276088146596601E10 ; 0.0
122 ; 7686748.113709192 ; 2.0235716971715477E8 ; 9.377688183858103E8 ; 2.2963223779536625E10 ; 0.0
123 ; 7686285.717081521 ; 2.0237200610867053E8 ; 9.454555664995195E8 ; 2.316558094925378E10 ; 0.0
124 ; 7680721.256851157 ; 2.0238682204870024E8 ; 9.53141852216601E8 ; 2.336795295536245E10 ; 0.0
125 ; 7674821.355625008 ; 2.0240161685340834E8 ; 9.608225734734522E8 ; 2.3570339777411148E10 ; 0.0
126 ; 7664651.023931783 ; 2.024163898511607E8 ; 9.684973948290772E8 ; 2.3772741394264557E10 ; 0.0
127 ; 7661217.270466089 ; 2.0243114038211793E8 ; 9.76162045853009E8 ; 2.397515778411572E10 ; 0.0
128 ; 7655464.437828537 ; 2.0244586779784536E8 ; 9.838232631234751E8 ; 2.4177588924497837E10 ; 0.0
129 ; 7650076.048861887 ; 2.0246057146093956E8 ; 9.914787275613036E8 ; 2.438003479229568E10 ; 0.0
130 ; 7643316.352994613 ; 2.0247525074467018E8 ; 9.991288036101655E8 ; 2.4582495363756622E10 ; 0.0
131 ; 7636211.953741086 ; 2.024899050326366E8 ; 1.00677211996316E9 ; 2.4784970614501293E10 ; 0.0
132 ; 7628485.219035332 ; 2.0250453371843877E8 ; 1.0144083319169011E9 ; 2.4987460519533928E10 ; 0.0
133 ; 7617968.798380796 ; 2.025191362053615E8 ; 1.0220368171359365E9 ; 2.5189965053252365E10 ; 0.0
134 ; 7608648.372291889 ; 2.025337119060714E8 ; 1.0296547859343174E9 ; 2.5392484189457726E10 ; 0.0
135 ; 7602896.08442637 ; 2.0254826024232662E8 ; 1.0372634343066093E9 ; 2.5595017901363796E10 ; 0.0
136 ; 7591527.783202647 ; 2.0256278064469784E8 ; 1.0448663303910357E9 ; 2.579756616160612E10 ; 0.0
137 ; 7584518.178086685 ; 2.0257727255230078E8 ; 1.0524578581742383E9 ; 2.600012894225082E10 ; 0.0
138 ; 7572485.481418684 ; 2.0259173541253915E8 ; 1.060042376352325E9 ; 2.620270621480312E10 ; 0.0
139 ; 7565574.424934479 ; 2.026061686808583E8 ; 1.0676148618337437E9 ; 2.640529795021566E10 ; 0.0
140 ; 7556815.818864566 ; 2.0262057182050818E8 ; 1.0751804362586782E9 ; 2.660790411889652E10 ; 0.0
141 ; 7546284.185362716 ; 2.0263494430231604E8 ; 1.0827372520775428E9 ; 2.6810524690717026E10 ; 0.0
142 ; 7537354.176051106 ; 2.0264928560446784E8 ; 1.0902835362629056E9 ; 2.701315963501934E10 ; 0.0
143 ; 7528849.1819815375 ; 2.026635952122985E8 ; 1.0978208904389567E9 ; 2.721580892062381E10 ; 0.0
144 ; 7520048.904990686 ; 2.0267787261809012E8 ; 1.1053497396209383E9 ; 2.741847251583611E10 ; 0.0
145 ; 7514140.386085765 ; 2.0269211732087806E8 ; 1.112869788525929E9 ; 2.76211503884542E10 ; 0.0
146 ; 7508514.115844864 ; 2.0270632882626477E8 ; 1.1203839289120147E9 ; 2.7823842505775078E10 ; 0.0
147 ; 7498129.062433416 ; 2.027205066462406E8 ; 1.1278924430278597E9 ; 2.802654883460134E10 ; 0.0
148 ; 7493186.6508360235 ; 2.0273465029901144E8 ; 1.1353905720902932E9 ; 2.822926934124758E10 ; 0.0
149 ; 7486686.881520177 ; 2.027487593088333E8 ; 1.1428837587411292E9 ; 2.8432003991546593E10 ; 0.0
150 ; 7479734.534940933 ; 2.0276283320585284E8 ; 1.1503704456226494E9 ; 2.8634752750855427E10 ; 0.0
151 ; 7473515.415325451 ; 2.0277687152595404E8 ; 1.1578501801575904E9 ; 2.883751558406128E10 ; 0.0
152 ; 7465535.543806566 ; 2.027908738106109E8 ; 1.1653236955729158E9 ; 2.9040292455587234E10 ; 0.0
153 ; 7461042.186895171 ; 2.0280483960674545E8 ; 1.1727892311167223E9 ; 2.9243083329397846E10 ; 0.0
154 ; 7453903.707514596 ; 2.0281876846659112E8 ; 1.1802502733036175E9 ; 2.9445888169004593E10 ; 0.0
155 ; 7448285.5738039315 ; 2.028326599475614E8 ; 1.187704177011132E9 ; 2.9648706937471184E10 ; 0.0
156 ; 7440608.464599876 ; 2.028465136121232E8 ; 1.195152462584936E9 ; 2.9851539597418747E10 ; 0.0
157 ; 7433824.625984927 ; 2.0286032902767485E8 ; 1.2025930710495358E9 ; 3.005438611103087E10 ; 0.0
158 ; 7427259.4774761945 ; 2.0287410576642913E8 ; 1.2100268956755207E9 ; 3.0257246440058544E10 ; 0.0
159 ; 7418170.019310398 ; 2.0288784340529975E8 ; 1.2174541551529968E9 ; 3.0460120545824974E10 ; 0.0
160 ; 7412772.039033841 ; 2.0290154152579293E8 ; 1.2248723251723073E9 ; 3.0663008389230274E10 ; 0.0
161 ; 7405850.297031418 ; 2.0291519971390215E8 ; 1.2322850972113411E9 ; 3.0865909930756065E10 ; 0.0
162 ; 7398731.835331826 ; 2.0292881756000736E8 ; 1.2396909475083725E9 ; 3.1068825130469967E10 ; 0.0
163 ; 7391617.990878487 ; 2.0294239465877742E8 ; 1.2470896793437045E9 ; 3.1271753948029976E10 ; 0.0
164 ; 7384733.208808586 ; 2.0295593060907623E8 ; 1.254481297334583E9 ; 3.1474696342688755E10 ; 0.0
165 ; 7378076.577009246 ; 2.0296942501387247E8 ; 1.2618660305433917E9 ; 3.1677652273297832E10 ; 0.0
166 ; 7370813.114759196 ; 2.0298287748015207E8 ; 1.269244107120401E9 ; 3.1880621698311707E10 ; 0.0
167 ; 7364165.038300697 ; 2.0299628761883438E8 ; 1.27661492023516E9 ; 3.208360457579186E10 ; 0.0
168 ; 7357973.797402085 ; 2.03009655044691E8 ; 1.2839790852734609E9 ; 3.2286600863410694E10 ; 0.0
169 ; 7348976.227893266 ; 2.0302297937626746E8 ; 1.291337059070863E9 ; 3.2489610518455383E10 ; 0.0
170 ; 7345401.992879403 ; 2.030362602358081E8 ; 1.2986860352987564E9 ; 3.269263349783165E10 ; 0.0
171 ; 7333102.483135349 ; 2.03049497249183E8 ; 1.3060314372916358E9 ; 3.289566975806746E10 ; 0.0
172 ; 7328277.35124744 ; 2.0306269004581806E8 ; 1.3133645397747712E9 ; 3.3098719255316643E10 ; 0.0
173 ; 7321233.753997999 ; 2.0307583825862712E8 ; 1.3206928171260188E9 ; 3.330178194536246E10 ; 0.0
174 ; 7315400.450757892 ; 2.030889415239467E8 ; 1.3280140508800168E9 ; 3.350485778362109E10 ; 0.0
175 ; 7312705.336927314 ; 2.0310199948147306E8 ; 1.3353294513307748E9 ; 3.3707946725145035E10 ; 0.0
176 ; 7308814.976382057 ; 2.0311501177420115E8 ; 1.3426421566677022E9 ; 3.3911048724626507E10 ; 0.0
177 ; 7303789.301920235 ; 2.031279780483661E8 ; 1.3499509716440842E9 ; 3.4114163736400707E10 ; 0.0
178 ; 7296732.270577704 ; 2.0314089795338634E8 ; 1.3572547609460044E9 ; 3.4317291714449074E10 ; 0.0
179 ; 7291403.456243666 ; 2.0315377114180905E8 ; 1.364551493216582E9 ; 3.452043261240246E10 ; 0.0
180 ; 7290705.475526666 ; 2.0316659726925725E8 ; 1.3718428966728258E9 ; 3.4723586383544266E10 ; 0.0
181 ; 7286293.463400236 ; 2.0317937599437875E8 ; 1.3791336021483524E9 ; 3.492675298081352E10 ; 0.0
182 ; 7280769.11150313 ; 2.0319210697879702E8 ; 1.3864198956117525E9 ; 3.51299323568079E10 ; 0.0
183 ; 7275252.691447712 ; 2.032047898870635E8 ; 1.3937006647232556E9 ; 3.53331244637867E10 ; 0.0
184 ; 7273854.088479757 ; 2.0321742438661173E8 ; 1.4009759174147034E9 ; 3.553632925367376E10 ; 0.0
185 ; 7265260.172351984 ; 2.0323001014771292E8 ; 1.4082497715031831E9 ; 3.573954667806037E10 ; 0.0
186 ; 7262651.1148773115 ; 2.0324254684343317E8 ; 1.4155150316755352E9 ; 3.5942776688208084E10 ; 0.0
187 ; 7258500.85217295 ; 2.0325503414959198E8 ; 1.4227776827904124E9 ; 3.614601923505151E10 ; 0.0
188 ; 7255347.00660588 ; 2.0326747174472234E8 ; 1.4300361836425853E9 ; 3.63492742692011E10 ; 0.0
189 ; 7249693.948252404 ; 2.0327985931003198E8 ; 1.4372915306491911E9 ; 3.655254174094582E10 ; 0.0
190 ; 7248621.112831261 ; 2.032921965293662E8 ; 1.4445412245974436E9 ; 3.675582160025586E10 ; 0.0
191 ; 7238651.362476431 ; 2.0330448308917153E8 ; 1.451789845710275E9 ; 3.6959113796785225E10 ; 0.0
192 ; 7237711.192196075 ; 2.033167186784612E8 ; 1.4590284970727513E9 ; 3.71624182798744E10 ; 0.0
193 ; 7232461.630583535 ; 2.0332890298878112E8 ; 1.4662662082649474E9 ; 3.736573499855286E10 ; 0.0
194 ; 7228578.556668002 ; 2.0334103571417758E8 ; 1.473498669895531E9 ; 3.756906390154164E10 ; 0.0
195 ; 7222497.558756666 ; 2.033531165511656E8 ; 1.480727248452199E9 ; 3.777240493725582E10 ; 0.0
196 ; 7220070.632201439 ; 2.033651451986986E8 ; 1.4879497460109556E9 ; 3.7975758053806984E10 ; 0.0
197 ; 7213047.536636084 ; 2.0337712135813907E8 ; 1.495169816643157E9 ; 3.8179123199005684E10 ; 0.0
198 ; 7210796.299624242 ; 2.0338904473322994E8 ; 1.5023828641797931E9 ; 3.838250032036382E10 ; 0.0
199 ; 7202333.652180928 ; 2.0340091503006732E8 ; 1.5095936604794173E9 ; 3.858588936509705E10 ; 0.0
200 ; 7200944.253488845 ; 1.9966269873827124E8 ; 1.5167959941315982E9 ; 3.878929028012712E10 ; 0.0
201 ; 7193740.3870131355 ; 1.5458450200611717E8 ; 1.523996938385087E9 ; 3.8988952978865395E10 ; 0.0
