CSV File for the City 1 on Day 55
1 - Minute m 
2 - Power Consumed at minute m 
3 - Power Produced at minute m 
4 - Energy Consumed since the beginning of the day 
5 - Energy Produced since the beginning of the day 
6 - Energy Lost since the beginning of the day on lines starting from the city
 
0 ; 1.5988031952670217E7 ; 1.0541942777264807E8 ; 0.0 ; 0.0 ; 0.0
1 ; 1.5999276196848508E7 ; 1.0557221279969072E8 ; 1.5988031952670217E7 ; 1.0541942777264807E8 ; 0.0
2 ; 1.6019250229969783E7 ; 1.0603379332846817E8 ; 3.1987308149518725E7 ; 2.109916405723388E8 ; 0.0
3 ; 1.604048510135683E7 ; 1.068041719724201E8 ; 4.8006558379488505E7 ; 3.1702543390080696E8 ; 0.0
4 ; 1.6061034730280656E7 ; 1.0788335109713727E8 ; 6.404704348084533E7 ; 4.2382960587322706E8 ; 0.0
5 ; 1.6093596817598503E7 ; 1.0927133279956466E8 ; 8.010807821112598E7 ; 5.3171295697036433E8 ; 0.0
6 ; 1.6128460616400015E7 ; 1.1096811888897887E8 ; 9.620167502872449E7 ; 6.409842897699289E8 ; 0.0
7 ; 1.6179667987118369E7 ; 1.1297371087012899E8 ; 1.1233013564512451E8 ; 7.519524086589078E8 ; 0.0
8 ; 1.6262724668688977E7 ; 1.152881099288969E8 ; 1.2850980363224287E8 ; 8.649261195290368E8 ; 0.0
9 ; 1.6376738248313406E7 ; 1.1791131692079306E8 ; 1.4477252830093184E8 ; 9.802142294579337E8 ; 0.0
10 ; 1.6556903643659385E7 ; 1.20843332362544E8 ; 1.6114926654924524E8 ; 1.0981255463787267E9 ; 0.0
11 ; 1.6846775717080954E7 ; 1.2408415642696592E8 ; 1.7770617019290462E8 ; 1.2189688787412708E9 ; 0.0
12 ; 1.7308541015273105E7 ; 1.276337889412426E8 ; 1.9455294590998557E8 ; 1.3430530351682367E9 ; 0.0
13 ; 1.7754601074793432E7 ; 1.314922293886475E8 ; 2.1186148692525867E8 ; 1.4706868241094794E9 ; 0.0
14 ; 1.7807733360533662E7 ; 1.3565947691367024E8 ; 2.296160880000521E8 ; 1.602179053498127E9 ; 0.0
15 ; 1.783023741949018E7 ; 1.4013553033042884E8 ; 2.4742382136058575E8 ; 1.7378385304117973E9 ; 0.0
16 ; 1.784740803855154E7 ; 1.4492038813417432E8 ; 2.6525405878007594E8 ; 1.8779740607422261E9 ; 0.0
17 ; 1.7867971033089206E7 ; 1.5001404851562998E8 ; 2.831014668186275E8 ; 2.0228944488764005E9 ; 0.0
18 ; 1.788564889293936E7 ; 1.554165093778509E8 ; 3.009694378517167E8 ; 2.1729084973920302E9 ; 0.0
19 ; 1.7911581552411523E7 ; 1.6112776835524628E8 ; 3.188550867446561E8 ; 2.3283250067698812E9 ; 0.0
20 ; 1.7929249473662E7 ; 1.6714782283437642E8 ; 3.367666682970676E8 ; 2.4894527751251273E9 ; 0.0
21 ; 1.795268876938625E7 ; 1.7347666997612014E8 ; 3.546959177707296E8 ; 2.6566005979595037E9 ; 0.0
22 ; 1.797525846583098E7 ; 1.8011430673880386E8 ; 3.7264860654011583E8 ; 2.8300772679356236E9 ; 0.0
23 ; 1.799412340714409E7 ; 1.8706072990189344E8 ; 3.906238650059468E8 ; 3.0101915746744275E9 ; 0.0
24 ; 1.8011963335307304E7 ; 1.9431593608986795E8 ; 4.086179884130909E8 ; 3.197252304576321E9 ; 0.0
25 ; 1.8031696448180534E7 ; 2.0056796269410777E8 ; 4.266299517483982E8 ; 3.391568240666189E9 ; 0.0
26 ; 1.805516635151137E7 ; 2.0057035393300873E8 ; 4.4466164819657874E8 ; 3.592136203360297E9 ; 0.0
27 ; 1.8073578654228102E7 ; 2.0057287539934206E8 ; 4.627168145480901E8 ; 3.792706557293306E9 ; 0.0
28 ; 1.8093857599768866E7 ; 2.0057552332848838E8 ; 4.807903932023182E8 ; 3.993279432692648E9 ; 0.0
29 ; 1.8112765390696418E7 ; 2.0057829391196057E8 ; 4.9888425080208707E8 ; 4.1938549560211363E9 ; 0.0
30 ; 1.813229697866936E7 ; 2.0058118331635228E8 ; 5.169970161927835E8 ; 4.394433249933097E9 ; 0.0
31 ; 1.8151064499166943E7 ; 2.0058418770085266E8 ; 5.351293131714528E8 ; 4.595014433249449E9 ; 0.0
32 ; 1.8170938162609205E7 ; 2.0058730323326266E8 ; 5.532803776706197E8 ; 4.795598620950301E9 ; 0.0
33 ; 1.818827842487296E7 ; 2.0059052610448074E8 ; 5.71451315833229E8 ; 4.996185924183564E9 ; 0.0
34 ; 1.820938194447842E7 ; 2.005938525414585E8 ; 5.896395942581019E8 ; 5.196776450288045E9 ; 0.0
35 ; 1.8219297933199998E7 ; 2.005972788186507E8 ; 6.078489762025803E8 ; 5.397370302829503E9 ; 0.0
36 ; 1.82392400569934E7 ; 2.0060080126800668E8 ; 6.260682741357803E8 ; 5.597967581648153E9 ; 0.0
37 ; 1.8260017427575514E7 ; 2.0060441628756687E8 ; 6.443075141927737E8 ; 5.79856838291616E9 ; 0.0
38 ; 1.8268218173131593E7 ; 2.0060812034874055E8 ; 6.625675316203492E8 ; 5.999172799203727E9 ; 0.0
39 ; 1.8284366976626545E7 ; 2.006119100023516E8 ; 6.808357497934808E8 ; 6.199780919552467E9 ; 0.0
40 ; 1.8300698466844298E7 ; 2.006157818835433E8 ; 6.991201167701073E8 ; 6.400392829554819E9 ; 0.0
41 ; 1.831261805404568E7 ; 2.0061973271563777E8 ; 7.174208152369516E8 ; 6.601008611438362E9 ; 0.0
42 ; 1.8325558202807788E7 ; 2.0062375931304565E8 ; 7.357334332909973E8 ; 6.801628344154E9 ; 0.0
43 ; 1.8336741603248622E7 ; 2.0062785858332092E8 ; 7.54058991493805E8 ; 7.002252103467046E9 ; 0.0
44 ; 1.8347306531585265E7 ; 2.0063202752845255E8 ; 7.723957330970536E8 ; 7.202879962050366E9 ; 0.0
45 ; 1.835347683795595E7 ; 2.0063626324548128E8 ; 7.907430396286389E8 ; 7.403511989578819E9 ; 0.0
46 ; 1.8362469850690577E7 ; 2.0064056292652467E8 ; 8.090965164665948E8 ; 7.604148252824301E9 ; 0.0
47 ; 1.83728557350745E7 ; 2.006449238582883E8 ; 8.274589863172854E8 ; 7.804788815750826E9 ; 0.0
48 ; 1.838434787703972E7 ; 2.006493434211352E8 ; 8.458318420523599E8 ; 8.005433739609114E9 ; 0.0
49 ; 1.83868581732573E7 ; 2.0065381908778024E8 ; 8.642161899293996E8 ; 8.206083083030249E9 ; 0.0
50 ; 1.839396427444013E7 ; 2.006583484216689E8 ; 8.82603048102657E8 ; 8.406736902118029E9 ; 0.0
51 ; 1.839983263743957E7 ; 2.0066292907509595E8 ; 9.009970123770971E8 ; 8.607395250539698E9 ; 0.0
52 ; 1.8401753367945805E7 ; 2.0066755878711224E8 ; 9.193968450145367E8 ; 8.808058179614794E9 ; 0.0
53 ; 1.8413771693240725E7 ; 2.0067223538126346E8 ; 9.377985983824825E8 ; 9.008725738401905E9 ; 0.0
54 ; 1.8409202406128578E7 ; 2.0067695676319963E8 ; 9.562123700757233E8 ; 9.209397973783169E9 ; 0.0
55 ; 1.8415457945759915E7 ; 2.00681720918189E8 ; 9.746215724818518E8 ; 9.410074930546368E9 ; 0.0
56 ; 1.8420482616658714E7 ; 2.0068652590856588E8 ; 9.930370304276117E8 ; 9.610756651464556E9 ; 0.0
57 ; 1.842259409095221E7 ; 2.0069136987113857E8 ; 1.0114575130442704E9 ; 9.811443177373121E9 ; 0.0
58 ; 1.8425653076229144E7 ; 2.006962510145789E8 ; 1.0298801071352226E9 ; 1.0012134547244259E10 ; 0.0
59 ; 1.8439306252588008E7 ; 2.0070116761681274E8 ; 1.0483057602114516E9 ; 1.0212830798258839E10 ; 0.0
60 ; 1.843620725462363E7 ; 2.007061180224271E8 ; 1.0667450664640397E9 ; 1.0413531965875652E10 ; 0.0
61 ; 1.8437707942773115E7 ; 2.007111006401075E8 ; 1.0851812737186632E9 ; 1.0614238083898079E10 ; 0.0
62 ; 1.844536658491317E7 ; 2.007161139401165E8 ; 1.1036189816614363E9 ; 1.0814949184538187E10 ; 0.0
63 ; 1.8448761979401916E7 ; 2.007211564518225E8 ; 1.1220643482463496E9 ; 1.1015665298478304E10 ; 0.0
64 ; 1.8446798694234215E7 ; 2.007262267612863E8 ; 1.1405131102257514E9 ; 1.1216386454930126E10 ; 0.0
65 ; 1.8451878662347175E7 ; 2.0073132350891086E8 ; 1.1589599089199855E9 ; 1.1417112681691412E10 ; 0.0
66 ; 1.8450904405897398E7 ; 2.0073644538715908E8 ; 1.1774117875823326E9 ; 1.1617844005200323E10 ; 0.0
67 ; 1.845428727591968E7 ; 2.0074159113834217E8 ; 1.19586269198823E9 ; 1.1818580450587482E10 ; 0.0
68 ; 1.8458279347284116E7 ; 2.0074675955248177E8 ; 1.2143169792641497E9 ; 1.2019322041725824E10 ; 0.0
69 ; 1.845850328960087E7 ; 2.007519494652463E8 ; 1.2327752586114337E9 ; 1.2220068801278307E10 ; 0.0
70 ; 1.8463537643400256E7 ; 2.0075715975596273E8 ; 1.2512337619010346E9 ; 1.2420820750743553E10 ; 0.0
71 ; 1.8464499020870212E7 ; 2.0076238934570375E8 ; 1.2696972995444348E9 ; 1.2621577910499516E10 ; 0.0
72 ; 1.8465025803962953E7 ; 2.0076763719544974E8 ; 1.288161798565305E9 ; 1.2822340299845219E10 ; 0.0
73 ; 1.846520825445039E7 ; 2.007729023043247E8 ; 1.306626824369268E9 ; 1.3023107937040668E10 ; 0.0
74 ; 1.846408822086512E7 ; 2.007781837079048E8 ; 1.3250920326237183E9 ; 1.3223880839344994E10 ; 0.0
75 ; 1.8465367480860185E7 ; 2.0078348047659844E8 ; 1.3435561208445833E9 ; 1.3424659023052898E10 ; 0.0
76 ; 1.8465121108511727E7 ; 2.007887917140956E8 ; 1.3620214883254435E9 ; 1.3625442503529497E10 ; 0.0
77 ; 1.8469712109831218E7 ; 2.007941165558847E8 ; 1.3804866094339552E9 ; 1.3826231295243593E10 ; 0.0
78 ; 1.8466351618493803E7 ; 2.0079945416783515E8 ; 1.3989563215437865E9 ; 1.4027025411799479E10 ; 0.0
79 ; 1.845938278502205E7 ; 2.0080480374484316E8 ; 1.4174226731622803E9 ; 1.4227824865967314E10 ; 0.0
80 ; 1.845462835826083E7 ; 2.0081016450953886E8 ; 1.4358820559473023E9 ; 1.4428629669712156E10 ; 0.0
81 ; 1.8446992551582824E7 ; 2.0081553571105245E8 ; 1.4543366843055632E9 ; 1.4629439834221695E10 ; 0.0
82 ; 1.8441387099716883E7 ; 2.008209166238367E8 ; 1.472783676857146E9 ; 1.4830255369932747E10 ; 0.0
83 ; 1.8439032594032686E7 ; 2.0082630654654452E8 ; 1.491225063956863E9 ; 1.5031076286556583E10 ; 0.0
84 ; 1.842921958501717E7 ; 2.0083170480095822E8 ; 1.5096640965508957E9 ; 1.5231902593103128E10 ; 0.0
85 ; 1.8427654874283902E7 ; 2.0083711073096928E8 ; 1.528093316135913E9 ; 1.5432734297904087E10 ; 0.0
86 ; 1.841914164929641E7 ; 2.0084252370160568E8 ; 1.5465209710101967E9 ; 1.5633571408635056E10 ; 0.0
87 ; 1.841295601816609E7 ; 2.0084794309810534E8 ; 1.5649401126594932E9 ; 1.583441393233666E10 ; 0.0
88 ; 1.840527887394512E7 ; 2.008533683250332E8 ; 1.5833530686776593E9 ; 1.6035261875434765E10 ; 0.0
89 ; 1.8400301626054727E7 ; 2.0085879880543995E8 ; 1.6017583475516045E9 ; 1.6236115243759798E10 ; 0.0
90 ; 1.83875266877539E7 ; 2.00864233980061E8 ; 1.6201586491776593E9 ; 1.6436974042565239E10 ; 0.0
91 ; 1.838586294250763E7 ; 2.0086967330655304E8 ; 1.6385461758654132E9 ; 1.66378382765453E10 ; 0.0
92 ; 1.8380992533150803E7 ; 2.0087511625876707E8 ; 1.656932038807921E9 ; 1.6838707949851852E10 ; 0.0
93 ; 1.836902961636834E7 ; 2.0088056232605603E8 ; 1.6753130313410718E9 ; 1.7039583066110619E10 ; 0.0
94 ; 1.8361861012211114E7 ; 2.00886011012615E8 ; 1.6936820609574401E9 ; 1.7240463628436676E10 ; 0.0
95 ; 1.8351057753016315E7 ; 2.0089146183685276E8 ; 1.7120439219696512E9 ; 1.744134963944929E10 ; 0.0
96 ; 1.83448848610457E7 ; 2.0089691433079353E8 ; 1.7303949797226675E9 ; 1.7642241101286144E10 ; 0.0
97 ; 1.8335913373127542E7 ; 2.0090236803950626E8 ; 1.748739864583713E9 ; 1.784313801561694E10 ; 0.0
98 ; 1.8330917934968397E7 ; 2.009078225205616E8 ; 1.7670757779568405E9 ; 1.8044040383656445E10 ; 0.0
99 ; 1.8320689700753924E7 ; 2.0091327734351406E8 ; 1.785406695891809E9 ; 1.8244948206177006E10 ; 0.0
100 ; 1.83110960311505E7 ; 2.009187320894086E8 ; 1.803727385592563E9 ; 1.844586148352052E10 ; 0.0
101 ; 1.8303157526256636E7 ; 2.009241863503105E8 ; 1.8220384816237135E9 ; 1.864678021560993E10 ; 0.0
102 ; 1.8288827509422783E7 ; 2.009296397288571E8 ; 1.84034163914997E9 ; 1.884770440196024E10 ; 0.0
103 ; 1.828179742173546E7 ; 2.0093509183783057E8 ; 1.8586304666593928E9 ; 1.90486340416891E10 ; 0.0
104 ; 1.8272437592715908E7 ; 2.0094054229975057E8 ; 1.8769122640811284E9 ; 1.9249569133526928E10 ; 0.0
105 ; 1.826343101790585E7 ; 2.0094599074648565E8 ; 1.8951847016738443E9 ; 1.945050967582668E10 ; 0.0
106 ; 1.8253720253471944E7 ; 2.0095143681888303E8 ; 1.9134481326917503E9 ; 1.9651455666573166E10 ; 0.0
107 ; 1.824243610901006E7 ; 2.0095688016641492E8 ; 1.9317018529452221E9 ; 1.9852407103392048E10 ; 0.0
108 ; 1.8231046925499085E7 ; 2.0096232044684154E8 ; 1.9499442890542321E9 ; 2.0053363983558464E10 ; 0.0
109 ; 1.822514956207274E7 ; 2.009677573258894E8 ; 1.9681753359797313E9 ; 2.0254326304005306E10 ; 0.0
110 ; 1.8211093015526075E7 ; 2.0097319047694436E8 ; 1.986400485541804E9 ; 2.0455294061331196E10 ; 0.0
111 ; 1.8199684666722678E7 ; 2.009786195807583E8 ; 2.0046115785573301E9 ; 2.065626725180814E10 ; 0.0
112 ; 1.8186480672979254E7 ; 2.0098404432516965E8 ; 2.022811263224053E9 ; 2.0857245871388897E10 ; 0.0
113 ; 1.817697062956203E7 ; 2.0098946440483612E8 ; 2.0409977438970323E9 ; 2.1058229915714066E10 ; 0.0
114 ; 1.8171543561185375E7 ; 2.0099487952097946E8 ; 2.0591747145265944E9 ; 2.12592193801189E10 ; 0.0
115 ; 1.8155505405583218E7 ; 2.010002893811419E8 ; 2.0773462580877798E9 ; 2.146021425963988E10 ; 0.0
116 ; 1.8144648079002436E7 ; 2.0100569369895315E8 ; 2.095501763493363E9 ; 2.1661214549021023E10 ; 0.0
117 ; 1.8131082899593297E7 ; 2.0101109219390798E8 ; 2.1136464115723653E9 ; 2.1862220242719975E10 ; 0.0
118 ; 1.812048893742307E7 ; 2.010164845911535E8 ; 2.1317774944719586E9 ; 2.2063231334913883E10 ; 0.0
119 ; 1.811114257344109E7 ; 2.010218706212859E8 ; 2.149897983409382E9 ; 2.2264247819505035E10 ; 0.0
120 ; 1.809264752390086E7 ; 2.0102725002015588E8 ; 2.168009125982823E9 ; 2.246526969012632E10 ; 0.0
121 ; 1.8082124353950128E7 ; 2.0103262252868295E8 ; 2.186101773506724E9 ; 2.2666296940146477E10 ; 0.0
122 ; 1.807231515403428E7 ; 2.0103798789267752E8 ; 2.204183897860674E9 ; 2.286732956267516E10 ; 0.0
123 ; 1.8055151624323834E7 ; 2.0104334586267066E8 ; 2.222256213014708E9 ; 2.3068367550567837E10 ; 0.0
124 ; 1.8043483175342076E7 ; 2.010486961937515E8 ; 2.240311364639032E9 ; 2.3269410896430508E10 ; 0.0
125 ; 1.803010676798237E7 ; 2.0105403864541122E8 ; 2.258354847814374E9 ; 2.347045959262426E10 ; 0.0
126 ; 1.8015893831089485E7 ; 2.0105937298139393E8 ; 2.2763849545823565E9 ; 2.3671513631269672E10 ; 0.0
127 ; 1.8004809204061046E7 ; 2.0106469896955398E8 ; 2.294400848413446E9 ; 2.387257300425107E10 ; 0.0
128 ; 1.7987995242989637E7 ; 2.0107001638171896E8 ; 2.312405657617507E9 ; 2.4073637703220623E10 ; 0.0
129 ; 1.7971355369372897E7 ; 2.0107532499355888E8 ; 2.3303936528604965E9 ; 2.427470771960234E10 ; 0.0
130 ; 1.7960645022727404E7 ; 2.010806245844606E8 ; 2.3483650082298694E9 ; 2.44757830445959E10 ; 0.0
131 ; 1.793836304914542E7 ; 2.0108591493740746E8 ; 2.366325653252597E9 ; 2.4676863669180363E10 ; 0.0
132 ; 1.791623696127778E7 ; 2.0109119583886418E8 ; 2.384264016301742E9 ; 2.487794958411777E10 ; 0.0
133 ; 1.7896488355391454E7 ; 2.0109646707866627E8 ; 2.40218025326302E9 ; 2.5079040779956635E10 ; 0.0
134 ; 1.788140338643894E7 ; 2.0110172844991407E8 ; 2.4200767416184115E9 ; 2.52801372470353E10 ; 0.0
135 ; 1.7856454600915506E7 ; 2.0110697974887124E8 ; 2.4379581450048504E9 ; 2.5481238975485214E10 ; 0.0
136 ; 1.7838474127764925E7 ; 2.0111222077486718E8 ; 2.455814599605766E9 ; 2.5682345955234085E10 ; 0.0
137 ; 1.7811927479853205E7 ; 2.0111745133020374E8 ; 2.4736530737335305E9 ; 2.5883458176008953E10 ; 0.0
138 ; 1.77942403752337E7 ; 2.011226712200654E8 ; 2.4914650012133837E9 ; 2.6084575627339157E10 ; 0.0
139 ; 1.7773571721017953E7 ; 2.011278802524332E8 ; 2.5092592415886173E9 ; 2.6285698298559223E10 ; 0.0
140 ; 1.775162877219694E7 ; 2.011330782380022E8 ; 2.527032813309635E9 ; 2.6486826178811657E10 ; 0.0
141 ; 1.7726876781765662E7 ; 2.0113826499010214E8 ; 2.544784442081832E9 ; 2.668795925704966E10 ; 0.0
142 ; 1.7708887158950284E7 ; 2.011434403246212E8 ; 2.5625113188635974E9 ; 2.688909752203976E10 ; 0.0
143 ; 1.7682731528858293E7 ; 2.0114860405993298E8 ; 2.5802202060225477E9 ; 2.709024096236438E10 ; 0.0
144 ; 1.7662546753259562E7 ; 2.0115375601682618E8 ; 2.597902937551406E9 ; 2.7291389566424313E10 ; 0.0
145 ; 1.765428139723599E7 ; 2.0115889601843715E8 ; 2.6155654843046656E9 ; 2.749254332244114E10 ; 0.0
146 ; 1.7631187490970794E7 ; 2.01164023890185E8 ; 2.6332197657019014E9 ; 2.7693702218459576E10 ; 0.0
147 ; 1.7614855198494773E7 ; 2.0116913945970935E8 ; 2.650850953192872E9 ; 2.7894866242349762E10 ; 0.0
148 ; 1.760284455007861E7 ; 2.0117424255681032E8 ; 2.668465808391367E9 ; 2.809603538180947E10 ; 0.0
149 ; 1.758872307442367E7 ; 2.0117933301339114E8 ; 2.6860686529414454E9 ; 2.829720962436628E10 ; 0.0
150 ; 1.7568377299198817E7 ; 2.0118441066340253E8 ; 2.703657376015869E9 ; 2.849838895737967E10 ; 0.0
151 ; 1.755612430017171E7 ; 2.0118947534278962E8 ; 2.721225753315068E9 ; 2.869957336804307E10 ; 0.0
152 ; 1.7540495802290138E7 ; 2.0119452688944077E8 ; 2.7387818776152396E9 ; 2.890076284338586E10 ; 0.0
153 ; 1.7526217226725854E7 ; 2.011995651431382E8 ; 2.7563223734175296E9 ; 2.9101957370275303E10 ; 0.0
154 ; 1.7507858058178734E7 ; 2.0120458994551066E8 ; 2.7738485906442556E9 ; 2.930315693541844E10 ; 0.0
155 ; 1.7489890876814008E7 ; 2.0120960113998777E8 ; 2.7913564487024345E9 ; 2.9504361525363953E10 ; 0.0
156 ; 1.747632790107354E7 ; 2.012145985717562E8 ; 2.8088463395792484E9 ; 2.970557112650394E10 ; 0.0
157 ; 1.7459837658537954E7 ; 2.0121958208771744E8 ; 2.826322667480322E9 ; 2.9906785725075695E10 ; 0.0
158 ; 1.744287448899524E7 ; 2.0122455153644702E8 ; 2.8437825051388597E9 ; 3.0108005307163414E10 ; 0.0
159 ; 1.742617922686448E7 ; 2.012295067681555E8 ; 2.861225379627855E9 ; 3.030922985869986E10 ; 0.0
160 ; 1.7407056015904676E7 ; 2.0123444763465056E8 ; 2.878651558854719E9 ; 3.0510459365468014E10 ; 0.0
161 ; 1.7392753054345768E7 ; 2.0123937398930097E8 ; 2.896058614870624E9 ; 3.0711693813102665E10 ; 0.0
162 ; 1.7377537599090286E7 ; 2.012442856870014E8 ; 2.9134513679249697E9 ; 3.0912933187091965E10 ; 0.0
163 ; 1.7362661071623746E7 ; 2.0124918258413878E8 ; 2.93082890552406E9 ; 3.1114177472778965E10 ; 0.0
164 ; 1.7347912792737857E7 ; 2.0125406453855985E8 ; 2.9481915665956836E9 ; 3.1315426655363102E10 ; 0.0
165 ; 1.732797985850844E7 ; 2.0125893140953988E8 ; 2.9655394793884215E9 ; 3.151668071990166E10 ; 0.0
166 ; 1.7313489949823696E7 ; 2.0126378305775252E8 ; 2.98286745924693E9 ; 3.17179396513112E10 ; 0.0
167 ; 1.729774787736853E7 ; 2.0126861934524077E8 ; 3.000180949196754E9 ; 3.191920343436895E10 ; 0.0
168 ; 1.7273497319005866E7 ; 2.012734401353889E8 ; 3.0174786970741224E9 ; 3.212047205371419E10 ; 0.0
169 ; 1.7262823222574916E7 ; 2.012782452928956E8 ; 3.0347521943931284E9 ; 3.232174549384958E10 ; 0.0
170 ; 1.724490858607681E7 ; 2.0128303468374768E8 ; 3.052015017615703E9 ; 3.2523023739142475E10 ; 0.0
171 ; 1.7225241043238085E7 ; 2.012878081751953E8 ; 3.06925992620178E9 ; 3.272430677382622E10 ; 0.0
172 ; 1.7209133632223316E7 ; 2.0129256563572752E8 ; 3.086485167245018E9 ; 3.2925594582001415E10 ; 0.0
173 ; 1.7194905334202103E7 ; 2.01297306935049E8 ; 3.103694300877241E9 ; 3.3126887147637142E10 ; 0.0
174 ; 1.7179813172843598E7 ; 2.0130203194405758E8 ; 3.1208892062114434E9 ; 3.332818445457219E10 ; 0.0
175 ; 1.7172384377959702E7 ; 2.013067405348224E8 ; 3.138069019384287E9 ; 3.3529486486516247E10 ; 0.0
176 ; 1.716164714007356E7 ; 2.0131143258056307E8 ; 3.1552414037622466E9 ; 3.3730793227051067E10 ; 0.0
177 ; 1.715161631939315E7 ; 2.0131610795562932E8 ; 3.1724030509023204E9 ; 3.393210465963163E10 ; 0.0
178 ; 1.714506582937747E7 ; 2.0132076653548163E8 ; 3.1895546672217135E9 ; 3.4133420767587257E10 ; 0.0
179 ; 1.71319462047058E7 ; 2.0132540819667226E8 ; 3.206699733051091E9 ; 3.4334741534122738E10 ; 0.0
180 ; 1.712359306684131E7 ; 2.0133003281682715E8 ; 3.223831679255797E9 ; 3.453606694231941E10 ; 0.0
181 ; 1.7115246628333423E7 ; 2.013346402746283E8 ; 3.240955272322638E9 ; 3.473739697513624E10 ; 0.0
182 ; 1.7099882841214154E7 ; 2.0133923044979694E8 ; 3.2580705189509716E9 ; 3.4938731615410866E10 ; 0.0
183 ; 1.708941693849763E7 ; 2.013438032230771E8 ; 3.275170401792186E9 ; 3.5140070845860664E10 ; 0.0
184 ; 1.708376189463921E7 ; 2.0134835847621977E8 ; 3.2922598187306833E9 ; 3.534141464908374E10 ; 0.0
185 ; 1.706941985458053E7 ; 2.0135289609196782E8 ; 3.3093435806253223E9 ; 3.554276300755996E10 ; 0.0
186 ; 1.7055705382419184E7 ; 2.013574159540411E8 ; 3.3264130004799027E9 ; 3.5744115903651924E10 ; 0.0
187 ; 1.7047589000756465E7 ; 2.0136191794712234E8 ; 3.343468705862322E9 ; 3.5945473319605965E10 ; 0.0
188 ; 1.703904711631366E7 ; 2.0136640195684338E8 ; 3.360516294863078E9 ; 3.6146835237553085E10 ; 0.0
189 ; 1.7025364280727293E7 ; 2.0137086786977193E8 ; 3.3775553419793916E9 ; 3.6348201639509926E10 ; 0.0
190 ; 1.7018196558876738E7 ; 2.013753155733987E8 ; 3.394580706260119E9 ; 3.65495725073797E10 ; 0.0
191 ; 1.701215820984286E7 ; 2.0137974495612517E8 ; 3.4115989028189955E9 ; 3.67509478229531E10 ; 0.0
192 ; 1.6993268822407488E7 ; 2.0138415590725142E8 ; 3.428611061028838E9 ; 3.6952327567909225E10 ; 0.0
193 ; 1.6983469326022163E7 ; 2.0138854831696486E8 ; 3.445604329851246E9 ; 3.7153711723816475E10 ; 0.0
194 ; 1.6970400091997866E7 ; 2.013929220763288E8 ; 3.462587799177268E9 ; 3.735510027213344E10 ; 0.0
195 ; 1.695921279125863E7 ; 2.0139727707727194E8 ; 3.479558199269266E9 ; 3.755649319420977E10 ; 0.0
