CSV File for the City 3 on Day 7
1 - Minute m 
2 - Power Consumed at minute m 
3 - Power Produced at minute m 
4 - Energy Consumed since the beginning of the day 
5 - Energy Produced since the beginning of the day 
6 - Energy Lost since the beginning of the day on lines starting from the city
 
0 ; 5949930.738621868 ; 7059306.905973594 ; 0.0 ; 0.0 ; 0.0
1 ; 5957299.815679759 ; 7059306.905973594 ; 5949930.738621868 ; 7059306.905973594 ; 0.0
2 ; 5964597.700443373 ; 7059306.905973594 ; 1.1907230554301627E7 ; 1.4118613811947187E7 ; 0.0
3 ; 5972756.543070238 ; 7059306.905973594 ; 1.7871828254745E7 ; 2.117792071792078E7 ; 0.0
4 ; 5983504.316709999 ; 7059306.905973594 ; 2.3844584797815237E7 ; 2.8237227623894375E7 ; 0.0
5 ; 5991876.716603658 ; 7059306.905973594 ; 2.9828089114525236E7 ; 3.529653452986797E7 ; 0.0
6 ; 6006034.978386141 ; 7059306.905973594 ; 3.5819965831128895E7 ; 4.235584143584156E7 ; 0.0
7 ; 6025460.41718821 ; 7059306.905973594 ; 4.182600080951504E7 ; 4.941514834181515E7 ; 0.0
8 ; 6054744.339375366 ; 7059306.905973594 ; 4.785146122670325E7 ; 5.647445524778874E7 ; 0.0
9 ; 6097054.068748465 ; 7059306.905973594 ; 5.390620556607862E7 ; 6.353376215376233E7 ; 0.0
10 ; 6160302.664394319 ; 7059306.905973594 ; 6.0003259634827085E7 ; 7.059306905973592E7 ; 0.0
11 ; 6264277.1506024785 ; 7059306.905973594 ; 6.6163562299221404E7 ; 7.765237596570952E7 ; 0.0
12 ; 6431799.806925151 ; 7059306.905973594 ; 7.242783944982389E7 ; 8.471168287168312E7 ; 0.0
13 ; 6586540.669156094 ; 7059306.905973594 ; 7.885963925674903E7 ; 9.177098977765672E7 ; 0.0
14 ; 6603811.323179862 ; 7059306.905973594 ; 8.544617992590512E7 ; 9.883029668363032E7 ; 0.0
15 ; 6608774.097730328 ; 7059306.905973594 ; 9.204999124908498E7 ; 1.0588960358960392E8 ; 0.0
16 ; 6619961.159177867 ; 7059306.905973594 ; 9.86587653468153E7 ; 1.1294891049557751E8 ; 0.0
17 ; 6628613.820969568 ; 7059306.905973594 ; 1.0527872650599317E8 ; 1.2000821740155111E8 ; 0.0
18 ; 6635222.358632125 ; 7059306.905973594 ; 1.1190734032696274E8 ; 1.2706752430752471E8 ; 0.0
19 ; 6642948.553888798 ; 7059306.905973594 ; 1.1854256268559486E8 ; 1.3412683121349831E8 ; 0.0
20 ; 6651528.8908263985 ; 7059306.905973594 ; 1.2518551123948365E8 ; 1.411861381194719E8 ; 0.0
21 ; 6656935.329329447 ; 7059306.905973594 ; 1.3183704013031006E8 ; 1.482454450254455E8 ; 0.0
22 ; 6667006.740995831 ; 7059306.905973594 ; 1.3849397545963952E8 ; 1.5530475193141907E8 ; 0.0
23 ; 6673845.880840638 ; 7059306.905973594 ; 1.4516098220063534E8 ; 1.6236405883739266E8 ; 0.0
24 ; 6682165.443189566 ; 7059306.905973594 ; 1.5183482808147597E8 ; 1.6942336574336624E8 ; 0.0
25 ; 6691034.202207455 ; 7059306.905973594 ; 1.5851699352466553E8 ; 1.7648267264933982E8 ; 0.0
26 ; 6695474.464847823 ; 7059306.905973594 ; 1.6520802772687298E8 ; 1.835419795553134E8 ; 0.0
27 ; 6705344.708825404 ; 7059306.905973594 ; 1.719035021917208E8 ; 1.90601286461287E8 ; 0.0
28 ; 6714110.3558453405 ; 7059306.905973594 ; 1.7860884690054622E8 ; 1.9766059336726058E8 ; 0.0
29 ; 6719708.166469031 ; 7059306.905973594 ; 1.8532295725639156E8 ; 2.0471990027323416E8 ; 0.0
30 ; 6727134.111895033 ; 7059306.905973594 ; 1.920426654228606E8 ; 2.1177920717920774E8 ; 0.0
31 ; 6736576.200000818 ; 7059306.905973594 ; 1.9876979953475562E8 ; 2.1883851408518133E8 ; 0.0
32 ; 6744500.383675577 ; 7059306.905973594 ; 2.0550637573475644E8 ; 2.258978209911549E8 ; 0.0
33 ; 6749489.200202901 ; 7059306.905973594 ; 2.1225087611843202E8 ; 2.329571278971285E8 ; 0.0
34 ; 6754931.086260916 ; 7059306.905973594 ; 2.1900036531863493E8 ; 2.4001643480310208E8 ; 0.0
35 ; 6761766.017370707 ; 7059306.905973594 ; 2.2575529640489584E8 ; 2.4707574170907566E8 ; 0.0
36 ; 6770228.348375703 ; 7059306.905973594 ; 2.3251706242226654E8 ; 2.5413504861504924E8 ; 0.0
37 ; 6775279.949594889 ; 7059306.905973594 ; 2.3928729077064225E8 ; 2.6119435552102283E8 ; 0.0
38 ; 6779659.268053712 ; 7059306.905973594 ; 2.4606257072023714E8 ; 2.682536624269964E8 ; 0.0
39 ; 6785686.602997221 ; 7059306.905973594 ; 2.5284222998829085E8 ; 2.7531296933297E8 ; 0.0
40 ; 6792042.307417439 ; 7059306.905973594 ; 2.5962791659128806E8 ; 2.8237227623894364E8 ; 0.0
41 ; 6795278.997896717 ; 7059306.905973594 ; 2.664199588987055E8 ; 2.8943158314491725E8 ; 0.0
42 ; 6798724.041348273 ; 7059306.905973594 ; 2.732152378966022E8 ; 2.9649089005089086E8 ; 0.0
43 ; 6806050.504535327 ; 7059306.905973594 ; 2.800139619379505E8 ; 3.035501969568645E8 ; 0.0
44 ; 6809580.21502912 ; 7059306.905973594 ; 2.868200124424858E8 ; 3.106095038628381E8 ; 0.0
45 ; 6813468.758247262 ; 7059306.905973594 ; 2.936295926575149E8 ; 3.176688107688117E8 ; 0.0
46 ; 6818917.468622604 ; 7059306.905973594 ; 3.004430614157622E8 ; 3.247281176747853E8 ; 0.0
47 ; 6818983.175457334 ; 7059306.905973594 ; 3.072619788843848E8 ; 3.317874245807589E8 ; 0.0
48 ; 6823194.851245526 ; 7059306.905973594 ; 3.1408096205984217E8 ; 3.3884673148673254E8 ; 0.0
49 ; 6823610.634982246 ; 7059306.905973594 ; 3.209041569110877E8 ; 3.4590603839270616E8 ; 0.0
50 ; 6826790.730797469 ; 7059306.905973594 ; 3.277277675460699E8 ; 3.5296534529867977E8 ; 0.0
51 ; 6831551.394716229 ; 7059306.905973594 ; 3.345545582768674E8 ; 3.600246522046534E8 ; 0.0
52 ; 6832264.246308367 ; 7059306.905973594 ; 3.413861096715836E8 ; 3.67083959110627E8 ; 0.0
53 ; 6832038.322785243 ; 7059306.905973594 ; 3.48218373917892E8 ; 3.741432660166006E8 ; 0.0
54 ; 6836975.970665585 ; 7059306.905973594 ; 3.5505041224067724E8 ; 3.812025729225742E8 ; 0.0
55 ; 6836551.800900194 ; 7059306.905973594 ; 3.618873882113428E8 ; 3.8826187982854784E8 ; 0.0
56 ; 6838342.020059763 ; 7059306.905973594 ; 3.6872394001224303E8 ; 3.9532118673452145E8 ; 0.0
57 ; 6841938.171284338 ; 7059306.905973594 ; 3.755622820323028E8 ; 4.0238049364049506E8 ; 0.0
58 ; 6842209.783215954 ; 7059306.905973594 ; 3.824042202035871E8 ; 4.094398005464687E8 ; 0.0
59 ; 6841468.37586209 ; 7059306.905973594 ; 3.8924642998680305E8 ; 4.164991074524423E8 ; 0.0
60 ; 6844805.576683886 ; 7059306.905973594 ; 3.960878983626651E8 ; 4.235584143584159E8 ; 0.0
61 ; 6848718.448471065 ; 7059306.905973594 ; 4.02932703939349E8 ; 4.306177212643895E8 ; 0.0
62 ; 6849001.971051623 ; 7059306.905973594 ; 4.0978142238782007E8 ; 4.376770281703631E8 ; 0.0
63 ; 6849239.426934913 ; 7059306.905973594 ; 4.166304243588717E8 ; 4.4473633507633674E8 ; 0.0
64 ; 6849311.639551707 ; 7059306.905973594 ; 4.234796637858066E8 ; 4.5179564198231035E8 ; 0.0
65 ; 6849293.776651584 ; 7059306.905973594 ; 4.303289754253583E8 ; 4.5885494888828397E8 ; 0.0
66 ; 6852307.206776714 ; 7059306.905973594 ; 4.3717826920200986E8 ; 4.659142557942576E8 ; 0.0
67 ; 6853875.319238393 ; 7059306.905973594 ; 4.440305764087866E8 ; 4.729735627002312E8 ; 0.0
68 ; 6855205.258893915 ; 7059306.905973594 ; 4.5088445172802496E8 ; 4.800328696062048E8 ; 0.0
69 ; 6854999.927172507 ; 7059306.905973594 ; 4.5773965698691887E8 ; 4.870921765121784E8 ; 0.0
70 ; 6855537.989265661 ; 7059306.905973594 ; 4.6459465691409135E8 ; 4.9415148341815203E8 ; 0.0
71 ; 6856553.085645141 ; 7059306.905973594 ; 4.71450194903357E8 ; 5.0121079032412565E8 ; 0.0
72 ; 6856554.238712046 ; 7059306.905973594 ; 4.7830674798900217E8 ; 5.0827009723009926E8 ; 0.0
73 ; 6858014.2374294 ; 7059306.905973594 ; 4.8516330222771424E8 ; 5.153294041360729E8 ; 0.0
74 ; 6857074.544382048 ; 7059306.905973594 ; 4.920213164651436E8 ; 5.223887110420465E8 ; 0.0
75 ; 6857621.230046216 ; 7059306.905973594 ; 4.9887839100952566E8 ; 5.294480179480201E8 ; 0.0
76 ; 6857136.41060257 ; 7059306.905973594 ; 5.0573601223957187E8 ; 5.365073248539937E8 ; 0.0
77 ; 6860407.637703617 ; 7059306.905973594 ; 5.1259314865017444E8 ; 5.435666317599673E8 ; 0.0
78 ; 6854892.555096289 ; 7059306.905973594 ; 5.1945355628787804E8 ; 5.506259386659409E8 ; 0.0
79 ; 6854382.780496508 ; 7059306.905973594 ; 5.263084488429743E8 ; 5.576852455719144E8 ; 0.0
80 ; 6853373.653119198 ; 7059306.905973594 ; 5.331628316234708E8 ; 5.64744552477888E8 ; 0.0
81 ; 6847957.395647568 ; 7059306.905973594 ; 5.4001620527659E8 ; 5.718038593838615E8 ; 0.0
82 ; 6850729.823740562 ; 7059306.905973594 ; 5.468641626722375E8 ; 5.788631662898351E8 ; 0.0
83 ; 6844043.168350266 ; 7059306.905973594 ; 5.537148924959781E8 ; 5.859224731958086E8 ; 0.0
84 ; 6844770.273292499 ; 7059306.905973594 ; 5.605589356643283E8 ; 5.929817801017822E8 ; 0.0
85 ; 6843045.851033164 ; 7059306.905973594 ; 5.674037059376209E8 ; 6.000410870077558E8 ; 0.0
86 ; 6842615.302779537 ; 7059306.905973594 ; 5.742467517886541E8 ; 6.071003939137293E8 ; 0.0
87 ; 6836545.208353907 ; 7059306.905973594 ; 5.810893670914336E8 ; 6.141597008197029E8 ; 0.0
88 ; 6835641.679960629 ; 7059306.905973594 ; 5.879259122997875E8 ; 6.212190077256764E8 ; 0.0
89 ; 6833451.12122912 ; 7059306.905973594 ; 5.947615539797481E8 ; 6.2827831463165E8 ; 0.0
90 ; 6830368.06155991 ; 7059306.905973594 ; 6.015950051009773E8 ; 6.353376215376235E8 ; 0.0
91 ; 6827666.703016946 ; 7059306.905973594 ; 6.084253731625372E8 ; 6.423969284435971E8 ; 0.0
92 ; 6823820.950397486 ; 7059306.905973594 ; 6.152530398655542E8 ; 6.494562353495706E8 ; 0.0
93 ; 6819461.94841071 ; 7059306.905973594 ; 6.220768608159517E8 ; 6.565155422555442E8 ; 0.0
94 ; 6819874.8827716885 ; 7059306.905973594 ; 6.288963227643625E8 ; 6.635748491615177E8 ; 0.0
95 ; 6818575.017375412 ; 7059306.905973594 ; 6.357161976471342E8 ; 6.706341560674913E8 ; 0.0
96 ; 6813432.634281432 ; 7059306.905973594 ; 6.425347726645097E8 ; 6.776934629734648E8 ; 0.0
97 ; 6808905.141635752 ; 7059306.905973594 ; 6.49348205298791E8 ; 6.847527698794384E8 ; 0.0
98 ; 6807765.668336428 ; 7059306.905973594 ; 6.561571104404268E8 ; 6.91812076785412E8 ; 0.0
99 ; 6803442.760369082 ; 7059306.905973594 ; 6.629648761087632E8 ; 6.988713836913855E8 ; 0.0
100 ; 6801736.047163115 ; 7059306.905973594 ; 6.697683188691323E8 ; 7.059306905973591E8 ; 0.0
101 ; 6798590.035509048 ; 7059306.905973594 ; 6.765700549162954E8 ; 7.129899975033326E8 ; 0.0
102 ; 6793157.403109506 ; 7059306.905973594 ; 6.833686449518044E8 ; 7.200493044093062E8 ; 0.0
103 ; 6792718.437440921 ; 7059306.905973594 ; 6.90161802354914E8 ; 7.271086113152797E8 ; 0.0
104 ; 6784822.358084818 ; 7059306.905973594 ; 6.969545207923548E8 ; 7.341679182212533E8 ; 0.0
105 ; 6782848.380077862 ; 7059306.905973594 ; 7.037393431504396E8 ; 7.412272251272268E8 ; 0.0
106 ; 6781239.430078706 ; 7059306.905973594 ; 7.105221915305175E8 ; 7.482865320332004E8 ; 0.0
107 ; 6776338.506192489 ; 7059306.905973594 ; 7.173034309605962E8 ; 7.553458389391739E8 ; 0.0
108 ; 6772836.265072123 ; 7059306.905973594 ; 7.240797694667886E8 ; 7.624051458451475E8 ; 0.0
109 ; 6769751.767893188 ; 7059306.905973594 ; 7.308526057318608E8 ; 7.69464452751121E8 ; 0.0
110 ; 6764378.832967775 ; 7059306.905973594 ; 7.37622357499754E8 ; 7.765237596570946E8 ; 0.0
111 ; 6761824.716953772 ; 7059306.905973594 ; 7.443867363327217E8 ; 7.835830665630682E8 ; 0.0
112 ; 6757430.843144306 ; 7059306.905973594 ; 7.511485610496755E8 ; 7.906423734690417E8 ; 0.0
113 ; 6751942.166571379 ; 7059306.905973594 ; 7.579059918928198E8 ; 7.977016803750153E8 ; 0.0
114 ; 6749327.681055168 ; 7059306.905973594 ; 7.646579340593911E8 ; 8.047609872809888E8 ; 0.0
115 ; 6744356.345755041 ; 7059306.905973594 ; 7.714072617404463E8 ; 8.118202941869624E8 ; 0.0
116 ; 6740747.547861052 ; 7059306.905973594 ; 7.781516180862014E8 ; 8.188796010929359E8 ; 0.0
117 ; 6736963.454137013 ; 7059306.905973594 ; 7.848923656340625E8 ; 8.259389079989095E8 ; 0.0
118 ; 6727505.212629987 ; 7059306.905973594 ; 7.916293290881995E8 ; 8.32998214904883E8 ; 0.0
119 ; 6724611.989449142 ; 7059306.905973594 ; 7.983568343008295E8 ; 8.400575218108566E8 ; 0.0
120 ; 6721287.005696882 ; 7059306.905973594 ; 8.050814462902787E8 ; 8.471168287168301E8 ; 0.0
121 ; 6715042.738209606 ; 7059306.905973594 ; 8.118027332959756E8 ; 8.541761356228037E8 ; 0.0
122 ; 6712275.414071964 ; 7059306.905973594 ; 8.185177760341852E8 ; 8.612354425287772E8 ; 0.0
123 ; 6706248.146598918 ; 7059306.905973594 ; 8.252300514482571E8 ; 8.682947494347508E8 ; 0.0
124 ; 6701257.748213774 ; 7059306.905973594 ; 8.31936299594856E8 ; 8.753540563407243E8 ; 0.0
125 ; 6699735.772471182 ; 7059306.905973594 ; 8.386375573430698E8 ; 8.824133632466979E8 ; 0.0
126 ; 6692472.050887996 ; 7059306.905973594 ; 8.45337293115541E8 ; 8.894726701526715E8 ; 0.0
127 ; 6689956.610150404 ; 7059306.905973594 ; 8.520297651664289E8 ; 8.96531977058645E8 ; 0.0
128 ; 6680486.752016576 ; 7059306.905973594 ; 8.587197217765794E8 ; 9.035912839646186E8 ; 0.0
129 ; 6676377.8008548375 ; 7059306.905973594 ; 8.654002085285959E8 ; 9.106505908705921E8 ; 0.0
130 ; 6671818.093682586 ; 7059306.905973594 ; 8.720765863294507E8 ; 9.177098977765657E8 ; 0.0
131 ; 6662873.670610287 ; 7059306.905973594 ; 8.787484044231333E8 ; 9.247692046825392E8 ; 0.0
132 ; 6654403.570388286 ; 7059306.905973594 ; 8.854112780937436E8 ; 9.318285115885128E8 ; 0.0
133 ; 6649441.098198372 ; 7059306.905973594 ; 8.920656816641319E8 ; 9.388878184944863E8 ; 0.0
134 ; 6640887.711614133 ; 7059306.905973594 ; 8.987151227623303E8 ; 9.459471254004599E8 ; 0.0
135 ; 6631183.088295019 ; 7059306.905973594 ; 9.053560104739444E8 ; 9.530064323064334E8 ; 0.0
136 ; 6626525.908759592 ; 7059306.905973594 ; 9.119871935622394E8 ; 9.60065739212407E8 ; 0.0
137 ; 6620760.029952856 ; 7059306.905973594 ; 9.18613719470999E8 ; 9.671250461183805E8 ; 0.0
138 ; 6611548.415111082 ; 7059306.905973594 ; 9.252344795009519E8 ; 9.741843530243541E8 ; 0.0
139 ; 6605291.444683707 ; 7059306.905973594 ; 9.31846027916063E8 ; 9.812436599303277E8 ; 0.0
140 ; 6595795.757446203 ; 7059306.905973594 ; 9.384513193607466E8 ; 9.883029668363012E8 ; 0.0
141 ; 6587904.696908446 ; 7059306.905973594 ; 9.450471151181928E8 ; 9.953622737422748E8 ; 0.0
142 ; 6578868.538409027 ; 7059306.905973594 ; 9.516350198151013E8 ; 1.0024215806482483E9 ; 0.0
143 ; 6573113.816822547 ; 7059306.905973594 ; 9.582138883535103E8 ; 1.0094808875542219E9 ; 0.0
144 ; 6565723.640246416 ; 7059306.905973594 ; 9.647870021703328E8 ; 1.0165401944601954E9 ; 0.0
145 ; 6560300.455487374 ; 7059306.905973594 ; 9.713527258105792E8 ; 1.023599501366169E9 ; 0.0
146 ; 6554554.325708703 ; 7059306.905973594 ; 9.779130262660666E8 ; 1.0306588082721425E9 ; 0.0
147 ; 6549640.729213374 ; 7059306.905973594 ; 9.844675805917753E8 ; 1.0377181151781161E9 ; 0.0
148 ; 6543039.5513289785 ; 7059306.905973594 ; 9.910172213209887E8 ; 1.0447774220840896E9 ; 0.0
149 ; 6538366.342995357 ; 7059306.905973594 ; 9.975602608723177E8 ; 1.0518367289900632E9 ; 0.0
150 ; 6532522.821499639 ; 7059306.905973594 ; 1.0040986272153131E9 ; 1.0588960358960367E9 ; 0.0
151 ; 6526868.936989953 ; 7059306.905973594 ; 1.0106311500368127E9 ; 1.0659553428020103E9 ; 0.0
152 ; 6523386.890437024 ; 7059306.905973594 ; 1.0171580189738026E9 ; 1.0730146497079839E9 ; 0.0
153 ; 6513679.031796733 ; 7059306.905973594 ; 1.0236814058642396E9 ; 1.0800739566139574E9 ; 0.0
154 ; 6511918.306337763 ; 7059306.905973594 ; 1.0301950848960363E9 ; 1.087133263519931E9 ; 0.0
155 ; 6505355.168781252 ; 7059306.905973594 ; 1.036707003202374E9 ; 1.0941925704259048E9 ; 0.0
156 ; 6499519.402138696 ; 7059306.905973594 ; 1.0432123583711553E9 ; 1.1012518773318784E9 ; 0.0
157 ; 6494238.339211588 ; 7059306.905973594 ; 1.049711877773294E9 ; 1.108311184237852E9 ; 0.0
158 ; 6486723.838277472 ; 7059306.905973594 ; 1.0562061161125056E9 ; 1.1153704911438258E9 ; 0.0
159 ; 6482850.905560893 ; 7059306.905973594 ; 1.062692839950783E9 ; 1.1224297980497994E9 ; 0.0
160 ; 6473673.053190888 ; 7059306.905973594 ; 1.0691756908563439E9 ; 1.129489104955773E9 ; 0.0
161 ; 6471114.71381091 ; 7059306.905973594 ; 1.0756493639095347E9 ; 1.1365484118617468E9 ; 0.0
162 ; 6463653.358292861 ; 7059306.905973594 ; 1.0821204786233456E9 ; 1.1436077187677205E9 ; 0.0
163 ; 6455544.711552337 ; 7059306.905973594 ; 1.0885841319816384E9 ; 1.1506670256736941E9 ; 0.0
164 ; 6452620.663437216 ; 7059306.905973594 ; 1.0950396766931908E9 ; 1.1577263325796678E9 ; 0.0
165 ; 6446552.829435078 ; 7059306.905973594 ; 1.101492297356628E9 ; 1.1647856394856415E9 ; 0.0
166 ; 6439457.023712741 ; 7059306.905973594 ; 1.107938850186063E9 ; 1.1718449463916152E9 ; 0.0
167 ; 6436138.997460216 ; 7059306.905973594 ; 1.1143783072097757E9 ; 1.1789042532975888E9 ; 0.0
168 ; 6428249.28691439 ; 7059306.905973594 ; 1.1208144462072358E9 ; 1.1859635602035625E9 ; 0.0
169 ; 6422842.33528109 ; 7059306.905973594 ; 1.1272426954941502E9 ; 1.1930228671095362E9 ; 0.0
170 ; 6419148.360342946 ; 7059306.905973594 ; 1.1336655378294313E9 ; 1.2000821740155098E9 ; 0.0
171 ; 6408382.311778937 ; 7059306.905973594 ; 1.1400846861897743E9 ; 1.2071414809214835E9 ; 0.0
172 ; 6405000.126199796 ; 7059306.905973594 ; 1.1464930685015533E9 ; 1.2142007878274572E9 ; 0.0
173 ; 6397415.755157103 ; 7059306.905973594 ; 1.152898068627753E9 ; 1.2212600947334309E9 ; 0.0
174 ; 6394670.440221859 ; 7059306.905973594 ; 1.15929548438291E9 ; 1.2283194016394045E9 ; 0.0
175 ; 6390858.486213306 ; 7059306.905973594 ; 1.1656901548231318E9 ; 1.2353787085453782E9 ; 0.0
176 ; 6387832.548727385 ; 7059306.905973594 ; 1.172081013309345E9 ; 1.242438015451352E9 ; 0.0
177 ; 6385801.767130499 ; 7059306.905973594 ; 1.1784688458580723E9 ; 1.2494973223573256E9 ; 0.0
178 ; 6382383.956786777 ; 7059306.905973594 ; 1.184854647625203E9 ; 1.2565566292632992E9 ; 0.0
179 ; 6377003.542017398 ; 7059306.905973594 ; 1.1912370315819898E9 ; 1.263615936169273E9 ; 0.0
180 ; 6375359.762176931 ; 7059306.905973594 ; 1.1976140351240072E9 ; 1.2706752430752466E9 ; 0.0
181 ; 6370330.6722660335 ; 7059306.905973594 ; 1.2039893948861842E9 ; 1.2777345499812202E9 ; 0.0
182 ; 6364041.055968174 ; 7059306.905973594 ; 1.2103597255584502E9 ; 1.284793856887194E9 ; 0.0
183 ; 6362743.697571884 ; 7059306.905973594 ; 1.2167237666144185E9 ; 1.2918531637931676E9 ; 0.0
184 ; 6357190.61804956 ; 7059306.905973594 ; 1.2230865103119905E9 ; 1.2989124706991413E9 ; 0.0
185 ; 6355723.9046608 ; 7059306.905973594 ; 1.2294437009300401E9 ; 1.305971777605115E9 ; 0.0
186 ; 6351733.335554147 ; 7059306.905973594 ; 1.2357994248347008E9 ; 1.3130310845110886E9 ; 0.0
187 ; 6346338.8174854005 ; 7059306.905973594 ; 1.242151158170255E9 ; 1.3200903914170623E9 ; 0.0
188 ; 6343095.401492964 ; 7059306.905973594 ; 1.2484974969877403E9 ; 1.327149698323036E9 ; 0.0
189 ; 6340963.877147047 ; 7059306.905973594 ; 1.2548405923892334E9 ; 1.3342090052290096E9 ; 0.0
190 ; 6336987.178067648 ; 7059306.905973594 ; 1.2611815562663803E9 ; 1.3412683121349833E9 ; 0.0
191 ; 6333907.520785588 ; 7059306.905973594 ; 1.267518543444448E9 ; 1.348327619040957E9 ; 0.0
192 ; 6329333.276815696 ; 7059306.905973594 ; 1.2738524509652336E9 ; 1.3553869259469306E9 ; 0.0
193 ; 6326878.638193544 ; 7059306.905973594 ; 1.2801817842420492E9 ; 1.3624462328529043E9 ; 0.0
194 ; 6324688.289652618 ; 7059306.905973594 ; 1.2865086628802428E9 ; 1.369505539758878E9 ; 0.0
195 ; 6320169.113029207 ; 7059306.905973594 ; 1.2928333511698954E9 ; 1.3765648466648517E9 ; 0.0
196 ; 6314008.957155715 ; 7059306.905973594 ; 1.2991535202829247E9 ; 1.3836241535708253E9 ; 0.0
197 ; 6310676.062530272 ; 7059306.905973594 ; 1.3054675292400804E9 ; 1.390683460476799E9 ; 0.0
198 ; 6309713.957505658 ; 7059306.905973594 ; 1.3117782053026106E9 ; 1.3977427673827727E9 ; 0.0
199 ; 6301885.798034394 ; 7059306.905973594 ; 1.3180879192601163E9 ; 1.4048020742887464E9 ; 0.0
200 ; 6297950.374944724 ; 7059306.905973594 ; 1.3243898050581508E9 ; 1.41186138119472E9 ; 0.0
201 ; 6299526.352463275 ; 7059306.905973594 ; 1.3306877554330955E9 ; 1.4189206881006937E9 ; 0.0
202 ; 6294309.026124295 ; 7059306.905973594 ; 1.3369872817855587E9 ; 1.4259799950066674E9 ; 0.0
203 ; 6291097.658849285 ; 7059306.905973594 ; 1.343281590811683E9 ; 1.433039301912641E9 ; 0.0
204 ; 6287818.8102854965 ; 7059306.905973594 ; 1.3495726884705322E9 ; 1.4400986088186147E9 ; 0.0
205 ; 6285795.720961785 ; 7059306.905973594 ; 1.3558605072808177E9 ; 1.4471579157245884E9 ; 0.0
206 ; 6280369.0516116 ; 7059306.905973594 ; 1.3621463030017796E9 ; 1.454217222630562E9 ; 0.0
207 ; 6277259.088948215 ; 7059306.905973594 ; 1.3684266720533912E9 ; 1.4612765295365357E9 ; 0.0
208 ; 6271817.235556017 ; 7059306.905973594 ; 1.3747039311423395E9 ; 1.4683358364425094E9 ; 0.0
