CSV File for the City 3 on Day 216
1 - Minute m 
2 - Power Consumed at minute m 
3 - Power Produced at minute m 
4 - Energy Consumed since the beginning of the day 
5 - Energy Produced since the beginning of the day 
6 - Energy Lost since the beginning of the day on lines starting from the city
 
0 ; 151485.6047652275 ; 1.0530206093664274E8 ; 0.0 ; 0.0 ; 0.0
1 ; 154035.9574966949 ; 1.0545408626993603E8 ; 151485.6047652275 ; 1.0530206093664274E8 ; 0.0
2 ; 155643.1971311082 ; 1.0591496198432621E8 ; 305521.5622619224 ; 2.1075614720657876E8 ; 0.0
3 ; 157645.21785486297 ; 1.0668469794741797E8 ; 461164.7593930306 ; 3.16671109190905E8 ; 0.0
4 ; 163136.5337532712 ; 1.0776330351851648E8 ; 618809.9772478936 ; 4.2335580713832295E8 ; 0.0
5 ; 168192.61451716756 ; 1.0915078735387594E8 ; 781946.5110011648 ; 5.3111911065683943E8 ; 0.0
6 ; 173010.8443325444 ; 1.1084715720848218E8 ; 950139.1255183324 ; 6.402698980107154E8 ; 0.0
7 ; 181387.1516954111 ; 1.1285241974337631E8 ; 1123149.9698508768 ; 7.511170552191975E8 ; 0.0
8 ; 192361.2629655428 ; 1.1516658034855002E8 ; 1304537.121546288 ; 8.639694749625738E8 ; 0.0
9 ; 208783.24214053273 ; 1.1778964299166173E8 ; 1496898.3845118308 ; 9.791360553111238E8 ; 0.0
10 ; 235549.74985484805 ; 1.2072161010206181E8 ; 1705681.6266523635 ; 1.0969256983027856E9 ; 0.0
11 ; 277362.52869445045 ; 1.239624824978346E8 ; 1941231.3765072115 ; 1.2176473084048474E9 ; 0.0
12 ; 344451.7498854963 ; 1.2751225936089572E8 ; 2218593.905201662 ; 1.341609790902682E9 ; 0.0
13 ; 408588.39751480625 ; 1.3137093826189482E8 ; 2563045.655087158 ; 1.4691220502635777E9 ; 0.0
14 ; 415587.26613743167 ; 1.3553851523317355E8 ; 2971634.052601964 ; 1.6004929885254726E9 ; 0.0
15 ; 420237.6956791407 ; 1.400149848847401E8 ; 3387221.318739396 ; 1.7360315037586462E9 ; 0.0
16 ; 421958.0218746935 ; 1.4480034055555353E8 ; 3807459.014418537 ; 1.8760464886433864E9 ; 0.0
17 ; 425738.13902886235 ; 1.4989457449062786E8 ; 4229417.03629323 ; 2.0208468291989398E9 ; 0.0
18 ; 430018.43808088556 ; 1.5529767803370893E8 ; 4655155.175322092 ; 2.1707414036895676E9 ; 0.0
19 ; 432401.7495289799 ; 1.6100964182549158E8 ; 5085173.613402978 ; 2.3260390817232766E9 ; 0.0
20 ; 435724.7952812317 ; 1.670304559983711E8 ; 5517575.3629319575 ; 2.487048723548768E9 ; 0.0
21 ; 439965.2286664185 ; 1.73360110360316E8 ; 5953300.158213189 ; 2.654079179547139E9 ; 0.0
22 ; 443638.4976219918 ; 1.799985945623209E8 ; 6393265.386879607 ; 2.827439289907455E9 ; 0.0
23 ; 446592.9474335781 ; 1.8694589824582458E8 ; 6836903.884501599 ; 3.0074378844697757E9 ; 0.0
24 ; 450487.5353526433 ; 1.942020111682428E8 ; 7283496.831935177 ; 3.1943837827156E9 ; 0.0
25 ; 454728.371238466 ; 2.004549642044469E8 ; 7733984.36728782 ; 3.388585793883843E9 ; 0.0
26 ; 457966.1082106514 ; 2.0045829546552247E8 ; 8188712.738526287 ; 3.5890407580882897E9 ; 0.0
27 ; 460604.3182332222 ; 2.0046176488572767E8 ; 8646678.846736938 ; 3.789499053553812E9 ; 0.0
28 ; 464216.9590215999 ; 2.004653635136459E8 ; 9107283.16497016 ; 3.98996081843954E9 ; 0.0
29 ; 468432.546618953 ; 2.004690828345164E8 ; 9571500.12399176 ; 4.190426181953186E9 ; 0.0
30 ; 471785.3600491692 ; 2.004729147864529E8 ; 1.0039932670610713E7 ; 4.390895264787703E9 ; 0.0
31 ; 475037.4272773207 ; 2.0047685176612657E8 ; 1.0511718030659882E7 ; 4.591368179574156E9 ; 0.0
32 ; 477166.22528129275 ; 2.0048088662605768E8 ; 1.0986755457937203E7 ; 4.791845031340282E9 ; 0.0
33 ; 480913.0254907297 ; 2.0048501266541788E8 ; 1.1463921683218496E7 ; 4.99232591796634E9 ; 0.0
34 ; 484270.3708754227 ; 2.0048922361598635E8 ; 1.1944834708709225E7 ; 5.192810930631758E9 ; 0.0
35 ; 487104.1725859798 ; 2.004935136246421E8 ; 1.2429105079584647E7 ; 5.393300154247744E9 ; 0.0
36 ; 489981.1678301487 ; 2.0049787723353133E8 ; 1.2916209252170626E7 ; 5.593793667872386E9 ; 0.0
37 ; 493250.2477024062 ; 2.005023093588275E8 ; 1.3406190420000775E7 ; 5.794291545105917E9 ; 0.0
38 ; 495863.72629299655 ; 2.005068052688093E8 ; 1.3899440667703182E7 ; 5.994793854464745E9 ; 0.0
39 ; 498182.4832694321 ; 2.0051136056181613E8 ; 1.4395304393996177E7 ; 6.195300659733554E9 ; 0.0
40 ; 500307.6269000025 ; 2.0051597114450306E8 ; 1.489348687726561E7 ; 6.39581202029537E9 ; 0.0
41 ; 503934.4110395539 ; 2.005206332107038E8 ; 1.5393794504165612E7 ; 6.596327991439873E9 ; 0.0
42 ; 505825.4803021395 ; 2.0052534322111875E8 ; 1.5897728915205166E7 ; 6.796848624650577E9 ; 0.0
43 ; 508470.2869696459 ; 2.0053009788397285E8 ; 1.6403554395507306E7 ; 6.9973739678716955E9 ; 0.0
44 ; 511987.8162610712 ; 2.0053489413673073E8 ; 1.6912024682476953E7 ; 7.197904065755669E9 ; 0.0
45 ; 513634.5673449292 ; 2.0053972912891304E8 ; 1.7424012498738024E7 ; 7.3984389598924E9 ; 0.0
46 ; 514323.28309603874 ; 2.0054460020602545E8 ; 1.7937647066082954E7 ; 7.598978689021313E9 ; 0.0
47 ; 516960.55142153084 ; 2.0054950489458662E8 ; 1.8451970349178992E7 ; 7.799523289227338E9 ; 0.0
48 ; 518979.1667088307 ; 2.0055444088822493E8 ; 1.8968930900600523E7 ; 8.000072794121924E9 ; 0.0
49 ; 520889.6880055058 ; 2.0055940603480068E8 ; 1.9487910067309354E7 ; 8.200627235010149E9 ; 0.0
50 ; 522144.56997315516 ; 2.005643983245036E8 ; 2.000879975531486E7 ; 8.40118664104495E9 ; 0.0
51 ; 523888.4230787013 ; 2.0056941587887046E8 ; 2.0530944325288016E7 ; 8.601751039369453E9 ; 0.0
52 ; 525210.2884969639 ; 2.0057445694066462E8 ; 2.1054832748366717E7 ; 8.802320455248323E9 ; 0.0
53 ; 526985.1554678406 ; 2.005795198645603E8 ; 2.158004303686368E7 ; 9.002894912188988E9 ; 0.0
54 ; 528886.9308635035 ; 2.005846031085741E8 ; 2.2107028192331523E7 ; 9.203474432053549E9 ; 0.0
55 ; 528615.7706711903 ; 2.005897052261882E8 ; 2.2635915123195026E7 ; 9.404059035162123E9 ; 0.0
56 ; 530270.665985275 ; 2.005948248591126E8 ; 2.3164530893866215E7 ; 9.604648740388311E9 ; 0.0
57 ; 532232.3025453467 ; 2.0059996073063573E8 ; 2.369480155985149E7 ; 9.805243565247423E9 ; 0.0
58 ; 533139.6150245212 ; 2.0060511163951674E8 ; 2.4227033862396836E7 ; 1.000584352597806E10 ; 0.0
59 ; 535459.4531692576 ; 2.006102764543746E8 ; 2.476017347742136E7 ; 1.0206448637617577E10 ; 0.0
60 ; 536869.219026911 ; 2.0061545410853362E8 ; 2.5295632930590615E7 ; 1.040705891407195E10 ; 0.0
61 ; 538389.9423020448 ; 2.0062064359528673E8 ; 2.5832502149617527E7 ; 1.0607674368180485E10 ; 0.0
62 ; 538898.1951862182 ; 2.00625843963542E8 ; 2.637089209191957E7 ; 1.0808295011775772E10 ; 0.0
63 ; 540044.1916425206 ; 2.006310543138196E8 ; 2.690979028710579E7 ; 1.1008920855739315E10 ; 0.0
64 ; 541958.046019132 ; 2.0063627379456952E8 ; 2.744983447874831E7 ; 1.1209551910053135E10 ; 0.0
65 ; 541821.3735966524 ; 2.006415015987834E8 ; 2.7991792524767444E7 ; 1.1410188183847704E10 ; 0.0
66 ; 545445.9952447362 ; 2.0064673696087468E8 ; 2.8533613898364097E7 ; 1.1610829685446487E10 ; 0.0
67 ; 544374.6334632979 ; 2.0065197915380487E8 ; 2.9079059893608835E7 ; 1.1811476422407362E10 ; 0.0
68 ; 546516.381372802 ; 2.0065722748643488E8 ; 2.962343452707213E7 ; 1.2012128401561167E10 ; 0.0
69 ; 547402.9885548096 ; 2.0066248130108255E8 ; 3.0169950908444934E7 ; 1.2212785629047602E10 ; 0.0
70 ; 549041.6987445904 ; 2.0066773997126862E8 ; 3.0717353896999743E7 ; 1.2413448110348684E10 ; 0.0
71 ; 549376.5170054496 ; 2.0067300289963582E8 ; 3.1266395595744334E7 ; 1.2614115850319952E10 ; 0.0
72 ; 551249.4029234641 ; 2.0067826951602608E8 ; 3.1815772112749785E7 ; 1.2814788853219587E10 ; 0.0
73 ; 553001.2148846898 ; 2.0068353927570337E8 ; 3.236702151567325E7 ; 1.3015467122735613E10 ; 0.0
74 ; 551933.2115202858 ; 2.0068881165770927E8 ; 3.292002273055794E7 ; 1.3216150662011316E10 ; 0.0
75 ; 555296.8929957559 ; 2.0069408616334108E8 ; 3.3471955942078225E7 ; 1.3416839473669025E10 ; 0.0
76 ; 555650.9329166373 ; 2.0069936231474203E8 ; 3.402725283507398E7 ; 1.3617533559832367E10 ; 0.0
77 ; 556618.7793491717 ; 2.007046396535947E8 ; 3.458290376799061E7 ; 1.3818232922147108E10 ; 0.0
78 ; 555748.6580439629 ; 2.00709917739909E8 ; 3.513952254733978E7 ; 1.4018937561800703E10 ; 0.0
79 ; 557057.1324958209 ; 2.0071519615089735E8 ; 3.569527120538375E7 ; 1.4219647479540611E10 ; 0.0
80 ; 556981.6962942475 ; 2.0072047447993037E8 ; 3.625232833787957E7 ; 1.442036267569151E10 ; 0.0
81 ; 557763.7231373247 ; 2.0072575233556584E8 ; 3.680931003417382E7 ; 1.462108315017144E10 ; 0.0
82 ; 558130.7363384183 ; 2.0073102934064627E8 ; 3.736707375731114E7 ; 1.4821808902507006E10 ; 0.0
83 ; 557181.3364950212 ; 2.0073630513145873E8 ; 3.7925204493649565E7 ; 1.5022539931847652E10 ; 0.0
84 ; 557601.7503056045 ; 2.007415793569529E8 ; 3.8482385830144584E7 ; 1.522327623697911E10 ; 0.0
85 ; 558308.7868386911 ; 2.007468516780124E8 ; 3.903998758045019E7 ; 1.5424017816336063E10 ; 0.0
86 ; 557654.0437135265 ; 2.0075212176677525E8 ; 3.959829636728888E7 ; 1.5624764668014076E10 ; 0.0
87 ; 558792.0924780648 ; 2.0075738930600035E8 ; 4.0155950411002405E7 ; 1.5825516789780851E10 ; 0.0
88 ; 558758.2426587263 ; 2.0076265398847583E8 ; 4.071474250348047E7 ; 1.6026274179086851E10 ; 0.0
89 ; 558467.7518569105 ; 2.007679155164664E8 ; 4.12735007461392E7 ; 1.6227036833075327E10 ; 0.0
90 ; 557701.1000555285 ; 2.0077317360119715E8 ; 4.183196849799611E7 ; 1.6427804748591793E10 ; 0.0
91 ; 557967.1625781032 ; 2.0077842796237046E8 ; 4.238966959805164E7 ; 1.662857792219299E10 ; 0.0
92 ; 558849.1694399538 ; 2.0078367832771423E8 ; 4.294763676062974E7 ; 1.682935635015536E10 ; 0.0
93 ; 559352.0319283304 ; 2.007889244325588E8 ; 4.35064859300697E7 ; 1.7030140028483074E10 ; 0.0
94 ; 557795.0341758558 ; 2.0079416601944062E8 ; 4.406583796199803E7 ; 1.7230928952915634E10 ; 0.0
95 ; 558625.7016071812 ; 2.007994028377308E8 ; 4.462363299617389E7 ; 1.7431723118935074E10 ; 0.0
96 ; 558039.5649656082 ; 2.0080463464328665E8 ; 4.518225869778107E7 ; 1.7632522521772804E10 ; 0.0
97 ; 558311.4908273147 ; 2.0080986119812492E8 ; 4.574029826274668E7 ; 1.7833327156416092E10 ; 0.0
98 ; 558891.9864610315 ; 2.008150822701147E8 ; 4.629860975357399E7 ; 1.8034137017614216E10 ; 0.0
99 ; 558434.6061879784 ; 2.0082029763268912E8 ; 4.685750174003502E7 ; 1.823495209988433E10 ; 0.0
100 ; 557665.569773677 ; 2.008255070645745E8 ; 4.7415936346223E7 ; 1.843577239751702E10 ; 0.0
101 ; 557905.0972207142 ; 2.0083071034953535E8 ; 4.797360191599667E7 ; 1.8636597904581596E10 ; 0.0
102 ; 557133.7112206467 ; 2.0083590727613473E8 ; 4.853150701321738E7 ; 1.8837428614931133E10 ; 0.0
103 ; 557726.8449504394 ; 2.0084109763750848E8 ; 4.908864072443803E7 ; 1.9038264522207268E10 ; 0.0
104 ; 557747.7918441329 ; 2.0084628123115268E8 ; 4.9646367569388464E7 ; 1.9239105619844776E10 ; 0.0
105 ; 557347.4269473251 ; 2.008514578587235E8 ; 5.020411536123259E7 ; 1.9439951901075928E10 ; 0.0
106 ; 557091.4038458696 ; 2.0085662732584816E8 ; 5.076146278817992E7 ; 1.964080335893465E10 ; 0.0
107 ; 557096.9121732232 ; 2.0086178944194713E8 ; 5.131855419202579E7 ; 1.9841659986260498E10 ; 0.0
108 ; 555784.0744897553 ; 2.0086694402006593E8 ; 5.1875651104199015E7 ; 2.0042521775702446E10 ; 0.0
109 ; 555910.5587580954 ; 2.0087209087671667E8 ; 5.243143517868877E7 ; 2.024338871972251E10 ; 0.0
110 ; 556411.5429306854 ; 2.00877229831728E8 ; 5.298734573744687E7 ; 2.0444260810599228E10 ; 0.0
111 ; 555314.9647545068 ; 2.008823607081039E8 ; 5.354375728037755E7 ; 2.0645138040430958E10 ; 0.0
112 ; 554418.8259826261 ; 2.0088748333188966E8 ; 5.409907224513206E7 ; 2.084602040113906E10 ; 0.0
113 ; 555352.3607158124 ; 2.008925975320454E8 ; 5.465349107111468E7 ; 2.104690788447095E10 ; 0.0
114 ; 554115.4976551286 ; 2.0089770314032647E8 ; 5.5208843431830496E7 ; 2.1247800482003E10 ; 0.0
115 ; 554654.3422418498 ; 2.0090279999117014E8 ; 5.576295892948563E7 ; 2.1448698185143326E10 ; 0.0
116 ; 554460.9985674754 ; 2.0090788792158818E8 ; 5.631761327172747E7 ; 2.1649600985134495E10 ; 0.0
117 ; 554384.5414796384 ; 2.0091296677106553E8 ; 5.687207427029495E7 ; 2.1850508873056084E10 ; 0.0
118 ; 553449.0017587651 ; 2.009180363814638E8 ; 5.742645881177459E7 ; 2.205142183982715E10 ; 0.0
119 ; 552646.4234678603 ; 2.009230965969302E8 ; 5.797990781353335E7 ; 2.225233987620861E10 ; 0.0
120 ; 551826.9526101482 ; 2.0092814726381084E8 ; 5.853255423700121E7 ; 2.2453262972805542E10 ; 0.0
121 ; 552014.1178662597 ; 2.0093318823056877E8 ; 5.908438118961136E7 ; 2.265419112006935E10 ; 0.0
122 ; 550915.8968811695 ; 2.0093821934770602E8 ; 5.963639530747762E7 ; 2.285512430829992E10 ; 0.0
123 ; 549938.1891507701 ; 2.0094324046768966E8 ; 6.0187311204358794E7 ; 2.3056062527647625E10 ; 0.0
124 ; 550223.5730255917 ; 2.0094825144488162E8 ; 6.073724939350957E7 ; 2.3257005768115314E10 ; 0.0
125 ; 549168.370690185 ; 2.0095325213547185E8 ; 6.128747296653516E7 ; 2.3457954019560196E10 ; 0.0
126 ; 549709.0132647981 ; 2.0095824239741513E8 ; 6.183664133722534E7 ; 2.3658907271695667E10 ; 0.0
127 ; 547496.6739221726 ; 2.0096322209037063E8 ; 6.238635035049014E7 ; 2.3859865514093082E10 ; 0.0
128 ; 547712.7035877787 ; 2.0096819107564473E8 ; 6.293384702441231E7 ; 2.4060828736183453E10 ; 0.0
129 ; 547286.4971868675 ; 2.009731492161365E8 ; 6.348155972800009E7 ; 2.4261796927259098E10 ; 0.0
130 ; 545754.1857256553 ; 2.0097809637628573E8 ; 6.402884622518696E7 ; 2.4462770076475235E10 ; 0.0
131 ; 545359.2949968096 ; 2.009830324220239E8 ; 6.457460041091261E7 ; 2.466374817285152E10 ; 0.0
132 ; 544168.4888764846 ; 2.0098795722072676E8 ; 6.511995970590942E7 ; 2.4864731205273544E10 ; 0.0
133 ; 541436.4147947048 ; 2.0099287064116997E8 ; 6.566412819478591E7 ; 2.506571916249427E10 ; 0.0
134 ; 540153.5877838016 ; 2.0099777255348632E8 ; 6.620556460958061E7 ; 2.526671203313544E10 ; 0.0
135 ; 539846.526810731 ; 2.010026628291251E8 ; 6.674571819736441E7 ; 2.5467709805688927E10 ; 0.0
136 ; 538214.604082016 ; 2.0100754134081352E8 ; 6.728556472417514E7 ; 2.566871246851805E10 ; 0.0
137 ; 537467.1342838485 ; 2.0101240796251974E8 ; 6.782377932825716E7 ; 2.5869720009858864E10 ; 0.0
138 ; 533951.9908691003 ; 2.0101726256941772E8 ; 6.836124646254101E7 ; 2.6070732417821384E10 ; 0.0
139 ; 532988.2672237327 ; 2.0102210503785366E8 ; 6.889519845341012E7 ; 2.62717496803908E10 ; 0.0
140 ; 531372.2732663387 ; 2.010269352453141E8 ; 6.942818672063385E7 ; 2.6472771785428654E10 ; 0.0
141 ; 530790.686418084 ; 2.0103175307039523E8 ; 6.99595589939002E7 ; 2.667379872067397E10 ; 0.0
142 ; 529154.3817467496 ; 2.0103655839277387E8 ; 7.049034968031828E7 ; 2.6874830473744366E10 ; 0.0
143 ; 526738.0347596945 ; 2.0104135109317958E8 ; 7.101950406206504E7 ; 2.707586703213714E10 ; 0.0
144 ; 526178.1335315909 ; 2.0104613105336818E8 ; 7.154624209682474E7 ; 2.7276908383230316E10 ; 0.0
145 ; 524995.1008834937 ; 2.0105089815609625E8 ; 7.207242023035632E7 ; 2.7477954514283684E10 ; 0.0
146 ; 523647.1062849269 ; 2.0105565228509706E8 ; 7.259741533123982E7 ; 2.767900541243978E10 ; 0.0
147 ; 524258.8470568191 ; 2.0106039332505736E8 ; 7.312106243752475E7 ; 2.7880061064724876E10 ; 0.0
148 ; 522930.85102406936 ; 2.0106512116159517E8 ; 7.364532128458157E7 ; 2.8081121458049934E10 ; 0.0
149 ; 521595.86385470064 ; 2.010698356812388E8 ; 7.416825213560565E7 ; 2.828218657921153E10 ; 0.0
150 ; 522622.9882565913 ; 2.0107453677140656E8 ; 7.468984799946035E7 ; 2.848325641489277E10 ; 0.0
151 ; 521104.46672325884 ; 2.0107922432038742E8 ; 7.521247098771694E7 ; 2.8684330951664177E10 ; 0.0
152 ; 519226.0306210373 ; 2.0108389821732262E8 ; 7.57335754544402E7 ; 2.8885410175984566E10 ; 0.0
153 ; 519295.3884395434 ; 2.0108855835218793E8 ; 7.625280148506124E7 ; 2.908649407420189E10 ; 0.0
154 ; 519037.77468112943 ; 2.0109320461577684E8 ; 7.677209687350078E7 ; 2.9287582632554077E10 ; 0.0
155 ; 518375.8754411106 ; 2.0109783689968428E8 ; 7.729113464818192E7 ; 2.9488675837169853E10 ; 0.0
156 ; 517599.6481847766 ; 2.011024550962913E8 ; 7.780951052362302E7 ; 2.968977367406954E10 ; 0.0
157 ; 518070.5105561245 ; 2.0110705909875023E8 ; 7.83271101718078E7 ; 2.989087612916583E10 ; 0.0
158 ; 515810.39894778654 ; 2.011116488009704E8 ; 7.884518068236393E7 ; 3.009198318826458E10 ; 0.0
159 ; 516990.91801798966 ; 2.0111622409760487E8 ; 7.936099108131172E7 ; 3.029309483706555E10 ; 0.0
160 ; 515366.47342648933 ; 2.0112078488403714E8 ; 7.98779819993297E7 ; 3.049421106116316E10 ; 0.0
161 ; 515107.45166915446 ; 2.0112533105636898E8 ; 8.039334847275619E7 ; 3.0695331846047195E10 ; 0.0
162 ; 514420.67673831485 ; 2.0112986251140854E8 ; 8.090845592442535E7 ; 3.0896457177103565E10 ; 0.0
163 ; 513327.1075547767 ; 2.0113437914665875E8 ; 8.142287660116367E7 ; 3.1097587039614975E10 ; 0.0
164 ; 513231.0745060474 ; 2.0113888086030677E8 ; 8.193620370871845E7 ; 3.1298721418761635E10 ; 0.0
165 ; 512521.4949077825 ; 2.0114336755121323E8 ; 8.24494347832245E7 ; 3.149986029962194E10 ; 0.0
166 ; 511528.65737192926 ; 2.0114783911890256E8 ; 8.296195627813227E7 ; 3.1701003667173153E10 ; 0.0
167 ; 512008.72814107785 ; 2.011522954635532E8 ; 8.34734849355042E7 ; 3.1902151506292057E10 ; 0.0
168 ; 510866.3250686582 ; 2.0115673648598844E8 ; 8.398549366364528E7 ; 3.210330380175561E10 ; 0.0
169 ; 510285.4392865448 ; 2.0116116208766797E8 ; 8.449635998871394E7 ; 3.23044605382416E10 ; 0.0
170 ; 508834.2739537299 ; 2.0116557217067903E8 ; 8.500664542800048E7 ; 3.250562170032927E10 ; 0.0
171 ; 508578.58885293495 ; 2.0116996663772878E8 ; 8.551547970195422E7 ; 3.2706787272499947E10 ; 0.0
172 ; 508073.75269957056 ; 2.011743453921363E8 ; 8.602405829080716E7 ; 3.2907957239137676E10 ; 0.0
173 ; 507817.9848152883 ; 2.0117870833782542E8 ; 8.653213204350673E7 ; 3.310913158452981E10 ; 0.0
174 ; 507640.12948265113 ; 2.0118305537931755E8 ; 8.703995002832201E7 ; 3.3310310292867638E10 ; 0.0
175 ; 506826.65236679156 ; 2.0118738642172498E8 ; 8.754759015780467E7 ; 3.3511493348246956E10 ; 0.0
176 ; 506284.54079843906 ; 2.0119170137074438E8 ; 8.805441681017146E7 ; 3.3712680734668682E10 ; 0.0
177 ; 506033.58414557367 ; 2.011960001326506E8 ; 8.85607013509699E7 ; 3.3913872436039425E10 ; 0.0
178 ; 505945.19275101234 ; 2.0120028261429077E8 ; 8.906673493511547E7 ; 3.4115068436172077E10 ; 0.0
179 ; 504844.40474125894 ; 2.0120454872307858E8 ; 8.957268012786648E7 ; 3.431626871878637E10 ; 0.0
180 ; 504861.3069862432 ; 2.0120879836698887E8 ; 9.007752453260773E7 ; 3.4517473267509445E10 ; 0.0
181 ; 505201.2349066333 ; 2.0121303145455235E8 ; 9.058238583959398E7 ; 3.4718682065876434E10 ; 0.0
182 ; 502724.8633599462 ; 2.0121724789485082E8 ; 9.10875870745006E7 ; 3.4919895097330986E10 ; 0.0
183 ; 503922.70469920395 ; 2.0122144759751216E8 ; 9.159031193786055E7 ; 3.512111234522584E10 ; 0.0
184 ; 502062.8348311314 ; 2.0122563047270584E8 ; 9.209423464255975E7 ; 3.532233379282335E10 ; 0.0
185 ; 503192.66695980605 ; 2.0122979643113872E8 ; 9.259629747739089E7 ; 3.552355942329605E10 ; 0.0
186 ; 502035.93919927115 ; 2.0123394538405067E8 ; 9.30994901443507E7 ; 3.572478921972719E10 ; 0.0
187 ; 501618.7993933601 ; 2.0123807724321064E8 ; 9.360152608354996E7 ; 3.592602316511124E10 ; 0.0
188 ; 500176.2378808391 ; 2.0124219192091292E8 ; 9.410314488294332E7 ; 3.612726124235445E10 ; 0.0
189 ; 500960.54784094467 ; 2.012462893299733E8 ; 9.460332112082416E7 ; 3.632850343427536E10 ; 0.0
190 ; 499910.9339243628 ; 2.012503693837259E8 ; 9.51042816686651E7 ; 3.652974972360533E10 ; 0.0
191 ; 499070.18355809664 ; 2.012544319960195E8 ; 9.560419260258946E7 ; 3.673100009298906E10 ; 0.0
192 ; 499271.60718254745 ; 2.0125847708121458E8 ; 9.610326278614755E7 ; 3.693225452498508E10 ; 0.0
193 ; 499859.7996333648 ; 2.0126250455418012E8 ; 9.66025343933301E7 ; 3.713351300206629E10 ; 0.0
194 ; 499848.89992914646 ; 2.0126651433029085E8 ; 9.710239419296347E7 ; 3.733477550662047E10 ; 0.0
195 ; 497699.1510148557 ; 2.0127050632542443E8 ; 9.760224309289262E7 ; 3.753604202095076E10 ; 0.0
196 ; 496475.43447028665 ; 2.0127448045595872E8 ; 9.809994224390747E7 ; 3.7737312527276184E10 ; 0.0
197 ; 497083.0002497446 ; 2.0127843663876936E8 ; 9.859641767837775E7 ; 3.793858700773214E10 ; 0.0
198 ; 497064.75772996957 ; 2.012823747912273E8 ; 9.909350067862749E7 ; 3.813986544437091E10 ; 0.0
199 ; 496326.398407809 ; 2.012862948311966E8 ; 9.959056543635745E7 ; 3.834114781916214E10 ; 0.0
200 ; 494752.400135544 ; 2.0129019667703217E8 ; 1.0008689183476526E8 ; 3.854243411399334E10 ; 0.0
201 ; 495238.90246908145 ; 2.0129408024757767E8 ; 1.005816442349008E8 ; 3.874372431067037E10 ; 0.0
