CSV File for the City 1 on Day 73
1 - Minute m 
2 - Power Consumed at minute m 
3 - Power Produced at minute m 
4 - Energy Consumed since the beginning of the day 
5 - Energy Produced since the beginning of the day 
6 - Energy Lost since the beginning of the day on lines starting from the city
 
0 ; 1.601865057392656E7 ; 1.0549168697590134E8 ; 0.0 ; 0.0 ; 0.0
1 ; 1.603606912053282E7 ; 1.056446028046413E8 ; 1.601865057392656E7 ; 1.0549168697590134E8 ; 0.0
2 ; 1.6052621594028987E7 ; 1.0610630312346831E8 ; 3.205471969445938E7 ; 2.1113628978054264E8 ; 0.0
3 ; 1.6071563218744311E7 ; 1.0687678968216258E8 ; 4.8107341288488366E7 ; 3.1724259290401095E8 ; 0.0
4 ; 1.6094331007968824E7 ; 1.0795606405293083E8 ; 6.417890450723268E7 ; 4.2411938258617353E8 ; 0.0
5 ; 1.612251156015844E7 ; 1.0934412762032413E8 ; 8.027323551520151E7 ; 5.3207544663910437E8 ; 0.0
6 ; 1.6162064185901009E7 ; 1.1104098157216051E8 ; 9.639574707535996E7 ; 6.414195742594285E8 ; 0.0
7 ; 1.6215755550139531E7 ; 1.1304662689158851E8 ; 1.1255781126126096E8 ; 7.52460555831589E8 ; 0.0
8 ; 1.6293628548035886E7 ; 1.1536106435041285E8 ; 1.2877356681140049E8 ; 8.655071827231774E8 ; 0.0
9 ; 1.6410417632698873E7 ; 1.1798429450378835E8 ; 1.4506719535943636E8 ; 9.808682470735903E8 ; 0.0
10 ; 1.6592927624278896E7 ; 1.2091631768636727E8 ; 1.6147761299213523E8 ; 1.0988525415773787E9 ; 0.0
11 ; 1.6877962162098017E7 ; 1.2415713400996122E8 ; 1.7807054061641413E8 ; 1.219768859263746E9 ; 0.0
12 ; 1.734123257532373E7 ; 1.2770674336275855E8 ; 1.9494850277851215E8 ; 1.3439259932737072E9 ; 0.0
13 ; 1.778635521385068E7 ; 1.3156514541010702E8 ; 2.1228973535383588E8 ; 1.4716327366364658E9 ; 0.0
14 ; 1.7843200660616517E7 ; 1.357323395968519E8 ; 2.3007609056768656E8 ; 1.6031978820465727E9 ; 0.0
15 ; 1.7863146603284467E7 ; 1.402083251511883E8 ; 2.4791929122830307E8 ; 1.7389302216434245E9 ; 0.0
16 ; 1.7882172412621517E7 ; 1.4499310108996788E8 ; 2.6578243783158755E8 ; 1.879138546794613E9 ; 0.0
17 ; 1.7903942810168885E7 ; 1.5008666622537246E8 ; 2.8366461024420905E8 ; 2.0241316478845809E9 ; 0.0
18 ; 1.792468339980468E7 ; 1.5548901917285103E8 ; 3.015685530543779E8 ; 2.1742183141099534E9 ; 0.0
19 ; 1.7945209629899E7 ; 1.6120015836019686E8 ; 3.194932364541826E8 ; 2.3297073332828045E9 ; 0.0
20 ; 1.7966357003851034E7 ; 1.672200820376297E8 ; 3.3743844608408165E8 ; 2.4909074916430016E9 ; 0.0
21 ; 1.798785195668309E7 ; 1.7354878828873554E8 ; 3.554048030879327E8 ; 2.658127573680631E9 ; 0.0
22 ; 1.8009015285872314E7 ; 1.8018627504211217E8 ; 3.733926550446158E8 ; 2.8316763619693666E9 ; 0.0
23 ; 1.8030719725518856E7 ; 1.8713254008356434E8 ; 3.9140167033048815E8 ; 3.011862637011479E9 ; 0.0
24 ; 1.8048900302295417E7 ; 1.9438758106869256E8 ; 4.09432390056007E8 ; 3.198995177095043E9 ; 0.0
25 ; 1.8072028076722313E7 ; 2.0063943643390816E8 ; 4.274812903583025E8 ; 3.393382758163736E9 ; 0.0
26 ; 1.8090136458183777E7 ; 2.0064165144625798E8 ; 4.455533184350248E8 ; 3.594022194597644E9 ; 0.0
27 ; 1.8115604399651527E7 ; 2.006439927412171E8 ; 4.6364345489320856E8 ; 3.794663846043902E9 ; 0.0
28 ; 1.813062790924886E7 ; 2.0064645758218646E8 ; 4.817590592928601E8 ; 3.995307838785119E9 ; 0.0
29 ; 1.8152748733110394E7 ; 2.0064904316618577E8 ; 4.99889687202109E8 ; 4.1959542963673058E9 ; 0.0
30 ; 1.8172324229963288E7 ; 2.0065174663592407E8 ; 5.1804243593521935E8 ; 4.396603339533491E9 ; 0.0
31 ; 1.8194343054892592E7 ; 2.0065456509140757E8 ; 5.3621476016518265E8 ; 4.597255086169415E9 ; 0.0
32 ; 1.820764231632939E7 ; 2.006574956010131E8 ; 5.544091032200752E8 ; 4.797909651260823E9 ; 0.0
33 ; 1.8227439334931657E7 ; 2.0066053521196982E8 ; 5.726167455364046E8 ; 4.998567146861836E9 ; 0.0
34 ; 1.8248307815960933E7 ; 2.0066368096020502E8 ; 5.908441848713362E8 ; 5.199227682073806E9 ; 0.0
35 ; 1.825764498786667E7 ; 2.0066692987952253E8 ; 6.090924926872971E8 ; 5.399891363034011E9 ; 0.0
36 ; 1.8280312779782217E7 ; 2.006702790100942E8 ; 6.273501376751637E8 ; 5.600558292913533E9 ; 0.0
37 ; 1.8290835209802072E7 ; 2.006737254062554E8 ; 6.456304504549459E8 ; 5.801228571923628E9 ; 0.0
38 ; 1.830873590158249E7 ; 2.006772661436056E8 ; 6.63921285664748E8 ; 6.001902297329884E9 ; 0.0
39 ; 1.832797616681049E7 ; 2.0068089832542175E8 ; 6.822300215663304E8 ; 6.202579563473489E9 ; 0.0
40 ; 1.8341668812624976E7 ; 2.0068461908840188E8 ; 7.00557997733141E8 ; 6.40326046179891E9 ; 0.0
41 ; 1.8354908699856844E7 ; 2.0068842560775945E8 ; 7.188996665457659E8 ; 6.603945080887312E9 ; 0.0
42 ; 1.836156978113805E7 ; 2.006923151016958E8 ; 7.372545752456228E8 ; 6.804633506495071E9 ; 0.0
43 ; 1.83767170531923E7 ; 2.0069628483528084E8 ; 7.556161450267608E8 ; 7.005325821596767E9 ; 0.0
44 ; 1.8383592642504673E7 ; 2.0070033212377486E8 ; 7.739928620799531E8 ; 7.206022106432048E9 ; 0.0
45 ; 1.839807063550775E7 ; 2.007044543354268E8 ; 7.923764547224578E8 ; 7.406722438555822E9 ; 0.0
46 ; 1.8409151369223848E7 ; 2.0070864889378467E8 ; 8.107745253579655E8 ; 7.607426892891249E9 ; 0.0
47 ; 1.8414875297456037E7 ; 2.007129132795548E8 ; 8.291836767271893E8 ; 7.808135541785033E9 ; 0.0
48 ; 1.8423655836826187E7 ; 2.0071724503204647E8 ; 8.475985520246453E8 ; 8.008848455064588E9 ; 0.0
49 ; 1.843227049291825E7 ; 2.0072164175023744E8 ; 8.660222078614715E8 ; 8.209565700096634E9 ; 0.0
50 ; 1.8438111741945412E7 ; 2.007261010934956E8 ; 8.844544783543898E8 ; 8.410287341846871E9 ; 0.0
51 ; 1.8443169898685392E7 ; 2.0073062078199008E8 ; 9.028925900963352E8 ; 8.611013442940367E9 ; 0.0
52 ; 1.8448631834174316E7 ; 2.007351985968239E8 ; 9.213357599950205E8 ; 8.811744063722357E9 ; 0.0
53 ; 1.845365172482334E7 ; 2.0073983237991858E8 ; 9.397843918291948E8 ; 9.012479262319181E9 ; 0.0
54 ; 1.8455996415373877E7 ; 2.0074452003367952E8 ; 9.582380435540181E8 ; 9.2132190946991E9 ; 0.0
55 ; 1.8465120706479613E7 ; 2.007492595204684E8 ; 9.766940399693921E8 ; 9.41396361473278E9 ; 0.0
56 ; 1.846594422557705E7 ; 2.00754048861908E8 ; 9.951591606758717E8 ; 9.614712874253248E9 ; 0.0
57 ; 1.8472672868392725E7 ; 2.0075888613804176E8 ; 1.0136251049014487E9 ; 9.815466923115156E9 ; 0.0
58 ; 1.8477130687493987E7 ; 2.0076376948636994E8 ; 1.0320977777698414E9 ; 1.0016225809253199E10 ; 0.0
59 ; 1.8480258173973754E7 ; 2.007686971007806E8 ; 1.0505749084573355E9 ; 1.0216989578739569E10 ; 0.0
60 ; 1.8488534431493696E7 ; 2.0077366723039418E8 ; 1.0690551666313093E9 ; 1.041775827584035E10 ; 0.0
61 ; 1.848912722820482E7 ; 2.007786781783364E8 ; 1.087543701062803E9 ; 1.0618531943070744E10 ; 0.0
62 ; 1.848963692017861E7 ; 2.0078372830045465E8 ; 1.1060328282910078E9 ; 1.081931062124908E10 ; 0.0
63 ; 1.8494577209554926E7 ; 2.007888160039899E8 ; 1.1245224652111864E9 ; 1.1020094349549536E10 ; 0.0
64 ; 1.8500255883163262E7 ; 2.007939397462167E8 ; 1.1430170424207413E9 ; 1.1220883165553526E10 ; 0.0
65 ; 1.850443071287713E7 ; 2.0079909803306E8 ; 1.1615172983039045E9 ; 1.1421677105299742E10 ; 0.0
66 ; 1.8506563520041354E7 ; 2.0080428941769913E8 ; 1.1800217290167816E9 ; 1.1622476203332802E10 ; 0.0
67 ; 1.850772574763641E7 ; 2.0080951249916583E8 ; 1.198528292536823E9 ; 1.1823280492750502E10 ; 0.0
68 ; 1.8513118339545894E7 ; 2.0081476592094406E8 ; 1.2170360182844594E9 ; 1.2024090005249668E10 ; 0.0
69 ; 1.8509176500714887E7 ; 2.008200483695767E8 ; 1.2355491366240053E9 ; 1.2224904771170612E10 ; 0.0
70 ; 1.8513576495636594E7 ; 2.0082535857328516E8 ; 1.25405831312472E9 ; 1.242572481954019E10 ; 0.0
71 ; 1.8518420414575707E7 ; 2.0083069530060583E8 ; 1.2725718896203568E9 ; 1.2626550178113476E10 ; 0.0
72 ; 1.8518777998176437E7 ; 2.0083605735904714E8 ; 1.2910903100349326E9 ; 1.2827380873414082E10 ; 0.0
73 ; 1.8522499493009474E7 ; 2.0084144359377068E8 ; 1.309609088033109E9 ; 1.3028216930773129E10 ; 0.0
74 ; 1.8521380786650248E7 ; 2.0084685288629857E8 ; 1.3281315875261185E9 ; 1.32290583743669E10 ; 0.0
75 ; 1.8526702705941238E7 ; 2.0085228415324956E8 ; 1.3466529683127687E9 ; 1.3429905227253199E10 ; 0.0
76 ; 1.85252524431518E7 ; 2.0085773634510544E8 ; 1.36517967101871E9 ; 1.3630757511406448E10 ; 0.0
77 ; 1.8526580682776894E7 ; 2.0086320844500896E8 ; 1.3837049234618616E9 ; 1.3831615247751554E10 ; 0.0
78 ; 1.852080361131229E7 ; 2.0086869946759441E8 ; 1.4022315041446385E9 ; 1.4032478456196564E10 ; 0.0
79 ; 1.851450127519841E7 ; 2.008742084578516E8 ; 1.420752307755951E9 ; 1.4233347155664158E10 ; 0.0
80 ; 1.8511627700753883E7 ; 2.0087973449002326E8 ; 1.4392668090311494E9 ; 1.443422136412201E10 ; 0.0
81 ; 1.8507460564303994E7 ; 2.0088527666653687E8 ; 1.4577784367319033E9 ; 1.4635101098612032E10 ; 0.0
82 ; 1.8502445529065568E7 ; 2.0089083411697E8 ; 1.4762858972962074E9 ; 1.4835986375278568E10 ; 0.0
83 ; 1.849855946493482E7 ; 2.0089640599704984E8 ; 1.494788342825273E9 ; 1.5036877209395538E10 ; 0.0
84 ; 1.8492357573478714E7 ; 2.009019914876859E8 ; 1.5132869022902079E9 ; 1.5237773615392588E10 ; 0.0
85 ; 1.848692381685495E7 ; 2.0090758979403636E8 ; 1.5317792598636866E9 ; 1.5438675606880274E10 ; 0.0
86 ; 1.8477141535017148E7 ; 2.0091320014460656E8 ; 1.5502661836805415E9 ; 1.563958319667431E10 ; 0.0
87 ; 1.8470542135198414E7 ; 2.009188217903799E8 ; 1.5687433252155588E9 ; 1.5840496396818916E10 ; 0.0
88 ; 1.8469048991188742E7 ; 2.0092445400397995E8 ; 1.5872138673507571E9 ; 1.6041415218609297E10 ; 0.0
89 ; 1.8461544498493064E7 ; 2.009300960788632E8 ; 1.605682916341946E9 ; 1.6242339672613277E10 ; 0.0
90 ; 1.8457138260449093E7 ; 2.00935747328542E8 ; 1.6241444608404388E9 ; 1.644326976869214E10 ; 0.0
91 ; 1.844923119117949E7 ; 2.0094140708583626E8 ; 1.642601599100888E9 ; 1.6644205516020683E10 ; 0.0
92 ; 1.8442943339767713E7 ; 2.0094707470215377E8 ; 1.6610508302920675E9 ; 1.684514692310652E10 ; 0.0
93 ; 1.843330990820028E7 ; 2.009527495467978E8 ; 1.6794937736318352E9 ; 1.7046093997808674E10 ; 0.0
94 ; 1.8429893284288086E7 ; 2.0095843100630146E8 ; 1.6979270835400355E9 ; 1.7247046747355473E10 ; 0.0
95 ; 1.8420941943693634E7 ; 2.0096411848378778E8 ; 1.7163569768243237E9 ; 1.7448005178361774E10 ; 0.0
96 ; 1.8414768598700486E7 ; 2.009698113983546E8 ; 1.7347779187680173E9 ; 1.7648969296845562E10 ; 0.0
97 ; 1.8406886089652933E7 ; 2.009755091844839E8 ; 1.7531926873667178E9 ; 1.7849939108243916E10 ; 0.0
98 ; 1.8396485635556124E7 ; 2.0098121129147395E8 ; 1.7715995734563708E9 ; 1.80509146174284E10 ; 0.0
99 ; 1.8388717597898405E7 ; 2.0098691718289426E8 ; 1.789996059091927E9 ; 1.825189582871987E10 ; 0.0
100 ; 1.838103165812279E7 ; 2.009926263360618E8 ; 1.8083847766898255E9 ; 1.8452882745902767E10 ; 0.0
101 ; 1.8374654684880916E7 ; 2.0099833824153832E8 ; 1.8267658083479483E9 ; 1.865387537223883E10 ; 0.0
102 ; 1.8365587805368572E7 ; 2.010040524026475E8 ; 1.8451404630328293E9 ; 1.885487371048037E10 ; 0.0
103 ; 1.8356192713970475E7 ; 2.0100976833501154E8 ; 1.863506050838198E9 ; 1.905587776288302E10 ; 0.0
104 ; 1.8347252370429356E7 ; 2.010154855661062E8 ; 1.8818622435521684E9 ; 1.925688753121803E10 ; 0.0
105 ; 1.8335122474876326E7 ; 2.0102120363483363E8 ; 1.9002094959225976E9 ; 1.9457903016784134E10 ; 0.0
106 ; 1.832624140576869E7 ; 2.010269220911123E8 ; 1.918544618397474E9 ; 1.965892422041897E10 ; 0.0
107 ; 1.831907730594064E7 ; 2.0103264049548346E8 ; 1.9368708598032427E9 ; 1.9859951142510082E10 ; 0.0
108 ; 1.8306282024281476E7 ; 2.0103835841873342E8 ; 1.9551899371091833E9 ; 2.0060983783005566E10 ; 0.0
109 ; 1.8301295202471815E7 ; 2.010440754415307E8 ; 1.9734962191334648E9 ; 2.0262022141424297E10 ; 0.0
110 ; 1.8289169878674038E7 ; 2.010497911540781E8 ; 1.9917975143359365E9 ; 2.046306621686583E10 ; 0.0
111 ; 1.827433032839872E7 ; 2.010555051557784E8 ; 2.0100866842146106E9 ; 2.066411600801991E10 ; 0.0
112 ; 1.8267840145228524E7 ; 2.010612170549136E8 ; 2.0283610145430093E9 ; 2.0865171513175686E10 ; 0.0
113 ; 1.825904043196076E7 ; 2.01066926468337E8 ; 2.046628854688238E9 ; 2.10662327302306E10 ; 0.0
114 ; 1.8246306070791163E7 ; 2.0107263302117738E8 ; 2.0648878951201987E9 ; 2.1267299656698936E10 ; 0.0
115 ; 1.823755078816013E7 ; 2.0107833634655535E8 ; 2.08313420119099E9 ; 2.1468372289720116E10 ; 0.0
116 ; 1.822699639752267E7 ; 2.0108403608531064E8 ; 2.10137175197915E9 ; 2.166945062606667E10 ; 0.0
117 ; 1.8216566267960113E7 ; 2.0108973188574028E8 ; 2.1195987483766727E9 ; 2.187053466215198E10 ; 0.0
118 ; 1.8205892075548697E7 ; 2.0109542340334755E8 ; 2.1378153146446328E9 ; 2.207162439403772E10 ; 0.0
119 ; 1.819053361598616E7 ; 2.0110111030060023E8 ; 2.1560212067201815E9 ; 2.2272719817441067E10 ; 0.0
120 ; 1.8180997891880993E7 ; 2.011067922466991E8 ; 2.174211740336168E9 ; 2.247382092774167E10 ; 0.0
121 ; 1.816938373192596E7 ; 2.0111246891735497E8 ; 2.192392738228049E9 ; 2.267492771998837E10 ; 0.0
122 ; 1.8158841461826168E7 ; 2.011181399945749E8 ; 2.210562121959975E9 ; 2.2876040188905724E10 ; 0.0
123 ; 1.814191673207505E7 ; 2.0112380516645658E8 ; 2.228720963421801E9 ; 2.30771583289003E10 ; 0.0
124 ; 1.813636338626221E7 ; 2.0112946412699085E8 ; 2.2468628801538763E9 ; 2.3278282134066757E10 ; 0.0
125 ; 1.812111046938602E7 ; 2.0113511657587206E8 ; 2.2649992435401387E9 ; 2.347941159819375E10 ; 0.0
126 ; 1.8108000909996513E7 ; 2.011407622183154E8 ; 2.283120354009525E9 ; 2.368054671476962E10 ; 0.0
127 ; 1.809379445022922E7 ; 2.0114640076488188E8 ; 2.3012283549195213E9 ; 2.3881687476987934E10 ; 0.0
128 ; 1.8077868711227484E7 ; 2.011520319313097E8 ; 2.3193221493697505E9 ; 2.4082833877752815E10 ; 0.0
129 ; 1.807378025213789E7 ; 2.0115765543835217E8 ; 2.337400018080978E9 ; 2.4283985909684124E10 ; 0.0
130 ; 1.8048040309868783E7 ; 2.0116327101162216E8 ; 2.3554737983331156E9 ; 2.4485143565122475E10 ; 0.0
131 ; 1.803103247842641E7 ; 2.0116887838144204E8 ; 2.3735218386429844E9 ; 2.4686306836134098E10 ; 0.0
132 ; 1.8012272243715715E7 ; 2.0117447728269994E8 ; 2.391552871121411E9 ; 2.488747571451554E10 ; 0.0
133 ; 1.7996530430149145E7 ; 2.011800674547109E8 ; 2.4095651433651266E9 ; 2.508865019179824E10 ; 0.0
134 ; 1.7975008579757728E7 ; 2.011856486410838E8 ; 2.4275616737952757E9 ; 2.5289830259252953E10 ; 0.0
135 ; 1.795590929213586E7 ; 2.0119122058959308E8 ; 2.4455366823750334E9 ; 2.5491015907894035E10 ; 0.0
136 ; 1.793747240999475E7 ; 2.011967830520553E8 ; 2.463492591667169E9 ; 2.5692207128483627E10 ; 0.0
137 ; 1.7914240085449427E7 ; 2.0120233578421047E8 ; 2.4814300640771637E9 ; 2.5893403911535683E10 ; 0.0
138 ; 1.7895764821781255E7 ; 2.012078785456078E8 ; 2.499344304162613E9 ; 2.6094606247319893E10 ; 0.0
139 ; 1.7872876588162035E7 ; 2.0121341109949556E8 ; 2.517240068984394E9 ; 2.62958141258655E10 ; 0.0
140 ; 1.785463500809816E7 ; 2.0121893321271545E8 ; 2.535112945572556E9 ; 2.6497027536964996E10 ; 0.0
141 ; 1.7836068146957282E7 ; 2.0122444465560037E8 ; 2.552967580580654E9 ; 2.669824647017771E10 ; 0.0
142 ; 1.781016494184131E7 ; 2.0122994520187643E8 ; 2.5708036487276115E9 ; 2.6899470914833313E10 ; 0.0
143 ; 1.7791540854658097E7 ; 2.0123543462856838E8 ; 2.5886138136694527E9 ; 2.710070086003519E10 ; 0.0
144 ; 1.7774773601932406E7 ; 2.0124091271590844E8 ; 2.606405354524111E9 ; 2.7301936294663757E10 ; 0.0
145 ; 1.7758394205392357E7 ; 2.012463792472487E8 ; 2.6241801281260433E9 ; 2.7503177207379665E10 ; 0.0
146 ; 1.7742564806624316E7 ; 2.0125183400897655E8 ; 2.6419385223314357E9 ; 2.7704423586626915E10 ; 0.0
147 ; 1.7730454461166374E7 ; 2.012572767904332E8 ; 2.65968108713806E9 ; 2.790567542063589E10 ; 0.0
148 ; 1.7715332478779394E7 ; 2.0126270738383532E8 ; 2.6774115415992265E9 ; 2.8106932697426323E10 ; 0.0
149 ; 1.7696279263208516E7 ; 2.0126812558419925E8 ; 2.695126874078006E9 ; 2.8308195404810158E10 ; 0.0
150 ; 1.76865781166869E7 ; 2.0127353118926823E8 ; 2.712823153341214E9 ; 2.8509463530394356E10 ; 0.0
151 ; 1.7669221217439517E7 ; 2.0127892399944207E8 ; 2.730509731457901E9 ; 2.8710737061583626E10 ; 0.0
152 ; 1.765215398911822E7 ; 2.012843038177093E8 ; 2.7481789526753407E9 ; 2.891201598558307E10 ; 0.0
153 ; 1.763806056330942E7 ; 2.0128967044958195E8 ; 2.7658311066644588E9 ; 2.911330028940078E10 ; 0.0
154 ; 1.7627068876364935E7 ; 2.012950237030325E8 ; 2.783469167227768E9 ; 2.931458995985036E10 ; 0.0
155 ; 1.7613456587205205E7 ; 2.0130036338843298E8 ; 2.8010962361041327E9 ; 2.9515884983553394E10 ; 0.0
156 ; 1.759537108318352E7 ; 2.0130568931849647E8 ; 2.818709692691338E9 ; 2.9717185346941826E10 ; 0.0
157 ; 1.758508122297548E7 ; 2.0131100130822054E8 ; 2.8363050637745214E9 ; 2.9918491036260323E10 ; 0.0
158 ; 1.7566768977115866E7 ; 2.013162991748325E8 ; 2.8538901449974966E9 ; 3.0119802037568542E10 ; 0.0
159 ; 1.755014537283785E7 ; 2.0132158273773697E8 ; 2.871456913974612E9 ; 3.0321118336743374E10 ; 0.0
160 ; 1.7537655946433462E7 ; 2.0132685181846485E8 ; 2.8890070593474503E9 ; 3.052243991948111E10 ; 0.0
161 ; 1.7519879759000123E7 ; 2.0133210624062437E8 ; 2.906544715293884E9 ; 3.0723766771299576E10 ; 0.0
162 ; 1.7509905210679643E7 ; 2.013373458298537E8 ; 2.924064595052884E9 ; 3.09250988775402E10 ; 0.0
163 ; 1.7491839604809806E7 ; 2.0134257041377518E8 ; 2.9415745002635636E9 ; 3.1126436223370052E10 ; 0.0
164 ; 1.747322782782558E7 ; 2.0134777982195127E8 ; 2.9590663398683734E9 ; 3.132777879378383E10 ; 0.0
165 ; 1.7462871850924496E7 ; 2.0135297388584185E8 ; 2.976539567696199E9 ; 3.152912657360578E10 ; 0.0
166 ; 1.744190474855209E7 ; 2.0135815243876305E8 ; 2.9940024395471234E9 ; 3.1730479547491623E10 ; 0.0
167 ; 1.742801644763697E7 ; 2.013633153158475E8 ; 3.0114443442956758E9 ; 3.1931837699930386E10 ; 0.0
168 ; 1.7409456005270015E7 ; 2.0136846235400596E8 ; 3.028872360743313E9 ; 3.2133201015246235E10 ; 0.0
169 ; 1.7394438133504033E7 ; 2.0137359339189014E8 ; 3.046281816748583E9 ; 3.2334569477600243E10 ; 0.0
170 ; 1.7378956460286353E7 ; 2.0137870826985693E8 ; 3.0636762548820868E9 ; 3.2535943070992134E10 ; 0.0
171 ; 1.7365778939249758E7 ; 2.0138380682993367E8 ; 3.081055211342373E9 ; 3.273732177926199E10 ; 0.0
172 ; 1.7344136775907908E7 ; 2.0138888891578472E8 ; 3.098420990281623E9 ; 3.2938705586091923E10 ; 0.0
173 ; 1.7332163764961984E7 ; 2.013939543726791E8 ; 3.115765127057531E9 ; 3.3140094475007706E10 ; 0.0
174 ; 1.73228685522154E7 ; 2.013990030474593E8 ; 3.133097290822493E9 ; 3.3341488429380386E10 ; 0.0
175 ; 1.7315741148261968E7 ; 2.014040347885109E8 ; 3.1504201593747087E9 ; 3.3542887432427845E10 ; 0.0
176 ; 1.7301606792238772E7 ; 2.014090494457334E8 ; 3.1677359005229707E9 ; 3.3744291467216354E10 ; 0.0
177 ; 1.72956855769746E7 ; 2.014140468705121E8 ; 3.1850375073152094E9 ; 3.3945700516662086E10 ; 0.0
178 ; 1.7283300972363997E7 ; 2.0141902691569057E8 ; 3.202333192892184E9 ; 3.41471145635326E10 ; 0.0
179 ; 1.7274146250225037E7 ; 2.0142398943554443E8 ; 3.2196164938645477E9 ; 3.434853359044829E10 ; 0.0
180 ; 1.7260245482590977E7 ; 2.0142893428575566E8 ; 3.236890640114773E9 ; 3.4549957579883835E10 ; 0.0
181 ; 1.7256137650170345E7 ; 2.0143386132338795E8 ; 3.254150885597364E9 ; 3.475138651416959E10 ; 0.0
182 ; 1.7243034781186372E7 ; 2.014387704068628E8 ; 3.2714070232475343E9 ; 3.495282037549298E10 ; 0.0
183 ; 1.7237392582622122E7 ; 2.0144366139593637E8 ; 3.288650058028721E9 ; 3.515425914589984E10 ; 0.0
184 ; 1.7224883243578795E7 ; 2.0144853415167722E8 ; 3.305887450611343E9 ; 3.535570280729578E10 ; 0.0
185 ; 1.7218135475208145E7 ; 2.0145338853644454E8 ; 3.323112333854922E9 ; 3.555715134144746E10 ; 0.0
186 ; 1.720594785352465E7 ; 2.0145822441386724E8 ; 3.34033046933013E9 ; 3.57586047299839E10 ; 0.0
187 ; 1.7196333778282914E7 ; 2.014630416488238E8 ; 3.357536417183655E9 ; 3.5960062954397766E10 ; 0.0
188 ; 1.718425553549955E7 ; 2.0146784010742253E8 ; 3.374732750961938E9 ; 3.616152599604659E10 ; 0.0
189 ; 1.7174213362479698E7 ; 2.0147261965698266E8 ; 3.3919170064974375E9 ; 3.6362993836154015E10 ; 0.0
190 ; 1.7160533252003502E7 ; 2.01477380166016E8 ; 3.409091219859917E9 ; 3.6564466455811E10 ; 0.0
191 ; 1.7154653124388393E7 ; 2.014821215042091E8 ; 3.426251753111921E9 ; 3.676594383597701E10 ; 0.0
192 ; 1.7148859229146425E7 ; 2.014868435424061E8 ; 3.443406406236309E9 ; 3.6967425957481224E10 ; 0.0
193 ; 1.713340363984199E7 ; 2.0149154615259206E8 ; 3.4605552654654555E9 ; 3.716891280102363E10 ; 0.0
194 ; 1.712425513969525E7 ; 2.0149622920787683E8 ; 3.4776886691052976E9 ; 3.737040434717622E10 ; 0.0
195 ; 1.7114706007389784E7 ; 2.0150089258247942E8 ; 3.4948129242449927E9 ; 3.75719005763841E10 ; 0.0
