CSV File for the City 6 on Day 225
1 - Minute m 
2 - Power Consumed at minute m 
3 - Power Produced at minute m 
4 - Energy Consumed since the beginning of the day 
5 - Energy Produced since the beginning of the day 
6 - Energy Lost since the beginning of the day on lines starting from the city
 
0 ; 801416.1519508745 ; 1.0537015557242844E8 ; 0.0 ; 0.0 ; 0.0
1 ; 812564.86040256 ; 1.055152983907252E8 ; 801416.1519508745 ; 1.0537015557242844E8 ; 0.0
2 ; 825528.8107579247 ; 1.059696739176192E8 ; 1613981.0123534345 ; 2.1088545396315363E8 ; 0.0
3 ; 842431.2422858529 ; 1.0673336597046185E8 ; 2439509.823111359 ; 3.168551278807728E8 ; 0.0
4 ; 856144.1205201312 ; 1.0780646620216966E8 ; 3281941.065397212 ; 4.235884938512347E8 ; 0.0
5 ; 875550.396499154 ; 1.0918907201623493E8 ; 4138085.185917343 ; 5.3139496005340433E8 ; 0.0
6 ; 907164.8972147575 ; 1.1088128297115442E8 ; 5013635.582416497 ; 6.405840320696392E8 ; 0.0
7 ; 945992.0340796899 ; 1.1288319551755983E8 ; 5920800.479631254 ; 7.514653150407937E8 ; 0.0
8 ; 1001922.3053883914 ; 1.1519489626848036E8 ; 6866792.513710944 ; 8.643485105583534E8 ; 0.0
9 ; 1080197.1834828388 ; 1.1781645451739055E8 ; 7868714.819099335 ; 9.795434068268337E8 ; 0.0
10 ; 1205735.3111009689 ; 1.207479152343517E8 ; 8948912.002582174 ; 1.0973598613442242E9 ; 0.0
11 ; 1406419.2161240657 ; 1.2398929402356341E8 ; 1.0154647313683143E7 ; 1.2181077765785758E9 ; 0.0
12 ; 1724817.8243188905 ; 1.2754057528082606E8 ; 1.1561066529807208E7 ; 1.3420970706021392E9 ; 0.0
13 ; 2029660.6905000096 ; 1.3140171403607833E8 ; 1.32858843541261E7 ; 1.4696376458829653E9 ; 0.0
14 ; 2068221.7167306081 ; 1.355726409958458E8 ; 1.531554504462611E7 ; 1.6010393599190435E9 ; 0.0
15 ; 2085872.6392795653 ; 1.400532695470991E8 ; 1.738376676135672E7 ; 1.7366120009148893E9 ; 0.0
16 ; 2099075.7568319472 ; 1.448435032392067E8 ; 1.9469639400636286E7 ; 1.8766652704619884E9 ; 0.0
17 ; 2115372.6591027654 ; 1.4994324251367173E8 ; 2.1568715157468233E7 ; 2.0215087737011952E9 ; 0.0
18 ; 2131986.654055408 ; 1.5535238996700191E8 ; 2.3684087816570997E7 ; 2.171452016214867E9 ; 0.0
19 ; 2149262.908744864 ; 1.6107085394628075E8 ; 2.5816074470626406E7 ; 2.326804406181869E9 ; 0.0
20 ; 2168997.2168689487 ; 1.670985506341568E8 ; 2.796533737937127E7 ; 2.48787526012815E9 ; 0.0
21 ; 2183303.290344025 ; 1.7343540495096603E8 ; 3.013433459624022E7 ; 2.6549738107623067E9 ; 0.0
22 ; 2200122.495658992 ; 1.8008135063191044E8 ; 3.2317637886584245E7 ; 2.8284092157132726E9 ; 0.0
23 ; 2219273.9877023613 ; 1.870363297898475E8 ; 3.451776038224324E7 ; 3.008490566345183E9 ; 0.0
24 ; 2233970.7775630187 ; 1.943002921992275E8 ; 3.67370343699456E7 ; 3.1955268961350303E9 ; 0.0
25 ; 2246611.4115062105 ; 2.005612353612969E8 ; 3.897100514750862E7 ; 3.3898271883342576E9 ; 0.0
26 ; 2264980.6582510504 ; 2.0057266969324577E8 ; 4.1217616559014834E7 ; 3.5903884236955547E9 ; 0.0
27 ; 2280215.4944609287 ; 2.0058433224927607E8 ; 4.348259721726588E7 ; 3.7909610933888006E9 ; 0.0
28 ; 2297646.4808722553 ; 2.0059619523693374E8 ; 4.576281271172681E7 ; 3.991545425638077E9 ; 0.0
29 ; 2315886.769832391 ; 2.0060823466445312E8 ; 4.8060459192599066E7 ; 4.1921416208750105E9 ; 0.0
30 ; 2331078.0759562184 ; 2.0062042977978382E8 ; 5.037634596243145E7 ; 4.392749855539464E9 ; 0.0
31 ; 2345207.4261331614 ; 2.006327625891587E8 ; 5.270742403838767E7 ; 4.593370285319248E9 ; 0.0
32 ; 2358848.610317905 ; 2.00645217447143E8 ; 5.5052631464520834E7 ; 4.794003047908407E9 ; 0.0
33 ; 2377167.499828881 ; 2.0065778070926604E8 ; 5.741148007483874E7 ; 4.99464826535555E9 ; 0.0
34 ; 2389680.7111578127 ; 2.0067044043851796E8 ; 5.9788647574667625E7 ; 5.1953060460648155E9 ; 0.0
35 ; 2401420.8966187127 ; 2.006831861576864E8 ; 6.217832828582544E7 ; 5.395976486503333E9 ; 0.0
36 ; 2416410.049877926 ; 2.0069600864041737E8 ; 6.4579749182444155E7 ; 5.596659672661019E9 ; 0.0
37 ; 2432244.22941357 ; 2.00708899734835E8 ; 6.699615923232208E7 ; 5.797355681301436E9 ; 0.0
38 ; 2443373.627988629 ; 2.007218522144629E8 ; 6.942840346173565E7 ; 5.998064581036271E9 ; 0.0
39 ; 2458408.4360819 ; 2.0073485965200767E8 ; 7.187177708972427E7 ; 6.198786433250734E9 ; 0.0
40 ; 2471124.3336791415 ; 2.0074791631228256E8 ; 7.433018552580617E7 ; 6.399521292902742E9 ; 0.0
41 ; 2483409.634942696 ; 2.00761017061163E8 ; 7.680130985948531E7 ; 6.600269209215025E9 ; 0.0
42 ; 2493464.0263577807 ; 2.0077415728798562E8 ; 7.928471949442801E7 ; 6.801030226276188E9 ; 0.0
43 ; 2506571.1507396335 ; 2.007873328392371E8 ; 8.17781835207858E7 ; 7.001804383564174E9 ; 0.0
44 ; 2513618.063435531 ; 2.0080053996174207E8 ; 8.428475467152543E7 ; 7.202591716403411E9 ; 0.0
45 ; 2527425.9220385863 ; 2.0081377525386027E8 ; 8.679837273496096E7 ; 7.403392256365153E9 ; 0.0
46 ; 2536181.3390393355 ; 2.0082703562345144E8 ; 8.932579865699954E7 ; 7.604206031619014E9 ; 0.0
47 ; 2544281.1924142577 ; 2.0084031825157335E8 ; 9.186197999603888E7 ; 7.805033067242465E9 ; 0.0
48 ; 2553122.7382642627 ; 2.0085362056104785E8 ; 9.440626118845314E7 ; 8.005873385494039E9 ; 0.0
49 ; 2561242.8365819682 ; 2.0086694018917105E8 ; 9.69593839267174E7 ; 8.206727006055086E9 ; 0.0
50 ; 2568826.5767849106 ; 2.0088027496396053E8 ; 9.952062676329938E7 ; 8.407593946244257E9 ; 0.0
51 ; 2577417.889268967 ; 2.0089362288342872E8 ; 1.0208945334008428E8 ; 8.608474221208218E9 ; 0.0
52 ; 2580078.6120418585 ; 2.0090698209745237E8 ; 1.0466687122935325E8 ; 8.809367844091646E9 ; 0.0
53 ; 2591041.002676845 ; 2.0092035089187425E8 ; 1.0724694984139511E8 ; 9.010274826189098E9 ; 0.0
54 ; 2597753.787538608 ; 2.009337276745298E8 ; 1.0983799084407195E8 ; 9.211195177080973E9 ; 0.0
55 ; 2600817.8701395006 ; 2.009471109629367E8 ; 1.1243574463161056E8 ; 9.412128904755503E9 ; 0.0
56 ; 2608018.4861692376 ; 2.009604993734259E8 ; 1.1503656250175005E8 ; 9.61307601571844E9 ; 0.0
57 ; 2615331.6590033704 ; 2.0097389161152366E8 ; 1.1764458098791929E8 ; 9.814036515091866E9 ; 0.0
58 ; 2621555.2730720434 ; 2.0098728646342286E8 ; 1.2025991264692266E8 ; 1.001501040670339E10 ; 0.0
59 ; 2628921.6629479844 ; 2.0100068278840458E8 ; 1.2288146791999471E8 ; 1.0215997693166813E10 ; 0.0
60 ; 2635207.8207910713 ; 2.0101407951209024E8 ; 1.255103895829427E8 ; 1.0416998375955217E10 ; 0.0
61 ; 2639266.225746159 ; 2.0102747562042177E8 ; 1.2814559740373376E8 ; 1.0618012455467308E10 ; 0.0
62 ; 2646493.851676002 ; 2.0104087015428126E8 ; 1.3078486362947991E8 ; 1.081903993108773E10 ; 0.0
63 ; 2651480.78748954 ; 2.0105426220467246E8 ; 1.3343135748115592E8 ; 1.1020080801242012E10 ; 0.0
64 ; 2655958.8612363394 ; 2.010676509083988E8 ; 1.3608283826864547E8 ; 1.1221135063446684E10 ; 0.0
65 ; 2663446.0118787675 ; 2.0108103544417915E8 ; 1.387387971298818E8 ; 1.1422202714355083E10 ; 0.0
66 ; 2668175.761211145 ; 2.010944150291514E8 ; 1.4140224314176056E8 ; 1.1623283749799263E10 ; 0.0
67 ; 2675072.6322966255 ; 2.0110778891572005E8 ; 1.440704189029717E8 ; 1.1824378164828415E10 ; 0.0
68 ; 2683198.689058708 ; 2.0112115638870922E8 ; 1.4674549153526834E8 ; 1.2025485953744135E10 ; 0.0
69 ; 2685929.1632319 ; 2.011345167627875E8 ; 1.4942869022432706E8 ; 1.2226607110132845E10 ; 0.0
70 ; 2690303.7319675717 ; 2.0114786938013545E8 ; 1.5211461938755897E8 ; 1.2427741626895632E10 ; 0.0
71 ; 2698747.527061671 ; 2.0116121360832927E8 ; 1.5480492311952654E8 ; 1.2628889496275766E10 ; 0.0
72 ; 2704932.8252468836 ; 2.0117454883841833E8 ; 1.575036706465882E8 ; 1.2830050709884096E10 ; 0.0
73 ; 2707405.4022066947 ; 2.0118787448317632E8 ; 1.6020860347183508E8 ; 1.3031225258722515E10 ; 0.0
74 ; 2712048.433295446 ; 2.0120118997550765E8 ; 1.6291600887404177E8 ; 1.3232413133205692E10 ; 0.0
75 ; 2717317.016422671 ; 2.0121449476699436E8 ; 1.6562805730733722E8 ; 1.34336143231812E10 ; 0.0
76 ; 2723456.389759571 ; 2.012277883265686E8 ; 1.6834537432375988E8 ; 1.3634828817948195E10 ; 0.0
77 ; 2728473.5780478995 ; 2.0124107013929877E8 ; 1.7106883071351945E8 ; 1.3836056606274763E10 ; 0.0
78 ; 2729974.0435669716 ; 2.0125433970527804E8 ; 1.7379730429156736E8 ; 1.4037297676414062E10 ; 0.0
79 ; 2732630.8178069647 ; 2.0126759653860578E8 ; 1.7652727833513433E8 ; 1.423855201611934E10 ; 0.0
80 ; 2732218.605352188 ; 2.0128084016645244E8 ; 1.792599091529413E8 ; 1.4439819612657948E10 ; 0.0
81 ; 2730433.066023554 ; 2.0129407012820083E8 ; 1.8199212775829348E8 ; 1.46411004528244E10 ; 0.0
82 ; 2733784.487800666 ; 2.0130728597465605E8 ; 1.8472256082431704E8 ; 1.48423945229526E10 ; 0.0
83 ; 2731579.8657784928 ; 2.0132048726731816E8 ; 1.874563453121177E8 ; 1.5043701808927256E10 ; 0.0
84 ; 2734601.669041056 ; 2.0133367357771206E8 ; 1.901879251778962E8 ; 1.5245022296194574E10 ; 0.0
85 ; 2732120.2721706186 ; 2.0134684448676896E8 ; 1.9292252684693727E8 ; 1.5446355969772285E10 ; 0.0
86 ; 2733391.9770515817 ; 2.0135999958425543E8 ; 1.956546471191079E8 ; 1.5647702814259054E10 ; 0.0
87 ; 2735793.0030276817 ; 2.0137313846824563E8 ; 1.983880390961595E8 ; 1.584906281384331E10 ; 0.0
88 ; 2734995.056386238 ; 2.01386260744633E8 ; 2.0112383209918717E8 ; 1.6050435952311556E10 ; 0.0
89 ; 2735032.7333381516 ; 2.013993660266781E8 ; 2.038588271555734E8 ; 1.6251822213056189E10 ; 0.0
90 ; 2735572.6208482855 ; 2.0141245393458956E8 ; 2.0659385988891155E8 ; 1.6453221579082867E10 ; 0.0
91 ; 2735750.911951325 ; 2.014255240951355E8 ; 2.0932943250975984E8 ; 1.6654634033017456E10 ; 0.0
92 ; 2734166.8031589543 ; 2.014385761412825E8 ; 2.1206518342171118E8 ; 1.685605955711259E10 ; 0.0
93 ; 2736894.376030376 ; 2.0145160971186054E8 ; 2.1479935022487015E8 ; 1.7057498133253874E10 ; 0.0
94 ; 2733792.4603195284 ; 2.0146462445125124E8 ; 2.1753624460090053E8 ; 1.7258949742965733E10 ; 0.0
95 ; 2735375.592953784 ; 2.0147762000909778E8 ; 2.2027003706122005E8 ; 1.7460414367416985E10 ; 0.0
96 ; 2736107.3757827017 ; 2.0149059604003486E8 ; 2.2300541265417382E8 ; 1.7661891987426083E10 ; 0.0
97 ; 2734885.756760458 ; 2.01503552203437E8 ; 2.2574152002995652E8 ; 1.7863382583466118E10 ; 0.0
98 ; 2731949.5904560657 ; 2.015164881631839E8 ; 2.2847640578671697E8 ; 1.8064886135669556E10 ; 0.0
99 ; 2732451.207824292 ; 2.015294035874413E8 ; 2.3120835537717304E8 ; 1.826640262383274E10 ; 0.0
100 ; 2733294.7124681305 ; 2.0154229814845672E8 ; 2.3394080658499733E8 ; 1.846793202742018E10 ; 0.0
101 ; 2735055.3110241583 ; 2.0155517152236816E8 ; 2.3667410129746544E8 ; 1.8669474325568638E10 ; 0.0
102 ; 2731702.5736646717 ; 2.0156802338902563E8 ; 2.394091566084896E8 ; 1.8871029497091007E10 ; 0.0
103 ; 2731732.862208195 ; 2.0158085343182403E8 ; 2.4214085918215427E8 ; 1.9072597520480034E10 ; 0.0
104 ; 2729602.0404853495 ; 2.0159366133754662E8 ; 2.4487259204436246E8 ; 1.9274178373911858E10 ; 0.0
105 ; 2728990.372485658 ; 2.0160644679621866E8 ; 2.476021940848478E8 ; 1.9475772035249405E10 ; 0.0
106 ; 2725985.265752673 ; 2.016192095009701E8 ; 2.5033118445733348E8 ; 1.9677378482045624E10 ; 0.0
107 ; 2727065.0748447133 ; 2.0163194914790678E8 ; 2.5305716972308615E8 ; 1.9878997691546593E10 ; 0.0
108 ; 2725252.164481039 ; 2.016446654359899E8 ; 2.5578423479793087E8 ; 2.00806296406945E10 ; 0.0
109 ; 2723479.189193104 ; 2.0165735806692252E8 ; 2.585094869624119E8 ; 2.028227430613049E10 ; 0.0
110 ; 2721660.1939592003 ; 2.0167002674504325E8 ; 2.61232966151605E8 ; 2.048393166419741E10 ; 0.0
111 ; 2721649.4953116407 ; 2.016826711772263E8 ; 2.6395462634556422E8 ; 2.0685601690942455E10 ; 0.0
112 ; 2717878.979012627 ; 2.0169529107278755E8 ; 2.6667627584087586E8 ; 2.0887284362119682E10 ; 0.0
113 ; 2716253.6606831523 ; 2.017078861433963E8 ; 2.693941548198885E8 ; 2.108897965319247E10 ; 0.0
114 ; 2711961.5062874234 ; 2.01720456102992E8 ; 2.721104084805716E8 ; 2.1290687539335865E10 ; 0.0
115 ; 2716053.0208394504 ; 2.017330006677063E8 ; 2.74822369986859E8 ; 2.1492407995438858E10 ; 0.0
116 ; 2709450.3135786466 ; 2.0174551955578944E8 ; 2.775384230076985E8 ; 2.1694140996106564E10 ; 0.0
117 ; 2711788.4540128587 ; 2.0175801248754075E8 ; 2.8024787332127714E8 ; 2.1895886515662354E10 ; 0.0
118 ; 2709996.399217673 ; 2.0177047918524367E8 ; 2.8295966177529E8 ; 2.2097644528149895E10 ; 0.0
119 ; 2704734.230534607 ; 2.0178291937310398E8 ; 2.856696581745077E8 ; 2.229941500733514E10 ; 0.0
120 ; 2702826.930205009 ; 2.0179533277719203E8 ; 2.883743924050423E8 ; 2.2501197926708244E10 ; 0.0
121 ; 2698432.0059416853 ; 2.0180771912538797E8 ; 2.910772193352473E8 ; 2.2702993259485435E10 ; 0.0
122 ; 2694248.7948952056 ; 2.018200781473301E8 ; 2.9377565134118897E8 ; 2.2904800978610825E10 ; 0.0
123 ; 2694688.762950269 ; 2.0183240957436648E8 ; 2.964699001360842E8 ; 2.3106621056758156E10 ; 0.0
124 ; 2689777.005750945 ; 2.0184471313950875E8 ; 2.9916458889903444E8 ; 2.3308453466332523E10 ; 0.0
125 ; 2687155.323217953 ; 2.0185698857738897E8 ; 3.018543659047854E8 ; 2.351029817947203E10 ; 0.0
126 ; 2685718.6115225465 ; 2.0186923562421864E8 ; 3.045415212280033E8 ; 2.371215516804942E10 ; 0.0
127 ; 2684625.0323521732 ; 2.0188145401775017E8 ; 3.072272398395259E8 ; 2.3914024403673637E10 ; 0.0
128 ; 2679777.997626946 ; 2.0189364349724025E8 ; 3.09911864871878E8 ; 2.4115905857691387E10 ; 0.0
129 ; 2676791.643076871 ; 2.0190580380341557E8 ; 3.12591642869505E8 ; 2.431779950118863E10 ; 0.0
130 ; 2673194.4590734565 ; 2.0191793467844012E8 ; 3.152684345125819E8 ; 2.4519705304992046E10 ; 0.0
131 ; 2664128.8691378585 ; 2.0193003586588457E8 ; 3.1794162897165537E8 ; 2.4721623239670486E10 ; 0.0
132 ; 2657808.758901797 ; 2.0194210711069712E8 ; 3.2060575784079325E8 ; 2.492355327553637E10 ; 0.0
133 ; 2652280.3162827976 ; 2.0195414815917605E8 ; 3.23263566599695E8 ; 2.5125495382647068E10 ; 0.0
134 ; 2644878.618426196 ; 2.0196615875894383E8 ; 3.2591584691597784E8 ; 2.5327449530806244E10 ; 0.0
135 ; 2640735.202062874 ; 2.019781386589225E8 ; 3.2856072553440404E8 ; 2.552941568956519E10 ; 0.0
136 ; 2630930.479431738 ; 2.019900876093106E8 ; 3.312014607364669E8 ; 2.5731393828224113E10 ; 0.0
137 ; 2622243.7371166064 ; 2.020020053615612E8 ; 3.3383239121589863E8 ; 2.5933383915833424E10 ; 0.0
138 ; 2616678.7944855685 ; 2.020138916683612E8 ; 3.3645463495301527E8 ; 2.6135385921194984E10 ; 0.0
139 ; 2607735.886775649 ; 2.020257462836117E8 ; 3.3907131374750084E8 ; 2.6337399812863346E10 ; 0.0
140 ; 2598144.0255212975 ; 2.0203756896240976E8 ; 3.416790496342765E8 ; 2.6539425559146957E10 ; 0.0
141 ; 2590834.5999261686 ; 2.0204935946103066E8 ; 3.442771936597978E8 ; 2.6741463128109367E10 ; 0.0
142 ; 2582290.4980243454 ; 2.0206111753691146E8 ; 3.4686802825972396E8 ; 2.6943512487570396E10 ; 0.0
143 ; 2575607.7820285168 ; 2.0207284294863558E8 ; 3.494503187577483E8 ; 2.7145573605107307E10 ; 0.0
144 ; 2568463.6255552177 ; 2.020845354559179E8 ; 3.520259265397768E8 ; 2.7347646448055943E10 ; 0.0
145 ; 2562956.9212392163 ; 2.0209619481959093E8 ; 3.54594390165332E8 ; 2.754973098351186E10 ; 0.0
146 ; 2562531.5320234173 ; 2.021078208015917E8 ; 3.571573470865712E8 ; 2.775182717833145E10 ; 0.0
147 ; 2557398.993963987 ; 2.0211941316494942E8 ; 3.5971987861859465E8 ; 2.795393499913304E10 ; 0.0
148 ; 2557329.9079392185 ; 2.021309716737737E8 ; 3.6227727761255866E8 ; 2.815605441229799E10 ; 0.0
149 ; 2556596.786491938 ; 2.021424960932437E8 ; 3.6483460752049786E8 ; 2.8358185383971764E10 ; 0.0
150 ; 2549771.7151930253 ; 2.021539861895976E8 ; 3.673912043069898E8 ; 2.8560327880065006E10 ; 0.0
151 ; 2545338.049692744 ; 2.0216544173012295E8 ; 3.699409760221828E8 ; 2.8762481866254604E10 ; 0.0
152 ; 2541768.862154603 ; 2.0217686248314738E8 ; 3.724863140718756E8 ; 2.8964647307984726E10 ; 0.0
153 ; 2539624.304204388 ; 2.0218824821802998E8 ; 3.750280829340302E8 ; 2.9166824170467873E10 ; 0.0
154 ; 2534184.5035158345 ; 2.021995987051532E8 ; 3.775677072382346E8 ; 2.93690124186859E10 ; 0.0
155 ; 2532599.809802696 ; 2.0221091371591514E8 ; 3.801018917417504E8 ; 2.9571212017391056E10 ; 0.0
156 ; 2529302.5674662 ; 2.0222219302272233E8 ; 3.8263449155155313E8 ; 2.977342293110697E10 ; 0.0
157 ; 2525987.371637279 ; 2.0223343639898312E8 ; 3.851637941190193E8 ; 2.9975645124129696E10 ; 0.0
158 ; 2521672.032618154 ; 2.022446436191013E8 ; 3.876897814906566E8 ; 3.017787856052868E10 ; 0.0
159 ; 2516704.0605859994 ; 2.0225581445847002E8 ; 3.902114535232748E8 ; 3.038012320414778E10 ; 0.0
160 ; 2513901.111480603 ; 2.022669486934666E8 ; 3.9272815758386075E8 ; 3.058237901860625E10 ; 0.0
161 ; 2512346.0107372766 ; 2.0227804610144708E8 ; 3.9524205869534135E8 ; 3.0784645967299717E10 ; 0.0
162 ; 2509396.6439740686 ; 2.022891064607415E8 ; 3.9775440470607865E8 ; 3.0986924013401165E10 ; 0.0
163 ; 2504747.7825415907 ; 2.0230012955064937E8 ; 4.002638013500527E8 ; 3.1189213119861908E10 ; 0.0
164 ; 2501592.057553818 ; 2.0231111515143567E8 ; 4.027685491325943E8 ; 3.1391513249412556E10 ; 0.0
165 ; 2499188.117675339 ; 2.0232206304432672E8 ; 4.052701411901481E8 ; 3.159382436456399E10 ; 0.0
166 ; 2495474.3502657334 ; 2.023329730115067E8 ; 4.077693293078235E8 ; 3.179614642760832E10 ; 0.0
167 ; 2494430.4232668173 ; 2.023438448361145E8 ; 4.102648036580892E8 ; 3.1998479400619823E10 ; 0.0
168 ; 2489789.992576575 ; 2.0235467830224037E8 ; 4.1275923408135605E8 ; 3.2200823245455936E10 ; 0.0
169 ; 2486864.2877280694 ; 2.0236547319492334E8 ; 4.1524902407393265E8 ; 3.240317792375818E10 ; 0.0
170 ; 2480344.0402487917 ; 2.0237622930014864E8 ; 4.177358883616607E8 ; 3.2605543396953102E10 ; 0.0
171 ; 2480178.9650012446 ; 2.023869464048452E8 ; 4.2021623240190953E8 ; 3.280791962625325E10 ; 0.0
172 ; 2471441.2992685586 ; 2.0239762429688376E8 ; 4.2269641136691076E8 ; 3.3010306572658096E10 ; 0.0
173 ; 2467394.9766880884 ; 2.024082627650748E8 ; 4.251678526661793E8 ; 3.321270419695498E10 ; 0.0
174 ; 2468723.09517106 ; 2.0241886159916672E8 ; 4.276352476428674E8 ; 3.3415112459720055E10 ; 0.0
175 ; 2466260.085615198 ; 2.0242942058984467E8 ; 4.301039707380384E8 ; 3.361753132131922E10 ; 0.0
176 ; 2464361.643764607 ; 2.024399395287288E8 ; 4.3257023082365364E8 ; 3.3819960741909065E10 ; 0.0
177 ; 2460733.6551934406 ; 2.0245041820837334E8 ; 4.3503459246741825E8 ; 3.4022400681437794E10 ; 0.0
178 ; 2458380.612541933 ; 2.024608564222654E8 ; 4.374953261226117E8 ; 3.4224851099646168E10 ; 0.0
179 ; 2457402.7824849 ; 2.0247125396482432E8 ; 4.399537067351536E8 ; 3.4427311956068436E10 ; 0.0
180 ; 2452050.22446671 ; 2.0248161063140073E8 ; 4.424111095176385E8 ; 3.462978321003326E10 ; 0.0
181 ; 2453453.4799112147 ; 2.0249192621827614E8 ; 4.448631597421052E8 ; 3.483226482066466E10 ; 0.0
182 ; 2449682.387687741 ; 2.0250220052266243E8 ; 4.473166132220164E8 ; 3.5034756746882935E10 ; 0.0
183 ; 2450168.972912395 ; 2.0251243334270158E8 ; 4.4976629560970414E8 ; 3.5237258947405594E10 ; 0.0
184 ; 2445897.561353526 ; 2.0252262447746545E8 ; 4.522164645826165E8 ; 3.54397713807483E10 ; 0.0
185 ; 2441625.5899403123 ; 2.025327737269558E8 ; 4.5466236214397E8 ; 3.564229400522576E10 ; 0.0
186 ; 2440906.362877761 ; 2.0254288089210424E8 ; 4.571039877339103E8 ; 3.584482677895272E10 ; 0.0
187 ; 2440507.8647841313 ; 2.0255294577477238E8 ; 4.595448940967881E8 ; 3.6047369659844826E10 ; 0.0
188 ; 2437320.2306907205 ; 2.0256296817775223E8 ; 4.6198540196157223E8 ; 3.62499226056196E10 ; 0.0
189 ; 2435301.9313992686 ; 2.0257294790476638E8 ; 4.6442272219226295E8 ; 3.645248557379735E10 ; 0.0
190 ; 2432845.206677535 ; 2.0258288476046866E8 ; 4.6685802412366223E8 ; 3.665505852170212E10 ; 0.0
191 ; 2429480.479057379 ; 2.0259277855044448E8 ; 4.692908693303398E8 ; 3.6857641406462585E10 ; 0.0
192 ; 2425612.2479691072 ; 2.0260262908121154E8 ; 4.7172034980939716E8 ; 3.706023418501303E10 ; 0.0
193 ; 2424782.2421659995 ; 2.0261243616022053E8 ; 4.7414596205736625E8 ; 3.7262836814094246E10 ; 0.0
194 ; 2424714.0395403756 ; 2.0262219959585604E8 ; 4.7657074429953223E8 ; 3.746544925025446E10 ; 0.0
195 ; 2418363.642224521 ; 2.0263191919743717E8 ; 4.789954583390726E8 ; 3.766807144985032E10 ; 0.0
196 ; 2414639.454752518 ; 2.0264159477521873E8 ; 4.8141382198129714E8 ; 3.787070336904775E10 ; 0.0
197 ; 2413385.9606013307 ; 2.0265122614039198E8 ; 4.8382846143604964E8 ; 3.807334496382297E10 ; 0.0
198 ; 2414707.148010441 ; 2.0266081310508594E8 ; 4.8624184739665097E8 ; 3.8275996189963356E10 ; 0.0
199 ; 2411941.5825998094 ; 2.026703554823684E8 ; 4.886565545446614E8 ; 3.847865700306844E10 ; 0.0
200 ; 2409019.403313597 ; 2.0267985308624703E8 ; 4.910684961272612E8 ; 3.868132735855081E10 ; 0.0
