CSV File for the City 6 on Day 23
1 - Minute m 
2 - Power Consumed at minute m 
3 - Power Produced at minute m 
4 - Energy Consumed since the beginning of the day 
5 - Energy Produced since the beginning of the day 
6 - Energy Lost since the beginning of the day on lines starting from the city
 
0 ; 1.1116995626382757E7 ; 1.0533706855784753E8 ; 0.0 ; 0.0 ; 0.0
1 ; 1.1128041043575494E7 ; 1.054805013560909E8 ; 1.1116995626382757E7 ; 1.0533706855784753E8 ; 0.0
2 ; 1.113690375750537E7 ; 1.059330705172762E8 ; 2.224503666995825E7 ; 2.1081756991393843E8 ; 0.0
3 ; 1.1149924578429531E7 ; 1.0669488352522987E8 ; 3.338194042746362E7 ; 3.1675064043121463E8 ; 0.0
4 ; 1.1168357111854268E7 ; 1.0776607165847278E8 ; 4.4531865005893156E7 ; 4.234455239564445E8 ; 0.0
5 ; 1.118682238793753E7 ; 1.0914679213309246E8 ; 5.5700222117747426E7 ; 5.312115956149173E8 ; 0.0
6 ; 1.121189478774667E7 ; 1.1083722709055409E8 ; 6.688704450568496E7 ; 6.403583877480097E8 ; 0.0
7 ; 1.1252006477529079E7 ; 1.1283757667860317E8 ; 7.809893929343162E7 ; 7.511956148385638E8 ; 0.0
8 ; 1.1304252245847443E7 ; 1.1514804338343257E8 ; 8.93509457709607E7 ; 8.64033191517167E8 ; 0.0
9 ; 1.1385669391324379E7 ; 1.1776880675706923E8 ; 1.0065519801680815E8 ; 9.791812349005995E8 ; 0.0
10 ; 1.1507418840113528E7 ; 1.2069999256501585E8 ; 1.1204086740813252E8 ; 1.0969500416576686E9 ; 0.0
11 ; 1.17047650213067E7 ; 1.239416462632421E8 ; 1.2354828624824604E8 ; 1.2176500342226844E9 ; 0.0
12 ; 1.2020941809279803E7 ; 1.2749372239577827E8 ; 1.3525305126955274E8 ; 1.3415916804859264E9 ; 0.0
13 ; 1.2329455310794236E7 ; 1.3135609519712168E8 ; 1.4727399307883254E8 ; 1.4690854028817046E9 ; 0.0
14 ; 1.2361313038791694E7 ; 1.3552858511524546E8 ; 1.5960344838962677E8 ; 1.6004414980788262E9 ; 0.0
15 ; 1.237752450617714E7 ; 1.4001098966395664E8 ; 1.7196476142841846E8 ; 1.7359700831940718E9 ; 0.0
16 ; 1.2391128664445383E7 ; 1.4480310869550982E8 ; 1.8434228593459558E8 ; 1.8759810728580284E9 ; 0.0
17 ; 1.2408255501055408E7 ; 1.4990476006843975E8 ; 1.9673341459904096E8 ; 2.0207841815535383E9 ; 0.0
18 ; 1.2422036858715115E7 ; 1.553157865666589E8 ; 2.0914167010009637E8 ; 2.1706889416219783E9 ; 0.0
19 ; 1.2438244916265618E7 ; 1.6103605691164646E8 ; 2.215637069588115E8 ; 2.3260047281886373E9 ; 0.0
20 ; 1.2452814613318492E7 ; 1.670654636195759E8 ; 2.340019518750771E8 ; 2.4870407851002836E9 ; 0.0
21 ; 1.2464310121916741E7 ; 1.734039196079593E8 ; 2.464547664883956E8 ; 2.6541062487198596E9 ; 0.0
22 ; 1.247944274692907E7 ; 1.800513546258374E8 ; 2.5891907661031234E8 ; 2.827510168327819E9 ; 0.0
23 ; 1.2492353603407716E7 ; 1.870077120091552E8 ; 2.713985193572414E8 ; 3.007561522953656E9 ; 0.0
24 ; 1.250766294615239E7 ; 1.942729459353242E8 ; 2.8389087296064913E8 ; 3.1945692349628115E9 ; 0.0
25 ; 1.2522997129631469E7 ; 2.0053506008672294E8 ; 2.963985359068015E8 ; 3.3888421808981357E9 ; 0.0
26 ; 1.2539705843153026E7 ; 2.0054757190724075E8 ; 3.08921533036433E8 ; 3.5893772409848585E9 ; 0.0
27 ; 1.255068643062058E7 ; 2.005602257247611E8 ; 3.21461238879586E8 ; 3.7899248128920994E9 ; 0.0
28 ; 1.2564672288391203E7 ; 2.0057300089881784E8 ; 3.3401192531020653E8 ; 3.9904850386168604E9 ; 0.0
29 ; 1.2579249343689695E7 ; 2.005858802533817E8 ; 3.4657659759859776E8 ; 4.1910580395156784E9 ; 0.0
30 ; 1.2590254891341839E7 ; 2.0059884940224874E8 ; 3.5915584694228745E8 ; 4.39164391976906E9 ; 0.0
31 ; 1.2602812175208136E7 ; 2.0061189621847516E8 ; 3.717461018336293E8 ; 4.5922427691713085E9 ; 0.0
32 ; 1.2619506987121686E7 ; 2.0062501041534352E8 ; 3.8434891400883746E8 ; 4.792854665389784E9 ; 0.0
33 ; 1.2632476235477978E7 ; 2.0063818321379954E8 ; 3.9696842099595916E8 ; 4.993479675805127E9 ; 0.0
34 ; 1.2641283767451588E7 ; 2.0065140707712296E8 ; 4.0960089723143715E8 ; 5.194117859018927E9 ; 0.0
35 ; 1.2656067769483253E7 ; 2.0066467549808002E8 ; 4.2224218099888873E8 ; 5.394769266096049E9 ; 0.0
36 ; 1.266551207204864E7 ; 2.0067798282722837E8 ; 4.34898248768372E8 ; 5.59543394159413E9 ; 0.0
37 ; 1.2676158392259741E7 ; 2.0069132413365096E8 ; 4.4756376084042066E8 ; 5.796111924421358E9 ; 0.0
38 ; 1.2686235932024254E7 ; 2.0070469509137675E8 ; 4.602399192326804E8 ; 5.996803248555009E9 ; 0.0
39 ; 1.2696087014951505E7 ; 2.00718091886256E8 ; 4.729261551647046E8 ; 6.197507943646385E9 ; 0.0
40 ; 1.2703996433388103E7 ; 2.0073151113920936E8 ; 4.8562224217965615E8 ; 6.398226035532641E9 ; 0.0
41 ; 1.271369269151586E7 ; 2.0074494984265333E8 ; 4.9832623861304426E8 ; 6.598957546671851E9 ; 0.0
42 ; 1.2724177223784082E7 ; 2.0075840530758402E8 ; 5.110399313045601E8 ; 6.799702496514504E9 ; 0.0
43 ; 1.2733578051807936E7 ; 2.0077187511932555E8 ; 5.237641085283442E8 ; 7.000460901822088E9 ; 0.0
44 ; 1.2738565430274785E7 ; 2.0078535710035774E8 ; 5.3649768658015215E8 ; 7.201232776941414E9 ; 0.0
45 ; 1.2747405146886365E7 ; 2.0079884927895463E8 ; 5.49236252010427E8 ; 7.402018134041772E9 ; 0.0
46 ; 1.275511684392344E7 ; 2.008123498626155E8 ; 5.619836571573133E8 ; 7.602816983320726E9 ; 0.0
47 ; 1.2759289552643804E7 ; 2.0082585721546596E8 ; 5.747387740012368E8 ; 7.803629333183342E9 ; 0.0
48 ; 1.276399526522249E7 ; 2.0083936983896172E8 ; 5.874980635538806E8 ; 8.004455190398808E9 ; 0.0
49 ; 1.2768114427824562E7 ; 2.008528863553519E8 ; 6.00262058819103E8 ; 8.205294560237769E9 ; 0.0
50 ; 1.2772536114176588E7 ; 2.0086640549345693E8 ; 6.130301732469276E8 ; 8.406147446593121E9 ; 0.0
51 ; 1.2774956067425951E7 ; 2.008799260763954E8 ; 6.258027093611042E8 ; 8.607013852086578E9 ; 0.0
52 ; 1.2778196529244194E7 ; 2.0089344701095855E8 ; 6.385776654285302E8 ; 8.807893778162973E9 ; 0.0
53 ; 1.2781414448065892E7 ; 2.009069672783817E8 ; 6.513558619577744E8 ; 9.008787225173931E9 ; 0.0
54 ; 1.278485733494081E7 ; 2.0092048592630565E8 ; 6.641372764058403E8 ; 9.209694192452312E9 ; 0.0
55 ; 1.2790655367131405E7 ; 2.0093400206175345E8 ; 6.769221337407811E8 ; 9.410614678378618E9 ; 0.0
56 ; 1.2791515349086668E7 ; 2.0094751484497792E8 ; 6.897127891079124E8 ; 9.611548680440372E9 ; 0.0
57 ; 1.279538637954064E7 ; 2.0096102348405698E8 ; 7.025043044569991E8 ; 9.81249619528535E9 ; 0.0
58 ; 1.2799353667711223E7 ; 2.0097452723013413E8 ; 7.152996908365397E8 ; 1.0013457218769407E10 ; 0.0
59 ; 1.279985783526086E7 ; 2.0098802537321615E8 ; 7.28099044504251E8 ; 1.0214431745999542E10 ; 0.0
60 ; 1.2804117821985682E7 ; 2.010015172384543E8 ; 7.408989023395119E8 ; 1.0415419771372759E10 ; 0.0
61 ; 1.280513516894738E7 ; 2.0101500218284568E8 ; 7.537030201614976E8 ; 1.0616421288611214E10 ; 0.0
62 ; 1.2808505889540654E7 ; 2.010284795923006E8 ; 7.665081553304449E8 ; 1.081743629079406E10 ; 0.0
63 ; 1.2810083055272173E7 ; 2.010419488790302E8 ; 7.793166612199856E8 ; 1.101846477038636E10 ; 0.0
64 ; 1.281120902836282E7 ; 2.0105540947921404E8 ; 7.921267442752578E8 ; 1.121950671926539E10 ; 0.0
65 ; 1.2809939749398736E7 ; 2.010688608509138E8 ; 8.049379533036207E8 ; 1.1420562128744604E10 ; 0.0
66 ; 1.2815221733159551E7 ; 2.0108230247220337E8 ; 8.177478930530194E8 ; 1.1621630989595518E10 ; 0.0
67 ; 1.2817274373939615E7 ; 2.0109573383949015E8 ; 8.30563114786179E8 ; 1.1822713292067722E10 ; 0.0
68 ; 1.2819045933999766E7 ; 2.0110915446600455E8 ; 8.433803891601186E8 ; 1.2023809025907213E10 ; 0.0
69 ; 1.2821463945459265E7 ; 2.0112256388043934E8 ; 8.561994350941184E8 ; 1.2224918180373219E10 ; 0.0
70 ; 1.2821244794931253E7 ; 2.0113596162572116E8 ; 8.690208990395776E8 ; 1.2426040744253658E10 ; 0.0
71 ; 1.2821757013847051E7 ; 2.0114934725790024E8 ; 8.818421438345089E8 ; 1.262717670587938E10 ; 0.0
72 ; 1.2823691080697713E7 ; 2.0116272034514487E8 ; 8.946639008483559E8 ; 1.282832605313728E10 ; 0.0
73 ; 1.2822744081164138E7 ; 2.011760804668295E8 ; 9.074875919290535E8 ; 1.3029488773482424E10 ; 0.0
74 ; 1.282363160933846E7 ; 2.0118942721270669E8 ; 9.203103360102177E8 ; 1.3230664853949253E10 ; 0.0
75 ; 1.2824296348559698E7 ; 2.0120276018215394E8 ; 9.331339676195561E8 ; 1.343185428116196E10 ; 0.0
76 ; 1.2822948188722683E7 ; 2.0121607898348778E8 ; 9.459582639681158E8 ; 1.3633057041344114E10 ; 0.0
77 ; 1.2825693636539552E7 ; 2.012293832333383E8 ; 9.587812121568385E8 ; 1.3834273120327602E10 ; 0.0
78 ; 1.282124813016401E7 ; 2.0124267255607784E8 ; 9.716069057933781E8 ; 1.403550250356094E10 ; 0.0
79 ; 1.2816374004241437E7 ; 2.0125594658329904E8 ; 9.844281539235421E8 ; 1.4236745176117018E10 ; 0.0
80 ; 1.2815207322525078E7 ; 2.012692049533366E8 ; 9.972445279277836E8 ; 1.4438001122700317E10 ; 0.0
81 ; 1.281009162721084E7 ; 2.0128244731082943E8 ; 1.0100597352503086E9 ; 1.4639270327653654E10 ; 0.0
82 ; 1.2806515790645642E7 ; 2.0129567330631858E8 ; 1.0228698268775195E9 ; 1.4840552774964483E10 ; 0.0
83 ; 1.2802977807514777E7 ; 2.0130888259587824E8 ; 1.0356763426681651E9 ; 1.5041848448270802E10 ; 0.0
84 ; 1.279716702602476E7 ; 2.0132207484077632E8 ; 1.0484793204756799E9 ; 1.524315733086668E10 ; 0.0
85 ; 1.2793766699491123E7 ; 2.01335249707162E8 ; 1.0612764875017047E9 ; 1.5444479405707457E10 ; 0.0
86 ; 1.2788329951362215E7 ; 2.0134840686577788E8 ; 1.0740702542011957E9 ; 1.564581465541462E10 ; 0.0
87 ; 1.2784895060594011E7 ; 2.013615459916948E8 ; 1.0868585841525578E9 ; 1.5847163062280397E10 ; 0.0
88 ; 1.2780368192815853E7 ; 2.0137466676406655E8 ; 1.099643479213152E9 ; 1.6048524608272093E10 ; 0.0
89 ; 1.2776026432314802E7 ; 2.013877688659037E8 ; 1.1124238474059677E9 ; 1.624989927503616E10 ; 0.0
90 ; 1.2769329635727042E7 ; 2.014008519838643E8 ; 1.1251998738382826E9 ; 1.6451287043902063E10 ; 0.0
91 ; 1.2767817849558977E7 ; 2.0141391580806E8 ; 1.1379692034740095E9 ; 1.6652687895885927E10 ; 0.0
92 ; 1.2760416508679245E7 ; 2.0142696003187683E8 ; 1.1507370213235686E9 ; 1.6854101811693987E10 ; 0.0
93 ; 1.2755122491086666E7 ; 2.0143998435180882E8 ; 1.1634974378322477E9 ; 1.7055528771725864E10 ; 0.0
94 ; 1.275113881287157E7 ; 2.0145298846730354E8 ; 1.1762525603233345E9 ; 1.7256968756077675E10 ; 0.0
95 ; 1.2745216399473162E7 ; 2.0146597208061925E8 ; 1.189003699136206E9 ; 1.745842174454498E10 ; 0.0
96 ; 1.2738270872343931E7 ; 2.014789348966914E8 ; 1.201748915535679E9 ; 1.76598877166256E10 ; 0.0
97 ; 1.272952328243703E7 ; 2.014918766230093E8 ; 1.214487186408023E9 ; 1.786136665152229E10 ; 0.0
98 ; 1.2726815969822204E7 ; 2.0150479696950075E8 ; 1.2272167096904602E9 ; 1.8062858528145298E10 ; 0.0
99 ; 1.2720557358630529E7 ; 2.0151769564842522E8 ; 1.2399435256602824E9 ; 1.82643633251148E10 ; 0.0
100 ; 1.2711493255668648E7 ; 2.0153057237427387E8 ; 1.2526640830189128E9 ; 1.8465881020763226E10 ; 0.0
101 ; 1.2707876930741059E7 ; 2.0154342686367667E8 ; 1.2653755762745814E9 ; 1.86674115931375E10 ; 0.0
102 ; 1.2700294765052963E7 ; 2.0155625883531573E8 ; 1.2780834532053225E9 ; 1.886895502000118E10 ; 0.0
103 ; 1.2691889546609187E7 ; 2.0156906800984442E8 ; 1.2907837479703755E9 ; 1.9070511278836494E10 ; 0.0
104 ; 1.2688976561520504E7 ; 2.0158185410981187E8 ; 1.3034756375169847E9 ; 1.927208034684634E10 ; 0.0
105 ; 1.2681489798361441E7 ; 2.0159461685959256E8 ; 1.3161646140785053E9 ; 1.9473662200956154E10 ; 0.0
106 ; 1.2670791793456795E7 ; 2.0160735598532033E8 ; 1.3288461038768668E9 ; 1.9675256817815746E10 ; 0.0
107 ; 1.2665817210397128E7 ; 2.016200712148269E8 ; 1.3415168956703236E9 ; 1.9876864173801067E10 ; 0.0
108 ; 1.265784698027102E7 ; 2.0163276227758446E8 ; 1.3541827128807209E9 ; 2.0078484245015896E10 ; 0.0
109 ; 1.2651745926361367E7 ; 2.0164542890465158E8 ; 1.366840559860992E9 ; 2.028011700729348E10 ; 0.0
110 ; 1.2641977102855233E7 ; 2.0165807082862306E8 ; 1.3794923057873533E9 ; 2.048176243619813E10 ; 0.0
111 ; 1.2636629980122067E7 ; 2.016706877835827E8 ; 1.3921342828902085E9 ; 2.0683420507026756E10 ; 0.0
112 ; 1.2626806602622384E7 ; 2.016832795050591E8 ; 1.4047709128703306E9 ; 2.088509119481034E10 ; 0.0
113 ; 1.2620017912049068E7 ; 2.0169584572998446E8 ; 1.4173977194729528E9 ; 2.10867744743154E10 ; 0.0
114 ; 1.2615781955151519E7 ; 2.017083861966558E8 ; 1.430017737385002E9 ; 2.1288470320045383E10 ; 0.0
115 ; 1.2603707320035324E7 ; 2.0172090064469865E8 ; 1.4426335193401535E9 ; 2.149017870624204E10 ; 0.0
116 ; 1.2594007536519052E7 ; 2.01733388815033E8 ; 1.4552372266601887E9 ; 2.1691899606886738E10 ; 0.0
117 ; 1.2588952578716332E7 ; 2.0174585044984156E8 ; 1.4678312341967077E9 ; 2.189363299570177E10 ; 0.0
118 ; 1.258145054683149E7 ; 2.017582852925399E8 ; 1.480420186775424E9 ; 2.209537884615161E10 ; 0.0
119 ; 1.257254630591462E7 ; 2.0177069308774823E8 ; 1.4930016373222556E9 ; 2.2297137131444153E10 ; 0.0
120 ; 1.2560598997247221E7 ; 2.017830735812654E8 ; 1.5055741836281703E9 ; 2.2498907824531902E10 ; 0.0
121 ; 1.2555115525486028E7 ; 2.0179542652004412E8 ; 1.5181347826254175E9 ; 2.2700690898113167E10 ; 0.0
122 ; 1.2543408469861731E7 ; 2.0180775165216798E8 ; 1.5306898981509035E9 ; 2.290248632463321E10 ; 0.0
123 ; 1.2533165144903284E7 ; 2.0182004872682977E8 ; 1.5432333066207652E9 ; 2.3104294076285378E10 ; 0.0
124 ; 1.2525671437220193E7 ; 2.0183231749431115E8 ; 1.5557664717656684E9 ; 2.3306114125012207E10 ; 0.0
125 ; 1.2518785986258345E7 ; 2.0184455770596373E8 ; 1.5682921432028885E9 ; 2.350794644250652E10 ; 0.0
126 ; 1.2508825219885038E7 ; 2.0185676911419123E8 ; 1.5808109291891468E9 ; 2.3709791000212482E10 ; 0.0
127 ; 1.2498696965635099E7 ; 2.0186895147243276E8 ; 1.5933197544090319E9 ; 2.3911647769326675E10 ; 0.0
128 ; 1.248754326422413E7 ; 2.018811045351472E8 ; 1.605818451374667E9 ; 2.4113516720799107E10 ; 0.0
129 ; 1.2477237519529922E7 ; 2.0189322805779845E8 ; 1.618305994638891E9 ; 2.4315397825334255E10 ; 0.0
130 ; 1.2465250191358967E7 ; 2.0190532179684204E8 ; 1.6307832321584208E9 ; 2.4517291053392056E10 ; 0.0
131 ; 1.2451337893985344E7 ; 2.019173855097119E8 ; 1.6432484823497798E9 ; 2.4719196375188896E10 ; 0.0
132 ; 1.2439168611229494E7 ; 2.0192941895480862E8 ; 1.655699820243765E9 ; 2.492111376069861E10 ; 0.0
133 ; 1.2423428569459619E7 ; 2.0194142189148822E8 ; 1.6681389888549945E9 ; 2.5123043179653416E10 ; 0.0
134 ; 1.2408430853645956E7 ; 2.019533940800516E8 ; 1.6805624174244542E9 ; 2.5324984601544903E10 ; 0.0
135 ; 1.2393275707762018E7 ; 2.0196533528173473E8 ; 1.6929708482781003E9 ; 2.5526937995624954E10 ; 0.0
136 ; 1.2379235529326005E7 ; 2.0197724525869974E8 ; 1.7053641239858623E9 ; 2.572890333090669E10 ; 0.0
137 ; 1.2365842334030505E7 ; 2.0198912377402613E8 ; 1.7177433595151882E9 ; 2.593088057616539E10 ; 0.0
138 ; 1.2352711845871337E7 ; 2.0200097059170306E8 ; 1.7301092018492186E9 ; 2.6132869699939415E10 ; 0.0
139 ; 1.2337093529533174E7 ; 2.02012785476622E8 ; 1.74246191369509E9 ; 2.6334870670531116E10 ; 0.0
140 ; 1.2319960910306226E7 ; 2.020245681945697E8 ; 1.7547990072246232E9 ; 2.653688345600774E10 ; 0.0
141 ; 1.2306179968773676E7 ; 2.0203631851222217E8 ; 1.7671189681349294E9 ; 2.673890802420231E10 ; 0.0
142 ; 1.2291187990602685E7 ; 2.0204803619713843E8 ; 1.779425148103703E9 ; 2.694094434271453E10 ; 0.0
143 ; 1.2276253705371352E7 ; 2.020597210177554E8 ; 1.7917163360943058E9 ; 2.714299237891167E10 ; 0.0
144 ; 1.2260025447912002E7 ; 2.0207137274338275E8 ; 1.8039925897996771E9 ; 2.7345052099929424E10 ; 0.0
145 ; 1.2250345106410215E7 ; 2.0208299114419827E8 ; 1.816252615247589E9 ; 2.7547123472672806E10 ; 0.0
146 ; 1.2234847775538988E7 ; 2.0209457599124372E8 ; 1.8285029603539994E9 ; 2.7749206463817005E10 ; 0.0
147 ; 1.2226438544069966E7 ; 2.0210612705642095E8 ; 1.8407378081295383E9 ; 2.795130103980825E10 ; 0.0
148 ; 1.2214069262880584E7 ; 2.021176441124882E8 ; 1.8529642466736083E9 ; 2.815340716686467E10 ; 0.0
149 ; 1.2208823231536413E7 ; 2.0212912693305713E8 ; 1.8651783159364889E9 ; 2.8355524810977158E10 ; 0.0
150 ; 1.2194855951963233E7 ; 2.0214057529258972E8 ; 1.8773871391680253E9 ; 2.8557653937910213E10 ; 0.0
151 ; 1.21829527056448E7 ; 2.0215198896639568E8 ; 1.8895819951199884E9 ; 2.8759794513202805E10 ; 0.0
152 ; 1.2174262061896302E7 ; 2.021633677306302E8 ; 1.9017649478256333E9 ; 2.89619465021692E10 ; 0.0
153 ; 1.2159252994818859E7 ; 2.0217471136229166E8 ; 1.9139392098875296E9 ; 2.916410986989983E10 ; 0.0
154 ; 1.2151018718763722E7 ; 2.0218601963922E8 ; 1.9260984628823485E9 ; 2.9366284581262123E10 ; 0.0
155 ; 1.214140733121952E7 ; 2.0219729234009492E8 ; 1.9382494816011124E9 ; 2.9568470600901344E10 ; 0.0
156 ; 1.2125166173641589E7 ; 2.0220852924443462E8 ; 1.9503908889323318E9 ; 2.977066789324144E10 ; 0.0
157 ; 1.2117072618819965E7 ; 2.0221973013259453E8 ; 1.9625160551059735E9 ; 2.9972876422485874E10 ; 0.0
158 ; 1.2105337287968244E7 ; 2.022308947857664E8 ; 1.9746331277247934E9 ; 3.017509615261847E10 ; 0.0
159 ; 1.2093269877223266E7 ; 2.022420229859774E8 ; 1.9867384650127616E9 ; 3.0377327047404236E10 ; 0.0
160 ; 1.2080562604207866E7 ; 2.0225311451608962E8 ; 1.9988317348899848E9 ; 3.0579569070390213E10 ; 0.0
161 ; 1.2066922071054926E7 ; 2.0226416915979958E8 ; 2.0109122974941926E9 ; 3.0781822184906303E10 ; 0.0
162 ; 1.2058242055378411E7 ; 2.022751867016379E8 ; 2.0229792195652475E9 ; 3.09840863540661E10 ; 0.0
163 ; 1.2040308405862315E7 ; 2.0228616692696932E8 ; 2.035037461620626E9 ; 3.118636154076774E10 ; 0.0
164 ; 1.2034286547047079E7 ; 2.0229710962199253E8 ; 2.0470777700264883E9 ; 3.1388647707694706E10 ; 0.0
165 ; 1.2019444631338654E7 ; 2.0230801457374048E8 ; 2.0591120565735354E9 ; 3.15909448173167E10 ; 0.0
166 ; 1.2011415504660653E7 ; 2.0231888157008067E8 ; 2.071131501204874E9 ; 3.179325283189044E10 ; 0.0
167 ; 1.1998022569311686E7 ; 2.0232971039971542E8 ; 2.0831429167095346E9 ; 3.199557171346052E10 ; 0.0
168 ; 1.1984659010441547E7 ; 2.0234050085218263E8 ; 2.0951409392788463E9 ; 3.2197901423860237E10 ; 0.0
169 ; 1.1973447840618584E7 ; 2.0235125271785623E8 ; 2.1071255982892878E9 ; 3.240024192471242E10 ; 0.0
170 ; 1.1962649711694784E7 ; 2.0236196578794715E8 ; 2.1190990461299064E9 ; 3.260259317743028E10 ; 0.0
171 ; 1.1949289867574982E7 ; 2.0237263985450396E8 ; 2.1310616958416011E9 ; 3.2804955143218227E10 ; 0.0
172 ; 1.1938540025262907E7 ; 2.0238327471041402E8 ; 2.143010985709176E9 ; 3.300732778307273E10 ; 0.0
173 ; 1.1927204704986101E7 ; 2.0239387014940447E8 ; 2.154949525734439E9 ; 3.3209711057783146E10 ; 0.0
174 ; 1.1918647645602785E7 ; 2.0240442596604332E8 ; 2.166876730439425E9 ; 3.341210492793255E10 ; 0.0
175 ; 1.1911002031674055E7 ; 2.0241494195574084E8 ; 2.1787953780850277E9 ; 3.361450935389859E10 ; 0.0
176 ; 1.1907063716130948E7 ; 2.0242541791475067E8 ; 2.1907063801167016E9 ; 3.3816924295854332E10 ; 0.0
177 ; 1.1901033998928852E7 ; 2.0243585364017132E8 ; 2.2026134438328323E9 ; 3.401934971376908E10 ; 0.0
178 ; 1.1886630152269328E7 ; 2.024462489299476E8 ; 2.2145144778317614E9 ; 3.4221785567409252E10 ; 0.0
179 ; 1.1878887750900585E7 ; 2.0245660358287227E8 ; 2.2264011079840307E9 ; 3.44242318163392E10 ; 0.0
180 ; 1.187592875653316E7 ; 2.0246691739858735E8 ; 2.2382799957349315E9 ; 3.462668841992207E10 ; 0.0
181 ; 1.1866123117785282E7 ; 2.0247719017758605E8 ; 2.2501559244914646E9 ; 3.482915533732066E10 ; 0.0
182 ; 1.1861214397819081E7 ; 2.0248742172121435E8 ; 2.26202204760925E9 ; 3.503163252749825E10 ; 0.0
183 ; 1.1852403151072707E7 ; 2.0249761183167276E8 ; 2.273883262007069E9 ; 3.523411994921947E10 ; 0.0
184 ; 1.1845897105111333E7 ; 2.025077603120182E8 ; 2.2857356651581416E9 ; 3.543661756105114E10 ; 0.0
185 ; 1.1836812185638754E7 ; 2.025178669661658E8 ; 2.2975815622632527E9 ; 3.563912532136316E10 ; 0.0
186 ; 1.1831165176017283E7 ; 2.025279315988909E8 ; 2.3094183744488916E9 ; 3.584164318832932E10 ; 0.0
187 ; 1.1826501214610627E7 ; 2.0253795401583093E8 ; 2.321249539624909E9 ; 3.6044171119928215E10 ; 0.0
188 ; 1.1816846831668044E7 ; 2.0254793402348745E8 ; 2.3330760408395195E9 ; 3.6246709073944046E10 ; 0.0
189 ; 1.1809450510687208E7 ; 2.025578714292282E8 ; 2.3448928876711874E9 ; 3.644925700796754E10 ; 0.0
190 ; 1.180149360605888E7 ; 2.0256776604128915E8 ; 2.3567023381818748E9 ; 3.665181487939677E10 ; 0.0
191 ; 1.1791314652096454E7 ; 2.0257761766877663E8 ; 2.368503831787934E9 ; 3.685438264543806E10 ; 0.0
192 ; 1.1788366722198192E7 ; 2.025874261216695E8 ; 2.38029514644003E9 ; 3.7056960263106834E10 ; 0.0
193 ; 1.1781985589725116E7 ; 2.025971912108213E8 ; 2.392083513162228E9 ; 3.72595476892285E10 ; 0.0
194 ; 1.1773473720424537E7 ; 2.026069127479625E8 ; 2.403865498751953E9 ; 3.746214488043932E10 ; 0.0
195 ; 1.1768910159337582E7 ; 2.0261659054570267E8 ; 2.415638972472378E9 ; 3.766475179318729E10 ; 0.0
