CSV File for the City 6 on Day 338
1 - Minute m 
2 - Power Consumed at minute m 
3 - Power Produced at minute m 
4 - Energy Consumed since the beginning of the day 
5 - Energy Produced since the beginning of the day 
6 - Energy Lost since the beginning of the day on lines starting from the city
 
0 ; 1.1204858018827485E7 ; 1.0642501004822806E8 ; 0.0 ; 0.0 ; 0.0
1 ; 1.1214106258151527E7 ; 1.0657587812412727E8 ; 1.1204858018827485E7 ; 1.0642501004822806E8 ; 0.0
2 ; 1.1227113860324634E7 ; 1.0703574289171669E8 ; 2.2418964276979014E7 ; 2.1300088817235532E8 ; 0.0
3 ; 1.1241364756346352E7 ; 1.0780460721609718E8 ; 3.364607813730365E7 ; 3.20036631064072E8 ; 0.0
4 ; 1.1257782909734227E7 ; 1.088824736548379E8 ; 4.488744289365E7 ; 4.278412382801692E8 ; 0.0
5 ; 1.1279179291117495E7 ; 1.1026934444724965E8 ; 5.614522580338423E7 ; 5.367237119350071E8 ; 0.0
6 ; 1.1305427993774138E7 ; 1.1196522150485846E8 ; 6.742440509450172E7 ; 6.469930563822567E8 ; 0.0
7 ; 1.1340243247476274E7 ; 1.1397010640317541E8 ; 7.872983308827585E7 ; 7.589582778871152E8 ; 0.0
8 ; 1.139817862275153E7 ; 1.1628400037484288E8 ; 9.007007633575213E7 ; 8.729283842902906E8 ; 0.0
9 ; 1.1476287768128902E7 ; 1.1890690430422968E8 ; 1.0146825495850366E8 ; 9.892123846651335E8 ; 0.0
10 ; 1.1601397571714966E7 ; 1.2183881872352934E8 ; 1.1294454272663257E8 ; 1.1081192889693632E9 ; 0.0
11 ; 1.1800951274738029E7 ; 1.2507974381040254E8 ; 1.2454594029834753E8 ; 1.2299581076928926E9 ; 0.0
12 ; 1.211557473437852E7 ; 1.2862967938718858E8 ; 1.3634689157308555E8 ; 1.3550378515032952E9 ; 0.0
13 ; 1.2421863246741671E7 ; 1.3248862492169392E8 ; 1.4846246630746406E8 ; 1.4836675308904839E9 ; 0.0
14 ; 1.245827288678593E7 ; 1.3665657952954984E8 ; 1.6088432955420575E8 ; 1.6161561558121777E9 ; 0.0
15 ; 1.2474797865707237E7 ; 1.4113354197811383E8 ; 1.7334260244099167E8 ; 1.7528127353417275E9 ; 0.0
16 ; 1.2484799046813255E7 ; 1.4591951069187495E8 ; 1.8581740030669892E8 ; 1.8939462773198414E9 ; 0.0
17 ; 1.2497420510571698E7 ; 1.5101448375930706E8 ; 1.9830219935351217E8 ; 2.0398657880117164E9 ; 0.0
18 ; 1.2518341869075907E7 ; 1.564184589410994E8 ; 2.1079961986408386E8 ; 2.1908802717710233E9 ; 0.0
19 ; 1.2531072618329985E7 ; 1.6213143367968282E8 ; 2.2331796173315975E8 ; 2.347298730712123E9 ; 0.0
20 ; 1.2546024048766395E7 ; 1.681534051099564E8 ; 2.3584903435148972E8 ; 2.5094301643918056E9 ; 0.0
21 ; 1.256376990864893E7 ; 1.744843700711114E8 ; 2.4839505840025613E8 ; 2.677583569501762E9 ; 0.0
22 ; 1.2572080159304004E7 ; 1.8112432511943942E8 ; 2.6095882830890507E8 ; 2.852067939572873E9 ; 0.0
23 ; 1.2590517084675336E7 ; 1.8807326654200858E8 ; 2.735309084682091E8 ; 3.0331922646923127E9 ; 0.0
24 ; 1.2608235608125666E7 ; 1.953311903710832E8 ; 2.861214255528844E8 ; 3.221265531234321E9 ; 0.0
25 ; 1.261969076778871E7 ; 2.0158613329734766E8 ; 2.987296611610101E8 ; 3.4165967216054044E9 ; 0.0
26 ; 1.2633736191840649E7 ; 2.015916387223366E8 ; 3.113493519287988E8 ; 3.618182854902752E9 ; 0.0
27 ; 1.2649107835471788E7 ; 2.0159747129924327E8 ; 3.2398308812063944E8 ; 3.8197744936250887E9 ; 0.0
28 ; 1.2666650523000782E7 ; 2.0160362619584557E8 ; 3.3663219595611125E8 ; 4.021371964924332E9 ; 0.0
29 ; 1.2680279588613154E7 ; 2.0161009840403664E8 ; 3.49298846479112E8 ; 4.2229755911201777E9 ; 0.0
30 ; 1.2690153820703998E7 ; 2.016168827561296E8 ; 3.619791260677252E8 ; 4.424585689524215E9 ; 0.0
31 ; 1.2704143386495177E7 ; 2.0162397394107625E8 ; 3.7466927988842916E8 ; 4.626202572280344E9 ; 0.0
32 ; 1.2717808312565487E7 ; 2.0163136652050188E8 ; 3.8737342327492434E8 ; 4.82782654622142E9 ; 0.0
33 ; 1.273318379857978E7 ; 2.016390549444657E8 ; 4.0009123158748984E8 ; 5.029457912741922E9 ; 0.0
34 ; 1.2743531306562467E7 ; 2.016470335668656E8 ; 4.128244153860696E8 ; 5.231096967686388E9 ; 0.0
35 ; 1.2758085106191255E7 ; 2.0165529666041493E8 ; 4.255679466926321E8 ; 5.432744001253254E9 ; 0.0
36 ; 1.2767140469693968E7 ; 2.0166383843112722E8 ; 4.3832603179882336E8 ; 5.634399297913669E9 ; 0.0
37 ; 1.2781689485090977E7 ; 2.0167265303225487E8 ; 4.510931722685173E8 ; 5.836063136344796E9 ; 0.0
38 ; 1.2790697897057518E7 ; 2.01681734577636E8 ; 4.638748617536083E8 ; 6.037735789377051E9 ; 0.0
39 ; 1.279894923194891E7 ; 2.0169107715441263E8 ; 4.766655596506658E8 ; 6.239417523954687E9 ; 0.0
40 ; 1.281149170984741E7 ; 2.0170067483509132E8 ; 4.8946450888261473E8 ; 6.441108601109099E9 ; 0.0
41 ; 1.2821128470249418E7 ; 2.0171052168892574E8 ; 5.022760005924621E8 ; 6.642809275944191E9 ; 0.0
42 ; 1.282983847848467E7 ; 2.0172061179260743E8 ; 5.1509712906271154E8 ; 6.844519797633117E9 ; 0.0
43 ; 1.2839333352645077E7 ; 2.0173093924025795E8 ; 5.279269675411962E8 ; 7.046240409425724E9 ; 0.0
44 ; 1.2849645175924296E7 ; 2.0174149815272167E8 ; 5.407663008938413E8 ; 7.247971348665982E9 ; 0.0
45 ; 1.2857147535113743E7 ; 2.017522826861643E8 ; 5.536159460697656E8 ; 7.449712846818704E9 ; 0.0
46 ; 1.2861418329295788E7 ; 2.0176328703998628E8 ; 5.664730936048793E8 ; 7.651465129504868E9 ; 0.0
47 ; 1.2870039758643761E7 ; 2.0177450546406576E8 ; 5.79334511934175E8 ; 7.853228416544854E9 ; 0.0
48 ; 1.287704490848663E7 ; 2.0178593226534823E8 ; 5.922045516928188E8 ; 8.05500292200892E9 ; 0.0
49 ; 1.2877605552446362E7 ; 2.0179756181380352E8 ; 6.050815966013054E8 ; 8.256788854274268E9 ; 0.0
50 ; 1.2882904381233642E7 ; 2.0180938854777405E8 ; 6.179592021537517E8 ; 8.458586416088072E9 ; 0.0
51 ; 1.2889741548621492E7 ; 2.0182140697873875E8 ; 6.308421065349854E8 ; 8.660395804635845E9 ; 0.0
52 ; 1.2890973152479107E7 ; 2.0183361169552058E8 ; 6.43731848083607E8 ; 8.862217211614584E9 ; 0.0
53 ; 1.2895176772273343E7 ; 2.0184599736796454E8 ; 6.56622821236086E8 ; 9.064050823310104E9 ; 0.0
54 ; 1.290166946746113E7 ; 2.0185855875011593E8 ; 6.695179980083593E8 ; 9.265896820678068E9 ; 0.0
55 ; 1.290231850363251E7 ; 2.018712906829275E8 ; 6.824196674758204E8 ; 9.467755379428185E9 ; 0.0
56 ; 1.2909666308520753E7 ; 2.018841880965247E8 ; 6.95321985979453E8 ; 9.669626670111113E9 ; 0.0
57 ; 1.2909006434222702E7 ; 2.0189724601205856E8 ; 7.082316522879738E8 ; 9.871510858207638E9 ; 0.0
58 ; 1.291582761600925E7 ; 2.0191045954317442E8 ; 7.211406587221965E8 ; 1.0073408104219696E10 ; 0.0
59 ; 1.2919914737804241E7 ; 2.019238238971248E8 ; 7.340564863382057E8 ; 1.027531856376287E10 ; 0.0
60 ; 1.2922347347656347E7 ; 2.0193733437555364E8 ; 7.4697640107601E8 ; 1.0477242387659996E10 ; 0.0
61 ; 1.292423086055391E7 ; 2.0195098637497857E8 ; 7.598987484236664E8 ; 1.067917972203555E10 ; 0.0
62 ; 1.292812902050352E7 ; 2.0196477538699612E8 ; 7.728229792842202E8 ; 1.0881130708410528E10 ; 0.0
63 ; 1.2932284633118954E7 ; 2.0197869699823463E8 ; 7.857511083047237E8 ; 1.1083095483797523E10 ; 0.0
64 ; 1.2932968022444526E7 ; 2.0199274689007798E8 ; 7.986833929378427E8 ; 1.1285074180795757E10 ; 0.0
65 ; 1.2938873674918396E7 ; 2.0200692083818185E8 ; 8.116163609602872E8 ; 1.1487066927685835E10 ; 0.0
66 ; 1.294272125300717E7 ; 2.020212147118037E8 ; 8.245552346352056E8 ; 1.1689073848524017E10 ; 0.0
67 ; 1.29439202460918E7 ; 2.0203562447296566E8 ; 8.374979558882128E8 ; 1.189109506323582E10 ; 0.0
68 ; 1.2948680799628355E7 ; 2.0205014617546904E8 ; 8.504418761343046E8 ; 1.2093130687708786E10 ; 0.0
69 ; 1.2945924945650607E7 ; 2.020647759637775E8 ; 8.63390556933933E8 ; 1.2295180833884254E10 ; 0.0
70 ; 1.2952845524934681E7 ; 2.020795100717848E8 ; 8.763364818795836E8 ; 1.2497245609848032E10 ; 0.0
71 ; 1.2952356994397426E7 ; 2.0209434482148206E8 ; 8.892893274045182E8 ; 1.2699325119919817E10 ; 0.0
72 ; 1.295519041324584E7 ; 2.0210927662153876E8 ; 9.022416843989156E8 ; 1.2901419464741299E10 ; 0.0
73 ; 1.2953067061272055E7 ; 2.0212430196580914E8 ; 9.151968748121614E8 ; 1.3103528741362837E10 ; 0.0
74 ; 1.2955262861520844E7 ; 2.0213941743177715E8 ; 9.281499418734335E8 ; 1.3305653043328646E10 ; 0.0
75 ; 1.2960419389144387E7 ; 2.021546196789494E8 ; 9.411052047349544E8 ; 1.3507792460760424E10 ; 0.0
76 ; 1.296080547862909E7 ; 2.0216990544720674E8 ; 9.540656241240988E8 ; 1.3709947080439373E10 ; 0.0
77 ; 1.2961933283269048E7 ; 2.0218527155512342E8 ; 9.670264296027279E8 ; 1.391211698588658E10 ; 0.0
78 ; 1.296102050256072E7 ; 2.0220071489826146E8 ; 9.799883628859969E8 ; 1.4114302257441704E10 ; 0.0
79 ; 1.2959601492898744E7 ; 2.0221623244744828E8 ; 9.929493833885577E8 ; 1.4316502972339966E10 ; 0.0
80 ; 1.2960715221658094E7 ; 2.0223182124704403E8 ; 1.0059089848814564E9 ; 1.4518719204787415E10 ; 0.0
81 ; 1.2953547437992385E7 ; 2.0224747841320443E8 ; 1.0188697001031145E9 ; 1.4720951026034458E10 ; 0.0
82 ; 1.2950385055021718E7 ; 2.0226320113214496E8 ; 1.0318232475411068E9 ; 1.4923198504447662E10 ; 0.0
83 ; 1.2947703630587097E7 ; 2.0227898665841103E8 ; 1.0447736325961286E9 ; 1.5125461705579807E10 ; 0.0
84 ; 1.2942862676029874E7 ; 2.022948323131581E8 ; 1.0577213362267157E9 ; 1.5327740692238218E10 ; 0.0
85 ; 1.2938357256640691E7 ; 2.023107354824464E8 ; 1.0706641989027456E9 ; 1.5530035524551376E10 ; 0.0
86 ; 1.2936077550133059E7 ; 2.0232669361555263E8 ; 1.0836025561593864E9 ; 1.5732346260033823E10 ; 0.0
87 ; 1.2933570387612585E7 ; 2.0234270422330236E8 ; 1.0965386337095194E9 ; 1.5934672953649376E10 ; 0.0
88 ; 1.2931313899439713E7 ; 2.0235876487642512E8 ; 1.109472204097132E9 ; 1.6137015657872679E10 ; 0.0
89 ; 1.2927114086560056E7 ; 2.023748732039347E8 ; 1.1224035179965718E9 ; 1.6339374422749104E10 ; 0.0
90 ; 1.2926941583537532E7 ; 2.023910268915367E8 ; 1.1353306320831318E9 ; 1.654174929595304E10 ; 0.0
91 ; 1.2922878091773976E7 ; 2.0240722368006435E8 ; 1.1482575736666694E9 ; 1.6744140322844576E10 ; 0.0
92 ; 1.291835887005712E7 ; 2.0242346136394438E8 ; 1.1611804517584434E9 ; 1.6946547546524641E10 ; 0.0
93 ; 1.2914750056742916E7 ; 2.024397377896941E8 ; 1.1740988106285005E9 ; 1.7148971007888586E10 ; 0.0
94 ; 1.2910248156953119E7 ; 2.0245605085445017E8 ; 1.1870135606852434E9 ; 1.735141074567828E10 ; 0.0
95 ; 1.2904971794792244E7 ; 2.0247239850453E8 ; 1.1999238088421965E9 ; 1.755386679653273E10 ; 0.0
96 ; 1.2902844734405972E7 ; 2.0248877873402628E8 ; 1.2128287806369886E9 ; 1.7756339195037262E10 ; 0.0
97 ; 1.2895546309965568E7 ; 2.0250518958343473E8 ; 1.2257316253713946E9 ; 1.795882797377129E10 ; 0.0
98 ; 1.2890220676257825E7 ; 2.0252162913831574E8 ; 1.2386271716813602E9 ; 1.8161333163354725E10 ; 0.0
99 ; 1.2887792241161946E7 ; 2.0253809552798954E8 ; 1.251517392357618E9 ; 1.8363854792493042E10 ; 0.0
100 ; 1.288414100363475E7 ; 2.0255458692426488E8 ; 1.2644051845987802E9 ; 1.856639288802103E10 ; 0.0
101 ; 1.287687258251466E7 ; 2.0257110154020137E8 ; 1.2772893256024148E9 ; 1.8768947474945293E10 ; 0.0
102 ; 1.2875290814509217E7 ; 2.025876376289051E8 ; 1.2901661981849296E9 ; 1.8971518576485497E10 ; 0.0
103 ; 1.2868186446349224E7 ; 2.0260419348235708E8 ; 1.3030414889994388E9 ; 1.9174106214114403E10 ; 0.0
104 ; 1.2862609115279198E7 ; 2.0262076743027446E8 ; 1.315909675445788E9 ; 1.937671040759676E10 ; 0.0
105 ; 1.2857438254169945E7 ; 2.0263735783900362E8 ; 1.328772284561067E9 ; 1.9579331175027035E10 ; 0.0
106 ; 1.2851682456169536E7 ; 2.0265396311044526E8 ; 1.341629722815237E9 ; 1.978196853286604E10 ; 0.0
107 ; 1.2843007007439189E7 ; 2.0267058168101043E8 ; 1.3544814052714067E9 ; 1.9984622495976486E10 ; 0.0
108 ; 1.284239108702133E7 ; 2.0268721202060735E8 ; 1.3673244122788458E9 ; 2.0187293077657497E10 ; 0.0
109 ; 1.2832934406411516E7 ; 2.02703852631658E8 ; 1.3801668033658671E9 ; 2.0389980289678104E10 ; 0.0
110 ; 1.2825786430053473E7 ; 2.0272050204814422E8 ; 1.3929997377722785E9 ; 2.059268414230976E10 ; 0.0
111 ; 1.2820723137899235E7 ; 2.0273715883468285E8 ; 1.405825524202332E9 ; 2.0795404644357906E10 ; 0.0
112 ; 1.2815703051444696E7 ; 2.0275382158562842E8 ; 1.4186462473402312E9 ; 2.099814180319259E10 ; 0.0
113 ; 1.280982600277071E7 ; 2.0277048892420384E8 ; 1.431461950391676E9 ; 2.1200895624778217E10 ; 0.0
114 ; 1.280464263393595E7 ; 2.0278715950165763E8 ; 1.4442717763944466E9 ; 2.140366611370242E10 ; 0.0
115 ; 1.2799617951621436E7 ; 2.0280383199644735E8 ; 1.4570764190283825E9 ; 2.160645327320408E10 ; 0.0
116 ; 1.2788489439311272E7 ; 2.0282050511344838E8 ; 1.469876036980004E9 ; 2.1809257105200527E10 ; 0.0
117 ; 1.2782938036015928E7 ; 2.0283717758318773E8 ; 1.4826645264193153E9 ; 2.2012077610313976E10 ; 0.0
118 ; 1.2776962453653626E7 ; 2.0285384816110164E8 ; 1.4954474644553313E9 ; 2.2214914787897163E10 ; 0.0
119 ; 1.2771030702288995E7 ; 2.02870515626817E8 ; 1.508224426908985E9 ; 2.2417768636058266E10 ; 0.0
120 ; 1.2762971453721207E7 ; 2.0288717878345507E8 ; 1.520995457611274E9 ; 2.262063915168508E10 ; 0.0
121 ; 1.2754100376700124E7 ; 2.0290383645695806E8 ; 1.5337584290649953E9 ; 2.2823526330468536E10 ; 0.0
122 ; 1.2747841089838088E7 ; 2.0292048749543634E8 ; 1.5465125294416955E9 ; 2.3026430166925495E10 ; 0.0
123 ; 1.274011452578603E7 ; 2.0293713076853722E8 ; 1.5592603705315335E9 ; 2.3229350654420933E10 ; 0.0
124 ; 1.2734106268562654E7 ; 2.0295376516683373E8 ; 1.5720004850573194E9 ; 2.343228778518947E10 ; 0.0
125 ; 1.2725831098641483E7 ; 2.0297038960123286E8 ; 1.584734591325882E9 ; 2.36352415503563E10 ; 0.0
126 ; 1.2716824519471364E7 ; 2.029870030024031E8 ; 1.5974604224245234E9 ; 2.3838211939957535E10 ; 0.0
127 ; 1.2710429731564399E7 ; 2.0300360432022032E8 ; 1.6101772469439948E9 ; 2.4041198942959938E10 ; 0.0
128 ; 1.2704542073259445E7 ; 2.0302019252323145E8 ; 1.622887676675559E9 ; 2.424420254728016E10 ; 0.0
129 ; 1.2695003259627411E7 ; 2.0303676659813565E8 ; 1.6355922187488184E9 ; 2.444722273980339E10 ; 0.0
130 ; 1.2687439194432575E7 ; 2.030533255492821E8 ; 1.6482872220084457E9 ; 2.4650259506401527E10 ; 0.0
131 ; 1.2672573412513573E7 ; 2.0306986839818412E8 ; 1.6609746612028782E9 ; 2.485331283195081E10 ; 0.0
132 ; 1.2658153972058322E7 ; 2.030863941830488E8 ; 1.6736472346153917E9 ; 2.5056382700348995E10 ; 0.0
133 ; 1.2649090470156338E7 ; 2.0310290195832232E8 ; 1.68630538858745E9 ; 2.5259469094532043E10 ; 0.0
134 ; 1.2635569366473945E7 ; 2.0311939079424936E8 ; 1.6989544790576065E9 ; 2.5462571996490364E10 ; 0.0
135 ; 1.2623830808547623E7 ; 2.031358597764473E8 ; 1.7115900484240804E9 ; 2.5665691387284615E10 ; 0.0
136 ; 1.2612485107537221E7 ; 2.0315230800549382E8 ; 1.724213879232628E9 ; 2.586882724706106E10 ; 0.0
137 ; 1.2597395953840362E7 ; 2.0316873459652814E8 ; 1.7368263643401654E9 ; 2.6071979555066555E10 ; 0.0
138 ; 1.2583553117263319E7 ; 2.0318513867886484E8 ; 1.7494237602940056E9 ; 2.6275148289663082E10 ; 0.0
139 ; 1.2572208186583133E7 ; 2.0320151939562038E8 ; 1.762007313411269E9 ; 2.6478333428341946E10 ; 0.0
140 ; 1.2559376646556517E7 ; 2.0321787590335158E8 ; 1.774579521597852E9 ; 2.6681534947737568E10 ; 0.0
141 ; 1.2543153330201196E7 ; 2.0323420737170577E8 ; 1.7871388982444086E9 ; 2.688475282364092E10 ; 0.0
142 ; 1.2531201766248355E7 ; 2.032505129830822E8 ; 1.7996820515746098E9 ; 2.7087987031012623E10 ; 0.0
143 ; 1.2521977971818056E7 ; 2.0326679193230447E8 ; 1.8122132533408582E9 ; 2.7291237543995705E10 ; 0.0
144 ; 1.250577144146338E7 ; 2.0328304342630312E8 ; 1.8247352313126762E9 ; 2.749450433592801E10 ; 0.0
145 ; 1.2498463393706553E7 ; 2.0329926668380892E8 ; 1.8372410027541397E9 ; 2.7697787379354313E10 ; 0.0
146 ; 1.2489503902761335E7 ; 2.0331546093505567E8 ; 1.8497394661478462E9 ; 2.790108664603812E10 ; 0.0
147 ; 1.247907611833529E7 ; 2.033316254214925E8 ; 1.8622289700506074E9 ; 2.8104402106973175E10 ; 0.0
148 ; 1.2472629752944412E7 ; 2.0334775939550552E8 ; 1.8747080461689427E9 ; 2.830773373239467E10 ; 0.0
149 ; 1.2462566308940403E7 ; 2.0336386212014836E8 ; 1.8871806759218872E9 ; 2.8511081491790173E10 ; 0.0
150 ; 1.2455605931786254E7 ; 2.0337993286888114E8 ; 1.8996432422308276E9 ; 2.871444535391032E10 ; 0.0
151 ; 1.2443396284724997E7 ; 2.0339597092531782E8 ; 1.9120988481626139E9 ; 2.89178252867792E10 ; 0.0
152 ; 1.2436001879266314E7 ; 2.034119755829817E8 ; 1.9245422444473388E9 ; 2.912122125770452E10 ; 0.0
153 ; 1.2424068600128133E7 ; 2.0342794614506853E8 ; 1.936978246326605E9 ; 2.9324633233287502E10 ; 0.0
154 ; 1.2417200932651509E7 ; 2.034438819242171E8 ; 1.9494023149267333E9 ; 2.952806117943257E10 ; 0.0
155 ; 1.2409238189200137E7 ; 2.034597822422872E8 ; 1.9618195158593848E9 ; 2.973150506135679E10 ; 0.0
156 ; 1.2399866674017211E7 ; 2.034756464301446E8 ; 1.974228754048585E9 ; 2.9934964843599075E10 ; 0.0
157 ; 1.239288634080461E7 ; 2.034914738274526E8 ; 1.9866286207226021E9 ; 3.013844049002922E10 ; 0.0
158 ; 1.238174911316408E7 ; 2.0350726378247032E8 ; 1.9990215070634067E9 ; 3.0341931963856674E10 ; 0.0
159 ; 1.2373804517133288E7 ; 2.035230156518573E8 ; 2.011403256176571E9 ; 3.0545439227639145E10 ; 0.0
160 ; 1.2363772895456823E7 ; 2.0353872880048412E8 ; 2.0237770606937041E9 ; 3.0748962243291E10 ; 0.0
161 ; 1.2355252280907992E7 ; 2.0355440260124904E8 ; 2.036140833589161E9 ; 3.0952500972091484E10 ; 0.0
162 ; 1.2346614903175678E7 ; 2.0357003643490025E8 ; 2.048496085870069E9 ; 3.1156055374692734E10 ; 0.0
163 ; 1.2332574513588548E7 ; 2.0358562968986377E8 ; 2.0608427007732446E9 ; 3.1359625411127632E10 ; 0.0
164 ; 1.2326265263254752E7 ; 2.0360118176207668E8 ; 2.0731752752868333E9 ; 3.1563211040817497E10 ; 0.0
165 ; 1.2314533071130384E7 ; 2.0361669205482537E8 ; 2.085501540550088E9 ; 3.1766812222579575E10 ; 0.0
166 ; 1.2307080817215245E7 ; 2.0363215997858894E8 ; 2.0978160736212182E9 ; 3.19704289146344E10 ; 0.0
167 ; 1.2296004812815392E7 ; 2.0364758495088744E8 ; 2.1101231544384334E9 ; 3.2174061074612988E10 ; 0.0
168 ; 1.228612105256462E7 ; 2.036629663961348E8 ; 2.1224191592512488E9 ; 3.2377708659563873E10 ; 0.0
169 ; 1.2277781097434465E7 ; 2.0367830374549595E8 ; 2.1347052803038135E9 ; 3.2581371625960007E10 ; 0.0
170 ; 1.2267618669323279E7 ; 2.0369359643674892E8 ; 2.146983061401248E9 ; 3.27850499297055E10 ; 0.0
171 ; 1.2255743806862282E7 ; 2.0370884391415066E8 ; 2.1592506800705714E9 ; 3.298874352614225E10 ; 0.0
172 ; 1.2248220777829513E7 ; 2.0372404562830713E8 ; 2.171506423877434E9 ; 3.31924523700564E10 ; 0.0
173 ; 1.2237151333636547E7 ; 2.0373920103604737E8 ; 2.1837546446552634E9 ; 3.3396176415684708E10 ; 0.0
174 ; 1.2234220756653626E7 ; 2.0375430960030138E8 ; 2.1959917959889E9 ; 3.3599915616720757E10 ; 0.0
175 ; 1.2224690096337307E7 ; 2.0376937078998184E8 ; 2.208226016745554E9 ; 3.3803669926321056E10 ; 0.0
176 ; 1.2221650551480575E7 ; 2.0378438407986894E8 ; 2.2204507068418913E9 ; 3.400743929711104E10 ; 0.0
177 ; 1.2213562584841078E7 ; 2.0379934895049945E8 ; 2.232672357393372E9 ; 3.4211223681190907E10 ; 0.0
178 ; 1.220937390534087E7 ; 2.0381426488805833E8 ; 2.2448859199782133E9 ; 3.44150230301414E10 ; 0.0
179 ; 1.2201385262665216E7 ; 2.0382913138427427E8 ; 2.257095293883554E9 ; 3.4618837295029465E10 ; 0.0
180 ; 1.2197767411063526E7 ; 2.0384394793631795E8 ; 2.2692966791462193E9 ; 3.482266642641374E10 ; 0.0
181 ; 1.218996883220666E7 ; 2.038587140467035E8 ; 2.281494446557283E9 ; 3.502651037435006E10 ; 0.0
182 ; 1.2187383988613924E7 ; 2.038734292231928E8 ; 2.2936844153894897E9 ; 3.523036908839677E10 ; 0.0
183 ; 1.2183166237132901E7 ; 2.0388809297870302E8 ; 2.3058717993781037E9 ; 3.543424251761996E10 ; 0.0
184 ; 1.2174290720161343E7 ; 2.039027048312162E8 ; 2.3180549656152368E9 ; 3.563813061059866E10 ; 0.0
185 ; 1.2166908901300404E7 ; 2.0391726430369228E8 ; 2.330229256335398E9 ; 3.584203331542988E10 ; 0.0
186 ; 1.2159553878525903E7 ; 2.039317709239842E8 ; 2.3423961652366986E9 ; 3.6045950579733574E10 ; 0.0
187 ; 1.2157905994668525E7 ; 2.0394622422475573E8 ; 2.3545557191152244E9 ; 3.6249882350657555E10 ; 0.0
188 ; 1.2149127045066876E7 ; 2.039606237434016E8 ; 2.366713625109893E9 ; 3.645382857488231E10 ; 0.0
189 ; 1.214165084801351E7 ; 2.039749690219702E8 ; 2.3788627521549597E9 ; 3.665778919862571E10 ; 0.0
190 ; 1.2136012982526517E7 ; 2.039892596070883E8 ; 2.391004403002973E9 ; 3.686176416764768E10 ; 0.0
191 ; 1.2131104869681815E7 ; 2.0400349504988816E8 ; 2.4031404159854994E9 ; 3.706575342725477E10 ; 0.0
192 ; 1.2124653741297102E7 ; 2.0401767490593666E8 ; 2.415271520855181E9 ; 3.726975692230466E10 ; 0.0
193 ; 1.2121709898579998E7 ; 2.040317987351666E8 ; 2.4273961745964785E9 ; 3.7473774597210594E10 ; 0.0
194 ; 1.2110618128852164E7 ; 2.0404586610181004E8 ; 2.4395178844950585E9 ; 3.767780639594576E10 ; 0.0
195 ; 1.210820926064641E7 ; 2.0405987657433328E8 ; 2.451628502623911E9 ; 3.788185226204757E10 ; 0.0
