CSV File for the City 4 on Day 261
1 - Minute m 
2 - Power Consumed at minute m 
3 - Power Produced at minute m 
4 - Energy Consumed since the beginning of the day 
5 - Energy Produced since the beginning of the day 
6 - Energy Lost since the beginning of the day on lines starting from the city
 
0 ; 2296729.686545745 ; 1.0607177129434797E8 ; 0.0 ; 0.0 ; 0.0
1 ; 2302110.363469871 ; 1.0622223018458647E8 ; 2296729.686545745 ; 1.0607177129434797E8 ; 0.0
2 ; 2305184.712476446 ; 1.0668172279227361E8 ; 4598840.050015616 ; 2.1229400147893444E8 ; 0.0
3 ; 2312331.0728767994 ; 1.0745025391461319E8 ; 6904024.7624920625 ; 3.1897572427120805E8 ; 0.0
4 ; 2322715.3102776003 ; 1.0852782786175722E8 ; 9216355.835368862 ; 4.2642597818582124E8 ; 0.0
5 ; 2335462.2271909183 ; 1.099144484292385E8 ; 1.1539071145646462E7 ; 5.3495380604757845E8 ; 0.0
6 ; 2347594.8588375677 ; 1.1161011887315169E8 ; 1.387453337283738E7 ; 6.448682544768169E8 ; 0.0
7 ; 2370647.0397303826 ; 1.1361484188845587E8 ; 1.6222128231674947E7 ; 7.564783733499686E8 ; 0.0
8 ; 2401693.225110875 ; 1.1592861959072953E8 ; 1.8592775271405328E7 ; 8.700932152384244E8 ; 0.0
9 ; 2449936.181946706 ; 1.1855145350166684E8 ; 2.09944684965162E7 ; 9.86021834829154E8 ; 0.0
10 ; 2525131.2778259893 ; 1.214833445385459E8 ; 2.3444404678462908E7 ; 1.1045732883308208E9 ; 0.0
11 ; 2650431.6146559 ; 1.2472429300783971E8 ; 2.5969535956288897E7 ; 1.2260566328693666E9 ; 0.0
12 ; 2844662.6786499307 ; 1.2827429860307524E8 ; 2.8619967570944797E7 ; 1.3507809258772063E9 ; 0.0
13 ; 3033976.5579824047 ; 1.3213336040697438E8 ; 3.146463024959473E7 ; 1.4790552244802816E9 ; 0.0
14 ; 3058225.949755671 ; 1.3630147689784306E8 ; 3.449860680757713E7 ; 1.611188584887256E9 ; 0.0
15 ; 3063920.432729832 ; 1.4077864596010268E8 ; 3.75568327573328E7 ; 1.747490061785099E9 ; 0.0
16 ; 3071681.3871298186 ; 1.4556486489879426E8 ; 4.0620753190062635E7 ; 1.8882687077452016E9 ; 0.0
17 ; 3077344.725868724 ; 1.5066013045782307E8 ; 4.3692434577192456E7 ; 2.0338335726439958E9 ; 0.0
18 ; 3087423.3100276557 ; 1.5606443884165633E8 ; 4.676977930306118E7 ; 2.184493703101819E9 ; 0.0
19 ; 3094447.2124266513 ; 1.6177778574014202E8 ; 4.985720261308884E7 ; 2.3405581419434752E9 ; 0.0
20 ; 3103075.047829338 ; 1.6780016635607633E8 ; 5.2951649825515494E7 ; 2.502335927683617E9 ; 0.0
21 ; 3108241.9514745367 ; 1.7413157543512222E8 ; 5.605472487334483E7 ; 2.6701360940396934E9 ; 0.0
22 ; 3119354.318005759 ; 1.8077200729766035E8 ; 5.916296682481937E7 ; 2.8442676694748154E9 ; 0.0
23 ; 3123611.079006326 ; 1.8772145587214893E8 ; 6.228232114282513E7 ; 3.0250396767724757E9 ; 0.0
24 ; 3133571.1144454298 ; 1.949799147295661E8 ; 6.5405932221831456E7 ; 3.2127611326446247E9 ; 0.0
25 ; 3140703.2925921227 ; 2.012354180167065E8 ; 6.853950333627689E7 ; 3.407741047374191E9 ; 0.0
26 ; 3148434.1529190345 ; 2.0124150652846202E8 ; 7.168020662886901E7 ; 3.6089764653908973E9 ; 0.0
27 ; 3157715.5774587556 ; 2.0124794226801068E8 ; 7.482864078178805E7 ; 3.810217971919359E9 ; 0.0
28 ; 3164716.2617883813 ; 2.0125471772843173E8 ; 7.79863563592468E7 ; 4.01146591418737E9 ; 0.0
29 ; 3170752.918259759 ; 2.0126182522004187E8 ; 8.115107262103519E7 ; 4.2127206319158015E9 ; 0.0
30 ; 3178104.407611844 ; 2.012692569034615E8 ; 8.432182553929494E7 ; 4.413982457135843E9 ; 0.0
31 ; 3186074.4572449406 ; 2.0127700482142133E8 ; 8.749992994690679E7 ; 4.615251714039305E9 ; 0.0
32 ; 3190659.4305901495 ; 2.0128506092911372E8 ; 9.068600440415174E7 ; 4.816528718860726E9 ; 0.0
33 ; 3199534.6826452194 ; 2.0129341712293005E8 ; 9.387666383474189E7 ; 5.01781377978984E9 ; 0.0
34 ; 3205661.8094200958 ; 2.0130206526746306E8 ; 9.70761985173871E7 ; 5.219107196912769E9 ; 0.0
35 ; 3213707.792932009 ; 2.0131099722068748E8 ; 1.002818603268072E8 ; 5.420409262180232E9 ; 0.0
36 ; 3220661.1637054803 ; 2.013202048572644E8 ; 1.034955681197392E8 ; 5.62172025940092E9 ; 0.0
37 ; 3225365.9186913655 ; 2.0132968008994386E8 ; 1.0671622928344469E8 ; 5.823040464258184E9 ; 0.0
38 ; 3229585.515760623 ; 2.0133941488906673E8 ; 1.0994159520213605E8 ; 6.024370144348128E9 ; 0.0
39 ; 3234682.419831619 ; 2.0134940130018875E8 ; 1.1317118071789667E8 ; 6.225709559237195E9 ; 0.0
40 ; 3239089.8514081975 ; 2.0135963145987025E8 ; 1.1640586313772829E8 ; 6.427058960537384E9 ; 0.0
41 ; 3247436.5462283376 ; 2.0137009760968992E8 ; 1.1964495298913649E8 ; 6.628418591997254E9 ; 0.0
42 ; 3250891.0257081985 ; 2.013807921085552E8 ; 1.2289238953536482E8 ; 6.829788689606944E9 ; 0.0
43 ; 3254363.387039979 ; 2.0139170744339144E8 ; 1.2614328056107302E8 ; 7.031169481715499E9 ; 0.0
44 ; 3256753.8323109504 ; 2.0140283623830017E8 ; 1.29397643948113E8 ; 7.232561189158891E9 ; 0.0
45 ; 3262775.7639594264 ; 2.0141417126228103E8 ; 1.3265439778042394E8 ; 7.433964025397191E9 ; 0.0
46 ; 3266327.8786398177 ; 2.0142570543561658E8 ; 1.3591717354438338E8 ; 7.635378196659472E9 ; 0.0
47 ; 3268737.5825788206 ; 2.01437431835019E8 ; 1.391835014230232E8 ; 7.836803902095089E9 ; 0.0
48 ; 3272509.0616110624 ; 2.0144934369763827E8 ; 1.42452239005602E8 ; 8.038241333930108E9 ; 0.0
49 ; 3273985.6767121498 ; 2.014614344240302E8 ; 1.4572474806721306E8 ; 8.239690677627747E9 ; 0.0
50 ; 3276731.704283315 ; 2.014736975801787E8 ; 1.489987337439252E8 ; 8.441152112051777E9 ; 0.0
51 ; 3277418.511255259 ; 2.0148612689866507E8 ; 1.5227546544820854E8 ; 8.642625809631956E9 ; 0.0
52 ; 3277512.011110116 ; 2.0149871627907136E8 ; 1.555528839594638E8 ; 8.84411193653062E9 ; 0.0
53 ; 3279972.2570189736 ; 2.0151145978770167E8 ; 1.5883039597057393E8 ; 9.045610652809692E9 ; 0.0
54 ; 3281084.485463313 ; 2.0152435165669906E8 ; 1.6211036822759292E8 ; 9.247122112597395E9 ; 0.0
55 ; 3282312.927949627 ; 2.0153738628263167E8 ; 1.6539145271305624E8 ; 9.448646464254093E9 ; 0.0
56 ; 3283649.2507167626 ; 2.015505582246163E8 ; 1.6867376564100587E8 ; 9.650183850536724E9 ; 0.0
57 ; 3285325.0506272297 ; 2.0156386220204172E8 ; 1.7195741489172265E8 ; 9.851734408761341E9 ; 0.0
58 ; 3288568.746746218 ; 2.015772930919505E8 ; 1.7524273994234988E8 ; 1.0053298270963383E10 ; 0.0
59 ; 3286134.293826206 ; 2.0159084592613128E8 ; 1.785313086890961E8 ; 1.0254875564055334E10 ; 0.0
60 ; 3288967.2831616797 ; 2.016045158879704E8 ; 1.818174429829223E8 ; 1.0456466409981466E10 ; 0.0
61 ; 3290175.6068254453 ; 2.0161829830910605E8 ; 1.8510641026608396E8 ; 1.0658070925869436E10 ; 0.0
62 ; 3291187.120042359 ; 2.0163218866592467E8 ; 1.883965858729094E8 ; 1.0859689224178543E10 ; 0.0
63 ; 3292325.6957085375 ; 2.016461825759343E8 ; 1.9168777299295175E8 ; 1.1061321412844467E10 ; 0.0
64 ; 3290244.7203788687 ; 2.0166027579404697E8 ; 1.949800986886603E8 ; 1.12629675954204E10 ; 0.0
65 ; 3294694.4439545586 ; 2.016744642087978E8 ; 1.9827034340903917E8 ; 1.1464627871214447E10 ; 0.0
66 ; 3296793.092756293 ; 2.0168874383852583E8 ; 2.0156503785299373E8 ; 1.1666302335423244E10 ; 0.0
67 ; 3294689.726009385 ; 2.017031108275378E8 ; 2.0486183094575003E8 ; 1.186799107926177E10 ; 0.0
68 ; 3298677.064354532 ; 2.017175614422747E8 ; 2.0815652067175943E8 ; 1.2069694190089308E10 ; 0.0
69 ; 3297350.3778319308 ; 2.01732092067497E8 ; 2.1145519773611397E8 ; 1.2271411751531582E10 ; 0.0
70 ; 3299757.6657135743 ; 2.0174669920250317E8 ; 2.147525481139459E8 ; 1.247314384359908E10 ; 0.0
71 ; 3300684.905968339 ; 2.0176137945739368E8 ; 2.1805230577965948E8 ; 1.2674890542801582E10 ; 0.0
72 ; 3298263.8565869667 ; 2.0177612954939052E8 ; 2.2135299068562782E8 ; 1.2876651922258976E10 ; 0.0
73 ; 3298772.3638513526 ; 2.017909462992218E8 ; 2.2465125454221478E8 ; 1.3078428051808367E10 ; 0.0
74 ; 3298798.357982698 ; 2.0180582662757757E8 ; 2.2795002690606612E8 ; 1.3280218998107588E10 ; 0.0
75 ; 3300712.7414773386 ; 2.0182076755164364E8 ; 2.312488252640488E8 ; 1.3482024824735165E10 ; 0.0
76 ; 3297450.655544684 ; 2.0183576618171784E8 ; 2.3454953800552616E8 ; 1.3683845592286808E10 ; 0.0
77 ; 3299492.721909083 ; 2.0185081971791223E8 ; 2.3784698866107085E8 ; 1.3885681358468525E10 ; 0.0
78 ; 3299558.091219473 ; 2.018659254469443E8 ; 2.4114648138297993E8 ; 1.4087532178186438E10 ; 0.0
79 ; 3298077.795831659 ; 2.0188108073901904E8 ; 2.444460394741994E8 ; 1.4289398103633383E10 ; 0.0
80 ; 3293652.6405132385 ; 2.0189628304480308E8 ; 2.4774411727003106E8 ; 1.4491279184372402E10 ; 0.0
81 ; 3292835.0206849487 ; 2.0191152989249173E8 ; 2.510377699105443E8 ; 1.4693175467417206E10 ; 0.0
82 ; 3289627.2659692937 ; 2.0192681888496852E8 ; 2.5433060493122926E8 ; 1.4895086997309698E10 ; 0.0
83 ; 3288573.1951195947 ; 2.0194214769705775E8 ; 2.5762023219719857E8 ; 1.5097013816194666E10 ; 0.0
84 ; 3286563.9191547157 ; 2.019575140728685E8 ; 2.6090880539231816E8 ; 1.5298955963891724E10 ; 0.0
85 ; 3281814.4247729466 ; 2.0197291582322943E8 ; 2.6419536931147286E8 ; 1.5500913477964592E10 ; 0.0
86 ; 3282048.126133743 ; 2.01988350823213E8 ; 2.674771837362458E8 ; 1.570288639378782E10 ; 0.0
87 ; 3279538.011969694 ; 2.0200381700974736E8 ; 2.7075923186237955E8 ; 1.5904874744611034E10 ; 0.0
88 ; 3275935.90130977 ; 2.0201931237931436E8 ; 2.7403876987434924E8 ; 1.610687856162078E10 ; 0.0
89 ; 3271469.843465187 ; 2.0203483498573145E8 ; 2.77314705775659E8 ; 1.6308897874000095E10 ; 0.0
90 ; 3271370.2864822773 ; 2.0205038293801582E8 ; 2.8058617561912423E8 ; 1.6510932708985826E10 ; 0.0
91 ; 3267881.004743245 ; 2.0206595439832819E8 ; 2.838575459056065E8 ; 1.6712983091923841E10 ; 0.0
92 ; 3266678.3791931192 ; 2.0208154757999423E8 ; 2.871254269103497E8 ; 1.691504904632217E10 ; 0.0
93 ; 3263833.7479570624 ; 2.0209716074560156E8 ; 2.9039210528954285E8 ; 1.7117130593902164E10 ; 0.0
94 ; 3261962.0803022226 ; 2.0211279220516953E8 ; 2.936559390374999E8 ; 1.7319227754647766E10 ; 0.0
95 ; 3257214.2224296555 ; 2.021284403143897E8 ; 2.9691790111780214E8 ; 1.7521340546852936E10 ; 0.0
96 ; 3254305.2371493755 ; 2.0214410347293523E8 ; 3.001751153402318E8 ; 1.7723468987167324E10 ; 0.0
97 ; 3249061.0571111036 ; 2.021597801228356E8 ; 3.0342942057738113E8 ; 1.792561309064026E10 ; 0.0
98 ; 3245735.1670119585 ; 2.0217546874691585E8 ; 3.066784816344922E8 ; 1.8127772870763096E10 ; 0.0
99 ; 3243722.0135641983 ; 2.0219116786729684E8 ; 3.099242168015042E8 ; 1.8329948339510014E10 ; 0.0
100 ; 3241397.9954194743 ; 2.0220687604395533E8 ; 3.1316793881506836E8 ; 1.853213950737731E10 ; 0.0
101 ; 3238275.0221741116 ; 2.0222259187334067E8 ; 3.1640933681048787E8 ; 1.873434638342127E10 ; 0.0
102 ; 3235142.6178759085 ; 2.0223831398704705E8 ; 3.19647611832662E8 ; 1.893656897529461E10 ; 0.0
103 ; 3231748.011503307 ; 2.022540410505382E8 ; 3.228827544505379E8 ; 1.9138807289281654E10 ; 0.0
104 ; 3226701.673059715 ; 2.0226977176192355E8 ; 3.261145024620412E8 ; 1.934106133033219E10 ; 0.0
105 ; 3221705.573082473 ; 2.0228550485078263E8 ; 3.293412041351009E8 ; 1.9543331102094116E10 ; 0.0
106 ; 3217858.481599188 ; 2.0230123907703716E8 ; 3.3256290970818335E8 ; 1.97456166069449E10 ; 0.0
107 ; 3217234.6986010587 ; 2.0231697322986785E8 ; 3.3578076818978256E8 ; 1.994791784602194E10 ; 0.0
108 ; 3210613.7361077596 ; 2.023327061266749E8 ; 3.389980028883836E8 ; 2.0150234819251804E10 ; 0.0
109 ; 3209969.117761901 ; 2.0234843661207977E8 ; 3.422086166244914E8 ; 2.035256752537848E10 ; 0.0
110 ; 3203192.612217977 ; 2.0236416355696726E8 ; 3.454185857422533E8 ; 2.055491596199056E10 ; 0.0
111 ; 3200782.182439553 ; 2.023798858575657E8 ; 3.4862177835447127E8 ; 2.0757280125547527E10 ; 0.0
112 ; 3196145.1801238623 ; 2.0239560243456396E8 ; 3.5182256053691083E8 ; 2.0959660011405094E10 ; 0.0
113 ; 3192902.3209796096 ; 2.024113122322638E8 ; 3.550187057170347E8 ; 2.1162055613839657E10 ; 0.0
114 ; 3188485.3221078306 ; 2.024270142177659E8 ; 3.582116080380143E8 ; 2.1364466926071922E10 ; 0.0
115 ; 3183385.849696968 ; 2.0244270738018847E8 ; 3.6140009336012214E8 ; 2.156689394028969E10 ; 0.0
116 ; 3179950.074609761 ; 2.0245839072991684E8 ; 3.6458347920981914E8 ; 2.1769336647669876E10 ; 0.0
117 ; 3176682.9170913156 ; 2.0247406329788297E8 ; 3.677634292844289E8 ; 2.197179503839979E10 ; 0.0
118 ; 3171980.20542956 ; 2.024897241348734E8 ; 3.709401122015202E8 ; 2.2174269101697674E10 ; 0.0
119 ; 3168399.593907667 ; 2.0250537231086454E8 ; 3.7411209240694976E8 ; 2.2376758825832546E10 ; 0.0
120 ; 3166516.1808405947 ; 2.0252100691438448E8 ; 3.772804920008574E8 ; 2.257926419814341E10 ; 0.0
121 ; 3159203.1435043677 ; 2.025366270518997E8 ; 3.80447008181698E8 ; 2.2781785205057793E10 ; 0.0
122 ; 3155205.2574797906 ; 2.025522318472259E8 ; 3.836062113252024E8 ; 2.298432183210969E10 ; 0.0
123 ; 3147515.3441398293 ; 2.025678204409621E8 ; 3.867614165826822E8 ; 2.3186874063956917E10 ; 0.0
124 ; 3147468.5345789017 ; 2.0258339198994666E8 ; 3.89908931926822E8 ; 2.338944188439788E10 ; 0.0
125 ; 3142749.9141708594 ; 2.0259894566673476E8 ; 3.930564004614009E8 ; 2.359202527638783E10 ; 0.0
126 ; 3133197.197844429 ; 2.0261448065909597E8 ; 3.961991503755718E8 ; 2.3794624222054565E10 ; 0.0
127 ; 3129637.654198949 ; 2.0262999616953164E8 ; 3.9933234757341623E8 ; 2.399723870271366E10 ; 0.0
128 ; 3125777.165695789 ; 2.026454914148105E8 ; 4.024619852276152E8 ; 2.4199868698883194E10 ; 0.0
129 ; 3122261.381193675 ; 2.0266096562552276E8 ; 4.0558776239331096E8 ; 2.4402514190298004E10 ; 0.0
130 ; 3115556.5423150877 ; 2.026764180456508E8 ; 4.0871002377450466E8 ; 2.4605175155923527E10 ; 0.0
131 ; 3109801.713321117 ; 2.026918479321568E8 ; 4.118255803168197E8 ; 2.4807851573969177E10 ; 0.0
132 ; 3101690.6954567325 ; 2.0270725455458575E8 ; 4.149353820301408E8 ; 2.5010543421901333E10 ; 0.0
133 ; 3093677.065839376 ; 2.02722637194684E8 ; 4.1803707272559756E8 ; 2.5213250676455917E10 ; 0.0
134 ; 3086652.6074762647 ; 2.0273799514603186E8 ; 4.211307497914369E8 ; 2.54159733136506E10 ; 0.0
135 ; 3078511.027737286 ; 2.027533277136906E8 ; 4.242174023989132E8 ; 2.561871130879663E10 ; 0.0
136 ; 3072975.6892556734 ; 2.0276863421386236E8 ; 4.2729591342665046E8 ; 2.5821464636510323E10 ; 0.0
137 ; 3061136.1286559533 ; 2.0278391397356313E8 ; 4.303688891159061E8 ; 2.6024233270724186E10 ; 0.0
138 ; 3056932.271726056 ; 2.0279916633030787E8 ; 4.334300252445621E8 ; 2.622701718469775E10 ; 0.0
139 ; 3043476.912762082 ; 2.028143906318075E8 ; 4.3648695751628816E8 ; 2.6429816351028057E10 ; 0.0
140 ; 3041814.781497648 ; 2.028295862356772E8 ; 4.3953043442905027E8 ; 2.6632630741659866E10 ; 0.0
141 ; 3031014.73432513 ; 2.028447525091554E8 ; 4.425722492105479E8 ; 2.6835460327895542E10 ; 0.0
142 ; 3024251.9513676777 ; 2.0285988882883322E8 ; 4.4560326394487303E8 ; 2.7038305080404697E10 ; 0.0
143 ; 3016508.8204814675 ; 2.0287499458039418E8 ; 4.486275158962407E8 ; 2.7241164969233532E10 ; 0.0
144 ; 3007841.7273769793 ; 2.0289006915836307E8 ; 4.516440247167222E8 ; 2.7444039963813927E10 ; 0.0
145 ; 3003788.4441642324 ; 2.029051119658642E8 ; 4.546518664440992E8 ; 2.764693003297229E10 ; 0.0
146 ; 2999712.788144507 ; 2.0292012241438875E8 ; 4.576556548882634E8 ; 2.7849835144938156E10 ; 0.0
147 ; 2993344.3498922638 ; 2.0293509992356995E8 ; 4.6065536767640793E8 ; 2.8052755267352547E10 ; 0.0
148 ; 2988021.3667733283 ; 2.0295004392096722E8 ; 4.636487120263002E8 ; 2.8255690367276115E10 ; 0.0
149 ; 2984444.4521172866 ; 2.0296495384185743E8 ; 4.666367333930735E8 ; 2.8458640411197083E10 ; 0.0
150 ; 2977547.9078025576 ; 2.0297982912903416E8 ; 4.6962117784519076E8 ; 2.866160536503894E10 ; 0.0
151 ; 2971498.553579916 ; 2.0299466923261383E8 ; 4.7259872575299335E8 ; 2.8864585194167976E10 ; 0.0
152 ; 2967689.079733778 ; 2.030094736098491E8 ; 4.755702243065733E8 ; 2.906757986340059E10 ; 0.0
153 ; 2961860.2030343832 ; 2.030242417249486E8 ; 4.7853791338630706E8 ; 2.9270589337010437E10 ; 0.0
154 ; 2958898.6877618493 ; 2.030389730489034E8 ; 4.8149977358934146E8 ; 2.9473613578735386E10 ; 0.0
155 ; 2952012.8216225742 ; 2.0305366705931935E8 ; 4.844586722771033E8 ; 2.967665255178429E10 ; 0.0
156 ; 2945663.7978938543 ; 2.0306832324025545E8 ; 4.8741068509872586E8 ; 2.987970621884361E10 ; 0.0
157 ; 2939743.712307076 ; 2.030829410820681E8 ; 4.9035634889661974E8 ; 3.0082774542083866E10 ; 0.0
158 ; 2935534.8087437535 ; 2.030975200812604E8 ; 4.9329609260892683E8 ; 3.0285857483165936E10 ; 0.0
159 ; 2929147.271106103 ; 2.0311205974033734E8 ; 4.962316274176706E8 ; 3.0488955003247196E10 ; 0.0
160 ; 2927070.7103968305 ; 2.0312655956766525E8 ; 4.9916077468877673E8 ; 3.0692067062987534E10 ; 0.0
161 ; 2917791.963441497 ; 2.0314101907733685E8 ; 5.0208784539917356E8 ; 3.08951936225552E10 ; 0.0
162 ; 2913718.146517915 ; 2.031554377890406E8 ; 5.0500563736261505E8 ; 3.1098334641632534E10 ; 0.0
163 ; 2908736.3176723877 ; 2.031698152279347E8 ; 5.07919355509133E8 ; 3.1301490079421574E10 ; 0.0
164 ; 2902313.4054544717 ; 2.0318415092452532E8 ; 5.1082809182680535E8 ; 3.150465989464951E10 ; 0.0
165 ; 2897288.8478671373 ; 2.0319844441454917E8 ; 5.137304052322598E8 ; 3.1707844045574036E10 ; 0.0
166 ; 2893448.9006135156 ; 2.0321269523885992E8 ; 5.1662769408012694E8 ; 3.1911042489988586E10 ; 0.0
167 ; 2887243.47410312 ; 2.0322690294331864E8 ; 5.195211429807404E8 ; 3.2114255185227448E10 ; 0.0
168 ; 2881449.3476031856 ; 2.0324106707868785E8 ; 5.224083864548435E8 ; 3.2317482088170765E10 ; 0.0
169 ; 2877299.207182755 ; 2.0325518720052922E8 ; 5.252898358024467E8 ; 3.2520723155249454E10 ; 0.0
170 ; 2871912.469113677 ; 2.032692628691048E8 ; 5.281671350096295E8 ; 3.2723978342449986E10 ; 0.0
171 ; 2863833.617847436 ; 2.0328329364928144E8 ; 5.3103904747874314E8 ; 3.292724760531909E10 ; 0.0
172 ; 2861045.9549276326 ; 2.0329727911043853E8 ; 5.339028810965906E8 ; 3.3130530898968372E10 ; 0.0
173 ; 2855724.02904679 ; 2.0331121882637873E8 ; 5.367639270515182E8 ; 3.333382817807881E10 ; 0.0
174 ; 2849939.647649103 ; 2.0332511237524188E8 ; 5.39619651080565E8 ; 3.353713939690519E10 ; 0.0
175 ; 2847199.781120384 ; 2.0333895933942157E8 ; 5.42469590728214E8 ; 3.374046450928043E10 ; 0.0
176 ; 2840391.2574376687 ; 2.033527593054845E8 ; 5.453167905093344E8 ; 3.394380346861985E10 ; 0.0
177 ; 2836350.7313712514 ; 2.0336651186409277E8 ; 5.481571817667722E8 ; 3.4147156227925335E10 ; 0.0
178 ; 2834511.2592460746 ; 2.033802166099283E8 ; 5.509935324981434E8 ; 3.435052273978943E10 ; 0.0
179 ; 2832035.484239305 ; 2.0339387314162028E8 ; 5.538280437573895E8 ; 3.455390295639936E10 ; 0.0
180 ; 2822856.302992322 ; 2.0340748106167445E8 ; 5.566600792416289E8 ; 3.475729682954098E10 ; 0.0
181 ; 2819871.3520792853 ; 2.034210399764051E8 ; 5.594829355446212E8 ; 3.496070431060265E10 ; 0.0
182 ; 2816073.6030559484 ; 2.034345494958693E8 ; 5.623028068967005E8 ; 3.5164125350579056E10 ; 0.0
183 ; 2813587.9440765637 ; 2.034480092338028E8 ; 5.651188804997565E8 ; 3.536755990007493E10 ; 0.0
184 ; 2807595.470149906 ; 2.034614188075587E8 ; 5.67932468443833E8 ; 3.557100790930873E10 ; 0.0
185 ; 2804681.396365299 ; 2.0347477783804756E8 ; 5.707400639139829E8 ; 3.577446932811629E10 ; 0.0
186 ; 2797482.8121121246 ; 2.0348808594967982E8 ; 5.735447453103482E8 ; 3.597794410595434E10 ; 0.0
187 ; 2791668.8966105133 ; 2.0350134277030975E8 ; 5.763422281224602E8 ; 3.6181432191904015E10 ; 0.0
188 ; 2789417.879688757 ; 2.035145479311816E8 ; 5.791338970190707E8 ; 3.6384933534674324E10 ; 0.0
189 ; 2786163.905513795 ; 2.035277010668771E8 ; 5.819233148987595E8 ; 3.658844808260551E10 ; 0.0
190 ; 2780511.9945345083 ; 2.0354080181526485E8 ; 5.847094788042732E8 ; 3.6791975783672386E10 ; 0.0
191 ; 2778123.5955679966 ; 2.035538498174514E8 ; 5.874899907988077E8 ; 3.699551658548765E10 ; 0.0
192 ; 2774001.034092595 ; 2.035668447177336E8 ; 5.902681143943757E8 ; 3.71990704353051E10 ; 0.0
193 ; 2768811.0582048157 ; 2.0357978616355294E8 ; 5.930421154284682E8 ; 3.7402637280022835E10 ; 0.0
194 ; 2765231.8514033332 ; 2.0359267380545083E8 ; 5.95810926486673E8 ; 3.7606217066186386E10 ; 0.0
195 ; 2759798.7992974184 ; 2.0360550729702568E8 ; 5.985761583380764E8 ; 3.780980973999184E10 ; 0.0
196 ; 2755196.852825287 ; 2.036182862948911E8 ; 6.013359571373738E8 ; 3.8013415247288864E10 ; 0.0
197 ; 2754219.4819908068 ; 2.0363101045863566E8 ; 6.040911539901991E8 ; 3.8217033533583755E10 ; 0.0
198 ; 2747880.4212862947 ; 2.0364367945078373E8 ; 6.068453734721899E8 ; 3.842066454404239E10 ; 0.0
199 ; 2745373.8189031254 ; 2.0365629293675762E8 ; 6.095932538934762E8 ; 3.862430822349317E10 ; 0.0
