CSV File for the City 1 on Day 9
1 - Minute m 
2 - Power Consumed at minute m 
3 - Power Produced at minute m 
4 - Energy Consumed since the beginning of the day 
5 - Energy Produced since the beginning of the day 
6 - Energy Lost since the beginning of the day on lines starting from the city
 
0 ; 1.1851738354847906E7 ; 1.4095045573655449E7 ; 0.0 ; 0.0 ; 0.0
1 ; 1.1865259416422123E7 ; 1.4095045573655449E7 ; 1.1851738354847906E7 ; 1.4095045573655449E7 ; 0.0
2 ; 1.1879304423394939E7 ; 1.4095045573655449E7 ; 2.371699777127003E7 ; 2.8190091147310898E7 ; 0.0
3 ; 1.1892919386075906E7 ; 1.4095045573655449E7 ; 3.559630219466497E7 ; 4.228513672096635E7 ; 0.0
4 ; 1.1910612499218011E7 ; 1.4095045573655449E7 ; 4.748922158074088E7 ; 5.6380182294621795E7 ; 0.0
5 ; 1.1935886166517176E7 ; 1.4095045573655449E7 ; 5.9399834079958886E7 ; 7.047522786827725E7 ; 0.0
6 ; 1.1960486069333568E7 ; 1.4095045573655449E7 ; 7.133572024647605E7 ; 8.457027344193271E7 ; 0.0
7 ; 1.200142297888353E7 ; 1.4095045573655449E7 ; 8.329620631580962E7 ; 9.866531901558816E7 ; 0.0
8 ; 1.2058846363144103E7 ; 1.4095045573655449E7 ; 9.529762929469316E7 ; 1.1276036458924362E8 ; 0.0
9 ; 1.2145573424645048E7 ; 1.4095045573655449E7 ; 1.0735647565783726E8 ; 1.2685541016289908E8 ; 0.0
10 ; 1.22852045526554E7 ; 1.4095045573655449E7 ; 1.1950204908248231E8 ; 1.4095045573655453E8 ; 0.0
11 ; 1.2496549468521247E7 ; 1.4095045573655449E7 ; 1.317872536351377E8 ; 1.5504550131021E8 ; 0.0
12 ; 1.2842615981472097E7 ; 1.4095045573655449E7 ; 1.4428380310365894E8 ; 1.6914054688386545E8 ; 0.0
13 ; 1.3175653015275372E7 ; 1.4095045573655449E7 ; 1.5712641908513105E8 ; 1.832355924575209E8 ; 0.0
14 ; 1.3216155160556793E7 ; 1.4095045573655449E7 ; 1.703020721004064E8 ; 1.9733063803117636E8 ; 0.0
15 ; 1.322593663151768E7 ; 1.4095045573655449E7 ; 1.835182272609632E8 ; 2.114256836048318E8 ; 0.0
16 ; 1.3244404958012637E7 ; 1.4095045573655449E7 ; 1.9674416389248088E8 ; 2.2552072917848727E8 ; 0.0
17 ; 1.3262829622422164E7 ; 1.4095045573655449E7 ; 2.0998856885049352E8 ; 2.3961577475214273E8 ; 0.0
18 ; 1.3275481794892553E7 ; 1.4095045573655449E7 ; 2.2325139847291568E8 ; 2.5371082032579818E8 ; 0.0
19 ; 1.3291587551810754E7 ; 1.4095045573655449E7 ; 2.3652688026780823E8 ; 2.6780586589945364E8 ; 0.0
20 ; 1.330679269181351E7 ; 1.4095045573655449E7 ; 2.4981846781961897E8 ; 2.8190091147310907E8 ; 0.0
21 ; 1.3324220543374302E7 ; 1.4095045573655449E7 ; 2.6312526051143247E8 ; 2.959959570467645E8 ; 0.0
22 ; 1.3340093886613434E7 ; 1.4095045573655449E7 ; 2.7644948105480677E8 ; 3.100910026204199E8 ; 0.0
23 ; 1.3353398996864483E7 ; 1.4095045573655449E7 ; 2.897895749414202E8 ; 3.2418604819407535E8 ; 0.0
24 ; 1.3367430076167133E7 ; 1.4095045573655449E7 ; 3.031429739382847E8 ; 3.382810937677308E8 ; 0.0
25 ; 1.3386677993218457E7 ; 1.4095045573655449E7 ; 3.165104040144518E8 ; 3.523761393413862E8 ; 0.0
26 ; 1.3400857778035747E7 ; 1.4095045573655449E7 ; 3.298970820076703E8 ; 3.664711849150416E8 ; 0.0
27 ; 1.3414380944538169E7 ; 1.4095045573655449E7 ; 3.4329793978570604E8 ; 3.8056623048869705E8 ; 0.0
28 ; 1.3431863050746866E7 ; 1.4095045573655449E7 ; 3.567123207302442E8 ; 3.946612760623525E8 ; 0.0
29 ; 1.344203655969682E7 ; 1.4095045573655449E7 ; 3.701441837809911E8 ; 4.087563216360079E8 ; 0.0
30 ; 1.345971227330323E7 ; 1.4095045573655449E7 ; 3.835862203406879E8 ; 4.2285136720966333E8 ; 0.0
31 ; 1.3473540430907479E7 ; 1.4095045573655449E7 ; 3.970459326139911E8 ; 4.3694641278331876E8 ; 0.0
32 ; 1.3489157551778132E7 ; 1.4095045573655449E7 ; 4.1051947304489857E8 ; 4.510414583569742E8 ; 0.0
33 ; 1.3502624462726614E7 ; 1.4095045573655449E7 ; 4.240086305966767E8 ; 4.651365039306296E8 ; 0.0
34 ; 1.3517507052376008E7 ; 1.4095045573655449E7 ; 4.375112550594033E8 ; 4.7923154950428504E8 ; 0.0
35 ; 1.3525210962226307E7 ; 1.4095045573655449E7 ; 4.5102876211177933E8 ; 4.9332659507794046E8 ; 0.0
36 ; 1.3539307535105506E7 ; 1.4095045573655449E7 ; 4.6455397307400566E8 ; 5.074216406515959E8 ; 0.0
37 ; 1.3552769450192602E7 ; 1.4095045573655449E7 ; 4.780932806091112E8 ; 5.215166862252513E8 ; 0.0
38 ; 1.356354745902174E7 ; 1.4095045573655449E7 ; 4.916460500593038E8 ; 5.3561173179890674E8 ; 0.0
39 ; 1.3569044067654273E7 ; 1.4095045573655449E7 ; 5.0520959751832557E8 ; 5.497067773725622E8 ; 0.0
40 ; 1.3583032531693198E7 ; 1.4095045573655449E7 ; 5.187786415859798E8 ; 5.638018229462177E8 ; 0.0
41 ; 1.3591046500856943E7 ; 1.4095045573655449E7 ; 5.3236167411767304E8 ; 5.778968685198731E8 ; 0.0
42 ; 1.3602142795642132E7 ; 1.4095045573655449E7 ; 5.4595272061853E8 ; 5.919919140935286E8 ; 0.0
43 ; 1.3610901346863864E7 ; 1.4095045573655449E7 ; 5.595548634141722E8 ; 6.060869596671841E8 ; 0.0
44 ; 1.3620791417131072E7 ; 1.4095045573655449E7 ; 5.73165764761036E8 ; 6.201820052408396E8 ; 0.0
45 ; 1.3628641931886716E7 ; 1.4095045573655449E7 ; 5.867865561781671E8 ; 6.342770508144951E8 ; 0.0
46 ; 1.3631909190037433E7 ; 1.4095045573655449E7 ; 6.004151981100538E8 ; 6.483720963881506E8 ; 0.0
47 ; 1.3638574893042935E7 ; 1.4095045573655449E7 ; 6.140471073000913E8 ; 6.62467141961806E8 ; 0.0
48 ; 1.3645700737268971E7 ; 1.4095045573655449E7 ; 6.276856821931342E8 ; 6.765621875354615E8 ; 0.0
49 ; 1.3649747547526354E7 ; 1.4095045573655449E7 ; 6.413313829304031E8 ; 6.90657233109117E8 ; 0.0
50 ; 1.365642087781213E7 ; 1.4095045573655449E7 ; 6.549811304779295E8 ; 7.047522786827725E8 ; 0.0
51 ; 1.3657567085353084E7 ; 1.4095045573655449E7 ; 6.686375513557416E8 ; 7.18847324256428E8 ; 0.0
52 ; 1.366407028482943E7 ; 1.4095045573655449E7 ; 6.822951184410948E8 ; 7.329423698300835E8 ; 0.0
53 ; 1.366497484758379E7 ; 1.4095045573655449E7 ; 6.959591887259241E8 ; 7.47037415403739E8 ; 0.0
54 ; 1.367172636640137E7 ; 1.4095045573655449E7 ; 7.096241635735079E8 ; 7.611324609773945E8 ; 0.0
55 ; 1.3671740241092905E7 ; 1.4095045573655449E7 ; 7.232958899399092E8 ; 7.7522750655105E8 ; 0.0
56 ; 1.367581788595241E7 ; 1.4095045573655449E7 ; 7.369676301810021E8 ; 7.893225521247054E8 ; 0.0
57 ; 1.367826036959301E7 ; 1.4095045573655449E7 ; 7.506434480669545E8 ; 8.034175976983609E8 ; 0.0
58 ; 1.3681439842752501E7 ; 1.4095045573655449E7 ; 7.643217084365475E8 ; 8.175126432720164E8 ; 0.0
59 ; 1.3686869835374866E7 ; 1.4095045573655449E7 ; 7.780031482793E8 ; 8.316076888456719E8 ; 0.0
60 ; 1.368818594460919E7 ; 1.4095045573655449E7 ; 7.916900181146748E8 ; 8.457027344193274E8 ; 0.0
61 ; 1.3688046835450491E7 ; 1.4095045573655449E7 ; 8.05378204059284E8 ; 8.597977799929829E8 ; 0.0
62 ; 1.3693996977054952E7 ; 1.4095045573655449E7 ; 8.190662508947345E8 ; 8.738928255666384E8 ; 0.0
63 ; 1.3696090729607027E7 ; 1.4095045573655449E7 ; 8.327602478717895E8 ; 8.879878711402938E8 ; 0.0
64 ; 1.3696732354860364E7 ; 1.4095045573655449E7 ; 8.464563386013964E8 ; 9.020829167139493E8 ; 0.0
65 ; 1.3699314558665939E7 ; 1.4095045573655449E7 ; 8.601530709562567E8 ; 9.161779622876048E8 ; 0.0
66 ; 1.3703072103228556E7 ; 1.4095045573655449E7 ; 8.738523855149227E8 ; 9.302730078612603E8 ; 0.0
67 ; 1.370361680488743E7 ; 1.4095045573655449E7 ; 8.875554576181513E8 ; 9.443680534349158E8 ; 0.0
68 ; 1.370538522682494E7 ; 1.4095045573655449E7 ; 9.012590744230387E8 ; 9.584630990085713E8 ; 0.0
69 ; 1.3707279417993331E7 ; 1.4095045573655449E7 ; 9.149644596498637E8 ; 9.725581445822268E8 ; 0.0
70 ; 1.370767357676407E7 ; 1.4095045573655449E7 ; 9.28671739067857E8 ; 9.866531901558822E8 ; 0.0
71 ; 1.3712079725042874E7 ; 1.4095045573655449E7 ; 9.423794126446211E8 ; 1.0007482357295377E9 ; 0.0
72 ; 1.3712187824221903E7 ; 1.4095045573655449E7 ; 9.56091492369664E8 ; 1.0148432813031932E9 ; 0.0
73 ; 1.3710294501661947E7 ; 1.4095045573655449E7 ; 9.698036801938858E8 ; 1.0289383268768487E9 ; 0.0
74 ; 1.3713707649427919E7 ; 1.4095045573655449E7 ; 9.835139746955477E8 ; 1.0430333724505042E9 ; 0.0
75 ; 1.3713097564369766E7 ; 1.4095045573655449E7 ; 9.972276823449756E8 ; 1.0571284180241597E9 ; 0.0
76 ; 1.3715021780325482E7 ; 1.4095045573655449E7 ; 1.0109407799093454E9 ; 1.0712234635978152E9 ; 0.0
77 ; 1.3714624413795706E7 ; 1.4095045573655449E7 ; 1.0246558016896709E9 ; 1.0853185091714706E9 ; 0.0
78 ; 1.3710641740517879E7 ; 1.4095045573655449E7 ; 1.0383704261034666E9 ; 1.099413554745126E9 ; 0.0
79 ; 1.3704104278112195E7 ; 1.4095045573655449E7 ; 1.0520810678439845E9 ; 1.1135086003187814E9 ; 0.0
80 ; 1.3702523999357976E7 ; 1.4095045573655449E7 ; 1.0657851721220967E9 ; 1.1276036458924367E9 ; 0.0
81 ; 1.3698972837818064E7 ; 1.4095045573655449E7 ; 1.0794876961214547E9 ; 1.141698691466092E9 ; 0.0
82 ; 1.3692004116402715E7 ; 1.4095045573655449E7 ; 1.0931866689592729E9 ; 1.1557937370397475E9 ; 0.0
83 ; 1.3691494100522744E7 ; 1.4095045573655449E7 ; 1.1068786730756755E9 ; 1.1698887826134028E9 ; 0.0
84 ; 1.3687242080589991E7 ; 1.4095045573655449E7 ; 1.1205701671761982E9 ; 1.1839838281870582E9 ; 0.0
85 ; 1.3681221067731697E7 ; 1.4095045573655449E7 ; 1.1342574092567883E9 ; 1.1980788737607136E9 ; 0.0
86 ; 1.3679362949546874E7 ; 1.4095045573655449E7 ; 1.1479386303245199E9 ; 1.212173919334369E9 ; 0.0
87 ; 1.3670504207518386E7 ; 1.4095045573655449E7 ; 1.1616179932740667E9 ; 1.2262689649080243E9 ; 0.0
88 ; 1.3663533065709926E7 ; 1.4095045573655449E7 ; 1.175288497481585E9 ; 1.2403640104816797E9 ; 0.0
89 ; 1.3659781424508909E7 ; 1.4095045573655449E7 ; 1.1889520305472949E9 ; 1.254459056055335E9 ; 0.0
90 ; 1.3659876407004887E7 ; 1.4095045573655449E7 ; 1.2026118119718037E9 ; 1.2685541016289904E9 ; 0.0
91 ; 1.3651342905063272E7 ; 1.4095045573655449E7 ; 1.2162716883788085E9 ; 1.2826491472026458E9 ; 0.0
92 ; 1.3646720904357942E7 ; 1.4095045573655449E7 ; 1.2299230312838717E9 ; 1.2967441927763011E9 ; 0.0
93 ; 1.3639770854754116E7 ; 1.4095045573655449E7 ; 1.2435697521882296E9 ; 1.3108392383499565E9 ; 0.0
94 ; 1.3632566665277071E7 ; 1.4095045573655449E7 ; 1.2572095230429838E9 ; 1.3249342839236119E9 ; 0.0
95 ; 1.3630366753963662E7 ; 1.4095045573655449E7 ; 1.2708420897082608E9 ; 1.3390293294972672E9 ; 0.0
96 ; 1.3620869366241695E7 ; 1.4095045573655449E7 ; 1.2844724564622245E9 ; 1.3531243750709226E9 ; 0.0
97 ; 1.361737685004418E7 ; 1.4095045573655449E7 ; 1.2980933258284662E9 ; 1.367219420644578E9 ; 0.0
98 ; 1.3611654503298484E7 ; 1.4095045573655449E7 ; 1.3117107026785104E9 ; 1.3813144662182333E9 ; 0.0
99 ; 1.3599507871813897E7 ; 1.4095045573655449E7 ; 1.325322357181809E9 ; 1.3954095117918887E9 ; 0.0
100 ; 1.359616612546462E7 ; 1.4095045573655449E7 ; 1.338921865053623E9 ; 1.409504557365544E9 ; 0.0
101 ; 1.3587253604002064E7 ; 1.4095045573655449E7 ; 1.3525180311790876E9 ; 1.4235996029391994E9 ; 0.0
102 ; 1.3583658119545555E7 ; 1.4095045573655449E7 ; 1.3661052847830896E9 ; 1.4376946485128548E9 ; 0.0
103 ; 1.357476094668992E7 ; 1.4095045573655449E7 ; 1.379688942902635E9 ; 1.4517896940865102E9 ; 0.0
104 ; 1.356928175265076E7 ; 1.4095045573655449E7 ; 1.393263703849325E9 ; 1.4658847396601655E9 ; 0.0
105 ; 1.3566349986281112E7 ; 1.4095045573655449E7 ; 1.4068329856019757E9 ; 1.479979785233821E9 ; 0.0
106 ; 1.3556376839492792E7 ; 1.4095045573655449E7 ; 1.4203993355882568E9 ; 1.4940748308074763E9 ; 0.0
107 ; 1.3546873693683237E7 ; 1.4095045573655449E7 ; 1.4339557124277496E9 ; 1.5081698763811316E9 ; 0.0
108 ; 1.3540674327859651E7 ; 1.4095045573655449E7 ; 1.4475025861214328E9 ; 1.522264921954787E9 ; 0.0
109 ; 1.3534029109523572E7 ; 1.4095045573655449E7 ; 1.4610432604492924E9 ; 1.5363599675284424E9 ; 0.0
110 ; 1.3522981845115853E7 ; 1.4095045573655449E7 ; 1.474577289558816E9 ; 1.5504550131020977E9 ; 0.0
111 ; 1.3517613080137452E7 ; 1.4095045573655449E7 ; 1.4881002714039319E9 ; 1.564550058675753E9 ; 0.0
112 ; 1.3510219181764599E7 ; 1.4095045573655449E7 ; 1.5016178844840693E9 ; 1.5786451042494085E9 ; 0.0
113 ; 1.3500683213732675E7 ; 1.4095045573655449E7 ; 1.515128103665834E9 ; 1.5927401498230639E9 ; 0.0
114 ; 1.3492707678631585E7 ; 1.4095045573655449E7 ; 1.5286287868795667E9 ; 1.6068351953967192E9 ; 0.0
115 ; 1.3482337331095198E7 ; 1.4095045573655449E7 ; 1.5421214945581982E9 ; 1.6209302409703746E9 ; 0.0
116 ; 1.3475325690212043E7 ; 1.4095045573655449E7 ; 1.5556038318892934E9 ; 1.63502528654403E9 ; 0.0
117 ; 1.3464211923028206E7 ; 1.4095045573655449E7 ; 1.5690791575795054E9 ; 1.6491203321176853E9 ; 0.0
118 ; 1.3455801287408596E7 ; 1.4095045573655449E7 ; 1.5825433695025337E9 ; 1.6632153776913407E9 ; 0.0
119 ; 1.3445873746815495E7 ; 1.4095045573655449E7 ; 1.5959991707899423E9 ; 1.677310423264996E9 ; 0.0
120 ; 1.3435750016304921E7 ; 1.4095045573655449E7 ; 1.6094450445367577E9 ; 1.6914054688386514E9 ; 0.0
121 ; 1.34293481936108E7 ; 1.4095045573655449E7 ; 1.6228807945530627E9 ; 1.7055005144123068E9 ; 0.0
122 ; 1.3418973551970704E7 ; 1.4095045573655449E7 ; 1.6363101427466736E9 ; 1.7195955599859622E9 ; 0.0
123 ; 1.340621587134645E7 ; 1.4095045573655449E7 ; 1.6497291162986443E9 ; 1.7336906055596175E9 ; 0.0
124 ; 1.3396533049817823E7 ; 1.4095045573655449E7 ; 1.6631353321699908E9 ; 1.747785651133273E9 ; 0.0
125 ; 1.3387400226451172E7 ; 1.4095045573655449E7 ; 1.6765318652198086E9 ; 1.7618806967069283E9 ; 0.0
126 ; 1.3379750029037658E7 ; 1.4095045573655449E7 ; 1.6899192654462597E9 ; 1.7759757422805836E9 ; 0.0
127 ; 1.3366238451098554E7 ; 1.4095045573655449E7 ; 1.7032990154752975E9 ; 1.790070787854239E9 ; 0.0
128 ; 1.3357844855607485E7 ; 1.4095045573655449E7 ; 1.716665253926396E9 ; 1.8041658334278944E9 ; 0.0
129 ; 1.3344396218909396E7 ; 1.4095045573655449E7 ; 1.7300230987820034E9 ; 1.8182608790015497E9 ; 0.0
130 ; 1.3335547605803508E7 ; 1.4095045573655449E7 ; 1.743367495000913E9 ; 1.832355924575205E9 ; 0.0
131 ; 1.3319790556026869E7 ; 1.4095045573655449E7 ; 1.7567030426067164E9 ; 1.8464509701488605E9 ; 0.0
132 ; 1.3306610404023347E7 ; 1.4095045573655449E7 ; 1.7700228331627433E9 ; 1.8605460157225158E9 ; 0.0
133 ; 1.3291644553248081E7 ; 1.4095045573655449E7 ; 1.7833294435667667E9 ; 1.8746410612961712E9 ; 0.0
134 ; 1.3274422033859408E7 ; 1.4095045573655449E7 ; 1.796621088120015E9 ; 1.8887361068698266E9 ; 0.0
135 ; 1.3261235624093035E7 ; 1.4095045573655449E7 ; 1.8098955101538744E9 ; 1.902831152443482E9 ; 0.0
136 ; 1.3241952593174636E7 ; 1.4095045573655449E7 ; 1.8231567457779675E9 ; 1.9169261980171373E9 ; 0.0
137 ; 1.3229300262831029E7 ; 1.4095045573655449E7 ; 1.8363986983711421E9 ; 1.9310212435907927E9 ; 0.0
138 ; 1.321692513609355E7 ; 1.4095045573655449E7 ; 1.8496279986339731E9 ; 1.945116289164448E9 ; 0.0
139 ; 1.3198326964092115E7 ; 1.4095045573655449E7 ; 1.8628449237700667E9 ; 1.9592113347381034E9 ; 0.0
140 ; 1.3179881787983363E7 ; 1.4095045573655449E7 ; 1.8760432507341588E9 ; 1.9733063803117588E9 ; 0.0
141 ; 1.316123722652269E7 ; 1.4095045573655449E7 ; 1.8892231325221422E9 ; 1.9874014258854141E9 ; 0.0
142 ; 1.314597893368331E7 ; 1.4095045573655449E7 ; 1.9023843697486649E9 ; 2.0014964714590695E9 ; 0.0
143 ; 1.3129640851073056E7 ; 1.4095045573655449E7 ; 1.9155303486823483E9 ; 2.0155915170327249E9 ; 0.0
144 ; 1.311436076036718E7 ; 1.4095045573655449E7 ; 1.9286599895334213E9 ; 2.0296865626063802E9 ; 0.0
145 ; 1.3102995726884669E7 ; 1.4095045573655449E7 ; 1.9417743502937884E9 ; 2.0437816081800356E9 ; 0.0
146 ; 1.309183608316341E7 ; 1.4095045573655449E7 ; 1.954877346020673E9 ; 2.057876653753691E9 ; 0.0
147 ; 1.30813175043267E7 ; 1.4095045573655449E7 ; 1.9679691821038365E9 ; 2.0719716993273463E9 ; 0.0
148 ; 1.3071122396942269E7 ; 1.4095045573655449E7 ; 1.981050499608163E9 ; 2.0860667449010017E9 ; 0.0
149 ; 1.3057663920879897E7 ; 1.4095045573655449E7 ; 1.9941216220051055E9 ; 2.100161790474657E9 ; 0.0
150 ; 1.3047985402598832E7 ; 1.4095045573655449E7 ; 2.0071792859259853E9 ; 2.1142568360483124E9 ; 0.0
151 ; 1.3036036866935458E7 ; 1.4095045573655449E7 ; 2.0202272713285842E9 ; 2.1283518816219678E9 ; 0.0
152 ; 1.302756419715491E7 ; 1.4095045573655449E7 ; 2.0332633081955197E9 ; 2.1424469271956232E9 ; 0.0
153 ; 1.3013361380364204E7 ; 1.4095045573655449E7 ; 2.0462908723926747E9 ; 2.1565419727692785E9 ; 0.0
154 ; 1.3001387386690293E7 ; 1.4095045573655449E7 ; 2.0593042337730389E9 ; 2.170637018342934E9 ; 0.0
155 ; 1.2992409885828732E7 ; 1.4095045573655449E7 ; 2.0723056211597292E9 ; 2.1847320639165897E9 ; 0.0
156 ; 1.297413052681591E7 ; 1.4095045573655449E7 ; 2.085298031045558E9 ; 2.1988271094902453E9 ; 0.0
157 ; 1.2962947284716269E7 ; 1.4095045573655449E7 ; 2.0982721615723739E9 ; 2.212922155063901E9 ; 0.0
158 ; 1.2955249479200035E7 ; 1.4095045573655449E7 ; 2.1112351088570902E9 ; 2.2270172006375566E9 ; 0.0
159 ; 1.2941308391063394E7 ; 1.4095045573655449E7 ; 2.1241903583362904E9 ; 2.241112246211212E9 ; 0.0
160 ; 1.293041150919124E7 ; 1.4095045573655449E7 ; 2.1371316667273538E9 ; 2.255207291784868E9 ; 0.0
161 ; 1.2914825234264169E7 ; 1.4095045573655449E7 ; 2.150062078236545E9 ; 2.2693023373585234E9 ; 0.0
162 ; 1.290392196807135E7 ; 1.4095045573655449E7 ; 2.1629769034708095E9 ; 2.283397382932179E9 ; 0.0
163 ; 1.2892602347927008E7 ; 1.4095045573655449E7 ; 2.175880825438881E9 ; 2.2974924285058346E9 ; 0.0
164 ; 1.2880363586446814E7 ; 1.4095045573655449E7 ; 2.188773427786808E9 ; 2.31158747407949E9 ; 0.0
165 ; 1.2868909970886568E7 ; 1.4095045573655449E7 ; 2.201653791373255E9 ; 2.325682519653146E9 ; 0.0
166 ; 1.2855384162335295E7 ; 1.4095045573655449E7 ; 2.2145227013441415E9 ; 2.3397775652268014E9 ; 0.0
167 ; 1.2844005331815585E7 ; 1.4095045573655449E7 ; 2.227378085506477E9 ; 2.353872610800457E9 ; 0.0
168 ; 1.2832898434384279E7 ; 1.4095045573655449E7 ; 2.2402220908382926E9 ; 2.3679676563741126E9 ; 0.0
169 ; 1.2816674059194533E7 ; 1.4095045573655449E7 ; 2.253054989272677E9 ; 2.382062701947768E9 ; 0.0
170 ; 1.280561736666235E7 ; 1.4095045573655449E7 ; 2.2658716633318715E9 ; 2.396157747521424E9 ; 0.0
171 ; 1.2791800506770538E7 ; 1.4095045573655449E7 ; 2.278677280698534E9 ; 2.4102527930950794E9 ; 0.0
172 ; 1.278252590837936E7 ; 1.4095045573655449E7 ; 2.2914690812053046E9 ; 2.424347838668735E9 ; 0.0
173 ; 1.2768763224487925E7 ; 1.4095045573655449E7 ; 2.304251607113684E9 ; 2.4384428842423906E9 ; 0.0
174 ; 1.276192621779232E7 ; 1.4095045573655449E7 ; 2.317020370338172E9 ; 2.452537929816046E9 ; 0.0
175 ; 1.2757348061791625E7 ; 1.4095045573655449E7 ; 2.3297822965559645E9 ; 2.466632975389702E9 ; 0.0
176 ; 1.2746871708337283E7 ; 1.4095045573655449E7 ; 2.342539644617756E9 ; 2.4807280209633574E9 ; 0.0
177 ; 1.2737258328975575E7 ; 1.4095045573655449E7 ; 2.355286516326093E9 ; 2.494823066537013E9 ; 0.0
178 ; 1.273232132914473E7 ; 1.4095045573655449E7 ; 2.368023774655069E9 ; 2.5089181121106687E9 ; 0.0
179 ; 1.2719631070374317E7 ; 1.4095045573655449E7 ; 2.380756095984214E9 ; 2.5230131576843243E9 ; 0.0
180 ; 1.2713796144168383E7 ; 1.4095045573655449E7 ; 2.3934757270545883E9 ; 2.53710820325798E9 ; 0.0
181 ; 1.2709211864649266E7 ; 1.4095045573655449E7 ; 2.4061895231987567E9 ; 2.5512032488316355E9 ; 0.0
182 ; 1.2702810155081404E7 ; 1.4095045573655449E7 ; 2.418898735063406E9 ; 2.565298294405291E9 ; 0.0
183 ; 1.2692811418616192E7 ; 1.4095045573655449E7 ; 2.4316015452184873E9 ; 2.5793933399789467E9 ; 0.0
184 ; 1.268374089193467E7 ; 1.4095045573655449E7 ; 2.4442943566371036E9 ; 2.5934883855526023E9 ; 0.0
185 ; 1.2676974834446758E7 ; 1.4095045573655449E7 ; 2.4569780975290384E9 ; 2.607583431126258E9 ; 0.0
186 ; 1.2667307952668749E7 ; 1.4095045573655449E7 ; 2.4696550723634853E9 ; 2.6216784766999135E9 ; 0.0
187 ; 1.2659057819107763E7 ; 1.4095045573655449E7 ; 2.482322380316154E9 ; 2.635773522273569E9 ; 0.0
188 ; 1.2653472370414568E7 ; 1.4095045573655449E7 ; 2.4949814381352615E9 ; 2.6498685678472247E9 ; 0.0
189 ; 1.2645023920914406E7 ; 1.4095045573655449E7 ; 2.5076349105056763E9 ; 2.6639636134208803E9 ; 0.0
190 ; 1.2637068038257971E7 ; 1.4095045573655449E7 ; 2.5202799344265904E9 ; 2.678058658994536E9 ; 0.0
191 ; 1.2629500222273845E7 ; 1.4095045573655449E7 ; 2.5329170024648485E9 ; 2.6921537045681915E9 ; 0.0
192 ; 1.262337280924616E7 ; 1.4095045573655449E7 ; 2.5455465026871223E9 ; 2.706248750141847E9 ; 0.0
193 ; 1.2615138131063195E7 ; 1.4095045573655449E7 ; 2.5581698754963684E9 ; 2.7203437957155027E9 ; 0.0
194 ; 1.2609702198298212E7 ; 1.4095045573655449E7 ; 2.5707850136274314E9 ; 2.7344388412891583E9 ; 0.0
195 ; 1.2596834471613824E7 ; 1.4095045573655449E7 ; 2.5833947158257294E9 ; 2.748533886862814E9 ; 0.0
