CSV File for the City 4 on Day 214
1 - Minute m 
2 - Power Consumed at minute m 
3 - Power Produced at minute m 
4 - Energy Consumed since the beginning of the day 
5 - Energy Produced since the beginning of the day 
6 - Energy Lost since the beginning of the day on lines starting from the city
 
0 ; 437498.34318532544 ; 1.0558525569876221E8 ; 0.0 ; 0.0 ; 0.0
1 ; 444133.5888395853 ; 1.0573370713093388E8 ; 437498.34318532544 ; 1.0558525569876221E8 ; 0.0
2 ; 452320.71807692124 ; 1.0619134641131654E8 ; 881631.9320249108 ; 2.113189628296961E8 ; 0.0
3 ; 459675.39544079767 ; 1.0695819532318026E8 ; 1333952.650101832 ; 3.1751030924101263E8 ; 0.0
4 ; 472325.16345269815 ; 1.080342742931267E8 ; 1793628.04554263 ; 4.244685045641929E8 ; 0.0
5 ; 484808.9036151272 ; 1.0941960201587617E8 ; 2265953.2089953283 ; 5.325027788573196E8 ; 0.0
6 ; 502155.8970624662 ; 1.1111419508268836E8 ; 2750762.1126104556 ; 6.419223808731958E8 ; 0.0
7 ; 526876.0211849075 ; 1.1311806762861031E8 ; 3252918.0096729216 ; 7.530365759558841E8 ; 0.0
8 ; 558422.376310611 ; 1.1543123101462722E8 ; 3779794.0308578294 ; 8.661546435844944E8 ; 0.0
9 ; 611392.8748293646 ; 1.1805369356048977E8 ; 4338216.4071684405 ; 9.815858745991216E8 ; 0.0
10 ; 692453.338565752 ; 1.2098546034237963E8 ; 4949609.281997805 ; 1.0996395681596112E9 ; 0.0
11 ; 814460.5235045728 ; 1.2422653306666264E8 ; 5642062.620563557 ; 1.2206250285019908E9 ; 0.0
12 ; 1013776.768441076 ; 1.2777691002697292E8 ; 6456523.14406813 ; 1.3448515615686533E9 ; 0.0
13 ; 1205490.3931116122 ; 1.3163658614712882E8 ; 7470299.912509207 ; 1.4726284715956264E9 ; 0.0
14 ; 1229659.4442677433 ; 1.3580555310737973E8 ; 8675790.30562082 ; 1.6042650577427552E9 ; 0.0
15 ; 1238068.286357715 ; 1.4028379954674035E8 ; 9905449.749888562 ; 1.7400706108501348E9 ; 0.0
16 ; 1250399.7833531478 ; 1.4507131133016375E8 ; 1.1143518036246277E7 ; 1.8803544103968751E9 ; 0.0
17 ; 1259586.120935355 ; 1.5016807186639014E8 ; 1.2393917819599425E7 ; 2.0254257217270389E9 ; 0.0
18 ; 1267249.889562126 ; 1.5557406246069926E8 ; 1.365350394053478E7 ; 2.175593793593429E9 ; 0.0
19 ; 1279610.418745001 ; 1.6128926268648943E8 ; 1.4920753830096906E7 ; 2.331167856054128E9 ; 0.0
20 ; 1287764.56828353 ; 1.6731365076049057E8 ; 1.6200364248841908E7 ; 2.4924571187406178E9 ; 0.0
21 ; 1299003.3775758068 ; 1.736472039082224E8 ; 1.748812881712544E7 ; 2.659770769501108E9 ; 0.0
22 ; 1306229.5075595314 ; 1.8028989870872915E8 ; 1.8787132194701247E7 ; 2.8334179734093304E9 ; 0.0
23 ; 1318433.7862175782 ; 1.872417114103375E8 ; 2.0093361702260777E7 ; 3.0137078721180596E9 ; 0.0
24 ; 1329222.206001101 ; 1.945026182119115E8 ; 2.1411795488478355E7 ; 3.200949583528397E9 ; 0.0
25 ; 1339429.9905890115 ; 2.007606364047826E8 ; 2.2741017694479458E7 ; 3.395452201740309E9 ; 0.0
26 ; 1349639.920228129 ; 2.0076929061504576E8 ; 2.408044768506847E7 ; 3.5962128381450915E9 ; 0.0
27 ; 1358529.6397765812 ; 2.0077832749641737E8 ; 2.5430087605296597E7 ; 3.796982128760137E9 ; 0.0
28 ; 1369153.6247279963 ; 2.007877251097115E8 ; 2.6788617245073177E7 ; 3.9977604562565546E9 ; 0.0
29 ; 1380423.0774531069 ; 2.0079746231660587E8 ; 2.8157770869801175E7 ; 4.1985481813662663E9 ; 0.0
30 ; 1389173.6615533172 ; 2.008075188515574E8 ; 2.953819394725428E7 ; 4.399345643682872E9 ; 0.0
31 ; 1397615.3100851248 ; 2.0081787536890075E8 ; 3.0927367608807597E7 ; 4.60015316253443E9 ; 0.0
32 ; 1406016.1705156078 ; 2.0082851346890083E8 ; 3.2324982918892723E7 ; 4.80097103790333E9 ; 0.0
33 ; 1417911.8922497951 ; 2.0083941570635188E8 ; 3.373099908940833E7 ; 5.001799551372231E9 ; 0.0
34 ; 1426351.6833450792 ; 2.0085056558502778E8 ; 3.514891098165812E7 ; 5.202638967078583E9 ; 0.0
35 ; 1435382.217659215 ; 2.008619475409441E8 ; 3.65752626650032E7 ; 5.40348953266361E9 ; 0.0
36 ; 1443667.583294284 ; 2.0087354691702017E8 ; 3.8010644882662416E7 ; 5.604351480204555E9 ; 0.0
37 ; 1451812.7622881087 ; 2.0088534993135983E8 ; 3.94543124659567E7 ; 5.805225027121574E9 ; 0.0
38 ; 1459898.720804315 ; 2.0089734364101666E8 ; 4.090612522824481E7 ; 6.006110377052935E9 ; 0.0
39 ; 1468349.574237771 ; 2.0090951590278664E8 ; 4.236602394904913E7 ; 6.207007720693952E9 ; 0.0
40 ; 1475445.877605418 ; 2.0092185533228147E8 ; 4.38343735232869E7 ; 6.407917236596738E9 ; 0.0
41 ; 1482399.1174513025 ; 2.0093435126228335E8 ; 4.530981940089232E7 ; 6.608839091929019E9 ; 0.0
42 ; 1490584.9979849462 ; 2.0094699370116523E8 ; 4.679221851834362E7 ; 6.809773443191302E9 ; 0.0
43 ; 1499209.9345569708 ; 2.009597732919773E8 ; 4.8282803516328566E7 ; 7.0107204368924675E9 ; 0.0
44 ; 1502790.2844998296 ; 2.0097268127264848E8 ; 4.9782013450885534E7 ; 7.211680210184444E9 ; 0.0
45 ; 1509582.7620731683 ; 2.0098570943762702E8 ; 5.1284803735385366E7 ; 7.412652891457093E9 ; 0.0
46 ; 1516420.5829646245 ; 2.0099885010118192E8 ; 5.279438649745853E7 ; 7.61363860089472E9 ; 0.0
47 ; 1522016.6767896777 ; 2.0101209606250826E8 ; 5.4310807080423154E7 ; 7.814637450995902E9 ; 0.0
48 ; 1526099.2618757715 ; 2.0102544057271332E8 ; 5.583282375721283E7 ; 8.015649547058411E9 ; 0.0
49 ; 1530735.331305682 ; 2.0103887730371282E8 ; 5.73589230190886E7 ; 8.216674987631124E9 ; 0.0
50 ; 1535665.1390727386 ; 2.0105240031902778E8 ; 5.8889658350394286E7 ; 8.417713864934836E9 ; 0.0
51 ; 1541041.0304878852 ; 2.0106600404644474E8 ; 6.0425323489467025E7 ; 8.618766265253864E9 ; 0.0
52 ; 1544438.421147691 ; 2.010796832524818E8 ; 6.196636451995491E7 ; 8.819832269300308E9 ; 0.0
53 ; 1549543.4574647914 ; 2.0109343301858777E8 ; 6.35108029411026E7 ; 9.02091195255279E9 ; 0.0
54 ; 1552715.2696386534 ; 2.011072487189938E8 ; 6.506034639856739E7 ; 9.222005385571377E9 ; 0.0
55 ; 1557697.8601652305 ; 2.0112112600012928E8 ; 6.661306166820604E7 ; 9.42311263429037E9 ; 0.0
56 ; 1561438.323322945 ; 2.0113506076151273E8 ; 6.817075952837127E7 ; 9.6242337602905E9 ; 0.0
57 ; 1565688.979820741 ; 2.0114904913802713E8 ; 6.973219785169423E7 ; 9.825368821052013E9 ; 0.0
58 ; 1571079.9191619337 ; 2.011630874834902E8 ; 7.129788683151497E7 ; 1.002651787019004E10 ; 0.0
59 ; 1572519.4974767852 ; 2.0117717235543263E8 ; 7.28689667506769E7 ; 1.022768095767353E10 ; 0.0
60 ; 1576985.3268877435 ; 2.0119130050100115E8 ; 7.444148624815369E7 ; 1.0428858130028963E10 ; 0.0
61 ; 1579420.1531509908 ; 2.0120546884390545E8 ; 7.601847157504143E7 ; 1.0630049430529964E10 ; 0.0
62 ; 1585275.5538553232 ; 2.0121967447233424E8 ; 7.759789172819242E7 ; 1.083125489937387E10 ; 0.0
63 ; 1588193.1521204018 ; 2.0123391462776816E8 ; 7.918316728204775E7 ; 1.1032474573846205E10 ; 0.0
64 ; 1590778.9847443758 ; 2.01248186694623E8 ; 8.077136043416815E7 ; 1.1233708488473972E10 ; 0.0
65 ; 1596140.9979912573 ; 2.012624881906601E8 ; 8.236213941891252E7 ; 1.1434956675168594E10 ; 0.0
66 ; 1597959.481041789 ; 2.012768167581057E8 ; 8.395828041690378E7 ; 1.1636219163359255E10 ; 0.0
67 ; 1600130.5713074445 ; 2.01291170155425E8 ; 8.555623989794557E7 ; 1.1837495980117361E10 ; 0.0
68 ; 1606713.2549098122 ; 2.0130554624970037E8 ; 8.715637046925302E7 ; 1.2038787150272785E10 ; 0.0
69 ; 1610206.5632302805 ; 2.0131994300956672E8 ; 8.876308372416283E7 ; 1.2240092696522486E10 ; 0.0
70 ; 1612286.086057686 ; 2.0133435849866205E8 ; 9.037329028739311E7 ; 1.2441412639532053E10 ; 0.0
71 ; 1618658.4944140601 ; 2.0134879086955172E8 ; 9.19855763734508E7 ; 1.2642746998030716E10 ; 0.0
72 ; 1621090.1839285456 ; 2.013632383580911E8 ; 9.360423486786486E7 ; 1.2844095788900269E10 ; 0.0
73 ; 1622600.5107930703 ; 2.013776992781919E8 ; 9.522532505179341E7 ; 1.304545902725836E10 ; 0.0
74 ; 1626195.3029697125 ; 2.013921720169616E8 ; 9.684792556258649E7 ; 1.3246836726536552E10 ; 0.0
75 ; 1628405.6918378202 ; 2.014066550301867E8 ; 9.84741208655562E7 ; 1.3448228898553514E10 ; 0.0
76 ; 1633215.1530824197 ; 2.014211468381337E8 ; 1.0010252655739401E8 ; 1.3649635553583702E10 ; 0.0
77 ; 1635498.1065017162 ; 2.0143564602164337E8 ; 1.0173574171047643E8 ; 1.3851056700421835E10 ; 0.0
78 ; 1637680.4805543127 ; 2.0145015121849635E8 ; 1.0337123981697814E8 ; 1.4052492346443478E10 ; 0.0
79 ; 1637117.928255776 ; 2.0146466112002882E8 ; 1.0500892029753245E8 ; 1.4253942497661974E10 ; 0.0
80 ; 1635689.528939919 ; 2.0147917446797982E8 ; 1.0664603822578824E8 ; 1.4455407158782003E10 ; 0.0
81 ; 1636639.93589848 ; 2.0149369005155277E8 ; 1.0828172775472815E8 ; 1.4656886333249983E10 ; 0.0
82 ; 1637704.9819054927 ; 2.01508206704675E8 ; 1.0991836769062664E8 ; 1.4858380023301537E10 ; 0.0
83 ; 1639111.2966684785 ; 2.0152272330344063E8 ; 1.1155607267253213E8 ; 1.5059888230006212E10 ; 0.0
84 ; 1640418.5329643423 ; 2.0153723876372352E8 ; 1.1319518396920061E8 ; 1.5261410953309652E10 ; 0.0
85 ; 1638892.0045506037 ; 2.015517520389473E8 ; 1.1483560250216496E8 ; 1.5462948192073376E10 ; 0.0
86 ; 1641203.2423667982 ; 2.015662621180013E8 ; 1.1647449450671557E8 ; 1.5664499944112324E10 ; 0.0
87 ; 1639936.1786280589 ; 2.0158076802329192E8 ; 1.1811569774908236E8 ; 1.5866066206230326E10 ; 0.0
88 ; 1641833.6624853583 ; 2.015952688089192E8 ; 1.1975563392771041E8 ; 1.6067646974253618E10 ; 0.0
89 ; 1640154.9022735034 ; 2.0160976355897036E8 ; 1.2139746759019578E8 ; 1.6269242243062538E10 ; 0.0
90 ; 1642584.249533855 ; 2.016242513859211E8 ; 1.2303762249246928E8 ; 1.6470852006621508E10 ; 0.0
91 ; 1641834.8270122246 ; 2.016387314291377E8 ; 1.2468020674200314E8 ; 1.667247625800743E10 ; 0.0
92 ; 1641205.510718668 ; 2.0165320285347277E8 ; 1.2632204156901537E8 ; 1.6874114989436567E10 ; 0.0
93 ; 1643448.2177323245 ; 2.016676648479476E8 ; 1.2796324707973404E8 ; 1.7075768192290041E10 ; 0.0
94 ; 1640412.9462572092 ; 2.016821166245159E8 ; 1.2960669529746637E8 ; 1.727743585713799E10 ; 0.0
95 ; 1640527.7624525335 ; 2.016965574169027E8 ; 1.3124710824372357E8 ; 1.7479117973762505E10 ; 0.0
96 ; 1640164.2247187302 ; 2.017109864795135E8 ; 1.328876360061761E8 ; 1.768081453117941E10 ; 0.0
97 ; 1641641.8749815638 ; 2.0172540308640912E8 ; 1.3452780023089483E8 ; 1.7882525517658924E10 ; 0.0
98 ; 1641638.8911463767 ; 2.0173980653034133E8 ; 1.361694421058764E8 ; 1.8084250920745335E10 ; 0.0
99 ; 1640597.4290111195 ; 2.0175419612184572E8 ; 1.3781108099702275E8 ; 1.8285990727275677E10 ; 0.0
100 ; 1640153.6836228536 ; 2.017685711883877E8 ; 1.3945167842603385E8 ; 1.8487744923397522E10 ; 0.0
101 ; 1640730.406196248 ; 2.0178293107355818E8 ; 1.4109183210965672E8 ; 1.868951349458591E10 ; 0.0
102 ; 1639546.1491178602 ; 2.0179727513631588E8 ; 1.4273256251585296E8 ; 1.889129642565947E10 ; 0.0
103 ; 1639597.0522912806 ; 2.0181160275027293E8 ; 1.4437210866497082E8 ; 1.9093093700795784E10 ; 0.0
104 ; 1640343.3501480757 ; 2.0182591330302104E8 ; 1.460117057172621E8 ; 1.929490530354606E10 ; 0.0
105 ; 1636329.0027760272 ; 2.0184020619549602E8 ; 1.4765204906741017E8 ; 1.949673121684908E10 ; 0.0
106 ; 1636345.5166327811 ; 2.018544808413777E8 ; 1.492883780701862E8 ; 1.9698571423044575E10 ; 0.0
107 ; 1635907.43252891 ; 2.0186873666652325E8 ; 1.50924723586819E8 ; 1.9900425903885952E10 ; 0.0
108 ; 1637898.7029258728 ; 2.0188297310843188E8 ; 1.525606310193479E8 ; 2.0102294640552475E10 ; 0.0
109 ; 1633532.2241086497 ; 2.0189718961573893E8 ; 1.5419852972227377E8 ; 2.0304177613660908E10 ; 0.0
110 ; 1634870.1620036024 ; 2.019113856477373E8 ; 1.558320619463824E8 ; 2.0506074803276646E10 ; 0.0
111 ; 1634952.8293682726 ; 2.0192556067392498E8 ; 1.57466932108386E8 ; 2.070798618892438E10 ; 0.0
112 ; 1632846.9738654974 ; 2.0193971417357674E8 ; 1.5910188493775427E8 ; 2.0909911749598305E10 ; 0.0
113 ; 1632383.1407895044 ; 2.019538456353386E8 ; 1.6073473191161978E8 ; 2.111185146377188E10 ; 0.0
114 ; 1631355.4862887259 ; 2.0196795455684385E8 ; 1.623671150524093E8 ; 2.131380530940722E10 ; 0.0
115 ; 1628899.1533664074 ; 2.019820404443492E8 ; 1.6399847053869802E8 ; 2.151577326396406E10 ; 0.0
116 ; 1627825.4371770204 ; 2.0199610281238988E8 ; 1.6562736969206443E8 ; 2.171775530440841E10 ; 0.0
117 ; 1628218.0651386916 ; 2.0201014118345276E8 ; 1.6725519512924147E8 ; 2.19197514072208E10 ; 0.0
118 ; 1625235.7194942115 ; 2.02024155087666E8 ; 1.6888341319438016E8 ; 2.212176154840425E10 ; 0.0
119 ; 1623962.6806199308 ; 2.0203814406250495E8 ; 1.705086489138744E8 ; 2.2323785703491917E10 ; 0.0
120 ; 1623846.8613249315 ; 2.020521076525126E8 ; 1.721326115944943E8 ; 2.252582384755442E10 ; 0.0
121 ; 1621577.5615759653 ; 2.0206604540903452E8 ; 1.7375645845581925E8 ; 2.2727875955206932E10 ; 0.0
122 ; 1619822.3807868324 ; 2.0207995688996664E8 ; 1.7537803601739523E8 ; 2.2929942000615967E10 ; 0.0
123 ; 1619772.1829893023 ; 2.0209384165951604E8 ; 1.7699785839818206E8 ; 2.313202195750593E10 ; 0.0
124 ; 1619214.8523141278 ; 2.021076992879733E8 ; 1.7861763058117136E8 ; 2.3334115799165447E10 ; 0.0
125 ; 1615296.4746875493 ; 2.0212152935149616E8 ; 1.8023684543348548E8 ; 2.353622349845342E10 ; 0.0
126 ; 1615495.1361464884 ; 2.0213533143190357E8 ; 1.8185214190817302E8 ; 2.3738345027804916E10 ; 0.0
127 ; 1613666.7548940666 ; 2.021491051164801E8 ; 1.834676370443195E8 ; 2.394048035923682E10 ; 0.0
128 ; 1611157.7700894044 ; 2.021628499977894E8 ; 1.850813037992136E8 ; 2.4142629464353302E10 ; 0.0
129 ; 1610013.1473201104 ; 2.0217656567349687E8 ; 1.86692461569303E8 ; 2.4344792314351093E10 ; 0.0
130 ; 1608054.602188625 ; 2.0219025174620074E8 ; 1.8830247471662313E8 ; 2.454696888002459E10 ; 0.0
131 ; 1603138.2952120306 ; 2.0220390782327104E8 ; 1.8991052931881174E8 ; 2.474915913177079E10 ; 0.0
132 ; 1598762.6878654636 ; 2.0221753351669633E8 ; 1.9151366761402377E8 ; 2.4951363039594063E10 ; 0.0
133 ; 1594677.029723412 ; 2.0223112844293758E8 ; 1.9311243030188924E8 ; 2.515358057311076E10 ; 0.0
134 ; 1589707.04574122 ; 2.022446922227887E8 ; 1.9470710733161265E8 ; 2.5355811701553696E10 ; 0.0
135 ; 1586936.6284766314 ; 2.0225822448124382E8 ; 1.9629681437735388E8 ; 2.5558056393776485E10 ; 0.0
136 ; 1581364.1128344864 ; 2.022717248473704E8 ; 1.978837510058305E8 ; 2.576031461825773E10 ; 0.0
137 ; 1576651.6074180126 ; 2.022851929541884E8 ; 1.9946511511866498E8 ; 2.59625863431051E10 ; 0.0
138 ; 1572709.062681113 ; 2.0229862843855494E8 ; 2.0104176672608298E8 ; 2.6164871536059288E10 ; 0.0
139 ; 1569555.9609900122 ; 2.0231203094105387E8 ; 2.026144757887641E8 ; 2.6367170164497845E10 ; 0.0
140 ; 1565478.1886725693 ; 2.0232540010589084E8 ; 2.041840317497541E8 ; 2.65694821954389E10 ; 0.0
141 ; 1560188.050261756 ; 2.023387355807928E8 ; 2.0574950993842667E8 ; 2.6771807595544792E10 ; 0.0
142 ; 1554718.731180125 ; 2.0235203701691192E8 ; 2.0730969798868844E8 ; 2.6974146331125584E10 ; 0.0
143 ; 1548760.8448257758 ; 2.0236530406873402E8 ; 2.0886441671986857E8 ; 2.7176498368142494E10 ; 0.0
144 ; 1545090.013336678 ; 2.0237853639399084E8 ; 2.1041317756469434E8 ; 2.7378863672211227E10 ; 0.0
145 ; 1543307.2690618848 ; 2.0239173365357637E8 ; 2.1195826757803103E8 ; 2.7581242208605217E10 ; 0.0
146 ; 1539771.3049303868 ; 2.0240489551146683E8 ; 2.1350157484709293E8 ; 2.7783633942258793E10 ; 0.0
147 ; 1539057.6994360082 ; 2.0241802163464394E8 ; 2.1504134615202332E8 ; 2.798603883777026E10 ; 0.0
148 ; 1537375.717029989 ; 2.0243111169302174E8 ; 2.1658040385145932E8 ; 2.8188456859404903E10 ; 0.0
149 ; 1535427.4957888492 ; 2.0244416535937667E8 ; 2.181177795684893E8 ; 2.8390887971097923E10 ; 0.0
150 ; 1534559.476024557 ; 2.0245718230928028E8 ; 2.1965320706427816E8 ; 2.85933321364573E10 ; 0.0
151 ; 1531256.4506536655 ; 2.024701622210354E8 ; 2.2118776654030272E8 ; 2.879578931876658E10 ; 0.0
152 ; 1530527.9265165206 ; 2.0248310477561444E8 ; 2.227190229909564E8 ; 2.8998259480987614E10 ; 0.0
153 ; 1527487.947866656 ; 2.0249600965660083E8 ; 2.2424955091747293E8 ; 2.920074258576323E10 ; 0.0
154 ; 1524024.7195996456 ; 2.025088765501327E8 ; 2.2577703886533958E8 ; 2.940323859541983E10 ; 0.0
155 ; 1522458.3453463677 ; 2.025217051448489E8 ; 2.273010635849392E8 ; 2.9605747471969963E10 ; 0.0
156 ; 1521953.7656852615 ; 2.0253449513183767E8 ; 2.2882352193028557E8 ; 2.980826917711481E10 ; 0.0
157 ; 1519305.36259315 ; 2.0254724620458677E8 ; 2.3034547569597083E8 ; 3.0010803672246647E10 ; 0.0
158 ; 1518192.5499629793 ; 2.0255995805893666E8 ; 2.3186478105856398E8 ; 3.0213350918451233E10 ; 0.0
159 ; 1516389.9232012474 ; 2.0257263039303467E8 ; 2.3338297360852695E8 ; 3.041591087651017E10 ; 0.0
160 ; 1514460.570636826 ; 2.0258526290729183E8 ; 2.3489936353172818E8 ; 3.0618483506903206E10 ; 0.0
161 ; 1512504.235103244 ; 2.0259785530434117E8 ; 2.3641382410236502E8 ; 3.0821068769810497E10 ; 0.0
162 ; 1510147.2703353246 ; 2.0261040728899762E8 ; 2.3792632833746827E8 ; 3.1023666625114838E10 ; 0.0
163 ; 1509371.7438336378 ; 2.0262291856822002E8 ; 2.3943647560780358E8 ; 3.1226277032403835E10 ; 0.0
164 ; 1506858.4113152884 ; 2.0263538885107416E8 ; 2.409458473516372E8 ; 3.1428899950972054E10 ; 0.0
165 ; 1503270.7342370339 ; 2.0264781784869787E8 ; 2.424527057629525E8 ; 3.1631535339823128E10 ; 0.0
166 ; 1501686.3516547452 ; 2.026602052742671E8 ; 2.4395597649718955E8 ; 3.1834183157671825E10 ; 0.0
167 ; 1499586.164032564 ; 2.026725508429637E8 ; 2.454576628488443E8 ; 3.203684336294609E10 ; 0.0
168 ; 1497674.0609179179 ; 2.0268485427194434E8 ; 2.4695724901287687E8 ; 3.2239515913789055E10 ; 0.0
169 ; 1496037.6383650634 ; 2.0269711528031096E8 ; 2.4845492307379478E8 ; 3.2442200768061E10 ; 0.0
170 ; 1494011.2310087462 ; 2.0270933358908197E8 ; 2.4995096071215984E8 ; 3.2644897883341312E10 ; 0.0
171 ; 1492519.676507251 ; 2.0272150892116517E8 ; 2.5144497194316858E8 ; 3.2847607216930393E10 ; 0.0
172 ; 1489633.183069275 ; 2.0273364100133136E8 ; 2.5293749161967584E8 ; 3.305032872585156E10 ; 0.0
173 ; 1487474.517536367 ; 2.0274572955618927E8 ; 2.5442712480274513E8 ; 3.325306236685289E10 ; 0.0
174 ; 1486400.7852666823 ; 2.0275777431416136E8 ; 2.559145993202815E8 ; 3.345580809640908E10 ; 0.0
175 ; 1485423.7986020693 ; 2.0276977500546083E8 ; 2.5740100010554817E8 ; 3.3658565870723244E10 ; 0.0
176 ; 1484552.5719008276 ; 2.0278173136206913E8 ; 2.5888642390415025E8 ; 3.3861335645728706E10 ; 0.0
177 ; 1483823.8539629108 ; 2.0279364311771497E8 ; 2.6037097647605106E8 ; 3.4064117377090775E10 ; 0.0
178 ; 1480287.2017320774 ; 2.0280551000785375E8 ; 2.6185480033001396E8 ; 3.426691102020849E10 ; 0.0
179 ; 1480157.544342708 ; 2.028173317696479E8 ; 2.6333508753174603E8 ; 3.446971653021634E10 ; 0.0
180 ; 1479747.695690571 ; 2.0282910814194822E8 ; 2.6481524507608873E8 ; 3.4672533861985985E10 ; 0.0
181 ; 1474823.2606379348 ; 2.0284083886527583E8 ; 2.662949927717793E8 ; 3.487536297012793E10 ; 0.0
182 ; 1472380.8105798918 ; 2.0285252368180475E8 ; 2.6776981603241724E8 ; 3.50782038089932E10 ; 0.0
183 ; 1474339.9199195472 ; 2.0286416233534548E8 ; 2.6924219684299713E8 ; 3.528105633267501E10 ; 0.0
184 ; 1470887.5820211885 ; 2.0287575457132903E8 ; 2.707165367629167E8 ; 3.548392049501035E10 ; 0.0
185 ; 1469432.598892954 ; 2.0288730013679162E8 ; 2.7218742434493786E8 ; 3.568679624958168E10 ; 0.0
186 ; 1467911.8993855405 ; 2.0289879878036016E8 ; 2.736568569438308E8 ; 3.5889683549718475E10 ; 0.0
187 ; 1467486.4835480363 ; 2.0291025025223815E8 ; 2.751247688432163E8 ; 3.609258234849883E10 ; 0.0
188 ; 1467868.9185858164 ; 2.0292165430419225E8 ; 2.7659225532676435E8 ; 3.629549259875107E10 ; 0.0
189 ; 1465322.7862853317 ; 2.0293301068953934E8 ; 2.780601242453502E8 ; 3.649841425305526E10 ; 0.0
190 ; 1463454.5093194451 ; 2.0294431916313434E8 ; 2.795254470316355E8 ; 3.67013472637448E10 ; 0.0
191 ; 1464727.944777226 ; 2.0295557948135817E8 ; 2.8098890154095495E8 ; 3.690429158290793E10 ; 0.0
192 ; 1460053.9106831185 ; 2.0296679140210652E8 ; 2.824536294857322E8 ; 3.710724716238929E10 ; 0.0
193 ; 1459353.6846706443 ; 2.0297795468477893E8 ; 2.839136833964153E8 ; 3.73102139537914E10 ; 0.0
194 ; 1457276.9721669466 ; 2.0298906909026846E8 ; 2.853730370810859E8 ; 3.751319190847617E10 ; 0.0
195 ; 1457348.265290338 ; 2.030001343809516E8 ; 2.868303140532529E8 ; 3.7716180977566444E10 ; 0.0
196 ; 1455412.3688152453 ; 2.0301115032067874E8 ; 2.882876623185432E8 ; 3.7919181111947395E10 ; 0.0
197 ; 1455508.9694997263 ; 2.0302211667476514E8 ; 2.8974307468735844E8 ; 3.8122192262268074E10 ; 0.0
198 ; 1451114.1440066914 ; 2.0303303320998207E8 ; 2.9119858365685815E8 ; 3.832521437894284E10 ; 0.0
199 ; 1450870.9982821182 ; 2.030438996945484E8 ; 2.926496978008648E8 ; 3.8528247412152824E10 ; 0.0
