CSV File for the City 1 on Day 71
1 - Minute m 
2 - Power Consumed at minute m 
3 - Power Produced at minute m 
4 - Energy Consumed since the beginning of the day 
5 - Energy Produced since the beginning of the day 
6 - Energy Lost since the beginning of the day on lines starting from the city
 
0 ; 1.6017626249948476E7 ; 1.0548524663006368E8 ; 0.0 ; 0.0 ; 0.0
1 ; 1.603159313448389E7 ; 1.0563815528340769E8 ; 1.6017626249948476E7 ; 1.0548524663006368E8 ; 0.0
2 ; 1.6045434375725057E7 ; 1.0609984902465543E8 ; 3.2049219384432368E7 ; 2.1112340191347137E8 ; 0.0
3 ; 1.606758826412942E7 ; 1.0687032965336299E8 ; 4.809465376015742E7 ; 3.172232509381268E8 ; 0.0
4 ; 1.608838760246703E7 ; 1.0794959878720695E8 ; 6.4162242024286844E7 ; 4.240935805914898E8 ; 0.0
5 ; 1.6120817760913488E7 ; 1.0933765785136402E8 ; 8.025062962675387E7 ; 5.3204317937869674E8 ; 0.0
6 ; 1.6158159307460284E7 ; 1.110345080689396E8 ; 9.637144738766736E7 ; 6.413808372300608E8 ; 0.0
7 ; 1.6212717512551922E7 ; 1.1304015045259184E8 ; 1.1252960669512764E8 ; 7.524153452990004E8 ; 0.0
8 ; 1.6284200095990768E7 ; 1.1535458579748327E8 ; 1.2874232420767955E8 ; 8.654554957515922E8 ; 0.0
9 ; 1.6406016398359815E7 ; 1.1797781467567426E8 ; 1.4502652430367032E8 ; 9.808100815490754E8 ; 0.0
10 ; 1.6589661250855219E7 ; 1.2090983743204957E8 ; 1.6143254070203012E8 ; 1.0987878962247496E9 ; 0.0
11 ; 1.687714378024098E7 ; 1.2415065418184713E8 ; 1.7802220195288533E8 ; 1.219697733656799E9 ; 0.0
12 ; 1.7335504868917618E7 ; 1.2770026480982897E8 ; 1.948993457331263E8 ; 1.3438483878386462E9 ; 0.0
13 ; 1.7786007372576408E7 ; 1.3155866897111034E8 ; 2.1223485060204393E8 ; 1.4715486526484752E9 ; 0.0
14 ; 1.7833726173669714E7 ; 1.3572586609363097E8 ; 2.3002085797462034E8 ; 1.6031073216195855E9 ; 0.0
15 ; 1.7854702879875276E7 ; 1.402018553822282E8 ; 2.4785458414829007E8 ; 1.7388331877132165E9 ; 0.0
16 ; 1.7876253310209967E7 ; 1.44986635824244E8 ; 2.6570928702816534E8 ; 1.8790350430954447E9 ; 0.0
17 ; 1.789615406607728E7 ; 1.5008020619657287E8 ; 2.8358554033837533E8 ; 2.0240216789196887E9 ; 0.0
18 ; 1.7918134777554747E7 ; 1.5548256507403815E8 ; 3.014816944044526E8 ; 2.1741018851162615E9 ; 0.0
19 ; 1.7940159065874696E7 ; 1.6119371083896324E8 ; 3.193998291820074E8 ; 2.3295844501902995E9 ; 0.0
20 ; 1.7961123726895105E7 ; 1.6721364169179204E8 ; 3.3733998824788207E8 ; 2.4907781610292625E9 ; 0.0
21 ; 1.797700596864217E7 ; 1.7354235566260073E8 ; 3.5530111197477716E8 ; 2.6579918027210546E9 ; 0.0
22 ; 1.8000162535077717E7 ; 1.8017985062333578E8 ; 3.7327811794341934E8 ; 2.831534158383655E9 ; 0.0
23 ; 1.8023180411796663E7 ; 1.8712612430061322E8 ; 3.91278280478497E8 ; 3.011714009006991E9 ; 0.0
24 ; 1.8043496650646746E7 ; 1.943811742889102E8 ; 4.093014608902937E8 ; 3.1988401333076043E9 ; 0.0
25 ; 1.8062221692139965E7 ; 2.0063303896217328E8 ; 4.2734495754094046E8 ; 3.3932213075965147E9 ; 0.0
26 ; 1.80823291680718E7 ; 2.0063526352421653E8 ; 4.4540717923308045E8 ; 3.593854346558688E9 ; 0.0
27 ; 1.810704157871026E7 ; 2.0063761454706118E8 ; 4.6348950840115225E8 ; 3.794489610082905E9 ; 0.0
28 ; 1.812663987803002E7 ; 2.0064008923094594E8 ; 4.815965499798625E8 ; 3.995127224629966E9 ; 0.0
29 ; 1.814361219349963E7 ; 2.006426847104941E8 ; 4.997231898578925E8 ; 4.195767313860912E9 ; 0.0
30 ; 1.8165186112591885E7 ; 2.006453980672155E8 ; 5.1786680205139214E8 ; 4.396409998571406E9 ; 0.0
31 ; 1.8186228055397164E7 ; 2.0064822634149984E8 ; 5.36031988163984E8 ; 4.597055396638622E9 ; 0.0
32 ; 1.820220441053275E7 ; 2.0065116654402903E8 ; 5.542182162193812E8 ; 4.797703622980123E9 ; 0.0
33 ; 1.822019791750194E7 ; 2.0065421566654998E8 ; 5.724204206299139E8 ; 4.998354789524152E9 ; 0.0
34 ; 1.8240570832743503E7 ; 2.006573706919647E8 ; 5.906406185474159E8 ; 5.1990090051907015E9 ; 0.0
35 ; 1.8255195066220094E7 ; 2.006606286037074E8 ; 6.088811893801594E8 ; 5.399666375882667E9 ; 0.0
36 ; 1.827590506146669E7 ; 2.0066398639439106E8 ; 6.271363844463794E8 ; 5.600327004486374E9 ; 0.0
37 ; 1.82913156049445E7 ; 2.0066744107371727E8 ; 6.454122895078461E8 ; 5.800990990880765E9 ; 0.0
38 ; 1.8301909879369646E7 ; 2.006709896756526E8 ; 6.637036051127906E8 ; 6.001658431954482E9 ; 0.0
39 ; 1.831964833429405E7 ; 2.0067462926488385E8 ; 6.820055149921602E8 ; 6.202329421630135E9 ; 0.0
40 ; 1.832976038299131E7 ; 2.0067835694257137E8 ; 7.003251633264543E8 ; 6.403004050895019E9 ; 0.0
41 ; 1.8344473633363634E7 ; 2.0068216985142595E8 ; 7.186549237094456E8 ; 6.60368240783759E9 ; 0.0
42 ; 1.83614860460794E7 ; 2.0068606518013912E8 ; 7.369993973428092E8 ; 6.804364577689016E9 ; 0.0
43 ; 1.836797085893985E7 ; 2.0069004016720092E8 ; 7.553608833888886E8 ; 7.005050642869156E9 ; 0.0
44 ; 1.838217449417018E7 ; 2.0069409210414118E8 ; 7.737288542478285E8 ; 7.205740683036357E9 ; 0.0
45 ; 1.839080218664764E7 ; 2.0069821833823225E8 ; 7.921110287419987E8 ; 7.406434775140498E9 ; 0.0
46 ; 1.840310761505827E7 ; 2.0070241627469277E8 ; 8.105018309286463E8 ; 7.60713299347873E9 ; 0.0
47 ; 1.8408310376564607E7 ; 2.0070668337843052E8 ; 8.289049385437046E8 ; 7.807835409753423E9 ; 0.0
48 ; 1.8415491373055406E7 ; 2.0071101717536432E8 ; 8.473132489202693E8 ; 8.008542093131853E9 ; 0.0
49 ; 1.842436854702694E7 ; 2.0071541525336206E8 ; 8.657287402933247E8 ; 8.209253110307218E9 ; 0.0
50 ; 1.8434400577434026E7 ; 2.007198752628321E8 ; 8.841531088403517E8 ; 8.409968525560579E9 ; 0.0
51 ; 1.8433527139212515E7 ; 2.0072439491700292E8 ; 9.025875094177858E8 ; 8.610688400823412E9 ; 0.0
52 ; 1.8438452973729998E7 ; 2.0072897199192488E8 ; 9.210210365569983E8 ; 8.811412795740416E9 ; 0.0
53 ; 1.8444538453808635E7 ; 2.007336043262253E8 ; 9.394594895307282E8 ; 9.01214176773234E9 ; 0.0
54 ; 1.8452353612896916E7 ; 2.0073828982064682E8 ; 9.579040279845369E8 ; 9.212875372058565E9 ; 0.0
55 ; 1.8455432591048874E7 ; 2.007430264373962E8 ; 9.763563815974338E8 ; 9.413613661879211E9 ; 0.0
56 ; 1.8461095843376115E7 ; 2.0074781219932944E8 ; 9.948118141884826E8 ; 9.614356688316608E9 ; 0.0
57 ; 1.846261008617289E7 ; 2.007526451889963E8 ; 1.0132729100318588E9 ; 9.815104500515938E9 ; 0.0
58 ; 1.8468088232987937E7 ; 2.007575235475662E8 ; 1.0317355201180317E9 ; 1.0015857145704933E10 ; 0.0
59 ; 1.8473612058830075E7 ; 2.0076244547365436E8 ; 1.0502036083510196E9 ; 1.0216614669252499E10 ; 0.0
60 ; 1.8479985210476168E7 ; 2.0076740922206652E8 ; 1.0686772204098496E9 ; 1.0417377114726152E10 ; 0.0
61 ; 1.8481064919270203E7 ; 2.0077241310247776E8 ; 1.0871572056203258E9 ; 1.061814452394822E10 ; 0.0
62 ; 1.8483138541483328E7 ; 2.007774554780602E8 ; 1.105638270539596E9 ; 1.0818916937050697E10 ; 0.0
63 ; 1.848850300225951E7 ; 2.007825347640717E8 ; 1.1241214090810795E9 ; 1.1019694392528757E10 ; 0.0
64 ; 1.848847548256572E7 ; 2.0078764942641777E8 ; 1.142609912083339E9 ; 1.122047692729283E10 ; 0.0
65 ; 1.849469398624085E7 ; 2.0079279798019594E8 ; 1.1610983875659046E9 ; 1.1421264576719248E10 ; 0.0
66 ; 1.84945734520585E7 ; 2.007979789882319E8 ; 1.1795930815521455E9 ; 1.1622057374699444E10 ; 0.0
67 ; 1.849983664997506E7 ; 2.0080319105961514E8 ; 1.198087655004204E9 ; 1.1822855353687675E10 ; 0.0
68 ; 1.8503194112797208E7 ; 2.0080843284824032E8 ; 1.216587491654179E9 ; 1.2023658544747292E10 ; 0.0
69 ; 1.850917767646095E7 ; 2.0081370305136076E8 ; 1.2350906857669764E9 ; 1.2224466977595531E10 ; 0.0
70 ; 1.8510475814681627E7 ; 2.008190004081587E8 ; 1.2535998634434373E9 ; 1.2425280680646893E10 ; 0.0
71 ; 1.8508335102757573E7 ; 2.0082432369833627E8 ; 1.2721103392581189E9 ; 1.2626099681055052E10 ; 0.0
72 ; 1.8509945321369074E7 ; 2.0082967174073154E8 ; 1.2906186743608766E9 ; 1.2826924004753387E10 ; 0.0
73 ; 1.8512878978594583E7 ; 2.0083504339196125E8 ; 1.3091286196822457E9 ; 1.302775367649412E10 ; 0.0
74 ; 1.851384172871634E7 ; 2.008404375450941E8 ; 1.3276414986608403E9 ; 1.3228588719886082E10 ; 0.0
75 ; 1.851206751697947E7 ; 2.0084585312835526E8 ; 1.3461553403895566E9 ; 1.3429429157431175E10 ; 0.0
76 ; 1.8518566042908218E7 ; 2.0085128910386443E8 ; 1.364667407906536E9 ; 1.363027501055953E10 ; 0.0
77 ; 1.852126875104774E7 ; 2.0085674446640807E8 ; 1.3831859739494443E9 ; 1.3831126299663395E10 ; 0.0
78 ; 1.851331886195396E7 ; 2.0086221824224684E8 ; 1.4017072427004921E9 ; 1.4031983044129803E10 ; 0.0
79 ; 1.8507910679069765E7 ; 2.008677094879586E8 ; 1.420220561562446E9 ; 1.423284526237205E10 ; 0.0
80 ; 1.849909819877652E7 ; 2.0087321728931755E8 ; 1.4387284722415159E9 ; 1.4433712971860008E10 ; 0.0
81 ; 1.8495350099066354E7 ; 2.0087874076020908E8 ; 1.4572275704402924E9 ; 1.4634586189149326E10 ; 0.0
82 ; 1.8495965557740007E7 ; 2.0088427904158056E8 ; 1.4757229205393586E9 ; 1.4835464929909534E10 ; 0.0
83 ; 1.8486636298621897E7 ; 2.008898313004277E8 ; 1.4942188860970986E9 ; 1.5036349208951115E10 ; 0.0
84 ; 1.84823967935148E7 ; 2.0089539672881606E8 ; 1.5127055223957205E9 ; 1.5237239040251543E10 ; 0.0
85 ; 1.8481511542982575E7 ; 2.009009745429369E8 ; 1.5311879191892352E9 ; 1.543813443698036E10 ; 0.0
86 ; 1.8469854617008917E7 ; 2.0090656398219734E8 ; 1.5496694307322178E9 ; 1.5639035411523296E10 ; 0.0
87 ; 1.846189578344907E7 ; 2.009121643083436E8 ; 1.5681392853492267E9 ; 1.5839941975505493E10 ; 0.0
88 ; 1.846008540235677E7 ; 2.009177748046166E8 ; 1.586601181132676E9 ; 1.6040854139813837E10 ; 0.0
89 ; 1.845596716946701E7 ; 2.0092339477493957E8 ; 1.6050612665350327E9 ; 1.6241771914618454E10 ; 0.0
90 ; 1.844672091406171E7 ; 2.0092902354313615E8 ; 1.6235172337044997E9 ; 1.6442695309393394E10 ; 0.0
91 ; 1.8438364095984828E7 ; 2.009346604521787E8 ; 1.6419639546185615E9 ; 1.6643624332936531E10 ; 0.0
92 ; 1.8436074336229134E7 ; 2.0094030486346546E8 ; 1.6604023187145464E9 ; 1.684455899338871E10 ; 0.0
93 ; 1.842417937190325E7 ; 2.009459561561261E8 ; 1.6788383930507755E9 ; 1.7045499298252176E10 ; 0.0
94 ; 1.8412201425524574E7 ; 2.009516137263544E8 ; 1.6972625724226787E9 ; 1.7246445254408302E10 ; 0.0
95 ; 1.8409103534173705E7 ; 2.0095727698676705E8 ; 1.7156747738482032E9 ; 1.7447396868134655E10 ; 0.0
96 ; 1.8401781147927523E7 ; 2.0096294536578834E8 ; 1.734083877382377E9 ; 1.764835414512142E10 ; 0.0
97 ; 1.839504111499823E7 ; 2.0096861830705893E8 ; 1.7524856585303044E9 ; 1.784931709048721E10 ; 0.0
98 ; 1.8391116831302747E7 ; 2.0097429526886857E8 ; 1.7708806996453028E9 ; 1.805028570879427E10 ; 0.0
99 ; 1.838335993001103E7 ; 2.009799757236114E8 ; 1.7892718164766054E9 ; 1.8251260004063137E10 ; 0.0
100 ; 1.837125517298524E7 ; 2.0098565915726337E8 ; 1.8076551764066164E9 ; 1.8452239979786747E10 ; 0.0
101 ; 1.8364622874472152E7 ; 2.009913450688805E8 ; 1.8260264315796018E9 ; 1.865322563894401E10 ; 0.0
102 ; 1.8354720585552145E7 ; 2.009970329701177E8 ; 1.844391054454074E9 ; 1.8854216984012894E10 ; 0.0
103 ; 1.834515881494855E7 ; 2.010027223847668E8 ; 1.8627457750396261E9 ; 1.9055214016983013E10 ; 0.0
104 ; 1.83323984937146E7 ; 2.0100841284831363E8 ; 1.8810909338545747E9 ; 1.925621673936778E10 ; 0.0
105 ; 1.8325484552383095E7 ; 2.010141039075127E8 ; 1.8994233323482893E9 ; 1.945722515221609E10 ; 0.0
106 ; 1.8315527671672065E7 ; 2.0101979511997944E8 ; 1.9177488169006724E9 ; 1.9658239256123604E10 ; 0.0
107 ; 1.830764542239787E7 ; 2.0102548605379888E8 ; 1.9360643445723445E9 ; 1.9859259051243584E10 ; 0.0
108 ; 1.8295832337695926E7 ; 2.0103117628715017E8 ; 1.9543719899947424E9 ; 2.0060284537297382E10 ; 0.0
109 ; 1.8286890406428646E7 ; 2.010368654079464E8 ; 1.9726678223324382E9 ; 2.0261315713584534E10 ; 0.0
110 ; 1.8276107021634188E7 ; 2.0104255301348904E8 ; 1.9909547127388668E9 ; 2.046235257899248E10 ; 0.0
111 ; 1.8267465976797216E7 ; 2.0104823871013626E8 ; 2.009230819760501E9 ; 2.066339513200597E10 ; 0.0
112 ; 1.8261144646585852E7 ; 2.0105392211298487E8 ; 2.027498285737298E9 ; 2.0864443370716106E10 ; 0.0
113 ; 1.8247260710668724E7 ; 2.010596028455649E8 ; 2.045759430383884E9 ; 2.106549729282909E10 ; 0.0
114 ; 1.8233470499118946E7 ; 2.0106528053954664E8 ; 2.0640066910945528E9 ; 2.1266556895674656E10 ; 0.0
115 ; 1.8222008714320656E7 ; 2.0107095483445954E8 ; 2.0822401615936718E9 ; 2.1467622176214203E10 ; 0.0
116 ; 1.8213963915751994E7 ; 2.0107662537742224E8 ; 2.1004621703079925E9 ; 2.1668693131048664E10 ; 0.0
117 ; 1.8199014415915787E7 ; 2.010822918228835E8 ; 2.1186761342237444E9 ; 2.1869769756426086E10 ; 0.0
118 ; 1.819505941564553E7 ; 2.0108795383237362E8 ; 2.1368751486396601E9 ; 2.207085204824897E10 ; 0.0
119 ; 1.8179055468393523E7 ; 2.0109361107426575E8 ; 2.1550702080553055E9 ; 2.2271940002081345E10 ; 0.0
120 ; 1.8172397438613273E7 ; 2.010992632235466E8 ; 2.173249263523699E9 ; 2.247303361315561E10 ; 0.0
121 ; 1.8156658564074434E7 ; 2.011049099615964E8 ; 2.191421660962312E9 ; 2.2674132876379154E10 ; 0.0
122 ; 1.8142507789916348E7 ; 2.0111055097597754E8 ; 2.2095783195263867E9 ; 2.287523778634075E10 ; 0.0
123 ; 1.8132805460862625E7 ; 2.011161859602317E8 ; 2.2277208273163033E9 ; 2.307634833731673E10 ; 0.0
124 ; 1.8117857770761877E7 ; 2.0112181461368468E8 ; 2.245853632777166E9 ; 2.3277464523276962E10 ; 0.0
125 ; 1.8109430583314404E7 ; 2.0112743664125937E8 ; 2.263971490547928E9 ; 2.3478586337890648E10 ; 0.0
126 ; 1.809680593830141E7 ; 2.0113305175329563E8 ; 2.2820809211312423E9 ; 2.3679713774531906E10 ; 0.0
127 ; 1.8079692144207574E7 ; 2.0113865966537747E8 ; 2.300177727069544E9 ; 2.3880846826285202E10 ; 0.0
128 ; 1.8069032573484086E7 ; 2.0114426009816697E8 ; 2.3182574192137513E9 ; 2.408198548595058E10 ; 0.0
129 ; 1.8053684880365986E7 ; 2.011498527772445E8 ; 2.3363264517872353E9 ; 2.4283129746048748E10 ; 0.0
130 ; 1.8039273535000857E7 ; 2.0115543743295532E8 ; 2.354380136667601E9 ; 2.4484279598825993E10 ; 0.0
131 ; 1.8022087557117574E7 ; 2.01161013800262E8 ; 2.372419410202602E9 ; 2.468543503625895E10 ; 0.0
132 ; 1.7998674988351464E7 ; 2.0116658161860263E8 ; 2.3904414977597194E9 ; 2.488659605005921E10 ; 0.0
133 ; 1.797705233777901E7 ; 2.0117214063175434E8 ; 2.4084401727480707E9 ; 2.5087762631677814E10 ; 0.0
134 ; 1.79624249783109E7 ; 2.0117769058770218E8 ; 2.42641722508585E9 ; 2.528893477230957E10 ; 0.0
135 ; 1.7941634672584828E7 ; 2.01183231238513E8 ; 2.444379650064161E9 ; 2.5490112462897274E10 ; 0.0
136 ; 1.7921242351982888E7 ; 2.0118876234021387E8 ; 2.462321284736746E9 ; 2.5691295694135788E10 ; 0.0
137 ; 1.7903534422854524E7 ; 2.0119428365267557E8 ; 2.480242527088729E9 ; 2.5892484456476E10 ; 0.0
138 ; 1.7879998754994016E7 ; 2.0119979493950018E8 ; 2.4981460615115833E9 ; 2.6093678740128677E10 ; 0.0
139 ; 1.7856541648733772E7 ; 2.0120529596791285E8 ; 2.5160260602665772E9 ; 2.6294878535068176E10 ; 0.0
140 ; 1.7839605370016716E7 ; 2.0121078650865787E8 ; 2.533882601915311E9 ; 2.649608383103609E10 ; 0.0
141 ; 1.7820755617334604E7 ; 2.012162663358984E8 ; 2.5517222072853274E9 ; 2.669729461754475E10 ; 0.0
142 ; 1.7799853510136705E7 ; 2.012217352271201E8 ; 2.5695429629026623E9 ; 2.689851088388065E10 ; 0.0
143 ; 1.777630972240902E7 ; 2.0122719296303838E8 ; 2.587342816412799E9 ; 2.709973261910777E10 ; 0.0
144 ; 1.7753345829428952E7 ; 2.0123263932750878E8 ; 2.605119126135208E9 ; 2.730095981207081E10 ; 0.0
145 ; 1.774012586437696E7 ; 2.0123807410744104E8 ; 2.6228724719646373E9 ; 2.7502192451398315E10 ; 0.0
146 ; 1.7727913973598693E7 ; 2.012434970927161E8 ; 2.6406125978290143E9 ; 2.7703430525505756E10 ; 0.0
147 ; 1.771760335097402E7 ; 2.0124890807610613E8 ; 2.658340511802613E9 ; 2.7904674022598473E10 ; 0.0
148 ; 1.7696445669674173E7 ; 2.0125430685319778E8 ; 2.676058115153587E9 ; 2.810592293067458E10 ; 0.0
149 ; 1.7683299717262544E7 ; 2.0125969322231767E8 ; 2.6937545608232613E9 ; 2.830717723752778E10 ; 0.0
150 ; 1.7670452498138167E7 ; 2.0126506698446116E8 ; 2.711437860540524E9 ; 2.8508436930750095E10 ; 0.0
151 ; 1.7650038256260976E7 ; 2.012704279432234E8 ; 2.729108313038662E9 ; 2.870970199773456E10 ; 0.0
152 ; 1.764079806058649E7 ; 2.0127577590473273E8 ; 2.746758351294923E9 ; 2.891097242567778E10 ; 0.0
153 ; 1.762419828847339E7 ; 2.0128111067758697E8 ; 2.7643991493555093E9 ; 2.911224820158251E10 ; 0.0
154 ; 1.7613178170505997E7 ; 2.012864320727914E8 ; 2.782023347643983E9 ; 2.9313529312260098E10 ; 0.0
155 ; 1.7595009756405424E7 ; 2.0129173990369928E8 ; 2.799636525814489E9 ; 2.951481574433289E10 ; 0.0
156 ; 1.7579339627157774E7 ; 2.0129703398595455E8 ; 2.8172315355708942E9 ; 2.9716107484236588E10 ; 0.0
157 ; 1.756398117815403E7 ; 2.0130231413743624E8 ; 2.834810875198052E9 ; 2.991740451822254E10 ; 0.0
158 ; 1.75485815898375E7 ; 2.0130758017820525E8 ; 2.852374856376206E9 ; 3.0118706832359978E10 ; 0.0
159 ; 1.7528798910403192E7 ; 2.0131283193045264E8 ; 2.8699234379660435E9 ; 3.032001441253818E10 ; 0.0
160 ; 1.752082055411709E7 ; 2.0131806921844992E8 ; 2.8874522368764467E9 ; 3.0521327244468636E10 ; 0.0
161 ; 1.7504732421564262E7 ; 2.013232918685011E8 ; 2.904973057430564E9 ; 3.0722645313687084E10 ; 0.0
162 ; 1.7488217704747144E7 ; 2.0132849970889628E8 ; 2.922477789852128E9 ; 3.0923968605555584E10 ; 0.0
163 ; 1.747404140528526E7 ; 2.0133369256986699E8 ; 2.939966007556875E9 ; 3.112529710526448E10 ; 0.0
164 ; 1.745815899147296E7 ; 2.0133887028354293E8 ; 2.9574400489621606E9 ; 3.1326630797834347E10 ; 0.0
165 ; 1.7441644254498634E7 ; 2.0134403268391046E8 ; 2.9748982079536333E9 ; 3.152796966811789E10 ; 0.0
166 ; 1.74233023295096E7 ; 2.0134917960677215E8 ; 2.992339852208132E9 ; 3.17293137008018E10 ; 0.0
167 ; 1.7410157707543958E7 ; 2.0135431088970798E8 ; 3.0097631545376415E9 ; 3.1930662880408573E10 ; 0.0
168 ; 1.7391592531846266E7 ; 2.013594263720379E8 ; 3.0271733122451854E9 ; 3.2132017191298283E10 ; 0.0
169 ; 1.7376980442910016E7 ; 2.013645258947854E8 ; 3.0445649047770314E9 ; 3.233337661767032E10 ; 0.0
170 ; 1.735710178329874E7 ; 2.013696093006426E8 ; 3.0619418852199416E9 ; 3.2534741143565105E10 ; 0.0
171 ; 1.734365949347135E7 ; 2.0137467643393645E8 ; 3.0792989870032406E9 ; 3.273611075286575E10 ; 0.0
172 ; 1.732914397857021E7 ; 2.0137972714059585E8 ; 3.0966426464967117E9 ; 3.2937485429299686E10 ; 0.0
173 ; 1.731340076647787E7 ; 2.013847612681203E8 ; 3.1139717904752817E9 ; 3.313886515644028E10 ; 0.0
174 ; 1.7302378543912582E7 ; 2.013897786655491E8 ; 3.13128519124176E9 ; 3.33402499177084E10 ; 0.0
175 ; 1.7295044680785783E7 ; 2.0139477918343207E8 ; 3.148587569785672E9 ; 3.354163969637395E10 ; 0.0
176 ; 1.7282157561564323E7 ; 2.0139976267380095E8 ; 3.165882614466458E9 ; 3.3743034475557384E10 ; 0.0
177 ; 1.727160943188584E7 ; 2.0140472899014178E8 ; 3.1831647720280223E9 ; 3.3944434238231186E10 ; 0.0
178 ; 1.726307195161326E7 ; 2.0140967798736826E8 ; 3.200436381459908E9 ; 3.414583896722133E10 ; 0.0
179 ; 1.72561681421381E7 ; 2.0141460952179605E8 ; 3.2176994534115214E9 ; 3.43472486452087E10 ; 0.0
180 ; 1.7247230264954135E7 ; 2.0141952345111778E8 ; 3.2349556215536594E9 ; 3.454866325473049E10 ; 0.0
181 ; 1.723274313325455E7 ; 2.0142441963437894E8 ; 3.2522028518186135E9 ; 3.475008277818161E10 ; 0.0
182 ; 1.7222803166633848E7 ; 2.0142929793195462E8 ; 3.269435594951868E9 ; 3.495150719781599E10 ; 0.0
183 ; 1.7215740891273573E7 ; 2.0143415820552695E8 ; 3.286658398118502E9 ; 3.515293649574794E10 ; 0.0
184 ; 1.7202404025151238E7 ; 2.0143900031806332E8 ; 3.3038741390097756E9 ; 3.535437065395347E10 ; 0.0
185 ; 1.7193194186606016E7 ; 2.0144382413379523E8 ; 3.321076543034927E9 ; 3.555580965427153E10 ; 0.0
186 ; 1.71856784562011E7 ; 2.0144862951819792E8 ; 3.338269737221533E9 ; 3.575725347840533E10 ; 0.0
187 ; 1.7172107528975815E7 ; 2.0145341633797064E8 ; 3.355455415677734E9 ; 3.595870210792352E10 ; 0.0
188 ; 1.7163223109521333E7 ; 2.0145818446101758E8 ; 3.37262752320671E9 ; 3.616015552426149E10 ; 0.0
189 ; 1.7152656347962517E7 ; 2.0146293375642928E8 ; 3.3897907463162313E9 ; 3.63616137087225E10 ; 0.0
190 ; 1.714453474466029E7 ; 2.0146766409446484E8 ; 3.4069434026641936E9 ; 3.6563076642478935E10 ; 0.0
191 ; 1.7130553932086702E7 ; 2.0147237534653458E8 ; 3.424087937408854E9 ; 3.67645443065734E10 ; 0.0
192 ; 1.7126288718311507E7 ; 2.014770673851833E8 ; 3.4412184913409405E9 ; 3.696601668191994E10 ; 0.0
193 ; 1.711566176611358E7 ; 2.01481740084074E8 ; 3.458344780059252E9 ; 3.716749374930512E10 ; 0.0
194 ; 1.7101972214341234E7 ; 2.0148639331797227E8 ; 3.4754604418253655E9 ; 3.73689754893892E10 ; 0.0
195 ; 1.7097008342115194E7 ; 2.014910269627311E8 ; 3.4925624140397067E9 ; 3.757046188270717E10 ; 0.0
