CSV File for the City 1 on Day 60
1 - Minute m 
2 - Power Consumed at minute m 
3 - Power Produced at minute m 
4 - Energy Consumed since the beginning of the day 
5 - Energy Produced since the beginning of the day 
6 - Energy Lost since the beginning of the day on lines starting from the city
 
0 ; 1.5990551706913508E7 ; 1.054428710223622E8 ; 0.0 ; 0.0 ; 0.0
1 ; 1.600838373800047E7 ; 1.0559571242235196E8 ; 1.5990551706913508E7 ; 1.054428710223622E8 ; 0.0
2 ; 1.6027514566204157E7 ; 1.0605734458117238E8 ; 3.1998935444913976E7 ; 2.1103858344471416E8 ; 0.0
3 ; 1.6043353974820087E7 ; 1.0682776974111027E8 ; 4.802645001111813E7 ; 3.1709592802588654E8 ; 0.0
4 ; 1.6067506837432208E7 ; 1.0790698992566109E8 ; 6.4069803985938214E7 ; 4.239236977669968E8 ; 0.0
5 ; 1.6100782745926013E7 ; 1.092950069236865E8 ; 8.013731082337043E7 ; 5.318306876926579E8 ; 0.0
6 ; 1.6136066708722487E7 ; 1.1099182227501789E8 ; 9.623809356929643E7 ; 6.411256946163445E8 ; 0.0
7 ; 1.6188353244370734E7 ; 1.1299743725776845E8 ; 1.1237416027801892E8 ; 7.521175168913623E8 ; 0.0
8 ; 1.626456438794058E7 ; 1.1531185287759215E8 ; 1.2856251352238965E8 ; 8.651149541491308E8 ; 0.0
9 ; 1.6380423036908226E7 ; 1.179350698590985E8 ; 1.4482707791033024E8 ; 9.804268070267229E8 ; 0.0
10 ; 1.6563841872096421E7 ; 1.2086708863959342E8 ; 1.6120750094723848E8 ; 1.0983618768858213E9 ; 0.0
11 ; 1.685104033567962E7 ; 1.2410790936527136E8 ; 1.777713428193349E8 ; 1.2192289655254147E9 ; 0.0
12 ; 1.731520862250754E7 ; 1.2765753188993785E8 ; 1.9462238315501451E8 ; 1.343336874890686E9 ; 0.0
13 ; 1.7758640296130992E7 ; 1.3151595577628696E8 ; 2.1193759177752206E8 ; 1.470994406780624E9 ; 0.0
14 ; 1.7814456554555643E7 ; 1.3568318029970926E8 ; 2.2969623207365304E8 ; 1.602510362556911E9 ; 0.0
15 ; 1.7833009764533706E7 ; 1.4015920445455068E8 ; 2.475106886282087E8 ; 1.7381935428566203E9 ; 0.0
16 ; 1.785287824322267E7 ; 1.4494402696269813E8 ; 2.653436983927424E8 ; 1.878352747311171E9 ; 0.0
17 ; 1.78747740074622E7 ; 1.5003764628432015E8 ; 2.8319657663596505E8 ; 2.0232967742738693E9 ; 0.0
18 ; 1.78969927171968E7 ; 1.554400606305551E8 ; 3.0107135064342725E8 ; 2.1733344205581894E9 ; 0.0
19 ; 1.7915241409386504E7 ; 1.611512679779075E8 ; 3.189683433606241E8 ; 2.3287744811887445E9 ; 0.0
20 ; 1.7934785722855464E7 ; 1.6717126608409056E8 ; 3.368835847700106E8 ; 2.489925749166652E9 ; 0.0
21 ; 1.7955671571919143E7 ; 1.7350005250503722E8 ; 3.5481837049286604E8 ; 2.657097015250743E9 ; 0.0
22 ; 1.7982264595821097E7 ; 1.801376246127969E8 ; 3.727740420647852E8 ; 2.83059706775578E9 ; 0.0
23 ; 1.7997571712520283E7 ; 1.8708397961403525E8 ; 3.9075630666060627E8 ; 3.010734692368577E9 ; 0.0
24 ; 1.8018700612822365E7 ; 1.9433911456886268E8 ; 4.0875387837312657E8 ; 3.197818671982612E9 ; 0.0
25 ; 1.803919146496598E7 ; 2.0059106730791587E8 ; 4.267725789859489E8 ; 3.3921577865514746E9 ; 0.0
26 ; 1.8057485312346812E7 ; 2.005933824879821E8 ; 4.448117704509149E8 ; 3.5927488538593903E9 ; 0.0
27 ; 1.8079722228857215E7 ; 2.0059582613524425E8 ; 4.6286925576326174E8 ; 3.7933422363473725E9 ; 0.0
28 ; 1.8103152987917304E7 ; 2.0059839490982026E8 ; 4.8094897799211895E8 ; 3.993938062482617E9 ; 0.0
29 ; 1.812110936071226E7 ; 2.0060108541603842E8 ; 4.9905213098003626E8 ; 4.194536457392437E9 ; 0.0
30 ; 1.8142339271366734E7 ; 2.0060389421859872E8 ; 5.1717324034074855E8 ; 4.3951375428084755E9 ; 0.0
31 ; 1.8160689955945257E7 ; 2.0060681785776073E8 ; 5.3531557961211526E8 ; 4.595741437027074E9 ; 0.0
32 ; 1.8178622261792276E7 ; 2.0060985286348137E8 ; 5.534762695680605E8 ; 4.796348254884834E9 ; 0.0
33 ; 1.8192660381759197E7 ; 2.006129957684512E8 ; 5.716548918298528E8 ; 4.996958107748316E9 ; 0.0
34 ; 1.8210783899008248E7 ; 2.0061624312000087E8 ; 5.89847552211612E8 ; 5.1975711035167675E9 ; 0.0
35 ; 1.8231854763867628E7 ; 2.0061959149086976E8 ; 6.080583361106203E8 ; 5.398187346636768E9 ; 0.0
36 ; 1.8244627008084256E7 ; 2.0062303748884833E8 ; 6.262901908744879E8 ; 5.598806938127638E9 ; 0.0
37 ; 1.826075667749784E7 ; 2.0062657776531863E8 ; 6.445348178825722E8 ; 5.799429975616487E9 ; 0.0
38 ; 1.8273404675918087E7 ; 2.006302090227319E8 ; 6.6279557456007E8 ; 6.000056553381805E9 ; 0.0
39 ; 1.829337466677658E7 ; 2.0063392802107117E8 ; 6.810689792359881E8 ; 6.200686762404537E9 ; 0.0
40 ; 1.830480388367389E7 ; 2.0063773158335435E8 ; 6.993623539027647E8 ; 6.401320690425609E9 ; 0.0
41 ; 1.8317546451625057E7 ; 2.006416166002391E8 ; 7.176671577864386E8 ; 6.601958422008963E9 ; 0.0
42 ; 1.8327251186602753E7 ; 2.006455800337937E8 ; 7.359847042380637E8 ; 6.802600038609201E9 ; 0.0
43 ; 1.8344435568757594E7 ; 2.006496189205001E8 ; 7.543119554246664E8 ; 7.003245618642995E9 ; 0.0
44 ; 1.8348272020822555E7 ; 2.006537303735563E8 ; 7.726563909934239E8 ; 7.203895237563495E9 ; 0.0
45 ; 1.8364025518324766E7 ; 2.006579115845427E8 ; 7.910046630142465E8 ; 7.404548967937051E9 ; 0.0
46 ; 1.837111485433947E7 ; 2.0066215982451764E8 ; 8.093686885325712E8 ; 7.605206879521593E9 ; 0.0
47 ; 1.837674124846168E7 ; 2.0066647244460288E8 ; 8.277398033869107E8 ; 7.80586903934611E9 ; 0.0
48 ; 1.838512582362963E7 ; 2.0067084687611756E8 ; 8.461165446353724E8 ; 8.006535511790713E9 ; 0.0
49 ; 1.8392187722403135E7 ; 2.00675280630316E8 ; 8.64501670459002E8 ; 8.207206358666831E9 ; 0.0
50 ; 1.8397875383234784E7 ; 2.0067977129778028E8 ; 8.828938581814052E8 ; 8.407881639297147E9 ; 0.0
51 ; 1.8403326027432445E7 ; 2.0068431654751554E8 ; 9.012917335646399E8 ; 8.608561410594927E9 ; 0.0
52 ; 1.840862564794492E7 ; 2.0068891412579113E8 ; 9.196950595920724E8 ; 8.809245727142443E9 ; 0.0
53 ; 1.8413540521372125E7 ; 2.00693561854768E8 ; 9.381036852400173E8 ; 9.009934641268234E9 ; 0.0
54 ; 1.8419389463206362E7 ; 2.0069825763094807E8 ; 9.565172257613894E8 ; 9.210628203123003E9 ; 0.0
55 ; 1.8424962393855922E7 ; 2.0070299942347828E8 ; 9.749366152245958E8 ; 9.411326460753952E9 ; 0.0
56 ; 1.842720789551319E7 ; 2.007077852723385E8 ; 9.933615776184517E8 ; 9.612029460177431E9 ; 0.0
57 ; 1.843274847822241E7 ; 2.0071261328643915E8 ; 1.0117887855139649E9 ; 9.81273724544977E9 ; 0.0
58 ; 1.8434261098320644E7 ; 2.0071748164165154E8 ; 1.0302215339921873E9 ; 1.001344985873621E10 ; 0.0
59 ; 1.843914485806844E7 ; 2.0072238857879117E8 ; 1.0486557950905079E9 ; 1.0214167340377861E10 ; 0.0
60 ; 1.843997211474377E7 ; 2.0072733240157166E8 ; 1.0670949399485763E9 ; 1.0414889728956652E10 ; 0.0
61 ; 1.844893617793892E7 ; 2.0073231147454455E8 ; 1.0855349120633202E9 ; 1.0615617061358223E10 ; 0.0
62 ; 1.8448299266270462E7 ; 2.0073732422103837E8 ; 1.103983848241259E9 ; 1.0816349372832767E10 ; 0.0
63 ; 1.8452719278023496E7 ; 2.007423691211082E8 ; 1.1224321475075295E9 ; 1.1017086697053806E10 ; 0.0
64 ; 1.8452938022335783E7 ; 2.0074744470950532E8 ; 1.140884866785553E9 ; 1.1217829066174915E10 ; 0.0
65 ; 1.8457976559470326E7 ; 2.0075254957367533E8 ; 1.1593378048078887E9 ; 1.141857651088442E10 ; 0.0
66 ; 1.8465004917270396E7 ; 2.0075768235179088E8 ; 1.1777957813673592E9 ; 1.1619329060458096E10 ; 0.0
67 ; 1.8461934288688675E7 ; 2.007628417308253E8 ; 1.1962607862846296E9 ; 1.1820086742809887E10 ; 0.0
68 ; 1.846769900101341E7 ; 2.0076802644467083E8 ; 1.2147227205733182E9 ; 1.2020849584540712E10 ; 0.0
69 ; 1.847042204888339E7 ; 2.0077323527230558E8 ; 1.2331904195743318E9 ; 1.2221617610985384E10 ; 0.0
70 ; 1.8469510166539457E7 ; 2.007784670360114E8 ; 1.2516608416232152E9 ; 1.242239084625769E10 ; 0.0
71 ; 1.8469332687503405E7 ; 2.007837205996452E8 ; 1.2701303517897546E9 ; 1.2623169313293701E10 ; 0.0
72 ; 1.8470320389496814E7 ; 2.0078899486696446E8 ; 1.288599684477258E9 ; 1.2823953033893347E10 ; 0.0
73 ; 1.8474178546921797E7 ; 2.0079428878000826E8 ; 1.3070700048667548E9 ; 1.3024742028760311E10 ; 0.0
74 ; 1.8480325574860346E7 ; 2.007996013175341E8 ; 1.3255441834136765E9 ; 1.322553631754032E10 ; 0.0
75 ; 1.847349260144314E7 ; 2.0080493149351016E8 ; 1.3440245089885368E9 ; 1.3426335918857853E10 ; 0.0
76 ; 1.8476665658427082E7 ; 2.0081027835566327E8 ; 1.36249800158998E9 ; 1.3627140850351362E10 ; 0.0
77 ; 1.847730874523777E7 ; 2.0081564098408127E8 ; 1.380974667248407E9 ; 1.3827951128707026E10 ; 0.0
78 ; 1.8474132600245174E7 ; 2.0082101848986974E8 ; 1.3994519759936447E9 ; 1.4028766769691107E10 ; 0.0
79 ; 1.846506148902059E7 ; 2.0082641001386118E8 ; 1.41792610859389E9 ; 1.4229587788180977E10 ; 0.0
80 ; 1.8464454870594908E7 ; 2.0083181472537622E8 ; 1.4363911700829105E9 ; 1.4430414198194838E10 ; 0.0
81 ; 1.845816353643841E7 ; 2.008372318210351E8 ; 1.4548556249535055E9 ; 1.4631246012920214E10 ; 0.0
82 ; 1.845452399354931E7 ; 2.0084266052361828E8 ; 1.473313788489944E9 ; 1.483208324474125E10 ; 0.0
83 ; 1.8444667010748226E7 ; 2.008481000809746E8 ; 1.4917683124834933E9 ; 1.5032925905264868E10 ; 0.0
84 ; 1.84412963073016E7 ; 2.0085354976497552E8 ; 1.5102129794942415E9 ; 1.5233774005345842E10 ; 0.0
85 ; 1.8432485230970915E7 ; 2.0085900887051395E8 ; 1.528654275801543E9 ; 1.5434627555110817E10 ; 0.0
86 ; 1.842912909806389E7 ; 2.0086447671454588E8 ; 1.5470867610325139E9 ; 1.563548656398133E10 ; 0.0
87 ; 1.8423915271097895E7 ; 2.0086995263517386E8 ; 1.5655158901305778E9 ; 1.5836351040695877E10 ; 0.0
88 ; 1.841338630196405E7 ; 2.008754359907699E8 ; 1.5839398054016757E9 ; 1.603722099333105E10 ; 0.0
89 ; 1.8411605380235784E7 ; 2.0088092615913698E8 ; 1.6023531917036397E9 ; 1.6238096429321821E10 ; 0.0
90 ; 1.840292758413366E7 ; 2.0088642253670743E8 ; 1.6207647970838754E9 ; 1.6438977355480959E10 ; 0.0
91 ; 1.8392906903743092E7 ; 2.0089192453777644E8 ; 1.639167724668009E9 ; 1.6639863778017666E10 ; 0.0
92 ; 1.8386027618933666E7 ; 2.0089743159376973E8 ; 1.657560631571752E9 ; 1.6840755702555443E10 ; 0.0
93 ; 1.837945265408969E7 ; 2.0090294315254343E8 ; 1.6759466591906857E9 ; 1.7041653134149212E10 ; 0.0
94 ; 1.8372615613941528E7 ; 2.0090845867771527E8 ; 1.6943261118447754E9 ; 1.7242556077301754E10 ; 0.0
95 ; 1.836440131469529E7 ; 2.0091397764802545E8 ; 1.7126987274587169E9 ; 1.744346453597947E10 ; 0.0
96 ; 1.836056761053382E7 ; 2.0091949955672595E8 ; 1.7310631287734122E9 ; 1.7644378513627495E10 ; 0.0
97 ; 1.8346921035335924E7 ; 2.00925023910997E8 ; 1.749423696383946E9 ; 1.784529801318422E10 ; 0.0
98 ; 1.8339241879647613E7 ; 2.0093055023138976E8 ; 1.767770617419282E9 ; 1.8046223037095215E10 ; 0.0
99 ; 1.832854818430858E7 ; 2.009360780512936E8 ; 1.7861098592989297E9 ; 1.8247153587326603E10 ; 0.0
100 ; 1.8319673876906198E7 ; 2.009416069164273E8 ; 1.8044384074832382E9 ; 1.8448089665377895E10 ; 0.0
101 ; 1.831402635900188E7 ; 2.009471363843527E8 ; 1.8227580813601444E9 ; 1.8649031272294323E10 ; 0.0
102 ; 1.8303416038292404E7 ; 2.009526660240102E8 ; 1.8410721077191463E9 ; 1.8849978408678677E10 ; 0.0
103 ; 1.829572395378352E7 ; 2.0095819541527468E8 ; 1.8593755237574387E9 ; 1.9050931074702686E10 ; 0.0
104 ; 1.8285825551266506E7 ; 2.009637241485313E8 ; 1.8776712477112222E9 ; 1.925188927011796E10 ; 0.0
105 ; 1.827369551513838E7 ; 2.0096925182426983E8 ; 1.8959570732624886E9 ; 1.9452852994266495E10 ; 0.0
106 ; 1.8266420704871703E7 ; 2.009747780526973E8 ; 1.914230768777627E9 ; 1.9653822246090763E10 ; 0.0
107 ; 1.8255444601644065E7 ; 2.009803024533672E8 ; 1.9324971894824986E9 ; 1.985479702414346E10 ; 0.0
108 ; 1.8242653268444475E7 ; 2.0098582465482548E8 ; 1.9507526340841427E9 ; 2.0055777326596825E10 ; 0.0
109 ; 1.82382609219588E7 ; 2.0099134429427174E8 ; 1.9689952873525872E9 ; 2.025676315125165E10 ; 0.0
110 ; 1.822639524848841E7 ; 2.009968610172354E8 ; 1.987233548274546E9 ; 2.0457754495545925E10 ; 0.0
111 ; 1.8216571642245576E7 ; 2.010023744772661E8 ; 2.0054599435230343E9 ; 2.065875135656316E10 ; 0.0
112 ; 1.8202991819771513E7 ; 2.010078843356372E8 ; 2.0236765151652799E9 ; 2.0859753731040424E10 ; 0.0
113 ; 1.8194492626792412E7 ; 2.010133902610627E8 ; 2.0418795069850514E9 ; 2.106076161537606E10 ; 0.0
114 ; 1.8178843443673056E7 ; 2.0101889192942587E8 ; 2.0600739996118438E9 ; 2.1261775005637123E10 ; 0.0
115 ; 1.817148027261694E7 ; 2.010243890235198E8 ; 2.078252843055517E9 ; 2.1462793897566547E10 ; 0.0
116 ; 1.8159859301673215E7 ; 2.0102988123279935E8 ; 2.0964243233281338E9 ; 2.166381828659007E10 ; 0.0
117 ; 1.814455427425291E7 ; 2.010353682531432E8 ; 2.114584182629807E9 ; 2.186484816782287E10 ; 0.0
118 ; 1.8132850368764453E7 ; 2.0104084978662652E8 ; 2.13272873690406E9 ; 2.206588353607601E10 ; 0.0
119 ; 1.8125737883503646E7 ; 2.01046325541303E8 ; 2.1508615872728243E9 ; 2.2266924385862637E10 ; 0.0
120 ; 1.8114632832377963E7 ; 2.010517952309964E8 ; 2.1689873251563277E9 ; 2.246797071140394E10 ; 0.0
121 ; 1.809628815252649E7 ; 2.010572585751006E8 ; 2.1871019579887056E9 ; 2.2669022506634933E10 ; 0.0
122 ; 1.8087963785432573E7 ; 2.0106271529838824E8 ; 2.205198246141232E9 ; 2.2870079765210033E10 ; 0.0
123 ; 1.807399610084532E7 ; 2.0106816513082746E8 ; 2.2232862099266644E9 ; 2.3071142480508423E10 ; 0.0
124 ; 1.8059769236106146E7 ; 2.0107360780740598E8 ; 2.2413602060275097E9 ; 2.327221064563925E10 ; 0.0
125 ; 1.8046421387022715E7 ; 2.0107904306796288E8 ; 2.2594199752636156E9 ; 2.347328425344666E10 ; 0.0
126 ; 1.803508993559104E7 ; 2.010844706570271E8 ; 2.277466396650638E9 ; 2.367436329651462E10 ; 0.0
127 ; 1.8016838223431364E7 ; 2.0108989032366264E8 ; 2.2955014865862293E9 ; 2.387544776717165E10 ; 0.0
128 ; 1.8006523200871788E7 ; 2.010953018213202E8 ; 2.313518324809661E9 ; 2.407653765749531E10 ; 0.0
129 ; 1.7988850951061133E7 ; 2.0110070490769488E8 ; 2.331524848010533E9 ; 2.427763295931663E10 ; 0.0
130 ; 1.7976972858437225E7 ; 2.0110609934458956E8 ; 2.349513698961594E9 ; 2.4478733664224327E10 ; 0.0
131 ; 1.7955568901117664E7 ; 2.0111148489778405E8 ; 2.367490671820031E9 ; 2.4679839763568916E10 ; 0.0
132 ; 1.7937562548443194E7 ; 2.011168613369093E8 ; 2.385446240721149E9 ; 2.48809512484667E10 ; 0.0
133 ; 1.7915552219394047E7 ; 2.0112222843532687E8 ; 2.4033838032695923E9 ; 2.508206810980361E10 ; 0.0
134 ; 1.789320471534052E7 ; 2.011275859700131E8 ; 2.4212993554889865E9 ; 2.5283190338238937E10 ; 0.0
135 ; 1.7873243205566555E7 ; 2.0113293372144806E8 ; 2.439192560204327E9 ; 2.548431792420895E10 ; 0.0
136 ; 1.785304016281324E7 ; 2.0113827147350872E8 ; 2.4570658034098935E9 ; 2.5685450857930397E10 ; 0.0
137 ; 1.7832479360826317E7 ; 2.0114359901336658E8 ; 2.4749188435727067E9 ; 2.5886589129403904E10 ; 0.0
138 ; 1.7813503222446993E7 ; 2.0114891613138908E8 ; 2.492751322933533E9 ; 2.608773272841727E10 ; 0.0
139 ; 1.779127996531617E7 ; 2.0115422262104526E8 ; 2.51056482615598E9 ; 2.628888164454866E10 ; 0.0
140 ; 1.77713396378076E7 ; 2.011595182788147E8 ; 2.5283561061212964E9 ; 2.6490035867169704E10 ; 0.0
141 ; 1.77498223815286E7 ; 2.011648029041003E8 ; 2.546127445759104E9 ; 2.669119538544852E10 ; 0.0
142 ; 1.7728412344236683E7 ; 2.011700762991444E8 ; 2.563877268140632E9 ; 2.689236018835262E10 ; 0.0
143 ; 1.77054077408563E7 ; 2.0117533826894796E8 ; 2.581605680484869E9 ; 2.7093530264651764E10 ; 0.0
144 ; 1.7681282077890888E7 ; 2.0118058862119317E8 ; 2.599311088225725E9 ; 2.729470560292071E10 ; 0.0
145 ; 1.7670500320128858E7 ; 2.011858271661688E8 ; 2.616992370303616E9 ; 2.7495886191541904E10 ; 0.0
146 ; 1.7657502141923927E7 ; 2.0119105371669847E8 ; 2.634662870623745E9 ; 2.7697072018708073E10 ; 0.0
147 ; 1.7641856414542075E7 ; 2.0119626808807167E8 ; 2.652320372765669E9 ; 2.789826307242477E10 ; 0.0
148 ; 1.762406740668524E7 ; 2.0120147009797737E8 ; 2.669962229180211E9 ; 2.809945934051284E10 ; 0.0
149 ; 1.7613195954410918E7 ; 2.0120665956644014E8 ; 2.6875862965868964E9 ; 2.8300660810610817E10 ; 0.0
150 ; 1.7597061933160316E7 ; 2.012118363157588E8 ; 2.7051994925413074E9 ; 2.8501867470177258E10 ; 0.0
151 ; 1.7579462464757748E7 ; 2.012170001704471E8 ; 2.7227965544744678E9 ; 2.8703079306493015E10 ; 0.0
152 ; 1.7562492370006993E7 ; 2.0122215095717692E8 ; 2.7403760169392257E9 ; 2.8904296306663464E10 ; 0.0
153 ; 1.7547755774006553E7 ; 2.012272885047234E8 ; 2.7579385093092327E9 ; 2.910551845762064E10 ; 0.0
154 ; 1.7529262469311383E7 ; 2.012324126439121E8 ; 2.775486265083239E9 ; 2.9306745746125362E10 ; 0.0
155 ; 1.751784536339709E7 ; 2.0123752320756826E8 ; 2.7930155275525503E9 ; 2.9507978158769276E10 ; 0.0
156 ; 1.7502593015535183E7 ; 2.0124262003046778E8 ; 2.8105333729159474E9 ; 2.9709215681976845E10 ; 0.0
157 ; 1.7487227735423926E7 ; 2.0124770294929007E8 ; 2.828035965931483E9 ; 2.9910458302007313E10 ; 0.0
158 ; 1.746874241811776E7 ; 2.012527718025726E8 ; 2.845523193666907E9 ; 3.0111706004956604E10 ; 0.0
159 ; 1.745643499330426E7 ; 2.0125782643066716E8 ; 2.862991936085025E9 ; 3.031295877675918E10 ; 0.0
160 ; 1.7436516932377465E7 ; 2.0126286667569757E8 ; 2.880448371078329E9 ; 3.0514216603189846E10 ; 0.0
161 ; 1.7423621081334528E7 ; 2.0126789238151908E8 ; 2.8978848880107064E9 ; 3.0715479469865543E10 ; 0.0
162 ; 1.740837097041247E7 ; 2.0127290339367914E8 ; 2.915308509092041E9 ; 3.0916747362247063E10 ; 0.0
163 ; 1.7391759128929608E7 ; 2.0127789955937964E8 ; 2.9327168800624533E9 ; 3.1118020265640743E10 ; 0.0
164 ; 1.737202698055459E7 ; 2.0128288072744045E8 ; 2.950108639191383E9 ; 3.1319298165200123E10 ; 0.0
165 ; 1.7356397012888763E7 ; 2.0128784674826422E8 ; 2.9674806661719375E9 ; 3.1520581045927563E10 ; 0.0
166 ; 1.7340137371806886E7 ; 2.0129279747380263E8 ; 2.9848370631848264E9 ; 3.1721868892675827E10 ; 0.0
167 ; 1.7324144369579032E7 ; 2.012977327575235E8 ; 3.0021772005566335E9 ; 3.192316169014963E10 ; 0.0
168 ; 1.731069133331705E7 ; 2.0130265245437947E8 ; 3.0195013449262123E9 ; 3.2124459422907154E10 ; 0.0
169 ; 1.7291454707532123E7 ; 2.0130755642077738E8 ; 3.0368120362595296E9 ; 3.2325762075361534E10 ; 0.0
170 ; 1.7272169753917996E7 ; 2.013124445145491E8 ; 3.0541034909670615E9 ; 3.252706963178231E10 ; 0.0
171 ; 1.7251478160855845E7 ; 2.0131731659492305E8 ; 3.0713756607209797E9 ; 3.272838207629686E10 ; 0.0
172 ; 1.7236929858151276E7 ; 2.0132217252249697E8 ; 3.0886271388818355E9 ; 3.2929699392891785E10 ; 0.0
173 ; 1.7230076424454506E7 ; 2.013270121592114E8 ; 3.105864068739987E9 ; 3.313102156541428E10 ; 0.0
174 ; 1.7213646372628182E7 ; 2.0133183536832437E8 ; 3.1230941451644416E9 ; 3.333234857757349E10 ; 0.0
175 ; 1.7203052260229915E7 ; 2.0133664201438674E8 ; 3.14030779153707E9 ; 3.3533680412941814E10 ; 0.0
176 ; 1.7190189608058482E7 ; 2.0134143196321842E8 ; 3.1575108437973E9 ; 3.37350170549562E10 ; 0.0
177 ; 1.7182079782172628E7 ; 2.0134620508188546E8 ; 3.1747010334053583E9 ; 3.393635848691942E10 ; 0.0
178 ; 1.717377756785076E7 ; 2.01350961238678E8 ; 3.191883113187531E9 ; 3.4137704692001305E10 ; 0.0
179 ; 1.716568992843575E7 ; 2.0135570030308878E8 ; 3.2090568907553816E9 ; 3.4339055653239983E10 ; 0.0
180 ; 1.715254716122298E7 ; 2.0136042214579254E8 ; 3.2262225806838174E9 ; 3.454041135354307E10 ; 0.0
181 ; 1.713911976369651E7 ; 2.0136512663862604E8 ; 3.2433751278450403E9 ; 3.474177177568886E10 ; 0.0
182 ; 1.7132843638753034E7 ; 2.0136981365456882E8 ; 3.260514247608737E9 ; 3.4943136902327484E10 ; 0.0
183 ; 1.7121239151173003E7 ; 2.0137448306772465E8 ; 3.27764709124749E9 ; 3.5144506715982056E10 ; 0.0
184 ; 1.7109742971810445E7 ; 2.0137913475330338E8 ; 3.294768330398663E9 ; 3.534588119904978E10 ; 0.0
185 ; 1.7105215308285214E7 ; 2.0138376858760372E8 ; 3.3118780733704734E9 ; 3.5547260333803085E10 ; 0.0
186 ; 1.7088687148517933E7 ; 2.0138838444799632E8 ; 3.3289832886787586E9 ; 3.5748644102390686E10 ; 0.0
187 ; 1.708129846369621E7 ; 2.0139298221290767E8 ; 3.3460719758272767E9 ; 3.5950032486838684E10 ; 0.0
188 ; 1.707380551917969E7 ; 2.0139756176180425E8 ; 3.3631532742909727E9 ; 3.615142546905159E10 ; 0.0
189 ; 1.7057414838515174E7 ; 2.0140212297517756E8 ; 3.3802270798101525E9 ; 3.635282303081339E10 ; 0.0
190 ; 1.7048434326689977E7 ; 2.014066657345293E8 ; 3.397284494648668E9 ; 3.655422515378857E10 ; 0.0
191 ; 1.7037448457121316E7 ; 2.014111899223572E8 ; 3.414332928975358E9 ; 3.6755631819523094E10 ; 0.0
192 ; 1.703037012194435E7 ; 2.0141569542214155E8 ; 3.4313703774324794E9 ; 3.695704300944545E10 ; 0.0
193 ; 1.701420616160683E7 ; 2.014201821183316E8 ; 3.448400747554424E9 ; 3.715845870486759E10 ; 0.0
194 ; 1.700788143691677E7 ; 2.0142464989633316E8 ; 3.4654149537160306E9 ; 3.735987888698592E10 ; 0.0
195 ; 1.6994642255981233E7 ; 2.014290986424958E8 ; 3.4824228351529474E9 ; 3.7561303536882256E10 ; 0.0
