CSV File for the City 1 on Day 193
1 - Minute m 
2 - Power Consumed at minute m 
3 - Power Produced at minute m 
4 - Energy Consumed since the beginning of the day 
5 - Energy Produced since the beginning of the day 
6 - Energy Lost since the beginning of the day on lines starting from the city
 
0 ; 2055808.0902643502 ; 1.0543549397725752E8 ; 0.0 ; 0.0 ; 0.0
1 ; 2069688.8075082123 ; 1.05588319379412E8 ; 2055808.0902643502 ; 1.0543549397725752E8 ; 0.0
2 ; 2092849.9367914766 ; 1.060499368905246E8 ; 4125496.8977725627 ; 2.1102381335666952E8 ; 0.0
3 ; 2109298.9668353046 ; 1.068203488572107E8 ; 6218346.8345640395 ; 3.170737502471941E8 ; 0.0
4 ; 2133288.1218347154 ; 1.0789955739895451E8 ; 8327645.801399345 ; 4.238940991044048E8 ; 0.0
5 ; 2163374.6217566887 ; 1.0928756439092624E8 ; 1.046093392323406E7 ; 5.317936565033593E8 ; 0.0
6 ; 2200192.579104684 ; 1.109843714483377E8 ; 1.2624308544990748E7 ; 6.410812208942856E8 ; 0.0
7 ; 2260120.6876881495 ; 1.1298997991263264E8 ; 1.4824501124095432E7 ; 7.520655923426232E8 ; 0.0
8 ; 2334742.09063804 ; 1.1530439083978039E8 ; 1.7084621811783582E7 ; 8.650555722552559E8 ; 0.0
9 ; 2452327.2310617696 ; 1.1792760499090916E8 ; 1.9419363902421623E7 ; 9.803599630950363E8 ; 0.0
10 ; 2638068.5193281984 ; 1.2085962282547098E8 ; 2.1871691133483395E7 ; 1.0982875680859454E9 ; 0.0
11 ; 2930177.7592226686 ; 1.2410044449708202E8 ; 2.4509759652811594E7 ; 1.2191471909114163E9 ; 0.0
12 ; 3392515.792427893 ; 1.2765006985212609E8 ; 2.7439937412034262E7 ; 1.3432476354084983E9 ; 0.0
13 ; 3832037.275656126 ; 1.3150849843115115E8 ; 3.0832453204462156E7 ; 1.4708977052606244E9 ; 0.0
14 ; 3892205.4789703046 ; 1.3567572947302908E8 ; 3.466449048011828E7 ; 1.6024062036917756E9 ; 0.0
15 ; 3911847.4474141668 ; 1.4015176192179042E8 ; 3.8556695959088586E7 ; 1.7380819331648047E9 ; 0.0
16 ; 3934038.1791704646 ; 1.4493659443599156E8 ; 4.246854340650275E7 ; 1.878233695086595E9 ; 0.0
17 ; 3957251.35601457 ; 1.5003022540042058E8 ; 4.640258158567322E7 ; 2.0231702895225866E9 ; 0.0
18 ; 3979153.627516943 ; 1.554326529399073E8 ; 5.035983294168779E7 ; 2.173200514923007E9 ; 0.0
19 ; 4005066.5381300827 ; 1.6114387493496755E8 ; 5.433898656920473E7 ; 2.328633167862914E9 ; 0.0
20 ; 4025081.4439434684 ; 1.6716388903898588E8 ; 5.8344053107334815E7 ; 2.4897770427978816E9 ; 0.0
21 ; 4047452.018571465 ; 1.7349269269662842E8 ; 6.2369134551278286E7 ; 2.6569409318368673E9 ; 0.0
22 ; 4069111.1286040265 ; 1.8013028316316742E8 ; 6.641658656984975E7 ; 2.830433624533496E9 ; 0.0
23 ; 4095576.227990849 ; 1.8707665752440524E8 ; 7.048569769845378E7 ; 3.0105639076966634E9 ; 0.0
24 ; 4118542.7065855814 ; 1.9433181271689475E8 ; 7.458127392644463E7 ; 3.1976405652210684E9 ; 0.0
25 ; 4138426.789052458 ; 2.0058378644635576E8 ; 7.869981663303022E7 ; 3.391972377937963E9 ; 0.0
26 ; 4158264.0439659953 ; 2.0058612324455398E8 ; 8.283824342208268E7 ; 3.592556164384319E9 ; 0.0
27 ; 4186608.054221992 ; 2.0058858901370648E8 ; 8.699650746604867E7 ; 3.793142287628873E9 ; 0.0
28 ; 4208374.193502714 ; 2.005911802920716E8 ; 9.118311552027066E7 ; 3.9937308766425796E9 ; 0.0
29 ; 4228617.7063394105 ; 2.005938935651581E8 ; 9.539148971377337E7 ; 4.1943220569346514E9 ; 0.0
30 ; 4250960.446129337 ; 2.0059672528269717E8 ; 9.962010742011277E7 ; 4.394915950499809E9 ; 0.0
31 ; 4273754.448065259 ; 2.005996718745183E8 ; 1.0387106786624211E8 ; 4.595512675782506E9 ; 0.0
32 ; 4295897.242546739 ; 2.0060272976525274E8 ; 1.0814482231430736E8 ; 4.796112347657024E9 ; 0.0
33 ; 4311703.439279424 ; 2.0060589538781795E8 ; 1.124407195568541E8 ; 4.996715077422277E9 ; 0.0
34 ; 4333096.776241513 ; 2.0060916519566134E8 ; 1.1675242299613352E8 ; 5.197320972810096E9 ; 0.0
35 ; 4351107.814149073 ; 2.0061253567376333E8 ; 1.2108551977237503E8 ; 5.397930138005757E9 ; 0.0
36 ; 4372411.495220007 ; 2.006160033484196E8 ; 1.254366275865241E8 ; 5.598542673679521E9 ; 0.0
37 ; 4388961.000183447 ; 2.006195647958378E8 ; 1.298090390817441E8 ; 5.79915867702794E9 ; 0.0
38 ; 4404567.985439613 ; 2.0062321664959663E8 ; 1.3419800008192755E8 ; 5.999778241823777E9 ; 0.0
39 ; 4422501.210118765 ; 2.0062695560702634E8 ; 1.3860256806736717E8 ; 6.200401458473373E9 ; 0.0
40 ; 4440125.044536341 ; 2.0063077843457493E8 ; 1.4302506927748594E8 ; 6.4010284140803995E9 ; 0.0
41 ; 4459875.956016051 ; 2.006346819722311E8 ; 1.474651943220223E8 ; 6.601659192514975E9 ; 0.0
42 ; 4473263.489907905 ; 2.00638663137077E8 ; 1.5192507027803835E8 ; 6.8022938744872055E9 ; 0.0
43 ; 4485629.703365269 ; 2.006427189260449E8 ; 1.5639833376794624E8 ; 7.002932537624283E9 ; 0.0
44 ; 4501218.198484539 ; 2.0064684641795135E8 ; 1.608839634713115E8 ; 7.203575256550327E9 ; 0.0
45 ; 4515216.310581371 ; 2.0065104277488142E8 ; 1.6538518166979605E8 ; 7.404222102968279E9 ; 0.0
46 ; 4524894.555691497 ; 2.006553052429927E8 ; 1.6990039798037744E8 ; 7.60487314574316E9 ; 0.0
47 ; 4535136.050532887 ; 2.0065963115280464E8 ; 1.7442529253606895E8 ; 7.805528450986153E9 ; 0.0
48 ; 4553944.374104108 ; 2.0066401791903704E8 ; 1.7896042858660182E8 ; 8.006188082138957E9 ; 0.0
49 ; 4562096.1739377035 ; 2.0066846304005498E8 ; 1.8351437296070594E8 ; 8.206852100057994E9 ; 0.0
50 ; 4570627.08181863 ; 2.0067296409697536E8 ; 1.8807646913464364E8 ; 8.407520563098049E9 ; 0.0
51 ; 4577052.100288975 ; 2.0067751875248414E8 ; 1.9264709621646228E8 ; 8.608193527195024E9 ; 0.0
52 ; 4584704.173702998 ; 2.006821247494101E8 ; 1.9722414831675127E8 ; 8.808871045947508E9 ; 0.0
53 ; 4598817.520135308 ; 2.0068677990909597E8 ; 2.0180885249045426E8 ; 9.009553170696918E9 ; 0.0
54 ; 4604569.303978904 ; 2.0069148212960452E8 ; 2.0640767001058957E8 ; 9.210239950606014E9 ; 0.0
55 ; 4614156.609399197 ; 2.006962293837921E8 ; 2.1101223931456846E8 ; 9.410931432735619E9 ; 0.0
56 ; 4620747.797409385 ; 2.0070101971727982E8 ; 2.1562639592396766E8 ; 9.611627662119411E9 ; 0.0
57 ; 4628976.45177699 ; 2.0070585124634773E8 ; 2.2024714372137704E8 ; 9.81232868183669E9 ; 0.0
58 ; 4637358.053807687 ; 2.0071072215577552E8 ; 2.2487612017315403E8 ; 1.0013034533083038E10 ; 0.0
59 ; 4642243.197107837 ; 2.007156306966494E8 ; 2.295134782269617E8 ; 1.0213745255238813E10 ; 0.0
60 ; 4646320.753412355 ; 2.0072057518415236E8 ; 2.3415572142406952E8 ; 1.0414460885935463E10 ; 0.0
61 ; 4660677.579752413 ; 2.0072555399535304E8 ; 2.388020421774819E8 ; 1.0615181461119616E10 ; 0.0
62 ; 4664717.766111029 ; 2.0073056556700575E8 ; 2.434627197572343E8 ; 1.081590701511497E10 ; 0.0
63 ; 4676004.093353598 ; 2.007356083933723E8 ; 2.4812743752334532E8 ; 1.1016637580681974E10 ; 0.0
64 ; 4678743.284296109 ; 2.0074068102407494E8 ; 2.5280344161669892E8 ; 1.1217373189075346E10 ; 0.0
65 ; 4681166.910551237 ; 2.0074578206198767E8 ; 2.5748218490099502E8 ; 1.141811387009942E10 ; 0.0
66 ; 4693854.303711407 ; 2.0075091016117218E8 ; 2.6216335181154627E8 ; 1.1618859652161407E10 ; 0.0
67 ; 4699615.116771624 ; 2.0075606402486315E8 ; 2.6685720611525768E8 ; 1.181961056232258E10 ; 0.0
68 ; 4708489.454779957 ; 2.0076124240350696E8 ; 2.715568212320293E8 ; 1.2020366626347443E10 ; 0.0
69 ; 4715763.728088207 ; 2.0076644409285653E8 ; 2.762653106868093E8 ; 1.222112786875095E10 ; 0.0
70 ; 4720082.790363396 ; 2.0077166793212456E8 ; 2.809810744148975E8 ; 1.2421894312843807E10 ; 0.0
71 ; 4725372.069986732 ; 2.0077691280219662E8 ; 2.857011572052609E8 ; 1.2622665980775932E10 ; 0.0
72 ; 4731879.871537358 ; 2.0078217762390476E8 ; 2.9042652927524763E8 ; 1.2823442893578129E10 ; 0.0
73 ; 4737965.2432032805 ; 2.007874613563622E8 ; 2.95158409146785E8 ; 1.3024225071202034E10 ; 0.0
74 ; 4744662.960387687 ; 2.0079276299535882E8 ; 2.998963743899883E8 ; 1.3225012532558395E10 ; 0.0
75 ; 4748429.78055967 ; 2.0079808157181722E8 ; 3.04641037350376E8 ; 1.3425805295553755E10 ; 0.0
76 ; 4754137.39050569 ; 2.0080341615030834E8 ; 3.0938946713093567E8 ; 1.3626603377125572E10 ; 0.0
77 ; 4756776.947198381 ; 2.0080876582762584E8 ; 3.1414360452144134E8 ; 1.382740679327588E10 ; 0.0
78 ; 4760249.580996186 ; 2.00814129731418E8 ; 3.1890038146863973E8 ; 1.4028215559103506E10 ; 0.0
79 ; 4759555.201946588 ; 2.0081950701887587E8 ; 3.236606310496359E8 ; 1.4229029688834925E10 ; 0.0
80 ; 4761213.393669311 ; 2.0082489687547573E8 ; 3.284201862515825E8 ; 1.44298491958538E10 ; 0.0
81 ; 4756799.612178404 ; 2.008302985137753E8 ; 3.331813996452518E8 ; 1.4630674092729275E10 ; 0.0
82 ; 4759995.962532927 ; 2.0083571117226076E8 ; 3.379381992574302E8 ; 1.483150439124305E10 ; 0.0
83 ; 4756286.51422077 ; 2.008411341142439E8 ; 3.4269819521996313E8 ; 1.503234010241531E10 ; 0.0
84 ; 4757149.120858913 ; 2.0084656662680727E8 ; 3.474544817341839E8 ; 1.5233181236529554E10 ; 0.0
85 ; 4757815.979507103 ; 2.0085200801979548E8 ; 3.522116308550428E8 ; 1.5434027803156363E10 ; 0.0
86 ; 4756284.178427174 ; 2.0085745762485135E8 ; 3.569694468345499E8 ; 1.5634879811176159E10 ; 0.0
87 ; 4755307.098232561 ; 2.0086291479449463E8 ; 3.6172573101297706E8 ; 1.583573726880101E10 ; 0.0
88 ; 4751447.106867682 ; 2.0086837890124196E8 ; 3.6648103811120963E8 ; 1.6036600183595505E10 ; 0.0
89 ; 4752023.188763521 ; 2.0087384933676648E8 ; 3.712324852180773E8 ; 1.6237468562496746E10 ; 0.0
90 ; 4751600.388374408 ; 2.00879325511095E8 ; 3.759845084068408E8 ; 1.6438342411833513E10 ; 0.0
91 ; 4747952.588402088 ; 2.0088480685184148E8 ; 3.807361087952152E8 ; 1.6639221737344608E10 ; 0.0
92 ; 4748934.994604989 ; 2.008902928034754E8 ; 3.854840613836173E8 ; 1.684010654419645E10 ; 0.0
93 ; 4745713.914151687 ; 2.0089578282662296E8 ; 3.902329963782223E8 ; 1.7040996836999926E10 ; 0.0
94 ; 4742269.577221878 ; 2.0090127639740008E8 ; 3.9497871029237396E8 ; 1.724189261982655E10 ; 0.0
95 ; 4741652.961329764 ; 2.0090677300677595E8 ; 3.997209798695958E8 ; 1.744279389622395E10 ; 0.0
96 ; 4738734.872136526 ; 2.00912272159965E8 ; 4.044626328309256E8 ; 1.7643700669230724E10 ; 0.0
97 ; 4734939.998055334 ; 2.0091777337584698E8 ; 4.092013677030621E8 ; 1.784461294139069E10 ; 0.0
98 ; 4733954.104790513 ; 2.00923276186413E8 ; 4.1393630770111746E8 ; 1.8045530714766537E10 ; 0.0
99 ; 4729470.758125067 ; 2.009287801362368E8 ; 4.1867026180590796E8 ; 1.824645399095295E10 ; 0.0
100 ; 4726250.813082989 ; 2.009342847819702E8 ; 4.2339973256403303E8 ; 1.8447382771089188E10 ; 0.0
101 ; 4727121.097894828 ; 2.0093978969186106E8 ; 4.28125983377116E8 ; 1.864831705587116E10 ; 0.0
102 ; 4720330.69632987 ; 2.0094529444529316E8 ; 4.328531044750109E8 ; 1.884925684556302E10 ; 0.0
103 ; 4714084.102672343 ; 2.00950798632347E8 ; 4.3757343517134076E8 ; 1.9050202140008312E10 ; 0.0
104 ; 4721543.490249995 ; 2.0095630185338008E8 ; 4.422875192740131E8 ; 1.925115293864066E10 ; 0.0
105 ; 4713010.501764526 ; 2.0096180371862635E8 ; 4.470090627642631E8 ; 1.9452109240494038E10 ; 0.0
106 ; 4709715.325364541 ; 2.0096730384781328E8 ; 4.517220732660276E8 ; 1.9653071044212666E10 ; 0.0
107 ; 4706608.993463616 ; 2.009728018697964E8 ; 4.5643178859139216E8 ; 1.985403834806048E10 ; 0.0
108 ; 4703336.8619290395 ; 2.009782974222099E8 ; 4.611383975848558E8 ; 2.0055011149930275E10 ; 0.0
109 ; 4702872.514402529 ; 2.0098379015113282E8 ; 4.6584173444678485E8 ; 2.0255989447352486E10 ; 0.0
110 ; 4694832.7007300705 ; 2.0098927971077016E8 ; 4.7054460696118736E8 ; 2.045697323750362E10 ; 0.0
111 ; 4694007.428717229 ; 2.0099476576314792E8 ; 4.7523943966191745E8 ; 2.065796251721439E10 ; 0.0
112 ; 4686488.14774636 ; 2.0100024797782168E8 ; 4.799334470906347E8 ; 2.085895728297754E10 ; 0.0
113 ; 4685027.984444081 ; 2.0100572603159797E8 ; 4.846199352383811E8 ; 2.105995753095536E10 ; 0.0
114 ; 4675723.491409031 ; 2.0101119960826784E8 ; 4.8930496322282517E8 ; 2.1260963256986958E10 ; 0.0
115 ; 4670137.418108684 ; 2.0101666839835197E8 ; 4.939806867142342E8 ; 2.1461974456595226E10 ; 0.0
116 ; 4667542.180824519 ; 2.0102213209885705E8 ; 4.986508241323429E8 ; 2.166299112499358E10 ; 0.0
117 ; 4663407.608454506 ; 2.0102759041304246E8 ; 5.033183663131674E8 ; 2.1864013257092438E10 ; 0.0
118 ; 4658347.99825529 ; 2.0103304305019724E8 ; 5.079817739216219E8 ; 2.206504084750548E10 ; 0.0
119 ; 4653283.825409597 ; 2.0103848972542664E8 ; 5.1264012191987723E8 ; 2.226607389055568E10 ; 0.0
120 ; 4648180.753462313 ; 2.0104393015944752E8 ; 5.172934057452868E8 ; 2.2467112380281105E10 ; 0.0
121 ; 4641231.618373357 ; 2.010493640783929E8 ; 5.2194158649874914E8 ; 2.266815631044055E10 ; 0.0
122 ; 4631124.70749587 ; 2.0105479121362454E8 ; 5.265828181171225E8 ; 2.2869205674518944E10 ; 0.0
123 ; 4628403.290666131 ; 2.0106021130155352E8 ; 5.3121394282461834E8 ; 2.3070260465732567E10 ; 0.0
124 ; 4624335.757909328 ; 2.0106562408346838E8 ; 5.3584234611528444E8 ; 2.327132067703412E10 ; 0.0
125 ; 4621284.342184433 ; 2.010710293053706E8 ; 5.404666818731937E8 ; 2.3472386301117588E10 ; 0.0
126 ; 4614769.058329637 ; 2.0107642671781668E8 ; 5.450879662153782E8 ; 2.367345733042296E10 ; 0.0
127 ; 4607348.187867736 ; 2.010818160757672E8 ; 5.497027352737077E8 ; 2.3874533757140774E10 ; 0.0
128 ; 4602401.762016508 ; 2.0108719713844168E8 ; 5.543100834615755E8 ; 2.407561557321654E10 ; 0.0
129 ; 4593027.914370123 ; 2.0109256966917986E8 ; 5.58912485223592E8 ; 2.4276702770354984E10 ; 0.0
130 ; 4583980.789847631 ; 2.0109793343530843E8 ; 5.635055131379622E8 ; 2.4477795340024162E10 ; 0.0
131 ; 4573017.688073604 ; 2.0110328820801327E8 ; 5.680894939278098E8 ; 2.467889327345947E10 ; 0.0
132 ; 4559517.160849961 ; 2.0110863376221702E8 ; 5.726625116158835E8 ; 2.487999656166748E10 ; 0.0
133 ; 4551454.098691827 ; 2.0111396987646142E8 ; 5.772220287767334E8 ; 2.50811051954297E10 ; 0.0
134 ; 4532933.443603079 ; 2.011192963327946E8 ; 5.817734828754252E8 ; 2.528221916530616E10 ; 0.0
135 ; 4527011.519467501 ; 2.0112461291666293E8 ; 5.863064163190283E8 ; 2.5483338461638954E10 ; 0.0
136 ; 4511123.194806407 ; 2.011299194168069E8 ; 5.908334278384957E8 ; 2.568446307455562E10 ; 0.0
137 ; 4498992.794763923 ; 2.0113521562516156E8 ; 5.953445510333022E8 ; 2.5885592993972424E10 ; 0.0
138 ; 4488025.9441767745 ; 2.0114050133676073E8 ; 5.998435438280661E8 ; 2.6086728209597584E10 ; 0.0
139 ; 4471851.94082298 ; 2.0114577634964493E8 ; 6.043315697722429E8 ; 2.6287868710934345E10 ; 0.0
140 ; 4462094.936541741 ; 2.0115104046477324E8 ; 6.088034217130659E8 ; 2.648901448728399E10 ; 0.0
141 ; 4444655.295251996 ; 2.0115629348593816E8 ; 6.132655166496077E8 ; 2.6690165527748764E10 ; 0.0
142 ; 4432478.701720383 ; 2.011615352196843E8 ; 6.177101719448596E8 ; 2.6891321821234703E10 ; 0.0
143 ; 4418811.778957982 ; 2.011667654752299E8 ; 6.2214265064658E8 ; 2.7092483356454388E10 ; 0.0
144 ; 4403928.814170521 ; 2.0117198406439152E8 ; 6.26561462425538E8 ; 2.729365012192962E10 ; 0.0
145 ; 4394964.845837977 ; 2.0117719080151176E8 ; 6.309653912397084E8 ; 2.749482210599401E10 ; 0.0
146 ; 4391824.621557196 ; 2.011823855033894E8 ; 6.353603560855464E8 ; 2.7695999296795525E10 ; 0.0
147 ; 4385403.746470835 ; 2.0118756798921266E8 ; 6.397521807071036E8 ; 2.7897181682298916E10 ; 0.0
148 ; 4380481.471792785 ; 2.011927380804948E8 ; 6.441375844535744E8 ; 2.8098369250288128E10 ; 0.0
149 ; 4370593.55808482 ; 2.0119789560101205E8 ; 6.485180659253672E8 ; 2.829956198836862E10 ; 0.0
150 ; 4368797.510288961 ; 2.012030403767442E8 ; 6.528886594834521E8 ; 2.8500759883969635E10 ; 0.0
151 ; 4356478.800697543 ; 2.0120817223581713E8 ; 6.57257456993741E8 ; 2.870196292434638E10 ; 0.0
152 ; 4352945.101416098 ; 2.0121329100844768E8 ; 6.616139357944386E8 ; 2.8903171096582195E10 ; 0.0
153 ; 4345976.627668836 ; 2.012183965268906E8 ; 6.659668808958547E8 ; 2.9104384387590645E10 ; 0.0
154 ; 4341362.072939342 ; 2.0122348862538737E8 ; 6.703128575235236E8 ; 2.9305602784117535E10 ; 0.0
155 ; 4329378.540223385 ; 2.0122856714011696E8 ; 6.74654219596463E8 ; 2.9506826272742924E10 ; 0.0
156 ; 4325470.3706954885 ; 2.0123363190914848E8 ; 6.789835981366863E8 ; 2.970805483988304E10 ; 0.0
157 ; 4316841.400633374 ; 2.012386827723955E8 ; 6.833090685073818E8 ; 2.990928847179219E10 ; 0.0
158 ; 4311246.331743209 ; 2.0124371957157212E8 ; 6.876259099080151E8 ; 3.0110527154564587E10 ; 0.0
159 ; 4304175.273000517 ; 2.0124874215015057E8 ; 6.919371562397584E8 ; 3.0311770874136158E10 ; 0.0
160 ; 4295525.163517337 ; 2.0125375035332042E8 ; 6.962413315127589E8 ; 3.051301961628631E10 ; 0.0
161 ; 4291213.1829930125 ; 2.0125874402794933E8 ; 7.005368566762762E8 ; 3.071427336663963E10 ; 0.0
162 ; 4281387.0913864495 ; 2.0126372302254504E8 ; 7.048280698592693E8 ; 3.091553211066758E10 ; 0.0
163 ; 4275007.296208188 ; 2.0126868718721887E8 ; 7.091094569506557E8 ; 3.1116795833690125E10 ; 0.0
164 ; 4265936.539133249 ; 2.0127363637365058E8 ; 7.133844642468638E8 ; 3.1318064520877342E10 ; 0.0
165 ; 4264052.954957618 ; 2.012785704350544E8 ; 7.17650400785997E8 ; 3.151933815725099E10 ; 0.0
166 ; 4251257.804944088 ; 2.0128348922614622E8 ; 7.219144537409546E8 ; 3.1720616727686047E10 ; 0.0
167 ; 4244971.016312092 ; 2.0128839260311213E8 ; 7.261657115458987E8 ; 3.1921900216912193E10 ; 0.0
168 ; 4243696.164494391 ; 2.0129328042357793E8 ; 7.304106825622108E8 ; 3.2123188609515305E10 ; 0.0
169 ; 4232782.593057206 ; 2.012981525465798E8 ; 7.346543787267052E8 ; 3.232448188993888E10 ; 0.0
170 ; 4227043.519883903 ; 2.0130300883253595E8 ; 7.388871613197623E8 ; 3.2525780042485462E10 ; 0.0
171 ; 4216947.5366438925 ; 2.013078491432193E8 ; 7.431142048396462E8 ; 3.2727083051317997E10 ; 0.0
172 ; 4206443.424102946 ; 2.0131267334173104E8 ; 7.473311523762901E8 ; 3.2928390900461216E10 ; 0.0
173 ; 4200746.550790727 ; 2.0131748129247537E8 ; 7.51537595800393E8 ; 3.3129703573802948E10 ; 0.0
174 ; 4203999.186175323 ; 2.0132227286113483E8 ; 7.557383423511837E8 ; 3.3331021055095425E10 ; 0.0
175 ; 4192030.230803374 ; 2.013270479146465E8 ; 7.59942341537359E8 ; 3.353234332795656E10 ; 0.0
176 ; 4190646.1441414165 ; 2.0133180632117936E8 ; 7.641343717681624E8 ; 3.3733670375871204E10 ; 0.0
177 ; 4183928.9163873754 ; 2.0133654795011204E8 ; 7.683250179123038E8 ; 3.3935002182192383E10 ; 0.0
178 ; 4177522.0328112138 ; 2.0134127267201146E8 ; 7.725089468286911E8 ; 3.4136338730142494E10 ; 0.0
179 ; 4174955.933625496 ; 2.0134598035861242E8 ; 7.766864688615023E8 ; 3.4337680002814507E10 ; 0.0
180 ; 4169208.375203212 ; 2.0135067088279757E8 ; 7.808614247951277E8 ; 3.453902598317312E10 ; 0.0
181 ; 4161454.9041891005 ; 2.0135534411857823E8 ; 7.85030633170331E8 ; 3.4740376654055916E10 ; 0.0
182 ; 4157696.3093520217 ; 2.0135999994107595E8 ; 7.891920880745201E8 ; 3.494173199817449E10 ; 0.0
183 ; 4152031.0029254924 ; 2.0136463822650447E8 ; 7.933497843838722E8 ; 3.514309199811557E10 ; 0.0
184 ; 4147637.447761836 ; 2.0136925885215247E8 ; 7.975018153867977E8 ; 3.534445663634207E10 ; 0.0
185 ; 4145828.3139919424 ; 2.013738616963669E8 ; 8.016494528345596E8 ; 3.554582589519422E10 ; 0.0
186 ; 4135882.7693620487 ; 2.0137844663853678E8 ; 8.057952811485515E8 ; 3.574719975689059E10 ; 0.0
187 ; 4132085.0481245355 ; 2.013830135590776E8 ; 8.099311639179136E8 ; 3.594857820352912E10 ; 0.0
188 ; 4122668.830287798 ; 2.013875623394162E8 ; 8.140632489660381E8 ; 3.6149961217088196E10 ; 0.0
189 ; 4125977.4686198086 ; 2.0139209286197636E8 ; 8.181859177963259E8 ; 3.635134877942761E10 ; 0.0
190 ; 4118873.997787063 ; 2.0139660501016456E8 ; 8.223118952649457E8 ; 3.655274087228959E10 ; 0.0
191 ; 4113173.3580541066 ; 2.0140109866835642E8 ; 8.264307692627329E8 ; 3.675413747729975E10 ; 0.0
192 ; 4107243.385598762 ; 2.014055737218836E8 ; 8.30543942620787E8 ; 3.695553857596811E10 ; 0.0
193 ; 4104948.775465088 ; 2.0141003005702102E8 ; 8.346511860063858E8 ; 3.7156944149689995E10 ; 0.0
194 ; 4097788.978764209 ; 2.014144675609746E8 ; 8.387561347818509E8 ; 3.735835417974702E10 ; 0.0
195 ; 4088436.0652376995 ; 2.014188861218694E8 ; 8.428539237606151E8 ; 3.755976864730799E10 ; 0.0
196 ; 4088995.833953782 ; 2.014232856287381E8 ; 8.469423598258528E8 ; 3.776118753342986E10 ; 0.0
197 ; 4085388.5435540085 ; 2.014276659715099E8 ; 8.510313556598065E8 ; 3.79626108190586E10 ; 0.0
198 ; 4078072.6788184885 ; 2.014320270409999E8 ; 8.551167442033606E8 ; 3.816403848503011E10 ; 0.0
199 ; 4068364.7447393783 ; 2.0143636872889847E8 ; 8.59194816882179E8 ; 3.836547051207111E10 ; 0.0
200 ; 4065638.1109910887 ; 2.014406909277615E8 ; 8.632631816269184E8 ; 3.856690688080001E10 ; 0.0
201 ; 4059284.4468306303 ; 1.9420095794005844E8 ; 8.673288197379096E8 ; 3.8768347571727776E10 ; 0.0
