CSV File for the City 6 on Day 262
1 - Minute m 
2 - Power Consumed at minute m 
3 - Power Produced at minute m 
4 - Energy Consumed since the beginning of the day 
5 - Energy Produced since the beginning of the day 
6 - Energy Lost since the beginning of the day on lines starting from the city
 
0 ; 3883327.854615368 ; 1.0601524706628177E8 ; 0.0 ; 0.0 ; 0.0
1 ; 3890098.1177983517 ; 1.0616608245002389E8 ; 3883327.854615368 ; 1.0601524706628177E8 ; 0.0
2 ; 3903032.3375551235 ; 1.0662591384330454E8 ; 7773425.97241372 ; 2.1218132951630566E8 ; 0.0
3 ; 3916364.6945891343 ; 1.0739474542425454E8 ; 1.1676458309968844E7 ; 3.188072433596102E8 ; 0.0
4 ; 3928351.345498197 ; 1.0847258094421351E8 ; 1.5592823004557978E7 ; 4.2620198878386474E8 ; 0.0
5 ; 3946575.6697194865 ; 1.0985942370459843E8 ; 1.9521174350056175E7 ; 5.3467456972807825E8 ; 0.0
6 ; 3969350.6760388357 ; 1.1155527653610906E8 ; 2.3467750019775663E7 ; 6.445339934326767E8 ; 0.0
7 ; 4003204.0950012677 ; 1.1356014178057128E8 ; 2.7437100695814498E7 ; 7.560892699687858E8 ; 0.0
8 ; 4051816.2062242874 ; 1.158740212756859E8 ; 3.1440304790815767E7 ; 8.69649411749357E8 ; 0.0
9 ; 4128536.5888806726 ; 1.1849691634291506E8 ; 3.5492120997040056E7 ; 9.855234330250429E8 ; 0.0
10 ; 4252055.200563291 ; 1.2142882777869141E8 ; 3.962065758592073E7 ; 1.104020349367958E9 ; 0.0
11 ; 4448972.525589551 ; 1.2466975584908792E8 ; 4.387271278648402E7 ; 1.2254491771466494E9 ; 0.0
12 ; 4762450.485670418 ; 1.2821970028803161E8 ; 4.8321685312073566E7 ; 1.3501189329957373E9 ; 0.0
13 ; 5067564.189826955 ; 1.3207866029908979E8 ; 5.308413579774398E7 ; 1.478338633283769E9 ; 0.0
14 ; 5100389.533990646 ; 1.3624663456080043E8 ; 5.815169998757094E7 ; 1.6104172935828586E9 ; 0.0
15 ; 5110783.801478039 ; 1.407236212354626E8 ; 6.3252089521561585E7 ; 1.746663928143659E9 ; 0.0
16 ; 5123380.9081021035 ; 1.4550961798125055E8 ; 6.836287332303962E7 ; 1.8873875493791218E9 ; 0.0
17 ; 5132285.978401537 ; 1.5060462196746442E8 ; 7.348625423114173E7 ; 2.0328971673603723E9 ; 0.0
18 ; 5145508.015809029 ; 1.5600862989268726E8 ; 7.861854020954327E7 ; 2.1835017893278365E9 ; 0.0
19 ; 5158783.964752644 ; 1.6172163800557944E8 ; 8.37640482253523E7 ; 2.339510419220524E9 ; 0.0
20 ; 5171720.185373032 ; 1.6774364212801012E8 ; 8.892283219010495E7 ; 2.5012320572261033E9 ; 0.0
21 ; 5184012.536775219 ; 1.740746376802031E8 ; 9.409455237547798E7 ; 2.6689756993541136E9 ; 0.0
22 ; 5198879.872318506 ; 1.807146197075569E8 ; 9.92785649122532E7 ; 2.8430503370343165E9 ; 0.0
23 ; 5209425.063227065 ; 1.876635829087931E8 ; 1.044774447845717E8 ; 3.0237649567418733E9 ; 0.0
24 ; 5223376.384710059 ; 1.9492152166508383E8 ; 1.0968686984779876E8 ; 3.211428539650666E9 ; 0.0
25 ; 5232183.246214927 ; 2.0117647096800205E8 ; 1.1491024623250882E8 ; 3.40635006131575E9 ; 0.0
26 ; 5244205.550816632 ; 2.0118197248649377E8 ; 1.2014242947872375E8 ; 3.607526532283752E9 ; 0.0
27 ; 5257193.317228858 ; 2.0118778912185818E8 ; 1.2538663502954037E8 ; 3.8087085047702456E9 ; 0.0
28 ; 5272873.7302525705 ; 2.0119391428430873E8 ; 1.3064382834676923E8 ; 4.0098962938921037E9 ; 0.0
29 ; 5282797.001173627 ; 2.0120034121545798E8 ; 1.359167020770218E8 ; 4.2110902081764126E9 ; 0.0
30 ; 5298715.912306405 ; 2.0120706301677468E8 ; 1.4119949907819542E8 ; 4.4122905493918705E9 ; 0.0
31 ; 5307185.484608987 ; 2.0121407267705643E8 ; 1.4649821499050182E8 ; 4.613497612408646E9 ; 0.0
32 ; 5319292.454753049 ; 2.01221363098745E8 ; 1.518054004751108E8 ; 4.814711685085702E9 ; 0.0
33 ; 5330281.189807858 ; 2.0122892712294418E8 ; 1.5712469292986384E8 ; 5.015933048184447E9 ; 0.0
34 ; 5332934.82906804 ; 2.0123675755302858E8 ; 1.624549741196717E8 ; 5.217161975307391E9 ; 0.0
35 ; 5345312.5281623155 ; 2.0124484717676067E8 ; 1.6778790894873974E8 ; 5.41839873286042E9 ; 0.0
36 ; 5360439.143704695 ; 2.012531887868606E8 ; 1.7313322147690207E8 ; 5.619643580037181E9 ; 0.0
37 ; 5366039.334478982 ; 2.012617751999968E8 ; 1.7849366062060675E8 ; 5.820896768824041E9 ; 0.0
38 ; 5377472.141624464 ; 2.0127059927418885E8 ; 1.8385969995508572E8 ; 6.022158544024038E9 ; 0.0
39 ; 5385405.177838319 ; 2.012796539246318E8 ; 1.8923717209671018E8 ; 6.223429143298227E9 ; 0.0
40 ; 5393835.324947688 ; 2.012889321379701E8 ; 1.946225772745485E8 ; 6.424708797222859E9 ; 0.0
41 ; 5401517.720269687 ; 2.012984269850615E8 ; 2.000164125994962E8 ; 6.625997729360829E9 ; 0.0
42 ; 5408148.170096522 ; 2.0130813163228562E8 ; 2.0541793031976587E8 ; 6.827296156345891E9 ; 0.0
43 ; 5417547.217369734 ; 2.0131803935145828E8 ; 2.1082607848986238E8 ; 7.028604287978177E9 ; 0.0
44 ; 5420856.482209796 ; 2.0132814352842322E8 ; 2.1624362570723212E8 ; 7.229922327329636E9 ; 0.0
45 ; 5428505.789456669 ; 2.013384376703957E8 ; 2.2166448218944192E8 ; 7.431250470858059E9 ; 0.0
46 ; 5432682.529278576 ; 2.0134891541213742E8 ; 2.2709298797889858E8 ; 7.632588908528455E9 ; 0.0
47 ; 5435711.363898071 ; 2.0135957052104342E8 ; 2.3252567050817716E8 ; 7.833937823940592E9 ; 0.0
48 ; 5436853.0189188905 ; 2.0137039690122274E8 ; 2.3796138187207523E8 ; 8.035297394461636E9 ; 0.0
49 ; 5444401.029830209 ; 2.013813885966536E8 ; 2.4339823489099413E8 ; 8.236667791362859E9 ; 0.0
50 ; 5449209.372102924 ; 2.0139253979349315E8 ; 2.4884263592082435E8 ; 8.438049179959513E9 ; 0.0
51 ; 5451623.097414954 ; 2.0140384482161814E8 ; 2.5429184529292727E8 ; 8.639441719753006E9 ; 0.0
52 ; 5452709.966731729 ; 2.014152981554718E8 ; 2.597434683903422E8 ; 8.840845564574625E9 ; 0.0
53 ; 5453992.569603647 ; 2.0142689441428712E8 ; 2.6519617835707393E8 ; 9.042260862730097E9 ; 0.0
54 ; 5455949.260757189 ; 2.0143862836175418E8 ; 2.706501709266776E8 ; 9.243687757144384E9 ; 0.0
55 ; 5458333.922526662 ; 2.014504949051947E8 ; 2.761061201874348E8 ; 9.445126385506138E9 ; 0.0
56 ; 5462390.459439601 ; 2.0146248909430283E8 ; 2.8156445410996145E8 ; 9.646576880411333E9 ; 0.0
57 ; 5466288.620893871 ; 2.0147460611950755E8 ; 2.87026844569401E8 ; 9.848039369505636E9 ; 0.0
58 ; 5463893.440271673 ; 2.014868413100071E8 ; 2.924931331902949E8 ; 1.0049513975625143E10 ; 0.0
59 ; 5467575.537061927 ; 2.014991901315229E8 ; 2.979570266305666E8 ; 1.025100081693515E10 ; 0.0
60 ; 5469769.015732803 ; 2.0151164818381536E8 ; 3.034246021676285E8 ; 1.0452500007066673E10 ; 0.0
61 ; 5476470.895346835 ; 2.0152421119800088E8 ; 3.0889437118336135E8 ; 1.0654011655250488E10 ; 0.0
62 ; 5474107.867078553 ; 2.0153687503370568E8 ; 3.143708420787082E8 ; 1.0855535866448488E10 ; 0.0
63 ; 5474842.886190905 ; 2.0154963567608806E8 ; 3.198449499457867E8 ; 1.1057072741482193E10 ; 0.0
64 ; 5479487.17826417 ; 2.0156248923275864E8 ; 3.253197928319776E8 ; 1.1258622377158281E10 ; 0.0
65 ; 5478794.605857006 ; 2.015754319306235E8 ; 3.3079928001024175E8 ; 1.146018486639104E10 ; 0.0
66 ; 5477991.275992673 ; 2.015884601126739E8 ; 3.3627807461609876E8 ; 1.1661760298321665E10 ; 0.0
67 ; 5476467.75778554 ; 2.016015702347426E8 ; 3.4175606589209145E8 ; 1.186334875843434E10 ; 0.0
68 ; 5481746.654592858 ; 2.0161475886224487E8 ; 3.47232533649877E8 ; 1.2064950328669083E10 ; 0.0
69 ; 5486099.821125645 ; 2.0162802266691977E8 ; 3.527142803044699E8 ; 1.2266565087531328E10 ; 0.0
70 ; 5483057.809083649 ; 2.0164135842358562E8 ; 3.582003801255955E8 ; 1.2468193110198248E10 ; 0.0
71 ; 5486062.1947026355 ; 2.0165476300692183E8 ; 3.6368343793467915E8 ; 1.2669834468621834E10 ; 0.0
72 ; 5483740.079227591 ; 2.016682333882864E8 ; 3.691695001293818E8 ; 1.2871489231628756E10 ; 0.0
73 ; 5485539.950079844 ; 2.0168176663257906E8 ; 3.7465324020860934E8 ; 1.3073157465017042E10 ; 0.0
74 ; 5483729.792122231 ; 2.0169535989515632E8 ; 3.801387801586892E8 ; 1.3274839231649622E10 ; 0.0
75 ; 5487469.961732834 ; 2.017090104188055E8 ; 3.8562250995081145E8 ; 1.3476534591544779E10 ; 0.0
76 ; 5486120.051620696 ; 2.0172271553078207E8 ; 3.9110997991254425E8 ; 1.3678243601963585E10 ; 0.0
77 ; 5485387.269935987 ; 2.0173647263991487E8 ; 3.96596099964165E8 ; 1.3879966317494368E10 ; 0.0
78 ; 5483364.689270264 ; 2.0175027923378226E8 ; 4.0208148723410094E8 ; 1.4081702790134283E10 ; 0.0
79 ; 5476363.21132505 ; 2.0176413287596172E8 ; 4.075648519233712E8 ; 1.4283453069368065E10 ; 0.0
80 ; 5475072.728946987 ; 2.017780312033547E8 ; 4.1304121513469625E8 ; 1.4485217202244026E10 ; 0.0
81 ; 5470746.927558999 ; 2.0179197192358783E8 ; 4.185162878636432E8 ; 1.468699523344738E10 ; 0.0
82 ; 5469013.480389339 ; 2.018059528124916E8 ; 4.2398703479120225E8 ; 1.4888787205370968E10 ; 0.0
83 ; 5463800.348593477 ; 2.0181997171165583E8 ; 4.294560482715916E8 ; 1.509059315818346E10 ; 0.0
84 ; 5459234.53937796 ; 2.0183402652606302E8 ; 4.349198486201851E8 ; 1.5292413129895117E10 ; 0.0
85 ; 5458215.893716098 ; 2.0184811522179815E8 ; 4.4037908315956306E8 ; 1.549424715642118E10 ; 0.0
86 ; 5449206.332454434 ; 2.0186223582383436E8 ; 4.4583729905327916E8 ; 1.5696095271642979E10 ; 0.0
87 ; 5446239.595594306 ; 2.0187638641389406E8 ; 4.512865053857336E8 ; 1.5897957507466812E10 ; 0.0
88 ; 5440598.790624259 ; 2.018905651283833E8 ; 4.567327449813279E8 ; 1.6099833893880707E10 ; 0.0
89 ; 5439439.560114001 ; 2.0190477015639898E8 ; 4.6217334377195215E8 ; 1.630172445900909E10 ; 0.0
90 ; 5432298.463254263 ; 2.019189997378067E8 ; 4.676127833320662E8 ; 1.650362922916549E10 ; 0.0
91 ; 5429367.921255854 ; 2.0193325216138798E8 ; 4.7304508179532045E8 ; 1.6705548228903296E10 ; 0.0
92 ; 5425105.0495405905 ; 2.0194752576305488E8 ; 4.784744497165763E8 ; 1.6907481481064684E10 ; 0.0
93 ; 5418375.033196112 ; 2.0196181892413053E8 ; 4.8389955476611686E8 ; 1.710942900682774E10 ; 0.0
94 ; 5416617.532300545 ; 2.019761300696936E8 ; 4.8931792979931295E8 ; 1.731139082575187E10 ; 0.0
95 ; 5407742.821969354 ; 2.019904576669845E8 ; 4.947345473316135E8 ; 1.7513366955821564E10 ; 0.0
96 ; 5406404.186821057 ; 2.0200480022387215E8 ; 5.001422901535828E8 ; 1.771535741348855E10 ; 0.0
97 ; 5403369.702369383 ; 2.0201915628737885E8 ; 5.0554869434040385E8 ; 1.791736221371242E10 ; 0.0
98 ; 5394588.735027202 ; 2.0203352444226122E8 ; 5.1095206404277325E8 ; 1.81193813699998E10 ; 0.0
99 ; 5389116.908204198 ; 2.020479033096463E8 ; 5.1634665277780044E8 ; 1.8321414894442062E10 ; 0.0
100 ; 5384249.897889249 ; 2.0206229154571956E8 ; 5.2173576968600464E8 ; 1.852346279775171E10 ; 0.0
101 ; 5375275.336908718 ; 2.0207668784046414E8 ; 5.271200195838939E8 ; 1.872552508929743E10 ; 0.0
102 ; 5373418.026714955 ; 2.02091090916449E8 ; 5.324952949208026E8 ; 1.8927601777137894E10 ; 0.0
103 ; 5367916.389707898 ; 2.0210549952766415E8 ; 5.378687129475175E8 ; 1.9129692868054344E10 ; 0.0
104 ; 5360402.34042026 ; 2.0211991245840147E8 ; 5.432366293372254E8 ; 1.933179836758201E10 ; 0.0
105 ; 5354803.798741375 ; 2.0213432852217925E8 ; 5.485970316776457E8 ; 1.953391828004041E10 ; 0.0
106 ; 5349827.410372588 ; 2.0214874656070903E8 ; 5.53951835476387E8 ; 1.9736052608562588E10 ; 0.0
107 ; 5341050.048140771 ; 2.0216316544290262E8 ; 5.593016628867596E8 ; 1.99382013551233E10 ; 0.0
108 ; 5337562.830714299 ; 2.0217758406391853E8 ; 5.646427129349004E8 ; 2.01403645205662E10 ; 0.0
109 ; 5327204.8810268985 ; 2.0219200134424555E8 ; 5.699802757656147E8 ; 2.034254210463012E10 ; 0.0
110 ; 5322052.715899474 ; 2.0220641622882244E8 ; 5.753074806466416E8 ; 2.0544734105974365E10 ; 0.0
111 ; 5314872.161257804 ; 2.022208276861922E8 ; 5.806295333625411E8 ; 2.0746940522203186E10 ; 0.0
112 ; 5310715.607341929 ; 2.0223523470768958E8 ; 5.85944405523799E8 ; 2.0949161349889378E10 ; 0.0
113 ; 5302329.352509388 ; 2.0224963630666047E8 ; 5.912551211311408E8 ; 2.115139658459707E10 ; 0.0
114 ; 5294961.19145849 ; 2.0226403151771185E8 ; 5.965574504836502E8 ; 2.135364622090373E10 ; 0.0
115 ; 5292093.369797897 ; 2.0227841939599124E8 ; 6.018524116751087E8 ; 2.155591025242144E10 ; 0.0
116 ; 5285105.6489709485 ; 2.0229279901649436E8 ; 6.071445050449066E8 ; 2.1758188671817432E10 ; 0.0
117 ; 5276358.023945425 ; 2.023071694733997E8 ; 6.124296106938776E8 ; 2.1960481470833927E10 ; 0.0
118 ; 5266971.5297609335 ; 2.0232152987942925E8 ; 6.17705968717823E8 ; 2.2162788640307327E10 ; 0.0
119 ; 5261763.662575678 ; 2.0233587936523417E8 ; 6.22972940247584E8 ; 2.2365110170186756E10 ; 0.0
120 ; 5254764.407179966 ; 2.0235021707880405E8 ; 6.282347039101597E8 ; 2.256744604955199E10 ; 0.0
121 ; 5246178.53681621 ; 2.0236454218489963E8 ; 6.334894683173397E8 ; 2.2769796266630795E10 ; 0.0
122 ; 5238636.6593961865 ; 2.02378853864507E8 ; 6.387356468541559E8 ; 2.2972160808815693E10 ; 0.0
123 ; 5230916.497193046 ; 2.0239315131431326E8 ; 6.439742835135521E8 ; 2.31745396626802E10 ; 0.0
124 ; 5223558.106585376 ; 2.024074337462023E8 ; 6.492052000107452E8 ; 2.337693281399451E10 ; 0.0
125 ; 5218657.6215716535 ; 2.0242170038676986E8 ; 6.544287581173306E8 ; 2.357934024774071E10 ; 0.0
126 ; 5205038.748679357 ; 2.0243595047685763E8 ; 6.596474157389022E8 ; 2.378176194812748E10 ; 0.0
127 ; 5199741.569676763 ; 2.0245018327110463E8 ; 6.648524544875816E8 ; 2.3984197898604336E10 ; 0.0
128 ; 5192170.951405175 ; 2.0246439803751624E8 ; 6.700521960572584E8 ; 2.418664808187544E10 ; 0.0
129 ; 5182837.769674679 ; 2.024785940570494E8 ; 6.752443670086635E8 ; 2.4389112479912956E10 ; 0.0
130 ; 5172611.242244596 ; 2.0249277062321362E8 ; 6.804272047783382E8 ; 2.4591591073970005E10 ; 0.0
131 ; 5160819.472150424 ; 2.0250692704168722E8 ; 6.855998160205828E8 ; 2.479408384459322E10 ; 0.0
132 ; 5150377.468825056 ; 2.0252106262994787E8 ; 6.907606354927332E8 ; 2.4996590771634907E10 ; 0.0
133 ; 5134899.623771925 ; 2.0253517671691734E8 ; 6.959110129615583E8 ; 2.5199111834264854E10 ; 0.0
134 ; 5125302.53952876 ; 2.0254926864261934E8 ; 7.010459125853302E8 ; 2.5401647010981773E10 ; 0.0
135 ; 5113007.142582469 ; 2.0256333775785038E8 ; 7.06171215124859E8 ; 2.5604196279624393E10 ; 0.0
136 ; 5095544.573951786 ; 2.0257738342386281E8 ; 7.112842222674414E8 ; 2.5806759617382244E10 ; 0.0
137 ; 5089866.755950676 ; 2.0259140501205972E8 ; 7.163797668413932E8 ; 2.6009337000806107E10 ; 0.0
138 ; 5072270.109487975 ; 2.0260540190370116E8 ; 7.214696335973439E8 ; 2.6211928405818165E10 ; 0.0
139 ; 5060144.337049778 ; 2.0261937348962122E8 ; 7.265419037068319E8 ; 2.6414533807721867E10 ; 0.0
140 ; 5044622.216010432 ; 2.0263331916995564E8 ; 7.316020480438817E8 ; 2.6617153181211487E10 ; 0.0
141 ; 5033742.034677345 ; 2.0264723835387924E8 ; 7.366466702598921E8 ; 2.6819786500381443E10 ; 0.0
142 ; 5020967.438052143 ; 2.0266113045935327E8 ; 7.416804122945695E8 ; 2.702243373873532E10 ; 0.0
143 ; 5010777.329726155 ; 2.0267499491288176E8 ; 7.467013797326217E8 ; 2.7225094869194675E10 ; 0.0
144 ; 4998196.635756647 ; 2.0268883114927682E8 ; 7.517121570623478E8 ; 2.7427769864107555E10 ; 0.0
145 ; 4984536.824488491 ; 2.0270263861143246E8 ; 7.567103536981044E8 ; 2.7630458695256832E10 ; 0.0
146 ; 4979790.769219474 ; 2.0271641675010678E8 ; 7.616948905225929E8 ; 2.7833161333868263E10 ; 0.0
147 ; 4969978.296136832 ; 2.027301650237116E8 ; 7.666746812918124E8 ; 2.803587775061837E10 ; 0.0
148 ; 4961407.840212677 ; 2.0274388289811006E8 ; 7.716446595879493E8 ; 2.8238607915642082E10 ; 0.0
149 ; 4953006.402419859 ; 2.0275756984642145E8 ; 7.76606067428162E8 ; 2.844135179854019E10 ; 0.0
150 ; 4946675.248738313 ; 2.0277122534883264E8 ; 7.815590738305818E8 ; 2.8644109368386612E10 ; 0.0
151 ; 4937968.414488649 ; 2.0278484889241666E8 ; 7.865057490793201E8 ; 2.8846880593735443E10 ; 0.0
152 ; 4926413.357395808 ; 2.0279843997095752E8 ; 7.914437174938087E8 ; 2.904966544262786E10 ; 0.0
153 ; 4918415.944853795 ; 2.0281199808478132E8 ; 7.963701308512045E8 ; 2.925246388259882E10 ; 0.0
154 ; 4912095.99151579 ; 2.0282552274059308E8 ; 8.012885467960583E8 ; 2.94552758806836E10 ; 0.0
155 ; 4903092.52784089 ; 2.028390134513197E8 ; 8.06200642787574E8 ; 2.9658101403424194E10 ; 0.0
156 ; 4892332.472743999 ; 2.028524697359581E8 ; 8.111037353154149E8 ; 2.9860940416875515E10 ; 0.0
157 ; 4881859.452655165 ; 2.0286589111942878E8 ; 8.159960677881589E8 ; 3.0063792886611473E10 ; 0.0
158 ; 4875611.068735421 ; 2.0287927713243458E8 ; 8.208779272408141E8 ; 3.0266658777730904E10 ; 0.0
159 ; 4863532.210970641 ; 2.0289262731132406E8 ; 8.257535383095496E8 ; 3.046953805486334E10 ; 0.0
160 ; 4857264.108169035 ; 2.0290594119796008E8 ; 8.306170705205202E8 ; 3.0672430682174664E10 ; 0.0
161 ; 4850582.326160952 ; 2.029192183395923E8 ; 8.354743346286893E8 ; 3.0875336623372623E10 ; 0.0
162 ; 4835675.182762781 ; 2.0293245828873467E8 ; 8.403249169548502E8 ; 3.1078255841712215E10 ; 0.0
163 ; 4832451.839182173 ; 2.0294566060304672E8 ; 8.451605921376129E8 ; 3.128118830000095E10 ; 0.0
164 ; 4822601.439145097 ; 2.0295882484521905E8 ; 8.499930439767951E8 ; 3.1484133960603996E10 ; 0.0
165 ; 4813113.71377171 ; 2.029719505828627E8 ; 8.548156454159402E8 ; 3.1687092785449215E10 ; 0.0
166 ; 4806863.873821053 ; 2.0298503738840234E8 ; 8.596287591297119E8 ; 3.1890064736032078E10 ; 0.0
167 ; 4796707.684131934 ; 2.0299808483897302E8 ; 8.644356230035329E8 ; 3.209304977342048E10 ; 0.0
168 ; 4784554.298685507 ; 2.030110925163203E8 ; 8.692323306876649E8 ; 3.2296047858259453E10 ; 0.0
169 ; 4778623.120718547 ; 2.0302406000670397E8 ; 8.740168849863504E8 ; 3.2499058950775772E10 ; 0.0
170 ; 4768294.56445088 ; 2.0303698690080497E8 ; 8.78795508107069E8 ; 3.2702083010782475E10 ; 0.0
171 ; 4757283.804887746 ; 2.030498727936351E8 ; 8.835638026715199E8 ; 3.290511999768328E10 ; 0.0
172 ; 4744854.137108051 ; 2.030627172844502E8 ; 8.883210864764076E8 ; 3.3108169870476917E10 ; 0.0
173 ; 4739986.962462193 ; 2.0307551997666597E8 ; 8.930659406135157E8 ; 3.3311232587761368E10 ; 0.0
174 ; 4735264.245839313 ; 2.0308828047777653E8 ; 8.978059275759779E8 ; 3.3514308107738033E10 ; 0.0
175 ; 4727079.705505616 ; 2.0310099839927587E8 ; 9.025411918218173E8 ; 3.371739638821581E10 ; 0.0
176 ; 4721792.114289392 ; 2.0311367335658178E8 ; 9.072682715273229E8 ; 3.3920497386615086E10 ; 0.0
177 ; 4712533.120812133 ; 2.0312630496896225E8 ; 9.119900636416123E8 ; 3.412361105997167E10 ; 0.0
178 ; 4706404.468855643 ; 2.0313889285946444E8 ; 9.167025967624245E8 ; 3.432673736494063E10 ; 0.0
179 ; 4698897.898607915 ; 2.0315143665484568E8 ; 9.214090012312801E8 ; 3.4529876257800095E10 ; 0.0
180 ; 4694068.702831255 ; 2.031639359855072E8 ; 9.26107899129888E8 ; 3.473302769445494E10 ; 0.0
181 ; 4686096.116470029 ; 2.0317639048542944E8 ; 9.308019678327193E8 ; 3.4936191630440445E10 ; 0.0
182 ; 4676658.8229855625 ; 2.0318879979210994E8 ; 9.354880639491893E8 ; 3.513936802092587E10 ; 0.0
183 ; 4672792.769643549 ; 2.0320116354650307E8 ; 9.401647227721748E8 ; 3.534255682071798E10 ; 0.0
184 ; 4664222.436542196 ; 2.0321348139296153E8 ; 9.448375155418184E8 ; 3.554575798426448E10 ; 0.0
185 ; 4658447.961902783 ; 2.0322575297918016E8 ; 9.495017379783605E8 ; 3.574897146565744E10 ; 0.0
186 ; 4649490.224387486 ; 2.032379779561411E8 ; 9.541601859402633E8 ; 3.595219721863662E10 ; 0.0
187 ; 4643631.845507102 ; 2.0325015597806102E8 ; 9.588096761646508E8 ; 3.615543519659276E10 ; 0.0
188 ; 4636706.114697058 ; 2.0326228670233992E8 ; 9.63453308010158E8 ; 3.6358685352570816E10 ; 0.0
189 ; 4628802.003392092 ; 2.0327436978951153E8 ; 9.68090014124855E8 ; 3.6561947639273155E10 ; 0.0
190 ; 4624727.254814168 ; 2.032864049031955E8 ; 9.727188161282471E8 ; 3.676522200906267E10 ; 0.0
191 ; 4618623.912481008 ; 2.032983917100508E8 ; 9.773435433830613E8 ; 3.6968508413965866E10 ; 0.0
192 ; 4607675.762432498 ; 2.0331032987973085E8 ; 9.819621672955422E8 ; 3.717180680567592E10 ; 0.0
193 ; 4599798.862954795 ; 2.0332221908483997E8 ; 9.865698430579747E8 ; 3.737511713555565E10 ; 0.0
194 ; 4595951.870549329 ; 2.0333405900089124E8 ; 9.911696419209294E8 ; 3.757843935464049E10 ; 0.0
195 ; 4587049.628884099 ; 2.033458493062656E8 ; 9.957655937914788E8 ; 3.778177341364138E10 ; 0.0
196 ; 4577533.334068559 ; 2.033575896821724E8 ; 1.0003526434203628E9 ; 3.798511926294765E10 ; 0.0
197 ; 4572992.912102961 ; 2.033692798126111E8 ; 1.0049301767544314E9 ; 3.818847685262982E10 ; 0.0
198 ; 4567539.99817215 ; 2.0338091938433412E8 ; 1.0095031696665343E9 ; 3.839184613244244E10 ; 0.0
199 ; 4559910.158771944 ; 2.0339250808681098E8 ; 1.0140707096647065E9 ; 3.859522705182677E10 ; 0.0
200 ; 4554531.005905919 ; 1.9241493485277662E8 ; 1.0186306198234785E9 ; 3.8798619559913574E10 ; 0.0
201 ; 4543319.545910415 ; 1.5457553843642578E8 ; 1.0231851508293843E9 ; 3.899103449476635E10 ; 0.0
