CSV File for the City 4 on Day 33
1 - Minute m 
2 - Power Consumed at minute m 
3 - Power Produced at minute m 
4 - Energy Consumed since the beginning of the day 
5 - Energy Produced since the beginning of the day 
6 - Energy Lost since the beginning of the day on lines starting from the city
 
0 ; 6797118.87214754 ; 1.0550448072218105E8 ; 0.0 ; 0.0 ; 0.0
1 ; 6801355.402570199 ; 1.0565181824002826E8 ; 6797118.87214754 ; 1.0550448072218105E8 ; 0.0
2 ; 6807916.790870649 ; 1.0610840603640494E8 ; 1.3598474274717739E7 ; 2.111562989622093E8 ; 0.0
3 ; 6817824.808783586 ; 1.06874280514417E8 ; 2.040639106558839E7 ; 3.1726470499861425E8 ; 0.0
4 ; 6828014.325094218 ; 1.079494768674888E8 ; 2.7224215874371976E7 ; 4.2413898551303124E8 ; 0.0
5 ; 6838466.253390838 ; 1.0933402822910124E8 ; 3.405223019946619E7 ; 5.3208846238052005E8 ; 0.0
6 ; 6856506.822491017 ; 1.1102796476478705E8 ; 4.089069645285703E7 ; 6.414224906096213E8 ; 0.0
7 ; 6879765.300425045 ; 1.1303131275218046E8 ; 4.774720327534805E7 ; 7.524504553744084E8 ; 0.0
8 ; 6909240.788746276 ; 1.1534409370542198E8 ; 5.46269685757731E7 ; 8.654817681265888E8 ; 0.0
9 ; 6962749.3223583 ; 1.1796632360582203E8 ; 6.153620936451937E7 ; 9.808258618320107E8 ; 0.0
10 ; 7042088.941648361 ; 1.2089801229932892E8 ; 6.849895868687767E7 ; 1.0987921854378328E9 ; 0.0
11 ; 7164927.938447102 ; 1.2413916311199489E8 ; 7.554104762852603E7 ; 1.2196901977371616E9 ; 0.0
12 ; 7363366.636493081 ; 1.2768977271776769E8 ; 8.270597556697313E7 ; 1.3438293608491566E9 ; 0.0
13 ; 7552804.726741528 ; 1.3154983127069896E8 ; 9.006934220346622E7 ; 1.4715191335669243E9 ; 0.0
14 ; 7574821.314699639 ; 1.3571932278947842E8 ; 9.762214693020774E7 ; 1.6030689648376234E9 ; 0.0
15 ; 7584782.496341496 ; 1.4019822575996542E8 ; 1.0519696824490738E8 ; 1.738788287627102E9 ; 0.0
16 ; 7593965.01394955 ; 1.4498651390452585E8 ; 1.1278175074124888E8 ; 1.8789865133870673E9 ; 0.0
17 ; 7601715.023555542 ; 1.5008415705762687E8 ; 1.2037571575519842E8 ; 2.023973027291593E9 ; 0.0
18 ; 7612078.931646479 ; 1.5549112208578765E8 ; 1.2797743077875397E8 ; 2.17405718434922E9 ; 0.0
19 ; 7619373.249487225 ; 1.612073737955838E8 ; 1.3558950971040043E8 ; 2.3295483064350076E9 ; 0.0
20 ; 7627839.267218014 ; 1.672328757839094E8 ; 1.4320888295988765E8 ; 2.4907556802305913E9 ; 0.0
21 ; 7639197.916493492 ; 1.7356759119766888E8 ; 1.5083672222710568E8 ; 2.6579885560145006E9 ; 0.0
22 ; 7645193.987785315 ; 1.8021148338328093E8 ; 1.5847592014359918E8 ; 2.8315561472121696E9 ; 0.0
23 ; 7657489.753507024 ; 1.8716451641816902E8 ; 1.661211141313845E8 ; 3.0117676305954504E9 ; 0.0
24 ; 7664186.180140478 ; 1.9442665552582568E8 ; 1.737786038848915E8 ; 3.1989321470136194E9 ; 0.0
25 ; 7674560.612363675 ; 2.006859082809232E8 ; 1.8144279006503198E8 ; 3.393358802539445E9 ; 0.0
26 ; 7682887.497260051 ; 2.0069579085742E8 ; 1.8911735067739564E8 ; 3.5940447108203683E9 ; 0.0
27 ; 7689613.319055033 ; 2.0070604268335372E8 ; 1.968002381746557E8 ; 3.7947405016777883E9 ; 0.0
28 ; 7698816.092128089 ; 2.007166357509193E8 ; 2.0448985149371073E8 ; 3.995446544361142E9 ; 0.0
29 ; 7707480.5147405965 ; 2.0072754392040706E8 ; 2.1218866758583882E8 ; 4.1961631801120615E9 ; 0.0
30 ; 7716673.38675288 ; 2.0073874289081922E8 ; 2.198961481005794E8 ; 4.396890724032469E9 ; 0.0
31 ; 7723534.123089901 ; 2.007502101411984E8 ; 2.2761282148733228E8 ; 4.597629466923288E9 ; 0.0
32 ; 7733642.860313406 ; 2.007619248516334E8 ; 2.353363556104222E8 ; 4.7983796770644865E9 ; 0.0
33 ; 7738886.734667821 ; 2.007738678111731E8 ; 2.430699984707356E8 ; 4.99914160191612E9 ; 0.0
34 ; 7747245.1320578605 ; 2.0078602131831884E8 ; 2.5080888520540342E8 ; 5.199915469727293E9 ; 0.0
35 ; 7754919.835568618 ; 2.0079836907842198E8 ; 2.585561303374613E8 ; 5.400701491045612E9 ; 0.0
36 ; 7761744.708657666 ; 2.0081089610119358E8 ; 2.663110501730299E8 ; 5.601499860124034E9 ; 0.0
37 ; 7769947.424094347 ; 2.0082358860062376E8 ; 2.740727948816876E8 ; 5.802310756225227E9 ; 0.0
38 ; 7774189.972848551 ; 2.008364338988887E8 ; 2.818427423057819E8 ; 6.003134344825851E9 ; 0.0
39 ; 7781256.622304331 ; 2.008494203352642E8 ; 2.8961693227863044E8 ; 6.20397077872474E9 ; 0.0
40 ; 7787190.747278473 ; 2.0086253718064085E8 ; 2.9739818890093476E8 ; 6.404820199060004E9 ; 0.0
41 ; 7794586.785667824 ; 2.0087577455792066E8 ; 3.051853796482132E8 ; 6.605682736240645E9 ; 0.0
42 ; 7796884.035592833 ; 2.0088912336834615E8 ; 3.1297996643388104E8 ; 6.806558510798566E9 ; 0.0
43 ; 7804517.317217028 ; 2.0090257522365165E8 ; 3.207768504694739E8 ; 7.007447634166912E9 ; 0.0
44 ; 7806461.684295705 ; 2.0091612238381815E8 ; 3.2858136778669095E8 ; 7.208350209390564E9 ; 0.0
45 ; 7810618.904314943 ; 2.0092975770014197E8 ; 3.3638782947098666E8 ; 7.409266331774382E9 ; 0.0
46 ; 7814424.24951016 ; 2.0094347456328765E8 ; 3.441984483753016E8 ; 7.610196089474524E9 ; 0.0
47 ; 7818797.213038701 ; 2.0095726685597524E8 ; 3.5201287262481177E8 ; 7.811139564037811E9 ; 0.0
48 ; 7822031.813394361 ; 2.0097112890994805E8 ; 3.5983166983785045E8 ; 8.012096830893786E9 ; 0.0
49 ; 7824667.015906869 ; 2.0098505546687245E8 ; 3.676537016512448E8 ; 8.213067959803735E9 ; 0.0
50 ; 7828205.67895192 ; 2.0099904164283565E8 ; 3.754783686671517E8 ; 8.414053015270607E9 ; 0.0
51 ; 7832595.123525083 ; 2.0101308289612344E8 ; 3.833065743461036E8 ; 8.615052056913443E9 ; 0.0
52 ; 7830518.670781675 ; 2.0102717499798143E8 ; 3.911391694696287E8 ; 8.816065139809566E9 ; 0.0
53 ; 7833323.774731508 ; 2.0104131400608382E8 ; 3.9896968814041036E8 ; 9.017092314807549E9 ; 0.0
54 ; 7833027.948003905 ; 2.0105549624045578E8 ; 4.068030119151419E8 ; 9.218133628813633E9 ; 0.0
55 ; 7837259.617545294 ; 2.0106971826161695E8 ; 4.1463603986314577E8 ; 9.419189125054089E9 ; 0.0
56 ; 7838765.652951975 ; 2.0108397685073325E8 ; 4.224732994806911E8 ; 9.620258843315706E9 ; 0.0
57 ; 7841212.4602870885 ; 2.0109826899158427E8 ; 4.3031206513364303E8 ; 9.82134282016644E9 ; 0.0
58 ; 7844267.973280739 ; 2.0111259185417122E8 ; 4.381532775939301E8 ; 1.0022441089158024E10 ; 0.0
59 ; 7843652.837131074 ; 2.0112694277980655E8 ; 4.4599754556721085E8 ; 1.0223553681012196E10 ; 0.0
60 ; 7846459.145406816 ; 2.0114131926754305E8 ; 4.5384119840434194E8 ; 1.0424680623792002E10 ; 0.0
61 ; 7849864.160926457 ; 2.0115571896181217E8 ; 4.616876575497488E8 ; 1.0625821943059546E10 ; 0.0
62 ; 7848247.389399941 ; 2.011701396411566E8 ; 4.6953752171067524E8 ; 1.0826977662021358E10 ; 0.0
63 ; 7850731.414204299 ; 2.01184579207951E8 ; 4.773857691000752E8 ; 1.1028147801662516E10 ; 0.0
64 ; 7851019.54157865 ; 2.0119903567901754E8 ; 4.852365005142795E8 ; 1.1229332380870466E10 ; 0.0
65 ; 7852434.637527869 ; 2.012135071770509E8 ; 4.9308752005585814E8 ; 1.1430531416549484E10 ; 0.0
66 ; 7854130.730854557 ; 2.0122799192277628E8 ; 5.00939954693386E8 ; 1.1631744923726536E10 ; 0.0
67 ; 7852791.484490792 ; 2.0124248822777197E8 ; 5.087940854242406E8 ; 1.1832972915649313E10 ; 0.0
68 ; 7856011.390484867 ; 2.01256994487894E8 ; 5.166468769087314E8 ; 1.2034215403877085E10 ; 0.0
69 ; 7857835.103250434 ; 2.0127150917724785E8 ; 5.245028882992163E8 ; 1.2235472398364979E10 ; 0.0
70 ; 7855685.368087809 ; 2.012860308426563E8 ; 5.323607234024667E8 ; 1.2436743907542227E10 ; 0.0
71 ; 7858529.387182616 ; 2.013005580985786E8 ; 5.402164087705545E8 ; 1.2638029938384884E10 ; 0.0
72 ; 7859139.122350489 ; 2.013150896224399E8 ; 5.480749381577371E8 ; 1.2839330496483463E10 ; 0.0
73 ; 7859244.594333565 ; 2.013296241503342E8 ; 5.559340772800876E8 ; 1.3040645586105904E10 ; 0.0
74 ; 7860224.566047759 ; 2.0134416047306773E8 ; 5.637933218744211E8 ; 1.3241975210256237E10 ; 0.0
75 ; 7860839.4764192775 ; 2.013586974325122E8 ; 5.716535464404689E8 ; 1.3443319370729305E10 ; 0.0
76 ; 7860538.973616982 ; 2.0137323391824168E8 ; 5.795143859168882E8 ; 1.3644678068161818E10 ; 0.0
77 ; 7858462.469844073 ; 2.013877688644274E8 ; 5.873749248905052E8 ; 1.384605130208006E10 ; 0.0
78 ; 7859071.295294714 ; 2.0140230124696937E8 ; 5.952333873603493E8 ; 1.4047439070944487E10 ; 0.0
79 ; 7856515.897392536 ; 2.014168300808438E8 ; 6.03092458655644E8 ; 1.4248841372191456E10 ; 0.0
80 ; 7852111.013026619 ; 2.014313544176486E8 ; 6.109489745530366E8 ; 1.4450258202272299E10 ; 0.0
81 ; 7851602.244037699 ; 2.0144587334333017E8 ; 6.188010855660632E8 ; 1.4651689556689947E10 ; 0.0
82 ; 7849429.737260234 ; 2.0146038597607628E8 ; 6.266526878101009E8 ; 1.4853135430033278E10 ; 0.0
83 ; 7846405.251382344 ; 2.014748914643619E8 ; 6.345021175473611E8 ; 1.5054595816009354E10 ; 0.0
84 ; 7841849.086325037 ; 2.0148938898513505E8 ; 6.423485227987435E8 ; 1.5256070707473715E10 ; 0.0
85 ; 7840222.571517848 ; 2.0150387774213123E8 ; 6.501903718850685E8 ; 1.5457560096458849E10 ; 0.0
86 ; 7838859.463818638 ; 2.0151835696430695E8 ; 6.580305944565864E8 ; 1.5659063974200981E10 ; 0.0
87 ; 7835973.521577997 ; 2.0153282590438193E8 ; 6.65869453920405E8 ; 1.5860582331165289E10 ; 0.0
88 ; 7831971.524016229 ; 2.0154728383748204E8 ; 6.73705427441983E8 ; 1.6062115157069672E10 ; 0.0
89 ; 7827895.219408839 ; 2.0156173005987513E8 ; 6.815373989659992E8 ; 1.6263662440907154E10 ; 0.0
90 ; 7823899.226162157 ; 2.015761638877922E8 ; 6.893652941854081E8 ; 1.646522417096703E10 ; 0.0
91 ; 7821234.794799672 ; 2.0159058465632778E8 ; 6.971891934115703E8 ; 1.6666800334854822E10 ; 0.0
92 ; 7820124.091638806 ; 2.0160499171841335E8 ; 7.0501042820637E8 ; 1.686839091951115E10 ; 0.0
93 ; 7817537.874918995 ; 2.016193844438583E8 ; 7.128305522980088E8 ; 1.7069995911229565E10 ; 0.0
94 ; 7813540.846513895 ; 2.0163376221845344E8 ; 7.206480901729277E8 ; 1.7271615295673424E10 ; 0.0
95 ; 7810583.7265856825 ; 2.0164812444313246E8 ; 7.284616310194416E8 ; 1.7473249057891876E10 ; 0.0
96 ; 7806826.562059662 ; 2.016624705331872E8 ; 7.362722147460272E8 ; 1.767489718233501E10 ; 0.0
97 ; 7803623.202662068 ; 2.0167679991753253E8 ; 7.440790413080869E8 ; 1.78765596528682E10 ; 0.0
98 ; 7796374.751740829 ; 2.0169111203801754E8 ; 7.51882664510749E8 ; 1.8078236452785732E10 ; 0.0
99 ; 7792452.892167801 ; 2.0170540634877983E8 ; 7.596790392624898E8 ; 1.827992756482375E10 ; 0.0
100 ; 7792047.333141144 ; 2.0171968231563956E8 ; 7.674714921546576E8 ; 1.848163297117253E10 ; 0.0
101 ; 7786376.97264366 ; 2.0173393941553065E8 ; 7.752635394877987E8 ; 1.868335265348817E10 ; 0.0
102 ; 7783042.419813502 ; 2.017481771359666E8 ; 7.830499164604423E8 ; 1.88850865929037E10 ; 0.0
103 ; 7778033.433813229 ; 2.0176239497453842E8 ; 7.908329588802558E8 ; 1.908683477003967E10 ; 0.0
104 ; 7774537.476374256 ; 2.017765924384426E8 ; 7.98610992314069E8 ; 1.9288597165014206E10 ; 0.0
105 ; 7768800.043699033 ; 2.0179076904403704E8 ; 8.063855297904433E8 ; 1.949037375745265E10 ; 0.0
106 ; 7767575.896232902 ; 2.0180492431642306E8 ; 8.141543298341423E8 ; 1.9692164526496685E10 ; 0.0
107 ; 7761916.329006491 ; 2.018190577890518E8 ; 8.219219057303752E8 ; 1.9893969450813107E10 ; 0.0
108 ; 7755738.001496781 ; 2.0183316900335327E8 ; 8.296838220593816E8 ; 2.0095788508602158E10 ; 0.0
109 ; 7754796.5911850305 ; 2.018472575083868E8 ; 8.374395600608784E8 ; 2.029762167760551E10 ; 0.0
110 ; 7746829.457525066 ; 2.0186132286051142E8 ; 8.451943566520634E8 ; 2.04994689351139E10 ; 0.0
111 ; 7740943.381202138 ; 2.018753646230746E8 ; 8.529411861095884E8 ; 2.070133025797441E10 ; 0.0
112 ; 7738602.145523989 ; 2.0188938236611873E8 ; 8.606821294907905E8 ; 2.0903205622597485E10 ; 0.0
113 ; 7733966.678676883 ; 2.0190337566610378E8 ; 8.684207316363145E8 ; 2.1105095004963604E10 ; 0.0
114 ; 7724837.618901859 ; 2.0191734410564518E8 ; 8.761546983149914E8 ; 2.1306998380629707E10 ; 0.0
115 ; 7720903.75818783 ; 2.019312872732663E8 ; 8.838795359338932E8 ; 2.150891572473535E10 ; 0.0
116 ; 7717257.543397147 ; 2.019452047631641E8 ; 8.91600439692081E8 ; 2.1710847012008617E10 ; 0.0
117 ; 7715033.742510162 ; 2.019590961749878E8 ; 8.993176972354782E8 ; 2.1912792216771782E10 ; 0.0
118 ; 7707513.315709802 ; 2.0197296111362895E8 ; 9.070327309779884E8 ; 2.211475131294677E10 ; 0.0
119 ; 7702066.944057048 ; 2.0198679918902314E8 ; 9.147402442936982E8 ; 2.23167242740604E10 ; 0.0
120 ; 7698229.224351405 ; 2.020006100159619E8 ; 9.224423112377553E8 ; 2.251871107324942E10 ; 0.0
121 ; 7689360.278772667 ; 2.0201439321391454E8 ; 9.301405404621067E8 ; 2.272071168326538E10 ; 0.0
122 ; 7684225.115840821 ; 2.020281484068595E8 ; 9.378299007408794E8 ; 2.2922726076479294E10 ; 0.0
123 ; 7679669.267701295 ; 2.02041875223124E8 ; 9.455141258567202E8 ; 2.3124754224886154E10 ; 0.0
124 ; 7676532.821302306 ; 2.0205557329523236E8 ; 9.531937951244215E8 ; 2.332679610010928E10 ; 0.0
125 ; 7668035.901120165 ; 2.0206924225976196E8 ; 9.608703279457238E8 ; 2.352885167340451E10 ; 0.0
126 ; 7662118.308355544 ; 2.0208288175720644E8 ; 9.68538363846844E8 ; 2.3730920915664272E10 ; 0.0
127 ; 7657671.764779324 ; 2.0209649143184584E8 ; 9.762004821551995E8 ; 2.393300379742148E10 ; 0.0
128 ; 7650939.812578015 ; 2.021100709316234E8 ; 9.838581539199789E8 ; 2.4135100288853325E10 ; 0.0
129 ; 7642915.44912246 ; 2.021236199080283E8 ; 9.915090937325568E8 ; 2.4337210359784946E10 ; 0.0
130 ; 7635752.938874574 ; 2.021371380159845E8 ; 9.991520091816792E8 ; 2.4539333979692974E10 ; 0.0
131 ; 7628687.670951639 ; 2.0215062491374478E8 ; 1.0067877621205539E9 ; 2.4741471117708958E10 ; 0.0
132 ; 7618508.7283546915 ; 2.0216408026279005E8 ; 1.0144164497915055E9 ; 2.4943621742622704E10 ; 0.0
133 ; 7611811.426211684 ; 2.0217750372773388E8 ; 1.0220349585198601E9 ; 2.5145785822885494E10 ; 0.0
134 ; 7601258.6234952165 ; 2.0219089497623125E8 ; 1.0296467699460719E9 ; 2.5347963326613228E10 ; 0.0
135 ; 7592477.128667553 ; 2.02204253678892E8 ; 1.0372480285695671E9 ; 2.555015422158946E10 ; 0.0
136 ; 7583308.795165885 ; 2.022175795091982E8 ; 1.0448405056982347E9 ; 2.575235847526835E10 ; 0.0
137 ; 7573093.386736685 ; 2.022308721434258E8 ; 1.0524238144934006E9 ; 2.5954576054777546E10 ; 0.0
138 ; 7566319.718185735 ; 2.0224413126056978E8 ; 1.0599969078801372E9 ; 2.615680692692097E10 ; 0.0
139 ; 7557037.486599128 ; 2.022573565422728E8 ; 1.067563227598323E9 ; 2.635905105818154E10 ; 0.0
140 ; 7548020.313900264 ; 2.0227054767275745E8 ; 1.075120265084922E9 ; 2.6561308414723816E10 ; 0.0
141 ; 7539088.610381193 ; 2.022837043387615E8 ; 1.0826682853988223E9 ; 2.6763578962396572E10 ; 0.0
142 ; 7527848.29693257 ; 2.0229682622947633E8 ; 1.0902073740092034E9 ; 2.6965862666735332E10 ; 0.0
143 ; 7518560.905065678 ; 2.02309913036488E8 ; 1.097735222306136E9 ; 2.716815949296481E10 ; 0.0
144 ; 7511636.177377571 ; 2.0232296445372126E8 ; 1.1052537832112017E9 ; 2.7370469406001297E10 ; 0.0
145 ; 7502487.542409228 ; 2.0233598017738622E8 ; 1.1127654193885791E9 ; 2.7572792370455017E10 ; 0.0
146 ; 7493886.448426222 ; 2.0234895990592718E8 ; 1.1202679069309883E9 ; 2.7775128350632404E10 ; 0.0
147 ; 7488876.133158675 ; 2.0236190333997414E8 ; 1.1277617933794146E9 ; 2.797747731053833E10 ; 0.0
148 ; 7482129.141110353 ; 2.023748101822962E8 ; 1.1352506695125732E9 ; 2.8179839213878304E10 ; 0.0
149 ; 7473981.6822415525 ; 2.023876801377575E8 ; 1.1427327986536837E9 ; 2.83822140240606E10 ; 0.0
150 ; 7470759.899821666 ; 2.0240051291327474E8 ; 1.150206780335925E9 ; 2.8584601704198357E10 ; 0.0
151 ; 7459612.977982678 ; 2.0241330821777695E8 ; 1.1576775402357469E9 ; 2.878700221711163E10 ; 0.0
152 ; 7453822.820480951 ; 2.0242606576216692E8 ; 1.1651371532137296E9 ; 2.8989415525329407E10 ; 0.0
153 ; 7445338.865251497 ; 2.0243878525928438E8 ; 1.1725909760342107E9 ; 2.919184159109157E10 ; 0.0
154 ; 7442279.150789482 ; 2.0245146642387095E8 ; 1.1800363148994622E9 ; 2.9394280376350857E10 ; 0.0
155 ; 7435385.611825656 ; 2.0246410897253653E8 ; 1.1874785940502517E9 ; 2.9596731842774727E10 ; 0.0
156 ; 7424636.628708112 ; 2.0247671262372735E8 ; 1.1949139796620774E9 ; 2.9799195951747265E10 ; 0.0
157 ; 7417498.096192735 ; 2.0248927709769526E8 ; 1.2023386162907856E9 ; 3.000167266437099E10 ; 0.0
158 ; 7411323.870090746 ; 2.025018021164686E8 ; 1.2097561143869784E9 ; 3.0204161941468685E10 ; 0.0
159 ; 7404655.0229633525 ; 2.025142874038242E8 ; 1.217167438257069E9 ; 3.0406663743585155E10 ; 0.0
160 ; 7397282.953066436 ; 2.0252673268526077E8 ; 1.2245720932800324E9 ; 3.060917803098898E10 ; 0.0
161 ; 7389128.110290261 ; 2.0253913768797347E8 ; 1.2319693762330987E9 ; 3.081170476367424E10 ; 0.0
162 ; 7382677.713340901 ; 2.0255150214082938E8 ; 1.239358504343389E9 ; 3.1014243901362213E10 ; 0.0
163 ; 7375283.518542349 ; 2.0256382577434447E8 ; 1.24674118205673E9 ; 3.1216795403503044E10 ; 0.0
164 ; 7368204.629684065 ; 2.0257610832066125E8 ; 1.2541164655752723E9 ; 3.141935922927739E10 ; 0.0
165 ; 7357523.127982709 ; 2.0258834951352757E8 ; 1.2614846702049563E9 ; 3.162193533759805E10 ; 0.0
166 ; 7353187.177498219 ; 2.0260054908827642E8 ; 1.268842193332939E9 ; 3.1824523687111576E10 ; 0.0
167 ; 7344869.676471537 ; 2.026127067818064E8 ; 1.276195380510437E9 ; 3.2027124236199852E10 ; 0.0
168 ; 7339291.688719307 ; 2.0262482233256343E8 ; 1.2835402501869085E9 ; 3.222973694298166E10 ; 0.0
169 ; 7329526.355999865 ; 2.0263689548052287E8 ; 1.2908795418756278E9 ; 3.2432361765314224E10 ; 0.0
170 ; 7321792.375264046 ; 2.0264892596717277E8 ; 1.2982090682316277E9 ; 3.2634998660794746E10 ; 0.0
171 ; 7313150.406088462 ; 2.0266091353549773E8 ; 1.3055308606068916E9 ; 3.283764758676192E10 ; 0.0
172 ; 7307294.790836123 ; 2.0267285792996347E8 ; 1.31284401101298E9 ; 3.304030850029742E10 ; 0.0
173 ; 7299343.572450632 ; 2.026847588965021E8 ; 1.320151305803816E9 ; 3.3242981358227383E10 ; 0.0
174 ; 7295348.799642853 ; 2.0269661618249828E8 ; 1.3274506493762667E9 ; 3.3445666117123886E10 ; 0.0
175 ; 7293603.61762723 ; 2.027084295367755E8 ; 1.3347459981759095E9 ; 3.3648362733306385E10 ; 0.0
176 ; 7284057.422580786 ; 2.027201987095836E8 ; 1.3420396017935367E9 ; 3.385107116284316E10 ; 0.0
177 ; 7280990.677705454 ; 2.0273192345258635E8 ; 1.3493236592161174E9 ; 3.4053791361552742E10 ; 0.0
178 ; 7277395.611238151 ; 2.0274360351884997E8 ; 1.356604649893823E9 ; 3.425652328500533E10 ; 0.0
179 ; 7271514.721689591 ; 2.027552386628319E8 ; 1.3638820455050611E9 ; 3.445926688852418E10 ; 0.0
180 ; 7266998.6762764435 ; 2.027668286403703E8 ; 1.3711535602267509E9 ; 3.466202212718701E10 ; 0.0
181 ; 7262854.607706457 ; 2.0277837320867386E8 ; 1.3784205589030273E9 ; 3.4864788955827385E10 ; 0.0
182 ; 7258934.440925716 ; 2.0278987212631232E8 ; 1.3856834135107338E9 ; 3.506756732903606E10 ; 0.0
183 ; 7254698.465367183 ; 2.0280132515320712E8 ; 1.3929423479516594E9 ; 3.527035720116237E10 ; 0.0
184 ; 7249683.739947173 ; 2.0281273205062285E8 ; 1.4001970464170265E9 ; 3.5473158526315575E10 ; 0.0
185 ; 7243439.062574 ; 2.0282409258115876E8 ; 1.4074467301569736E9 ; 3.5675971258366196E10 ; 0.0
186 ; 7238742.416763569 ; 2.02835406508741E8 ; 1.4146901692195475E9 ; 3.587879535094736E10 ; 0.0
187 ; 7235402.148420686 ; 2.0284667359861493E8 ; 1.421928911636311E9 ; 3.60816307574561E10 ; 0.0
188 ; 7231598.838791409 ; 2.0285789361733818E8 ; 1.4291643137847316E9 ; 3.628447743105472E10 ; 0.0
189 ; 7223810.276710384 ; 2.0286906633277357E8 ; 1.436395912623523E9 ; 3.648733532467206E10 ; 0.0
190 ; 7221110.972253314 ; 2.0288019151408285E8 ; 1.4436197229002333E9 ; 3.669020439100483E10 ; 0.0
191 ; 7217496.135473389 ; 2.0289126893172044E8 ; 1.4508408338724866E9 ; 3.689308458251891E10 ; 0.0
192 ; 7210846.63201182 ; 2.029022983574277E8 ; 1.45805833000796E9 ; 3.709597585145063E10 ; 0.0
193 ; 7208921.934478487 ; 2.0291327956422725E8 ; 1.465269176639972E9 ; 3.729887814980806E10 ; 0.0
194 ; 7200745.210402254 ; 2.0292421232641798E8 ; 1.4724780985744505E9 ; 3.7501791429372284E10 ; 0.0
195 ; 7197883.078971857 ; 2.029350964195698E8 ; 1.4796788437848527E9 ; 3.77047156416987E10 ; 0.0
196 ; 7193433.7687043445 ; 2.029459316205191E8 ; 1.4868767268638246E9 ; 3.790765073811827E10 ; 0.0
197 ; 7189805.204384988 ; 2.0295671770736438E8 ; 1.494070160632529E9 ; 3.811059666973879E10 ; 0.0
198 ; 7184824.854162688 ; 2.029674544594619E8 ; 1.501259965836914E9 ; 3.831355338744616E10 ; 0.0
199 ; 7178097.07005882 ; 2.0297814165742177E8 ; 1.5084447906910768E9 ; 3.8516520841905624E10 ; 0.0
200 ; 7173902.158956991 ; 2.0298877908310425E8 ; 1.5156228877611356E9 ; 3.871949898356305E10 ; 0.0
201 ; 7168697.883100485 ; 1.7687254537613904E8 ; 1.5227967899200926E9 ; 3.892248776264616E10 ; 0.0
