CSV File for the City 4 on Day 61
1 - Minute m 
2 - Power Consumed at minute m 
3 - Power Produced at minute m 
4 - Energy Consumed since the beginning of the day 
5 - Energy Produced since the beginning of the day 
6 - Energy Lost since the beginning of the day on lines starting from the city
 
0 ; 6803798.900765895 ; 1.0594754960193744E8 ; 0.0 ; 0.0 ; 0.0
1 ; 6807813.287695293 ; 1.0609782588429427E8 ; 6803798.900765895 ; 1.0594754960193744E8 ; 0.0
2 ; 6817203.758781654 ; 1.0655715125528845E8 ; 1.3611612188461188E7 ; 2.120453754862317E8 ; 0.0
3 ; 6826412.04854966 ; 1.0732553172409964E8 ; 2.042881594724284E7 ; 3.1860252674152017E8 ; 0.0
4 ; 6835276.749409078 ; 1.0840297271094722E8 ; 2.72552279957925E7 ; 4.259280584656198E8 ; 0.0
5 ; 6845530.94220719 ; 1.0978947900549573E8 ; 3.409050474520158E7 ; 5.34331031176567E8 ; 0.0
6 ; 6862871.843494332 ; 1.1148505472909448E8 ; 4.093603568740877E7 ; 6.441205101820627E8 ; 0.0
7 ; 6887497.406933266 ; 1.134897033015281E8 ; 4.77989075309031E7 ; 7.556055649111573E8 ; 0.0
8 ; 6921445.313860225 ; 1.158034274128905E8 ; 5.4686404937836364E7 ; 8.690952682126853E8 ; 0.0
9 ; 6968743.434163314 ; 1.1842622900111735E8 ; 6.160785025169659E7 ; 9.848986956255758E8 ; 0.0
10 ; 7044855.013256197 ; 1.2135810923561227E8 ; 6.85765936858599E7 ; 1.1033249246266932E9 ; 0.0
11 ; 7167979.607509112 ; 1.2459906850729021E8 ; 7.56214486991161E7 ; 1.2246830338623056E9 ; 0.0
12 ; 7367378.612148525 ; 1.281491064252362E8 ; 8.27894283066252E7 ; 1.3492821023695958E9 ; 0.0
13 ; 7554949.733617966 ; 1.320082218200466E8 ; 9.015680691877373E7 ; 1.477431208794832E9 ; 0.0
14 ; 7580847.344824787 ; 1.3617641275378585E8 ; 9.771175665239169E7 ; 1.6094394306148787E9 ; 0.0
15 ; 7589961.373392221 ; 1.406536765363599E8 ; 1.0529260399721648E8 ; 1.7456158433686645E9 ; 0.0
16 ; 7598126.629743093 ; 1.4544000974798426E8 ; 1.128825653706087E8 ; 1.8862695199050245E9 ; 0.0
17 ; 7606902.3815725455 ; 1.5053540826730952E8 ; 1.204806920003518E8 ; 2.0317095296530087E9 ; 0.0
18 ; 7612467.496869927 ; 1.5593986730467117E8 ; 1.2808759438192435E8 ; 2.182244937920318E9 ; 0.0
19 ; 7623085.616899101 ; 1.6165338143984982E8 ; 1.3570006187879428E8 ; 2.3381848052249894E9 ; 0.0
20 ; 7630573.757519294 ; 1.676759446636658E8 ; 1.433231474956934E8 ; 2.4998381866648393E9 ; 0.0
21 ; 7643358.361582566 ; 1.7400755042269662E8 ; 1.509537212532127E8 ; 2.667514131328505E9 ; 0.0
22 ; 7648507.314029358 ; 1.8064819166638207E8 ; 1.5859707961479527E8 ; 2.8415216817512016E9 ; 0.0
23 ; 7659649.825948283 ; 1.8759786089578778E8 ; 1.6624558692882463E8 ; 3.0221698734175835E9 ; 0.0
24 ; 7666980.693725134 ; 1.94856550213314E8 ; 1.739052367547729E8 ; 3.209767734313371E9 ; 0.0
25 ; 7673127.800476495 ; 2.0111229227085704E8 ; 1.8157221744849804E8 ; 3.404624284526685E9 ; 0.0
26 ; 7684976.519466747 ; 2.011186263563253E8 ; 1.8924534524897453E8 ; 3.605736576797542E9 ; 0.0
27 ; 7693168.3186779665 ; 2.0112531296723643E8 ; 1.969303217684413E8 ; 3.8068552031538672E9 ; 0.0
28 ; 7701514.720630931 ; 2.0113234310475674E8 ; 2.0462349008711925E8 ; 4.007980516121104E9 ; 0.0
29 ; 7708486.821700401 ; 2.011397076123568E8 ; 2.123250048077502E8 ; 4.2091128592258606E9 ; 0.0
30 ; 7718398.336707782 ; 2.0114739721900913E8 ; 2.200334916294506E8 ; 4.410252566838218E9 ; 0.0
31 ; 7724043.042171172 ; 2.0115540257988974E8 ; 2.2775188996615836E8 ; 4.611399964057227E9 ; 0.0
32 ; 7734560.015473985 ; 2.0116371431437096E8 ; 2.3547593300832954E8 ; 4.812555366637116E9 ; 0.0
33 ; 7741424.891843525 ; 2.0117232304115823E8 ; 2.4321049302380353E8 ; 5.013719080951488E9 ; 0.0
34 ; 7748851.693712003 ; 2.0118121941048506E8 ; 2.5095191791564706E8 ; 5.214891403992646E9 ; 0.0
35 ; 7754835.957118873 ; 2.0119039413333476E8 ; 2.5870076960935906E8 ; 5.4160726234031315E9 ; 0.0
36 ; 7763445.557614777 ; 2.0119983800770453E8 ; 2.6645560556647792E8 ; 5.617263017536467E9 ; 0.0
37 ; 7769537.915790916 ; 2.012095419419691E8 ; 2.742190511240927E8 ; 5.818462855544171E9 ; 0.0
38 ; 7776008.823737863 ; 2.0121949697543454E8 ; 2.819885890398836E8 ; 6.01967239748614E9 ; 0.0
39 ; 7781940.7334857825 ; 2.0122969429619953E8 ; 2.897645978636215E8 ; 6.220891894461575E9 ; 0.0
40 ; 7785119.074218136 ; 2.012401252564637E8 ; 2.9754653859710723E8 ; 6.422121588757774E9 ; 0.0
41 ; 7792229.41856349 ; 2.0125078138543627E8 ; 3.053316576713254E8 ; 6.623361714014238E9 ; 0.0
42 ; 7798916.963663775 ; 2.0126165440000987E8 ; 3.131238870898889E8 ; 6.824612495399674E9 ; 0.0
43 ; 7801632.456119088 ; 2.0127273621336952E8 ; 3.209228040535526E8 ; 7.025874149799685E9 ; 0.0
44 ; 7804859.0905811405 ; 2.012840189417088E8 ; 3.287244365096717E8 ; 7.227146886013054E9 ; 0.0
45 ; 7809521.2351610875 ; 2.0129549490922466E8 ; 3.365292956002528E8 ; 7.428430904954762E9 ; 0.0
46 ; 7815207.988325608 ; 2.013071566515577E8 ; 3.443388168354139E8 ; 7.629726399863987E9 ; 0.0
47 ; 7818488.464537366 ; 2.0131899691783997E8 ; 3.5215402482373947E8 ; 7.831033556515545E9 ; 0.0
48 ; 7822228.264626728 ; 2.013310086715043E8 ; 3.5997251328827685E8 ; 8.032352553433385E9 ; 0.0
49 ; 7825329.069284065 ; 2.0134318509000114E8 ; 3.677947415529036E8 ; 8.233683562104889E9 ; 0.0
50 ; 7827723.576486967 ; 2.013555195635596E8 ; 3.756200706221877E8 ; 8.43502674719489E9 ; 0.0
51 ; 7830581.480311587 ; 2.0136800569311926E8 ; 3.834477941986746E8 ; 8.63638226675845E9 ; 0.0
52 ; 7832016.6113062715 ; 2.013806372875506E8 ; 3.912783756789862E8 ; 8.837750272451569E9 ; 0.0
53 ; 7834183.779890226 ; 2.0139340836027068E8 ; 3.9911039229029244E8 ; 9.039130909739119E9 ; 0.0
54 ; 7835232.506659756 ; 2.01406313125352E8 ; 4.069445760701827E8 ; 9.24052431809939E9 ; 0.0
55 ; 7837368.106003202 ; 2.0141934599321303E8 ; 4.147798085768424E8 ; 9.441930631224743E9 ; 0.0
56 ; 7842501.056468004 ; 2.0143250156596965E8 ; 4.2261717668284565E8 ; 9.643349977217957E9 ; 0.0
57 ; 7840530.417582072 ; 2.0144577463251826E8 ; 4.3045967773931366E8 ; 9.844782478783926E9 ; 0.0
58 ; 7841468.303992254 ; 2.0145916016341445E8 ; 4.3830020815689576E8 ; 1.0046228253416445E10 ; 0.0
59 ; 7845429.060766447 ; 2.0147265330560195E8 ; 4.46141676460888E8 ; 1.0247687413579859E10 ; 0.0
60 ; 7844754.38758381 ; 2.0148624937704197E8 ; 4.539871055216545E8 ; 1.044916006688546E10 ; 0.0
61 ; 7846647.214642414 ; 2.0149994386128443E8 ; 4.618318599092383E8 ; 1.0650646316262503E10 ; 0.0
62 ; 7847786.724614426 ; 2.015137324020196E8 ; 4.696785071238807E8 ; 1.0852146260123787E10 ; 0.0
63 ; 7849944.48475222 ; 2.0152761079764065E8 ; 4.775262938484951E8 ; 1.1053659992525806E10 ; 0.0
64 ; 7852337.192459008 ; 2.0154157499584574E8 ; 4.8537623833324736E8 ; 1.1255187603323446E10 ; 0.0
65 ; 7851508.078669918 ; 2.0155562108830163E8 ; 4.9322857552570635E8 ; 1.1456729178319292E10 ; 0.0
66 ; 7852678.939876739 ; 2.015697453053891E8 ; 5.0108008360437626E8 ; 1.1658284799407593E10 ; 0.0
67 ; 7856005.576239856 ; 2.015839440110457E8 ; 5.08932762544253E8 ; 1.1859854544712982E10 ; 0.0
68 ; 7851540.983352742 ; 2.015982136977191E8 ; 5.167887681204929E8 ; 1.2061438488724028E10 ; 0.0
69 ; 7856787.358159747 ; 2.0161255098144186E8 ; 5.246403091038456E8 ; 1.2263036702421747E10 ; 0.0
70 ; 7858124.940907332 ; 2.0162695259703544E8 ; 5.324970964620053E8 ; 1.2464649253403189E10 ; 0.0
71 ; 7859877.100846007 ; 2.0164141539345014E8 ; 5.403552214029126E8 ; 1.2666276206000225E10 ; 0.0
72 ; 7858125.93684553 ; 2.016559363292451E8 ; 5.482150985037587E8 ; 1.2867917621393675E10 ; 0.0
73 ; 7858518.516939634 ; 2.0167051246821168E8 ; 5.560732244406042E8 ; 1.306957355772292E10 ; 0.0
74 ; 7857544.744592437 ; 2.0168514097514218E8 ; 5.639317429575438E8 ; 1.3271244070191132E10 ; 0.0
75 ; 7859722.902350705 ; 2.0169981911174375E8 ; 5.717892877021363E8 ; 1.3472929211166273E10 ; 0.0
76 ; 7861876.126589684 ; 2.0171454423269814E8 ; 5.79649010604487E8 ; 1.3674629030278017E10 ; 0.0
77 ; 7860210.837638091 ; 2.0172931378186554E8 ; 5.875108867310766E8 ; 1.3876343574510715E10 ; 0.0
78 ; 7858684.771478458 ; 2.0174412528863096E8 ; 5.953710975687147E8 ; 1.4078072888292582E10 ; 0.0
79 ; 7856935.770617246 ; 2.0175897636439112E8 ; 6.032297823401932E8 ; 1.4279817013581213E10 ; 0.0
80 ; 7855498.473536619 ; 2.0177386469917834E8 ; 6.110867181108104E8 ; 1.4481575989945604E10 ; 0.0
81 ; 7851704.548534957 ; 2.0178878805841938E8 ; 6.18942216584347E8 ; 1.4683349854644783E10 ; 0.0
82 ; 7848570.738482712 ; 2.018037442798246E8 ; 6.26793921132882E8 ; 1.4885138642703203E10 ; 0.0
83 ; 7848004.116036307 ; 2.018187312704052E8 ; 6.346424918713647E8 ; 1.5086942386983028E10 ; 0.0
84 ; 7845752.506577579 ; 2.0183374700361314E8 ; 6.42490495987401E8 ; 1.5288761118253433E10 ; 0.0
85 ; 7839827.248240991 ; 2.018487895166014E8 ; 6.503362484939786E8 ; 1.5490594865257046E10 ; 0.0
86 ; 7838388.37255639 ; 2.0186385690759957E8 ; 6.581760757422196E8 ; 1.5692443654773647E10 ; 0.0
87 ; 7836145.295838095 ; 2.01878947333401E8 ; 6.66014464114776E8 ; 1.5894307511681248E10 ; 0.0
88 ; 7835431.49901132 ; 2.0189405900695777E8 ; 6.738506094106141E8 ; 1.6096186459014648E10 ; 0.0
89 ; 7829810.60643736 ; 2.0190919019507918E8 ; 6.816860409096254E8 ; 1.6298080518021606E10 ; 0.0
90 ; 7829456.206122964 ; 2.019243392162298E8 ; 6.895158515160627E8 ; 1.6499989708216686E10 ; 0.0
91 ; 7826048.463907762 ; 2.0193950443842334E8 ; 6.973453077221857E8 ; 1.6701914047432917E10 ; 0.0
92 ; 7821805.100036859 ; 2.019546842772084E8 ; 7.051713561860934E8 ; 1.690385355187134E10 ; 0.0
93 ; 7819100.566578979 ; 2.0196987719374233E8 ; 7.129931612861303E8 ; 1.7105808236148548E10 ; 0.0
94 ; 7813748.846099705 ; 2.019850816929498E8 ; 7.208122618527093E8 ; 1.730777811334229E10 ; 0.0
95 ; 7812778.627345207 ; 2.02000296321762E8 ; 7.28626010698809E8 ; 1.750976319503524E10 ; 0.0
96 ; 7809254.737051356 ; 2.0201551966743347E8 ; 7.364387893261542E8 ; 1.7711763491357002E10 ; 0.0
97 ; 7805602.0823077 ; 2.0203075035593322E8 ; 7.442480440632056E8 ; 1.7913779011024437E10 ; 0.0
98 ; 7803746.281141799 ; 2.0204598705040666E8 ; 7.520536461455133E8 ; 1.811580976138037E10 ; 0.0
99 ; 7799616.276816735 ; 2.0206122844970527E8 ; 7.59857392426655E8 ; 1.831785574843078E10 ; 0.0
100 ; 7793904.753144402 ; 2.0207647328698125E8 ; 7.676570087034718E8 ; 1.8519916976880486E10 ; 0.0
101 ; 7792615.074078314 ; 2.02091720328344E8 ; 7.754509134566162E8 ; 1.8721993450167465E10 ; 0.0
102 ; 7790931.156539201 ; 2.0210696837157583E8 ; 7.832435285306945E8 ; 1.8924085170495808E10 ; 0.0
103 ; 7782674.357568906 ; 2.0212221624490407E8 ; 7.910344596872337E8 ; 1.9126192138867382E10 ; 0.0
104 ; 7780084.63585173 ; 2.021374628058273E8 ; 7.988171340448025E8 ; 1.9328314355112286E10 ; 0.0
105 ; 7776845.50960539 ; 2.0215270693999276E8 ; 8.065972186806543E8 ; 1.9530451817918114E10 ; 0.0
106 ; 7775748.031671858 ; 2.0216794756012332E8 ; 8.143740641902597E8 ; 1.9732604524858105E10 ; 0.0
107 ; 7766379.886927598 ; 2.0218318360499114E8 ; 8.221498122219316E8 ; 1.993477247241823E10 ; 0.0
108 ; 7765827.125307343 ; 2.0219841403843597E8 ; 8.299161921088592E8 ; 2.013695565602322E10 ; 0.0
109 ; 7757985.145388531 ; 2.022136378484264E8 ; 8.376820192341665E8 ; 2.0339154070061657E10 ; 0.0
110 ; 7755210.965736695 ; 2.0222885404616192E8 ; 8.45440004379555E8 ; 2.0541367707910084E10 ; 0.0
111 ; 7749850.456865361 ; 2.022440616652135E8 ; 8.531952153452917E8 ; 2.0743596561956245E10 ; 0.0
112 ; 7745367.355312357 ; 2.0225925976070172E8 ; 8.60945065802157E8 ; 2.094584062362146E10 ; 0.0
113 ; 7741273.164128064 ; 2.0227444740851003E8 ; 8.686904331574694E8 ; 2.114809988338216E10 ; 0.0
114 ; 7736018.535100465 ; 2.0228962370453188E8 ; 8.764317063215975E8 ; 2.135037433079067E10 ; 0.0
115 ; 7733490.556670744 ; 2.0230478776395008E8 ; 8.841677248566979E8 ; 2.15526639544952E10 ; 0.0
116 ; 7728814.774057264 ; 2.023199387205469E8 ; 8.919012154133687E8 ; 2.175496874225915E10 ; 0.0
117 ; 7722352.872112533 ; 2.0233507572604358E8 ; 8.99630030187426E8 ; 2.19572886809797E10 ; 0.0
118 ; 7714928.560201462 ; 2.023501979494677E8 ; 9.073523830595385E8 ; 2.215962375670574E10 ; 0.0
119 ; 7712185.02756241 ; 2.0236530457654747E8 ; 9.150673116197399E8 ; 2.236197395465521E10 ; 0.0
120 ; 7708538.884120591 ; 2.0238039480913147E8 ; 9.227794966473023E8 ; 2.2564339259231754E10 ; 0.0
121 ; 7701130.448341829 ; 2.0239546786463258E8 ; 9.304880355314229E8 ; 2.2766719654040886E10 ; 0.0
122 ; 7695722.316185913 ; 2.024105229754954E8 ; 9.381891659797647E8 ; 2.2969115121905518E10 ; 0.0
123 ; 7692504.458758951 ; 2.024255593886858E8 ; 9.458848882959507E8 ; 2.3171525644881012E10 ; 0.0
124 ; 7687246.484073607 ; 2.0244057636520144E8 ; 9.535773927547096E8 ; 2.33739512042697E10 ; 0.0
125 ; 7679820.403906932 ; 2.024555731796029E8 ; 9.612646392387832E8 ; 2.35763917806349E10 ; 0.0
126 ; 7672750.390732695 ; 2.0247054911956382E8 ; 9.689444596426902E8 ; 2.3778847353814503E10 ; 0.0
127 ; 7667778.747535349 ; 2.0248550348543966E8 ; 9.766172100334228E8 ; 2.3981317902934067E10 ; 0.0
128 ; 7661952.807941151 ; 2.0250043558985406E8 ; 9.842849887809582E8 ; 2.4183803406419506E10 ; 0.0
129 ; 7657043.111207856 ; 2.0251534475730208E8 ; 9.919469415888994E8 ; 2.438630384200936E10 ; 0.0
130 ; 7650556.66499777 ; 2.0253023032376936E8 ; 9.996039847001072E8 ; 2.4588819186766663E10 ; 0.0
131 ; 7641027.454347824 ; 2.0254509163636705E8 ; 1.007254541365105E9 ; 2.479134941709043E10 ; 0.0
132 ; 7635111.0162240565 ; 2.02559928052981E8 ; 1.0148955688194529E9 ; 2.49938945087268E10 ; 0.0
133 ; 7623595.145578289 ; 2.025747389419353E8 ; 1.0225306798356769E9 ; 2.519645443677978E10 ; 0.0
134 ; 7616214.251122555 ; 2.0258952368166918E8 ; 1.0301542749812552E9 ; 2.5399029175721718E10 ; 0.0
135 ; 7606544.736715371 ; 2.026042816604268E8 ; 1.0377704892323778E9 ; 2.5601618699403385E10 ; 0.0
136 ; 7600773.003644261 ; 2.0261901227595922E8 ; 1.0453770339690931E9 ; 2.5804222981063812E10 ; 0.0
137 ; 7590623.33824504 ; 2.0263371493523827E8 ; 1.0529778069727373E9 ; 2.600684199333977E10 ; 0.0
138 ; 7582878.48886187 ; 2.026483890541816E8 ; 1.0605684303109823E9 ; 2.620947570827501E10 ; 0.0
139 ; 7570474.65529394 ; 2.0266303405738854E8 ; 1.0681513087998443E9 ; 2.641212409732919E10 ; 0.0
140 ; 7561936.041620065 ; 2.0267764937788612E8 ; 1.0757217834551382E9 ; 2.6614787131386578E10 ; 0.0
141 ; 7556933.487167384 ; 2.0269223445688522E8 ; 1.0832837194967582E9 ; 2.6817464780764465E10 ; 0.0
142 ; 7545865.220945955 ; 2.027067887435459E8 ; 1.0908406529839256E9 ; 2.702015701522135E10 ; 0.0
143 ; 7538781.878892951 ; 2.02721311694752E8 ; 1.0983865182048717E9 ; 2.7222863803964897E10 ; 0.0
144 ; 7527137.410203228 ; 2.0273580277489412E8 ; 1.1059253000837646E9 ; 2.742558511565965E10 ; 0.0
145 ; 7523048.657307681 ; 2.0275026145566118E8 ; 1.1134524374939678E9 ; 2.7628320918434544E10 ; 0.0
146 ; 7515466.341659363 ; 2.0276468721583977E8 ; 1.1209754861512754E9 ; 2.7831071179890205E10 ; 0.0
147 ; 7507638.633952989 ; 2.0277907954112113E8 ; 1.1284909524929347E9 ; 2.8033835867106045E10 ; 0.0
148 ; 7503617.004221897 ; 2.0279343792391548E8 ; 1.1359985911268878E9 ; 2.8236614946647167E10 ; 0.0
149 ; 7494318.888013761 ; 2.0280776186317322E8 ; 1.1435022081311097E9 ; 2.8439408384571083E10 ; 0.0
150 ; 7490237.479337386 ; 2.0282205086421308E8 ; 1.1509965270191236E9 ; 2.8642216146434258E10 ; 0.0
151 ; 7484442.513140815 ; 2.0283630443855634E8 ; 1.158486764498461E9 ; 2.884503819729847E10 ; 0.0
152 ; 7475960.494297731 ; 2.0285052210376763E8 ; 1.165971207011602E9 ; 2.9047874501737026E10 ; 0.0
153 ; 7468333.843815493 ; 2.0286470338330123E8 ; 1.1734471675058997E9 ; 2.9250725023840794E10 ; 0.0
154 ; 7462357.750476663 ; 2.0287884780635336E8 ; 1.1809155013497152E9 ; 2.9453589727224094E10 ; 0.0
155 ; 7454243.423863957 ; 2.0289295490771982E8 ; 1.1883778591001918E9 ; 2.965646857503045E10 ; 0.0
156 ; 7452070.105634366 ; 2.0290702422765875E8 ; 1.1958321025240557E9 ; 2.9859361529938168E10 ; 0.0
157 ; 7443560.730094721 ; 2.029210553117585E8 ; 1.2032841726296902E9 ; 3.0062268554165825E10 ; 0.0
158 ; 7436637.360063249 ; 2.029350477108103E8 ; 1.2107277333597848E9 ; 3.0265189609477585E10 ; 0.0
159 ; 7428696.604101663 ; 2.0294900098068565E8 ; 1.2181643707198482E9 ; 3.0468124657188396E10 ; 0.0
160 ; 7424026.153824219 ; 2.029629146822179E8 ; 1.2255930673239498E9 ; 3.0671073658169083E10 ; 0.0
161 ; 7416791.849116841 ; 2.0297678838108835E8 ; 1.2330170934777741E9 ; 3.08740365728513E10 ; 0.0
162 ; 7408391.10464796 ; 2.0299062164771625E8 ; 1.240433885326891E9 ; 3.1077013361232388E10 ; 0.0
163 ; 7402519.384591704 ; 2.030044140571529E8 ; 1.2478422764315388E9 ; 3.1280003982880104E10 ; 0.0
164 ; 7395379.079463084 ; 2.030181651889794E8 ; 1.2552447958161306E9 ; 3.1483008396937256E10 ; 0.0
165 ; 7389243.259959228 ; 2.030318746272081E8 ; 1.2626401748955936E9 ; 3.1686026562126236E10 ; 0.0
166 ; 7382096.174853162 ; 2.0304554196018764E8 ; 1.2700294181555529E9 ; 3.1889058436753445E10 ; 0.0
167 ; 7375418.73815583 ; 2.0305916678051096E8 ; 1.277411514330406E9 ; 3.209210397871363E10 ; 0.0
168 ; 7364914.879933901 ; 2.0307274868492714E8 ; 1.2847869330685618E9 ; 3.229516314549414E10 ; 0.0
169 ; 7358180.104225922 ; 2.0308628727425575E8 ; 1.2921518479484956E9 ; 3.249823589417907E10 ; 0.0
170 ; 7352124.766756712 ; 2.0309978215330473E8 ; 1.2995100280527215E9 ; 3.2701322181453323E10 ; 0.0
171 ; 7345202.862403194 ; 2.0311323293079063E8 ; 1.3068621528194783E9 ; 3.290442196360663E10 ; 0.0
172 ; 7338965.20447548 ; 2.0312663921926203E8 ; 1.3142073556818814E9 ; 3.310753519653742E10 ; 0.0
173 ; 7331341.852202551 ; 2.0314000063502535E8 ; 1.3215463208863568E9 ; 3.331066183575668E10 ; 0.0
174 ; 7327815.09783912 ; 2.031533167980734E8 ; 1.3288776627385595E9 ; 3.3513801836391705E10 ; 0.0
175 ; 7322565.66820722 ; 2.031665873320163E8 ; 1.3362054778363986E9 ; 3.3716955153189777E10 ; 0.0
176 ; 7319604.706034608 ; 2.0317981186401474E8 ; 1.3435280435046058E9 ; 3.3920121740521793E10 ; 0.0
177 ; 7314251.366828593 ; 2.0319299002471566E8 ; 1.3508476482106404E9 ; 3.4123301552385807E10 ; 0.0
178 ; 7309497.968435161 ; 2.0320612144819006E8 ; 1.358161899577469E9 ; 3.4326494542410522E10 ; 0.0
179 ; 7304573.364987008 ; 2.0321920577187285E8 ; 1.3654713975459042E9 ; 3.452970066385871E10 ; 0.0
180 ; 7299982.190223879 ; 2.032322426365049E8 ; 1.372775970910891E9 ; 3.4732919869630585E10 ; 0.0
181 ; 7297794.541685174 ; 2.0324523168607685E8 ; 1.380075953101115E9 ; 3.493615211226709E10 ; 0.0
182 ; 7292345.631893561 ; 2.0325817256777516E8 ; 1.3873737476428E9 ; 3.513939734395316E10 ; 0.0
183 ; 7286848.122957796 ; 2.032710649319296E8 ; 1.3946660932746937E9 ; 3.5342655516520935E10 ; 0.0
184 ; 7284298.47089847 ; 2.0328390843196276E8 ; 1.4019529413976514E9 ; 3.5545926581452866E10 ; 0.0
185 ; 7278522.793587431 ; 2.032967027243411E8 ; 1.4092372398685498E9 ; 3.574921048988483E10 ; 0.0
186 ; 7274342.859406395 ; 2.0330944746852782E8 ; 1.4165157626621373E9 ; 3.595250719260917E10 ; 0.0
187 ; 7267548.8323145015 ; 2.0332214232693714E8 ; 1.4237901055215437E9 ; 3.61558166400777E10 ; 0.0
188 ; 7264886.118784375 ; 2.033347869648902E8 ; 1.4310576543538582E9 ; 3.635913878240463E10 ; 0.0
189 ; 7261166.061202865 ; 2.0334738105057237E8 ; 1.4383225404726427E9 ; 3.656247356936952E10 ; 0.0
190 ; 7256412.822820442 ; 2.0335992425499207E8 ; 1.4455837065338454E9 ; 3.67658209504201E10 ; 0.0
191 ; 7250680.77107803 ; 2.0337241625194076E8 ; 1.4528401193566658E9 ; 3.696918087467509E10 ; 0.0
192 ; 7248199.8105753735 ; 2.0338485671795464E8 ; 1.460090800127744E9 ; 3.7172553290927025E10 ; 0.0
193 ; 7242881.065133067 ; 2.033972453322771E8 ; 1.4673389999383194E9 ; 3.737593814764498E10 ; 0.0
194 ; 7238940.824038956 ; 2.0340958177682287E8 ; 1.4745818810034525E9 ; 3.757933539297726E10 ; 0.0
195 ; 7234839.280731611 ; 2.0342186573614305E8 ; 1.4818208218274915E9 ; 3.778274497475408E10 ; 0.0
196 ; 7230072.755870776 ; 2.034340968973915E8 ; 1.4890556611082232E9 ; 3.798616684049023E10 ; 0.0
197 ; 7225578.839336021 ; 2.0344627495029208E8 ; 1.496285733864094E9 ; 3.818960093738762E10 ; 0.0
198 ; 7220686.213813776 ; 2.0345839958710736E8 ; 1.50351131270343E9 ; 3.839304721233791E10 ; 0.0
199 ; 7219868.066588383 ; 2.0347047050260782E8 ; 1.5107319989172437E9 ; 3.859650561192502E10 ; 0.0
200 ; 7213391.529797766 ; 1.9610794832018512E8 ; 1.5179518669838321E9 ; 3.879997608242763E10 ; 0.0
201 ; 7206553.747943582 ; 1.5465445674225494E8 ; 1.52516525851363E9 ; 3.899608403074781E10 ; 0.0
