CSV File for the City 1 on Day 224
1 - Minute m 
2 - Power Consumed at minute m 
3 - Power Produced at minute m 
4 - Energy Consumed since the beginning of the day 
5 - Energy Produced since the beginning of the day 
6 - Energy Lost since the beginning of the day on lines starting from the city
 
0 ; 1114506.1443626801 ; 1.0525028097309485E8 ; 0.0 ; 0.0 ; 0.0
1 ; 1130875.8818717257 ; 1.0540114600591177E8 ; 1114506.1443626801 ; 1.0525028097309485E8 ; 0.0
2 ; 1153297.887308133 ; 1.058608930807539E8 ; 2245382.026234406 ; 2.1065142697900662E8 ; 0.0
3 ; 1178052.3200420004 ; 1.0662955166093785E8 ; 3398679.913542539 ; 3.165123200597605E8 ; 0.0
4 ; 1200445.4203633505 ; 1.0770715306046164E8 ; 4576732.233584539 ; 4.2314187172069836E8 ; 0.0
5 ; 1234135.3272895827 ; 1.090937296058144E8 ; 5777177.65394789 ; 5.3084902478116E8 ; 0.0
6 ; 1274344.142054868 ; 1.1078931340353379E8 ; 7011312.981237473 ; 6.399427543869743E8 ; 0.0
7 ; 1328784.070584208 ; 1.127939347225967E8 ; 8285657.123292341 ; 7.507320677905082E8 ; 0.0
8 ; 1405569.5708052325 ; 1.1510762009068751E8 ; 9614441.19387655 ; 8.635260025131049E8 ; 0.0
9 ; 1527335.5202117926 ; 1.1773039031046641E8 ; 1.1020010764681783E7 ; 9.786336226037924E8 ; 0.0
10 ; 1711273.9311558425 ; 1.2066225869113511E8 ; 1.2547346284893576E7 ; 1.096364012914259E9 ; 0.0
11 ; 2002860.239854501 ; 1.2390322981663927E8 ; 1.4258620216049418E7 ; 1.2170262716053941E9 ; 0.0
12 ; 2467057.5617382396 ; 1.2745329910303321E8 ; 1.626148045590392E7 ; 1.3409295014220333E9 ; 0.0
13 ; 2912025.90214775 ; 1.3131245324111521E8 ; 1.872853801764216E7 ; 1.4683828005250666E9 ; 0.0
14 ; 2973567.9316534153 ; 1.3548067142822516E8 ; 2.164056391978991E7 ; 1.599695253766182E9 ; 0.0
15 ; 2990709.6461646482 ; 1.3995792713667858E8 ; 2.4614131851443324E7 ; 1.735175925194407E9 ; 0.0
16 ; 3017287.6061276537 ; 1.447441900974987E8 ; 2.7604841497607972E7 ; 1.8751338523310857E9 ; 0.0
17 ; 3039811.0442012637 ; 1.4983942820414773E8 ; 3.0622129103735626E7 ; 2.0198780424285843E9 ; 0.0
18 ; 3065328.2637792914 ; 1.552436091301366E8 ; 3.366194014793689E7 ; 2.169717470632732E9 ; 0.0
19 ; 3088855.1570268287 ; 1.6095670156146732E8 ; 3.672726841171618E7 ; 2.3249610797628684E9 ; 0.0
20 ; 3110946.943868586 ; 1.669786760348232E8 ; 3.9816123568743005E7 ; 2.4859177813243356E9 ; 0.0
21 ; 3138016.073826028 ; 1.733095054298419E8 ; 4.292707051261159E7 ; 2.652896457359159E9 ; 0.0
22 ; 3159661.0356733114 ; 1.79949165189538E8 ; 4.606508658643762E7 ; 2.826205962789001E9 ; 0.0
23 ; 3181741.179643086 ; 1.8689763334588575E8 ; 4.922474762211093E7 ; 3.006155127978539E9 ; 0.0
24 ; 3205226.60896035 ; 1.941548904178418E8 ; 5.240648880175402E7 ; 3.1930527613244247E9 ; 0.0
25 ; 3232705.650981424 ; 2.004089601327036E8 ; 5.561171541071437E7 ; 3.3872076517422667E9 ; 0.0
26 ; 3253677.2366202376 ; 2.0041337524940726E8 ; 5.88444210616958E7 ; 3.5876166118749704E9 ; 0.0
27 ; 3281035.277811624 ; 2.0041789185869896E8 ; 6.209809829831604E7 ; 3.7880299871243777E9 ; 0.0
28 ; 3302783.117533122 ; 2.0042249841011533E8 ; 6.537913357612766E7 ; 3.9884478789830766E9 ; 0.0
29 ; 3323952.0113265174 ; 2.00427184799593E8 ; 6.868191669366078E7 ; 4.188870377393192E9 ; 0.0
30 ; 3348508.4247091003 ; 2.0043194218256137E8 ; 7.20058687049873E7 ; 4.389297562192785E9 ; 0.0
31 ; 3370249.248247829 ; 2.004367628073545E8 ; 7.53543771296964E7 ; 4.589729504375346E9 ; 0.0
32 ; 3395842.8624177016 ; 2.0044163986872602E8 ; 7.872462637794423E7 ; 4.790166267182701E9 ; 0.0
33 ; 3417444.025535028 ; 2.004465673802387E8 ; 8.212046924036193E7 ; 4.990607907051427E9 ; 0.0
34 ; 3439252.9627836472 ; 2.0045154006380466E8 ; 8.553791326589696E7 ; 5.191054474431665E9 ; 0.0
35 ; 3460122.2299945205 ; 2.0045655325447375E8 ; 8.897716622868061E7 ; 5.39150601449547E9 ; 0.0
36 ; 3477975.2351290644 ; 2.0046160281858087E8 ; 9.243728845867513E7 ; 5.591962567749944E9 ; 0.0
37 ; 3499872.5372595205 ; 2.0046668508347723E8 ; 9.591526369380419E7 ; 5.792424170568524E9 ; 0.0
38 ; 3518261.747802985 ; 2.0047179677723783E8 ; 9.941513623106371E7 ; 5.992890855652001E9 ; 0.0
39 ; 3535963.3508640397 ; 2.0047693497691843E8 ; 1.029333979788667E8 ; 6.193362652429239E9 ; 0.0
40 ; 3552415.7450646297 ; 2.0048209706411886E8 ; 1.0646936132973073E8 ; 6.3938395874061575E9 ; 0.0
41 ; 3572902.0853983164 ; 2.004872806867777E8 ; 1.1002177707479537E8 ; 6.594321684470276E9 ; 0.0
42 ; 3588872.3799406732 ; 2.004924837262779E8 ; 1.1359467916019368E8 ; 6.794808965157054E9 ; 0.0
43 ; 3604539.0345775685 ; 2.0049770426907814E8 ; 1.1718355154013436E8 ; 6.995301448883332E9 ; 0.0
44 ; 3620986.587691486 ; 2.0050294058220258E8 ; 1.2078809057471192E8 ; 7.1957991531524105E9 ; 0.0
45 ; 3634352.9064248325 ; 2.005081910920224E8 ; 1.244090771624034E8 ; 7.396302093734613E9 ; 0.0
46 ; 3648653.639201733 ; 2.0051345436584982E8 ; 1.2804343006882824E8 ; 7.596810284826635E9 ; 0.0
47 ; 3660311.921116185 ; 2.005187290959383E8 ; 1.3169208370802997E8 ; 7.797323739192485E9 ; 0.0
48 ; 3669349.669263418 ; 2.0052401408554396E8 ; 1.3535239562914616E8 ; 7.997842468288424E9 ; 0.0
49 ; 3686651.658445384 ; 2.005293082367574E8 ; 1.3902174529840958E8 ; 8.198366482373967E9 ; 0.0
50 ; 3691762.010492932 ; 2.005346105398571E8 ; 1.4270839695685497E8 ; 8.398895790610724E9 ; 0.0
51 ; 3707428.2958775973 ; 2.005399200639748E8 ; 1.464001589673479E8 ; 8.599430401150581E9 ; 0.0
52 ; 3716268.53846372 ; 2.0054523594889325E8 ; 1.501075872632255E8 ; 8.799970321214556E9 ; 0.0
53 ; 3729150.261287376 ; 2.005505573978241E8 ; 1.538238558016892E8 ; 9.000515557163448E9 ; 0.0
54 ; 3734756.5288250153 ; 2.0055588367103502E8 ; 1.5755300606297657E8 ; 9.201066114561272E9 ; 0.0
55 ; 3746880.4159077527 ; 2.005612140802153E8 ; 1.6128776259180158E8 ; 9.401621998232307E9 ; 0.0
56 ; 3756031.586880147 ; 2.005665479834839E8 ; 1.6503464300770932E8 ; 9.602183212312523E9 ; 0.0
57 ; 3764808.0808289046 ; 2.005718847809581E8 ; 1.6879067459458947E8 ; 9.802749760296007E9 ; 0.0
58 ; 3774490.7591942935 ; 2.0057722391081205E8 ; 1.7255548267541838E8 ; 1.0003321645076965E10 ; 0.0
59 ; 3783527.596594701 ; 2.0058256484576496E8 ; 1.7632997343461266E8 ; 1.0203898868987778E10 ; 0.0
60 ; 3789281.0457593137 ; 2.0058790708994547E8 ; 1.8011350103120735E8 ; 1.0404481433833542E10 ; 0.0
61 ; 3802985.476220442 ; 2.0059325017608768E8 ; 1.8390278207696667E8 ; 1.0605069340923487E10 ; 0.0
62 ; 3809661.3091275115 ; 2.0059859366301873E8 ; 1.877057675531871E8 ; 1.0805662591099575E10 ; 0.0
63 ; 3815148.609459354 ; 2.0060393713340423E8 ; 1.915154288623146E8 ; 1.1006261184762594E10 ; 0.0
64 ; 3822876.377444504 ; 2.0060928019172126E8 ; 1.9533057747177395E8 ; 1.1206865121895998E10 ; 0.0
65 ; 3834638.434571025 ; 2.0061462246243334E8 ; 1.9915345384921846E8 ; 1.1407474402087719E10 ; 0.0
66 ; 3839011.530100568 ; 2.0061996358834442E8 ; 2.029880922837895E8 ; 1.1608089024550152E10 ; 0.0
67 ; 3852085.2511627143 ; 2.006253032291121E8 ; 2.0682710381389004E8 ; 1.1808708988138496E10 ; 0.0
68 ; 3857044.9148618733 ; 2.006306410599026E8 ; 2.1067918906505275E8 ; 1.2009334291367609E10 ; 0.0
69 ; 3867728.9531986318 ; 2.0063597677017248E8 ; 2.1453623397991464E8 ; 1.2209964932427511E10 ; 0.0
70 ; 3874767.0290405317 ; 2.0064131006256273E8 ; 2.1840396293311328E8 ; 1.2410600909197683E10 ; 0.0
71 ; 3880501.191687882 ; 2.0064664065189484E8 ; 2.2227872996215382E8 ; 1.2611242219260246E10 ; 0.0
72 ; 3891370.5918559236 ; 2.006519682642567E8 ; 2.261592311538417E8 ; 1.2811888859912142E10 ; 0.0
73 ; 3894393.8637733012 ; 2.0065729263617024E8 ; 2.3005060174569762E8 ; 1.30125408281764E10 ; 0.0
74 ; 3905656.603257247 ; 2.0066261351383233E8 ; 2.339449956094709E8 ; 1.3213198120812569E10 ; 0.0
75 ; 3910296.7105536396 ; 2.0066793065242112E8 ; 2.3785065221272814E8 ; 1.34138607343264E10 ; 0.0
76 ; 3916548.3105876907 ; 2.00673243815462E8 ; 2.417609489232818E8 ; 1.3614528664978823E10 ; 0.0
77 ; 3926971.898597335 ; 2.0067855277424708E8 ; 2.456774972338695E8 ; 1.3815201908794285E10 ; 0.0
78 ; 3927474.2644793093 ; 2.0068385730730304E8 ; 2.4960446913246682E8 ; 1.4015880461568531E10 ; 0.0
79 ; 3928995.839729968 ; 2.0068915719990283E8 ; 2.5353194339694613E8 ; 1.4216564318875834E10 ; 0.0
80 ; 3929657.8242781 ; 2.0069445224361724E8 ; 2.574609392366761E8 ; 1.4417253476075737E10 ; 0.0
81 ; 3930103.137091234 ; 2.0069974223590225E8 ; 2.6139059706095418E8 ; 1.4617947928319355E10 ; 0.0
82 ; 3933550.1790206186 ; 2.0070502697971946E8 ; 2.653207001980454E8 ; 1.4818647670555258E10 ; 0.0
83 ; 3933576.698865505 ; 2.0071030628318602E8 ; 2.69254250377066E8 ; 1.5019352697534977E10 ; 0.0
84 ; 3934892.0838545254 ; 2.007155799592519E8 ; 2.7318782707593155E8 ; 1.5220063003818163E10 ; 0.0
85 ; 3933773.8652907554 ; 2.007208478254018E8 ; 2.7712271915978605E8 ; 1.5420778583777414E10 ; 0.0
86 ; 3936601.632680513 ; 2.0072610970337978E8 ; 2.810564930250768E8 ; 1.5621499431602816E10 ; 0.0
87 ; 3937084.5525860833 ; 2.0073136541893432E8 ; 2.8499309465775734E8 ; 1.5822225541306196E10 ; 0.0
88 ; 3938209.1088868966 ; 2.007366148015824E8 ; 2.889301792103434E8 ; 1.602295690672513E10 ; 0.0
89 ; 3937307.560316003 ; 2.007418576843909E8 ; 2.928683883192303E8 ; 1.6223693521526712E10 ; 0.0
90 ; 3936855.505781213 ; 2.0074709390377384E8 ; 2.9680569587954634E8 ; 1.6424435379211103E10 ; 0.0
91 ; 3934614.1868843036 ; 2.0075232329930398E8 ; 3.007425513853276E8 ; 1.6625182473114878E10 ; 0.0
92 ; 3935203.3912046147 ; 2.0075754571353808E8 ; 3.0467716557221186E8 ; 1.682593479641418E10 ; 0.0
93 ; 3932238.567564261 ; 2.0076276099185425E8 ; 3.0861236896341646E8 ; 1.7026692342127718E10 ; 0.0
94 ; 3937542.5592993572 ; 2.0076796898230052E8 ; 3.125446075309807E8 ; 1.722745510311957E10 ; 0.0
95 ; 3935958.774146302 ; 2.007731695354542E8 ; 3.1648215009028006E8 ; 1.742822307210187E10 ; 0.0
96 ; 3934264.4788056733 ; 2.007783625042904E8 ; 3.204181088644264E8 ; 1.7628996241637325E10 ; 0.0
97 ; 3934642.9486389165 ; 2.0078354774405962E8 ; 3.2435237334323204E8 ; 1.7829774604141617E10 ; 0.0
98 ; 3934812.003618344 ; 2.0078872511217365E8 ; 3.2828701629187095E8 ; 1.8030558151885677E10 ; 0.0
99 ; 3932964.683649839 ; 2.0079389446809864E8 ; 3.322218282954893E8 ; 1.8231346876997852E10 ; 0.0
100 ; 3933161.5860746684 ; 2.007990556732557E8 ; 3.3615479297913915E8 ; 1.843214077146595E10 ; 0.0
101 ; 3930270.0948708057 ; 2.008042085909275E8 ; 3.400879545652138E8 ; 1.8632939827139206E10 ; 0.0
102 ; 3926634.8375578667 ; 2.0080935308617112E8 ; 3.440182246600846E8 ; 1.8833744035730133E10 ; 0.0
103 ; 3926192.5409307694 ; 2.0081448902573642E8 ; 3.4794485949764246E8 ; 1.9034553388816303E10 ; 0.0
104 ; 3929204.925817554 ; 2.0081961627798954E8 ; 3.518710520385732E8 ; 1.923536787784204E10 ; 0.0
105 ; 3925675.147698708 ; 2.0082473471284136E8 ; 3.5580025696439075E8 ; 1.943618749412003E10 ; 0.0
106 ; 3923186.705307822 ; 2.0082984420168015E8 ; 3.5972593211208946E8 ; 1.963701222883287E10 ; 0.0
107 ; 3918336.3086040546 ; 2.0083494461730853E8 ; 3.636491188173973E8 ; 1.983784207303455E10 ; 0.0
108 ; 3917274.7058705343 ; 2.0084003583388433E8 ; 3.6756745512600136E8 ; 2.003867701765186E10 ; 0.0
109 ; 3912825.8708517337 ; 2.00845117726865E8 ; 3.7148472983187187E8 ; 2.0239517053485744E10 ; 0.0
110 ; 3909947.275263278 ; 2.0085019017295527E8 ; 3.753975557027236E8 ; 2.044036217121261E10 ; 0.0
111 ; 3914573.6471934845 ; 2.0085525305005816E8 ; 3.793075029779869E8 ; 2.0641212361385563E10 ; 0.0
112 ; 3909470.5515078204 ; 2.0086030623722863E8 ; 3.8322207662518036E8 ; 2.084206761443562E10 ; 0.0
113 ; 3905668.7475437433 ; 2.0086534961463022E8 ; 3.871315471766882E8 ; 2.1042927920672848E10 ; 0.0
114 ; 3902136.1129809725 ; 2.008703830634941E8 ; 3.9103721592423195E8 ; 2.124379327028748E10 ; 0.0
115 ; 3900034.3471284844 ; 2.0087540646608046E8 ; 3.949393520372129E8 ; 2.1444663653350975E10 ; 0.0
116 ; 3897083.086508816 ; 2.0088041970564225E8 ; 3.988393863843414E8 ; 2.1645539059817055E10 ; 0.0
117 ; 3895989.742919236 ; 2.0088542266639093E8 ; 4.027364694708502E8 ; 2.1846419479522697E10 ; 0.0
118 ; 3893852.0125830006 ; 2.008904152334642E8 ; 4.0663245921376944E8 ; 2.2047304902189087E10 ; 0.0
119 ; 3886026.724901109 ; 2.0089539729289553E8 ; 4.1052631122635245E8 ; 2.224819531742255E10 ; 0.0
120 ; 3884766.019190577 ; 2.0090036873158547E8 ; 4.1441233795125353E8 ; 2.2449090714715446E10 ; 0.0
121 ; 3881173.3619981096 ; 2.0090532943727443E8 ; 4.182971039704441E8 ; 2.2649991083447033E10 ; 0.0
122 ; 3874976.932920099 ; 2.0091027929851726E8 ; 4.2217827733244216E8 ; 2.2850896412884308E10 ; 0.0
123 ; 3870635.973938873 ; 2.0091521820465887E8 ; 4.2605325426536226E8 ; 2.3051806692182827E10 ; 0.0
124 ; 3866828.9112554444 ; 2.0092014604581153E8 ; 4.2992389023930115E8 ; 2.3252721910387486E10 ; 0.0
125 ; 3867061.6972753243 ; 2.0092506271283314E8 ; 4.3379071915055656E8 ; 2.3453642056433296E10 ; 0.0
126 ; 3859087.003298819 ; 2.00929968097307E8 ; 4.376577808478319E8 ; 2.365456711914613E10 ; 0.0
127 ; 3855085.793750896 ; 2.0093486209152237E8 ; 4.415168678511307E8 ; 2.3855497087243435E10 ; 0.0
128 ; 3850201.853251652 ; 2.009397445884562E8 ; 4.453719536448816E8 ; 2.4056431949334957E10 ; 0.0
129 ; 3849048.459270348 ; 2.009446154817561E8 ; 4.4922215549813324E8 ; 2.4257371693923412E10 ; 0.0
130 ; 3841070.7356016883 ; 2.0094947466572362E8 ; 4.530712039574036E8 ; 2.4458316309405167E10 ; 0.0
131 ; 3828296.18339455 ; 2.0095432203529924E8 ; 4.5691227469300526E8 ; 2.465926578407089E10 ; 0.0
132 ; 3823263.788870965 ; 2.009591574860474E8 ; 4.607405708763998E8 ; 2.4860220106106186E10 ; 0.0
133 ; 3810871.4035238107 ; 2.0096398091414276E8 ; 4.645638346652708E8 ; 2.506117926359223E10 ; 0.0
134 ; 3799136.0427392884 ; 2.009687922163572E8 ; 4.683747060687946E8 ; 2.5262143244506374E10 ; 0.0
135 ; 3785609.57235705 ; 2.009735912900473E8 ; 4.721738421115339E8 ; 2.5463112036722733E10 ; 0.0
136 ; 3773548.296895152 ; 2.009783780331425E8 ; 4.7595945168389094E8 ; 2.566408562801278E10 ; 0.0
137 ; 3766354.2775276364 ; 2.009831523441343E8 ; 4.797329999807861E8 ; 2.586506400604592E10 ; 0.0
138 ; 3754265.134699242 ; 2.009879141220653E8 ; 4.834993542583137E8 ; 2.6066047158390057E10 ; 0.0
139 ; 3745154.9666366284 ; 2.0099266326651958E8 ; 4.8725361939301294E8 ; 2.6267035072512123E10 ; 0.0
140 ; 3730900.713845077 ; 2.0099739967761296E8 ; 4.909987743596496E8 ; 2.6468027735778645E10 ; 0.0
141 ; 3720573.8611689247 ; 2.010021232559843E8 ; 4.947296750734947E8 ; 2.6669025135456257E10 ; 0.0
142 ; 3711090.3655229104 ; 2.0100683390278685E8 ; 4.984502489346636E8 ; 2.6870027258712242E10 ; 0.0
143 ; 3697203.551235033 ; 2.0101153151968026E8 ; 5.021613393001865E8 ; 2.707103409261503E10 ; 0.0
144 ; 3683531.867326903 ; 2.01016216008823E8 ; 5.0585854285142154E8 ; 2.727204562413471E10 ; 0.0
145 ; 3678439.921103349 ; 2.0102088727286515E8 ; 5.0954207471874845E8 ; 2.747306184014353E10 ; 0.0
146 ; 3675639.017777132 ; 2.0102554521494156E8 ; 5.132205146398518E8 ; 2.7674082727416397E10 ; 0.0
147 ; 3672209.484585484 ; 2.0103018973866546E8 ; 5.1689615365762895E8 ; 2.787510827263134E10 ; 0.0
148 ; 3668758.968040327 ; 2.010348207481222E8 ; 5.205683631422144E8 ; 2.8076138462370007E10 ; 0.0
149 ; 3659330.4365663715 ; 2.0103943814786363E8 ; 5.2423712211025476E8 ; 2.827717328311813E10 ; 0.0
150 ; 3656883.7131827823 ; 2.0104404184290257E8 ; 5.278964525468211E8 ; 2.8478212721265995E10 ; 0.0
151 ; 3652132.259833014 ; 2.0104863173870763E8 ; 5.315533362600039E8 ; 2.86792567631089E10 ; 0.0
152 ; 3646519.6068289364 ; 2.0105320774119824E8 ; 5.3520546851983696E8 ; 2.8880305394847607E10 ; 0.0
153 ; 3642593.4532607617 ; 2.0105776975674018E8 ; 5.38851988126666E8 ; 2.9081358602588806E10 ; 0.0
154 ; 3635878.6305400548 ; 2.0106231769214103E8 ; 5.424945815799267E8 ; 2.9282416372345547E10 ; 0.0
155 ; 3633950.5139842224 ; 2.010668514546462E8 ; 5.461304602104667E8 ; 2.948347869003769E10 ; 0.0
156 ; 3628287.9014200536 ; 2.0107137095193487E8 ; 5.49764410724451E8 ; 2.9684545541492336E10 ; 0.0
157 ; 3625930.934084082 ; 2.010758760921165E8 ; 5.53392698625871E8 ; 2.988561691244427E10 ; 0.0
158 ; 3618448.121633832 ; 2.0108036678372714E8 ; 5.57018629559955E8 ; 3.008669278853639E10 ; 0.0
159 ; 3611947.1146827517 ; 2.0108484293572623E8 ; 5.606370776815889E8 ; 3.0287773155320114E10 ; 0.0
160 ; 3607044.707791047 ; 2.0108930445749366E8 ; 5.642490247962717E8 ; 3.048885799825584E10 ; 0.0
161 ; 3603417.652116342 ; 2.010937512588266E8 ; 5.678560695040628E8 ; 3.0689947302713333E10 ; 0.0
162 ; 3596254.4946236135 ; 2.0109818324993703E8 ; 5.714594871561791E8 ; 3.089104105397216E10 ; 0.0
163 ; 3591186.4265688816 ; 2.0110260034144893E8 ; 5.750557416508027E8 ; 3.1092139237222095E10 ; 0.0
164 ; 3588789.5070200246 ; 2.01107002444396E8 ; 5.786469280773716E8 ; 3.1293241837563545E10 ; 0.0
165 ; 3580358.2171721845 ; 2.0111138947021937E8 ; 5.822357175843916E8 ; 3.1494348840007942E10 ; 0.0
166 ; 3577127.497988639 ; 2.0111576133076552E8 ; 5.858160758015637E8 ; 3.169546022947816E10 ; 0.0
167 ; 3572184.8970496655 ; 2.0112011793828413E8 ; 5.893932032995523E8 ; 3.1896575990808926E10 ; 0.0
168 ; 3565265.0514558507 ; 2.0112445920542642E8 ; 5.92965388196602E8 ; 3.209769610874721E10 ; 0.0
169 ; 3564271.7426021867 ; 2.011287850452433E8 ; 5.965306532480578E8 ; 3.2298820567952637E10 ; 0.0
170 ; 3557688.350307396 ; 2.011330953711837E8 ; 6.000949249906601E8 ; 3.249994935299788E10 ; 0.0
171 ; 3551292.749140501 ; 2.011373900970932E8 ; 6.036526133409674E8 ; 3.2701082448369064E10 ; 0.0
172 ; 3547901.288108988 ; 2.0114166913721254E8 ; 6.072039060901079E8 ; 3.2902219838466156E10 ; 0.0
173 ; 3542469.532198834 ; 2.011459324061764E8 ; 6.107518073782169E8 ; 3.3103361507603367E10 ; 0.0
174 ; 3540168.573156088 ; 2.0115017981901202E8 ; 6.142942769104156E8 ; 3.3304507440009544E10 ; 0.0
175 ; 3538532.290511789 ; 2.0115441129113832E8 ; 6.178344454835718E8 ; 3.3505657619828556E10 ; 0.0
176 ; 3531432.030820838 ; 2.0115862673836476E8 ; 6.213729777740836E8 ; 3.3706812031119694E10 ; 0.0
177 ; 3530636.0647132196 ; 2.011628260768904E8 ; 6.249044098049045E8 ; 3.390797065785806E10 ; 0.0
178 ; 3527485.6906322995 ; 2.0116700922330308E8 ; 6.284350458696177E8 ; 3.4109133483934948E10 ; 0.0
179 ; 3516907.658471107 ; 2.011711760945787E8 ; 6.3196253156025E8 ; 3.4310300493158253E10 ; 0.0
180 ; 3519276.8564232537 ; 2.0117532660808042E8 ; 6.354794392187212E8 ; 3.451147166925283E10 ; 0.0
181 ; 3514333.1994055826 ; 2.0117946068155807E8 ; 6.389987160751444E8 ; 3.471264699586091E10 ; 0.0
182 ; 3511388.730043866 ; 2.0118357823314768E8 ; 6.4251304927455E8 ; 3.4913826456542465E10 ; 0.0
183 ; 3504205.2804837497 ; 2.0118767918137082E8 ; 6.460244380045938E8 ; 3.511501003477561E10 ; 0.0
184 ; 3503201.876200791 ; 2.0119176344513434E8 ; 6.495286432850776E8 ; 3.5316197713956985E10 ; 0.0
185 ; 3501463.93982161 ; 2.0119583094372988E8 ; 6.530318451612784E8 ; 3.551738947740212E10 ; 0.0
186 ; 3500489.0428790883 ; 2.011998815968336E8 ; 6.565333091011E8 ; 3.5718585308345856E10 ; 0.0
187 ; 3494139.839599578 ; 2.0120391532450593E8 ; 6.600337981439791E8 ; 3.591978518994269E10 ; 0.0
188 ; 3489722.181973091 ; 2.0120793204719132E8 ; 6.635279379835787E8 ; 3.61209891052672E10 ; 0.0
189 ; 3489127.869377181 ; 2.0121193168571818E8 ; 6.670176601655518E8 ; 3.6322197037314384E10 ; 0.0
190 ; 3479505.006711697 ; 2.0121591416129863E8 ; 6.705067880349289E8 ; 3.65234089690001E10 ; 0.0
191 ; 3482734.3315258613 ; 2.0121987939552853E8 ; 6.739862930416406E8 ; 3.67246248831614E10 ; 0.0
192 ; 3474894.956833937 ; 2.0122382731038743E8 ; 6.774690273731664E8 ; 3.692584476255693E10 ; 0.0
193 ; 3473868.345100014 ; 2.0122775782823864E8 ; 6.809439223300004E8 ; 3.712706858986732E10 ; 0.0
194 ; 3468194.80731526 ; 2.0123167087182918E8 ; 6.844177906751004E8 ; 3.732829634769556E10 ; 0.0
195 ; 3464143.156504497 ; 2.0123556636428997E8 ; 6.878859854824157E8 ; 3.752952801856738E10 ; 0.0
196 ; 3461684.112030996 ; 2.0123944422913596E8 ; 6.913501286389202E8 ; 3.773076358493167E10 ; 0.0
197 ; 3460304.4233083837 ; 2.0124330439026624E8 ; 6.948118127509512E8 ; 3.7932003029160805E10 ; 0.0
198 ; 3456827.1786246705 ; 2.0124714677196428E8 ; 6.982721171742595E8 ; 3.813324633355107E10 ; 0.0
199 ; 3450955.8616735563 ; 2.012509712988982E8 ; 7.017289443528842E8 ; 3.833449348032304E10 ; 0.0
200 ; 3444221.626725433 ; 2.0125477789612097E8 ; 7.051799002145578E8 ; 3.853574445162193E10 ; 0.0
