CSV File for the City 2 on Day 80
1 - Minute m 
2 - Power Consumed at minute m 
3 - Power Produced at minute m 
4 - Energy Consumed since the beginning of the day 
5 - Energy Produced since the beginning of the day 
6 - Energy Lost since the beginning of the day on lines starting from the city
 
0 ; 1783898.6682333162 ; 1.0524887211880341E8 ; 0.0 ; 0.0 ; 0.0
1 ; 1785153.668404057 ; 1.0540284631655985E8 ; 1783898.6682333162 ; 1.0524887211880341E8 ; 0.0
2 ; 1787807.9210197972 ; 1.0586549774905398E8 ; 3569052.336637373 ; 2.1065171843536326E8 ; 0.0
3 ; 1789653.7491826613 ; 1.0663682682066786E8 ; 5356860.25765717 ; 3.1651721618441725E8 ; 0.0
4 ; 1792941.7651740538 ; 1.0771683389428842E8 ; 7146514.006839831 ; 4.231540430050851E8 ; 0.0
5 ; 1795939.4653110914 ; 1.0910551928913283E8 ; 8939455.772013886 ; 5.3087087689937353E8 ; 0.0
6 ; 1800739.1183921285 ; 1.1080288327879527E8 ; 1.0735395237324977E7 ; 6.399763961885064E8 ; 0.0
7 ; 1807243.667505055 ; 1.1280892608954322E8 ; 1.2536134355717106E7 ; 7.507792794673016E8 ; 0.0
8 ; 1816967.5115784868 ; 1.1512364789888775E8 ; 1.4343378023222161E7 ; 8.635882055568448E8 ; 0.0
9 ; 1831336.5056805534 ; 1.1774704883444822E8 ; 1.6160345534800649E7 ; 9.787118534557326E8 ; 0.0
10 ; 1851057.350280548 ; 1.2067912897312915E8 ; 1.7991682040481202E7 ; 1.0964589022901807E9 ; 0.0
11 ; 1885009.291110952 ; 1.2391988834062108E8 ; 1.984273939076175E7 ; 1.21713803126331E9 ; 0.0
12 ; 1939308.4983106945 ; 1.2746932691123345E8 ; 2.1727748681872703E7 ; 1.341057919603931E9 ; 0.0
13 ; 1991401.4039537928 ; 1.3132744460806173E8 ; 2.3667057180183396E7 ; 1.4685272465151644E9 ; 0.0
14 ; 1997756.3356354916 ; 1.3549424130348665E8 ; 2.565845858413719E7 ; 1.5998546911232262E9 ; 0.0
15 ; 2000631.194101849 ; 1.39969716819997E8 ; 2.765621491977268E7 ; 1.7353489324267128E9 ; 0.0
16 ; 2003143.8633325114 ; 1.4475387093132547E8 ; 2.965684611387453E7 ; 1.8753186492467098E9 ; 0.0
17 ; 2005100.0409348148 ; 1.4984670336387774E8 ; 3.165998997720704E7 ; 2.0200725201780353E9 ; 0.0
18 ; 2006629.4458792985 ; 1.552482137984367E8 ; 3.366509001814185E7 ; 2.169919223541913E9 ; 0.0
19 ; 2008974.7539001312 ; 1.609584018721154E8 ; 3.567171946402115E7 ; 2.3251674373403497E9 ; 0.0
20 ; 2012477.3676841923 ; 1.6697726718053177E8 ; 3.768069421792128E7 ; 2.4861258392124653E9 ; 0.0
21 ; 2014075.6190944207 ; 1.7330480928017613E8 ; 3.969317158560547E7 ; 2.6531031063929973E9 ; 0.0
22 ; 2016775.8301193358 ; 1.7994102769093943E8 ; 4.17072472046999E7 ; 2.8264079156731734E9 ; 0.0
23 ; 2019720.3997093637 ; 1.86885921898771E8 ; 4.372402303481923E7 ; 3.006348943364113E9 ; 0.0
24 ; 2021670.6161236903 ; 1.9413949135843313E8 ; 4.57437434345286E7 ; 3.1932348652628837E9 ; 0.0
25 ; 2024791.7452228826 ; 2.003897763945055E8 ; 4.776541405065229E7 ; 3.387374356621317E9 ; 0.0
26 ; 2027630.740426298 ; 2.0039032424113557E8 ; 4.979020579587517E7 ; 3.5877641330158224E9 ; 0.0
27 ; 2027963.8772838863 ; 2.0039090356980366E8 ; 5.1817836536301464E7 ; 3.788154457256958E9 ; 0.0
28 ; 2031517.1019823372 ; 2.0039151373893565E8 ; 5.384580041358535E7 ; 3.9885453608267617E9 ; 0.0
29 ; 2034283.3936786677 ; 2.0039215408994272E8 ; 5.587731751556769E7 ; 4.188936874565697E9 ; 0.0
30 ; 2036771.0208042848 ; 2.003928239499484E8 ; 5.7911600909246355E7 ; 4.38932902865564E9 ; 0.0
31 ; 2038217.0212961324 ; 2.00393522634428E8 ; 5.994837193005064E7 ; 4.589721852605588E9 ; 0.0
32 ; 2040100.1476816866 ; 2.003942494497444E8 ; 6.198658895134677E7 ; 4.790115375240016E9 ; 0.0
33 ; 2042939.4626320142 ; 2.0039500369556594E8 ; 6.402668909902845E7 ; 4.99050962468976E9 ; 0.0
34 ; 2045123.693783933 ; 2.003957846671554E8 ; 6.606962856166047E7 ; 5.190904628385326E9 ; 0.0
35 ; 2046895.6092122018 ; 2.00396591657522E8 ; 6.811475225544441E7 ; 5.391300413052482E9 ; 0.0
36 ; 2050393.0935612558 ; 2.0039742395942953E8 ; 7.016164786465661E7 ; 5.591697004710004E9 ; 0.0
37 ; 2051303.5668982684 ; 2.0039828086725816E8 ; 7.221204095821787E7 ; 5.792094428669434E9 ; 0.0
38 ; 2053216.7026397055 ; 2.0039916167871734E8 ; 7.426334452511615E7 ; 5.992492709536692E9 ; 0.0
39 ; 2053870.1430267682 ; 2.0040006569641048E8 ; 7.631656122775584E7 ; 6.192891871215409E9 ; 0.0
40 ; 2056572.2976573908 ; 2.0040099222925314E8 ; 7.837043137078261E7 ; 6.393291936911819E9 ; 0.0
41 ; 2058879.4113102823 ; 2.0040194059374857E8 ; 8.042700366844E7 ; 6.593692929141072E9 ; 0.0
42 ; 2058924.099626456 ; 2.0040291011512405E8 ; 8.248588307975028E7 ; 6.794094869734821E9 ; 0.0
43 ; 2061309.191477637 ; 2.004039001283345E8 ; 8.454480717937674E7 ; 6.994497779849945E9 ; 0.0
44 ; 2060759.6437042807 ; 2.0040490997893873E8 ; 8.660611637085438E7 ; 7.194901679978279E9 ; 0.0
45 ; 2064446.9778843005 ; 2.0040593902385578E8 ; 8.866687601455866E7 ; 7.395306589957218E9 ; 0.0
46 ; 2065204.6775097924 ; 2.004069866320077E8 ; 9.073132299244297E7 ; 7.595712528981074E9 ; 0.0
47 ; 2065377.022588511 ; 2.004080521848569E8 ; 9.279652766995277E7 ; 7.796119515613082E9 ; 0.0
48 ; 2066859.7455974917 ; 2.0040913507684502E8 ; 9.486190469254127E7 ; 7.996527567797939E9 ; 0.0
49 ; 2066443.648588964 ; 2.0041023471574128E8 ; 9.692876443813877E7 ; 8.196936702874784E9 ; 0.0
50 ; 2067124.3164440123 ; 2.0041135052290723E8 ; 9.899520808672774E7 ; 8.397346937590526E9 ; 0.0
51 ; 2069755.4910185367 ; 2.0041248193348557E8 ; 1.0106233240317175E8 ; 8.597758288113432E9 ; 0.0
52 ; 2069845.197128012 ; 2.0041362839651993E8 ; 1.0313208789419028E8 ; 8.798170770046917E9 ; 0.0
53 ; 2070684.970409882 ; 2.004147893750121E8 ; 1.052019330913183E8 ; 8.998584398443438E9 ; 0.0
54 ; 2071240.0647906635 ; 2.004159643459236E8 ; 1.0727261806172818E8 ; 9.198999187818449E9 ; 0.0
55 ; 2070869.172453879 ; 2.0041715280012715E8 ; 1.0934385812651885E8 ; 9.399415152164373E9 ; 0.0
56 ; 2071871.0050913324 ; 2.0041835424231413E8 ; 1.1141472729897273E8 ; 9.5998323049645E9 ; 0.0
57 ; 2072299.863887476 ; 2.0041956819086295E8 ; 1.1348659830406407E8 ; 9.800250659206814E9 ; 0.0
58 ; 2071837.145699278 ; 2.004207941776739E8 ; 1.1555889816795154E8 ; 1.0000670227397676E10 ; 0.0
59 ; 2074506.9892075213 ; 2.0042203174797434E8 ; 1.1763073531365082E8 ; 1.020109102157535E10 ; 0.0
60 ; 2074160.661559538 ; 2.004232804600989E8 ; 1.1970524230285834E8 ; 1.0401513053323324E10 ; 0.0
61 ; 2074385.0109772864 ; 2.0042453988524845E8 ; 1.2177940296441787E8 ; 1.0601936333783422E10 ; 0.0
62 ; 2075803.1758957447 ; 2.0042580960723135E8 ; 1.2385378797539516E8 ; 1.080236087366867E10 ; 0.0
63 ; 2075469.1765387068 ; 2.0042708922219005E8 ; 1.2592959115129091E8 ; 1.1002786683275902E10 ; 0.0
64 ; 2076297.8189495222 ; 2.0042837833831605E8 ; 1.2800506032782961E8 ; 1.1203213772498093E10 ; 0.0
65 ; 2074792.6549812483 ; 2.0042967657555598E8 ; 1.3008135814677913E8 ; 1.1403642150836409E10 ; 0.0
66 ; 2076537.1503745646 ; 2.0043098356531054E8 ; 1.3215615080176039E8 ; 1.1604071827411964E10 ; 0.0
67 ; 2075780.473410213 ; 2.0043229895012918E8 ; 1.3423268795213497E8 ; 1.1804502810977276E10 ; 0.0
68 ; 2076996.552248567 ; 2.0043362238340172E8 ; 1.363084684255452E8 ; 1.2004935109927404E10 ; 0.0
69 ; 2077207.964797171 ; 2.0043495352904874E8 ; 1.3838546497779375E8 ; 1.2205368732310806E10 ; 0.0
70 ; 2078598.1708530379 ; 2.004362920612123E8 ; 1.4046267294259092E8 ; 1.2405803685839855E10 ; 0.0
71 ; 2078582.0017290239 ; 2.00437637663948E8 ; 1.4254127111344397E8 ; 1.2606239977901068E10 ; 0.0
72 ; 2079025.3847953833 ; 2.0043899003091964E8 ; 1.4461985311517298E8 ; 1.2806677615565016E10 ; 0.0
73 ; 2077852.3668845296 ; 2.004403488650973E8 ; 1.4669887849996838E8 ; 1.3007116605595936E10 ; 0.0
74 ; 2079616.216345399 ; 2.004417138784598E8 ; 1.487767308668529E8 ; 1.3207556954461033E10 ; 0.0
75 ; 2079094.6887215723 ; 2.0044308479170194E8 ; 1.508563470831983E8 ; 1.3407998668339493E10 ; 0.0
76 ; 2079687.9361546745 ; 2.0044446133394724E8 ; 1.5293544177191988E8 ; 1.3608441753131195E10 ; 0.0
77 ; 2080134.6781002108 ; 2.0044584324246678E8 ; 1.5501512970807454E8 ; 1.3808886214465143E10 ; 0.0
78 ; 2078022.9554147474 ; 2.004472302624043E8 ; 1.5709526438617474E8 ; 1.400933205770761E10 ; 0.0
79 ; 2078613.931306538 ; 2.0044862214650783E8 ; 1.5917328734158948E8 ; 1.4209779287970013E10 ; 0.0
80 ; 2079350.3080399502 ; 2.0045001865486836E8 ; 1.6125190127289602E8 ; 1.441022791011652E10 ; 0.0
81 ; 2077909.0424392943 ; 2.004514195546655E8 ; 1.6333125158093598E8 ; 1.4610677928771389E10 ; 0.0
82 ; 2076270.7076028693 ; 2.0045282461992013E8 ; 1.6540916062337527E8 ; 1.4811129348326054E10 ; 0.0
83 ; 2076848.6852557587 ; 2.0045423363125443E8 ; 1.6748543133097813E8 ; 1.5011582172945974E10 ; 0.0
84 ; 2076879.1850161932 ; 2.0045564637565917E8 ; 1.695622800162339E8 ; 1.5212036406577229E10 ; 0.0
85 ; 2074386.910316018 ; 2.0045706264626798E8 ; 1.7163915920125008E8 ; 1.5412492052952888E10 ; 0.0
86 ; 2074872.2746772626 ; 2.004584822421392E8 ; 1.737135461115661E8 ; 1.5612949115599157E10 ; 0.0
87 ; 2070993.147289051 ; 2.0045990496804443E8 ; 1.7578841838624337E8 ; 1.5813407597841297E10 ; 0.0
88 ; 2073113.9849045246 ; 2.004613306342644E8 ; 1.778594115335324E8 ; 1.6013867502809341E10 ; 0.0
89 ; 2071807.0313557691 ; 2.0046275905639172E8 ; 1.7993252551843694E8 ; 1.6214328833443605E10 ; 0.0
90 ; 2071616.4672585097 ; 2.0046419005514023E8 ; 1.820043325497927E8 ; 1.6414791592499996E10 ; 0.0
91 ; 2070562.6812067733 ; 2.004656234561613E8 ; 1.8407594901705122E8 ; 1.6615255782555136E10 ; 0.0
92 ; 2069058.2540078633 ; 2.004670590898663E8 ; 1.8614651169825798E8 ; 1.6815721406011297E10 ; 0.0
93 ; 2069572.6681734014 ; 2.0046849679125592E8 ; 1.8821556995226586E8 ; 1.7016188465101164E10 ; 0.0
94 ; 2068800.7646927042 ; 2.0046993639975503E8 ; 1.9028514262043926E8 ; 1.7216656961892418E10 ; 0.0
95 ; 2067231.6245647157 ; 2.0047137775905415E8 ; 1.9235394338513196E8 ; 1.741712689829217E10 ; 0.0
96 ; 2067366.8611855858 ; 2.0047282071695635E8 ; 1.9442117500969666E8 ; 1.7617598276051224E10 ; 0.0
97 ; 2065341.9718214879 ; 2.0047426512523016E8 ; 1.9648854187088224E8 ; 1.781807109676818E10 ; 0.0
98 ; 2065188.6545726624 ; 2.0047571083946773E8 ; 1.9855388384270373E8 ; 1.801854536189341E10 ; 0.0
99 ; 2064045.0969120008 ; 2.0047715771894845E8 ; 2.006190724972764E8 ; 1.8219021072732876E10 ; 0.0
100 ; 2064006.404596501 ; 2.0047860562650758E8 ; 2.026831175941884E8 ; 1.8419498230451824E10 ; 0.0
101 ; 2061909.6940526348 ; 2.0048005442841014E8 ; 2.047471239987849E8 ; 1.861997683607833E10 ; 0.0
102 ; 2060188.8076995907 ; 2.004815039942293E8 ; 2.0680903369283754E8 ; 1.882045689050674E10 ; 0.0
103 ; 2059502.9140620679 ; 2.004829541967296E8 ; 2.0886922250053713E8 ; 1.902093839450097E10 ; 0.0
104 ; 2059290.6037067098 ; 2.004844049117546E8 ; 2.1092872541459918E8 ; 1.9221421348697697E10 ; 0.0
105 ; 2058110.146215316 ; 2.004858560181189E8 ; 2.129880160183059E8 ; 1.942190575360945E10 ; 0.0
106 ; 2057140.3532954569 ; 2.004873073975041E8 ; 2.1504612616452122E8 ; 1.962239160962757E10 ; 0.0
107 ; 2056230.1975078858 ; 2.0048875893435916E8 ; 2.1710326651781666E8 ; 1.9822878917025074E10 ; 0.0
108 ; 2053705.3091975711 ; 2.0049021051580432E8 ; 2.1915949671532455E8 ; 2.0023367675959435E10 ; 0.0
109 ; 2052700.5482744907 ; 2.0049166203153864E8 ; 2.2121320202452213E8 ; 2.022385788647524E10 ; 0.0
110 ; 2052410.1291818395 ; 2.0049311337375155E8 ; 2.232659025727966E8 ; 2.042434954850678E10 ; 0.0
111 ; 2050999.2538083193 ; 2.0049456443703738E8 ; 2.2531831270197845E8 ; 2.062484266188053E10 ; 0.0
112 ; 2050793.122480621 ; 2.004960151183135E8 ; 2.2736931195578676E8 ; 2.082533722631757E10 ; 0.0
113 ; 2049797.6478770943 ; 2.0049746531674132E8 ; 2.294201050782674E8 ; 2.1025833241435883E10 ; 0.0
114 ; 2048363.8908372414 ; 2.0049891493365076E8 ; 2.314699027261445E8 ; 2.1226330706752625E10 ; 0.0
115 ; 2046954.7808445801 ; 2.005003638724673E8 ; 2.3351826661698174E8 ; 2.1426829621686275E10 ; 0.0
116 ; 2047005.4753874938 ; 2.00501812038642E8 ; 2.355652213978263E8 ; 2.1627329985558743E10 ; 0.0
117 ; 2043997.7202689615 ; 2.0050325933958408E8 ; 2.376122268732138E8 ; 2.1827831797597385E10 ; 0.0
118 ; 2042849.072774776 ; 2.0050470568459633E8 ; 2.3965622459348276E8 ; 2.202833505693697E10 ; 0.0
119 ; 2040721.4441418448 ; 2.0050615098481292E8 ; 2.4169907366625753E8 ; 2.2228839762621567E10 ; 0.0
120 ; 2040375.3812178515 ; 2.0050759515313938E8 ; 2.4373979511039937E8 ; 2.242934591360638E10 ; 0.0
121 ; 2037287.7976057418 ; 2.005090381041953E8 ; 2.457801704916172E8 ; 2.262985350875952E10 ; 0.0
122 ; 2038347.8043815712 ; 2.0051047975425875E8 ; 2.4781745828922296E8 ; 2.2830362546863716E10 ; 0.0
123 ; 2036245.3496703336 ; 2.0051192002121332E8 ; 2.4985580609360453E8 ; 2.3030873026617973E10 ; 0.0
124 ; 2035097.9265781913 ; 2.0051335882449678E8 ; 2.5189205144327486E8 ; 2.3231384946639187E10 ; 0.0
125 ; 2031674.208885456 ; 2.005147960850518E8 ; 2.5392714936985305E8 ; 2.3431898305463684E10 ; 0.0
126 ; 2030993.4924099992 ; 2.0051623172527888E8 ; 2.559588235787385E8 ; 2.3632413101548737E10 ; 0.0
127 ; 2030286.925085777 ; 2.0051766566899037E8 ; 2.579898170711485E8 ; 2.3832929333274017E10 ; 0.0
128 ; 2028662.9329522331 ; 2.00519097841367E8 ; 2.600201039962343E8 ; 2.403344699894301E10 ; 0.0
129 ; 2028888.2460550796 ; 2.005205281689155E8 ; 2.6204876692918652E8 ; 2.4233966096784374E10 ; 0.0
130 ; 2025418.1065092115 ; 2.0052195657942808E8 ; 2.640776551752416E8 ; 2.443448662495329E10 ; 0.0
131 ; 2024312.346783715 ; 2.0052338300194326E8 ; 2.661030732817508E8 ; 2.463500858153272E10 ; 0.0
132 ; 2021349.6488415601 ; 2.0052480736670843E8 ; 2.6812738562853453E8 ; 2.483553196453466E10 ; 0.0
133 ; 2019233.0070496716 ; 2.005262296051435E8 ; 2.701487352773761E8 ; 2.5036056771901367E10 ; 0.0
134 ; 2016182.6257026175 ; 2.005276496498061E8 ; 2.721679682844258E8 ; 2.523658300150651E10 ; 0.0
135 ; 2016212.3509134888 ; 2.0052906743435812E8 ; 2.741841509101284E8 ; 2.543711065115632E10 ; 0.0
136 ; 2012330.4048965056 ; 2.0053048289353323E8 ; 2.762003632610419E8 ; 2.5637639718590675E10 ; 0.0
137 ; 2009690.914734199 ; 2.005318959631058E8 ; 2.782126936659384E8 ; 2.5838170201484207E10 ; 0.0
138 ; 2006808.930303004 ; 2.0053330657986102E8 ; 2.8022238458067256E8 ; 2.603870209744731E10 ; 0.0
139 ; 2006047.4634654156 ; 2.0053471468156594E8 ; 2.8222919351097554E8 ; 2.6239235404027172E10 ; 0.0
140 ; 2002628.7407560886 ; 2.0053612020694175E8 ; 2.8423524097444093E8 ; 2.6439770118708736E10 ; 0.0
141 ; 1999876.3583515473 ; 2.0053752309563679E8 ; 2.86237869715197E8 ; 2.664030623891568E10 ; 0.0
142 ; 1999282.74491236 ; 2.005389232882009E8 ; 2.8823774607354856E8 ; 2.684084376201132E10 ; 0.0
143 ; 1996849.3842412543 ; 2.0054032072606054E8 ; 2.9023702881846094E8 ; 2.704138268529952E10 ; 0.0
144 ; 1993306.5835013208 ; 2.0054171535149464E8 ; 2.922338782027022E8 ; 2.7241923006025578E10 ; 0.0
145 ; 1991079.8526364134 ; 2.005431071076116E8 ; 2.9422718478620356E8 ; 2.744246472137707E10 ; 0.0
146 ; 1989920.9396393825 ; 2.0054449593832698E8 ; 2.9621826463883996E8 ; 2.7643007828484684E10 ; 0.0
147 ; 1987655.5965218798 ; 2.0054588178834203E8 ; 2.9820818557847935E8 ; 2.784355232442301E10 ; 0.0
148 ; 1988097.916750744 ; 2.0054726460312286E8 ; 3.001958411750012E8 ; 2.8044098206211353E10 ; 0.0
149 ; 1985572.390687609 ; 2.0054864432888058E8 ; 3.0218393909175193E8 ; 2.8244645470814476E10 ; 0.0
150 ; 1983133.0302013261 ; 2.005500209125519E8 ; 3.041695114824395E8 ; 2.8445194115143356E10 ; 0.0
151 ; 1981168.8775100494 ; 2.005513943017807E8 ; 3.0615264451264083E8 ; 2.864574413605591E10 ; 0.0
152 ; 1981288.872300604 ; 2.0055276444489992E8 ; 3.081338133901509E8 ; 2.884629553035769E10 ; 0.0
153 ; 1978069.7887874285 ; 2.0055413129091427E8 ; 3.101151022624515E8 ; 2.904684829480259E10 ; 0.0
154 ; 1976878.9974161896 ; 2.0055549478948364E8 ; 3.1209317205123895E8 ; 2.9247402426093502E10 ; 0.0
155 ; 1976135.364015829 ; 2.0055685489090693E8 ; 3.1407005104865515E8 ; 2.9447957920882984E10 ; 0.0
156 ; 1973941.3924749258 ; 2.0055821154610643E8 ; 3.1604618641267097E8 ; 2.964851477577389E10 ; 0.0
157 ; 1972084.9810704063 ; 2.0055956470661286E8 ; 3.180201278051459E8 ; 2.984907298732E10 ; 0.0
158 ; 1970180.0452299817 ; 2.0056091432455087E8 ; 3.199922127862163E8 ; 3.004963255202661E10 ; 0.0
159 ; 1968735.053201877 ; 2.0056226035262498E8 ; 3.219623928314463E8 ; 3.0250193466351162E10 ; 0.0
160 ; 1965992.6674813493 ; 2.0056360274410623E8 ; 3.2393112788464814E8 ; 3.045075572670379E10 ; 0.0
161 ; 1965263.0006748182 ; 2.0056494145281887E8 ; 3.258971205521295E8 ; 3.0651319329447895E10 ; 0.0
162 ; 1963614.0260803662 ; 2.0056627643312797E8 ; 3.2786238355280435E8 ; 3.0851884270900715E10 ; 0.0
163 ; 1961904.668274839 ; 2.005676076399272E8 ; 3.298259975788847E8 ; 3.1052450547333843E10 ; 0.0
164 ; 1960663.4384052318 ; 2.0056893502862698E8 ; 3.3178790224715954E8 ; 3.125301815497377E10 ; 0.0
165 ; 1957846.172411998 ; 2.0057025855514315E8 ; 3.3374856568556476E8 ; 3.1453587090002396E10 ; 0.0
166 ; 1956387.4142264312 ; 2.005715781758861E8 ; 3.3570641185797673E8 ; 3.1654157348557537E10 ; 0.0
167 ; 1955369.7988821378 ; 2.0057289384774995E8 ; 3.3766279927220315E8 ; 3.185472892673342E10 ; 0.0
168 ; 1952798.5278604692 ; 2.0057420552810252E8 ; 3.396181690710853E8 ; 3.2055301820581173E10 ; 0.0
169 ; 1949719.9815376964 ; 2.005755131747752E8 ; 3.4157096759894574E8 ; 3.2255876026109276E10 ; 0.0
170 ; 1949811.4967950094 ; 2.0057681674605367E8 ; 3.4352068758048344E8 ; 3.245645153928405E10 ; 0.0
171 ; 1948179.0420140876 ; 2.005781162006682E8 ; 3.4547049907727844E8 ; 3.26570283560301E10 ; 0.0
172 ; 1945830.9802375967 ; 2.005794114977851E8 ; 3.474186781192925E8 ; 3.285760647223077E10 ; 0.0
173 ; 1942562.6795101573 ; 2.005807025969979E8 ; 3.493645090995301E8 ; 3.3058185883728554E10 ; 0.0
174 ; 1944688.3041634953 ; 2.0058198945831892E8 ; 3.513070717790403E8 ; 3.325876658632555E10 ; 0.0
175 ; 1941086.2536581103 ; 2.0058327204217133E8 ; 3.532517600832038E8 ; 3.345934857578387E10 ; 0.0
176 ; 1941638.3914831781 ; 2.0058455030938113E8 ; 3.551928463368619E8 ; 3.3659931847826042E10 ; 0.0
177 ; 1940995.1348485216 ; 2.0058582422116974E8 ; 3.571344847283451E8 ; 3.386051639813542E10 ; 0.0
178 ; 1938411.1508494597 ; 2.0058709373914656E8 ; 3.5907547986319363E8 ; 3.406110222235659E10 ; 0.0
179 ; 1937374.156967031 ; 2.00588358825302E8 ; 3.610138910140431E8 ; 3.4261689316095737E10 ; 0.0
180 ; 1935466.8042794964 ; 2.0058961944200045E8 ; 3.6295126517101014E8 ; 3.4462277674921036E10 ; 0.0
181 ; 1934682.4511847654 ; 2.0059087555197382E8 ; 3.6488673197528964E8 ; 3.466286729436304E10 ; 0.0
182 ; 1933368.545081074 ; 2.0059212711831504E8 ; 3.668214144264744E8 ; 3.486345816991501E10 ; 0.0
183 ; 1932100.665984898 ; 2.0059337410447177E8 ; 3.687547829715555E8 ; 3.5064050297033325E10 ; 0.0
184 ; 1931447.249919885 ; 2.0059461647424057E8 ; 3.7068688363754034E8 ; 3.5264643671137794E10 ; 0.0
185 ; 1931069.1810018658 ; 2.0059585419176093E8 ; 3.7261833088746023E8 ; 3.546523828761204E10 ; 0.0
186 ; 1929398.9435948604 ; 2.005970872215096E8 ; 3.745494000684621E8 ; 3.5665834141803795E10 ; 0.0
187 ; 1926688.8211801576 ; 2.0059831552829537E8 ; 3.7647879901205695E8 ; 3.586643122902531E10 ; 0.0
188 ; 1926582.7713351692 ; 2.0059953907725352E8 ; 3.784054878332371E8 ; 3.6067029544553604E10 ; 0.0
189 ; 1925933.019450432 ; 2.0060075783384082E8 ; 3.803320706045723E8 ; 3.626762908363086E10 ; 0.0
190 ; 1926030.021726613 ; 2.006019717638306E8 ; 3.822580036240227E8 ; 3.64682298414647E10 ; 0.0
191 ; 1923233.1614039366 ; 2.0060318083330798E8 ; 3.8418403364574933E8 ; 3.666883181322853E10 ; 0.0
192 ; 1922076.0230809075 ; 2.006043850086651E8 ; 3.861072668071533E8 ; 3.686943499406184E10 ; 0.0
193 ; 1920697.7083607113 ; 2.0060558425659677E8 ; 3.8802934283023417E8 ; 3.70700393790705E10 ; 0.0
194 ; 1920844.6133528985 ; 2.0060677854409596E8 ; 3.899500405385949E8 ; 3.72706449633271E10 ; 0.0
195 ; 1919146.1172233429 ; 2.006079678384498E8 ; 3.918708851519478E8 ; 3.74712517418712E10 ; 0.0
196 ; 1918520.2254876816 ; 2.0060915210723525E8 ; 3.937900312691711E8 ; 3.767185970970965E10 ; 0.0
197 ; 1917036.7973316968 ; 2.0061033131831533E8 ; 3.957085514946588E8 ; 3.787246886181689E10 ; 0.0
198 ; 1915777.0364805919 ; 2.0061150543983516E8 ; 3.976255882919905E8 ; 3.80730791931352E10 ; 0.0
199 ; 1913610.3428564242 ; 2.0061267444021836E8 ; 3.995413653284711E8 ; 3.8273690698575035E10 ; 0.0
