CSV File for the City 4 on Day 121
1 - Minute m 
2 - Power Consumed at minute m 
3 - Power Produced at minute m 
4 - Energy Consumed since the beginning of the day 
5 - Energy Produced since the beginning of the day 
6 - Energy Lost since the beginning of the day on lines starting from the city
 
0 ; 6898763.278542062 ; 1.0626375257534882E8 ; 0.0 ; 0.0 ; 0.0
1 ; 6909939.3871934805 ; 1.06414324084678E8 ; 6898763.278542062 ; 1.0626375257534882E8 ; 0.0
2 ; 6918883.131713637 ; 1.0687392060088679E8 ; 1.3808702665735543E7 ; 2.1267807666002682E8 ; 0.0
3 ; 6926890.645445732 ; 1.0764254592288166E8 ; 2.072758579744918E7 ; 3.195519972609136E8 ; 0.0
4 ; 6935211.29134214 ; 1.0872020345153594E8 ; 2.7654476442894913E7 ; 4.271945431837953E8 ; 0.0
5 ; 6951369.150377159 ; 1.1010689617207599E8 ; 3.458968773423705E7 ; 5.359147466353312E8 ; 0.0
6 ; 6965975.034068794 ; 1.1180262663834468E8 ; 4.1541056884614214E7 ; 6.460216428074071E8 ; 0.0
7 ; 6989156.583133476 ; 1.1380739695913428E8 ; 4.850703191868301E7 ; 7.578242694457518E8 ; 0.0
8 ; 7021781.426291011 ; 1.1612120878675723E8 ; 5.549618850181648E7 ; 8.71631666404886E8 ; 0.0
9 ; 7072365.826460505 ; 1.187440633080005E8 ; 6.251796992810749E7 ; 9.877528751916432E8 ; 0.0
10 ; 7150256.520252762 ; 1.2167596123757905E8 ; 6.9590335754568E7 ; 1.1064969384996438E9 ; 0.0
11 ; 7275672.804750854 ; 1.2491690281417337E8 ; 7.674059227482076E7 ; 1.228172899737223E9 ; 0.0
12 ; 7472937.851778124 ; 1.2846688779910293E8 ; 8.401626507957162E7 ; 1.3530898025513964E9 ; 0.0
13 ; 7666284.130964569 ; 1.3232591547765279E8 ; 9.148920293134974E7 ; 1.4815566903504994E9 ; 0.0
14 ; 7687362.44510439 ; 1.3649398466303605E8 ; 9.91554870623143E7 ; 1.6138826058281522E9 ; 0.0
15 ; 7696951.352255244 ; 1.4097109370294017E8 ; 1.0684284950741869E8 ; 1.7503765904911883E9 ; 0.0
16 ; 7706955.474520582 ; 1.4575724048857298E8 ; 1.1453980085967393E8 ; 1.8913476841941285E9 ; 0.0
17 ; 7715548.603406522 ; 1.5085242246609154E8 ; 1.2224675633419451E8 ; 2.0371049246827016E9 ; 0.0
18 ; 7723902.745905409 ; 1.562566366502695E8 ; 1.2996230493760103E8 ; 2.187957347148793E9 ; 0.0
19 ; 7736565.826094724 ; 1.6196987964023355E8 ; 1.3768620768350643E8 ; 2.3442139837990627E9 ; 0.0
20 ; 7744570.421249122 ; 1.6799214763707718E8 ; 1.4542277350960115E8 ; 2.5061838634392962E9 ; 0.0
21 ; 7752364.577138604 ; 1.7432343646314308E8 ; 1.5316734393085027E8 ; 2.6741760110763736E9 ; 0.0
22 ; 7763519.350925174 ; 1.809637415827526E8 ; 1.6091970850798887E8 ; 2.8484994475395164E9 ; 0.0
23 ; 7770187.094516302 ; 1.8791305812415087E8 ; 1.6868322785891405E8 ; 3.029463189122269E9 ; 0.0
24 ; 7782825.217742969 ; 1.951713809024338E8 ; 1.7645341495343035E8 ; 3.21737624724642E9 ; 0.0
25 ; 7790673.542763236 ; 2.014267453414036E8 ; 1.8423624017117333E8 ; 3.412547628148854E9 ; 0.0
26 ; 7801344.002147246 ; 2.0143269353465164E8 ; 1.9202691371393657E8 ; 3.6139743734902573E9 ; 0.0
27 ; 7811010.382573785 ; 2.0143898879493865E8 ; 1.9982825771608382E8 ; 3.815407067024909E9 ; 0.0
28 ; 7820001.991327453 ; 2.0144562492552036E8 ; 2.076392680986576E8 ; 4.0168460558198476E9 ; 0.0
29 ; 7827694.3846100345 ; 2.0145259553782165E8 ; 2.1545927008998507E8 ; 4.218291680745368E9 ; 0.0
30 ; 7839401.233090879 ; 2.0145989407555562E8 ; 2.232869644745951E8 ; 4.41974427628319E9 ; 0.0
31 ; 7844147.895897745 ; 2.0146751383836433E8 ; 2.3112636570768598E8 ; 4.621204170358746E9 ; 0.0
32 ; 7851866.096317696 ; 2.0147544800483075E8 ; 2.3897051360358372E8 ; 4.82267168419711E9 ; 0.0
33 ; 7862137.465160279 ; 2.0148368965473035E8 ; 2.4682237969990143E8 ; 5.024147132201941E9 ; 0.0
34 ; 7873303.217010589 ; 2.0149223179040968E8 ; 2.546845171650617E8 ; 5.225630821856671E9 ; 0.0
35 ; 7877343.873596673 ; 2.0150106735719836E8 ; 2.625578203820723E8 ; 5.427123053647081E9 ; 0.0
36 ; 7886170.875332948 ; 2.0151018926277918E8 ; 2.70435164255669E8 ; 5.62862412100428E9 ; 0.0
37 ; 7895382.523038148 ; 2.0151959039545882E8 ; 2.7832133513100195E8 ; 5.830134310267059E9 ; 0.0
38 ; 7905049.535208146 ; 2.0152926364129788E8 ; 2.862167176540401E8 ; 6.0316539006625185E9 ; 0.0
39 ; 7907943.050622508 ; 2.015392019000751E8 ; 2.9412176718924826E8 ; 6.233183164303817E9 ; 0.0
40 ; 7913817.173272348 ; 2.0154939810007384E8 ; 3.020297102398708E8 ; 6.434722366203892E9 ; 0.0
41 ; 7923281.479620934 ; 2.0155984521169215E8 ; 3.0994352741314316E8 ; 6.636271764303966E9 ; 0.0
42 ; 7927221.9030816145 ; 2.0157053625988892E8 ; 3.178668088927641E8 ; 6.837831609515657E9 ; 0.0
43 ; 7927812.240011429 ; 2.0158146433548784E8 ; 3.257940307958457E8 ; 7.039402145775546E9 ; 0.0
44 ; 7924734.528720937 ; 2.0159262260537028E8 ; 3.3372184303585714E8 ; 7.240983610111034E9 ; 0.0
45 ; 7921150.37141002 ; 2.0160400432159355E8 ; 3.4164657756457806E8 ; 7.442576232716405E9 ; 0.0
46 ; 7915944.946451822 ; 2.016156028294784E8 ; 3.4956772793598807E8 ; 7.644180237037998E9 ; 0.0
47 ; 7913535.013223622 ; 2.0162741157471272E8 ; 3.574836728824399E8 ; 7.845795839867476E9 ; 0.0
48 ; 7908168.762154813 ; 2.0163942410952222E8 ; 3.6539720789566356E8 ; 8.047423251442189E9 ; 0.0
49 ; 7902257.947811219 ; 2.0165163409796137E8 ; 3.733053766578184E8 ; 8.249062675551711E9 ; 0.0
50 ; 7895803.96065715 ; 2.0166403532037872E8 ; 3.812076346056296E8 ; 8.4507143096496725E9 ; 0.0
51 ; 7889856.206345229 ; 2.0167662167711207E8 ; 3.891034385662868E8 ; 8.65237834497005E9 ; 0.0
52 ; 7886308.91267062 ; 2.0168938719146788E8 ; 3.96993294772632E8 ; 8.854054966647163E9 ; 0.0
53 ; 7879637.167124598 ; 2.0170232601204008E8 ; 4.048796036853026E8 ; 9.05574435383863E9 ; 0.0
54 ; 7874019.893307853 ; 2.0171543241442046E8 ; 4.127592408524272E8 ; 9.25744667985067E9 ; 0.0
55 ; 7864715.552063174 ; 2.0172870080235323E8 ; 4.2063326074573505E8 ; 9.45916211226509E9 ; 0.0
56 ; 7860811.183851768 ; 2.0174212570838287E8 ; 4.284979762977982E8 ; 9.660890813067444E9 ; 0.0
57 ; 7856657.817485273 ; 2.01755701794043E8 ; 4.3635878748165E8 ; 9.862632938775827E9 ; 0.0
58 ; 7850091.685742894 ; 2.0176942384963197E8 ; 4.4421544529913527E8 ; 1.006438864056987E10 ; 0.0
59 ; 7845538.762932536 ; 2.0178328679361758E8 ; 4.520655369848782E8 ; 1.0266158064419502E10 ; 0.0
60 ; 7836763.365497111 ; 2.017972856717116E8 ; 4.599110757478107E8 ; 1.046794135121312E10 ; 0.0
61 ; 7832184.683389219 ; 2.0181141565565184E8 ; 4.6774783911330783E8 ; 1.066973863688483E10 ; 0.0
62 ; 7821668.413072084 ; 2.018256720417273E8 ; 4.755800237966971E8 ; 1.0871550052540482E10 ; 0.0
63 ; 7820529.03861478 ; 2.018400502490786E8 ; 4.834016922097692E8 ; 1.1073375724582209E10 ; 0.0
64 ; 7808533.341448114 ; 2.0185454581780472E8 ; 4.91222221248384E8 ; 1.1275215774831287E10 ; 0.0
65 ; 7806771.7727611065 ; 2.0186915440690345E8 ; 4.990307545898321E8 ; 1.1477070320649092E10 ; 0.0
66 ; 7799854.910104159 ; 2.0188387179207146E8 ; 5.0683752636259323E8 ; 1.1678939475055996E10 ; 0.0
67 ; 7793611.629248692 ; 2.0189869386338744E8 ; 5.146373812726974E8 ; 1.1880823346848068E10 ; 0.0
68 ; 7784304.04506832 ; 2.0191361662289914E8 ; 5.2243099290194607E8 ; 1.2082722040711456E10 ; 0.0
69 ; 7777811.499377765 ; 2.0192863618213466E8 ; 5.302152969470144E8 ; 1.2284635657334356E10 ; 0.0
70 ; 7774879.650809458 ; 2.0194374875955454E8 ; 5.379931084463922E8 ; 1.248656429351649E10 ; 0.0
71 ; 7764320.03429843 ; 2.0195895067796072E8 ; 5.457679880972016E8 ; 1.2688508042276045E10 ; 0.0
72 ; 7759569.627188424 ; 2.0197423836187705E8 ; 5.535323081315E8 ; 1.2890466992954006E10 ; 0.0
73 ; 7749089.973039836 ; 2.0198960833491293E8 ; 5.612918777586884E8 ; 1.3092441231315884E10 ; 0.0
74 ; 7743550.3187149465 ; 2.0200505721712217E8 ; 5.690409677317283E8 ; 1.3294430839650797E10 ; 0.0
75 ; 7737521.929469136 ; 2.0202058172236684E8 ; 5.767845180504433E8 ; 1.349643589686792E10 ; 0.0
76 ; 7729011.296310569 ; 2.0203617865569443E8 ; 5.845220399799124E8 ; 1.3698456478590286E10 ; 0.0
77 ; 7723920.267339704 ; 2.0205184491073644E8 ; 5.92251051276223E8 ; 1.3900492657245981E10 ; 0.0
78 ; 7714099.6002888875 ; 2.020675774671349E8 ; 5.999749715435627E8 ; 1.4102544502156717E10 ; 0.0
79 ; 7703397.202108388 ; 2.0208337338800263E8 ; 6.076890711438515E8 ; 1.4304612079623852E10 ; 0.0
80 ; 7694331.627644332 ; 2.0209922981742197E8 ; 6.153924683459599E8 ; 1.4506695453011854E10 ; 0.0
81 ; 7683661.938618476 ; 2.0211514397798648E8 ; 6.230867999736042E8 ; 1.4708794682829277E10 ; 0.0
82 ; 7673951.514239305 ; 2.0213111316838884E8 ; 6.307704619122226E8 ; 1.4910909826807264E10 ; 0.0
83 ; 7664937.515344721 ; 2.021471347610581E8 ; 6.384444134264619E8 ; 1.5113040939975653E10 ; 0.0
84 ; 7654653.421558888 ; 2.0216320619984838E8 ; 6.461093509418067E8 ; 1.5315188074736712E10 ; 0.0
85 ; 7645608.603384691 ; 2.0217932499778116E8 ; 6.537640043633655E8 ; 1.551735128093656E10 ; 0.0
86 ; 7635667.37285865 ; 2.021954887348423E8 ; 6.614096129667503E8 ; 1.5719530605934341E10 ; 0.0
87 ; 7622004.842360618 ; 2.0221169505583507E8 ; 6.690452803396089E8 ; 1.5921726094669184E10 ; 0.0
88 ; 7613362.470132161 ; 2.0222794166828984E8 ; 6.766672851819695E8 ; 1.612393778972502E10 ; 0.0
89 ; 7601418.909919892 ; 2.0224422634043065E8 ; 6.842806476521016E8 ; 1.6326165731393309E10 ; 0.0
90 ; 7593659.249433101 ; 2.0226054689919907E8 ; 6.918820665620215E8 ; 1.652840995773374E10 ; 0.0
91 ; 7582368.4514372265 ; 2.0227690122833496E8 ; 6.994757258114547E8 ; 1.6730670504632938E10 ; 0.0
92 ; 7574810.874858848 ; 2.02293287266514E8 ; 7.070580942628919E8 ; 1.6932947405861273E10 ; 0.0
93 ; 7561241.772551482 ; 2.0230970300554153E8 ; 7.146329051377507E8 ; 1.7135240693127787E10 ; 0.0
94 ; 7551133.610875654 ; 2.0232614648860168E8 ; 7.221941469103023E8 ; 1.7337550396133327E10 ; 0.0
95 ; 7539515.848808712 ; 2.0234261580856168E8 ; 7.297452805211779E8 ; 1.753987654262193E10 ; 0.0
96 ; 7530185.837583847 ; 2.0235910910632986E8 ; 7.372847963699867E8 ; 1.7742219158430492E10 ; 0.0
97 ; 7520167.268229348 ; 2.0237562456926653E8 ; 7.448149822075706E8 ; 1.7944578267536823E10 ; 0.0
98 ; 7506619.552391022 ; 2.0239216042964694E8 ; 7.523351494757999E8 ; 1.814695389210609E10 ; 0.0
99 ; 7494698.221226258 ; 2.024087149631749E8 ; 7.59841769028191E8 ; 1.8349346052535736E10 ; 0.0
100 ; 7487677.12920258 ; 2.0242528648754594E8 ; 7.673364672494172E8 ; 1.8551754767498913E10 ; 0.0
101 ; 7474229.126033571 ; 2.0244187336105892E8 ; 7.748241443786198E8 ; 1.8754180053986458E10 ; 0.0
102 ; 7463959.855532365 ; 2.0245847398127484E8 ; 7.822983735046533E8 ; 1.8956621927347515E10 ; 0.0
103 ; 7452166.946757169 ; 2.0247508678372145E8 ; 7.897623333601857E8 ; 1.915908040132879E10 ; 0.0
104 ; 7440571.72057021 ; 2.0249171024064252E8 ; 7.972145003069429E8 ; 1.936155548811251E10 ; 0.0
105 ; 7429431.2707810635 ; 2.0250834285979038E8 ; 8.046550720275131E8 ; 1.9564047198353153E10 ; 0.0
106 ; 7417767.868971724 ; 2.025249831832609E8 ; 8.120845032982942E8 ; 1.9766555541212944E10 ; 0.0
107 ; 7405985.779526049 ; 2.0254162978636864E8 ; 8.195022711672659E8 ; 1.9969080524396206E10 ; 0.0
108 ; 7393415.343538574 ; 2.0255828127656215E8 ; 8.269082569467919E8 ; 2.0171622154182575E10 ; 0.0
109 ; 7384530.415531955 ; 2.0257493629237732E8 ; 8.343016722903304E8 ; 2.0374180435459137E10 ; 0.0
110 ; 7373466.995389474 ; 2.0259159350242767E8 ; 8.416862027058624E8 ; 2.0576755371751514E10 ; 0.0
111 ; 7359021.3397168685 ; 2.0260825160443085E8 ; 8.490596697012519E8 ; 2.077934696525394E10 ; 0.0
112 ; 7350496.029259064 ; 2.0262490932426953E8 ; 8.564186910409688E8 ; 2.098195521685837E10 ; 0.0
113 ; 7338297.22534868 ; 2.0264156541508594E8 ; 8.637691870702279E8 ; 2.118458012618264E10 ; 0.0
114 ; 7325143.347878454 ; 2.0265821865640867E8 ; 8.711074842955766E8 ; 2.1387221691597725E10 ; 0.0
115 ; 7315077.575067667 ; 2.02674867853311E8 ; 8.78432627643455E8 ; 2.1589879910254135E10 ; 0.0
116 ; 7301706.952516814 ; 2.0269151183559912E8 ; 8.857477052185227E8 ; 2.1792554778107445E10 ; 0.0
117 ; 7288073.10965785 ; 2.0270814945702964E8 ; 8.930494121710395E8 ; 2.1995246289943043E10 ; 0.0
118 ; 7278735.919575118 ; 2.027247795945551E8 ; 9.003374852806973E8 ; 2.2197954439400074E10 ; 0.0
119 ; 7266483.88984604 ; 2.027414011475968E8 ; 9.076162212002724E8 ; 2.240067921899463E10 ; 0.0
120 ; 7251763.193387095 ; 2.0275801303734344E8 ; 9.148827050901185E8 ; 2.2603420620142227E10 ; 0.0
121 ; 7239662.229280245 ; 2.027746142060752E8 ; 9.221344682835057E8 ; 2.280617863317957E10 ; 0.0
122 ; 7228294.393816423 ; 2.0279120361651206E8 ; 9.293741305127859E8 ; 2.3008953247385643E10 ; 0.0
123 ; 7214813.668796965 ; 2.028077802511855E8 ; 9.366024249066024E8 ; 2.3211744451002155E10 ; 0.0
124 ; 7201339.306504338 ; 2.0282434311183268E8 ; 9.438172385753994E8 ; 2.341455223125334E10 ; 0.0
125 ; 7189919.836609593 ; 2.0284089121881244E8 ; 9.510185778819038E8 ; 2.3617376574365173E10 ; 0.0
126 ; 7178956.501249378 ; 2.0285742361054218E8 ; 9.582084977185134E8 ; 2.3820217465583984E10 ; 0.0
127 ; 7165298.955545937 ; 2.0287393934295493E8 ; 9.653874542197628E8 ; 2.4023074889194527E10 ; 0.0
128 ; 7151041.872417361 ; 2.0289043748897585E8 ; 9.725527531753087E8 ; 2.4225948828537483E10 ; 0.0
129 ; 7138946.598086035 ; 2.0290691713801724E8 ; 9.79703795047726E8 ; 2.442883926602646E10 ; 0.0
130 ; 7126807.469593364 ; 2.029233773954918E8 ; 9.86842741645812E8 ; 2.4631746183164474E10 ; 0.0
131 ; 7106855.644834105 ; 2.0293981738234314E8 ; 9.939695491154054E8 ; 2.4834669560559967E10 ; 0.0
132 ; 7096065.769480139 ; 2.0295623623459288E8 ; 1.0010764047602396E9 ; 2.503760937794231E10 ; 0.0
133 ; 7080267.079784629 ; 2.0297263310290384E8 ; 1.0081724705297197E9 ; 2.5240565614176903E10 ; 0.0
134 ; 7065099.750473685 ; 2.0298900715215892E8 ; 1.0152527376095043E9 ; 2.5443538247279808E10 ; 0.0
135 ; 7047763.4417894995 ; 2.0300535756105447E8 ; 1.0223178373599781E9 ; 2.564652725443197E10 ; 0.0
136 ; 7030903.045062035 ; 2.030216835217084E8 ; 1.0293656008017676E9 ; 2.5849532611993023E10 ; 0.0
137 ; 7016741.965361448 ; 2.0303798423928186E8 ; 1.0363965038468297E9 ; 2.6052554295514732E10 ; 0.0
138 ; 6999920.845068784 ; 2.0305425893161425E8 ; 1.0434132458121911E9 ; 2.6255592279754013E10 ; 0.0
139 ; 6985384.723272449 ; 2.0307050682887104E8 ; 1.05041316665726E9 ; 2.6458646538685627E10 ; 0.0
140 ; 6969905.402837211 ; 2.0308672717320397E8 ; 1.0573985513805324E9 ; 2.66617170455145E10 ; 0.0
141 ; 6953499.963577245 ; 2.0310291921842292E8 ; 1.0643684567833695E9 ; 2.6864803772687702E10 ; 0.0
142 ; 6935894.689873044 ; 2.0311908222967955E8 ; 1.0713219567469468E9 ; 2.7067906691906124E10 ; 0.0
143 ; 6922361.329819763 ; 2.0313521548316148E8 ; 1.0782578514368198E9 ; 2.7271025774135803E10 ; 0.0
144 ; 6904728.460551195 ; 2.0315131826579744E8 ; 1.0851802127666395E9 ; 2.7474160989618965E10 ; 0.0
145 ; 6890484.3358583795 ; 2.0316738987497243E8 ; 1.0920849412271907E9 ; 2.767731230788476E10 ; 0.0
146 ; 6878400.59725541 ; 2.0318342961825278E8 ; 1.098975425563049E9 ; 2.7880479697759735E10 ; 0.0
147 ; 6866252.132804266 ; 2.031994368131206E8 ; 1.1058538261603045E9 ; 2.8083663127377987E10 ; 0.0
148 ; 6852766.763746709 ; 2.0321541078671733E8 ; 1.1127200782931087E9 ; 2.828686256419111E10 ; 0.0
149 ; 6838196.862410833 ; 2.0323135087559617E8 ; 1.1195728450568554E9 ; 2.8490077974977825E10 ; 0.0
150 ; 6826859.610054955 ; 2.0324725642548287E8 ; 1.1264110419192662E9 ; 2.869330932585342E10 ; 0.0
151 ; 6811267.993426288 ; 2.0326312679104462E8 ; 1.1332379015293212E9 ; 2.8896556582278904E10 ; 0.0
152 ; 6800200.134731724 ; 2.03278961335667E8 ; 1.1400491695227475E9 ; 2.909981970906995E10 ; 0.0
153 ; 6784795.783210181 ; 2.0329475943123823E8 ; 1.1468493696574793E9 ; 2.9303098670405617E10 ; 0.0
154 ; 6775016.2104963865 ; 2.0331052045794067E8 ; 1.1536341654406896E9 ; 2.9506393429836857E10 ; 0.0
155 ; 6760636.391124853 ; 2.0332624380404982E8 ; 1.160409181651186E9 ; 2.9709703950294796E10 ; 0.0
156 ; 6745546.421489601 ; 2.0334192886573938E8 ; 1.167169818042311E9 ; 2.9913030194098846E10 ; 0.0
157 ; 6731317.034726026 ; 2.0335757504689342E8 ; 1.1739153644638007E9 ; 3.0116372122964584E10 ; 0.0
158 ; 6718499.155918828 ; 2.0337318175892445E8 ; 1.1806466814985268E9 ; 3.031972969801148E10 ; 0.0
159 ; 6706251.651787843 ; 2.0338874842059782E8 ; 1.1873651806544456E9 ; 3.05231028797704E10 ; 0.0
160 ; 6690628.784434693 ; 2.034042744578617E8 ; 1.1940714323062334E9 ; 3.0726491628190998E10 ; 0.0
161 ; 6675696.158546933 ; 2.0341975930368283E8 ; 1.2007620610906682E9 ; 3.092989590264886E10 ; 0.0
162 ; 6665092.4973473335 ; 2.0343520239788786E8 ; 1.2074377572492151E9 ; 3.1133315661952545E10 ; 0.0
163 ; 6648296.452548553 ; 2.0345060318700945E8 ; 1.2141028497465625E9 ; 3.1336750864350433E10 ; 0.0
164 ; 6636297.263057496 ; 2.0346596112413803E8 ; 1.220751146199111E9 ; 3.154020146753744E10 ; 0.0
165 ; 6622922.345664992 ; 2.0348127566877788E8 ; 1.2273874434621685E9 ; 3.174366742866158E10 ; 0.0
166 ; 6606845.181222943 ; 2.0349654628670827E8 ; 1.2340103658078334E9 ; 3.1947148704330357E10 ; 0.0
167 ; 6596390.646001312 ; 2.035117724498489E8 ; 1.2406172109890563E9 ; 3.2150645250617065E10 ; 0.0
168 ; 6579136.521241677 ; 2.0352695363612995E8 ; 1.2472136016350577E9 ; 3.2354157023066914E10 ; 0.0
169 ; 6567616.17614997 ; 2.0354208932936606E8 ; 1.2537927381562994E9 ; 3.2557683976703045E10 ; 0.0
170 ; 6553474.739202829 ; 2.035571790191347E8 ; 1.2603603543324494E9 ; 3.276122606603241E10 ; 0.0
171 ; 6540752.648620044 ; 2.0357222220065817E8 ; 1.2669138290716522E9 ; 3.2964783245051544E10 ; 0.0
172 ; 6527206.037446797 ; 2.0358721837468955E8 ; 1.2734545817202723E9 ; 3.31683554672522E10 ; 0.0
173 ; 6511817.789986572 ; 2.036021670474023E8 ; 1.279981787757719E9 ; 3.3371942685626892E10 ; 0.0
174 ; 6498412.61337283 ; 2.0361706773028344E8 ; 1.2864936055477057E9 ; 3.3575544852674294E10 ; 0.0
175 ; 6490645.829335112 ; 2.0363191994002995E8 ; 1.2929920181610785E9 ; 3.3779161920404575E10 ; 0.0
176 ; 6478178.65314365 ; 2.0364672319844875E8 ; 1.2994826639904137E9 ; 3.3982793840344604E10 ; 0.0
177 ; 6464346.264405453 ; 2.036614770323595E8 ; 1.3059608426435573E9 ; 3.4186440563543053E10 ; 0.0
178 ; 6453639.88223184 ; 2.0367618097350097E8 ; 1.3124251889079628E9 ; 3.439010204057541E10 ; 0.0
179 ; 6442943.599859002 ; 2.0369083455843976E8 ; 1.3188788287901947E9 ; 3.459377822154891E10 ; 0.0
180 ; 6430054.557853753 ; 2.037054373284825E8 ; 1.3253217723900537E9 ; 3.479746905610735E10 ; 0.0
181 ; 6417040.67860866 ; 2.037199888295904E8 ; 1.3317518269479074E9 ; 3.500117449343584E10 ; 0.0
182 ; 6404247.083073465 ; 2.037344886122966E8 ; 1.338168867626516E9 ; 3.520489448226543E10 ; 0.0
183 ; 6395526.475762092 ; 2.0374893623162615E8 ; 1.3445731147095895E9 ; 3.540862897087772E10 ; 0.0
184 ; 6382578.411033308 ; 2.0376333124701852E8 ; 1.3509686411853516E9 ; 3.561237790710935E10 ; 0.0
185 ; 6368393.892084602 ; 2.037776732222524E8 ; 1.357351219596385E9 ; 3.581614123835637E10 ; 0.0
186 ; 6357647.057827917 ; 2.0379196172537285E8 ; 1.3637196134884696E9 ; 3.601991891157862E10 ; 0.0
187 ; 6345208.60332023 ; 2.0380619632862097E8 ; 1.3700772605462976E9 ; 3.622371087330399E10 ; 0.0
188 ; 6335790.834143737 ; 2.0382037660836527E8 ; 1.3764224691496177E9 ; 3.6427517069632614E10 ; 0.0
189 ; 6320352.13772404 ; 2.0383450214503562E8 ; 1.3827582599837613E9 ; 3.663133744624098E10 ; 0.0
190 ; 6312001.243599109 ; 2.0384857252305904E8 ; 1.3890786121214852E9 ; 3.683517194838602E10 ; 0.0
191 ; 6298528.852419165 ; 2.0386258733079737E8 ; 1.3953906133650844E9 ; 3.703902052090907E10 ; 0.0
192 ; 6286070.909441427 ; 2.0387654616048697E8 ; 1.4016891422175035E9 ; 3.724288310823987E10 ; 0.0
193 ; 6273840.883272958 ; 2.0389044860818034E8 ; 1.407975213126945E9 ; 3.744675965440035E10 ; 0.0
194 ; 6264591.168306963 ; 2.0390429427368942E8 ; 1.414249054010218E9 ; 3.765065010300853E10 ; 0.0
195 ; 6249266.4854285065 ; 2.039180827605305E8 ; 1.420513645178525E9 ; 3.785455439728222E10 ; 0.0
196 ; 6238226.389011622 ; 2.039318136758711E8 ; 1.4267629116639535E9 ; 3.805847248004275E10 ; 0.0
197 ; 6228888.99809254 ; 2.0394548663047826E8 ; 1.4330011380529652E9 ; 3.826240429371862E10 ; 0.0
198 ; 6213473.416901702 ; 2.0395910123866835E8 ; 1.4392300270510578E9 ; 3.84663497803491E10 ; 0.0
199 ; 6203958.982493488 ; 2.0397265711825868E8 ; 1.4454435004679594E9 ; 3.867030888158777E10 ; 0.0
200 ; 6192696.09110085 ; 1.7283075891193858E8 ; 1.4516474594504528E9 ; 3.8874281538706024E10 ; 0.0
