CSV File for the City 2 on Day 214
1 - Minute m 
2 - Power Consumed at minute m 
3 - Power Produced at minute m 
4 - Energy Consumed since the beginning of the day 
5 - Energy Produced since the beginning of the day 
6 - Energy Lost since the beginning of the day on lines starting from the city
 
0 ; 119991.96507119056 ; 1.0519987944340196E8 ; 0.0 ; 0.0 ; 0.0
1 ; 121425.54418277151 ; 1.0535366683510327E8 ; 119991.96507119056 ; 1.0519987944340196E8 ; 0.0
2 ; 124690.58715900859 ; 1.0581614582692257E8 ; 241417.50925396208 ; 2.1055354627850524E8 ; 0.0
3 ; 127607.45685384756 ; 1.065873183991571E8 ; 366108.0964129707 ; 3.163696921054278E8 ; 0.0
4 ; 130682.2087334453 ; 1.0766718640877062E8 ; 493715.5532668182 ; 4.229570105045849E8 ; 0.0
5 ; 134405.98821085578 ; 1.0905575155528325E8 ; 624397.7620002636 ; 5.306241969133555E8 ; 0.0
6 ; 138393.02338369982 ; 1.1075301534699115E8 ; 758803.7502111193 ; 6.396799484686388E8 ; 0.0
7 ; 143834.71221786411 ; 1.127589790688988E8 ; 897196.7735948191 ; 7.5043296381563E8 ; 0.0
8 ; 154300.0237196112 ; 1.1507364375382286E8 ; 1041031.4858126832 ; 8.631919428845288E8 ; 0.0
9 ; 168080.72921851135 ; 1.1769701015810442E8 ; 1195331.5095322945 ; 9.782655866383517E8 ; 0.0
10 ; 191032.2580613555 ; 1.2062907874321455E8 ; 1363412.2387508058 ; 1.095962596796456E9 ; 0.0
11 ; 224296.76358664496 ; 1.2386984966427729E8 ; 1554444.4968121613 ; 1.2165916755396707E9 ; 0.0
12 ; 278646.6636185256 ; 1.2741932276616856E8 ; 1778741.2603988063 ; 1.340461525203948E9 ; 0.0
13 ; 331417.90198565624 ; 1.312774975874173E8 ; 2057387.924017332 ; 1.4678808479701166E9 ; 0.0
14 ; 337714.1228622178 ; 1.3544437337168252E8 ; 2388805.826002988 ; 1.599158345557534E9 ; 0.0
15 ; 339853.17901392945 ; 1.3991994908614743E8 ; 2726519.948865206 ; 1.7346027189292164E9 ; 0.0
16 ; 342846.8316297382 ; 1.4470422344580767E8 ; 3066373.1278791353 ; 1.8745226680153637E9 ; 0.0
17 ; 345294.87752574537 ; 1.49797194942367E8 ; 3409219.9595088735 ; 2.0192268914611714E9 ; 0.0
18 ; 347499.61401203467 ; 1.5519886187630528E8 ; 3754514.837034619 ; 2.169024086403538E9 ; 0.0
19 ; 350655.28119776637 ; 1.6090922239065883E8 ; 4102014.4510466536 ; 2.3242229482798433E9 ; 0.0
20 ; 353882.5329906438 ; 1.6692827450513032E8 ; 4452669.73224442 ; 2.485132170670502E9 ; 0.0
21 ; 356409.7484397076 ; 1.7325601614931247E8 ; 4806552.265235064 ; 2.6520604451756325E9 ; 0.0
22 ; 360876.9628034858 ; 1.7989244519402742E8 ; 5162962.013674771 ; 2.825316461324945E9 ; 0.0
23 ; 363334.31552517903 ; 1.8683755948003227E8 ; 5523838.976478257 ; 3.0052089065189724E9 ; 0.0
24 ; 365277.85283584043 ; 1.9409135684358722E8 ; 5887173.292003436 ; 3.192046465999005E9 ; 0.0
25 ; 368552.4931508724 ; 2.0034187603679842E8 ; 6252451.144839277 ; 3.3861378228425922E9 ; 0.0
26 ; 371521.3437440699 ; 2.00342662783186E8 ; 6621003.637990149 ; 3.5864796988793907E9 ; 0.0
27 ; 374210.98431645 ; 2.0034348431785613E8 ; 6992524.981734219 ; 3.7868223616625767E9 ; 0.0
28 ; 377702.9249531008 ; 2.0034433864633742E8 ; 7366735.966050669 ; 3.987165845980433E9 ; 0.0
29 ; 379811.97337725357 ; 2.0034522384696418E8 ; 7744438.89100377 ; 4.1875101846267705E9 ; 0.0
30 ; 382492.8581199468 ; 2.003461380774143E8 ; 8124250.864381024 ; 4.387855408473735E9 ; 0.0
31 ; 385803.8862726347 ; 2.0034707957899097E8 ; 8506743.72250097 ; 4.588201546551149E9 ; 0.0
32 ; 387287.67158226477 ; 2.00348046678991E8 ; 8892547.608773606 ; 4.78854862613014E9 ; 0.0
33 ; 390619.68220152456 ; 2.0034903779148653E8 ; 9279835.28035587 ; 4.988896672809132E9 ; 0.0
34 ; 392062.11223261384 ; 2.003500514168207E8 ; 9670454.962557396 ; 5.189245710600618E9 ; 0.0
35 ; 395018.91245979007 ; 2.0035108614008582E8 ; 1.006251707479001E7 ; 5.389595762017439E9 ; 0.0
36 ; 397666.2172703604 ; 2.0035214062882E8 ; 1.0457535987249801E7 ; 5.589946848157525E9 ; 0.0
37 ; 399431.54267388425 ; 2.0035321363012362E8 ; 1.0855202204520162E7 ; 5.7902989887863455E9 ; 0.0
38 ; 401690.05875386973 ; 2.0035430396736515E8 ; 1.1254633747194046E7 ; 5.99065220241647E9 ; 0.0
39 ; 404901.88541709766 ; 2.0035541053661698E8 ; 1.1656323805947917E7 ; 6.191006506383835E9 ; 0.0
40 ; 406324.6776214168 ; 2.0035653230293468E8 ; 1.2061225691365015E7 ; 6.391361916920452E9 ; 0.0
41 ; 408469.1755437015 ; 2.0035766829657122E8 ; 1.2467550368986432E7 ; 6.591718449223387E9 ; 0.0
42 ; 410931.42870958365 ; 2.0035881760919684E8 ; 1.2876019544530133E7 ; 6.792076117519958E9 ; 0.0
43 ; 412146.25706853246 ; 2.0035997939017975E8 ; 1.3286950973239716E7 ; 6.992434935129154E9 ; 0.0
44 ; 414859.5839374922 ; 2.0036115284296805E8 ; 1.3699097230308248E7 ; 7.192794914519334E9 ; 0.0
45 ; 415714.18892542954 ; 2.0036233722160247E8 ; 1.411395681424574E7 ; 7.393156067362302E9 ; 0.0
46 ; 418213.3214728696 ; 2.0036353182738018E8 ; 1.452967100317117E7 ; 7.593518404583904E9 ; 0.0
47 ; 418814.60476448754 ; 2.0036473600568256E8 ; 1.494788432464404E7 ; 7.793881936411284E9 ; 0.0
48 ; 420454.63051337394 ; 2.0036594914297393E8 ; 1.5366698929408528E7 ; 7.994246672416967E9 ; 0.0
49 ; 421725.381206658 ; 2.003671706639739E8 ; 1.5787153559921902E7 ; 8.194612621559941E9 ; 0.0
50 ; 423159.77885393734 ; 2.0036840002900252E8 ; 1.620887894112856E7 ; 8.394979792223915E9 ; 0.0
51 ; 424507.56922216516 ; 2.0036963673149496E8 ; 1.6632038719982497E7 ; 8.595348192252918E9 ; 0.0
52 ; 425072.0147346166 ; 2.0037088029568017E8 ; 1.705654628920466E7 ; 8.795717828984413E9 ; 0.0
53 ; 427208.7417723969 ; 2.0037213027441707E8 ; 1.748161830393928E7 ; 8.996088709280094E9 ; 0.0
54 ; 428711.9497508325 ; 2.0037338624718127E8 ; 1.7908827045711678E7 ; 9.196460839554512E9 ; 0.0
55 ; 428176.20584086236 ; 2.0037464781819358E8 ; 1.833753899546251E7 ; 9.396834225801693E9 ; 0.0
56 ; 430445.08254516474 ; 2.0037591461468297E8 ; 1.8765715201303374E7 ; 9.597208873619886E9 ; 0.0
57 ; 431652.4700135781 ; 2.003771862852752E8 ; 1.919616028384854E7 ; 9.79758478823457E9 ; 0.0
58 ; 433670.517190645 ; 2.003784624984991E8 ; 1.9627812753862116E7 ; 9.997961974519844E9 ; 0.0
59 ; 432777.4568171281 ; 2.0037974294140297E8 ; 2.0061483271052763E7 ; 1.0198340437018343E10 ; 0.0
60 ; 434716.9329739139 ; 2.0038102731827283E8 ; 2.049426072786989E7 ; 1.0398720179959745E10 ; 0.0
61 ; 435998.9552116707 ; 2.0038231534944594E8 ; 2.0928977660843804E7 ; 1.0599101207278019E10 ; 0.0
62 ; 437252.07913821744 ; 2.003836067702122E8 ; 2.1364976616055474E7 ; 1.0799483522627464E10 ; 0.0
63 ; 437899.8828362012 ; 2.0038490132979712E8 ; 2.180222869519369E7 ; 1.0999867129397676E10 ; 0.0
64 ; 439341.55891136633 ; 2.0038619879042026E8 ; 2.224012857802989E7 ; 1.1200252030727474E10 ; 0.0
65 ; 440406.562682092 ; 2.0038749892642364E8 ; 2.2679470136941254E7 ; 1.1400638229517895E10 ; 0.0
66 ; 440342.67028421036 ; 2.0038880152346414E8 ; 2.3119876699623346E7 ; 1.1601025728444319E10 ; 0.0
67 ; 443100.73499397904 ; 2.0039010637776592E8 ; 2.3560219369907558E7 ; 1.1801414529967783E10 ; 0.0
68 ; 443312.33661178686 ; 2.003914132954273E8 ; 2.4003320104901537E7 ; 1.2001804636345549E10 ; 0.0
69 ; 443277.2732488034 ; 2.0039272209177878E8 ; 2.4446632441513322E7 ; 1.2202196049640976E10 ; 0.0
70 ; 445177.3480316692 ; 2.0039403259078747E8 ; 2.4889909714762125E7 ; 1.2402588771732756E10 ; 0.0
71 ; 445865.4537280021 ; 2.0039534462450472E8 ; 2.5335087062793795E7 ; 1.2602982804323544E10 ; 0.0
72 ; 446545.12575069536 ; 2.0039665803255373E8 ; 2.5780952516521797E7 ; 1.2803378148948048E10 ; 0.0
73 ; 447749.61674840015 ; 2.0039797266165382E8 ; 2.622749764227249E7 ; 1.3003774806980602E10 ; 0.0
74 ; 448387.2332220153 ; 2.0039928836517832E8 ; 2.667524725902089E7 ; 1.3204172779642256E10 ; 0.0
75 ; 449532.77050401334 ; 2.0040060500274426E8 ; 2.7123634492242906E7 ; 1.3404572068007435E10 ; 0.0
76 ; 450169.7552496306 ; 2.0040192243983033E8 ; 2.757316726274692E7 ; 1.360497267301018E10 ; 0.0
77 ; 449876.52714553406 ; 2.004032405474221E8 ; 2.802333701799655E7 ; 1.380537459545001E10 ; 0.0
78 ; 451301.5606034011 ; 2.004045592016815E8 ; 2.8473213545142084E7 ; 1.4005777835997433E10 ; 0.0
79 ; 450511.2618337106 ; 2.0040587828363898E8 ; 2.8924515105745487E7 ; 1.4206182395199114E10 ; 0.0
80 ; 451954.11452733295 ; 2.0040719767890725E8 ; 2.93750263675792E7 ; 1.4406588273482754E10 ; 0.0
81 ; 452199.87204085663 ; 2.0040851727741387E8 ; 2.9826980482106533E7 ; 1.4606995471161661E10 ; 0.0
82 ; 451936.82980551553 ; 2.0040983697315228E8 ; 3.027918035414739E7 ; 1.4807403988439075E10 ; 0.0
83 ; 452123.31215565326 ; 2.0041115666394916E8 ; 3.0731117183952905E7 ; 1.5007813825412228E10 ; 0.0
84 ; 452601.5344667601 ; 2.0041247625124758E8 ; 3.1183240496108558E7 ; 1.5208224982076178E10 ; 0.0
85 ; 452214.5573640622 ; 2.004137956399043E8 ; 3.1635842030575316E7 ; 1.5408637458327425E10 ; 0.0
86 ; 452299.57830741885 ; 2.0041511473800012E8 ; 3.2088056587939378E7 ; 1.5609051253967329E10 ; 0.0
87 ; 452722.0827321288 ; 2.004164334566629E8 ; 3.2540356166246798E7 ; 1.580946636870533E10 ; 0.0
88 ; 452503.9512919 ; 2.0041775170990175E8 ; 3.2993078248978928E7 ; 1.6009882802161993E10 ; 0.0
89 ; 452723.9553396823 ; 2.0041906941445184E8 ; 3.3445582200270828E7 ; 1.6210300553871895E10 ; 0.0
90 ; 452538.3982078571 ; 2.0042038648962918E8 ; 3.389830615561051E7 ; 1.6410719623286346E10 ; 0.0
91 ; 453761.91158816 ; 2.0042170285719433E8 ; 3.435084455381837E7 ; 1.6611140009775976E10 ; 0.0
92 ; 453580.8683990774 ; 2.0042301844122478E8 ; 3.480460646540653E7 ; 1.6811561712633171E10 ; 0.0
93 ; 452643.8186362772 ; 2.0042433316799524E8 ; 3.5258187333805606E7 ; 1.7011984731074396E10 ; 0.0
94 ; 452470.14090851275 ; 2.0042564696586508E8 ; 3.571083115244188E7 ; 1.721240906424239E10 ; 0.0
95 ; 453505.50144980836 ; 2.0042695976517296E8 ; 3.616330129335039E7 ; 1.7412834711208256E10 ; 0.0
96 ; 453313.1495159133 ; 2.004282714981376E8 ; 3.66168067948002E7 ; 1.7613261670973427E10 ; 0.0
97 ; 453040.35483280424 ; 2.0042958209876448E8 ; 3.707011994431611E7 ; 1.7813689942471565E10 ; 0.0
98 ; 452403.5675479994 ; 2.004308915027583E8 ; 3.752316029914892E7 ; 1.801411952457033E10 ; 0.0
99 ; 452216.1274752989 ; 2.0043219964744052E8 ; 3.797556386669692E7 ; 1.821455041607309E10 ; 0.0
100 ; 452844.3210691581 ; 2.004335064716716E8 ; 3.8427779994172215E7 ; 1.841498261572053E10 ; 0.0
101 ; 452599.98073864 ; 2.00434811915778E8 ; 3.8880624315241374E7 ; 1.8615416122192204E10 ; 0.0
102 ; 453273.03673337144 ; 2.0043611592148325E8 ; 3.9333224295980014E7 ; 1.8815850934107983E10 ; 0.0
103 ; 452170.27270250826 ; 2.0043741843184298E8 ; 3.978649733271339E7 ; 1.9016287050029465E10 ; 0.0
104 ; 451904.7816656596 ; 2.0043871939118373E8 ; 4.0238667605415896E7 ; 1.9216724468461308E10 ; 0.0
105 ; 452173.7839603588 ; 2.004400187450451E8 ; 4.0690572387081556E7 ; 1.941716318785249E10 ; 0.0
106 ; 451481.0383954346 ; 2.0044131644012526E8 ; 4.114274617104191E7 ; 1.9617603206597534E10 ; 0.0
107 ; 450538.6694154656 ; 2.0044261242422938E8 ; 4.159422720943735E7 ; 1.981804452303766E10 ; 0.0
108 ; 451366.5749299744 ; 2.0044390664622107E8 ; 4.2044765878852814E7 ; 2.0018487135461887E10 ; 0.0
109 ; 450866.5145206232 ; 2.0044519905597627E8 ; 4.249613245378279E7 ; 2.021893104210811E10 ; 0.0
110 ; 450277.45272694196 ; 2.0044648960433975E8 ; 4.294699896830341E7 ; 2.0419376241164085E10 ; 0.0
111 ; 450454.8149672059 ; 2.004477782430841E8 ; 4.339727642103036E7 ; 2.0619822730768425E10 ; 0.0
112 ; 449441.9061876967 ; 2.004490649248706E8 ; 4.3847731235997565E7 ; 2.082027050901151E10 ; 0.0
113 ; 450768.20279389725 ; 2.004503496032126E8 ; 4.429717314218526E7 ; 2.102071957393638E10 ; 0.0
114 ; 449161.42938029644 ; 2.0045163223244035E8 ; 4.474794134497916E7 ; 2.1221169923539593E10 ; 0.0
115 ; 449607.1865246342 ; 2.004529127676681E8 ; 4.519710277435946E7 ; 2.1421621555772034E10 ; 0.0
116 ; 448615.12828854326 ; 2.004541911647627E8 ; 4.5646709960884094E7 ; 2.1622074468539703E10 ; 0.0
117 ; 448638.4432299372 ; 2.0045546738031387E8 ; 4.609532508917264E7 ; 2.1822528659704468E10 ; 0.0
118 ; 448890.2996713592 ; 2.00456741371606E8 ; 4.6543963532402575E7 ; 2.202298412708478E10 ; 0.0
119 ; 448998.77557336655 ; 2.0045801309659135E8 ; 4.6992853832073934E7 ; 2.2223440868456387E10 ; 0.0
120 ; 448177.41173526837 ; 2.004592825138648E8 ; 4.74418526076473E7 ; 2.242389888155298E10 ; 0.0
121 ; 447629.12730872835 ; 2.0046054958263952E8 ; 4.7890030019382566E7 ; 2.2624358164066845E10 ; 0.0
122 ; 446061.1249268869 ; 2.0046181426272425E8 ; 4.833765914669129E7 ; 2.2824818713649483E10 ; 0.0
123 ; 446215.0442999707 ; 2.0046307651450145E8 ; 4.878372027161818E7 ; 2.302528052791221E10 ; 0.0
124 ; 445985.29199616465 ; 2.0046433629890665E8 ; 4.922993531591815E7 ; 2.322574360442671E10 ; 0.0
125 ; 446149.17920546205 ; 2.0046559357740873E8 ; 4.967592060791431E7 ; 2.3426207940725616E10 ; 0.0
126 ; 444338.778002903 ; 2.0046684831199124E8 ; 5.0122069787119776E7 ; 2.3626673534303024E10 ; 0.0
127 ; 444923.9144063852 ; 2.0046810046513456E8 ; 5.056640856512268E7 ; 2.3827140382615017E10 ; 0.0
128 ; 444117.1012492104 ; 2.0046934999979904E8 ; 5.101133247952906E7 ; 2.402760848308015E10 ; 0.0
129 ; 443440.7692280169 ; 2.004705968794088E8 ; 5.145544958077827E7 ; 2.422807783307995E10 ; 0.0
130 ; 443316.6787060071 ; 2.0047184106783643E8 ; 5.189889035000629E7 ; 2.442854842995936E10 ; 0.0
131 ; 441818.2542270093 ; 2.0047308252938828E8 ; 5.2342207028712295E7 ; 2.4629020271027195E10 ; 0.0
132 ; 439873.4933293024 ; 2.0047432122879058E8 ; 5.278402528293931E7 ; 2.4829493353556583E10 ; 0.0
133 ; 439612.254867633 ; 2.0047555713117614E8 ; 5.322389877626861E7 ; 2.5029967674785374E10 ; 0.0
134 ; 438656.23139044474 ; 2.004767902020717E8 ; 5.3663511031136245E7 ; 2.523044323191655E10 ; 0.0
135 ; 436310.16724383074 ; 2.004780204073858E8 ; 5.410216726252669E7 ; 2.543092002211862E10 ; 0.0
136 ; 434941.7446232673 ; 2.004792477133973E8 ; 5.453847742977052E7 ; 2.563139804252601E10 ; 0.0
137 ; 435136.613306874 ; 2.004804720867444E8 ; 5.497341917439379E7 ; 2.5831877290239407E10 ; 0.0
138 ; 434060.42313429713 ; 2.004816934944141E8 ; 5.540855578770066E7 ; 2.6032357762326153E10 ; 0.0
139 ; 432175.96999277256 ; 2.0048291190373218E8 ; 5.584261621083496E7 ; 2.6232839455820568E10 ; 0.0
140 ; 430892.29886287794 ; 2.004841272823537E8 ; 5.627479218082773E7 ; 2.64333223677243E10 ; 0.0
141 ; 429294.02502859646 ; 2.004853395982539E8 ; 5.6705684479690604E7 ; 2.6633806495006653E10 ; 0.0
142 ; 428961.7446885626 ; 2.0048654881971925E8 ; 5.71349785047192E7 ; 2.6834291834604908E10 ; 0.0
143 ; 425619.33173973754 ; 2.0048775491533947E8 ; 5.756394024940776E7 ; 2.7034778383424625E10 ; 0.0
144 ; 425122.0201491519 ; 2.0048895785399917E8 ; 5.79895595811475E7 ; 2.7235266138339966E10 ; 0.0
145 ; 425024.46603685146 ; 2.004901576048706E8 ; 5.841468160129665E7 ; 2.7435755096193966E10 ; 0.0
146 ; 424242.38734836824 ; 2.0049135413740608E8 ; 5.88397060673335E7 ; 2.7636245253798836E10 ; 0.0
147 ; 424436.57490260445 ; 2.0049254742133126E8 ; 5.9263948454681866E7 ; 2.783673660793624E10 ; 0.0
148 ; 422723.82173586113 ; 2.0049373742663833E8 ; 5.968838502958447E7 ; 2.803722915535757E10 ; 0.0
149 ; 422874.97551672533 ; 2.004949241235797E8 ; 6.011110885132033E7 ; 2.823772289278421E10 ; 0.0
150 ; 422287.1337187276 ; 2.0049610748266184E8 ; 6.053398382683705E7 ; 2.843821781690779E10 ; 0.0
151 ; 421831.3314858561 ; 2.004972874746396E8 ; 6.095627096055578E7 ; 2.8638713924390453E10 ; 0.0
152 ; 421745.33919426484 ; 2.0049846407051042E8 ; 6.137810229204163E7 ; 2.8839211211865093E10 ; 0.0
153 ; 420774.6129402125 ; 2.0049963724150917E8 ; 6.17998476312359E7 ; 2.9039709675935604E10 ; 0.0
154 ; 420471.2833430606 ; 2.0050080695910296E8 ; 6.222062224417611E7 ; 2.9240209313177113E10 ; 0.0
155 ; 419508.5160835663 ; 2.0050197319498625E8 ; 6.2641093527519174E7 ; 2.9440710120136215E10 ; 0.0
156 ; 419867.9400460993 ; 2.0050313592107615E8 ; 6.306060204360274E7 ; 2.96412120933312E10 ; 0.0
157 ; 418675.27340746665 ; 2.005042951095079E8 ; 6.3480469983648844E7 ; 2.9841715229252277E10 ; 0.0
158 ; 417959.67834781006 ; 2.005054507326306E8 ; 6.389914525705631E7 ; 3.0042219524361786E10 ; 0.0
159 ; 417960.5357697163 ; 2.0050660276300314E8 ; 6.431710493540412E7 ; 3.0242724975094418E10 ; 0.0
160 ; 415823.96548194805 ; 2.0050775117339018E8 ; 6.473506547117384E7 ; 3.044323157785742E10 ; 0.0
161 ; 416661.9418690233 ; 2.0050889593675828E8 ; 6.515088943665578E7 ; 3.064373932903081E10 ; 0.0
162 ; 417199.18301112327 ; 2.005100370262725E8 ; 6.55675513785248E7 ; 3.084424822496757E10 ; 0.0
163 ; 414242.34519059956 ; 2.0051117441529274E8 ; 6.5984750561535925E7 ; 3.1044758261993843E10 ; 0.0
164 ; 414923.583345831 ; 2.0051230807737038E8 ; 6.6398992906726524E7 ; 3.1245269436409134E10 ; 0.0
165 ; 414659.81480085506 ; 2.0051343798624527E8 ; 6.6813916490072355E7 ; 3.1445781744486504E10 ; 0.0
166 ; 413215.67837185884 ; 2.0051456411584246E8 ; 6.722857630487321E7 ; 3.1646295182472748E10 ; 0.0
167 ; 412486.1272263535 ; 2.0051568644026944E8 ; 6.764179198324507E7 ; 3.184680974658859E10 ; 0.0
168 ; 412899.57787843625 ; 2.0051680493381312E8 ; 6.805427811047143E7 ; 3.204732543302886E10 ; 0.0
169 ; 413460.0250746125 ; 2.0051791957093737E8 ; 6.846717768834986E7 ; 3.2247842237962673E10 ; 0.0
170 ; 412165.3728426885 ; 2.0051903032628018E8 ; 6.888063771342447E7 ; 3.244836015753361E10 ; 0.0
171 ; 411464.0723930989 ; 2.0052013717465138E8 ; 6.929280308626716E7 ; 3.264887918785989E10 ; 0.0
172 ; 409945.0192492853 ; 2.0052124009103012E8 ; 6.970426715866026E7 ; 3.2849399325034542E10 ; 0.0
173 ; 409524.6457885474 ; 2.0052233905056265E8 ; 7.011421217790955E7 ; 3.3049920565125572E10 ; 0.0
174 ; 409925.5188032256 ; 2.0052343402856013E8 ; 7.05237368236981E7 ; 3.3250442904176136E10 ; 0.0
175 ; 410360.91823578073 ; 2.0052452500049645E8 ; 7.093366234250133E7 ; 3.3450966338204697E10 ; 0.0
176 ; 410204.6269574473 ; 2.005256119420063E8 ; 7.13440232607371E7 ; 3.3651490863205193E10 ; 0.0
177 ; 408606.64633563545 ; 2.0052669482888317E8 ; 7.175422788769455E7 ; 3.3852016475147198E10 ; 0.0
178 ; 407647.6180932957 ; 2.005277736370776E8 ; 7.216283453403018E7 ; 3.405254316997608E10 ; 0.0
179 ; 408224.5392967274 ; 2.0052884834269527E8 ; 7.257048215212348E7 ; 3.425307094361316E10 ; 0.0
180 ; 408641.3175354504 ; 2.0052991892199528E8 ; 7.297870669142021E7 ; 3.445359979195586E10 ; 0.0
181 ; 407627.3102443471 ; 2.0053098535138872E8 ; 7.338734800895566E7 ; 3.465412971087785E10 ; 0.0
182 ; 406852.04147196945 ; 2.005320476074368E8 ; 7.379497531920001E7 ; 3.485466069622924E10 ; 0.0
183 ; 406158.1747262058 ; 2.0053310566684958E8 ; 7.420182736067198E7 ; 3.505519274383668E10 ; 0.0
184 ; 405989.16890967375 ; 2.0053415950648445E8 ; 7.460798553539819E7 ; 3.5255725849503525E10 ; 0.0
185 ; 406322.72270729404 ; 2.0053520910334468E8 ; 7.501397470430785E7 ; 3.545626000901001E10 ; 0.0
186 ; 404696.8470728415 ; 2.005362544345782E8 ; 7.542029742701516E7 ; 3.565679521811336E10 ; 0.0
187 ; 405656.71852848714 ; 2.005372954774762E8 ; 7.5824994274088E7 ; 3.5857331472547935E10 ; 0.0
188 ; 404184.5715021064 ; 2.0053833220947203E8 ; 7.623065099261649E7 ; 3.605786876802541E10 ; 0.0
189 ; 404484.0953749674 ; 2.0053936460813993E8 ; 7.66348355641186E7 ; 3.6258407100234886E10 ; 0.0
190 ; 404940.541877075 ; 2.0054039265119404E8 ; 7.703931965949357E7 ; 3.6458946464843025E10 ; 0.0
191 ; 402574.8698202484 ; 2.005414163164871E8 ; 7.744426020137064E7 ; 3.665948685749422E10 ; 0.0
192 ; 403010.5818800889 ; 2.0054243558200967E8 ; 7.78468350711909E7 ; 3.686002827381071E10 ; 0.0
193 ; 403045.6339217918 ; 2.00543450425889E8 ; 7.824984565307099E7 ; 3.7060570709392715E10 ; 0.0
194 ; 402666.0168057524 ; 2.0054446082638803E8 ; 7.865289128699277E7 ; 3.72611141598186E10 ; 0.0
195 ; 401042.98456749466 ; 2.005454667619047E8 ; 7.905555730379853E7 ; 3.746165862064499E10 ; 0.0
196 ; 401470.7079179143 ; 2.005464682109708E8 ; 7.945660028836602E7 ; 3.766220408740689E10 ; 0.0
197 ; 401243.8703709077 ; 2.0054746515225136E8 ; 7.985807099628393E7 ; 3.786275055561786E10 ; 0.0
198 ; 400129.9826004407 ; 2.005484575645438E8 ; 8.025931486665484E7 ; 3.806329802077011E10 ; 0.0
199 ; 400747.2265136889 ; 2.0054944542677712E8 ; 8.065944484925528E7 ; 3.8263846478334656E10 ; 0.0
200 ; 400108.94451482815 ; 2.0055042871801117E8 ; 8.106019207576896E7 ; 3.846439592376144E10 ; 0.0
201 ; 399417.4300460449 ; 2.0055140741743597E8 ; 8.146030102028379E7 ; 3.866494635247945E10 ; 0.0
