CSV File for the City 3 on Day 4
1 - Minute m 
2 - Power Consumed at minute m 
3 - Power Produced at minute m 
4 - Energy Consumed since the beginning of the day 
5 - Energy Produced since the beginning of the day 
6 - Energy Lost since the beginning of the day on lines starting from the city
 
0 ; 5952653.275254109 ; 7066944.598732435 ; 0.0 ; 0.0 ; 0.0
1 ; 5960253.362825568 ; 7066944.598732435 ; 5952653.275254109 ; 7066944.598732435 ; 0.0
2 ; 5966925.053173334 ; 7066944.598732435 ; 1.1912906638079677E7 ; 1.413388919746487E7 ; 0.0
3 ; 5974701.702706155 ; 7066944.598732435 ; 1.787983169125301E7 ; 2.1200833796197306E7 ; 0.0
4 ; 5982091.341934536 ; 7066944.598732435 ; 2.3854533393959165E7 ; 2.826777839492974E7 ; 0.0
5 ; 5992112.479332026 ; 7066944.598732435 ; 2.98366247358937E7 ; 3.533472299366218E7 ; 0.0
6 ; 6007143.818636351 ; 7066944.598732435 ; 3.582873721522573E7 ; 4.240166759239461E7 ; 0.0
7 ; 6026484.345472139 ; 7066944.598732435 ; 4.183588103386208E7 ; 4.946861219112705E7 ; 0.0
8 ; 6056547.8985415585 ; 7066944.598732435 ; 4.786236537933422E7 ; 5.653555678985948E7 ; 0.0
9 ; 6097618.116838406 ; 7066944.598732435 ; 5.391891327787578E7 ; 6.3602501388591915E7 ; 0.0
10 ; 6164053.097098518 ; 7066944.598732435 ; 6.0016531394714184E7 ; 7.066944598732436E7 ; 0.0
11 ; 6264402.3646301385 ; 7066944.598732435 ; 6.6180584491812706E7 ; 7.77363905860568E7 ; 0.0
12 ; 6430288.118698289 ; 7066944.598732435 ; 7.244498685644284E7 ; 8.480333518478924E7 ; 0.0
13 ; 6585190.640743648 ; 7066944.598732435 ; 7.887527497514112E7 ; 9.187027978352168E7 ; 0.0
14 ; 6607018.890734814 ; 7066944.598732435 ; 8.546046561588477E7 ; 9.893722438225412E7 ; 0.0
15 ; 6613793.046937323 ; 7066944.598732435 ; 9.206748450661957E7 ; 1.0600416898098657E8 ; 0.0
16 ; 6621534.665274513 ; 7066944.598732435 ; 9.868127755355689E7 ; 1.13071113579719E8 ; 0.0
17 ; 6630263.530792564 ; 7066944.598732435 ; 1.053028122188314E8 ; 1.2013805817845145E8 ; 0.0
18 ; 6634801.264364914 ; 7066944.598732435 ; 1.1193307574962397E8 ; 1.2720500277718389E8 ; 0.0
19 ; 6644566.180970891 ; 7066944.598732435 ; 1.1856787701398888E8 ; 1.3427194737591633E8 ; 0.0
20 ; 6653827.806878174 ; 7066944.598732435 ; 1.2521244319495977E8 ; 1.4133889197464877E8 ; 0.0
21 ; 6661294.624372338 ; 7066944.598732435 ; 1.3186627100183795E8 ; 1.4840583657338122E8 ; 0.0
22 ; 6669055.438226503 ; 7066944.598732435 ; 1.385275656262103E8 ; 1.5547278117211366E8 ; 0.0
23 ; 6675933.247281894 ; 7066944.598732435 ; 1.451966210644368E8 ; 1.625397257708461E8 ; 0.0
24 ; 6684075.432715036 ; 7066944.598732435 ; 1.518725543117187E8 ; 1.6960667036957854E8 ; 0.0
25 ; 6693920.624423319 ; 7066944.598732435 ; 1.5855662974443373E8 ; 1.7667361496831098E8 ; 0.0
26 ; 6701355.611119212 ; 7066944.598732435 ; 1.6525055036885706E8 ; 1.8374055956704342E8 ; 0.0
27 ; 6707575.866751209 ; 7066944.598732435 ; 1.7195190597997627E8 ; 1.9080750416577587E8 ; 0.0
28 ; 6714067.851826298 ; 7066944.598732435 ; 1.786594818467275E8 ; 1.978744487645083E8 ; 0.0
29 ; 6720796.504542043 ; 7066944.598732435 ; 1.853735496985538E8 ; 2.0494139336324075E8 ; 0.0
30 ; 6732451.842509679 ; 7066944.598732435 ; 1.9209434620309585E8 ; 2.120083379619732E8 ; 0.0
31 ; 6737597.105138485 ; 7066944.598732435 ; 1.9882679804560554E8 ; 2.1907528256070563E8 ; 0.0
32 ; 6746771.436724319 ; 7066944.598732435 ; 2.0556439515074402E8 ; 2.2614222715943807E8 ; 0.0
33 ; 6750858.999107157 ; 7066944.598732435 ; 2.1231116658746833E8 ; 2.3320917175817052E8 ; 0.0
34 ; 6758432.186352649 ; 7066944.598732435 ; 2.1906202558657548E8 ; 2.4027611635690296E8 ; 0.0
35 ; 6764722.336164588 ; 7066944.598732435 ; 2.2582045777292812E8 ; 2.473430609556354E8 ; 0.0
36 ; 6770572.649823774 ; 7066944.598732435 ; 2.325851801090927E8 ; 2.5441000555436784E8 ; 0.0
37 ; 6777590.726292673 ; 7066944.598732435 ; 2.393557527589165E8 ; 2.6147695015310028E8 ; 0.0
38 ; 6780867.70683316 ; 7066944.598732435 ; 2.4613334348520917E8 ; 2.685438947518327E8 ; 0.0
39 ; 6793207.776198645 ; 7066944.598732435 ; 2.5291421119204232E8 ; 2.7561083935056514E8 ; 0.0
40 ; 6793655.86310082 ; 7066944.598732435 ; 2.5970741896824098E8 ; 2.8267778394929755E8 ; 0.0
41 ; 6797390.113481421 ; 7066944.598732435 ; 2.665010748313418E8 ; 2.8974472854802996E8 ; 0.0
42 ; 6806128.260005835 ; 7066944.598732435 ; 2.732984649448232E8 ; 2.968116731467624E8 ; 0.0
43 ; 6808266.941765165 ; 7066944.598732435 ; 2.8010459320482904E8 ; 3.038786177454948E8 ; 0.0
44 ; 6809963.5331925675 ; 7066944.598732435 ; 2.869128601465942E8 ; 3.109455623442272E8 ; 0.0
45 ; 6815326.504366099 ; 7066944.598732435 ; 2.937228236797868E8 ; 3.180125069429596E8 ; 0.0
46 ; 6821285.352414996 ; 7066944.598732435 ; 3.005381501841529E8 ; 3.25079451541692E8 ; 0.0
47 ; 6822542.064426692 ; 7066944.598732435 ; 3.073594355365679E8 ; 3.3214639614042443E8 ; 0.0
48 ; 6823103.987944097 ; 7066944.598732435 ; 3.1418197760099465E8 ; 3.3921334073915684E8 ; 0.0
49 ; 6827448.175399691 ; 7066944.598732435 ; 3.210050815889388E8 ; 3.4628028533788925E8 ; 0.0
50 ; 6831482.681741914 ; 7066944.598732435 ; 3.278325297643385E8 ; 3.5334722993662167E8 ; 0.0
51 ; 6832817.861702767 ; 7066944.598732435 ; 3.346640124460804E8 ; 3.604141745353541E8 ; 0.0
52 ; 6836071.597481001 ; 7066944.598732435 ; 3.414968303077831E8 ; 3.674811191340865E8 ; 0.0
53 ; 6836801.329681227 ; 7066944.598732435 ; 3.4833290190526414E8 ; 3.745480637328189E8 ; 0.0
54 ; 6841009.692086113 ; 7066944.598732435 ; 3.5516970323494536E8 ; 3.816150083315513E8 ; 0.0
55 ; 6841230.636306785 ; 7066944.598732435 ; 3.6201071292703146E8 ; 3.886819529302837E8 ; 0.0
56 ; 6840907.681640029 ; 7066944.598732435 ; 3.688519435633382E8 ; 3.9574889752901614E8 ; 0.0
57 ; 6844400.53050496 ; 7066944.598732435 ; 3.7569285124497825E8 ; 4.0281584212774855E8 ; 0.0
58 ; 6846997.019341066 ; 7066944.598732435 ; 3.825372517754832E8 ; 4.0988278672648096E8 ; 0.0
59 ; 6848242.617797354 ; 7066944.598732435 ; 3.8938424879482424E8 ; 4.169497313252134E8 ; 0.0
60 ; 6847764.872198685 ; 7066944.598732435 ; 3.962324914126216E8 ; 4.240166759239458E8 ; 0.0
61 ; 6849439.170445278 ; 7066944.598732435 ; 4.030802562848203E8 ; 4.310836205226782E8 ; 0.0
62 ; 6848786.5831231 ; 7066944.598732435 ; 4.099296954552656E8 ; 4.381505651214106E8 ; 0.0
63 ; 6855146.071780572 ; 7066944.598732435 ; 4.1677848203838867E8 ; 4.45217509720143E8 ; 0.0
64 ; 6853549.662071532 ; 7066944.598732435 ; 4.2363362811016923E8 ; 4.5228445431887543E8 ; 0.0
65 ; 6855601.928442032 ; 7066944.598732435 ; 4.3048717777224076E8 ; 4.5935139891760784E8 ; 0.0
66 ; 6855299.204091426 ; 7066944.598732435 ; 4.373427797006828E8 ; 4.6641834351634026E8 ; 0.0
67 ; 6856772.786160655 ; 7066944.598732435 ; 4.4419807890477425E8 ; 4.7348528811507267E8 ; 0.0
68 ; 6856140.527105982 ; 7066944.598732435 ; 4.510548516909349E8 ; 4.805522327138051E8 ; 0.0
69 ; 6859857.386997872 ; 7066944.598732435 ; 4.579109922180409E8 ; 4.876191773125375E8 ; 0.0
70 ; 6860206.655523795 ; 7066944.598732435 ; 4.6477084960503876E8 ; 4.946861219112699E8 ; 0.0
71 ; 6859850.032873469 ; 7066944.598732435 ; 4.7163105626056254E8 ; 5.017530665100023E8 ; 0.0
72 ; 6859539.640625703 ; 7066944.598732435 ; 4.78490906293436E8 ; 5.088200111087347E8 ; 0.0
73 ; 6861040.129141702 ; 7066944.598732435 ; 4.853504459340617E8 ; 5.1588695570746714E8 ; 0.0
74 ; 6862043.519548594 ; 7066944.598732435 ; 4.922114860632034E8 ; 5.2295390030619955E8 ; 0.0
75 ; 6862787.124277546 ; 7066944.598732435 ; 4.99073529582752E8 ; 5.3002084490493196E8 ; 0.0
76 ; 6860717.0452026 ; 7066944.598732435 ; 5.059363167070295E8 ; 5.370877895036644E8 ; 0.0
77 ; 6862840.372351005 ; 7066944.598732435 ; 5.1279703375223213E8 ; 5.441547341023968E8 ; 0.0
78 ; 6863575.625898891 ; 7066944.598732435 ; 5.196598741245831E8 ; 5.512216787011293E8 ; 0.0
79 ; 6861526.684121801 ; 7066944.598732435 ; 5.26523449750482E8 ; 5.582886232998618E8 ; 0.0
80 ; 6856343.07823497 ; 7066944.598732435 ; 5.333849764346038E8 ; 5.653555678985943E8 ; 0.0
81 ; 6855741.519437215 ; 7066944.598732435 ; 5.402413195128387E8 ; 5.724225124973267E8 ; 0.0
82 ; 6853630.243896189 ; 7066944.598732435 ; 5.470970610322759E8 ; 5.794894570960592E8 ; 0.0
83 ; 6850164.24788161 ; 7066944.598732435 ; 5.539506912761722E8 ; 5.865564016947917E8 ; 0.0
84 ; 6847300.061018803 ; 7066944.598732435 ; 5.608008555240538E8 ; 5.936233462935241E8 ; 0.0
85 ; 6846011.695288259 ; 7066944.598732435 ; 5.676481555850726E8 ; 6.006902908922566E8 ; 0.0
86 ; 6844616.727365188 ; 7066944.598732435 ; 5.744941672803609E8 ; 6.077572354909891E8 ; 0.0
87 ; 6839446.455990145 ; 7066944.598732435 ; 5.813387840077261E8 ; 6.148241800897216E8 ; 0.0
88 ; 6840651.476657343 ; 7066944.598732435 ; 5.881782304637163E8 ; 6.21891124688454E8 ; 0.0
89 ; 6838309.87335479 ; 7066944.598732435 ; 5.950188819403737E8 ; 6.289580692871865E8 ; 0.0
90 ; 6835815.728196565 ; 7066944.598732435 ; 6.018571918137285E8 ; 6.36025013885919E8 ; 0.0
91 ; 6832612.906812735 ; 7066944.598732435 ; 6.086930075419251E8 ; 6.430919584846514E8 ; 0.0
92 ; 6831021.763764827 ; 7066944.598732435 ; 6.155256204487379E8 ; 6.501589030833839E8 ; 0.0
93 ; 6826994.533437223 ; 7066944.598732435 ; 6.223566422125027E8 ; 6.572258476821164E8 ; 0.0
94 ; 6826203.33114519 ; 7066944.598732435 ; 6.2918363674594E8 ; 6.642927922808489E8 ; 0.0
95 ; 6818783.456047588 ; 7066944.598732435 ; 6.360098400770851E8 ; 6.713597368795813E8 ; 0.0
96 ; 6816555.812508095 ; 7066944.598732435 ; 6.428286235331327E8 ; 6.784266814783138E8 ; 0.0
97 ; 6816273.746709795 ; 7066944.598732435 ; 6.496451793456408E8 ; 6.854936260770463E8 ; 0.0
98 ; 6810773.708322287 ; 7066944.598732435 ; 6.564614530923506E8 ; 6.925605706757787E8 ; 0.0
99 ; 6810073.776569961 ; 7066944.598732435 ; 6.632722268006729E8 ; 6.996275152745112E8 ; 0.0
100 ; 6804945.919986013 ; 7066944.598732435 ; 6.700823005772429E8 ; 7.066944598732437E8 ; 0.0
101 ; 6803367.089566484 ; 7066944.598732435 ; 6.768872464972289E8 ; 7.137614044719762E8 ; 0.0
102 ; 6800922.759864183 ; 7066944.598732435 ; 6.836906135867953E8 ; 7.208283490707086E8 ; 0.0
103 ; 6795595.595709391 ; 7066944.598732435 ; 6.904915363466595E8 ; 7.278952936694411E8 ; 0.0
104 ; 6792159.6798879765 ; 7066944.598732435 ; 6.97287131942369E8 ; 7.349622382681736E8 ; 0.0
105 ; 6789539.99148267 ; 7066944.598732435 ; 7.04079291622257E8 ; 7.42029182866906E8 ; 0.0
106 ; 6784248.695198568 ; 7066944.598732435 ; 7.108688316137396E8 ; 7.490961274656385E8 ; 0.0
107 ; 6781937.176536819 ; 7066944.598732435 ; 7.176530803089381E8 ; 7.56163072064371E8 ; 0.0
108 ; 6776316.464523118 ; 7066944.598732435 ; 7.24435017485475E8 ; 7.632300166631035E8 ; 0.0
109 ; 6773243.716311273 ; 7066944.598732435 ; 7.31211333949998E8 ; 7.702969612618359E8 ; 0.0
110 ; 6770979.466363962 ; 7066944.598732435 ; 7.379845776663092E8 ; 7.773639058605684E8 ; 0.0
111 ; 6764479.302392954 ; 7066944.598732435 ; 7.447555571326731E8 ; 7.844308504593009E8 ; 0.0
112 ; 6762115.961722356 ; 7066944.598732435 ; 7.515200364350661E8 ; 7.914977950580333E8 ; 0.0
113 ; 6758267.467873833 ; 7066944.598732435 ; 7.582821523967885E8 ; 7.985647396567658E8 ; 0.0
114 ; 6752014.111970944 ; 7066944.598732435 ; 7.650404198646623E8 ; 8.056316842554983E8 ; 0.0
115 ; 6748788.404511029 ; 7066944.598732435 ; 7.717924339766332E8 ; 8.126986288542308E8 ; 0.0
116 ; 6743624.219363312 ; 7066944.598732435 ; 7.785412223811442E8 ; 8.197655734529632E8 ; 0.0
117 ; 6740371.081566646 ; 7066944.598732435 ; 7.852848466005075E8 ; 8.268325180516957E8 ; 0.0
118 ; 6735729.406369342 ; 7066944.598732435 ; 7.920252176820742E8 ; 8.338994626504282E8 ; 0.0
119 ; 6731324.542451357 ; 7066944.598732435 ; 7.987609470884435E8 ; 8.409664072491606E8 ; 0.0
120 ; 6727235.826098923 ; 7066944.598732435 ; 8.054922716308949E8 ; 8.480333518478931E8 ; 0.0
121 ; 6722698.429667933 ; 7066944.598732435 ; 8.122195074569938E8 ; 8.551002964466256E8 ; 0.0
122 ; 6716850.725521363 ; 7066944.598732435 ; 8.189422058866618E8 ; 8.621672410453581E8 ; 0.0
123 ; 6715075.700693879 ; 7066944.598732435 ; 8.256590566121831E8 ; 8.692341856440905E8 ; 0.0
124 ; 6710560.2257024385 ; 7066944.598732435 ; 8.323741323128769E8 ; 8.76301130242823E8 ; 0.0
125 ; 6703994.013632574 ; 7066944.598732435 ; 8.390846925385793E8 ; 8.833680748415555E8 ; 0.0
126 ; 6698245.754903586 ; 7066944.598732435 ; 8.457886865522119E8 ; 8.90435019440288E8 ; 0.0
127 ; 6694809.310501429 ; 7066944.598732435 ; 8.524869323071154E8 ; 8.975019640390204E8 ; 0.0
128 ; 6687559.711286945 ; 7066944.598732435 ; 8.591817416176169E8 ; 9.045689086377529E8 ; 0.0
129 ; 6684382.257416635 ; 7066944.598732435 ; 8.658693013289038E8 ; 9.116358532364854E8 ; 0.0
130 ; 6680437.701632702 ; 7066944.598732435 ; 8.725536835863204E8 ; 9.187027978352178E8 ; 0.0
131 ; 6668845.463049769 ; 7066944.598732435 ; 8.792341212879531E8 ; 9.257697424339503E8 ; 0.0
132 ; 6664372.102869688 ; 7066944.598732435 ; 8.859029667510029E8 ; 9.328366870326828E8 ; 0.0
133 ; 6656063.737673051 ; 7066944.598732435 ; 8.925673388538725E8 ; 9.399036316314152E8 ; 0.0
134 ; 6647905.899310974 ; 7066944.598732435 ; 8.992234025915456E8 ; 9.469705762301477E8 ; 0.0
135 ; 6640401.243837571 ; 7066944.598732435 ; 9.058713084908565E8 ; 9.540375208288802E8 ; 0.0
136 ; 6633524.18112303 ; 7066944.598732435 ; 9.125117097346941E8 ; 9.611044654276127E8 ; 0.0
137 ; 6628233.143419022 ; 7066944.598732435 ; 9.191452339158171E8 ; 9.681714100263451E8 ; 0.0
138 ; 6618581.1102379495 ; 7066944.598732435 ; 9.257734670592362E8 ; 9.752383546250776E8 ; 0.0
139 ; 6612926.264149715 ; 7066944.598732435 ; 9.323920481694741E8 ; 9.823052992238101E8 ; 0.0
140 ; 6604222.208966329 ; 7066944.598732435 ; 9.390049744336238E8 ; 9.893722438225425E8 ; 0.0
141 ; 6591833.999482487 ; 7066944.598732435 ; 9.456091966425902E8 ; 9.96439188421275E8 ; 0.0
142 ; 6588171.430298203 ; 7066944.598732435 ; 9.522010306420727E8 ; 1.0035061330200075E9 ; 0.0
143 ; 6579258.804230409 ; 7066944.598732435 ; 9.587892020723709E8 ; 1.01057307761874E9 ; 0.0
144 ; 6568994.317130481 ; 7066944.598732435 ; 9.653684608766013E8 ; 1.0176400222174724E9 ; 0.0
145 ; 6564400.412583177 ; 7066944.598732435 ; 9.719374551937318E8 ; 1.0247069668162049E9 ; 0.0
146 ; 6561722.781852757 ; 7066944.598732435 ; 9.78501855606315E8 ; 1.0317739114149374E9 ; 0.0
147 ; 6553452.99096241 ; 7066944.598732435 ; 9.850635783881677E8 ; 1.0388408560136698E9 ; 0.0
148 ; 6551358.546231161 ; 7066944.598732435 ; 9.916170313791301E8 ; 1.0459078006124023E9 ; 0.0
149 ; 6544505.839363293 ; 7066944.598732435 ; 9.981683899253613E8 ; 1.0529747452111348E9 ; 0.0
150 ; 6541841.912609674 ; 7066944.598732435 ; 1.0047128957647246E9 ; 1.0600416898098673E9 ; 0.0
151 ; 6533691.032112268 ; 7066944.598732435 ; 1.0112547376773343E9 ; 1.0671086344085997E9 ; 0.0
152 ; 6527964.074154553 ; 7066944.598732435 ; 1.0177884287094465E9 ; 1.074175579007332E9 ; 0.0
153 ; 6522289.4668603325 ; 7066944.598732435 ; 1.024316392783601E9 ; 1.0812425236060646E9 ; 0.0
154 ; 6516561.360822406 ; 7066944.598732435 ; 1.0308386822504613E9 ; 1.088309468204797E9 ; 0.0
155 ; 6511266.10433827 ; 7066944.598732435 ; 1.0373552436112838E9 ; 1.0953764128035295E9 ; 0.0
156 ; 6507508.851670191 ; 7066944.598732435 ; 1.0438665097156221E9 ; 1.102443357402262E9 ; 0.0
157 ; 6500711.204537797 ; 7066944.598732435 ; 1.0503740185672922E9 ; 1.1095103020009944E9 ; 0.0
158 ; 6494666.666324023 ; 7066944.598732435 ; 1.05687472977183E9 ; 1.116577246599727E9 ; 0.0
159 ; 6486363.441159618 ; 7066944.598732435 ; 1.063369396438154E9 ; 1.1236441911984594E9 ; 0.0
160 ; 6482383.801052478 ; 7066944.598732435 ; 1.0698557598793136E9 ; 1.1307111357971919E9 ; 0.0
161 ; 6477052.672714317 ; 7066944.598732435 ; 1.076338143680366E9 ; 1.1377780803959243E9 ; 0.0
162 ; 6470445.002999651 ; 7066944.598732435 ; 1.0828151963530803E9 ; 1.1448450249946568E9 ; 0.0
163 ; 6466465.603697352 ; 7066944.598732435 ; 1.0892856413560798E9 ; 1.1519119695933893E9 ; 0.0
164 ; 6461096.611213387 ; 7066944.598732435 ; 1.095752106959777E9 ; 1.1589789141921217E9 ; 0.0
165 ; 6453402.292166387 ; 7066944.598732435 ; 1.1022132035709906E9 ; 1.1660458587908542E9 ; 0.0
166 ; 6447803.616967799 ; 7066944.598732435 ; 1.108666605863157E9 ; 1.1731128033895867E9 ; 0.0
167 ; 6444689.285284487 ; 7066944.598732435 ; 1.115114409480125E9 ; 1.1801797479883192E9 ; 0.0
168 ; 6436149.343354001 ; 7066944.598732435 ; 1.1215590987654095E9 ; 1.1872466925870516E9 ; 0.0
169 ; 6430542.488180636 ; 7066944.598732435 ; 1.1279952481087635E9 ; 1.194313637185784E9 ; 0.0
170 ; 6423514.3797196 ; 7066944.598732435 ; 1.134425790596944E9 ; 1.2013805817845166E9 ; 0.0
171 ; 6416050.213119967 ; 7066944.598732435 ; 1.1408493049766636E9 ; 1.208447526383249E9 ; 0.0
172 ; 6411199.851391181 ; 7066944.598732435 ; 1.1472653551897836E9 ; 1.2155144709819815E9 ; 0.0
173 ; 6407380.220304536 ; 7066944.598732435 ; 1.1536765550411747E9 ; 1.222581415580714E9 ; 0.0
174 ; 6402467.592099597 ; 7066944.598732435 ; 1.1600839352614791E9 ; 1.2296483601794465E9 ; 0.0
175 ; 6398650.669751547 ; 7066944.598732435 ; 1.1664864028535788E9 ; 1.236715304778179E9 ; 0.0
176 ; 6395302.599674549 ; 7066944.598732435 ; 1.1728850535233305E9 ; 1.2437822493769114E9 ; 0.0
177 ; 6394240.725454589 ; 7066944.598732435 ; 1.179280356123005E9 ; 1.2508491939756439E9 ; 0.0
178 ; 6390328.740254601 ; 7066944.598732435 ; 1.1856745968484595E9 ; 1.2579161385743763E9 ; 0.0
179 ; 6386427.227688599 ; 7066944.598732435 ; 1.1920649255887141E9 ; 1.2649830831731088E9 ; 0.0
180 ; 6379571.665621568 ; 7066944.598732435 ; 1.1984513528164027E9 ; 1.2720500277718413E9 ; 0.0
181 ; 6379021.933101228 ; 7066944.598732435 ; 1.2048309244820242E9 ; 1.2791169723705738E9 ; 0.0
182 ; 6376879.892405079 ; 7066944.598732435 ; 1.2112099464151254E9 ; 1.2861839169693062E9 ; 0.0
183 ; 6372829.33068949 ; 7066944.598732435 ; 1.2175868263075304E9 ; 1.2932508615680387E9 ; 0.0
184 ; 6366640.435757169 ; 7066944.598732435 ; 1.2239596556382198E9 ; 1.3003178061667712E9 ; 0.0
185 ; 6366133.821920784 ; 7066944.598732435 ; 1.230326296073977E9 ; 1.3073847507655036E9 ; 0.0
186 ; 6359419.098698684 ; 7066944.598732435 ; 1.2366924298958979E9 ; 1.314451695364236E9 ; 0.0
187 ; 6359018.501645079 ; 7066944.598732435 ; 1.2430518489945965E9 ; 1.3215186399629686E9 ; 0.0
188 ; 6354122.740108962 ; 7066944.598732435 ; 1.2494108674962416E9 ; 1.328585584561701E9 ; 0.0
189 ; 6350791.957465341 ; 7066944.598732435 ; 1.2557649902363505E9 ; 1.3356525291604335E9 ; 0.0
190 ; 6346861.048350086 ; 7066944.598732435 ; 1.262115782193816E9 ; 1.342719473759166E9 ; 0.0
191 ; 6341760.912125374 ; 7066944.598732435 ; 1.268462643242166E9 ; 1.3497864183578985E9 ; 0.0
192 ; 6339713.320612319 ; 7066944.598732435 ; 1.2748044041542914E9 ; 1.356853362956631E9 ; 0.0
193 ; 6335535.706338582 ; 7066944.598732435 ; 1.2811441174749038E9 ; 1.3639203075553634E9 ; 0.0
194 ; 6331122.878270011 ; 7066944.598732435 ; 1.2874796531812425E9 ; 1.370987252154096E9 ; 0.0
195 ; 6329895.183573163 ; 7066944.598732435 ; 1.2938107760595124E9 ; 1.3780541967528284E9 ; 0.0
196 ; 6324555.281214507 ; 7066944.598732435 ; 1.3001406712430856E9 ; 1.3851211413515608E9 ; 0.0
197 ; 6322060.727170798 ; 7066944.598732435 ; 1.3064652265243E9 ; 1.3921880859502933E9 ; 0.0
198 ; 6319294.027388459 ; 7066944.598732435 ; 1.3127872872514708E9 ; 1.3992550305490258E9 ; 0.0
199 ; 6314281.320725403 ; 7066944.598732435 ; 1.3191065812788594E9 ; 1.4063219751477582E9 ; 0.0
200 ; 6311237.35098282 ; 7066944.598732435 ; 1.3254208625995848E9 ; 1.4133889197464907E9 ; 0.0
201 ; 6308942.480268754 ; 7066944.598732435 ; 1.3317320999505677E9 ; 1.4204558643452232E9 ; 0.0
202 ; 6301973.855806891 ; 7066944.598732435 ; 1.3380410424308364E9 ; 1.4275228089439557E9 ; 0.0
203 ; 6299167.732012929 ; 7066944.598732435 ; 1.3443430162866433E9 ; 1.4345897535426881E9 ; 0.0
204 ; 6296623.635158456 ; 7066944.598732435 ; 1.3506421840186563E9 ; 1.4416566981414206E9 ; 0.0
205 ; 6293306.598788713 ; 7066944.598732435 ; 1.3569388076538148E9 ; 1.448723642740153E9 ; 0.0
206 ; 6288005.206568817 ; 7066944.598732435 ; 1.3632321142526035E9 ; 1.4557905873388855E9 ; 0.0
207 ; 6286490.488675428 ; 7066944.598732435 ; 1.3695201194591722E9 ; 1.462857531937618E9 ; 0.0
208 ; 6281935.831591263 ; 7066944.598732435 ; 1.3758066099478476E9 ; 1.4699244765363505E9 ; 0.0
