CSV File for the City 1 on Day 275
1 - Minute m 
2 - Power Consumed at minute m 
3 - Power Produced at minute m 
4 - Energy Consumed since the beginning of the day 
5 - Energy Produced since the beginning of the day 
6 - Energy Lost since the beginning of the day on lines starting from the city
 
0 ; 8288452.120653284 ; 1.0563155557201084E8 ; 0.0 ; 0.0 ; 0.0
1 ; 8299329.215262765 ; 1.0578450881821698E8 ; 8288452.120653284 ; 1.0563155557201084E8 ; 0.0
2 ; 8310534.121866377 ; 1.0624624434063241E8 ; 1.658778133591605E7 ; 2.1141606439022782E8 ; 0.0
3 ; 8324539.82863324 ; 1.070167633404625E8 ; 2.4898315457782425E7 ; 3.1766230873086023E8 ; 0.0
4 ; 8338925.543083497 ; 1.080960668907876E8 ; 3.3222855286415666E7 ; 4.2467907207132274E8 ; 0.0
5 ; 8359022.385906874 ; 1.0948415593178236E8 ; 4.156178082949916E7 ; 5.3277513896211034E8 ; 0.0
6 ; 8391636.697719341 ; 1.1118103126646295E8 ; 4.992080321540604E7 ; 6.422592948938928E8 ; 0.0
7 ; 8433254.754601873 ; 1.1318669355700827E8 ; 5.831243991312538E7 ; 7.534403261603557E8 ; 0.0
8 ; 8508115.362096755 ; 1.1550114332169259E8 ; 6.6745694667727254E7 ; 8.66627019717364E8 ; 0.0
9 ; 8621164.78049249 ; 1.181243809324646E8 ; 7.5253810029824E7 ; 9.821281630390565E8 ; 0.0
10 ; 8794503.27052074 ; 1.210564066131987E8 ; 8.387497481031649E7 ; 1.1002525439715211E9 ; 0.0
11 ; 9073048.353687933 ; 1.2429722043863747E8 ; 9.266947808083722E7 ; 1.22130895058472E9 ; 0.0
12 ; 9532655.039117845 ; 1.2784682233403829E8 ; 1.0174252643452515E8 ; 1.3456061710233574E9 ; 0.0
13 ; 9966518.343357876 ; 1.3170521207552677E8 ; 1.1127518147364299E8 ; 1.4734529933573956E9 ; 0.0
14 ; 1.0009930694559813E7 ; 1.3587238929115433E8 ; 1.2124169981700087E8 ; 1.6051582054329224E9 ; 0.0
15 ; 1.0027820200018853E7 ; 1.4034835346264654E8 ; 1.3125163051156068E8 ; 1.7410305947240767E9 ; 0.0
16 ; 1.0042565671274219E7 ; 1.4513310392782465E8 ; 1.4127945071157953E8 ; 1.8813789481867232E9 ; 0.0
17 ; 1.0054888518027065E7 ; 1.502266398836724E8 ; 1.5132201638285375E8 ; 2.026512052114548E9 ; 0.0
18 ; 1.0070514188684754E7 ; 1.5562896039001513E8 ; 1.613769049008808E8 ; 2.1767386919982204E9 ; 0.0
19 ; 1.0081837310044173E7 ; 1.6134006437377253E8 ; 1.7144741908956558E8 ; 2.3323676523882356E9 ; 0.0
20 ; 1.0096114545624021E7 ; 1.673599506337392E8 ; 1.8152925639960974E8 ; 2.493707716762008E9 ; 0.0
21 ; 1.011197114729383E7 ; 1.7368861784584543E8 ; 1.9162537094523376E8 ; 2.661067667395747E9 ; 0.0
22 ; 1.0124088340110052E7 ; 1.8032606456884366E8 ; 2.017373420925276E8 ; 2.8347562852415924E9 ; 0.0
23 ; 1.0139399907554563E7 ; 1.872722892503677E8 ; 2.1186143043263766E8 ; 3.0150823498104362E9 ; 0.0
24 ; 1.0155033208317116E7 ; 1.9452729023330474E8 ; 2.2200083034019223E8 ; 3.202354639060804E9 ; 0.0
25 ; 1.0169107971816486E7 ; 2.007791066606085E8 ; 2.3215586354850936E8 ; 3.3968819292941084E9 ; 0.0
26 ; 1.018378890207989E7 ; 2.0078128451902238E8 ; 2.4232497152032584E8 ; 3.5976610359547167E9 ; 0.0
27 ; 1.0201598207987407E7 ; 2.0078359117095172E8 ; 2.5250876042240572E8 ; 3.798442320473739E9 ; 0.0
28 ; 1.021349082312386E7 ; 2.0078602460829106E8 ; 2.6271035863039312E8 ; 3.999225911644691E9 ; 0.0
29 ; 1.022357920036884E7 ; 2.0078858275275698E8 ; 2.7292384945351696E8 ; 4.200011936252982E9 ; 0.0
30 ; 1.0237115251631299E7 ; 2.007912634629586E8 ; 2.831474286538858E8 ; 4.400800519005739E9 ; 0.0
31 ; 1.0248737188041756E7 ; 2.0079406454140303E8 ; 2.933845439055171E8 ; 4.601591782468698E9 ; 0.0
32 ; 1.0264946133867146E7 ; 2.0079698374139345E8 ; 3.0363328109355885E8 ; 4.8023858470101E9 ; 0.0
33 ; 1.0275243188920936E7 ; 2.0080001877378023E8 ; 3.13898227227426E8 ; 5.003182830751493E9 ; 0.0
34 ; 1.0287331954927154E7 ; 2.0080316731352994E8 ; 3.241734704163469E8 ; 5.203982849525273E9 ; 0.0
35 ; 1.0296808428838048E7 ; 2.0080642700608152E8 ; 3.3446080237127405E8 ; 5.404786016838803E9 ; 0.0
36 ; 1.030990094076161E7 ; 2.0080979547346374E8 ; 3.447576108001121E8 ; 5.605592443844885E9 ; 0.0
37 ; 1.031828466348106E7 ; 2.00813270320151E8 ; 3.5506751174087375E8 ; 5.806402239318349E9 ; 0.0
38 ; 1.0328997279359754E7 ; 2.0081684913864043E8 ; 3.653857964043548E8 ; 6.0072155096385E9 ; 0.0
39 ; 1.033908627967046E7 ; 2.008205295147355E8 ; 3.7571479368371457E8 ; 6.208032358777141E9 ; 0.0
40 ; 1.034430690357631E7 ; 2.0082430903252655E8 ; 3.8605387996338505E8 ; 6.408852888291876E9 ; 0.0
41 ; 1.0353121308598975E7 ; 2.008281852790615E8 ; 3.9639818686696136E8 ; 6.609677197324403E9 ; 0.0
42 ; 1.0356062476636413E7 ; 2.0083215584870303E8 ; 4.0675130817556036E8 ; 6.810505382603464E9 ; 0.0
43 ; 1.036440909152818E7 ; 2.008362183471718E8 ; 4.1710737065219676E8 ; 7.0113375384521675E9 ; 0.0
44 ; 1.0368602881212136E7 ; 2.0084037039527863E8 ; 4.2747177974372494E8 ; 7.212173756799339E9 ; 0.0
45 ; 1.0373654317657532E7 ; 2.008446096323488E8 ; 4.3784038262493706E8 ; 7.413014127194618E9 ; 0.0
46 ; 1.0379069752633914E7 ; 2.008489337193463E8 ; 4.482140369425946E8 ; 7.613858736826967E9 ; 0.0
47 ; 1.038240733650201E7 ; 2.0085334034170577E8 ; 4.585931066952285E8 ; 7.814707670546313E9 ; 0.0
48 ; 1.0380833367346961E7 ; 2.008578272118815E8 ; 4.6897551403173053E8 ; 8.015561010888019E9 ; 0.0
49 ; 1.0384258943139438E7 ; 2.0086239207162532E8 ; 4.793563473990775E8 ; 8.2164188380999E9 ; 0.0
50 ; 1.038577868588219E7 ; 2.008670326940044E8 ; 4.897406063422169E8 ; 8.417281230171526E9 ; 0.0
51 ; 1.038689168715049E7 ; 2.0087174688517192E8 ; 5.001263850280991E8 ; 8.61814826286553E9 ; 0.0
52 ; 1.0382274621069776E7 ; 2.0087653248590383E8 ; 5.105132767152496E8 ; 8.819020009750702E9 ; 0.0
53 ; 1.038458976866056E7 ; 2.0088138737291467E8 ; 5.208955513363194E8 ; 9.019896542236607E9 ; 0.0
54 ; 1.0384008917059872E7 ; 2.0088630945996627E8 ; 5.3128014110497993E8 ; 9.220777929609522E9 ; 0.0
55 ; 1.0381806916497467E7 ; 2.0089129669878298E8 ; 5.416641500220398E8 ; 9.421664239069489E9 ; 0.0
56 ; 1.0382805695617247E7 ; 2.0089634707978642E8 ; 5.520459569385372E8 ; 9.622555535768272E9 ; 0.0
57 ; 1.037787104494194E7 ; 2.0090145863266343E8 ; 5.624287626341544E8 ; 9.823451882848059E9 ; 0.0
58 ; 1.037844753951695E7 ; 2.0090662942677972E8 ; 5.728066336790963E8 ; 1.0024353341480722E10 ; 0.0
59 ; 1.0379578015423689E7 ; 2.009118575714518E8 ; 5.831850812186133E8 ; 1.0225259970907501E10 ; 0.0
60 ; 1.0377288869822277E7 ; 2.0091714121608928E8 ; 5.935646592340369E8 ; 1.0426171828478952E10 ; 0.0
61 ; 1.037419111867766E7 ; 2.0092247855021888E8 ; 6.039419481038592E8 ; 1.0627088969695042E10 ; 0.0
62 ; 1.0375083680802802E7 ; 2.0092786780340138E8 ; 6.143161392225368E8 ; 1.082801144824526E10 ; 0.0
63 ; 1.0372368356178455E7 ; 2.009333072450516E8 ; 6.246912229033396E8 ; 1.1028939316048662E10 ; 0.0
64 ; 1.036976695000541E7 ; 2.009387951841714E8 ; 6.35063591259518E8 ; 1.1229872623293715E10 ; 0.0
65 ; 1.0366267267622612E7 ; 2.0094432996900526E8 ; 6.454333582095234E8 ; 1.1430811418477886E10 ; 0.0
66 ; 1.0365806141849872E7 ; 2.0094990998662648E8 ; 6.55799625477146E8 ; 1.1631755748446892E10 ; 0.0
67 ; 1.0362732008857422E7 ; 2.009555336624628E8 ; 6.661654316189959E8 ; 1.1832705658433517E10 ; 0.0
68 ; 1.0359461934866093E7 ; 2.0096119945976844E8 ; 6.765281636278533E8 ; 1.203366119209598E10 ; 0.0
69 ; 1.0358583854906375E7 ; 2.0096690587904996E8 ; 6.868876255627193E8 ; 1.2234622391555748E10 ; 0.0
70 ; 1.0356509579829918E7 ; 2.0097265145745215E8 ; 6.972462094176257E8 ; 1.2435589297434797E10 ; 0.0
71 ; 1.0349900569930468E7 ; 2.009784347681102E8 ; 7.076027189974556E8 ; 1.263656194889225E10 ; 0.0
72 ; 1.0347369058904063E7 ; 2.009842544194732E8 ; 7.17952619567386E8 ; 1.283754038366036E10 ; 0.0
73 ; 1.034723949150235E7 ; 2.0099010905460468E8 ; 7.282999886262901E8 ; 1.3038524638079834E10 ; 0.0
74 ; 1.0343921542566974E7 ; 2.0099599735046387E8 ; 7.386472281177925E8 ; 1.323951474713444E10 ; 0.0
75 ; 1.0341885404009324E7 ; 2.010019180171727E8 ; 7.489911496603595E8 ; 1.3440510744484903E10 ; 0.0
76 ; 1.0332170118062591E7 ; 2.0100786979727185E8 ; 7.593330350643688E8 ; 1.3641512662502075E10 ; 0.0
77 ; 1.0333711569683027E7 ; 2.0101385146496943E8 ; 7.696652051824315E8 ; 1.3842520532299347E10 ; 0.0
78 ; 1.0323336204932556E7 ; 2.0101986182538518E8 ; 7.799989167521145E8 ; 1.4043534383764317E10 ; 0.0
79 ; 1.0317480883887747E7 ; 2.010258997137934E8 ; 7.903222529570471E8 ; 1.4244554245589703E10 ; 0.0
80 ; 1.0303548706920715E7 ; 2.0103196399486637E8 ; 8.006397338409349E8 ; 1.4445580145303495E10 ; 0.0
81 ; 1.0294949031436771E7 ; 2.010380535619213E8 ; 8.109432825478556E8 ; 1.4646612109298363E10 ; 0.0
82 ; 1.0287331621044995E7 ; 2.0104416733617195E8 ; 8.212382315792924E8 ; 1.4847650162860285E10 ; 0.0
83 ; 1.0273839242460676E7 ; 2.010503042659873E8 ; 8.315255632003374E8 ; 1.5048694330196457E10 ; 0.0
84 ; 1.0267272397716416E7 ; 2.010564633261583E8 ; 8.417994024427981E8 ; 1.5249744634462444E10 ; 0.0
85 ; 1.0258775832710799E7 ; 2.010626435171741E8 ; 8.520666748405145E8 ; 1.5450801097788603E10 ; 0.0
86 ; 1.0245716410172844E7 ; 2.0106884386450934E8 ; 8.623254506732253E8 ; 1.5651863741305777E10 ; 0.0
87 ; 1.023306707927283E7 ; 2.010750634179227E8 ; 8.725711670833981E8 ; 1.5852932585170286E10 ; 0.0
88 ; 1.0222861960624555E7 ; 2.0108130125076807E8 ; 8.82804234162671E8 ; 1.605400764858821E10 ; 0.0
89 ; 1.0215883080624685E7 ; 2.010875564593189E8 ; 8.930270961232955E8 ; 1.6255088949838978E10 ; 0.0
90 ; 1.0201988066682281E7 ; 2.0109382816210636E8 ; 9.032429792039202E8 ; 1.6456176506298296E10 ; 0.0
91 ; 1.0189117401775138E7 ; 2.011001154992714E8 ; 9.134449672706026E8 ; 1.6657270334460402E10 ; 0.0
92 ; 1.0178684442343157E7 ; 2.011064176319315E8 ; 9.236340846723777E8 ; 1.6858370449959673E10 ; 0.0
93 ; 1.0167039229654629E7 ; 2.0111273374156237E8 ; 9.338127691147208E8 ; 1.7059476867591604E10 ; 0.0
94 ; 1.0155997503322357E7 ; 2.0111906302939424E8 ; 9.439798083443755E8 ; 1.7260589601333168E10 ; 0.0
95 ; 1.0146494327096304E7 ; 2.0112540471582362E8 ; 9.541358058476979E8 ; 1.7461708664362564E10 ; 0.0
96 ; 1.0133832296009311E7 ; 2.0113175803983995E8 ; 9.642823001747942E8 ; 1.766283406907839E10 ; 0.0
97 ; 1.0122924051761635E7 ; 2.0113812225846747E8 ; 9.744161324708035E8 ; 1.786396582711823E10 ; 0.0
98 ; 1.010842802114154E7 ; 2.011444966462222E8 ; 9.845390565225651E8 ; 1.8065103949376698E10 ; 0.0
99 ; 1.0100233217857096E7 ; 2.0115088049458382E8 ; 9.946474845437067E8 ; 1.826624844602292E10 ; 0.0
100 ; 1.0090494791950047E7 ; 2.011572731114825E8 ; 1.0047477177615638E9 ; 1.84673993265175E10 ; 0.0
101 ; 1.0070289315611007E7 ; 2.0116367382080045E8 ; 1.0148382125535138E9 ; 1.8668556599628983E10 ; 0.0
102 ; 1.0059046630560389E7 ; 2.0117008196188766E8 ; 1.0249085018691248E9 ; 1.8869720273449783E10 ; 0.0
103 ; 1.004722708291906E7 ; 2.0117649688909236E8 ; 1.0349675484996852E9 ; 1.907089035541167E10 ; 0.0
104 ; 1.0036035622672334E7 ; 2.011829179713051E8 ; 1.0450147755826042E9 ; 1.9272066852300762E10 ; 0.0
105 ; 1.0021487252715718E7 ; 2.011893445915169E8 ; 1.0550508112052765E9 ; 1.9473249770272068E10 ; 0.0
106 ; 1.0010627973916583E7 ; 2.0119577614639068E8 ; 1.0650722984579922E9 ; 1.9674439114863586E10 ; 0.0
107 ; 9996754.39355336 ; 2.0120221204584602E8 ; 1.0750829264319088E9 ; 1.9875634891009975E10 ; 0.0
108 ; 9983326.251083713 ; 2.0120865171265683E8 ; 1.085079680825462E9 ; 2.007683710305582E10 ; 0.0
109 ; 9971332.634818519 ; 2.0121509458206156E8 ; 1.0950630070765457E9 ; 2.027804575476848E10 ; 0.0
110 ; 9957581.857774252 ; 2.0122154010138586E8 ; 1.1050343397113643E9 ; 2.047926084935054E10 ; 0.0
111 ; 9938363.047969203 ; 2.0122798772967714E8 ; 1.1149919215691385E9 ; 2.0680482389451927E10 ; 0.0
112 ; 9925650.2632622 ; 2.0123443693735075E8 ; 1.1249302846171076E9 ; 2.0881710377181602E10 ; 0.0
113 ; 9912988.956342572 ; 2.0124088720584777E8 ; 1.13485593488037E9 ; 2.1082944814118954E10 ; 0.0
114 ; 9903035.32464997 ; 2.0124733802730373E8 ; 1.1447689238367124E9 ; 2.1284185701324802E10 ; 0.0
115 ; 9886138.207390115 ; 2.0125378890422788E8 ; 1.1546719591613624E9 ; 2.1485433039352108E10 ; 0.0
116 ; 9871030.362355655 ; 2.0126023934919345E8 ; 1.1645580973687525E9 ; 2.1686686828256336E10 ; 0.0
117 ; 9855812.775152523 ; 2.012666888845375E8 ; 1.1744291277311082E9 ; 2.188794706760553E10 ; 0.0
118 ; 9840603.271019893 ; 2.0127313704207078E8 ; 1.1842849405062606E9 ; 2.2089213756490067E10 ; 0.0
119 ; 9827514.12108826 ; 2.0127958336279747E8 ; 1.1941255437772806E9 ; 2.229048689353214E10 ; 0.0
120 ; 9814300.665051509 ; 2.0128602739664367E8 ; 1.2039530578983688E9 ; 2.2491766476894936E10 ; 0.0
121 ; 9794267.745368756 ; 2.012924687021952E8 ; 1.2137673585634203E9 ; 2.269305250429158E10 ; 0.0
122 ; 9779650.843514405 ; 2.0129890684644395E8 ; 1.223561626308789E9 ; 2.2894344972993774E10 ; 0.0
123 ; 9768611.860500887 ; 2.0130534140454268E8 ; 1.2333412771523035E9 ; 2.3095643879840218E10 ; 0.0
124 ; 9745326.649953542 ; 2.0131177195956802E8 ; 1.2431098890128043E9 ; 2.329694922124476E10 ; 0.0
125 ; 9732266.25050802 ; 2.0131819810229117E8 ; 1.2528552156627579E9 ; 2.3498260993204327E10 ; 0.0
126 ; 9714719.241262509 ; 2.0132461943095654E8 ; 1.262587481913266E9 ; 2.3699579191306618E10 ; 0.0
127 ; 9708140.090085248 ; 2.013310355510674E8 ; 1.2723022011545284E9 ; 2.3900903810737576E10 ; 0.0
128 ; 9685982.44522334 ; 2.0133744607517907E8 ; 1.2820103412446136E9 ; 2.4102234846288643E10 ; 0.0
129 ; 9670174.83529978 ; 2.0134385062269858E8 ; 1.291696323689837E9 ; 2.4303572292363823E10 ; 0.0
130 ; 9647928.088212496 ; 2.0135024881969127E8 ; 1.3013664985251367E9 ; 2.4504916142986523E10 ; 0.0
131 ; 9629279.617641296 ; 2.0135664029869393E8 ; 1.3110144266133492E9 ; 2.4706266391806213E10 ; 0.0
132 ; 9607107.142509785 ; 2.0136302469853383E8 ; 1.3206437062309904E9 ; 2.4907623032104908E10 ; 0.0
133 ; 9582729.823734313 ; 2.0136940166415405E8 ; 1.3302508133735E9 ; 2.510898605680344E10 ; 0.0
134 ; 9560225.246717015 ; 2.0137577084644455E8 ; 1.3398335431972344E9 ; 2.5310355458467594E10 ; 0.0
135 ; 9539284.486146891 ; 2.0138213190207878E8 ; 1.3493937684439514E9 ; 2.5511731229314037E10 ; 0.0
136 ; 9517808.474771146 ; 2.013884844933559E8 ; 1.3589330529300983E9 ; 2.5713113361216118E10 ; 0.0
137 ; 9491706.613166723 ; 2.0139482828804803E8 ; 1.3684508614048696E9 ; 2.5914501845709473E10 ; 0.0
138 ; 9469525.793989846 ; 2.0140116295925266E8 ; 1.3779425680180364E9 ; 2.611589667399752E10 ; 0.0
139 ; 9446205.795677517 ; 2.0140748818525E8 ; 1.3874120938120263E9 ; 2.631729783695677E10 ; 0.0
140 ; 9427920.508252375 ; 2.014138036493651E8 ; 1.3968582996077037E9 ; 2.651870532514202E10 ; 0.0
141 ; 9400112.133838024 ; 2.014201090398341E8 ; 1.406286220115956E9 ; 2.6720119128791386E10 ; 0.0
142 ; 9375534.899144309 ; 2.014264040496757E8 ; 1.415686332249794E9 ; 2.692153923783122E10 ; 0.0
143 ; 9352732.280033376 ; 2.0143268837656593E8 ; 1.4250618671489384E9 ; 2.7122965641880894E10 ; 0.0
144 ; 9329659.96071539 ; 2.0143896172271782E8 ; 1.4344145994289718E9 ; 2.732439833025746E10 ; 0.0
145 ; 9314330.950921135 ; 2.0144522379476458E8 ; 1.443744259389687E9 ; 2.752583729198018E10 ; 0.0
146 ; 9296924.786224607 ; 2.0145147430364674E8 ; 1.4530585903406081E9 ; 2.7727282515774944E10 ; 0.0
147 ; 9281311.522251088 ; 2.0145771296450296E8 ; 1.4623555151268327E9 ; 2.792873399007859E10 ; 0.0
148 ; 9258880.496038483 ; 2.014639394965645E8 ; 1.4716368266490839E9 ; 2.8130191703043095E10 ; 0.0
149 ; 9245316.476245783 ; 2.01470153623053E8 ; 1.4808957071451223E9 ; 2.8331655642539658E10 ; 0.0
150 ; 9231730.566617394 ; 2.014763550710817E8 ; 1.4901410236213682E9 ; 2.8533125796162712E10 ; 0.0
151 ; 9212420.745511232 ; 2.014825435715597E8 ; 1.4993727541879857E9 ; 2.8734602151233795E10 ; 0.0
152 ; 9193372.175423373 ; 2.014887188590996E8 ; 1.508585174933497E9 ; 2.8936084694805355E10 ; 0.0
153 ; 9172484.168668298 ; 2.0149488067192787E8 ; 1.5177785471089203E9 ; 2.9137573413664455E10 ; 0.0
154 ; 9159219.934445748 ; 2.015010287517983E8 ; 1.5269510312775886E9 ; 2.9339068294336384E10 ; 0.0
155 ; 9141963.845978644 ; 2.0150716284390804E8 ; 1.5361102512120345E9 ; 2.954056932308818E10 ; 0.0
156 ; 9124637.735332334 ; 2.0151328269681653E8 ; 1.5452522150580132E9 ; 2.9742076485932087E10 ; 0.0
157 ; 9107050.683346912 ; 2.01519388062367E8 ; 1.5543768527933455E9 ; 2.9943589768628902E10 ; 0.0
158 ; 9089870.850381684 ; 2.0152547869561037E8 ; 1.5634839034766924E9 ; 3.014510915669127E10 ; 0.0
159 ; 9071660.473485691 ; 2.0153155435473165E8 ; 1.572573774327074E9 ; 3.034663463538688E10 ; 0.0
160 ; 9058404.958914915 ; 2.015376148009788E8 ; 1.5816454348005598E9 ; 3.054816618974161E10 ; 0.0
161 ; 9037379.791219432 ; 2.015436597985936E8 ; 1.5907038397594748E9 ; 3.074970380454259E10 ; 0.0
162 ; 9022341.638210751 ; 2.01549689114745E8 ; 1.5997412195506942E9 ; 3.0951247464341187E10 ; 0.0
163 ; 9005392.372238578 ; 2.0155570251946425E8 ; 1.608763561188905E9 ; 3.1152797153455933E10 ; 0.0
164 ; 8984959.088638427 ; 2.0156169978558254E8 ; 1.6177689535611436E9 ; 3.1354352855975395E10 ; 0.0
165 ; 8963854.648757976 ; 2.0156768068867007E8 ; 1.6267539126497822E9 ; 3.155591455576098E10 ; 0.0
166 ; 8953580.141632704 ; 2.015736450069775E8 ; 1.63571776729854E9 ; 3.175748223644965E10 ; 0.0
167 ; 8932490.781938262 ; 2.0157959252137893E8 ; 1.644671347440173E9 ; 3.1959055881456627E10 ; 0.0
168 ; 8916095.588602956 ; 2.0158552301531684E8 ; 1.6536038382221112E9 ; 3.2160635473978004E10 ; 0.0
169 ; 8899605.94476535 ; 2.015914362747486E8 ; 1.6625199338107142E9 ; 3.236222099699332E10 ; 0.0
170 ; 8882787.422306323 ; 2.0159733208809483E8 ; 1.6714195397554796E9 ; 3.256381243326807E10 ; 0.0
171 ; 8865073.198869558 ; 2.0160321024618927E8 ; 1.6803023271777859E9 ; 3.2765409765356167E10 ; 0.0
172 ; 8845696.000510523 ; 2.0160907054223007E8 ; 1.6891674003766553E9 ; 3.2967012975602356E10 ; 0.0
173 ; 8828412.726663461 ; 2.0161491277173296E8 ; 1.6980130963771658E9 ; 3.3168622046144585E10 ; 0.0
174 ; 8816036.63388503 ; 2.0162073673248535E8 ; 1.7068415091038291E9 ; 3.3370236958916317E10 ; 0.0
175 ; 8802554.008040637 ; 2.016265422245024E8 ; 1.7156575457377143E9 ; 3.3571857695648804E10 ; 0.0
176 ; 8788008.59203291 ; 2.0163232904998395E8 ; 1.724460099745755E9 ; 3.3773484237873306E10 ; 0.0
177 ; 8772417.460107304 ; 2.0163809701327312E8 ; 1.7332481083377879E9 ; 3.397511656692329E10 ; 0.0
178 ; 8762713.024903998 ; 2.0164384592081594E8 ; 1.7420205257978952E9 ; 3.417675466393656E10 ; 0.0
179 ; 8744522.689618628 ; 2.0164957558112246E8 ; 1.7507832388227992E9 ; 3.4378398509857376E10 ; 0.0
180 ; 8728110.370274888 ; 2.0165528580472872E8 ; 1.7595277615124178E9 ; 3.45800480854385E10 ; 0.0
181 ; 8713560.836880825 ; 2.016609764041603E8 ; 1.7682558718826926E9 ; 3.4781703371243225E10 ; 0.0
182 ; 8696155.57913635 ; 2.0166664719389644E8 ; 1.7769694327195735E9 ; 3.4983364347647385E10 ; 0.0
183 ; 8684974.767713202 ; 2.016722979903358E8 ; 1.7856655882987099E9 ; 3.518503099484128E10 ; 0.0
184 ; 8670472.213679727 ; 2.0167792861176285E8 ; 1.7943505630664232E9 ; 3.538670329283161E10 ; 0.0
185 ; 8661164.896241786 ; 2.016835388783155E8 ; 1.803021035280103E9 ; 3.5588381221443375E10 ; 0.0
186 ; 8641864.120891199 ; 2.0168912861195353E8 ; 1.8116822001763449E9 ; 3.579006476032169E10 ; 0.0
187 ; 8624932.572750807 ; 2.0169469763642818E8 ; 1.820324064297236E9 ; 3.599175388893365E10 ; 0.0
188 ; 8612081.192586346 ; 2.0170024577725244E8 ; 1.8289489968699868E9 ; 3.6193448586570076E10 ; 0.0
189 ; 8594715.253780613 ; 2.0170577286167237E8 ; 1.8375610780625732E9 ; 3.639514883234733E10 ; 0.0
190 ; 8586771.448948426 ; 2.0171127871863917E8 ; 1.8461557933163538E9 ; 3.6596854605209E10 ; 0.0
191 ; 8571300.438433815 ; 2.0171676317878222E8 ; 1.8547425647653022E9 ; 3.6798565883927635E10 ; 0.0
192 ; 8556062.30022112 ; 2.017222260743828E8 ; 1.863313865203736E9 ; 3.7000282647106415E10 ; 0.0
193 ; 8540850.15948559 ; 2.017276672393486E8 ; 1.8718699275039573E9 ; 3.72020048731808E10 ; 0.0
194 ; 8524807.14095816 ; 2.0173308650918907E8 ; 1.8804107776634429E9 ; 3.740373254042015E10 ; 0.0
195 ; 8512050.499051822 ; 2.0173848372099134E8 ; 1.888935584804401E9 ; 3.760546562692934E10 ; 0.0
196 ; 8496733.66575158 ; 2.0174385871339718E8 ; 1.8974476353034527E9 ; 3.780720411065033E10 ; 0.0
197 ; 8482517.631625693 ; 2.0174921132658008E8 ; 1.9059443689692044E9 ; 3.800894796936372E10 ; 0.0
198 ; 8471061.408391219 ; 2.0175454140222362E8 ; 1.91442688660083E9 ; 3.821069718069031E10 ; 0.0
