CSV File for the City 2 on Day 229
1 - Minute m 
2 - Power Consumed at minute m 
3 - Power Produced at minute m 
4 - Energy Consumed since the beginning of the day 
5 - Energy Produced since the beginning of the day 
6 - Energy Lost since the beginning of the day on lines starting from the city
 
0 ; 154709.76096163978 ; 1.0517859182159689E8 ; 0.0 ; 0.0 ; 0.0
1 ; 157818.93423128076 ; 1.0533180334945029E8 ; 154709.76096163978 ; 1.0517859182159689E8 ; 0.0
2 ; 160403.8795509134 ; 1.0579370435046485E8 ; 312528.6951929205 ; 2.1051039517104718E8 ; 0.0
3 ; 162898.57420275465 ; 1.0656430566970843E8 ; 472932.5747438339 ; 3.1630409952151203E8 ; 0.0
4 ; 165031.0652679165 ; 1.0764362076414669E8 ; 635831.1489465886 ; 4.2286840519122046E8 ; 0.0
5 ; 167921.96285929292 ; 1.0903166604203379E8 ; 800862.2142145052 ; 5.3051202595536715E8 ; 0.0
6 ; 172876.88192170623 ; 1.1072846089584997E8 ; 968784.1770737981 ; 6.39543691997401E8 ; 0.0
7 ; 179506.76578135585 ; 1.1273402709193671E8 ; 1141661.0589955044 ; 7.50272152893251E8 ; 0.0
8 ; 189603.975219906 ; 1.150483871221878E8 ; 1321167.8247768602 ; 8.630061799851876E8 ; 0.0
9 ; 204089.12847086161 ; 1.17671561317096E8 ; 1510771.7999967663 ; 9.780545671073754E8 ; 0.0
10 ; 225490.61740408232 ; 1.2060356412881768E8 ; 1714860.9284676278 ; 1.0957261284244714E9 ; 0.0
11 ; 258463.23527011293 ; 1.2384440082326886E8 ; 1940351.5458717102 ; 1.216329692553289E9 ; 0.0
12 ; 313689.48209674243 ; 1.273940661345335E8 ; 2198814.781141823 ; 1.3401740933765578E9 ; 0.0
13 ; 365633.6757027856 ; 1.3125254561045521E8 ; 2512504.2632385655 ; 1.4675681595110912E9 ; 0.0
14 ; 372169.5538427971 ; 1.3541981892054135E8 ; 2878137.938941351 ; 1.5988207051215465E9 ; 0.0
15 ; 374924.7669947972 ; 1.3989586357289797E8 ; 3250307.492784148 ; 1.7342405240420878E9 ; 0.0
16 ; 377955.2600218569 ; 1.4468065780118373E8 ; 3625232.2597789452 ; 1.8741363876149857E9 ; 0.0
17 ; 380232.973965264 ; 1.497741822129183E8 ; 4003187.519800802 ; 2.0188170454161694E9 ; 0.0
18 ; 382142.10020646604 ; 1.5517642039984757E8 ; 4383420.493766067 ; 2.168591227629088E9 ; 0.0
19 ; 384879.0105820816 ; 1.6088735890500584E8 ; 4765562.593972533 ; 2.3237676480289354E9 ; 0.0
20 ; 388812.8527178808 ; 1.6690698688332525E8 ; 5150441.604554615 ; 2.4846550069339414E9 ; 0.0
21 ; 392206.6837268529 ; 1.7323529566748646E8 ; 5539254.457272496 ; 2.6515619938172665E9 ; 0.0
22 ; 393948.48099585244 ; 1.7987227834679997E8 ; 5931461.140999349 ; 2.824797289484753E9 ; 0.0
23 ; 396546.477376973 ; 1.868179294025197E8 ; 6325409.621995201 ; 3.004669567831553E9 ; 0.0
24 ; 398498.1675378766 ; 1.940722444095716E8 ; 6721956.099372175 ; 3.1914874972340727E9 ; 0.0
25 ; 402071.85385577986 ; 2.003232606981383E8 ; 7120454.266910051 ; 3.3855597416436443E9 ; 0.0
26 ; 404306.9461594711 ; 2.003245232058713E8 ; 7522526.120765831 ; 3.5858830023417826E9 ; 0.0
27 ; 408814.73797947774 ; 2.0032579885971332E8 ; 7926833.066925302 ; 3.7862075255476537E9 ; 0.0
28 ; 411266.30644762854 ; 2.0032708571206734E8 ; 8335647.804904779 ; 3.9865333244073668E9 ; 0.0
29 ; 413178.95304553985 ; 2.0032838214845017E8 ; 8746914.111352408 ; 4.186860410119434E9 ; 0.0
30 ; 416117.4614828714 ; 2.0032968682104224E8 ; 9160093.064397948 ; 4.387188792267884E9 ; 0.0
31 ; 419016.9436920196 ; 2.0033099859686416E8 ; 9576210.52588082 ; 4.587518479088926E9 ; 0.0
32 ; 421071.28025778773 ; 2.003323165171425E8 ; 9995227.469572838 ; 4.78784947768579E9 ; 0.0
33 ; 424387.2635334585 ; 2.00333639765264E8 ; 1.0416298749830626E7 ; 4.988181794202932E9 ; 0.0
34 ; 426710.29782529734 ; 2.0033496764134866E8 ; 1.0840686013364084E7 ; 5.188515433968196E9 ; 0.0
35 ; 429995.5122779305 ; 2.00336299541951E8 ; 1.1267396311189381E7 ; 5.388850401609545E9 ; 0.0
36 ; 431627.58493005973 ; 2.0033763494375607E8 ; 1.1697391823467312E7 ; 5.589186701151496E9 ; 0.0
37 ; 433845.9060125703 ; 2.0033897339040497E8 ; 1.2129019408397373E7 ; 5.789524336095252E9 ; 0.0
38 ; 435280.2017226657 ; 2.0034031448178673E8 ; 1.2562865314409943E7 ; 5.989863309485657E9 ; 0.0
39 ; 439598.44837905874 ; 2.003416578652853E8 ; 1.2998145516132608E7 ; 6.190203623967443E9 ; 0.0
40 ; 439570.8269610433 ; 2.0034300322858536E8 ; 1.3437743964511666E7 ; 6.390545281832728E9 ; 0.0
41 ; 442611.4644114702 ; 2.003443502937275E8 ; 1.387731479147271E7 ; 6.590888285061314E9 ; 0.0
42 ; 445400.0628433974 ; 2.003456988121715E8 ; 1.4319926255884182E7 ; 6.7912326353550415E9 ; 0.0
43 ; 446718.55642326776 ; 2.0034704856067613E8 ; 1.4765326318727579E7 ; 6.991578334167213E9 ; 0.0
44 ; 448035.72017529607 ; 2.0034839933784437E8 ; 1.5212044875150846E7 ; 7.19192538272789E9 ; 0.0
45 ; 449770.06952806754 ; 2.003497509612137E8 ; 1.5660080595326142E7 ; 7.392273782065735E9 ; 0.0
46 ; 451473.7001951241 ; 2.0035110326479492E8 ; 1.610985066485421E7 ; 7.592623533026949E9 ; 0.0
47 ; 453295.90086645784 ; 2.0035245609698135E8 ; 1.6561324365049334E7 ; 7.792974636291744E9 ; 0.0
48 ; 454336.2676724423 ; 2.0035380931876642E8 ; 1.7014620265915792E7 ; 7.993327092388725E9 ; 0.0
49 ; 455172.6871196726 ; 2.0035516280221748E8 ; 1.7468956533588234E7 ; 8.193680901707492E9 ; 0.0
50 ; 457085.66475356685 ; 2.003565164291651E8 ; 1.792412922070791E7 ; 8.394036064509709E9 ; 0.0
51 ; 456957.1035554547 ; 2.003578700900728E8 ; 1.8381214885461476E7 ; 8.594392580938875E9 ; 0.0
52 ; 458389.10151753033 ; 2.0035922368305975E8 ; 1.883817198901693E7 ; 8.794750451028948E9 ; 0.0
53 ; 460323.9433786263 ; 2.0036057711305246E8 ; 1.9296561090534464E7 ; 8.995109674712008E9 ; 0.0
54 ; 461271.7020522212 ; 2.0036193029104662E8 ; 1.975688503391309E7 ; 9.19547025182506E9 ; 0.0
55 ; 462281.0945031927 ; 2.0036328313346264E8 ; 2.021815673596531E7 ; 9.395832182116106E9 ; 0.0
56 ; 462733.7450688012 ; 2.0036463556158152E8 ; 2.0680437830468506E7 ; 9.596195465249569E9 ; 0.0
57 ; 464128.957576715 ; 2.0036598750104946E8 ; 2.1143171575537305E7 ; 9.79656010081115E9 ; 0.0
58 ; 464222.69063094415 ; 2.003673388814422E8 ; 2.160730053311402E7 ; 9.996926088312199E9 ; 0.0
59 ; 466258.1924608391 ; 2.0036868963588023E8 ; 2.2071523223744962E7 ; 1.0197293427193642E10 ; 0.0
60 ; 468715.1743620971 ; 2.0037003970068875E8 ; 2.25377814162058E7 ; 1.0397662116829521E10 ; 0.0
61 ; 467932.7820481163 ; 2.003713890150961E8 ; 2.3006496590567898E7 ; 1.059803215653021E10 ; 0.0
62 ; 469187.7917348431 ; 2.003727375209657E8 ; 2.3474429372616015E7 ; 1.0798403545545307E10 ; 0.0
63 ; 470599.00299798965 ; 2.0037408516255763E8 ; 2.394361716435086E7 ; 1.0998776283066273E10 ; 0.0
64 ; 472313.8339726454 ; 2.0037543188631546E8 ; 2.441421616734885E7 ; 1.119915036822883E10 ; 0.0
65 ; 472703.8389267261 ; 2.0037677764067617E8 ; 2.4886530001321495E7 ; 1.1399525800115147E10 ; 0.0
66 ; 473389.9258937383 ; 2.0037812237589926E8 ; 2.535923384024822E7 ; 1.1599902577755823E10 ; 0.0
67 ; 473085.9260630137 ; 2.0037946604391402E8 ; 2.583262376614196E7 ; 1.1800280700131721E10 ; 0.0
68 ; 475196.05610086035 ; 2.0038080859818158E8 ; 2.630570969220497E7 ; 1.2000660166175636E10 ; 0.0
69 ; 475715.67879145534 ; 2.0038214999357113E8 ; 2.678090574830583E7 ; 1.2201040974773817E10 ; 0.0
70 ; 476056.6371964614 ; 2.0038349018624797E8 ; 2.7256621427097287E7 ; 1.2401423124767387E10 ; 0.0
71 ; 476188.8901128062 ; 2.0038482913357243E8 ; 2.773267806429375E7 ; 1.2601806614953636E10 ; 0.0
72 ; 478646.1733577491 ; 2.0038616679400826E8 ; 2.8208866954406556E7 ; 1.2802191444087208E10 ; 0.0
73 ; 478980.63561958616 ; 2.003875031270398E8 ; 2.8687513127764303E7 ; 1.3002577610881216E10 ; 0.0
74 ; 479019.14474154677 ; 2.003888380930966E8 ; 2.9166493763383888E7 ; 1.3202965114008255E10 ; 0.0
75 ; 481008.1843921819 ; 2.0039017165348494E8 ; 2.9645512908125434E7 ; 1.340335395210135E10 ; 0.0
76 ; 481455.0768048761 ; 2.0039150377032542E8 ; 3.0126521092517614E7 ; 1.3603744123754835E10 ; 0.0
77 ; 481569.6859285911 ; 2.0039283440649617E8 ; 3.060797616932249E7 ; 1.380413562752516E10 ; 0.0
78 ; 482435.58140242856 ; 2.00394163525581E8 ; 3.108954585525108E7 ; 1.4004528461931656E10 ; 0.0
79 ; 482993.7745504209 ; 2.0039549109182185E8 ; 3.157198143665351E7 ; 1.4204922625457237E10 ; 0.0
80 ; 482165.694589457 ; 2.0039681707007548E8 ; 3.205497521120393E7 ; 1.4405318116549059E10 ; 0.0
81 ; 483518.38870707096 ; 2.003981414257737E8 ; 3.2537140905793387E7 ; 1.4605714933619135E10 ; 0.0
82 ; 482688.17666076263 ; 2.003994641248869E8 ; 3.302065929450046E7 ; 1.4806113075044909E10 ; 0.0
83 ; 483728.99262702576 ; 2.0040078513389042E8 ; 3.350334747116122E7 ; 1.5006512539169796E10 ; 0.0
84 ; 483052.7704594703 ; 2.00402104419734E8 ; 3.398707646378825E7 ; 1.5206913324303686E10 ; 0.0
85 ; 483050.0247192452 ; 2.0040342194981328E8 ; 3.447012923424772E7 ; 1.540731542872342E10 ; 0.0
86 ; 484034.21524733305 ; 2.004047376919438E8 ; 3.495317925896697E7 ; 1.5607718850673233E10 ; 0.0
87 ; 483995.3009852989 ; 2.0040605161433685E8 ; 3.54372134742143E7 ; 1.5808123588365177E10 ; 0.0
88 ; 483873.0139539295 ; 2.004073636855774E8 ; 3.59212087751996E7 ; 1.6008529639979513E10 ; 0.0
89 ; 483844.23468580085 ; 2.0040867387460348E8 ; 3.640508178915353E7 ; 1.620893700366509E10 ; 0.0
90 ; 482117.07739709574 ; 2.0040998215068734E8 ; 3.688892602383933E7 ; 1.6409345677539694E10 ; 0.0
91 ; 482825.5899703222 ; 2.004112884834178E8 ; 3.7371043101236425E7 ; 1.6609755659690382E10 ; 0.0
92 ; 484629.9524899501 ; 2.0041259284268412E8 ; 3.7853868691206746E7 ; 1.68101669481738E10 ; 0.0
93 ; 483981.189427374 ; 2.0041389519866085E8 ; 3.8338498643696696E7 ; 1.7010579541016483E10 ; 0.0
94 ; 484153.14741242066 ; 2.0041519552179402E8 ; 3.882247983312407E7 ; 1.7210993436215145E10 ; 0.0
95 ; 482807.76939409145 ; 2.00416493782788E8 ; 3.930663298053649E7 ; 1.741140863173694E10 ; 0.0
96 ; 482689.76636631665 ; 2.0041778995259368E8 ; 3.978944074993058E7 ; 1.7611825125519726E10 ; 0.0
97 ; 484429.1058976452 ; 2.0041908400239715E8 ; 4.02721305162969E7 ; 1.781224291547232E10 ; 0.0
98 ; 483134.88293990836 ; 2.0042037590360937E8 ; 4.075655962219454E7 ; 1.8012661999474716E10 ; 0.0
99 ; 482392.58361064753 ; 2.004216656278565E8 ; 4.123969450513445E7 ; 1.8213082375378326E10 ; 0.0
100 ; 481734.9802559649 ; 2.0042295314697084E8 ; 4.1722087088745095E7 ; 1.8413504041006184E10 ; 0.0
101 ; 481952.3440382746 ; 2.004242384329826E8 ; 4.2203822069001056E7 ; 1.8613926994153156E10 ; 0.0
102 ; 481268.03392351 ; 2.004255214581119E8 ; 4.2685774413039334E7 ; 1.881435123258614E10 ; 0.0
103 ; 481801.8074358576 ; 2.004268021947616E8 ; 4.316704244696284E7 ; 1.901477675404425E10 ; 0.0
104 ; 481953.26431016554 ; 2.0042808061551043E8 ; 4.3648844254398696E7 ; 1.9215203556239014E10 ; 0.0
105 ; 482105.048568983 ; 2.0042935669310677E8 ; 4.413079751870886E7 ; 1.9415631636854523E10 ; 0.0
106 ; 479915.0404678036 ; 2.0043063040046257E8 ; 4.461290256727785E7 ; 1.961606099354763E10 ; 0.0
107 ; 481041.0967943138 ; 2.004319017106479E8 ; 4.5092817607745655E7 ; 1.9816491623948093E10 ; 0.0
108 ; 479552.06253336475 ; 2.004331705968858E8 ; 4.557385870453997E7 ; 2.001692352565874E10 ; 0.0
109 ; 479800.35311923287 ; 2.0043443703254738E8 ; 4.605341076707333E7 ; 2.0217356696255627E10 ; 0.0
110 ; 480983.3709526752 ; 2.0043570099114737E8 ; 4.6533211120192565E7 ; 2.0417791133288174E10 ; 0.0
111 ; 478764.9230214598 ; 2.0043696244633982E8 ; 4.701419449114524E7 ; 2.061822683427932E10 ; 0.0
112 ; 479905.9635636297 ; 2.0043822137191418E8 ; 4.74929594141667E7 ; 2.081866379672566E10 ; 0.0
113 ; 479753.37670763856 ; 2.0043947774179167E8 ; 4.7972865377730325E7 ; 2.1019102018097572E10 ; 0.0
114 ; 478474.89734681393 ; 2.0044073153002164E8 ; 4.845261875443796E7 ; 2.1219541495839363E10 ; 0.0
115 ; 479302.12983773043 ; 2.0044198271077853E8 ; 4.893109365178478E7 ; 2.1419982227369385E10 ; 0.0
116 ; 477871.559701662 ; 2.004432312583587E8 ; 4.941039578162251E7 ; 2.1620424210080162E10 ; 0.0
117 ; 476866.92095607746 ; 2.0044447714717758E8 ; 4.9888267341324165E7 ; 2.182086744133852E10 ; 0.0
118 ; 477338.83487576357 ; 2.0044572035176712E8 ; 5.036513426228024E7 ; 2.20213119184857E10 ; 0.0
119 ; 476190.9873291664 ; 2.0044696084677324E8 ; 5.0842473097156E7 ; 2.2221757638837467E10 ; 0.0
120 ; 475301.61267961096 ; 2.004481986069534E8 ; 5.131866408448517E7 ; 2.2422204599684242E10 ; 0.0
121 ; 475418.6651379476 ; 2.0044943360717458E8 ; 5.179396569716478E7 ; 2.2622652798291195E10 ; 0.0
122 ; 474670.05049986916 ; 2.004506658224111E8 ; 5.226938436230273E7 ; 2.282310223189837E10 ; 0.0
123 ; 474147.64214668964 ; 2.004518952277428E8 ; 5.27440544128026E7 ; 2.302355289772078E10 ; 0.0
124 ; 474340.2422916037 ; 2.004531217983531E8 ; 5.321820205494929E7 ; 2.322400479294852E10 ; 0.0
125 ; 474520.9021612296 ; 2.004543455095276E8 ; 5.36925422972409E7 ; 2.3424457914746872E10 ; 0.0
126 ; 473590.00688221044 ; 2.0045556633665216E8 ; 5.416706319940213E7 ; 2.36249122602564E10 ; 0.0
127 ; 470532.5658722534 ; 2.0045678425521168E8 ; 5.4640653206284344E7 ; 2.3825367826593052E10 ; 0.0
128 ; 471921.38433580246 ; 2.0045799924078864E8 ; 5.5111185772156596E7 ; 2.4025824610848263E10 ; 0.0
129 ; 471091.6990694797 ; 2.0045921126906186E8 ; 5.55831071564924E7 ; 2.422628261008905E10 ; 0.0
130 ; 471903.54863273876 ; 2.004604203158052E8 ; 5.6054198855561875E7 ; 2.4426741821358112E10 ; 0.0
131 ; 468918.5139458144 ; 2.0046162635688654E8 ; 5.6526102404194616E7 ; 2.4627202241673916E10 ; 0.0
132 ; 467663.4272617417 ; 2.0046282936826673E8 ; 5.6995020918140434E7 ; 2.4827663868030804E10 ; 0.0
133 ; 466239.4409569671 ; 2.004640293259985E8 ; 5.746268434540217E7 ; 2.502812669739907E10 ; 0.0
134 ; 466967.8415181516 ; 2.004652262062258E8 ; 5.792892378635914E7 ; 2.522859072672507E10 ; 0.0
135 ; 465474.31850522576 ; 2.0046641998518267E8 ; 5.839589162787729E7 ; 2.5429055952931297E10 ; 0.0
136 ; 462173.78921287094 ; 2.004676106391926E8 ; 5.8861365946382515E7 ; 2.562952237291648E10 ; 0.0
137 ; 460916.81462363724 ; 2.0046879814466783E8 ; 5.932353973559538E7 ; 2.5829989983555676E10 ; 0.0
138 ; 460817.91185485525 ; 2.0046998247810864E8 ; 5.978445655021902E7 ; 2.6030458781700344E10 ; 0.0
139 ; 458698.61677988304 ; 2.0047116361610267E8 ; 6.024527446207388E7 ; 2.623092876417845E10 ; 0.0
140 ; 456910.8475327548 ; 2.0047234153532442E8 ; 6.070397307885376E7 ; 2.6431399927794556E10 ; 0.0
141 ; 456091.4305773893 ; 2.004735162125347E8 ; 6.116088392638652E7 ; 2.663187226932988E10 ; 0.0
142 ; 453875.82637584367 ; 2.004746876245801E8 ; 6.161697535696391E7 ; 2.6832345785542416E10 ; 0.0
143 ; 452599.70089891675 ; 2.0047585574839258E8 ; 6.207085118333975E7 ; 2.7032820473166996E10 ; 0.0
144 ; 451344.83082130365 ; 2.0047702056098905E8 ; 6.252345088423867E7 ; 2.723329632891539E10 ; 0.0
145 ; 450052.8089017078 ; 2.0047818203947103E8 ; 6.297479571505997E7 ; 2.743377334947638E10 ; 0.0
146 ; 450144.3962692202 ; 2.0047934016102415E8 ; 6.342484852396168E7 ; 2.763425153151585E10 ; 0.0
147 ; 449909.4423252278 ; 2.0048049490291804E8 ; 6.3874992920230895E7 ; 2.7834730871676876E10 ; 0.0
148 ; 450610.76038562035 ; 2.00481646242506E8 ; 6.432490236255612E7 ; 2.8035211366579796E10 ; 0.0
149 ; 448748.47997031 ; 2.004827941572246E8 ; 6.477551312294174E7 ; 2.82356930128223E10 ; 0.0
150 ; 447955.67191595363 ; 2.0048393862459365E8 ; 6.522426160291205E7 ; 2.8436175806979523E10 ; 0.0
151 ; 449572.6483577757 ; 2.0048507962221593E8 ; 6.567221727482801E7 ; 2.8636659745604115E10 ; 0.0
152 ; 447174.78776154236 ; 2.0048621712777692E8 ; 6.612178992318579E7 ; 2.883714482522633E10 ; 0.0
153 ; 446408.8585748864 ; 2.0048735111904487E8 ; 6.656896471094733E7 ; 2.9037631042354107E10 ; 0.0
154 ; 446255.43038681074 ; 2.0048848157387042E8 ; 6.701537356952222E7 ; 2.9238118393473152E10 ; 0.0
155 ; 445814.69505706563 ; 2.0048960847018665E8 ; 6.746162899990903E7 ; 2.9438606875047024E10 ; 0.0
156 ; 444692.9161970902 ; 2.0049073178600898E8 ; 6.79074436949661E7 ; 2.9639096483517212E10 ; 0.0
157 ; 444047.77974558104 ; 2.004918514994351E8 ; 6.835213661116318E7 ; 2.9839587215303223E10 ; 0.0
158 ; 442952.4571728179 ; 2.004929675886448E8 ; 6.879618439090876E7 ; 3.0040079066802658E10 ; 0.0
159 ; 442318.59136288485 ; 2.004940800319001E8 ; 6.923913684808157E7 ; 3.0240572034391304E10 ; 0.0
160 ; 440832.107268928 ; 2.004951888075452E8 ; 6.968145543944445E7 ; 3.0441066114423203E10 ; 0.0
161 ; 441023.42903845257 ; 2.0049629389400637E8 ; 7.012228754671338E7 ; 3.0641561303230747E10 ; 0.0
162 ; 440784.40698651265 ; 2.004973952697921E8 ; 7.056331097575183E7 ; 3.0842057597124752E10 ; 0.0
163 ; 439355.96034978796 ; 2.0049849291349304E8 ; 7.100409538273835E7 ; 3.1042554992394543E10 ; 0.0
164 ; 439345.24470800755 ; 2.0049958680378208E8 ; 7.144345134308814E7 ; 3.1243053485308037E10 ; 0.0
165 ; 438665.7927804356 ; 2.005006769194143E8 ; 7.188279658779614E7 ; 3.144355307211182E10 ; 0.0
166 ; 439409.081606009 ; 2.005017632392273E8 ; 7.232146238057657E7 ; 3.1644053749031235E10 ; 0.0
167 ; 438069.69833004154 ; 2.0050284574214095E8 ; 7.276087146218258E7 ; 3.1844555512270462E10 ; 0.0
168 ; 436829.6040245607 ; 2.0050392440715766E8 ; 7.319894116051263E7 ; 3.2045058358012604E10 ; 0.0
169 ; 436577.1277589889 ; 2.005049992133625E8 ; 7.363577076453719E7 ; 3.224556228241976E10 ; 0.0
170 ; 436024.0383787936 ; 2.0050607013992316E8 ; 7.407234789229618E7 ; 3.2446067281633125E10 ; 0.0
171 ; 433561.9019889069 ; 2.0050713716609022E8 ; 7.450837193067497E7 ; 3.264657335177305E10 ; 0.0
172 ; 433549.35979866347 ; 2.005082002711972E8 ; 7.494193383266388E7 ; 3.284708048893914E10 ; 0.0
173 ; 434882.62151800515 ; 2.0050925943466067E8 ; 7.537548319246255E7 ; 3.304758868921034E10 ; 0.0
174 ; 432271.57078080025 ; 2.0051031463598046E8 ; 7.581036581398055E7 ; 3.3248097948645E10 ; 0.0
175 ; 433649.94802824734 ; 2.0051136585473973E8 ; 7.624263738476135E7 ; 3.344860826328098E10 ; 0.0
176 ; 432751.55953169166 ; 2.005124130706052E8 ; 7.66762873327896E7 ; 3.364911962913572E10 ; 0.0
177 ; 432180.9284240717 ; 2.0051345626332724E8 ; 7.710903889232129E7 ; 3.3849632042206326E10 ; 0.0
178 ; 432179.6421219104 ; 2.0051449541274014E8 ; 7.754121982074536E7 ; 3.4050145498469654E10 ; 0.0
179 ; 431663.05868660426 ; 2.0051553049876213E8 ; 7.797339946286727E7 ; 3.4250659993882393E10 ; 0.0
180 ; 430117.7127751236 ; 2.005165615013957E8 ; 7.840506252155387E7 ; 3.445117552438116E10 ; 0.0
181 ; 429792.35058868333 ; 2.0051758840072772E8 ; 7.8835180234329E7 ; 3.465169208588255E10 ; 0.0
182 ; 429848.98188447225 ; 2.0051861117692968E8 ; 7.926497258491768E7 ; 3.485220967428328E10 ; 0.0
183 ; 428424.3504900811 ; 2.0051962981025782E8 ; 7.969482156680216E7 ; 3.505272828546021E10 ; 0.0
184 ; 429701.3753595321 ; 2.005206442810533E8 ; 8.012324591729224E7 ; 3.525324791527047E10 ; 0.0
185 ; 429829.5857848506 ; 2.0052165456974262E8 ; 8.055294729265177E7 ; 3.545376855955152E10 ; 0.0
186 ; 428045.9072779749 ; 2.0052266065683746E8 ; 8.098277687843663E7 ; 3.565429021412126E10 ; 0.0
187 ; 427149.4608117579 ; 2.005236625229353E8 ; 8.14108227857146E7 ; 3.58548128747781E10 ; 0.0
188 ; 427925.4205351761 ; 2.0052466014871934E8 ; 8.183797224652636E7 ; 3.605533653730103E10 ; 0.0
189 ; 426993.03688184207 ; 2.0052565351495883E8 ; 8.226589766706154E7 ; 3.625586119744975E10 ; 0.0
190 ; 425740.350275677 ; 2.005266426025093E8 ; 8.269289070394339E7 ; 3.6456386850964714E10 ; 0.0
191 ; 426040.2090733639 ; 2.0052762739231274E8 ; 8.311863105421907E7 ; 3.665691349356722E10 ; 0.0
192 ; 426535.69482178084 ; 2.0052860786539787E8 ; 8.354467126329243E7 ; 3.685744112095953E10 ; 0.0
193 ; 426646.4494380098 ; 2.005295840028804E8 ; 8.39712069581142E7 ; 3.705796972882493E10 ; 0.0
194 ; 424558.9730733379 ; 2.0053055578596315E8 ; 8.439785340755221E7 ; 3.725849931282781E10 ; 0.0
195 ; 423359.5257704088 ; 2.0053152319593638E8 ; 8.482241238062555E7 ; 3.745902986861378E10 ; 0.0
196 ; 425961.1715863259 ; 2.0053248621417806E8 ; 8.524577190639596E7 ; 3.7659561391809715E10 ; 0.0
197 ; 423188.51651258837 ; 2.0053344482215396E8 ; 8.567173307798228E7 ; 3.7860093878023895E10 ; 0.0
198 ; 423282.416370859 ; 2.0053439900141808E8 ; 8.609492159449486E7 ; 3.806062732284605E10 ; 0.0
199 ; 422148.05179666873 ; 2.0053534873361275E8 ; 8.651820401086572E7 ; 3.8261161721847466E10 ; 0.0
200 ; 420177.2551234977 ; 2.0053629400046897E8 ; 8.69403520626624E7 ; 3.846169707058108E10 ; 0.0
201 ; 420554.21363080654 ; 2.0053723478380653E8 ; 8.736052931778589E7 ; 3.866223336458154E10 ; 0.0
