CSV File for the City 6 on Day 216
1 - Minute m 
2 - Power Consumed at minute m 
3 - Power Produced at minute m 
4 - Energy Consumed since the beginning of the day 
5 - Energy Produced since the beginning of the day 
6 - Energy Lost since the beginning of the day on lines starting from the city
 
0 ; 709568.8669456949 ; 1.05513139614808E8 ; 0.0 ; 0.0 ; 0.0
1 ; 720210.2622432292 ; 1.0566172146655965E8 ; 709568.8669456949 ; 1.05513139614808E8 ; 0.0
2 ; 734665.3167270921 ; 1.0611946630809078E8 ; 1429779.129188924 ; 2.1117486108136764E8 ; 0.0
3 ; 749798.7678186444 ; 1.0688639880841267E8 ; 2164444.445916016 ; 3.172943273894584E8 ; 0.0
4 ; 767269.6312638816 ; 1.079625423657887E8 ; 2914243.2137346603 ; 4.241807261978711E8 ; 0.0
5 ; 789343.8301089532 ; 1.0934791862085396E8 ; 3681512.8449985418 ; 5.321432685636598E8 ; 0.0
6 ; 817124.7001036516 ; 1.1104254696107325E8 ; 4470856.675107495 ; 6.414911871845138E8 ; 0.0
7 ; 854204.0461750556 ; 1.1304644403904939E8 ; 5287981.375211147 ; 7.525337341455871E8 ; 0.0
8 ; 909418.2065535674 ; 1.1535962332976139E8 ; 6142185.421386202 ; 8.655801781846365E8 ; 0.0
9 ; 989165.2510272078 ; 1.1798209475235546E8 ; 7051603.627939769 ; 9.809398015143979E8 ; 0.0
10 ; 1115972.6761468966 ; 1.2091386438020742E8 ; 8040768.878966977 ; 1.0989218962667532E9 ; 0.0
11 ; 1317058.050776922 ; 1.2415493425852832E8 ; 9156741.555113874 ; 1.2198357606469607E9 ; 0.0
12 ; 1633536.9861692672 ; 1.2770530234210709E8 ; 1.0473799605890796E7 ; 1.343990694905489E9 ; 0.0
13 ; 1941119.541678808 ; 1.315649625575679E8 ; 1.2107336592060063E7 ; 1.471695997247596E9 ; 0.0
14 ; 1977513.6232692199 ; 1.3573390498576462E8 ; 1.4048456133738872E7 ; 1.6032609598051639E9 ; 0.0
15 ; 1994276.776062143 ; 1.4021211615171814E8 ; 1.602596975700809E7 ; 1.7389948647909284E9 ; 0.0
16 ; 2010197.8075502515 ; 1.4499957940282574E8 ; 1.8020246533070233E7 ; 1.8792069809426465E9 ; 0.0
17 ; 2027316.8420250763 ; 1.5009627535162255E8 ; 2.0030444340620484E7 ; 2.0242065603454723E9 ; 0.0
18 ; 2044472.9554682104 ; 1.555021823574735E8 ; 2.205776118264556E7 ; 2.174302835697095E9 ; 0.0
19 ; 2058090.9441095002 ; 1.612172770221152E8 ; 2.410223413811377E7 ; 2.3298050180545683E9 ; 0.0
20 ; 2077091.3604518329 ; 1.6724153467653635E8 ; 2.616032508222327E7 ; 2.4910222950766835E9 ; 0.0
21 ; 2092761.5080555547 ; 1.735749298406578E8 ; 2.8237416442675103E7 ; 2.65826382975322E9 ; 0.0
22 ; 2107908.0576207885 ; 1.802174366419664E8 ; 3.033017795073066E7 ; 2.831838759593878E9 ; 0.0
23 ; 2127224.725584418 ; 1.871690291840589E8 ; 3.243808600835145E7 ; 3.012056196235844E9 ; 0.0
24 ; 2143309.7861608253 ; 1.9442968186047477E8 ; 3.456531073393587E7 ; 3.199225225419903E9 ; 0.0
25 ; 2158585.129878767 ; 2.006874105111173E8 ; 3.67086205200967E7 ; 3.3936549072803774E9 ; 0.0
26 ; 2174752.5583497346 ; 2.006957386638062E8 ; 3.8867205649975464E7 ; 3.594342317791495E9 ; 0.0
27 ; 2191956.165157532 ; 2.0070441221431917E8 ; 4.10419582083252E7 ; 3.7950380564553013E9 ; 0.0
28 ; 2205917.2201661794 ; 2.0071340878411472E8 ; 4.3233914373482734E7 ; 3.9957424686696205E9 ; 0.0
29 ; 2224548.198670495 ; 2.0072270708629104E8 ; 4.543983159364891E7 ; 4.1964558774537354E9 ; 0.0
30 ; 2239378.0553214643 ; 2.0073228696613222E8 ; 4.76643797923194E7 ; 4.397178584540027E9 ; 0.0
31 ; 2254984.209596987 ; 2.0074212941531643E8 ; 4.9903757847640865E7 ; 4.597910871506159E9 ; 0.0
32 ; 2269931.448444409 ; 2.007522165651442E8 ; 5.215874205723785E7 ; 4.798653000921475E9 ; 0.0
33 ; 2283844.5254725176 ; 2.007625316635447E8 ; 5.442867350568226E7 ; 4.99940521748662E9 ; 0.0
34 ; 2297990.3577781664 ; 2.0077305903996587E8 ; 5.6712518031154774E7 ; 5.200167749150165E9 ; 0.0
35 ; 2313941.0833602203 ; 2.0078378406160527E8 ; 5.901050838893294E7 ; 5.40094080819013E9 ; 0.0
36 ; 2327932.8277955214 ; 2.0079469308382833E8 ; 6.132444947229316E7 ; 5.601724592251736E9 ; 0.0
37 ; 2340602.895556443 ; 2.0080577339706874E8 ; 6.365238230008868E7 ; 5.802519285335564E9 ; 0.0
38 ; 2358364.228140763 ; 2.008170131720232E8 ; 6.599298519564512E7 ; 6.003325058732633E9 ; 0.0
39 ; 2367758.8177753296 ; 2.008284014045403E8 ; 6.835134942378588E7 ; 6.204142071904655E9 ; 0.0
40 ; 2381693.653225021 ; 2.0083992786125764E8 ; 7.07191082415612E7 ; 6.4049704733091955E9 ; 0.0
41 ; 2392465.345507093 ; 2.0085158302675948E8 ; 7.310080189478622E7 ; 6.605810401170453E9 ; 0.0
42 ; 2404220.1097888434 ; 2.0086335805279684E8 ; 7.549326724029332E7 ; 6.806661984197212E9 ; 0.0
43 ; 2415835.4074892118 ; 2.0087524470993215E8 ; 7.789748735008217E7 ; 7.00752534225001E9 ; 0.0
44 ; 2425812.5754710506 ; 2.0088723534182683E8 ; 8.031332275757138E7 ; 7.208400586959942E9 ; 0.0
45 ; 2436090.29182878 ; 2.008993228222826E8 ; 8.273913533304243E7 ; 7.409287822301768E9 ; 0.0
46 ; 2444818.9773740564 ; 2.0091150051506358E8 ; 8.517522562487121E7 ; 7.610187145124051E9 ; 0.0
47 ; 2454765.5748613426 ; 2.0092376223646656E8 ; 8.762004460224527E7 ; 7.811098645639114E9 ; 0.0
48 ; 2465354.7645032727 ; 2.0093610222056234E8 ; 9.007481017710662E7 ; 8.012022407875581E9 ; 0.0
49 ; 2472439.7873019506 ; 2.0094851508700165E8 ; 9.254016494160989E7 ; 8.212958510096143E9 ; 0.0
50 ; 2477259.736611858 ; 2.0096099581125903E8 ; 9.501260472891185E7 ; 8.413907025183145E9 ; 0.0
51 ; 2485059.7293959977 ; 2.0097353969717616E8 ; 9.74898644655237E7 ; 8.614868020994404E9 ; 0.0
52 ; 2492254.170007279 ; 2.009861423516615E8 ; 9.99749241949197E7 ; 8.81584156069158E9 ; 0.0
53 ; 2498048.405648178 ; 2.0099879966140074E8 ; 1.0246717836492698E8 ; 9.016827703043242E9 ; 0.0
54 ; 2504795.0817647427 ; 2.0101150777143523E8 ; 1.0496522677057515E8 ; 9.217826502704641E9 ; 0.0
55 ; 2512469.4685314666 ; 2.0102426306547052E8 ; 1.074700218523399E8 ; 9.418838010476076E9 ; 0.0
56 ; 2520033.165960231 ; 2.010370621477815E8 ; 1.0998249132087135E8 ; 9.619862273541546E9 ; 0.0
57 ; 2527167.540678709 ; 2.0104990182658935E8 ; 1.1250252448683159E8 ; 9.820899335689327E9 ; 0.0
58 ; 2531867.533361566 ; 2.0106277909879187E8 ; 1.150296920275103E8 ; 1.0021949237515917E10 ; 0.0
59 ; 2538457.0240965155 ; 2.0107569113593653E8 ; 1.1756155956087187E8 ; 1.0223012016614708E10 ; 0.0
60 ; 2544516.735013567 ; 2.0108863527133405E8 ; 1.2010001658496839E8 ; 1.0424087707750645E10 ; 0.0
61 ; 2549283.64640317 ; 2.0110160898821685E8 ; 1.2264453331998196E8 ; 1.0625176343021978E10 ; 0.0
62 ; 2555786.6235629614 ; 2.0111460990885505E8 ; 1.2519381696638513E8 ; 1.0826277952010195E10 ; 0.0
63 ; 2563483.433068168 ; 2.01127635784549E8 ; 1.2774960358994809E8 ; 1.102739256191905E10 ; 0.0
64 ; 2568700.2865765207 ; 2.0114068448642382E8 ; 1.3031308702301626E8 ; 1.12285201977036E10 ; 0.0
65 ; 2574683.829867846 ; 2.0115375399695855E8 ; 1.3288178730959278E8 ; 1.1429660882190023E10 ; 0.0
66 ; 2582934.9187190216 ; 2.0116684240218672E8 ; 1.3545647113946062E8 ; 1.1630814636186981E10 ; 0.0
67 ; 2586627.5349282566 ; 2.0117994788451216E8 ; 1.3803940605817965E8 ; 1.1831981478589169E10 ; 0.0
68 ; 2594778.8592277705 ; 2.0119306871608722E8 ; 1.406260335931079E8 ; 1.203316142647368E10 ; 0.0
69 ; 2598586.2944191084 ; 2.0120620325270638E8 ; 1.432208124523357E8 ; 1.2234354495189768E10 ; 0.0
70 ; 2605589.113239268 ; 2.0121934992817158E8 ; 1.458193987467548E8 ; 1.2435560698442474E10 ; 0.0
71 ; 2607863.799433608 ; 2.0123250724908954E8 ; 1.4842498785999405E8 ; 1.2636780048370646E10 ; 0.0
72 ; 2615798.512793098 ; 2.0124567379006523E8 ; 1.5103285165942767E8 ; 1.2838012555619736E10 ; 0.0
73 ; 2619851.826116426 ; 2.0125884818925843E8 ; 1.5364865017222077E8 ; 1.3039258229409801E10 ; 0.0
74 ; 2625806.991998167 ; 2.0127202914427316E8 ; 1.5626850199833718E8 ; 1.324051707759906E10 ; 0.0
75 ; 2629603.896530904 ; 2.0128521540835267E8 ; 1.5889430899033535E8 ; 1.3441789106743334E10 ; 0.0
76 ; 2637116.597120056 ; 2.012984057868551E8 ; 1.6152391288686624E8 ; 1.3643074322151686E10 ; 0.0
77 ; 2641024.541572561 ; 2.0131159913398677E8 ; 1.641610294839863E8 ; 1.3844372727938541E10 ; 0.0
78 ; 2643538.9678645674 ; 2.0132479434977245E8 ; 1.6680205402555886E8 ; 1.4045684327072529E10 ; 0.0
79 ; 2645846.6813775767 ; 2.013379903772434E8 ; 1.6944559299342343E8 ; 1.4247009121422302E10 ; 0.0
80 ; 2645810.5118140713 ; 2.013511861998259E8 ; 1.7209143967480102E8 ; 1.4448347111799545E10 ; 0.0
81 ; 2646656.909746962 ; 2.013643808389146E8 ; 1.7473725018661508E8 ; 1.464969829799937E10 ; 0.0
82 ; 2646809.1969111525 ; 2.0137757335161564E8 ; 1.7738390709636205E8 ; 1.4851062678838285E10 ; 0.0
83 ; 2648787.960202119 ; 2.013907628286468E8 ; 1.800307162932732E8 ; 1.5052440252189901E10 ; 0.0
84 ; 2647612.3705216055 ; 2.014039483923823E8 ; 1.8267950425347534E8 ; 1.5253831015018549E10 ; 0.0
85 ; 2650471.6228901614 ; 2.01417129195031E8 ; 1.8532711662399694E8 ; 1.545523496341093E10 ; 0.0
86 ; 2648623.094799266 ; 2.0143030441693813E8 ; 1.8797758824688712E8 ; 1.565665209260596E10 ; 0.0
87 ; 2652047.8249951336 ; 2.0144347326500088E8 ; 1.906262113416864E8 ; 1.58580823970229E10 ; 0.0
88 ; 2650449.3062149715 ; 2.0145663497118956E8 ; 1.9327825916668153E8 ; 1.60595258702879E10 ; 0.0
89 ; 2651118.192056862 ; 2.01469788791166E8 ; 1.959287084728965E8 ; 1.626098250525909E10 ; 0.0
90 ; 2648513.15450354 ; 2.0148293400299287E8 ; 1.9857982666495335E8 ; 1.6462452294050257E10 ; 0.0
91 ; 2651667.2334849006 ; 2.0149606990592614E8 ; 2.012283398194569E8 ; 1.666393522805325E10 ; 0.0
92 ; 2652895.043830776 ; 2.0150919581928557E8 ; 2.038800070529418E8 ; 1.6865431297959175E10 ; 0.0
93 ; 2652853.453274879 ; 2.01522311081397E8 ; 2.0653290209677258E8 ; 1.7066940493778461E10 ; 0.0
94 ; 2651528.720350961 ; 2.0153541504860154E8 ; 2.0918575555004746E8 ; 1.726846280485986E10 ; 0.0
95 ; 2651244.135235829 ; 2.0154850709432697E8 ; 2.118372842703984E8 ; 1.7469998219908463E10 ; 0.0
96 ; 2650630.373757277 ; 2.0156158660821664E8 ; 2.1448852840563422E8 ; 1.767154672700279E10 ; 0.0
97 ; 2651133.789515485 ; 2.015746529953123E8 ; 2.171391587793915E8 ; 1.7873108313611004E10 ; 0.0
98 ; 2651705.5759086926 ; 2.0158770567528668E8 ; 2.19790292568907E8 ; 1.8074682966606316E10 ; 0.0
99 ; 2650800.3112044726 ; 2.016007440817228E8 ; 2.2244199814481568E8 ; 1.82762706722816E10 ; 0.0
100 ; 2649297.4586610305 ; 2.0161376766143623E8 ; 2.2509279845602015E8 ; 1.8477871416363323E10 ; 0.0
101 ; 2648536.0647189543 ; 2.016267758738384E8 ; 2.2774209591468117E8 ; 1.867948518402476E10 ; 0.0
102 ; 2648138.2806147775 ; 2.0163976819033685E8 ; 2.3039063197940013E8 ; 1.8881111959898598E10 ; 0.0
103 ; 2648077.0841016574 ; 2.016527440937712E8 ; 2.330387702600149E8 ; 1.9082751728088936E10 ; 0.0
104 ; 2647041.353964175 ; 2.0166570307788172E8 ; 2.3568684734411654E8 ; 1.928440447218271E10 ; 0.0
105 ; 2647218.170044379 ; 2.0167864464680868E8 ; 2.3833388869808072E8 ; 1.948607017526059E10 ; 0.0
106 ; 2645322.5814848845 ; 2.0169156831462038E8 ; 2.409811068681251E8 ; 1.96877488199074E10 ; 0.0
107 ; 2642829.6243206407 ; 2.0170447360486782E8 ; 2.4362642944961E8 ; 1.988944038822202E10 ; 0.0
108 ; 2644053.9470176953 ; 2.0171736005016488E8 ; 2.4626925907393062E8 ; 2.0091144861826885E10 ; 0.0
109 ; 2641268.3626019745 ; 2.0173022719179165E8 ; 2.4891331302094832E8 ; 2.029286222187705E10 ; 0.0
110 ; 2642535.235836996 ; 2.0174307457932E8 ; 2.515545813835503E8 ; 2.049459244906884E10 ; 0.0
111 ; 2640672.566175627 ; 2.0175590177025977E8 ; 2.5419711661938727E8 ; 2.069633552364816E10 ; 0.0
112 ; 2639385.736354111 ; 2.017687083297241E8 ; 2.568377891855629E8 ; 2.089809142541842E10 ; 0.0
113 ; 2634890.725410697 ; 2.017814938301135E8 ; 2.5947717492191702E8 ; 2.1099860133748142E10 ; 0.0
114 ; 2635452.874409619 ; 2.0179425785081622E8 ; 2.6211206564732772E8 ; 2.1301641627578255E10 ; 0.0
115 ; 2633537.1607929436 ; 2.0180699997792533E8 ; 2.6474751852173734E8 ; 2.150343588542907E10 ; 0.0
116 ; 2631271.6257250397 ; 2.0181971980397046E8 ; 2.6738105568253028E8 ; 2.1705242885406994E10 ; 0.0
117 ; 2630502.168591807 ; 2.018324169276638E8 ; 2.700123273082553E8 ; 2.1907062605210964E10 ; 0.0
118 ; 2628510.2165442607 ; 2.018450909536595E8 ; 2.726428294768471E8 ; 2.2108895022138626E10 ; 0.0
119 ; 2624989.6129389526 ; 2.0185774149232548E8 ; 2.752713396933914E8 ; 2.2310740113092285E10 ; 0.0
120 ; 2624141.8084767573 ; 2.018703681595271E8 ; 2.778963293063303E8 ; 2.251259785458461E10 ; 0.0
121 ; 2619527.5862016534 ; 2.0188297057642192E8 ; 2.8052047111480707E8 ; 2.2714468222744137E10 ; 0.0
122 ; 2620297.971230386 ; 2.0189554836926505E8 ; 2.8313999870100874E8 ; 2.291635119332056E10 ; 0.0
123 ; 2615039.7627556617 ; 2.0190810116922417E8 ; 2.857602966722391E8 ; 2.3118246741689827E10 ; 0.0
124 ; 2615701.743808377 ; 2.0192062861220405E8 ; 2.8837533643499476E8 ; 2.332015484285905E10 ; 0.0
125 ; 2610228.7412341954 ; 2.0193313033867964E8 ; 2.9099103817880315E8 ; 2.3522075471471256E10 ; 0.0
126 ; 2608115.9624849632 ; 2.019456059935378E8 ; 2.936012669200373E8 ; 2.3724008601809937E10 ; 0.0
127 ; 2605476.5784836994 ; 2.0195805522592658E8 ; 2.962093828825223E8 ; 2.3925954207803474E10 ; 0.0
128 ; 2605093.30328156 ; 2.0197047768911183E8 ; 2.98814859461006E8 ; 2.41279122630294E10 ; 0.0
129 ; 2600327.6202053363 ; 2.019828730403412E8 ; 3.0141995276428753E8 ; 2.4329882740718513E10 ; 0.0
130 ; 2596171.7813047245 ; 2.0199524094071436E8 ; 3.040202803844929E8 ; 2.4531865613758854E10 ; 0.0
131 ; 2588944.454778084 ; 2.0200758105505973E8 ; 3.066164521657976E8 ; 2.473386085469957E10 ; 0.0
132 ; 2583433.887153744 ; 2.020198930518169E8 ; 3.0920539662057567E8 ; 2.493586843575463E10 ; 0.0
133 ; 2575812.251593328 ; 2.0203217660292494E8 ; 3.117888305077294E8 ; 2.5137888328806446E10 ; 0.0
134 ; 2571945.7648477424 ; 2.0204443138371578E8 ; 3.1436464275932276E8 ; 2.533992050540937E10 ; 0.0
135 ; 2561880.3511011414 ; 2.0205665707281274E8 ; 3.169365885241705E8 ; 2.5541964936793087E10 ; 0.0
136 ; 2555251.638526643 ; 2.020688533520338E8 ; 3.194984688752717E8 ; 2.57440215938659E10 ; 0.0
137 ; 2548589.404489684 ; 2.0208101990629932E8 ; 3.220537205137983E8 ; 2.5946090447217934E10 ; 0.0
138 ; 2538289.88488014 ; 2.0209315642354426E8 ; 3.24602309918288E8 ; 2.6148171467124233E10 ; 0.0
139 ; 2531619.5173700657 ; 2.0210526259463415E8 ; 3.271405998031681E8 ; 2.635026462354778E10 ; 0.0
140 ; 2527695.3314421857 ; 2.0211733811328524E8 ; 3.2967221932053816E8 ; 2.6552369886142414E10 ; 0.0
141 ; 2519522.594077908 ; 2.0212938267598808E8 ; 3.3219991465198034E8 ; 2.67544872242557E10 ; 0.0
142 ; 2511029.3211674416 ; 2.0214139598193467E8 ; 3.347194372460582E8 ; 2.6956616606931686E10 ; 0.0
143 ; 2503469.377730001 ; 2.0215337773294896E8 ; 3.372304665672257E8 ; 2.715875800291362E10 ; 0.0
144 ; 2495556.555256868 ; 2.021653276334204E8 ; 3.397339359449557E8 ; 2.736091138064657E10 ; 0.0
145 ; 2495515.740496951 ; 2.021772453902406E8 ; 3.4222949250021255E8 ; 2.7563076708279987E10 ; 0.0
146 ; 2490889.3820018657 ; 2.0218913071274266E8 ; 3.447250082407095E8 ; 2.7765253953670227E10 ; 0.0
147 ; 2486173.2056161435 ; 2.0220098331264338E8 ; 3.4721589762271136E8 ; 2.796744308438297E10 ; 0.0
148 ; 2485618.4263152615 ; 2.022128029039879E8 ; 3.497020708283275E8 ; 2.8169644067695614E10 ; 0.0
149 ; 2478525.239443291 ; 2.0222458920309702E8 ; 3.521876892546427E8 ; 2.83718568705996E10 ; 0.0
150 ; 2478671.944165124 ; 2.022363419285164E8 ; 3.54666214494086E8 ; 2.85740814598027E10 ; 0.0
151 ; 2476326.422356465 ; 2.0224806080096856E8 ; 3.5714488643825114E8 ; 2.8776317801731216E10 ; 0.0
152 ; 2471853.2325868653 ; 2.0225974554330653E8 ; 3.596212128606076E8 ; 2.8978565862532185E10 ; 0.0
153 ; 2468975.125832805 ; 2.0227139588046983E8 ; 3.620930660931945E8 ; 2.9180825608075493E10 ; 0.0
154 ; 2468023.269910684 ; 2.022830115394421E8 ; 3.645620412190273E8 ; 2.9383097003955963E10 ; 0.0
155 ; 2466172.8798225075 ; 2.0229459224921072E8 ; 3.67030064488938E8 ; 2.9585380015495407E10 ; 0.0
156 ; 2461824.415387492 ; 2.023061377407283E8 ; 3.6949623736876047E8 ; 2.9787674607744617E10 ; 0.0
157 ; 2459924.706470716 ; 2.0231764774687555E8 ; 3.71958061784148E8 ; 2.9989980745485344E10 ; 0.0
158 ; 2457263.5197270755 ; 2.0232912200242603E8 ; 3.744179864906187E8 ; 3.019229839323222E10 ; 0.0
159 ; 2451746.5304451683 ; 2.0234056024401215E8 ; 3.7687525001034576E8 ; 3.0394627515234646E10 ; 0.0
160 ; 2448323.5835988154 ; 2.023519622100928E8 ; 3.793269965407909E8 ; 3.0596968075478657E10 ; 0.0
161 ; 2444375.986442854 ; 2.023633276409225E8 ; 3.817753201243897E8 ; 3.079932003768875E10 ; 0.0
162 ; 2442751.369141357 ; 2.023746562785213E8 ; 3.842196961108326E8 ; 3.1001683365329674E10 ; 0.0
163 ; 2440103.9344816385 ; 2.023859478666469E8 ; 3.866624474799739E8 ; 3.1204058021608196E10 ; 0.0
164 ; 2436273.88214926 ; 2.023972021507669E8 ; 3.8910255141445553E8 ; 3.1406443969474842E10 ; 0.0
165 ; 2435340.0363010904 ; 2.024084188780331E8 ; 3.915388252966048E8 ; 3.160884117162561E10 ; 0.0
166 ; 2430957.0702406457 ; 2.024195977972564E8 ; 3.939741653329059E8 ; 3.1811249590503643E10 ; 0.0
167 ; 2426567.21653648 ; 2.0243073865888295E8 ; 3.964051224031465E8 ; 3.20136691883009E10 ; 0.0
168 ; 2424455.364200422 ; 2.0244184121497113E8 ; 3.9883168961968297E8 ; 3.221609992695978E10 ; 0.0
169 ; 2421812.7048150417 ; 2.024529052191699E8 ; 4.012561449838834E8 ; 3.241854176817475E10 ; 0.0
170 ; 2415451.083541308 ; 2.024639304266976E8 ; 4.036779576886984E8 ; 3.262099467339392E10 ; 0.0
171 ; 2414354.143455212 ; 2.0247491659432194E8 ; 4.0609340877223974E8 ; 3.2823458603820618E10 ; 0.0
172 ; 2411369.018420923 ; 2.0248586348034075E8 ; 4.0850776291569495E8 ; 3.302593352041494E10 ; 0.0
173 ; 2408704.3916878686 ; 2.0249677084456354E8 ; 4.109191319341159E8 ; 3.322841938389528E10 ; 0.0
174 ; 2406625.8437171374 ; 2.0250763844829386E8 ; 4.1332783632580376E8 ; 3.343091615473984E10 ; 0.0
175 ; 2403936.051242654 ; 2.0251846605431244E8 ; 4.157344621695209E8 ; 3.3633423793188137E10 ; 0.0
176 ; 2400662.4257773315 ; 2.0252925342686093E8 ; 4.1813839822076356E8 ; 3.383594225924245E10 ; 0.0
177 ; 2398825.732214759 ; 2.025400003316265E8 ; 4.205390606465409E8 ; 3.403847151266931E10 ; 0.0
178 ; 2395791.5187087664 ; 2.0255070653572693E8 ; 4.229378863787556E8 ; 3.424101151300094E10 ; 0.0
179 ; 2395877.6330148517 ; 2.0256137180769646E8 ; 4.253336778974644E8 ; 3.444356221953667E10 ; 0.0
180 ; 2395081.0363055863 ; 2.0257199591747215E8 ; 4.2772955553047925E8 ; 3.464612359134436E10 ; 0.0
181 ; 2390538.6739954962 ; 2.025825786363809E8 ; 4.3012463656678486E8 ; 3.484869558726183E10 ; 0.0
182 ; 2388256.699986153 ; 2.0259311973712707E8 ; 4.3251517524078035E8 ; 3.505127816589822E10 ; 0.0
183 ; 2387126.840294577 ; 2.0260361899378034E8 ; 4.349034319407665E8 ; 3.5253871285635345E10 ; 0.0
184 ; 2385507.9278244027 ; 2.0261407618176463E8 ; 4.372905587810611E8 ; 3.545647490462913E10 ; 0.0
185 ; 2381804.411237547 ; 2.0262449107784683E8 ; 4.396760667088855E8 ; 3.565908898081089E10 ; 0.0
186 ; 2380324.3379639755 ; 2.026348634601267E8 ; 4.42057871120123E8 ; 3.586171347188874E10 ; 0.0
187 ; 2379986.568957634 ; 2.0264519310802662E8 ; 4.44438195458087E8 ; 3.606434833534887E10 ; 0.0
188 ; 2375563.8163881185 ; 2.0265547980228227E8 ; 4.4681818202704465E8 ; 3.6266993528456894E10 ; 0.0
189 ; 2373747.678624406 ; 2.0266572332493332E8 ; 4.491937458434328E8 ; 3.646964900825918E10 ; 0.0
190 ; 2370578.5501591302 ; 2.026759234593148E8 ; 4.515674935220572E8 ; 3.6672314731584114E10 ; 0.0
191 ; 2371391.3419424435 ; 2.026860799900488E8 ; 4.5393807207221633E8 ; 3.687499065504343E10 ; 0.0
192 ; 2367804.6799149998 ; 2.0269619270303643E8 ; 4.5630946341415876E8 ; 3.707767673503348E10 ; 0.0
193 ; 2365970.565783738 ; 2.027062613854503E8 ; 4.586772680940738E8 ; 3.728037292773651E10 ; 0.0
194 ; 2363926.1564793102 ; 2.0271628582572716E8 ; 4.610432386598575E8 ; 3.748307918912196E10 ; 0.0
195 ; 2363936.9823218314 ; 2.0272626581356108E8 ; 4.634071648163368E8 ; 3.768579547494769E10 ; 0.0
196 ; 2358275.2744540526 ; 2.027362011398968E8 ; 4.6577110179865867E8 ; 3.788852174076125E10 ; 0.0
197 ; 2357780.724219901 ; 2.0274609159692338E8 ; 4.681293770731127E8 ; 3.809125794190115E10 ; 0.0
198 ; 2355332.269684354 ; 2.0275593697806826E8 ; 4.7048715779733264E8 ; 3.829400403349808E10 ; 0.0
199 ; 2354516.03251816 ; 2.0276573707799155E8 ; 4.72842490067017E8 ; 3.849675997047614E10 ; 0.0
200 ; 2353462.33105273 ; 2.0277549169258043E8 ; 4.7519700609953517E8 ; 3.869952570755414E10 ; 0.0
