CSV File for the City 1 on Day 333
1 - Minute m 
2 - Power Consumed at minute m 
3 - Power Produced at minute m 
4 - Energy Consumed since the beginning of the day 
5 - Energy Produced since the beginning of the day 
6 - Energy Lost since the beginning of the day on lines starting from the city
 
0 ; 1.6129313485098192E7 ; 1.0570588947340825E8 ; 0.0 ; 0.0 ; 0.0
1 ; 1.6148532337438589E7 ; 1.0585880790231031E8 ; 1.6129313485098192E7 ; 1.0570588947340825E8 ; 0.0
2 ; 1.6165023356061483E7 ; 1.0632051257925972E8 ; 3.227784582253678E7 ; 2.1156469737571856E8 ; 0.0
3 ; 1.618610002557773E7 ; 1.0709100460748166E8 ; 4.844286917859826E7 ; 3.178852099549783E8 ; 0.0
4 ; 1.620850869714719E7 ; 1.0817028497112477E8 ; 6.4628969204175994E7 ; 4.2497621456245995E8 ; 0.0
5 ; 1.6241103545975728E7 ; 1.0955835453136283E8 ; 8.083747790132318E7 ; 5.331464995335847E8 ; 0.0
6 ; 1.6277295007692758E7 ; 1.112552140229378E8 ; 9.707858144729891E7 ; 6.427048540649476E8 ; 0.0
7 ; 1.633062919632582E7 ; 1.1326086405117667E8 ; 1.1335587645499167E8 ; 7.539600680878854E8 ; 0.0
8 ; 1.6406020072601989E7 ; 1.1557530508950973E8 ; 1.2968650565131749E8 ; 8.67220932139062E8 ; 0.0
9 ; 1.65242317540102E7 ; 1.181985374775151E8 ; 1.4609252572391948E8 ; 9.827962372285718E8 ; 0.0
10 ; 1.6709626231425712E7 ; 1.2113056141950786E8 ; 1.6261675747792968E8 ; 1.1009947747060869E9 ; 0.0
11 ; 1.6998418534303457E7 ; 1.2437137698368797E8 ; 1.7932638370935538E8 ; 1.2221253361255946E9 ; 0.0
12 ; 1.7460587924673956E7 ; 1.2792098410185543E8 ; 1.9632480224365884E8 ; 1.3464967131092825E9 ; 0.0
13 ; 1.7908125847390827E7 ; 1.3177938256969517E8 ; 2.137853901683328E8 ; 1.474417697211138E9 ; 0.0
14 ; 1.795731758597614E7 ; 1.3594657204762918E8 ; 2.3169351601572362E8 ; 1.6061970797808332E9 ; 0.0
15 ; 1.798119577936862E7 ; 1.40422552062227E8 ; 2.4965083360169977E8 ; 1.7421436518284624E9 ; 0.0
16 ; 1.8001758025166336E7 ; 1.452073220081618E8 ; 2.6763202938106838E8 ; 1.8825662038906894E9 ; 0.0
17 ; 1.802479294198816E7 ; 1.5030088115069154E8 ; 2.8563378740623474E8 ; 2.0277735258988512E9 ; 0.0
18 ; 1.804732598801973E7 ; 1.5570322862864244E8 ; 3.036585803482229E8 ; 2.178074407049543E9 ; 0.0
19 ; 1.806746455402586E7 ; 1.6141436345786586E8 ; 3.217059063362426E8 ; 2.3337776356781855E9 ; 0.0
20 ; 1.809020284812308E7 ; 1.674342845351366E8 ; 3.3977337089026845E8 ; 2.495191999136051E9 ; 0.0
21 ; 1.8110787103055466E7 ; 1.737629906424565E8 ; 3.578635737383915E8 ; 2.662626283671188E9 ; 0.0
22 ; 1.8132311014410306E7 ; 1.8040048045172483E8 ; 3.75974360841447E8 ; 2.8363892743136444E9 ; 0.0
23 ; 1.8157837873687968E7 ; 1.873467525297351E8 ; 3.941066718558573E8 ; 3.0167897547653694E9 ; 0.0
24 ; 1.8174373530651703E7 ; 1.9460180534345484E8 ; 4.122645097295453E8 ; 3.2041365072951045E9 ; 0.0
25 ; 1.8199946974033862E7 ; 2.00853678163729E8 ; 4.30438883260197E8 ; 3.3987383126385593E9 ; 0.0
26 ; 1.821888762809613E7 ; 2.0085591710789183E8 ; 4.486388302342309E8 ; 3.5995919908022885E9 ; 0.0
27 ; 1.8241761712016743E7 ; 2.0085828967053807E8 ; 4.66857717862327E8 ; 3.8004479079101806E9 ; 0.0
28 ; 1.8259691547439415E7 ; 2.0086079397627264E8 ; 4.8509947957434374E8 ; 4.0013061975807185E9 ; 0.0
29 ; 1.828448097305539E7 ; 2.0086342807900038E8 ; 5.0335917112178314E8 ; 4.202166991556991E9 ; 0.0
30 ; 1.830220205132632E7 ; 2.008661899679974E8 ; 5.216436520948385E8 ; 4.403030419635991E9 ; 0.0
31 ; 1.8322469411535587E7 ; 2.008690775739715E8 ; 5.399458541461648E8 ; 4.603896609603989E9 ; 0.0
32 ; 1.83395588736142E7 ; 2.0087208877507538E8 ; 5.582683235577004E8 ; 4.80476568717796E9 ; 0.0
33 ; 1.8359372406148154E7 ; 2.0087522140283942E8 ; 5.766078824313146E8 ; 5.005637775953035E9 ; 0.0
34 ; 1.838204093845196E7 ; 2.008784732479942E8 ; 5.949672548374628E8 ; 5.206512997355875E9 ; 0.0
35 ; 1.839433896387197E7 ; 2.0088184206615442E8 ; 6.133492957759148E8 ; 5.407391470603869E9 ; 0.0
36 ; 1.84181480322266E7 ; 2.008853255833406E8 ; 6.317436347397867E8 ; 5.608273312670024E9 ; 0.0
37 ; 1.8435449782805447E7 ; 2.0088892150131682E8 ; 6.501617827720133E8 ; 5.809158638253365E9 ; 0.0
38 ; 1.8447554920182668E7 ; 2.0089262750272685E8 ; 6.685972325548187E8 ; 6.010047559754682E9 ; 0.0
39 ; 1.8457599016696736E7 ; 2.008964412560124E8 ; 6.870447874750015E8 ; 6.210940187257408E9 ; 0.0
40 ; 1.847637282463435E7 ; 2.0090036042010266E8 ; 7.055023864916981E8 ; 6.41183662851342E9 ; 0.0
41 ; 1.8493157524423942E7 ; 2.00904382648864E8 ; 7.239787593163325E8 ; 6.612736988933523E9 ; 0.0
42 ; 1.8506991078015316E7 ; 2.0090850559530458E8 ; 7.424719168407564E8 ; 6.813641371582387E9 ; 0.0
43 ; 1.851960846577543E7 ; 2.0091272691552806E8 ; 7.609789079187717E8 ; 7.014549877177691E9 ; 0.0
44 ; 1.852708543518517E7 ; 2.0091704427243522E8 ; 7.794985163845472E8 ; 7.21546260409322E9 ; 0.0
45 ; 1.854343751504067E7 ; 2.009214553391727E8 ; 7.980256018197324E8 ; 7.416379648365655E9 ; 0.0
46 ; 1.855305550107127E7 ; 2.0092595780233127E8 ; 8.165690393347731E8 ; 7.617301103704827E9 ; 0.0
47 ; 1.8564371056850247E7 ; 2.0093054936489666E8 ; 8.351220948358443E8 ; 7.818227061507158E9 ; 0.0
48 ; 1.8571171456985224E7 ; 2.0093522774895766E8 ; 8.536864658926945E8 ; 8.019157610872055E9 ; 0.0
49 ; 1.858065689282092E7 ; 2.0093999069817835E8 ; 8.722576373496797E8 ; 8.220092838621013E9 ; 0.0
50 ; 1.8584613417780492E7 ; 2.0094483598004076E8 ; 8.908382942425007E8 ; 8.421032829319191E9 ; 0.0
51 ; 1.8590220182143457E7 ; 2.0094976138786668E8 ; 9.094229076602812E8 ; 8.621977665299232E9 ; 0.0
52 ; 1.859925092018222E7 ; 2.009547647426272E8 ; 9.280131278424246E8 ; 8.8229274266871E9 ; 0.0
53 ; 1.8602117666931644E7 ; 2.0095984389454928E8 ; 9.466123787626069E8 ; 9.023882191429728E9 ; 0.0
54 ; 1.861529896282394E7 ; 2.009649967245292E8 ; 9.652144964295385E8 ; 9.224842035324276E9 ; 0.0
55 ; 1.8619812339130707E7 ; 2.0097022114536282E8 ; 9.838297953923625E8 ; 9.425807032048805E9 ; 0.0
56 ; 1.862574051071424E7 ; 2.0097551510280305E8 ; 1.0024496077314932E9 ; 9.626777253194168E9 ; 0.0
57 ; 1.8632165856273178E7 ; 2.0098087657645455E8 ; 1.0210753482422075E9 ; 9.82775276829697E9 ; 0.0
58 ; 1.863521874273994E7 ; 2.009863035805161E8 ; 1.0397075140984807E9 ; 1.0028733644873425E10 ; 0.0
59 ; 1.8635771762164712E7 ; 2.0099179416438052E8 ; 1.0583427328412206E9 ; 1.0229719948453941E10 ; 0.0
60 ; 1.864119496829447E7 ; 2.0099734641310236E8 ; 1.0769785046033854E9 ; 1.0430711742618322E10 ; 0.0
61 ; 1.8650743042418715E7 ; 2.010029584477427E8 ; 1.0956196995716798E9 ; 1.0631709089031425E10 ; 0.0
62 ; 1.8656229922541063E7 ; 2.0100862842560092E8 ; 1.1142704426140985E9 ; 1.0832712047479168E10 ; 0.0
63 ; 1.8657421659277517E7 ; 2.0101435454034173E8 ; 1.1329266725366397E9 ; 1.1033720675904768E10 ; 0.0
64 ; 1.866099811762606E7 ; 2.0102013502202734E8 ; 1.1515840941959171E9 ; 1.123473503044511E10 ; 0.0
65 ; 1.8668261007285863E7 ; 2.0102596813706186E8 ; 1.170245092313543E9 ; 1.1435755165467138E10 ; 0.0
66 ; 1.8671173436216634E7 ; 2.0103185218805668E8 ; 1.188913353320829E9 ; 1.16367811336042E10 ; 0.0
67 ; 1.8676568274648476E7 ; 2.010377855136242E8 ; 1.2075845267570455E9 ; 1.1837812985792257E10 ; 0.0
68 ; 1.8679963506898116E7 ; 2.0104376648810676E8 ; 1.226261095031694E9 ; 1.2038850771305882E10 ; 0.0
69 ; 1.867967722933543E7 ; 2.0104979352124783E8 ; 1.244941058538592E9 ; 1.223989453779399E10 ; 0.0
70 ; 1.8687468042995993E7 ; 2.0105586505781153E8 ; 1.2636207357679276E9 ; 1.2440944331315237E10 ; 0.0
71 ; 1.8688651744993243E7 ; 2.0106197957715634E8 ; 1.2823082038109236E9 ; 1.2642000196373049E10 ; 0.0
72 ; 1.869102265366521E7 ; 2.010681355927688E8 ; 1.3009968555559168E9 ; 1.2843062175950205E10 ; 0.0
73 ; 1.8696037284953106E7 ; 2.0107433165176195E8 ; 1.319687878209582E9 ; 1.3044130311542974E10 ; 0.0
74 ; 1.869655526720508E7 ; 2.0108056633434358E8 ; 1.3383839154945352E9 ; 1.3245204643194736E10 ; 0.0
75 ; 1.8704684756666444E7 ; 2.010868382532584E8 ; 1.3570804707617402E9 ; 1.344628520952908E10 ; 0.0
76 ; 1.870082929093705E7 ; 2.0109314605320832E8 ; 1.3757851555184066E9 ; 1.3647372047782337E10 ; 0.0
77 ; 1.8708292378620148E7 ; 2.0109948841025472E8 ; 1.3944859848093436E9 ; 1.3848465193835545E10 ; 0.0
78 ; 1.8704269311353657E7 ; 2.0110586403120577E8 ; 1.4131942771879637E9 ; 1.40495646822458E10 ; 0.0
79 ; 1.870457520321793E7 ; 2.0111227165299225E8 ; 1.4318985464993174E9 ; 1.4250670546277006E10 ; 0.0
80 ; 1.8696148219217826E7 ; 2.0111871004203466E8 ; 1.4506031217025354E9 ; 1.4451782817929998E10 ; 0.0
81 ; 1.8694227225059226E7 ; 2.01125177993604E8 ; 1.4692992699217532E9 ; 1.4652901527972033E10 ; 0.0
82 ; 1.8690220486798517E7 ; 2.0113167433117884E8 ; 1.4879934971468124E9 ; 1.4854026705965637E10 ; 0.0
83 ; 1.8684956562243972E7 ; 2.011381979058007E8 ; 1.506683717633611E9 ; 1.5055158380296816E10 ; 0.0
84 ; 1.868138728705734E7 ; 2.0114474759542963E8 ; 1.525368674195855E9 ; 1.5256296578202616E10 ; 0.0
85 ; 1.867842160263395E7 ; 2.0115132230430162E8 ; 1.5440500614829123E9 ; 1.5457441325798046E10 ; 0.0
86 ; 1.867226231711381E7 ; 2.011579209622897E8 ; 1.5627284830855463E9 ; 1.5658592648102348E10 ; 0.0
87 ; 1.8665634644849334E7 ; 2.0116454252426967E8 ; 1.5814007454026601E9 ; 1.5859750569064638E10 ; 0.0
88 ; 1.866309557840469E7 ; 2.0117118596949196E8 ; 1.6000663800475094E9 ; 1.6060915111588907E10 ; 0.0
89 ; 1.8662586915536013E7 ; 2.0117785030096048E8 ; 1.618729475625914E9 ; 1.62620862975584E10 ; 0.0
90 ; 1.8653248236754525E7 ; 2.011845345448197E8 ; 1.63739206254145E9 ; 1.646326414785936E10 ; 0.0
91 ; 1.8647307709110197E7 ; 2.0119123774975032E8 ; 1.6560453107782044E9 ; 1.6664448682404179E10 ; 0.0
92 ; 1.8645645109482262E7 ; 2.0119795898637456E8 ; 1.6746926184873147E9 ; 1.6865639920153929E10 ; 0.0
93 ; 1.8638318009835787E7 ; 2.0120469734667167E8 ; 1.693338263596797E9 ; 1.7066837879140303E10 ; 0.0
94 ; 1.863169973072164E7 ; 2.0121145194340387E8 ; 1.7119765816066327E9 ; 1.7268042576486973E10 ; 0.0
95 ; 1.8624036669124417E7 ; 2.0121822190955344E8 ; 1.7306082813373544E9 ; 1.7469254028430378E10 ; 0.0
96 ; 1.8622525216389038E7 ; 2.0122500639777115E8 ; 1.7492323180064788E9 ; 1.767047225033993E10 ; 0.0
97 ; 1.8615433317196555E7 ; 2.0123180457983622E8 ; 1.7678548432228677E9 ; 1.78716972567377E10 ; 0.0
98 ; 1.8610467840206824E7 ; 2.0123861564612833E8 ; 1.7864702765400643E9 ; 1.807292906131754E10 ; 0.0
99 ; 1.8599762285910472E7 ; 2.012454388051114E8 ; 1.8050807443802712E9 ; 1.827416767696367E10 ; 0.0
100 ; 1.8595484340240303E7 ; 2.0125227328282958E8 ; 1.8236805066661816E9 ; 1.847541311576878E10 ; 0.0
101 ; 1.8589836122229185E7 ; 2.0125911832241523E8 ; 1.8422759910064218E9 ; 1.867666538905161E10 ; 0.0
102 ; 1.8581036196376603E7 ; 2.0126597318360925E8 ; 1.860865827128651E9 ; 1.8877924507374023E10 ; 0.0
103 ; 1.8573839778085694E7 ; 2.012728371422933E8 ; 1.8794468633250275E9 ; 1.9079190480557632E10 ; 0.0
104 ; 1.8565340114187434E7 ; 2.0127970949003416E8 ; 1.8980207031031132E9 ; 1.9280463317699924E10 ; 0.0
105 ; 1.8558432388536092E7 ; 2.0128658953364012E8 ; 1.9165860432173007E9 ; 1.948174302718996E10 ; 0.0
106 ; 1.8550239563897457E7 ; 2.012934765947291E8 ; 1.9351444756058366E9 ; 1.9683029616723602E10 ; 0.0
107 ; 1.8543900113987885E7 ; 2.0130037000930858E8 ; 1.953694715169734E9 ; 1.9884323093318333E10 ; 0.0
108 ; 1.853856678200953E7 ; 2.0130726912736696E8 ; 1.972238615283722E9 ; 2.008562346332764E10 ; 0.0
109 ; 1.8526033828978665E7 ; 2.0131417331247652E8 ; 1.9907771820657315E9 ; 2.0286930732455006E10 ; 0.0
110 ; 1.851977313883799E7 ; 2.013210819414073E8 ; 2.0093032158947103E9 ; 2.0488244905767483E10 ; 0.0
111 ; 1.8509847325415414E7 ; 2.0132799440375227E8 ; 2.0278229890335484E9 ; 2.068956598770889E10 ; 0.0
112 ; 1.850215119510957E7 ; 2.0133491010156313E8 ; 2.0463328363589637E9 ; 2.089089398211264E10 ; 0.0
113 ; 1.8488917072568167E7 ; 2.0134182844899672E8 ; 2.0648349875540733E9 ; 2.1092228892214203E10 ; 0.0
114 ; 1.8483185265293717E7 ; 2.0134874887197188E8 ; 2.0833239046266415E9 ; 2.12935707206632E10 ; 0.0
115 ; 1.8476113678241167E7 ; 2.013556708078363E8 ; 2.1018070898919353E9 ; 2.149491946953517E10 ; 0.0
116 ; 1.8462318509205937E7 ; 2.0136259370504335E8 ; 2.1202832035701766E9 ; 2.1696275140343006E10 ; 0.0
117 ; 1.8455896841223393E7 ; 2.0136951702283874E8 ; 2.1387455220793824E9 ; 2.189763773404805E10 ; 0.0
118 ; 1.8444935808903087E7 ; 2.0137644023095638E8 ; 2.1572014189206057E9 ; 2.209900725107089E10 ; 0.0
119 ; 1.8434586424448118E7 ; 2.013833628093235E8 ; 2.175646354729509E9 ; 2.2300383691301846E10 ; 0.0
120 ; 1.8424625224592485E7 ; 2.013902842477749E8 ; 2.194080941153957E9 ; 2.2501767054111168E10 ; 0.0
121 ; 1.8418760028213345E7 ; 2.0139720404577574E8 ; 2.2125055663785496E9 ; 2.2703157338358944E10 ; 0.0
122 ; 1.8404847158178866E7 ; 2.0140412171215302E8 ; 2.230924326406763E9 ; 2.290455454240472E10 ; 0.0
123 ; 1.8395985165258147E7 ; 2.0141103676483506E8 ; 2.249329173564942E9 ; 2.3105958664116875E10 ; 0.0
124 ; 1.8384725407484613E7 ; 2.0141794873059943E8 ; 2.2677251587302E9 ; 2.330736970088171E10 ; 0.0
125 ; 1.8372029446888454E7 ; 2.014248571448282E8 ; 2.2861098841376843E9 ; 2.350878764961231E10 ; 0.0
126 ; 1.8365906711491924E7 ; 2.0143176155127126E8 ; 2.304481913584573E9 ; 2.3710212506757137E10 ; 0.0
127 ; 1.8357143565123733E7 ; 2.0143866150181678E8 ; 2.322847820296065E9 ; 2.3911644268308407E10 ; 0.0
128 ; 1.8340982759656694E7 ; 2.0144555655626875E8 ; 2.3412049638611884E9 ; 2.4113082929810223E10 ; 0.0
129 ; 1.8328000808157932E7 ; 2.0145244628213164E8 ; 2.3595459466208453E9 ; 2.4314528486366493E10 ; 0.0
130 ; 1.83181207517874E7 ; 2.0145933025440177E8 ; 2.3778739474290032E9 ; 2.4515980932648624E10 ; 0.0
131 ; 1.8297662263929468E7 ; 2.0146620805536523E8 ; 2.3961920681807904E9 ; 2.4717440262903027E10 ; 0.0
132 ; 1.8278327711866647E7 ; 2.0147307927440202E8 ; 2.41448973044472E9 ; 2.4918906470958393E10 ; 0.0
133 ; 1.8262412171696268E7 ; 2.014799435077964E8 ; 2.4327680581565866E9 ; 2.5120379550232796E10 ; 0.0
134 ; 1.8246817810855113E7 ; 2.0148680035855338E8 ; 2.451030470328283E9 ; 2.5321859493740593E10 ; 0.0
135 ; 1.8223583363086306E7 ; 2.014936494362207E8 ; 2.4692772881391377E9 ; 2.5523346294099148E10 ; 0.0
136 ; 1.8210532859141648E7 ; 2.0150049035671663E8 ; 2.487500871502224E9 ; 2.572483994353537E10 ; 0.0
137 ; 1.819016172155814E7 ; 2.0150732274216303E8 ; 2.505711404361366E9 ; 2.5926340433892086E10 ; 0.0
138 ; 1.8173121983064245E7 ; 2.0151414622072372E8 ; 2.523901566082924E9 ; 2.612784775663425E10 ; 0.0
139 ; 1.8154519781861223E7 ; 2.015209604264481E8 ; 2.542074688065988E9 ; 2.6329361902854973E10 ; 0.0
140 ; 1.8132657876360532E7 ; 2.015277649991193E8 ; 2.5602292078478494E9 ; 2.653088286328142E10 ; 0.0
141 ; 1.8118838214945517E7 ; 2.015345595841076E8 ; 2.57836186572421E9 ; 2.673241062828054E10 ; 0.0
142 ; 1.8098152157466408E7 ; 2.01541343832228E8 ; 2.596480703939155E9 ; 2.6933945187864647E10 ; 0.0
143 ; 1.8080281117254928E7 ; 2.015481173996025E8 ; 2.6145788560966215E9 ; 2.7135486531696877E10 ; 0.0
144 ; 1.8060722507784817E7 ; 2.015548799475268E8 ; 2.6326591372138762E9 ; 2.7337034649096478E10 ; 0.0
145 ; 1.8049807939402264E7 ; 2.0156163114234093E8 ; 2.650719859721661E9 ; 2.7538589529044003E10 ; 0.0
146 ; 1.803879408960851E7 ; 2.0156837065530404E8 ; 2.668769667661063E9 ; 2.7740151160186344E10 ; 0.0
147 ; 1.802673600198694E7 ; 2.0157509816247317E8 ; 2.686808461750672E9 ; 2.794171953084165E10 ; 0.0
148 ; 1.8012236466794766E7 ; 2.0158181334458578E8 ; 2.704835197752659E9 ; 2.814329462900412E10 ; 0.0
149 ; 1.799947450657382E7 ; 2.015885158869459E8 ; 2.722847434219454E9 ; 2.8344876442348705E10 ; 0.0
150 ; 1.799017933058891E7 ; 2.0159520547931388E8 ; 2.7408469087260275E9 ; 2.8546464958235653E10 ; 0.0
151 ; 1.7974488506168537E7 ; 2.016018818157996E8 ; 2.7588370880566163E9 ; 2.8748060163714966E10 ; 0.0
152 ; 1.7962243408320274E7 ; 2.016085445947588E8 ; 2.7768115765627847E9 ; 2.8949662045530766E10 ; 0.0
153 ; 1.795266471940107E7 ; 2.0161519351869312E8 ; 2.794773819971105E9 ; 2.9151270590125523E10 ; 0.0
154 ; 1.7938083741913617E7 ; 2.016218282941526E8 ; 2.812726484690506E9 ; 2.9352885783644215E10 ; 0.0
155 ; 1.7925038358358577E7 ; 2.0162844863164163E8 ; 2.83066456843242E9 ; 2.9554507611938366E10 ; 0.0
156 ; 1.7909724132472675E7 ; 2.0163505424552783E8 ; 2.848589606790778E9 ; 2.9756136060570007E10 ; 0.0
157 ; 1.7899179333324444E7 ; 2.0164164485395345E8 ; 2.8664993309232507E9 ; 2.9957771114815536E10 ; 0.0
158 ; 1.7885635953938324E7 ; 2.016482201787497E8 ; 2.884398510256575E9 ; 3.015941275966949E10 ; 0.0
159 ; 1.7872916401732128E7 ; 2.0165477994535384E8 ; 2.9022841462105136E9 ; 3.036106097984824E10 ; 0.0
160 ; 1.786082626414817E7 ; 2.016613238827284E8 ; 2.9201570626122456E9 ; 3.0562715759793594E10 ; 0.0
161 ; 1.7847378892079547E7 ; 2.0166785172328335E8 ; 2.938017888876394E9 ; 3.0764377083676323E10 ; 0.0
162 ; 1.7832224929067988E7 ; 2.0167436320280048E8 ; 2.955865267768473E9 ; 3.0966044935399605E10 ; 0.0
163 ; 1.7817975606335707E7 ; 2.0168085806035984E8 ; 2.973697492697541E9 ; 3.1167719298602406E10 ; 0.0
164 ; 1.7807528848971676E7 ; 2.0168733603826883E8 ; 2.991515468303877E9 ; 3.1369400156662766E10 ; 0.0
165 ; 1.7793895077052362E7 ; 2.0169379688199326E8 ; 3.0093229971528487E9 ; 3.1571087492701035E10 ; 0.0
166 ; 1.777431950999948E7 ; 2.0170024034009042E8 ; 3.0271168922299013E9 ; 3.1772781289583027E10 ; 0.0
167 ; 1.776630104806229E7 ; 2.017066661641444E8 ; 3.0448912117399006E9 ; 3.197448152992312E10 ; 0.0
168 ; 1.7754200149059996E7 ; 2.0171307410870302E8 ; 3.062657512787963E9 ; 3.217618819608726E10 ; 0.0
169 ; 1.7740314456972037E7 ; 2.0171946393121722E8 ; 3.0804117129370227E9 ; 3.2377901270195965E10 ; 0.0
170 ; 1.772570916909315E7 ; 2.017258353919817E8 ; 3.098152027393995E9 ; 3.2579620734127182E10 ; 0.0
171 ; 1.7710733261796102E7 ; 2.017321882540776E8 ; 3.115877736563088E9 ; 3.2781346569519165E10 ; 0.0
172 ; 1.770033787592122E7 ; 2.0173852228331712E8 ; 3.133588469824884E9 ; 3.2983078757773243E10 ; 0.0
173 ; 1.768453170863067E7 ; 2.0174483724818933E8 ; 3.151288807700805E9 ; 3.318481728005656E10 ; 0.0
174 ; 1.7674641761474583E7 ; 2.0175113291980797E8 ; 3.1689733394094357E9 ; 3.338656211730475E10 ; 0.0
175 ; 1.7665981000004448E7 ; 2.0175740907186073E8 ; 3.1866479811709104E9 ; 3.3588313250224556E10 ; 0.0
176 ; 1.765667987192747E7 ; 2.0176366548055995E8 ; 3.2043139621709146E9 ; 3.3790070659296417E10 ; 0.0
177 ; 1.764841056445208E7 ; 2.0176990192459485E8 ; 3.221970642042842E9 ; 3.3991834324776978E10 ; 0.0
178 ; 1.76394479744751E7 ; 2.0177611818508524E8 ; 3.239619052607294E9 ; 3.4193604226701572E10 ; 0.0
179 ; 1.7630947169261042E7 ; 2.017823140455364E8 ; 3.257258500581769E9 ; 3.439538034488666E10 ; 0.0
180 ; 1.7624899511214763E7 ; 2.017884892917956E8 ; 3.27488944775103E9 ; 3.45971626589322E10 ; 0.0
181 ; 1.7611676228589777E7 ; 2.0179464371200964E8 ; 3.2925143472622447E9 ; 3.479895114822399E10 ; 0.0
182 ; 1.7607043406998854E7 ; 2.0180077709658372E8 ; 3.3101260234908347E9 ; 3.5000745791936005E10 ; 0.0
183 ; 1.7597642506867364E7 ; 2.0180688923814166E8 ; 3.3277330668978333E9 ; 3.5202546569032585E10 ; 0.0
184 ; 1.758746870517928E7 ; 2.0181297993148696E8 ; 3.3453307094047008E9 ; 3.540435345827073E10 ; 0.0
185 ; 1.7582095102285806E7 ; 2.0181904897356543E8 ; 3.36291817810988E9 ; 3.560616643820222E10 ; 0.0
186 ; 1.757518935002982E7 ; 2.018250961634286E8 ; 3.380500273212166E9 ; 3.580798548717578E10 ; 0.0
187 ; 1.756500925058577E7 ; 2.0183112130219823E8 ; 3.398075462562196E9 ; 3.600981058333921E10 ; 0.0
188 ; 1.7554923671443034E7 ; 2.01837124193032E8 ; 3.4156404718127813E9 ; 3.621164170464141E10 ; 0.0
189 ; 1.7544924953638677E7 ; 2.018431046410901E8 ; 3.4331953954842243E9 ; 3.641347882883444E10 ; 0.0
190 ; 1.7535544335229117E7 ; 2.018490624535027E8 ; 3.450740320437863E9 ; 3.661532193347553E10 ; 0.0
191 ; 1.7527715862039357E7 ; 2.018549974393387E8 ; 3.468275864773092E9 ; 3.681717099592904E10 ; 0.0
192 ; 1.7519372841178242E7 ; 2.018609094095749E8 ; 3.4858035806351314E9 ; 3.701902599336838E10 ; 0.0
193 ; 1.751112226300286E7 ; 2.018667981770664E8 ; 3.50332295347631E9 ; 3.7220886902777954E10 ; 0.0
194 ; 1.7505634370097835E7 ; 2.0187266355651778E8 ; 3.5208340757393126E9 ; 3.742275370095502E10 ; 0.0
195 ; 1.749480780553054E7 ; 2.018785053644551E8 ; 3.5383397101094103E9 ; 3.7624626364511536E10 ; 0.0
