CSV File for the City 6 on Day 351
1 - Minute m 
2 - Power Consumed at minute m 
3 - Power Produced at minute m 
4 - Energy Consumed since the beginning of the day 
5 - Energy Produced since the beginning of the day 
6 - Energy Lost since the beginning of the day on lines starting from the city
 
0 ; 1.1170912377703823E7 ; 1.0611986626527134E8 ; 0.0 ; 0.0 ; 0.0
1 ; 1.1179876100329265E7 ; 1.0627076609536463E8 ; 1.1170912377703823E7 ; 1.0611986626527134E8 ; 0.0
2 ; 1.1191383038568148E7 ; 1.067306568984668E8 ; 2.235078847803309E7 ; 2.1239063236063597E8 ; 0.0
3 ; 1.1207490069482172E7 ; 1.07499542297867E8 ; 3.3542171516601235E7 ; 3.1912128925910276E8 ; 0.0
4 ; 1.1219648234051235E7 ; 1.0857742553956419E8 ; 4.4749661586083405E7 ; 4.2662083155696976E8 ; 0.0
5 ; 1.123817323495516E7 ; 1.0996430947466004E8 ; 5.596930982013464E7 ; 5.3519825709653395E8 ; 0.0
6 ; 1.1268129720915494E7 ; 1.1166019654360422E8 ; 6.72074830550898E7 ; 6.451625665711939E8 ; 0.0
7 ; 1.1301780245902332E7 ; 1.1366508876249361E8 ; 7.84756127760053E7 ; 7.568227631147982E8 ; 0.0
8 ; 1.135822276419071E7 ; 1.1597898771160197E8 ; 8.977739302190763E7 ; 8.704878518772918E8 ; 0.0
9 ; 1.1439793635825306E7 ; 1.1860189452629489E8 ; 1.0113561578609833E8 ; 9.864668395888938E8 ; 0.0
10 ; 1.156225449947688E7 ; 1.2153380989044887E8 ; 1.1257540942192364E8 ; 1.1050687341151886E9 ; 0.0
11 ; 1.1757722021468803E7 ; 1.2477473403246775E8 ; 1.2413766392140052E8 ; 1.2266025440056374E9 ; 0.0
12 ; 1.2074726030403765E7 ; 1.2832466672394767E8 ; 1.358953859428693E8 ; 1.3513772780381052E9 ; 0.0
13 ; 1.2382762446858501E7 ; 1.3218360728101212E8 ; 1.4797011197327307E8 ; 1.479701944762053E9 ; 0.0
14 ; 1.2415605723307777E7 ; 1.363515545682956E8 ; 1.6035287442013156E8 ; 1.611885552043065E9 ; 0.0
15 ; 1.243196484873723E7 ; 1.4082850700552422E8 ; 1.7276848014343935E8 ; 1.7482371066113605E9 ; 0.0
16 ; 1.2447666112735242E7 ; 1.4561446257660124E8 ; 1.852004449921766E8 ; 1.8890656136168847E9 ; 0.0
17 ; 1.2458096892144559E7 ; 1.5070941884107688E8 ; 1.9764811110491183E8 ; 2.034680076193486E9 ; 0.0
18 ; 1.2468443878200859E7 ; 1.561133729478495E8 ; 2.101062079970564E8 ; 2.185389495034563E9 ; 0.0
19 ; 1.248956753470915E7 ; 1.6182632165092012E8 ; 2.2257465187525725E8 ; 2.3415028679824123E9 ; 0.0
20 ; 1.2503877673323581E7 ; 1.678482613269997E8 ; 2.350642194099664E8 ; 2.5033291896333323E9 ; 0.0
21 ; 1.2520877893343486E7 ; 1.74179187994751E8 ; 2.4756809708328998E8 ; 2.671177450960332E9 ; 0.0
22 ; 1.253245782320066E7 ; 1.808190973354348E8 ; 2.6008897497663346E8 ; 2.845356638955083E9 ; 0.0
23 ; 1.2547706910784066E7 ; 1.8776798471472E8 ; 2.7262143279983413E8 ; 3.026175736290518E9 ; 0.0
24 ; 1.2564659719423942E7 ; 1.9502584520541567E8 ; 2.851691397106182E8 ; 3.2139437210052376E9 ; 0.0
25 ; 1.2575798788023608E7 ; 2.0128071450906697E8 ; 2.9773379943004215E8 ; 3.4089695662106533E9 ; 0.0
26 ; 1.2590037063498583E7 ; 2.0128613501670602E8 ; 3.1030959821806574E8 ; 3.6102502807197204E9 ; 0.0
27 ; 1.2605780732778449E7 ; 2.0129187035782614E8 ; 3.228996352815643E8 ; 3.8115364157364264E9 ; 0.0
28 ; 1.2618281168294467E7 ; 2.0129791467122462E8 ; 3.355054160143427E8 ; 4.0128282860942526E9 ; 0.0
29 ; 1.2633733126076411E7 ; 2.013042619221167E8 ; 3.481236971826372E8 ; 4.214126200765477E9 ; 0.0
30 ; 1.264563349594109E7 ; 2.013109059256188E8 ; 3.607574303087136E8 ; 4.415430462687593E9 ; 0.0
31 ; 1.2663753560960878E7 ; 2.013178403696802E8 ; 3.734030638046547E8 ; 4.616741368613213E9 ; 0.0
32 ; 1.267287034608018E7 ; 2.0132505883731717E8 ; 3.860668173656156E8 ; 4.818059208982893E9 ; 0.0
33 ; 1.2685411383035734E7 ; 2.0133255482802337E8 ; 3.987396877116958E8 ; 5.01938426782021E9 ; 0.0
34 ; 1.270173739405151E7 ; 2.013403217782502E8 ; 4.114250990947315E8 ; 5.220716822648233E9 ; 0.0
35 ; 1.2711735255459148E7 ; 2.0134835308087105E8 ; 4.24126836488783E8 ; 5.422057144426483E9 ; 0.0
36 ; 1.2721432948843E7 ; 2.013566421035623E8 ; 4.3683857174424213E8 ; 5.623405497507354E9 ; 0.0
37 ; 1.2733794000686945E7 ; 2.0136518220605123E8 ; 4.4956000469308513E8 ; 5.824762139610916E9 ; 0.0
38 ; 1.2746968045837106E7 ; 2.0137396675619918E8 ; 4.622937986937721E8 ; 6.026127321816967E9 ; 0.0
39 ; 1.2754422082359273E7 ; 2.0138298914490247E8 ; 4.750407667396092E8 ; 6.227501288573166E9 ; 0.0
40 ; 1.2763043053950574E7 ; 2.01392242799808E8 ; 4.8779518882196844E8 ; 6.428884277718068E9 ; 0.0
41 ; 1.277465486291252E7 ; 2.0140172119785315E8 ; 5.00558231875919E8 ; 6.630276520517876E9 ; 0.0
42 ; 1.2780208449409636E7 ; 2.0141141787664965E8 ; 5.133328867388315E8 ; 6.831678241715729E9 ; 0.0
43 ; 1.2791508404393127E7 ; 2.0142132644474083E8 ; 5.261130951882412E8 ; 7.033089659592379E9 ; 0.0
44 ; 1.2798866947197841E7 ; 2.0143144059076917E8 ; 5.389046035926343E8 ; 7.23451098603712E9 ; 0.0
45 ; 1.2806686502360465E7 ; 2.0144175409159753E8 ; 5.517034705398321E8 ; 7.435942426627889E9 ; 0.0
46 ; 1.2812253779291742E7 ; 2.0145226081943154E8 ; 5.645101570421926E8 ; 7.637384180719486E9 ; 0.0
47 ; 1.2816605725576015E7 ; 2.0146295474799606E8 ; 5.773224108214843E8 ; 7.838836441538918E9 ; 0.0
48 ; 1.2826770627511246E7 ; 2.014738299578192E8 ; 5.901390165470604E8 ; 8.040299396286914E9 ; 0.0
49 ; 1.2826821044223908E7 ; 2.0148488064068004E8 ; 6.029657871745716E8 ; 8.241773226244733E9 ; 0.0
50 ; 1.283372145763464E7 ; 2.0149610110327768E8 ; 6.157926082187955E8 ; 8.443258106885413E9 ; 0.0
51 ; 1.2837501096373882E7 ; 2.015074857701769E8 ; 6.286263296764302E8 ; 8.644754207988691E9 ; 0.0
52 ; 1.2842740868840516E7 ; 2.0151902918608776E8 ; 6.414638307728041E8 ; 8.84626169375887E9 ; 0.0
53 ; 1.2844954118509516E7 ; 2.0153072601753354E8 ; 6.543065716416447E8 ; 9.047780722944958E9 ; 0.0
54 ; 1.2850986488494849E7 ; 2.0154257105395973E8 ; 6.671515257601542E8 ; 9.249311448962492E9 ; 0.0
55 ; 1.2852767755189193E7 ; 2.0155455920833632E8 ; 6.800025122486491E8 ; 9.45085402001645E9 ; 0.0
56 ; 1.2859155698061923E7 ; 2.015666855173016E8 ; 6.928552800038383E8 ; 9.652408579224787E9 ; 0.0
57 ; 1.2859915661263619E7 ; 2.0157894514089414E8 ; 7.057144357019002E8 ; 9.853975264742088E9 ; 0.0
58 ; 1.286205104641614E7 ; 2.015913333619174E8 ; 7.185743513631638E8 ; 1.0055554209882982E10 ; 0.0
59 ; 1.2864893635874128E7 ; 2.016038455849774E8 ; 7.3143640240958E8 ; 1.02571455432449E10 ; 0.0
60 ; 1.2872922915441304E7 ; 2.0161647733523288E8 ; 7.443012960454541E8 ; 1.0458749388829878E10 ; 0.0
61 ; 1.2873314247967059E7 ; 2.0162922425689355E8 ; 7.571742189608954E8 ; 1.0660365866165112E10 ; 0.0
62 ; 1.2876940625617372E7 ; 2.0164208211149955E8 ; 7.700475332088624E8 ; 1.0861995090422005E10 ; 0.0
63 ; 1.2877226612584386E7 ; 2.0165504677601284E8 ; 7.829244738344798E8 ; 1.1063637172533504E10 ; 0.0
64 ; 1.2883562543102518E7 ; 2.016681142407492E8 ; 7.958017004470642E8 ; 1.1265292219309517E10 ; 0.0
65 ; 1.2883160846958276E7 ; 2.016812806071758E8 ; 8.086852629901667E8 ; 1.1466960333550266E10 ; 0.0
66 ; 1.2884051751009518E7 ; 2.0169454208559838E8 ; 8.21568423837125E8 ; 1.1668641614157442E10 ; 0.0
67 ; 1.288795378997215E7 ; 2.017078949927594E8 ; 8.344524755881344E8 ; 1.187033615624304E10 ; 0.0
68 ; 1.2885304432351097E7 ; 2.0172133574936604E8 ; 8.473404293781066E8 ; 1.20720440512358E10 ; 0.0
69 ; 1.2891654786043413E7 ; 2.0173486087756562E8 ; 8.602257338104577E8 ; 1.2273765386985167E10 ; 0.0
70 ; 1.2894575230010662E7 ; 2.0174846699838412E8 ; 8.731173885965011E8 ; 1.2475500247862732E10 ; 0.0
71 ; 1.2897167510843795E7 ; 2.0176215082914147E8 ; 8.860119638265117E8 ; 1.2677248714861116E10 ; 0.0
72 ; 1.289434198430011E7 ; 2.0177590918085593E8 ; 8.989091313373555E8 ; 1.2879010865690258E10 ; 0.0
73 ; 1.2900154477922777E7 ; 2.0178973895564884E8 ; 9.118034733216556E8 ; 1.3080786774871115E10 ; 0.0
74 ; 1.2900843745693756E7 ; 2.0180363714415878E8 ; 9.247036277995784E8 ; 1.3282576513826763E10 ; 0.0
75 ; 1.2901639468170807E7 ; 2.018176008229742E8 ; 9.376044715452722E8 ; 1.3484380150970922E10 ; 0.0
76 ; 1.2903354227210449E7 ; 2.0183162715209112E8 ; 9.50506111013443E8 ; 1.3686197751793896E10 ; 0.0
77 ; 1.2903526346410457E7 ; 2.018457133724029E8 ; 9.634094652406534E8 ; 1.3888029378945988E10 ; 0.0
78 ; 1.2902646779920956E7 ; 2.018598568032271E8 ; 9.763129915870639E8 ; 1.408987509231839E10 ; 0.0
79 ; 1.2896252963958444E7 ; 2.0187405483987397E8 ; 9.892156383669848E8 ; 1.4291734949121616E10 ; 0.0
80 ; 1.2895161860511452E7 ; 2.0188830495126063E8 ; 1.0021118913309433E9 ; 1.449360900396149E10 ; 0.0
81 ; 1.2893128653788555E7 ; 2.0190260467757416E8 ; 1.0150070531914548E9 ; 1.4695497308912752E10 ; 0.0
82 ; 1.2888444823963238E7 ; 2.0191695162798584E8 ; 1.0279001818452433E9 ; 1.4897399913590326E10 ; 0.0
83 ; 1.2885242963178841E7 ; 2.0193134347841895E8 ; 1.0407886266692066E9 ; 1.5099316865218311E10 ; 0.0
84 ; 1.2883120923050324E7 ; 2.0194577796937162E8 ; 1.0536738696323855E9 ; 1.530124820869673E10 ; 0.0
85 ; 1.2879189732009124E7 ; 2.019602529037957E8 ; 1.0665569905554358E9 ; 1.5503193986666101E10 ; 0.0
86 ; 1.28748122082093E7 ; 2.019747661450327E8 ; 1.0794361802874448E9 ; 1.5705154239569897E10 ; 0.0
87 ; 1.2871500843120614E7 ; 2.0198931561480713E8 ; 1.092310992495654E9 ; 1.590712900571493E10 ; 0.0
88 ; 1.286403869105773E7 ; 2.0200389929127726E8 ; 1.1051824933387747E9 ; 1.6109118321329737E10 ; 0.0
89 ; 1.2862869083518958E7 ; 2.0201851520714346E8 ; 1.1180465320298324E9 ; 1.6311122220621014E10 ; 0.0
90 ; 1.2862129659688843E7 ; 2.0203316144781378E8 ; 1.1309094011133513E9 ; 1.6513140735828157E10 ; 0.0
91 ; 1.2854572650818828E7 ; 2.0204783614962605E8 ; 1.1437715307730403E9 ; 1.671517389727597E10 ; 0.0
92 ; 1.2852320270811116E7 ; 2.0206253749812606E8 ; 1.1566261034238591E9 ; 1.6917221733425596E10 ; 0.0
93 ; 1.2843748926462244E7 ; 2.0207726372640085E8 ; 1.1694784236946702E9 ; 1.7119284270923723E10 ; 0.0
94 ; 1.2843359883643884E7 ; 2.0209201311346656E8 ; 1.1823221726211324E9 ; 1.7321361534650124E10 ; 0.0
95 ; 1.2837149252565082E7 ; 2.021067839827092E8 ; 1.1951655325047762E9 ; 1.752345354776359E10 ; 0.0
96 ; 1.2834992114613026E7 ; 2.0212157470037776E8 ; 1.2080026817573414E9 ; 1.77255603317463E10 ; 0.0
97 ; 1.2827777037371311E7 ; 2.0213638367412856E8 ; 1.2208376738719544E9 ; 1.792768190644668E10 ; 0.0
98 ; 1.2819510055823356E7 ; 2.0215120935161898E8 ; 1.2336654509093258E9 ; 1.8129818290120808E10 ; 0.0
99 ; 1.2817829980676772E7 ; 2.0216605021915007E8 ; 1.2464849609651492E9 ; 1.8331969499472427E10 ; 0.0
100 ; 1.281236235791192E7 ; 2.0218090480035633E8 ; 1.259302790945826E9 ; 1.8534135549691578E10 ; 0.0
101 ; 1.2807041166993205E7 ; 2.0219577165494144E8 ; 1.2721151533037379E9 ; 1.8736316454491936E10 ; 0.0
102 ; 1.279911411480524E7 ; 2.0221064937745878E8 ; 1.284922194470731E9 ; 1.8938512226146877E10 ; 0.0
103 ; 1.2791313266519563E7 ; 2.0222553659613514E8 ; 1.2977213085855362E9 ; 1.9140722875524338E10 ; 0.0
104 ; 1.2789241452948458E7 ; 2.0224043197173655E8 ; 1.3105126218520558E9 ; 1.9342948412120472E10 ; 0.0
105 ; 1.278499689358289E7 ; 2.0225533419647482E8 ; 1.3233018633050044E9 ; 1.954518884409221E10 ; 0.0
106 ; 1.2774951995279372E7 ; 2.022702419929536E8 ; 1.3360868601985872E9 ; 1.9747444178288685E10 ; 0.0
107 ; 1.2769528998770637E7 ; 2.0228515411315235E8 ; 1.3488618121938665E9 ; 1.994971442028164E10 ; 0.0
108 ; 1.2766434627431113E7 ; 2.0230006933744752E8 ; 1.3616313411926372E9 ; 2.015199957439479E10 ; 0.0
109 ; 1.2758262940719923E7 ; 2.0231498647366917E8 ; 1.3743977758200684E9 ; 2.035429964373224E10 ; 0.0
110 ; 1.2753046195872448E7 ; 2.0232990435619205E8 ; 1.3871560387607882E9 ; 2.055661463020591E10 ; 0.0
111 ; 1.2748560968282815E7 ; 2.0234482184505996E8 ; 1.3999090849566607E9 ; 2.0758944534562103E10 ; 0.0
112 ; 1.2734089513723651E7 ; 2.023597378251423E8 ; 1.4126576459249434E9 ; 2.096128935640716E10 ; 0.0
113 ; 1.2731124320413798E7 ; 2.0237465120532122E8 ; 1.425391735438667E9 ; 2.1163649094232304E10 ; 0.0
114 ; 1.2723911708917944E7 ; 2.0238956091770914E8 ; 1.438122859759081E9 ; 2.1366023745437626E10 ; 0.0
115 ; 1.271724503916012E7 ; 2.0240446591689453E8 ; 1.4508467714679987E9 ; 2.1568413306355335E10 ; 0.0
116 ; 1.2710111019406384E7 ; 2.0241936517921585E8 ; 1.4635640165071588E9 ; 2.177081777227223E10 ; 0.0
117 ; 1.2701452135677507E7 ; 2.024342577020617E8 ; 1.476274127526565E9 ; 2.1973237137451443E10 ; 0.0
118 ; 1.2700087397861755E7 ; 2.0244914250319746E8 ; 1.4889755796622427E9 ; 2.2175671395153503E10 ; 0.0
119 ; 1.2689900621972492E7 ; 2.024640186201157E8 ; 1.5016756670601044E9 ; 2.23781205376567E10 ; 0.0
120 ; 1.2679865138040774E7 ; 2.024788851094115E8 ; 1.514365567682077E9 ; 2.2580584556276817E10 ; 0.0
121 ; 1.2669577519137397E7 ; 2.0249374104617998E8 ; 1.5270454328201177E9 ; 2.278306344138623E10 ; 0.0
122 ; 1.2665614364286935E7 ; 2.0250858552343622E8 ; 1.539715010339255E9 ; 2.298555718243241E10 ; 0.0
123 ; 1.2655603611159204E7 ; 2.025234176515566E8 ; 1.552380624703542E9 ; 2.318806576795585E10 ; 0.0
124 ; 1.2651064935527582E7 ; 2.025382365577403E8 ; 1.565036228314701E9 ; 2.3390589185607407E10 ; 0.0
125 ; 1.2642715976640778E7 ; 2.0255304138549078E8 ; 1.5776872932502286E9 ; 2.3593127422165146E10 ; 0.0
126 ; 1.2632775709648572E7 ; 2.02567831294116E8 ; 1.5903300092268693E9 ; 2.3795680463550636E10 ; 0.0
127 ; 1.262529120295257E7 ; 2.025826054582471E8 ; 1.602962784936518E9 ; 2.3998248294844753E10 ; 0.0
128 ; 1.2614886391798088E7 ; 2.025973630673744E8 ; 1.6155880761394706E9 ; 2.4200830900303E10 ; 0.0
129 ; 1.2606014355342096E7 ; 2.0261210332540053E8 ; 1.6282029625312686E9 ; 2.4403428263370377E10 ; 0.0
130 ; 1.259472522756269E7 ; 2.026268254502094E8 ; 1.6408089768866107E9 ; 2.4606040366695778E10 ; 0.0
131 ; 1.258783447683763E7 ; 2.0264152867325127E8 ; 1.6534037021141734E9 ; 2.480866719214599E10 ; 0.0
132 ; 1.2571939408272844E7 ; 2.0265621223914245E8 ; 1.665991536591011E9 ; 2.501130872081924E10 ; 0.0
133 ; 1.2557423762172764E7 ; 2.0267087540527964E8 ; 1.6785634759992838E9 ; 2.5213964933058384E10 ; 0.0
134 ; 1.2546425091599572E7 ; 2.0268551744146815E8 ; 1.6911208997614565E9 ; 2.5416635808463665E10 ; 0.0
135 ; 1.253575904723135E7 ; 2.0270013762956333E8 ; 1.703667324853056E9 ; 2.5619321325905132E10 ; 0.0
136 ; 1.251911440715064E7 ; 2.0271473526312518E8 ; 1.7162030839002874E9 ; 2.5822021463534695E10 ; 0.0
137 ; 1.2507156877816312E7 ; 2.0272930964708483E8 ; 1.7287221983074381E9 ; 2.602473619879782E10 ; 0.0
138 ; 1.2493411548981296E7 ; 2.027438600974235E8 ; 1.7412293551852543E9 ; 2.6227465508444904E10 ; 0.0
139 ; 1.2476006160313558E7 ; 2.0275838594086236E8 ; 1.7537227667342355E9 ; 2.6430209368542328E10 ; 0.0
140 ; 1.246674896440454E7 ; 2.0277288651456383E8 ; 1.7661987728945491E9 ; 2.663296775448319E10 ; 0.0
141 ; 1.2451087388778394E7 ; 2.027873611658431E8 ; 1.7786655218589537E9 ; 2.6835740640997753E10 ; 0.0
142 ; 1.2435999972744277E7 ; 2.0280180925189015E8 ; 1.7911166092477322E9 ; 2.7038528002163597E10 ; 0.0
143 ; 1.242024334352339E7 ; 2.0281623013950142E8 ; 1.8035526092204764E9 ; 2.7241329811415485E10 ; 0.0
144 ; 1.2405511844411962E7 ; 2.0283062320482084E8 ; 1.815972852564E9 ; 2.7444146041554985E10 ; 0.0
145 ; 1.2401592055394135E7 ; 2.028449878330901E8 ; 1.8283783644084117E9 ; 2.7646976664759808E10 ; 0.0
146 ; 1.239071394809352E7 ; 2.0285932341840756E8 ; 1.840779956463806E9 ; 2.78498216525929E10 ; 0.0
147 ; 1.2382300707659168E7 ; 2.0287362936349553E8 ; 1.8531706704118993E9 ; 2.8052680976011307E10 ; 0.0
148 ; 1.2374006127329918E7 ; 2.0288790507947576E8 ; 1.8655529711195586E9 ; 2.82555546053748E10 ; 0.0
149 ; 1.2362622825142808E7 ; 2.0290214998565266E8 ; 1.8779269772468884E9 ; 2.8458442510454277E10 ; 0.0
150 ; 1.2353233461144801E7 ; 2.0291636350930384E8 ; 1.8902896000720313E9 ; 2.866134466043993E10 ; 0.0
151 ; 1.2344142338857258E7 ; 2.0293054508547828E8 ; 1.902642833533176E9 ; 2.8864261023949234E10 ; 0.0
152 ; 1.2332015328609878E7 ; 2.02944694156801E8 ; 1.914986975872033E9 ; 2.9067191569034714E10 ; 0.0
153 ; 1.2324279114165477E7 ; 2.029588101732846E8 ; 1.927318991200643E9 ; 2.9270136263191513E10 ; 0.0
154 ; 1.2313832921464946E7 ; 2.0297289259214747E8 ; 1.9396432703148086E9 ; 2.94730950733648E10 ; 0.0
155 ; 1.2304879768789403E7 ; 2.0298694087763777E8 ; 1.9519571032362735E9 ; 2.9676067965956947E10 ; 0.0
156 ; 1.2289944297110649E7 ; 2.0300095450086373E8 ; 1.9642619830050628E9 ; 2.9879054906834583E10 ; 0.0
157 ; 1.2286792153196776E7 ; 2.0301493293962952E8 ; 1.9765519273021734E9 ; 3.0082055861335445E10 ; 0.0
158 ; 1.2276972977056913E7 ; 2.0302887567827675E8 ; 1.9888387194553702E9 ; 3.0285070794275074E10 ; 0.0
159 ; 1.226316126585302E7 ; 2.0304278220753127E8 ; 2.0011156924324272E9 ; 3.048809966995335E10 ; 0.0
160 ; 1.2253980389933916E7 ; 2.0305665202435526E8 ; 2.01337885369828E9 ; 3.069114245216088E10 ; 0.0
161 ; 1.2243210379336007E7 ; 2.0307048463180396E8 ; 2.025632834088214E9 ; 3.0894199104185238E10 ; 0.0
162 ; 1.2235713598998295E7 ; 2.0308427953888753E8 ; 2.03787604446755E9 ; 3.1097269588817043E10 ; 0.0
163 ; 1.2223820194692755E7 ; 2.0309803626043734E8 ; 2.0501117580665483E9 ; 3.130035386835593E10 ; 0.0
164 ; 1.2210611104962654E7 ; 2.0311175431697664E8 ; 2.0623355782612412E9 ; 3.1503451904616367E10 ; 0.0
165 ; 1.2203385021926062E7 ; 2.0312543323459575E8 ; 2.0745461893662038E9 ; 3.1706563658933346E10 ; 0.0
166 ; 1.21948537428186E7 ; 2.0313907254483113E8 ; 2.08674957438813E9 ; 3.1909689092167942E10 ; 0.0
167 ; 1.2182607865511682E7 ; 2.0315267178454852E8 ; 2.0989444281309485E9 ; 3.2112828164712772E10 ; 0.0
168 ; 1.2172172054499617E7 ; 2.031662304958301E8 ; 2.1111270359964602E9 ; 3.2315980836497322E10 ; 0.0
169 ; 1.2161709143679386E7 ; 2.0317974822586486E8 ; 2.1232992080509598E9 ; 3.2519147066993153E10 ; 0.0
170 ; 1.214926310093973E7 ; 2.0319322452684322E8 ; 2.1354609171946392E9 ; 3.2722326815219017E10 ; 0.0
171 ; 1.2140094790429762E7 ; 2.0320665895585454E8 ; 2.147610180295579E9 ; 3.292552003974586E10 ; 0.0
172 ; 1.2131999638015883E7 ; 2.0322005107478818E8 ; 2.1597502750860085E9 ; 3.3128726698701717E10 ; 0.0
173 ; 1.2121203213311922E7 ; 2.0323340045023787E8 ; 2.1718822747240243E9 ; 3.3331946749776505E10 ; 0.0
174 ; 1.2114726460610187E7 ; 2.0324670665340883E8 ; 2.1840034779373364E9 ; 3.353518015022674E10 ; 0.0
175 ; 1.2111245055383177E7 ; 2.0325996926002827E8 ; 2.196118204397947E9 ; 3.373842685688015E10 ; 0.0
176 ; 1.2100573461317044E7 ; 2.0327318785025865E8 ; 2.20822944945333E9 ; 3.394168682614018E10 ; 0.0
177 ; 1.2096624104160707E7 ; 2.0328636200861344E8 ; 2.220330022914647E9 ; 3.4144960013990437E10 ; 0.0
178 ; 1.2087628187475063E7 ; 2.0329949132387608E8 ; 2.232426647018808E9 ; 3.434824637599905E10 ; 0.0
179 ; 1.208414904905651E7 ; 2.0331257538902107E8 ; 2.244514275206283E9 ; 3.455154586732293E10 ; 0.0
180 ; 1.207580246587918E7 ; 2.0332561380113783E8 ; 2.2565984242553396E9 ; 3.475485844271195E10 ; 0.0
181 ; 1.206777768817203E7 ; 2.03338606161357E8 ; 2.2686742267212186E9 ; 3.495818405651309E10 ; 0.0
182 ; 1.2063744927605195E7 ; 2.033515520747787E8 ; 2.2807420044093904E9 ; 3.5161522662674446E10 ; 0.0
183 ; 1.205702589829003E7 ; 2.033644511504037E8 ; 2.2928057493369956E9 ; 3.536487421474922E10 ; 0.0
184 ; 1.2048549070736507E7 ; 2.033773030010662E8 ; 2.3048627752352858E9 ; 3.556823866589963E10 ; 0.0
185 ; 1.2043324710342161E7 ; 2.033901072433689E8 ; 2.316911324306022E9 ; 3.5771615968900696E10 ; 0.0
186 ; 1.2036424847309705E7 ; 2.0340286349762022E8 ; 2.328954649016364E9 ; 3.5975006076144066E10 ; 0.0
187 ; 1.2031914336605696E7 ; 2.034155713877734E8 ; 2.3409910738636737E9 ; 3.6178408939641685E10 ; 0.0
188 ; 1.2026470154859517E7 ; 2.0342823054136744E8 ; 2.353022988200279E9 ; 3.638182451102946E10 ; 0.0
189 ; 1.201769136662884E7 ; 2.0344084058947E8 ; 2.365049458355139E9 ; 3.658525274157082E10 ; 0.0
190 ; 1.2009698878633771E7 ; 2.0345340116662198E8 ; 2.3770671497217674E9 ; 3.678869358216029E10 ; 0.0
191 ; 1.2006332476968486E7 ; 2.0346591191078395E8 ; 2.3890768486004014E9 ; 3.699214698332691E10 ; 0.0
192 ; 1.2001697680131443E7 ; 2.03478372463284E8 ; 2.4010831810773697E9 ; 3.719561289523769E10 ; 0.0
193 ; 1.1990402084309481E7 ; 2.0349078246876743E8 ; 2.413084878757501E9 ; 3.739909126770098E10 ; 0.0
194 ; 1.1983909094304815E7 ; 2.0350314157514805E8 ; 2.4250752808418107E9 ; 3.760258205016975E10 ; 0.0
195 ; 1.1976551579394689E7 ; 2.0351544943356058E8 ; 2.4370591899361157E9 ; 3.7806085191744896E10 ; 0.0
