CSV File for the City 2 on Day 222
1 - Minute m 
2 - Power Consumed at minute m 
3 - Power Produced at minute m 
4 - Energy Consumed since the beginning of the day 
5 - Energy Produced since the beginning of the day 
6 - Energy Lost since the beginning of the day on lines starting from the city
 
0 ; 125514.54155658688 ; 1.0518657344177684E8 ; 0.0 ; 0.0 ; 0.0
1 ; 128744.19830544585 ; 1.0534012717394602E8 ; 125514.54155658688 ; 1.0518657344177684E8 ; 0.0
2 ; 130196.14895519304 ; 1.0580238248617318E8 ; 254258.73986203273 ; 2.1052670061572286E8 ; 0.0
3 ; 132864.56689961193 ; 1.0657334490980452E8 ; 384454.88881722576 ; 3.1632908310189605E8 ; 0.0
4 ; 135216.6872703523 ; 1.0765302006602162E8 ; 517319.45571683766 ; 4.229024280117006E8 ; 0.0
5 ; 140289.21145787448 ; 1.0904141350557458E8 ; 652536.1429871899 ; 5.305554480777222E8 ; 0.0
6 ; 144208.1127846776 ; 1.1073853051088831E8 ; 792825.3544450644 ; 6.395968615832968E8 ; 0.0
7 ; 151045.4705673344 ; 1.127443758694517E8 ; 937033.4672297421 ; 7.503353920941851E8 ; 0.0
8 ; 160269.88257125078 ; 1.1505895363492751E8 ; 1088078.9377970765 ; 8.630797679636369E8 ; 0.0
9 ; 173991.1950334377 ; 1.1768226689918E8 ; 1248348.8203683272 ; 9.781387215985644E8 ; 0.0
10 ; 196425.17233086252 ; 1.2061431760216475E8 ; 1422340.0154017648 ; 1.0958209884977443E9 ; 0.0
11 ; 231113.46239003266 ; 1.2385510640535286E8 ; 1618765.1877326274 ; 1.216435306099909E9 ; 0.0
12 ; 284690.36640493677 ; 1.2740463264727321E8 ; 1849878.65012266 ; 1.340290412505262E9 ; 0.0
13 ; 337312.6973279292 ; 1.3126289438797021E8 ; 2134569.016527597 ; 1.4676950451525352E9 ; 0.0
14 ; 342526.28101989767 ; 1.3542988853557968E8 ; 2471881.713855526 ; 1.5989579395405054E9 ; 0.0
15 ; 345284.37422963144 ; 1.3990561103643876E8 ; 2814407.9948754236 ; 1.734387828076085E9 ; 0.0
16 ; 349209.9396964288 ; 1.4469005710305867E8 ; 3159692.369105055 ; 1.8742934391125238E9 ; 0.0
17 ; 351429.73335822526 ; 1.497832214530144E8 ; 3508902.308801484 ; 2.0189834962155824E9 ; 0.0
18 ; 354380.52413271903 ; 1.551850985355559E8 ; 3860332.042159709 ; 2.1687667176685967E9 ; 0.0
19 ; 357142.6023340606 ; 1.6089568272950158E8 ; 4214712.566292428 ; 2.3239518162041526E9 ; 0.0
20 ; 360340.1834947766 ; 1.669149685035052E8 ; 4571855.168626489 ; 2.4848474989336543E9 ; 0.0
21 ; 363163.26491335925 ; 1.7324295053637382E8 ; 4932195.352121266 ; 2.6517624674371595E9 ; 0.0
22 ; 365456.8347160966 ; 1.798796237998786E8 ; 5295358.617034625 ; 2.825005417973533E9 ; 0.0
23 ; 368260.37759893446 ; 1.8682498360930127E8 ; 5660815.451750722 ; 3.0048850417734118E9 ; 0.0
24 ; 371200.12004488846 ; 1.9407902564810085E8 ; 6029075.829349657 ; 3.191710025382713E9 ; 0.0
25 ; 373644.74939120095 ; 2.0032978687125903E8 ; 6400275.949394545 ; 3.3857890510308137E9 ; 0.0
26 ; 377349.0279791005 ; 2.0033081153351772E8 ; 6773920.698785746 ; 3.586118837902073E9 ; 0.0
27 ; 379830.03228802717 ; 2.0033186569650012E8 ; 7151269.726764846 ; 3.7864496494355907E9 ; 0.0
28 ; 382749.5408566238 ; 2.00332946452236E8 ; 7531099.759052873 ; 3.986781515132091E9 ; 0.0
29 ; 384875.61964963825 ; 2.0033405119040403E8 ; 7913849.299909497 ; 4.187114461584327E9 ; 0.0
30 ; 388106.480115706 ; 2.003351775714895E8 ; 8298724.919559135 ; 4.387448512774732E9 ; 0.0
31 ; 391209.4992367722 ; 2.0033632350038916E8 ; 8686831.39967484 ; 4.587783690346221E9 ; 0.0
32 ; 393296.7497021738 ; 2.003374871012765E8 ; 9078040.898911612 ; 4.78812001384661E9 ; 0.0
33 ; 396505.58958512906 ; 2.0033866669419697E8 ; 9471337.648613786 ; 4.988457500947886E9 ; 0.0
34 ; 398709.13631721504 ; 2.0033986077362028E8 ; 9867843.238198915 ; 5.188796167642083E9 ; 0.0
35 ; 402313.5527066714 ; 2.003410679890154E8 ; 1.0266552374516131E7 ; 5.389136028415704E9 ; 0.0
36 ; 403715.8347290924 ; 2.0034228712740886E8 ; 1.0668865927222803E7 ; 5.589477096404719E9 ; 0.0
37 ; 405630.75975609955 ; 2.0034351709782276E8 ; 1.1072581761951895E7 ; 5.789819383532128E9 ; 0.0
38 ; 408495.84198035166 ; 2.003447569174543E8 ; 1.1478212521707995E7 ; 5.9901629006299515E9 ; 0.0
39 ; 410428.4008524534 ; 2.0034600569944263E8 ; 1.1886708363688346E7 ; 6.190507657547406E9 ; 0.0
40 ; 412009.0536676903 ; 2.003472626420655E8 ; 1.2297136764540799E7 ; 6.390853663246849E9 ; 0.0
41 ; 415560.00724456634 ; 2.003485270192129E8 ; 1.270914581820849E7 ; 6.591200925888914E9 ; 0.0
42 ; 416813.70135942945 ; 2.003497981719937E8 ; 1.3124705825453056E7 ; 6.791549452908127E9 ; 0.0
43 ; 418455.7231681163 ; 2.0035107550134355E8 ; 1.3541519526812486E7 ; 6.99189925108012E9 ; 0.0
44 ; 419689.96157985675 ; 2.0035235846151376E8 ; 1.3959975249980602E7 ; 7.192250326581464E9 ; 0.0
45 ; 421771.3602661133 ; 2.0035364655433434E8 ; 1.437966521156046E7 ; 7.392602685042977E9 ; 0.0
46 ; 423701.5156313256 ; 2.0035493932415584E8 ; 1.4801436571826573E7 ; 7.592956331597312E9 ; 0.0
47 ; 425379.21069184947 ; 2.0035623635338572E8 ; 1.5225138087457899E7 ; 7.793311270921468E9 ; 0.0
48 ; 426495.5742274528 ; 2.003575372585459E8 ; 1.5650517298149748E7 ; 7.993667507274854E9 ; 0.0
49 ; 428091.0933577244 ; 2.0035884168678606E8 ; 1.60770128723772E7 ; 8.1940250445334E9 ; 0.0
50 ; 428339.4679408354 ; 2.0036014931279662E8 ; 1.6505103965734925E7 ; 8.394383886220185E9 ; 0.0
51 ; 429079.5595598989 ; 2.00361459836072E8 ; 1.6933443433675762E7 ; 8.594744035532982E9 ; 0.0
52 ; 430752.2006261853 ; 2.003627729784807E8 ; 1.7362522993235663E7 ; 8.795105495369055E9 ; 0.0
53 ; 432299.3730911167 ; 2.0036408848210508E8 ; 1.779327519386185E7 ; 8.995468268347536E9 ; 0.0
54 ; 433480.5925972414 ; 2.0036540610731816E8 ; 1.8225574566952966E7 ; 9.195832356829641E9 ; 0.0
55 ; 435143.38752147695 ; 2.0036672563106862E8 ; 1.865905515955021E7 ; 9.39619776293696E9 ; 0.0
56 ; 436754.0053913686 ; 2.0036804684534937E8 ; 1.9094198547071684E7 ; 9.59656448856803E9 ; 0.0
57 ; 437725.9931220554 ; 2.0036936955582812E8 ; 1.953095255246305E7 ; 9.79693253541338E9 ; 0.0
58 ; 437604.82038338 ; 2.003706935806208E8 ; 1.9968678545585107E7 ; 9.997301904969208E9 ; 0.0
59 ; 439529.7820143853 ; 2.0037201874919128E8 ; 2.040628336596849E7 ; 1.019767259854983E10 ; 0.0
60 ; 440581.10340851924 ; 2.0037334490136337E8 ; 2.0845813147982873E7 ; 1.039804461729902E10 ; 0.0
61 ; 442036.3306157626 ; 2.0037467188643157E8 ; 2.1286394251391392E7 ; 1.0598417962200384E10 ; 0.0
62 ; 442391.5086278293 ; 2.0037599956236044E8 ; 2.1728430582007155E7 ; 1.0798792634086815E10 ; 0.0
63 ; 443854.0980630788 ; 2.0037732779506198E8 ; 2.2170822090634983E7 ; 1.0999168633649176E10 ; 0.0
64 ; 444853.7273913713 ; 2.0037865645774308E8 ; 2.261467618869806E7 ; 1.1199545961444237E10 ; 0.0
65 ; 447740.52662443416 ; 2.00379985430315E8 ; 2.305952991608943E7 ; 1.139992461790198E10 ; 0.0
66 ; 445770.5103157127 ; 2.0038131459885854E8 ; 2.3507270442713864E7 ; 1.1600304603332294E10 ; 0.0
67 ; 447038.5220896128 ; 2.0038264385513905E8 ; 2.3953040953029577E7 ; 1.1800685917931152E10 ; 0.0
68 ; 449099.6990913337 ; 2.0038397309616563E8 ; 2.440007947511919E7 ; 1.2001068561786291E10 ; 0.0
69 ; 449536.7709070639 ; 2.0038530222379053E8 ; 2.4849179174210522E7 ; 1.2201452534882456E10 ; 0.0
70 ; 451643.520194245 ; 2.0038663114434424E8 ; 2.5298715945117585E7 ; 1.2401837837106247E10 ; 0.0
71 ; 451562.5837949691 ; 2.0038795976830307E8 ; 2.575035946531183E7 ; 1.2602224468250591E10 ; 0.0
72 ; 452495.41677013115 ; 2.0038928800998524E8 ; 2.62019220491068E7 ; 1.2802612428018894E10 ; 0.0
73 ; 453656.2500356855 ; 2.003906157872737E8 ; 2.665441746587693E7 ; 1.300300171602888E10 ; 0.0
74 ; 454188.6929128835 ; 2.0039194302136227E8 ; 2.7108073715912614E7 ; 1.3203392331816153E10 ; 0.0
75 ; 455889.18805347 ; 2.00393269636523E8 ; 2.7562262408825498E7 ; 1.3403784274837515E10 ; 0.0
76 ; 455815.3529096904 ; 2.0039459555989322E8 ; 2.801815159687897E7 ; 1.3604177544474037E10 ; 0.0
77 ; 456785.6130432787 ; 2.003959207212797E8 ; 2.847396694978866E7 ; 1.380457214003393E10 ; 0.0
78 ; 457062.76037642686 ; 2.0039724505297896E8 ; 2.893075256283194E7 ; 1.4004968060755209E10 ; 0.0
79 ; 456231.2177720406 ; 2.003985684896118E8 ; 2.9387815323208366E7 ; 1.4205365305808187E10 ; 0.0
80 ; 457008.0824893984 ; 2.0039989096797112E8 ; 2.9844046540980406E7 ; 1.44057638742978E10 ; 0.0
81 ; 458614.1023024967 ; 2.0040121242688134E8 ; 3.0301054623469803E7 ; 1.4606163765265772E10 ; 0.0
82 ; 457772.05539850343 ; 2.0040253280706924E8 ; 3.07596687257723E7 ; 1.4806564977692654E10 ; 0.0
83 ; 458379.3136286639 ; 2.0040385205104408E8 ; 3.1217440781170804E7 ; 1.5006967510499723E10 ; 0.0
84 ; 458801.9191833393 ; 2.0040517010298714E8 ; 3.1675820094799466E7 ; 1.5207371362550768E10 ; 0.0
85 ; 458519.44396657334 ; 2.0040648690864962E8 ; 3.2134622013982806E7 ; 1.5407776532653755E10 ; 0.0
86 ; 458559.87235894083 ; 2.0040780241525775E8 ; 3.259314145794938E7 ; 1.5608183019562405E10 ; 0.0
87 ; 457929.253298697 ; 2.0040911657142517E8 ; 3.3051701330308322E7 ; 1.5808590821977663E10 ; 0.0
88 ; 457711.86261090444 ; 2.0041042932707143E8 ; 3.3509630583607018E7 ; 1.6008999938549088E10 ; 0.0
89 ; 458252.12970965984 ; 2.0041174063334653E8 ; 3.3967342446217924E7 ; 1.620941036787616E10 ; 0.0
90 ; 458024.8001236878 ; 2.004130504425607E8 ; 3.4425594575927585E7 ; 1.6409822108509506E10 ; 0.0
91 ; 457547.63760645763 ; 2.0041435870811903E8 ; 3.488361937605127E7 ; 1.6610235158952066E10 ; 0.0
92 ; 458177.2260719548 ; 2.004156653844609E8 ; 3.534116701365773E7 ; 1.6810649517660185E10 ; 0.0
93 ; 458604.76640228037 ; 2.0041697042700323E8 ; 3.579934423972968E7 ; 1.7011065183044645E10 ; 0.0
94 ; 458801.80626014643 ; 2.0041827379208797E8 ; 3.625794900613196E7 ; 1.721148215347165E10 ; 0.0
95 ; 458638.85273522546 ; 2.0041957543693274E8 ; 3.671675081239211E7 ; 1.7411900427263737E10 ; 0.0
96 ; 457872.7400376351 ; 2.0042087531958514E8 ; 3.717538966512734E7 ; 1.761232000270067E10 ; 0.0
97 ; 458033.0338407059 ; 2.0042217339887986E8 ; 3.763326240516497E7 ; 1.7812740878020252E10 ; 0.0
98 ; 458096.7494923872 ; 2.0042346963439852E8 ; 3.809129543900568E7 ; 1.8013163051419132E10 ; 0.0
99 ; 459148.6844744963 ; 2.004247639864324E8 ; 3.8549392188498065E7 ; 1.821358652105353E10 ; 0.0
100 ; 458235.2342106648 ; 2.0042605641594735E8 ; 3.900854087297256E7 ; 1.8414011285039963E10 ; 0.0
101 ; 458545.4017860397 ; 2.0042734688455102E8 ; 3.9466776107183225E7 ; 1.861443734145591E10 ; 0.0
102 ; 457834.5757843594 ; 2.00428635354462E8 ; 3.992532150896926E7 ; 1.881486468834046E10 ; 0.0
103 ; 458227.9085958373 ; 2.0042992178848124E8 ; 4.0383156084753625E7 ; 1.9015293323694923E10 ; 0.0
104 ; 457969.4214899085 ; 2.004312061499648E8 ; 4.084138399334946E7 ; 1.9215723245483406E10 ; 0.0
105 ; 457352.11509385396 ; 2.004324884027987E8 ; 4.129935341483937E7 ; 1.941615445163337E10 ; 0.0
106 ; 457792.7788638426 ; 2.0043376851137498E8 ; 4.175670552993323E7 ; 1.9616586940036167E10 ; 0.0
107 ; 457259.8494422327 ; 2.0043504644056934E8 ; 4.221449830879707E7 ; 1.9817020708547543E10 ; 0.0
108 ; 457058.0715343956 ; 2.0043632215572017E8 ; 4.2671758158239305E7 ; 2.0017455754988113E10 ; 0.0
109 ; 456810.43920956063 ; 2.0043759562260872E8 ; 4.31288162297737E7 ; 2.0217892077143833E10 ; 0.0
110 ; 456339.5628262121 ; 2.0043886680744046E8 ; 4.358562666898326E7 ; 2.041832967276644E10 ; 0.0
111 ; 456369.93728325603 ; 2.0044013567682773E8 ; 4.404196623180947E7 ; 2.0618768539573883E10 ; 0.0
112 ; 455673.2291538587 ; 2.0044140219777295E8 ; 4.449833616909272E7 ; 2.081920867525071E10 ; 0.0
113 ; 455984.5834939509 ; 2.0044266633765334E8 ; 4.495400939824658E7 ; 2.1019650077448483E10 ; 0.0
114 ; 454663.2318616204 ; 2.0044392806420612E8 ; 4.540999398174053E7 ; 2.1220092743786137E10 ; 0.0
115 ; 454827.5184662015 ; 2.004451873455147E8 ; 4.586465721360215E7 ; 2.142053667185034E10 ; 0.0
116 ; 454753.8951554027 ; 2.0044644414999565E8 ; 4.631948473206835E7 ; 2.1620981859195858E10 ; 0.0
117 ; 454183.41654323053 ; 2.004476984463864E8 ; 4.677423862722375E7 ; 2.182142830334585E10 ; 0.0
118 ; 453207.95506370126 ; 2.0044895020373347E8 ; 4.722842204376698E7 ; 2.202187600179224E10 ; 0.0
119 ; 453580.1609611811 ; 2.0045019939138174E8 ; 4.768162999883068E7 ; 2.2222324951995975E10 ; 0.0
120 ; 453274.51923395507 ; 2.0045144597896388E8 ; 4.8135210159791864E7 ; 2.2422775151387356E10 ; 0.0
121 ; 451718.5825743147 ; 2.004526899363905E8 ; 4.858848467902582E7 ; 2.262322659736632E10 ; 0.0
122 ; 451857.74529107794 ; 2.00453931233841E8 ; 4.904020326160014E7 ; 2.282367928730271E10 ; 0.0
123 ; 451200.910676822 ; 2.0045516984175473E8 ; 4.949206100689121E7 ; 2.3024133218536552E10 ; 0.0
124 ; 451190.5138312431 ; 2.0045640573082265E8 ; 4.9943261917568035E7 ; 2.3224588388378307E10 ; 0.0
125 ; 450033.2607873379 ; 2.0045763887197948E8 ; 5.039445243139928E7 ; 2.342504479410913E10 ; 0.0
126 ; 450060.4876946197 ; 2.0045886923639622E8 ; 5.084448569218662E7 ; 2.362550243298111E10 ; 0.0
127 ; 448658.3414245119 ; 2.0046009679547316E8 ; 5.129454617988124E7 ; 2.3825961302217506E10 ; 0.0
128 ; 449463.0912607117 ; 2.004613215208331E8 ; 5.174320452130575E7 ; 2.402642139901298E10 ; 0.0
129 ; 448191.31228739 ; 2.004625433843151E8 ; 5.2192667612566456E7 ; 2.4226882720533813E10 ; 0.0
130 ; 447324.9513310827 ; 2.0046376235796842E8 ; 5.264085892485385E7 ; 2.442734526391813E10 ; 0.0
131 ; 447078.91806387674 ; 2.0046497841404673E8 ; 5.3088183876184925E7 ; 2.4627809026276096E10 ; 0.0
132 ; 445131.82876426826 ; 2.0046619152500293E8 ; 5.3535262794248804E7 ; 2.4828274004690144E10 ; 0.0
133 ; 443696.54166788893 ; 2.004674016634838E8 ; 5.398039462301307E7 ; 2.5028740196215145E10 ; 0.0
134 ; 441981.7398706041 ; 2.004686088023252E8 ; 5.442409116468096E7 ; 2.5229207597878628E10 ; 0.0
135 ; 442331.3662593841 ; 2.004698129145475E8 ; 5.4866072904551566E7 ; 2.5429676206680954E10 ; 0.0
136 ; 440434.5346524563 ; 2.0047101397335118E8 ; 5.530840427081095E7 ; 2.56301460195955E10 ; 0.0
137 ; 438019.32563695445 ; 2.004722119521126E8 ; 5.57488388054634E7 ; 2.583061703356885E10 ; 0.0
138 ; 437762.1162980973 ; 2.0047340682438007E8 ; 5.618685813110036E7 ; 2.6031089245520966E10 ; 0.0
139 ; 436339.44852933177 ; 2.0047459856387016E8 ; 5.662462024739845E7 ; 2.6231562652345345E10 ; 0.0
140 ; 435095.17192305834 ; 2.004757871444641E8 ; 5.7060959695927784E7 ; 2.6432037250909214E10 ; 0.0
141 ; 434932.2849761852 ; 2.004769725402043E8 ; 5.749605486785084E7 ; 2.6632513038053677E10 ; 0.0
142 ; 433144.4191496682 ; 2.0047815472529122E8 ; 5.7930987152827024E7 ; 2.683299001059388E10 ; 0.0
143 ; 432352.75283170544 ; 2.0047933367408028E8 ; 5.836413157197669E7 ; 2.703346816531917E10 ; 0.0
144 ; 431464.5712021941 ; 2.0048050936107904E8 ; 5.87964843248084E7 ; 2.723394749899325E10 ; 0.0
145 ; 429803.0498868201 ; 2.004816817609442E8 ; 5.922794889601059E7 ; 2.7434428008354332E10 ; 0.0
146 ; 429670.3585181559 ; 2.0048285084847924E8 ; 5.9657751945897415E7 ; 2.7634909690115276E10 ; 0.0
147 ; 429177.63125607354 ; 2.0048401659863177E8 ; 6.008742230441557E7 ; 2.7835392540963757E10 ; 0.0
148 ; 427501.4723267751 ; 2.004851789864912E8 ; 6.051659993567164E7 ; 2.803587655756239E10 ; 0.0
149 ; 427207.8754755281 ; 2.0048633798728642E8 ; 6.094410140799842E7 ; 2.823636173654888E10 ; 0.0
150 ; 427410.3334897503 ; 2.0048749357638377E8 ; 6.1371309283473946E7 ; 2.8436848074536167E10 ; 0.0
151 ; 425777.68229663663 ; 2.0048864572928488E8 ; 6.17987196169637E7 ; 2.8637335568112553E10 ; 0.0
152 ; 426144.53259207244 ; 2.0048979442162484E8 ; 6.222449729926033E7 ; 2.883782421384184E10 ; 0.0
153 ; 424963.05677053536 ; 2.004909396291702E8 ; 6.2650641831852406E7 ; 2.9038314008263462E10 ; 0.0
154 ; 425630.40229333466 ; 2.0049208132781744E8 ; 6.307560488862294E7 ; 2.923880494789263E10 ; 0.0
155 ; 424963.5620715358 ; 2.004932194935911E8 ; 6.350123529091627E7 ; 2.9439297029220448E10 ; 0.0
156 ; 423543.4922410632 ; 2.004943541026423E8 ; 6.392619885298781E7 ; 2.963979024871404E10 ; 0.0
157 ; 423060.6537616635 ; 2.0049548513124722E8 ; 6.434974234522887E7 ; 2.984028460281668E10 ; 0.0
158 ; 422126.01698160544 ; 2.0049661255580565E8 ; 6.4772802998990536E7 ; 3.004078008794793E10 ; 0.0
159 ; 422505.29646882846 ; 2.004977363528397E8 ; 6.519492901597214E7 ; 3.0241276700503735E10 ; 0.0
160 ; 421583.9813826258 ; 2.0049885649899238E8 ; 6.561743431244097E7 ; 3.0441774436856575E10 ; 0.0
161 ; 421229.0478498393 ; 2.004999729710265E8 ; 6.603901829382359E7 ; 3.0642273293355568E10 ; 0.0
162 ; 421020.60857698345 ; 2.0050108574582353E8 ; 6.6460247341673434E7 ; 3.0842773266326595E10 ; 0.0
163 ; 420706.00342649786 ; 2.005021948003823E8 ; 6.688126795025042E7 ; 3.104327435207242E10 ; 0.0
164 ; 419230.0544780136 ; 2.0050330011181813E8 ; 6.730197395367691E7 ; 3.12437765468728E10 ; 0.0
165 ; 419797.3832347617 ; 2.0050440165736187E8 ; 6.772120400815493E7 ; 3.1444279846984615E10 ; 0.0
166 ; 418349.65207932406 ; 2.0050549941435882E8 ; 6.81410013913897E7 ; 3.1644784248641975E10 ; 0.0
167 ; 418000.6407373604 ; 2.005065933602679E8 ; 6.855935104346903E7 ; 3.1845289748056335E10 ; 0.0
168 ; 418231.3022016189 ; 2.0050768347266087E8 ; 6.897735168420638E7 ; 3.2045796341416603E10 ; 0.0
169 ; 417135.6727244058 ; 2.0050876972922134E8 ; 6.9395582986408E7 ; 3.2246304024889263E10 ; 0.0
170 ; 415207.1329430877 ; 2.005098521077443E8 ; 6.98127186591324E7 ; 3.2446812794618484E10 ; 0.0
171 ; 414374.9354987231 ; 2.0051093058613512E8 ; 7.02279257920755E7 ; 3.264732264672623E10 ; 0.0
172 ; 414869.8150464988 ; 2.0051200514240906E8 ; 7.064230072757423E7 ; 3.2847833577312366E10 ; 0.0
173 ; 413346.36890427954 ; 2.0051307575469053E8 ; 7.105717054262073E7 ; 3.3048345582454777E10 ; 0.0
174 ; 414442.98388257134 ; 2.005141424012126E8 ; 7.147051691152501E7 ; 3.324885865820947E10 ; 0.0
175 ; 413061.1289205365 ; 2.005152050603163E8 ; 7.188495989540759E7 ; 3.344937280061068E10 ; 0.0
176 ; 412007.86827015213 ; 2.0051626371045014E8 ; 7.229802102432813E7 ; 3.3649888005670998E10 ; 0.0
177 ; 411519.4134158752 ; 2.0051731833016965E8 ; 7.271002889259829E7 ; 3.3850404269381447E10 ; 0.0
178 ; 413094.3459762956 ; 2.005183688981368E8 ; 7.312154830601417E7 ; 3.4050921587711617E10 ; 0.0
179 ; 412754.74125458626 ; 2.0051941539311966E8 ; 7.353464265199046E7 ; 3.4251439956609753E10 ; 0.0
180 ; 411493.2755017206 ; 2.0052045779399192E8 ; 7.394739739324504E7 ; 3.445195937200287E10 ; 0.0
181 ; 411517.1196139033 ; 2.0052149607973254E8 ; 7.435889066874677E7 ; 3.465247982979686E10 ; 0.0
182 ; 410466.0458678846 ; 2.005225302294253E8 ; 7.477040778836067E7 ; 3.4853001325876595E10 ; 0.0
183 ; 410689.79120036145 ; 2.005235602222586E8 ; 7.518087383422856E7 ; 3.505352385610602E10 ; 0.0
184 ; 410466.27377182606 ; 2.0052458603752497E8 ; 7.559156362542892E7 ; 3.525404741632828E10 ; 0.0
185 ; 410040.13351759023 ; 2.0052560765462086E8 ; 7.600202989920074E7 ; 3.54545720023658E10 ; 0.0
186 ; 409657.1698895823 ; 2.005266250530464E8 ; 7.641207003271833E7 ; 3.565509761002042E10 ; 0.0
187 ; 408538.38547382475 ; 2.0052763821240512E8 ; 7.682172720260791E7 ; 3.585562423507346E10 ; 0.0
188 ; 408448.0304745852 ; 2.005286471124036E8 ; 7.723026558808173E7 ; 3.6056151873285866E10 ; 0.0
189 ; 408415.133237694 ; 2.0052965173285145E8 ; 7.763871361855632E7 ; 3.625668052039827E10 ; 0.0
190 ; 408282.15559890965 ; 2.005306520536609E8 ; 7.804712875179401E7 ; 3.645721017213112E10 ; 0.0
191 ; 408116.54617612535 ; 2.0053164805484682E8 ; 7.845541090739292E7 ; 3.665774082418478E10 ; 0.0
192 ; 407790.25712591613 ; 2.0053263971652636E8 ; 7.886352745356904E7 ; 3.6858272472239624E10 ; 0.0
193 ; 407071.31408306747 ; 2.00533627018919E8 ; 7.927131771069495E7 ; 3.7058805111956154E10 ; 0.0
194 ; 407300.6125012487 ; 2.005346099423462E8 ; 7.967838902477802E7 ; 3.7259338738975075E10 ; 0.0
195 ; 405693.14778346126 ; 2.0053558846723142E8 ; 8.008568963727927E7 ; 3.745987334891742E10 ; 0.0
196 ; 406154.99252782424 ; 2.005365625741E8 ; 8.049138278506273E7 ; 3.766040893738465E10 ; 0.0
197 ; 405091.80527324334 ; 2.0053753224357897E8 ; 8.089753777759056E7 ; 3.786094549995875E10 ; 0.0
198 ; 405718.9703510463 ; 2.0053849745639712E8 ; 8.130262958286381E7 ; 3.8061483032202324E10 ; 0.0
199 ; 404544.2350449769 ; 2.0053945819338477E8 ; 8.170834855321485E7 ; 3.826202152965872E10 ; 0.0
200 ; 404012.753384234 ; 2.005404144354738E8 ; 8.211289278825982E7 ; 3.8462560987852104E10 ; 0.0
201 ; 403288.2156004047 ; 2.0054136616369766E8 ; 8.251690554164405E7 ; 3.8663101402287575E10 ; 0.0
