CSV File for the City 4 on Day 2
1 - Minute m 
2 - Power Consumed at minute m 
3 - Power Produced at minute m 
4 - Energy Consumed since the beginning of the day 
5 - Energy Produced since the beginning of the day 
6 - Energy Lost since the beginning of the day on lines starting from the city
 
0 ; 4724453.879474794 ; 5.153398223020983E7 ; 0.0 ; 0.0 ; 0.0
1 ; 4730406.679273235 ; 5.1688303217864126E7 ; 4724453.879474794 ; 5.153398223020983E7 ; 613.6199999999999
2 ; 4733869.305644545 ; 5.215126618082708E7 ; 9454860.55874803 ; 1.0322228544807395E8 ; 1227.2399999999998
3 ; 4739542.013424319 ; 5.292287111909869E7 ; 1.4188729864392575E7 ; 1.5537355162890103E8 ; 1840.8599999999997
4 ; 4745912.707652333 ; 5.400311803267893E7 ; 1.8928271877816893E7 ; 2.0829642274799973E8 ; 2454.4799999999996
5 ; 4755072.204055579 ; 5.539200692156783E7 ; 2.3674184585469227E7 ; 2.6229954078067866E8 ; 3068.0999999999995
6 ; 4763523.20645687 ; 5.708953778576534E7 ; 2.842925678952481E7 ; 3.176915477022465E8 ; 3681.7199999999993
7 ; 4778834.50347052 ; 5.909571062527152E7 ; 3.319277999598168E7 ; 3.7478108548801184E8 ; 4295.339999999999
8 ; 4801745.563046175 ; 6.141052544008633E7 ; 3.7971614499452196E7 ; 4.3387679611328334E8 ; 4908.959999999999
9 ; 4836197.117060233 ; 6.403398223020979E7 ; 4.277336006249837E7 ; 4.9528732155336964E8 ; 5522.579999999999
10 ; 4886503.535221467 ; 6.696608099564191E7 ; 4.7609557179558605E7 ; 5.593213037835795E8 ; 6136.199999999999
11 ; 4963730.777170834 ; 7.020682173638266E7 ; 5.249606071478007E7 ; 6.262873847792214E8 ; 6749.819999999999
12 ; 5094452.938410275 ; 7.375620445243204E7 ; 5.745979149195091E7 ; 6.96494206515604E8 ; 7363.439999999999
13 ; 5215791.49089095 ; 7.761422914379004E7 ; 6.255424443036118E7 ; 7.70250410968036E8 ; 7977.059999999999
14 ; 5228916.180020069 ; 8.178089581045672E7 ; 6.777003592125213E7 ; 8.478646401118261E8 ; 8590.679999999998
15 ; 5234953.340391461 ; 8.6256204452432E7 ; 7.29989521012722E7 ; 9.296455359222828E8 ; 9204.3
16 ; 5241813.978114803 ; 9.104015506971598E7 ; 7.823390544166365E7 ; 1.0159017403747149E9 ; 9817.919999999998
17 ; 5246186.102723005 ; 9.613274766230857E7 ; 8.347571941977845E7 ; 1.1069418954444308E9 ; 10431.539999999997
18 ; 5251994.412994727 ; 1.015339822302098E8 ; 8.872190552250145E7 ; 1.2030746431067395E9 ; 11045.159999999996
19 ; 5259039.435329434 ; 1.0724385877341968E8 ; 9.397389993549618E7 ; 1.3046086253369493E9 ; 11658.779999999995
20 ; 5263956.572075814 ; 1.1326237729193819E8 ; 9.923293937082562E7 ; 1.411852484110369E9 ; 12272.399999999994
21 ; 5269407.575122756 ; 1.1958953778576536E8 ; 1.0449689594290143E8 ; 1.525114861402307E9 ; 12886.019999999993
22 ; 5273953.205689048 ; 1.2622534025490116E8 ; 1.0976630351802419E8 ; 1.6447043991880724E9 ; 13499.639999999992
23 ; 5280873.72478514 ; 1.3316978469934563E8 ; 1.1504025672371323E8 ; 1.7709297394429736E9 ; 14113.259999999991
24 ; 5289376.9322714 ; 1.404228711190987E8 ; 1.2032113044849837E8 ; 1.9040995241423192E9 ; 14726.87999999999
25 ; 5293266.056993664 ; 1.466726404123439E8 ; 1.2561050738076977E8 ; 2.0445223952614179E9 ; 15340.499999999989
26 ; 5300447.273438213 ; 1.466726404123439E8 ; 1.3090377343776344E8 ; 2.191195035673762E9 ; 15954.119999999988
27 ; 5306673.565082052 ; 1.466726404123439E8 ; 1.3620422071120164E8 ; 2.337867676086106E9 ; 16567.739999999987
28 ; 5310521.988206699 ; 1.466726404123439E8 ; 1.4151089427628368E8 ; 2.48454031649845E9 ; 17181.359999999986
29 ; 5316466.95347128 ; 1.466726404123439E8 ; 1.4682141626449037E8 ; 2.631212956910794E9 ; 17794.979999999985
30 ; 5321452.962838382 ; 1.466726404123439E8 ; 1.5213788321796164E8 ; 2.7778855973231378E9 ; 18408.599999999984
31 ; 5327345.521864528 ; 1.466726404123439E8 ; 1.5745933618080002E8 ; 2.9245582377354817E9 ; 19022.219999999983
32 ; 5333924.441627087 ; 1.466726404123439E8 ; 1.6278668170266455E8 ; 3.0712308781478257E9 ; 19635.839999999982
33 ; 5336129.030619962 ; 1.466726404123439E8 ; 1.6812060614429164E8 ; 3.2179035185601697E9 ; 20249.45999999998
34 ; 5342731.990657796 ; 1.466726404123439E8 ; 1.734567351749116E8 ; 3.3645761589725137E9 ; 20863.07999999998
35 ; 5350182.791519653 ; 1.466726404123439E8 ; 1.787994671655694E8 ; 3.5112487993848577E9 ; 21476.69999999998
36 ; 5352975.956869945 ; 1.466726404123439E8 ; 1.8414964995708904E8 ; 3.6579214397972016E9 ; 22090.319999999978
37 ; 5359037.121148564 ; 1.466726404123439E8 ; 1.8950262591395897E8 ; 3.8045940802095456E9 ; 22703.939999999977
38 ; 5362625.877254412 ; 1.466726404123439E8 ; 1.9486166303510752E8 ; 3.9512667206218896E9 ; 23317.559999999976
39 ; 5365280.946048175 ; 1.466726404123439E8 ; 2.0022428891236192E8 ; 4.0979393610342336E9 ; 23931.179999999975
40 ; 5370054.363243239 ; 1.466726404123439E8 ; 2.055895698584101E8 ; 4.2446120014465775E9 ; 24544.799999999974
41 ; 5375147.8244931055 ; 1.466726404123439E8 ; 2.1095962422165334E8 ; 4.391284641858921E9 ; 25158.419999999973
42 ; 5376055.945094746 ; 1.466726404123439E8 ; 2.1633477204614645E8 ; 4.537957282271265E9 ; 25772.03999999997
43 ; 5380338.5141980555 ; 1.466726404123439E8 ; 2.217108279912412E8 ; 4.684629922683609E9 ; 26385.65999999997
44 ; 5383868.784513431 ; 1.466726404123439E8 ; 2.2709116650543925E8 ; 4.831302563095953E9 ; 26999.27999999997
45 ; 5387928.658367204 ; 1.466726404123439E8 ; 2.324750352899527E8 ; 4.977975203508297E9 ; 27612.89999999997
46 ; 5390539.901525592 ; 1.466726404123439E8 ; 2.378629639483199E8 ; 5.124647843920641E9 ; 28226.519999999968
47 ; 5393495.68776468 ; 1.466726404123439E8 ; 2.432535038498455E8 ; 5.271320484332985E9 ; 28840.139999999967
48 ; 5394334.166781083 ; 1.466726404123439E8 ; 2.4864699953761017E8 ; 5.417993124745329E9 ; 29453.759999999966
49 ; 5396392.773080599 ; 1.466726404123439E8 ; 2.5404133370439124E8 ; 5.564665765157673E9 ; 30067.379999999965
50 ; 5396310.232014923 ; 1.466726404123439E8 ; 2.5943772647747183E8 ; 5.711338405570017E9 ; 30680.999999999964
51 ; 5398996.9804579355 ; 1.466726404123439E8 ; 2.6483403670948675E8 ; 5.858011045982361E9 ; 31294.619999999963
52 ; 5399767.297678614 ; 1.466726404123439E8 ; 2.702330336899447E8 ; 6.004683686394705E9 ; 31908.23999999996
53 ; 5400939.264591828 ; 1.466726404123439E8 ; 2.756328009876233E8 ; 6.151356326807049E9 ; 32521.85999999996
54 ; 5402984.5359187815 ; 1.466726404123439E8 ; 2.810337402522151E8 ; 6.298028967219393E9 ; 33135.47999999996
55 ; 5403614.705369655 ; 1.466726404123439E8 ; 2.8643672478813386E8 ; 6.444701607631737E9 ; 33749.09999999996
56 ; 5405553.770564863 ; 1.466726404123439E8 ; 2.918403394935035E8 ; 6.591374248044081E9 ; 34362.719999999965
57 ; 5406892.515791536 ; 1.466726404123439E8 ; 2.9724589326406837E8 ; 6.738046888456425E9 ; 34976.33999999997
58 ; 5411168.180269088 ; 1.466726404123439E8 ; 3.026527857798599E8 ; 6.884719528868769E9 ; 35589.95999999997
59 ; 5407847.20047179 ; 1.466726404123439E8 ; 3.0806395396012896E8 ; 7.031392169281113E9 ; 36203.57999999997
60 ; 5410802.453076332 ; 1.466726404123439E8 ; 3.134718011606008E8 ; 7.178064809693457E9 ; 36817.199999999975
61 ; 5412088.723086372 ; 1.466726404123439E8 ; 3.188826036136771E8 ; 7.324737450105801E9 ; 37430.81999999998
62 ; 5410850.969442299 ; 1.466726404123439E8 ; 3.2429469233676344E8 ; 7.471410090518145E9 ; 38044.43999999998
63 ; 5414651.859264073 ; 1.466726404123439E8 ; 3.2970554330620575E8 ; 7.618082730930489E9 ; 38658.05999999998
64 ; 5412782.090868917 ; 1.466726404123439E8 ; 3.351201951654698E8 ; 7.764755371342833E9 ; 39271.679999999986
65 ; 5414785.829639085 ; 1.466726404123439E8 ; 3.405329772563387E8 ; 7.911428011755177E9 ; 39885.29999999999
66 ; 5414888.328283572 ; 1.466726404123439E8 ; 3.459477630859778E8 ; 8.0581006521675205E9 ; 40498.91999999999
67 ; 5415482.819393707 ; 1.466726404123439E8 ; 3.5136265141426134E8 ; 8.2047732925798645E9 ; 41112.53999999999
68 ; 5415920.498439115 ; 1.466726404123439E8 ; 3.5677813423365504E8 ; 8.3514459329922085E9 ; 41726.159999999996
69 ; 5416053.291139907 ; 1.466726404123439E8 ; 3.6219405473209417E8 ; 8.498118573404552E9 ; 42339.78
70 ; 5418031.966666198 ; 1.466726404123439E8 ; 3.6761010802323407E8 ; 8.644791213816896E9 ; 42953.4
71 ; 5418631.891522001 ; 1.466726404123439E8 ; 3.730281399899003E8 ; 8.79146385422924E9 ; 43567.020000000004
72 ; 5419660.376945656 ; 1.466726404123439E8 ; 3.784467718814223E8 ; 8.938136494641584E9 ; 44180.64000000001
73 ; 5422819.941918401 ; 1.466726404123439E8 ; 3.8386643225836796E8 ; 9.084809135053928E9 ; 44794.26000000001
74 ; 5421233.34116739 ; 1.466726404123439E8 ; 3.892892522002863E8 ; 9.231481775466272E9 ; 45407.88000000001
75 ; 5421672.379408519 ; 1.466726404123439E8 ; 3.947104855414537E8 ; 9.378154415878616E9 ; 46021.500000000015
76 ; 5420934.399591132 ; 1.466726404123439E8 ; 4.0013215792086226E8 ; 9.52482705629096E9 ; 46635.12000000002
77 ; 5421350.388206793 ; 1.466726404123439E8 ; 4.055530923204534E8 ; 9.671499696703304E9 ; 47248.74000000002
78 ; 5417639.626375702 ; 1.466726404123439E8 ; 4.109744427086602E8 ; 9.818172337115648E9 ; 47862.36000000002
79 ; 5419710.088879128 ; 1.466726404123439E8 ; 4.1639208233503586E8 ; 9.964844977527992E9 ; 48475.980000000025
80 ; 5415697.865928785 ; 1.466726404123439E8 ; 4.2181179242391497E8 ; 1.0111517617940336E10 ; 49089.60000000003
81 ; 5416062.159685033 ; 1.466726404123439E8 ; 4.2722749028984374E8 ; 1.025819025835268E10 ; 49703.22000000003
82 ; 5412035.770345932 ; 1.466726404123439E8 ; 4.3264355244952875E8 ; 1.0404862898765024E10 ; 50316.84000000003
83 ; 5410741.715787027 ; 1.466726404123439E8 ; 4.380555882198747E8 ; 1.0551535539177368E10 ; 50930.460000000036
84 ; 5411413.237246644 ; 1.466726404123439E8 ; 4.4346632993566173E8 ; 1.0698208179589712E10 ; 51544.08000000004
85 ; 5411513.168635741 ; 1.466726404123439E8 ; 4.4887774317290837E8 ; 1.0844880820002056E10 ; 52157.70000000004
86 ; 5409191.519185168 ; 1.466726404123439E8 ; 4.542892563415441E8 ; 1.09915534604144E10 ; 52771.32000000004
87 ; 5406549.293214286 ; 1.466726404123439E8 ; 4.596984478607293E8 ; 1.1138226100826744E10 ; 53384.940000000046
88 ; 5404486.220668838 ; 1.466726404123439E8 ; 4.6510499715394354E8 ; 1.1284898741239088E10 ; 53998.56000000005
89 ; 5403744.4357821755 ; 1.466726404123439E8 ; 4.705094833746124E8 ; 1.1431571381651432E10 ; 54612.18000000005
90 ; 5400134.448404332 ; 1.466726404123439E8 ; 4.759132278103946E8 ; 1.1578244022063776E10 ; 55225.800000000054
91 ; 5400939.459479991 ; 1.466726404123439E8 ; 4.813133622587989E8 ; 1.172491666247612E10 ; 55839.42000000006
92 ; 5394466.769333256 ; 1.466726404123439E8 ; 4.867143017182789E8 ; 1.1871589302888464E10 ; 56453.04000000006
93 ; 5398744.545292293 ; 1.466726404123439E8 ; 4.921087684876121E8 ; 1.2018261943300808E10 ; 57066.66000000006
94 ; 5393262.034258427 ; 1.466726404123439E8 ; 4.9750751303290445E8 ; 1.2164934583713152E10 ; 57680.280000000064
95 ; 5390690.984761033 ; 1.466726404123439E8 ; 5.029007750671629E8 ; 1.2311607224125496E10 ; 58293.90000000007
96 ; 5388788.409697095 ; 1.466726404123439E8 ; 5.0829146605192393E8 ; 1.245827986453784E10 ; 58907.52000000007
97 ; 5386001.890493856 ; 1.466726404123439E8 ; 5.1368025446162105E8 ; 1.2604952504950184E10 ; 59521.14000000007
98 ; 5383986.637923639 ; 1.466726404123439E8 ; 5.190662563521149E8 ; 1.2751625145362528E10 ; 60134.760000000075
99 ; 5380110.263834409 ; 1.466726404123439E8 ; 5.244502429900386E8 ; 1.2898297785774872E10 ; 60748.38000000008
100 ; 5377979.692187507 ; 1.466726404123439E8 ; 5.29830353253873E8 ; 1.3044970426187216E10 ; 61362.00000000008
101 ; 5376707.462010214 ; 1.466726404123439E8 ; 5.352083329460605E8 ; 1.319164306659956E10 ; 61975.62000000008
102 ; 5373861.960242273 ; 1.466726404123439E8 ; 5.405850404080707E8 ; 1.3338315707011904E10 ; 62589.240000000085
103 ; 5371737.345219756 ; 1.466726404123439E8 ; 5.45958902368313E8 ; 1.3484988347424248E10 ; 63202.86000000009
104 ; 5367848.294142115 ; 1.466726404123439E8 ; 5.513306397135327E8 ; 1.3631660987836592E10 ; 63816.48000000009
105 ; 5365007.716876226 ; 1.466726404123439E8 ; 5.566984880076748E8 ; 1.3778333628248936E10 ; 64430.10000000009
106 ; 5362209.908844149 ; 1.466726404123439E8 ; 5.620634957245511E8 ; 1.392500626866128E10 ; 65043.720000000096
107 ; 5362065.240376238 ; 1.466726404123439E8 ; 5.674257056333952E8 ; 1.4071678909073624E10 ; 65657.3400000001
108 ; 5357803.947987639 ; 1.466726404123439E8 ; 5.727877708737714E8 ; 1.4218351549485968E10 ; 66270.9600000001
109 ; 5355442.372648394 ; 1.466726404123439E8 ; 5.781455748217591E8 ; 1.4365024189898312E10 ; 66884.58000000009
110 ; 5351406.618505717 ; 1.466726404123439E8 ; 5.835010171944075E8 ; 1.4511696830310656E10 ; 67498.20000000008
111 ; 5348097.732521666 ; 1.466726404123439E8 ; 5.888524238129132E8 ; 1.4658369470723E10 ; 68111.82000000008
112 ; 5347233.215126148 ; 1.466726404123439E8 ; 5.942005215454348E8 ; 1.4805042111135344E10 ; 68725.44000000008
113 ; 5343552.374705979 ; 1.466726404123439E8 ; 5.99547754760561E8 ; 1.4951714751547688E10 ; 69339.06000000007
114 ; 5339581.010560117 ; 1.466726404123439E8 ; 6.04891307135267E8 ; 1.5098387391960032E10 ; 69952.68000000007
115 ; 5337845.982313754 ; 1.466726404123439E8 ; 6.102308881458272E8 ; 1.5245060032372375E10 ; 70566.30000000006
116 ; 5332920.317009315 ; 1.466726404123439E8 ; 6.155687341281409E8 ; 1.539173267278472E10 ; 71179.92000000006
117 ; 5331153.7774774255 ; 1.466726404123439E8 ; 6.209016544451503E8 ; 1.5538405313197063E10 ; 71793.54000000005
118 ; 5326226.76324344 ; 1.466726404123439E8 ; 6.262328082226276E8 ; 1.5685077953609407E10 ; 72407.16000000005
119 ; 5323478.891087151 ; 1.466726404123439E8 ; 6.315590349858711E8 ; 1.5831750594021751E10 ; 73020.78000000004
120 ; 5320428.767089136 ; 1.466726404123439E8 ; 6.368825138769583E8 ; 1.5978423234434095E10 ; 73634.40000000004
121 ; 5319394.870078479 ; 1.466726404123439E8 ; 6.422029426440474E8 ; 1.612509587484644E10 ; 74248.02000000003
122 ; 5312064.896784849 ; 1.466726404123439E8 ; 6.475223375141258E8 ; 1.6271768515258783E10 ; 74861.64000000003
123 ; 5307466.4445623625 ; 1.466726404123439E8 ; 6.528344024109107E8 ; 1.6418441155671127E10 ; 75475.26000000002
124 ; 5306497.427716268 ; 1.466726404123439E8 ; 6.58141868855473E8 ; 1.6565113796083471E10 ; 76088.88000000002
125 ; 5302840.561182373 ; 1.466726404123439E8 ; 6.634483662831893E8 ; 1.6711786436495815E10 ; 76702.50000000001
126 ; 5299262.35152807 ; 1.466726404123439E8 ; 6.687512068443717E8 ; 1.685845907690816E10 ; 77316.12000000001
127 ; 5297529.115049568 ; 1.466726404123439E8 ; 6.740504691958997E8 ; 1.7005131717320503E10 ; 77929.74
128 ; 5289818.836172046 ; 1.466726404123439E8 ; 6.793479983109493E8 ; 1.7151804357732847E10 ; 78543.36
129 ; 5285845.810651701 ; 1.466726404123439E8 ; 6.846378171471214E8 ; 1.729847699814519E10 ; 79156.98
130 ; 5282361.527184134 ; 1.466726404123439E8 ; 6.899236629577731E8 ; 1.7445149638557533E10 ; 79770.59999999999
131 ; 5276277.560432934 ; 1.466726404123439E8 ; 6.952060244849572E8 ; 1.7591822278969875E10 ; 80384.21999999999
132 ; 5273004.066247361 ; 1.466726404123439E8 ; 7.004823020453901E8 ; 1.7738494919382217E10 ; 80997.83999999998
133 ; 5266006.769378949 ; 1.466726404123439E8 ; 7.057553061116375E8 ; 1.788516755979456E10 ; 81611.45999999998
134 ; 5260280.184629751 ; 1.466726404123439E8 ; 7.110213128810164E8 ; 1.80318402002069E10 ; 82225.07999999997
135 ; 5252725.474638867 ; 1.466726404123439E8 ; 7.162815930656462E8 ; 1.8178512840619244E10 ; 82838.69999999997
136 ; 5247562.87474331 ; 1.466726404123439E8 ; 7.21534318540285E8 ; 1.8325185481031586E10 ; 83452.31999999996
137 ; 5243920.821138907 ; 1.466726404123439E8 ; 7.267818814150283E8 ; 1.8471858121443928E10 ; 84065.93999999996
138 ; 5239173.391096835 ; 1.466726404123439E8 ; 7.320258022361672E8 ; 1.861853076185627E10 ; 84679.55999999995
139 ; 5232322.649252211 ; 1.466726404123439E8 ; 7.37264975627264E8 ; 1.8765203402268612E10 ; 85293.17999999995
140 ; 5228357.703420187 ; 1.466726404123439E8 ; 7.424972982765162E8 ; 1.8911876042680954E10 ; 85906.79999999994
141 ; 5219825.352004651 ; 1.466726404123439E8 ; 7.477256559799364E8 ; 1.9058548683093296E10 ; 86520.41999999994
142 ; 5214335.3082570825 ; 1.466726404123439E8 ; 7.52945481331941E8 ; 1.920522132350564E10 ; 87134.03999999994
143 ; 5208920.107240378 ; 1.466726404123439E8 ; 7.581598166401981E8 ; 1.935189396391798E10 ; 87747.65999999993
144 ; 5203084.277203613 ; 1.466726404123439E8 ; 7.633687367474384E8 ; 1.9498566604330322E10 ; 88361.27999999993
145 ; 5198337.721644425 ; 1.466726404123439E8 ; 7.68571821024642E8 ; 1.9645239244742664E10 ; 88974.89999999992
146 ; 5193450.74970376 ; 1.466726404123439E8 ; 7.737701587462864E8 ; 1.9791911885155006E10 ; 89588.51999999992
147 ; 5193175.260053597 ; 1.466726404123439E8 ; 7.789636094959902E8 ; 1.993858452556735E10 ; 90202.13999999991
148 ; 5185745.581932418 ; 1.466726404123439E8 ; 7.841567847560438E8 ; 2.008525716597969E10 ; 90815.75999999991
149 ; 5182369.967659938 ; 1.466726404123439E8 ; 7.893425303379762E8 ; 2.0231929806392033E10 ; 91429.3799999999
150 ; 5177584.070274382 ; 1.466726404123439E8 ; 7.945249003056362E8 ; 2.0378602446804375E10 ; 92042.9999999999
151 ; 5175083.325245601 ; 1.466726404123439E8 ; 7.997024843759105E8 ; 2.0525275087216717E10 ; 92656.6199999999
152 ; 5171693.514164207 ; 1.466726404123439E8 ; 8.048775677011561E8 ; 2.067194772762906E10 ; 93270.23999999989
153 ; 5166101.587219297 ; 1.466726404123439E8 ; 8.100492612153203E8 ; 2.08186203680414E10 ; 93883.85999999988
154 ; 5160664.107018611 ; 1.466726404123439E8 ; 8.152153628025396E8 ; 2.0965293008453743E10 ; 94497.47999999988
155 ; 5154589.286174313 ; 1.466726404123439E8 ; 8.203760269095582E8 ; 2.1111965648866085E10 ; 95111.09999999987
156 ; 5153344.460617722 ; 1.466726404123439E8 ; 8.255306161957325E8 ; 2.1258638289278427E10 ; 95724.71999999987
157 ; 5147696.143583858 ; 1.466726404123439E8 ; 8.306839606563503E8 ; 2.140531092969077E10 ; 96338.33999999987
158 ; 5143057.26347602 ; 1.466726404123439E8 ; 8.358316567999341E8 ; 2.155198357010311E10 ; 96951.95999999986
159 ; 5138427.038323055 ; 1.466726404123439E8 ; 8.409747140634102E8 ; 2.1698656210515453E10 ; 97565.57999999986
160 ; 5135781.5288069695 ; 1.466726404123439E8 ; 8.461131411017332E8 ; 2.1845328850927795E10 ; 98179.19999999985
161 ; 5131391.636696425 ; 1.466726404123439E8 ; 8.512489226305401E8 ; 2.1992001491340137E10 ; 98792.81999999985
162 ; 5128039.593257742 ; 1.466726404123439E8 ; 8.563803142672366E8 ; 2.213867413175248E10 ; 99406.43999999984
163 ; 5120860.059001666 ; 1.466726404123439E8 ; 8.615083538604944E8 ; 2.228534677216482E10 ; 100020.05999999984
164 ; 5117215.033796841 ; 1.466726404123439E8 ; 8.66629213919496E8 ; 2.2432019412577164E10 ; 100633.67999999983
165 ; 5112395.406207699 ; 1.466726404123439E8 ; 8.717464289532928E8 ; 2.2578692052989506E10 ; 101247.29999999983
166 ; 5107035.85048704 ; 1.466726404123439E8 ; 8.768588243595005E8 ; 2.2725364693401848E10 ; 101860.91999999982
167 ; 5104205.155808021 ; 1.466726404123439E8 ; 8.819658602099875E8 ; 2.287203733381419E10 ; 102474.53999999982
168 ; 5100256.516938495 ; 1.466726404123439E8 ; 8.870700653657955E8 ; 2.3018709974226532E10 ; 103088.15999999981
169 ; 5096617.304019679 ; 1.466726404123439E8 ; 8.92170321882734E8 ; 2.3165382614638874E10 ; 103701.77999999981
170 ; 5089891.542584565 ; 1.466726404123439E8 ; 8.972669391867536E8 ; 2.3312055255051216E10 ; 104315.3999999998
171 ; 5086720.331417692 ; 1.466726404123439E8 ; 9.023568307293382E8 ; 2.345872789546356E10 ; 104929.0199999998
172 ; 5082264.26736017 ; 1.466726404123439E8 ; 9.074435510607558E8 ; 2.36054005358759E10 ; 105542.6399999998
173 ; 5077051.6243908685 ; 1.466726404123439E8 ; 9.12525815328116E8 ; 2.3752073176288242E10 ; 106156.25999999979
174 ; 5074930.316444893 ; 1.466726404123439E8 ; 9.176028669525069E8 ; 2.3898745816700584E10 ; 106769.87999999979
175 ; 5071475.540328857 ; 1.466726404123439E8 ; 9.226777972689518E8 ; 2.4045418457112926E10 ; 107383.49999999978
176 ; 5066676.907889666 ; 1.466726404123439E8 ; 9.277492728092806E8 ; 2.419209109752527E10 ; 107997.11999999978
177 ; 5065349.79010843 ; 1.466726404123439E8 ; 9.328159497171704E8 ; 2.433876373793761E10 ; 108610.73999999977
