CSV File for the City 3 on Day 319
1 - Minute m 
2 - Power Consumed at minute m 
3 - Power Produced at minute m 
4 - Energy Consumed since the beginning of the day 
5 - Energy Produced since the beginning of the day 
6 - Energy Lost since the beginning of the day on lines starting from the city
 
0 ; 2405721.9938912187 ; 1.057816582335923E8 ; 0.0 ; 0.0 ; 0.0
1 ; 2408678.4064683267 ; 1.0593452040175354E8 ; 2405721.9938912187 ; 1.057816582335923E8 ; 0.0
2 ; 2411116.3622771804 ; 1.0639617488473704E8 ; 4814400.400359545 ; 2.1171617863534585E8 ; 0.0
3 ; 2412256.0731414314 ; 1.0716662273990679E8 ; 7225516.762636725 ; 3.181123535200829E8 ; 0.0
4 ; 2417653.6492487364 ; 1.0824586490959918E8 ; 9637772.835778156 ; 4.252789762599897E8 ; 0.0
5 ; 2421502.354553194 ; 1.0963390221770614E8 ; 1.2055426485026892E7 ; 5.3352484116958886E8 ; 0.0
6 ; 2427571.6816055877 ; 1.1133073536664984E8 ; 1.4476928839580085E7 ; 6.43158743387295E8 ; 0.0
7 ; 2435432.686173762 ; 1.1333636493477738E8 ; 1.6904500521185674E7 ; 7.544894787539449E8 ; 0.0
8 ; 2445267.38872732 ; 1.1565079137419611E8 ; 1.9339933207359437E7 ; 8.678258436887223E8 ; 0.0
9 ; 2462891.7753125653 ; 1.1827401500907028E8 ; 2.1785200596086755E7 ; 9.834766350629184E8 ; 0.0
10 ; 2489802.2285782187 ; 1.2120603603439254E8 ; 2.424809237139932E7 ; 1.1017506500719886E9 ; 0.0
11 ; 2529568.451221204 ; 1.2444685451524314E8 ; 2.6737894599977538E7 ; 1.2229566861063812E9 ; 0.0
12 ; 2597891.842602924 ; 1.2799647038654181E8 ; 2.9267463051198743E7 ; 1.3474035406216242E9 ; 0.0
13 ; 2660910.9382284763 ; 1.3185488345329589E8 ; 3.1865354893801667E7 ; 1.475400011008166E9 ; 0.0
14 ; 2667971.173557796 ; 1.360220933913412E8 ; 3.452626583203014E7 ; 1.607254894461462E9 ; 0.0
15 ; 2671023.4136771252 ; 1.4049809974857032E8 ; 3.7194237005587935E7 ; 1.7432769878528032E9 ; 0.0
16 ; 2674096.182238018 ; 1.4528290194663623E8 ; 3.986526041926506E7 ; 1.8837750876013737E9 ; 0.0
17 ; 2678093.793356657 ; 1.5037649928311667E8 ; 4.253935660150308E7 ; 2.0290579895480099E9 ; 0.0
18 ; 2680188.9760546857 ; 1.5577889093411976E8 ; 4.521745039485974E7 ; 2.1794344888311267E9 ; 0.0
19 ; 2684653.673225035 ; 1.614900759573091E8 ; 4.789763937091442E7 ; 2.3352133797652464E9 ; 0.0
20 ; 2688579.949892882 ; 1.6751005329532066E8 ; 5.058229304413946E7 ; 2.4967034557225556E9 ; 0.0
21 ; 2691941.326668737 ; 1.7383882177954492E8 ; 5.327087299403234E7 ; 2.664213509017876E9 ; 0.0
22 ; 2694519.551422116 ; 1.8047638013424104E8 ; 5.596281432070108E7 ; 2.838052330797421E9 ; 0.0
23 ; 2697054.4406688586 ; 1.874227269809509E8 ; 5.86573338721232E7 ; 3.018528710931662E9 ; 0.0
24 ; 2699797.4675137736 ; 1.946778608431778E8 ; 6.1354388312792055E7 ; 3.205951437912613E9 ; 0.0
25 ; 2704003.7466692263 ; 2.0092982104947844E8 ; 6.405418578030583E7 ; 3.4006292987557907E9 ; 0.0
26 ; 2709210.17645405 ; 2.0093215377545857E8 ; 6.675818952697506E7 ; 3.6015591198052692E9 ; 0.0
27 ; 2709811.8735085595 ; 2.009346265739336E8 ; 6.94673997034291E7 ; 3.8024912735807276E9 ; 0.0
28 ; 2712863.655853152 ; 2.0093723762707737E8 ; 7.217721157693766E7 ; 4.003425900154661E9 ; 0.0
29 ; 2716963.8315739897 ; 2.0093998504512858E8 ; 7.489007523279081E7 ; 4.2043631377817388E9 ; 0.0
30 ; 2719661.458019056 ; 2.0094286687190193E8 ; 7.76070390643648E7 ; 4.405303122826867E9 ; 0.0
31 ; 2721842.218682907 ; 2.0094588109031603E8 ; 8.032670052238387E7 ; 4.606245989698769E9 ; 0.0
32 ; 2725844.064345517 ; 2.0094902562790686E8 ; 8.304854274106677E7 ; 4.807191870789084E9 ; 0.0
33 ; 2729120.0194990956 ; 2.0095229836229715E8 ; 8.577438680541229E7 ; 5.008140896416991E9 ; 0.0
34 ; 2731967.757806985 ; 2.0095569712659425E8 ; 8.850350682491139E7 ; 5.209093194779288E9 ; 0.0
35 ; 2734034.456717919 ; 2.009592197146915E8 ; 9.123547458271837E7 ; 5.410048891905883E9 ; 0.0
36 ; 2737664.6489684195 ; 2.0096286388644996E8 ; 9.39695090394363E7 ; 5.611008111620574E9 ; 0.0
37 ; 2739854.2966626524 ; 2.009666273727406E8 ; 9.670717368840471E7 ; 5.811970975507024E9 ; 0.0
38 ; 2742123.999590214 ; 2.009705078803287E8 ; 9.944702798506737E7 ; 6.012937602879765E9 ; 0.0
39 ; 2744490.2143553603 ; 2.0097450309658492E8 ; 1.0218915198465759E8 ; 6.213908110760094E9 ; 0.0
40 ; 2745899.730423249 ; 2.009786106940103E8 ; 1.0493364219901295E8 ; 6.414882613856679E9 ; 0.0
41 ; 2750255.0176648926 ; 2.0098282833456406E8 ; 1.0767954192943619E8 ; 6.61586122455069E9 ; 0.0
42 ; 2751847.7088978416 ; 2.009871536737861E8 ; 1.1042979694710109E8 ; 6.816844052885254E9 ; 0.0
43 ; 2751409.8090104866 ; 2.009915843647073E8 ; 1.1318164465599893E8 ; 7.01783120655904E9 ; 0.0
44 ; 2755197.9029568024 ; 2.0099611806154355E8 ; 1.1593305446500942E8 ; 7.218822790923747E9 ; 0.0
45 ; 2755472.4432322467 ; 2.0100075242317116E8 ; 1.1868825236796622E8 ; 7.419818908985291E9 ; 0.0
46 ; 2757326.169983605 ; 2.0100548511638236E8 ; 1.2144372481119847E8 ; 7.620819661408462E9 ; 0.0
47 ; 2759950.205381179 ; 2.0101031381892183E8 ; 1.2420105098118208E8 ; 7.821825146524844E9 ; 0.0
48 ; 2760139.834452883 ; 2.010152362223065E8 ; 1.2696100118656327E8 ; 8.022835460343766E9 ; 0.0
49 ; 2762370.587056351 ; 2.0102025003443184E8 ; 1.2972114102101615E8 ; 8.223850696566072E9 ; 0.0
50 ; 2764557.3906953246 ; 2.0102535298196924E8 ; 1.324835116080725E8 ; 8.424870946600504E9 ; 0.0
51 ; 2763182.161901117 ; 2.0103054281255955E8 ; 1.3524806899876782E8 ; 8.625896299582474E9 ; 0.0
52 ; 2764585.8952161735 ; 2.0103581729680938E8 ; 1.3801125116066894E8 ; 8.826926842395033E9 ; 0.0
53 ; 2765559.6704233806 ; 2.0104117423009685E8 ; 1.407758370558851E8 ; 9.027962659691843E9 ; 0.0
54 ; 2767182.2472668937 ; 2.0104661143419406E8 ; 1.435413967263085E8 ; 9.22900383392194E9 ; 0.0
55 ; 2769395.8948959145 ; 2.0105212675871432E8 ; 1.4630857897357538E8 ; 9.430050445356134E9 ; 0.0
56 ; 2768829.7051221887 ; 2.010577180823922E8 ; 1.490779748684713E8 ; 9.63110257211485E9 ; 0.0
57 ; 2771607.0445671356 ; 2.0106338331420448E8 ; 1.518468045735935E8 ; 9.83216029019724E9 ; 0.0
58 ; 2771660.7334960992 ; 2.0106912039434126E8 ; 1.5461841161816064E8 ; 1.0033223673511446E10 ; 0.0
59 ; 2772049.4748210385 ; 2.0107492729503435E8 ; 1.5739007235165673E8 ; 1.0234292793905787E10 ; 0.0
60 ; 2772223.2002621675 ; 2.0108080202125323E8 ; 1.6016212182647777E8 ; 1.043536772120082E10 ; 0.0
61 ; 2774277.8515896327 ; 2.0108674261127517E8 ; 1.6293434502673993E8 ; 1.0636448523222075E10 ; 0.0
62 ; 2774700.5802084445 ; 2.0109274713713935E8 ; 1.6570862287832955E8 ; 1.083753526583335E10 ; 0.0
63 ; 2776444.539502019 ; 2.010988137049919E8 ; 1.68483323458538E8 ; 1.103862801297049E10 ; 0.0
64 ; 2775696.2100230525 ; 2.0110494045533034E8 ; 1.7125976799804002E8 ; 1.1239726826675482E10 ; 0.0
65 ; 2775977.1861166405 ; 2.0111112556315494E8 ; 1.7403546420806307E8 ; 1.1440831767130812E10 ; 0.0
66 ; 2777241.0498873387 ; 2.011173672380342E8 ; 1.768114413941797E8 ; 1.1641942892693966E10 ; 0.0
67 ; 2776826.878954975 ; 2.011236637240915E8 ; 1.7958868244406703E8 ; 1.1843060259932E10 ; 0.0
68 ; 2779573.732287858 ; 2.0113001329992002E8 ; 1.82365509323022E8 ; 1.204418392365609E10 ; 0.0
69 ; 2779764.6089569023 ; 2.0113641427843156E8 ; 1.8514508305530986E8 ; 1.2245313936956009E10 ; 0.0
70 ; 2779832.456036406 ; 2.0114286500664636E8 ; 1.8792484766426677E8 ; 1.244645035123444E10 ; 0.0
71 ; 2780740.4802999427 ; 2.0114936386542866E8 ; 1.9070468012030318E8 ; 1.2647593216241087E10 ; 0.0
72 ; 2781750.1426154682 ; 2.0115590926917434E8 ; 1.9348542060060313E8 ; 1.2848742580106516E10 ; 0.0
73 ; 2781632.401968952 ; 2.0116249966545504E8 ; 1.962671707432186E8 ; 1.304989848937569E10 ; 0.0
74 ; 2782683.4381672707 ; 2.0116913353462416E8 ; 1.9904880314518756E8 ; 1.3251060989041145E10 ; 0.0
75 ; 2782502.464889512 ; 2.0117580938938847E8 ; 2.0183148658335483E8 ; 1.345223012257577E10 ; 0.0
76 ; 2783261.9366700277 ; 2.0118252577435046E8 ; 2.0461398904824436E8 ; 1.3653405931965158E10 ; 0.0
77 ; 2783325.2782988823 ; 2.0118928126552454E8 ; 2.073972509849144E8 ; 1.385458845773951E10 ; 0.0
78 ; 2784386.328992388 ; 2.0119607446983102E8 ; 2.1018057626321328E8 ; 1.4055777739005033E10 ; 0.0
79 ; 2782298.980471787 ; 2.0120290402457124E8 ; 2.1296496259220567E8 ; 1.4256973813474865E10 ; 0.0
80 ; 2782913.05496479 ; 2.012097685968869E8 ; 2.1574726157267746E8 ; 1.4458176717499435E10 ; 0.0
81 ; 2783018.068766718 ; 2.0121666688320637E8 ; 2.1853017462764224E8 ; 1.4659386486096323E10 ; 0.0
82 ; 2783418.050475219 ; 2.0122359760868058E8 ; 2.2131319269640896E8 ; 1.486060315297953E10 ; 0.0
83 ; 2781904.570753357 ; 2.012305595266111E8 ; 2.2409661074688417E8 ; 1.5061826750588211E10 ; 0.0
84 ; 2780672.0354160424 ; 2.012375514178723E8 ; 2.2687851531763753E8 ; 1.5263057310114822E10 ; 0.0
85 ; 2779071.203644606 ; 2.0124457209032983E8 ; 2.2965918735305357E8 ; 1.5464294861532694E10 ; 0.0
86 ; 2779397.76097342 ; 2.012516203782569E8 ; 2.3243825855669817E8 ; 1.5665539433623024E10 ; 0.0
87 ; 2778443.1895209816 ; 2.0125869514175037E8 ; 2.352176563176716E8 ; 1.5866791054001282E10 ; 0.0
88 ; 2779545.116535198 ; 2.0126579526614812E8 ; 2.3799609950719258E8 ; 1.6068049749143032E10 ; 0.0
89 ; 2776661.3039662475 ; 2.0127291966144857E8 ; 2.4077564462372777E8 ; 1.626931554440918E10 ; 0.0
90 ; 2776660.953012043 ; 2.0128006726173392E8 ; 2.4355230592769402E8 ; 1.647058846407063E10 ; 0.0
91 ; 2777433.8618660565 ; 2.0128723702459824E8 ; 2.4632896688070607E8 ; 1.6671868531332363E10 ; 0.0
92 ; 2775606.9864795054 ; 2.01294427930581E8 ; 2.4910640074257213E8 ; 1.6873155768356962E10 ; 0.0
93 ; 2775589.8692112816 ; 2.0130163898260736E8 ; 2.5188200772905162E8 ; 1.7074450196287542E10 ; 0.0
94 ; 2775072.860419166 ; 2.0130886920543528E8 ; 2.546575975982629E8 ; 1.727575183527015E10 ; 0.0
95 ; 2775275.016693681 ; 2.013161176451108E8 ; 2.5743267045868206E8 ; 1.7477060704475586E10 ; 0.0
96 ; 2772244.1245863102 ; 2.013233833684315E8 ; 2.6020794547537574E8 ; 1.7678376822120697E10 ; 0.0
97 ; 2772820.9182455637 ; 2.0133066546241903E8 ; 2.6298018959996206E8 ; 1.787970020548913E10 ; 0.0
98 ; 2771393.8847999745 ; 2.013379630338006E8 ; 2.657530105182076E8 ; 1.8081030870951546E10 ; 0.0
99 ; 2772204.7219767096 ; 2.0134527520850033E8 ; 2.6852440440300757E8 ; 1.8282368833985348E10 ; 0.0
100 ; 2770191.6295119175 ; 2.0135260113114038E8 ; 2.7129660912498426E8 ; 1.8483714109193848E10 ; 0.0
101 ; 2768845.4896181314 ; 2.0135993996455202E8 ; 2.7406680075449616E8 ; 1.868506671032499E10 ; 0.0
102 ; 2769109.288806745 ; 2.0136729088929725E8 ; 2.768356462441143E8 ; 1.8886426650289543E10 ; 0.0
103 ; 2765660.452811976 ; 2.0137465310320047E8 ; 2.79604755532921E8 ; 1.908779394117884E10 ; 0.0
104 ; 2766567.0560219395 ; 2.013820258208907E8 ; 2.82370415985733E8 ; 1.928916859428204E10 ; 0.0
105 ; 2764452.1494192076 ; 2.0138940827335453E8 ; 2.851369830417549E8 ; 1.9490550620102932E10 ; 0.0
106 ; 2764240.6263426463 ; 2.013967997074992E8 ; 2.879014351911741E8 ; 1.9691940028376286E10 ; 0.0
107 ; 2763568.6050422043 ; 2.014041993857265E8 ; 2.9066567581751674E8 ; 1.9893336828083786E10 ; 0.0
108 ; 2763225.102685123 ; 2.0141160658551687E8 ; 2.9342924442255896E8 ; 2.0094741027469513E10 ; 0.0
109 ; 2762155.0818806086 ; 2.014190205990241E8 ; 2.9619246952524406E8 ; 2.029615263405503E10 ; 0.0
110 ; 2759555.2944638017 ; 2.014264407326801E8 ; 2.989546246071247E8 ; 2.0497571654654057E10 ; 0.0
111 ; 2759475.738880997 ; 2.014338663068102E8 ; 3.017141799015885E8 ; 2.0698998095386738E10 ; 0.0
112 ; 2758933.9967424273 ; 2.0144129665525806E8 ; 3.044736556404695E8 ; 2.0900431961693546E10 ; 0.0
113 ; 2757998.9532532953 ; 2.0144873112502092E8 ; 3.072325896372119E8 ; 2.1101873258348804E10 ; 0.0
114 ; 2755747.1888350756 ; 2.014561690758945E8 ; 3.099905885904652E8 ; 2.1303321989473824E10 ; 0.0
115 ; 2754498.4959608316 ; 2.0146360988012746E8 ; 3.127463357793003E8 ; 2.1504778158549717E10 ; 0.0
116 ; 2752834.118192231 ; 2.014710529220854E8 ; 3.155008342752611E8 ; 2.1706241768429844E10 ; 0.0
117 ; 2753513.542787001 ; 2.014784975979241E8 ; 3.1825366839345336E8 ; 2.190771282135193E10 ; 0.0
118 ; 2752987.7346499204 ; 2.0148594331527203E8 ; 3.210071819362404E8 ; 2.2109191318949852E10 ; 0.0
119 ; 2748994.280529692 ; 2.014933894929216E8 ; 3.237601696708903E8 ; 2.2310677262265125E10 ; 0.0
120 ; 2747377.7837886494 ; 2.015008355605291E8 ; 3.2650916395141995E8 ; 2.2512170651758045E10 ; 0.0
121 ; 2747131.1234341273 ; 2.0150828095832366E8 ; 3.292565417352086E8 ; 2.2713671487318573E10 ; 0.0
122 ; 2744772.5352514414 ; 2.0151572513682383E8 ; 3.320036728586427E8 ; 2.2915179768276897E10 ; 0.0
123 ; 2744844.1279098107 ; 2.01523167556563E8 ; 3.3474844539389414E8 ; 2.3116695493413723E10 ; 0.0
124 ; 2743778.1808387213 ; 2.015306076878223E8 ; 3.37493289521804E8 ; 2.3318218660970287E10 ; 0.0
125 ; 2740938.7549047037 ; 2.0153804501037177E8 ; 3.402370677026427E8 ; 2.3519749268658108E10 ; 0.0
126 ; 2740927.5482687773 ; 2.0154547901321843E8 ; 3.4297800645754737E8 ; 2.372128731366848E10 ; 0.0
127 ; 2739569.706275992 ; 2.0155290919436252E8 ; 3.4571893400581616E8 ; 2.3922832792681698E10 ; 0.0
128 ; 2737684.1973268455 ; 2.015603350605603E8 ; 3.4845850371209216E8 ; 2.412438570187606E10 ; 0.0
129 ; 2734321.0143153914 ; 2.0156775612709412E8 ; 3.51196187909419E8 ; 2.4325946036936623E10 ; 0.0
130 ; 2734671.3292759582 ; 2.015751719175495E8 ; 3.5393050892373437E8 ; 2.4527513793063717E10 ; 0.0
131 ; 2732361.9632349885 ; 2.0158258196359837E8 ; 3.5666518025301033E8 ; 2.4729088964981266E10 ; 0.0
132 ; 2727700.7650594283 ; 2.0158998580478925E8 ; 3.593975422162453E8 ; 2.4930671546944866E10 ; 0.0
133 ; 2727877.2447278933 ; 2.015973829883433E8 ; 3.621252429813047E8 ; 2.5132261532749657E10 ; 0.0
134 ; 2724180.209355264 ; 2.0160477306895685E8 ; 3.648531202260326E8 ; 2.5333858915738E10 ; 0.0
135 ; 2721173.1109219207 ; 2.0161215560860947E8 ; 3.6757730043538785E8 ; 2.5535463688806957E10 ; 0.0
136 ; 2720908.7514664996 ; 2.0161953017637813E8 ; 3.7029847354630977E8 ; 2.5737075844415565E10 ; 0.0
137 ; 2718302.4259251975 ; 2.0162689634825668E8 ; 3.730193822977763E8 ; 2.593869537459194E10 ; 0.0
138 ; 2714717.281081701 ; 2.0163425370698103E8 ; 3.757376847237015E8 ; 2.6140322270940197E10 ; 0.0
139 ; 2710056.4545290256 ; 2.0164160184185925E8 ; 3.7845240200478315E8 ; 2.634195652464718E10 ; 0.0
140 ; 2704312.4533114075 ; 2.0164894034860712E8 ; 3.811624584593122E8 ; 2.6543598126489037E10 ; 0.0
141 ; 2697836.3802878037 ; 2.0165626882918853E8 ; 3.838667709126236E8 ; 2.6745247066837643E10 ; 0.0
142 ; 2691870.635730839 ; 2.016635868916605E8 ; 3.865646072929114E8 ; 2.6946903335666832E10 ; 0.0
143 ; 2686478.9415336214 ; 2.016708941500232E8 ; 3.892564779286423E8 ; 2.714856692255849E10 ; 0.0
144 ; 2679972.026940166 ; 2.0167819022407418E8 ; 3.919429568701759E8 ; 2.7350237816708515E10 ; 0.0
145 ; 2675058.037788912 ; 2.0168547473926732E8 ; 3.9462292889711607E8 ; 2.755191600693259E10 ; 0.0
146 ; 2670085.895800739 ; 2.016927473265757E8 ; 3.97297986934905E8 ; 2.7753601481671856E10 ; 0.0
147 ; 2664050.701643063 ; 2.0170000762235886E8 ; 3.999680728307057E8 ; 2.7955294228998432E10 ; 0.0
148 ; 2660506.1890533026 ; 2.0170725526823387E8 ; 4.0263212353234875E8 ; 2.8156994236620792E10 ; 0.0
149 ; 2654269.278408248 ; 2.0171448991095054E8 ; 4.0529262972140205E8 ; 2.8358701491889027E10 ; 0.0
150 ; 2649315.7109623444 ; 2.0172171120227003E8 ; 4.079468989998103E8 ; 2.8560415981799976E10 ; 0.0
151 ; 2643853.650203788 ; 2.0172891879884744E8 ; 4.1059621471077263E8 ; 2.8762137693002247E10 ; 0.0
152 ; 2639686.6102259546 ; 2.0173611236211774E8 ; 4.132400683609764E8 ; 2.8963866611801094E10 ; 0.0
153 ; 2634816.1533493605 ; 2.0174329155818522E8 ; 4.158797549712024E8 ; 2.916560272416321E10 ; 0.0
154 ; 2628257.732227937 ; 2.017504560577162E8 ; 4.185145711245517E8 ; 2.9367346015721397E10 ; 0.0
155 ; 2623710.866320008 ; 2.0175760553583494E8 ; 4.2114282885677963E8 ; 2.9569096471779114E10 ; 0.0
156 ; 2617964.6427269015 ; 2.0176473967202276E8 ; 4.2376653972309965E8 ; 2.977085407731495E10 ; 0.0
157 ; 2613127.699313838 ; 2.0177185815002012E8 ; 4.2638450436582655E8 ; 2.9972618816986973E10 ; 0.0
158 ; 2607404.630415214 ; 2.0177896065773162E8 ; 4.2899763206514037E8 ; 3.0174390675136993E10 ; 0.0
159 ; 2604363.9041036167 ; 2.017860468871338E8 ; 4.3160503669555557E8 ; 3.0376169635794724E10 ; 0.0
160 ; 2598912.6569814375 ; 2.0179311653418586E8 ; 4.342094005996592E8 ; 3.0577955682681858E10 ; 0.0
161 ; 2593552.3058141116 ; 2.0180016929874268E8 ; 4.368083132566406E8 ; 3.0779748799216045E10 ; 0.0
162 ; 2587647.8848601007 ; 2.01807204884471E8 ; 4.394018655624547E8 ; 3.098154896851479E10 ; 0.0
163 ; 2582535.4130749367 ; 2.018142229987674E8 ; 4.419895134473148E8 ; 3.118335617339926E10 ; 0.0
164 ; 2576289.5240654326 ; 2.0182122335267934E8 ; 4.445720488603897E8 ; 3.138517039639803E10 ; 0.0
165 ; 2571656.1611297107 ; 2.0182820566082802E8 ; 4.4714833838445514E8 ; 3.158699161975071E10 ; 0.0
166 ; 2567694.3276697537 ; 2.0183516964133397E8 ; 4.4971999454558486E8 ; 3.1788819825411537E10 ; 0.0
167 ; 2562537.262816561 ; 2.0184211501574448E8 ; 4.522876888732546E8 ; 3.199065499505287E10 ; 0.0
168 ; 2555405.2740487433 ; 2.018490415089634E8 ; 4.5485022613607115E8 ; 3.2192497110068615E10 ; 0.0
169 ; 2550169.738757895 ; 2.0185594884918287E8 ; 4.574056314101199E8 ; 3.239434615157758E10 ; 0.0
170 ; 2545130.51423791 ; 2.018628367678171E8 ; 4.599558011488778E8 ; 3.259620210042676E10 ; 0.0
171 ; 2539207.244578324 ; 2.0186970499943817E8 ; 4.625009316631157E8 ; 3.279806493719458E10 ; 0.0
172 ; 2534705.3653509705 ; 2.0187655328171355E8 ; 4.65040138907694E8 ; 3.299993464219402E10 ; 0.0
173 ; 2529115.1454203464 ; 2.0188338135534555E8 ; 4.6757484427304494E8 ; 3.3201811195475735E10 ; 0.0
174 ; 2524951.9916622513 ; 2.0189018896401262E8 ; 4.701039594184653E8 ; 3.340369457683108E10 ; 0.0
175 ; 2520196.131121237 ; 2.0189697585431215E8 ; 4.726289114101276E8 ; 3.3605584765795094E10 ; 0.0
176 ; 2516355.984906069 ; 2.019E8 ; 4.751491075412488E8 ; 3.3807481741649406E10 ; 0.0
177 ; 2511918.234158145 ; 2.019E8 ; 4.776654635261549E8 ; 3.4009381741649406E10 ; 0.0
178 ; 2506703.4036950176 ; 2.019E8 ; 4.8017738176031303E8 ; 3.4211281741649406E10 ; 0.0
179 ; 2502209.2456634636 ; 2.019E8 ; 4.826840851640081E8 ; 3.441318174164941E10 ; 0.0
180 ; 2496645.3885087958 ; 2.019E8 ; 4.8518629440967155E8 ; 3.461508174164941E10 ; 0.0
181 ; 2492531.1068209657 ; 2.019E8 ; 4.8768293979818034E8 ; 3.481698174164941E10 ; 0.0
182 ; 2488249.2101910845 ; 2.019E8 ; 4.901754709050013E8 ; 3.501888174164941E10 ; 0.0
183 ; 2484668.987692845 ; 2.019E8 ; 4.9266372011519235E8 ; 3.522078174164941E10 ; 0.0
184 ; 2477884.3828375963 ; 2.019E8 ; 4.951483891028852E8 ; 3.542268174164941E10 ; 0.0
185 ; 2474095.484859934 ; 2.019E8 ; 4.976262734857228E8 ; 3.562458174164941E10 ; 0.0
186 ; 2470774.2025896837 ; 2.019E8 ; 5.001003689705827E8 ; 3.582648174164941E10 ; 0.0
187 ; 2467023.821964017 ; 2.019E8 ; 5.025711431731724E8 ; 3.602838174164941E10 ; 0.0
188 ; 2460426.872004257 ; 2.019E8 ; 5.0503816699513644E8 ; 3.623028174164941E10 ; 0.0
189 ; 2456807.075227663 ; 2.019E8 ; 5.074985938671407E8 ; 3.643218174164941E10 ; 0.0
190 ; 2450629.2726224912 ; 2.019E8 ; 5.099554009423684E8 ; 3.663408174164941E10 ; 0.0
191 ; 2446241.7833113316 ; 2.019E8 ; 5.1240603021499085E8 ; 3.683598174164941E10 ; 0.0
192 ; 2443536.848561514 ; 2.019E8 ; 5.1485227199830216E8 ; 3.703788174164941E10 ; 0.0
193 ; 2437393.704172828 ; 2.019E8 ; 5.172958088468637E8 ; 3.723978174164941E10 ; 0.0
194 ; 2433565.8128933436 ; 2.019E8 ; 5.1973320255103654E8 ; 3.744168174164941E10 ; 0.0
195 ; 2428005.158847153 ; 2.019E8 ; 5.2216676836392987E8 ; 3.764358174164941E10 ; 0.0
196 ; 2423969.9235155494 ; 2.019E8 ; 5.24594773522777E8 ; 3.784548174164941E10 ; 0.0
197 ; 2420363.4094991935 ; 2.019E8 ; 5.270187434462926E8 ; 3.804738174164941E10 ; 0.0
198 ; 2414915.9380190833 ; 2.019E8 ; 5.2943910685579175E8 ; 3.824928174164941E10 ; 0.0
199 ; 2411404.24612254 ; 2.019E8 ; 5.3185402279381084E8 ; 3.845118174164941E10 ; 0.0
200 ; 2405190.178757632 ; 2.019E8 ; 5.342654270399334E8 ; 3.865308174164941E10 ; 0.0
201 ; 2400909.653338412 ; 1.6723602319706312E8 ; 5.36670617218691E8 ; 3.885498174164941E10 ; 0.0
202 ; 2394879.640009285 ; 1.527127382774142E8 ; 5.390715268720294E8 ; 3.9022217764846466E10 ; 0.0
203 ; 2391336.6662722374 ; 1.5236626757342157E8 ; 5.414664065120387E8 ; 3.917493050312388E10 ; 0.0
