CSV File for the City 3 on Day 210
1 - Minute m 
2 - Power Consumed at minute m 
3 - Power Produced at minute m 
4 - Energy Consumed since the beginning of the day 
5 - Energy Produced since the beginning of the day 
6 - Energy Lost since the beginning of the day on lines starting from the city
 
0 ; 155580.59894621096 ; 1.0534167334143975E8 ; 0.0 ; 0.0 ; 0.0
1 ; 158333.82370323897 ; 1.0549409482040018E8 ; 155580.59894621096 ; 1.0534167334143975E8 ; 0.0
2 ; 160728.04066281838 ; 1.0595534052239731E8 ; 313914.4226494499 ; 2.1083576816183993E8 ; 0.0
3 ; 164395.5566511629 ; 1.0672541593955028E8 ; 474642.46331226826 ; 3.1679110868423724E8 ; 0.0
4 ; 167765.39399085654 ; 1.0780432614503127E8 ; 639038.0199634312 ; 4.235165246237875E8 ; 0.0
5 ; 171852.83662432022 ; 1.0919207571867555E8 ; 806803.4139542878 ; 5.313208507688188E8 ; 0.0
6 ; 179418.41753443217 ; 1.1088866867582402E8 ; 978656.250578608 ; 6.405129264874943E8 ; 0.0
7 ; 186815.44698176347 ; 1.1289410840177065E8 ; 1158074.6681130403 ; 7.514015951633184E8 ; 0.0
8 ; 198233.50682203867 ; 1.152083975941683E8 ; 1344890.1150948037 ; 8.64295703565089E8 ; 0.0
9 ; 215026.49955685224 ; 1.178315382155953E8 ; 1543123.6219168424 ; 9.795041011592573E8 ; 0.0
10 ; 241006.24515290928 ; 1.2076353145818216E8 ; 1758150.1214736947 ; 1.0973356393748527E9 ; 0.0
11 ; 284671.0632634725 ; 1.2400437772176817E8 ; 1999156.366626604 ; 1.2180991708330348E9 ; 0.0
12 ; 351708.2581357967 ; 1.27554076606514E8 ; 2283827.4298900766 ; 1.342103548554803E9 ; 0.0
13 ; 413469.5839328542 ; 1.3141262692028916E8 ; 2635535.688025873 ; 1.4696576251613169E9 ; 0.0
14 ; 421575.15895192645 ; 1.355800267005154E8 ; 3049005.2719587274 ; 1.601070252081606E9 ; 0.0
15 ; 423287.7357108213 ; 1.4005627324953973E8 ; 3470580.430910654 ; 1.7366502787821212E9 ; 0.0
16 ; 427730.5819789122 ; 1.4484136318206832E8 ; 3893868.166621475 ; 1.876706552031661E9 ; 0.0
17 ; 431949.013363249 ; 1.4993529248276016E8 ; 4321598.748600387 ; 2.0215479152137294E9 ; 0.0
18 ; 435732.16480396566 ; 1.5533805657178003E8 ; 4753547.761963636 ; 2.1714832076964893E9 ; 0.0
19 ; 439153.51244312146 ; 1.6104965037595573E8 ; 5189279.926767602 ; 2.3268212642682695E9 ; 0.0
20 ; 443041.1495791628 ; 1.670700684031681E8 ; 5628433.439210723 ; 2.487870914644225E9 ; 0.0
21 ; 445442.403451768 ; 1.733993048177187E8 ; 6071474.588789886 ; 2.6549409830473933E9 ; 0.0
22 ; 448814.9554044499 ; 1.80037353514632E8 ; 6516916.992241654 ; 2.828340287865112E9 ; 0.0
23 ; 452832.91086841974 ; 1.8698420819114226E8 ; 6965731.947646104 ; 3.0083776413797436E9 ; 0.0
24 ; 456430.2052812449 ; 1.9423986241394442E8 ; 7418564.858514523 ; 3.1953618495708857E9 ; 0.0
25 ; 460633.4487176066 ; 2.0049235057932496E8 ; 7874995.063795768 ; 3.38960171198483E9 ; 0.0
26 ; 462790.00254253007 ; 2.0049521400596997E8 ; 8335628.512513374 ; 3.5900940625641546E9 ; 0.0
27 ; 465825.82229832397 ; 2.0049821550933138E8 ; 8798418.515055904 ; 3.7905892765701246E9 ; 0.0
28 ; 470758.3409210633 ; 2.0050134869126973E8 ; 9264244.337354228 ; 3.991087492079456E9 ; 0.0
29 ; 473618.4471329375 ; 2.0050460726966277E8 ; 9735002.67827529 ; 4.1915888407707257E9 ; 0.0
30 ; 476962.8547244045 ; 2.0050798510852614E8 ; 1.0208621125408228E7 ; 4.392093448040388E9 ; 0.0
31 ; 479752.6157952262 ; 2.0051147624228725E8 ; 1.0685583980132634E7 ; 4.592601433148914E9 ; 0.0
32 ; 484328.11788206914 ; 2.0051507489469808E8 ; 1.116533659592786E7 ; 4.793112909391202E9 ; 0.0
33 ; 487876.82345599384 ; 2.005187754929239E8 ; 1.164966471380993E7 ; 4.9936279842859E9 ; 0.0
34 ; 489891.7810797502 ; 2.0052257267736748E8 ; 1.2137541537265923E7 ; 5.194146759778824E9 ; 0.0
35 ; 493031.5653572881 ; 2.0052646130778554E8 ; 1.2627433318345673E7 ; 5.394669332456191E9 ; 0.0
36 ; 496320.60201736446 ; 2.00530436466233E8 ; 1.3120464883702962E7 ; 5.595195793763977E9 ; 0.0
37 ; 498910.94906615606 ; 2.00534493457339E8 ; 1.3616785485720325E7 ; 5.79572623023021E9 ; 0.0
38 ; 501133.1658302271 ; 2.0053862780637592E8 ; 1.4115696434786482E7 ; 5.99626072368755E9 ; 0.0
39 ; 503629.66649366816 ; 2.0054283525553805E8 ; 1.4616829600616708E7 ; 6.196799351493925E9 ; 0.0
40 ; 506380.1914810792 ; 2.0054711175879928E8 ; 1.5120459267110376E7 ; 6.397342186749463E9 ; 0.0
41 ; 509987.3688147585 ; 2.0055145347567204E8 ; 1.5626839458591456E7 ; 6.597889298508263E9 ; 0.0
42 ; 512449.09347937227 ; 2.0055585676414615E8 ; 1.6136826827406215E7 ; 6.798440751983934E9 ; 0.0
43 ; 514228.73923655663 ; 2.005603181730445E8 ; 1.6649275920885587E7 ; 6.99899660874808E9 ; 0.0
44 ; 517766.6248387743 ; 2.0056483443399402E8 ; 1.7163504660122145E7 ; 7.199556926921124E9 ; 0.0
45 ; 519785.0399540477 ; 2.0056940245317796E8 ; 1.7681271284960918E7 ; 7.400121761355119E9 ; 0.0
46 ; 520383.00966452836 ; 2.0057401930300456E8 ; 1.8201056324914966E7 ; 7.600691163808297E9 ; 0.0
47 ; 522172.61048967595 ; 2.0057868221380123E8 ; 1.8721439334579494E7 ; 7.801265183111301E9 ; 0.0
48 ; 524876.6619728135 ; 2.0058338856562123E8 ; 1.924361194506917E7 ; 8.001843865325103E9 ; 0.0
49 ; 527221.1032186372 ; 2.0058813588023043E8 ; 1.9768488607041985E7 ; 8.202427253890724E9 ; 0.0
50 ; 527998.2923097415 ; 2.0059292181332546E8 ; 2.0295709710260622E7 ; 8.403015389770954E9 ; 0.0
51 ; 530734.685443722 ; 2.0059774414702135E8 ; 2.0823708002570365E7 ; 8.60360831158428E9 ; 0.0
52 ; 529879.1648590966 ; 2.0060260078263474E8 ; 2.1354442688014086E7 ; 8.804206055731302E9 ; 0.0
53 ; 531690.5394843774 ; 2.0060748973378044E8 ; 2.1884321852873184E7 ; 9.004808656513937E9 ; 0.0
54 ; 533709.4114587655 ; 2.0061240911979127E8 ; 2.241601239235756E7 ; 9.205416146247717E9 ; 0.0
55 ; 533521.7659004699 ; 2.0061735715946463E8 ; 2.2949721803816326E7 ; 9.406028555367508E9 ; 0.0
56 ; 537272.2857179123 ; 2.0062233216513512E8 ; 2.3483243569716796E7 ; 9.606645912526972E9 ; 0.0
57 ; 538210.4476009127 ; 2.0062733253706896E8 ; 2.402051585543471E7 ; 9.807268244692106E9 ; 0.0
58 ; 540113.1919216696 ; 2.0063235675817195E8 ; 2.455872630303562E7 ; 1.0007895577229176E10 ; 0.0
59 ; 540933.0633812121 ; 2.0063740338900208E8 ; 2.509883949495729E7 ; 1.0208527933987347E10 ; 0.0
60 ; 542322.4810219522 ; 2.0064247106307545E8 ; 2.5639772558338504E7 ; 1.0409165337376348E10 ; 0.0
61 ; 542002.9667534018 ; 2.006475584824533E8 ; 2.6182095039360456E7 ; 1.0609807808439425E10 ; 0.0
62 ; 544500.0150876422 ; 2.006526644135971E8 ; 2.6724098006113857E7 ; 1.0810455366921877E10 ; 0.0
63 ; 545938.4121553671 ; 2.006577876834794E8 ; 2.72685980212015E7 ; 1.1011108031335474E10 ; 0.0
64 ; 546955.9678924517 ; 2.0066292717593586E8 ; 2.7814536433356866E7 ; 1.1211765819018953E10 ; 0.0
65 ; 548497.1050740777 ; 2.006680818282465E8 ; 2.836149240124932E7 ; 1.141242874619489E10 ; 0.0
66 ; 548821.3149423648 ; 2.0067325062793228E8 ; 2.8909989506323397E7 ; 1.1613096828023136E10 ; 0.0
67 ; 550945.2399315541 ; 2.006784326097552E8 ; 2.945881082126576E7 ; 1.1813770078651068E10 ; 0.0
68 ; 551696.3256457204 ; 2.006836268529091E8 ; 3.0009756061197314E7 ; 1.2014448511260822E10 ; 0.0
69 ; 553079.7682759516 ; 2.0068883247838968E8 ; 3.0561452386843033E7 ; 1.2215132138113731E10 ; 0.0
70 ; 554665.078999257 ; 2.006940486465329E8 ; 3.1114532155118983E7 ; 1.2415820970592121E10 ; 0.0
71 ; 556146.1725431415 ; 2.0069927455471045E8 ; 3.166919723411824E7 ; 1.2616515019238653E10 ; 0.0
72 ; 557053.5552164165 ; 2.0070450943517274E8 ; 3.2225343406661384E7 ; 1.2817214293793364E10 ; 0.0
73 ; 559035.2453777319 ; 2.0070975255302975E8 ; 3.27823969618778E7 ; 1.3017918803228537E10 ; 0.0
74 ; 559322.0592135056 ; 2.0071500320436057E8 ; 3.334143220725553E7 ; 1.3218628555781567E10 ; 0.0
75 ; 560414.7058659781 ; 2.0072026071444345E8 ; 3.390075426646904E7 ; 1.3419343558985928E10 ; 0.0
76 ; 561262.4648240836 ; 2.0072552443609804E8 ; 3.446116897233502E7 ; 1.362006381970037E10 ; 0.0
77 ; 562361.425006801 ; 2.007307937481328E8 ; 3.50224314371591E7 ; 1.3820789344136469E10 ; 0.0
78 ; 562202.8230417292 ; 2.0073606805389032E8 ; 3.55847928621659E7 ; 1.4021520137884602E10 ; 0.0
79 ; 562763.669968091 ; 2.0074134677988407E8 ; 3.614699568520763E7 ; 1.4222256205938492E10 ; 0.0
80 ; 562276.5281143172 ; 2.007466293745205E8 ; 3.670975935517572E7 ; 1.4422997552718376E10 ; 0.0
81 ; 563810.4684129184 ; 2.0075191530690098E8 ; 3.727203588329004E7 ; 1.4623744182092897E10 ; 0.0
82 ; 563413.5428692773 ; 2.0075720406569773E8 ; 3.783584635170296E7 ; 1.48244960973998E10 ; 0.0
83 ; 563643.8711639149 ; 2.0076249515809953E8 ; 3.8399259894572236E7 ; 1.5025253301465498E10 ; 0.0
84 ; 562685.7749220195 ; 2.0076778810882208E8 ; 3.896290376573615E7 ; 1.5226015796623598E10 ; 0.0
85 ; 564169.9416895785 ; 2.0077308245917884E8 ; 3.952558954065817E7 ; 1.542678358473242E10 ; 0.0
86 ; 563791.4643817465 ; 2.0077837776620823E8 ; 4.008975948234775E7 ; 1.5627556667191599E10 ; 0.0
87 ; 564069.9427658339 ; 2.007836736018539E8 ; 4.0653550946729496E7 ; 1.5828335044957808E10 ; 0.0
88 ; 563655.5595408033 ; 2.00788969552194E8 ; 4.121762088949533E7 ; 1.6029118718559662E10 ; 0.0
89 ; 563434.7801697401 ; 2.0079426521671653E8 ; 4.178127644903613E7 ; 1.6229907688111856E10 ; 0.0
90 ; 565004.6646827608 ; 2.00799560207638E8 ; 4.234471122920587E7 ; 1.6430701953328573E10 ; 0.0
91 ; 564467.4671100875 ; 2.0080485414926186E8 ; 4.290971589388863E7 ; 1.6631501513536211E10 ; 0.0
92 ; 564402.4707446672 ; 2.0081014667737508E8 ; 4.347418336099872E7 ; 1.6832306367685472E10 ; 0.0
93 ; 564286.4240121604 ; 2.0081543743867958E8 ; 4.403858583174339E7 ; 1.7033116514362848E10 ; 0.0
94 ; 564962.6195725529 ; 2.0082072609025666E8 ; 4.460287225575555E7 ; 1.723393195180153E10 ; 0.0
95 ; 563710.1816031667 ; 2.0082601229906237E8 ; 4.51678348753281E7 ; 1.7434752677891785E10 ; 0.0
96 ; 563379.6416581252 ; 2.0083129574145174E8 ; 4.5731545056931265E7 ; 1.7635578690190845E10 ; 0.0
97 ; 563308.6686278686 ; 2.0083657610272995E8 ; 4.629492469858939E7 ; 1.7836409985932297E10 ; 0.0
98 ; 562859.0619565055 ; 2.008418530767289E8 ; 4.685823336721726E7 ; 1.8037246562035027E10 ; 0.0
99 ; 563967.8141331216 ; 2.008471263654077E8 ; 4.742109242917376E7 ; 1.8238088415111755E10 ; 0.0
100 ; 562141.0696139715 ; 2.0085239567847514E8 ; 4.798506024330688E7 ; 1.843893554147716E10 ; 0.0
101 ; 562864.3324938724 ; 2.008576607330333E8 ; 4.854720131292085E7 ; 1.8639787937155636E10 ; 0.0
102 ; 563479.1854293834 ; 2.0086292125324064E8 ; 4.9110065645414725E7 ; 1.8840645597888668E10 ; 0.0
103 ; 561560.7183477064 ; 2.0086817696999365E8 ; 4.967354483084411E7 ; 1.904150851914191E10 ; 0.0
104 ; 561874.7070078249 ; 2.008734276206256E8 ; 5.023510554919182E7 ; 1.9242376696111904E10 ; 0.0
105 ; 562488.8105745582 ; 2.0087867294862163E8 ; 5.079698025619964E7 ; 1.944325012373253E10 ; 0.0
106 ; 562270.3087159526 ; 2.008839127033493E8 ; 5.1359469066774204E7 ; 1.964412879668115E10 ; 0.0
107 ; 562321.6732974704 ; 2.0088914663980302E8 ; 5.192173937549016E7 ; 1.98450127093845E10 ; 0.0
108 ; 562607.2041305404 ; 2.0089437451836258E8 ; 5.248406104878763E7 ; 2.0045901856024303E10 ; 0.0
109 ; 562346.8526592798 ; 2.0089959610456377E8 ; 5.304666825291817E7 ; 2.0246796230542667E10 ; 0.0
110 ; 560226.7583317251 ; 2.0090481116888157E8 ; 5.360901510557745E7 ; 2.0447695826647232E10 ; 0.0
111 ; 559968.0057871257 ; 2.0091001948652408E8 ; 5.416924186390917E7 ; 2.0648600637816113E10 ; 0.0
112 ; 561089.4538250446 ; 2.0091522083723742E8 ; 5.47292098696963E7 ; 2.0849510657302635E10 ; 0.0
113 ; 560142.1199591048 ; 2.0092041500512037E8 ; 5.529029932352134E7 ; 2.1050425878139874E10 ; 0.0
114 ; 560151.8834394923 ; 2.009256017784487E8 ; 5.585044144348045E7 ; 2.1251346293144993E10 ; 0.0
115 ; 559110.2572723049 ; 2.009307809495081E8 ; 5.6410593326919936E7 ; 2.1452271894923443E10 ; 0.0
116 ; 558267.5642870023 ; 2.0093595231443572E8 ; 5.696970358419224E7 ; 2.165320267587295E10 ; 0.0
117 ; 557872.9140934378 ; 2.0094111567306957E8 ; 5.752797114847924E7 ; 2.1854138628187386E10 ; 0.0
118 ; 558577.9661464894 ; 2.009462708288052E8 ; 5.808584406257267E7 ; 2.2055079743860455E10 ; 0.0
119 ; 558264.2516059516 ; 2.0095141758845988E8 ; 5.8644422028719164E7 ; 2.225602601468926E10 ; 0.0
120 ; 557104.8011410908 ; 2.009565557621428E8 ; 5.9202686280325115E7 ; 2.2456977432277718E10 ; 0.0
121 ; 556697.7059459295 ; 2.0096168516313237E8 ; 5.9759791081466205E7 ; 2.265793398803986E10 ; 0.0
122 ; 556317.4736053839 ; 2.0096680560775867E8 ; 6.031648878741214E7 ; 2.285889567320299E10 ; 0.0
123 ; 555847.6166276278 ; 2.009719169152921E8 ; 6.087280626101752E7 ; 2.305986247881075E10 ; 0.0
124 ; 554587.1296034459 ; 2.0097701890783724E8 ; 6.142865387764515E7 ; 2.326083439572604E10 ; 0.0
125 ; 554108.8185921255 ; 2.0098211141023147E8 ; 6.1983241007248595E7 ; 2.3461811414633877E10 ; 0.0
126 ; 554452.815694307 ; 2.0098719424994886E8 ; 6.253734982584072E7 ; 2.366279352604411E10 ; 0.0
127 ; 553847.1146829469 ; 2.0099226725700808E8 ; 6.309180264153503E7 ; 2.386378072029406E10 ; 0.0
128 ; 551694.7785668685 ; 2.0099733026388508E8 ; 6.364564975621798E7 ; 2.4064772987551067E10 ; 0.0
129 ; 551808.1148242156 ; 2.0100238310542935E8 ; 6.4197344534784846E7 ; 2.4265770317814953E10 ; 0.0
130 ; 551157.9328239969 ; 2.0100742561878452E8 ; 6.474915264960906E7 ; 2.4466772700920383E10 ; 0.0
131 ; 549097.0281765353 ; 2.010124576433122E8 ; 6.530031058243305E7 ; 2.466778012653917E10 ; 0.0
132 ; 547425.4770324837 ; 2.010174790205195E8 ; 6.584940761060959E7 ; 2.486879258418248E10 ; 0.0
133 ; 546544.0314609224 ; 2.010224895939899E8 ; 6.639683308764207E7 ; 2.5069810063203E10 ; 0.0
134 ; 545914.9730008568 ; 2.010274892093171E8 ; 6.6943377119103E7 ; 2.527083255279699E10 ; 0.0
135 ; 543089.0915062604 ; 2.010324777140418E8 ; 6.748929209210385E7 ; 2.5471860042006306E10 ; 0.0
136 ; 542083.3723017846 ; 2.010374549575916E8 ; 6.803238118361011E7 ; 2.567289251972035E10 ; 0.0
137 ; 540705.8545442087 ; 2.0104242079122314E8 ; 6.85744645559119E7 ; 2.587392997467794E10 ; 0.0
138 ; 538245.9802815429 ; 2.010473750679672E8 ; 6.91151704104561E7 ; 2.6074972395469162E10 ; 0.0
139 ; 537844.5144131375 ; 2.0105231764257598E8 ; 6.965341639073765E7 ; 2.627601977053713E10 ; 0.0
140 ; 536024.6962376678 ; 2.010572483714727E8 ; 7.019126090515079E7 ; 2.6477072088179703E10 ; 0.0
141 ; 533843.565461291 ; 2.010621671127034E8 ; 7.072728560138845E7 ; 2.6678129336551174E10 ; 0.0
142 ; 532141.7870822077 ; 2.010670737258912E8 ; 7.126112916684975E7 ; 2.687919150366388E10 ; 0.0
143 ; 530464.8828510259 ; 2.010719680721917E8 ; 7.179327095393196E7 ; 2.708025857738977E10 ; 0.0
144 ; 530096.9450181626 ; 2.0107685001425114E8 ; 7.232373583678298E7 ; 2.7281330545461964E10 ; 0.0
145 ; 529137.5688332645 ; 2.0108171941616595E8 ; 7.285383278180113E7 ; 2.7482407395476215E10 ; 0.0
146 ; 527397.6941739537 ; 2.0108657614344397E8 ; 7.33829703506344E7 ; 2.768348911489238E10 ; 0.0
147 ; 528267.6466288983 ; 2.010914200629675E8 ; 7.391036804480834E7 ; 2.7884575691035824E10 ; 0.0
148 ; 526335.6200433397 ; 2.0109625104295784E8 ; 7.443863569143724E7 ; 2.8085667111098793E10 ; 0.0
149 ; 527042.1852893857 ; 2.0110106895294115E8 ; 7.496497131148058E7 ; 2.828676336214175E10 ; 0.0
150 ; 525630.5960307214 ; 2.011058736637161E8 ; 7.549201349676996E7 ; 2.8487864431094692E10 ; 0.0
151 ; 524313.4117458425 ; 2.0111066504732248E8 ; 7.601764409280069E7 ; 2.8688970304758408E10 ; 0.0
152 ; 525218.6097806835 ; 2.0111544297701135E8 ; 7.654195750454654E7 ; 2.889008096980573E10 ; 0.0
153 ; 524945.7171989323 ; 2.0112020732721636E8 ; 7.706717611432722E7 ; 2.909119641278274E10 ; 0.0
154 ; 523973.4624966627 ; 2.0112495797352612E8 ; 7.759212183152616E7 ; 2.929231662010996E10 ; 0.0
155 ; 523457.9668456752 ; 2.011296947926581E8 ; 7.811609529402283E7 ; 2.9493441578083485E10 ; 0.0
156 ; 522014.6902683216 ; 2.01134417662433E8 ; 7.86395532608685E7 ; 2.9694571272876144E10 ; 0.0
157 ; 520702.5594387311 ; 2.0113912646175063E8 ; 7.916156795113683E7 ; 2.9895705690538578E10 ; 0.0
158 ; 520683.16442171397 ; 2.0114382107056665E8 ; 7.968227051057556E7 ; 3.0096844817000328E10 ; 0.0
159 ; 521186.50599545456 ; 2.0114850136987013E8 ; 8.020295367499727E7 ; 3.0297988638070896E10 ; 0.0
160 ; 519704.4253658079 ; 2.011531672416621E8 ; 8.072414018099272E7 ; 3.0499137139440765E10 ; 0.0
161 ; 518866.3742164872 ; 2.0115781856893504E8 ; 8.124384460635853E7 ; 3.0700290306682426E10 ; 0.0
162 ; 517528.89926589606 ; 2.0116245523565298E8 ; 8.176271098057501E7 ; 3.090144812525136E10 ; 0.0
163 ; 517763.0926328036 ; 2.0116707712673262E8 ; 8.228023987984091E7 ; 3.1102610580487015E10 ; 0.0
164 ; 516543.7875055783 ; 2.0117168412802497E8 ; 8.279800297247371E7 ; 3.1303777657613747E10 ; 0.0
165 ; 515615.78550126165 ; 2.0117627612629804E8 ; 8.33145467599793E7 ; 3.150494934174177E10 ; 0.0
166 ; 514266.6818625555 ; 2.0118085300921983E8 ; 8.383016254548055E7 ; 3.170612561786807E10 ; 0.0
167 ; 515089.08646279096 ; 2.011854146653422E8 ; 8.434442922734311E7 ; 3.190730647087729E10 ; 0.0
168 ; 513466.16600392555 ; 2.0118996098408553E8 ; 8.485951831380591E7 ; 3.210849188554263E10 ; 0.0
169 ; 513809.1713730696 ; 2.0119449185572353E8 ; 8.537298447980984E7 ; 3.2309681846526714E10 ; 0.0
170 ; 512675.1165579863 ; 2.011990071713691E8 ; 8.58867936511829E7 ; 3.251087633838244E10 ; 0.0
171 ; 512277.0466208267 ; 2.0120350682296047E8 ; 8.639946876774089E7 ; 3.2712075345553806E10 ; 0.0
172 ; 510771.24645717884 ; 2.0120799070324802E8 ; 8.691174581436172E7 ; 3.2913278852376766E10 ; 0.0
173 ; 511045.4806715153 ; 2.0121245870578155E8 ; 8.74225170608189E7 ; 3.3114486843080013E10 ; 0.0
174 ; 510610.95669484074 ; 2.0121691072489795E8 ; 8.79335625414904E7 ; 3.3315699301785793E10 ; 0.0
175 ; 510971.52088000363 ; 2.012213466557096E8 ; 8.844417349818525E7 ; 3.3516916212510693E10 ; 0.0
176 ; 509583.81802946946 ; 2.0122576639409295E8 ; 8.895514501906525E7 ; 3.37181375591664E10 ; 0.0
177 ; 509538.84244484 ; 2.012301698366777E8 ; 8.946472883709471E7 ; 3.3919363325560493E10 ; 0.0
178 ; 508513.9807305876 ; 2.0123455688083634E8 ; 8.997426767953955E7 ; 3.412059349539717E10 ; 0.0
179 ; 508763.3472681044 ; 2.0123892742467412E8 ; 9.048278166027014E7 ; 3.4321828052278008E10 ; 0.0
180 ; 507393.2343129283 ; 2.012432813670194E8 ; 9.099154500753824E7 ; 3.452306697970268E10 ; 0.0
181 ; 507036.87367040355 ; 2.0124761860741422E8 ; 9.149893824185117E7 ; 3.47243102610697E10 ; 0.0
182 ; 505917.9355180966 ; 2.0125193904610568E8 ; 9.200597511552157E7 ; 3.492555787967712E10 ; 0.0
183 ; 505901.20090263913 ; 2.01256242584037E8 ; 9.251189305103967E7 ; 3.512680981872322E10 ; 0.0
184 ; 506272.98611863324 ; 2.0126052912283945E8 ; 9.30177942519423E7 ; 3.532806606130726E10 ; 0.0
185 ; 505246.1114325596 ; 2.012647985648244E8 ; 9.352406723806094E7 ; 3.55293265904301E10 ; 0.0
186 ; 504669.2511246714 ; 2.0126905081297565E8 ; 9.402931334949349E7 ; 3.573059138899493E10 ; 0.0
187 ; 504189.0036777485 ; 2.0127328577094203E8 ; 9.453398260061815E7 ; 3.59318604398079E10 ; 0.0
188 ; 503734.44800836704 ; 2.0127750334303042E8 ; 9.503817160429591E7 ; 3.613313372557884E10 ; 0.0
189 ; 503654.08047169924 ; 2.0128170343419892E8 ; 9.554190605230428E7 ; 3.6334411228921875E10 ; 0.0
190 ; 503755.75986824866 ; 2.0128588595005026E8 ; 9.604556013277598E7 ; 3.653569293235607E10 ; 0.0
191 ; 501796.6769282462 ; 2.0129005079682562E8 ; 9.654931589264423E7 ; 3.673697881830612E10 ; 0.0
192 ; 502987.88166651526 ; 2.0129419788139853E8 ; 9.705111256957248E7 ; 3.693826886910295E10 ; 0.0
193 ; 502417.0637645907 ; 2.0129832711126903E8 ; 9.755410045123899E7 ; 3.713956306698435E10 ; 0.0
194 ; 500932.9299466964 ; 2.013024383945581E8 ; 9.805651751500358E7 ; 3.734086139409562E10 ; 0.0
195 ; 502691.63943884574 ; 2.013065316400023E8 ; 9.855745044495027E7 ; 3.754216383249018E10 ; 0.0
196 ; 501378.2834628489 ; 2.0131060675694865E8 ; 9.906014208438912E7 ; 3.774347036413018E10 ; 0.0
197 ; 499859.5046303087 ; 2.0131466365534952E8 ; 9.956152036785197E7 ; 3.794478097088713E10 ; 0.0
198 ; 500043.5255446098 ; 2.01318702245758E8 ; 1.0006137987248228E8 ; 3.814609563454248E10 ; 0.0
199 ; 500009.7544290691 ; 2.0132272243932325E8 ; 1.005614233980269E8 ; 3.834741433678824E10 ; 0.0
200 ; 500937.6072689346 ; 2.0132672414778608E8 ; 1.0106143315245597E8 ; 3.854873705922756E10 ; 0.0
201 ; 497238.2159939956 ; 2.0078209291143617E8 ; 1.015623707597249E8 ; 3.875006378337535E10 ; 0.0
