CSV File for the City 4 on Day 207
1 - Minute m 
2 - Power Consumed at minute m 
3 - Power Produced at minute m 
4 - Energy Consumed since the beginning of the day 
5 - Energy Produced since the beginning of the day 
6 - Energy Lost since the beginning of the day on lines starting from the city
 
0 ; 476397.7563415852 ; 1.0570885753133908E8 ; 0.0 ; 0.0 ; 0.0
1 ; 484165.38794021157 ; 1.058582931190409E8 ; 476397.7563415852 ; 1.0570885753133908E8 ; 0.0
2 ; 492712.35550207185 ; 1.063168463357391E8 ; 960563.1442817968 ; 2.1156715065038E8 ; 0.0
3 ; 503342.82296784135 ; 1.0708452929843158E8 ; 1453275.4997838687 ; 3.178839969861191E8 ; 0.0
4 ; 511405.81136032316 ; 1.0816135311952138E8 ; 1956618.32275171 ; 4.2496852628455067E8 ; 0.0
5 ; 525749.1534136068 ; 1.095473277657516E8 ; 2468024.134112033 ; 5.3312987940407205E8 ; 0.0
6 ; 542935.8025017469 ; 1.1124246192543218E8 ; 2993773.28752564 ; 6.426772071698236E8 ; 0.0
7 ; 565273.7408741061 ; 1.1324676288781613E8 ; 3536709.090027387 ; 7.539196690952559E8 ; 0.0
8 ; 598317.5060620949 ; 1.1556023643835759E8 ; 4101982.830901493 ; 8.67166431983072E8 ; 0.0
9 ; 650780.2207756133 ; 1.1818288677325803E8 ; 4700300.336963587 ; 9.827266684214296E8 ; 0.0
10 ; 729330.304575872 ; 1.2111471643619412E8 ; 5351080.557739201 ; 1.1009095551946876E9 ; 0.0
11 ; 851678.39084138 ; 1.243557262794309E8 ; 6080410.862315073 ; 1.2220242716308818E9 ; 0.0
12 ; 1053198.8166809713 ; 1.279059154507033E8 ; 6932089.253156452 ; 1.3463799979103127E9 ; 0.0
13 ; 1243838.3959388798 ; 1.3176528140633464E8 ; 7985288.069837424 ; 1.474285913361016E9 ; 0.0
14 ; 1268933.249832796 ; 1.3593381995012355E8 ; 9229126.465776304 ; 1.6060511947673507E9 ; 0.0
15 ; 1279182.5327720991 ; 1.4041152529661578E8 ; 1.04980597156091E7 ; 1.7419850147174742E9 ; 0.0
16 ; 1289087.4227286002 ; 1.4519839015655842E8 ; 1.17772422483812E7 ; 1.88239654001409E9 ; 0.0
17 ; 1299089.7270386394 ; 1.5029440584164146E8 ; 1.30663296711098E7 ; 2.0275949301706486E9 ; 0.0
18 ; 1308268.5893218582 ; 1.5569956238512182E8 ; 1.4365419398148438E7 ; 2.17788933601229E9 ; 0.0
19 ; 1318123.6667853794 ; 1.6141384867459646E8 ; 1.5673687987470295E7 ; 2.333588898397412E9 ; 0.0
20 ; 1330529.953684735 ; 1.6743725259306744E8 ; 1.6991811654255673E7 ; 2.495002747072008E9 ; 0.0
21 ; 1339102.773489699 ; 1.737697611644971E8 ; 1.832234160794041E7 ; 2.662439999665076E9 ; 0.0
22 ; 1352476.2482872296 ; 1.8041136070026976E8 ; 1.9661444381430108E7 ; 2.8362097608295727E9 ; 0.0
23 ; 1359818.1332722423 ; 1.873620369433257E8 ; 2.101392062971734E7 ; 3.0166211215298424E9 ; 0.0
24 ; 1368153.1532371843 ; 1.946217752071724E8 ; 2.237373876298958E7 ; 3.203983158473168E9 ; 0.0
25 ; 1379812.945443996 ; 2.0087860140565747E8 ; 2.3741891916226763E7 ; 3.3986049336803403E9 ; 0.0
26 ; 1390282.335309571 ; 2.0088604821225023E8 ; 2.512170486167076E7 ; 3.5994835350859976E9 ; 0.0
27 ; 1399702.2579250901 ; 2.0089386969685256E8 ; 2.651198719698033E7 ; 3.800369583298248E9 ; 0.0
28 ; 1409093.775601495 ; 2.0090205067320043E8 ; 2.791168945490542E7 ; 4.0012634529951005E9 ; 0.0
29 ; 1418214.4017027316 ; 2.009105760810838E8 ; 2.9320783230506916E7 ; 4.202165503668301E9 ; 0.0
30 ; 1429374.838841319 ; 2.0091943106365624E8 ; 3.0738997632209647E7 ; 4.403076079749385E9 ; 0.0
31 ; 1439284.043125094 ; 2.0092860103336576E8 ; 3.2168372471050967E7 ; 4.603995510813041E9 ; 0.0
32 ; 1446774.621271869 ; 2.0093807172702888E8 ; 3.360765651417606E7 ; 4.804924111846407E9 ; 0.0
33 ; 1458624.150950098 ; 2.009478292507407E8 ; 3.5054431135447934E7 ; 5.005862183573436E9 ; 0.0
34 ; 1467003.8715307382 ; 2.00957860115431E8 ; 3.651305528639803E7 ; 5.206810012824177E9 ; 0.0
35 ; 1473331.01538295 ; 2.0096815126394445E8 ; 3.798005915792877E7 ; 5.407767872939608E9 ; 0.0
36 ; 1484669.818038152 ; 2.0097869009055147E8 ; 3.9453390173311725E7 ; 5.608736024203552E9 ; 0.0
37 ; 1493117.342136386 ; 2.0098946445379275E8 ; 4.0938059991349876E7 ; 5.809714714294104E9 ; 0.0
38 ; 1501310.159095615 ; 2.010004626835312E8 ; 4.243117733348626E7 ; 6.010704178747896E9 ; 0.0
39 ; 1507428.5823710214 ; 2.0101167358303964E8 ; 4.3932487492581874E7 ; 6.211704641431427E9 ; 0.0
40 ; 1517059.9486251015 ; 2.0102308642689365E8 ; 4.543991607495289E7 ; 6.412716315014466E9 ; 0.0
41 ; 1525474.300665401 ; 2.0103469095537347E8 ; 4.6956976023577996E7 ; 6.6137394014413595E9 ; 0.0
42 ; 1529699.4097981476 ; 2.010464773660095E8 ; 4.84824503242434E7 ; 6.814774092396733E9 ; 0.0
43 ; 1534661.8890410208 ; 2.0105843630283645E8 ; 5.001214973404154E7 ; 7.015820569762743E9 ; 0.0
44 ; 1544154.219293937 ; 2.0107055884385353E8 ; 5.154681162308256E7 ; 7.216879006065579E9 ; 0.0
45 ; 1551030.023390656 ; 2.0108283648712304E8 ; 5.30909658423765E7 ; 7.417949564909433E9 ; 0.0
46 ; 1554633.61551035 ; 2.0109526113588035E8 ; 5.464199586576716E7 ; 7.619032401396557E9 ; 0.0
47 ; 1561764.7174294256 ; 2.0110782508297288E8 ; 5.619662948127751E7 ; 7.820127662532437E9 ; 0.0
48 ; 1566822.963409442 ; 2.011205209948956E8 ; 5.775839419870694E7 ; 8.02123548761541E9 ; 0.0
49 ; 1569575.3202435656 ; 2.011333418956466E8 ; 5.932521716211638E7 ; 8.222356008610306E9 ; 0.0
50 ; 1573585.4197784152 ; 2.0114628115058696E8 ; 6.0894792482359946E7 ; 8.423489350505953E9 ; 0.0
51 ; 1580195.424145174 ; 2.0115933245045426E8 ; 6.246837790213836E7 ; 8.62463563165654E9 ; 0.0
52 ; 1583241.7591084514 ; 2.0117248979565E8 ; 6.404857332628354E7 ; 8.825794964106995E9 ; 0.0
53 ; 1587461.055787547 ; 2.0118574748089486E8 ; 6.563181508539199E7 ; 9.026967453902645E9 ; 0.0
54 ; 1592267.9375626408 ; 2.0119910008032468E8 ; 6.721927614117953E7 ; 9.22815320138354E9 ; 0.0
55 ; 1596838.4866684927 ; 2.012125424330802E8 ; 6.881154407874218E7 ; 9.429352301463863E9 ; 0.0
56 ; 1600892.3663274136 ; 2.0122606962943006E8 ; 7.040838256541067E7 ; 9.630564843896944E9 ; 0.0
57 ; 1604698.9038834746 ; 2.012396769974512E8 ; 7.20092749317381E7 ; 9.831790913526375E9 ; 0.0
58 ; 1610066.6281318616 ; 2.012533600902825E8 ; 7.361397383562157E7 ; 1.0033030590523827E10 ; 0.0
59 ; 1614761.333822905 ; 2.0126711467395708E8 ; 7.522404046375343E7 ; 1.0234283950614109E10 ; 0.0
60 ; 1616309.3667247612 ; 2.01280936715812E8 ; 7.683880179757634E7 ; 1.0435551065288067E10 ; 0.0
61 ; 1621118.3608910562 ; 2.0129482237346947E8 ; 7.84551111643011E7 ; 1.063683200200388E10 ; 0.0
62 ; 1623089.5116222962 ; 2.013087679843778E8 ; 8.007622952519216E7 ; 1.083812682437735E10 ; 0.0
63 ; 1628296.266639753 ; 2.0132277005589777E8 ; 8.169931903681445E7 ; 1.1039435592361727E10 ; 0.0
64 ; 1631356.9749053756 ; 2.013368252559176E8 ; 8.33276153034542E7 ; 1.1240758362417625E10 ; 0.0
65 ; 1635285.7120224219 ; 2.013509304039773E8 ; 8.495897227835958E7 ; 1.1442095187673544E10 ; 0.0
66 ; 1639628.0930602688 ; 2.0136508246288255E8 ; 8.6594257990382E7 ; 1.164344611807752E10 ; 0.0
67 ; 1641725.223058289 ; 2.01379278530787E8 ; 8.823388608344227E7 ; 1.1844811200540403E10 ; 0.0
68 ; 1643539.1566524832 ; 2.013935158337214E8 ; 8.987561130650055E7 ; 1.204619047907119E10 ; 0.0
69 ; 1649957.9194844016 ; 2.0140779171854892E8 ; 9.151915046315303E7 ; 1.2247583994904911E10 ; 0.0
70 ; 1651316.1378277482 ; 2.0142210364632416E8 ; 9.316910838263744E7 ; 1.244899178662346E10 ; 0.0
71 ; 1655800.5171731045 ; 2.014364491860362E8 ; 9.48204245204652E7 ; 1.2650413890269785E10 ; 0.0
72 ; 1659057.818663753 ; 2.014508260087142E8 ; 9.64762250376383E7 ; 1.2851850339455822E10 ; 0.0
73 ; 1661599.81667348 ; 2.014652318818764E8 ; 9.813528285630205E7 ; 1.3053301165464537E10 ; 0.0
74 ; 1663442.6868405791 ; 2.0147966466430315E8 ; 9.979688267297554E7 ; 1.3254766397346413E10 ; 0.0
75 ; 1666280.0045736972 ; 2.014941223011154E8 ; 1.0146032535981612E8 ; 1.3456246062010715E10 ; 0.0
76 ; 1670467.2782902415 ; 2.0150860281914157E8 ; 1.0312660536438982E8 ; 1.365774018431183E10 ; 0.0
77 ; 1672917.0019975705 ; 2.015231043225554E8 ; 1.0479707264268006E8 ; 1.3859248787130972E10 ; 0.0
78 ; 1674791.2758458958 ; 2.0153762498876935E8 ; 1.0646998964467764E8 ; 1.4060771891453527E10 ; 0.0
79 ; 1672574.9700248467 ; 2.015521630645679E8 ; 1.0814478092052354E8 ; 1.4262309516442297E10 ; 0.0
80 ; 1675017.7967548377 ; 2.0156671686246693E8 ; 1.098173558905484E8 ; 1.4463861679506865E10 ; 0.0
81 ; 1675317.1854137494 ; 2.0158128475728503E8 ; 1.1149237368730323E8 ; 1.4665428396369331E10 ; 0.0
82 ; 1676197.1471307678 ; 2.0159586518291438E8 ; 1.1316769087271698E8 ; 1.4867009681126616E10 ; 0.0
83 ; 1676414.1533011468 ; 2.016104566292788E8 ; 1.1484388801984775E8 ; 1.506860554630953E10 ; 0.0
84 ; 1677223.3351969616 ; 2.0162505763946787E8 ; 1.165203021731489E8 ; 1.5270216002938808E10 ; 0.0
85 ; 1679372.476735711 ; 2.016396668070358E8 ; 1.1819752550834586E8 ; 1.5471841060578276E10 ; 0.0
86 ; 1679006.424815311 ; 2.0165428277345613E8 ; 1.1987689798508157E8 ; 1.5673480727385311E10 ; 0.0
87 ; 1680357.9100983553 ; 2.0166890422572127E8 ; 1.2155590440989688E8 ; 1.5875135010158768E10 ; 0.0
88 ; 1679267.0396578615 ; 2.016835298940794E8 ; 1.2323626231999524E8 ; 1.607680391438449E10 ; 0.0
89 ; 1677507.537493481 ; 2.0169815854989934E8 ; 1.249155293596531E8 ; 1.6278487444278568E10 ; 0.0
90 ; 1677405.367713661 ; 2.0171278900365648E8 ; 1.2659303689714658E8 ; 1.6480185602828468E10 ; 0.0
91 ; 1678651.368979726 ; 2.017274201030313E8 ; 1.2827044226486024E8 ; 1.6681898391832125E10 ; 0.0
92 ; 1678049.4851794096 ; 2.0174205073111498E8 ; 1.2994909363383996E8 ; 1.6883625811935156E10 ; 0.0
93 ; 1680630.6303848661 ; 2.0175667980471432E8 ; 1.3162714311901937E8 ; 1.7085367862666271E10 ; 0.0
94 ; 1678821.266885032 ; 2.01771306272751E8 ; 1.3330777374940424E8 ; 1.7287124542470985E10 ; 0.0
95 ; 1678017.4132259185 ; 2.0178592911474875E8 ; 1.3498659501628926E8 ; 1.7488895848743736E10 ; 0.0
96 ; 1674299.190697645 ; 2.0180054733940357E8 ; 1.3666461242951518E8 ; 1.7690681777858486E10 ; 0.0
97 ; 1678510.6862385692 ; 2.01815159983232E8 ; 1.3833891162021282E8 ; 1.789248232519789E10 ; 0.0
98 ; 1677182.520401438 ; 2.0182976610929245E8 ; 1.4001742230645138E8 ; 1.809429748518112E10 ; 0.0
99 ; 1675470.556711813 ; 2.0184436480597582E8 ; 1.4169460482685283E8 ; 1.8296127251290413E10 ; 0.0
100 ; 1676439.6900505943 ; 2.0185895518586066E8 ; 1.4337007538356465E8 ; 1.849797161609639E10 ; 0.0
101 ; 1677499.4471470912 ; 2.0187353638462955E8 ; 1.4504651507361525E8 ; 1.869983057128225E10 ; 0.0
102 ; 1676200.8143132238 ; 2.0188810756004292E8 ; 1.4672401452076235E8 ; 1.8901704107666878E10 ; 0.0
103 ; 1674209.4202804554 ; 2.0190266789096695E8 ; 1.484002153350756E8 ; 1.910359221522692E10 ; 0.0
104 ; 1674932.8309499337 ; 2.0191721657645246E8 ; 1.5007442475535604E8 ; 1.930549488311789E10 ; 0.0
105 ; 1674168.7508976082 ; 2.0193175283486173E8 ; 1.5174935758630598E8 ; 1.9507412099694344E10 ; 0.0
106 ; 1671350.1056250613 ; 2.0194627590304056E8 ; 1.534235263372036E8 ; 1.9709343852529205E10 ; 0.0
107 ; 1672631.2368878915 ; 2.0196078503553316E8 ; 1.5509487644282866E8 ; 1.9911290128432247E10 ; 0.0
108 ; 1670760.3698459095 ; 2.0197527950383696E8 ; 1.5676750767971656E8 ; 2.011325091346778E10 ; 0.0
109 ; 1670032.2718396955 ; 2.0198975859569559E8 ; 1.5843826804956245E8 ; 2.031522619297162E10 ; 0.0
110 ; 1668914.9300100247 ; 2.020042216144274E8 ; 1.6010830032140216E8 ; 2.0517215951567314E10 ; 0.0
111 ; 1666981.0171667857 ; 2.0201866787828806E8 ; 1.6177721525141218E8 ; 2.071922017318174E10 ; 0.0
112 ; 1667291.537831624 ; 2.0203309671986482E8 ; 1.6344419626857898E8 ; 2.0921238841060028E10 ; 0.0
113 ; 1668619.4205741684 ; 2.020475074855009E8 ; 1.651114878064106E8 ; 2.1123271937779892E10 ; 0.0
114 ; 1665038.684954077 ; 2.020618995347484E8 ; 1.6678010722698477E8 ; 2.1325319445265392E10 ; 0.0
115 ; 1666076.7963018354 ; 2.0207627223984808E8 ; 1.6844514591193885E8 ; 2.152738134480014E10 ; 0.0
116 ; 1663354.883078233 ; 2.0209062498523453E8 ; 1.701112227082407E8 ; 2.172945761703999E10 ; 0.0
117 ; 1663102.479674589 ; 2.0210495716706535E8 ; 1.7177457759131894E8 ; 2.1931548242025223E10 ; 0.0
118 ; 1660755.5219956718 ; 2.021192681927731E8 ; 1.734376800709935E8 ; 2.2133653199192287E10 ; 0.0
119 ; 1659214.1951123746 ; 2.0213355748063877E8 ; 1.7509843559298918E8 ; 2.233577246738506E10 ; 0.0
120 ; 1657414.0389656916 ; 2.021478244593855E8 ; 1.7675764978810155E8 ; 2.25379060248657E10 ; 0.0
121 ; 1657925.6514708977 ; 2.0216206856779176E8 ; 1.7841506382706726E8 ; 2.2740053849325085E10 ; 0.0
122 ; 1655815.8681899258 ; 2.021762892543226E8 ; 1.8007298947853816E8 ; 2.2942215917892876E10 ; 0.0
123 ; 1653918.7065098016 ; 2.021904859767782E8 ; 1.817288053467281E8 ; 2.3144392207147198E10 ; 0.0
124 ; 1652072.1463155495 ; 2.022046582019591E8 ; 1.833827240532379E8 ; 2.3346582693123978E10 ; 0.0
125 ; 1652284.4721002188 ; 2.0221880540534648E8 ; 1.8503479619955343E8 ; 2.3548787351325935E10 ; 0.0
126 ; 1648842.9325725366 ; 2.022329270707976E8 ; 1.8668708067165366E8 ; 2.375100615673128E10 ; 0.0
127 ; 1645461.7125603561 ; 2.0224702269025502E8 ; 1.883359236042262E8 ; 2.395323908380208E10 ; 0.0
128 ; 1645796.5047372328 ; 2.0226109176346907E8 ; 1.8998138531678656E8 ; 2.4155486106492332E10 ; 0.0
129 ; 1643194.4303114116 ; 2.0227513379773295E8 ; 1.916271818215238E8 ; 2.4357747198255802E10 ; 0.0
130 ; 1639070.7670173752 ; 2.0228914830762988E8 ; 1.932703762518352E8 ; 2.4560022332053535E10 ; 0.0
131 ; 1634547.4660144427 ; 2.0230313481479132E8 ; 1.9490944701885256E8 ; 2.4762311480361164E10 ; 0.0
132 ; 1630570.5276960293 ; 2.023170928476663E8 ; 1.96543994484867E8 ; 2.4964614615175957E10 ; 0.0
133 ; 1627066.6674820047 ; 2.0233102194130075E8 ; 1.9817456501256305E8 ; 2.5166931708023624E10 ; 0.0
134 ; 1623677.247202365 ; 2.023449216371267E8 ; 1.9980163168004507E8 ; 2.5369262729964924E10 ; 0.0
135 ; 1617315.5325659006 ; 2.0235879148276082E8 ; 2.0142530892724743E8 ; 2.557160765160205E10 ; 0.0
136 ; 1613239.1661946822 ; 2.0237263103181133E8 ; 2.0304262445981333E8 ; 2.5773966443084812E10 ; 0.0
137 ; 1607313.9309676401 ; 2.0238643984369397E8 ; 2.04655863626008E8 ; 2.5976339074116623E10 ; 0.0
138 ; 1604062.1397996228 ; 2.0240021748345542E8 ; 2.0626317755697563E8 ; 2.6178725513960316E10 ; 0.0
139 ; 1598908.48924916 ; 2.0241396352160448E8 ; 2.0786723969677526E8 ; 2.638112573144377E10 ; 0.0
140 ; 1594156.6530877398 ; 2.024276775339505E8 ; 2.0946614818602443E8 ; 2.6583539694965374E10 ; 0.0
141 ; 1590375.317694378 ; 2.024413591014487E8 ; 2.1106030483911216E8 ; 2.6785967372499325E10 ; 0.0
142 ; 1586633.0026346457 ; 2.0245500781005204E8 ; 2.1265068015680653E8 ; 2.6988408731600773E10 ; 0.0
143 ; 1581302.45553167 ; 2.024686232505692E8 ; 2.1423731315944117E8 ; 2.7190863739410824E10 ; 0.0
144 ; 1574414.5937407876 ; 2.0248220501852885E8 ; 2.1581861561497283E8 ; 2.7393332362661392E10 ; 0.0
145 ; 1575708.232711563 ; 2.024957527140493E8 ; 2.1739303020871362E8 ; 2.759581456767992E10 ; 0.0
146 ; 1571175.8902602373 ; 2.025092659417137E8 ; 2.1896873844142517E8 ; 2.779831032039397E10 ; 0.0
147 ; 1571740.8082615314 ; 2.025227443104503E8 ; 2.2053991433168542E8 ; 2.8000819586335686E10 ; 0.0
148 ; 1566041.6112311087 ; 2.0253618743341786E8 ; 2.2211165513994697E8 ; 2.8203342330646137E10 ; 0.0
149 ; 1564707.7053136441 ; 2.0254959492789558E8 ; 2.236776967511781E8 ; 2.8405878518079556E10 ; 0.0
150 ; 1562072.5801316556 ; 2.025629664151776E8 ; 2.2524240445649174E8 ; 2.860842811300745E10 ; 0.0
151 ; 1560636.79295739 ; 2.0257630152047184E8 ; 2.268044770366234E8 ; 2.8810991079422626E10 ; 0.0
152 ; 1558682.8252670506 ; 2.0258959987280276E8 ; 2.2836511382958078E8 ; 2.90135673809431E10 ; 0.0
153 ; 1557421.3477241981 ; 2.0260286110491827E8 ; 2.2992379665484783E8 ; 2.9216156980815903E10 ; 0.0
154 ; 1555239.3624114234 ; 2.0261608485320032E8 ; 2.3148121800257203E8 ; 2.9418759841920822E10 ; 0.0
155 ; 1552840.0888402343 ; 2.0262927075757894E8 ; 2.3303645736498344E8 ; 2.962137592677402E10 ; 0.0
156 ; 1551523.2149722208 ; 2.0264241846144986E8 ; 2.345892974538237E8 ; 2.98240051975316E10 ; 0.0
157 ; 1550699.9074455139 ; 2.026555276115954E8 ; 2.361408206687959E8 ; 3.002664761599305E10 ; 0.0
158 ; 1546570.9572575982 ; 2.026685978581083E8 ; 2.3769152057624143E8 ; 3.0229303143604645E10 ; 0.0
159 ; 1545002.150850242 ; 2.0268162885431892E8 ; 2.3923809153349903E8 ; 3.0431971741462753E10 ; 0.0
160 ; 1543082.6664878437 ; 2.0269462025672486E8 ; 2.4078309368434927E8 ; 3.0634653370317074E10 ; 0.0
161 ; 1538051.0783377439 ; 2.0270757172492367E8 ; 2.423261763508371E8 ; 3.08373479905738E10 ; 0.0
162 ; 1538206.782070394 ; 2.0272048292154804E8 ; 2.4386422742917484E8 ; 3.104005556229872E10 ; 0.0
163 ; 1535005.096713025 ; 2.0273335351220363E8 ; 2.4540243421124524E8 ; 3.124277604522027E10 ; 0.0
164 ; 1533236.4177009217 ; 2.027461831654091E8 ; 2.4693743930795828E8 ; 3.144550939873247E10 ; 0.0
165 ; 1532338.8682330723 ; 2.027589715525386E8 ; 2.484706757256592E8 ; 3.164825558189788E10 ; 0.0
166 ; 1530695.055597917 ; 2.0277171834776664E8 ; 2.5000301459389228E8 ; 3.185101455345042E10 ; 0.0
167 ; 1526352.5409285277 ; 2.0278442322801462E8 ; 2.515337096494902E8 ; 3.2053786271798187E10 ; 0.0
168 ; 1522964.2567564752 ; 2.027970858728999E8 ; 2.5306006219041872E8 ; 3.2256570695026203E10 ; 0.0
169 ; 1522856.7343925403 ; 2.028097059646865E8 ; 2.545830264471752E8 ; 3.24593677808991E10 ; 0.0
170 ; 1521285.9605929772 ; 2.0282228318823785E8 ; 2.5610588318156776E8 ; 3.266217748686379E10 ; 0.0
171 ; 1516401.400676325 ; 2.0283481723097113E8 ; 2.5762716914216074E8 ; 3.2864999770052025E10 ; 0.0
172 ; 1515215.4698583935 ; 2.0284730778281367E8 ; 2.5914357054283708E8 ; 3.3067834587282997E10 ; 0.0
173 ; 1514123.4767908913 ; 2.0285975453616068E8 ; 2.606587860126955E8 ; 3.327068189506581E10 ; 0.0
174 ; 1512648.7367321767 ; 2.0287215718583465E8 ; 2.621729094894864E8 ; 3.347354164960197E10 ; 0.0
175 ; 1509655.640940647 ; 2.028845154290465E8 ; 2.6368555822621858E8 ; 3.3676413806787804E10 ; 0.0
176 ; 1506193.4701356331 ; 2.0289682896535787E8 ; 2.6519521386715922E8 ; 3.387929832221685E10 ; 0.0
177 ; 1507447.9224071165 ; 2.0290909749664497E8 ; 2.6670140733729485E8 ; 3.408219515118221E10 ; 0.0
178 ; 1507349.594522965 ; 2.029213207270639E8 ; 2.6820885525970197E8 ; 3.4285104248678856E10 ; 0.0
179 ; 1504902.6971801347 ; 2.02933498363017E8 ; 2.697162048542249E8 ; 3.448802556940592E10 ; 0.0
180 ; 1504396.7474374624 ; 2.029456301131207E8 ; 2.712211075514051E8 ; 3.4690959067768936E10 ; 0.0
181 ; 1503085.1549809887 ; 2.0295771568817443E8 ; 2.7272550429884255E8 ; 3.489390469788206E10 ; 0.0
182 ; 1498772.2007758925 ; 2.029697548011307E8 ; 2.7422858945382357E8 ; 3.509686241357023E10 ; 0.0
183 ; 1499391.550734093 ; 2.0298174716706637E8 ; 2.757273616545995E8 ; 3.529983216837136E10 ; 0.0
184 ; 1496330.3408681247 ; 2.0299369250315487E8 ; 2.772267532053336E8 ; 3.550281391553843E10 ; 0.0
185 ; 1497101.019689874 ; 2.030055905286395E8 ; 2.787230835462017E8 ; 3.570580760804159E10 ; 0.0
186 ; 1495526.3640289193 ; 2.030174409648078E8 ; 2.8022018456589156E8 ; 3.590881319857023E10 ; 0.0
187 ; 1490951.940833795 ; 2.030292435349667E8 ; 2.817157109299205E8 ; 3.6111830639535034E10 ; 0.0
188 ; 1491868.0552728414 ; 2.0304099796441868E8 ; 2.832066628707543E8 ; 3.631485988307E10 ; 0.0
189 ; 1488985.5833260226 ; 2.0305270398043892E8 ; 2.846985309260271E8 ; 3.651790088103442E10 ; 0.0
190 ; 1488684.2023133314 ; 2.03064361312253E8 ; 2.8618751650935316E8 ; 3.6720953585014854E10 ; 0.0
191 ; 1487565.4334687865 ; 2.0307596969101572E8 ; 2.8767620071166646E8 ; 3.692401794632711E10 ; 0.0
192 ; 1487100.083380518 ; 2.0308752884979057E8 ; 2.891637661451352E8 ; 3.712709391601813E10 ; 0.0
193 ; 1482919.0596327768 ; 2.0309903852352992E8 ; 2.9065086622851574E8 ; 3.733018144486792E10 ; 0.0
194 ; 1483930.414703448 ; 2.0311049844905606E8 ; 2.921337852881485E8 ; 3.753328048339145E10 ; 0.0
195 ; 1479787.8674671222 ; 2.0312190836504275E8 ; 2.9361771570285195E8 ; 3.773639098184051E10 ; 0.0
196 ; 1478223.0305724086 ; 2.031332680119977E8 ; 2.9509750357031906E8 ; 3.793951289020555E10 ; 0.0
197 ; 1480450.7558818515 ; 2.0314457713224542E8 ; 2.965757266008915E8 ; 3.814264615821755E10 ; 0.0
198 ; 1476658.926904218 ; 2.0315583546991098E8 ; 2.980561773567733E8 ; 3.83457907353498E10 ; 0.0
199 ; 1475031.387123388 ; 2.0316704277090412E8 ; 2.995328362836775E8 ; 3.854894657081971E10 ; 0.0
200 ; 1474932.8450825498 ; 2.0317819878290418E8 ; 3.010078676708009E8 ; 3.8752113613590614E10 ; 0.0
