CSV File for the City 6 on Day 329
1 - Minute m 
2 - Power Consumed at minute m 
3 - Power Produced at minute m 
4 - Energy Consumed since the beginning of the day 
5 - Energy Produced since the beginning of the day 
6 - Energy Lost since the beginning of the day on lines starting from the city
 
0 ; 1.123214694151536E7 ; 1.0659043909568903E8 ; 0.0 ; 0.0 ; 0.0
1 ; 1.1245665781246226E7 ; 1.067412083470307E8 ; 1.123214694151536E7 ; 1.0659043909568903E8 ; 0.0
2 ; 1.125800088429235E7 ; 1.0720098519402E8 ; 2.2477812722761586E7 ; 2.1333164744271973E8 ; 0.0
3 ; 1.1270871240249865E7 ; 1.0796977234191811E8 ; 3.3735813607053936E7 ; 3.2053263263673973E8 ; 0.0
4 ; 1.1287979980197728E7 ; 1.0904757220306319E8 ; 4.50066848473038E7 ; 4.2850240497865784E8 ; 0.0
5 ; 1.1308172581314E7 ; 1.1043438688764042E8 ; 5.629466482750153E7 ; 5.37549977181721E8 ; 0.0
6 ; 1.1339606045932809E7 ; 1.1213021819550279E8 ; 6.760283740881553E7 ; 6.479843640693614E8 ; 0.0
7 ; 1.1371584503448253E7 ; 1.1413506760911769E8 ; 7.894244345474835E7 ; 7.601145822648642E8 ; 0.0
8 ; 1.1423453576342138E7 ; 1.164489362877034E8 ; 9.03140279581966E7 ; 8.74249649873982E8 ; 0.0
9 ; 1.1508146450385498E7 ; 1.1907182506261027E8 ; 1.0173748153453873E8 ; 9.906985861616853E8 ; 0.0
10 ; 1.1632253379545394E7 ; 1.2200373443398976E8 ; 1.1324562798492423E8 ; 1.1097704112242956E9 ; 0.0
11 ; 1.1827865723271899E7 ; 1.2524466456878313E8 ; 1.2487788136446962E8 ; 1.2317741456582854E9 ; 0.0
12 ; 1.2150022897632921E7 ; 1.287946153000491E8 ; 1.3670574708774152E8 ; 1.3570188102270684E9 ; 0.0
13 ; 1.2452873047772834E7 ; 1.326535861276362E8 ; 1.4885576998537445E8 ; 1.4858134255271175E9 ; 0.0
14 ; 1.2487519687923148E7 ; 1.3682157622019416E8 ; 1.6130864303314728E8 ; 1.6184670116547537E9 ; 0.0
15 ; 1.2505037376291694E7 ; 1.412985844185046E8 ; 1.737961627210704E8 ; 1.7552885878749478E9 ; 0.0
16 ; 1.2515643677122876E7 ; 1.4608460924010023E8 ; 1.863012000973621E8 ; 1.8965871722934523E9 ; 0.0
17 ; 1.2531498968562711E7 ; 1.51179648885128E8 ; 1.98816843774485E8 ; 2.0426717815335524E9 ; 0.0
18 ; 1.2547504780089563E7 ; 1.5658370124340272E8 ; 2.113483427430477E8 ; 2.19385143041868E9 ; 0.0
19 ; 1.2563093233745543E7 ; 1.6229676390258625E8 ; 2.2389584752313727E8 ; 2.3504351316620827E9 ; 0.0
20 ; 1.2580721226048082E7 ; 1.683188341574174E8 ; 2.3645894075688282E8 ; 2.512731895564669E9 ; 0.0
21 ; 1.2594214649209036E7 ; 1.746499090199118E8 ; 2.490396619829309E8 ; 2.6810507297220864E9 ; 0.0
22 ; 1.2609138898003515E7 ; 1.8128998523044258E8 ; 2.6163387663213992E8 ; 2.855700638741998E9 ; 0.0
23 ; 1.2625625267742181E7 ; 1.8823905926960784E8 ; 2.7424301553014344E8 ; 3.0369906239724407E9 ; 0.0
24 ; 1.2638962621780474E7 ; 1.9549712737078702E8 ; 2.868686407978856E8 ; 3.2252296832420487E9 ; 0.0
25 ; 1.265276453919763E7 ; 2.017522264314694E8 ; 2.9950760341966605E8 ; 3.420726810612836E9 ; 0.0
26 ; 1.2668551210716285E7 ; 2.0175790006378126E8 ; 3.121603679588637E8 ; 3.6224790370443053E9 ; 0.0
27 ; 1.2682022976258446E7 ; 2.0176391313340545E8 ; 3.2482891916958E8 ; 3.8242369371080866E9 ; 0.0
28 ; 1.2703569896370541E7 ; 2.017702610206547E8 ; 3.3751094214583844E8 ; 4.0260008502414923E9 ; 0.0
29 ; 1.2713416929139154E7 ; 2.0177693892820424E8 ; 3.5021451204220897E8 ; 4.227771111262147E9 ; 0.0
30 ; 1.2720862222360676E7 ; 2.0178394189567122E8 ; 3.629279289713481E8 ; 4.4295480501903515E9 ; 0.0
31 ; 1.274140274353876E7 ; 2.0179126481419608E8 ; 3.756487911937088E8 ; 4.631331992086022E9 ; 0.0
32 ; 1.275421891974857E7 ; 2.0179890244094092E8 ; 3.883901939372475E8 ; 4.833123256900218E9 ; 0.0
33 ; 1.2766485371040042E7 ; 2.0180684941342556E8 ; 4.0114441285699606E8 ; 5.034922159341159E9 ; 0.0
34 ; 1.277628348499101E7 ; 2.018151002636285E8 ; 4.139108982280361E8 ; 5.236729008754584E9 ; 0.0
35 ; 1.279282348788087E7 ; 2.0182364943178636E8 ; 4.266871817130271E8 ; 5.438544109018213E9 ; 0.0
36 ; 1.2807243990870392E7 ; 2.018324912798327E8 ; 4.39480005200908E8 ; 5.64036775845E9 ; 0.0
37 ; 1.2816549968472602E7 ; 2.0184162010442376E8 ; 4.522872491917784E8 ; 5.842200249729833E9 ; 0.0
38 ; 1.2827152265081506E7 ; 2.018510301495058E8 ; 4.65103799160251E8 ; 6.044041869834256E9 ; 0.0
39 ; 1.2835930200518118E7 ; 2.0186071561838537E8 ; 4.7793095142533255E8 ; 6.245892899983762E9 ; 0.0
40 ; 1.2848147709238239E7 ; 2.0187067068527174E8 ; 4.907668816258507E8 ; 6.447753615602147E9 ; 0.0
41 ; 1.2858672996720668E7 ; 2.01880889506265E8 ; 5.036150293350889E8 ; 6.649624286287418E9 ; 0.0
42 ; 1.2868766301698199E7 ; 2.0189136622977227E8 ; 5.164737023318096E8 ; 6.851505175793683E9 ; 0.0
43 ; 1.2875582459755441E7 ; 2.0190209500633773E8 ; 5.293424686335078E8 ; 7.053396542023456E9 ; 0.0
44 ; 1.2881978376477523E7 ; 2.019130699978792E8 ; 5.422180510932633E8 ; 7.255298637029794E9 ; 0.0
45 ; 1.289064401322666E7 ; 2.0192428538632843E8 ; 5.551000294697407E8 ; 7.457211707027673E9 ; 0.0
46 ; 1.2901053605076326E7 ; 2.0193573538167658E8 ; 5.679906734829674E8 ; 7.659135992414001E9 ; 0.0
47 ; 1.2905782298073996E7 ; 2.0194741422943085E8 ; 5.808917270880437E8 ; 7.861071727795678E9 ; 0.0
48 ; 1.2912621774163142E7 ; 2.0195931621749115E8 ; 5.937975093861177E8 ; 8.063019142025109E9 ; 0.0
49 ; 1.2919481820349708E7 ; 2.0197143568245977E8 ; 6.067101311602808E8 ; 8.2649784582426E9 ; 0.0
50 ; 1.2926813863225374E7 ; 2.0198376701539886E8 ; 6.196296129806305E8 ; 8.46694989392506E9 ; 0.0
51 ; 1.29251655386257E7 ; 2.0199630466705298E8 ; 6.325564268438559E8 ; 8.668933660940458E9 ; 0.0
52 ; 1.2936783681997392E7 ; 2.0200904315255654E8 ; 6.454815923824816E8 ; 8.870929965607512E9 ; 0.0
53 ; 1.293530937394128E7 ; 2.020219770556463E8 ; 6.58418376064479E8 ; 9.072939008760069E9 ; 0.0
54 ; 1.294248034942284E7 ; 2.0203510103240147E8 ; 6.713536854384203E8 ; 9.274960985815716E9 ; 0.0
55 ; 1.2945998086595114E7 ; 2.020484098145336E8 ; 6.842961657878431E8 ; 9.476996086848118E9 ; 0.0
56 ; 1.2952376979555475E7 ; 2.020618982122504E8 ; 6.972421638744382E8 ; 9.679044496662651E9 ; 0.0
57 ; 1.2952693915348204E7 ; 2.0207556111671656E8 ; 7.101945408539937E8 ; 9.8811063948749E9 ; 0.0
58 ; 1.2959000055696424E7 ; 2.020893935021354E8 ; 7.231472347693418E8 ; 1.0083181955991617E10 ; 0.0
59 ; 1.2963044914412955E7 ; 2.0210339042747563E8 ; 7.361062348250382E8 ; 1.0285271349493753E10 ; 0.0
60 ; 1.2966053442471266E7 ; 2.0211754703786567E8 ; 7.490692797394512E8 ; 1.0487374739921228E10 ; 0.0
61 ; 1.296796083094422E7 ; 2.021318585656792E8 ; 7.620353331819224E8 ; 1.0689492286959095E10 ; 0.0
62 ; 1.2973309595390035E7 ; 2.021463203313339E8 ; 7.750032940128666E8 ; 1.0891624145524775E10 ; 0.0
63 ; 1.2976797220354116E7 ; 2.0216092774382517E8 ; 7.879766036082567E8 ; 1.1093770465856108E10 ; 0.0
64 ; 1.2979954102106908E7 ; 2.021756763010159E8 ; 8.009534008286108E8 ; 1.1295931393599934E10 ; 0.0
65 ; 1.2980578485640032E7 ; 2.0219056158970213E8 ; 8.139333549307177E8 ; 1.149810706990095E10 ; 0.0
66 ; 1.298284360499035E7 ; 2.0220557928547415E8 ; 8.269139334163578E8 ; 1.1700297631490652E10 ; 0.0
67 ; 1.2988266180226006E7 ; 2.0222072515239114E8 ; 8.398967770213481E8 ; 1.1902503210776127E10 ; 0.0
68 ; 1.2989907886276824E7 ; 2.0223599504248694E8 ; 8.528850432015741E8 ; 1.2104723935928518E10 ; 0.0
69 ; 1.299861468342224E7 ; 2.0225138489512345E8 ; 8.658749510878509E8 ; 1.2306959930971004E10 ; 0.0
70 ; 1.299124986595836E7 ; 2.0226689073620695E8 ; 8.788735657712731E8 ; 1.2509211315866127E10 ; 0.0
71 ; 1.2995858571381565E7 ; 2.0228250867728227E8 ; 8.918648156372315E8 ; 1.2711478206602333E10 ; 0.0
72 ; 1.3003767476961462E7 ; 2.022982349145184E8 ; 9.04860674208613E8 ; 1.2913760715279615E10 ; 0.0
73 ; 1.300219565913488E7 ; 2.0231406572759813E8 ; 9.178644416855745E8 ; 1.3116058950194134E10 ; 0.0
74 ; 1.3003229674382793E7 ; 2.0232999747852418E8 ; 9.308666373447094E8 ; 1.3318373015921732E10 ; 0.0
75 ; 1.3008461765888514E7 ; 2.0234602661035222E8 ; 9.438698670190922E8 ; 1.3520703013400255E10 ; 0.0
76 ; 1.3011204113837183E7 ; 2.0236214964586157E8 ; 9.568783287849808E8 ; 1.3723049040010607E10 ; 0.0
77 ; 1.301222990438478E7 ; 2.0237836318617293E8 ; 9.69889532898818E8 ; 1.3925411189656467E10 ; 0.0
78 ; 1.3008389686910512E7 ; 2.0239466390932176E8 ; 9.829017628032027E8 ; 1.412778955284264E10 ; 0.0
79 ; 1.3005936746453403E7 ; 2.0241104856879544E8 ; 9.959101524901133E8 ; 1.433018421675196E10 ; 0.0
80 ; 1.3006679939788392E7 ; 2.0242751399204183E8 ; 1.0089160892365667E9 ; 1.4532595265320757E10 ; 0.0
81 ; 1.3002078884683786E7 ; 2.0244405707895535E8 ; 1.021922769176355E9 ; 1.47350227793128E10 ; 0.0
82 ; 1.2999131930831257E7 ; 2.0246067480034745E8 ; 1.0349248480610387E9 ; 1.4937466836391754E10 ; 0.0
83 ; 1.2997690900123931E7 ; 2.024773641964065E8 ; 1.04792397999187E9 ; 1.5139927511192102E10 ; 0.0
84 ; 1.2995339026888497E7 ; 2.0249412237515247E8 ; 1.060921670891994E9 ; 1.534240487538851E10 ; 0.0
85 ; 1.2991894013663625E7 ; 2.025109465108907E8 ; 1.0739170099188826E9 ; 1.5544898997763662E10 ; 0.0
86 ; 1.2990363547713108E7 ; 2.0252783384266916E8 ; 1.0869089039325461E9 ; 1.5747409944274553E10 ; 0.0
87 ; 1.298696110054435E7 ; 2.0254478167274275E8 ; 1.0998992674802592E9 ; 1.5949937778117222E10 ; 0.0
88 ; 1.298831567636031E7 ; 2.0256178736504772E8 ; 1.1128862285808036E9 ; 1.6152482559789965E10 ; 0.0
89 ; 1.2982783704696417E7 ; 2.0257884834368944E8 ; 1.125874544257164E9 ; 1.6355044347155012E10 ; 0.0
90 ; 1.2978389110332984E7 ; 2.0259596209144604E8 ; 1.1388573279618604E9 ; 1.6557623195498701E10 ; 0.0
91 ; 1.2972587002176447E7 ; 2.0261312614828986E8 ; 1.1518357170721934E9 ; 1.6760219157590147E10 ; 0.0
92 ; 1.2970020938409425E7 ; 2.0263033810992932E8 ; 1.16480830407437E9 ; 1.6962832283738438E10 ; 0.0
93 ; 1.2967439939521486E7 ; 2.0264759562637207E8 ; 1.1777783250127792E9 ; 1.7165462621848368E10 ; 0.0
94 ; 1.2963164046104707E7 ; 2.026648964005119E8 ; 1.1907457649523008E9 ; 1.736811021747474E10 ; 0.0
95 ; 1.2959989536907693E7 ; 2.0268223818673962E8 ; 1.2037089289984055E9 ; 1.757077511387525E10 ; 0.0
96 ; 1.2956754567903323E7 ; 2.026996187895799E8 ; 1.2166689185353131E9 ; 1.7773457352061993E10 ; 0.0
97 ; 1.2953288561445434E7 ; 2.0271703606235412E8 ; 1.2296256731032164E9 ; 1.7976156970851574E10 ; 0.0
98 ; 1.2948199788585119E7 ; 2.0273448790587074E8 ; 1.242578961664662E9 ; 1.817887400691393E10 ; 0.0
99 ; 1.2942354331429467E7 ; 2.027519722671428E8 ; 1.255527161453247E9 ; 1.83816084948198E10 ; 0.0
100 ; 1.293761579591587E7 ; 2.0276948713813412E8 ; 1.2684695157846766E9 ; 1.8584360467086945E10 ; 0.0
101 ; 1.2935093431564972E7 ; 2.0278703055453306E8 ; 1.2814071315805924E9 ; 1.878712995422508E10 ; 0.0
102 ; 1.2930561774985276E7 ; 2.0280460059455556E8 ; 1.2943422250121574E9 ; 1.8989916984779613E10 ; 0.0
103 ; 1.2928238139054947E7 ; 2.028221953777762E8 ; 1.3072727867871428E9 ; 1.919272158537417E10 ; 0.0
104 ; 1.2921707378623895E7 ; 2.028398130639883E8 ; 1.3202010249261978E9 ; 1.9395543780751945E10 ; 0.0
105 ; 1.2914176668882322E7 ; 2.0285745185209197E8 ; 1.3331227323048217E9 ; 1.9598383593815933E10 ; 0.0
106 ; 1.2907290174854428E7 ; 2.028751099790111E8 ; 1.346036908973704E9 ; 1.9801241045668026E10 ; 0.0
107 ; 1.2903193139306383E7 ; 2.0289278571863797E8 ; 1.3589441991485586E9 ; 2.0004116155647038E10 ; 0.0
108 ; 1.290018993475316E7 ; 2.02910477380806E8 ; 1.371847392287865E9 ; 2.0207008941365677E10 ; 0.0
109 ; 1.2893193864446519E7 ; 2.0292818331028983E8 ; 1.384747582222618E9 ; 2.0409919418746483E10 ; 0.0
110 ; 1.288638596796453E7 ; 2.0294590188583255E8 ; 1.3976407760870645E9 ; 2.0612847602056774E10 ; 0.0
111 ; 1.2882596071785683E7 ; 2.0296363151919967E8 ; 1.410527162055029E9 ; 2.0815793503942608E10 ; 0.0
112 ; 1.2876031902523007E7 ; 2.0298137065425953E8 ; 1.4234097581268146E9 ; 2.1018757135461807E10 ; 0.0
113 ; 1.2871224985654881E7 ; 2.0299911776608938E8 ; 1.4362857900293376E9 ; 2.1221738506116066E10 ; 0.0
114 ; 1.2864322139967283E7 ; 2.0301687136010677E8 ; 1.4491570150149925E9 ; 2.1424737623882156E10 ; 0.0
115 ; 1.2859431956973147E7 ; 2.03034629971226E8 ; 1.4620213371549597E9 ; 2.1627754495242264E10 ; 0.0
116 ; 1.2853398671754144E7 ; 2.030523921630388E8 ; 1.4748807691119328E9 ; 2.183078912521349E10 ; 0.0
117 ; 1.284726866650048E7 ; 2.0307015652701867E8 ; 1.4877341677836869E9 ; 2.203384151737653E10 ; 0.0
118 ; 1.2840738312081482E7 ; 2.0308792168174887E8 ; 1.5005814364501874E9 ; 2.223691167390355E10 ; 0.0
119 ; 1.2833051585165575E7 ; 2.0310568627217278E8 ; 1.513422174762269E9 ; 2.2439999595585297E10 ; 0.0
120 ; 1.2830346572354805E7 ; 2.0312344896886677E8 ; 1.5262552263474345E9 ; 2.2643105281857468E10 ; 0.0
121 ; 1.2820146720107194E7 ; 2.031412084673344E8 ; 1.5390855729197893E9 ; 2.2846228730826336E10 ; 0.0
122 ; 1.28115750836795E7 ; 2.03158963487322E8 ; 1.5519057196398964E9 ; 2.304936993929367E10 ; 0.0
123 ; 1.280681704960621E7 ; 2.031767127721548E8 ; 1.5647172947235758E9 ; 2.3252528902780994E10 ; 0.0
124 ; 1.280144344152691E7 ; 2.031944550880929E8 ; 1.5775241117731822E9 ; 2.345570561555315E10 ; 0.0
125 ; 1.2794572000216722E7 ; 2.0321218922370693E8 ; 1.590325555214709E9 ; 2.3658900070641243E10 ; 0.0
126 ; 1.2785016725920798E7 ; 2.0322991398927256E8 ; 1.6031201272149258E9 ; 2.386211225986495E10 ; 0.0
127 ; 1.2778610344969956E7 ; 2.0324762821618345E8 ; 1.6159051439408467E9 ; 2.406534217385422E10 ; 0.0
128 ; 1.277172343178654E7 ; 2.0326533075638238E8 ; 1.6286837542858167E9 ; 2.4268589802070404E10 ; 0.0
129 ; 1.2764434191640357E7 ; 2.032830204818093E8 ; 1.6414554777176032E9 ; 2.4471855132826786E10 ; 0.0
130 ; 1.2756915495661732E7 ; 2.0330069628386676E8 ; 1.6542199119092436E9 ; 2.4675138153308594E10 ; 0.0
131 ; 1.2740797027659992E7 ; 2.0331835707290167E8 ; 1.6669768274049053E9 ; 2.487843884959246E10 ; 0.0
132 ; 1.2731477855570013E7 ; 2.033360017777028E8 ; 1.6797176244325652E9 ; 2.5081757206665363E10 ; 0.0
133 ; 1.2718446714617074E7 ; 2.0335362934501407E8 ; 1.6924491022881353E9 ; 2.5285093208443066E10 ; 0.0
134 ; 1.2704699871704992E7 ; 2.033712387390625E8 ; 1.7051675490027523E9 ; 2.548844683778808E10 ; 0.0
135 ; 1.2697229850859834E7 ; 2.0338882894110107E8 ; 1.7178722488744574E9 ; 2.569181807652714E10 ; 0.0
136 ; 1.2684273476801373E7 ; 2.0340639894896567E8 ; 1.7305694787253172E9 ; 2.5895206905468243E10 ; 0.0
137 ; 1.2675526547808314E7 ; 2.0342394777664545E8 ; 1.7432537522021186E9 ; 2.609861330441721E10 ; 0.0
138 ; 1.2657858456225876E7 ; 2.0344147445386678E8 ; 1.755929278749927E9 ; 2.6302037252193855E10 ; 0.0
139 ; 1.2643773860274157E7 ; 2.0345897802569002E8 ; 1.768587137206153E9 ; 2.650547872664772E10 ; 0.0
140 ; 1.263517417501341E7 ; 2.0347645755211857E8 ; 1.781230911066427E9 ; 2.670893770467341E10 ; 0.0
141 ; 1.2620074551551733E7 ; 2.0349391210772035E8 ; 1.7938660852414403E9 ; 2.691241416222553E10 ; 0.0
142 ; 1.2607516127754238E7 ; 2.0351134078126064E8 ; 1.806486159792992E9 ; 2.711590807433325E10 ; 0.0
143 ; 1.2596841666861018E7 ; 2.035287426753466E8 ; 1.8190936759207463E9 ; 2.731941941511451E10 ; 0.0
144 ; 1.258416933545817E7 ; 2.035461169060825E8 ; 1.8316905175876074E9 ; 2.7522948157789856E10 ; 0.0
145 ; 1.2576208169047821E7 ; 2.0356346260273582E8 ; 1.8442746869230657E9 ; 2.772649427469594E10 ; 0.0
146 ; 1.2564406858303268E7 ; 2.035807789074135E8 ; 1.8568508950921135E9 ; 2.7930057737298676E10 ; 0.0
147 ; 1.2560136106555935E7 ; 2.035980649747484E8 ; 1.8694153019504168E9 ; 2.813363851620609E10 ; 0.0
148 ; 1.2548249139948295E7 ; 2.0361531997159505E8 ; 1.8819754380569727E9 ; 2.8337236581180836E10 ; 0.0
149 ; 1.2542001772974808E7 ; 2.036325430767352E8 ; 1.894523687196921E9 ; 2.854085190115243E10 ; 0.0
150 ; 1.2533311494222077E7 ; 2.0364973348059225E8 ; 1.9070656889698958E9 ; 2.8744484444229168E10 ; 0.0
151 ; 1.2522923332830744E7 ; 2.036668903849543E8 ; 1.919599000464118E9 ; 2.894813417770976E10 ; 0.0
152 ; 1.2514491641598633E7 ; 2.03684013002706E8 ; 1.9321219237969487E9 ; 2.915180106809471E10 ; 0.0
153 ; 1.250713614213008E7 ; 2.0370110055756846E8 ; 1.9446364154385474E9 ; 2.9355485081097416E10 ; 0.0
154 ; 1.2500823968880894E7 ; 2.0371815228384712E8 ; 1.9571435515806775E9 ; 2.9559186181654984E10 ; 0.0
155 ; 1.2494499439403132E7 ; 2.0373516742618737E8 ; 1.9696443755495584E9 ; 2.976290433393883E10 ; 0.0
156 ; 1.2484613896466395E7 ; 2.0375214523933774E8 ; 1.9821388749889615E9 ; 2.9966639501365017E10 ; 0.0
157 ; 1.247129682148435E7 ; 2.0376908498792008E8 ; 1.994623488885428E9 ; 3.0170391646604355E10 ; 0.0
158 ; 1.2469627139218722E7 ; 2.0378598594620696E8 ; 2.0070947857069123E9 ; 3.0374160731592274E10 ; 0.0
159 ; 1.245786996756906E7 ; 2.0380284739790583E8 ; 2.019564412846131E9 ; 3.057794671753848E10 ; 0.0
160 ; 1.2448665631281463E7 ; 2.0381966863594952E8 ; 2.0320222828137002E9 ; 3.0781749564936386E10 ; 0.0
161 ; 1.243814870683777E7 ; 2.0383644896229336E8 ; 2.0444709484449816E9 ; 3.0985569233572334E10 ; 0.0
162 ; 1.2428762457837084E7 ; 2.0385318768771836E8 ; 2.0569090971518192E9 ; 3.1189405682534626E10 ; 0.0
163 ; 1.2419464651420014E7 ; 2.038698841316402E8 ; 2.0693378596096563E9 ; 3.1393258870222343E10 ; 0.0
164 ; 1.2410414116302473E7 ; 2.038865376219242E8 ; 2.0817573242610765E9 ; 3.1597128754353985E10 ; 0.0
165 ; 1.240607086386004E7 ; 2.039031474947057E8 ; 2.094167738377379E9 ; 3.180101529197591E10 ; 0.0
166 ; 1.2396786021840641E7 ; 2.0391971309421602E8 ; 2.106573809241239E9 ; 3.2004918439470615E10 ; 0.0
167 ; 1.2385087435331505E7 ; 2.039362337726134E8 ; 2.1189705952630796E9 ; 3.220883815256483E10 ; 0.0
168 ; 1.2375491107561808E7 ; 2.0395270888981926E8 ; 2.1313556826984112E9 ; 3.2412774386337444E10 ; 0.0
169 ; 1.2364108198164372E7 ; 2.0396913781335914E8 ; 2.143731173805973E9 ; 3.2616727095227264E10 ; 0.0
170 ; 1.2359712247430522E7 ; 2.0398551991820863E8 ; 2.1560952820041375E9 ; 3.2820696233040623E10 ; 0.0
171 ; 1.2349788787038079E7 ; 2.0400185458664358E8 ; 2.168454994251568E9 ; 3.302468175295883E10 ; 0.0
172 ; 1.2338582704510227E7 ; 2.0401814120809516E8 ; 2.1808047830386057E9 ; 3.3228683607545475E10 ; 0.0
173 ; 1.2328389374866854E7 ; 2.040343791790089E8 ; 2.193143365743116E9 ; 3.343270174875357E10 ; 0.0
174 ; 1.2321983083683768E7 ; 2.0405056790270793E8 ; 2.205471755117983E9 ; 3.363673612793258E10 ; 0.0
175 ; 1.2319901509837357E7 ; 2.0406670678926066E8 ; 2.217793738201667E9 ; 3.3840786695835285E10 ; 0.0
176 ; 1.2314024768412935E7 ; 2.0408279525535166E8 ; 2.230113639711504E9 ; 3.4044853402624546E10 ; 0.0
177 ; 1.2306387392344993E7 ; 2.0409883272415715E8 ; 2.242427664479917E9 ; 3.4248936197879898E10 ; 0.0
178 ; 1.2302700002973136E7 ; 2.0411481862522355E8 ; 2.254734051872262E9 ; 3.445303503060406E10 ; 0.0
179 ; 1.2295044133408798E7 ; 2.041307523943498E8 ; 2.267036751875235E9 ; 3.465714984922928E10 ; 0.0
180 ; 1.2292102735094415E7 ; 2.0414663347347328E8 ; 2.279331796008644E9 ; 3.486128060162363E10 ; 0.0
181 ; 1.2286798427351447E7 ; 2.041624613105588E8 ; 2.2916238987437387E9 ; 3.50654272350971E10 ; 0.0
182 ; 1.2282243955101902E7 ; 2.0417823535949102E8 ; 2.30391069717109E9 ; 3.526958969640766E10 ; 0.0
183 ; 1.2274588187312525E7 ; 2.0419395507996997E8 ; 2.316192941126192E9 ; 3.547376793176715E10 ; 0.0
184 ; 1.2268482172029449E7 ; 2.0420961993740955E8 ; 2.3284675293135047E9 ; 3.567796188684712E10 ; 0.0
185 ; 1.2262405933075907E7 ; 2.0422522940283906E8 ; 2.340736011485534E9 ; 3.588217150678453E10 ; 0.0
186 ; 1.2254765780022971E7 ; 2.042407829528075E8 ; 2.35299841741861E9 ; 3.608639673618737E10 ; 0.0
187 ; 1.2252193853926485E7 ; 2.0425628006929073E8 ; 2.365253183198633E9 ; 3.6290637519140175E10 ; 0.0
188 ; 1.2242439959426085E7 ; 2.0427172023960125E8 ; 2.37750537705256E9 ; 3.6494893799209465E10 ; 0.0
189 ; 1.2240087517586526E7 ; 2.042871029563006E8 ; 2.389747817011986E9 ; 3.6699165519449066E10 ; 0.0
190 ; 1.223517700156492E7 ; 2.043E8 ; 2.4019879045295725E9 ; 3.6903452622405365E10 ; 0.0
191 ; 1.2228691483942445E7 ; 2.043E8 ; 2.4142230815311375E9 ; 3.7107752622405365E10 ; 0.0
192 ; 1.2223618703063015E7 ; 2.043E8 ; 2.42645177301508E9 ; 3.7312052622405365E10 ; 0.0
193 ; 1.2216888288933542E7 ; 2.043E8 ; 2.438675391718143E9 ; 3.7516352622405365E10 ; 0.0
194 ; 1.2212437752944706E7 ; 2.043E8 ; 2.4508922800070767E9 ; 3.7720652622405365E10 ; 0.0
195 ; 1.2205917059912315E7 ; 2.043E8 ; 2.463104717760021E9 ; 3.7924952622405365E10 ; 0.0
196 ; 1.220217794437681E7 ; 2.043E8 ; 2.4753106348199334E9 ; 3.8129252622405365E10 ; 0.0
