CSV File for the City 6 on Day 360
1 - Minute m 
2 - Power Consumed at minute m 
3 - Power Produced at minute m 
4 - Energy Consumed since the beginning of the day 
5 - Energy Produced since the beginning of the day 
6 - Energy Lost since the beginning of the day on lines starting from the city
 
0 ; 1.114670426707184E7 ; 1.0588442386654875E8 ; 0.0 ; 0.0 ; 0.0
1 ; 1.1155324571987966E7 ; 1.0603508384564883E8 ; 1.114670426707184E7 ; 1.0588442386654875E8 ; 0.0
2 ; 1.1168024878688496E7 ; 1.0649475455102465E8 ; 2.2302028839059807E7 ; 2.1191950771219757E8 ; 0.0
3 ; 1.1181773220871707E7 ; 1.0726344134160233E8 ; 3.3470053717748303E7 ; 3.184142622632222E8 ; 0.0
4 ; 1.1200762275773209E7 ; 1.0834114904936904E8 ; 4.465182693862001E7 ; 4.2567770360482454E8 ; 0.0
5 ; 1.1219152249376927E7 ; 1.0972788194284385E8 ; 5.585258921439321E7 ; 5.340188526541936E8 ; 0.0
6 ; 1.124302763046841E7 ; 1.1142364369394216E8 ; 6.7071741463770136E7 ; 6.437467345970374E8 ; 0.0
7 ; 1.1280638505774992E7 ; 1.1342843734881628E8 ; 7.831476909423855E7 ; 7.551703782909796E8 ; 0.0
8 ; 1.1334391787967924E7 ; 1.157422653032037E8 ; 8.959540760001354E7 ; 8.685988156397959E8 ; 0.0
9 ; 1.1416114493396973E7 ; 1.1836512928274298E8 ; 1.0092979938798146E8 ; 9.843410809429996E8 ; 0.0
10 ; 1.154004091105438E7 ; 1.2129703032863319E8 ; 1.1234591388137843E8 ; 1.1027062102257426E9 ; 0.0
11 ; 1.1737506387936201E7 ; 1.2453796878891584E8 ; 1.2388595479243281E8 ; 1.2240032405543756E9 ; 0.0
12 ; 1.2056222285922118E7 ; 1.280879443155494E8 ; 1.3562346118036902E8 ; 1.3485412093432915E9 ; 0.0
13 ; 1.2358537134384245E7 ; 1.3194695586733478E8 ; 1.4767968346629113E8 ; 1.476629153658841E9 ; 0.0
14 ; 1.239867372681419E7 ; 1.3611500171863353E8 ; 1.6003822060067537E8 ; 1.6085761095261757E9 ; 0.0
15 ; 1.2409928349316308E7 ; 1.4059207947370803E8 ; 1.7243689432748955E8 ; 1.7446911112448092E9 ; 0.0
16 ; 1.2424347816165362E7 ; 1.4537818608640608E8 ; 1.8484682267680585E8 ; 1.8852831907185173E9 ; 0.0
17 ; 1.2439348551670365E7 ; 1.504733178848122E8 ; 1.972711704929712E8 ; 2.0306613768049233E9 ; 0.0
18 ; 1.2448562986228423E7 ; 1.5587747060040736E8 ; 2.0971051904464158E8 ; 2.1811346946897354E9 ; 0.0
19 ; 1.2466089087314513E7 ; 1.6159063940120438E8 ; 2.2215908203087002E8 ; 2.337012165290143E9 ; 0.0
20 ; 1.2481515763400666E7 ; 1.676128189282771E8 ; 2.3462517111818454E8 ; 2.4986028046913476E9 ; 0.0
21 ; 1.2492595454976246E7 ; 1.7394400333506492E8 ; 2.471066868815852E8 ; 2.6662156236196246E9 ; 0.0
22 ; 1.2508008236955842E7 ; 1.8058418632881612E8 ; 2.5959928233656144E8 ; 2.8401596269546895E9 ; 0.0
23 ; 1.2523901550885674E7 ; 1.8753336121353596E8 ; 2.7210729057351726E8 ; 3.0207438132835054E9 ; 0.0
24 ; 1.253603779937109E7 ; 1.9479152093381745E8 ; 2.8463119212440294E8 ; 3.208277174497041E9 ; 0.0
25 ; 1.2553108052967736E7 ; 2.0104669901714906E8 ; 2.97167229923774E8 ; 3.4030686954308586E9 ; 0.0
26 ; 1.2565856949564148E7 ; 2.01052435654678E8 ; 3.0972033797674173E8 ; 3.6041153944480076E9 ; 0.0
27 ; 1.2581228846748263E7 ; 2.0105849226922485E8 ; 3.222861949263059E8 ; 3.8051678301026855E9 ; 0.0
28 ; 1.2592160483829716E7 ; 2.0106486080396926E8 ; 3.348674237730541E8 ; 4.00622632237191E9 ; 0.0
29 ; 1.2611473980329959E7 ; 2.010715330560293E8 ; 3.4745958425688386E8 ; 4.2072911831758795E9 ; 0.0
30 ; 1.2623214633136561E7 ; 2.0107850071489808E8 ; 3.600710582372138E8 ; 4.408362716231909E9 ; 0.0
31 ; 1.2635186682480274E7 ; 2.0108575539872876E8 ; 3.7269427287035036E8 ; 4.609441216946807E9 ; 0.0
32 ; 1.2649920259823091E7 ; 2.0109328868827274E8 ; 3.8532945955283064E8 ; 4.810526972345535E9 ; 0.0
33 ; 1.2661377274811722E7 ; 2.011010921583355E8 ; 3.979793798126537E8 ; 5.011620261033808E9 ; 0.0
34 ; 1.2673269121462086E7 ; 2.011091574066663E8 ; 4.1064075708746547E8 ; 5.212721353192143E9 ; 0.0
35 ; 1.2681767992137965E7 ; 2.011174760802466E8 ; 4.233140262089276E8 ; 5.41383051059881E9 ; 0.0
36 ; 1.2692438541708175E7 ; 2.011260398989836E8 ; 4.3599579420106554E8 ; 5.614947986679057E9 ; 0.0
37 ; 1.270734867157583E7 ; 2.011348406768521E8 ; 4.486882327427737E8 ; 5.816074026578041E9 ; 0.0
38 ; 1.2718187027889429E7 ; 2.011438703405579E8 ; 4.6139558141434956E8 ; 6.017208867254893E9 ; 0.0
39 ; 1.2728158265987381E7 ; 2.0115312094582E8 ; 4.74113768442239E8 ; 6.218352737595451E9 ; 0.0
40 ; 1.274218744320931E7 ; 2.011625846913891E8 ; 4.868419267082264E8 ; 6.419505858541271E9 ; 0.0
41 ; 1.2745131216307271E7 ; 2.0117225393093354E8 ; 4.995841141514357E8 ; 6.62066844323266E9 ; 0.0
42 ; 1.2753687111436406E7 ; 2.0118212118293276E8 ; 5.1232924536774296E8 ; 6.821840697163594E9 ; 0.0
43 ; 1.2762003831209622E7 ; 2.011921791387266E8 ; 5.250829324791794E8 ; 7.023022818346527E9 ; 0.0
44 ; 1.277307262383335E7 ; 2.0120242066886804E8 ; 5.37844936310389E8 ; 7.224214997485253E9 ; 0.0
45 ; 1.2779202144202145E7 ; 2.0121283882792994E8 ; 5.506180089342223E8 ; 7.425417418154121E9 ; 0.0
46 ; 1.2786918349998826E7 ; 2.0122342685791105E8 ; 5.633972110784245E8 ; 7.626630256982051E9 ; 0.0
47 ; 1.2793886874834197E7 ; 2.012341781903836E8 ; 5.761841294284233E8 ; 7.827853683839962E9 ; 0.0
48 ; 1.279411257378547E7 ; 2.0124508644751823E8 ; 5.889780163032575E8 ; 8.029087862030346E9 ; 0.0
49 ; 1.2804884427390859E7 ; 2.012561454421153E8 ; 6.017721288770429E8 ; 8.230332948477864E9 ; 0.0
50 ; 1.2806098393818E7 ; 2.0126734917676327E8 ; 6.145770133044337E8 ; 8.431589093919979E9 ; 0.0
51 ; 1.2810930990865802E7 ; 2.0127869184223747E8 ; 6.273831116982517E8 ; 8.632856443096743E9 ; 0.0
52 ; 1.28153964315972E7 ; 2.0129016781524348E8 ; 6.401940426891176E8 ; 8.83413513493898E9 ; 0.0
53 ; 1.2817370373177592E7 ; 2.0130177165560094E8 ; 6.530094391207148E8 ; 9.035425302754223E9 ; 0.0
54 ; 1.2819499642687775E7 ; 2.0131349810295552E8 ; 6.658268094938924E8 ; 9.236727074409824E9 ; 0.0
55 ; 1.2822088649931787E7 ; 2.013253420730987E8 ; 6.786463091365802E8 ; 9.43804057251278E9 ; 0.0
56 ; 1.2826482149349764E7 ; 2.0133729865396622E8 ; 6.91468397786512E8 ; 9.639365914585878E9 ; 0.0
57 ; 1.2830655089007763E7 ; 2.0134936310138068E8 ; 7.042948799358618E8 ; 9.840703213239845E9 ; 0.0
58 ; 1.2835403271320568E7 ; 2.013615308345941E8 ; 7.171255350248696E8 ; 1.0042052576341227E10 ; 0.0
59 ; 1.283675449435871E7 ; 2.0137379743168247E8 ; 7.299609382961901E8 ; 1.0243414107175821E10 ; 0.0
60 ; 1.2834222348404534E7 ; 2.0138615862483636E8 ; 7.427976927905488E8 ; 1.0444787904607504E10 ; 0.0
61 ; 1.2843854107681515E7 ; 2.013986102955867E8 ; 7.556319151389533E8 ; 1.064617406323234E10 ; 0.0
62 ; 1.2844055600621073E7 ; 2.014111484700004E8 ; 7.684757692466348E8 ; 1.0847572673527927E10 ; 0.0
63 ; 1.2847381354158718E7 ; 2.014237693138748E8 ; 7.81319824847256E8 ; 1.1048983821997929E10 ; 0.0
64 ; 1.2847560207216697E7 ; 2.0143646912795666E8 ; 7.941672062014147E8 ; 1.1250407591311804E10 ; 0.0
65 ; 1.2854752459783755E7 ; 2.0144924434320682E8 ; 8.070147664086314E8 ; 1.145184406043976E10 ; 0.0
66 ; 1.2852962644646171E7 ; 2.014620915161294E8 ; 8.198695188684152E8 ; 1.1653293304782967E10 ; 0.0
67 ; 1.285597006418837E7 ; 2.0147500732417998E8 ; 8.327224815130614E8 ; 1.1854755396299095E10 ; 0.0
68 ; 1.2857421826840224E7 ; 2.014879885612659E8 ; 8.455784515772498E8 ; 1.2056230403623276E10 ; 0.0
69 ; 1.286152513193498E7 ; 2.0150103213334855E8 ; 8.5843587340409E8 ; 1.2257718392184542E10 ; 0.0
70 ; 1.285909240595276E7 ; 2.0151413505415565E8 ; 8.71297398536025E8 ; 1.245921942431789E10 ; 0.0
71 ; 1.2862619280159917E7 ; 2.0152729444100997E8 ; 8.841564909419779E8 ; 1.2660733559372046E10 ; 0.0
72 ; 1.2865314986801658E7 ; 2.0154050751077905E8 ; 8.970191102221378E8 ; 1.2862260853813055E10 ; 0.0
73 ; 1.2862859358737249E7 ; 2.01553771575949E8 ; 9.098844252089394E8 ; 1.3063801361323833E10 ; 0.0
74 ; 1.2863710049935535E7 ; 2.0156708404082495E8 ; 9.227472845676767E8 ; 1.3265355132899782E10 ; 0.0
75 ; 1.2866588950873576E7 ; 2.0158044239785844E8 ; 9.356109946176122E8 ; 1.3466922216940607E10 ; 0.0
76 ; 1.2869178246523524E7 ; 2.015938442241025E8 ; 9.484775835684859E8 ; 1.3668502659338465E10 ; 0.0
77 ; 1.2867978835695691E7 ; 2.0160728717779368E8 ; 9.613467618150094E8 ; 1.3870096503562567E10 ; 0.0
78 ; 1.2866949035267849E7 ; 2.0162076899505952E8 ; 9.742147406507051E8 ; 1.407170379074036E10 ; 0.0
79 ; 1.2860982515033407E7 ; 2.0163428748675013E8 ; 9.870816896859729E8 ; 1.427332455973542E10 ; 0.0
80 ; 1.2863167464192675E7 ; 2.016478405353913E8 ; 9.999426722010063E8 ; 1.447495884722217E10 ; 0.0
81 ; 1.2856993953631101E7 ; 2.0166142609225702E8 ; 1.0128058396651989E9 ; 1.467660668775756E10 ; 0.0
82 ; 1.2855294994243342E7 ; 2.0167504217455798E8 ; 1.02566283361883E9 ; 1.4878268113849817E10 ; 0.0
83 ; 1.2847594244344221E7 ; 2.016886868627438E8 ; 1.0385181286130733E9 ; 1.5079943156024376E10 ; 0.0
84 ; 1.284349560089627E7 ; 2.01702358297915E8 ; 1.0513657228574176E9 ; 1.528163184288712E10 ; 0.0
85 ; 1.284351870565523E7 ; 2.01716054679342E8 ; 1.0642092184583138E9 ; 1.5483334201185034E10 ; 0.0
86 ; 1.283652327862488E7 ; 2.0172977426208714E8 ; 1.077052737163969E9 ; 1.5685050255864376E10 ; 0.0
87 ; 1.2831977153362729E7 ; 2.0174351535472682E8 ; 1.0898892604425938E9 ; 1.5886780030126463E10 ; 0.0
88 ; 1.2826041374033969E7 ; 2.0175727631717002E8 ; 1.1027212375959566E9 ; 1.608852354548119E10 ; 0.0
89 ; 1.2825845628775023E7 ; 2.0177105555856943E8 ; 1.1155472789699905E9 ; 1.6290280821798359E10 ; 0.0
90 ; 1.282524461783565E7 ; 2.017848515353223E8 ; 1.1283731245987656E9 ; 1.6492051877356928E10 ; 0.0
91 ; 1.2814907567499103E7 ; 2.0179866274915713E8 ; 1.1411983692166014E9 ; 1.669383672889225E10 ; 0.0
92 ; 1.2812856941950977E7 ; 2.0181248774530298E8 ; 1.1540132767841005E9 ; 1.6895635391641407E10 ; 0.0
93 ; 1.2806549008169323E7 ; 2.018263251107382E8 ; 1.1668261337260516E9 ; 1.709744787938671E10 ; 0.0
94 ; 1.2801771269887013E7 ; 2.0184017347251517E8 ; 1.179632682734221E9 ; 1.7299274204497448E10 ; 0.0
95 ; 1.2800229751631226E7 ; 2.01854031496158E8 ; 1.192434454004108E9 ; 1.7501114377969963E10 ; 0.0
96 ; 1.2789143301970964E7 ; 2.0186789788413024E8 ; 1.2052346837557392E9 ; 1.770296840946612E10 ; 0.0
97 ; 1.2790786589393413E7 ; 2.018817713743693E8 ; 1.2180238270577102E9 ; 1.790483630735025E10 ; 0.0
98 ; 1.2777156389905695E7 ; 2.018956507388851E8 ; 1.2308146136471035E9 ; 1.810671807872462E10 ; 0.0
99 ; 1.2776928981155738E7 ; 2.019095347824201E8 ; 1.2435917700370092E9 ; 1.8308613729463505E10 ; 0.0
100 ; 1.2768450516851094E7 ; 2.0192342234116766E8 ; 1.2563686990181649E9 ; 1.8510523264245926E10 ; 0.0
101 ; 1.2765643227760186E7 ; 2.0193731228154662E8 ; 1.269137149535016E9 ; 1.8712446686587093E10 ; 0.0
102 ; 1.2760820087581925E7 ; 2.0195120349902955E8 ; 1.2819027927627761E9 ; 1.891438399886864E10 ; 0.0
103 ; 1.275116006654902E7 ; 2.0196509491702184E8 ; 1.294663612850358E9 ; 1.9116335202367672E10 ; 0.0
104 ; 1.27460072017082E7 ; 2.0197898548579016E8 ; 1.307414772916907E9 ; 1.9318300297284695E10 ; 0.0
105 ; 1.2740496234307757E7 ; 2.0199287418143713E8 ; 1.3201607801186154E9 ; 1.9520279282770485E10 ; 0.0
106 ; 1.2735649655420695E7 ; 2.020067600049209E8 ; 1.3329012763529232E9 ; 1.9722272156951923E10 ; 0.0
107 ; 1.2730756343801957E7 ; 2.020206419811172E8 ; 1.345636926008344E9 ; 1.9924278916956844E10 ; 0.0
108 ; 1.2719460513035107E7 ; 2.020345191579221E8 ; 1.358367682352146E9 ; 2.012629955893796E10 ; 0.0
109 ; 1.2712907097285654E7 ; 2.0204839060539353E8 ; 1.371087142865181E9 ; 2.0328334078095882E10 ; 0.0
110 ; 1.2706637443340998E7 ; 2.0206225541492987E8 ; 1.3838000499624667E9 ; 2.0530382468701275E10 ; 0.0
111 ; 1.2702507516203918E7 ; 2.0207611269848388E8 ; 1.3965066874058077E9 ; 2.0732444724116203E10 ; 0.0
112 ; 1.2695101446101552E7 ; 2.0208996158781046E8 ; 1.4092091949220116E9 ; 2.0934520836814686E10 ; 0.0
113 ; 1.2686297333941147E7 ; 2.0210380123374653E8 ; 1.4219042963681133E9 ; 2.1136610798402496E10 ; 0.0
114 ; 1.2678242244519845E7 ; 2.0211763080552173E8 ; 1.4345905937020545E9 ; 2.1338714599636242E10 ; 0.0
115 ; 1.2672844760916296E7 ; 2.0213144949009842E8 ; 1.4472688359465744E9 ; 2.1540832230441765E10 ; 0.0
116 ; 1.2663022721135218E7 ; 2.0214525649153984E8 ; 1.4599416807074907E9 ; 2.174296367993186E10 ; 0.0
117 ; 1.2657132458786964E7 ; 2.021590510304048E8 ; 1.4726047034286258E9 ; 2.19451089364234E10 ; 0.0
118 ; 1.2649123864270689E7 ; 2.021728323431681E8 ; 1.4852618358874128E9 ; 2.2147267987453804E10 ; 0.0
119 ; 1.2641145196681267E7 ; 2.021865996816652E8 ; 1.4979109597516835E9 ; 2.234944081979697E10 ; 0.0
120 ; 1.2629492920103693E7 ; 2.022003523125602E8 ; 1.5105521049483647E9 ; 2.2551627419478634E10 ; 0.0
121 ; 1.2625517442329122E7 ; 2.0221408951683608E8 ; 1.5231815978684685E9 ; 2.2753827771791195E10 ; 0.0
122 ; 1.2618917749427635E7 ; 2.0222781058930612E8 ; 1.5358071153107977E9 ; 2.295604186130803E10 ; 0.0
123 ; 1.2608815153619118E7 ; 2.0224151483814552E8 ; 1.5484260330602252E9 ; 2.3158269671897335E10 ; 0.0
124 ; 1.2600997818779862E7 ; 2.0225520158444265E8 ; 1.5610348482138443E9 ; 2.336051118673548E10 ; 0.0
125 ; 1.2593333577247035E7 ; 2.022688701617683E8 ; 1.5736358460326242E9 ; 2.3562766388319923E10 ; 0.0
126 ; 1.2580146170015847E7 ; 2.0228251991576305E8 ; 1.5862291796098714E9 ; 2.3765035258481693E10 ; 0.0
127 ; 1.2575112678648796E7 ; 2.0229615020374134E8 ; 1.5988093257798872E9 ; 2.3967317778397457E10 ; 0.0
128 ; 1.2564545055134524E7 ; 2.023097603943116E8 ; 1.611384438458536E9 ; 2.41696139286012E10 ; 0.0
129 ; 1.2558917369288769E7 ; 2.023233498670119E8 ; 1.6239489835136704E9 ; 2.437192368899551E10 ; 0.0
130 ; 1.2542367322626067E7 ; 2.0233691801196015E8 ; 1.6365079008829591E9 ; 2.4574247038862522E10 ; 0.0
131 ; 1.2529851937946303E7 ; 2.0235046422951868E8 ; 1.6490502682055852E9 ; 2.477658395687448E10 ; 0.0
132 ; 1.2521310656246563E7 ; 2.0236398792997196E8 ; 1.6615801201435316E9 ; 2.4978934421104E10 ; 0.0
133 ; 1.2506217929896038E7 ; 2.023774885332174E8 ; 1.6741014307997782E9 ; 2.5181298409033974E10 ; 0.0
134 ; 1.2492961010998096E7 ; 2.0239096546846837E8 ; 1.6866076487296743E9 ; 2.5383675897567192E10 ; 0.0
135 ; 1.2481650344505345E7 ; 2.0240441817396897E8 ; 1.6991006097406723E9 ; 2.558606686303566E10 ; 0.0
136 ; 1.2467241809624363E7 ; 2.0241784609672016E8 ; 1.7115822600851777E9 ; 2.578847128120963E10 ; 0.0
137 ; 1.2451427210954214E7 ; 2.024312486922166E8 ; 1.724049501894802E9 ; 2.599088912730635E10 ; 0.0
138 ; 1.2436163244109673E7 ; 2.0244462542419377E8 ; 1.7365009291057563E9 ; 2.6193320375998566E10 ; 0.0
139 ; 1.2427404058438495E7 ; 2.024579757643849E8 ; 1.748937092349866E9 ; 2.639576500142276E10 ; 0.0
140 ; 1.2409485032321062E7 ; 2.0247129919228768E8 ; 1.7613644964083045E9 ; 2.6598222977187145E10 ; 0.0
141 ; 1.239517145414585E7 ; 2.0248459519493952E8 ; 1.7737739814406254E9 ; 2.6800694276379433E10 ; 0.0
142 ; 1.2382995196104292E7 ; 2.024978632667019E8 ; 1.7861691528947713E9 ; 2.700317887157437E10 ; 0.0
143 ; 1.2363479992005596E7 ; 2.0251110290905264E8 ; 1.7985521480908756E9 ; 2.7205676734841072E10 ; 0.0
144 ; 1.2352432567127775E7 ; 2.0252431363038656E8 ; 1.8109156280828812E9 ; 2.7408187837750126E10 ; 0.0
145 ; 1.2346556771818744E7 ; 2.025374949458232E8 ; 1.823268060650009E9 ; 2.7610712151380512E10 ; 0.0
146 ; 1.2332465035971457E7 ; 2.0255064637702236E8 ; 1.8356146174218276E9 ; 2.7813249646326336E10 ; 0.0
147 ; 1.2323431193706553E7 ; 2.0256376745200628E8 ; 1.847947082457799E9 ; 2.8015800292703358E10 ; 0.0
148 ; 1.2316885906441199E7 ; 2.0257685770498866E8 ; 1.8602705136515055E9 ; 2.8218364060155365E10 ; 0.0
149 ; 1.2301161416126342E7 ; 2.0258991667621005E8 ; 1.8725873995579467E9 ; 2.8420940917860355E10 ; 0.0
150 ; 1.2294425281278765E7 ; 2.026029439117794E8 ; 1.884888560974073E9 ; 2.8623530834536564E10 ; 0.0
151 ; 1.2283532569840958E7 ; 2.0261593896352166E8 ; 1.8971829862553518E9 ; 2.882613377844834E10 ; 0.0
152 ; 1.2274028306230746E7 ; 2.0262890138883066E8 ; 1.9094665188251927E9 ; 2.902874971741186E10 ; 0.0
153 ; 1.2261238757671421E7 ; 2.0264183075052798E8 ; 1.9217405471314235E9 ; 2.9231378618800694E10 ; 0.0
154 ; 1.2252283746341381E7 ; 2.0265472661672646E8 ; 1.9340017858890948E9 ; 2.943402044955122E10 ; 0.0
155 ; 1.2244951206966138E7 ; 2.0266758856069916E8 ; 1.9462540696354363E9 ; 2.9636675176167946E10 ; 0.0
156 ; 1.2231616785373047E7 ; 2.0268041616075286E8 ; 1.9584990208424025E9 ; 2.9839342764728645E10 ; 0.0
157 ; 1.2221379519749252E7 ; 2.0269320900010625E8 ; 1.9707306376277754E9 ; 3.0042023180889397E10 ; 0.0
158 ; 1.2210821125811158E7 ; 2.0270596666677254E8 ; 1.9829520171475246E9 ; 3.0244716389889503E10 ; 0.0
159 ; 1.2199511060605476E7 ; 2.027186887534464E8 ; 1.9951628382733357E9 ; 3.0447422356556274E10 ; 0.0
160 ; 1.2191361571118256E7 ; 2.0273137485739473E8 ; 2.0073623493339412E9 ; 3.065014104530972E10 ; 0.0
161 ; 1.2181039645758783E7 ; 2.0274402458035174E8 ; 2.0195537109050596E9 ; 3.0852872420167114E10 ; 0.0
162 ; 1.2171929528799964E7 ; 2.027566375284174E8 ; 2.0317347505508184E9 ; 3.1055616444747467E10 ; 0.0
163 ; 1.2159165032374682E7 ; 2.027692133119598E8 ; 2.0439066800796185E9 ; 3.1258373082275883E10 ; 0.0
164 ; 1.2147510381357191E7 ; 2.0278175154552078E8 ; 2.056065845111993E9 ; 3.146114229558784E10 ; 0.0
165 ; 1.2136292099082319E7 ; 2.0279425184772512E8 ; 2.0682133554933503E9 ; 3.166392404713336E10 ; 0.0
166 ; 1.2127238855799329E7 ; 2.0280671384119263E8 ; 2.0803496475924325E9 ; 3.1866718298981087E10 ; 0.0
167 ; 1.2115773378109606E7 ; 2.028191371524538E8 ; 2.092476886448232E9 ; 3.206952501282228E10 ; 0.0
168 ; 1.2105442389045771E7 ; 2.0283152141186792E8 ; 2.1045926598263416E9 ; 3.2272344149974735E10 ; 0.0
169 ; 1.2096154752888098E7 ; 2.0284386625354427E8 ; 2.1166981022153873E9 ; 3.2475175671386604E10 ; 0.0
170 ; 1.208371486914805E7 ; 2.028561713152663E8 ; 2.1287942569682755E9 ; 3.267801953764015E10 ; 0.0
171 ; 1.207384764029526E7 ; 2.02868436238418E8 ; 2.1408779718374236E9 ; 3.2880875708955414E10 ; 0.0
172 ; 1.206043893670678E7 ; 2.028806606679132E8 ; 2.152951819477719E9 ; 3.3083744145193832E10 ; 0.0
173 ; 1.2049837453107797E7 ; 2.02892844252127E8 ; 2.1650122584144254E9 ; 3.3286624805861744E10 ; 0.0
174 ; 1.2043697172940163E7 ; 2.0290498664282992E8 ; 2.177062095867533E9 ; 3.3489517650113873E10 ; 0.0
175 ; 1.2037544154435791E7 ; 2.0291708749512404E8 ; 2.1891057930404735E9 ; 3.3692422636756702E10 ; 0.0
176 ; 1.2031005985504579E7 ; 2.0292914646738133E8 ; 2.201143337194909E9 ; 3.3895339724251827E10 ; 0.0
177 ; 1.2024445121524215E7 ; 2.029411632211843E8 ; 2.2131743431804137E9 ; 3.4098268870719208E10 ; 0.0
178 ; 1.2017755279774366E7 ; 2.0295313742126855E8 ; 2.225198788301938E9 ; 3.430121003394039E10 ; 0.0
179 ; 1.2011177531528125E7 ; 2.0296506873546714E8 ; 2.2372165435817122E9 ; 3.4504163171361664E10 ; 0.0
180 ; 1.2001418723689526E7 ; 2.0297695683465707E8 ; 2.2492277211132402E9 ; 3.470712824009713E10 ; 0.0
181 ; 1.1998131157101575E7 ; 2.029888013927075E8 ; 2.26122913983693E9 ; 3.4910105196931786E10 ; 0.0
182 ; 1.199180327838668E7 ; 2.030006020864297E8 ; 2.2732272709940314E9 ; 3.511309399832449E10 ; 0.0
183 ; 1.1983231433677409E7 ; 2.0301235859552854E8 ; 2.285219074272418E9 ; 3.531609460041093E10 ; 0.0
184 ; 1.197692139145448E7 ; 2.0302407060255602E8 ; 2.297202305706095E9 ; 3.5519106959006454E10 ; 0.0
185 ; 1.197101606541367E7 ; 2.0303573779286578E8 ; 2.30917922709755E9 ; 3.572213102960901E10 ; 0.0
186 ; 1.1960819890113605E7 ; 2.030473598545697E8 ; 2.3211502431629634E9 ; 3.592516676740188E10 ; 0.0
187 ; 1.1953357606369313E7 ; 2.0305893647849557E8 ; 2.333111063053077E9 ; 3.612821412725645E10 ; 0.0
188 ; 1.1953982675850155E7 ; 2.0307046735814628E8 ; 2.3450644206594467E9 ; 3.633127306373494E10 ; 0.0
189 ; 1.1941494601395883E7 ; 2.0308195218966043E8 ; 2.357018403335297E9 ; 3.653434353109309E10 ; 0.0
190 ; 1.1937171610499509E7 ; 2.0309339067177412E8 ; 2.368959897936693E9 ; 3.6737425483282745E10 ; 0.0
191 ; 1.1931430445485126E7 ; 2.0310478250578415E8 ; 2.3808970695471926E9 ; 3.694051887395452E10 ; 0.0
192 ; 1.1922579094553161E7 ; 2.0311612739551237E8 ; 2.3928284999926777E9 ; 3.7143623656460304E10 ; 0.0
193 ; 1.1913938078878133E7 ; 2.0312742504727107E8 ; 2.4047510790872307E9 ; 3.734673978385582E10 ; 0.0
194 ; 1.1908808069453066E7 ; 2.031386751698298E8 ; 2.4166650171661086E9 ; 3.754986720890309E10 ; 0.0
195 ; 1.1904729879041841E7 ; 2.0314987747438294E8 ; 2.428573825235562E9 ; 3.775300588407292E10 ; 0.0
