CSV File for the City 1 on Day 26
1 - Minute m 
2 - Power Consumed at minute m 
3 - Power Produced at minute m 
4 - Energy Consumed since the beginning of the day 
5 - Energy Produced since the beginning of the day 
6 - Energy Lost since the beginning of the day on lines starting from the city
 
0 ; 1.5975463849757826E7 ; 1.0524303236111411E8 ; 0.0 ; 0.0 ; 0.0
1 ; 1.5993551876844658E7 ; 1.0539360190580696E8 ; 1.5975463849757826E7 ; 1.0524303236111411E8 ; 0.0
2 ; 1.6011808634573666E7 ; 1.0585304737369415E8 ; 3.1969015726602484E7 ; 2.1063663426692107E8 ; 0.0
3 ; 1.6030409910340326E7 ; 1.0662140374642009E8 ; 4.798082436117615E7 ; 3.164896816406152E8 ; 0.0
4 ; 1.6057033894298775E7 ; 1.0769870971052247E8 ; 6.401123427151647E7 ; 4.231110853870353E8 ; 0.0
5 ; 1.6084922196780737E7 ; 1.0908500686428422E8 ; 8.006826816581525E7 ; 5.308097950975578E8 ; 0.0
6 ; 1.6122988954794168E7 ; 1.1078033822966555E8 ; 9.615319036259599E7 ; 6.398948019618421E8 ; 0.0
7 ; 1.6177580255937412E7 ; 1.1278474596049607E8 ; 1.1227617931739016E8 ; 7.506751401915076E8 ; 0.0
8 ; 1.6255075156902408E7 ; 1.1509826830209899E8 ; 1.2845375957332757E8 ; 8.634598861520036E8 ; 0.0
9 ; 1.637182284547301E7 ; 1.1772093611462778E8 ; 1.4470883473022997E8 ; 9.785581544541026E8 ; 0.0
10 ; 1.655535996482723E7 ; 1.2065276954924548E8 ; 1.61080657575703E8 ; 1.0962790905687304E9 ; 0.0
11 ; 1.6836851589160353E7 ; 1.2389377562080064E8 ; 1.7763601754053023E8 ; 1.2169318601179757E9 ; 0.0
12 ; 1.7305527031218585E7 ; 1.2744394731444469E8 ; 1.944728691296906E8 ; 1.3408256357387764E9 ; 0.0
13 ; 1.775239421418794E7 ; 1.3130326447901458E8 ; 2.1177839616090918E8 ; 1.4682695830532212E9 ; 0.0
14 ; 1.7803118106483273E7 ; 1.3547169625435692E8 ; 2.2953079037509713E8 ; 1.5995728475322359E9 ; 0.0
15 ; 1.782212160793641E7 ; 1.399492043951484E8 ; 2.473339084815804E8 ; 1.7350445437865927E9 ; 0.0
16 ; 1.784652156129827E7 ; 1.4473574674755952E8 ; 2.6515603008951682E8 ; 1.8749937481817412E9 ; 0.0
17 ; 1.786547621656697E7 ; 1.4983128028962997E8 ; 2.8300255165081507E8 ; 2.0197294949293008E9 ; 0.0
18 ; 1.7889244550177913E7 ; 1.5523576342307687E8 ; 3.0086802786738205E8 ; 2.1695607752189307E9 ; 0.0
19 ; 1.7904877897622842E7 ; 1.609491574613625E8 ; 3.1875727241756E8 ; 2.324796538642008E9 ; 0.0
20 ; 1.792845952916344E7 ; 1.6697142742284247E8 ; 3.366621503151828E8 ; 2.48574569610337E9 ; 0.0
21 ; 1.7948275796607804E7 ; 1.7330254230453888E8 ; 3.545906098443462E8 ; 2.6527171235262127E9 ; 0.0
22 ; 1.7970931285008606E7 ; 1.7994247501212853E8 ; 3.72538885640954E8 ; 2.8260196658307514E9 ; 0.0
23 ; 1.799061430630146E7 ; 1.868912020895329E8 ; 3.905098169259626E8 ; 3.00596214084288E9 ; 0.0
24 ; 1.8014793077594522E7 ; 1.9414870335121667E8 ; 4.085004312322641E8 ; 3.1928533429324126E9 ; 0.0
25 ; 1.8031604967365514E7 ; 2.0040300238255677E8 ; 4.265152243098586E8 ; 3.3870020462836294E9 ; 0.0
26 ; 1.805414411302925E7 ; 2.0040763218864226E8 ; 4.445468292772241E8 ; 3.5874050486661863E9 ; 0.0
27 ; 1.8077308010711253E7 ; 2.0041234936181808E8 ; 4.6260097339025337E8 ; 3.787812680854829E9 ; 0.0
28 ; 1.8093595715651825E7 ; 2.004171430108679E8 ; 4.806782814009646E8 ; 3.988225030216647E9 ; 0.0
29 ; 1.8116225163591836E7 ; 2.0042200377837348E8 ; 4.987718771166164E8 ; 4.188642173227515E9 ; 0.0
30 ; 1.813481925726515E7 ; 2.0042692360459533E8 ; 5.168881022802083E8 ; 4.389064177005889E9 ; 0.0
31 ; 1.8153396965120744E7 ; 2.004318955273287E8 ; 5.3502292153747344E8 ; 4.589491100610484E9 ; 0.0
32 ; 1.817614885986416E7 ; 2.0043691351327738E8 ; 5.531763185025942E8 ; 4.789922996137813E9 ; 0.0
33 ; 1.8192374088853505E7 ; 2.004419723164809E8 ; 5.713524673624583E8 ; 4.99035990965109E9 ; 0.0
34 ; 1.8206446307713598E7 ; 2.0044706735965624E8 ; 5.895448414513118E8 ; 5.19080188196757E9 ; 0.0
35 ; 1.822474496864501E7 ; 2.004521946347818E8 ; 6.077512877590255E8 ; 5.391248949327227E9 ; 0.0
36 ; 1.8243394431562252E7 ; 2.0045735061975378E8 ; 6.259760327276704E8 ; 5.591701143962008E9 ; 0.0
37 ; 1.8258783301587716E7 ; 2.004625322084248E8 ; 6.442194271592327E8 ; 5.792158494581762E9 ; 0.0
38 ; 1.8272706366992474E7 ; 2.004677366517696E8 ; 6.624782104608204E8 ; 5.992621026790187E9 ; 0.0
39 ; 1.8286752604889017E7 ; 2.0047296150829864E8 ; 6.807509168278129E8 ; 6.1930887634419565E9 ; 0.0
40 ; 1.8300331390728135E7 ; 2.004782046021633E8 ; 6.99037669432702E8 ; 6.393561724950255E9 ; 0.0
41 ; 1.8316816764408678E7 ; 2.0048346398766607E8 ; 7.173380008234301E8 ; 6.594039929552419E9 ; 0.0
42 ; 1.832620427385712E7 ; 2.0048873791911268E8 ; 7.356548175878388E8 ; 6.794523393540085E9 ; 0.0
43 ; 1.8341665118203156E7 ; 2.0049402482512954E8 ; 7.539810218616959E8 ; 6.995012131459198E9 ; 0.0
44 ; 1.8347933115954317E7 ; 2.0049932328672218E8 ; 7.72322686979899E8 ; 7.1955061562843275E9 ; 0.0
45 ; 1.8359981350057773E7 ; 2.0050463201847512E8 ; 7.906706200958533E8 ; 7.39600547957105E9 ; 0.0
46 ; 1.836863294170191E7 ; 2.0050994985239747E8 ; 8.09030601445911E8 ; 7.596510111589525E9 ; 0.0
47 ; 1.8375985187142372E7 ; 2.0051527572400194E8 ; 8.273992343876129E8 ; 7.797020061441923E9 ; 0.0
48 ; 1.837856822463866E7 ; 2.0052060866027492E8 ; 8.457752195747553E8 ; 7.997535337165925E9 ; 0.0
49 ; 1.8389219183695957E7 ; 2.005259477692519E8 ; 8.64153787799394E8 ; 8.1980559458262E9 ; 0.0
50 ; 1.839710513743302E7 ; 2.0053129223095974E8 ; 8.825430069830899E8 ; 8.398581893595451E9 ; 0.0
51 ; 1.8400325912756164E7 ; 2.0053664128952536E8 ; 9.00940112120523E8 ; 8.59911318582641E9 ; 0.0
52 ; 1.8405622009972177E7 ; 2.005419942462831E8 ; 9.193404380332792E8 ; 8.799649827115936E9 ; 0.0
53 ; 1.840976257786878E7 ; 2.0054735045373937E8 ; 9.377460600432514E8 ; 9.000191821362219E9 ; 0.0
54 ; 1.8416103651316524E7 ; 2.0055270931027436E8 ; 9.561558226211202E8 ; 9.200739171815958E9 ; 0.0
55 ; 1.8418334893198296E7 ; 2.0055807025548035E8 ; 9.745719262724367E8 ; 9.401291881126232E9 ; 0.0
56 ; 1.8425478075177655E7 ; 2.0056343276605034E8 ; 9.92990261165635E8 ; 9.601849951381712E9 ; 0.0
57 ; 1.842869328521501E7 ; 2.0056879635214373E8 ; 1.0114157392408127E9 ; 9.802413384147762E9 ; 0.0
58 ; 1.8431393729864176E7 ; 2.0057416055416685E8 ; 1.0298444325260277E9 ; 1.0002982180499907E10 ; 0.0
59 ; 1.8435058244668305E7 ; 2.0057952493991473E8 ; 1.0482758262558918E9 ; 1.0203556341054073E10 ; 0.0
60 ; 1.8440688544993095E7 ; 2.005848891020286E8 ; 1.06671088450056E9 ; 1.0404135865993988E10 ; 0.0
61 ; 1.8446617885871675E7 ; 2.0059025265572938E8 ; 1.0851515730455532E9 ; 1.0604720755096016E10 ; 0.0
62 ; 1.8446685980584837E7 ; 2.005956152367935E8 ; 1.1035981909314249E9 ; 1.0805311007751745E10 ; 0.0
63 ; 1.844882358540512E7 ; 2.0060097649974158E8 ; 1.1220448769120097E9 ; 1.1005906622988539E10 ; 0.0
64 ; 1.8453152498856485E7 ; 2.0060633611621487E8 ; 1.1404937004974148E9 ; 1.1206507599488281E10 ; 0.0
65 ; 1.84568658156802E7 ; 2.0061169377351692E8 ; 1.1589468529962714E9 ; 1.1407113935604496E10 ; 0.0
66 ; 1.845599140856675E7 ; 2.0061704917330185E8 ; 1.1774037188119516E9 ; 1.1607725629378014E10 ; 0.0
67 ; 1.846075855364536E7 ; 2.0062240203039232E8 ; 1.1958597102205184E9 ; 1.1808342678551315E10 ; 0.0
68 ; 1.84641691425121E7 ; 2.0062775207171264E8 ; 1.2143204687741637E9 ; 1.2008965080581707E10 ; 0.0
69 ; 1.8466272921702567E7 ; 2.0063309903532434E8 ; 1.2327846379166758E9 ; 1.220959283265342E10 ; 0.0
70 ; 1.8463316958276216E7 ; 2.0063844266955283E8 ; 1.2512509108383784E9 ; 1.2410225931688744E10 ; 0.0
71 ; 1.846918494413775E7 ; 2.0064378273219565E8 ; 1.2697142277966547E9 ; 1.2610864374358297E10 ; 0.0
72 ; 1.8470392125116117E7 ; 2.006491189898035E8 ; 1.2881834127407925E9 ; 1.2811508157090492E10 ; 0.0
73 ; 1.8470166440046817E7 ; 2.0065445121702635E8 ; 1.3066538048659086E9 ; 1.3012157276080296E10 ; 0.0
74 ; 1.8471946291566856E7 ; 2.006597791960182E8 ; 1.3251239713059554E9 ; 1.3212811727297321E10 ; 0.0
75 ; 1.8473699034960397E7 ; 2.00665102715894E8 ; 1.3435959175975223E9 ; 1.341347150649334E10 ; 0.0
76 ; 1.8474492465244595E7 ; 2.0067042157223442E8 ; 1.3620696166324828E9 ; 1.3614136609209234E10 ; 0.0
77 ; 1.847651291895593E7 ; 2.006757355666324E8 ; 1.3805441090977273E9 ; 1.381480703078147E10 ; 0.0
78 ; 1.8467306140165024E7 ; 2.0068104450627872E8 ; 1.3990206220166833E9 ; 1.4015482766348103E10 ; 0.0
79 ; 1.84629252537834E7 ; 2.0068634820358217E8 ; 1.4174879281568484E9 ; 1.4216163810854382E10 ; 0.0
80 ; 1.8459409164373394E7 ; 2.006916464758207E8 ; 1.435950853410632E9 ; 1.4416850159057964E10 ; 0.0
81 ; 1.8451149824282713E7 ; 2.0069693914482152E8 ; 1.4544102625750053E9 ; 1.4617541805533785E10 ; 0.0
82 ; 1.8443470669251427E7 ; 2.0070222603666678E8 ; 1.472861412399288E9 ; 1.4818238744678606E10 ; 0.0
83 ; 1.8441476778097343E7 ; 2.0070750698142254E8 ; 1.4913048830685394E9 ; 1.5018940970715273E10 ; 0.0
84 ; 1.8429938553655162E7 ; 2.0071278181288934E8 ; 1.5097463598466368E9 ; 1.5219648477696695E10 ; 0.0
85 ; 1.8426909150751203E7 ; 2.007180503683719E8 ; 1.528176298400292E9 ; 1.5420361259509584E10 ; 0.0
86 ; 1.8423383017649677E7 ; 2.0072331248846674E8 ; 1.546603207551043E9 ; 1.5621079309877956E10 ; 0.0
87 ; 1.841644830192831E7 ; 2.0072856801686573E8 ; 1.5650265905686927E9 ; 1.5821802622366423E10 ; 0.0
88 ; 1.840940764767871E7 ; 2.0073381680017462E8 ; 1.583443038870621E9 ; 1.602253119038329E10 ; 0.0
89 ; 1.8401452528347984E7 ; 2.0073905868774477E8 ; 1.6018524465182996E9 ; 1.6223265007183464E10 ; 0.0
90 ; 1.839292202273727E7 ; 2.0074429353151748E8 ; 1.6202538990466475E9 ; 1.6424004065871208E10 ; 0.0
91 ; 1.8387998150444437E7 ; 2.007495211858795E8 ; 1.6386468210693848E9 ; 1.6624748359402725E10 ; 0.0
92 ; 1.837667285164219E7 ; 2.0075474150752902E8 ; 1.6570348192198293E9 ; 1.6825497880588604E10 ; 0.0
93 ; 1.836932865695309E7 ; 2.0075995435535112E8 ; 1.6754114920714715E9 ; 1.7026252622096132E10 ; 0.0
94 ; 1.8363196894929625E7 ; 2.007651595903021E8 ; 1.6937808207284245E9 ; 1.7227012576451485E10 ; 0.0
95 ; 1.8354724024697818E7 ; 2.007703570753017E8 ; 1.7121440176233542E9 ; 1.7427777736041786E10 ; 0.0
96 ; 1.8345240397675507E7 ; 2.0077554667513287E8 ; 1.730498741648052E9 ; 1.762854809311709E10 ; 0.0
97 ; 1.8336500494123947E7 ; 2.0078072825634852E8 ; 1.7488439820457275E9 ; 1.782932363979222E10 ; 0.0
98 ; 1.833056777278681E7 ; 2.007859016871843E8 ; 1.7671804825398514E9 ; 1.803010436804857E10 ; 0.0
99 ; 1.831862794833843E7 ; 2.0079106683747754E8 ; 1.7855110503126383E9 ; 1.8230890269735752E10 ; 0.0
100 ; 1.8308689350935563E7 ; 2.007962235785913E8 ; 1.8038296782609768E9 ; 1.843168133657323E10 ; 0.0
101 ; 1.8297427043757312E7 ; 2.0080137178334358E8 ; 1.8221383676119123E9 ; 1.863247756015182E10 ; 0.0
102 ; 1.8289052876566086E7 ; 2.0080651132594126E8 ; 1.8404357946556695E9 ; 1.8833278931935165E10 ; 0.0
103 ; 1.8286000011521388E7 ; 2.0081164208191803E8 ; 1.8587248475322356E9 ; 1.903408544326111E10 ; 0.0
104 ; 1.8273345128813345E7 ; 2.008167639280765E8 ; 1.877010847543757E9 ; 1.9234897085343025E10 ; 0.0
105 ; 1.826134766984839E7 ; 2.0082187674243408E8 ; 1.8952841926725702E9 ; 1.9435713849271103E10 ; 0.0
106 ; 1.825233607814823E7 ; 2.00826980404172E8 ; 1.9135455403424187E9 ; 1.963653572601354E10 ; 0.0
107 ; 1.823921675710476E7 ; 2.0083207479358777E8 ; 1.9317978764205668E9 ; 1.983736270641771E10 ; 0.0
108 ; 1.8230350033042386E7 ; 2.008371597920506E8 ; 1.9500370931776717E9 ; 2.0038194781211296E10 ; 0.0
109 ; 1.8217401370154742E7 ; 2.0084223528195927E8 ; 1.968267443210714E9 ; 2.0239031941003345E10 ; 0.0
110 ; 1.8208709913193814E7 ; 2.0084730114670303E8 ; 1.986484844580869E9 ; 2.0439874176285305E10 ; 0.0
111 ; 1.819960588323869E7 ; 2.008523572706246E8 ; 2.0046935544940627E9 ; 2.0640721477432007E10 ; 0.0
112 ; 1.8185016573863603E7 ; 2.0085740353898537E8 ; 2.0228931603773015E9 ; 2.0841573834702633E10 ; 0.0
113 ; 1.8177961435827065E7 ; 2.0086243983793285E8 ; 2.041078176951165E9 ; 2.104243123824162E10 ; 0.0
114 ; 1.81606478158333E7 ; 2.0086746605447003E8 ; 2.059256138386992E9 ; 2.124329367807955E10 ; 0.0
115 ; 1.8149851759894803E7 ; 2.008724820764265E8 ; 2.0774167862028253E9 ; 2.144416114413402E10 ; 0.0
116 ; 1.813606576882828E7 ; 2.0087748779243127E8 ; 2.0955666379627202E9 ; 2.164503362621045E10 ; 0.0
117 ; 1.8128516933382895E7 ; 2.008824830918873E8 ; 2.1137027037315485E9 ; 2.184591111400288E10 ; 0.0
118 ; 1.811410082942039E7 ; 2.008874678649473E8 ; 2.1318312206649315E9 ; 2.204679359709477E10 ; 0.0
119 ; 1.8103499971435387E7 ; 2.0089244200249124E8 ; 2.149945321494352E9 ; 2.2247681064959717E10 ; 0.0
120 ; 1.8087289964585975E7 ; 2.0089740539610484E8 ; 2.1680488214657874E9 ; 2.2448573506962208E10 ; 0.0
121 ; 1.807209829660932E7 ; 2.0090235793805954E8 ; 2.186136111430373E9 ; 2.2649470912358315E10 ; 0.0
122 ; 1.8064555222907834E7 ; 2.0090729952129343E8 ; 2.2042082097269826E9 ; 2.2850373270296375E10 ; 0.0
123 ; 1.8047460719887253E7 ; 2.009122300393935E8 ; 2.2222727649498906E9 ; 2.305128056981767E10 ; 0.0
124 ; 1.8033500900583748E7 ; 2.0091714938657862E8 ; 2.240320225669778E9 ; 2.3252192799857063E10 ; 0.0
125 ; 1.8023798219321873E7 ; 2.0092205745768368E8 ; 2.2583537265703616E9 ; 2.345310994924364E10 ; 0.0
126 ; 1.800965985406511E7 ; 2.0092695414814457E8 ; 2.2763775247896833E9 ; 2.3654032006701324E10 ; 0.0
127 ; 1.79911550088065E7 ; 2.00931839353984E8 ; 2.2943871846437483E9 ; 2.385495896084947E10 ; 0.0
128 ; 1.797866121720237E7 ; 2.0093671297179812E8 ; 2.312378339652555E9 ; 2.4055890800203453E10 ; 0.0
129 ; 1.7965959243109044E7 ; 2.0094157489874387E8 ; 2.330357000869757E9 ; 2.425682751317525E10 ; 0.0
130 ; 1.7949786821409896E7 ; 2.0094642503252712E8 ; 2.3483229601128664E9 ; 2.4457769088073994E10 ; 0.0
131 ; 1.7928414600421134E7 ; 2.0095126327139133E8 ; 2.366272746934276E9 ; 2.465871551310652E10 ; 0.0
132 ; 1.7909064411531072E7 ; 2.0095608951410693E8 ; 2.384201161534697E9 ; 2.4859666776377914E10 ; 0.0
133 ; 1.788551051914772E7 ; 2.0096090365996128E8 ; 2.402110225946228E9 ; 2.506062286589202E10 ; 0.0
134 ; 1.786480179607451E7 ; 2.0096570560874933E8 ; 2.419995736465376E9 ; 2.5261583769551983E10 ; 0.0
135 ; 1.7843985554980826E7 ; 2.0097049526076445E8 ; 2.4378605382614503E9 ; 2.5462549475160732E10 ; 0.0
136 ; 1.7820427100765456E7 ; 2.0097527251679006E8 ; 2.455704523816431E9 ; 2.5663519970421497E10 ; 0.0
137 ; 1.779671630529981E7 ; 2.0098003727809176E8 ; 2.4735249509171963E9 ; 2.5864495242938286E10 ; 0.0
138 ; 1.777942933698526E7 ; 2.0098478944640958E8 ; 2.491321667222496E9 ; 2.6065475280216377E10 ; 0.0
139 ; 1.776007771402237E7 ; 2.0098952892395112E8 ; 2.509101096559481E9 ; 2.626646006966279E10 ; 0.0
140 ; 1.7738097205173463E7 ; 2.0099425561338457E8 ; 2.5268611742735033E9 ; 2.646744959858674E10 ; 0.0
141 ; 1.7711921495369427E7 ; 2.0099896941783264E8 ; 2.544599271478677E9 ; 2.6668443854200123E10 ; 0.0
142 ; 1.7693729951420058E7 ; 2.010036702408663E8 ; 2.562311192974046E9 ; 2.6869442823617954E10 ; 0.0
143 ; 1.7668130126555186E7 ; 2.0100835798649937E8 ; 2.580004922925466E9 ; 2.707044649385882E10 ; 0.0
144 ; 1.7648860076097768E7 ; 2.010130325591831E8 ; 2.597673053052021E9 ; 2.727145485184532E10 ; 0.0
145 ; 1.7627179764638025E7 ; 2.0101769386380112E8 ; 2.615321913128119E9 ; 2.7472467884404503E10 ; 0.0
146 ; 1.761909444923801E7 ; 2.0102234180566484E8 ; 2.632949092892757E9 ; 2.7673485578268303E10 ; 0.0
147 ; 1.759638607907066E7 ; 2.0102697629050887E8 ; 2.650568187341995E9 ; 2.7874507920073967E10 ; 0.0
148 ; 1.7583085773697596E7 ; 2.010315972244868E8 ; 2.6681645734210653E9 ; 2.8075534896364475E10 ; 0.0
149 ; 1.7566059472914323E7 ; 2.0103620451416746E8 ; 2.6857476591947627E9 ; 2.8276566493588963E10 ; 0.0
150 ; 1.7552275885264326E7 ; 2.0104079806653097E8 ; 2.703313718667677E9 ; 2.847760269810313E10 ; 0.0
151 ; 1.7538378804456223E7 ; 2.0104537778896537E8 ; 2.7208659945529413E9 ; 2.8678643496169662E10 ; 0.0
152 ; 1.75161377805293E7 ; 2.0104994358926332E8 ; 2.7384043733573976E9 ; 2.887968887395863E10 ; 0.0
153 ; 1.7503841084456436E7 ; 2.0105449537561902E8 ; 2.755920511137927E9 ; 2.9080738817547894E10 ; 0.0
154 ; 1.74836503364199E7 ; 2.0105903305662534E8 ; 2.7734243522223835E9 ; 2.928179331292351E10 ; 0.0
155 ; 1.747062591324185E7 ; 2.0106355654127103E8 ; 2.7909080025588036E9 ; 2.9482852345980137E10 ; 0.0
156 ; 1.745095447914131E7 ; 2.010680657389383E8 ; 2.8083786284720454E9 ; 2.9683915902521408E10 ; 0.0
157 ; 1.7434415532649163E7 ; 2.0107256055940038E8 ; 2.8258295829511867E9 ; 2.9884983968260345E10 ; 0.0
158 ; 1.741926541793684E7 ; 2.0107704091281933E8 ; 2.8432639984838357E9 ; 3.0086056528819744E10 ; 0.0
159 ; 1.7406356224746916E7 ; 2.0108150670974395E8 ; 2.8606832639017725E9 ; 3.0287133569732563E10 ; 0.0
160 ; 1.738543663135511E7 ; 2.0108595786110786E8 ; 2.878089620126519E9 ; 3.0488215076442307E10 ; 0.0
161 ; 1.7369610874722477E7 ; 2.0109039427822775E8 ; 2.8954750567578745E9 ; 3.0689301034303413E10 ; 0.0
162 ; 1.735449421154383E7 ; 2.0109481587280163E8 ; 2.912844667632597E9 ; 3.0890391428581642E10 ; 0.0
163 ; 1.7332319475924656E7 ; 2.0109922255690745E8 ; 2.930199161844141E9 ; 3.1091486244454445E10 ; 0.0
164 ; 1.731971512794791E7 ; 2.0110361424300146E8 ; 2.9475314813200655E9 ; 3.1292585467011353E10 ; 0.0
165 ; 1.7299042042045705E7 ; 2.011079908439171E8 ; 2.9648511964480133E9 ; 3.1493689081254353E10 ; 0.0
166 ; 1.72813803508881E7 ; 2.0111235227286363E8 ; 2.982150238490059E9 ; 3.169479707209827E10 ; 0.0
167 ; 1.7265829616387878E7 ; 2.0111669844342518E8 ; 2.999431618840947E9 ; 3.1895909424371136E10 ; 0.0
168 ; 1.72481186993292E7 ; 2.011210292695596E8 ; 3.016697448457335E9 ; 3.209702612281456E10 ; 0.0
169 ; 1.7227970951957136E7 ; 2.0112534466559762E8 ; 3.0339455671566644E9 ; 3.2298147152084118E10 ; 0.0
170 ; 1.721059000256271E7 ; 2.01129644546242E8 ; 3.0511735381086216E9 ; 3.2499272496749714E10 ; 0.0
171 ; 1.7192392214927077E7 ; 2.011339288265668E8 ; 3.068384128111184E9 ; 3.2700402141295956E10 ; 0.0
172 ; 1.7173221853528455E7 ; 2.0113819742201668E8 ; 3.0855765203261113E9 ; 3.2901536070122524E10 ; 0.0
173 ; 1.7156022990977768E7 ; 2.0114245024840632E8 ; 3.10274974217964E9 ; 3.310267426754454E10 ; 0.0
174 ; 1.7143462284706548E7 ; 2.0114668722191992E8 ; 3.1199057651706176E9 ; 3.3303816717792946E10 ; 0.0
175 ; 1.7138851189829968E7 ; 2.0115090825911072E8 ; 3.137049227455324E9 ; 3.3504963405014866E10 ; 0.0
176 ; 1.7128729854505517E7 ; 2.0115511327690065E8 ; 3.154188078645154E9 ; 3.3706114313273975E10 ; 0.0
177 ; 1.711978001523285E7 ; 2.0115930219257993E8 ; 3.1713168084996595E9 ; 3.3907269426550877E10 ; 0.0
178 ; 1.7103675866765372E7 ; 2.0116347492380694E8 ; 3.1884365885148926E9 ; 3.4108428728743458E10 ; 0.0
179 ; 1.709911471441478E7 ; 2.0116763138860792E8 ; 3.205540264381658E9 ; 3.4309592203667263E10 ; 0.0
180 ; 1.708342885755037E7 ; 2.011717715053768E8 ; 3.2226393790960727E9 ; 3.451075983505587E10 ; 0.0
181 ; 1.707609227403967E7 ; 2.0117589519287515E8 ; 3.239722807953623E9 ; 3.471193160656125E10 ; 0.0
182 ; 1.706399235564946E7 ; 2.011800023702322E8 ; 3.2567989002276626E9 ; 3.491310750175413E10 ; 0.0
183 ; 1.7049065867786255E7 ; 2.0118409295694467E8 ; 3.273862892583312E9 ; 3.511428750412436E10 ; 0.0
184 ; 1.7038337815885328E7 ; 2.0118816687287694E8 ; 3.2909119584510984E9 ; 3.531547159708131E10 ; 0.0
185 ; 1.703111075429811E7 ; 2.0119222403826115E8 ; 3.307950296266984E9 ; 3.5516659763954185E10 ; 0.0
186 ; 1.7019839348409668E7 ; 2.0119626437369725E8 ; 3.324981407021282E9 ; 3.571785198799245E10 ; 0.0
187 ; 1.701327939356812E7 ; 2.0120028780015317E8 ; 3.342001246369692E9 ; 3.591904825236614E10 ; 0.0
188 ; 1.7001536495385684E7 ; 2.0120429423896512E8 ; 3.35901452576326E9 ; 3.61202485401663E10 ; 0.0
189 ; 1.69882652328331E7 ; 2.012082836118378E8 ; 3.3760160622586455E9 ; 3.6321452834405266E10 ; 0.0
190 ; 1.69806333572543E7 ; 2.0121225584084457E8 ; 3.3930043274914784E9 ; 3.6522661118017105E10 ; 0.0
191 ; 1.6967220693458814E7 ; 2.0121621084842786E8 ; 3.409984960848733E9 ; 3.672387337385795E10 ; 0.0
192 ; 1.6957758805203043E7 ; 2.0122014855739957E8 ; 3.426952181542192E9 ; 3.6925089584706375E10 ; 0.0
193 ; 1.6947525721038364E7 ; 2.0122406889094126E8 ; 3.443909940347395E9 ; 3.712630973326377E10 ; 0.0
194 ; 1.693357418362135E7 ; 2.012279717726047E8 ; 3.4608574660684333E9 ; 3.732753380215471E10 ; 0.0
195 ; 1.692298966763427E7 ; 2.012318571263123E8 ; 3.4777910402520547E9 ; 3.7528761773927315E10 ; 0.0
