CSV File for the City 4 on Day 203
1 - Minute m 
2 - Power Consumed at minute m 
3 - Power Produced at minute m 
4 - Energy Consumed since the beginning of the day 
5 - Energy Produced since the beginning of the day 
6 - Energy Lost since the beginning of the day on lines starting from the city
 
0 ; 543070.0831256943 ; 1.0577381352854708E8 ; 0.0 ; 0.0 ; 0.0
1 ; 551773.4247207199 ; 1.059235730789023E8 ; 543070.0831256943 ; 1.0577381352854708E8 ; 0.0
2 ; 559169.9155781866 ; 1.0638242460423866E8 ; 1094843.507846414 ; 2.1169738660744938E8 ; 0.0
3 ; 567616.4779661027 ; 1.0715037766917461E8 ; 1654013.4234246006 ; 3.1807981121168804E8 ; 0.0
4 ; 575048.2356128913 ; 1.0822744098824984E8 ; 2221629.9013907034 ; 4.2523018888086265E8 ; 0.0
5 ; 592139.4132685817 ; 1.0961362233181393E8 ; 2796678.1370035945 ; 5.334576298691125E8 ; 0.0
6 ; 611512.5965897521 ; 1.1130892843871197E8 ; 3388817.550272176 ; 6.430712522009264E8 ; 0.0
7 ; 631198.892101116 ; 1.1331336493794078E8 ; 4000330.146861928 ; 7.543801806396384E8 ; 0.0
8 ; 665920.6280267878 ; 1.1562693628132552E8 ; 4631529.038963044 ; 8.676935455775793E8 ; 0.0
9 ; 715892.853397729 ; 1.1824964568905467E8 ; 5297449.666989832 ; 9.833204818589048E8 ; 0.0
10 ; 796374.8484867401 ; 1.2118149510960704E8 ; 6013342.520387561 ; 1.1015701275479596E9 ; 0.0
11 ; 920560.4472021406 ; 1.2442248519522753E8 ; 6809717.368874301 ; 1.2227516226575665E9 ; 0.0
12 ; 1119144.3168974186 ; 1.2797261529367122E8 ; 7730277.816076442 ; 1.3471741078527942E9 ; 0.0
13 ; 1310777.0165011382 ; 1.3183188345645928E8 ; 8849422.132973861 ; 1.4751467231464653E9 ; 0.0
14 ; 1335196.518312182 ; 1.3600028646340334E8 ; 1.0160199149474999E7 ; 1.6069786066029246E9 ; 0.0
15 ; 1344695.8644865162 ; 1.404778198626781E8 ; 1.1495395667787181E7 ; 1.742978893066328E9 ; 0.0
16 ; 1357177.1385098007 ; 1.4526447802528688E8 ; 1.2840091532273697E7 ; 1.883456712929006E9 ; 0.0
17 ; 1364068.8989951452 ; 1.503602542123845E8 ; 1.4197268670783497E7 ; 2.028721190954293E9 ; 0.0
18 ; 1374402.5169027264 ; 1.5576514065362138E8 ; 1.5561337569778644E7 ; 2.1790814451666775E9 ; 0.0
19 ; 1384730.6718703718 ; 1.6147912863445786E8 ; 1.693574008668137E7 ; 2.3348465858202987E9 ; 0.0
20 ; 1393713.6927724765 ; 1.6750220859027544E8 ; 1.8320470758551743E7 ; 2.4963257144547567E9 ; 0.0
21 ; 1403572.5148165394 ; 1.738343702050813E8 ; 1.971418445132422E7 ; 2.663827923045032E9 ; 0.0
22 ; 1413556.5540811939 ; 1.804756025126536E8 ; 2.1117756966140762E7 ; 2.8376622932501135E9 ; 0.0
23 ; 1425196.708177217 ; 1.8742589399810374E8 ; 2.2531313520221956E7 ; 3.018137895762767E9 ; 0.0
24 ; 1433101.6091102567 ; 1.94685232698013E8 ; 2.3956510228399172E7 ; 3.2055637897608705E9 ; 0.0
25 ; 1442438.7486448353 ; 2.009416471957153E8 ; 2.538961183750943E7 ; 3.4002490224588833E9 ; 0.0
26 ; 1453223.426354366 ; 2.0094867275089574E8 ; 2.6832050586154267E7 ; 3.6011906696545987E9 ; 0.0
27 ; 1465413.0571183448 ; 2.0095606591170907E8 ; 2.8285274012508634E7 ; 3.8021393424054947E9 ; 0.0
28 ; 1472861.981466187 ; 2.0096381384245455E8 ; 2.975068706962698E7 ; 4.0030954083172035E9 ; 0.0
29 ; 1481315.6260879855 ; 2.0097190369083846E8 ; 3.1223549051093165E7 ; 4.204059222159658E9 ; 0.0
30 ; 1492840.2382594785 ; 2.009803226547683E8 ; 3.270486467718115E7 ; 4.405031125850496E9 ; 0.0
31 ; 1503364.7420366611 ; 2.00989058041792E8 ; 3.419770491544063E7 ; 4.606011448505264E9 ; 0.0
32 ; 1515154.2797599847 ; 2.0099809732122833E8 ; 3.570106965747729E7 ; 4.807000506547056E9 ; 0.0
33 ; 1522064.490157976 ; 2.0100742816918054E8 ; 3.721622393723728E7 ; 5.007998603868284E9 ; 0.0
34 ; 1531111.6692127404 ; 2.010170385067425E8 ; 3.8738288427395254E7 ; 5.209006032037465E9 ; 0.0
35 ; 1537620.1664006426 ; 2.0102691653179294E8 ; 4.0269400096608E7 ; 5.410023070544208E9 ; 0.0
36 ; 1546306.0325115644 ; 2.0103705074483532E8 ; 4.180702026300864E7 ; 5.611049987076E9 ; 0.0
37 ; 1555940.833945816 ; 2.0104742996937904E8 ; 4.33533262955202E7 ; 5.812087037820835E9 ; 0.0
38 ; 1564113.4313818032 ; 2.010580433673771E8 ; 4.490926712946602E7 ; 6.013134467790215E9 ; 0.0
39 ; 1574659.4709061186 ; 2.0106888045023713E8 ; 4.647338056084783E7 ; 6.214192511157592E9 ; 0.0
40 ; 1577713.7917606856 ; 2.0107993108591375E8 ; 4.804804003175394E7 ; 6.415261391607829E9 ; 0.0
41 ; 1586140.5989330495 ; 2.0109118550257033E8 ; 4.9625753823514625E7 ; 6.616341322693743E9 ; 0.0
42 ; 1590782.626987247 ; 2.0110263428927034E8 ; 5.1211894422447674E7 ; 6.817432508196313E9 ; 0.0
43 ; 1598335.734998926 ; 2.011142683941288E8 ; 5.280267704943492E7 ; 7.018535142485583E9 ; 0.0
44 ; 1606127.7952653163 ; 2.011260791203173E8 ; 5.440101278443385E7 ; 7.219649410879712E9 ; 0.0
45 ; 1612729.192688063 ; 2.011380581202829E8 ; 5.6007140579699166E7 ; 7.42077549000003E9 ; 0.0
46 ; 1619819.953508178 ; 2.0115019738850224E8 ; 5.761986977238723E7 ; 7.621913548120313E9 ; 0.0
47 ; 1624775.443241923 ; 2.0116248925306025E8 ; 5.9239689725895405E7 ; 7.823063745508815E9 ; 0.0
48 ; 1628064.144283957 ; 2.0117492636630604E8 ; 6.086446516913733E7 ; 8.024226234761875E9 ; 0.0
49 ; 1636343.083359934 ; 2.0118750169480917E8 ; 6.249252931342129E7 ; 8.225401161128181E9 ; 0.0
50 ; 1637871.0304310434 ; 2.0120020850880933E8 ; 6.412887239678122E7 ; 8.42658866282299E9 ; 0.0
51 ; 1641645.461860563 ; 2.012130403713249E8 ; 6.576674342721227E7 ; 8.6277888713318E9 ; 0.0
52 ; 1644211.704689748 ; 2.0122599112706262E8 ; 6.740838888907284E7 ; 8.829001911703125E9 ; 0.0
53 ; 1651153.1371282602 ; 2.012390548912478E8 ; 6.905260059376258E7 ; 9.030227902830187E9 ; 0.0
54 ; 1654044.2547339038 ; 2.012522260384749E8 ; 7.070375373089084E7 ; 9.231466957721436E9 ; 0.0
55 ; 1656398.884798857 ; 2.012654991916617E8 ; 7.235779798562475E7 ; 9.43271918375991E9 ; 0.0
56 ; 1665552.6767693437 ; 2.012788692111745E8 ; 7.40141968704236E7 ; 9.633984682951572E9 ; 0.0
57 ; 1666538.4537550975 ; 2.0129233118417838E8 ; 7.567974954719295E7 ; 9.835263552162746E9 ; 0.0
58 ; 1668456.817931559 ; 2.013058804142561E8 ; 7.734628800094804E7 ; 1.0036555883346926E10 ; 0.0
59 ; 1672832.8014727214 ; 2.013195124113278E8 ; 7.90147448188796E7 ; 1.023786176376118E10 ; 0.0
60 ; 1676569.7183080802 ; 2.0133322288189697E8 ; 8.068757762035233E7 ; 1.0439181276172508E10 ; 0.0
61 ; 1679294.223202804 ; 2.0134700771963915E8 ; 8.23641473386604E7 ; 1.0640514499054405E10 ; 0.0
62 ; 1683844.4439722905 ; 2.0136086299634588E8 ; 8.404344156186321E7 ; 1.0841861506774044E10 ; 0.0
63 ; 1690613.5135386297 ; 2.0137478495322898E8 ; 8.57272860058355E7 ; 1.104322236977039E10 ; 0.0
64 ; 1690895.289160797 ; 2.013887699925885E8 ; 8.741789951937413E7 ; 1.124459715472362E10 ; 0.0
65 ; 1692631.3579103362 ; 2.014028146698421E8 ; 8.910879480853494E7 ; 1.1445985924716208E10 ; 0.0
66 ; 1697347.8969184668 ; 2.014169156859123E8 ; 9.080142616644527E7 ; 1.164738873938605E10 ; 0.0
67 ; 1703165.0373262188 ; 2.0143106987996525E8 ; 9.249877406336373E7 ; 1.1848805655071962E10 ; 0.0
68 ; 1702710.607080379 ; 2.0144527422249246E8 ; 9.420193910068995E7 ; 1.2050236724951927E10 ; 0.0
69 ; 1708837.2974647176 ; 2.0145952580872658E8 ; 9.590464970777033E7 ; 1.225168199917442E10 ; 0.0
70 ; 1710946.436082181 ; 2.014738218523806E8 ; 9.761348700523505E7 ; 1.2453141524983147E10 ; 0.0
71 ; 1715329.4938047573 ; 2.014881596796987E8 ; 9.932443344131723E7 ; 1.2654615346835527E10 ; 0.0
72 ; 1716278.5285682676 ; 2.015025367238079E8 ; 1.0103976293512198E8 ; 1.2856103506515226E10 ; 0.0
73 ; 1718614.3532826942 ; 2.0151695051935777E8 ; 1.0275604146369025E8 ; 1.3057606043239035E10 ; 0.0
74 ; 1722408.812800406 ; 2.0153139869743612E8 ; 1.0447465581697294E8 ; 1.3259122993758392E10 ; 0.0
75 ; 1727680.499322272 ; 2.01545878980749E8 ; 1.0619706462977335E8 ; 1.3460654392455828E10 ; 0.0
76 ; 1730439.2120039365 ; 2.015603891790523E8 ; 1.0792474512909561E8 ; 1.3662200271436577E10 ; 0.0
77 ; 1731286.8605521563 ; 2.0157492718482324E8 ; 1.0965518434109955E8 ; 1.386376066061563E10 ; 0.0
78 ; 1734356.3896972607 ; 2.0158949096916056E8 ; 1.113864712016517E8 ; 1.4065335587800453E10 ; 0.0
79 ; 1732250.2614052005 ; 2.016040785779013E8 ; 1.1312082759134896E8 ; 1.4266925078769613E10 ; 0.0
80 ; 1733422.9506395513 ; 2.0161868812794417E8 ; 1.1485307785275416E8 ; 1.4468529157347515E10 ; 0.0
81 ; 1735517.2592432292 ; 2.0163331780376795E8 ; 1.165865008033937E8 ; 1.467014784547546E10 ; 0.0
82 ; 1735205.246687763 ; 2.0164796585413545E8 ; 1.1832201806263694E8 ; 1.4871781163279228E10 ; 0.0
83 ; 1734822.3555442635 ; 2.016626305889731E8 ; 1.2005722330932471E8 ; 1.5073429129133364E10 ; 0.0
84 ; 1733787.4438398737 ; 2.0167731037641662E8 ; 1.2179204566486898E8 ; 1.5275091759722338E10 ; 0.0
85 ; 1736520.4393191244 ; 2.0169200364001396E8 ; 1.2352583310870886E8 ; 1.5476769070098755E10 ; 0.0
86 ; 1734179.5542856136 ; 2.0170670885607716E8 ; 1.2526235354802798E8 ; 1.567846107373877E10 ; 0.0
87 ; 1736467.0697442272 ; 2.0172142455117488E8 ; 1.269965331023136E8 ; 1.5880167782594847E10 ; 0.0
88 ; 1733307.5383365839 ; 2.0173614929975763E8 ; 1.2873300017205782E8 ; 1.608188920714602E10 ; 0.0
89 ; 1734068.6022045533 ; 2.017508817219092E8 ; 1.3046630771039441E8 ; 1.6283625356445778E10 ; 0.0
90 ; 1736684.1954295242 ; 2.0176562048121625E8 ; 1.3220037631259896E8 ; 1.6485376238167686E10 ; 0.0
91 ; 1732791.6632168195 ; 2.017803642827507E8 ; 1.3393706050802848E8 ; 1.6687141858648903E10 ; 0.0
92 ; 1734142.6983686327 ; 2.0179511187115738E8 ; 1.356698521712453E8 ; 1.6888922222931654E10 ; 0.0
93 ; 1737888.0562663532 ; 2.0180986202884248E8 ; 1.3740399486961395E8 ; 1.709071733480281E10 ; 0.0
94 ; 1736017.8402382543 ; 2.0182461357425612E8 ; 1.391418829258803E8 ; 1.7292527196831654E10 ; 0.0
95 ; 1732237.2165393678 ; 2.0183936536026418E8 ; 1.4087790076611856E8 ; 1.749435181040591E10 ; 0.0
96 ; 1735358.8970214617 ; 2.018541162726048E8 ; 1.426101379826579E8 ; 1.7696191175766174E10 ; 0.0
97 ; 1733507.445417707 ; 2.0186886522842416E8 ; 1.4434549687967938E8 ; 1.789804529203878E10 ; 0.0
98 ; 1737389.970138575 ; 2.018836111748878E8 ; 1.4607900432509708E8 ; 1.8099914157267204E10 ; 0.0
99 ; 1733391.7412955652 ; 2.0189835308786285E8 ; 1.4781639429523566E8 ; 1.8301797768442093E10 ; 0.0
100 ; 1732434.830471872 ; 2.019130899706674E8 ; 1.4954978603653124E8 ; 1.8503696121529957E10 ; 0.0
101 ; 1732505.397253699 ; 2.019278208528835E8 ; 1.512822208670031E8 ; 1.8705609211500626E10 ; 0.0
102 ; 1730754.919362989 ; 2.0194254478922987E8 ; 1.530147262642568E8 ; 1.8907537032353508E10 ; 0.0
103 ; 1731927.9786454476 ; 2.0195726085849154E8 ; 1.547454811836198E8 ; 1.910947957714274E10 ; 0.0
104 ; 1729175.362911727 ; 2.0197196816250294E8 ; 1.5647740916226524E8 ; 1.931143683800123E10 ; 0.0
105 ; 1731251.2769804106 ; 2.0198666582518148E8 ; 1.5820658452517697E8 ; 1.951340880616373E10 ; 0.0
106 ; 1727089.130221312 ; 2.020013529916094E8 ; 1.5993783580215737E8 ; 1.971539547198891E10 ; 0.0
107 ; 1726463.9584676388 ; 2.0201602882716054E8 ; 1.6166492493237868E8 ; 1.991739682498052E10 ; 0.0
108 ; 1726575.5587530204 ; 2.0203069251667017E8 ; 1.633913888908463E8 ; 2.011941285380768E10 ; 0.0
109 ; 1723075.9491243535 ; 2.0204534326364538E8 ; 1.6511796444959933E8 ; 2.032144354632435E10 ; 0.0
110 ; 1726437.5553921964 ; 2.0205998028951374E8 ; 1.668410403987237E8 ; 2.0523488889587994E10 ; 0.0
111 ; 1721432.080392445 ; 2.0207460283290827E8 ; 1.685674779541159E8 ; 2.0725548869877506E10 ; 0.0
112 ; 1721438.2477047534 ; 2.02089210148987E8 ; 1.7028891003450835E8 ; 2.0927623472710415E10 ; 0.0
113 ; 1719906.3935839268 ; 2.0210380150878468E8 ; 1.720103482822131E8 ; 2.11297126828594E10 ; 0.0
114 ; 1718316.8086195337 ; 2.02118376198596E8 ; 1.7373025467579702E8 ; 2.1331816484368187E10 ; 0.0
115 ; 1715022.118452117 ; 2.021329335193873E8 ; 1.7544857148441654E8 ; 2.1533934860566784E10 ; 0.0
116 ; 1719716.5808945484 ; 2.0214747278623652E8 ; 1.7716359360286868E8 ; 2.173606779408617E10 ; 0.0
117 ; 1714253.9669247929 ; 2.021619933277992E8 ; 1.7888331018376324E8 ; 2.1938215266872406E10 ; 0.0
118 ; 1713869.1779260258 ; 2.0217649448579934E8 ; 1.8059756415068802E8 ; 2.2140377260200207E10 ; 0.0
119 ; 1710459.0068220398 ; 2.0219097561454394E8 ; 1.8231143332861406E8 ; 2.2342553754686005E10 ; 0.0
120 ; 1708480.6632756742 ; 2.0220543608046E8 ; 1.840218923354361E8 ; 2.254474473030055E10 ; 0.0
121 ; 1708549.3264764892 ; 2.0221987526165274E8 ; 1.857303729987118E8 ; 2.274695016638101E10 ; 0.0
122 ; 1708071.0617553329 ; 2.022342925474837E8 ; 1.8743892232518828E8 ; 2.2949170041642662E10 ; 0.0
123 ; 1704619.9147856035 ; 2.0224868733816865E8 ; 1.891469933869436E8 ; 2.3151404334190147E10 ; 0.0
124 ; 1702405.4063031771 ; 2.0226305904439297E8 ; 1.908516133017292E8 ; 2.3353653021528316E10 ; 0.0
125 ; 1703459.2067579422 ; 2.0227740708694482E8 ; 1.9255401870803237E8 ; 2.355591608057271E10 ; 0.0
126 ; 1698943.4605645067 ; 2.0229173089636445E8 ; 1.942574779147903E8 ; 2.3758193487659653E10 ; 0.0
127 ; 1700355.1727336906 ; 2.023060299126092E8 ; 1.959564213753548E8 ; 2.396048521855602E10 ; 0.0
128 ; 1698196.1513435785 ; 2.023203035847334E8 ; 1.976567765480885E8 ; 2.4162791248468628E10 ; 0.0
129 ; 1693097.7095015477 ; 2.0233455137058222E8 ; 1.9935497269943208E8 ; 2.436511155205336E10 ; 0.0
130 ; 1692684.4601802947 ; 2.0234877273649907E8 ; 2.010480704089336E8 ; 2.4567446103423943E10 ; 0.0
131 ; 1683935.90353452 ; 2.023629671570456E8 ; 2.027407548691139E8 ; 2.4769794876160442E10 ; 0.0
132 ; 1683065.472522866 ; 2.023771341147341E8 ; 2.0442469077264842E8 ; 2.497215784331749E10 ; 0.0
133 ; 1677019.2211407705 ; 2.023912730997712E8 ; 2.0610775624517128E8 ; 2.5174534977432224E10 ; 0.0
134 ; 1674481.3034718973 ; 2.024053836098126E8 ; 2.0778477546631205E8 ; 2.5376926250531994E10 ; 0.0
135 ; 1668586.9617595186 ; 2.024194651497285E8 ; 2.0945925676978394E8 ; 2.5579331634141808E10 ; 0.0
136 ; 1664690.3679904405 ; 2.024335172313788E8 ; 2.1112784373154345E8 ; 2.5781751099291534E10 ; 0.0
137 ; 1659053.696572839 ; 2.0244753937339786E8 ; 2.127925340995339E8 ; 2.5984184616522915E10 ; 0.0
138 ; 1655054.332138569 ; 2.0246153110098833E8 ; 2.1445158779610673E8 ; 2.6186632155896313E10 ; 0.0
139 ; 1650498.1400313412 ; 2.0247549194572365E8 ; 2.161066421282453E8 ; 2.63890936869973E10 ; 0.0
140 ; 1644902.5307042347 ; 2.0248942144535878E8 ; 2.1775714026827663E8 ; 2.6591569178943024E10 ; 0.0
141 ; 1640735.7875905635 ; 2.025033191436488E8 ; 2.1940204279898086E8 ; 2.6794058600388382E10 ; 0.0
142 ; 1633997.9818609082 ; 2.0251718459017488E8 ; 2.2104277858657143E8 ; 2.6996561919532032E10 ; 0.0
143 ; 1627875.4183597185 ; 2.0253101734017763E8 ; 2.2267677656843233E8 ; 2.7199079104122208E10 ; 0.0
144 ; 1623775.6059840801 ; 2.0254481695439705E8 ; 2.2430465198679206E8 ; 2.7401610121462387E10 ; 0.0
145 ; 1622280.0344484744 ; 2.0255858299891922E8 ; 2.2592842759277615E8 ; 2.7604154938416782E10 ; 0.0
146 ; 1620295.100012828 ; 2.0257231504502904E8 ; 2.2755070762722462E8 ; 2.7806713521415703E10 ; 0.0
147 ; 1616222.7863295074 ; 2.02586012669069E8 ; 2.2917100272723746E8 ; 2.800928583646073E10 ; 0.0
148 ; 1613996.0961142387 ; 2.0259967545230353E8 ; 2.3078722551356697E8 ; 2.82118718491298E10 ; 0.0
149 ; 1613896.0665877976 ; 2.02613302980789E8 ; 2.3240122160968122E8 ; 2.8414471524582104E10 ; 0.0
150 ; 1612057.5386261952 ; 2.0262689484524876E8 ; 2.3401511767626902E8 ; 2.8617084827562893E10 ; 0.0
151 ; 1609802.6364147638 ; 2.0264045064095294E8 ; 2.3562717521489522E8 ; 2.8819711722408142E10 ; 0.0
152 ; 1608242.5740533515 ; 2.026539699676035E8 ; 2.3723697785130998E8 ; 2.9022352173049095E10 ; 0.0
153 ; 1605344.5710120208 ; 2.026674524292233E8 ; 2.3884522042536333E8 ; 2.9225006143016697E10 ; 0.0
154 ; 1601602.3720317432 ; 2.026808976340499E8 ; 2.4045056499637535E8 ; 2.942767359544592E10 ; 0.0
155 ; 1600726.029369433 ; 2.026943051944332E8 ; 2.420521673684071E8 ; 2.9630354493079967E10 ; 0.0
156 ; 1597888.7184171875 ; 2.0270767472673738E8 ; 2.4365289339777654E8 ; 2.98330487982744E10 ; 0.0
157 ; 1594200.6315079129 ; 2.0272100585124633E8 ; 2.4525078211619374E8 ; 3.0035756473001137E10 ; 0.0
158 ; 1591477.070520782 ; 2.027342981920729E8 ; 2.4684498274770164E8 ; 3.0238477478852383E10 ; 0.0
159 ; 1591249.7374535704 ; 2.027475513770717E8 ; 2.4843645981822243E8 ; 3.0441211777044456E10 ; 0.0
160 ; 1587128.3214803208 ; 2.0276076503775513E8 ; 2.50027709555676E8 ; 3.0643959328421528E10 ; 0.0
161 ; 1583946.9467382699 ; 2.0277393880921254E8 ; 2.5161483787715635E8 ; 3.0846720093459282E10 ; 0.0
162 ; 1583460.634275618 ; 2.0278707233003268E8 ; 2.5319878482389462E8 ; 3.1049494032268494E10 ; 0.0
163 ; 1580633.5430591556 ; 2.0280016524222898E8 ; 2.5478224545817024E8 ; 3.1252281104598526E10 ; 0.0
164 ; 1581910.7701530883 ; 2.028132171911676E8 ; 2.563628790012294E8 ; 3.1455081269840755E10 ; 0.0
165 ; 1575845.416395409 ; 2.028262278254983E8 ; 2.5794478977138248E8 ; 3.165789448703192E10 ; 0.0
166 ; 1575102.283415492 ; 2.0283919679708785E8 ; 2.5952063518777788E8 ; 3.1860720714857418E10 ; 0.0
167 ; 1572638.0730495818 ; 2.028521237609558E8 ; 2.6109573747119337E8 ; 3.2063559911654507E10 ; 0.0
168 ; 1570140.9370881256 ; 2.0286500837521303E8 ; 2.6266837554424295E8 ; 3.2266412035415462E10 ; 0.0
169 ; 1567642.6663937056 ; 2.0287785030100206E8 ; 2.6423851648133108E8 ; 3.2469277043790676E10 ; 0.0
170 ; 1565360.0556398528 ; 2.0289064920244005E8 ; 2.6580615914772478E8 ; 3.267215489409168E10 ; 0.0
171 ; 1562752.4599187332 ; 2.0290340474656364E8 ; 2.6737151920336464E8 ; 3.2875045543294117E10 ; 0.0
172 ; 1559017.763640483 ; 2.0291611660327584E8 ; 2.6893427166328335E8 ; 3.307794894804068E10 ; 0.0
173 ; 1557444.1848846884 ; 2.0292878444529498E8 ; 2.704932894269238E8 ; 3.3280865064643955E10 ; 0.0
174 ; 1556995.1552684617 ; 2.0294140794810548E8 ; 2.720507336118085E8 ; 3.348379384908925E10 ; 0.0
175 ; 1554449.0027909814 ; 2.0295398678991032E8 ; 2.7360772876707697E8 ; 3.3686735257037354E10 ; 0.0
176 ; 1552639.1645965297 ; 2.0296652065158543E8 ; 2.7516217776986796E8 ; 3.3889689243827263E10 ; 0.0
177 ; 1547990.1371680163 ; 2.0297900921663564E8 ; 2.767148169344645E8 ; 3.4092655764478848E10 ; 0.0
178 ; 1548333.4507732685 ; 2.0299145217115223E8 ; 2.782628070716325E8 ; 3.4295634773695484E10 ; 0.0
179 ; 1548342.0910287914 ; 2.0300384920377192E8 ; 2.7981114052240574E8 ; 3.449862622586664E10 ; 0.0
180 ; 1548904.1843336145 ; 2.030162000056376E8 ; 2.8135948261343455E8 ; 3.470163007507041E10 ; 0.0
181 ; 1546510.5558601944 ; 2.0302850427036023E8 ; 2.829083867977682E8 ; 3.490464627507605E10 ; 0.0
182 ; 1543910.5919111646 ; 2.0304076169398224E8 ; 2.844548973536284E8 ; 3.510767477934641E10 ; 0.0
183 ; 1540865.654475581 ; 2.030529719749422E8 ; 2.8599880794553953E8 ; 3.53107155410404E10 ; 0.0
184 ; 1537583.1583997128 ; 2.0306513481404075E8 ; 2.875396736000151E8 ; 3.551376851301534E10 ; 0.0
185 ; 1539054.1940274201 ; 2.0307724991440776E8 ; 2.890772567584148E8 ; 3.5716833647829384E10 ; 0.0
186 ; 1533995.927708017 ; 2.030893169814707E8 ; 2.906163109524422E8 ; 3.591991089774379E10 ; 0.0
187 ; 1535270.634176043 ; 2.0310133572292408E8 ; 2.9215030688015026E8 ; 3.612300021472526E10 ; 0.0
188 ; 1531282.366997 ; 2.031133058487001E8 ; 2.936855775143263E8 ; 3.632610155044818E10 ; 0.0
189 ; 1532687.6772125287 ; 2.0312522707094005E8 ; 2.952168598813233E8 ; 3.652921485629688E10 ; 0.0
190 ; 1528232.951904101 ; 2.0313709910396713E8 ; 2.967495475585358E8 ; 3.673234008336782E10 ; 0.0
191 ; 1528349.3791561578 ; 2.0314892166425997E8 ; 2.9827778051043993E8 ; 3.693547718247179E10 ; 0.0
192 ; 1527630.8239389493 ; 2.031606944704271E8 ; 2.998061298895961E8 ; 3.713862610413605E10 ; 0.0
193 ; 1526960.4045589615 ; 2.0317241724318242E8 ; 3.013337607135351E8 ; 3.7341786798606476E10 ; 0.0
194 ; 1525162.5946910426 ; 2.0318408970532152E8 ; 3.02860721118094E8 ; 3.7544959215849655E10 ; 0.0
195 ; 1522787.2134931409 ; 2.0319571158169878E8 ; 3.0438588371278507E8 ; 3.774814330555498E10 ; 0.0
196 ; 1521125.5043584292 ; 2.0320728259920532E8 ; 3.0590867092627823E8 ; 3.795133901713667E10 ; 0.0
197 ; 1519818.7707281755 ; 2.0321880248674777E8 ; 3.0742979643063664E8 ; 3.815454629973588E10 ; 0.0
198 ; 1518806.095051281 ; 2.0323027097522768E8 ; 3.089496152013648E8 ; 3.8357765102222626E10 ; 0.0
199 ; 1515729.7254546122 ; 2.0324168779752174E8 ; 3.104684212964161E8 ; 3.856099537319785E10 ; 0.0
