CSV File for the City 3 on Day 321
1 - Minute m 
2 - Power Consumed at minute m 
3 - Power Produced at minute m 
4 - Energy Consumed since the beginning of the day 
5 - Energy Produced since the beginning of the day 
6 - Energy Lost since the beginning of the day on lines starting from the city
 
0 ; 2402694.0882792003 ; 1.0577427130074528E8 ; 0.0 ; 0.0 ; 0.0
1 ; 2406508.8921383712 ; 1.0592713966131902E8 ; 2402694.0882792003 ; 1.0577427130074528E8 ; 0.0
2 ; 2408599.503312382 ; 1.0638879967588338E8 ; 4809202.980417572 ; 2.117014109620643E8 ; 0.0
3 ; 2411607.1714079357 ; 1.0715925240463078E8 ; 7217802.483729954 ; 3.180902106379477E8 ; 0.0
4 ; 2415477.473375344 ; 1.0823849879249227E8 ; 9629409.65513789 ; 4.2524946304257846E8 ; 0.0
5 ; 2420724.662246941 ; 1.0962653966568452E8 ; 1.2044887128513234E7 ; 5.334879618350707E8 ; 0.0
6 ; 2425811.060505783 ; 1.1132337572865364E8 ; 1.4465611790760174E7 ; 6.431145015007553E8 ; 0.0
7 ; 2432440.2641548635 ; 1.1332900756144196E8 ; 1.689142285126596E7 ; 7.54437877229409E8 ; 0.0
8 ; 2445863.870330815 ; 1.1564343561749995E8 ; 1.9323863115420822E7 ; 8.677668847908509E8 ; 0.0
9 ; 2462330.023261787 ; 1.1826666022196472E8 ; 2.1769726985751636E7 ; 9.834103204083508E8 ; 0.0
10 ; 2488431.571762851 ; 1.2119868157041812E8 ; 2.423205700901342E7 ; 1.1016769806303155E9 ; 0.0
11 ; 2528687.9065912003 ; 1.2443949972813758E8 ; 2.6720488580776274E7 ; 1.2228756622007337E9 ; 0.0
12 ; 2595753.610391227 ; 1.2798911462984565E8 ; 2.9249176487367474E7 ; 1.3473151619288712E9 ; 0.0
13 ; 2659085.4825815926 ; 1.3184752607996047E8 ; 3.18449300977587E7 ; 1.4753042765587168E9 ; 0.0
14 ; 2666029.069773426 ; 1.36014733753345E8 ; 3.450401558034029E7 ; 1.6071518026386771E9 ; 0.0
15 ; 2670416.866946839 ; 1.404907371965487E8 ; 3.717004465011372E7 ; 1.7431665363920221E9 ; 0.0
16 ; 2672874.1445028395 ; 1.4527553582952932E8 ; 3.9840461517060556E7 ; 1.8836572735885708E9 ; 0.0
17 ; 2677893.8351432653 ; 1.5036912894784066E8 ; 4.25133356615634E7 ; 2.0289328094181E9 ; 0.0
18 ; 2680375.5902966824 ; 1.557715157252661E8 ; 4.5191229496706665E7 ; 2.1793019383659406E9 ; 0.0
19 ; 2683231.642697432 ; 1.6148269521687457E8 ; 4.787160508700335E7 ; 2.3350734540912066E9 ; 0.0
20 ; 2686446.6990650184 ; 1.6750266636247364E8 ; 5.055483672970078E7 ; 2.496556149308081E9 ; 0.0
21 ; 2688052.460935614 ; 1.7383142799042907E8 ; 5.32412834287658E7 ; 2.6640588156705546E9 ; 0.0
22 ; 2691098.3079695054 ; 1.8046897882182008E8 ; 5.592933588970142E7 ; 2.8378902436609836E9 ; 0.0
23 ; 2694842.4964433582 ; 1.874153174748962E8 ; 5.862043419767092E7 ; 3.018359222482804E9 ; 0.0
24 ; 2698645.0886788946 ; 1.9467044246979994E8 ; 6.131527669411428E7 ; 3.2057745399577E9 ; 0.0
25 ; 2703584.1656773766 ; 2.0092239313170332E8 ; 6.401392178279318E7 ; 3.4004449824275E9 ; 0.0
26 ; 2706982.8724724404 ; 2.0092471563284928E8 ; 6.6717505948470555E7 ; 3.601367375559203E9 ; 0.0
27 ; 2709036.0124018327 ; 2.009271775227565E8 ; 6.9424488820943E7 ; 3.8022920911920524E9 ; 0.0
28 ; 2712491.7889700136 ; 2.009297769804126E8 ; 7.213352483334483E7 ; 4.003219268714809E9 ; 0.0
29 ; 2715562.5952909593 ; 2.009325121130232E8 ; 7.484601662231484E7 ; 4.2041490456952214E9 ; 0.0
30 ; 2716550.4066444547 ; 2.009353809615639E8 ; 7.75615792176058E7 ; 4.405081557808245E9 ; 0.0
31 ; 2720983.0231387243 ; 2.0093838150634748E8 ; 8.027812962425025E7 ; 4.606016938769809E9 ; 0.0
32 ; 2723473.561676574 ; 2.0094151167257366E8 ; 8.299911264738896E7 ; 4.806955320276156E9 ; 0.0
33 ; 2726488.6785321604 ; 2.009447693358322E8 ; 8.572258620906554E7 ; 5.00789683194873E9 ; 0.0
34 ; 2729263.5058702896 ; 2.009481523275319E8 ; 8.84490748875977E7 ; 5.208841601284563E9 ; 0.0
35 ; 2732631.6521659056 ; 2.0095165844022924E8 ; 9.117833839346798E7 ; 5.409789753612095E9 ; 0.0
36 ; 2733396.8240931877 ; 2.00955285432835E8 ; 9.391097004563388E7 ; 5.610741412052324E9 ; 0.0
37 ; 2738408.060898743 ; 2.0095903103567734E8 ; 9.664436686972708E7 ; 5.811696697485159E9 ; 0.0
38 ; 2739217.3186384425 ; 2.0096289295540383E8 ; 9.938277493062581E7 ; 6.012655728520836E9 ; 0.0
39 ; 2741828.645319607 ; 2.0096686887970728E8 ; 1.0212199224926426E8 ; 6.21361862147624E9 ; 0.0
40 ; 2744039.852951025 ; 2.009709564818615E8 ; 1.0486382089458387E8 ; 6.4145854903559475E9 ; 0.0
41 ; 2747475.5684925946 ; 2.0097515342505723E8 ; 1.0760786074753489E8 ; 6.615556446837809E9 ; 0.0
42 ; 2749305.7173339995 ; 2.0097945736652923E8 ; 1.1035533631602748E8 ; 6.816531600262866E9 ; 0.0
43 ; 2750433.261031338 ; 2.0098386596146852E8 ; 1.1310464203336148E8 ; 7.0175110576293955E9 ; 0.0
44 ; 2752335.2476651333 ; 2.0098837686671552E8 ; 1.1585507529439282E8 ; 7.218494923590864E9 ; 0.0
45 ; 2755835.395149966 ; 2.0099298774423182E8 ; 1.1860741054205796E8 ; 7.41948330045758E9 ; 0.0
46 ; 2755877.597747798 ; 2.009976962643496E8 ; 1.2136324593720792E8 ; 7.620476288201812E9 ; 0.0
47 ; 2758563.9052524087 ; 2.0100250010880026E8 ; 1.2411912353495573E8 ; 7.821473984466162E9 ; 0.0
48 ; 2758868.25137268 ; 2.0100739697352386E8 ; 1.2687768744020814E8 ; 8.022476484574962E9 ; 0.0
49 ; 2761327.508487507 ; 2.0101238457126355E8 ; 1.2963655569158082E8 ; 8.223483881548486E9 ; 0.0
50 ; 2759641.1571800993 ; 2.010174606339493E8 ; 1.3239788320006832E8 ; 8.424496266119749E9 ; 0.0
51 ; 2762277.1960640275 ; 2.010226229148767E8 ; 1.3515752435724843E8 ; 8.625513726753698E9 ; 0.0
52 ; 2763317.522415231 ; 2.010278691906871E8 ; 1.3791980155331245E8 ; 8.826536349668575E9 ; 0.0
53 ; 2764753.4826150476 ; 2.010331972631564E8 ; 1.4068311907572767E8 ; 9.027564218859262E9 ; 0.0
54 ; 2764730.6752553782 ; 2.0103860496079972E8 ; 1.4344787255834273E8 ; 9.22859741612242E9 ; 0.0
55 ; 2764350.1910518897 ; 2.010440901403001E8 ; 1.462126032335981E8 ; 9.42963602108322E9 ; 0.0
56 ; 2767197.1023561032 ; 2.0104965068776983E8 ; 1.4897695342465E8 ; 9.63068011122352E9 ; 0.0
57 ; 2766903.5210398594 ; 2.0105528451985228E8 ; 1.5174415052700612E8 ; 9.83172976191129E9 ; 0.0
58 ; 2769213.883162985 ; 2.0106098958467337E8 ; 1.54511054048046E8 ; 1.003278504643114E10 ; 0.0
59 ; 2770882.3987065316 ; 2.0106676386265117E8 ; 1.5728026793120897E8 ; 1.0233846036015814E10 ; 0.0
60 ; 2770674.8383655944 ; 2.0107260536717206E8 ; 1.600511503299155E8 ; 1.0434912799878466E10 ; 0.0
61 ; 2772458.848478879 ; 2.010785121451423E8 ; 1.6282182516828108E8 ; 1.0635985405245638E10 ; 0.0
62 ; 2771905.3386786967 ; 2.0108448227742296E8 ; 1.6559428401675996E8 ; 1.083706391739078E10 ; 0.0
63 ; 2772017.564965285 ; 2.0109051387915698E8 ; 1.6836618935543865E8 ; 1.1038148399668203E10 ; 0.0
64 ; 2773282.906891663 ; 2.0109660509999534E8 ; 1.7113820692040393E8 ; 1.123923891354736E10 ; 0.0
65 ; 2773498.139725667 ; 2.011027541242311E8 ; 1.739114898272956E8 ; 1.1440335518647354E10 ; 0.0
66 ; 2773588.771780809 ; 2.0110895917084798E8 ; 1.7668498796702126E8 ; 1.1641438272771585E10 ; 0.0
67 ; 2776292.1951982765 ; 2.0111521849349076E8 ; 1.7945857673880208E8 ; 1.1842547231942434E10 ; 0.0
68 ; 2777113.281929604 ; 2.0112153038036424E8 ; 1.8223486893400034E8 ; 1.2043662450435925E10 ; 0.0
69 ; 2777412.7425750936 ; 2.011278931540674E8 ; 1.8501198221592996E8 ; 1.2244783980816288E10 ; 0.0
70 ; 2777880.1044030245 ; 2.0113430517136848E8 ; 1.8778939495850503E8 ; 1.2445911873970356E10 ; 0.0
71 ; 2778221.8072435935 ; 2.0114076482292706E8 ; 1.9056727506290805E8 ; 1.2647046179141724E10 ; 0.0
72 ; 2779106.0417408566 ; 2.0114727053296858E8 ; 1.9334549687015164E8 ; 1.2848186943964651E10 ; 0.0
73 ; 2779124.990539009 ; 2.0115382075891623E8 ; 1.961246029118925E8 ; 1.304933421449762E10 ; 0.0
74 ; 2779126.3327009254 ; 2.011604139909851E8 ; 1.9890372790243152E8 ; 1.3250488035256536E10 ; 0.0
75 ; 2779313.7529076394 ; 2.01167048751743E8 ; 2.0168285423513246E8 ; 1.3451648449247522E10 ; 0.0
76 ; 2781354.7669299096 ; 2.0117372359564245E8 ; 2.044621679880401E8 ; 1.3652815497999266E10 ; 0.0
77 ; 2781526.226282598 ; 2.011804371085272E8 ; 2.0724352275497E8 ; 1.3853989221594908E10 ; 0.0
78 ; 2782242.763941366 ; 2.0118718790711716E8 ; 2.100250489812526E8 ; 1.4055169658703436E10 ; 0.0
79 ; 2781715.078483208 ; 2.0119397463847524E8 ; 2.12807291745194E8 ; 1.4256356846610554E10 ; 0.0
80 ; 2779625.7379463837 ; 2.0120079597945875E8 ; 2.1558900682367718E8 ; 1.445755082124903E10 ; 0.0
81 ; 2779821.961813849 ; 2.012076506361586E8 ; 2.1836863256162357E8 ; 1.4658751617228487E10 ; 0.0
82 ; 2779098.2009104486 ; 2.012145373433284E8 ; 2.211484545234374E8 ; 1.4859959267864645E10 ; 0.0
83 ; 2778534.3504419676 ; 2.0122145486380666E8 ; 2.2392755272434786E8 ; 1.5061173805207973E10 ; 0.0
84 ; 2778339.831560289 ; 2.012284019879331E8 ; 2.2670608707478982E8 ; 1.526239526007178E10 ; 0.0
85 ; 2778365.9019395337 ; 2.0123537753296208E8 ; 2.294844269063501E8 ; 1.5463623662059711E10 ; 0.0
86 ; 2777338.453814372 ; 2.012423803424743E8 ; 2.3226279280828965E8 ; 1.5664859039592674E10 ; 0.0
87 ; 2778239.022308208 ; 2.012494092857888E8 ; 2.35040131262104E8 ; 1.5866101419935148E10 ; 0.0
88 ; 2778288.8970785546 ; 2.0125646325737622E8 ; 2.378183702844122E8 ; 1.6067350829220938E10 ; 0.0
89 ; 2776689.050057194 ; 2.0126354117627516E8 ; 2.4059665918149075E8 ; 1.6268607292478313E10 ; 0.0
90 ; 2775046.032611552 ; 2.0127064198551252E8 ; 2.4337334823154795E8 ; 1.6469870833654589E10 ; 0.0
91 ; 2773685.7504720753 ; 2.012777646515287E8 ; 2.461483942641595E8 ; 1.66711414756401E10 ; 0.0
92 ; 2773995.9621491246 ; 2.0128490816360906E8 ; 2.4892208001463157E8 ; 1.687241924029163E10 ; 0.0
93 ; 2772734.7914544553 ; 2.0129207153332204E8 ; 2.5169607597678068E8 ; 1.7073704148455238E10 ; 0.0
94 ; 2772012.037635974 ; 2.012992537939647E8 ; 2.5446881076823515E8 ; 1.727499621998856E10 ; 0.0
95 ; 2771167.0882904422 ; 2.0130645400001654E8 ; 2.5724082280587113E8 ; 1.7476295473782524E10 ; 0.0
96 ; 2770316.8725899085 ; 2.013136712266018E8 ; 2.6001198989416158E8 ; 1.767760192778254E10 ; 0.0
97 ; 2768979.7148874616 ; 2.0132090456896102E8 ; 2.627823067667515E8 ; 1.787891559900914E10 ; 0.0
98 ; 2768999.1129478854 ; 2.0132815314193192E8 ; 2.6555128648163897E8 ; 1.8080236503578102E10 ; 0.0
99 ; 2767374.198162742 ; 2.0133541607944027E8 ; 2.6832028559458685E8 ; 1.8281564656720036E10 ; 0.0
100 ; 2766358.91544348 ; 2.0134269253400055E8 ; 2.710876597927496E8 ; 1.8482900072799477E10 ; 0.0
101 ; 2765969.9864591826 ; 2.0134998167622724E8 ; 2.7385401870819306E8 ; 1.8684242765333477E10 ; 0.0
102 ; 2765015.8668576516 ; 2.013572826943561E8 ; 2.7661998869465226E8 ; 1.8885592747009705E10 ; 0.0
103 ; 2762122.616639602 ; 2.0136459479377633E8 ; 2.793850045615099E8 ; 1.908695002970406E10 ; 0.0
104 ; 2763180.604463267 ; 2.0137191719657308E8 ; 2.821471271781495E8 ; 1.9288314624497837E10 ; 0.0
105 ; 2761815.3295459277 ; 2.0137924914108068E8 ; 2.849103077826128E8 ; 1.948968654169441E10 ; 0.0
106 ; 2761342.385693113 ; 2.0138658988144654E8 ; 2.876721231121587E8 ; 1.9691065790835487E10 ; 0.0
107 ; 2760676.691537722 ; 2.013939386872056E8 ; 2.9043346549785185E8 ; 1.9892452380716934E10 ; 0.0
108 ; 2760132.1251252964 ; 2.0140129484286526E8 ; 2.931941421893896E8 ; 2.009384631940414E10 ; 0.0
109 ; 2758081.0922798538 ; 2.0140865764750096E8 ; 2.959542743145149E8 ; 2.0295247614247005E10 ; 0.0
110 ; 2757733.3820669535 ; 2.0141602641436186E8 ; 2.987123554067947E8 ; 2.0496656271894505E10 ; 0.0
111 ; 2756059.082326938 ; 2.014234004704872E8 ; 3.014700887888617E8 ; 2.0698072298308865E10 ; 0.0
112 ; 2756497.944104204 ; 2.0143077915633234E8 ; 3.0422614787118864E8 ; 2.089949569877935E10 ; 0.0
113 ; 2754608.499647856 ; 2.01438161825405E8 ; 3.0698264581529284E8 ; 2.1100926477935684E10 ; 0.0
114 ; 2753187.116029491 ; 2.0144554784391153E8 ; 3.097372543149407E8 ; 2.130236463976109E10 ; 0.0
115 ; 2749729.6735285404 ; 2.014529365904124E8 ; 3.124904414309702E8 ; 2.1503810187605E10 ; 0.0
116 ; 2749742.7785282633 ; 2.0146032745548773E8 ; 3.1524017110449874E8 ; 2.170526312419541E10 ; 0.0
117 ; 2748474.9897555523 ; 2.014677198414116E8 ; 3.17989913883027E8 ; 2.1906723451650898E10 ; 0.0
118 ; 2746309.515477952 ; 2.01475113161836E8 ; 3.207383888727826E8 ; 2.210819117149231E10 ; 0.0
119 ; 2745505.396940836 ; 2.014825068414834E8 ; 3.2348469838826054E8 ; 2.2309666284654144E10 ; 0.0
120 ; 2747058.5045934063 ; 2.014899003158482E8 ; 3.262302037852014E8 ; 2.251114879149563E10 ; 0.0
121 ; 2744122.5239015627 ; 2.0149729303090674E8 ; 3.289772622897948E8 ; 2.2712638691811478E10 ; 0.0
122 ; 2741850.8978436072 ; 2.0150468444283566E8 ; 3.317213848136964E8 ; 2.2914135984842384E10 ; 0.0
123 ; 2740993.7936237114 ; 2.0151207401773846E8 ; 3.3446323571154E8 ; 2.311564066928522E10 ; 0.0
124 ; 2739582.6498807645 ; 2.0151946123138008E8 ; 3.3720422950516367E8 ; 2.331715274330296E10 ; 0.0
125 ; 2737455.938419177 ; 2.0152684556892905E8 ; 3.3994381215504444E8 ; 2.351867220453434E10 ; 0.0
126 ; 2736739.355083872 ; 2.015342265247075E8 ; 3.426812680934636E8 ; 2.3720199050103268E10 ; 0.0
127 ; 2736083.667076625 ; 2.0154160360194835E8 ; 3.454180074485475E8 ; 2.3921733276627975E10 ; 0.0
128 ; 2734659.873022857 ; 2.0154897631255987E8 ; 3.481540911156241E8 ; 2.4123274880229923E10 ; 0.0
129 ; 2732509.77049118 ; 2.0155634417689696E8 ; 3.50888750988647E8 ; 2.4324823856542484E10 ; 0.0
130 ; 2729357.5013198494 ; 2.015637067235396E8 ; 3.5362126075913817E8 ; 2.452638020071938E10 ; 0.0
131 ; 2728429.744956665 ; 2.0157106348907757E8 ; 3.56350618260458E8 ; 2.472794390744292E10 ; 0.0
132 ; 2726906.703872096 ; 2.01578414017902E8 ; 3.5907904800541466E8 ; 2.4929514970932E10 ; 0.0
133 ; 2723438.544156297 ; 2.0158575786200267E8 ; 3.6180595470928675E8 ; 2.51310933849499E10 ; 0.0
134 ; 2721095.6038677115 ; 2.0159309458077198E8 ; 3.6452939325344306E8 ; 2.5332679142811905E10 ; 0.0
135 ; 2717533.4506785846 ; 2.016004237408144E8 ; 3.672504888573108E8 ; 2.5534272237392677E10 ; 0.0
136 ; 2716611.2344380417 ; 2.0160774491576174E8 ; 3.6996802230798936E8 ; 2.573587266113349E10 ; 0.0
137 ; 2713984.527573972 ; 2.0161505768609416E8 ; 3.726846335424274E8 ; 2.593748040604925E10 ; 0.0
138 ; 2712708.129733795 ; 2.0162236163896644E8 ; 3.7539861807000136E8 ; 2.6139095463735344E10 ; 0.0
139 ; 2706850.2532446296 ; 2.0162965636803952E8 ; 3.7811132619973516E8 ; 2.634071782537431E10 ; 0.0
140 ; 2705672.556318367 ; 2.0163694147331712E8 ; 3.808181764529798E8 ; 2.6542347481742348E10 ; 0.0
141 ; 2703493.1863258886 ; 2.0164421656098744E8 ; 3.8352384900929815E8 ; 2.6743984423215664E10 ; 0.0
142 ; 2700864.436808315 ; 2.016514812432695E8 ; 3.8622734219562405E8 ; 2.694562863977665E10 ; 0.0
143 ; 2697654.623430937 ; 2.016587351382641E8 ; 3.8892820663243234E8 ; 2.714728012101992E10 ; 0.0
144 ; 2694669.5294475183 ; 2.0166597786980948E8 ; 3.9162586125586325E8 ; 2.7348938856158184E10 ; 0.0
145 ; 2693943.4192423727 ; 2.0167320906734115E8 ; 3.9432053078531075E8 ; 2.7550604834027992E10 ; 0.0
146 ; 2691139.119455344 ; 2.0168042836575615E8 ; 3.970144742045531E8 ; 2.7752278043095333E10 ; 0.0
147 ; 2690586.1725960732 ; 2.0168763540528122E8 ; 3.9970561332400846E8 ; 2.795395847146109E10 ; 0.0
148 ; 2690473.6400174988 ; 2.016948298313451E8 ; 4.0239619949660456E8 ; 2.815564610686637E10 ; 0.0
149 ; 2687488.623245293 ; 2.0170201129445466E8 ; 4.050866731366221E8 ; 2.8357340936697716E10 ; 0.0
150 ; 2685043.320260209 ; 2.0170917945007464E8 ; 4.0777416175986737E8 ; 2.8559042947992172E10 ; 0.0
151 ; 2685095.2406334537 ; 2.0171633395851135E8 ; 4.104592050801276E8 ; 2.8760752127442245E10 ; 0.0
152 ; 2684404.326381399 ; 2.0172347448479939E8 ; 4.13144300320761E8 ; 2.8962468461400757E10 ; 0.0
153 ; 2681042.1191008636 ; 2.0173060069859228E8 ; 4.158287046471424E8 ; 2.9164191935885555E10 ; 0.0
154 ; 2679301.01659291 ; 2.01737712274056E8 ; 4.185097467662433E8 ; 2.936592253658415E10 ; 0.0
155 ; 2677406.4687678157 ; 2.01744808889766E8 ; 4.211890477828362E8 ; 2.9567660248858204E10 ; 0.0
156 ; 2676254.354011605 ; 2.0175189022860715E8 ; 4.23866454251604E8 ; 2.976940505774797E10 ; 0.0
157 ; 2671298.016067425 ; 2.017589559776767E8 ; 4.265427086056156E8 ; 2.9971156947976578E10 ; 0.0
158 ; 2666567.0094826077 ; 2.0176600582819012E8 ; 4.2921400662168306E8 ; 3.0172915903954254E10 ; 0.0
159 ; 2660462.232830721 ; 2.0177303947539005E8 ; 4.318805736311657E8 ; 3.0374681909782444E10 ; 0.0
160 ; 2654185.517178427 ; 2.0178005661845747E8 ; 4.345410358639964E8 ; 3.0576454949257835E10 ; 0.0
161 ; 2650942.048808126 ; 2.0178705696042597E8 ; 4.371952213811748E8 ; 3.0778235005876293E10 ; 0.0
162 ; 2642987.9238458313 ; 2.0179404020809835E8 ; 4.398461634299829E8 ; 3.098002206283672E10 ; 0.0
163 ; 2641278.8202759484 ; 2.0180100607196575E8 ; 4.424891513538287E8 ; 3.118181610304482E10 ; 0.0
164 ; 2635159.3924584608 ; 2.018079542661291E8 ; 4.451304301741047E8 ; 3.1383617109116783E10 ; 0.0
165 ; 2626700.941209985 ; 2.0181488450822315E8 ; 4.477655895665631E8 ; 3.158542506338291E10 ; 0.0
166 ; 2624012.742756784 ; 2.0182179651934245E8 ; 4.503922905077731E8 ; 3.1787239947891136E10 ; 0.0
167 ; 2616501.0337326354 ; 2.0182869002396977E8 ; 4.530163032505299E8 ; 3.198906174441048E10 ; 0.0
168 ; 2611178.6456151693 ; 2.0183556474990645E8 ; 4.5563280428426254E8 ; 3.2190890434434452E10 ; 0.0
169 ; 2606593.1115144757 ; 2.0184242042820486E8 ; 4.582439829298777E8 ; 3.2392725999184357E10 ; 0.0
170 ; 2601098.403942019 ; 2.0184925679310292E8 ; 4.6085057604139215E8 ; 3.259456841961256E10 ; 0.0
171 ; 2598105.354012367 ; 2.018560735819605E8 ; 4.634516744453342E8 ; 3.2796417676405663E10 ; 0.0
172 ; 2591243.9933435684 ; 2.0186287053519768E8 ; 4.6604977979934657E8 ; 3.299827374998762E10 ; 0.0
173 ; 2585472.4298130684 ; 2.0186964739623466E8 ; 4.6864102379269016E8 ; 3.320013662052282E10 ; 0.0
174 ; 2580999.5607617768 ; 2.0187640391143394E8 ; 4.7122649622250324E8 ; 3.3402006267919056E10 ; 0.0
175 ; 2575215.732940782 ; 2.018831398300434E8 ; 4.73807495783265E8 ; 3.360388267183049E10 ; 0.0
176 ; 2572119.8986368645 ; 2.0188985490414187E8 ; 4.763827115162058E8 ; 3.3805765811660534E10 ; 0.0
177 ; 2566497.8021575185 ; 2.0189654888858557E8 ; 4.7895483141484267E8 ; 3.4007655666564674E10 ; 0.0
178 ; 2561808.0033136145 ; 2.019E8 ; 4.815213292170002E8 ; 3.420955221545326E10 ; 0.0
179 ; 2558086.711060271 ; 2.019E8 ; 4.840831372203138E8 ; 3.441145221545326E10 ; 0.0
180 ; 2553726.8465706306 ; 2.019E8 ; 4.866412239313741E8 ; 3.461335221545326E10 ; 0.0
181 ; 2547157.707474759 ; 2.019E8 ; 4.891949507779447E8 ; 3.481525221545326E10 ; 0.0
182 ; 2543469.4574050554 ; 2.019E8 ; 4.9174210848541945E8 ; 3.501715221545326E10 ; 0.0
183 ; 2540110.433934463 ; 2.019E8 ; 4.942855779428245E8 ; 3.521905221545326E10 ; 0.0
184 ; 2532677.357959882 ; 2.019E8 ; 4.9682568837675893E8 ; 3.542095221545326E10 ; 0.0
185 ; 2529500.493104723 ; 2.019E8 ; 4.993583657347188E8 ; 3.562285221545326E10 ; 0.0
186 ; 2525970.0693013626 ; 2.019E8 ; 5.018878662278235E8 ; 3.582475221545326E10 ; 0.0
187 ; 2519281.666447397 ; 2.019E8 ; 5.0441383629712486E8 ; 3.602665221545326E10 ; 0.0
188 ; 2515414.395367575 ; 2.019E8 ; 5.0693311796357226E8 ; 3.622855221545326E10 ; 0.0
189 ; 2510284.688014865 ; 2.019E8 ; 5.094485323589398E8 ; 3.643045221545326E10 ; 0.0
190 ; 2506114.0865399074 ; 2.019E8 ; 5.119588170469547E8 ; 3.663235221545326E10 ; 0.0
191 ; 2502267.5822988637 ; 2.019E8 ; 5.144649311334946E8 ; 3.683425221545326E10 ; 0.0
192 ; 2497304.684863409 ; 2.019E8 ; 5.169671987157935E8 ; 3.703615221545326E10 ; 0.0
193 ; 2492384.0601767325 ; 2.019E8 ; 5.194645034006569E8 ; 3.723805221545326E10 ; 0.0
194 ; 2486894.71517451 ; 2.019E8 ; 5.219568874608336E8 ; 3.743995221545326E10 ; 0.0
195 ; 2481037.540150098 ; 2.019E8 ; 5.244437821760081E8 ; 3.764185221545326E10 ; 0.0
196 ; 2478265.8460119027 ; 2.019E8 ; 5.269248197161582E8 ; 3.784375221545326E10 ; 0.0
197 ; 2475107.073964372 ; 2.019E8 ; 5.294030855621701E8 ; 3.804565221545326E10 ; 0.0
198 ; 2469430.748124646 ; 2.019E8 ; 5.3187819263613445E8 ; 3.824755221545326E10 ; 0.0
199 ; 2463573.2057901733 ; 2.019E8 ; 5.343476233842591E8 ; 3.844945221545326E10 ; 0.0
200 ; 2459615.74705197 ; 2.019E8 ; 5.3681119659004927E8 ; 3.865135221545326E10 ; 0.0
201 ; 2453921.8179316707 ; 1.6783525934166494E8 ; 5.392708123371012E8 ; 3.885325221545326E10 ; 0.0
202 ; 2448633.233565793 ; 1.527127382774142E8 ; 5.417247341550329E8 ; 3.902108747479493E10 ; 0.0
203 ; 2444304.9061835897 ; 1.5236626757342157E8 ; 5.441733673885987E8 ; 3.917380021307234E10 ; 0.0
