CSV File for the City 5 on Day 3
1 - Minute m 
2 - Power Consumed at minute m 
3 - Power Produced at minute m 
4 - Energy Consumed since the beginning of the day 
5 - Energy Produced since the beginning of the day 
6 - Energy Lost since the beginning of the day on lines starting from the city
 
0 ; 8491980.329994151 ; 1.010667865351498E7 ; 0.0 ; 0.0 ; 0.0
1 ; 8499578.603561085 ; 1.010667865351498E7 ; 8491980.329994151 ; 1.010667865351498E7 ; 0.0
2 ; 8509841.219927967 ; 1.010667865351498E7 ; 1.6991558933555238E7 ; 2.021335730702996E7 ; 0.0
3 ; 8521649.9210106 ; 1.010667865351498E7 ; 2.5501400153483205E7 ; 3.0320035960544936E7 ; 0.0
4 ; 8531887.577859266 ; 1.010667865351498E7 ; 3.40230500744938E7 ; 4.042671461405992E7 ; 0.0
5 ; 8550212.291706746 ; 1.010667865351498E7 ; 4.255493765235307E7 ; 5.05333932675749E7 ; 0.0
6 ; 8568179.818854764 ; 1.010667865351498E7 ; 5.110514994405982E7 ; 6.064007192108988E7 ; 0.0
7 ; 8599612.48337931 ; 1.010667865351498E7 ; 5.967332976291458E7 ; 7.074675057460485E7 ; 0.0
8 ; 8642992.145528968 ; 1.010667865351498E7 ; 6.827294224629389E7 ; 8.085342922811984E7 ; 0.0
9 ; 8706208.66082074 ; 1.010667865351498E7 ; 7.691593439182286E7 ; 9.096010788163482E7 ; 0.0
10 ; 8800306.399734823 ; 1.010667865351498E7 ; 8.56221430526436E7 ; 1.010667865351498E8 ; 0.0
11 ; 8954951.74216227 ; 1.010667865351498E7 ; 9.442244945237842E7 ; 1.1117346518866478E8 ; 0.0
12 ; 9205387.901399747 ; 1.010667865351498E7 ; 1.033774011945407E8 ; 1.2128014384217976E8 ; 0.0
13 ; 9442278.624141369 ; 1.010667865351498E7 ; 1.1258278909594044E8 ; 1.3138682249569474E8 ; 0.0
14 ; 9470387.44217771 ; 1.010667865351498E7 ; 1.220250677200818E8 ; 1.414935011492097E8 ; 0.0
15 ; 9481276.56854739 ; 1.010667865351498E7 ; 1.3149545516225952E8 ; 1.516001798027247E8 ; 0.0
16 ; 9493166.673485504 ; 1.010667865351498E7 ; 1.4097673173080692E8 ; 1.6170685845623967E8 ; 0.0
17 ; 9502653.936296724 ; 1.010667865351498E7 ; 1.5046989840429243E8 ; 1.7181353710975465E8 ; 0.0
18 ; 9514988.090254348 ; 1.010667865351498E7 ; 1.5997255234058917E8 ; 1.8192021576326963E8 ; 0.0
19 ; 9528235.750063566 ; 1.010667865351498E7 ; 1.694875404308435E8 ; 1.920268944167846E8 ; 0.0
20 ; 9533413.90449485 ; 1.010667865351498E7 ; 1.7901577618090707E8 ; 2.021335730702996E8 ; 0.0
21 ; 9550187.195823353 ; 1.010667865351498E7 ; 1.8854919008540192E8 ; 2.1224025172381458E8 ; 0.0
22 ; 9559760.25350445 ; 1.010667865351498E7 ; 1.9809937728122526E8 ; 2.2234693037732956E8 ; 0.0
23 ; 9570389.302382631 ; 1.010667865351498E7 ; 2.0765913753472972E8 ; 2.3245360903084454E8 ; 0.0
24 ; 9583253.368535714 ; 1.010667865351498E7 ; 2.1722952683711234E8 ; 2.4256028768435952E8 ; 0.0
25 ; 9592365.106874306 ; 1.010667865351498E7 ; 2.2681278020564806E8 ; 2.526669663378745E8 ; 0.0
26 ; 9603500.034666 ; 1.010667865351498E7 ; 2.3640514531252238E8 ; 2.6277364499138948E8 ; 0.0
27 ; 9613890.887061063 ; 1.010667865351498E7 ; 2.4600864534718838E8 ; 2.7288032364490443E8 ; 0.0
28 ; 9626309.85763276 ; 1.010667865351498E7 ; 2.5562253623424944E8 ; 2.829870022984194E8 ; 0.0
29 ; 9635645.487587947 ; 1.010667865351498E7 ; 2.652488460918822E8 ; 2.930936809519344E8 ; 0.0
30 ; 9647457.76324667 ; 1.010667865351498E7 ; 2.7488449157947016E8 ; 3.032003596054494E8 ; 0.0
31 ; 9656923.802811213 ; 1.010667865351498E7 ; 2.845319493427168E8 ; 3.1330703825896436E8 ; 0.0
32 ; 9668258.2364823 ; 1.010667865351498E7 ; 2.94188873145528E8 ; 3.2341371691247934E8 ; 0.0
33 ; 9675851.884003134 ; 1.010667865351498E7 ; 3.0385713138201034E8 ; 3.335203955659943E8 ; 0.0
34 ; 9687233.418640878 ; 1.010667865351498E7 ; 3.135329832660135E8 ; 3.436270742195093E8 ; 0.0
35 ; 9695330.639423687 ; 1.010667865351498E7 ; 3.2322021668465436E8 ; 3.537337528730243E8 ; 0.0
36 ; 9703989.868711326 ; 1.010667865351498E7 ; 3.32915547324078E8 ; 3.6384043152653927E8 ; 0.0
37 ; 9715561.017731477 ; 1.010667865351498E7 ; 3.426195371927894E8 ; 3.7394711018005425E8 ; 0.0
38 ; 9721967.249335038 ; 1.010667865351498E7 ; 3.5233509821052086E8 ; 3.840537888335692E8 ; 0.0
39 ; 9729230.632717205 ; 1.010667865351498E7 ; 3.620570654598559E8 ; 3.941604674870842E8 ; 0.0
40 ; 9736867.13802943 ; 1.010667865351498E7 ; 3.717862960925731E8 ; 4.042671461405992E8 ; 0.0
41 ; 9745810.802901544 ; 1.010667865351498E7 ; 3.8152316323060256E8 ; 4.143738247941142E8 ; 0.0
42 ; 9751143.279012997 ; 1.010667865351498E7 ; 3.912689740335041E8 ; 4.2448050344762915E8 ; 0.0
43 ; 9757262.541963916 ; 1.010667865351498E7 ; 4.010201173125171E8 ; 4.3458718210114413E8 ; 0.0
44 ; 9763809.536819786 ; 1.010667865351498E7 ; 4.1077737985448104E8 ; 4.446938607546591E8 ; 0.0
45 ; 9765393.391920567 ; 1.010667865351498E7 ; 4.205411893913008E8 ; 4.548005394081741E8 ; 0.0
46 ; 9773189.14222287 ; 1.010667865351498E7 ; 4.3030658278322136E8 ; 4.649072180616891E8 ; 0.0
47 ; 9778552.184763335 ; 1.010667865351498E7 ; 4.4007977192544425E8 ; 4.7501389671520406E8 ; 0.0
48 ; 9781167.5324552 ; 1.010667865351498E7 ; 4.4985832411020756E8 ; 4.8512057536871904E8 ; 0.0
49 ; 9785603.062649455 ; 1.010667865351498E7 ; 4.5963949164266276E8 ; 4.95227254022234E8 ; 0.0
50 ; 9789247.365723692 ; 1.010667865351498E7 ; 4.694250947053122E8 ; 5.05333932675749E8 ; 0.0
51 ; 9792959.295703515 ; 1.010667865351498E7 ; 4.7921434207103586E8 ; 5.15440611329264E8 ; 0.0
52 ; 9797024.622326672 ; 1.010667865351498E7 ; 4.890073013667394E8 ; 5.2554728998277897E8 ; 0.0
53 ; 9796104.08656318 ; 1.010667865351498E7 ; 4.9880432598906606E8 ; 5.3565396863629395E8 ; 0.0
54 ; 9798138.361050611 ; 1.010667865351498E7 ; 5.0860043007562923E8 ; 5.457606472898089E8 ; 0.0
55 ; 9804640.050908487 ; 1.010667865351498E7 ; 5.1839856843667984E8 ; 5.558673259433239E8 ; 0.0
56 ; 9805170.788071468 ; 1.010667865351498E7 ; 5.2820320848758835E8 ; 5.659740045968388E8 ; 0.0
57 ; 9808561.43284681 ; 1.010667865351498E7 ; 5.380083792756598E8 ; 5.760806832503538E8 ; 0.0
58 ; 9807865.993627353 ; 1.010667865351498E7 ; 5.478169407085066E8 ; 5.861873619038688E8 ; 0.0
59 ; 9812302.441227153 ; 1.010667865351498E7 ; 5.576248067021339E8 ; 5.962940405573838E8 ; 0.0
60 ; 9815422.994723946 ; 1.010667865351498E7 ; 5.674371091433611E8 ; 6.064007192108988E8 ; 0.0
61 ; 9818226.328624012 ; 1.010667865351498E7 ; 5.77252532138085E8 ; 6.165073978644137E8 ; 0.0
62 ; 9815681.199024841 ; 1.010667865351498E7 ; 5.87070758466709E8 ; 6.266140765179287E8 ; 0.0
63 ; 9820666.464297028 ; 1.010667865351498E7 ; 5.968864396657338E8 ; 6.367207551714437E8 ; 0.0
64 ; 9819676.481357932 ; 1.010667865351498E7 ; 6.067071061300309E8 ; 6.468274338249587E8 ; 0.0
65 ; 9824600.243880372 ; 1.010667865351498E7 ; 6.165267826113888E8 ; 6.569341124784737E8 ; 0.0
66 ; 9823408.37403764 ; 1.010667865351498E7 ; 6.263513828552692E8 ; 6.670407911319886E8 ; 0.0
67 ; 9826038.276128583 ; 1.010667865351498E7 ; 6.361747912293068E8 ; 6.771474697855036E8 ; 0.0
68 ; 9827875.51072106 ; 1.010667865351498E7 ; 6.460008295054353E8 ; 6.872541484390186E8 ; 0.0
69 ; 9828515.862237033 ; 1.010667865351498E7 ; 6.558287050161564E8 ; 6.973608270925336E8 ; 0.0
70 ; 9828546.006841239 ; 1.010667865351498E7 ; 6.656572208783934E8 ; 7.074675057460486E8 ; 0.0
71 ; 9831820.771252304 ; 1.010667865351498E7 ; 6.754857668852346E8 ; 7.175741843995636E8 ; 0.0
72 ; 9832857.839891013 ; 1.010667865351498E7 ; 6.853175876564869E8 ; 7.276808630530785E8 ; 0.0
73 ; 9835502.096947854 ; 1.010667865351498E7 ; 6.951504454963778E8 ; 7.377875417065935E8 ; 0.0
74 ; 9833818.972600797 ; 1.010667865351498E7 ; 7.049859475933257E8 ; 7.478942203601085E8 ; 0.0
75 ; 9837918.427023532 ; 1.010667865351498E7 ; 7.148197665659266E8 ; 7.580008990136235E8 ; 0.0
76 ; 9831911.719397953 ; 1.010667865351498E7 ; 7.246576849929501E8 ; 7.681075776671385E8 ; 0.0
77 ; 9837930.125018498 ; 1.010667865351498E7 ; 7.34489596712348E8 ; 7.782142563206534E8 ; 0.0
78 ; 9834140.024831528 ; 1.010667865351498E7 ; 7.443275268373665E8 ; 7.883209349741684E8 ; 0.0
79 ; 9830584.79502102 ; 1.010667865351498E7 ; 7.54161666862198E8 ; 7.984276136276834E8 ; 0.0
80 ; 9828471.902470855 ; 1.010667865351498E7 ; 7.63992251657219E8 ; 8.085342922811984E8 ; 0.0
81 ; 9825014.38666042 ; 1.010667865351498E7 ; 7.738207235596899E8 ; 8.186409709347134E8 ; 0.0
82 ; 9821772.987295698 ; 1.010667865351498E7 ; 7.836457379463503E8 ; 8.287476495882283E8 ; 0.0
83 ; 9821447.918867804 ; 1.010667865351498E7 ; 7.934675109336461E8 ; 8.388543282417433E8 ; 0.0
84 ; 9814607.981749134 ; 1.010667865351498E7 ; 8.032889588525139E8 ; 8.489610068952583E8 ; 0.0
85 ; 9813740.43866652 ; 1.010667865351498E7 ; 8.131035668342631E8 ; 8.590676855487733E8 ; 0.0
86 ; 9809621.733787885 ; 1.010667865351498E7 ; 8.229173072729295E8 ; 8.691743642022883E8 ; 0.0
87 ; 9807314.601696968 ; 1.010667865351498E7 ; 8.327269290067174E8 ; 8.792810428558033E8 ; 0.0
88 ; 9802075.759661576 ; 1.010667865351498E7 ; 8.425342436084144E8 ; 8.893877215093182E8 ; 0.0
89 ; 9797204.150247172 ; 1.010667865351498E7 ; 8.52336319368076E8 ; 8.994944001628332E8 ; 0.0
90 ; 9794630.232291894 ; 1.010667865351498E7 ; 8.621335235183232E8 ; 9.096010788163482E8 ; 0.0
91 ; 9793590.582573818 ; 1.010667865351498E7 ; 8.719281537506151E8 ; 9.197077574698632E8 ; 0.0
92 ; 9788305.499271797 ; 1.010667865351498E7 ; 8.817217443331889E8 ; 9.298144361233782E8 ; 0.0
93 ; 9781773.876892442 ; 1.010667865351498E7 ; 8.915100498324606E8 ; 9.399211147768931E8 ; 0.0
94 ; 9778626.072798342 ; 1.010667865351498E7 ; 9.012918237093531E8 ; 9.500277934304081E8 ; 0.0
95 ; 9776017.829828884 ; 1.010667865351498E7 ; 9.110704497821515E8 ; 9.601344720839231E8 ; 0.0
96 ; 9772360.04941304 ; 1.010667865351498E7 ; 9.208464676119803E8 ; 9.702411507374381E8 ; 0.0
97 ; 9770831.38794895 ; 1.010667865351498E7 ; 9.306188276613934E8 ; 9.803478293909531E8 ; 0.0
98 ; 9762888.04242708 ; 1.010667865351498E7 ; 9.403896590493424E8 ; 9.90454508044468E8 ; 0.0
99 ; 9760294.297675965 ; 1.010667865351498E7 ; 9.501525470917695E8 ; 1.000561186697983E9 ; 0.0
100 ; 9755167.974062491 ; 1.010667865351498E7 ; 9.599128413894454E8 ; 1.010667865351498E9 ; 0.0
101 ; 9749720.468374848 ; 1.010667865351498E7 ; 9.696680093635079E8 ; 1.020774544005013E9 ; 0.0
102 ; 9745174.452001385 ; 1.010667865351498E7 ; 9.794177298318827E8 ; 1.030881222658528E9 ; 0.0
103 ; 9742346.638458185 ; 1.010667865351498E7 ; 9.89162904283884E8 ; 1.040987901312043E9 ; 0.0
104 ; 9734733.96673314 ; 1.010667865351498E7 ; 9.989052509223422E8 ; 1.0510945799655579E9 ; 0.0
105 ; 9727453.256688401 ; 1.010667865351498E7 ; 1.0086399848890753E9 ; 1.0612012586190729E9 ; 0.0
106 ; 9725468.77710521 ; 1.010667865351498E7 ; 1.0183674381457636E9 ; 1.0713079372725879E9 ; 0.0
107 ; 9717828.932038888 ; 1.010667865351498E7 ; 1.0280929069228688E9 ; 1.0814146159261029E9 ; 0.0
108 ; 9713841.109170329 ; 1.010667865351498E7 ; 1.0378107358549078E9 ; 1.0915212945796177E9 ; 0.0
109 ; 9708594.381723855 ; 1.010667865351498E7 ; 1.0475245769640781E9 ; 1.1016279732331326E9 ; 0.0
110 ; 9702689.176512556 ; 1.010667865351498E7 ; 1.057233171345802E9 ; 1.1117346518866475E9 ; 0.0
111 ; 9697900.495372735 ; 1.010667865351498E7 ; 1.0669358605223145E9 ; 1.1218413305401623E9 ; 0.0
112 ; 9693003.539440712 ; 1.010667865351498E7 ; 1.0766337610176873E9 ; 1.1319480091936772E9 ; 0.0
113 ; 9683171.96059117 ; 1.010667865351498E7 ; 1.086326764557128E9 ; 1.142054687847192E9 ; 0.0
114 ; 9680604.449584499 ; 1.010667865351498E7 ; 1.096009936517719E9 ; 1.152161366500707E9 ; 0.0
115 ; 9674096.834712876 ; 1.010667865351498E7 ; 1.1056905409673035E9 ; 1.1622680451542218E9 ; 0.0
116 ; 9664381.089852324 ; 1.010667865351498E7 ; 1.1153646378020165E9 ; 1.1723747238077366E9 ; 0.0
117 ; 9662635.521079427 ; 1.010667865351498E7 ; 1.1250290188918688E9 ; 1.1824814024612515E9 ; 0.0
118 ; 9654975.995644636 ; 1.010667865351498E7 ; 1.1346916544129484E9 ; 1.1925880811147664E9 ; 0.0
119 ; 9646860.803220253 ; 1.010667865351498E7 ; 1.144346630408593E9 ; 1.2026947597682812E9 ; 0.0
120 ; 9643347.45849838 ; 1.010667865351498E7 ; 1.1539934912118132E9 ; 1.212801438421796E9 ; 0.0
121 ; 9634028.909202622 ; 1.010667865351498E7 ; 1.1636368386703117E9 ; 1.222908117075311E9 ; 0.0
122 ; 9629793.338341737 ; 1.010667865351498E7 ; 1.1732708675795143E9 ; 1.2330147957288258E9 ; 0.0
123 ; 9619805.025364004 ; 1.010667865351498E7 ; 1.182900660917856E9 ; 1.2431214743823407E9 ; 0.0
124 ; 9616107.476422822 ; 1.010667865351498E7 ; 1.19252046594322E9 ; 1.2532281530358555E9 ; 0.0
125 ; 9607437.247063037 ; 1.010667865351498E7 ; 1.2021365734196427E9 ; 1.2633348316893704E9 ; 0.0
126 ; 9601400.77613483 ; 1.010667865351498E7 ; 1.2117440106667056E9 ; 1.2734415103428853E9 ; 0.0
127 ; 9594248.652256127 ; 1.010667865351498E7 ; 1.2213454114428403E9 ; 1.2835481889964E9 ; 0.0
128 ; 9583972.032992141 ; 1.010667865351498E7 ; 1.2309396600950963E9 ; 1.293654867649915E9 ; 0.0
129 ; 9581217.000647128 ; 1.010667865351498E7 ; 1.2405236321280885E9 ; 1.3037615463034298E9 ; 0.0
130 ; 9567860.723225262 ; 1.010667865351498E7 ; 1.2501048491287355E9 ; 1.3138682249569447E9 ; 0.0
131 ; 9560211.508853517 ; 1.010667865351498E7 ; 1.259672709851961E9 ; 1.3239749036104596E9 ; 0.0
132 ; 9546431.221915348 ; 1.010667865351498E7 ; 1.2692329213608143E9 ; 1.3340815822639744E9 ; 0.0
133 ; 9538875.2222548 ; 1.010667865351498E7 ; 1.2787793525827296E9 ; 1.3441882609174893E9 ; 0.0
134 ; 9529502.301349578 ; 1.010667865351498E7 ; 1.2883182278049843E9 ; 1.3542949395710042E9 ; 0.0
135 ; 9516867.696878498 ; 1.010667865351498E7 ; 1.297847730106334E9 ; 1.364401618224519E9 ; 0.0
136 ; 9504265.270467551 ; 1.010667865351498E7 ; 1.3073645978032124E9 ; 1.3745082968780339E9 ; 0.0
137 ; 9495793.029481517 ; 1.010667865351498E7 ; 1.31686886307368E9 ; 1.3846149755315487E9 ; 0.0
138 ; 9484335.747047279 ; 1.010667865351498E7 ; 1.3263646561031613E9 ; 1.3947216541850636E9 ; 0.0
139 ; 9470154.714656616 ; 1.010667865351498E7 ; 1.3358489918502085E9 ; 1.4048283328385785E9 ; 0.0
140 ; 9461823.81449019 ; 1.010667865351498E7 ; 1.345319146564865E9 ; 1.4149350114920933E9 ; 0.0
141 ; 9449285.381968586 ; 1.010667865351498E7 ; 1.3547809703793552E9 ; 1.4250416901456082E9 ; 0.0
142 ; 9436866.195021465 ; 1.010667865351498E7 ; 1.3642302557613237E9 ; 1.435148368799123E9 ; 0.0
143 ; 9425313.157753823 ; 1.010667865351498E7 ; 1.373667121956345E9 ; 1.445255047452638E9 ; 0.0
144 ; 9415300.081652276 ; 1.010667865351498E7 ; 1.3830924351140988E9 ; 1.4553617261061528E9 ; 0.0
145 ; 9407532.779249817 ; 1.010667865351498E7 ; 1.392507735195751E9 ; 1.4654684047596676E9 ; 0.0
146 ; 9400255.747398185 ; 1.010667865351498E7 ; 1.4019152679750009E9 ; 1.4755750834131825E9 ; 0.0
147 ; 9392599.422430908 ; 1.010667865351498E7 ; 1.411315523722399E9 ; 1.4856817620666974E9 ; 0.0
148 ; 9382881.149983801 ; 1.010667865351498E7 ; 1.42070812314483E9 ; 1.4957884407202122E9 ; 0.0
149 ; 9376401.10713625 ; 1.010667865351498E7 ; 1.4300910042948139E9 ; 1.505895119373727E9 ; 0.0
150 ; 9368828.747834869 ; 1.010667865351498E7 ; 1.4394674054019501E9 ; 1.516001798027242E9 ; 0.0
151 ; 9361386.655335365 ; 1.010667865351498E7 ; 1.448836234149785E9 ; 1.5261084766807568E9 ; 0.0
152 ; 9349216.474871859 ; 1.010667865351498E7 ; 1.4581976208051205E9 ; 1.5362151553342717E9 ; 0.0
153 ; 9343710.137040874 ; 1.010667865351498E7 ; 1.4675468372799923E9 ; 1.5463218339877865E9 ; 0.0
154 ; 9335736.50375694 ; 1.010667865351498E7 ; 1.4768905474170332E9 ; 1.5564285126413014E9 ; 0.0
155 ; 9328671.352584664 ; 1.010667865351498E7 ; 1.4862262839207902E9 ; 1.5665351912948163E9 ; 0.0
156 ; 9318904.677687269 ; 1.010667865351498E7 ; 1.4955549552733748E9 ; 1.576641869948331E9 ; 0.0
157 ; 9310169.13632298 ; 1.010667865351498E7 ; 1.504873859951062E9 ; 1.586748548601846E9 ; 0.0
158 ; 9300380.80734012 ; 1.010667865351498E7 ; 1.514184029087385E9 ; 1.5968552272553608E9 ; 0.0
159 ; 9293151.289234817 ; 1.010667865351498E7 ; 1.523484409894725E9 ; 1.6069619059088757E9 ; 0.0
160 ; 9283451.036114711 ; 1.010667865351498E7 ; 1.53277756118396E9 ; 1.6170685845623906E9 ; 0.0
161 ; 9276472.771527411 ; 1.010667865351498E7 ; 1.5420610122200747E9 ; 1.6271752632159054E9 ; 0.0
162 ; 9266745.609839061 ; 1.010667865351498E7 ; 1.5513374849916022E9 ; 1.6372819418694203E9 ; 0.0
163 ; 9257309.727758128 ; 1.010667865351498E7 ; 1.5606042306014411E9 ; 1.6473886205229352E9 ; 0.0
164 ; 9250757.646034688 ; 1.010667865351498E7 ; 1.5698615403291993E9 ; 1.65749529917645E9 ; 0.0
165 ; 9240403.991658315 ; 1.010667865351498E7 ; 1.579112297975234E9 ; 1.6676019778299649E9 ; 0.0
166 ; 9230539.879216203 ; 1.010667865351498E7 ; 1.5883527019668922E9 ; 1.6777086564834797E9 ; 0.0
167 ; 9223062.910229996 ; 1.010667865351498E7 ; 1.5975832418461084E9 ; 1.6878153351369946E9 ; 0.0
168 ; 9213553.866460301 ; 1.010667865351498E7 ; 1.6068063047563384E9 ; 1.6979220137905095E9 ; 0.0
169 ; 9204083.6467926 ; 1.010667865351498E7 ; 1.6160198586227987E9 ; 1.7080286924440243E9 ; 0.0
170 ; 9199808.772850966 ; 1.010667865351498E7 ; 1.6252239422695913E9 ; 1.7181353710975392E9 ; 0.0
171 ; 9186531.570288094 ; 1.010667865351498E7 ; 1.6344237510424423E9 ; 1.728242049751054E9 ; 0.0
172 ; 9179529.609826632 ; 1.010667865351498E7 ; 1.6436102826127305E9 ; 1.738348728404569E9 ; 0.0
173 ; 9171760.182970507 ; 1.010667865351498E7 ; 1.652789812222557E9 ; 1.7484554070580838E9 ; 0.0
174 ; 9164953.32603641 ; 1.010667865351498E7 ; 1.6619615724055276E9 ; 1.7585620857115986E9 ; 0.0
175 ; 9157938.15959962 ; 1.010667865351498E7 ; 1.671126525731564E9 ; 1.7686687643651135E9 ; 0.0
176 ; 9155793.309305202 ; 1.010667865351498E7 ; 1.6802844638911636E9 ; 1.7787754430186284E9 ; 0.0
177 ; 9149153.073802596 ; 1.010667865351498E7 ; 1.6894402572004688E9 ; 1.7888821216721432E9 ; 0.0
178 ; 9143958.179874463 ; 1.010667865351498E7 ; 1.6985894102742715E9 ; 1.798988800325658E9 ; 0.0
179 ; 9136815.369794602 ; 1.010667865351498E7 ; 1.707733368454146E9 ; 1.809095478979173E9 ; 0.0
180 ; 9129118.386796797 ; 1.010667865351498E7 ; 1.7168701838239405E9 ; 1.8192021576326878E9 ; 0.0
181 ; 9126261.0596183 ; 1.010667865351498E7 ; 1.7259993022107372E9 ; 1.8293088362862027E9 ; 0.0
182 ; 9120877.670961209 ; 1.010667865351498E7 ; 1.7351255632703555E9 ; 1.8394155149397175E9 ; 0.0
183 ; 9117493.039557576 ; 1.010667865351498E7 ; 1.7442464409413166E9 ; 1.8495221935932324E9 ; 0.0
184 ; 9110301.601808256 ; 1.010667865351498E7 ; 1.753363933980874E9 ; 1.8596288722467473E9 ; 0.0
185 ; 9109342.702109557 ; 1.010667865351498E7 ; 1.7624742355826824E9 ; 1.869735550900262E9 ; 0.0
186 ; 9100780.414810117 ; 1.010667865351498E7 ; 1.771583578284792E9 ; 1.879842229553777E9 ; 0.0
187 ; 9093594.51350421 ; 1.010667865351498E7 ; 1.7806843586996021E9 ; 1.8899489082072918E9 ; 0.0
188 ; 9085631.58860523 ; 1.010667865351498E7 ; 1.7897779532131064E9 ; 1.9000555868608067E9 ; 0.0
189 ; 9083761.793197192 ; 1.010667865351498E7 ; 1.7988635848017116E9 ; 1.9101622655143216E9 ; 0.0
190 ; 9082483.48245511 ; 1.010667865351498E7 ; 1.8079473465949087E9 ; 1.9202689441678364E9 ; 0.0
191 ; 9071370.63249873 ; 1.010667865351498E7 ; 1.8170298300773637E9 ; 1.9303756228213513E9 ; 0.0
192 ; 9066552.361227822 ; 1.010667865351498E7 ; 1.8261012007098625E9 ; 1.9404823014748662E9 ; 0.0
193 ; 9060867.703760773 ; 1.010667865351498E7 ; 1.8351677530710902E9 ; 1.950588980128381E9 ; 0.0
194 ; 9057960.272263376 ; 1.010667865351498E7 ; 1.844228620774851E9 ; 1.9606956587818959E9 ; 0.0
195 ; 9050131.662116455 ; 1.010667865351498E7 ; 1.8532865810471144E9 ; 1.9708023374354107E9 ; 0.0
196 ; 9047196.490243528 ; 1.010667865351498E7 ; 1.862336712709231E9 ; 1.9809090160889256E9 ; 0.0
197 ; 9042284.907936873 ; 1.010667865351498E7 ; 1.8713839091994743E9 ; 1.9910156947424405E9 ; 0.0
198 ; 9034998.633808611 ; 1.010667865351498E7 ; 1.8804261941074111E9 ; 2.0011223733959553E9 ; 0.0
199 ; 9029833.676958 ; 1.010667865351498E7 ; 1.8894611927412198E9 ; 2.0112290520494702E9 ; 0.0
200 ; 9023800.063891893 ; 1.010667865351498E7 ; 1.8984910264181778E9 ; 2.021335730702985E9 ; 0.0
201 ; 9020207.742674774 ; 1.010667865351498E7 ; 1.9075148264820697E9 ; 2.0314424093565E9 ; 0.0
202 ; 9015052.8054344 ; 1.010667865351498E7 ; 1.9165350342247446E9 ; 2.0415490880100148E9 ; 0.0
203 ; 9007190.461931026 ; 1.010667865351498E7 ; 1.925550087030179E9 ; 2.0516557666635296E9 ; 0.0
204 ; 9001149.993918482 ; 1.010667865351498E7 ; 1.93455727749211E9 ; 2.0617624453170445E9 ; 0.0
