CSV File for the City 3 on Day 259
1 - Minute m 
2 - Power Consumed at minute m 
3 - Power Produced at minute m 
4 - Energy Consumed since the beginning of the day 
5 - Energy Produced since the beginning of the day 
6 - Energy Lost since the beginning of the day on lines starting from the city
 
0 ; 746379.1915617639 ; 1.0547130061150935E8 ; 0.0 ; 0.0 ; 0.0
1 ; 747435.7157852636 ; 1.0562419122684467E8 ; 746379.1915617639 ; 1.0547130061150935E8 ; 0.0
2 ; 750690.1017822311 ; 1.060858684440352E8 ; 1493814.9073470274 ; 2.1109549183835402E8 ; 0.0
3 ; 752834.5895661388 ; 1.0685633418402356E8 ; 2244505.009129259 ; 3.171813602823892E8 ; 0.0
4 ; 755071.4050797062 ; 1.079355901755051E8 ; 2997339.5986953974 ; 4.240376944664128E8 ; 0.0
5 ; 758873.6235295382 ; 1.0932363794295281E8 ; 3752411.0037751035 ; 5.319732846419179E8 ; 0.0
6 ; 764804.889629894 ; 1.110204787957994E8 ; 4511284.6273046415 ; 6.412969225848707E8 ; 0.0
7 ; 771895.9220528326 ; 1.1302611381895149E8 ; 5276089.5169345355 ; 7.523174013806701E8 ; 0.0
8 ; 781781.5940259492 ; 1.153405438647945E8 ; 6047985.438987368 ; 8.653435151996216E8 ; 0.0
9 ; 799442.7071096745 ; 1.1796376954682332E8 ; 6829767.033013317 ; 9.80684059064416E8 ; 0.0
10 ; 825621.0059998403 ; 1.2089579123501104E8 ; 7629209.740122992 ; 1.0986478286112394E9 ; 0.0
11 ; 866690.5749987228 ; 1.2413660905299619E8 ; 8454830.746122831 ; 1.2195436198462505E9 ; 0.0
12 ; 931095.6200606572 ; 1.276862228771402E8 ; 9321521.321121555 ; 1.3436802288992467E9 ; 0.0
13 ; 994777.0100515982 ; 1.3154463233747E8 ; 1.0252616941182211E7 ; 1.471366451776387E9 ; 0.0
14 ; 1001734.7468372278 ; 1.3571183682049078E8 ; 1.124739395123381E7 ; 1.602911084113857E9 ; 0.0
15 ; 1004484.3624441314 ; 1.40187835473817E8 ; 1.2249128698071038E7 ; 1.7386229209343479E9 ; 0.0
16 ; 1007454.1458074986 ; 1.4497262721254215E8 ; 1.3253613060515169E7 ; 1.878810756408165E9 ; 0.0
17 ; 1010761.0026361339 ; 1.5006621072723344E8 ; 1.4261067206322668E7 ; 2.023783383620707E9 ; 0.0
18 ; 1011325.1814782586 ; 1.5546858449341792E8 ; 1.5271828208958803E7 ; 2.1738495943479404E9 ; 0.0
19 ; 1015107.3633898603 ; 1.6117974678240022E8 ; 1.6283153390437061E7 ; 2.329318178841358E9 ; 0.0
20 ; 1017938.0179852545 ; 1.671996956732377E8 ; 1.729826075382692E7 ; 2.4904979256237583E9 ; 0.0
21 ; 1020617.0609680064 ; 1.735284290656862E8 ; 1.8316198771812174E7 ; 2.657697621296996E9 ; 0.0
22 ; 1023035.9081701069 ; 1.8016594469392234E8 ; 1.9336815832780182E7 ; 2.8312260503626823E9 ; 0.0
23 ; 1027089.6347313942 ; 1.871122401408469E8 ; 2.035985174095029E7 ; 3.011391995056605E9 ; 0.0
24 ; 1028742.2942804989 ; 1.9436731285277516E8 ; 2.1386941375681683E7 ; 3.1985042351974516E9 ; 0.0
25 ; 1031003.9522235813 ; 2.0061920105251142E8 ; 2.2415683669962183E7 ; 3.3928715480502267E9 ; 0.0
26 ; 1034796.6873344939 ; 2.006214497911595E8 ; 2.3446687622185763E7 ; 3.593490749102738E9 ; 0.0
27 ; 1036170.1656463761 ; 2.0062382548780102E8 ; 2.4481484309520256E7 ; 3.7941121988938975E9 ; 0.0
28 ; 1038844.8625244296 ; 2.0062632519075522E8 ; 2.5517654475166634E7 ; 3.9947360243816986E9 ; 0.0
29 ; 1041794.4742950855 ; 2.0062894588489297E8 ; 2.6556499337691065E7 ; 4.195362349572454E9 ; 0.0
30 ; 1044770.6839828772 ; 2.006316845051747E8 ; 2.7598293811986152E7 ; 4.395991295457347E9 ; 0.0
31 ; 1047117.5441349348 ; 2.0063453794956258E8 ; 2.864306449596903E7 ; 4.596622979962522E9 ; 0.0
32 ; 1050193.545996778 ; 2.006375030912317E8 ; 2.9690182040103965E7 ; 4.797257517912085E9 ; 0.0
33 ; 1051592.7551241089 ; 2.0064057679002196E8 ; 3.0740375586100742E7 ; 4.997895021003316E9 ; 0.0
34 ; 1054199.3479284844 ; 2.0064375590308934E8 ; 3.179196834122485E7 ; 5.198535597793338E9 ; 0.0
35 ; 1056581.1982784825 ; 2.0064703729473084E8 ; 3.2846167689153332E7 ; 5.399179353696427E9 ; 0.0
36 ; 1061012.5445558957 ; 2.0065041784537157E8 ; 3.3902748887431815E7 ; 5.5998263909911585E9 ; 0.0
37 ; 1061432.0779501488 ; 2.006538944597148E8 ; 3.496376143198771E7 ; 5.80047680883653E9 ; 0.0
38 ; 1063192.1702495108 ; 2.0065746407406607E8 ; 3.602519350993786E7 ; 6.001130703296245E9 ; 0.0
39 ; 1067686.789602688 ; 2.006611236628531E8 ; 3.7088385680187374E7 ; 6.201788167370311E9 ; 0.0
40 ; 1068789.95727765 ; 2.0066487024436897E8 ; 3.8156072469790064E7 ; 6.402449291033164E9 ; 0.0
41 ; 1069437.1800316083 ; 2.0066870088577333E8 ; 3.922486242706771E7 ; 6.603114161277533E9 ; 0.0
42 ; 1071760.4794807395 ; 2.0067261270739052E8 ; 4.029429960709932E7 ; 6.803782862163306E9 ; 0.0
43 ; 1073048.436376874 ; 2.0067660288634697E8 ; 4.136606008658005E7 ; 7.004455474870697E9 ; 0.0
44 ; 1073698.4669081373 ; 2.0068066865959203E8 ; 4.243910852295693E7 ; 7.205132077757044E9 ; 0.0
45 ; 1076328.6224238416 ; 2.006848073263484E8 ; 4.3512806989865065E7 ; 7.4058127464166355E9 ; 0.0
46 ; 1075152.473717547 ; 2.0068901625003716E8 ; 4.458913561228891E7 ; 7.606497553742984E9 ; 0.0
47 ; 1076136.358357367 ; 2.00693292859724E8 ; 4.5664288086006455E7 ; 7.807186569993021E9 ; 0.0
48 ; 1079740.442751381 ; 2.0069763465113014E8 ; 4.6740424444363825E7 ; 8.007879862852745E9 ; 0.0
49 ; 1080321.6343114635 ; 2.0070203918725154E8 ; 4.78201648871152E7 ; 8.208577497503875E9 ; 0.0
50 ; 1079978.4925075427 ; 2.0070650409862727E8 ; 4.890048652142666E7 ; 8.409279536691126E9 ; 0.0
51 ; 1080261.0339743532 ; 2.0071102708329615E8 ; 4.99804650139342E7 ; 8.609986040789753E9 ; 0.0
52 ; 1080780.7093217757 ; 2.0071560590647832E8 ; 5.106072604790856E7 ; 8.810697067873049E9 ; 0.0
53 ; 1081418.5442629848 ; 2.0072023840001607E8 ; 5.2141506757230334E7 ; 9.011412673779528E9 ; 0.0
54 ; 1083375.2125234846 ; 2.007249224616057E8 ; 5.322292530149332E7 ; 9.212132912179544E9 ; 0.0
55 ; 1081524.00957047 ; 2.007296560538498E8 ; 5.43063005140168E7 ; 9.41285783464115E9 ; 0.0
56 ; 1083728.3837061406 ; 2.0073443720315668E8 ; 5.538782452358727E7 ; 9.613587490695E9 ; 0.0
57 ; 1085531.4699396605 ; 2.0073926399851176E8 ; 5.647155290729341E7 ; 9.814321927898157E9 ; 0.0
58 ; 1083473.0048143496 ; 2.0074413459014276E8 ; 5.755708437723307E7 ; 1.001506119189667E10 ; 0.0
59 ; 1086540.3884293276 ; 2.0074904718809888E8 ; 5.864055738204742E7 ; 1.0215805326486813E10 ; 0.0
60 ; 1086566.6952288614 ; 2.007540000607621E8 ; 5.972709777047675E7 ; 1.0416554373674911E10 ; 0.0
61 ; 1086415.3499462216 ; 2.0075899153330648E8 ; 6.081366446570561E7 ; 1.0617308373735674E10 ; 0.0
62 ; 1085345.0308259975 ; 2.0076401998611945E8 ; 6.1900079815651834E7 ; 1.081806736526898E10 ; 0.0
63 ; 1087028.3961779883 ; 2.0076908385319817E8 ; 6.298542484647783E7 ; 1.10188313852551E10 ; 0.0
64 ; 1087201.0916578472 ; 2.0077418162053186E8 ; 6.407245324265581E7 ; 1.12196004691083E10 ; 0.0
65 ; 1088562.8922295105 ; 2.0077931182447928E8 ; 6.515965433431366E7 ; 1.142037465072883E10 ; 0.0
66 ; 1087597.195752714 ; 2.0078447305015048E8 ; 6.624821722654317E7 ; 1.162115396255331E10 ; 0.0
67 ; 1088479.3905611401 ; 2.0078966392979926E8 ; 6.733581442229588E7 ; 1.182193843560346E10 ; 0.0
68 ; 1088605.1304954698 ; 2.0079488314123333E8 ; 6.842429381285702E7 ; 1.202272809953326E10 ; 0.0
69 ; 1090004.1035243033 ; 2.0080012940624645E8 ; 6.951289894335249E7 ; 1.2223522982674494E10 ; 0.0
70 ; 1090523.8203216158 ; 2.0080540148907778E8 ; 7.060290304687679E7 ; 1.242432311208074E10 ; 0.0
71 ; 1090210.71538616 ; 2.0081069819490156E8 ; 7.169342686719841E7 ; 1.2625128513569818E10 ; 0.0
72 ; 1089329.705449136 ; 2.0081601836835015E8 ; 7.278363758258457E7 ; 1.282593921176472E10 ; 0.0
73 ; 1090694.6003178074 ; 2.008213608920729E8 ; 7.387296728803371E7 ; 1.3026755230133072E10 ; 0.0
74 ; 1088825.3753871254 ; 2.0082672468533272E8 ; 7.496366188835151E7 ; 1.3227576591025145E10 ; 0.0
75 ; 1089467.6443975486 ; 2.0083210870264155E8 ; 7.605248726373865E7 ; 1.3428403315710478E10 ; 0.0
76 ; 1089729.51813244 ; 2.0083751193243578E8 ; 7.714195490813619E7 ; 1.362923542441312E10 ; 0.0
77 ; 1090068.2292958586 ; 2.0084293339579234E8 ; 7.823168442626862E7 ; 1.3830072936345556E10 ; 0.0
78 ; 1089475.9272670231 ; 2.0084837214518577E8 ; 7.932175265556449E7 ; 1.4030915869741348E10 ; 0.0
79 ; 1088882.2900578694 ; 2.0085382726328614E8 ; 8.041122858283152E7 ; 1.4231764241886534E10 ; 0.0
80 ; 1089348.1585576562 ; 2.0085929786179805E8 ; 8.150011087288938E7 ; 1.443261806914982E10 ; 0.0
81 ; 1086733.3296064395 ; 2.0086478308033985E8 ; 8.258945903144704E7 ; 1.4633477367011618E10 ; 0.0
82 ; 1087473.043904368 ; 2.0087028208536312E8 ; 8.367619236105348E7 ; 1.4834342150091957E10 ; 0.0
83 ; 1087265.811622861 ; 2.0087579406911144E8 ; 8.476366540495785E7 ; 1.503521243217732E10 ; 0.0
84 ; 1085218.3502817363 ; 2.008813182486176E8 ; 8.58509312165807E7 ; 1.5236088226246431E10 ; 0.0
85 ; 1085237.2693824654 ; 2.0088685386473897E8 ; 8.693614956686243E7 ; 1.5436969544495049E10 ; 0.0
86 ; 1083478.696419518 ; 2.0089240018122932E8 ; 8.80213868362449E7 ; 1.5637856398359787E10 ; 0.0
87 ; 1084430.9025462652 ; 2.0089795648384702E8 ; 8.910486553266442E7 ; 1.5838748798541016E10 ; 0.0
88 ; 1081754.7975589307 ; 2.0090352207949767E8 ; 9.018929643521069E7 ; 1.6039646755024862E10 ; 0.0
89 ; 1082611.381970302 ; 2.0090909629541093E8 ; 9.127105123276962E7 ; 1.624055027710436E10 ; 0.0
90 ; 1080478.1675707966 ; 2.009146784783502E8 ; 9.235366261473992E7 ; 1.644145937339977E10 ; 0.0
91 ; 1080824.372915181 ; 2.0092026799385375E8 ; 9.343414078231072E7 ; 1.664237405187812E10 ; 0.0
92 ; 1080138.6402803957 ; 2.0092586422550687E8 ; 9.45149651552259E7 ; 1.6843294319871975E10 ; 0.0
93 ; 1077576.1033627153 ; 2.009314665742435E8 ; 9.55951037955063E7 ; 1.7044220184097483E10 ; 0.0
94 ; 1078085.1388113473 ; 2.0093707445767623E8 ; 9.667267989886901E7 ; 1.7245151650671726E10 ; 0.0
95 ; 1076939.661828978 ; 2.0094268730945432E8 ; 9.775076503768036E7 ; 1.7446088725129402E10 ; 0.0
96 ; 1075095.7775319405 ; 2.0094830457864758E8 ; 9.882770469950934E7 ; 1.7647031412438858E10 ; 0.0
97 ; 1075019.9778328405 ; 2.0095392572915617E8 ; 9.990280047704127E7 ; 1.7847979717017506E10 ; 0.0
98 ; 1073257.9787102134 ; 2.009595502391447E8 ; 1.0097782045487411E8 ; 1.8048933642746662E10 ; 0.0
99 ; 1071749.3259133643 ; 2.0096517760049993E8 ; 1.0205107843358433E8 ; 1.8249893192985806E10 ; 0.0
100 ; 1071814.2653348981 ; 2.0097080731831095E8 ; 1.031228277594977E8 ; 1.8450858370586304E10 ; 0.0
101 ; 1070740.2517137737 ; 2.0097643891037104E8 ; 1.041946420248326E8 ; 1.8651829177904613E10 ; 0.0
102 ; 1070017.79151667 ; 2.0098207190670043E8 ; 1.0526538227654637E8 ; 1.8852805616814983E10 ; 0.0
103 ; 1067243.944646196 ; 2.009877058490889E8 ; 1.0633540006806305E8 ; 1.9053787688721684E10 ; 0.0
104 ; 1067627.6234317222 ; 2.0099334029065746E8 ; 1.0740264401270925E8 ; 1.9254775394570774E10 ; 0.0
105 ; 1065068.0161528466 ; 2.0099897479543832E8 ; 1.0847027163614097E8 ; 1.945576873486143E10 ; 0.0
106 ; 1065764.010266792 ; 2.0100460893797246E8 ; 1.0953533965229382E8 ; 1.9656767709656868E10 ; 0.0
107 ; 1064540.468678285 ; 2.0101024230292404E8 ; 1.1060110366256061E8 ; 1.985777231859484E10 ; 0.0
108 ; 1062633.2059062514 ; 2.010158744847106E8 ; 1.116656441312389E8 ; 2.0058782560897766E10 ; 0.0
109 ; 1060815.2853948574 ; 2.0102150508714902E8 ; 1.1272827733714515E8 ; 2.0259798435382477E10 ; 0.0
110 ; 1058565.2298938236 ; 2.01027133723116E8 ; 1.1378909262254001E8 ; 2.0460819940469627E10 ; 0.0
111 ; 1058193.8082428297 ; 2.0103276001422256E8 ; 1.1484765785243383E8 ; 2.0661847074192745E10 ; 0.0
112 ; 1056833.7943314 ; 2.0103838359050223E8 ; 1.1590585166067666E8 ; 2.0862879834206966E10 ; 0.0
113 ; 1055680.015311663 ; 2.01044004090112E8 ; 1.1696268545500806E8 ; 2.106391821779747E10 ; 0.0
114 ; 1054387.57620833 ; 2.0104962115904564E8 ; 1.1801836547031972E8 ; 2.126496222188758E10 ; 0.0
115 ; 1052925.4168381654 ; 2.0105523445085895E8 ; 1.1907275304652804E8 ; 2.1466011843046627E10 ; 0.0
116 ; 1051984.268295421 ; 2.0106084362640604E8 ; 1.2012567846336621E8 ; 2.1667067077497486E10 ; 0.0
117 ; 1052575.8662912895 ; 2.0106644835358673E8 ; 1.2117766273166163E8 ; 2.1868127921123894E10 ; 0.0
118 ; 1049115.1935282175 ; 2.0107204830710405E8 ; 1.2223023859795292E8 ; 2.206919436947748E10 ; 0.0
119 ; 1046498.7740829114 ; 2.010776431682318E8 ; 1.2327935379148114E8 ; 2.2270266417784584E10 ; 0.0
120 ; 1045912.5854384351 ; 2.0108323262459135E8 ; 1.2432585256556405E8 ; 2.2471344060952816E10 ; 0.0
121 ; 1043669.5084546509 ; 2.0108881636993778E8 ; 1.2537176515100248E8 ; 2.2672427293577408E10 ; 0.0
122 ; 1042601.408258328 ; 2.0109439410395443E8 ; 1.2641543465945713E8 ; 2.2873516109947346E10 ; 0.0
123 ; 1040468.0028843171 ; 2.010999655320559E8 ; 1.2745803606771547E8 ; 2.30746105040513E10 ; 0.0
124 ; 1039668.3754590659 ; 2.0110553036519885E8 ; 1.2849850407059978E8 ; 2.3275710469583355E10 ; 0.0
125 ; 1038030.440979785 ; 2.0111108831970042E8 ; 1.2953817244605884E8 ; 2.3476815999948555E10 ; 0.0
126 ; 1037853.787101665 ; 2.01116639117064E8 ; 1.3057620288703862E8 ; 2.3677927088268257E10 ; 0.0
127 ; 1035518.3799376255 ; 2.0112218248381177E8 ; 1.3161405667414029E8 ; 2.3879043727385323E10 ; 0.0
128 ; 1033113.2044933845 ; 2.0112771815132403E8 ; 1.3264957505407791E8 ; 2.4080165909869133E10 ; 0.0
129 ; 1031603.6667065759 ; 2.0113324585568482E8 ; 1.336826882585713E8 ; 2.428129362802046E10 ; 0.0
130 ; 1029910.9463097298 ; 2.011387653375337E8 ; 1.3471429192527786E8 ; 2.4482426873876144E10 ; 0.0
131 ; 1027451.0632975977 ; 2.011442763419232E8 ; 1.3574420287158757E8 ; 2.4683565639213676E10 ; 0.0
132 ; 1025031.4415452518 ; 2.0114977861818197E8 ; 1.3677165393488517E8 ; 2.48847099155556E10 ; 0.0
133 ; 1023230.1117573775 ; 2.0115527191978335E8 ; 1.3779668537643042E8 ; 2.5085859694173782E10 ; 0.0
134 ; 1020049.2875881998 ; 2.0116075600421882E8 ; 1.388199154881878E8 ; 2.5287014966093567E10 ; 0.0
135 ; 1019531.5428263451 ; 2.011662306328766E8 ; 1.39839964775776E8 ; 2.5488175722097786E10 ; 0.0
136 ; 1016140.0727441444 ; 2.0117169557092476E8 ; 1.4085949631860235E8 ; 2.5689341952730663E10 ; 0.0
137 ; 1012001.7096551332 ; 2.0117715058719888E8 ; 1.4187563639134648E8 ; 2.589051364830159E10 ; 0.0
138 ; 1010123.8499208248 ; 2.011825954540941E8 ; 1.4288763810100162E8 ; 2.609169079888879E10 ; 0.0
139 ; 1006458.6907024158 ; 2.0118802994746122E8 ; 1.4389776195092246E8 ; 2.6292873394342884E10 ; 0.0
140 ; 1005942.9151756502 ; 2.011934538465066E8 ; 1.4490422064162487E8 ; 2.6494061424290344E10 ; 0.0
141 ; 1003343.2797282896 ; 2.011988669336963E8 ; 1.459101635568005E8 ; 2.6695254878136852E10 ; 0.0
142 ; 1000448.1625984781 ; 2.0120426899466327E8 ; 1.469135068365288E8 ; 2.689645374507055E10 ; 0.0
143 ; 996552.8440903217 ; 2.012096598181185E8 ; 1.479139549991273E8 ; 2.7097658014065212E10 ; 0.0
144 ; 994546.4717851388 ; 2.012150391957654E8 ; 1.489105078432176E8 ; 2.729886767388333E10 ; 0.0
145 ; 990868.193027579 ; 2.01220406922217E8 ; 1.4990505431500274E8 ; 2.7500082713079098E10 ; 0.0
146 ; 990635.7655588422 ; 2.012257627949169E8 ; 1.5089592250803033E8 ; 2.7701303120001316E10 ; 0.0
147 ; 988692.9042504787 ; 2.0123110661406255E8 ; 1.5188655827358916E8 ; 2.7902528882796234E10 ; 0.0
148 ; 987069.8409800292 ; 2.0123643818253168E8 ; 1.5287525117783964E8 ; 2.8103759989410297E10 ; 0.0
149 ; 986325.778427215 ; 2.0124175730581152E8 ; 1.5386232101881966E8 ; 2.830499642759283E10 ; 0.0
150 ; 983594.863873331 ; 2.0124706379193023E8 ; 1.5484864679724687E8 ; 2.8506238184898643E10 ; 0.0
151 ; 982602.1230756933 ; 2.0125235745139122E8 ; 1.558322416611202E8 ; 2.8707485248690575E10 ; 0.0
152 ; 980664.71708607 ; 2.0125763809710982E8 ; 1.568148437841959E8 ; 2.8908737606141968E10 ; 0.0
153 ; 979255.9068824232 ; 2.012629055443519E8 ; 1.5779550850128198E8 ; 2.910999524423908E10 ; 0.0
154 ; 978461.2834590026 ; 2.0126815961067528E8 ; 1.587747644081644E8 ; 2.9311258149783432E10 ; 0.0
155 ; 976586.5209650564 ; 2.0127340011587265E8 ; 1.5975322569162342E8 ; 2.9512526309394108E10 ; 0.0
156 ; 975713.716958623 ; 2.0127862688191706E8 ; 1.607298122125885E8 ; 2.971379970950998E10 ; 0.0
157 ; 973832.921278185 ; 2.0128383973290905E8 ; 1.617055259295471E8 ; 2.9915078336391895E10 ; 0.0
158 ; 970331.6104619325 ; 2.0128903849502572E8 ; 1.6267935885082528E8 ; 3.0116362176124805E10 ; 0.0
159 ; 969030.0345717644 ; 2.0129422299647176E8 ; 1.636496904612872E8 ; 3.031765121461983E10 ; 0.0
160 ; 968001.604805206 ; 2.0129939306743202E8 ; 1.6461872049585897E8 ; 3.0518945437616302E10 ; 0.0
161 ; 966231.5252297671 ; 2.013045485400258E8 ; 1.6558672210066417E8 ; 3.0720244830683735E10 ; 0.0
162 ; 965321.2480623617 ; 2.0130968924826297E8 ; 1.6655295362589395E8 ; 3.0921549379223763E10 ; 0.0
163 ; 961877.0462299313 ; 2.0131481502800128E8 ; 1.6751827487395632E8 ; 3.1122859068472027E10 ; 0.0
164 ; 959932.2505319118 ; 2.0131992571690542E8 ; 1.6848015192018625E8 ; 3.1324173883500027E10 ; 0.0
165 ; 958324.478661109 ; 2.0132502115440735E8 ; 1.6944008417071816E8 ; 3.152549380921693E10 ; 0.0
166 ; 955527.7225274453 ; 2.0133010118166825E8 ; 1.7039840864937928E8 ; 3.1726818830371338E10 ; 0.0
167 ; 955399.3026393796 ; 2.0133516564154142E8 ; 1.7135393637190673E8 ; 3.1928148931553005E10 ; 0.0
168 ; 953438.6641999669 ; 2.0134021437853688E8 ; 1.723093356745461E8 ; 3.2129484097194546E10 ; 0.0
169 ; 952038.8756403262 ; 2.0134524723878676E8 ; 1.7326277433874607E8 ; 3.2330824311573082E10 ; 0.0
170 ; 950991.6224875547 ; 2.0135026407001224E8 ; 1.742148132143864E8 ; 3.253216955881187E10 ; 0.0
171 ; 947567.1069814865 ; 2.0135526472149146E8 ; 1.7516580483687395E8 ; 3.273351982288188E10 ; 0.0
172 ; 946831.8546533867 ; 2.0136024904402846E8 ; 1.7611337194385543E8 ; 3.2934875087603374E10 ; 0.0
173 ; 944373.1214723843 ; 2.0136521688992345E8 ; 1.7706020379850882E8 ; 3.3136235336647404E10 ; 0.0
174 ; 944282.3700190212 ; 2.0137016811294362E8 ; 1.780045769199812E8 ; 3.3337600553537327E10 ; 0.0
175 ; 942457.0261948652 ; 2.0137510256829548E8 ; 1.7894885929000023E8 ; 3.353897072165027E10 ; 0.0
176 ; 940612.223669916 ; 2.013800201125977E8 ; 1.798913163161951E8 ; 3.3740345824218563E10 ; 0.0
177 ; 939283.743832635 ; 2.0138492060385516E8 ; 1.8083192853986502E8 ; 3.394172584433116E10 ; 0.0
178 ; 938775.523100261 ; 2.0138980390143362E8 ; 1.8177121228369766E8 ; 3.4143110764935017E10 ; 0.0
179 ; 937877.5438810644 ; 2.013946698660355E8 ; 1.8270998780679792E8 ; 3.434450056883645E10 ; 0.0
180 ; 936214.295067749 ; 2.0139951835967615E8 ; 1.8364786535067898E8 ; 3.4545895238702484E10 ; 0.0
181 ; 935477.142297937 ; 2.0140434924566138E8 ; 1.8458407964574674E8 ; 3.474729475706216E10 ; 0.0
182 ; 932782.2683365177 ; 2.0140916238856512E8 ; 1.8551955678804466E8 ; 3.4948699106307816E10 ; 0.0
183 ; 932132.9164927748 ; 2.014139576542084E8 ; 1.8645233905638117E8 ; 3.515010826869638E10 ; 0.0
184 ; 930743.1470706512 ; 2.0141873490963864E8 ; 1.8738447197287393E8 ; 3.5351522226350586E10 ; 0.0
185 ; 928086.0190001384 ; 2.0142349402310988E8 ; 1.8831521511994457E8 ; 3.555294096126022E10 ; 0.0
186 ; 927928.5436447067 ; 2.0142823486406335E8 ; 1.8924330113894472E8 ; 3.575436445528333E10 ; 0.0
187 ; 926559.9545792321 ; 2.014329573031091E8 ; 1.901712296825894E8 ; 3.59557926901474E10 ; 0.0
188 ; 926425.603039916 ; 2.014376612120078E8 ; 1.9109778963716865E8 ; 3.615722564745051E10 ; 0.0
189 ; 924138.616780777 ; 2.0144234646365345E8 ; 1.9202421524020857E8 ; 3.635866330866251E10 ; 0.0
190 ; 921701.6068292742 ; 2.014470129320565E8 ; 1.9294835385698935E8 ; 3.656010565512617E10 ; 0.0
191 ; 921273.0252187658 ; 2.0145166049232754E8 ; 1.9387005546381864E8 ; 3.676155266805823E10 ; 0.0
192 ; 918733.2217619073 ; 2.0145628902066162E8 ; 1.947913284890374E8 ; 3.696300432855055E10 ; 0.0
193 ; 918353.9529573921 ; 2.0146089839432284E8 ; 1.957100617107993E8 ; 3.716446061757121E10 ; 0.0
194 ; 915494.4069519402 ; 2.0146548849162984E8 ; 1.966284156637567E8 ; 3.736592151596554E10 ; 0.0
195 ; 915116.4716836821 ; 2.0147005919194117E8 ; 1.9754391007070863E8 ; 3.756738700445717E10 ; 0.0
196 ; 914902.2568524231 ; 2.0147461037564182E8 ; 1.984590265423923E8 ; 3.776885706364911E10 ; 0.0
197 ; 913762.238799889 ; 2.0147914192412964E8 ; 1.9937392879924473E8 ; 3.797033167402475E10 ; 0.0
198 ; 910766.7709418078 ; 2.0148365371980244E8 ; 2.0028769103804463E8 ; 3.817181081594888E10 ; 0.0
199 ; 910882.4936202808 ; 2.0148814564604548E8 ; 2.0119845780898643E8 ; 3.8373294469668686E10 ; 0.0
200 ; 909141.3383458888 ; 2.0149261758721927E8 ; 2.021093403026067E8 ; 3.857478261531473E10 ; 0.0
