CSV File for the City 6 on Day 312
1 - Minute m 
2 - Power Consumed at minute m 
3 - Power Produced at minute m 
4 - Energy Consumed since the beginning of the day 
5 - Energy Produced since the beginning of the day 
6 - Energy Lost since the beginning of the day on lines starting from the city
 
0 ; 1.1294673716008725E7 ; 1.0675192459241024E8 ; 0.0 ; 0.0 ; 0.0
1 ; 1.1305590685859831E7 ; 1.0690256406306046E8 ; 1.1294673716008725E7 ; 1.0675192459241024E8 ; 0.0
2 ; 1.1320282160058504E7 ; 1.0736222502699694E8 ; 2.2600264401868556E7 ; 2.136544886554707E8 ; 0.0
3 ; 1.133032352455564E7 ; 1.0813091011481905E8 ; 3.392054656192706E7 ; 3.2101671368246764E8 ; 0.0
4 ; 1.1347924738357564E7 ; 1.0920862167058027E8 ; 4.5250870086482696E7 ; 4.291476237972867E8 ; 0.0
5 ; 1.1368266260361562E7 ; 1.105953617434175E8 ; 5.659879482484026E7 ; 5.383562454678669E8 ; 0.0
6 ; 1.1396045768047897E7 ; 1.1229113208014497E8 ; 6.796706108520183E7 ; 6.489516072112844E8 ; 0.0
7 ; 1.1434849279935291E7 ; 1.1429593411887592E8 ; 7.936310685324973E7 ; 7.612427392914294E8 ; 0.0
8 ; 1.1490467638321562E7 ; 1.1660976898372597E8 ; 9.079795613318501E7 ; 8.755386734103053E8 ; 0.0
9 ; 1.156698289806224E7 ; 1.1923263748064435E8 ; 1.0228842377150658E8 ; 9.921484423940313E8 ; 0.0
10 ; 1.169655549458946E7 ; 1.2216454009440976E8 ; 1.1385540666956882E8 ; 1.1113810798746758E9 ; 0.0
11 ; 1.1894463315622482E7 ; 1.2540547698681721E8 ; 1.2555196216415828E8 ; 1.2335456199690855E9 ; 0.0
12 ; 1.221362745638697E7 ; 1.2895544799607167E8 ; 1.3744642547978076E8 ; 1.3589510969559026E9 ; 0.0
13 ; 1.2515015113422439E7 ; 1.3281445263739443E8 ; 1.4966005293616775E8 ; 1.4879065449519742E9 ; 0.0
14 ; 1.255462125633408E7 ; 1.3698249010483634E8 ; 1.6217506804959017E8 ; 1.6207209975893686E9 ; 0.0
15 ; 1.2565513049264316E7 ; 1.4145955927428168E8 ; 1.7472968930592424E8 ; 1.7577034876942048E9 ; 0.0
16 ; 1.2583357388659623E7 ; 1.462456587076173E8 ; 1.8729520235518855E8 ; 1.8991630469684865E9 ; 0.0
17 ; 1.25978477024202E7 ; 1.5134078665802893E8 ; 1.9987855974384817E8 ; 2.0454087056761038E9 ; 0.0
18 ; 1.2613388866656806E7 ; 1.5674494107637966E8 ; 2.1247640744626838E8 ; 2.1967494923341327E9 ; 0.0
19 ; 1.2626938040165914E7 ; 1.62458119618616E8 ; 2.250897963129252E8 ; 2.3534944334105124E9 ; 0.0
20 ; 1.2643795907374507E7 ; 1.684803196541386E8 ; 2.377167343530911E8 ; 2.5159525530291286E9 ; 0.0
21 ; 1.2656426032976609E7 ; 1.748115382750676E8 ; 2.503605302604656E8 ; 2.684432872683267E9 ; 0.0
22 ; 1.267477763785038E7 ; 1.814517723063286E8 ; 2.630169562934422E8 ; 2.859244410958335E9 ; 0.0
23 ; 1.2691257891013516E7 ; 1.8840101831647778E8 ; 2.756917339312926E8 ; 3.0406961832646637E9 ; 0.0
24 ; 1.2707119832063995E7 ; 1.9565927262918204E8 ; 2.883829918223061E8 ; 3.2290972015811415E9 ; 0.0
25 ; 1.2720294255918495E7 ; 2.0191457223345202E8 ; 3.0109011165437007E8 ; 3.4247564742103233E9 ; 0.0
26 ; 1.2737911176176287E7 ; 2.019204608330674E8 ; 3.138104059102886E8 ; 3.626671046443775E9 ; 0.0
27 ; 1.2749827480037207E7 ; 2.0192670338440198E8 ; 3.265483170864649E8 ; 3.8285915072768426E9 ; 0.0
28 ; 1.2768826571268644E7 ; 2.0193329535642165E8 ; 3.392981445665021E8 ; 4.0305182106612444E9 ; 0.0
29 ; 1.2782526560891824E7 ; 2.0194023203737265E8 ; 3.520669711377707E8 ; 4.232451506017666E9 ; 0.0
30 ; 1.2796912453349745E7 ; 2.019475085483579E8 ; 3.648494976986625E8 ; 4.434391738055038E9 ; 0.0
31 ; 1.280973896377417E7 ; 2.0195511985696638E8 ; 3.776464101520123E8 ; 4.636339246603396E9 ; 0.0
32 ; 1.282405365011943E7 ; 2.0196306079087785E8 ; 3.9045614911578643E8 ; 4.838294366460362E9 ; 0.0
33 ; 1.284036321209963E7 ; 2.019713260513712E8 ; 4.0328020276590586E8 ; 5.040257427251241E9 ; 0.0
34 ; 1.2849807919934107E7 ; 2.0197991022666872E8 ; 4.1612056597800547E8 ; 5.242228753302612E9 ; 0.0
35 ; 1.286644142843724E7 ; 2.0198880780505472E8 ; 4.2897037389793956E8 ; 5.444208663529281E9 ; 0.0
36 ; 1.2878434139161095E7 ; 2.019980131877114E8 ; 4.418368153263768E8 ; 5.646197471334335E9 ; 0.0
37 ; 1.2891118803374581E7 ; 2.0200752070122215E8 ; 4.547152494655379E8 ; 5.848195484522047E9 ; 0.0
38 ; 1.2902693533663597E7 ; 2.0201732460969758E8 ; 4.676063682689125E8 ; 6.050203005223269E9 ; 0.0
39 ; 1.2915255584729606E7 ; 2.0202741912648472E8 ; 4.8050906180257607E8 ; 6.252220329832967E9 ; 0.0
40 ; 1.29256284067025E7 ; 2.0203779842542765E8 ; 4.934243173873057E8 ; 6.454247748959452E9 ; 0.0
41 ; 1.2934270609204415E7 ; 2.0204845665165114E8 ; 5.063499457940082E8 ; 6.656285547384879E9 ; 0.0
42 ; 1.2943338318767615E7 ; 2.0205938793184632E8 ; 5.192842164032126E8 ; 6.8583340040365305E9 ; 0.0
43 ; 1.2954497627834044E7 ; 2.0207058638404083E8 ; 5.322275547219802E8 ; 7.060393391968377E9 ; 0.0
44 ; 1.2968057547656287E7 ; 2.020820461268426E8 ; 5.451820523498143E8 ; 7.262463978352418E9 ; 0.0
45 ; 1.2972353854372958E7 ; 2.0209376128814912E8 ; 5.581501098974706E8 ; 7.46454602447926E9 ; 0.0
46 ; 1.2984162130503887E7 ; 2.0210572601331973E8 ; 5.711224637518436E8 ; 7.666639785767409E9 ; 0.0
47 ; 1.2987134931460846E7 ; 2.021179344728117E8 ; 5.841066258823475E8 ; 7.868745511780729E9 ; 0.0
48 ; 1.2991431685501032E7 ; 2.021303808692838E8 ; 5.970937608138083E8 ; 8.070863446253541E9 ; 0.0
49 ; 1.2995904179693613E7 ; 2.021430594441755E8 ; 6.100851924993093E8 ; 8.272993827122825E9 ; 0.0
50 ; 1.3007721169632249E7 ; 2.0215596448377144E8 ; 6.230810966790029E8 ; 8.475136886567E9 ; 0.0
51 ; 1.3009538228165787E7 ; 2.0216909032476348E8 ; 6.360888178486351E8 ; 8.677292851050772E9 ; 0.0
52 ; 1.3017941114570016E7 ; 2.021824313593252E8 ; 6.490983560768008E8 ; 8.879461941375536E9 ; 0.0
53 ; 1.301989055956194E7 ; 2.0219598203971502E8 ; 6.621162971913708E8 ; 9.081644372734861E9 ; 0.0
54 ; 1.3026140366978556E7 ; 2.0220973688242474E8 ; 6.751361877509328E8 ; 9.283840354774576E9 ; 0.0
55 ; 1.3031746554440174E7 ; 2.022236904718935E8 ; 6.881623281179113E8 ; 9.486050091657001E9 ; 0.0
56 ; 1.3033941974111952E7 ; 2.0223783746380523E8 ; 7.011940746723515E8 ; 9.688273782128895E9 ; 0.0
57 ; 1.3039949365067877E7 ; 2.022521725879909E8 ; 7.142280166464634E8 ; 9.890511619592701E9 ; 0.0
58 ; 1.3041515837610226E7 ; 2.022666906509551E8 ; 7.272679660115312E8 ; 1.0092763792180693E10 ; 0.0
59 ; 1.3048482734834654E7 ; 2.022813865380483E8 ; 7.403094818491415E8 ; 1.0295030482831648E10 ; 0.0
60 ; 1.3049645671458425E7 ; 2.022962552153049E8 ; 7.533579645839761E8 ; 1.0497311869369696E10 ; 0.0
61 ; 1.3057936739184061E7 ; 2.0231129173096803E8 ; 7.664076102554346E8 ; 1.0699608124585001E10 ; 0.0
62 ; 1.3058231676549686E7 ; 2.023264912167208E8 ; 7.794655469946187E8 ; 1.090191941631597E10 ; 0.0
63 ; 1.3066228177070688E7 ; 2.023418488886443E8 ; 7.925237786711683E8 ; 1.110424590753269E10 ; 0.0
64 ; 1.3068024270329341E7 ; 2.023573600479214E8 ; 8.055900068482391E8 ; 1.1306587756421335E10 ; 0.0
65 ; 1.3073124445725689E7 ; 2.0237302008130497E8 ; 8.186580311185684E8 ; 1.1508945116469257E10 ; 0.0
66 ; 1.3077338801772038E7 ; 2.023888244613689E8 ; 8.317311555642941E8 ; 1.1711318136550562E10 ; 0.0
67 ; 1.306848763908119E7 ; 2.024047687465591E8 ; 8.448084943660661E8 ; 1.191370696101193E10 ; 0.0
68 ; 1.3055914352724299E7 ; 2.0242084858106133E8 ; 8.578769820051473E8 ; 1.211611172975849E10 ; 0.0
69 ; 1.3046845674979625E7 ; 2.0243705969450134E8 ; 8.709328963578717E8 ; 1.231853257833955E10 ; 0.0
70 ; 1.3034842439163107E7 ; 2.0245339790149307E8 ; 8.839797420328512E8 ; 1.2520969638034052E10 ; 0.0
71 ; 1.302106872827643E7 ; 2.0246985910104883E8 ; 8.970145844720143E8 ; 1.2723423035935545E10 ; 0.0
72 ; 1.3009419943884326E7 ; 2.02486439275865E8 ; 9.100356532002907E8 ; 1.2925892895036594E10 ; 0.0
73 ; 1.2998847046356808E7 ; 2.025031344914962E8 ; 9.23045073144175E8 ; 1.312837933431246E10 ; 0.0
74 ; 1.2986661291075539E7 ; 2.0251994089543003E8 ; 9.360439201905318E8 ; 1.3330882468803957E10 ; 0.0
75 ; 1.2977014639191683E7 ; 2.0253685471607322E8 ; 9.490305814816074E8 ; 1.3533402409699387E10 ; 0.0
76 ; 1.2961415517074572E7 ; 2.0255387226165998E8 ; 9.620075961207991E8 ; 1.373593926441546E10 ; 0.0
77 ; 1.2953399165803973E7 ; 2.0257098991909257E8 ; 9.749690116378736E8 ; 1.393849313667712E10 ; 0.0
78 ; 1.2935464945115905E7 ; 2.0258820415272266E8 ; 9.879224108036777E8 ; 1.4141064126596212E10 ; 0.0
79 ; 1.2922297184515718E7 ; 2.0260551150308233E8 ; 1.0008578757487936E9 ; 1.4343652330748936E10 ; 0.0
80 ; 1.2905764519426007E7 ; 2.0262290858557245E8 ; 1.0137801729333093E9 ; 1.4546257842252018E10 ; 0.0
81 ; 1.2885279595499853E7 ; 2.0264039208911556E8 ; 1.0266859374527353E9 ; 1.4748880750837591E10 ; 0.0
82 ; 1.286763546091689E7 ; 2.026579587747799E8 ; 1.0395712170482352E9 ; 1.4951521142926706E10 ; 0.0
83 ; 1.2850224773149295E7 ; 2.0267560547438094E8 ; 1.052438852509152E9 ; 1.5154179101701487E10 ; 0.0
84 ; 1.2834706732684629E7 ; 2.0269332908906552E8 ; 1.0652890772823013E9 ; 1.5356854707175867E10 ; 0.0
85 ; 1.2820078544939118E7 ; 2.0271112658788416E8 ; 1.078123784014986E9 ; 1.5559548036264933E10 ; 0.0
86 ; 1.2803153917537013E7 ; 2.0272899500635576E8 ; 1.090943862559925E9 ; 1.5762259162852818E10 ; 0.0
87 ; 1.2784578014719183E7 ; 2.0274693144502932E8 ; 1.103747016477462E9 ; 1.5964988157859173E10 ; 0.0
88 ; 1.2770192406508984E7 ; 2.0276493306804618E8 ; 1.1165315944921813E9 ; 1.6167735089304203E10 ; 0.0
89 ; 1.2750672128650391E7 ; 2.027829971017063E8 ; 1.1293017868986902E9 ; 1.637050002237225E10 ; 0.0
90 ; 1.2733351969160577E7 ; 2.0280112083304176E8 ; 1.1420524590273407E9 ; 1.6573283019473955E10 ; 0.0
91 ; 1.2714985694775444E7 ; 2.0281930160840008E8 ; 1.1547858109965012E9 ; 1.6776084140306997E10 ; 0.0
92 ; 1.2696360476336647E7 ; 2.028375368320399E8 ; 1.1675007966912766E9 ; 1.6978903441915398E10 ; 0.0
93 ; 1.2681635038642168E7 ; 2.0285582396474138E8 ; 1.1801971571676133E9 ; 1.7181740978747437E10 ; 0.0
94 ; 1.265999888896355E7 ; 2.0287416052243277E8 ; 1.1928787922062554E9 ; 1.7384596802712177E10 ; 0.0
95 ; 1.2642755401702635E7 ; 2.028925440748355E8 ; 1.205538791095219E9 ; 1.758747096323461E10 ; 0.0
96 ; 1.262864543312798E7 ; 2.029109722441286E8 ; 1.2181815464969215E9 ; 1.779036350730945E10 ; 0.0
97 ; 1.2608464753256546E7 ; 2.0292944270363417E8 ; 1.2308101919300494E9 ; 1.7993274479553577E10 ; 0.0
98 ; 1.2590288703107057E7 ; 2.029479531765248E8 ; 1.243418656683306E9 ; 1.819620392225721E10 ; 0.0
99 ; 1.2574485060615035E7 ; 2.0296650143455386E8 ; 1.256008945386413E9 ; 1.8399151875433735E10 ; 0.0
100 ; 1.2554905826365493E7 ; 2.0298508529680958E8 ; 1.2685834304470282E9 ; 1.860211837686829E10 ; 0.0
101 ; 1.2535034584380561E7 ; 2.030037026284932E8 ; 1.2811383362733936E9 ; 1.88051034621651E10 ; 0.0
102 ; 1.2514561757538037E7 ; 2.0302235133972192E8 ; 1.2936733708577743E9 ; 1.9008107164793594E10 ; 0.0
103 ; 1.2498768260122893E7 ; 2.0304102938435718E8 ; 1.3061879326153123E9 ; 1.9211129516133316E10 ; 0.0
104 ; 1.2478309714180904E7 ; 2.0305973475885823E8 ; 1.318686700875435E9 ; 1.9414170545517673E10 ; 0.0
105 ; 1.2457334199541619E7 ; 2.0307846550116116E8 ; 1.331165010589616E9 ; 1.961723028027653E10 ; 0.0
106 ; 1.2441658079245899E7 ; 2.0309721968958378E8 ; 1.3436223447891576E9 ; 1.982030874577769E10 ; 0.0
107 ; 1.2424276260865605E7 ; 2.0311599544175613E8 ; 1.3560640028684034E9 ; 2.0023405965467274E10 ; 0.0
108 ; 1.2401816171888655E7 ; 2.031347909135767E8 ; 1.3684882791292691E9 ; 2.022652196090903E10 ; 0.0
109 ; 1.238506217071274E7 ; 2.0315360429819384E8 ; 1.3808900953011577E9 ; 2.042965675182261E10 ; 0.0
110 ; 1.2367288877700975E7 ; 2.0317243382501307E8 ; 1.3932751574718704E9 ; 2.0632810356120804E10 ; 0.0
111 ; 1.2344462944066895E7 ; 2.0319127775872892E8 ; 1.4056424463495715E9 ; 2.0835982789945816E10 ; 0.0
112 ; 1.2326239543631213E7 ; 2.0321013439838204E8 ; 1.4179869092936385E9 ; 2.1039174067704544E10 ; 0.0
113 ; 1.2301781181945322E7 ; 2.0322900207644054E8 ; 1.4303131488372698E9 ; 2.1242384202102924E10 ; 0.0
114 ; 1.2284428929984104E7 ; 2.03247879157906E8 ; 1.442614930019215E9 ; 2.1445613204179363E10 ; 0.0
115 ; 1.2262811990159398E7 ; 2.0326676403944278E8 ; 1.4548993589491992E9 ; 2.164886108333727E10 ; 0.0
116 ; 1.2245741591496835E7 ; 2.032856551485313E8 ; 1.4671621709393587E9 ; 2.1852127847376713E10 ; 0.0
117 ; 1.2223046755559877E7 ; 2.0330455094264397E8 ; 1.4794079125308557E9 ; 2.2055413502525246E10 ; 0.0
118 ; 1.2205967394661903E7 ; 2.0332344990844417E8 ; 1.4916309592864156E9 ; 2.2258718053467888E10 ; 0.0
119 ; 1.2186188259057388E7 ; 2.0334235056100705E8 ; 1.5038369266810775E9 ; 2.246204150337633E10 ; 0.0
120 ; 1.2166901077453736E7 ; 2.0336125144306245E8 ; 1.5160231149401348E9 ; 2.266538385393734E10 ; 0.0
121 ; 1.2143460745080132E7 ; 2.0338015112425882E8 ; 1.5281900160175886E9 ; 2.28687451053804E10 ; 0.0
122 ; 1.212471180745129E7 ; 2.0339904820044813E8 ; 1.5403334767626688E9 ; 2.307212525650466E10 ; 0.0
123 ; 1.2103813686383331E7 ; 2.034179412929912E8 ; 1.55245818857012E9 ; 2.327552430470511E10 ; 0.0
124 ; 1.2084494601337843E7 ; 2.034368290480827E8 ; 1.5645620022565033E9 ; 2.34789422459981E10 ; 0.0
125 ; 1.2062022389380617E7 ; 2.0345571013609606E8 ; 1.5766464968578413E9 ; 2.3682379075046185E10 ; 0.0
126 ; 1.2036384624223815E7 ; 2.0347458325094658E8 ; 1.588708519247222E9 ; 2.388583478518228E10 ; 0.0
127 ; 1.2020096005485807E7 ; 2.034934471094738E8 ; 1.6007449038714457E9 ; 2.4089309368433228E10 ; 0.0
128 ; 1.1994027706863191E7 ; 2.035123004508415E8 ; 1.6127649998769314E9 ; 2.42928028155427E10 ; 0.0
129 ; 1.1971864418790437E7 ; 2.0353114203595513E8 ; 1.6247590275837946E9 ; 2.449631511599354E10 ; 0.0
130 ; 1.1951558559382811E7 ; 2.0354997064689675E8 ; 1.636730892002585E9 ; 2.4699846258029495E10 ; 0.0
131 ; 1.1926444831879314E7 ; 2.035687850863762E8 ; 1.6486824505619678E9 ; 2.490339622867639E10 ; 0.0
132 ; 1.1899220655954642E7 ; 2.035875841771987E8 ; 1.6606088953938472E9 ; 2.5106965013762768E10 ; 0.0
133 ; 1.1873487563428301E7 ; 2.0360636676174825E8 ; 1.6725081160498018E9 ; 2.531055259793997E10 ; 0.0
134 ; 1.1850748243442435E7 ; 2.0362513170148608E8 ; 1.6843816036132302E9 ; 2.5514158964701717E10 ; 0.0
135 ; 1.182319381154506E7 ; 2.0364387787646422E8 ; 1.6962323518566728E9 ; 2.5717784096403202E10 ; 0.0
136 ; 1.1797288129708577E7 ; 2.036626041848535E8 ; 1.708055545668218E9 ; 2.5921427974279667E10 ; 0.0
137 ; 1.1773546683355458E7 ; 2.036813095424856E8 ; 1.7198528337979264E9 ; 2.612509057846452E10 ; 0.0
138 ; 1.1745637423778964E7 ; 2.0369999288240868E8 ; 1.731626380481282E9 ; 2.6328771888007004E10 ; 0.0
139 ; 1.171668335786209E7 ; 2.037186531544565E8 ; 1.743372017905061E9 ; 2.6532471880889412E10 ; 0.0
140 ; 1.1694352888398713E7 ; 2.0373728932483003E8 ; 1.755088701262923E9 ; 2.673619053404387E10 ; 0.0
141 ; 1.1663352764631107E7 ; 2.03755900375692E8 ; 1.7667830541513216E9 ; 2.69399278233687E10 ; 0.0
142 ; 1.1642552019893257E7 ; 2.037744853047734E8 ; 1.7784464069159527E9 ; 2.714368372374439E10 ; 0.0
143 ; 1.1613197982606882E7 ; 2.037930431249915E8 ; 1.7900889589358459E9 ; 2.7347458209049164E10 ; 0.0
144 ; 1.1586432088154096E7 ; 2.0381157286407992E8 ; 1.8017021569184527E9 ; 2.7551251252174156E10 ; 0.0
145 ; 1.1561804574125074E7 ; 2.0383007356422904E8 ; 1.8132885890066068E9 ; 2.7755062825038235E10 ; 0.0
146 ; 1.1540887420824606E7 ; 2.0384854428173783E8 ; 1.8248503935807319E9 ; 2.7958892898602463E10 ; 0.0
147 ; 1.1519553970885478E7 ; 2.0386698408667564E8 ; 1.8363912810015564E9 ; 2.81627414428842E10 ; 0.0
148 ; 1.1497933038172305E7 ; 2.0388539206255433E8 ; 1.847910834972442E9 ; 2.836660842697088E10 ; 0.0
149 ; 1.1479011404701063E7 ; 2.0390376730601025E8 ; 1.8594087680106142E9 ; 2.8570493819033432E10 ; 0.0
150 ; 1.1451770553169921E7 ; 2.0392210892649552E8 ; 1.8708877794153152E9 ; 2.8774397586339443E10 ; 0.0
151 ; 1.1431598233568797E7 ; 2.0394041604597872E8 ; 1.882339549968485E9 ; 2.8978319695265938E10 ; 0.0
152 ; 1.1409895128097354E7 ; 2.0395868779865456E8 ; 1.893771148202054E9 ; 2.9182260111311916E10 ; 0.0
153 ; 1.1388472808490036E7 ; 2.0397692333066192E8 ; 1.9051810433301513E9 ; 2.9386218799110573E10 ; 0.0
154 ; 1.1361066663814986E7 ; 2.0399512179981074E8 ; 1.9165695161386414E9 ; 2.9590195722441235E10 ; 0.0
155 ; 1.1345860474921333E7 ; 2.0401328237531653E8 ; 1.9279305828024564E9 ; 2.9794190844241047E10 ; 0.0
156 ; 1.13180883017196E7 ; 2.040314042375434E8 ; 1.9392764432773776E9 ; 2.9998204126616364E10 ; 0.0
157 ; 1.1300243736471588E7 ; 2.0404948657775408E8 ; 1.9505945315790973E9 ; 3.020223553085391E10 ; 0.0
158 ; 1.1274959733972384E7 ; 2.0406752859786794E8 ; 1.961894775315569E9 ; 3.0406285017431664E10 ; 0.0
159 ; 1.1254869317292346E7 ; 2.040855295102257E8 ; 1.9731697350495412E9 ; 3.061035254602953E10 ; 0.0
160 ; 1.1233246909719892E7 ; 2.041034885373616E8 ; 1.9844246043668337E9 ; 3.0814438075539757E10 ; 0.0
161 ; 1.1210802339621775E7 ; 2.0412140491178188E8 ; 1.9956578512765536E9 ; 3.1018541564077118E10 ; 0.0
162 ; 1.1188779716255354E7 ; 2.041392778757501E8 ; 2.0068686536161754E9 ; 3.12226629689889E10 ; 0.0
163 ; 1.1161155278205913E7 ; 2.041571066810786E8 ; 2.0180574333324308E9 ; 3.142680224686465E10 ; 0.0
164 ; 1.1144721206423594E7 ; 2.0417489058892637E8 ; 2.0292185886106367E9 ; 3.163095935354573E10 ; 0.0
165 ; 1.111815160521396E7 ; 2.0419262886960253E8 ; 2.0403633098170602E9 ; 3.183513424413466E10 ; 0.0
166 ; 1.10944233588898E7 ; 2.0421032080237588E8 ; 2.051481461422274E9 ; 3.203932687300426E10 ; 0.0
167 ; 1.1070126418646313E7 ; 2.0422796567529E8 ; 2.062575884781164E9 ; 3.2243537193806637E10 ; 0.0
168 ; 1.105161621505114E7 ; 2.0424556278498346E8 ; 2.0736460111998103E9 ; 3.2447765159481926E10 ; 0.0
169 ; 1.1025885858416473E7 ; 2.0426311143651587E8 ; 2.0846976274148614E9 ; 3.265201072226691E10 ; 0.0
170 ; 1.1001659345919969E7 ; 2.042806109431984E8 ; 2.095723513273278E9 ; 3.2856273833703426E10 ; 0.0
171 ; 1.098054673019416E7 ; 2.0429806062642977E8 ; 2.106725172619198E9 ; 3.3060554444646626E10 ; 0.0
172 ; 1.0955090898996534E7 ; 2.043E8 ; 2.1177057193493922E9 ; 3.3264852505273056E10 ; 0.0
173 ; 1.0937732184756676E7 ; 2.043E8 ; 2.1286608102483888E9 ; 3.3469152505273056E10 ; 0.0
174 ; 1.0912683562669827E7 ; 2.043E8 ; 2.1395985424331455E9 ; 3.3673452505273056E10 ; 0.0
175 ; 1.089847147682887E7 ; 2.043E8 ; 2.1505112259958153E9 ; 3.3877752505273056E10 ; 0.0
176 ; 1.0872351304414537E7 ; 2.043E8 ; 2.1614096974726443E9 ; 3.4082052505273056E10 ; 0.0
177 ; 1.0856284117048752E7 ; 2.043E8 ; 2.172282048777059E9 ; 3.4286352505273056E10 ; 0.0
178 ; 1.083667114623013E7 ; 2.043E8 ; 2.183138332894108E9 ; 3.4490652505273056E10 ; 0.0
179 ; 1.0819131722683234E7 ; 2.043E8 ; 2.193975004040338E9 ; 3.4694952505273056E10 ; 0.0
180 ; 1.0799456625605911E7 ; 2.043E8 ; 2.2047941357630215E9 ; 3.4899252505273056E10 ; 0.0
181 ; 1.0777782369568586E7 ; 2.043E8 ; 2.2155935923886275E9 ; 3.5103552505273056E10 ; 0.0
182 ; 1.0758859938962366E7 ; 2.043E8 ; 2.226371374758196E9 ; 3.5307852505273056E10 ; 0.0
183 ; 1.0738002176861694E7 ; 2.043E8 ; 2.2371302346971583E9 ; 3.5512152505273056E10 ; 0.0
184 ; 1.0716903901889013E7 ; 2.043E8 ; 2.24786823687402E9 ; 3.5716452505273056E10 ; 0.0
185 ; 1.0695240919506457E7 ; 2.043E8 ; 2.258585140775909E9 ; 3.5920752505273056E10 ; 0.0
186 ; 1.067937961823758E7 ; 2.043E8 ; 2.2692803816954155E9 ; 3.6125052505273056E10 ; 0.0
187 ; 1.0660962082388917E7 ; 2.043E8 ; 2.279959761313653E9 ; 3.6329352505273056E10 ; 0.0
188 ; 1.063644290052031E7 ; 2.043E8 ; 2.290620723396042E9 ; 3.6533652505273056E10 ; 0.0
189 ; 1.0624382773205275E7 ; 2.043E8 ; 2.301257166296562E9 ; 3.6737952505273056E10 ; 0.0
190 ; 1.060065399653891E7 ; 2.043E8 ; 2.3118815490697675E9 ; 3.6942252505273056E10 ; 0.0
191 ; 1.0580067099194724E7 ; 2.043E8 ; 2.3224822030663066E9 ; 3.7146552505273056E10 ; 0.0
192 ; 1.0556361284502007E7 ; 2.043E8 ; 2.333062270165501E9 ; 3.7350852505273056E10 ; 0.0
193 ; 1.053957392782619E7 ; 2.043E8 ; 2.343618631450003E9 ; 3.7555152505273056E10 ; 0.0
194 ; 1.0522206553081792E7 ; 2.043E8 ; 2.3541582053778296E9 ; 3.7759452505273056E10 ; 0.0
195 ; 1.0502807305159375E7 ; 2.043E8 ; 2.3646804119309115E9 ; 3.7963752505273056E10 ; 0.0
196 ; 1.0477313645281417E7 ; 2.043E8 ; 2.375183219236071E9 ; 3.8168052505273056E10 ; 0.0
197 ; 1.0464353300498467E7 ; 2.043E8 ; 2.3856605328813524E9 ; 3.8372352505273056E10 ; 0.0
198 ; 1.0443447284731813E7 ; 2.043E8 ; 2.396124886181851E9 ; 3.8576652505273056E10 ; 0.0
