CSV File for the City 1 on Day 221
1 - Minute m 
2 - Power Consumed at minute m 
3 - Power Produced at minute m 
4 - Energy Consumed since the beginning of the day 
5 - Energy Produced since the beginning of the day 
6 - Energy Lost since the beginning of the day on lines starting from the city
 
0 ; 1054763.0122940647 ; 1.0526864981101266E8 ; 0.0 ; 0.0 ; 0.0
1 ; 1073706.1889482317 ; 1.054200691489693E8 ; 1054763.0122940647 ; 1.0526864981101266E8 ; 0.0
2 ; 1093826.5540877874 ; 1.0588036515820572E8 ; 2128469.2012422965 ; 2.1068871895998195E8 ; 0.0
3 ; 1113144.3648710693 ; 1.0664955695639348E8 ; 3222295.755330084 ; 3.1656908411818767E8 ; 0.0
4 ; 1140272.772901877 ; 1.0772766364217323E8 ; 4335440.120201154 ; 4.2321864107458115E8 ; 0.0
5 ; 1171874.0704956008 ; 1.0911470376516479E8 ; 5475712.8931030305 ; 5.309463047167544E8 ; 0.0
6 ; 1210573.1311217644 ; 1.1081069470580134E8 ; 6647586.963598631 ; 6.400610084819192E8 ; 0.0
7 ; 1269390.0001649505 ; 1.1281565199620324E8 ; 7858160.094720395 ; 7.508717031877205E8 ; 0.0
8 ; 1345364.2473744152 ; 1.1512958863029957E8 ; 9127550.094885346 ; 8.636873551839237E8 ; 0.0
9 ; 1466955.7962662766 ; 1.1775251442487258E8 ; 1.0472914342259761E7 ; 9.788169438142233E8 ; 0.0
10 ; 1650146.2329238188 ; 1.2068443549869913E8 ; 1.1939870138526037E7 ; 1.096569458239096E9 ; 0.0
11 ; 1942989.8285129175 ; 1.2392535393104544E8 ; 1.3590016371449856E7 ; 1.217253893737795E9 ; 0.0
12 ; 2404098.2969578817 ; 1.2747526764264527E8 ; 1.5533006199962774E7 ; 1.3411792476688406E9 ; 0.0
13 ; 2854713.1004841872 ; 1.3133417051472175E8 ; 1.7937104496920656E7 ; 1.468654515311486E9 ; 0.0
14 ; 2906778.302653455 ; 1.355020527304927E8 ; 2.0791817597404845E7 ; 1.5999886858262076E9 ; 0.0
15 ; 2936466.4163353946 ; 1.3997890129602897E8 ; 2.36985959000583E7 ; 1.7354907385567002E9 ; 0.0
16 ; 2955890.6294131237 ; 1.4476470067921028E8 ; 2.6635062316393696E7 ; 1.8754696398527293E9 ; 0.0
17 ; 2981488.430714311 ; 1.4985943349960336E8 ; 2.959095294580682E7 ; 2.0202343405319395E9 ; 0.0
18 ; 3004322.5354020675 ; 1.5526308120758843E8 ; 3.2572441376521133E7 ; 2.170093774031543E9 ; 0.0
19 ; 3027001.835546114 ; 1.6097562470452484E8 ; 3.55767639119232E7 ; 2.325356855239131E9 ; 0.0
20 ; 3050116.88864966 ; 1.66997044872741E8 ; 3.860376574746931E7 ; 2.486332479943656E9 ; 0.0
21 ; 3072533.3959181355 ; 1.7332732300070313E8 ; 4.165388263611897E7 ; 2.653329524816397E9 ; 0.0
22 ; 3102233.842298609 ; 1.799664411022663E8 ; 4.472641603203711E7 ; 2.8266568478171005E9 ; 0.0
23 ; 3122437.372562814 ; 1.8691438213835698E8 ; 4.782864987433572E7 ; 3.006623288919367E9 ; 0.0
24 ; 3146175.138366286 ; 1.9417113015483564E8 ; 5.095108724689853E7 ; 3.193537671057724E9 ; 0.0
25 ; 3170826.4641770935 ; 2.004247112505928E8 ; 5.409726238526482E7 ; 3.3877088012125597E9 ; 0.0
26 ; 3194760.0065174242 ; 2.004286596320847E8 ; 5.7268088849441916E7 ; 3.5881335124631524E9 ; 0.0
27 ; 3219424.1385232965 ; 2.004327321177138E8 ; 6.046284885595934E7 ; 3.7885621720952373E9 ; 0.0
28 ; 3243379.035707933 ; 2.004369173378043E8 ; 6.368227299448264E7 ; 3.988994904212951E9 ; 0.0
29 ; 3266502.2871866613 ; 2.0044120496429363E8 ; 6.692565203019057E7 ; 4.1894318215507555E9 ; 0.0
30 ; 3288845.403464151 ; 2.0044558563771793E8 ; 7.019215431737724E7 ; 4.389873026515049E9 ; 0.0
31 ; 3312895.9050121764 ; 2.0045005089010823E8 ; 7.34809997208414E7 ; 4.590318612152767E9 ; 0.0
32 ; 3337823.111254539 ; 2.0045459306759584E8 ; 7.679389562585357E7 ; 4.790768663042875E9 ; 0.0
33 ; 3355555.4615949253 ; 2.0045920525528792E8 ; 8.013171873710811E7 ; 4.991223256110471E9 ; 0.0
34 ; 3379133.508163442 ; 2.004638812060391E8 ; 8.348727419870304E7 ; 5.191682461365759E9 ; 0.0
35 ; 3399301.5875104526 ; 2.004686152740557E8 ; 8.686640770686647E7 ; 5.392146342571798E9 ; 0.0
36 ; 3418399.9990405776 ; 2.0047340235378048E8 ; 9.026570929437692E7 ; 5.592614957845854E9 ; 0.0
37 ; 3438731.9818659932 ; 2.0047823782416728E8 ; 9.36841092934175E7 ; 5.793088360199635E9 ; 0.0
38 ; 3457326.6771710296 ; 2.0048311749823222E8 ; 9.712284127528349E7 ; 5.993566598023802E9 ; 0.0
39 ; 3478395.6621999554 ; 2.0048803757762635E8 ; 1.0058016795245452E8 ; 6.194049715522034E9 ; 0.0
40 ; 3494254.598360139 ; 2.0049299461189532E8 ; 1.0405856361465448E8 ; 6.39453775309966E9 ; 0.0
41 ; 3510296.248148288 ; 2.004979854620504E8 ; 1.0755281821301462E8 ; 6.5950307477115555E9 ; 0.0
42 ; 3527184.969910271 ; 2.0050300726806408E8 ; 1.1106311446116291E8 ; 6.795528733173606E9 ; 0.0
43 ; 3546058.18360212 ; 2.0050805741990995E8 ; 1.1459029943107317E8 ; 6.99603174044167E9 ; 0.0
44 ; 3558304.9898946485 ; 2.0051313353178406E8 ; 1.181363576146753E8 ; 7.19653979786158E9 ; 0.0
45 ; 3571892.2596246917 ; 2.0051823341916943E8 ; 1.2169466260456994E8 ; 7.397052931393364E9 ; 0.0
46 ; 3588722.1154815983 ; 2.0052335507843313E8 ; 1.2526655486419463E8 ; 7.597571164812533E9 ; 0.0
47 ; 3602999.086055533 ; 2.0052849666867286E8 ; 1.2885527697967623E8 ; 7.798094519890966E9 ; 0.0
48 ; 3614060.3456842233 ; 2.0053365649555936E8 ; 1.3245827606573176E8 ; 7.998623016559639E9 ; 0.0
49 ; 3625195.72851887 ; 2.005388329969467E8 ; 1.36072336411416E8 ; 8.199156673055199E9 ; 0.0
50 ; 3637470.2806185326 ; 2.0054402473004708E8 ; 1.3969753213993487E8 ; 8.399695506052145E9 ; 0.0
51 ; 3645733.2898918106 ; 2.005492303599913E8 ; 1.433350024205534E8 ; 8.600239530782192E9 ; 0.0
52 ; 3657386.431279701 ; 2.0055444864961427E8 ; 1.469807357104452E8 ; 8.800788761142183E9 ; 0.0
53 ; 3663614.4167132373 ; 2.0055967845032543E8 ; 1.5063812214172488E8 ; 9.001343209791798E9 ; 0.0
54 ; 3675942.6454446125 ; 2.005649186939401E8 ; 1.5430173655843812E8 ; 9.201902888242123E9 ; 0.0
55 ; 3685206.6729609747 ; 2.0057016838536134E8 ; 1.5797767920388272E8 ; 9.402467806936062E9 ; 0.0
56 ; 3691676.200151954 ; 2.0057542659601694E8 ; 1.616628858768437E8 ; 9.603037975321423E9 ; 0.0
57 ; 3702556.212160448 ; 2.0058069245796567E8 ; 1.6535456207699564E8 ; 9.80361340191744E9 ; 0.0
58 ; 3711309.4788401937 ; 2.0058596515859845E8 ; 1.6905711828915608E8 ; 1.0004194094375406E10 ; 0.0
59 ; 3721811.6287876214 ; 2.0059124393586823E8 ; 1.7276842776799628E8 ; 1.0204780059534004E10 ; 0.0
60 ; 3734401.0190004837 ; 2.005965280739904E8 ; 1.764902393967839E8 ; 1.0405371303469872E10 ; 0.0
61 ; 3741100.1438076217 ; 2.0060181689956275E8 ; 1.8022464041578436E8 ; 1.0605967831543861E10 ; 0.0
62 ; 3748327.692900272 ; 2.0060710977805907E8 ; 1.8396574055959198E8 ; 1.0806569648443424E10 ; 0.0
63 ; 3758867.182999087 ; 2.0061240611065716E8 ; 1.8771406825249225E8 ; 1.1007176758221483E10 ; 0.0
64 ; 3767658.840971954 ; 2.0061770533136502E8 ; 1.9147293543549132E8 ; 1.120778916433214E10 ; 0.0
65 ; 3777319.3365223585 ; 2.006230069044148E8 ; 1.9524059427646327E8 ; 1.1408406869663506E10 ; 0.0
66 ; 3782226.561051874 ; 2.006283103218959E8 ; 1.9901791361298564E8 ; 1.160902987656792E10 ; 0.0
67 ; 3793080.4310884704 ; 2.006336151016033E8 ; 2.0280014017403752E8 ; 1.1809658186889816E10 ; 0.0
68 ; 3802218.0305985166 ; 2.0063892078507888E8 ; 2.06593220605126E8 ; 1.2010291801991419E10 ; 0.0
69 ; 3809665.905701353 ; 2.006442269358265E8 ; 2.103954386357245E8 ; 1.2210930722776497E10 ; 0.0
70 ; 3815927.590428158 ; 2.0064953313768345E8 ; 2.1420510454142585E8 ; 1.2411574949712324E10 ; 0.0
71 ; 3823786.4290326275 ; 2.0065483899333286E8 ; 2.18021032131854E8 ; 1.2612224482850008E10 ; 0.0
72 ; 3827674.69840257 ; 2.0066014412294358E8 ; 2.2184481856088662E8 ; 1.2812879321843342E10 ; 0.0
73 ; 3840108.1787840314 ; 2.0066544816292495E8 ; 2.256724932592892E8 ; 1.3013539465966286E10 ; 0.0
74 ; 3848130.0558016934 ; 2.0067075076478574E8 ; 2.2951260143807325E8 ; 1.3214204914129211E10 ; 0.0
75 ; 3854569.788406717 ; 2.0067605159408727E8 ; 2.3336073149387494E8 ; 1.3414875664893997E10 ; 0.0
76 ; 3860000.05388326 ; 2.0068135032948214E8 ; 2.3721530128228167E8 ; 1.3615551716488085E10 ; 0.0
77 ; 3865856.5414413153 ; 2.0068664666183048E8 ; 2.4107530133616492E8 ; 1.3816233066817568E10 ; 0.0
78 ; 3864229.8515609023 ; 2.0069194029338682E8 ; 2.4494115787760624E8 ; 1.4016919713479399E10 ; 0.0
79 ; 3869695.547844669 ; 2.0069723093705097E8 ; 2.4880538772916713E8 ; 1.4217611653772785E10 ; 0.0
80 ; 3872736.440055345 ; 2.0070251831567767E8 ; 2.526750832770118E8 ; 1.4418308884709837E10 ; 0.0
81 ; 3873970.95104343 ; 2.007078021614391E8 ; 2.5654781971706715E8 ; 1.4619011403025515E10 ; 0.0
82 ; 3879990.1463427735 ; 2.007130822152363E8 ; 2.6042179066811058E8 ; 1.4819719205186954E10 ; 0.0
83 ; 3876404.54398294 ; 2.0071835822615513E8 ; 2.6430178081445336E8 ; 1.5020432287402191E10 ; 0.0
84 ; 3878594.531292232 ; 2.0072362995096245E8 ; 2.6817818535843632E8 ; 1.5221150645628345E10 ; 0.0
85 ; 3879273.177533937 ; 2.0072889715363988E8 ; 2.7205677988972855E8 ; 1.5421874275579308E10 ; 0.0
86 ; 3877513.527741936 ; 2.0073415960495153E8 ; 2.759360530672625E8 ; 1.5622603172732948E10 ; 0.0
87 ; 3880001.578575274 ; 2.007394170820428E8 ; 2.798135665950044E8 ; 1.58233373323379E10 ; 0.0
88 ; 3879997.1790130762 ; 2.007446693680683E8 ; 2.8369356817357963E8 ; 1.6024076749419943E10 ; 0.0
89 ; 3880522.9455237933 ; 2.0074991625184563E8 ; 2.875735653525927E8 ; 1.6224821418788012E10 ; 0.0
90 ; 3883103.9496020116 ; 2.007551575275337E8 ; 2.914540882981165E8 ; 1.6425571335039858E10 ; 0.0
91 ; 3884067.5804399326 ; 2.0076039299433354E8 ; 2.953371922477185E8 ; 1.6626326492567392E10 ; 0.0
92 ; 3881358.409876686 ; 2.007656224562091E8 ; 2.9922125982815844E8 ; 1.6827086885561726E10 ; 0.0
93 ; 3877266.441136745 ; 2.0077084572162774E8 ; 3.0310261823803514E8 ; 1.7027852508017935E10 ; 0.0
94 ; 3878454.4913102407 ; 2.0077606260331762E8 ; 3.0697988467917186E8 ; 1.7228623353739563E10 ; 0.0
95 ; 3881115.7144773197 ; 2.007812729180415E8 ; 3.108583391704821E8 ; 1.742939941634288E10 ; 0.0
96 ; 3879937.591378012 ; 2.007864764863856E8 ; 3.147394548849594E8 ; 1.763018068926092E10 ; 0.0
97 ; 3879484.630720154 ; 2.007916731325621E8 ; 3.1861939247633743E8 ; 1.7830967165747307E10 ; 0.0
98 ; 3880100.8227063105 ; 2.007968626842243E8 ; 3.224988771070576E8 ; 1.8031758838879868E10 ; 0.0
99 ; 3878232.6725969147 ; 2.0080204497229415E8 ; 3.2637897792976385E8 ; 1.823255570156409E10 ; 0.0
100 ; 3876753.227462847 ; 2.008072198308002E8 ; 3.302572106023608E8 ; 1.8433357746536385E10 ; 0.0
101 ; 3876387.4794726716 ; 2.008123870967261E8 ; 3.341339638298236E8 ; 1.8634164966367184E10 ; 0.0
102 ; 3873532.2308388567 ; 2.0081754660986838E8 ; 3.380103513092963E8 ; 1.883497735346391E10 ; 0.0
103 ; 3870349.5968069704 ; 2.0082269821270332E8 ; 3.4188388354013515E8 ; 1.9035794900073776E10 ; 0.0
104 ; 3872680.929020971 ; 2.0082784175026157E8 ; 3.457542331369421E8 ; 1.923661759828648E10 ; 0.0
105 ; 3869080.1848197132 ; 2.0083297707001084E8 ; 3.4962691406596303E8 ; 1.9437445440036743E10 ; 0.0
106 ; 3871125.635981416 ; 2.0083810402174532E8 ; 3.534959942507827E8 ; 1.9638278417106754E10 ; 0.0
107 ; 3867529.0145037025 ; 2.0084322245748192E8 ; 3.5736711988676417E8 ; 1.9839116521128498E10 ; 0.0
108 ; 3867595.5014372906 ; 2.0084833223136264E8 ; 3.612346489012679E8 ; 2.003995974358598E10 ; 0.0
109 ; 3864361.54516624 ; 2.0085343319956267E8 ; 3.651022444027052E8 ; 2.024080807581734E10 ; 0.0
110 ; 3858813.944512309 ; 2.0085852522020373E8 ; 3.6896660594787145E8 ; 2.0441661509016903E10 ; 0.0
111 ; 3862056.5681770146 ; 2.0086360815327278E8 ; 3.7282541989238375E8 ; 2.0642520034237106E10 ; 0.0
112 ; 3854945.239914798 ; 2.0086868186054498E8 ; 3.766874764605608E8 ; 2.084338364239038E10 ; 0.0
113 ; 3851475.499670355 ; 2.0087374620551136E8 ; 3.805424217004756E8 ; 2.1044252324250927E10 ; 0.0
114 ; 3850898.699624781 ; 2.0087880105331042E8 ; 3.843938972001459E8 ; 2.124512607045644E10 ; 0.0
115 ; 3847019.4716134444 ; 2.008838462706637E8 ; 3.882447958997707E8 ; 2.144600487150975E10 ; 0.0
116 ; 3843203.15270408 ; 2.008888817258148E8 ; 3.9209181537138414E8 ; 2.1646888717780415E10 ; 0.0
117 ; 3839711.4979957025 ; 2.008939072884719E8 ; 3.959350185240882E8 ; 2.184777759950623E10 ; 0.0
118 ; 3835752.8028583378 ; 2.0089892282975346E8 ; 3.997747300220839E8 ; 2.20486715067947E10 ; 0.0
119 ; 3835819.636587851 ; 2.009039282221367E8 ; 4.0361048282494223E8 ; 2.2249570429624454E10 ; 0.0
120 ; 3833054.811374276 ; 2.009089233394092E8 ; 4.074463024615301E8 ; 2.2450474357846592E10 ; 0.0
121 ; 3828763.951889936 ; 2.0091390805662274E8 ; 4.1127935727290434E8 ; 2.2651383281186E10 ; 0.0
122 ; 3824228.742897819 ; 2.0091888225004986E8 ; 4.1510812122479427E8 ; 2.2852297189242622E10 ; 0.0
123 ; 3821129.1413580575 ; 2.0092384579714277E8 ; 4.189323499676921E8 ; 2.3053216071492672E10 ; 0.0
124 ; 3814248.460138188 ; 2.0092879857649425E8 ; 4.2275347910905015E8 ; 2.3254139917289814E10 ; 0.0
125 ; 3812755.5036469256 ; 2.009337404678006E8 ; 4.2656772756918836E8 ; 2.345506871586631E10 ; 0.0
126 ; 3812645.871301924 ; 2.0093867135182688E8 ; 4.3038048307283527E8 ; 2.365600245633411E10 ; 0.0
127 ; 3806994.692700545 ; 2.0094359111037347E8 ; 4.341931289441372E8 ; 2.3856941127685936E10 ; 0.0
128 ; 3801759.8630903917 ; 2.0094849962624472E8 ; 4.380001236368378E8 ; 2.405788471879631E10 ; 0.0
129 ; 3798525.2935869005 ; 2.0095339678321904E8 ; 4.418018834999282E8 ; 2.4258833218422554E10 ; 0.0
130 ; 3789894.2930177986 ; 2.009582824660206E8 ; 4.456004087935151E8 ; 2.4459786615205772E10 ; 0.0
131 ; 3777922.8354120734 ; 2.0096315656029245E8 ; 4.493903030865329E8 ; 2.4660744897671795E10 ; 0.0
132 ; 3768131.280606699 ; 2.0096801895257092E8 ; 4.53168225921945E8 ; 2.4861708054232086E10 ; 0.0
133 ; 3756572.6924382066 ; 2.0097286953026146E8 ; 4.5693635720255166E8 ; 2.5062676073184658E10 ; 0.0
134 ; 3748819.6260492313 ; 2.0097770818161562E8 ; 4.6069292989498985E8 ; 2.526364894271492E10 ; 0.0
135 ; 3736963.9283581222 ; 2.0098253479570916E8 ; 4.6444174952103907E8 ; 2.5464626650896534E10 ; 0.0
136 ; 3725646.5235989173 ; 2.0098734926242128E8 ; 4.681787134493972E8 ; 2.566560918569224E10 ; 0.0
137 ; 3716634.1090955897 ; 2.0099215147241488E8 ; 4.719043599729961E8 ; 2.5866596534954662E10 ; 0.0
138 ; 3702355.969084429 ; 2.0099694131711778E8 ; 4.756209940820917E8 ; 2.606758868642708E10 ; 0.0
139 ; 3697042.243194229 ; 2.0100171868870485E8 ; 4.7932335005117613E8 ; 2.6268585627744198E10 ; 0.0
140 ; 3684957.719584017 ; 2.0100648348008105E8 ; 4.8302039229437035E8 ; 2.6469587346432903E10 ; 0.0
141 ; 3672142.9474021606 ; 2.0101123558486542E8 ; 4.8670535001395434E8 ; 2.6670593829912983E10 ; 0.0
142 ; 3661232.988224004 ; 2.010159748973755E8 ; 4.903774929613565E8 ; 2.687160506549785E10 ; 0.0
143 ; 3648430.5984454677 ; 2.0102070131261286E8 ; 4.9403872594958055E8 ; 2.7072621040395226E10 ; 0.0
144 ; 3638114.2600066825 ; 2.010254147262492E8 ; 4.97687156548026E8 ; 2.727364174170784E10 ; 0.0
145 ; 3634097.6316988645 ; 2.0103011503461307E8 ; 5.013252708080327E8 ; 2.747466715643409E10 ; 0.0
146 ; 3629522.6881383234 ; 2.0103480213467738E8 ; 5.0495936843973154E8 ; 2.7675697271468704E10 ; 0.0
147 ; 3621166.1797048217 ; 2.0103947592404732E8 ; 5.0858889112786984E8 ; 2.7876732073603382E10 ; 0.0
148 ; 3621501.387282711 ; 2.01044136300949E8 ; 5.122100573075747E8 ; 2.8077771549527428E10 ; 0.0
149 ; 3612839.595923171 ; 2.0104878316421854E8 ; 5.158315586948574E8 ; 2.8278815685828377E10 ; 0.0
150 ; 3608650.086566924 ; 2.010534164132919E8 ; 5.194443982907806E8 ; 2.8479864468992596E10 ; 0.0
151 ; 3606756.414629198 ; 2.0105803594819483E8 ; 5.230530483773475E8 ; 2.8680917885405888E10 ; 0.0
152 ; 3599606.972880312 ; 2.0106264166953367E8 ; 5.2665980479197675E8 ; 2.8881975921354084E10 ; 0.0
153 ; 3600282.830165708 ; 2.0106723347848627E8 ; 5.3025941176485705E8 ; 2.9083038563023617E10 ; 0.0
154 ; 3592864.8219791036 ; 2.0107181127679366E8 ; 5.3385969459502274E8 ; 2.92841057965021E10 ; 0.0
155 ; 3588917.2012306936 ; 2.0107637496675193E8 ; 5.374525594170018E8 ; 2.9485177607778896E10 ; 0.0
156 ; 3583179.7191493395 ; 2.0108092445120442E8 ; 5.410414766182325E8 ; 2.9686253982745647E10 ; 0.0
157 ; 3580724.9136390258 ; 2.0108545963353452E8 ; 5.446246563373818E8 ; 2.9887334907196854E10 ; 0.0
158 ; 3571042.6735958587 ; 2.0108998041765863E8 ; 5.482053812510209E8 ; 3.0088420366830387E10 ; 0.0
159 ; 3568013.5725479075 ; 2.0109448670801955E8 ; 5.517764239246168E8 ; 3.0289510347248047E10 ; 0.0
160 ; 3563230.5963335657 ; 2.010989784095801E8 ; 5.553444374971647E8 ; 3.0490604833956066E10 ; 0.0
161 ; 3557517.1396577973 ; 2.0110345542781726E8 ; 5.589076680934983E8 ; 3.0691703812365646E10 ; 0.0
162 ; 3557448.548059185 ; 2.011079176687162E8 ; 5.624651852331562E8 ; 3.0892807267793465E10 ; 0.0
163 ; 3551100.1497083823 ; 2.01112365038765E8 ; 5.660226337812154E8 ; 3.109391518546218E10 ; 0.0
164 ; 3543264.297972052 ; 2.011167974449496E8 ; 5.695737339309238E8 ; 3.1295027550500946E10 ; 0.0
165 ; 3536869.401563231 ; 2.0112121479474846E8 ; 5.731169982288959E8 ; 3.1496144347945896E10 ; 0.0
166 ; 3535858.852801733 ; 2.0112561699612826E8 ; 5.766538676304592E8 ; 3.1697265562740646E10 ; 0.0
167 ; 3529834.352014969 ; 2.0113000395753935E8 ; 5.801897264832609E8 ; 3.1898391179736774E10 ; 0.0
168 ; 3523173.137045867 ; 2.0113437558791137E8 ; 5.837195608352759E8 ; 3.2099521183694313E10 ; 0.0
169 ; 3521247.1456696372 ; 2.0113873179664937E8 ; 5.872427339723217E8 ; 3.2300655559282223E10 ; 0.0
170 ; 3514827.602774812 ; 2.0114307249363E8 ; 5.907639811179913E8 ; 3.2501794291078873E10 ; 0.0
171 ; 3510061.551507557 ; 2.0114739758919773E8 ; 5.942788087207662E8 ; 3.2702937363572502E10 ; 0.0
172 ; 3504180.159166939 ; 2.011517069941616E8 ; 5.977888702722738E8 ; 3.29040847611617E10 ; 0.0
173 ; 3495932.3158528795 ; 2.011560006197918E8 ; 6.012930504314407E8 ; 3.310523646815586E10 ; 0.0
174 ; 3496141.8184807003 ; 2.0116027837781662E8 ; 6.047889827472936E8 ; 3.3306392468775654E10 ; 0.0
175 ; 3492396.6459635356 ; 2.0116454018041956E8 ; 6.082851245657743E8 ; 3.350755274715347E10 ; 0.0
176 ; 3486237.06907504 ; 2.0116878594023648E8 ; 6.117775212117379E8 ; 3.370871728733389E10 ; 0.0
177 ; 3486306.7492038207 ; 2.0117301557035294E8 ; 6.152637582808129E8 ; 3.3909886073274124E10 ; 0.0
178 ; 3480903.2252429635 ; 2.0117722898430184E8 ; 6.187500650300167E8 ; 3.411105908884448E10 ; 0.0
179 ; 3481044.3996055834 ; 2.011814260960609E8 ; 6.222309682552596E8 ; 3.431223631782878E10 ; 0.0
180 ; 3475235.8238847116 ; 2.0118560682005054E8 ; 6.257120126548653E8 ; 3.451341774392484E10 ; 0.0
181 ; 3472967.060284194 ; 2.0118977107113168E8 ; 6.2918724847875E8 ; 3.4714603350744896E10 ; 0.0
182 ; 3469384.8228226216 ; 2.0119391876460385E8 ; 6.326602155390341E8 ; 3.4915793121816025E10 ; 0.0
183 ; 3465061.475092808 ; 2.0119804981620333E8 ; 6.361296003618567E8 ; 3.511698704058063E10 ; 0.0
184 ; 3464498.865805807 ; 2.0120216414210117E8 ; 6.395946618369495E8 ; 3.531818509039683E10 ; 0.0
185 ; 3459668.4486822467 ; 2.0120626165890187E8 ; 6.430591607027553E8 ; 3.5519387254538925E10 ; 0.0
186 ; 3456265.2817656635 ; 2.0121034228364155E8 ; 6.465188291514375E8 ; 3.572059351619783E10 ; 0.0
187 ; 3452990.8868840155 ; 2.0121440593378657E8 ; 6.499750944332032E8 ; 3.592180385848147E10 ; 0.0
188 ; 3452935.023098784 ; 2.012184525272322E8 ; 6.534280853200872E8 ; 3.612301826441525E10 ; 0.0
189 ; 3444736.6318705413 ; 2.0122248198230132E8 ; 6.56881020343186E8 ; 3.632423671694248E10 ; 0.0
190 ; 3441695.156361537 ; 2.012264942177432E8 ; 6.603257569750565E8 ; 3.652545919892478E10 ; 0.0
191 ; 3438597.827631812 ; 2.012304891527323E8 ; 6.637674521314181E8 ; 3.6726685693142525E10 ; 0.0
192 ; 3434166.7098017978 ; 2.0123446670686755E8 ; 6.672060499590499E8 ; 3.692791618229526E10 ; 0.0
193 ; 3430492.353433701 ; 2.012384268001709E8 ; 6.706402166688517E8 ; 3.712915064900213E10 ; 0.0
194 ; 3430242.7478636224 ; 2.0124236935308686E8 ; 6.740707090222855E8 ; 3.73303890758023E10 ; 0.0
195 ; 3424129.086481891 ; 2.0124629428648147E8 ; 6.775009517701491E8 ; 3.753163144515539E10 ; 0.0
196 ; 3422955.47063606 ; 2.0125020152164155E8 ; 6.80925080856631E8 ; 3.773287773944187E10 ; 0.0
197 ; 3419339.503937507 ; 2.0125409098027402E8 ; 6.84348036327267E8 ; 3.793412794096352E10 ; 0.0
198 ; 3415315.3536725827 ; 2.0125796258450535E8 ; 6.877673758312045E8 ; 3.813538203194379E10 ; 0.0
199 ; 3411845.571814398 ; 2.0126181625688085E8 ; 6.911826911848772E8 ; 3.833663999452829E10 ; 0.0
200 ; 3408695.27359465 ; 2.012656519203642E8 ; 6.945945367566916E8 ; 3.853790181078517E10 ; 0.0
