CSV File for the City 1 on Day 10
1 - Minute m 
2 - Power Consumed at minute m 
3 - Power Produced at minute m 
4 - Energy Consumed since the beginning of the day 
5 - Energy Produced since the beginning of the day 
6 - Energy Lost since the beginning of the day on lines starting from the city
 
0 ; 1.1855392030503161E7 ; 1.408906965575242E7 ; 0.0 ; 0.0 ; 0.0
1 ; 1.1863975766890073E7 ; 1.408906965575242E7 ; 1.1855392030503161E7 ; 1.408906965575242E7 ; 0.0
2 ; 1.1875812736805417E7 ; 1.408906965575242E7 ; 2.3719367797393233E7 ; 2.817813931150484E7 ; 0.0
3 ; 1.1895556231933521E7 ; 1.408906965575242E7 ; 3.559518053419865E7 ; 4.226720896725726E7 ; 0.0
4 ; 1.1906206138207674E7 ; 1.408906965575242E7 ; 4.749073676613217E7 ; 5.635627862300968E7 ; 0.0
5 ; 1.1928124409780765E7 ; 1.408906965575242E7 ; 5.939694290433984E7 ; 7.04453482787621E7 ; 0.0
6 ; 1.1959060560112473E7 ; 1.408906965575242E7 ; 7.13250673141206E7 ; 8.453441793451452E7 ; 0.0
7 ; 1.1998800995492449E7 ; 1.408906965575242E7 ; 8.328412787423308E7 ; 9.862348759026694E7 ; 0.0
8 ; 1.2056850751498098E7 ; 1.408906965575242E7 ; 9.528292886972553E7 ; 1.1271255724601936E8 ; 0.0
9 ; 1.2145913610236213E7 ; 1.408906965575242E7 ; 1.0733977962122363E8 ; 1.2680162690177178E8 ; 0.0
10 ; 1.2279811830361217E7 ; 1.408906965575242E7 ; 1.1948569323145984E8 ; 1.408906965575242E8 ; 0.0
11 ; 1.2494067782015126E7 ; 1.408906965575242E7 ; 1.3176550506182106E8 ; 1.5497976621327662E8 ; 0.0
12 ; 1.2840538649166388E7 ; 1.408906965575242E7 ; 1.442595728438362E8 ; 1.6906883586902905E8 ; 0.0
13 ; 1.3173464414833697E7 ; 1.408906965575242E7 ; 1.5710011149300256E8 ; 1.8315790552478147E8 ; 0.0
14 ; 1.32127457021336E7 ; 1.408906965575242E7 ; 1.7027357590783626E8 ; 1.972469751805339E8 ; 0.0
15 ; 1.3229594083017202E7 ; 1.408906965575242E7 ; 1.8348632160996985E8 ; 2.113360448362863E8 ; 0.0
16 ; 1.3244212431053976E7 ; 1.408906965575242E7 ; 1.9671591569298705E8 ; 2.2542511449203873E8 ; 0.0
17 ; 1.3259994981726762E7 ; 1.408906965575242E7 ; 2.0996012812404102E8 ; 2.3951418414779115E8 ; 0.0
18 ; 1.3273468874938479E7 ; 1.408906965575242E7 ; 2.232201231057678E8 ; 2.5360325380354357E8 ; 0.0
19 ; 1.3293987911328472E7 ; 1.408906965575242E7 ; 2.3649359198070627E8 ; 2.67692323459296E8 ; 0.0
20 ; 1.3305083961683698E7 ; 1.408906965575242E7 ; 2.4978757989203474E8 ; 2.817813931150484E8 ; 0.0
21 ; 1.3321458913234828E7 ; 1.408906965575242E7 ; 2.6309266385371843E8 ; 2.958704627708008E8 ; 0.0
22 ; 1.3340004479295807E7 ; 1.408906965575242E7 ; 2.7641412276695323E8 ; 3.0995953242655325E8 ; 0.0
23 ; 1.3352460255660404E7 ; 1.408906965575242E7 ; 2.89754127246249E8 ; 3.2404860208230567E8 ; 0.0
24 ; 1.3367019713484041E7 ; 1.408906965575242E7 ; 3.0310658750190943E8 ; 3.381376717380581E8 ; 0.0
25 ; 1.3384472298588157E7 ; 1.408906965575242E7 ; 3.164736072153935E8 ; 3.522267413938105E8 ; 0.0
26 ; 1.3398319078949938E7 ; 1.408906965575242E7 ; 3.2985807951398164E8 ; 3.6631581104956293E8 ; 0.0
27 ; 1.341292037295568E7 ; 1.408906965575242E7 ; 3.4325639859293157E8 ; 3.8040488070531535E8 ; 0.0
28 ; 1.3428181363468003E7 ; 1.408906965575242E7 ; 3.5666931896588725E8 ; 3.944939503610678E8 ; 0.0
29 ; 1.3443862815158918E7 ; 1.408906965575242E7 ; 3.7009750032935524E8 ; 4.085830200168202E8 ; 0.0
30 ; 1.346068234374515E7 ; 1.408906965575242E7 ; 3.8354136314451414E8 ; 4.226720896725726E8 ; 0.0
31 ; 1.3474450327521926E7 ; 1.408906965575242E7 ; 3.970020454882593E8 ; 4.3676115932832503E8 ; 0.0
32 ; 1.3488094351483462E7 ; 1.408906965575242E7 ; 4.1047649581578124E8 ; 4.5085022898407745E8 ; 0.0
33 ; 1.3498203605474712E7 ; 1.408906965575242E7 ; 4.239645901672647E8 ; 4.649392986398299E8 ; 0.0
34 ; 1.3514360241318889E7 ; 1.408906965575242E7 ; 4.374627937727394E8 ; 4.790283682955823E8 ; 0.0
35 ; 1.3521418285681011E7 ; 1.408906965575242E7 ; 4.509771540140583E8 ; 4.931174379513347E8 ; 0.0
36 ; 1.3538618657626895E7 ; 1.408906965575242E7 ; 4.644985722997393E8 ; 5.0720650760708714E8 ; 0.0
37 ; 1.3550332944878366E7 ; 1.408906965575242E7 ; 4.7803719095736617E8 ; 5.2129557726283956E8 ; 0.0
38 ; 1.3563432524357162E7 ; 1.408906965575242E7 ; 4.915875239022445E8 ; 5.35384646918592E8 ; 0.0
39 ; 1.3570845419112083E7 ; 1.408906965575242E7 ; 5.0515095642660165E8 ; 5.494737165743444E8 ; 0.0
40 ; 1.3581460020190407E7 ; 1.408906965575242E7 ; 5.1872180184571373E8 ; 5.635627862300968E8 ; 0.0
41 ; 1.3591307133619513E7 ; 1.408906965575242E7 ; 5.3230326186590415E8 ; 5.776518558858492E8 ; 0.0
42 ; 1.360017128099706E7 ; 1.408906965575242E7 ; 5.458945689995236E8 ; 5.917409255416017E8 ; 0.0
43 ; 1.3608245841653258E7 ; 1.408906965575242E7 ; 5.594947402805207E8 ; 6.058299951973541E8 ; 0.0
44 ; 1.361791403550239E7 ; 1.408906965575242E7 ; 5.731029861221739E8 ; 6.199190648531065E8 ; 0.0
45 ; 1.3628526597818658E7 ; 1.408906965575242E7 ; 5.867209001576763E8 ; 6.340081345088589E8 ; 0.0
46 ; 1.3632630305152217E7 ; 1.408906965575242E7 ; 6.00349426755495E8 ; 6.480972041646113E8 ; 0.0
47 ; 1.3639231737142889E7 ; 1.408906965575242E7 ; 6.139820570606471E8 ; 6.621862738203638E8 ; 0.0
48 ; 1.3641766558175085E7 ; 1.408906965575242E7 ; 6.2762128879779E8 ; 6.762753434761162E8 ; 0.0
49 ; 1.3648852030960293E7 ; 1.408906965575242E7 ; 6.412630553559651E8 ; 6.903644131318686E8 ; 0.0
50 ; 1.3654714777411891E7 ; 1.408906965575242E7 ; 6.549119073869255E8 ; 7.04453482787621E8 ; 0.0
51 ; 1.3658162593063008E7 ; 1.408906965575242E7 ; 6.685666221643374E8 ; 7.185425524433734E8 ; 0.0
52 ; 1.3660355179369614E7 ; 1.408906965575242E7 ; 6.822247847574004E8 ; 7.326316220991259E8 ; 0.0
53 ; 1.3663601997854194E7 ; 1.408906965575242E7 ; 6.9588513993677E8 ; 7.467206917548783E8 ; 0.0
54 ; 1.366622453649196E7 ; 1.408906965575242E7 ; 7.095487419346242E8 ; 7.608097614106307E8 ; 0.0
55 ; 1.3672680277820712E7 ; 1.408906965575242E7 ; 7.232149664711162E8 ; 7.748988310663831E8 ; 0.0
56 ; 1.3675508339868262E7 ; 1.408906965575242E7 ; 7.368876467489369E8 ; 7.889879007221355E8 ; 0.0
57 ; 1.3678712656959228E7 ; 1.408906965575242E7 ; 7.505631550888052E8 ; 8.03076970377888E8 ; 0.0
58 ; 1.3679924633989427E7 ; 1.408906965575242E7 ; 7.642418677457644E8 ; 8.171660400336404E8 ; 0.0
59 ; 1.3682227630252553E7 ; 1.408906965575242E7 ; 7.779217923797538E8 ; 8.312551096893928E8 ; 0.0
60 ; 1.3688067219809933E7 ; 1.408906965575242E7 ; 7.916040200100064E8 ; 8.453441793451452E8 ; 0.0
61 ; 1.3688885152018532E7 ; 1.408906965575242E7 ; 8.052920872298163E8 ; 8.594332490008976E8 ; 0.0
62 ; 1.3690615985800875E7 ; 1.408906965575242E7 ; 8.189809723818349E8 ; 8.735223186566501E8 ; 0.0
63 ; 1.368966644087953E7 ; 1.408906965575242E7 ; 8.326715883676357E8 ; 8.876113883124025E8 ; 0.0
64 ; 1.3696992849241817E7 ; 1.408906965575242E7 ; 8.463612548085153E8 ; 9.017004579681549E8 ; 0.0
65 ; 1.3702646300616097E7 ; 1.408906965575242E7 ; 8.600582476577572E8 ; 9.157895276239073E8 ; 0.0
66 ; 1.3697305832166445E7 ; 1.408906965575242E7 ; 8.737608939583733E8 ; 9.298785972796597E8 ; 0.0
67 ; 1.3702767028941784E7 ; 1.408906965575242E7 ; 8.874581997905397E8 ; 9.439676669354122E8 ; 0.0
68 ; 1.3700683447771478E7 ; 1.408906965575242E7 ; 9.011609668194815E8 ; 9.580567365911646E8 ; 0.0
69 ; 1.3706617429674923E7 ; 1.408906965575242E7 ; 9.148616502672529E8 ; 9.72145806246917E8 ; 0.0
70 ; 1.3706133991633343E7 ; 1.408906965575242E7 ; 9.285682676969278E8 ; 9.862348759026694E8 ; 0.0
71 ; 1.3708718357000986E7 ; 1.408906965575242E7 ; 9.422744016885611E8 ; 1.0003239455584219E9 ; 0.0
72 ; 1.370796183901987E7 ; 1.408906965575242E7 ; 9.55983120045562E8 ; 1.0144130152141743E9 ; 0.0
73 ; 1.3709013641071603E7 ; 1.408906965575242E7 ; 9.696910818845819E8 ; 1.0285020848699267E9 ; 0.0
74 ; 1.3711736636197297E7 ; 1.408906965575242E7 ; 9.834000955256535E8 ; 1.0425911545256791E9 ; 0.0
75 ; 1.3710397980496349E7 ; 1.408906965575242E7 ; 9.971118321618508E8 ; 1.0566802241814315E9 ; 0.0
76 ; 1.3714617915605484E7 ; 1.408906965575242E7 ; 1.0108222301423472E9 ; 1.070769293837184E9 ; 0.0
77 ; 1.3712222019847272E7 ; 1.408906965575242E7 ; 1.0245368480579526E9 ; 1.0848583634929364E9 ; 0.0
78 ; 1.3706753431273911E7 ; 1.408906965575242E7 ; 1.0382490700777999E9 ; 1.0989474331486888E9 ; 0.0
79 ; 1.3701543778050033E7 ; 1.408906965575242E7 ; 1.0519558235090739E9 ; 1.1130365028044412E9 ; 0.0
80 ; 1.3698122722200086E7 ; 1.408906965575242E7 ; 1.0656573672871239E9 ; 1.1271255724601936E9 ; 0.0
81 ; 1.3695529887196943E7 ; 1.408906965575242E7 ; 1.079355490009324E9 ; 1.141214642115946E9 ; 0.0
82 ; 1.3694734724173063E7 ; 1.408906965575242E7 ; 1.093051019896521E9 ; 1.1553037117716985E9 ; 0.0
83 ; 1.3687161417998867E7 ; 1.408906965575242E7 ; 1.1067457546206942E9 ; 1.169392781427451E9 ; 0.0
84 ; 1.3682903211770779E7 ; 1.408906965575242E7 ; 1.120432916038693E9 ; 1.1834818510832033E9 ; 0.0
85 ; 1.3681500963545896E7 ; 1.408906965575242E7 ; 1.1341158192504637E9 ; 1.1975709207389557E9 ; 0.0
86 ; 1.3672383633243226E7 ; 1.408906965575242E7 ; 1.1477973202140095E9 ; 1.2116599903947082E9 ; 0.0
87 ; 1.3672889333299534E7 ; 1.408906965575242E7 ; 1.1614697038472528E9 ; 1.2257490600504606E9 ; 0.0
88 ; 1.3663794483836282E7 ; 1.408906965575242E7 ; 1.1751425931805525E9 ; 1.239838129706213E9 ; 0.0
89 ; 1.3663025625498442E7 ; 1.408906965575242E7 ; 1.1888063876643887E9 ; 1.2539271993619654E9 ; 0.0
90 ; 1.3656649307172373E7 ; 1.408906965575242E7 ; 1.2024694132898872E9 ; 1.2680162690177178E9 ; 0.0
91 ; 1.3649502168819169E7 ; 1.408906965575242E7 ; 1.2161260625970595E9 ; 1.2821053386734703E9 ; 0.0
92 ; 1.3642058163077127E7 ; 1.408906965575242E7 ; 1.2297755647658787E9 ; 1.2961944083292227E9 ; 0.0
93 ; 1.3636596709565187E7 ; 1.408906965575242E7 ; 1.2434176229289558E9 ; 1.310283477984975E9 ; 0.0
94 ; 1.3635939540946998E7 ; 1.408906965575242E7 ; 1.257054219638521E9 ; 1.3243725476407275E9 ; 0.0
95 ; 1.3625796269297758E7 ; 1.408906965575242E7 ; 1.270690159179468E9 ; 1.33846161729648E9 ; 0.0
96 ; 1.3620937343902536E7 ; 1.408906965575242E7 ; 1.2843159554487658E9 ; 1.3525506869522324E9 ; 0.0
97 ; 1.3615675549378093E7 ; 1.408906965575242E7 ; 1.2979368927926683E9 ; 1.3666397566079848E9 ; 0.0
98 ; 1.3610112916280791E7 ; 1.408906965575242E7 ; 1.3115525683420465E9 ; 1.3807288262637372E9 ; 0.0
99 ; 1.360406803655811E7 ; 1.408906965575242E7 ; 1.3251626812583272E9 ; 1.3948178959194896E9 ; 0.0
100 ; 1.3594703034392169E7 ; 1.408906965575242E7 ; 1.3387667492948854E9 ; 1.408906965575242E9 ; 0.0
101 ; 1.3588320575115168E7 ; 1.408906965575242E7 ; 1.3523614523292775E9 ; 1.4229960352309945E9 ; 0.0
102 ; 1.35821331822014E7 ; 1.408906965575242E7 ; 1.3659497729043927E9 ; 1.437085104886747E9 ; 0.0
103 ; 1.3574781107863741E7 ; 1.408906965575242E7 ; 1.379531906086594E9 ; 1.4511741745424993E9 ; 0.0
104 ; 1.3567373380851962E7 ; 1.408906965575242E7 ; 1.3931066871944578E9 ; 1.4652632441982517E9 ; 0.0
105 ; 1.3560253140207421E7 ; 1.408906965575242E7 ; 1.4066740605753098E9 ; 1.4793523138540041E9 ; 0.0
106 ; 1.3553753221616255E7 ; 1.408906965575242E7 ; 1.4202343137155173E9 ; 1.4934413835097566E9 ; 0.0
107 ; 1.3545456601097891E7 ; 1.408906965575242E7 ; 1.4337880669371336E9 ; 1.507530453165509E9 ; 0.0
108 ; 1.3537839910217423E7 ; 1.408906965575242E7 ; 1.4473335235382314E9 ; 1.5216195228212614E9 ; 0.0
109 ; 1.3530618692707973E7 ; 1.408906965575242E7 ; 1.460871363448449E9 ; 1.5357085924770138E9 ; 0.0
110 ; 1.3522469409905463E7 ; 1.408906965575242E7 ; 1.474401982141157E9 ; 1.5497976621327662E9 ; 0.0
111 ; 1.3512639719200693E7 ; 1.408906965575242E7 ; 1.4879244515510623E9 ; 1.5638867317885187E9 ; 0.0
112 ; 1.3505308359499568E7 ; 1.408906965575242E7 ; 1.501437091270263E9 ; 1.577975801444271E9 ; 0.0
113 ; 1.3496361749012835E7 ; 1.408906965575242E7 ; 1.5149423996297624E9 ; 1.5920648711000235E9 ; 0.0
114 ; 1.348541948237273E7 ; 1.408906965575242E7 ; 1.5284387613787754E9 ; 1.606153940755776E9 ; 0.0
115 ; 1.3478833983358644E7 ; 1.408906965575242E7 ; 1.541924180861148E9 ; 1.6202430104115283E9 ; 0.0
116 ; 1.3470583919998275E7 ; 1.408906965575242E7 ; 1.5554030148445067E9 ; 1.6343320800672808E9 ; 0.0
117 ; 1.3462385956990361E7 ; 1.408906965575242E7 ; 1.568873598764505E9 ; 1.6484211497230332E9 ; 0.0
118 ; 1.3453473436580503E7 ; 1.408906965575242E7 ; 1.5823359847214952E9 ; 1.6625102193787856E9 ; 0.0
119 ; 1.34436023886709E7 ; 1.408906965575242E7 ; 1.5957894581580756E9 ; 1.676599289034538E9 ; 0.0
120 ; 1.3440613598246425E7 ; 1.408906965575242E7 ; 1.6092330605467465E9 ; 1.6906883586902905E9 ; 0.0
121 ; 1.34267012016838E7 ; 1.408906965575242E7 ; 1.6226736741449928E9 ; 1.7047774283460429E9 ; 0.0
122 ; 1.3417054410996877E7 ; 1.408906965575242E7 ; 1.6361003753466766E9 ; 1.7188664980017953E9 ; 0.0
123 ; 1.340603488585109E7 ; 1.408906965575242E7 ; 1.6495174297576735E9 ; 1.7329555676575477E9 ; 0.0
124 ; 1.3395952103472777E7 ; 1.408906965575242E7 ; 1.6629234646435246E9 ; 1.7470446373133001E9 ; 0.0
125 ; 1.3386864711240038E7 ; 1.408906965575242E7 ; 1.6763194167469974E9 ; 1.7611337069690526E9 ; 0.0
126 ; 1.3376447464205688E7 ; 1.408906965575242E7 ; 1.6897062814582374E9 ; 1.775222776624805E9 ; 0.0
127 ; 1.336470912804403E7 ; 1.408906965575242E7 ; 1.7030827289224432E9 ; 1.7893118462805574E9 ; 0.0
128 ; 1.3354742884621503E7 ; 1.408906965575242E7 ; 1.7164474380504873E9 ; 1.8034009159363098E9 ; 0.0
129 ; 1.334662790993716E7 ; 1.408906965575242E7 ; 1.729802180935109E9 ; 1.8174899855920622E9 ; 0.0
130 ; 1.3332921977989146E7 ; 1.408906965575242E7 ; 1.743148808845046E9 ; 1.8315790552478147E9 ; 0.0
131 ; 1.331942984520439E7 ; 1.408906965575242E7 ; 1.7564817308230352E9 ; 1.845668124903567E9 ; 0.0
132 ; 1.3301345497603701E7 ; 1.408906965575242E7 ; 1.7698011606682396E9 ; 1.8597571945593195E9 ; 0.0
133 ; 1.32880048798477E7 ; 1.408906965575242E7 ; 1.7831025061658432E9 ; 1.873846264215072E9 ; 0.0
134 ; 1.326811035353961E7 ; 1.408906965575242E7 ; 1.796390511045691E9 ; 1.8879353338708243E9 ; 0.0
135 ; 1.325232629373146E7 ; 1.408906965575242E7 ; 1.8096586213992307E9 ; 1.9020244035265768E9 ; 0.0
136 ; 1.3242441131414166E7 ; 1.408906965575242E7 ; 1.8229109476929622E9 ; 1.9161134731823292E9 ; 0.0
137 ; 1.3227232405606844E7 ; 1.408906965575242E7 ; 1.8361533888243763E9 ; 1.9302025428380816E9 ; 0.0
138 ; 1.3209889785774041E7 ; 1.408906965575242E7 ; 1.849380621229983E9 ; 1.944291612493834E9 ; 0.0
139 ; 1.3194927880313015E7 ; 1.408906965575242E7 ; 1.862590511015757E9 ; 1.9583806821495864E9 ; 0.0
140 ; 1.3178824176626148E7 ; 1.408906965575242E7 ; 1.87578543889607E9 ; 1.9724697518053389E9 ; 0.0
141 ; 1.3160753912341988E7 ; 1.408906965575242E7 ; 1.8889642630726962E9 ; 1.9865588214610913E9 ; 0.0
142 ; 1.3142797742813211E7 ; 1.408906965575242E7 ; 1.9021250169850383E9 ; 2.0006478911168437E9 ; 0.0
143 ; 1.3127749124176819E7 ; 1.408906965575242E7 ; 1.9152678147278514E9 ; 2.0147369607725961E9 ; 0.0
144 ; 1.3111728372460466E7 ; 1.408906965575242E7 ; 1.9283955638520281E9 ; 2.0288260304283485E9 ; 0.0
145 ; 1.3100805502682807E7 ; 1.408906965575242E7 ; 1.9415072922244885E9 ; 2.042915100084101E9 ; 0.0
146 ; 1.308876979879213E7 ; 1.408906965575242E7 ; 1.9546080977271714E9 ; 2.0570041697398534E9 ; 0.0
147 ; 1.3081957945857108E7 ; 1.408906965575242E7 ; 1.9676968675259635E9 ; 2.0710932393956058E9 ; 0.0
148 ; 1.3065783887411144E7 ; 1.408906965575242E7 ; 1.9807788254718206E9 ; 2.0851823090513582E9 ; 0.0
149 ; 1.3057250089325823E7 ; 1.408906965575242E7 ; 1.9938446093592317E9 ; 2.0992713787071106E9 ; 0.0
150 ; 1.3045514351567721E7 ; 1.408906965575242E7 ; 2.0069018594485576E9 ; 2.113360448362863E9 ; 0.0
151 ; 1.3028688723073304E7 ; 1.408906965575242E7 ; 2.0199473738001254E9 ; 2.1274495180186155E9 ; 0.0
152 ; 1.3022517195947839E7 ; 1.408906965575242E7 ; 2.0329760625231986E9 ; 2.141538587674368E9 ; 0.0
153 ; 1.300887213415581E7 ; 1.408906965575242E7 ; 2.0459985797191465E9 ; 2.15562765733012E9 ; 0.0
154 ; 1.2993767222279305E7 ; 1.408906965575242E7 ; 2.0590074518533022E9 ; 2.1697167269858723E9 ; 0.0
155 ; 1.2982004587401554E7 ; 1.408906965575242E7 ; 2.0720012190755816E9 ; 2.1838057966416245E9 ; 0.0
156 ; 1.2975341269349797E7 ; 1.408906965575242E7 ; 2.0849832236629832E9 ; 2.1978948662973766E9 ; 0.0
157 ; 1.2961092906378515E7 ; 1.408906965575242E7 ; 2.097958564932333E9 ; 2.211983935953129E9 ; 0.0
158 ; 1.2951221869638203E7 ; 1.408906965575242E7 ; 2.1109196578387115E9 ; 2.226073005608881E9 ; 0.0
159 ; 1.293812053296283E7 ; 1.408906965575242E7 ; 2.1238708797083497E9 ; 2.240162075264633E9 ; 0.0
160 ; 1.2927614218652008E7 ; 1.408906965575242E7 ; 2.1368090002413125E9 ; 2.2542511449203854E9 ; 0.0
161 ; 1.291454968211338E7 ; 1.408906965575242E7 ; 2.1497366144599643E9 ; 2.2683402145761375E9 ; 0.0
162 ; 1.2903267579451587E7 ; 1.408906965575242E7 ; 2.1626511641420774E9 ; 2.2824292842318897E9 ; 0.0
163 ; 1.288809456927632E7 ; 1.408906965575242E7 ; 2.175554431721529E9 ; 2.296518353887642E9 ; 0.0
164 ; 1.2874226903770337E7 ; 1.408906965575242E7 ; 2.1884425262908053E9 ; 2.310607423543394E9 ; 0.0
165 ; 1.2863034912548745E7 ; 1.408906965575242E7 ; 2.201316753194576E9 ; 2.3246964931991463E9 ; 0.0
166 ; 1.2850875704877004E7 ; 1.408906965575242E7 ; 2.2141797881071243E9 ; 2.3387855628548985E9 ; 0.0
167 ; 1.2838418872939635E7 ; 1.408906965575242E7 ; 2.227030663812001E9 ; 2.3528746325106506E9 ; 0.0
168 ; 1.2824478259727845E7 ; 1.408906965575242E7 ; 2.239869082684941E9 ; 2.366963702166403E9 ; 0.0
169 ; 1.2817585939674243E7 ; 1.408906965575242E7 ; 2.252693560944669E9 ; 2.381052771822155E9 ; 0.0
170 ; 1.2804214722551916E7 ; 1.408906965575242E7 ; 2.265511146884343E9 ; 2.395141841477907E9 ; 0.0
171 ; 1.2790470794359831E7 ; 1.408906965575242E7 ; 2.278315361606895E9 ; 2.4092309111336594E9 ; 0.0
172 ; 1.2777881153942648E7 ; 1.408906965575242E7 ; 2.2911058324012547E9 ; 2.4233199807894115E9 ; 0.0
173 ; 1.2764203116987465E7 ; 1.408906965575242E7 ; 2.3038837135551972E9 ; 2.4374090504451637E9 ; 0.0
174 ; 1.275979588351253E7 ; 1.408906965575242E7 ; 2.3166479166721845E9 ; 2.451498120100916E9 ; 0.0
175 ; 1.2747737853085088E7 ; 1.408906965575242E7 ; 2.329407712555697E9 ; 2.465587189756668E9 ; 0.0
176 ; 1.2735614865186619E7 ; 1.408906965575242E7 ; 2.342155450408782E9 ; 2.4796762594124203E9 ; 0.0
177 ; 1.2732740478843682E7 ; 1.408906965575242E7 ; 2.3548910652739687E9 ; 2.4937653290681725E9 ; 0.0
178 ; 1.272416291903454E7 ; 1.408906965575242E7 ; 2.3676238057528124E9 ; 2.5078543987239246E9 ; 0.0
179 ; 1.2718987850364156E7 ; 1.408906965575242E7 ; 2.380347968671847E9 ; 2.521943468379677E9 ; 0.0
180 ; 1.2712084645714156E7 ; 1.408906965575242E7 ; 2.393066956522211E9 ; 2.536032538035429E9 ; 0.0
181 ; 1.2701874995974796E7 ; 1.408906965575242E7 ; 2.4057790411679254E9 ; 2.550121607691181E9 ; 0.0
182 ; 1.2695394319761014E7 ; 1.408906965575242E7 ; 2.4184809161639004E9 ; 2.5642106773469334E9 ; 0.0
183 ; 1.2684995069275605E7 ; 1.408906965575242E7 ; 2.431176310483661E9 ; 2.5782997470026855E9 ; 0.0
184 ; 1.26785966079012E7 ; 1.408906965575242E7 ; 2.4438613055529366E9 ; 2.5923888166584377E9 ; 0.0
185 ; 1.2671475831390206E7 ; 1.408906965575242E7 ; 2.4565399021608377E9 ; 2.60647788631419E9 ; 0.0
186 ; 1.2661183617755976E7 ; 1.408906965575242E7 ; 2.469211377992228E9 ; 2.620566955969942E9 ; 0.0
187 ; 1.2654728435586678E7 ; 1.408906965575242E7 ; 2.481872561609984E9 ; 2.6346560256256943E9 ; 0.0
188 ; 1.265070999363806E7 ; 1.408906965575242E7 ; 2.4945272900455704E9 ; 2.6487450952814465E9 ; 0.0
189 ; 1.2640994901962448E7 ; 1.408906965575242E7 ; 2.5071780000392084E9 ; 2.6628341649371986E9 ; 0.0
190 ; 1.2630541001510803E7 ; 1.408906965575242E7 ; 2.5198189949411707E9 ; 2.676923234592951E9 ; 0.0
191 ; 1.2622174096199872E7 ; 1.408906965575242E7 ; 2.5324495359426813E9 ; 2.691012304248703E9 ; 0.0
192 ; 1.2614855347500939E7 ; 1.408906965575242E7 ; 2.5450717100388813E9 ; 2.705101373904455E9 ; 0.0
193 ; 1.2606593100610865E7 ; 1.408906965575242E7 ; 2.557686565386382E9 ; 2.7191904435602074E9 ; 0.0
194 ; 1.2600780217500277E7 ; 1.408906965575242E7 ; 2.570293158486993E9 ; 2.7332795132159595E9 ; 0.0
195 ; 1.2596733564445537E7 ; 1.408906965575242E7 ; 2.582893938704493E9 ; 2.7473685828717117E9 ; 0.0
196 ; 1.2588417860187253E7 ; 1.408906965575242E7 ; 2.5954906722689385E9 ; 2.761457652527464E9 ; 0.0
197 ; 1.2580836313824458E7 ; 1.408906965575242E7 ; 2.6080790901291256E9 ; 2.775546722183216E9 ; 0.0
