CSV File for the City 3 on Day 8
1 - Minute m 
2 - Power Consumed at minute m 
3 - Power Produced at minute m 
4 - Energy Consumed since the beginning of the day 
5 - Energy Produced since the beginning of the day 
6 - Energy Lost since the beginning of the day on lines starting from the city
 
0 ; 5950767.214717543 ; 7056482.110847058 ; 0.0 ; 0.0 ; 0.0
1 ; 5956484.503597622 ; 7056482.110847058 ; 5950767.214717543 ; 7056482.110847058 ; 0.0
2 ; 5961515.491596467 ; 7056482.110847058 ; 1.1907251718315165E7 ; 1.4112964221694116E7 ; 0.0
3 ; 5971541.476109935 ; 7056482.110847058 ; 1.7868767209911633E7 ; 2.1169446332541175E7 ; 0.0
4 ; 5983018.013046809 ; 7056482.110847058 ; 2.3840308686021566E7 ; 2.822592844338823E7 ; 0.0
5 ; 5991041.035325801 ; 7056482.110847058 ; 2.9823326699068375E7 ; 3.528241055423529E7 ; 0.0
6 ; 6004240.108418749 ; 7056482.110847058 ; 3.581436773439418E7 ; 4.233889266508234E7 ; 0.0
7 ; 6025316.625847173 ; 7056482.110847058 ; 4.1818607842812926E7 ; 4.93953747759294E7 ; 0.0
8 ; 6053014.752248961 ; 7056482.110847058 ; 4.78439244686601E7 ; 5.6451856886776455E7 ; 0.0
9 ; 6093510.42914158 ; 7056482.110847058 ; 5.389693922090906E7 ; 6.350833899762351E7 ; 0.0
10 ; 6160782.398610013 ; 7056482.110847058 ; 5.999044965005064E7 ; 7.056482110847057E7 ; 0.0
11 ; 6263328.854788441 ; 7056482.110847058 ; 6.615123204866065E7 ; 7.762130321931763E7 ; 0.0
12 ; 6429478.005319879 ; 7056482.110847058 ; 7.241456090344909E7 ; 8.467778533016469E7 ; 0.0
13 ; 6584442.277210797 ; 7056482.110847058 ; 7.884403890876897E7 ; 9.173426744101174E7 ; 0.0
14 ; 6602510.132720703 ; 7056482.110847058 ; 8.542848118597977E7 ; 9.87907495518588E7 ; 0.0
15 ; 6609476.668807883 ; 7056482.110847058 ; 9.203099131870048E7 ; 1.0584723166270585E8 ; 0.0
16 ; 6617202.163412538 ; 7056482.110847058 ; 9.864046798750836E7 ; 1.1290371377355291E8 ; 0.0
17 ; 6627392.881290615 ; 7056482.110847058 ; 1.052576701509209E8 ; 1.1996019588439997E8 ; 0.0
18 ; 6633836.468736957 ; 7056482.110847058 ; 1.1188506303221151E8 ; 1.2701667799524702E8 ; 0.0
19 ; 6643401.205638308 ; 7056482.110847058 ; 1.1851889950094847E8 ; 1.3407316010609408E8 ; 0.0
20 ; 6648204.350929751 ; 7056482.110847058 ; 1.2516230070658678E8 ; 1.4112964221694115E8 ; 0.0
21 ; 6659407.355744645 ; 7056482.110847058 ; 1.3181050505751653E8 ; 1.481861243277882E8 ; 0.0
22 ; 6667988.588891866 ; 7056482.110847058 ; 1.3846991241326118E8 ; 1.5524260643863526E8 ; 0.0
23 ; 6673316.392420692 ; 7056482.110847058 ; 1.4513790100215304E8 ; 1.6229908854948232E8 ; 0.0
24 ; 6681948.538980466 ; 7056482.110847058 ; 1.5181121739457372E8 ; 1.6935557066032937E8 ; 0.0
25 ; 6690188.583255072 ; 7056482.110847058 ; 1.5849316593355417E8 ; 1.7641205277117643E8 ; 0.0
26 ; 6698135.789102952 ; 7056482.110847058 ; 1.6518335451680925E8 ; 1.8346853488202348E8 ; 0.0
27 ; 6701770.595956177 ; 7056482.110847058 ; 1.718814903059122E8 ; 1.9052501699287054E8 ; 0.0
28 ; 6709828.1530824145 ; 7056482.110847058 ; 1.7858326090186837E8 ; 1.975814991037176E8 ; 0.0
29 ; 6718040.8730866145 ; 7056482.110847058 ; 1.8529308905495077E8 ; 2.0463798121456465E8 ; 0.0
30 ; 6728076.067961065 ; 7056482.110847058 ; 1.9201112992803738E8 ; 2.116944633254117E8 ; 0.0
31 ; 6732193.758260466 ; 7056482.110847058 ; 1.9873920599599844E8 ; 2.1875094543625876E8 ; 0.0
32 ; 6740900.478867562 ; 7056482.110847058 ; 2.054713997542589E8 ; 2.2580742754710582E8 ; 0.0
33 ; 6747917.37861248 ; 7056482.110847058 ; 2.1221230023312646E8 ; 2.3286390965795287E8 ; 0.0
34 ; 6755688.161423375 ; 7056482.110847058 ; 2.1896021761173895E8 ; 2.3992039176879993E8 ; 0.0
35 ; 6760427.395526351 ; 7056482.110847058 ; 2.2571590577316234E8 ; 2.46976873879647E8 ; 0.0
36 ; 6766114.862535288 ; 7056482.110847058 ; 2.3247633316868868E8 ; 2.5403335599049404E8 ; 0.0
37 ; 6773424.059466986 ; 7056482.110847058 ; 2.3924244803122398E8 ; 2.610898381013411E8 ; 0.0
38 ; 6779661.892756119 ; 7056482.110847058 ; 2.4601587209069097E8 ; 2.6814632021218815E8 ; 0.0
39 ; 6785641.526425119 ; 7056482.110847058 ; 2.5279553398344707E8 ; 2.7520280232303524E8 ; 0.0
40 ; 6789335.393613611 ; 7056482.110847058 ; 2.595811755098722E8 ; 2.822592844338823E8 ; 0.0
41 ; 6795466.933880488 ; 7056482.110847058 ; 2.663705109034858E8 ; 2.8931576654472935E8 ; 0.0
42 ; 6798970.28090006 ; 7056482.110847058 ; 2.731659778373663E8 ; 2.963722486555764E8 ; 0.0
43 ; 6802902.995819959 ; 7056482.110847058 ; 2.7996494811826634E8 ; 3.0342873076642346E8 ; 0.0
44 ; 6807319.564412695 ; 7056482.110847058 ; 2.8676785111408633E8 ; 3.104852128772705E8 ; 0.0
45 ; 6810240.030278796 ; 7056482.110847058 ; 2.9357517067849904E8 ; 3.175416949881176E8 ; 0.0
46 ; 6816873.100810283 ; 7056482.110847058 ; 3.0038541070877784E8 ; 3.2459817709896463E8 ; 0.0
47 ; 6819655.3710706625 ; 7056482.110847058 ; 3.0720228380958813E8 ; 3.316546592098117E8 ; 0.0
48 ; 6822184.342271366 ; 7056482.110847058 ; 3.140219391806588E8 ; 3.3871114132065874E8 ; 0.0
49 ; 6823899.970625686 ; 7056482.110847058 ; 3.208441235229302E8 ; 3.457676234315058E8 ; 0.0
50 ; 6824815.970832764 ; 7056482.110847058 ; 3.276680234935559E8 ; 3.5282410554235286E8 ; 0.0
51 ; 6830302.676116507 ; 7056482.110847058 ; 3.3449283946438867E8 ; 3.598805876531999E8 ; 0.0
52 ; 6830789.2030844 ; 7056482.110847058 ; 3.413231421405052E8 ; 3.6693706976404697E8 ; 0.0
53 ; 6832011.153183933 ; 7056482.110847058 ; 3.481539313435896E8 ; 3.73993551874894E8 ; 0.0
54 ; 6833416.5170262 ; 7056482.110847058 ; 3.5498594249677354E8 ; 3.810500339857411E8 ; 0.0
55 ; 6835395.716488164 ; 7056482.110847058 ; 3.618193590137997E8 ; 3.8810651609658813E8 ; 0.0
56 ; 6837555.635056486 ; 7056482.110847058 ; 3.686547547302879E8 ; 3.951629982074352E8 ; 0.0
57 ; 6838449.986642277 ; 7056482.110847058 ; 3.754923103653444E8 ; 4.0221948031828225E8 ; 0.0
58 ; 6842810.787428517 ; 7056482.110847058 ; 3.823307603519867E8 ; 4.092759624291293E8 ; 0.0
59 ; 6840433.543181374 ; 7056482.110847058 ; 3.891735711394152E8 ; 4.1633244453997636E8 ; 0.0
60 ; 6843555.273441206 ; 7056482.110847058 ; 3.9601400468259656E8 ; 4.233889266508234E8 ; 0.0
61 ; 6846950.919443751 ; 7056482.110847058 ; 4.0285755995603776E8 ; 4.304454087616705E8 ; 0.0
62 ; 6845426.836255009 ; 7056482.110847058 ; 4.097045108754815E8 ; 4.375018908725175E8 ; 0.0
63 ; 6850025.487842663 ; 7056482.110847058 ; 4.165499377117365E8 ; 4.445583729833646E8 ; 0.0
64 ; 6846841.797285839 ; 7056482.110847058 ; 4.233999631995792E8 ; 4.5161485509421164E8 ; 0.0
65 ; 6849013.133574269 ; 7056482.110847058 ; 4.3024680499686503E8 ; 4.586713372050587E8 ; 0.0
66 ; 6852012.599448854 ; 7056482.110847058 ; 4.370958181304393E8 ; 4.6572781931590575E8 ; 0.0
67 ; 6851835.96080035 ; 7056482.110847058 ; 4.4394783072988814E8 ; 4.727843014267528E8 ; 0.0
68 ; 6855375.12628415 ; 7056482.110847058 ; 4.507996666906885E8 ; 4.7984078353759986E8 ; 0.0
69 ; 6852225.634883977 ; 7056482.110847058 ; 4.576550418169726E8 ; 4.868972656484469E8 ; 0.0
70 ; 6856060.4033681275 ; 7056482.110847058 ; 4.645072674518566E8 ; 4.93953747759294E8 ; 0.0
71 ; 6855141.379343889 ; 7056482.110847058 ; 4.713633278552247E8 ; 5.01010229870141E8 ; 0.0
72 ; 6855705.978568867 ; 7056482.110847058 ; 4.782184692345686E8 ; 5.080667119809881E8 ; 0.0
73 ; 6854452.296142187 ; 7056482.110847058 ; 4.8507417521313745E8 ; 5.1512319409183514E8 ; 0.0
74 ; 6855276.23522671 ; 7056482.110847058 ; 4.919286275092796E8 ; 5.221796762026822E8 ; 0.0
75 ; 6859658.831179206 ; 7056482.110847058 ; 4.987839037445063E8 ; 5.2923615831352925E8 ; 0.0
76 ; 6855266.278033668 ; 7056482.110847058 ; 5.056435625756855E8 ; 5.362926404243763E8 ; 0.0
77 ; 6854693.57658929 ; 7056482.110847058 ; 5.124988288537192E8 ; 5.433491225352234E8 ; 0.0
78 ; 6855226.4421639275 ; 7056482.110847058 ; 5.1935352243030846E8 ; 5.504056046460705E8 ; 0.0
79 ; 6854069.246402037 ; 7056482.110847058 ; 5.262087488724724E8 ; 5.574620867569176E8 ; 0.0
80 ; 6851463.543267057 ; 7056482.110847058 ; 5.3306281811887443E8 ; 5.645185688677647E8 ; 0.0
81 ; 6849508.981239553 ; 7056482.110847058 ; 5.399142816621414E8 ; 5.715750509786118E8 ; 0.0
82 ; 6847401.855076713 ; 7056482.110847058 ; 5.46763790643381E8 ; 5.78631533089459E8 ; 0.0
83 ; 6846605.228753033 ; 7056482.110847058 ; 5.536111924984577E8 ; 5.85688015200306E8 ; 0.0
84 ; 6844342.147842417 ; 7056482.110847058 ; 5.604577977272108E8 ; 5.927444973111532E8 ; 0.0
85 ; 6843455.298168534 ; 7056482.110847058 ; 5.673021398750532E8 ; 5.998009794220003E8 ; 0.0
86 ; 6836428.934373955 ; 7056482.110847058 ; 5.741455951732217E8 ; 6.068574615328474E8 ; 0.0
87 ; 6837777.234841892 ; 7056482.110847058 ; 5.809820241075957E8 ; 6.139139436436945E8 ; 0.0
88 ; 6833006.929363399 ; 7056482.110847058 ; 5.878198013424376E8 ; 6.209704257545416E8 ; 0.0
89 ; 6832727.7045333525 ; 7056482.110847058 ; 5.94652808271801E8 ; 6.280269078653888E8 ; 0.0
90 ; 6828615.247544321 ; 7056482.110847058 ; 6.014855359763343E8 ; 6.350833899762359E8 ; 0.0
91 ; 6825550.754581987 ; 7056482.110847058 ; 6.083141512238786E8 ; 6.42139872087083E8 ; 0.0
92 ; 6823309.224858877 ; 7056482.110847058 ; 6.151397019784606E8 ; 6.491963541979301E8 ; 0.0
93 ; 6818156.965376764 ; 7056482.110847058 ; 6.219630112033194E8 ; 6.562528363087772E8 ; 0.0
94 ; 6816880.4218867 ; 7056482.110847058 ; 6.287811681686962E8 ; 6.633093184196243E8 ; 0.0
95 ; 6815418.670618485 ; 7056482.110847058 ; 6.355980485905828E8 ; 6.703658005304714E8 ; 0.0
96 ; 6812831.2600342715 ; 7056482.110847058 ; 6.424134672612014E8 ; 6.774222826413186E8 ; 0.0
97 ; 6810886.77285842 ; 7056482.110847058 ; 6.492262985212357E8 ; 6.844787647521657E8 ; 0.0
98 ; 6806963.671267633 ; 7056482.110847058 ; 6.560371852940941E8 ; 6.915352468630128E8 ; 0.0
99 ; 6803382.761148532 ; 7056482.110847058 ; 6.628441489653617E8 ; 6.985917289738599E8 ; 0.0
100 ; 6800235.868831229 ; 7056482.110847058 ; 6.696475317265103E8 ; 7.05648211084707E8 ; 0.0
101 ; 6796442.524289416 ; 7056482.110847058 ; 6.764477675953416E8 ; 7.127046931955541E8 ; 0.0
102 ; 6791186.268605904 ; 7056482.110847058 ; 6.832442101196309E8 ; 7.197611753064013E8 ; 0.0
103 ; 6790208.196664386 ; 7056482.110847058 ; 6.900353963882369E8 ; 7.268176574172484E8 ; 0.0
104 ; 6784319.364446679 ; 7056482.110847058 ; 6.968256045849012E8 ; 7.338741395280955E8 ; 0.0
105 ; 6781011.261658097 ; 7056482.110847058 ; 7.036099239493479E8 ; 7.409306216389426E8 ; 0.0
106 ; 6778375.134747114 ; 7056482.110847058 ; 7.103909352110059E8 ; 7.479871037497897E8 ; 0.0
107 ; 6774731.659892759 ; 7056482.110847058 ; 7.171693103457531E8 ; 7.550435858606368E8 ; 0.0
108 ; 6769288.585871488 ; 7056482.110847058 ; 7.239440420056459E8 ; 7.62100067971484E8 ; 0.0
109 ; 6767310.82610702 ; 7056482.110847058 ; 7.307133305915173E8 ; 7.691565500823311E8 ; 0.0
110 ; 6762063.653247949 ; 7056482.110847058 ; 7.374806414176244E8 ; 7.762130321931782E8 ; 0.0
111 ; 6758927.580178571 ; 7056482.110847058 ; 7.442427050708723E8 ; 7.832695143040253E8 ; 0.0
112 ; 6756066.2715056315 ; 7056482.110847058 ; 7.510016326510509E8 ; 7.903259964148724E8 ; 0.0
113 ; 6750555.757025098 ; 7056482.110847058 ; 7.577576989225565E8 ; 7.973824785257195E8 ; 0.0
114 ; 6746374.878208421 ; 7056482.110847058 ; 7.645082546795816E8 ; 8.044389606365666E8 ; 0.0
115 ; 6741373.665283283 ; 7056482.110847058 ; 7.7125462955779E8 ; 8.114954427474138E8 ; 0.0
116 ; 6736279.194220937 ; 7056482.110847058 ; 7.779960032230734E8 ; 8.185519248582609E8 ; 0.0
117 ; 6734156.279371324 ; 7056482.110847058 ; 7.847322824172943E8 ; 8.25608406969108E8 ; 0.0
118 ; 6728163.637806223 ; 7056482.110847058 ; 7.914664386966656E8 ; 8.326648890799551E8 ; 0.0
119 ; 6724902.233079627 ; 7056482.110847058 ; 7.981946023344718E8 ; 8.397213711908022E8 ; 0.0
120 ; 6718689.293350844 ; 7056482.110847058 ; 8.049195045675515E8 ; 8.467778533016493E8 ; 0.0
121 ; 6715946.133261836 ; 7056482.110847058 ; 8.116381938609023E8 ; 8.538343354124964E8 ; 0.0
122 ; 6711228.21990093 ; 7056482.110847058 ; 8.183541399941641E8 ; 8.608908175233436E8 ; 0.0
123 ; 6703800.488768396 ; 7056482.110847058 ; 8.250653682140651E8 ; 8.679472996341907E8 ; 0.0
124 ; 6703601.836366364 ; 7056482.110847058 ; 8.317691687028334E8 ; 8.750037817450378E8 ; 0.0
125 ; 6696077.016498155 ; 7056482.110847058 ; 8.384727705391998E8 ; 8.820602638558849E8 ; 0.0
126 ; 6691479.4164081225 ; 7056482.110847058 ; 8.45168847555698E8 ; 8.89116745966732E8 ; 0.0
127 ; 6684988.923467579 ; 7056482.110847058 ; 8.518603269721062E8 ; 8.961732280775791E8 ; 0.0
128 ; 6677124.922738216 ; 7056482.110847058 ; 8.585453158955739E8 ; 9.032297101884263E8 ; 0.0
129 ; 6676748.716436778 ; 7056482.110847058 ; 8.65222440818312E8 ; 9.102861922992734E8 ; 0.0
130 ; 6667953.849147964 ; 7056482.110847058 ; 8.718991895347488E8 ; 9.173426744101205E8 ; 0.0
131 ; 6661401.901079587 ; 7056482.110847058 ; 8.785671433838967E8 ; 9.243991565209676E8 ; 0.0
132 ; 6656304.562888888 ; 7056482.110847058 ; 8.852285452849762E8 ; 9.314556386318147E8 ; 0.0
133 ; 6648349.571099735 ; 7056482.110847058 ; 8.918848498478651E8 ; 9.385121207426618E8 ; 0.0
134 ; 6639850.018194907 ; 7056482.110847058 ; 8.985331994189649E8 ; 9.45568602853509E8 ; 0.0
135 ; 6633725.521526902 ; 7056482.110847058 ; 9.051730494371598E8 ; 9.526250849643561E8 ; 0.0
136 ; 6626052.061820867 ; 7056482.110847058 ; 9.118067749586867E8 ; 9.596815670752032E8 ; 0.0
137 ; 6617442.072550402 ; 7056482.110847058 ; 9.184328270205076E8 ; 9.667380491860503E8 ; 0.0
138 ; 6607746.653362976 ; 7056482.110847058 ; 9.25050269093058E8 ; 9.737945312968974E8 ; 0.0
139 ; 6601390.254913857 ; 7056482.110847058 ; 9.31658015746421E8 ; 9.808510134077445E8 ; 0.0
140 ; 6595589.782351307 ; 7056482.110847058 ; 9.382594060013348E8 ; 9.879074955185916E8 ; 0.0
141 ; 6589362.9955240125 ; 7056482.110847058 ; 9.44854995783686E8 ; 9.949639776294388E8 ; 0.0
142 ; 6577252.649087446 ; 7056482.110847058 ; 9.514443587792101E8 ; 1.0020204597402859E9 ; 0.0
143 ; 6568027.137004614 ; 7056482.110847058 ; 9.580216114282975E8 ; 1.009076941851133E9 ; 0.0
144 ; 6561200.442045316 ; 7056482.110847058 ; 9.645896385653021E8 ; 1.0161334239619801E9 ; 0.0
145 ; 6557493.68666927 ; 7056482.110847058 ; 9.711508390073475E8 ; 1.0231899060728272E9 ; 0.0
146 ; 6553827.941613687 ; 7056482.110847058 ; 9.777083326940167E8 ; 1.0302463881836743E9 ; 0.0
147 ; 6548088.323122864 ; 7056482.110847058 ; 9.842621606356304E8 ; 1.0373028702945215E9 ; 0.0
148 ; 6541888.108831914 ; 7056482.110847058 ; 9.908102489587532E8 ; 1.0443593524053686E9 ; 0.0
149 ; 6536532.885743444 ; 7056482.110847058 ; 9.973521370675851E8 ; 1.0514158345162157E9 ; 0.0
150 ; 6528734.624387424 ; 7056482.110847058 ; 1.0038886699533286E9 ; 1.0584723166270628E9 ; 0.0
151 ; 6525782.397871534 ; 7056482.110847058 ; 1.010417404577716E9 ; 1.0655287987379099E9 ; 0.0
152 ; 6517776.798960483 ; 7056482.110847058 ; 1.0169431869755875E9 ; 1.072585280848757E9 ; 0.0
153 ; 6513775.047780184 ; 7056482.110847058 ; 1.0234609637745479E9 ; 1.079641762959604E9 ; 0.0
154 ; 6508859.134072052 ; 7056482.110847058 ; 1.0299747388223281E9 ; 1.086698245070451E9 ; 0.0
155 ; 6501329.41338554 ; 7056482.110847058 ; 1.0364835979564002E9 ; 1.093754727181298E9 ; 0.0
156 ; 6493713.277913105 ; 7056482.110847058 ; 1.0429849273697857E9 ; 1.100811209292145E9 ; 0.0
157 ; 6489866.536787234 ; 7056482.110847058 ; 1.0494786406476988E9 ; 1.107867691402992E9 ; 0.0
158 ; 6483500.162411863 ; 7056482.110847058 ; 1.055968507184486E9 ; 1.114924173513839E9 ; 0.0
159 ; 6477738.575452991 ; 7056482.110847058 ; 1.0624520073468978E9 ; 1.121980655624686E9 ; 0.0
160 ; 6473690.591409568 ; 7056482.110847058 ; 1.0689297459223509E9 ; 1.129037137735533E9 ; 0.0
161 ; 6468622.454092894 ; 7056482.110847058 ; 1.0754034365137606E9 ; 1.13609361984638E9 ; 0.0
162 ; 6462320.846762259 ; 7056482.110847058 ; 1.0818720589678535E9 ; 1.143150101957227E9 ; 0.0
163 ; 6456464.9385925615 ; 7056482.110847058 ; 1.0883343798146157E9 ; 1.150206584068074E9 ; 0.0
164 ; 6450074.73508866 ; 7056482.110847058 ; 1.0947908447532084E9 ; 1.157263066178921E9 ; 0.0
165 ; 6444404.578626046 ; 7056482.110847058 ; 1.101240919488297E9 ; 1.164319548289768E9 ; 0.0
166 ; 6437251.995075667 ; 7056482.110847058 ; 1.1076853240669231E9 ; 1.171376030400615E9 ; 0.0
167 ; 6432566.831960361 ; 7056482.110847058 ; 1.1141225760619988E9 ; 1.178432512511462E9 ; 0.0
168 ; 6424470.05434998 ; 7056482.110847058 ; 1.1205551428939593E9 ; 1.185488994622309E9 ; 0.0
169 ; 6421187.808547256 ; 7056482.110847058 ; 1.1269796129483092E9 ; 1.192545476733156E9 ; 0.0
170 ; 6413983.0322098425 ; 7056482.110847058 ; 1.1334008007568564E9 ; 1.199601958844003E9 ; 0.0
171 ; 6409500.958473998 ; 7056482.110847058 ; 1.1398147837890663E9 ; 1.20665844095485E9 ; 0.0
172 ; 6400263.750802943 ; 7056482.110847058 ; 1.1462242847475402E9 ; 1.213714923065697E9 ; 0.0
173 ; 6397958.028123951 ; 7056482.110847058 ; 1.1526245484983432E9 ; 1.220771405176544E9 ; 0.0
174 ; 6388395.561931076 ; 7056482.110847058 ; 1.159022506526467E9 ; 1.227827887287391E9 ; 0.0
175 ; 6389226.090790263 ; 7056482.110847058 ; 1.1654109020883982E9 ; 1.234884369398238E9 ; 0.0
176 ; 6385648.725032443 ; 7056482.110847058 ; 1.1718001281791885E9 ; 1.241940851509085E9 ; 0.0
177 ; 6378426.4094417235 ; 7056482.110847058 ; 1.1781857769042208E9 ; 1.248997333619932E9 ; 0.0
178 ; 6378117.47636236 ; 7056482.110847058 ; 1.1845642033136625E9 ; 1.256053815730779E9 ; 0.0
179 ; 6375381.713496369 ; 7056482.110847058 ; 1.190942320790025E9 ; 1.263110297841626E9 ; 0.0
180 ; 6370584.236275286 ; 7056482.110847058 ; 1.1973177025035214E9 ; 1.270166779952473E9 ; 0.0
181 ; 6365970.743066903 ; 7056482.110847058 ; 1.2036882867397966E9 ; 1.27722326206332E9 ; 0.0
182 ; 6362143.191170778 ; 7056482.110847058 ; 1.2100542574828634E9 ; 1.284279744174167E9 ; 0.0
183 ; 6360958.8483795095 ; 7056482.110847058 ; 1.216416400674034E9 ; 1.291336226285014E9 ; 0.0
184 ; 6355746.169834374 ; 7056482.110847058 ; 1.2227773595224137E9 ; 1.298392708395861E9 ; 0.0
185 ; 6351165.17582089 ; 7056482.110847058 ; 1.229133105692248E9 ; 1.305449190506708E9 ; 0.0
186 ; 6351288.439896873 ; 7056482.110847058 ; 1.235484270868069E9 ; 1.312505672617555E9 ; 0.0
187 ; 6343962.928489649 ; 7056482.110847058 ; 1.2418355593079658E9 ; 1.319562154728402E9 ; 0.0
188 ; 6339909.804688064 ; 7056482.110847058 ; 1.2481795222364554E9 ; 1.326618636839249E9 ; 0.0
189 ; 6340493.670652482 ; 7056482.110847058 ; 1.2545194320411434E9 ; 1.333675118950096E9 ; 0.0
190 ; 6335425.758033426 ; 7056482.110847058 ; 1.2608599257117958E9 ; 1.340731601060943E9 ; 0.0
191 ; 6331569.096513914 ; 7056482.110847058 ; 1.2671953514698293E9 ; 1.34778808317179E9 ; 0.0
192 ; 6326938.346150826 ; 7056482.110847058 ; 1.2735269205663433E9 ; 1.354844565282637E9 ; 0.0
193 ; 6324223.653259039 ; 7056482.110847058 ; 1.2798538589124942E9 ; 1.3619010473934839E9 ; 0.0
194 ; 6318536.192891322 ; 7056482.110847058 ; 1.2861780825657532E9 ; 1.3689575295043309E9 ; 0.0
195 ; 6318283.52310669 ; 7056482.110847058 ; 1.2924966187586446E9 ; 1.3760140116151779E9 ; 0.0
196 ; 6312405.09478709 ; 7056482.110847058 ; 1.2988149022817512E9 ; 1.3830704937260249E9 ; 0.0
197 ; 6309007.948124654 ; 7056482.110847058 ; 1.3051273073765383E9 ; 1.3901269758368719E9 ; 0.0
198 ; 6305564.28912338 ; 7056482.110847058 ; 1.311436315324663E9 ; 1.3971834579477189E9 ; 0.0
199 ; 6301151.056840938 ; 7056482.110847058 ; 1.3177418796137862E9 ; 1.4042399400585659E9 ; 0.0
200 ; 6298989.347735541 ; 7056482.110847058 ; 1.324043030670627E9 ; 1.4112964221694129E9 ; 0.0
201 ; 6294161.119318423 ; 7056482.110847058 ; 1.3303420200183628E9 ; 1.4183529042802598E9 ; 0.0
202 ; 6287844.444434738 ; 7056482.110847058 ; 1.3366361811376812E9 ; 1.4254093863911068E9 ; 0.0
203 ; 6288661.534389623 ; 7056482.110847058 ; 1.342924025582116E9 ; 1.4324658685019538E9 ; 0.0
204 ; 6282589.078449353 ; 7056482.110847058 ; 1.3492126871165056E9 ; 1.4395223506128008E9 ; 0.0
205 ; 6282452.435172078 ; 7056482.110847058 ; 1.3554952761949549E9 ; 1.4465788327236478E9 ; 0.0
206 ; 6276570.188431868 ; 7056482.110847058 ; 1.361777728630127E9 ; 1.4536353148344948E9 ; 0.0
207 ; 6273389.279780373 ; 7056482.110847058 ; 1.368054298818559E9 ; 1.4606917969453418E9 ; 0.0
208 ; 6269794.752039707 ; 7056482.110847058 ; 1.3743276880983393E9 ; 1.4677482790561888E9 ; 0.0
209 ; 6266826.460218224 ; 7056482.110847058 ; 1.380597482850379E9 ; 1.4748047611670358E9 ; 0.0
