CSV File for the City 4 on Day 212
1 - Minute m 
2 - Power Consumed at minute m 
3 - Power Produced at minute m 
4 - Energy Consumed since the beginning of the day 
5 - Energy Produced since the beginning of the day 
6 - Energy Lost since the beginning of the day on lines starting from the city
 
0 ; 439636.83664647135 ; 1.0562164652841046E8 ; 0.0 ; 0.0 ; 0.0
1 ; 448827.7305584028 ; 1.0577045466031832E8 ; 439636.83664647135 ; 1.0562164652841046E8 ; 0.0
2 ; 458750.49388584227 ; 1.0622842665237555E8 ; 888464.5672048741 ; 2.1139210118872878E8 ; 0.0
3 ; 465210.241786169 ; 1.0699558043702042E8 ; 1347215.0610907164 ; 3.176205278411043E8 ; 0.0
4 ; 476094.6623979427 ; 1.0807193268703389E8 ; 1812425.3028768855 ; 4.2461610827812475E8 ; 0.0
5 ; 489464.1379860613 ; 1.0945749854317081E8 ; 2288519.965274828 ; 5.3268804096515864E8 ; 0.0
6 ; 508316.4020907955 ; 1.1115229134973088E8 ; 2777984.103260889 ; 6.421455395083294E8 ; 0.0
7 ; 533071.0810477799 ; 1.1315632240780324E8 ; 3286300.5053516845 ; 7.532978308580602E8 ; 0.0
8 ; 563998.6338024493 ; 1.154696007561158E8 ; 3819371.5863994644 ; 8.664541532658634E8 ; 0.0
9 ; 616175.33802851 ; 1.1809213298896372E8 ; 4383370.220201913 ; 9.819237540219792E8 ; 0.0
10 ; 694297.223391166 ; 1.2102392311953503E8 ; 4999545.558230423 ; 1.100015887010943E9 ; 0.0
11 ; 817947.8474957135 ; 1.2426497249513659E8 ; 5693842.781621589 ; 1.221039810130478E9 ; 0.0
12 ; 1018419.9574827105 ; 1.278152797684615E8 ; 6511790.629117303 ; 1.3453047826256144E9 ; 0.0
13 ; 1210545.8966928467 ; 1.3167484092632174E8 ; 7530210.586600013 ; 1.4731200623940759E9 ; 0.0
14 ; 1233653.6273020708 ; 1.3584364937442225E8 ; 8740756.483292859 ; 1.6047949033203976E9 ; 0.0
15 ; 1245159.6645584628 ; 1.40321696074035E8 ; 9974410.11059493 ; 1.74063855269482E9 ; 0.0
16 ; 1252743.4056700596 ; 1.4510896972407094E8 ; 1.1219569775153393E7 ; 1.8809602487688549E9 ; 0.0
17 ; 1263229.315791352 ; 1.502054569802303E8 ; 1.2472313180823453E7 ; 2.026069218492926E9 ; 0.0
18 ; 1274417.2337664734 ; 1.5561114270175827E8 ; 1.3735542496614804E7 ; 2.176274675473156E9 ; 0.0
19 ; 1281771.8388237553 ; 1.6132601021587387E8 ; 1.5009959730381278E7 ; 2.3318858181749144E9 ; 0.0
20 ; 1294562.9510653743 ; 1.6735004159013882E8 ; 1.6291731569205035E7 ; 2.493211828390788E9 ; 0.0
21 ; 1303569.8047726036 ; 1.73683217903793E8 ; 1.7586294520270407E7 ; 2.660561869980927E9 ; 0.0
22 ; 1313923.1780643484 ; 1.8032551951026082E8 ; 1.888986432504301E7 ; 2.83424508788472E9 ; 0.0
23 ; 1325579.1087701495 ; 1.8727692628447616E8 ; 2.020378750310736E7 ; 3.0145706073949804E9 ; 0.0
24 ; 1333724.6329320767 ; 1.9453741785023087E8 ; 2.1529366611877512E7 ; 3.2018475336794567E9 ; 0.0
25 ; 1344862.4334814386 ; 2.0079501468247652E8 ; 2.286309124480959E7 ; 3.3963849515296874E9 ; 0.0
26 ; 1353517.1155937978 ; 2.0080324432327595E8 ; 2.420795367829103E7 ; 3.597179966212164E9 ; 0.0
27 ; 1365045.4271291073 ; 2.0081185606010568E8 ; 2.556147079388483E7 ; 3.79798321053544E9 ; 0.0
28 ; 1373924.294272901 ; 2.008208303007885E8 ; 2.6926516221013937E7 ; 3.998795066595546E9 ; 0.0
29 ; 1384163.574718991 ; 2.008301479708584E8 ; 2.8300440515286837E7 ; 4.199615896896334E9 ; 0.0
30 ; 1396450.2044238397 ; 2.0083979059539306E8 ; 2.9684604090005826E7 ; 4.400446044867192E9 ; 0.0
31 ; 1402154.5973322112 ; 2.0084974036066788E8 ; 3.1081054294429667E7 ; 4.601285835462585E9 ; 0.0
32 ; 1412389.7350893852 ; 2.0085998015792593E8 ; 3.2483208891761877E7 ; 4.802135575823254E9 ; 0.0
33 ; 1422565.2156925646 ; 2.0087049361160752E8 ; 3.389559862685126E7 ; 5.002995555981179E9 ; 0.0
34 ; 1431900.0175082723 ; 2.0088126509433067E8 ; 3.5318163842543826E7 ; 5.203866049592787E9 ; 0.0
35 ; 1441140.8993181146 ; 2.0089227973078707E8 ; 3.67500638600521E7 ; 5.404747314687118E9 ; 0.0
36 ; 1449373.689711622 ; 2.0090352339254498E8 ; 3.8191204759370215E7 ; 5.605639594417905E9 ; 0.0
37 ; 1457609.636715461 ; 2.009149826855499E8 ; 3.964057844908184E7 ; 5.80654311781045E9 ; 0.0
38 ; 1466369.658520151 ; 2.0092664493190295E8 ; 4.10981880857973E7 ; 6.007458100495999E9 ; 0.0
39 ; 1473635.2067455943 ; 2.0093849814728668E8 ; 4.256455774431746E7 ; 6.208384745427902E9 ; 0.0
40 ; 1482343.054730924 ; 2.0095053101520866E8 ; 4.403819295106305E7 ; 6.409323243575189E9 ; 0.0
41 ; 1488247.7694624586 ; 2.009627328590451E8 ; 4.5520536005793974E7 ; 6.610273774590397E9 ; 0.0
42 ; 1494893.9004376163 ; 2.009750936127009E8 ; 4.700878377525643E7 ; 6.811236507449442E9 ; 0.0
43 ; 1501999.9892957606 ; 2.0098760379055166E8 ; 4.850367767569405E7 ; 7.012211601062142E9 ; 0.0
44 ; 1509387.8047162138 ; 2.0100025445720303E8 ; 5.000567766498981E7 ; 7.213199204852694E9 ; 0.0
45 ; 1516745.7716299088 ; 2.0101303719749105E8 ; 5.151506546970602E7 ; 7.414199459309896E9 ; 0.0
46 ; 1522133.926748588 ; 2.010259440870511E8 ; 5.303181124133593E7 ; 7.615212496507387E9 ; 0.0
47 ; 1525331.1928885423 ; 2.010389676637038E8 ; 5.455394516808452E7 ; 7.816238440594439E9 ; 0.0
48 ; 1530549.3688082881 ; 2.010521008998391E8 ; 5.607927636097306E7 ; 8.017277408258142E9 ; 0.0
49 ; 1537128.5876708499 ; 2.0106533717592567E8 ; 5.7609825729781345E7 ; 8.218329509157982E9 ; 0.0
50 ; 1541546.306968404 ; 2.0107867025522816E8 ; 5.914695431745219E7 ; 8.419394846333907E9 ; 0.0
51 ; 1546257.8644318338 ; 2.0109209425978002E8 ; 6.06885006244206E7 ; 8.620473516589136E9 ; 0.0
52 ; 1551660.6999038795 ; 2.0110560364763024E8 ; 6.2234758488852434E7 ; 8.821565610848917E9 ; 0.0
53 ; 1552929.3926274986 ; 2.0111919319136217E8 ; 6.378641918875632E7 ; 9.022671214496548E9 ; 0.0
54 ; 1555933.5701551824 ; 2.0113285795786378E8 ; 6.533934858138382E7 ; 9.22379040768791E9 ; 0.0
55 ; 1561975.8340300983 ; 2.01146593289318E8 ; 6.6895282151539E7 ; 9.424923265645773E9 ; 0.0
56 ; 1565955.5375369675 ; 2.011603947853713E8 ; 6.845725798556909E7 ; 9.626069858935091E9 ; 0.0
57 ; 1572846.497609101 ; 2.011742582864328E8 ; 7.002321352310605E7 ; 9.827230253720463E9 ; 0.0
58 ; 1573115.163729799 ; 2.011881798580518E8 ; 7.159606002071515E7 ; 1.0028404512006895E10 ; 0.0
59 ; 1579081.1143628224 ; 2.012021557763199E8 ; 7.316917518444495E7 ; 1.0229592691864946E10 ; 0.0
60 ; 1582074.7049308256 ; 2.0121618251424104E8 ; 7.474825629880777E7 ; 1.0430794847641266E10 ; 0.0
61 ; 1585465.5249937403 ; 2.0123025672901544E8 ; 7.63303310037386E7 ; 1.0632011030155506E10 ; 0.0
62 ; 1589023.9657395955 ; 2.0124437525018144E8 ; 7.791579652873234E7 ; 1.0833241286884521E10 ; 0.0
63 ; 1592664.1984365392 ; 2.012585350685626E8 ; 7.950482049447194E7 ; 1.1034485662134703E10 ; 0.0
64 ; 1598482.0804527104 ; 2.0127273332596862E8 ; 8.109748469290848E7 ; 1.1235744197203266E10 ; 0.0
65 ; 1602314.9952407188 ; 2.012869673056003E8 ; 8.269596677336119E7 ; 1.1437016930529234E10 ; 0.0
66 ; 1603754.270194698 ; 2.0130123442311186E8 ; 8.429828176860191E7 ; 1.1638303897834835E10 ; 0.0
67 ; 1607716.4558447294 ; 2.013155322182861E8 ; 8.59020360387966E7 ; 1.1839605132257946E10 ; 0.0
68 ; 1610027.5579990773 ; 2.0132985834727967E8 ; 8.750975249464133E7 ; 1.2040920664476233E10 ; 0.0
69 ; 1613881.0528405344 ; 2.0134421057539982E8 ; 8.911978005264041E7 ; 1.2242250522823513E10 ; 0.0
70 ; 1617412.2262293084 ; 2.013585867703743E8 ; 9.073366110548094E7 ; 1.2443594733398912E10 ; 0.0
71 ; 1620607.2568341258 ; 2.0137298489608055E8 ; 9.235107333171025E7 ; 1.2644953320169287E10 ; 0.0
72 ; 1623927.8260757118 ; 2.0138740300670105E8 ; 9.397168058854437E7 ; 1.2846326305065367E10 ; 0.0
73 ; 1628185.0735720836 ; 2.014018392412748E8 ; 9.559560841462009E7 ; 1.3047713708072067E10 ; 0.0
74 ; 1631942.2570752944 ; 2.0141629181861645E8 ; 9.722379348819217E7 ; 1.3249115547313341E10 ; 0.0
75 ; 1633496.4626766238 ; 2.014307590325771E8 ; 9.885573574526747E7 ; 1.3450531839131958E10 ; 0.0
76 ; 1637525.4232613228 ; 2.0144523924762204E8 ; 1.004892322079441E8 ; 1.3651962598164536E10 ; 0.0
77 ; 1641177.8285720905 ; 2.014597308947031E8 ; 1.0212675763120542E8 ; 1.3853407837412157E10 ; 0.0
78 ; 1640394.8982454354 ; 2.01474232467404E8 ; 1.0376793545977752E8 ; 1.405486756830686E10 ; 0.0
79 ; 1643536.3675105167 ; 2.0148874251834035E8 ; 1.0540833035802296E8 ; 1.4256341800774263E10 ; 0.0
80 ; 1644371.646493272 ; 2.0150325965579456E8 ; 1.0705186672553347E8 ; 1.4457830543292604E10 ; 0.0
81 ; 1641368.585940245 ; 2.0151778254057065E8 ; 1.0869623837202674E8 ; 1.4659333802948399E10 ; 0.0
82 ; 1643184.960186979 ; 2.015323098830523E8 ; 1.1033760695796698E8 ; 1.486085158548897E10 ; 0.0
83 ; 1643087.0474969232 ; 2.0154684044045007E8 ; 1.1198079191815396E8 ; 1.5062383895372023E10 ; 0.0
84 ; 1645378.5289981028 ; 2.0156137301422483E8 ; 1.1362387896565089E8 ; 1.5263930735812473E10 ; 0.0
85 ; 1646197.1674447593 ; 2.015759064476747E8 ; 1.15269257494649E8 ; 1.5465492108826698E10 ; 0.0
86 ; 1645990.231975465 ; 2.015904396236741E8 ; 1.1691545466209376E8 ; 1.5667068015274372E10 ; 0.0
87 ; 1646984.4851253428 ; 2.0160497146255484E8 ; 1.1856144489406922E8 ; 1.5868658454898046E10 ; 0.0
88 ; 1648081.6096156575 ; 2.0161950092011878E8 ; 1.2020842937919457E8 ; 1.6070263426360601E10 ; 0.0
89 ; 1645296.9335437668 ; 2.0163402698577344E8 ; 1.2185651098881023E8 ; 1.627188292728072E10 ; 0.0
90 ; 1645888.1039889748 ; 2.016485486807823E8 ; 1.23501807922354E8 ; 1.6473516954266493E10 ; 0.0
91 ; 1646443.6051560144 ; 2.0166306505662134E8 ; 1.2514769602634297E8 ; 1.6675165502947275E10 ; 0.0
92 ; 1645856.5810758013 ; 2.0167757519343573E8 ; 1.2679413963149899E8 ; 1.6876828568003897E10 ; 0.0
93 ; 1646113.0293318876 ; 2.0169207819858855E8 ; 1.284399962125748E8 ; 1.7078506143197332E10 ; 0.0
94 ; 1647615.5094292632 ; 2.0170657320529687E8 ; 1.3008610924190669E8 ; 1.728019822139592E10 ; 0.0
95 ; 1646920.1874716463 ; 2.017210593713481E8 ; 1.3173372475133595E8 ; 1.7481904794601215E10 ; 0.0
96 ; 1647747.3748133988 ; 2.0173553587789232E8 ; 1.3338064493880759E8 ; 1.7683625853972565E10 ; 0.0
97 ; 1646395.9906360884 ; 2.0175000192830488E8 ; 1.3502839231362098E8 ; 1.7885361389850456E10 ; 0.0
98 ; 1645381.568999828 ; 2.017644567471152E8 ; 1.3667478830425707E8 ; 1.8087111391778763E10 ; 0.0
99 ; 1646423.9887526913 ; 2.017788995789971E8 ; 1.383201698732569E8 ; 1.828887584852588E10 ; 0.0
100 ; 1645156.7907465824 ; 2.0179332968781722E8 ; 1.3996659386200958E8 ; 1.8490654748104877E10 ; 0.0
101 ; 1643365.764905704 ; 2.0180774635573694E8 ; 1.4161175065275615E8 ; 1.8692448077792694E10 ; 0.0
102 ; 1645252.9394839478 ; 2.0182214888236547E8 ; 1.4325511641766185E8 ; 1.889425582414843E10 ; 0.0
103 ; 1642821.6745246623 ; 2.0183653658396006E8 ; 1.449003693571458E8 ; 1.9096077973030796E10 ; 0.0
104 ; 1644501.797130289 ; 2.0185090879267085E8 ; 1.4654319103167045E8 ; 1.9297914509614758E10 ; 0.0
105 ; 1642676.8120451006 ; 2.0186526485582724E8 ; 1.4818769282880074E8 ; 1.949976541840743E10 ; 0.0
106 ; 1641789.4612549313 ; 2.0187960413526344E8 ; 1.4983036964084584E8 ; 1.9701630683263256E10 ; 0.0
107 ; 1640557.470602106 ; 2.0189392600668088E8 ; 1.5147215910210076E8 ; 1.990351028739852E10 ; 0.0
108 ; 1640730.7824424617 ; 2.0190822985904485E8 ; 1.5311271657270285E8 ; 2.01054042134052E10 ; 0.0
109 ; 1639926.5924595043 ; 2.019225150940137E8 ; 1.547534473551453E8 ; 2.0307312443264244E10 ; 0.0
110 ; 1641347.9354571528 ; 2.0193678112539843E8 ; 1.563933739476048E8 ; 2.0509234958358257E10 ; 0.0
111 ; 1637951.080412959 ; 2.0195102737865087E8 ; 1.5803472188306195E8 ; 2.0711171739483654E10 ; 0.0
112 ; 1639430.027066468 ; 2.0196525329037878E8 ; 1.596726729634749E8 ; 2.0913122766862305E10 ; 0.0
113 ; 1636585.9393450394 ; 2.0197945830788627E8 ; 1.6131210299054137E8 ; 2.1115088020152683E10 ; 0.0
114 ; 1635518.795411565 ; 2.0199364188873813E8 ; 1.629486889298864E8 ; 2.131706747846057E10 ; 0.0
115 ; 1634721.3843285136 ; 2.0200780350034654E8 ; 1.6458420772529796E8 ; 2.1519061120349308E10 ; 0.0
116 ; 1633285.9475331914 ; 2.0202194261957896E8 ; 1.6621892910962647E8 ; 2.1721068923849655E10 ; 0.0
117 ; 1633658.1907138026 ; 2.0203605873238593E8 ; 1.6785221505715966E8 ; 2.1923090866469234E10 ; 0.0
118 ; 1633161.6627973877 ; 2.0205015133344784E8 ; 1.6948587324787346E8 ; 2.2125126925201622E10 ; 0.0
119 ; 1631214.2152634913 ; 2.0206421992583907E8 ; 1.7111903491067085E8 ; 2.232717707653507E10 ; 0.0
120 ; 1628643.5229556358 ; 2.0207826402070937E8 ; 1.7275024912593433E8 ; 2.2529241296460907E10 ; 0.0
121 ; 1627279.5644980804 ; 2.0209228313698053E8 ; 1.7437889264888996E8 ; 2.2731319560481617E10 ; 0.0
122 ; 1626167.1198402394 ; 2.0210627680105844E8 ; 1.7600617221338803E8 ; 2.29334118436186E10 ; 0.0
123 ; 1623350.3673559772 ; 2.021202445465589E8 ; 1.7763233933322826E8 ; 2.313551812041966E10 ; 0.0
124 ; 1619993.328049555 ; 2.021341859140469E8 ; 1.7925568970058423E8 ; 2.3337638364966217E10 ; 0.0
125 ; 1620723.2520128936 ; 2.0214810045078856E8 ; 1.8087568302863377E8 ; 2.3539772550880264E10 ; 0.0
126 ; 1621981.8409573315 ; 2.0216198771051487E8 ; 1.8249640628064668E8 ; 2.3741920651331055E10 ; 0.0
127 ; 1617295.7967163764 ; 2.021758472531968E8 ; 1.8411838812160403E8 ; 2.394408263904157E10 ; 0.0
128 ; 1614203.226826086 ; 2.02189678644831E8 ; 1.857356839183204E8 ; 2.4146258486294765E10 ; 0.0
129 ; 1613402.9209094204 ; 2.0220348145723572E8 ; 1.8734988714514646E8 ; 2.4348448164939598E10 ; 0.0
130 ; 1612233.5711657016 ; 2.0221725526785624E8 ; 1.889632900660559E8 ; 2.4550651646396835E10 ; 0.0
131 ; 1605624.5043917596 ; 2.0223099965957934E8 ; 1.905755236372216E8 ; 2.4752868901664692E10 ; 0.0
132 ; 1603157.3318728374 ; 2.0224471422055647E8 ; 1.9218114814161336E8 ; 2.4955099901324272E10 ; 0.0
133 ; 1598521.910666345 ; 2.0225839854403502E8 ; 1.937843054734862E8 ; 2.515734461554483E10 ; 0.0
134 ; 1595519.1127312372 ; 2.022720522281973E8 ; 1.9538282738415256E8 ; 2.5359603014088867E10 ; 0.0
135 ; 1591012.5338231516 ; 2.0228567487600702E8 ; 1.969783464968838E8 ; 2.5561875066317066E10 ; 0.0
136 ; 1584647.9496096573 ; 2.0229926609506238E8 ; 1.9856935903070697E8 ; 2.5764160741193073E10 ; 0.0
137 ; 1580330.145862126 ; 2.0231282549745628E8 ; 2.0015400698031664E8 ; 2.5966460007288136E10 ; 0.0
138 ; 1576201.7243388218 ; 2.0232635269964248E8 ; 2.0173433712617877E8 ; 2.616877283278559E10 ; 0.0
139 ; 1573132.696627615 ; 2.023398473223077E8 ; 2.033105388505176E8 ; 2.6371099185485233E10 ; 0.0
140 ; 1566260.6120213186 ; 2.0235330899024963E8 ; 2.0488367154714522E8 ; 2.657343903280754E10 ; 0.0
141 ; 1562094.127519461 ; 2.0236673733226028E8 ; 2.0644993215916654E8 ; 2.677579234179779E10 ; 0.0
142 ; 1558482.0841784687 ; 2.023801319810142E8 ; 2.08012026286686E8 ; 2.697815907913005E10 ; 0.0
143 ; 1552783.677571916 ; 2.02393492572962E8 ; 2.0957050837086448E8 ; 2.7180539211111065E10 ; 0.0
144 ; 1548850.6820067775 ; 2.024068187482282E8 ; 2.111232920484364E8 ; 2.738293270368403E10 ; 0.0
145 ; 1545199.0828233168 ; 2.0242011015051374E8 ; 2.1267214273044318E8 ; 2.758533952243226E10 ; 0.0
146 ; 1545850.4618583368 ; 2.0243336642700237E8 ; 2.142173418132665E8 ; 2.778775963258277E10 ; 0.0
147 ; 1544660.0795365013 ; 2.0244658722827157E8 ; 2.1576319227512482E8 ; 2.7990192999009773E10 ; 0.0
148 ; 1541615.1087271525 ; 2.0245977220820668E8 ; 2.1730785235466132E8 ; 2.8192639586238045E10 ; 0.0
149 ; 1538831.8182054048 ; 2.0247292102391928E8 ; 2.1884946746338847E8 ; 2.839509935844625E10 ; 0.0
150 ; 1536680.1061088918 ; 2.0248603333566853E8 ; 2.203882992815939E8 ; 2.859757227947017E10 ; 0.0
151 ; 1536646.3537824773 ; 2.0249910880678627E8 ; 2.219249793877028E8 ; 2.8800058312805836E10 ; 0.0
152 ; 1536439.7568209101 ; 2.0251214710360485E8 ; 2.2346162574148527E8 ; 2.900255742161262E10 ; 0.0
153 ; 1530664.52325518 ; 2.0252514789538836E8 ; 2.2499806549830619E8 ; 2.9205069568716225E10 ; 0.0
154 ; 1529887.5517879024 ; 2.0253811085426655E8 ; 2.2652873002156135E8 ; 2.9407594716611614E10 ; 0.0
155 ; 1528738.5802748883 ; 2.0255103565517148E8 ; 2.2805861757334927E8 ; 2.961013282746588E10 ; 0.0
156 ; 1525797.9323776125 ; 2.025639219757768E8 ; 2.2958735615362415E8 ; 2.981268386312105E10 ; 0.0
157 ; 1523493.928543244 ; 2.0257676949643973E8 ; 2.3111315408600175E8 ; 3.001524778509683E10 ; 0.0
158 ; 1523207.0426215183 ; 2.0258957790014517E8 ; 2.32636648014545E8 ; 3.021782455459327E10 ; 0.0
159 ; 1520560.5013356956 ; 2.026023468724522E8 ; 2.3415985505716652E8 ; 3.0420414132493416E10 ; 0.0
160 ; 1516122.1851892637 ; 2.026150761014429E8 ; 2.3568041555850223E8 ; 3.0623016479365868E10 ; 0.0
161 ; 1516410.2917636435 ; 2.02627765277673E8 ; 2.371965377436915E8 ; 3.082563155546731E10 ; 0.0
162 ; 1513144.4688869193 ; 2.0264041409412485E8 ; 2.3871294803545514E8 ; 3.1028259320744984E10 ; 0.0
163 ; 1510795.1969078823 ; 2.0265302224616197E8 ; 2.4022609250434205E8 ; 3.1230899734839108E10 ; 0.0
164 ; 1509801.9658833998 ; 2.0266558943148565E8 ; 2.4173688770124993E8 ; 3.143355275708527E10 ; 0.0
165 ; 1508050.1928969363 ; 2.0267811535009333E8 ; 2.4324668966713333E8 ; 3.1636218346516754E10 ; 0.0
166 ; 1502666.515223586 ; 2.026905997042385E8 ; 2.4475473986003026E8 ; 3.1838896461866848E10 ; 0.0
167 ; 1504673.3014115014 ; 2.0270304219839233E8 ; 2.4625740637525386E8 ; 3.2041587061571087E10 ; 0.0
168 ; 1500985.057650676 ; 2.0271544253920668E8 ; 2.4776207967666537E8 ; 3.2244290103769478E10 ; 0.0
169 ; 1499313.7271838535 ; 2.0272780043547893E8 ; 2.4926306473431605E8 ; 3.2447005546308685E10 ; 0.0
170 ; 1496079.19661415 ; 2.027401155981177E8 ; 2.507623784614999E8 ; 3.2649733346744164E10 ; 0.0
171 ; 1495161.6343127005 ; 2.0275238774011055E8 ; 2.5225845765811405E8 ; 3.285247346234228E10 ; 0.0
172 ; 1492968.0080063723 ; 2.0276461657649234E8 ; 2.5375361929242674E8 ; 3.3055225850082394E10 ; 0.0
173 ; 1492138.4975195162 ; 2.0277680182431528E8 ; 2.552465873004331E8 ; 3.3257990466658886E10 ; 0.0
174 ; 1488891.7543941531 ; 2.027889432026201E8 ; 2.5673872579795262E8 ; 3.34607672684832E10 ; 0.0
175 ; 1488843.9788177747 ; 2.0280104043240815E8 ; 2.5822761755234677E8 ; 3.366355621168582E10 ; 0.0
176 ; 1487088.8990365816 ; 2.0281309323661488E8 ; 2.5971646153116453E8 ; 3.386635725211823E10 ; 0.0
177 ; 1485082.8766204764 ; 2.028251013400841E8 ; 2.612035504302011E8 ; 3.4069170345354843E10 ; 0.0
178 ; 1484258.9615648235 ; 2.0283706446954358E8 ; 2.6268863330682158E8 ; 3.4271995446694927E10 ; 0.0
179 ; 1479886.3766369934 ; 2.0284898235358122E8 ; 2.641728922683864E8 ; 3.4474832511164474E10 ; 0.0
180 ; 1481967.6257049718 ; 2.028608547226225E8 ; 2.6565277864502338E8 ; 3.467768149351806E10 ; 0.0
181 ; 1479938.0796565746 ; 2.0287268130890873E8 ; 2.6713474627072835E8 ; 3.4880542348240685E10 ; 0.0
182 ; 1480756.8557242265 ; 2.0288446184647587E8 ; 2.6861468435038495E8 ; 3.508341502954959E10 ; 0.0
183 ; 1476313.8629039223 ; 2.0289619607113475E8 ; 2.7009544120610917E8 ; 3.5286299491396065E10 ; 0.0
184 ; 1475468.4626669956 ; 2.029078837204515E8 ; 2.7157175506901306E8 ; 3.54891956874672E10 ; 0.0
185 ; 1472206.5394234562 ; 2.029195245337292E8 ; 2.7304722353168005E8 ; 3.569210357118765E10 ; 0.0
186 ; 1473544.7408955696 ; 2.0293111825198984E8 ; 2.745194300711035E8 ; 3.589502309572138E10 ; 0.0
187 ; 1471413.7156475326 ; 2.029426646179574E8 ; 2.759929748119991E8 ; 3.609795421397337E10 ; 0.0
188 ; 1469325.8872766083 ; 2.0295416337604132E8 ; 2.774643885276466E8 ; 3.630089687859133E10 ; 0.0
189 ; 1469243.1537705872 ; 2.029656142723207E8 ; 2.789337144149232E8 ; 3.650385104196737E10 ; 0.0
190 ; 1465403.9023628472 ; 2.0297701705452916E8 ; 2.8040295756869376E8 ; 3.670681665623969E10 ; 0.0
191 ; 1464302.5703816728 ; 2.029883714720403E8 ; 2.818683614710566E8 ; 3.690979367329422E10 ; 0.0
192 ; 1463748.4073317768 ; 2.029996772758537E8 ; 2.833326640414383E8 ; 3.711278204476626E10 ; 0.0
193 ; 1462457.341840061 ; 2.0301093421858147E8 ; 2.8479641244877005E8 ; 3.7315781722042114E10 ; 0.0
194 ; 1463619.7299019732 ; 2.030221420544354E8 ; 2.8625886979061013E8 ; 3.75187926562607E10 ; 0.0
195 ; 1459193.2783370528 ; 2.0303330053921458E8 ; 2.877224895205121E8 ; 3.772181479831513E10 ; 0.0
196 ; 1457451.1072078734 ; 2.030444094302935E8 ; 2.8918168279884917E8 ; 3.792484809885435E10 ; 0.0
197 ; 1455078.6325121918 ; 2.0305546848661065E8 ; 2.9063913390605706E8 ; 3.812789250828464E10 ; 0.0
198 ; 1457438.0019584293 ; 2.0306647746865764E8 ; 2.920942125385693E8 ; 3.833094797677125E10 ; 0.0
199 ; 1453647.719147044 ; 2.0307743613846862E8 ; 2.935516505405277E8 ; 3.853401445423991E10 ; 0.0
