CSV File for the City 5 on Day 5
1 - Minute m 
2 - Power Consumed at minute m 
3 - Power Produced at minute m 
4 - Energy Consumed since the beginning of the day 
5 - Energy Produced since the beginning of the day 
6 - Energy Lost since the beginning of the day on lines starting from the city
 
0 ; 8488141.504404947 ; 1.012972956028359E7 ; 0.0 ; 0.0 ; 0.0
1 ; 8499742.601357844 ; 1.012972956028359E7 ; 8488141.504404947 ; 1.012972956028359E7 ; 0.0
2 ; 8507342.206968946 ; 1.012972956028359E7 ; 1.698788410576279E7 ; 2.025945912056718E7 ; 0.0
3 ; 8518020.309585646 ; 1.012972956028359E7 ; 2.5495226312731735E7 ; 3.038918868085077E7 ; 0.0
4 ; 8532415.511079818 ; 1.012972956028359E7 ; 3.401324662231738E7 ; 4.051891824113436E7 ; 0.0
5 ; 8545849.64070725 ; 1.012972956028359E7 ; 4.25456621333972E7 ; 5.064864780141795E7 ; 0.0
6 ; 8569224.981340177 ; 1.012972956028359E7 ; 5.1091511774104446E7 ; 6.077837736170153E7 ; 0.0
7 ; 8592643.271450514 ; 1.012972956028359E7 ; 5.966073675544462E7 ; 7.090810692198512E7 ; 0.0
8 ; 8637257.649275806 ; 1.012972956028359E7 ; 6.825338002689514E7 ; 8.10378364822687E7 ; 0.0
9 ; 8702656.299694031 ; 1.012972956028359E7 ; 7.689063767617095E7 ; 9.116756604255229E7 ; 0.0
10 ; 8798636.676746225 ; 1.012972956028359E7 ; 8.559329397586498E7 ; 1.0129729560283588E8 ; 0.0
11 ; 8952601.454973947 ; 1.012972956028359E7 ; 9.43919306526112E7 ; 1.1142702516311947E8 ; 0.0
12 ; 9204504.923226072 ; 1.012972956028359E7 ; 1.0334453210758515E8 ; 1.2155675472340305E8 ; 0.0
13 ; 9440431.478494437 ; 1.012972956028359E7 ; 1.1254903703081122E8 ; 1.3168648428368664E8 ; 0.0
14 ; 9471370.174488392 ; 1.012972956028359E7 ; 1.2198946850930566E8 ; 1.4181621384397024E8 ; 0.0
15 ; 9478764.37670158 ; 1.012972956028359E7 ; 1.3146083868379405E8 ; 1.5194594340425384E8 ; 0.0
16 ; 9488799.510651762 ; 1.012972956028359E7 ; 1.4093960306049564E8 ; 1.6207567296453744E8 ; 0.0
17 ; 9501175.461249733 ; 1.012972956028359E7 ; 1.504284025711474E8 ; 1.7220540252482104E8 ; 0.0
18 ; 9513188.984665122 ; 1.012972956028359E7 ; 1.5992957803239715E8 ; 1.8233513208510464E8 ; 0.0
19 ; 9523543.386392068 ; 1.012972956028359E7 ; 1.6944276701706228E8 ; 1.9246486164538825E8 ; 0.0
20 ; 9536181.658484967 ; 1.012972956028359E7 ; 1.7896631040345433E8 ; 2.0259459120567185E8 ; 0.0
21 ; 9544742.217777966 ; 1.012972956028359E7 ; 1.885024920619393E8 ; 2.1272432076595545E8 ; 0.0
22 ; 9557586.453005932 ; 1.012972956028359E7 ; 1.9804723427971727E8 ; 2.2285405032623905E8 ; 0.0
23 ; 9567331.936761675 ; 1.012972956028359E7 ; 2.076048207327232E8 ; 2.3298377988652265E8 ; 0.0
24 ; 9579520.538979597 ; 1.012972956028359E7 ; 2.1717215266948488E8 ; 2.4311350944680625E8 ; 0.0
25 ; 9590974.125113714 ; 1.012972956028359E7 ; 2.2675167320846447E8 ; 2.5324323900708985E8 ; 0.0
26 ; 9602625.6612971 ; 1.012972956028359E7 ; 2.363426473335782E8 ; 2.6337296856737345E8 ; 0.0
27 ; 9613081.655268842 ; 1.012972956028359E7 ; 2.459452729948753E8 ; 2.7350269812765706E8 ; 0.0
28 ; 9625741.007688299 ; 1.012972956028359E7 ; 2.5555835465014416E8 ; 2.8363242768794066E8 ; 0.0
29 ; 9636511.261016943 ; 1.012972956028359E7 ; 2.6518409565783244E8 ; 2.9376215724822426E8 ; 0.0
30 ; 9649469.036595916 ; 1.012972956028359E7 ; 2.748206069188494E8 ; 3.0389188680850786E8 ; 0.0
31 ; 9656210.14714545 ; 1.012972956028359E7 ; 2.8447007595544535E8 ; 3.1402161636879146E8 ; 0.0
32 ; 9668555.579464214 ; 1.012972956028359E7 ; 2.941262861025908E8 ; 3.2415134592907506E8 ; 0.0
33 ; 9673312.94434654 ; 1.012972956028359E7 ; 3.03794841682055E8 ; 3.3428107548935866E8 ; 0.0
34 ; 9685454.54372181 ; 1.012972956028359E7 ; 3.1346815462640154E8 ; 3.4441080504964226E8 ; 0.0
35 ; 9692719.919458343 ; 1.012972956028359E7 ; 3.2315360917012334E8 ; 3.5454053460992587E8 ; 0.0
36 ; 9701353.95693286 ; 1.012972956028359E7 ; 3.3284632908958167E8 ; 3.6467026417020947E8 ; 0.0
37 ; 9709177.12635356 ; 1.012972956028359E7 ; 3.425476830465145E8 ; 3.7479999373049307E8 ; 0.0
38 ; 9719457.21238185 ; 1.012972956028359E7 ; 3.522568601728681E8 ; 3.8492972329077667E8 ; 0.0
39 ; 9727704.857688738 ; 1.012972956028359E7 ; 3.619763173852499E8 ; 3.950594528510603E8 ; 0.0
40 ; 9733868.684095072 ; 1.012972956028359E7 ; 3.7170402224293864E8 ; 4.051891824113439E8 ; 0.0
41 ; 9741579.552175857 ; 1.012972956028359E7 ; 3.814378909270337E8 ; 4.153189119716275E8 ; 0.0
42 ; 9748953.153729444 ; 1.012972956028359E7 ; 3.911794704792096E8 ; 4.254486415319111E8 ; 0.0
43 ; 9754443.8426169 ; 1.012972956028359E7 ; 4.0092842363293904E8 ; 4.355783710921947E8 ; 0.0
44 ; 9759345.924935648 ; 1.012972956028359E7 ; 4.1068286747555596E8 ; 4.457081006524783E8 ; 0.0
45 ; 9766263.451106414 ; 1.012972956028359E7 ; 4.204422134004916E8 ; 4.558378302127619E8 ; 0.0
46 ; 9773428.174004437 ; 1.012972956028359E7 ; 4.30208476851598E8 ; 4.659675597730455E8 ; 0.0
47 ; 9774821.530078897 ; 1.012972956028359E7 ; 4.3998190502560246E8 ; 4.760972893333291E8 ; 0.0
48 ; 9781626.337092714 ; 1.012972956028359E7 ; 4.4975672655568135E8 ; 4.862270188936127E8 ; 0.0
49 ; 9780503.572498763 ; 1.012972956028359E7 ; 4.5953835289277405E8 ; 4.963567484538963E8 ; 0.0
50 ; 9787013.719012959 ; 1.012972956028359E7 ; 4.693188564652728E8 ; 5.064864780141799E8 ; 0.0
51 ; 9788676.02009019 ; 1.012972956028359E7 ; 4.7910587018428576E8 ; 5.166162075744635E8 ; 0.0
52 ; 9793956.64188871 ; 1.012972956028359E7 ; 4.888945462043759E8 ; 5.267459371347471E8 ; 0.0
53 ; 9793824.674613668 ; 1.012972956028359E7 ; 4.9868850284626466E8 ; 5.368756666950307E8 ; 0.0
54 ; 9798739.88758423 ; 1.012972956028359E7 ; 5.084823275208783E8 ; 5.470053962553142E8 ; 0.0
55 ; 9798406.955487026 ; 1.012972956028359E7 ; 5.182810674084625E8 ; 5.571351258155978E8 ; 0.0
56 ; 9801559.578327766 ; 1.012972956028359E7 ; 5.2807947436394954E8 ; 5.672648553758813E8 ; 0.0
57 ; 9807415.748676637 ; 1.012972956028359E7 ; 5.378810339422773E8 ; 5.773945849361649E8 ; 0.0
58 ; 9808903.545150457 ; 1.012972956028359E7 ; 5.47688449690954E8 ; 5.875243144964484E8 ; 0.0
59 ; 9812242.387221633 ; 1.012972956028359E7 ; 5.574973532361044E8 ; 5.976540440567319E8 ; 0.0
60 ; 9810996.17722712 ; 1.012972956028359E7 ; 5.67309595623326E8 ; 6.077837736170155E8 ; 0.0
61 ; 9813157.09340474 ; 1.012972956028359E7 ; 5.771205918005531E8 ; 6.17913503177299E8 ; 0.0
62 ; 9814603.735709408 ; 1.012972956028359E7 ; 5.869337488939579E8 ; 6.280432327375826E8 ; 0.0
63 ; 9815848.082291817 ; 1.012972956028359E7 ; 5.967483526296673E8 ; 6.381729622978661E8 ; 0.0
64 ; 9818047.203954559 ; 1.012972956028359E7 ; 6.065642007119591E8 ; 6.483026918581496E8 ; 0.0
65 ; 9821310.640389279 ; 1.012972956028359E7 ; 6.163822479159137E8 ; 6.584324214184332E8 ; 0.0
66 ; 9820401.276216596 ; 1.012972956028359E7 ; 6.26203558556303E8 ; 6.685621509787167E8 ; 0.0
67 ; 9823488.93946446 ; 1.012972956028359E7 ; 6.360239598325197E8 ; 6.786918805390003E8 ; 0.0
68 ; 9823629.127810529 ; 1.012972956028359E7 ; 6.458474487719841E8 ; 6.888216100992838E8 ; 0.0
69 ; 9823489.082610717 ; 1.012972956028359E7 ; 6.556710778997946E8 ; 6.989513396595674E8 ; 0.0
70 ; 9824474.26156218 ; 1.012972956028359E7 ; 6.654945669824053E8 ; 7.090810692198509E8 ; 0.0
71 ; 9827000.852945382 ; 1.012972956028359E7 ; 6.753190412439675E8 ; 7.192107987801344E8 ; 0.0
72 ; 9827647.39649759 ; 1.012972956028359E7 ; 6.851460420969129E8 ; 7.29340528340418E8 ; 0.0
73 ; 9827667.147203969 ; 1.012972956028359E7 ; 6.949736894934105E8 ; 7.394702579007015E8 ; 0.0
74 ; 9830804.331829961 ; 1.012972956028359E7 ; 7.048013566406144E8 ; 7.495999874609851E8 ; 0.0
75 ; 9829718.246089568 ; 1.012972956028359E7 ; 7.146321609724443E8 ; 7.597297170212686E8 ; 0.0
76 ; 9831724.46435308 ; 1.012972956028359E7 ; 7.244618792185339E8 ; 7.698594465815521E8 ; 0.0
77 ; 9831224.882662479 ; 1.012972956028359E7 ; 7.34293603682887E8 ; 7.799891761418357E8 ; 0.0
78 ; 9830617.24467055 ; 1.012972956028359E7 ; 7.441248285655495E8 ; 7.901189057021192E8 ; 0.0
79 ; 9826978.942096587 ; 1.012972956028359E7 ; 7.5395544581022E8 ; 8.002486352624028E8 ; 0.0
80 ; 9825600.10004111 ; 1.012972956028359E7 ; 7.637824247523166E8 ; 8.103783648226863E8 ; 0.0
81 ; 9817900.629340196 ; 1.012972956028359E7 ; 7.736080248523577E8 ; 8.205080943829699E8 ; 0.0
82 ; 9818889.747336723 ; 1.012972956028359E7 ; 7.834259254816979E8 ; 8.306378239432534E8 ; 0.0
83 ; 9814946.099176746 ; 1.012972956028359E7 ; 7.932448152290347E8 ; 8.407675535035369E8 ; 0.0
84 ; 9813393.176894033 ; 1.012972956028359E7 ; 8.030597613282114E8 ; 8.508972830638205E8 ; 0.0
85 ; 9807206.809087168 ; 1.012972956028359E7 ; 8.128731545051055E8 ; 8.61027012624104E8 ; 0.0
86 ; 9802630.786844023 ; 1.012972956028359E7 ; 8.226803613141927E8 ; 8.711567421843876E8 ; 0.0
87 ; 9803946.941864254 ; 1.012972956028359E7 ; 8.324829921010367E8 ; 8.812864717446711E8 ; 0.0
88 ; 9798284.671899816 ; 1.012972956028359E7 ; 8.422869390429009E8 ; 8.914162013049546E8 ; 0.0
89 ; 9794970.96328801 ; 1.012972956028359E7 ; 8.520852237148007E8 ; 9.015459308652382E8 ; 0.0
90 ; 9792516.018891342 ; 1.012972956028359E7 ; 8.618801946780887E8 ; 9.116756604255217E8 ; 0.0
91 ; 9786463.152666532 ; 1.012972956028359E7 ; 8.7167271069698E8 ; 9.218053899858053E8 ; 0.0
92 ; 9782322.063945277 ; 1.012972956028359E7 ; 8.814591738496466E8 ; 9.319351195460888E8 ; 0.0
93 ; 9782794.46995105 ; 1.012972956028359E7 ; 8.912414959135919E8 ; 9.420648491063724E8 ; 0.0
94 ; 9776489.054406952 ; 1.012972956028359E7 ; 9.010242903835429E8 ; 9.521945786666559E8 ; 0.0
95 ; 9771721.81717839 ; 1.012972956028359E7 ; 9.108007794379499E8 ; 9.623243082269394E8 ; 0.0
96 ; 9768504.668981481 ; 1.012972956028359E7 ; 9.205725012551283E8 ; 9.72454037787223E8 ; 0.0
97 ; 9761540.576115524 ; 1.012972956028359E7 ; 9.303410059241097E8 ; 9.825837673475065E8 ; 0.0
98 ; 9758590.48487864 ; 1.012972956028359E7 ; 9.401025465002252E8 ; 9.927134969077901E8 ; 0.0
99 ; 9756245.243323687 ; 1.012972956028359E7 ; 9.498611369851038E8 ; 1.0028432264680736E9 ; 0.0
100 ; 9747349.332962053 ; 1.012972956028359E7 ; 9.596173822284275E8 ; 1.0129729560283571E9 ; 0.0
101 ; 9744224.061877687 ; 1.012972956028359E7 ; 9.693647315613896E8 ; 1.0231026855886407E9 ; 0.0
102 ; 9739280.771003542 ; 1.012972956028359E7 ; 9.791089556232673E8 ; 1.0332324151489242E9 ; 0.0
103 ; 9733878.735719722 ; 1.012972956028359E7 ; 9.888482363942708E8 ; 1.0433621447092078E9 ; 0.0
104 ; 9730204.407904556 ; 1.012972956028359E7 ; 9.985821151299905E8 ; 1.0534918742694913E9 ; 0.0
105 ; 9725489.640975442 ; 1.012972956028359E7 ; 1.008312319537895E9 ; 1.0636216038297749E9 ; 0.0
106 ; 9719182.446770124 ; 1.012972956028359E7 ; 1.0180378091788704E9 ; 1.0737513333900585E9 ; 0.0
107 ; 9713831.387826463 ; 1.012972956028359E7 ; 1.0277569916256405E9 ; 1.0838810629503422E9 ; 0.0
108 ; 9709354.573896904 ; 1.012972956028359E7 ; 1.037470823013467E9 ; 1.0940107925106258E9 ; 0.0
109 ; 9701801.16015699 ; 1.012972956028359E7 ; 1.0471801775873638E9 ; 1.1041405220709095E9 ; 0.0
110 ; 9698111.199659713 ; 1.012972956028359E7 ; 1.0568819787475208E9 ; 1.1142702516311932E9 ; 0.0
111 ; 9691495.954357043 ; 1.012972956028359E7 ; 1.0665800899471805E9 ; 1.1243999811914768E9 ; 0.0
112 ; 9685245.069170015 ; 1.012972956028359E7 ; 1.0762715859015377E9 ; 1.1345297107517605E9 ; 0.0
113 ; 9678500.65953671 ; 1.012972956028359E7 ; 1.0859568309707077E9 ; 1.1446594403120441E9 ; 0.0
114 ; 9672997.391006395 ; 1.012972956028359E7 ; 1.0956353316302443E9 ; 1.1547891698723278E9 ; 0.0
115 ; 9667142.865488645 ; 1.012972956028359E7 ; 1.1053083290212507E9 ; 1.1649188994326115E9 ; 0.0
116 ; 9660250.89055465 ; 1.012972956028359E7 ; 1.1149754718867393E9 ; 1.1750486289928951E9 ; 0.0
117 ; 9654230.357126996 ; 1.012972956028359E7 ; 1.124635722777294E9 ; 1.1851783585531788E9 ; 0.0
118 ; 9651145.578083513 ; 1.012972956028359E7 ; 1.1342899531344209E9 ; 1.1953080881134624E9 ; 0.0
119 ; 9642432.44697578 ; 1.012972956028359E7 ; 1.1439410987125044E9 ; 1.205437817673746E9 ; 0.0
120 ; 9637672.527860973 ; 1.012972956028359E7 ; 1.15358353115948E9 ; 1.2155675472340298E9 ; 0.0
121 ; 9629202.619788235 ; 1.012972956028359E7 ; 1.163221203687341E9 ; 1.2256972767943134E9 ; 0.0
122 ; 9620548.600285057 ; 1.012972956028359E7 ; 1.1728504063071291E9 ; 1.235827006354597E9 ; 0.0
123 ; 9620399.407343203 ; 1.012972956028359E7 ; 1.1824709549074142E9 ; 1.2459567359148808E9 ; 0.0
124 ; 9609479.793083666 ; 1.012972956028359E7 ; 1.1920913543147573E9 ; 1.2560864654751644E9 ; 0.0
125 ; 9600353.982409578 ; 1.012972956028359E7 ; 1.201700834107841E9 ; 1.266216195035448E9 ; 0.0
126 ; 9595049.793157969 ; 1.012972956028359E7 ; 1.2113011880902505E9 ; 1.2763459245957317E9 ; 0.0
127 ; 9586364.655680234 ; 1.012972956028359E7 ; 1.2208962378834085E9 ; 1.2864756541560154E9 ; 0.0
128 ; 9580934.308448903 ; 1.012972956028359E7 ; 1.2304826025390887E9 ; 1.296605383716299E9 ; 0.0
129 ; 9573704.279575357 ; 1.012972956028359E7 ; 1.2400635368475375E9 ; 1.3067351132765827E9 ; 0.0
130 ; 9564776.890331786 ; 1.012972956028359E7 ; 1.2496372411271129E9 ; 1.3168648428368664E9 ; 0.0
131 ; 9553540.510987252 ; 1.012972956028359E7 ; 1.2592020180174446E9 ; 1.32699457239715E9 ; 0.0
132 ; 9542617.215239832 ; 1.012972956028359E7 ; 1.268755558528432E9 ; 1.3371243019574337E9 ; 0.0
133 ; 9533126.949315235 ; 1.012972956028359E7 ; 1.2782981757436717E9 ; 1.3472540315177174E9 ; 0.0
134 ; 9520324.179502906 ; 1.012972956028359E7 ; 1.287831302692987E9 ; 1.357383761078001E9 ; 0.0
135 ; 9508983.3681151 ; 1.012972956028359E7 ; 1.29735162687249E9 ; 1.3675134906382847E9 ; 0.0
136 ; 9502002.665049085 ; 1.012972956028359E7 ; 1.306860610240605E9 ; 1.3776432201985683E9 ; 0.0
137 ; 9491264.57492834 ; 1.012972956028359E7 ; 1.3163626129056542E9 ; 1.387772949758852E9 ; 0.0
138 ; 9479154.470693894 ; 1.012972956028359E7 ; 1.3258538774805825E9 ; 1.3979026793191357E9 ; 0.0
139 ; 9464328.879849145 ; 1.012972956028359E7 ; 1.3353330319512763E9 ; 1.4080324088794193E9 ; 0.0
140 ; 9454919.657545928 ; 1.012972956028359E7 ; 1.3447973608311255E9 ; 1.418162138439703E9 ; 0.0
141 ; 9440917.724646473 ; 1.012972956028359E7 ; 1.3542522804886715E9 ; 1.4282918679999866E9 ; 0.0
142 ; 9433258.443348158 ; 1.012972956028359E7 ; 1.363693198213318E9 ; 1.4384215975602703E9 ; 0.0
143 ; 9419603.719574666 ; 1.012972956028359E7 ; 1.3731264566566663E9 ; 1.448551327120554E9 ; 0.0
144 ; 9408471.786115786 ; 1.012972956028359E7 ; 1.382546060376241E9 ; 1.4586810566808376E9 ; 0.0
145 ; 9401732.711498175 ; 1.012972956028359E7 ; 1.3919545321623569E9 ; 1.4688107862411213E9 ; 0.0
146 ; 9394778.277116131 ; 1.012972956028359E7 ; 1.401356264873855E9 ; 1.478940515801405E9 ; 0.0
147 ; 9384023.348562432 ; 1.012972956028359E7 ; 1.4107510431509712E9 ; 1.4890702453616886E9 ; 0.0
148 ; 9375895.059217516 ; 1.012972956028359E7 ; 1.4201350664995337E9 ; 1.4991999749219723E9 ; 0.0
149 ; 9367248.502469411 ; 1.012972956028359E7 ; 1.429510961558751E9 ; 1.509329704482256E9 ; 0.0
150 ; 9357698.489288561 ; 1.012972956028359E7 ; 1.4388782100612204E9 ; 1.5194594340425396E9 ; 0.0
151 ; 9352929.026366318 ; 1.012972956028359E7 ; 1.448235908550509E9 ; 1.5295891636028233E9 ; 0.0
152 ; 9343506.989250818 ; 1.012972956028359E7 ; 1.4575888375768752E9 ; 1.539718893163107E9 ; 0.0
153 ; 9334947.280103318 ; 1.012972956028359E7 ; 1.466932344566126E9 ; 1.5498486227233906E9 ; 0.0
154 ; 9325622.21853996 ; 1.012972956028359E7 ; 1.4762672918462293E9 ; 1.5599783522836742E9 ; 0.0
155 ; 9320359.474034917 ; 1.012972956028359E7 ; 1.4855929140647693E9 ; 1.570108081843958E9 ; 0.0
156 ; 9310217.94426846 ; 1.012972956028359E7 ; 1.4949132735388043E9 ; 1.5802378114042416E9 ; 0.0
157 ; 9299915.115508687 ; 1.012972956028359E7 ; 1.5042234914830728E9 ; 1.5903675409645252E9 ; 0.0
158 ; 9293570.309606386 ; 1.012972956028359E7 ; 1.5135234065985816E9 ; 1.600497270524809E9 ; 0.0
159 ; 9289108.865157725 ; 1.012972956028359E7 ; 1.5228169769081879E9 ; 1.6106270000850925E9 ; 0.0
160 ; 9278599.20061348 ; 1.012972956028359E7 ; 1.5321060857733457E9 ; 1.6207567296453762E9 ; 0.0
161 ; 9268757.934192382 ; 1.012972956028359E7 ; 1.5413846849739592E9 ; 1.6308864592056599E9 ; 0.0
162 ; 9260585.549215036 ; 1.012972956028359E7 ; 1.5506534429081516E9 ; 1.6410161887659435E9 ; 0.0
163 ; 9251158.096767679 ; 1.012972956028359E7 ; 1.5599140284573667E9 ; 1.6511459183262272E9 ; 0.0
164 ; 9242736.667201728 ; 1.012972956028359E7 ; 1.5691651865541344E9 ; 1.6612756478865108E9 ; 0.0
165 ; 9234459.46146814 ; 1.012972956028359E7 ; 1.5784079232213361E9 ; 1.6714053774467945E9 ; 0.0
166 ; 9224554.086593743 ; 1.012972956028359E7 ; 1.5876423826828043E9 ; 1.6815351070070782E9 ; 0.0
167 ; 9212450.344762074 ; 1.012972956028359E7 ; 1.596866936769398E9 ; 1.6916648365673618E9 ; 0.0
168 ; 9208251.892939053 ; 1.012972956028359E7 ; 1.60607938711416E9 ; 1.7017945661276455E9 ; 0.0
169 ; 9199832.903944407 ; 1.012972956028359E7 ; 1.6152876390070992E9 ; 1.7119242956879292E9 ; 0.0
170 ; 9188937.168387314 ; 1.012972956028359E7 ; 1.6244874719110436E9 ; 1.7220540252482128E9 ; 0.0
171 ; 9178923.637852084 ; 1.012972956028359E7 ; 1.633676409079431E9 ; 1.7321837548084965E9 ; 0.0
172 ; 9169677.919870652 ; 1.012972956028359E7 ; 1.6428553327172832E9 ; 1.7423134843687801E9 ; 0.0
173 ; 9160441.959477559 ; 1.012972956028359E7 ; 1.6520250106371539E9 ; 1.7524432139290638E9 ; 0.0
174 ; 9156837.15749511 ; 1.012972956028359E7 ; 1.6611854525966315E9 ; 1.7625729434893475E9 ; 0.0
175 ; 9154002.847606689 ; 1.012972956028359E7 ; 1.6703422897541265E9 ; 1.772702673049631E9 ; 0.0
176 ; 9144116.866696468 ; 1.012972956028359E7 ; 1.6794962926017332E9 ; 1.7828324026099148E9 ; 0.0
177 ; 9141763.874495095 ; 1.012972956028359E7 ; 1.6886404094684296E9 ; 1.7929621321701984E9 ; 0.0
178 ; 9136701.004436081 ; 1.012972956028359E7 ; 1.6977821733429246E9 ; 1.803091861730482E9 ; 0.0
179 ; 9129015.39613663 ; 1.012972956028359E7 ; 1.7069188743473606E9 ; 1.8132215912907658E9 ; 0.0
180 ; 9126329.347619755 ; 1.012972956028359E7 ; 1.7160478897434971E9 ; 1.8233513208510494E9 ; 0.0
181 ; 9118465.247328082 ; 1.012972956028359E7 ; 1.725174219091117E9 ; 1.833481050411333E9 ; 0.0
182 ; 9112499.45914466 ; 1.012972956028359E7 ; 1.734292684338445E9 ; 1.8436107799716167E9 ; 0.0
183 ; 9105919.357291536 ; 1.012972956028359E7 ; 1.7434051837975895E9 ; 1.8537405095319004E9 ; 0.0
184 ; 9104575.601836726 ; 1.012972956028359E7 ; 1.752511103154881E9 ; 1.863870239092184E9 ; 0.0
185 ; 9098620.941600235 ; 1.012972956028359E7 ; 1.7616156787567177E9 ; 1.8739999686524677E9 ; 0.0
186 ; 9090517.48399436 ; 1.012972956028359E7 ; 1.770714299698318E9 ; 1.8841296982127514E9 ; 0.0
187 ; 9085568.440863516 ; 1.012972956028359E7 ; 1.7798048171823123E9 ; 1.894259427773035E9 ; 0.0
188 ; 9081078.776051488 ; 1.012972956028359E7 ; 1.7888903856231759E9 ; 1.9043891573333187E9 ; 0.0
189 ; 9072544.943365853 ; 1.012972956028359E7 ; 1.7979714643992274E9 ; 1.9145188868936024E9 ; 0.0
190 ; 9068017.218150094 ; 1.012972956028359E7 ; 1.8070440093425932E9 ; 1.924648616453886E9 ; 0.0
191 ; 9062472.526896277 ; 1.012972956028359E7 ; 1.8161120265607433E9 ; 1.9347783460141697E9 ; 0.0
192 ; 9058205.148357455 ; 1.012972956028359E7 ; 1.8251744990876396E9 ; 1.9449080755744534E9 ; 0.0
193 ; 9051357.773186978 ; 1.012972956028359E7 ; 1.834232704235997E9 ; 1.955037805134737E9 ; 0.0
194 ; 9048824.41129008 ; 1.012972956028359E7 ; 1.843284062009184E9 ; 1.9651675346950207E9 ; 0.0
195 ; 9042784.656225674 ; 1.012972956028359E7 ; 1.852332886420474E9 ; 1.9752972642553043E9 ; 0.0
196 ; 9037817.86821796 ; 1.012972956028359E7 ; 1.8613756710766997E9 ; 1.985426993815588E9 ; 0.0
197 ; 9033200.072214914 ; 1.012972956028359E7 ; 1.8704134889449177E9 ; 1.9955567233758717E9 ; 0.0
198 ; 9026040.10943545 ; 1.012972956028359E7 ; 1.8794466890171325E9 ; 2.0056864529361553E9 ; 0.0
199 ; 9021734.478089314 ; 1.012972956028359E7 ; 1.888472729126568E9 ; 2.015816182496439E9 ; 0.0
200 ; 9013330.479283098 ; 1.012972956028359E7 ; 1.8974944636046574E9 ; 2.0259459120567226E9 ; 0.0
201 ; 9010947.424468154 ; 1.012972956028359E7 ; 1.9065077940839405E9 ; 2.0360756416170063E9 ; 0.0
202 ; 9002255.156253615 ; 1.012972956028359E7 ; 1.9155187415084085E9 ; 2.04620537117729E9 ; 0.0
203 ; 8997528.212676436 ; 1.012972956028359E7 ; 1.9245209966646621E9 ; 2.0563351007375736E9 ; 0.0
204 ; 8994487.78862042 ; 1.012972956028359E7 ; 1.9335185248773386E9 ; 2.0664648302978573E9 ; 0.0
