CSV File for the City 2 on Day 117
1 - Minute m 
2 - Power Consumed at minute m 
3 - Power Produced at minute m 
4 - Energy Consumed since the beginning of the day 
5 - Energy Produced since the beginning of the day 
6 - Energy Lost since the beginning of the day on lines starting from the city
 
0 ; 1803064.3138935491 ; 1.0526127474256125E8 ; 0.0 ; 0.0 ; 0.0
1 ; 1805733.5128441537 ; 1.0541525480846077E8 ; 1803064.3138935491 ; 1.0526127474256125E8 ; 0.0
2 ; 1808424.7972231773 ; 1.0587791167383024E8 ; 3608797.826737703 ; 2.1067652955102202E8 ; 0.0
3 ; 1810337.7465900292 ; 1.0664924568504977E8 ; 5417222.623960881 ; 3.1655444122485226E8 ; 0.0
4 ; 1814342.206140243 ; 1.0772925715222079E8 ; 7227560.37055091 ; 4.2320368690990204E8 ; 0.0
5 ; 1816399.0721607697 ; 1.0911794634755576E8 ; 9041902.576691153 ; 5.309329440621228E8 ; 0.0
6 ; 1820292.5074741275 ; 1.1081531350393859E8 ; 1.0858301648851922E7 ; 6.400508904096786E8 ; 0.0
7 ; 1827042.7317836138 ; 1.1282135881367475E8 ; 1.267859415632605E7 ; 7.508662039136171E8 ; 0.0
8 ; 1836648.0427085822 ; 1.1513608242744565E8 ; 1.4505636888109664E7 ; 8.636875627272918E8 ; 0.0
9 ; 1849893.061048115 ; 1.1775948445348144E8 ; 1.6342284930818245E7 ; 9.788236451547375E8 ; 0.0
10 ; 1871288.3711875114 ; 1.2069156495696199E8 ; 1.819217799186636E7 ; 1.096583129608219E9 ; 0.0
11 ; 1906578.3498553464 ; 1.239323239596543E8 ; 2.0063466363053873E7 ; 1.2172746945651808E9 ; 0.0
12 ; 1960378.2589641332 ; 1.2748176143979135E8 ; 2.1970044712909218E7 ; 1.341207018524835E9 ; 0.0
13 ; 2014025.1301160818 ; 1.3133987733219326E8 ; 2.393042297187335E7 ; 1.4686887799646266E9 ; 0.0
14 ; 2019342.9693008722 ; 1.3550667152862996E8 ; 2.5944448101989433E7 ; 1.6000286572968197E9 ; 0.0
15 ; 2020594.471988322 ; 1.3998214387841994E8 ; 2.7963791071290307E7 ; 1.7355353288254497E9 ; 0.0
16 ; 2023995.9317085375 ; 1.4476629418925783E8 ; 2.9984385543278627E7 ; 1.8755174727038696E9 ; 0.0
17 ; 2026247.5726496922 ; 1.4985912222825965E8 ; 3.2008381474987164E7 ; 2.0202837668931274E9 ; 0.0
18 ; 2029441.2490086707 ; 1.5526062772321296E8 ; 3.403462904763686E7 ; 2.170142889121387E9 ; 0.0
19 ; 2031269.1009469528 ; 1.6097081036401632E8 ; 3.606407029664553E7 ; 2.3254035168445997E9 ; 0.0
20 ; 2034147.797185234 ; 1.669896698042896E8 ; 3.8095339397592485E7 ; 2.4863743272086163E9 ; 0.0
21 ; 2037457.5268886106 ; 1.7331720566313764E8 ; 4.012948719477772E7 ; 2.653363997012906E9 ; 0.0
22 ; 2039625.0576641446 ; 1.7995341752704507E8 ; 4.216694472166633E7 ; 2.8266812026760435E9 ; 0.0
23 ; 2042714.075349739 ; 1.8689830495188278E8 ; 4.420656977933047E7 ; 3.0066346202030888E9 ; 0.0
24 ; 2044697.3746690988 ; 1.9415186746500325E8 ; 4.624928385468021E7 ; 3.1935329251549716E9 ; 0.0
25 ; 2047238.171598817 ; 2.004021454655877E8 ; 4.829398122934931E7 ; 3.387684792619975E9 ; 0.0
26 ; 2050275.625158929 ; 2.0040268626375157E8 ; 5.034121940094812E7 ; 3.5880869380855627E9 ; 0.0
27 ; 2053566.984614978 ; 2.0040325860768425E8 ; 5.239149502610705E7 ; 3.788489624349314E9 ; 0.0
28 ; 2054565.4392366854 ; 2.0040386193266383E8 ; 5.4445062010722026E7 ; 3.9888928829569983E9 ; 0.0
29 ; 2057341.2279229262 ; 2.0040449565653327E8 ; 5.649962744995871E7 ; 4.1892967448896623E9 ; 0.0
30 ; 2059614.6787724863 ; 2.004051591819025E8 ; 5.8556968677881636E7 ; 4.389701240546196E9 ; 0.0
31 ; 2061211.1931330238 ; 2.0040585189830634E8 ; 6.061658335665412E7 ; 4.590106399728099E9 ; 0.0
32 ; 2064279.4416349216 ; 2.004065731843045E8 ; 6.267779454978715E7 ; 4.790512251626405E9 ; 0.0
33 ; 2067265.3862673657 ; 2.0040732240951172E8 ; 6.474207399142207E7 ; 4.990918824810709E9 ; 0.0
34 ; 2068952.5184904586 ; 2.004080989365477E8 ; 6.6809339377689436E7 ; 5.191326147220221E9 ; 0.0
35 ; 2072005.5898075 ; 2.0040890212289837E8 ; 6.88782918961799E7 ; 5.391734246156768E9 ; 0.0
36 ; 2072157.852001087 ; 2.0040973132268158E8 ; 7.09502974859874E7 ; 5.592143148279666E9 ; 0.0
37 ; 2075782.9271808953 ; 2.0041058588831213E8 ; 7.302245533798848E7 ; 5.792552879602347E9 ; 0.0
38 ; 2076329.7362772292 ; 2.0041146517206225E8 ; 7.509823826516938E7 ; 5.99296346549066E9 ; 0.0
39 ; 2079656.5360349987 ; 2.0041236852751532E8 ; 7.71745680014466E7 ; 6.193374930662722E9 ; 0.0
40 ; 2081469.6153474892 ; 2.00413295310912E8 ; 7.92542245374816E7 ; 6.393787299190237E9 ; 0.0
41 ; 2082560.5041490435 ; 2.0041424488238868E8 ; 8.13356941528291E7 ; 6.594200594501149E9 ; 0.0
42 ; 2084600.4952343605 ; 2.004152166071093E8 ; 8.341825465697815E7 ; 6.794614839383538E9 ; 0.0
43 ; 2085892.2674470213 ; 2.004162098562932E8 ; 8.55028551522125E7 ; 6.995030055990647E9 ; 0.0
44 ; 2087327.0409258856 ; 2.0041722400814122E8 ; 8.758874741965953E7 ; 7.195446265846941E9 ; 0.0
45 ; 2088959.947895243 ; 2.004182584486636E8 ; 8.967607446058542E7 ; 7.3958634898550825E9 ; 0.0
46 ; 2088776.989237085 ; 2.0041931257241398E8 ; 9.176503440848066E7 ; 7.596281748303746E9 ; 0.0
47 ; 2090863.1067091664 ; 2.0042038578313372E8 ; 9.385381139771774E7 ; 7.796701060876161E9 ; 0.0
48 ; 2092864.9391151005 ; 2.0042147749431065E8 ; 9.594467450442691E7 ; 7.997121446659294E9 ; 0.0
49 ; 2094404.8377504272 ; 2.004225871296582E8 ; 9.803753944354202E7 ; 8.1975429241536045E9 ; 0.0
50 ; 2096236.9822545117 ; 2.0042371412351888E8 ; 1.0013194428129244E8 ; 8.397965511283262E9 ; 0.0
51 ; 2096144.0748730244 ; 2.0042485792119777E8 ; 1.0222818126354694E8 ; 8.59838922540678E9 ; 0.0
52 ; 2095770.9789126155 ; 2.004260179792308E8 ; 1.0432432533841997E8 ; 8.798814083327978E9 ; 0.0
53 ; 2097709.172857349 ; 2.0042719376559284E8 ; 1.064200963173326E8 ; 8.999240101307209E9 ; 0.0
54 ; 2098579.0695091053 ; 2.0042838475985062E8 ; 1.0851780549018994E8 ; 9.199667295072802E9 ; 0.0
55 ; 2098727.5193907213 ; 2.0042959045326483E8 ; 1.1061638455969904E8 ; 9.400095679832653E9 ; 0.0
56 ; 2098820.0302388705 ; 2.004308103488464E8 ; 1.1271511207908976E8 ; 9.600525270285917E9 ; 0.0
57 ; 2100502.5683164634 ; 2.0043204396137086E8 ; 1.1481393210932863E8 ; 9.800956080634764E9 ; 0.0
58 ; 2101331.4772309437 ; 2.0043329081735548E8 ; 1.1691443467764509E8 ; 1.0001388124596134E10 ; 0.0
59 ; 2102407.6284629717 ; 2.004345504550024E8 ; 1.1901576615487602E8 ; 1.020182141541349E10 ; 0.0
60 ; 2102759.570370339 ; 2.0043582242411202E8 ; 1.21118173783339E8 ; 1.0402255965868492E10 ; 0.0
61 ; 2101602.3383260504 ; 2.0043710628596994E8 ; 1.2322093335370934E8 ; 1.0602691788292604E10 ; 0.0
62 ; 2104784.313757489 ; 2.004384016132104E8 ; 1.2532253569203539E8 ; 1.0803128894578575E10 ; 0.0
63 ; 2103783.3047314514 ; 2.0043970798965958E8 ; 1.2742732000579289E8 ; 1.1003567296191786E10 ; 0.0
64 ; 2105495.744840365 ; 2.004410250101613E8 ; 1.2953110331052434E8 ; 1.1204007004181446E10 ; 0.0
65 ; 2105242.3228463065 ; 2.0044235228038785E8 ; 1.3163659905536471E8 ; 1.1404448029191607E10 ; 0.0
66 ; 2107573.448976709 ; 2.004436894166379E8 ; 1.3374184137821102E8 ; 1.1604890381471994E10 ; 0.0
67 ; 2106382.9086853783 ; 2.0044503604562402E8 ; 1.3584941482718772E8 ; 1.1805334070888632E10 ; 0.0
68 ; 2107419.6904378673 ; 2.0044639180425173E8 ; 1.379557977358731E8 ; 1.2005779106934256E10 ; 0.0
69 ; 2108999.2359440243 ; 2.0044775633939153E8 ; 1.4006321742631096E8 ; 1.2206225498738508E10 ; 0.0
70 ; 2108040.626524754 ; 2.0044912930764565E8 ; 1.42172216662255E8 ; 1.24066732550779E10 ; 0.0
71 ; 2109344.9596875603 ; 2.004505103751112E8 ; 1.4428025728877974E8 ; 1.2607122384385546E10 ; 0.0
72 ; 2110746.9230706557 ; 2.0045189921714056E8 ; 1.463896022484673E8 ; 1.2807572894760656E10 ; 0.0
73 ; 2111139.563836033 ; 2.0045329551810053E8 ; 1.4850034917153797E8 ; 1.3008024793977797E10 ; 0.0
74 ; 2110562.73106076 ; 2.0045469897113106E8 ; 1.50611488735374E8 ; 1.3208478089495897E10 ; 0.0
75 ; 2109418.274815212 ; 2.0045610927790448E8 ; 1.5272205146643478E8 ; 1.3408932788467028E10 ; 0.0
76 ; 2110932.2734184116 ; 2.0045752614838606E8 ; 1.5483146974124998E8 ; 1.3609388897744932E10 ; 0.0
77 ; 2112004.470579441 ; 2.0045894930059668E8 ; 1.569424020146684E8 ; 1.3809846423893318E10 ; 0.0
78 ; 2112236.8349981476 ; 2.0046037846037787E8 ; 1.5905440648524785E8 ; 1.4010305373193914E10 ; 0.0
79 ; 2110285.869198915 ; 2.0046181336116028E8 ; 1.61166643320246E8 ; 1.4210765751654293E10 ; 0.0
80 ; 2111380.1113152653 ; 2.004632537437355E8 ; 1.6327692918944493E8 ; 1.4411227565015453E10 ; 0.0
81 ; 2111311.340418824 ; 2.0046469935603195E8 ; 1.653883093007602E8 ; 1.461169081875919E10 ; 0.0
82 ; 2109621.7589388676 ; 2.0046614995289502E8 ; 1.6749962064117903E8 ; 1.4812155518115221E10 ; 0.0
83 ; 2108352.4256994883 ; 2.004676052958717E8 ; 1.696092424001179E8 ; 1.5012621668068115E10 ; 0.0
84 ; 2109546.460720987 ; 2.0046906515300003E8 ; 1.717175948258174E8 ; 1.5213089273363987E10 ; 0.0
85 ; 2109782.818571203 ; 2.0047052929860333E8 ; 1.738271412865384E8 ; 1.5413558338516987E10 ; 0.0
86 ; 2107625.488974657 ; 2.004719975130895E8 ; 1.759369241051096E8 ; 1.561402886781559E10 ; 0.0
87 ; 2107782.126892069 ; 2.004734695827557E8 ; 1.7804454959408426E8 ; 1.581450086532868E10 ; 0.0
88 ; 2106761.9652032 ; 2.004749452995978E8 ; 1.8015233172097632E8 ; 1.6014974334911436E10 ; 0.0
89 ; 2106611.8894981737 ; 2.0047642446112522E8 ; 1.8225909368617952E8 ; 1.6215449280211035E10 ; 0.0
90 ; 2103177.12975503 ; 2.0047790687018126E8 ; 1.843657055756777E8 ; 1.641592570467216E10 ; 0.0
91 ; 2100559.638038766 ; 2.0047939233476818E8 ; 1.864688827054327E8 ; 1.6616403611542341E10 ; 0.0
92 ; 2096810.321623997 ; 2.004808806678777E8 ; 1.8856944234347147E8 ; 1.681688300387711E10 ; 0.0
93 ; 2094610.3205029087 ; 2.004823716873269E8 ; 1.9066625266509548E8 ; 1.7017363884544987E10 ; 0.0
94 ; 2090719.238888938 ; 2.0048386521559858E8 ; 1.927608629855984E8 ; 1.7217846256232315E10 ; 0.0
95 ; 2087804.5717427055 ; 2.004853610796872E8 ; 1.9485158222448733E8 ; 1.7418330121447914E10 ; 0.0
96 ; 2086020.7175207923 ; 2.0048685911094943E8 ; 1.9693938679623005E8 ; 1.7618815482527603E10 ; 0.0
97 ; 2082892.4388351021 ; 2.0048835914495963E8 ; 1.9902540751375085E8 ; 1.7819302341638554E10 ; 0.0
98 ; 2079669.3997523338 ; 2.0048986102137008E8 ; 2.0110829995258597E8 ; 1.8019790700783512E10 ; 0.0
99 ; 2075941.1503054008 ; 2.0049136458377576E8 ; 2.031879693523383E8 ; 1.8220280561804882E10 ; 0.0
100 ; 2072786.5643478113 ; 2.004928696795837E8 ; 2.052639105026437E8 ; 1.8420771926388657E10 ; 0.0
101 ; 2069956.647460443 ; 2.0049437615988684E8 ; 2.073366970669915E8 ; 1.862126479606824E10 ; 0.0
102 ; 2067466.7071855336 ; 2.00495883879342E8 ; 2.0940665371445194E8 ; 1.8821759172228127E10 ; 0.0
103 ; 2064470.9766701427 ; 2.0049739269605207E8 ; 2.1147412042163748E8 ; 1.9022255056107468E10 ; 0.0
104 ; 2061739.3938607096 ; 2.004989024714525E8 ; 2.1353859139830762E8 ; 1.922275244880352E10 ; 0.0
105 ; 2057552.9049555887 ; 2.0050041307020143E8 ; 2.1560033079216832E8 ; 1.942325135127497E10 ; 0.0
106 ; 2055280.0297034418 ; 2.005019243600738E8 ; 2.1765788369712391E8 ; 1.9623751764345173E10 ; 0.0
107 ; 2052059.3866683387 ; 2.005034362118592E8 ; 2.1971316372682735E8 ; 1.9824253688705246E10 ; 0.0
108 ; 2047322.7175702045 ; 2.0050494849926323E8 ; 2.2176522311349568E8 ; 2.0024757124917107E10 ; 0.0
109 ; 2045139.003989153 ; 2.0050646109881246E8 ; 2.238125458310659E8 ; 2.022526207341637E10 ; 0.0
110 ; 2041395.9011620085 ; 2.005079738897627E8 ; 2.2585768483505505E8 ; 2.0425768534515182E10 ; 0.0
111 ; 2036417.2202638458 ; 2.0050948675401047E8 ; 2.2789908073621705E8 ; 2.0626276508404945E10 ; 0.0
112 ; 2034174.3905989432 ; 2.0051099957600778E8 ; 2.299354979564809E8 ; 2.0826785995158955E10 ; 0.0
113 ; 2031146.9514212538 ; 2.005125122426798E8 ; 2.3196967234707984E8 ; 2.1027296994734962E10 ; 0.0
114 ; 2028633.7342663787 ; 2.0051402464334568E8 ; 2.340008192985011E8 ; 2.1227809506977642E10 ; 0.0
115 ; 2024568.0645868394 ; 2.0051553666964194E8 ; 2.3602945303276747E8 ; 2.1428323531620987E10 ; 0.0
116 ; 2022077.6124001266 ; 2.0051704821544883E8 ; 2.3805402109735432E8 ; 2.162883906829063E10 ; 0.0
117 ; 2017987.1867777628 ; 2.005185591768193E8 ; 2.4007609870975444E8 ; 2.182935611650608E10 ; 0.0
118 ; 2014757.574385197 ; 2.005200694519104E8 ; 2.420940858965322E8 ; 2.20298746756829E10 ; 0.0
119 ; 2010338.6366783723 ; 2.0052157894091734E8 ; 2.441088434709174E8 ; 2.223039474513481E10 ; 0.0
120 ; 2007294.3987102655 ; 2.0052308754600975E8 ; 2.4611918210759577E8 ; 2.243091632407573E10 ; 0.0
121 ; 2005462.11197665 ; 2.005245951712703E8 ; 2.4812647650630602E8 ; 2.263143941162174E10 ; 0.0
122 ; 2001232.7218021408 ; 2.005261017226356E8 ; 2.5013193861828268E8 ; 2.2831964006793007E10 ; 0.0
123 ; 1997336.457065288 ; 2.0052760710783905E8 ; 2.5213317134008482E8 ; 2.3032490108515644E10 ; 0.0
124 ; 1992897.2206644008 ; 2.00529111236356E8 ; 2.541305077971501E8 ; 2.323301771562348E10 ; 0.0
125 ; 1991172.6386763423 ; 2.005306140193506E8 ; 2.5612340501781452E8 ; 2.3433546826859837E10 ; 0.0
126 ; 1986110.158749956 ; 2.0053211536962467E8 ; 2.5811457765649086E8 ; 2.363407744087919E10 ; 0.0
127 ; 1981336.9511413863 ; 2.0053361520156866E8 ; 2.6010068781524083E8 ; 2.3834609556248814E10 ; 0.0
128 ; 1979925.8643499208 ; 2.0053511343111378E8 ; 2.6208202476638222E8 ; 2.4035143171450382E10 ; 0.0
129 ; 1975869.1939802878 ; 2.0053660997568643E8 ; 2.6406195063073215E8 ; 2.4235678284881496E10 ; 0.0
130 ; 1970949.5420985026 ; 2.0053810475416395E8 ; 2.6603781982471243E8 ; 2.443621489485718E10 ; 0.0
131 ; 1967977.741419547 ; 2.00539597686832E8 ; 2.6800876936681092E8 ; 2.4636752999611347E10 ; 0.0
132 ; 1962158.9961977792 ; 2.005410886953434E8 ; 2.699767471082305E8 ; 2.483729259729818E10 ; 0.0
133 ; 1958242.8596873528 ; 2.0054257770267868E8 ; 2.7193890610442823E8 ; 2.5037833685993523E10 ; 0.0
134 ; 1953735.8461191051 ; 2.0054406463310766E8 ; 2.7389714896411556E8 ; 2.52383762636962E10 ; 0.0
135 ; 1950037.5926323582 ; 2.0054554941215265E8 ; 2.7585088481023467E8 ; 2.5438920328329308E10 ; 0.0
136 ; 1946061.993134577 ; 2.0054703196655294E8 ; 2.77800922402867E8 ; 2.563946587774146E10 ; 0.0
137 ; 1941108.7700076017 ; 2.0054851222423032E8 ; 2.797469843960016E8 ; 2.584001290970801E10 ; 0.0
138 ; 1936243.5635712394 ; 2.0054999011425617E8 ; 2.816880931660092E8 ; 2.6040561421932243E10 ; 0.0
139 ; 1932064.670875873 ; 2.0055146556681937E8 ; 2.836243367295804E8 ; 2.62411114120465E10 ; 0.0
140 ; 1926280.1691868787 ; 2.0055293851319546E8 ; 2.8555640140045625E8 ; 2.644166287761332E10 ; 0.0
141 ; 1923162.838730004 ; 2.0055440888571697E8 ; 2.8748268156964314E8 ; 2.6642215816126514E10 ; 0.0
142 ; 1918510.6958616318 ; 2.0055587661774468E8 ; 2.894058444083731E8 ; 2.684277022501223E10 ; 0.0
143 ; 1915117.4762136263 ; 2.0055734164363986E8 ; 2.9132435510423476E8 ; 2.7043326101629974E10 ; 0.0
144 ; 1908267.6050275923 ; 2.0055880389873755E8 ; 2.932394725804484E8 ; 2.7243883443273613E10 ; 0.0
145 ; 1906624.8354318119 ; 2.0056026331932065E8 ; 2.95147740185476E8 ; 2.744444224717235E10 ; 0.0
146 ; 1902783.465423823 ; 2.0056171984259516E8 ; 2.970543650209078E8 ; 2.7645002510491673E10 ; 0.0
147 ; 1898619.144984661 ; 2.0056317340666583E8 ; 2.9895714848633164E8 ; 2.7845564230334267E10 ; 0.0
148 ; 1894747.6439990064 ; 2.005646239505132E8 ; 3.008557676313163E8 ; 2.8046127403740932E10 ; 0.0
149 ; 1891325.1136309616 ; 2.0056607141397092E8 ; 3.027505152753153E8 ; 2.8246692027691444E10 ; 0.0
150 ; 1888242.2147952642 ; 2.0056751573770413E8 ; 3.0464184038894624E8 ; 2.8447258099105415E10 ; 0.0
151 ; 1883721.4231203778 ; 2.0056895686318853E8 ; 3.065300826037415E8 ; 2.864782561484312E10 ; 0.0
152 ; 1880644.6112825032 ; 2.0057039473269013E8 ; 3.084138040268619E8 ; 2.884839457170631E10 ; 0.0
153 ; 1876742.411708375 ; 2.0057182928924567E8 ; 3.1029444863814443E8 ; 2.9048964966439E10 ; 0.0
154 ; 1873043.2381618002 ; 2.005732604766437E8 ; 3.121711910498528E8 ; 2.9249536795728245E10 ; 0.0
155 ; 1869169.5885163143 ; 2.0057468823940647E8 ; 3.140442342880146E8 ; 2.9450110056204887E10 ; 0.0
156 ; 1865811.5293782726 ; 2.0057611252277207E8 ; 3.159134038765309E8 ; 2.9650684744444294E10 ; 0.0
157 ; 1862055.3114955395 ; 2.0057753327267754E8 ; 3.177792154059092E8 ; 2.9851260856967068E10 ; 0.0
158 ; 1857777.7903301148 ; 2.005789504357423E8 ; 3.196412707174047E8 ; 3.0051838390239746E10 ; 0.0
159 ; 1854018.8287979001 ; 2.005803639592523E8 ; 3.2149904850773484E8 ; 3.0252417340675488E10 ; 0.0
160 ; 1850648.6598366806 ; 2.005817737911445E8 ; 3.233530673365327E8 ; 3.045299770463474E10 ; 0.0
161 ; 1845093.71531888 ; 2.0058317987999213E8 ; 3.252037159963694E8 ; 3.0653579478425884E10 ; 0.0
162 ; 1841008.6257903888 ; 2.0058458217499012E8 ; 3.270488097116883E8 ; 3.0854162658305878E10 ; 0.0
163 ; 1838566.6277865244 ; 2.005859806259413E8 ; 3.288898183374787E8 ; 3.105474724048087E10 ; 0.0
164 ; 1834504.5861514993 ; 2.0058737518324292E8 ; 3.307283849652652E8 ; 3.125533322110681E10 ; 0.0
165 ; 1831014.4911125624 ; 2.0058876579787353E8 ; 3.325628895514167E8 ; 3.1455920596290054E10 ; 0.0
166 ; 1827030.5743174143 ; 2.0059015242138046E8 ; 3.343939040425293E8 ; 3.165650936208793E10 ; 0.0
167 ; 1823253.6967031064 ; 2.005915350058677E8 ; 3.362209346168467E8 ; 3.1857099514509308E10 ; 0.0
168 ; 1819827.824771802 ; 2.0059291350398389E8 ; 3.380441883135498E8 ; 3.2057691049515175E10 ; 0.0
169 ; 1815969.3763256182 ; 2.0059428786891118E8 ; 3.3986401613832164E8 ; 3.2258283963019157E10 ; 0.0
170 ; 1811156.4473908546 ; 2.0059565805435395E8 ; 3.4167998551464725E8 ; 3.245887825088807E10 ; 0.0
171 ; 1808435.800047935 ; 2.005970240145283E8 ; 3.434911419620381E8 ; 3.2659473908942425E10 ; 0.0
172 ; 1804218.9724010082 ; 2.0059838570415163E8 ; 3.4529957776208603E8 ; 3.2860070932956955E10 ; 0.0
173 ; 1800115.9876809912 ; 2.0059974307843262E8 ; 3.4710379673448706E8 ; 3.3060669318661106E10 ; 0.0
174 ; 1796789.3977927752 ; 2.0060109609306157E8 ; 3.48903912722168E8 ; 3.326126906173954E10 ; 0.0
175 ; 1793993.333971401 ; 2.0060244470420104E8 ; 3.507007021199608E8 ; 3.3461870157832603E10 ; 0.0
176 ; 1791276.1929713911 ; 2.0060378886847678E8 ; 3.5249469545393217E8 ; 3.3662472602536804E10 ; 0.0
177 ; 1785891.3459893214 ; 2.0060512854296884E8 ; 3.542859716469036E8 ; 3.386307639140528E10 ; 0.0
178 ; 1783543.9582185782 ; 2.0060646368520314E8 ; 3.560718629928929E8 ; 3.406368151994825E10 ; 0.0
179 ; 1781157.7119096536 ; 2.0060779425314328E8 ; 3.578554069511115E8 ; 3.4264287983633453E10 ; 0.0
180 ; 1776968.6913784517 ; 2.0060912020518243E8 ; 3.5963656466302115E8 ; 3.44648957778866E10 ; 0.0
181 ; 1773532.5796287013 ; 2.006104415001357E8 ; 3.614135333543996E8 ; 3.466550489809178E10 ; 0.0
182 ; 1770369.1909673489 ; 2.0061175809723258E8 ; 3.631870659340283E8 ; 3.486611533959192E10 ; 0.0
183 ; 1766465.1215451488 ; 2.0061306995610976E8 ; 3.6495743512499565E8 ; 3.506672709768915E10 ; 0.0
184 ; 1763602.9798285207 ; 2.00614377036804E8 ; 3.667239002465408E8 ; 3.5267340167645256E10 ; 0.0
185 ; 1759868.192279777 ; 2.0061567929974547E8 ; 3.684875032263693E8 ; 3.546795454468206E10 ; 0.0
186 ; 1757341.0477375342 ; 2.0061697670575097E8 ; 3.702473714186491E8 ; 3.5668570223981804E10 ; 0.0
187 ; 1753472.5728501498 ; 2.0061826921601775E8 ; 3.720047124663866E8 ; 3.586918720068755E10 ; 0.0
188 ; 1751295.541403582 ; 2.0061955679211712E8 ; 3.737581850392368E8 ; 3.606980546990357E10 ; 0.0
189 ; 1747401.3185175946 ; 2.0062083939598852E8 ; 3.755094805806404E8 ; 3.627042502669569E10 ; 0.0
190 ; 1743650.0193173806 ; 2.0062211698993382E8 ; 3.7725688189915794E8 ; 3.6471045866091675E10 ; 0.0
191 ; 1740156.3390015636 ; 2.006233895366114E8 ; 3.7900053191847533E8 ; 3.667166798308161E10 ; 0.0
192 ; 1737837.1228728897 ; 2.0062465699903104E8 ; 3.8074068825747687E8 ; 3.6872291372618225E10 ; 0.0
193 ; 1734084.2799190213 ; 2.0062591934054834E8 ; 3.8247852538034976E8 ; 3.7072916029617256E10 ; 0.0
194 ; 1730910.595414595 ; 2.0062717652485973E8 ; 3.842126096602688E8 ; 3.72735419489578E10 ; 0.0
195 ; 1726509.5274692264 ; 2.0062842851599738E8 ; 3.8594352025568336E8 ; 3.747416912548266E10 ; 0.0
196 ; 1724149.3751762498 ; 2.0062967527832454E8 ; 3.876700297831526E8 ; 3.767479755399866E10 ; 0.0
197 ; 1719762.9548745377 ; 2.006309167765307E8 ; 3.8939417915832883E8 ; 3.7875427229276985E10 ; 0.0
198 ; 1717141.5989183807 ; 2.0063215297562712E8 ; 3.9111394211320335E8 ; 3.807605814605351E10 ; 0.0
199 ; 1714395.8584658133 ; 2.0063338384094244E8 ; 3.928310837121217E8 ; 3.827669029902914E10 ; 0.0
