CSV File for the City 6 on Day 51
1 - Minute m 
2 - Power Consumed at minute m 
3 - Power Produced at minute m 
4 - Energy Consumed since the beginning of the day 
5 - Energy Produced since the beginning of the day 
6 - Energy Lost since the beginning of the day on lines starting from the city
 
0 ; 1.1117971406723099E7 ; 1.0575472188872024E8 ; 0.0 ; 0.0 ; 0.0
1 ; 1.1131467366064092E7 ; 1.0590503941876554E8 ; 1.1117971406723099E7 ; 1.0575472188872024E8 ; 0.0
2 ; 1.113954378907954E7 ; 1.0636439632155612E8 ; 2.224943877278719E7 ; 2.116597613074858E8 ; 0.0
3 ; 1.115490986828508E7 ; 1.0713280025369412E8 ; 3.338898256186673E7 ; 3.180241576290419E8 ; 0.0
4 ; 1.1168809458205342E7 ; 1.0821025816982502E8 ; 4.454389243015181E7 ; 4.25156957882736E8 ; 0.0
5 ; 1.1190613675789949E7 ; 1.0959677625399768E8 ; 5.5712701888357155E7 ; 5.3336721605256104E8 ; 0.0
6 ; 1.1213447017895717E7 ; 1.1129235985640839E8 ; 6.69033155641471E7 ; 6.429639923065587E8 ; 0.0
7 ; 1.1252201860581363E7 ; 1.1329701343697119E8 ; 7.811676258204281E7 ; 7.542563521629671E8 ; 0.0
8 ; 1.1307962630392747E7 ; 1.1561074051706153E8 ; 8.936896444262418E7 ; 8.675533655999383E8 ; 0.0
9 ; 1.138641113963948E7 ; 1.18233543640629E8 ; 1.0067692707301693E8 ; 9.831641061169999E8 ; 0.0
10 ; 1.1509587051705832E7 ; 1.2116542434566957E8 ; 1.1206333821265641E8 ; 1.101397649757629E9 ; 0.0
11 ; 1.1707436389181044E7 ; 1.2440638314680186E8 ; 1.2357292526436225E8 ; 1.2225630741032984E9 ; 0.0
12 ; 1.2024745214284936E7 ; 1.2795641952940723E8 ; 1.352803616535433E8 ; 1.3469694572501004E9 ; 0.0
13 ; 1.2329992895388607E7 ; 1.318155319554897E8 ; 1.4730510686782822E8 ; 1.4749258767795076E9 ; 0.0
14 ; 1.2365784511374582E7 ; 1.3598371788109976E8 ; 1.5963509976321682E8 ; 1.6067414087349973E9 ; 0.0
15 ; 1.237966276635225E7 ; 1.4046097378486186E8 ; 1.7200088427459142E8 ; 1.742725126616097E9 ; 0.0
16 ; 1.2392089285812736E7 ; 1.4524729520686206E8 ; 1.8438054704094365E8 ; 1.8831861004009588E9 ; 0.0
17 ; 1.2405157259174038E7 ; 1.50342676796904E8 ; 1.967726363267564E8 ; 2.0284333956078207E9 ; 0.0
18 ; 1.2421429643093497E7 ; 1.5574711237093884E8 ; 2.0917779358593044E8 ; 2.1787760724047246E9 ; 0.0
19 ; 1.243729850000331E7 ; 1.614605949743211E8 ; 2.2159922322902393E8 ; 2.3345231847756634E9 ; 0.0
20 ; 1.245035001825742E7 ; 1.674831169504486E8 ; 2.3403652172902724E8 ; 2.4959837797499843E9 ; 0.0
21 ; 1.246129275740747E7 ; 1.7381467001330182E8 ; 2.4648687174728465E8 ; 2.663466896700433E9 ; 0.0
22 ; 1.2479497124955006E7 ; 1.8045524532241255E8 ; 2.589481645046921E8 ; 2.8372815667137346E9 ; 0.0
23 ; 1.249192557206334E7 ; 1.8740483355885106E8 ; 2.7142766162964714E8 ; 3.017736812036147E9 ; 0.0
24 ; 1.2507786746388867E7 ; 1.9466342500092006E8 ; 2.8391958720171046E8 ; 3.2051416455949984E9 ; 0.0
25 ; 1.25227571014908E7 ; 2.0091905049656132E8 ; 2.964273739480993E8 ; 3.3998050705959187E9 ; 0.0
26 ; 1.2534891000389785E7 ; 2.0092524757197562E8 ; 3.089501310495901E8 ; 3.60072412109248E9 ; 0.0
27 ; 1.254927644714869E7 ; 2.0093177502489367E8 ; 3.214850220499799E8 ; 3.801649368664456E9 ; 0.0
28 ; 1.2561449014413537E7 ; 2.0093862223567024E8 ; 3.340342984971286E8 ; 4.0025811436893497E9 ; 0.0
29 ; 1.257684678041615E7 ; 2.0094577852028584E8 ; 3.4659574751154214E8 ; 4.2035197659250197E9 ; 0.0
30 ; 1.2590203789478928E7 ; 2.0095323318517858E8 ; 3.591725942919583E8 ; 4.404465544445306E9 ; 0.0
31 ; 1.2602189489600796E7 ; 2.009609755769387E8 ; 3.7176279808143723E8 ; 4.605418777630485E9 ; 0.0
32 ; 1.261503530384E7 ; 2.0096899512678382E8 ; 3.84364987571038E8 ; 4.806379753207423E9 ; 0.0
33 ; 1.2629510399541149E7 ; 2.009772813898464E8 ; 3.96980022874878E8 ; 5.007348748334207E9 ; 0.0
34 ; 1.2641879681692E7 ; 2.0098582407939836E8 ; 4.096095332744191E8 ; 5.208326029724053E9 ; 0.0
35 ; 1.2654478614924625E7 ; 2.0099461309621337E8 ; 4.2225141295611113E8 ; 5.409311853803452E9 ; 0.0
36 ; 1.266368781150516E7 ; 2.0100363855332607E8 ; 4.3490589157103574E8 ; 5.610306466899665E9 ; 0.0
37 ; 1.2672649299295E7 ; 2.010128907964888E8 ; 4.475695793825409E8 ; 5.811310105452991E9 ; 0.0
38 ; 1.2679418907164838E7 ; 2.010223604206542E8 ; 4.602422286818359E8 ; 6.012322996249479E9 ; 0.0
39 ; 1.2695825865849331E7 ; 2.0103203828282773E8 ; 4.729216475890007E8 ; 6.213345356670134E9 ; 0.0
40 ; 1.2706032071694784E7 ; 2.010419155116385E8 ; 4.8561747345485E8 ; 6.414377394952961E9 ; 0.0
41 ; 1.2715396470665503E7 ; 2.0105198351397416E8 ; 4.983235055265448E8 ; 6.6154193104646E9 ; 0.0
42 ; 1.2724120385071455E7 ; 2.0106223397901458E8 ; 5.110389019972103E8 ; 6.816471293978574E9 ; 0.0
43 ; 1.2727210497762721E7 ; 2.0107265887998453E8 ; 5.237630223822818E8 ; 7.017533527957588E9 ; 0.0
44 ; 1.2734447694141377E7 ; 2.010832504739267E8 ; 5.364902328800445E8 ; 7.218606186837573E9 ; 0.0
45 ; 1.274212370675204E7 ; 2.0109400129977503E8 ; 5.492246805741858E8 ; 7.4196894373115E9 ; 0.0
46 ; 1.2752558626269378E7 ; 2.0110490417498624E8 ; 5.619668042809379E8 ; 7.620783438611275E9 ; 0.0
47 ; 1.2755763325480832E7 ; 2.0111595219096386E8 ; 5.747193629072073E8 ; 7.821888342786261E9 ; 0.0
48 ; 1.2761171568799473E7 ; 2.011271387074873E8 ; 5.874751262326881E8 ; 8.023004294977224E9 ; 0.0
49 ; 1.2765145686924186E7 ; 2.0113845734633416E8 ; 6.002362978014876E8 ; 8.224131433684711E9 ; 0.0
50 ; 1.2771323191762444E7 ; 2.011499019842656E8 ; 6.130014434884118E8 ; 8.425269891031046E9 ; 0.0
51 ; 1.2771812966286907E7 ; 2.0116146674552122E8 ; 6.257727666801742E8 ; 8.626419793015312E9 ; 0.0
52 ; 1.277720366781568E7 ; 2.0117314599395403E8 ; 6.385445796464611E8 ; 8.827581259760834E9 ; 0.0
53 ; 1.277999460585161E7 ; 2.0118493432491708E8 ; 6.513217833142768E8 ; 9.028754405754787E9 ; 0.0
54 ; 1.2781728032764979E7 ; 2.011968265569987E8 ; 6.641017779201285E8 ; 9.229939340079704E9 ; 0.0
55 ; 1.278439001758256E7 ; 2.0120881772368827E8 ; 6.768835059528935E8 ; 9.431136166636703E9 ; 0.0
56 ; 1.2787563511703942E7 ; 2.0122090306504264E8 ; 6.89667895970476E8 ; 9.632344984360392E9 ; 0.0
57 ; 1.2792543510073025E7 ; 2.0123307801941088E8 ; 7.0245545948218E8 ; 9.833565887425434E9 ; 0.0
58 ; 1.2791674672010345E7 ; 2.0124533821526626E8 ; 7.152480029922531E8 ; 1.0034798965444845E10 ; 0.0
59 ; 1.2798344857198551E7 ; 2.012576794631846E8 ; 7.280396776642634E8 ; 1.0236044303660112E10 ; 0.0
60 ; 1.279824252695485E7 ; 2.012700977480004E8 ; 7.40838022521462E8 ; 1.0437301983123297E10 ; 0.0
61 ; 1.280300506538179E7 ; 2.0128258922116667E8 ; 7.536362650484169E8 ; 1.0638572080871298E10 ; 0.0
62 ; 1.2806455771313302E7 ; 2.0129515019333634E8 ; 7.664392701137986E8 ; 1.0839854670092464E10 ; 0.0
63 ; 1.2803868233740222E7 ; 2.0130777712718102E8 ; 7.792457258851119E8 ; 1.10411498202858E10 ; 0.0
64 ; 1.2807307075072303E7 ; 2.0132046663045582E8 ; 7.920495941188521E8 ; 1.1242457597412981E10 ; 0.0
65 ; 1.2811354803012934E7 ; 2.013332154493174E8 ; 8.048569011939244E8 ; 1.1443778064043436E10 ; 0.0
66 ; 1.2812978715771355E7 ; 2.0134602046189824E8 ; 8.176682559969374E8 ; 1.1645111279492754E10 ; 0.0
67 ; 1.281364683102713E7 ; 2.0135887867213827E8 ; 8.304812347127087E8 ; 1.1846457299954653E10 ; 0.0
68 ; 1.2817800496153802E7 ; 2.013717872038722E8 ; 8.432948815437359E8 ; 1.2047816178626791E10 ; 0.0
69 ; 1.281180033185902E7 ; 2.0138474329516986E8 ; 8.561126820398897E8 ; 1.2249187965830664E10 ; 0.0
70 ; 1.2818948724604825E7 ; 2.0139774429292518E8 ; 8.689244823717487E8 ; 1.2450572709125834E10 ; 0.0
71 ; 1.2815284169218807E7 ; 2.014107876476881E8 ; 8.817434310963535E8 ; 1.2651970453418758E10 ; 0.0
72 ; 1.2818669002812434E7 ; 2.014238709087332E8 ; 8.945587152655723E8 ; 1.2853381241066446E10 ; 0.0
73 ; 1.2817337239198847E7 ; 2.014369917193581E8 ; 9.073773842683847E8 ; 1.305480511197518E10 ; 0.0
74 ; 1.2816572885691907E7 ; 2.0145014781240395E8 ; 9.201947215075835E8 ; 1.3256242103694538E10 ; 0.0
75 ; 1.2821446632182168E7 ; 2.0146333700599036E8 ; 9.330112943932754E8 ; 1.3457692251506943E10 ; 0.0
76 ; 1.2822844521133976E7 ; 2.014765571994565E8 ; 9.458327410254575E8 ; 1.3659155588512934E10 ; 0.0
77 ; 1.2822428315637413E7 ; 2.0148980636950046E8 ; 9.586555855465915E8 ; 1.386063214571239E10 ; 0.0
78 ; 1.2816478570091205E7 ; 2.015030825665083E8 ; 9.71478013862229E8 ; 1.4062121952081892E10 ; 0.0
79 ; 1.2814613324538853E7 ; 2.0151638391106525E8 ; 9.842944924323202E8 ; 1.42636250346484E10 ; 0.0
80 ; 1.280958624757269E7 ; 2.015297085906403E8 ; 9.971091057568591E8 ; 1.4465141418559465E10 ; 0.0
81 ; 1.2808700070807865E7 ; 2.0154305485643682E8 ; 1.0099186920044317E9 ; 1.4666671127150106E10 ; 0.0
82 ; 1.2803519527920607E7 ; 2.0155642102040127E8 ; 1.0227273920752395E9 ; 1.4868214182006544E10 ; 0.0
83 ; 1.2799571427121747E7 ; 2.0156980545238245E8 ; 1.0355309116031601E9 ; 1.5069770603026945E10 ; 0.0
84 ; 1.2794543800580196E7 ; 2.0158320657743418E8 ; 1.0483304830302819E9 ; 1.5271340408479328E10 ; 0.0
85 ; 1.2790054061465919E7 ; 2.0159662287325442E8 ; 1.061125026830862E9 ; 1.5472923615056763E10 ; 0.0
86 ; 1.2785777595689546E7 ; 2.0161005286775365E8 ; 1.073915080892328E9 ; 1.5674520237930017E10 ; 0.0
87 ; 1.2781845267852064E7 ; 2.0162349513674667E8 ; 1.0867008584880176E9 ; 1.5876130290797771E10 ; 0.0
88 ; 1.2776962729150493E7 ; 2.0163694830176094E8 ; 1.0994827037558696E9 ; 1.6077753785934519E10 ; 0.0
89 ; 1.277112443481947E7 ; 2.0165041102795598E8 ; 1.1122596664850202E9 ; 1.627939073423628E10 ; 0.0
90 ; 1.2763903750093741E7 ; 2.0166388202214795E8 ; 1.1250307909198396E9 ; 1.6481041145264236E10 ; 0.0
91 ; 1.2759519146867782E7 ; 2.016773600309337E8 ; 1.1377946946699333E9 ; 1.6682705027286385E10 ; 0.0
92 ; 1.2756617657149334E7 ; 2.016908438389098E8 ; 1.150554213816801E9 ; 1.6884382387317318E10 ; 0.0
93 ; 1.2756144238309992E7 ; 2.0170433226698077E8 ; 1.1633108314739504E9 ; 1.7086073231156227E10 ; 0.0
94 ; 1.2745597501429502E7 ; 2.017178241707524E8 ; 1.1760669757122605E9 ; 1.7287777563423206E10 ; 0.0
95 ; 1.2741333241385581E7 ; 2.0173131843900573E8 ; 1.18881257321369E9 ; 1.748949538759396E10 ; 0.0
96 ; 1.2737538543719104E7 ; 2.0174481399224687E8 ; 1.2015539064550757E9 ; 1.7691226706032967E10 ; 0.0
97 ; 1.273117006827258E7 ; 2.0175830978132942E8 ; 1.2142914449987948E9 ; 1.7892971520025215E10 ; 0.0
98 ; 1.2726610795480648E7 ; 2.01771804786145E8 ; 1.2270226150670674E9 ; 1.8094729829806545E10 ; 0.0
99 ; 1.2716947855345318E7 ; 2.0178529801437876E8 ; 1.239749225862548E9 ; 1.829650163459269E10 ; 0.0
100 ; 1.2712385532884855E7 ; 2.0179878850032634E8 ; 1.2524661737178934E9 ; 1.8498286932607067E10 ; 0.0
101 ; 1.2705525338078005E7 ; 2.0181227530376872E8 ; 1.2651785592507782E9 ; 1.8700085721107395E10 ; 0.0
102 ; 1.2696368035508214E7 ; 2.0182575750890246E8 ; 1.2778840845888562E9 ; 1.8901897996411163E10 ; 0.0
103 ; 1.2692124363265703E7 ; 2.0183923422332188E8 ; 1.2905804526243644E9 ; 1.9103723753920067E10 ; 0.0
104 ; 1.2684032651791673E7 ; 2.018527045770509E8 ; 1.3032725769876301E9 ; 1.9305562988143387E10 ; 0.0
105 ; 1.267638864098725E7 ; 2.0186616772162157E8 ; 1.3159566096394217E9 ; 1.9507415692720436E10 ; 0.0
106 ; 1.2670396357098438E7 ; 2.0187962282919717E8 ; 1.3286329982804089E9 ; 1.970928186044206E10 ; 0.0
107 ; 1.2662303382188376E7 ; 2.0189306909173715E8 ; 1.3413033946375072E9 ; 1.9911161483271255E10 ; 0.0
108 ; 1.2658944604088161E7 ; 2.0190650572020227E8 ; 1.3539656980196955E9 ; 2.011305455236299E10 ; 0.0
109 ; 1.2652869742651384E7 ; 2.0191993194379738E8 ; 1.3666246426237836E9 ; 2.0314961058083195E10 ; 0.0
110 ; 1.2641665519524496E7 ; 2.0193334700924996E8 ; 1.379277512366435E9 ; 2.0516880990026993E10 ; 0.0
111 ; 1.2633123571086299E7 ; 2.019467501801229E8 ; 1.3919191778859596E9 ; 2.0718814337036243E10 ; 0.0
112 ; 1.2629699703256734E7 ; 2.0196014073615953E8 ; 1.404552301457046E9 ; 2.0920761087216366E10 ; 0.0
113 ; 1.2621558602341102E7 ; 2.0197351797265884E8 ; 1.4171820011603029E9 ; 2.1122721227952526E10 ; 0.0
114 ; 1.2609506656037362E7 ; 2.019868811998804E8 ; 1.429803559762644E9 ; 2.1324694745925186E10 ; 0.0
115 ; 1.2602298101070989E7 ; 2.020002297424762E8 ; 1.4424130664186814E9 ; 2.1526681627125065E10 ; 0.0
116 ; 1.2593536760061882E7 ; 2.0201356293894908E8 ; 1.4550153645197523E9 ; 2.1728681856867542E10 ; 0.0
117 ; 1.2587380654161232E7 ; 2.020268801411358E8 ; 1.4676089012798142E9 ; 2.193069541980649E10 ; 0.0
118 ; 1.2580105815626742E7 ; 2.020401807137137E8 ; 1.4801962819339755E9 ; 2.2132722299947628E10 ; 0.0
119 ; 1.2570399001627434E7 ; 2.020534640337298E8 ; 1.4927763877496023E9 ; 2.2334762480661343E10 ; 0.0
120 ; 1.2562064742435968E7 ; 2.0206672949015114E8 ; 1.5053467867512298E9 ; 2.2536815944695072E10 ; 0.0
121 ; 1.2553641668061895E7 ; 2.0207997648343536E8 ; 1.5179088514936657E9 ; 2.2738882674185223E10 ; 0.0
122 ; 1.2546981280921228E7 ; 2.0209320442512053E8 ; 1.5304624931617277E9 ; 2.294096265066866E10 ; 0.0
123 ; 1.2533425083672618E7 ; 2.0210641273743314E8 ; 1.543009474442649E9 ; 2.314305585509378E10 ; 0.0
124 ; 1.252550891113594E7 ; 2.021196008529135E8 ; 1.5555428995263214E9 ; 2.3345162267831215E10 ; 0.0
125 ; 1.2516245801087484E7 ; 2.0213276821405777E8 ; 1.5680684084374573E9 ; 2.3547281868684128E10 ; 0.0
126 ; 1.2507680783056978E7 ; 2.021459142729756E8 ; 1.5805846542385447E9 ; 2.3749414636898186E10 ; 0.0
127 ; 1.2496289922284583E7 ; 2.0215903849106255E8 ; 1.5930923350216017E9 ; 2.395156055117116E10 ; 0.0
128 ; 1.248789875870174E7 ; 2.021721403386872E8 ; 1.6055886249438863E9 ; 2.4153719589662224E10 ; 0.0
129 ; 1.247729510114509E7 ; 2.021852192948913E8 ; 1.618076523702588E9 ; 2.435589173000091E10 ; 0.0
130 ; 1.2466450077539444E7 ; 2.0219827484710312E8 ; 1.630553818803733E9 ; 2.4558076949295803E10 ; 0.0
131 ; 1.245460274814719E7 ; 2.02211306490863E8 ; 1.6430202688812726E9 ; 2.4760275224142906E10 ; 0.0
132 ; 1.2438557728862565E7 ; 2.0222431372956055E8 ; 1.6554748716294198E9 ; 2.496248653063377E10 ; 0.0
133 ; 1.2425411030049007E7 ; 2.0223729607418314E8 ; 1.6679134293582823E9 ; 2.516471084436333E10 ; 0.0
134 ; 1.241283865958146E7 ; 2.022502530430748E8 ; 1.6803388403883314E9 ; 2.5366948140437515E10 ; 0.0
135 ; 1.2396344383827556E7 ; 2.0226318416170546E8 ; 1.6927516790479128E9 ; 2.556919839348059E10 ; 0.0
136 ; 1.2383003943827735E7 ; 2.0227608896244967E8 ; 1.7051480234317403E9 ; 2.5771461577642296E10 ; 0.0
137 ; 1.236970466557875E7 ; 2.0228896698437467E8 ; 1.717531027375568E9 ; 2.5973737666604744E10 ; 0.0
138 ; 1.2355122670537954E7 ; 2.0230181777303717E8 ; 1.7299007320411468E9 ; 2.617602663358912E10 ; 0.0
139 ; 1.2334025375966873E7 ; 2.0231464088028848E8 ; 1.7422558547116847E9 ; 2.6378328451362156E10 ; 0.0
140 ; 1.2325181661321722E7 ; 2.023274358640878E8 ; 1.7545898800876515E9 ; 2.6580643092242443E10 ; 0.0
141 ; 1.230558133751198E7 ; 2.023402022883228E8 ; 1.7669150617489731E9 ; 2.678297052810653E10 ; 0.0
142 ; 1.2290887517894464E7 ; 2.0235293972263798E8 ; 1.7792206430864851E9 ; 2.698531073039485E10 ; 0.0
143 ; 1.2278490976017227E7 ; 2.023656477422696E8 ; 1.7915115306043797E9 ; 2.718766367011749E10 ; 0.0
144 ; 1.2264777493062124E7 ; 2.023783259278874E8 ; 1.803790021580397E9 ; 2.739002931785976E10 ; 0.0
145 ; 1.2250896249520343E7 ; 2.0239097386544266E8 ; 1.816054799073459E9 ; 2.7592407643787647E10 ; 0.0
146 ; 1.2244676339905996E7 ; 2.0240359114602232E8 ; 1.8283056953229792E9 ; 2.779479861765309E10 ; 0.0
147 ; 1.223102006699564E7 ; 2.0241617736570904E8 ; 1.8405503716628852E9 ; 2.7997202208799114E10 ; 0.0
148 ; 1.2221679962113405E7 ; 2.0242873212544656E8 ; 1.8527813917298808E9 ; 2.819961838616482E10 ; 0.0
149 ; 1.22089358797798E7 ; 2.0244125503091055E8 ; 1.8650030716919942E9 ; 2.8402047118290268E10 ; 0.0
150 ; 1.2200661127314463E7 ; 2.024537456923845E8 ; 1.877212007571774E9 ; 2.860448837332118E10 ; 0.0
151 ; 1.218934620307568E7 ; 2.024662037246405E8 ; 1.8894126686990886E9 ; 2.880694211901356E10 ; 0.0
152 ; 1.2176381103636255E7 ; 2.0247862874682444E8 ; 1.9016020149021642E9 ; 2.90094083227382E10 ; 0.0
153 ; 1.2170338057497114E7 ; 2.0249102038234612E8 ; 1.9137783960058005E9 ; 2.9211886951485027E10 ; 0.0
154 ; 1.2153437647756523E7 ; 2.0250337825877306E8 ; 1.9259487340632975E9 ; 2.9414377971867374E10 ; 0.0
155 ; 1.2143909393236814E7 ; 2.0251570200772887E8 ; 1.938102171711054E9 ; 2.961688135012615E10 ; 0.0
156 ; 1.2133804094363287E7 ; 2.0252799126479527E8 ; 1.950246081104291E9 ; 2.9819397052133877E10 ; 0.0
157 ; 1.2123565315338045E7 ; 2.0254024566941777E8 ; 1.9623798851986542E9 ; 3.002192504339867E10 ; 0.0
158 ; 1.2112173385019347E7 ; 2.0255246486481532E8 ; 1.9745034505139923E9 ; 3.022446528906809E10 ; 0.0
159 ; 1.210053492266674E7 ; 2.025646484978929E8 ; 1.9866156238990116E9 ; 3.0427017753932903E10 ; 0.0
160 ; 1.2089328930949962E7 ; 2.0257679621915781E8 ; 1.9987161588216784E9 ; 3.0629582402430798E10 ; 0.0
161 ; 1.2078858168306146E7 ; 2.025889076826389E8 ; 2.0108054877526283E9 ; 3.0832159198649956E10 ; 0.0
162 ; 1.206568737258658E7 ; 2.0260098254580888E8 ; 2.0228843459209344E9 ; 3.1034748106332596E10 ; 0.0
163 ; 1.2051738635796104E7 ; 2.0261302046950948E8 ; 2.034950033293521E9 ; 3.1237349088878407E10 ; 0.0
164 ; 1.2042630794861706E7 ; 2.026250211178796E8 ; 2.047001771929317E9 ; 3.1439962109347916E10 ; 0.0
165 ; 1.202980822255974E7 ; 2.0263698415828577E8 ; 2.0590444027241788E9 ; 3.1642587130465794E10 ; 0.0
166 ; 1.2020096434897956E7 ; 2.0264890926125565E8 ; 2.0710742109467385E9 ; 3.184522411462408E10 ; 0.0
167 ; 1.2004929664878625E7 ; 2.0266079610041347E8 ; 2.0830943073816364E9 ; 3.2047873023885338E10 ; 0.0
168 ; 1.1995573008007409E7 ; 2.0267264435241827E8 ; 2.095099237046515E9 ; 3.2250533819985752E10 ; 0.0
169 ; 1.1981250012045175E7 ; 2.0268445369690418E8 ; 2.1070948100545225E9 ; 3.245320646433817E10 ; 0.0
170 ; 1.1970652518107614E7 ; 2.0269622381642288E8 ; 2.1190760600665677E9 ; 3.2655890918035072E10 ; 0.0
171 ; 1.1958080917924574E7 ; 2.0270795439638832E8 ; 2.1310467125846753E9 ; 3.2858587141851494E10 ; 0.0
172 ; 1.1944383961068837E7 ; 2.0271964512502322E8 ; 2.1430047935026E9 ; 3.3061295096247883E10 ; 0.0
173 ; 1.1933929987646814E7 ; 2.0273129569330767E8 ; 2.154949177463669E9 ; 3.3264014741372906E10 ; 0.0
174 ; 1.1928430157218866E7 ; 2.027429057949296E8 ; 2.1668831074513154E9 ; 3.346674603706621E10 ; 0.0
175 ; 1.1918348945055226E7 ; 2.0275447512623686E8 ; 2.1788115376085343E9 ; 3.366948894286114E10 ; 0.0
176 ; 1.1915986162070056E7 ; 2.0276600338619122E8 ; 2.1907298865535893E9 ; 3.3872243417987377E10 ; 0.0
177 ; 1.1907430304396147E7 ; 2.027774902763239E8 ; 2.2026458727156596E9 ; 3.407500942137357E10 ; 0.0
178 ; 1.189890584482313E7 ; 2.0278893550069275E8 ; 2.214553303020056E9 ; 3.4277786911649895E10 ; 0.0
179 ; 1.1890975000527091E7 ; 2.0280033876584083E8 ; 2.226452208864879E9 ; 3.448057584715059E10 ; 0.0
180 ; 1.1885525629760731E7 ; 2.0281169978075665E8 ; 2.238343183865406E9 ; 3.468337618591643E10 ; 0.0
181 ; 1.1878889624678565E7 ; 2.0282301825683576E8 ; 2.250228709495167E9 ; 3.488618788569718E10 ; 0.0
182 ; 1.187259547678644E7 ; 2.028342939078436E8 ; 2.2621075991198454E9 ; 3.508901090395402E10 ; 0.0
183 ; 1.1865120138164643E7 ; 2.0284552644987977E8 ; 2.273980194596632E9 ; 3.529184519786186E10 ; 0.0
184 ; 1.1858756453591323E7 ; 2.0285671560134342E8 ; 2.2858453147347965E9 ; 3.5494690724311745E10 ; 0.0
185 ; 1.1848398531971337E7 ; 2.0286786108290023E8 ; 2.297704071188388E9 ; 3.5697547439913086E10 ; 0.0
186 ; 1.1840531790552912E7 ; 2.0287896261744994E8 ; 2.3095524697203593E9 ; 3.590041530099599E10 ; 0.0
187 ; 1.1835761244175093E7 ; 2.028900199300956E8 ; 2.3213930015109124E9 ; 3.6103294263613434E10 ; 0.0
188 ; 1.1825429218455238E7 ; 2.029010327481136E8 ; 2.3332287627550874E9 ; 3.6306184283543526E10 ; 0.0
189 ; 1.1821531935222656E7 ; 2.0291200080092475E8 ; 2.3450541919735427E9 ; 3.650908531629164E10 ; 0.0
190 ; 1.1810551183589365E7 ; 2.0292292382006645E8 ; 2.3568757239087653E9 ; 3.671199731709257E10 ; 0.0
191 ; 1.1806024588473178E7 ; 2.0293380153916588E8 ; 2.368686275092355E9 ; 3.6914920240912636E10 ; 0.0
192 ; 1.1797869224679638E7 ; 2.0294463369391388E8 ; 2.380492299680828E9 ; 3.7117854042451805E10 ; 0.0
193 ; 1.178937421737618E7 ; 2.0295542002204013E8 ; 2.3922901689055076E9 ; 3.732079867614572E10 ; 0.0
194 ; 1.1783403279877352E7 ; 2.029661602632887E8 ; 2.404079543122884E9 ; 3.752375409616776E10 ; 0.0
195 ; 1.1779810893437924E7 ; 2.0297685415939504E8 ; 2.415862946402761E9 ; 3.772672025643105E10 ; 0.0
