CSV File for the City 6 on Day 267
1 - Minute m 
2 - Power Consumed at minute m 
3 - Power Produced at minute m 
4 - Energy Consumed since the beginning of the day 
5 - Energy Produced since the beginning of the day 
6 - Energy Lost since the beginning of the day on lines starting from the city
 
0 ; 4569678.898513075 ; 1.0614413201765832E8 ; 0.0 ; 0.0 ; 0.0
1 ; 4575379.247942964 ; 1.062950397232129E8 ; 4569678.898513075 ; 1.0614413201765832E8 ; 0.0
2 ; 4584471.937894718 ; 1.0675493788039169E8 ; 9145058.146456039 ; 2.1243917174087122E8 ; 0.0
3 ; 4596567.994436536 ; 1.0752383001453471E8 ; 1.3729530084350757E7 ; 3.191941096212629E8 ; 0.0
4 ; 4608456.82811749 ; 1.0860171928258675E8 ; 1.8326098078787293E7 ; 4.267179396357976E8 ; 0.0
5 ; 4625835.3055493105 ; 1.0998860845641524E8 ; 2.2934554906904783E7 ; 5.353196589183844E8 ; 0.0
6 ; 4646794.912306848 ; 1.116844999078969E8 ; 2.7560390212454095E7 ; 6.453082673747996E8 ; 0.0
7 ; 4682678.387175568 ; 1.136893955959577E8 ; 3.2207185124760944E7 ; 7.569927672826965E8 ; 0.0
8 ; 4732217.724081682 ; 1.160032970557304E8 ; 3.6889863511936516E7 ; 8.706821628786542E8 ; 0.0
9 ; 4808849.470965673 ; 1.1862620538996983E8 ; 4.1622081236018196E7 ; 9.866854599343846E8 ; 0.0
10 ; 4929750.075872265 ; 1.2155812126283813E8 ; 4.643093070698387E7 ; 1.1053116653243544E9 ; 0.0
11 ; 5120716.862458828 ; 1.2479904489614269E8 ; 5.136068078285614E7 ; 1.2268697865871925E9 ; 0.0
12 ; 5436938.882712686 ; 1.283489760680761E8 ; 5.648139764531496E7 ; 1.3516688314833353E9 ; 0.0
13 ; 5738595.1312919725 ; 1.322079141144762E8 ; 6.1918336528027646E7 ; 1.4800178075514114E9 ; 0.0
14 ; 5768822.153158806 ; 1.3637585793258828E8 ; 6.765693165931962E7 ; 1.6122257216658876E9 ; 0.0
15 ; 5778560.588914817 ; 1.4085280598727942E8 ; 7.342575381247842E7 ; 1.748601579598476E9 ; 0.0
16 ; 5792217.660357428 ; 1.456387563196238E8 ; 7.920431440139323E7 ; 1.8894543855857553E9 ; 0.0
17 ; 5799945.112220818 ; 1.507337065577446E8 ; 8.499653206175067E7 ; 2.035093141905379E9 ; 0.0
18 ; 5814047.479389753 ; 1.561376539297744E8 ; 9.079647717397149E7 ; 2.185826848463124E9 ; 0.0
19 ; 5826608.090411802 ; 1.6185059527876845E8 ; 9.661052465336125E7 ; 2.341964502392898E9 ; 0.0
20 ; 5840967.867369648 ; 1.6787252707938668E8 ; 1.0243713274377304E8 ; 2.5038150976716666E9 ; 0.0
21 ; 5849397.371014687 ; 1.7420344545614234E8 ; 1.082781006111427E8 ; 2.6716876247510533E9 ; 0.0
22 ; 5861648.664251241 ; 1.8084334620300382E8 ; 1.1412749798215738E8 ; 2.8458910702071958E9 ; 0.0
23 ; 5873966.964543737 ; 1.8779222480412763E8 ; 1.1998914664640862E8 ; 3.0267344164101996E9 ; 0.0
24 ; 5883820.172349059 ; 1.9505007645549613E8 ; 1.2586311361095235E8 ; 3.2145266412143273E9 ; 0.0
25 ; 5894041.863517228 ; 2.013049369854191E8 ; 1.3174693378330141E8 ; 3.4095767176698236E9 ; 0.0
26 ; 5906084.332865148 ; 2.0131034891420528E8 ; 1.3764097564681864E8 ; 3.610881654655243E9 ; 0.0
27 ; 5919189.10934361 ; 2.013160760020861E8 ; 1.435470599796838E8 ; 3.812192003569448E9 ; 0.0
28 ; 5930767.173890673 ; 2.0132211251904905E8 ; 1.494662490890274E8 ; 4.013508079571534E9 ; 0.0
29 ; 5942290.044516792 ; 2.013284525609948E8 ; 1.5539701626291808E8 ; 4.2148301920905833E9 ; 0.0
30 ; 5950822.129379847 ; 2.0133509007232407E8 ; 1.613393063074349E8 ; 4.416158644651578E9 ; 0.0
31 ; 5959829.357522561 ; 2.0134201886804157E8 ; 1.6729012843681473E8 ; 4.617493734723902E9 ; 0.0
32 ; 5969670.792893402 ; 2.0134923265523574E8 ; 1.7324995779433727E8 ; 4.818835753591944E9 ; 0.0
33 ; 5981172.080988486 ; 2.0135672505381185E8 ; 1.7921962858723068E8 ; 5.020184986247179E9 ; 0.0
34 ; 5995919.235856173 ; 2.0136448961637458E8 ; 1.8520080066821918E8 ; 5.221541711300991E9 ; 0.0
35 ; 6002694.039421471 ; 2.0137251984717423E8 ; 1.9119671990407535E8 ; 5.422906200917366E9 ; 0.0
36 ; 6011579.540033593 ; 2.013808092200483E8 ; 1.9719941394349682E8 ; 5.624278720764541E9 ; 0.0
37 ; 6019080.473541179 ; 2.0138935119530773E8 ; 2.032109934835304E8 ; 5.825659529984589E9 ; 0.0
38 ; 6024973.348899091 ; 2.0139813923553175E8 ; 2.0923007395707157E8 ; 6.027048881179896E9 ; 0.0
39 ; 6033161.251455075 ; 2.0140716682025152E8 ; 2.1525504730597067E8 ; 6.228447020415428E9 ; 0.0
40 ; 6040546.28060894 ; 2.0141642745951417E8 ; 2.2128820855742574E8 ; 6.42985418723568E9 ; 0.0
41 ; 6046052.470959326 ; 2.0142591470633218E8 ; 2.273287548380347E8 ; 6.631270614695194E9 ; 0.0
42 ; 6057595.050764413 ; 2.0143562216803312E8 ; 2.3337480730899402E8 ; 6.832696529401526E9 ; 0.0
43 ; 6059762.585439093 ; 2.0144554351653323E8 ; 2.3943240235975844E8 ; 7.034132151569559E9 ; 0.0
44 ; 6062567.292988288 ; 2.014556724975665E8 ; 2.4549216494519752E8 ; 7.235577695086092E9 ; 0.0
45 ; 6072411.860683733 ; 2.0146600293890727E8 ; 2.5155473223818582E8 ; 7.437033367583658E9 ; 0.0
46 ; 6075986.820146467 ; 2.014765287576292E8 ; 2.5762714409886956E8 ; 7.638499370522566E9 ; 0.0
47 ; 6077128.868765946 ; 2.0148724396644711E8 ; 2.6370313091901603E8 ; 7.839975899280195E9 ; 0.0
48 ; 6081265.512801396 ; 2.0149814267919165E8 ; 2.6978025978778195E8 ; 8.041463143246642E9 ; 0.0
49 ; 6083740.4152631555 ; 2.0150921911546823E8 ; 2.7586152530058336E8 ; 8.242961285925834E9 ; 0.0
50 ; 6087747.045895742 ; 2.0152046760455266E8 ; 2.8194526571584654E8 ; 8.444470505041302E9 ; 0.0
51 ; 6087473.702885268 ; 2.015318825885766E8 ; 2.880330127617423E8 ; 8.645990972645855E9 ; 0.0
52 ; 6089560.87495223 ; 2.015434586250554E8 ; 2.9412048646462756E8 ; 8.847522855234432E9 ; 0.0
53 ; 6093411.514907514 ; 2.015551903888096E8 ; 3.002100473395798E8 ; 9.049066313859488E9 ; 0.0
54 ; 6092455.236916042 ; 2.0156707267333138E8 ; 3.0630345885448736E8 ; 9.250621504248297E9 ; 0.0
55 ; 6090940.459827264 ; 2.0157910039164394E8 ; 3.123959140914034E8 ; 9.452188576921629E9 ; 0.0
56 ; 6094130.6421625065 ; 2.0159126857670116E8 ; 3.1848685455123067E8 ; 9.653767677313272E9 ; 0.0
57 ; 6093830.142020293 ; 2.01603572381372E8 ; 3.245809851933932E8 ; 9.855358945889973E9 ; 0.0
58 ; 6094372.9446976185 ; 2.0161600707805225E8 ; 3.3067481533541346E8 ; 1.0056962518271345E10 ; 0.0
59 ; 6096876.143721928 ; 2.0162856805794337E8 ; 3.367691882801111E8 ; 1.0258578525349398E10 ; 0.0
60 ; 6094530.3796202885 ; 2.0164125083003643E8 ; 3.42866064423833E8 ; 1.0460207093407341E10 ; 0.0
61 ; 6098700.175674894 ; 2.016540510198356E8 ; 3.489605948034533E8 ; 1.0661848344237377E10 ; 0.0
62 ; 6097757.243604949 ; 2.0166696436785436E8 ; 3.5505929497912824E8 ; 1.0863502395257214E10 ; 0.0
63 ; 6099443.772570563 ; 2.0167998672791442E8 ; 3.611570522227332E8 ; 1.1065169359625069E10 ; 0.0
64 ; 6101095.4902377 ; 2.0169311406527504E8 ; 3.6725649599530375E8 ; 1.1266849346352983E10 ; 0.0
65 ; 6102183.153393363 ; 2.0170634245461875E8 ; 3.7335759148554146E8 ; 1.1468542460418259E10 ; 0.0
66 ; 6103418.293887519 ; 2.017196680779163E8 ; 3.7945977463893485E8 ; 1.1670248802872877E10 ; 0.0
67 ; 6102735.369197521 ; 2.0173308722219282E8 ; 3.8556319293282235E8 ; 1.1871968470950794E10 ; 0.0
68 ; 6101492.575165232 ; 2.0174659627721396E8 ; 3.916659283020199E8 ; 1.2073701558172987E10 ; 0.0
69 ; 6100857.575481072 ; 2.0176019173310992E8 ; 3.977674208771851E8 ; 1.2275448154450201E10 ; 0.0
70 ; 6100497.503525982 ; 2.0177387017795295E8 ; 4.0386827845266616E8 ; 1.2477208346183311E10 ; 0.0
71 ; 6103193.014327687 ; 2.017876282953025E8 ; 4.0996877595619214E8 ; 1.2678982216361265E10 ; 0.0
72 ; 6100742.602727488 ; 2.0180146286173084E8 ; 4.1607196897051984E8 ; 1.2880769844656569E10 ; 0.0
73 ; 6095945.578685009 ; 2.0181537074434003E8 ; 4.221727115732473E8 ; 1.30825713075183E10 ; 0.0
74 ; 6099397.617391329 ; 2.018293488982807E8 ; 4.282686571519323E8 ; 1.328438667826264E10 ; 0.0
75 ; 6099087.1289206175 ; 2.0184339436428085E8 ; 4.3436805476932365E8 ; 1.3486216027160921E10 ; 0.0
76 ; 6099021.162029458 ; 2.0185750426619282E8 ; 4.4046714189824426E8 ; 1.3688059421525202E10 ; 0.0
77 ; 6098311.701932016 ; 2.0187167580856493E8 ; 4.465661630602737E8 ; 1.3889916925791395E10 ; 0.0
78 ; 6094654.254397623 ; 2.0188590627424365E8 ; 4.526644747622057E8 ; 1.409178860159996E10 ; 0.0
79 ; 6088407.812451091 ; 2.0190019302201092E8 ; 4.5875912901660335E8 ; 1.4293674507874205E10 ; 0.0
80 ; 6082929.442281805 ; 2.019145334842615E8 ; 4.648475368290544E8 ; 1.4495574700896215E10 ; 0.0
81 ; 6080360.725712611 ; 2.019289251647233E8 ; 4.709304662713362E8 ; 1.4697489234380478E10 ; 0.0
82 ; 6073165.382390568 ; 2.0194336563622376E8 ; 4.770108269970488E8 ; 1.48994181595452E10 ; 0.0
83 ; 6065056.663109237 ; 2.0195785253850505E8 ; 4.8308399237943935E8 ; 1.5101361525181423E10 ; 0.0
84 ; 6065625.626459134 ; 2.0197238357608926E8 ; 4.891490490425486E8 ; 1.5303319377719929E10 ; 0.0
85 ; 6061109.370813065 ; 2.0198695651619586E8 ; 4.952146746690077E8 ; 1.5505291761296019E10 ; 0.0
86 ; 6056715.591542089 ; 2.0200156918671188E8 ; 5.012757840398208E8 ; 1.5707278717812214E10 ; 0.0
87 ; 6050239.763746752 ; 2.0201621947421592E8 ; 5.0733249963136286E8 ; 1.5909280286998926E10 ; 0.0
88 ; 6041467.334493035 ; 2.020309053220562E8 ; 5.133827393951096E8 ; 1.6111296506473143E10 ; 0.0
89 ; 6039321.600124499 ; 2.020456247284829E8 ; 5.1942420672960263E8 ; 1.6313327411795198E10 ; 0.0
90 ; 6035140.8084730655 ; 2.020603757448348E8 ; 5.254635283297271E8 ; 1.6515373036523682E10 ; 0.0
91 ; 6025807.427215057 ; 2.020751564737798E8 ; 5.3149866913820016E8 ; 1.6717433412268517E10 ; 0.0
92 ; 6023299.616496752 ; 2.02089965067609E8 ; 5.375244765654153E8 ; 1.6919508568742296E10 ; 0.0
93 ; 6016786.382977296 ; 2.0210479972658366E8 ; 5.435477761819121E8 ; 1.7121598533809906E10 ; 0.0
94 ; 6009898.277106728 ; 2.021196586973343E8 ; 5.495645625648893E8 ; 1.732370333353649E10 ; 0.0
95 ; 5998600.86558866 ; 2.0213454027131113E8 ; 5.555744608419961E8 ; 1.7525822992233826E10 ; 0.0
96 ; 5998020.750405159 ; 2.0214944278328508E8 ; 5.615730617075847E8 ; 1.772795753250514E10 ; 0.0
97 ; 5991860.054016924 ; 2.021643646098979E8 ; 5.675710824579899E8 ; 1.793010697528842E10 ; 0.0
98 ; 5986201.225753418 ; 2.021793041682609E8 ; 5.735629425120069E8 ; 1.813227133989832E10 ; 0.0
99 ; 5979728.169694447 ; 2.021942599146006E8 ; 5.795491437377603E8 ; 1.833445064406658E10 ; 0.0
100 ; 5969247.777096863 ; 2.0220923034295082E8 ; 5.855288719074547E8 ; 1.8536644903981182E10 ; 0.0
101 ; 5965213.824794011 ; 2.0222421398388925E8 ; 5.914981196845516E8 ; 1.8738854134324135E10 ; 0.0
102 ; 5956667.637044705 ; 2.0223920940331784E8 ; 5.974633335093457E8 ; 1.8941078348308025E10 ; 0.0
103 ; 5950772.871121342 ; 2.0225421520128575E8 ; 6.034200011463903E8 ; 1.914331755771134E10 ; 0.0
104 ; 5943192.278520469 ; 2.022692300108533E8 ; 6.093707740175116E8 ; 1.934557177291263E10 ; 0.0
105 ; 5938781.592059153 ; 2.0228425249699613E8 ; 6.153139662960321E8 ; 1.954784100292348E10 ; 0.0
106 ; 5932572.7997031575 ; 2.0229928135554796E8 ; 6.212527478880912E8 ; 1.975012525542048E10 ; 0.0
107 ; 5920178.603553938 ; 2.0231431531218094E8 ; 6.271853206877943E8 ; 1.9952424536776028E10 ; 0.0
108 ; 5912487.957270424 ; 2.0232935312142253E8 ; 6.331054992913482E8 ; 2.0154738852088207E10 ; 0.0
109 ; 5905063.353885172 ; 2.0234439356570745E8 ; 6.390179872486186E8 ; 2.035706820520963E10 ; 0.0
110 ; 5903846.5595473135 ; 2.0235943545446354E8 ; 6.449230506025038E8 ; 2.0559412598775337E10 ; 0.0
111 ; 5893952.009390175 ; 2.023744776232309E8 ; 6.508268971620511E8 ; 2.07617720342298E10 ; 0.0
112 ; 5886642.396892096 ; 2.0238951893281233E8 ; 6.567208491714413E8 ; 2.096414651185303E10 ; 0.0
113 ; 5880849.873107234 ; 2.024045582684548E8 ; 6.626074915683334E8 ; 2.1166536030785843E10 ; 0.0
114 ; 5868704.8339119265 ; 2.0241959453906038E8 ; 6.684883414414406E8 ; 2.13689405890543E10 ; 0.0
115 ; 5863212.310366041 ; 2.024346266764259E8 ; 6.743570462753525E8 ; 2.1571360183593357E10 ; 0.0
116 ; 5854642.102384384 ; 2.0244965363450998E8 ; 6.802202585857185E8 ; 2.1773794810269783E10 ; 0.0
117 ; 5845268.703626745 ; 2.024646743887268E8 ; 6.860749006881028E8 ; 2.1976244463904293E10 ; 0.0
118 ; 5838339.003707202 ; 2.0247968793526548E8 ; 6.919201693917296E8 ; 2.217870913829302E10 ; 0.0
119 ; 5829334.899898473 ; 2.0249469329043412E8 ; 6.977585083954368E8 ; 2.2381188826228283E10 ; 0.0
120 ; 5817538.552840161 ; 2.0250968949002764E8 ; 7.035878432953353E8 ; 2.258368351951872E10 ; 0.0
121 ; 5810982.339191555 ; 2.0252467558871868E8 ; 7.094053818481754E8 ; 2.2786193209008747E10 ; 0.0
122 ; 5801798.256681486 ; 2.025396506594705E8 ; 7.15216364187367E8 ; 2.2988717884597466E10 ; 0.0
123 ; 5797340.901647903 ; 2.0255461379297107E8 ; 7.210181624440484E8 ; 2.3191257535256935E10 ; 0.0
124 ; 5788547.5322992625 ; 2.0256956409708786E8 ; 7.268155033456963E8 ; 2.3393812149049908E10 ; 0.0
125 ; 5776913.033142556 ; 2.0258450069634223E8 ; 7.326040508779956E8 ; 2.3596381713146996E10 ; 0.0
126 ; 5766811.819550215 ; 2.0259942273140287E8 ; 7.383809639111382E8 ; 2.3798966213843338E10 ; 0.0
127 ; 5757712.888926559 ; 2.026143293585974E8 ; 7.441477757306883E8 ; 2.400156563657474E10 ; 0.0
128 ; 5749179.449189401 ; 2.0262921974944186E8 ; 7.499054886196148E8 ; 2.420417996593334E10 ; 0.0
129 ; 5736556.791191195 ; 2.0264409309018674E8 ; 7.556546680688043E8 ; 2.440680918568278E10 ; 0.0
130 ; 5732485.1436787965 ; 2.0265894858137974E8 ; 7.613912248599955E8 ; 2.460945327877297E10 ; 0.0
131 ; 5713821.433431704 ; 2.0267378543744394E8 ; 7.671237100036743E8 ; 2.4812112227354347E10 ; 0.0
132 ; 5701170.987027917 ; 2.0268860288627118E8 ; 7.72837531437106E8 ; 2.501478601279179E10 ; 0.0
133 ; 5689644.142407678 ; 2.0270340016882986E8 ; 7.785387024241339E8 ; 2.5217474615678062E10 ; 0.0
134 ; 5675040.6432496635 ; 2.0271817653878707E8 ; 7.842283465665416E8 ; 2.5420178015846893E10 ; 0.0
135 ; 5662486.566658167 ; 2.027329312621437E8 ; 7.899033872097912E8 ; 2.562289619238568E10 ; 0.0
136 ; 5647835.543039054 ; 2.0274766361688292E8 ; 7.955658737764493E8 ; 2.5825629123647823E10 ; 0.0
137 ; 5632053.417661404 ; 2.0276237289263088E8 ; 8.012137093194884E8 ; 2.6028376787264706E10 ; 0.0
138 ; 5622182.525626749 ; 2.0277705839032948E8 ; 8.068457627371498E8 ; 2.6231139160157337E10 ; 0.0
139 ; 5605612.314724609 ; 2.0279171942192084E8 ; 8.124679452627766E8 ; 2.643391621854767E10 ; 0.0
140 ; 5591993.928107587 ; 2.0280635531004256E8 ; 8.180735575775012E8 ; 2.663670793796959E10 ; 0.0
141 ; 5580477.536248421 ; 2.02820965387734E8 ; 8.236655515056088E8 ; 2.6839514293279633E10 ; 0.0
142 ; 5563649.598097495 ; 2.028355489981527E8 ; 8.292460290418572E8 ; 2.7042335258667366E10 ; 0.0
143 ; 5550427.19052935 ; 2.0285010549430075E8 ; 8.348096786399547E8 ; 2.724517080766552E10 ; 0.0
144 ; 5536936.72707324 ; 2.0286463423876062E8 ; 8.40360105830484E8 ; 2.744802091315982E10 ; 0.0
145 ; 5527043.102553728 ; 2.028791346034403E8 ; 8.458970425575572E8 ; 2.7650885547398582E10 ; 0.0
146 ; 5514735.259382283 ; 2.0289360596932733E8 ; 8.51424085660111E8 ; 2.785376468200202E10 ; 0.0
147 ; 5505417.529472452 ; 2.02908047726251E8 ; 8.569388209194932E8 ; 2.8056658287971348E10 ; 0.0
148 ; 5498916.041942016 ; 2.029224592726532E8 ; 8.624442384489657E8 ; 2.8259566335697598E10 ; 0.0
149 ; 5485124.501109271 ; 2.029368400153669E8 ; 8.679431544909077E8 ; 2.846248879497025E10 ; 0.0
150 ; 5476776.272077407 ; 2.0295118936940223E8 ; 8.734282789920169E8 ; 2.8665425634985615E10 ; 0.0
151 ; 5465598.883362326 ; 2.0296550675774002E8 ; 8.789050552640944E8 ; 2.886837682435502E10 ; 0.0
152 ; 5456701.548482227 ; 2.0297979161113223E8 ; 8.843706541474566E8 ; 2.907134233111276E10 ; 0.0
153 ; 5448880.396190426 ; 2.029940433679093E8 ; 8.898273556959388E8 ; 2.9274322122723892E10 ; 0.0
154 ; 5438668.58334614 ; 2.0300826147379398E8 ; 8.952762360921292E8 ; 2.94773161660918E10 ; 0.0
155 ; 5426196.2432270115 ; 2.0302244538172144E8 ; 9.007149046754754E8 ; 2.9680324427565594E10 ; 0.0
156 ; 5418790.6837278735 ; 2.0303659455166548E8 ; 9.061411009187024E8 ; 2.9883346872947315E10 ; 0.0
157 ; 5408079.811384895 ; 2.0305070845047075E8 ; 9.115598916024302E8 ; 3.008638346749898E10 ; 0.0
158 ; 5402150.679255297 ; 2.0306478655169022E8 ; 9.169679714138151E8 ; 3.028943417594945E10 ; 0.0
159 ; 5391030.616805103 ; 2.0307882833542845E8 ; 9.223701220930704E8 ; 3.049249896250114E10 ; 0.0
160 ; 5377500.49434789 ; 2.0309283328819E8 ; 9.277611527098755E8 ; 3.069557779083657E10 ; 0.0
161 ; 5369354.053620333 ; 2.0310680090273276E8 ; 9.331386532042234E8 ; 3.089867062412476E10 ; 0.0
162 ; 5358102.484244261 ; 2.031207306779263E8 ; 9.385080072578437E8 ; 3.1101777425027493E10 ; 0.0
163 ; 5349582.986500834 ; 2.0313462211861488E8 ; 9.43866109742088E8 ; 3.1304898155705418E10 ; 0.0
164 ; 5340666.3575935 ; 2.0314847473548484E8 ; 9.492156927285888E8 ; 3.150803277782403E10 ; 0.0
165 ; 5330440.910392479 ; 2.0316228804493663E8 ; 9.545563590861824E8 ; 3.1711181252559517E10 ; 0.0
166 ; 5319048.642268701 ; 2.031760615689608E8 ; 9.598867999965749E8 ; 3.1914343540604454E10 ; 0.0
167 ; 5306077.852131063 ; 2.0318979483501816E8 ; 9.652058486388435E8 ; 3.2117519602173416E10 ; 0.0
168 ; 5297591.489452297 ; 2.0320348737592384E8 ; 9.705119264909745E8 ; 3.2320709397008434E10 ; 0.0
169 ; 5288619.661772059 ; 2.032171387297351E8 ; 9.758095179804268E8 ; 3.2523912884384357E10 ; 0.0
170 ; 5274758.226604567 ; 2.0323074843964285E8 ; 9.810981376421988E8 ; 3.2727130023114094E10 ; 0.0
171 ; 5270840.057825672 ; 2.0324431605386657E8 ; 9.863728958688034E8 ; 3.2930360771553738E10 ; 0.0
172 ; 5256941.629729468 ; 2.0325784112555277E8 ; 9.916437359266291E8 ; 3.3133605087607605E10 ; 0.0
173 ; 5248699.928648624 ; 2.0327132321267664E8 ; 9.969006775563586E8 ; 3.333686292873316E10 ; 0.0
174 ; 5236115.184091328 ; 2.0328476187794685E8 ; 1.0021493774850072E9 ; 3.3540134251945835E10 ; 0.0
175 ; 5230562.396774014 ; 2.0329815668871343E8 ; 1.0073854926690985E9 ; 3.3743419013823784E10 ; 0.0
176 ; 5223885.885357139 ; 2.033115072168786E8 ; 1.0126160550658726E9 ; 3.3946717170512497E10 ; 0.0
177 ; 5213452.842757349 ; 2.033248130388104E8 ; 1.0178399409512297E9 ; 3.4150028677729374E10 ; 0.0
178 ; 5205591.87525781 ; 2.0333807373525918E8 ; 1.023053393793987E9 ; 3.4353353490768185E10 ; 0.0
179 ; 5200044.445309252 ; 2.0335128889127657E8 ; 1.0282589856692449E9 ; 3.455669156450344E10 ; 0.0
180 ; 5192524.370169983 ; 2.0336445809613723E8 ; 1.0334590301145542E9 ; 3.4760042853394714E10 ; 0.0
181 ; 5181587.871027735 ; 2.0337758094326282E8 ; 1.0386515544847242E9 ; 3.496340731149085E10 ; 0.0
182 ; 5177131.23893264 ; 2.0339065703014866E8 ; 1.0438331423557519E9 ; 3.516678489243411E10 ; 0.0
183 ; 5164464.891540406 ; 2.034036859582923E8 ; 1.0490102735946845E9 ; 3.5370175549464264E10 ; 0.0
184 ; 5160386.582400168 ; 2.0341666733312485E8 ; 1.0541747384862249E9 ; 3.5573579235422554E10 ; 0.0
185 ; 5151875.379568945 ; 2.034296007639439E8 ; 1.0593351250686251E9 ; 3.577699590275568E10 ; 0.0
186 ; 5144749.494045344 ; 2.0344248586384907E8 ; 1.064487000448194E9 ; 3.598042550351962E10 ; 0.0
187 ; 5137177.927139969 ; 2.0345532224967906E8 ; 1.0696317499422394E9 ; 3.618386798938347E10 ; 0.0
188 ; 5128572.45540385 ; 2.034681095419511E8 ; 1.0747689278693793E9 ; 3.638732331163315E10 ; 0.0
189 ; 5117029.951481786 ; 2.0348084736480188E8 ; 1.079897500324783E9 ; 3.65907914211751E10 ; 0.0
190 ; 5110413.751234767 ; 2.0349353534593076E8 ; 1.085014530276265E9 ; 3.67942722685399E10 ; 0.0
191 ; 5103845.59631797 ; 2.0350617311654428E8 ; 1.0901249440274997E9 ; 3.699776580388583E10 ; 0.0
192 ; 5098352.059619108 ; 2.035187603113026E8 ; 1.0952287896238177E9 ; 3.720127197700238E10 ; 0.0
193 ; 5086364.206639452 ; 2.0353129656826767E8 ; 1.1003271416834369E9 ; 3.740479073731368E10 ; 0.0
194 ; 5079745.52104769 ; 2.0354378152885285E8 ; 1.1054135058900764E9 ; 3.760832203388195E10 ; 0.0
195 ; 5071163.794845534 ; 2.0355621483777407E8 ; 1.110493251411124E9 ; 3.7811865815410805E10 ; 0.0
196 ; 5064390.704419718 ; 2.0356859614300248E8 ; 1.1155644152059696E9 ; 3.801542203024858E10 ; 0.0
197 ; 5056101.091125139 ; 2.035809250957188E8 ; 1.1206288059103892E9 ; 3.821899062639159E10 ; 0.0
198 ; 5046395.898487479 ; 2.035932013502686E8 ; 1.1256849070015144E9 ; 3.8422571551487305E10 ; 0.0
199 ; 5039367.287942323 ; 2.0360542456411937E8 ; 1.130731302900002E9 ; 3.862616475283757E10 ; 0.0
200 ; 5028730.569190847 ; 1.828126640767849E8 ; 1.1357706701879444E9 ; 3.882977017740169E10 ; 0.0
201 ; 5022959.958805079 ; 1.547897172960973E8 ; 1.1407994007571352E9 ; 3.901258284147847E10 ; 0.0
