CSV File for the City 3 on Day 45
1 - Minute m 
2 - Power Consumed at minute m 
3 - Power Produced at minute m 
4 - Energy Consumed since the beginning of the day 
5 - Energy Produced since the beginning of the day 
6 - Energy Lost since the beginning of the day on lines starting from the city
 
0 ; 2372687.5592820477 ; 1.0536431241313544E8 ; 0.0 ; 0.0 ; 0.0
1 ; 2374985.2407678072 ; 1.0551687872138834E8 ; 2372687.5592820477 ; 1.0536431241313544E8 ; 0.0
2 ; 2378358.8276183214 ; 1.059782582721043E8 ; 4747672.800049854 ; 2.1088119113452378E8 ; 0.0
3 ; 2380781.8537337235 ; 1.0674845529148078E8 ; 7126031.627668176 ; 3.168594494066281E8 ; 0.0
4 ; 2384103.495784462 ; 1.0782747365054756E8 ; 9506813.4814019 ; 4.2360790469810885E8 ; 0.0
5 ; 2389259.8489766726 ; 1.0921531681738311E8 ; 1.1890916977186361E7 ; 5.314353783486564E8 ; 0.0
6 ; 2393883.9439717787 ; 1.1091198781226191E8 ; 1.4280176826163035E7 ; 6.406506951660395E8 ; 0.0
7 ; 2401465.5316197695 ; 1.129174891670025E8 ; 1.6674060770134814E7 ; 7.515626829783014E8 ; 0.0
8 ; 2411489.375712873 ; 1.1523182288973838E8 ; 1.9075526301754583E7 ; 8.64480172145304E8 ; 0.0
9 ; 2429502.2354955277 ; 1.1785499043622178E8 ; 2.1487015677467454E7 ; 9.797119950350423E8 ; 0.0
10 ; 2455935.8447240787 ; 1.2078699268860233E8 ; 2.391651791296298E7 ; 1.0975669854712641E9 ; 0.0
11 ; 2497653.5839306177 ; 1.2402782994239464E8 ; 2.637245375768706E7 ; 1.2183539781598663E9 ; 0.0
12 ; 2562807.5933606243 ; 1.2757750190208408E8 ; 2.8870107341617677E7 ; 1.342381808102261E9 ; 0.0
13 ; 2625345.8591357516 ; 1.31436007685521E8 ; 3.1432914934978303E7 ; 1.4699593100043452E9 ; 0.0
14 ; 2635046.305879416 ; 1.3560334583695328E8 ; 3.405826079411405E7 ; 1.601395317689866E9 ; 0.0
15 ; 2637324.129888264 ; 1.400795143482473E8 ; 3.669330709999347E7 ; 1.7369986635268192E9 ; 0.0
16 ; 2641105.3805992436 ; 1.448645106875846E8 ; 3.933063122988173E7 ; 1.8770781778750665E9 ; 0.0
17 ; 2643552.284978174 ; 1.4995833183469066E8 ; 4.197173661048098E7 ; 2.0219426885626512E9 ; 0.0
18 ; 2645895.154041874 ; 1.55360974321487E8 ; 4.461528889545915E7 ; 2.1719010203973417E9 ; 0.0
19 ; 2650923.2796049407 ; 1.610724342769439E8 ; 4.7261184049501024E7 ; 2.3272619947188287E9 ; 0.0
20 ; 2652603.6147030946 ; 1.670927074748638E8 ; 4.9912107329105966E7 ; 2.4883344289957724E9 ; 0.0
21 ; 2656208.4488514424 ; 1.734217893833405E8 ; 5.256471094380906E7 ; 2.6554271364706364E9 ; 0.0
22 ; 2658652.0287128584 ; 1.8005967521469772E8 ; 5.5220919392660506E7 ; 2.8288489258539767E9 ; 0.0
23 ; 2662309.065034928 ; 1.8700635997482377E8 ; 5.787957142137337E7 ; 3.0089086010686746E9 ; 0.0
24 ; 2664404.948706271 ; 1.942618385109524E8 ; 6.054188048640829E7 ; 3.1959149610434985E9 ; 0.0
25 ; 2669083.9383630496 ; 2.0051414645528516E8 ; 6.320628543511456E7 ; 3.390176799554451E9 ; 0.0
26 ; 2672861.211883906 ; 2.0051682630435938E8 ; 6.5875369373477615E7 ; 3.590690946009736E9 ; 0.0
27 ; 2674082.659624372 ; 2.0051964198300162E8 ; 6.854823058536153E7 ; 3.7912077723140955E9 ; 0.0
28 ; 2676739.912670621 ; 2.005225881264259E8 ; 7.12223132449859E7 ; 3.991727414297097E9 ; 0.0
29 ; 2679119.3022466674 ; 2.0052565940492254E8 ; 7.389905315765652E7 ; 4.192250002423523E9 ; 0.0
30 ; 2683634.7919830717 ; 2.0052885055138457E8 ; 7.657817245990318E7 ; 4.392775661828445E9 ; 0.0
31 ; 2685106.7368087876 ; 2.0053215638498363E8 ; 7.926180725188625E7 ; 4.59330451237983E9 ; 0.0
32 ; 2687938.1941104378 ; 2.005355718311461E8 ; 8.194691398869504E7 ; 4.793836668764814E9 ; 0.0
33 ; 2691460.9184619132 ; 2.0053909193804E8 ; 8.463485218280548E7 ; 4.994372240595961E9 ; 0.0
34 ; 2693066.6124042524 ; 2.005427118898288E8 ; 8.73263131012674E7 ; 5.194911332534E9 ; 0.0
35 ; 2697583.9835532405 ; 2.0054642701697397E8 ; 9.001937971367165E7 ; 5.395454044423829E9 ; 0.0
36 ; 2697716.3030156535 ; 2.0055023280388305E8 ; 9.27169636972249E7 ; 5.596000471440804E9 ; 0.0
37 ; 2700226.736698838 ; 2.0055412489420176E8 ; 9.541468000024055E7 ; 5.796550704244686E9 ; 0.0
38 ; 2702803.2183270883 ; 2.005580990940431E8 ; 9.811490673693939E7 ; 5.997104829138887E9 ; 0.0
39 ; 2703467.4832550855 ; 2.0056215137343273E8 ; 1.0081770995526648E8 ; 6.19766292823293E9 ; 0.0
40 ; 2705062.0991392788 ; 2.005662778662334E8 ; 1.0352117743852156E8 ; 6.398225079606363E9 ; 0.0
41 ; 2708254.9719162565 ; 2.0057047486879063E8 ; 1.0622623953766084E8 ; 6.598791357472597E9 ; 0.0
42 ; 2710669.1858576313 ; 2.00574738837519E8 ; 1.089344945095771E8 ; 6.799361832341388E9 ; 0.0
43 ; 2712228.4678122783 ; 2.0057906638562748E8 ; 1.1164516369543472E8 ; 6.999936571178906E9 ; 0.0
44 ; 2713323.7621226795 ; 2.0058345427915844E8 ; 1.14357392163247E8 ; 7.200515637564534E9 ; 0.0
45 ; 2714710.8811268103 ; 2.0058789943249384E8 ; 1.1707071592536968E8 ; 7.401099091843693E9 ; 0.0
46 ; 2717116.94048521 ; 2.0059239890346265E8 ; 1.1978542680649649E8 ; 7.601686991276187E9 ; 0.0
47 ; 2717599.551585817 ; 2.0059694988816366E8 ; 1.225025437469817E8 ; 7.802279390179649E9 ; 0.0
48 ; 2719185.9357652697 ; 2.006015497156016E8 ; 1.2522014329856752E8 ; 8.002876340067813E9 ; 0.0
49 ; 2720196.904567578 ; 2.0060619584221858E8 ; 1.2793932923433279E8 ; 8.203477889783415E9 ; 0.0
50 ; 2721033.8997459435 ; 2.0061088584638923E8 ; 1.3065952613890037E8 ; 8.404084085625633E9 ; 0.0
51 ; 2722555.8724343553 ; 2.0061561742293626E8 ; 1.3338056003864631E8 ; 8.604694971472023E9 ; 0.0
52 ; 2723268.971843993 ; 2.006203883777116E8 ; 1.3610311591108066E8 ; 8.805310588894958E9 ; 0.0
53 ; 2723896.706112943 ; 2.0062519662228027E8 ; 1.3882638488292465E8 ; 9.00593097727267E9 ; 0.0
54 ; 2723569.829463141 ; 2.0063004016873536E8 ; 1.415502815890376E8 ; 9.20655617389495E9 ; 0.0
55 ; 2724162.5188882337 ; 2.0063491712466598E8 ; 1.4427385141850075E8 ; 9.407186214063686E9 ; 0.0
56 ; 2724753.0524044717 ; 2.0063982568829468E8 ; 1.46998013937389E8 ; 9.607821131188353E9 ; 0.0
57 ; 2725647.9419663344 ; 2.0064476414379564E8 ; 1.4972276698979345E8 ; 9.808460956876648E9 ; 0.0
58 ; 2727167.7798782433 ; 2.0064973085680112E8 ; 1.5244841493175977E8 ; 1.0009105721020443E10 ; 0.0
59 ; 2727185.2898717746 ; 2.0065472427010024E8 ; 1.55175582711638E8 ; 1.0209755451877245E10 ; 0.0
60 ; 2725292.024903556 ; 2.006597428995317E8 ; 1.579027680015098E8 ; 1.0410410176147345E10 ; 0.0
61 ; 2728008.9409179376 ; 2.0066478533006957E8 ; 1.6062806002641335E8 ; 1.0611069919046877E10 ; 0.0
62 ; 2727796.9219269585 ; 2.006698502121E8 ; 1.633560689673313E8 ; 1.0811734704376947E10 ; 0.0
63 ; 2728360.446642966 ; 2.006749362578842E8 ; 1.6608386588925824E8 ; 1.1012404554589046E10 ; 0.0
64 ; 2730127.1798591674 ; 2.0068004223820406E8 ; 1.688122263359012E8 ; 1.1213079490846931E10 ; 0.0
65 ; 2729981.344239904 ; 2.0068516697918335E8 ; 1.7154235351576036E8 ; 1.1413759533085136E10 ; 0.0
66 ; 2729247.598293472 ; 2.0069030935927945E8 ; 1.7427233486000025E8 ; 1.161444470006432E10 ; 0.0
67 ; 2730502.429824964 ; 2.0069546830643797E8 ; 1.7700158245829374E8 ; 1.18151350094236E10 ; 0.0
68 ; 2731092.714001365 ; 2.0070064279540393E8 ; 1.797320848881187E8 ; 1.2015830477730038E10 ; 0.0
69 ; 2731845.165957236 ; 2.0070583184518248E8 ; 1.8246317760212007E8 ; 1.2216531120525442E10 ; 0.0
70 ; 2731540.3608865337 ; 2.007110345166416E8 ; 1.851950227680773E8 ; 1.2417236952370625E10 ; 0.0
71 ; 2732248.7865859168 ; 2.007162499102503E8 ; 1.8792656312896386E8 ; 1.2617947986887266E10 ; 0.0
72 ; 2731319.0664461595 ; 2.007214771639454E8 ; 1.9065881191554978E8 ; 1.2818664236797516E10 ; 0.0
73 ; 2732209.8898858153 ; 2.0072671545111975E8 ; 1.9339013098199594E8 ; 1.3019385713961462E10 ; 0.0
74 ; 2731800.377322108 ; 2.0073196397872567E8 ; 1.9612234087188175E8 ; 1.3220112429412582E10 ; 0.0
75 ; 2731417.134088577 ; 2.0073722198548734E8 ; 1.9885414124920386E8 ; 1.3420844393391308E10 ; 0.0
76 ; 2733307.2009110674 ; 2.0074248874021605E8 ; 2.0158555838329244E8 ; 1.3621581615376795E10 ; 0.0
77 ; 2731609.9556600144 ; 2.0074776354022217E8 ; 2.043188655842035E8 ; 1.382232410411701E10 ; 0.0
78 ; 2732323.9451199104 ; 2.0075304570981878E8 ; 2.0705047553986353E8 ; 1.4023071867657232E10 ; 0.0
79 ; 2730632.617138199 ; 2.0075833459891146E8 ; 2.0978279948498344E8 ; 1.422382491336705E10 ; 0.0
80 ; 2729364.591042025 ; 2.00763629581669E8 ; 2.1251343210212165E8 ; 1.4424583247965961E10 ; 0.0
81 ; 2729637.370141462 ; 2.0076893005527064E8 ; 2.1524279669316366E8 ; 1.462534687754763E10 ; 0.0
82 ; 2727096.548463112 ; 2.007742354387252E8 ; 2.1797243406330514E8 ; 1.4826115807602901E10 ; 0.0
83 ; 2725158.130708447 ; 2.0077954517175743E8 ; 2.2069953061176825E8 ; 1.5026890043041626E10 ; 0.0
84 ; 2727666.8818480507 ; 2.0078485871375847E8 ; 2.234246887424767E8 ; 1.5227669588213383E10 ; 0.0
85 ; 2725243.893361927 ; 2.0079017554279548E8 ; 2.2615235562432474E8 ; 1.5428454446927141E10 ; 0.0
86 ; 2723123.7792376885 ; 2.0079549515467796E8 ; 2.2887759951768667E8 ; 1.5629244622469936E10 ; 0.0
87 ; 2722826.9775342033 ; 2.0080081706207645E8 ; 2.3160072329692435E8 ; 1.5830040117624615E10 ; 0.0
88 ; 2722961.2133751702 ; 2.0080614079369104E8 ; 2.3432355027445856E8 ; 1.6030840934686691E10 ; 0.0
89 ; 2720130.906934113 ; 2.0081146589346668E8 ; 2.3704651148783374E8 ; 1.6231647075480383E10 ; 0.0
90 ; 2720458.594280496 ; 2.00816791919852E8 ; 2.3976664239476785E8 ; 1.643245854137385E10 ; 0.0
91 ; 2718865.210841167 ; 2.0082211844509968E8 ; 2.4248710098904833E8 ; 1.6633275333293701E10 ; 0.0
92 ; 2718923.8930640216 ; 2.0082744505460542E8 ; 2.452059661998895E8 ; 1.68340974517388E10 ; 0.0
93 ; 2716112.339244703 ; 2.0083277134628335E8 ; 2.4792489009295353E8 ; 1.7034924896793406E10 ; 0.0
94 ; 2715204.2732921448 ; 2.008380969299757E8 ; 2.5064100243219823E8 ; 1.723575766813969E10 ; 0.0
95 ; 2711923.5757672885 ; 2.0084342142689484E8 ; 2.5335620670549038E8 ; 1.7436595765069668E10 ; 0.0
96 ; 2711959.1789408047 ; 2.0084874446909544E8 ; 2.5606813028125766E8 ; 1.7637439186496563E10 ; 0.0
97 ; 2712703.616383884 ; 2.0085406569897518E8 ; 2.5878008946019846E8 ; 1.783828793096566E10 ; 0.0
98 ; 2712779.0389502095 ; 2.0085938476880258E8 ; 2.6149279307658234E8 ; 1.8039141996664635E10 ; 0.0
99 ; 2710740.8372059073 ; 2.0086470134026957E8 ; 2.6420557211553255E8 ; 1.8240001381433437E10 ; 0.0
100 ; 2708031.5555001167 ; 2.0087001508406842E8 ; 2.6691631295273846E8 ; 1.844086608277371E10 ; 0.0
101 ; 2706560.718592949 ; 2.0087532567949063E8 ; 2.6962434450823855E8 ; 1.8641736097857777E10 ; 0.0
102 ; 2704607.0548150158 ; 2.0088063281404707E8 ; 2.723309052268315E8 ; 1.8842611423537266E10 ; 0.0
103 ; 2704553.728599683 ; 2.0088593618310812E8 ; 2.750355122816465E8 ; 1.9043492056351315E10 ; 0.0
104 ; 2702679.2987634083 ; 2.008912354895623E8 ; 2.7774006601024616E8 ; 1.9244377992534424E10 ; 0.0
105 ; 2700623.6473765844 ; 2.0089653044349274E8 ; 2.8044274530900955E8 ; 1.9445269228023987E10 ; 0.0
106 ; 2701431.145250063 ; 2.0090182076187012E8 ; 2.8314336895638615E8 ; 1.964616575846748E10 ; 0.0
107 ; 2697077.633359863 ; 2.009071061682616E8 ; 2.8584480010163623E8 ; 1.984706757922935E10 ; 0.0
108 ; 2696497.9918841724 ; 2.0091238639255416E8 ; 2.885418777349961E8 ; 2.0047974685397614E10 ; 0.0
109 ; 2694807.174590093 ; 2.009176611706924E8 ; 2.9123837572688025E8 ; 2.024888707179017E10 ; 0.0
110 ; 2694084.970791202 ; 2.0092293024442902E8 ; 2.9393318290147036E8 ; 2.044980473296086E10 ; 0.0
111 ; 2691982.7701387512 ; 2.009281933610881E8 ; 2.966272678722616E8 ; 2.065072766320529E10 ; 0.0
112 ; 2690461.7642049026 ; 2.0093345027334014E8 ; 2.993192506424003E8 ; 2.085165585656638E10 ; 0.0
113 ; 2689017.123268886 ; 2.0093870073898804E8 ; 3.0200971240660524E8 ; 2.1052589306839718E10 ; 0.0
114 ; 2685765.964581233 ; 2.0094394452076375E8 ; 3.0469872952987415E8 ; 2.1253528007578705E10 ; 0.0
115 ; 2684813.6340938127 ; 2.0094918138613474E8 ; 3.073844954944554E8 ; 2.145447195209947E10 ; 0.0
116 ; 2684041.019468983 ; 2.0095441110711995E8 ; 3.100693091285492E8 ; 2.1655421133485603E10 ; 0.0
117 ; 2680509.904341516 ; 2.009596334601146E8 ; 3.127533501480182E8 ; 2.1856375544592724E10 ; 0.0
118 ; 2680762.921314616 ; 2.009648482257234E8 ; 3.154338600523597E8 ; 2.2057335178052837E10 ; 0.0
119 ; 2677327.981491183 ; 2.009700551886017E8 ; 3.181146229736743E8 ; 2.225830002627856E10 ; 0.0
120 ; 2675188.7621800425 ; 2.0097525413730428E8 ; 3.207919509551655E8 ; 2.2459270081467163E10 ; 0.0
121 ; 2673725.139862304 ; 2.009804448641411E8 ; 3.2346713971734554E8 ; 2.2660245335604465E10 ; 0.0
122 ; 2670996.202191546 ; 2.009856271650401E8 ; 3.2614086485720783E8 ; 2.2861225780468605E10 ; 0.0
123 ; 2670169.3130278215 ; 2.0099080083941594E8 ; 3.2881186105939937E8 ; 2.3062211407633644E10 ; 0.0
124 ; 2667792.13052036 ; 2.0099596569004542E8 ; 3.3148203037242717E8 ; 2.326320220847306E10 ; 0.0
125 ; 2665209.4200853445 ; 2.010011215229481E8 ; 3.341498225029475E8 ; 2.3464198174163105E10 ; 0.0
126 ; 2662526.4320596573 ; 2.0100626814727283E8 ; 3.368150319230329E8 ; 2.3665199295686054E10 ; 0.0
127 ; 2662501.70865699 ; 2.010114053751891E8 ; 3.394775583550925E8 ; 2.386620556383333E10 ; 0.0
128 ; 2659781.1400137474 ; 2.0101653302178365E8 ; 3.421400600637495E8 ; 2.406721696920852E10 ; 0.0
129 ; 2658547.8020176063 ; 2.0102165090496147E8 ; 3.4479984120376325E8 ; 2.42682335022303E10 ; 0.0
130 ; 2654937.355989129 ; 2.0102675884535143E8 ; 3.474583890057809E8 ; 2.446925515313526E10 ; 0.0
131 ; 2653081.519406099 ; 2.01031856666216E8 ; 3.5011332636177003E8 ; 2.4670281911980614E10 ; 0.0
132 ; 2648577.8364094137 ; 2.0103694419336507E8 ; 3.527664078811761E8 ; 2.487131376864683E10 ; 0.0
133 ; 2646779.800727027 ; 2.0104202125507358E8 ; 3.554149857175855E8 ; 2.5072350712840195E10 ; 0.0
134 ; 2642979.872751974 ; 2.0104708768200266E8 ; 3.580617655183125E8 ; 2.527339273409527E10 ; 0.0
135 ; 2639955.7946727867 ; 2.0105214330712435E8 ; 3.6070474539106447E8 ; 2.547443982177727E10 ; 0.0
136 ; 2636475.6585068963 ; 2.0105718796564952E8 ; 3.6334470118573725E8 ; 2.5675491965084396E10 ; 0.0
137 ; 2634205.3707816 ; 2.0106222149495888E8 ; 3.659811768442441E8 ; 2.5876549153050045E10 ; 0.0
138 ; 2631714.9308666997 ; 2.010672437345371E8 ; 3.686153822150257E8 ; 2.6077611374545006E10 ; 0.0
139 ; 2628210.5263683326 ; 2.0107225452590963E8 ; 3.7124709714589244E8 ; 2.627867861827954E10 ; 0.0
140 ; 2625068.35540194 ; 2.0107725371258223E8 ; 3.7387530767226076E8 ; 2.647975087280545E10 ; 0.0
141 ; 2621498.580832376 ; 2.0108224113998303E8 ; 3.765003760276627E8 ; 2.6680828126518032E10 ; 0.0
142 ; 2619346.3885859526 ; 2.010872166554072E8 ; 3.7912187460849506E8 ; 2.6881910367658016E10 ; 0.0
143 ; 2615666.8421122273 ; 2.0109218010796374E8 ; 3.81741220997081E8 ; 2.7082997584313423E10 ; 0.0
144 ; 2611368.9886372588 ; 2.0109713134852463E8 ; 3.843568878391932E8 ; 2.7284089764421387E10 ; 0.0
145 ; 2610262.934305481 ; 2.011020702296761E8 ; 3.869682568278305E8 ; 2.7485186895769913E10 ; 0.0
146 ; 2607159.783373267 ; 2.011069966056718E8 ; 3.89578519762136E8 ; 2.7686288965999588E10 ; 0.0
147 ; 2604364.6133842682 ; 2.0111191033238795E8 ; 3.921856795455093E8 ; 2.788739596260526E10 ; 0.0
148 ; 2602225.191706865 ; 2.0111681126728052E8 ; 3.947900441588935E8 ; 2.808850787293765E10 ; 0.0
149 ; 2600368.7786810803 ; 2.0112169926934382E8 ; 3.9739226935060036E8 ; 2.828962468420493E10 ; 0.0
150 ; 2598663.8121205363 ; 2.0112657419907105E8 ; 3.9999263812928146E8 ; 2.8490746383474274E10 ; 0.0
151 ; 2595685.896731449 ; 2.0113143591841638E8 ; 4.02591301941402E8 ; 2.8691872957673344E10 ; 0.0
152 ; 2593477.7312926357 ; 2.0113628429075843E8 ; 4.0518698783813345E8 ; 2.889300439359176E10 ; 0.0
153 ; 2590999.5351358047 ; 2.0114111918086547E8 ; 4.077804655694261E8 ; 2.909414067788252E10 ; 0.0
154 ; 2587645.4704880402 ; 2.0114594045486173E8 ; 4.103714651045619E8 ; 2.9295281797063385E10 ; 0.0
155 ; 2586425.7163193393 ; 2.011507479801953E8 ; 4.1295911057504994E8 ; 2.9496427737518246E10 ; 0.0
156 ; 2584350.108882494 ; 2.0115554162560713E8 ; 4.1554553629136926E8 ; 2.969757848549844E10 ; 0.0
157 ; 2580860.246960291 ; 2.0116032126110137E8 ; 4.1812988640025175E8 ; 2.9898734027124046E10 ; 0.0
158 ; 2579303.3251219173 ; 2.0116508675791678E8 ; 4.20710746647212E8 ; 3.0099894348385147E10 ; 0.0
159 ; 2577221.856946519 ; 2.0116983798849937E8 ; 4.2329004997233397E8 ; 3.0301059435143063E10 ; 0.0
160 ; 2574187.395988844 ; 2.0117457482647604E8 ; 4.258672718292805E8 ; 3.050222927313156E10 ; 0.0
161 ; 2573251.780360338 ; 2.0117929714662927E8 ; 4.284414592252693E8 ; 3.070340384795804E10 ; 0.0
162 ; 2568673.1891760817 ; 2.0118400482487276E8 ; 4.3101471100562966E8 ; 3.0904583145104668E10 ; 0.0
163 ; 2567649.277295419 ; 2.0118869773822805E8 ; 4.3358338419480574E8 ; 3.110576714992954E10 ; 0.0
164 ; 2563812.616507313 ; 2.011933757648021E8 ; 4.3615103347210115E8 ; 3.1306955847667767E10 ; 0.0
165 ; 2562001.7192486236 ; 2.0119803878376558E8 ; 4.3871484608860844E8 ; 3.1508149223432568E10 ; 0.0
166 ; 2559801.0250765895 ; 2.0120268667533216E8 ; 4.412768478078571E8 ; 3.170934726221633E10 ; 0.0
167 ; 2556254.442564883 ; 2.012073193207384E8 ; 4.4383664883293366E8 ; 3.1910549948891663E10 ; 0.0
168 ; 2554852.33867301 ; 2.0121193660222465E8 ; 4.4639290327549857E8 ; 3.2111757268212402E10 ; 0.0
169 ; 2552167.997595768 ; 2.0121653840301648E8 ; 4.4894775561417156E8 ; 3.231296920481463E10 ; 0.0
170 ; 2549848.8400541637 ; 2.0122112460730684E8 ; 4.5149992361176735E8 ; 3.2514185743217644E10 ; 0.0
171 ; 2546736.232972764 ; 2.0122569510023907E8 ; 4.540497724518215E8 ; 3.271540686782495E10 ; 0.0
172 ; 2543626.518725719 ; 2.0123024976789021E8 ; 4.5659650868479425E8 ; 3.291663256292519E10 ; 0.0
173 ; 2541753.3789769374 ; 2.0123478849725536E8 ; 4.5914013520351994E8 ; 3.311786281269308E10 ; 0.0
174 ; 2540182.008231878 ; 2.0123931117623228E8 ; 4.616818885824969E8 ; 3.331909760119034E10 ; 0.0
175 ; 2538287.7674117708 ; 2.0124381769360667E8 ; 4.6422207059072876E8 ; 3.352033691236657E10 ; 0.0
176 ; 2538221.7296875184 ; 2.0124830793903816E8 ; 4.667603583581405E8 ; 3.3721580730060177E10 ; 0.0
177 ; 2536397.6646900387 ; 2.0125278180304655E8 ; 4.6929858008782804E8 ; 3.3922829037999214E10 ; 0.0
178 ; 2534179.8606014587 ; 2.012572391769988E8 ; 4.7183497775251806E8 ; 3.412408181980226E10 ; 0.0
179 ; 2532751.8199729477 ; 2.0126167995309633E8 ; 4.7436915761311954E8 ; 3.432533905897926E10 ; 0.0
180 ; 2532930.697309118 ; 2.0126610402436292E8 ; 4.769019094330925E8 ; 3.452660073893236E10 ; 0.0
181 ; 2529010.724173018 ; 2.01270511284633E8 ; 4.794348401304016E8 ; 3.472786684295672E10 ; 0.0
182 ; 2528564.3140297215 ; 2.012749016285403E8 ; 4.819638508545746E8 ; 3.492913735424135E10 ; 0.0
183 ; 2527241.895648168 ; 2.0127927495150712E8 ; 4.844924151686043E8 ; 3.513041225586989E10 ; 0.0
184 ; 2525725.2571397307 ; 2.0128363114973372E8 ; 4.870196570642525E8 ; 3.5331691530821396E10 ; 0.0
185 ; 2523922.5452553057 ; 2.012879701201884E8 ; 4.8954538232139224E8 ; 3.553297516197113E10 ; 0.0
186 ; 2521103.6958481125 ; 2.0129229176059765E8 ; 4.9206930486664754E8 ; 3.573426313209132E10 ; 0.0
187 ; 2520756.7366509545 ; 2.012965959694369E8 ; 4.9459040856249565E8 ; 3.593555542385191E10 ; 0.0
188 ; 2520226.111909932 ; 2.0130088264592156E8 ; 4.971111652991466E8 ; 3.613685201982135E10 ; 0.0
189 ; 2518429.9776096563 ; 2.0130515168999818E8 ; 4.996313914110565E8 ; 3.633815290246727E10 ; 0.0
190 ; 2516331.1362038692 ; 2.013094030023362E8 ; 5.0214982138866615E8 ; 3.6539458054157265E10 ; 0.0
191 ; 2513845.0489478027 ; 2.0131363648431996E8 ; 5.0466615252487004E8 ; 3.67407674571596E10 ; 0.0
192 ; 2513152.141842732 ; 2.0131785203804076E8 ; 5.0717999757381785E8 ; 3.694208109364392E10 ; 0.0
193 ; 2512188.813612165 ; 2.013220495662896E8 ; 5.096931497156606E8 ; 3.714339894568196E10 ; 0.0
194 ; 2509985.5301186843 ; 2.0132622897254986E8 ; 5.1220533852927274E8 ; 3.734472099524825E10 ; 0.0
195 ; 2508693.1901487163 ; 2.013303901609903E8 ; 5.1471532405939144E8 ; 3.75460472242208E10 ; 0.0
196 ; 2506881.0007522805 ; 2.0133453303645855E8 ; 5.1722401724954015E8 ; 3.774737761438179E10 ; 0.0
197 ; 2506463.8561085905 ; 2.013386575044746E8 ; 5.197308982502924E8 ; 3.794871214741825E10 ; 0.0
198 ; 2504560.1028176392 ; 2.013427634712245E8 ; 5.22237362106401E8 ; 3.815005080492272E10 ; 0.0
199 ; 2502712.1031191344 ; 2.0134685084355447E8 ; 5.247419222092187E8 ; 3.835139356839394E10 ; 0.0
