CSV File for the City 1 on Day 180
1 - Minute m 
2 - Power Consumed at minute m 
3 - Power Produced at minute m 
4 - Energy Consumed since the beginning of the day 
5 - Energy Produced since the beginning of the day 
6 - Energy Lost since the beginning of the day on lines starting from the city
 
0 ; 3689900.2485617055 ; 1.0548644213544402E8 ; 0.0 ; 0.0 ; 0.0
1 ; 3705398.661662811 ; 1.0563935217329884E8 ; 3689900.2485617055 ; 1.0548644213544402E8 ; 0.0
2 ; 3719839.622405206 ; 1.0610104718344852E8 ; 7395298.910224516 ; 2.1112579430874285E8 ; 0.0
3 ; 3742078.195553717 ; 1.0687152895593089E8 ; 1.111513853262972E7 ; 3.172268414921914E8 ; 0.0
4 ; 3760652.8226409964 ; 1.0795079909972489E8 ; 1.4857216728183437E7 ; 4.2409837044812226E8 ; 0.0
5 ; 3787393.3358108858 ; 1.0933885903223449E8 ; 1.8617869550824434E7 ; 5.3204916954784715E8 ; 0.0
6 ; 3827886.897872177 ; 1.1103570996981224E8 ; 2.240526288663532E7 ; 6.413880285800817E8 ; 0.0
7 ; 3883198.5906643183 ; 1.1304135291946799E8 ; 2.6233149784507494E7 ; 7.52423738549894E8 ; 0.0
8 ; 3959400.3125656717 ; 1.1535578867189282E8 ; 3.0116348375171814E7 ; 8.65465091469362E8 ; 0.0
9 ; 4070028.139756808 ; 1.179790177959106E8 ; 3.407574868773749E7 ; 9.808208801412549E8 ; 0.0
10 ; 4254938.604944271 ; 1.2091104063444686E8 ; 3.814577682749429E7 ; 1.0987998979371655E9 ; 0.0
11 ; 4541266.489719568 ; 1.2415185730208346E8 ; 4.240071543243857E7 ; 1.2197109385716124E9 ; 0.0
12 ; 5001123.883529873 ; 1.2770146768423852E8 ; 4.694198192215814E7 ; 1.3438627958736959E9 ; 0.0
13 ; 5447410.171829846 ; 1.315598714379865E8 ; 5.194310580568801E7 ; 1.4715642635579343E9 ; 0.0
14 ; 5501853.571397015 ; 1.3572706799450362E8 ; 5.739051597751786E7 ; 1.6031241349959207E9 ; 0.0
15 ; 5517576.158865111 ; 1.4020305656309867E8 ; 6.289236954891487E7 ; 1.7388512029904242E9 ; 0.0
16 ; 5542604.907379699 ; 1.4498783613676193E8 ; 6.840994570777999E7 ; 1.8790542595535228E9 ; 0.0
17 ; 5555231.898009646 ; 1.5008140549914077E8 ; 7.395255061515969E7 ; 2.0240420956902847E9 ; 0.0
18 ; 5580860.582299896 ; 1.5548376323283124E8 ; 7.950778251316933E7 ; 2.1741235011894255E9 ; 0.0
19 ; 5596536.263673429 ; 1.611949077288544E8 ; 8.508864309546924E7 ; 2.3296072644222565E9 ; 0.0
20 ; 5619621.324086322 ; 1.6721483719717237E8 ; 9.068517935914266E7 ; 2.4908021721511106E9 ; 0.0
21 ; 5639520.909499227 ; 1.735435496780906E8 ; 9.630480068322898E7 ; 2.658017009348283E9 ; 0.0
22 ; 5660099.715625146 ; 1.8018104305438185E8 ; 1.0194432159272821E8 ; 2.8315605590263734E9 ; 0.0
23 ; 5682003.349018342 ; 1.8712731506396878E8 ; 1.0760442130835336E8 ; 3.011741602080755E9 ; 0.0
24 ; 5704267.33756147 ; 1.9438236331300032E8 ; 1.132864246573717E8 ; 3.198868917144724E9 ; 0.0
25 ; 5718566.60287239 ; 2.0063422618734592E8 ; 1.1899069199493317E8 ; 3.393251280457724E9 ; 0.0
26 ; 5744544.847320344 ; 2.0063644890288368E8 ; 1.2470925859780556E8 ; 3.59388550664507E9 ; 0.0
27 ; 5765638.092611881 ; 2.0063879804373533E8 ; 1.3045380344512591E8 ; 3.7945219555479536E9 ; 0.0
28 ; 5784692.983856253 ; 2.0064127082217857E8 ; 1.362194415377378E8 ; 3.995160753591689E9 ; 0.0
29 ; 5805725.591023027 ; 2.0064386438472372E8 ; 1.4200413452159405E8 ; 4.1958020244138675E9 ; 0.0
30 ; 5822900.232447745 ; 2.006465758245332E8 ; 1.4780986011261708E8 ; 4.396445888798592E9 ; 0.0
31 ; 5842166.47158589 ; 2.0064940219334188E8 ; 1.5363276034506482E8 ; 4.597092464623125E9 ; 0.0
32 ; 5863489.436242398 ; 2.0065234051280487E8 ; 1.5947492681665072E8 ; 4.797741866816467E9 ; 0.0
33 ; 5881730.123497714 ; 2.0065538778521538E8 ; 1.6533841625289312E8 ; 4.998394207329272E9 ; 0.0
34 ; 5889992.279200461 ; 2.0065854100354856E8 ; 1.7122014637639084E8 ; 5.199049595114488E9 ; 0.0
35 ; 5914024.567369104 ; 2.006617971608015E8 ; 1.771101386555913E8 ; 5.399708136118036E9 ; 0.0
36 ; 5932079.04288039 ; 2.0066515325861067E8 ; 1.830241632229604E8 ; 5.600369933278838E9 ; 0.0
37 ; 5946106.966306744 ; 2.0066860631514072E8 ; 1.889562422658408E8 ; 5.801035086537449E9 ; 0.0
38 ; 5966526.810523026 ; 2.006721533722471E8 ; 1.9490234923214754E8 ; 6.00170369285259E9 ; 0.0
39 ; 5978788.655420116 ; 2.0067579150192383E8 ; 2.0086887604267058E8 ; 6.202375846224836E9 ; 0.0
40 ; 5995067.7478840435 ; 2.0067951781205577E8 ; 2.068476646980907E8 ; 6.40305163772676E9 ; 0.0
41 ; 6009939.345277222 ; 2.0068332945149943E8 ; 2.1284273244597474E8 ; 6.6037311555388155E9 ; 0.0
42 ; 6018567.853849969 ; 2.0068722361452192E8 ; 2.1885267179125196E8 ; 6.8044144849903145E9 ; 0.0
43 ; 6033842.475906076 ; 2.0069119754463115E8 ; 2.2487123964510193E8 ; 7.005101708604836E9 ; 0.0
44 ; 6044587.689120331 ; 2.0069524853783315E8 ; 2.30905082121008E8 ; 7.205792906149467E9 ; 0.0
45 ; 6055593.067950772 ; 2.006993739453534E8 ; 2.3694966981012833E8 ; 7.406488154687301E9 ; 0.0
46 ; 6066654.830320871 ; 2.007035711758611E8 ; 2.4300526287807912E8 ; 7.607187528632654E9 ; 0.0
47 ; 6075502.401585272 ; 2.0070783769723496E8 ; 2.4907191770839998E8 ; 7.807891099808516E9 ; 0.0
48 ; 6082538.870746609 ; 2.0071217103790858E8 ; 2.5514742010998526E8 ; 8.008598937505751E9 ; 0.0
49 ; 6089354.135181098 ; 2.0071656878783292E8 ; 2.6122995898073187E8 ; 8.209311108543659E9 ; 0.0
50 ; 6092931.622858579 ; 2.0072102859909284E8 ; 2.6731931311591297E8 ; 8.410027677331492E9 ; 0.0
51 ; 6104066.224079961 ; 2.0072554818621206E8 ; 2.7341224473877156E8 ; 8.610748705930586E9 ; 0.0
52 ; 6111974.59223393 ; 2.0073012532617974E8 ; 2.795163109628515E8 ; 8.811474254116798E9 ; 0.0
53 ; 6119994.590289899 ; 2.0073475785823044E8 ; 2.856282855550855E8 ; 9.012204379442978E9 ; 0.0
54 ; 6123851.798692759 ; 2.0073944368340668E8 ; 2.917482801453754E8 ; 9.212939137301208E9 ; 0.0
55 ; 6127589.818021868 ; 2.0074418076393136E8 ; 2.9787213194406813E8 ; 9.413678580984615E9 ; 0.0
56 ; 6133949.676213903 ; 2.007489671224155E8 ; 3.0399972176209E8 ; 9.614422761748547E9 ; 0.0
57 ; 6139932.718867333 ; 2.0075380084092486E8 ; 3.1013367143830395E8 ; 9.815171728870962E9 ; 0.0
58 ; 6145894.634700209 ; 2.0075868005992645E8 ; 3.162736041571713E8 ; 1.0015925529711887E10 ; 0.0
59 ; 6150902.229344507 ; 2.007636029771349E8 ; 3.2241949879187155E8 ; 1.0216684209771814E10 ; 0.0
60 ; 6155568.582673093 ; 2.007685678462758E8 ; 3.2857040102121603E8 ; 1.041744781274895E10 ; 0.0
61 ; 6162146.154104751 ; 2.0077357297578254E8 ; 3.347259696038891E8 ; 1.0618216380595224E10 ; 0.0
62 ; 6164037.391241402 ; 2.0077861672744057E8 ; 3.408881157579939E8 ; 1.0818989953571007E10 ; 0.0
63 ; 6168464.912791011 ; 2.0078369751499206E8 ; 3.470521531492353E8 ; 1.1019768570298447E10 ; 0.0
64 ; 6174756.216580376 ; 2.0078881380271226E8 ; 3.532206180620263E8 ; 1.1220552267813438E10 ; 0.0
65 ; 6176520.471565596 ; 2.007939641039678E8 ; 3.593953742786067E8 ; 1.142134108161615E10 ; 0.0
66 ; 6182790.413522129 ; 2.0079914697976536E8 ; 3.655718947501723E8 ; 1.1622135045720118E10 ; 0.0
67 ; 6190231.875508749 ; 2.0080436103729925E8 ; 3.7175468516369444E8 ; 1.1822934192699883E10 ; 0.0
68 ; 6192237.003685183 ; 2.008096049285036E8 ; 3.7794491703920317E8 ; 1.2023738553737183E10 ; 0.0
69 ; 6197575.212763139 ; 2.0081487734861594E8 ; 3.8413715404288834E8 ; 1.2224548158665686E10 ; 0.0
70 ; 6199806.010176915 ; 2.0082017703475672E8 ; 3.903347292556515E8 ; 1.2425363036014301E10 ; 0.0
71 ; 6204063.48421465 ; 2.0082550276452878E8 ; 3.965345352658284E8 ; 1.2626183213049059E10 ; 0.0
72 ; 6208710.088161327 ; 2.0083085335464096E8 ; 4.0273859875004303E8 ; 1.2827008715813587E10 ; 0.0
73 ; 6211249.796354569 ; 2.0083622765955824E8 ; 4.089473088382044E8 ; 1.3027839569168228E10 ; 0.0
74 ; 6212566.622367259 ; 2.0084162457018122E8 ; 4.15158558634559E8 ; 1.3228675796827785E10 ; 0.0
75 ; 6222506.984409011 ; 2.0084704301255664E8 ; 4.2137112525692624E8 ; 1.3429517421397966E10 ; 0.0
76 ; 6221984.142202907 ; 2.008524819466206E8 ; 4.275936322413353E8 ; 1.3630364464410522E10 ; 0.0
77 ; 6226783.208989137 ; 2.0085794036497578E8 ; 4.338156163835382E8 ; 1.3831216946357143E10 ; 0.0
78 ; 6219762.100883272 ; 2.0086341729170287E8 ; 4.4004239959252733E8 ; 1.4032074886722118E10 ; 0.0
79 ; 6219202.216844108 ; 2.008689117812078E8 ; 4.462621616934106E8 ; 1.423293830401382E10 ; 0.0
80 ; 6214075.751038916 ; 2.0087442291710413E8 ; 4.5248136391025466E8 ; 1.4433807215795029E10 ; 0.0
81 ; 6214633.605232638 ; 2.008799498111309E8 ; 4.5869543966129357E8 ; 1.4634681638712133E10 ; 0.0
82 ; 6210436.6108712945 ; 2.0088549160210645E8 ; 4.649100732665262E8 ; 1.4835561588523264E10 ; 0.0
83 ; 6210931.791183816 ; 2.0089104745491686E8 ; 4.7112050987739754E8 ; 1.503644708012537E10 ; 0.0
84 ; 6200948.490910119 ; 2.0089661655953974E8 ; 4.7733144166858137E8 ; 1.5237338127580286E10 ; 0.0
85 ; 6202656.308982719 ; 2.0090219813010195E8 ; 4.835323901594915E8 ; 1.5438234744139826E10 ; 0.0
86 ; 6196828.546458903 ; 2.0090779140397137E8 ; 4.897350464684742E8 ; 1.5639136942269928E10 ; 0.0
87 ; 6198241.159866449 ; 2.0091339564088136E8 ; 4.959318750149331E8 ; 1.5840044733673899E10 ; 0.0
88 ; 6186817.635198346 ; 2.0091901012208772E8 ; 5.0213011617479956E8 ; 1.604095812931478E10 ; 0.0
89 ; 6190063.960145794 ; 2.009246341495571E8 ; 5.083169338099979E8 ; 1.6241877139436867E10 ; 0.0
90 ; 6185320.854973481 ; 2.009302670451862E8 ; 5.145069977701437E8 ; 1.6442801773586424E10 ; 0.0
91 ; 6180736.6198867215 ; 2.009359081500503E8 ; 5.206923186251172E8 ; 1.664373204063161E10 ; 0.0
92 ; 6175071.890606567 ; 2.009415568236815E8 ; 5.268730552450039E8 ; 1.6844667948781662E10 ; 0.0
93 ; 6169506.721885152 ; 2.009472124433742E8 ; 5.3304812713561046E8 ; 1.7045609505605343E10 ; 0.0
94 ; 6168569.341118121 ; 2.0095287440351814E8 ; 5.392176338574957E8 ; 1.7246556718048717E10 ; 0.0
95 ; 6158820.266886656 ; 2.009585421149577E8 ; 5.453862031986138E8 ; 1.7447509592452236E10 ; 0.0
96 ; 6149779.69421034 ; 2.0096421500437626E8 ; 5.515450234655005E8 ; 1.7648468134567192E10 ; 0.0
97 ; 6151663.531283246 ; 2.0096989251370528E8 ; 5.576948031597108E8 ; 1.7849432349571568E10 ; 0.0
98 ; 6144761.856050479 ; 2.0097557409955674E8 ; 5.63846466690994E8 ; 1.8050402242085274E10 ; 0.0
99 ; 6143370.323265578 ; 2.0098125923267853E8 ; 5.699912285470445E8 ; 1.825137781618483E10 ; 0.0
100 ; 6133546.385189568 ; 2.009869473974314E8 ; 5.761345988703101E8 ; 1.8452359075417507E10 ; 0.0
101 ; 6128833.357463803 ; 2.0099263809128729E8 ; 5.822681452554996E8 ; 1.8653346022814938E10 ; 0.0
102 ; 6124498.755368835 ; 2.0099833082434753E8 ; 5.883969786129634E8 ; 1.8854338660906223E10 ; 0.0
103 ; 6117844.0697793625 ; 2.0100402511888096E8 ; 5.945214773683323E8 ; 1.905533699173057E10 ; 0.0
104 ; 6112444.001848457 ; 2.010097205088802E8 ; 6.006393214381117E8 ; 1.9256341016849453E10 ; 0.0
105 ; 6107971.3128220085 ; 2.0101541653963622E8 ; 6.067517654399601E8 ; 1.9457350737358334E10 ; 0.0
106 ; 6100403.089642388 ; 2.0102111276733017E8 ; 6.128597367527821E8 ; 1.965836615389797E10 ; 0.0
107 ; 6092804.680161465 ; 2.0102680875864145E8 ; 6.189601398424245E8 ; 1.98593872666653E10 ; 0.0
108 ; 6086846.836668515 ; 2.0103250409037194E8 ; 6.25052944522586E8 ; 2.006041407542394E10 ; 0.0
109 ; 6080382.971243177 ; 2.0103819834908527E8 ; 6.311397913592545E8 ; 2.026144657951431E10 ; 0.0
110 ; 6074434.4936513975 ; 2.0104389113076073E8 ; 6.372201743304976E8 ; 2.0462484777863396E10 ; 0.0
111 ; 6068895.589205744 ; 2.0104958204046127E8 ; 6.43294608824149E8 ; 2.0663528668994156E10 ; 0.0
112 ; 6061323.351414519 ; 2.0105527069201478E8 ; 6.493635044133548E8 ; 2.086457825103462E10 ; 0.0
113 ; 6053247.654117034 ; 2.010609567077082E8 ; 6.554248277647693E8 ; 2.1065633521726635E10 ; 0.0
114 ; 6048803.41826351 ; 2.0106663971799418E8 ; 6.614780754188863E8 ; 2.126669447843434E10 ; 0.0
115 ; 6037661.765822328 ; 2.0107231936120918E8 ; 6.675268788371499E8 ; 2.1467761118152336E10 ; 0.0
116 ; 6030900.167054668 ; 2.0107799528330326E8 ; 6.735645406029721E8 ; 2.1668833437513546E10 ; 0.0
117 ; 6026374.766931973 ; 2.0108366713758048E8 ; 6.795954407700268E8 ; 2.186991143279685E10 ; 0.0
118 ; 6017035.16919016 ; 2.0108933458444968E8 ; 6.856218155369588E8 ; 2.207099509993443E10 ; 0.0
119 ; 6009199.408567965 ; 2.0109499729118532E8 ; 6.91638850706149E8 ; 2.227208443451888E10 ; 0.0
120 ; 5999482.6348394705 ; 2.0110065493169773E8 ; 6.97648050114717E8 ; 2.2473179431810062E10 ; 0.0
121 ; 5989400.488651143 ; 2.0110630718631265E8 ; 7.036475327495564E8 ; 2.267428008674176E10 ; 0.0
122 ; 5982132.199202325 ; 2.0111195374155918E8 ; 7.096369332382076E8 ; 2.2875386393928074E10 ; 0.0
123 ; 5975539.13023823 ; 2.011175942899666E8 ; 7.156190654374099E8 ; 2.3076498347669632E10 ; 0.0
124 ; 5968172.916365057 ; 2.0112322852986872E8 ; 7.21594604567648E8 ; 2.32776159419596E10 ; 0.0
125 ; 5956727.248606565 ; 2.0112885616521618E8 ; 7.275627774840131E8 ; 2.3478739170489468E10 ; 0.0
126 ; 5951322.23879376 ; 2.0113447690539613E8 ; 7.335195047326196E8 ; 2.3679868026654682E10 ; 0.0
127 ; 5943253.658849547 ; 2.011400904650588E8 ; 7.394708269714134E8 ; 2.3881002503560078E10 ; 0.0
128 ; 5932458.600506561 ; 2.0114569656395102E8 ; 7.45414080630263E8 ; 2.4082142594025135E10 ; 0.0
129 ; 5921653.461955825 ; 2.0115129492675596E8 ; 7.513465392307695E8 ; 2.4283288290589085E10 ; 0.0
130 ; 5914613.144870427 ; 2.011568852829394E8 ; 7.572681926927253E8 ; 2.4484439585515842E10 ; 0.0
131 ; 5897027.4454331 ; 2.0116246736660162E8 ; 7.631828058375957E8 ; 2.4685596470798782E10 ; 0.0
132 ; 5882141.628123178 ; 2.011680409163352E8 ; 7.690798332830288E8 ; 2.4886758938165382E10 ; 0.0
133 ; 5863587.934136162 ; 2.0117360567508826E8 ; 7.74961974911152E8 ; 2.508792697908172E10 ; 0.0
134 ; 5852808.793411415 ; 2.0117916139003283E8 ; 7.808255628452882E8 ; 2.5289100584756805E10 ; 0.0
135 ; 5832658.339290853 ; 2.0118470781243825E8 ; 7.866783716386995E8 ; 2.549027974614684E10 ; 0.0
136 ; 5820569.698614045 ; 2.011902446975496E8 ; 7.925110299779904E8 ; 2.569146445395928E10 ; 0.0
137 ; 5802440.197726717 ; 2.011957718044704E8 ; 7.983315996766044E8 ; 2.5892654698656826E10 ; 0.0
138 ; 5788550.955029027 ; 2.012012888960499E8 ; 8.041340398743311E8 ; 2.6093850470461296E10 ; 0.0
139 ; 5772524.669063876 ; 2.0120679573877472E8 ; 8.099225908293601E8 ; 2.6295051759357346E10 ; 0.0
140 ; 5758625.394074082 ; 2.0121229210266447E8 ; 8.15695115498424E8 ; 2.649625855509612E10 ; 0.0
141 ; 5742891.796079328 ; 2.0121777776117107E8 ; 8.214537408924981E8 ; 2.6697470847198784E10 ; 0.0
142 ; 5720852.848063507 ; 2.012232524910822E8 ; 8.271966326885774E8 ; 2.6898688624959953E10 ; 0.0
143 ; 5707726.649920364 ; 2.0122871607242793E8 ; 8.329174855366409E8 ; 2.7099911877451035E10 ; 0.0
144 ; 5691548.970031894 ; 2.0123416828839123E8 ; 8.386252121865612E8 ; 2.7301140593523464E10 ; 0.0
145 ; 5681731.26047768 ; 2.012396089252214E8 ; 8.443167611565931E8 ; 2.7502374761811855E10 ; 0.0
146 ; 5675562.266255084 ; 2.012450377721509E8 ; 8.499984924170707E8 ; 2.7703614370737076E10 ; 0.0
147 ; 5667005.652172925 ; 2.0125045462131512E8 ; 8.556740546833259E8 ; 2.7904859408509228E10 ; 0.0
148 ; 5654954.249148151 ; 2.0125585926767513E8 ; 8.613410603354988E8 ; 2.8106109863130543E10 ; 0.0
149 ; 5641669.277211598 ; 2.0126125150894332E8 ; 8.669960145846469E8 ; 2.8307365722398216E10 ; 0.0
150 ; 5633582.5265213195 ; 2.012666311455115E8 ; 8.726376838618585E8 ; 2.8508626973907158E10 ; 0.0
151 ; 5625000.665093317 ; 2.0127199798038188E8 ; 8.782712663883798E8 ; 2.870989360505267E10 ; 0.0
152 ; 5611496.630431462 ; 2.012773518191002E8 ; 8.838962670534731E8 ; 2.891116560303305E10 ; 0.0
153 ; 5608577.69001236 ; 2.0128269246969175E8 ; 8.895077636839045E8 ; 2.911244295485215E10 ; 0.0
154 ; 5596425.440479056 ; 2.0128801974259907E8 ; 8.951163413739169E8 ; 2.9313725647321842E10 ; 0.0
155 ; 5590189.769905963 ; 2.0129333345062244E8 ; 9.007127668143959E8 ; 2.951501366706444E10 ; 0.0
156 ; 5573235.476388924 ; 2.01298633408862E8 ; 9.063029565843018E8 ; 2.9716307000515064E10 ; 0.0
157 ; 5571792.828088169 ; 2.0130391943466237E8 ; 9.118761920606908E8 ; 2.9917605633923927E10 ; 0.0
158 ; 5563605.395876332 ; 2.0130919134755877E8 ; 9.174479848887789E8 ; 3.011890955335859E10 ; 0.0
159 ; 5547176.329130391 ; 2.0131444896922547E8 ; 9.230115902846552E8 ; 3.0320218744706146E10 ; 0.0
160 ; 5537508.473410804 ; 2.0131969212342566E8 ; 9.285587666137856E8 ; 3.0521533193675373E10 ; 0.0
161 ; 5529699.249996252 ; 2.013249206359634E8 ; 9.340962750871965E8 ; 3.0722852885798798E10 ; 0.0
162 ; 5517684.683403431 ; 2.01330134334637E8 ; 9.396259743371928E8 ; 3.092417780643476E10 ; 0.0
163 ; 5511523.748985369 ; 2.0133533304919413E8 ; 9.451436590205961E8 ; 3.1125507940769398E10 ; 0.0
164 ; 5493788.0070539545 ; 2.0134051661128846E8 ; 9.506551827695816E8 ; 3.1326843273818592E10 ; 0.0
165 ; 5493079.509471346 ; 2.0134568485443783E8 ; 9.561489707766355E8 ; 3.1528183790429882E10 ; 0.0
166 ; 5478280.178573555 ; 2.0135083761398384E8 ; 9.616420502861068E8 ; 3.172952947528432E10 ; 0.0
167 ; 5469735.018182746 ; 2.0135597472705272E8 ; 9.671203304646804E8 ; 3.1930880312898304E10 ; 0.0
168 ; 5460763.688164319 ; 2.013610960325177E8 ; 9.725900654828632E8 ; 3.213223628762536E10 ; 0.0
169 ; 5449793.240902541 ; 2.0136620137096268E8 ; 9.780508291710275E8 ; 3.2333597383657875E10 ; 0.0
170 ; 5436022.067550224 ; 2.013712905846468E8 ; 9.835006224119301E8 ; 3.253496358502884E10 ; 0.0
171 ; 5426681.466751125 ; 2.0137636351747072E8 ; 9.889366444794803E8 ; 3.2736334875613487E10 ; 0.0
172 ; 5417190.3672578065 ; 2.0138142001494363E8 ; 9.943633259462314E8 ; 3.293771123913096E10 ; 0.0
173 ; 5404068.5201754 ; 2.0138645992415154E8 ; 9.997805163134892E8 ; 3.31390926591459E10 ; 0.0
174 ; 5400819.51965882 ; 2.0139148309372663E8 ; 1.0051845848336647E9 ; 3.3340479119070053E10 ; 0.0
175 ; 5393165.0401070705 ; 2.0139648937381756E8 ; 1.0105854043533235E9 ; 3.354187060216378E10 ; 0.0
176 ; 5381508.031582196 ; 2.0140147861606094E8 ; 1.0159785693934305E9 ; 3.3743267091537598E10 ; 0.0
177 ; 5379064.6883885255 ; 2.0140645067355347E8 ; 1.0213600774250127E9 ; 3.394466857015366E10 ; 0.0
178 ; 5369292.885268586 ; 2.0141140540082523E8 ; 1.0267391421134012E9 ; 3.4146075020827213E10 ; 0.0
179 ; 5360848.494122507 ; 2.014163426538138E8 ; 1.0321084349986697E9 ; 3.434748642622804E10 ; 0.0
180 ; 5354397.02067197 ; 2.014212622898393E8 ; 1.0374692834927922E9 ; 3.454890276888185E10 ; 0.0
181 ; 5350084.416160919 ; 2.0142616416757992E8 ; 1.0428236805134642E9 ; 3.475032403117169E10 ; 0.0
182 ; 5343854.705698181 ; 2.0143104814704886E8 ; 1.0481737649296252E9 ; 3.495175019533927E10 ; 0.0
183 ; 5331726.015211273 ; 2.0143591408957133E8 ; 1.0535176196353233E9 ; 3.515318124348632E10 ; 0.0
184 ; 5326706.257244174 ; 2.0144076185776296E8 ; 1.0588493456505345E9 ; 3.535461715757589E10 ; 0.0
185 ; 5318057.231297531 ; 2.0144559131550837E8 ; 1.0641760519077787E9 ; 3.5556057919433655E10 ; 0.0
186 ; 5309247.067398041 ; 2.014504023279407E8 ; 1.0694941091390762E9 ; 3.575750351074916E10 ; 0.0
187 ; 5301076.530115389 ; 2.0145519476142198E8 ; 1.0748033562064743E9 ; 3.59589539130771E10 ; 0.0
188 ; 5298218.67395415 ; 2.014599684835236E8 ; 1.0801044327365897E9 ; 3.6160409107838524E10 ; 0.0
189 ; 5287746.7171026515 ; 2.014647233630081E8 ; 1.085402651410544E9 ; 3.6361869076322044E10 ; 0.0
190 ; 5280100.721948467 ; 2.0146945926981086E8 ; 1.0906903981276467E9 ; 3.656333379968505E10 ; 0.0
191 ; 5274318.672762506 ; 2.0147417607502288E8 ; 1.095970498849595E9 ; 3.6764803258954865E10 ; 0.0
192 ; 5267405.952283231 ; 2.0147887365087396E8 ; 1.1012448175223575E9 ; 3.6966277435029884E10 ; 0.0
193 ; 5258289.4163346 ; 2.014835518707164E8 ; 1.1065122234746406E9 ; 3.7167756308680756E10 ; 0.0
194 ; 5249633.375820295 ; 2.0148821060900903E8 ; 1.1117705128909752E9 ; 3.7369239860551476E10 ; 0.0
195 ; 5238258.869974507 ; 2.0149284974130225E8 ; 1.1170201462667956E9 ; 3.7570728071160484E10 ; 0.0
196 ; 5234643.545386219 ; 2.01497469144223E8 ; 1.1222584051367702E9 ; 3.777222092090179E10 ; 0.0
197 ; 5228005.668877397 ; 2.015020686954606E8 ; 1.1274930486821566E9 ; 3.797371839004601E10 ; 0.0
198 ; 5217175.014014377 ; 2.015066482737527E8 ; 1.132721054351034E9 ; 3.817522045874147E10 ; 0.0
199 ; 5209670.362036504 ; 2.0151120775887212E8 ; 1.1379382293650484E9 ; 3.837672710701522E10 ; 0.0
200 ; 5206657.33361728 ; 2.0151574703161365E8 ; 1.1431478997270849E9 ; 3.857823831477409E10 ; 0.0
201 ; 5200437.473971976 ; 1.9041690276422808E8 ; 1.148354557060702E9 ; 3.877975406180571E10 ; 0.0
