CSV File for the City 1 on Day 329
1 - Minute m 
2 - Power Consumed at minute m 
3 - Power Produced at minute m 
4 - Energy Consumed since the beginning of the day 
5 - Energy Produced since the beginning of the day 
6 - Energy Lost since the beginning of the day on lines starting from the city
 
0 ; 1.6146073913685393E7 ; 1.0573298072899517E8 ; 0.0 ; 0.0 ; 0.0
1 ; 1.6166211175922912E7 ; 1.0588588102212441E8 ; 1.6146073913685393E7 ; 1.0573298072899517E8 ; 0.0
2 ; 1.618973557369915E7 ; 1.0634756953869793E8 ; 3.2312285089608304E7 ; 2.1161886175111958E8 ; 0.0
3 ; 1.620626442403079E7 ; 1.0711804736082011E8 ; 4.850202066330746E7 ; 3.179664312898175E8 ; 0.0
4 ; 1.622650146167708E7 ; 1.081973154534263E8 ; 6.470828508733825E7 ; 4.250844786506376E8 ; 0.0
5 ; 1.6258231314254483E7 ; 1.0958537466059053E8 ; 8.093478654901533E7 ; 5.332817941040639E8 ; 0.0
6 ; 1.6295087701097254E7 ; 1.1128222570225397E8 ; 9.71930178632698E7 ; 6.428671687646544E8 ; 0.0
7 ; 1.6350165442963772E7 ; 1.1328786917140365E8 ; 1.1348810556436706E8 ; 7.541493944669083E8 ; 0.0
8 ; 1.642486151446402E7 ; 1.1560230553172684E8 ; 1.2983827100733083E8 ; 8.67437263638312E8 ; 0.0
9 ; 1.6547452634895463E7 ; 1.1822553511576366E8 ; 1.4626313252179486E8 ; 9.830395691700388E8 ; 0.0
10 ; 1.6727737601121267E7 ; 1.2115755812357473E8 ; 1.6281058515669033E8 ; 1.1012651042858024E9 ; 0.0
11 ; 1.7021249500337508E7 ; 1.2439837462193653E8 ; 1.795383227578116E8 ; 1.222422662409377E9 ; 0.0
12 ; 1.7478995567726802E7 ; 1.2794798454407254E8 ; 1.9655957225814912E8 ; 1.3468210370313137E9 ; 0.0
13 ; 1.792669662748995E7 ; 1.3180638768992215E8 ; 2.140385678258759E8 ; 1.4747690215753863E9 ; 0.0
14 ; 1.798160922975406E7 ; 1.3597358372694534E8 ; 2.3196526445336586E8 ; 1.6065754092653084E9 ; 0.0
15 ; 1.8001771803731944E7 ; 1.404495721914547E8 ; 2.4994687368311992E8 ; 1.7425489929922538E9 ; 0.0
16 ; 1.802615340167203E7 ; 1.4523435249046335E8 ; 2.6794864548685187E8 ; 1.8829985651837084E9 ; 0.0
17 ; 1.804496318387246E7 ; 1.5032792390403E8 ; 2.859747988885239E8 ; 2.0282329176741717E9 ; 0.0
18 ; 1.8065483257981222E7 ; 1.5573028558808064E8 ; 3.0401976207239634E8 ; 2.178560841578202E9 ; 0.0
19 ; 1.8088629919559676E7 ; 1.6144143657767996E8 ; 3.220852453303776E8 ; 2.3342911271662827E9 ; 0.0
20 ; 1.8110711168326024E7 ; 1.6746137579072353E8 ; 3.4017387524993724E8 ; 2.495732563743963E9 ; 0.0
21 ; 1.8130506580226116E7 ; 1.7379010203201762E8 ; 3.5828458641826326E8 ; 2.663193939534686E9 ; 0.0
22 ; 1.8153392852140125E7 ; 1.8042761399771136E8 ; 3.764150929984894E8 ; 2.836984041566704E9 ; 0.0
23 ; 1.8179368591440387E7 ; 1.8737391028004414E8 ; 3.945684858506295E8 ; 3.017411655564415E9 ; 0.0
24 ; 1.81994340211565E7 ; 1.9462898937236768E8 ; 4.127478544420699E8 ; 3.204785565844459E9 ; 0.0
25 ; 1.8219626970910277E7 ; 2.0088089057258776E8 ; 4.309472884632264E8 ; 3.399414555216827E9 ; 0.0
26 ; 1.8240256199904338E7 ; 2.0088316002551252E8 ; 4.491669154341366E8 ; 3.600295445789415E9 ; 0.0
27 ; 1.826494887157709E7 ; 2.0088556525336218E8 ; 4.6740717163404095E8 ; 3.8011786058149276E9 ; 0.0
28 ; 1.828352101938579E7 ; 2.008881044082619E8 ; 4.8567212050561804E8 ; 4.0020641710682898E9 ; 0.0
29 ; 1.8301912589844648E7 ; 2.008907755712817E8 ; 5.0395564152500385E8 ; 4.2029522754765515E9 ; 0.0
30 ; 1.832491924887634E7 ; 2.0089357675826848E8 ; 5.222575541148485E8 ; 4.403843051047833E9 ; 0.0
31 ; 1.834531748627619E7 ; 2.0089650592567843E8 ; 5.405824733637248E8 ; 4.604736627806102E9 ; 0.0
32 ; 1.8361784330143135E7 ; 2.0089956097637635E8 ; 5.58927790850001E8 ; 4.80563313373178E9 ; 0.0
33 ; 1.838134737072496E7 ; 2.0090273976537022E8 ; 5.772895751801441E8 ; 5.006532694708157E9 ; 0.0
34 ; 1.8399967256089382E7 ; 2.009060401054514E8 ; 5.95670922550869E8 ; 5.207435434473527E9 ; 0.0
35 ; 1.8424549405047886E7 ; 2.0090945977271453E8 ; 6.140708898069583E8 ; 5.408341474578979E9 ; 0.0
36 ; 1.8440280781109672E7 ; 2.009129965119331E8 ; 6.324954392120062E8 ; 5.609250934351693E9 ; 0.0
37 ; 1.8450213182857864E7 ; 2.009166480417695E8 ; 6.509357199931159E8 ; 5.8101639308636265E9 ; 0.0
38 ; 1.8470116379914325E7 ; 2.0092041205980232E8 ; 6.693859331759738E8 ; 6.0110805789053955E9 ; 0.0
39 ; 1.848879387456815E7 ; 2.0092428624735415E8 ; 6.87856049555888E8 ; 6.212000990965198E9 ; 0.0
40 ; 1.8499112217297133E7 ; 2.009282682741087E8 ; 7.063448434304562E8 ; 6.412925277212552E9 ; 0.0
41 ; 1.8519595775183573E7 ; 2.00932355802506E8 ; 7.248439556477532E8 ; 6.613853545486661E9 ; 0.0
42 ; 1.8530190025596417E7 ; 2.009365464919089E8 ; 7.433635514229368E8 ; 6.814785901289167E9 ; 0.0
43 ; 1.8540102182741158E7 ; 2.009408380025351E8 ; 7.618937414485332E8 ; 7.015722447781076E9 ; 0.0
44 ; 1.8553672012540825E7 ; 2.0094522799915168E8 ; 7.804338436312743E8 ; 7.216663285783611E9 ; 0.0
45 ; 1.8569389788485557E7 ; 2.0094971415453136E8 ; 7.989875156438152E8 ; 7.417608513782763E9 ; 0.0
46 ; 1.8579293254875757E7 ; 2.0095429415267062E8 ; 8.175569054323007E8 ; 7.618558227937294E9 ; 0.0
47 ; 1.8589801986046087E7 ; 2.0095896569177234E8 ; 8.361361986871765E8 ; 7.819512522089965E9 ; 0.0
48 ; 1.859677593390864E7 ; 2.0096372648699647E8 ; 8.547260006732225E8 ; 8.020471487781737E9 ; 0.0
49 ; 1.860099213670449E7 ; 2.009685742729839E8 ; 8.733227766071312E8 ; 8.221435214268734E9 ; 0.0
50 ; 1.8615119909699067E7 ; 2.0097350680615956E8 ; 8.919237687438357E8 ; 8.422403788541718E9 ; 0.0
51 ; 1.8619240787853915E7 ; 2.009785218668212E8 ; 9.105388886535348E8 ; 8.623377295347878E9 ; 0.0
52 ; 1.8628955101098448E7 ; 2.0098361726102263E8 ; 9.291581294413887E8 ; 8.824355817214699E9 ; 0.0
53 ; 1.8632559250168733E7 ; 2.0098879082225853E8 ; 9.477870845424871E8 ; 9.025339434475721E9 ; 0.0
54 ; 1.8641603662865825E7 ; 2.009940404129606E8 ; 9.664196437926558E8 ; 9.22632822529798E9 ; 0.0
55 ; 1.8643598444678683E7 ; 2.0099936392581344E8 ; 9.850612474555217E8 ; 9.42732226571094E9 ; 0.0
56 ; 1.8648137883741666E7 ; 2.0100475928490016E8 ; 1.0037048459002004E9 ; 9.628321629636753E9 ; 0.0
57 ; 1.8658526782808222E7 ; 2.0101022444668663E8 ; 1.022352983783942E9 ; 9.829326388921654E9 ; 0.0
58 ; 1.866432331923233E7 ; 2.0101575740085417E8 ; 1.0410115105667502E9 ; 1.003033661336834E10 ; 0.0
59 ; 1.866578261422088E7 ; 2.0102135617099026E8 ; 1.0596758338859825E9 ; 1.0231352370769194E10 ; 0.0
60 ; 1.867097638032472E7 ; 2.0102701881514627E8 ; 1.0783416165002034E9 ; 1.0432373726940184E10 ; 0.0
61 ; 1.8674221582703285E7 ; 2.0103274342627168E8 ; 1.097012592880528E9 ; 1.063340074575533E10 ; 0.0
62 ; 1.867964124358631E7 ; 2.0103852813253355E8 ; 1.1156868144632313E9 ; 1.08344334891816E10 ; 0.0
63 ; 1.8687960987131327E7 ; 2.0104437109753007E8 ; 1.1343664557068176E9 ; 1.1035472017314135E10 ; 0.0
64 ; 1.8692210589490615E7 ; 2.0105027052040637E8 ; 1.153054416693949E9 ; 1.1236516388411665E10 ; 0.0
65 ; 1.8698053502725996E7 ; 2.0105622463588086E8 ; 1.1717466272834396E9 ; 1.1437566658932072E10 ; 0.0
66 ; 1.8701058675529417E7 ; 2.0106223171418965E8 ; 1.1904446807861657E9 ; 1.1638622883567953E10 ; 0.0
67 ; 1.8704672926150963E7 ; 2.0106829006095645E8 ; 1.2091457394616952E9 ; 1.1839685115282143E10 ; 0.0
68 ; 1.870760290569754E7 ; 2.0107439801699477E8 ; 1.2278504123878462E9 ; 1.20407534053431E10 ; 0.0
69 ; 1.871613472865717E7 ; 2.010805539580494E8 ; 1.2465580152935438E9 ; 1.2241827803360094E10 ; 0.0
70 ; 1.8717312808559384E7 ; 2.0108675629448277E8 ; 1.265274150022201E9 ; 1.2442908357318144E10 ; 0.0
71 ; 1.8714518888013262E7 ; 2.010930034709129E8 ; 1.2839914628307605E9 ; 1.2643995113612627E10 ; 0.0
72 ; 1.8721410594326504E7 ; 2.0109929396580735E8 ; 1.3027059817187738E9 ; 1.284508811708354E10 ; 0.0
73 ; 1.8725751582555193E7 ; 2.0110562629103926E8 ; 1.3214273923131003E9 ; 1.3046187411049347E10 ; 0.0
74 ; 1.8730893828253303E7 ; 2.0111199899140966E8 ; 1.3401531438956556E9 ; 1.3247293037340385E10 ; 0.0
75 ; 1.8733603044169113E7 ; 2.011184106441409E8 ; 1.358884037723909E9 ; 1.3448405036331795E10 ; 0.0
76 ; 1.8739953293243423E7 ; 2.0112485985834464E8 ; 1.377617640768078E9 ; 1.3649523446975935E10 ; 0.0
77 ; 1.87373879274027E7 ; 2.0113134527446917E8 ; 1.3963575940613215E9 ; 1.385064830683428E10 ; 0.0
78 ; 1.8734819155417338E7 ; 2.011378655637287E8 ; 1.4150949819887242E9 ; 1.405177965210875E10 ; 0.0
79 ; 1.8733901700181454E7 ; 2.011444194275182E8 ; 1.4338298011441417E9 ; 1.4252917517672478E10 ; 0.0
80 ; 1.8729408808117237E7 ; 2.0115100559681672E8 ; 1.4525637028443232E9 ; 1.4454061937099997E10 ; 0.0
81 ; 1.872424830211419E7 ; 2.0115762283158213E8 ; 1.4712931116524403E9 ; 1.4655212942696814E10 ; 0.0
82 ; 1.871676559386305E7 ; 2.0116426992013898E8 ; 1.4900173599545546E9 ; 1.4856370565528397E10 ; 0.0
83 ; 1.8719994645060997E7 ; 2.011709456785626E8 ; 1.5087341255484176E9 ; 1.5057534835448536E10 ; 0.0
84 ; 1.87138043741223E7 ; 2.01177648950061E8 ; 1.5274541201934786E9 ; 1.5258705781127098E10 ; 0.0
85 ; 1.8706041017502107E7 ; 2.0118437860435626E8 ; 1.546167924567601E9 ; 1.545988343007716E10 ; 0.0
86 ; 1.870765069520653E7 ; 2.0119113353706765E8 ; 1.564873965585103E9 ; 1.5661067808681517E10 ; 0.0
87 ; 1.870250748644758E7 ; 2.011979126690971E8 ; 1.5835816162803097E9 ; 1.5862258942218584E10 ; 0.0
88 ; 1.8698337123109188E7 ; 2.0120471494601908E8 ; 1.6022841237667572E9 ; 1.6063456854887682E10 ; 0.0
89 ; 1.869257144923493E7 ; 2.0121153933747578E8 ; 1.6209824608898664E9 ; 1.62646615698337E10 ; 0.0
90 ; 1.868749041930816E7 ; 2.012183848365784E8 ; 1.6396750323391013E9 ; 1.6465873109171177E10 ; 0.0
91 ; 1.868655637040348E7 ; 2.0122525045931596E8 ; 1.6583625227584095E9 ; 1.6667091494007755E10 ; 0.0
92 ; 1.867803971364696E7 ; 2.0123213524397174E8 ; 1.677049079128813E9 ; 1.6868316744467072E10 ; 0.0
93 ; 1.867469868694979E7 ; 2.0123903825054884E8 ; 1.69572711884246E9 ; 1.7069548879711042E10 ; 0.0
94 ; 1.8666348091578465E7 ; 2.0124595856020477E8 ; 1.7144018175294096E9 ; 1.727078791796159E10 ; 0.0
95 ; 1.8661454223132398E7 ; 2.0125289527469584E8 ; 1.7330681656209881E9 ; 1.7472033876521793E10 ; 0.0
96 ; 1.8656462960374918E7 ; 2.0125984751583195E8 ; 1.7517296198441205E9 ; 1.767328677179649E10 ; 0.0
97 ; 1.864909951334935E7 ; 2.0126681442494166E8 ; 1.7703860828044953E9 ; 1.787454661931232E10 ; 0.0
98 ; 1.8643342739813484E7 ; 2.012737951623483E8 ; 1.7890351823178446E9 ; 1.8075813433737263E10 ; 0.0
99 ; 1.8637295808947295E7 ; 2.0128078890685713E8 ; 1.8076785250576582E9 ; 1.8277087228899612E10 ; 0.0
100 ; 1.8630912827497732E7 ; 2.0128779485525364E8 ; 1.8263158208666055E9 ; 1.847836801780647E10 ; 0.0
101 ; 1.862489341938942E7 ; 2.0129481222181323E8 ; 1.8449467336941032E9 ; 1.8679655812661724E10 ; 0.0
102 ; 1.861444812730285E7 ; 2.0130184023782223E8 ; 1.8635716271134927E9 ; 1.8880950624883537E10 ; 0.0
103 ; 1.8610753445517715E7 ; 2.013088781511105E8 ; 1.8821860752407956E9 ; 1.908225246512136E10 ; 0.0
104 ; 1.8602133346215017E7 ; 2.0131592522559533E8 ; 1.9007968286863134E9 ; 1.9283561343272472E10 ; 0.0
105 ; 1.8594906994541444E7 ; 2.0132298074083677E8 ; 1.9193989620325284E9 ; 1.9484877268498066E10 ; 0.0
106 ; 1.8585427621263668E7 ; 2.0133004399160442E8 ; 1.9379938690270698E9 ; 1.9686200249238903E10 ; 0.0
107 ; 1.8582274046793997E7 ; 2.0133711428745517E8 ; 1.9565792966483335E9 ; 1.9887530293230507E10 ; 0.0
108 ; 1.85732351416431E7 ; 2.013441909523224E8 ; 1.9751615706951275E9 ; 2.0088867407517963E10 ; 0.0
109 ; 1.856631828694306E7 ; 2.0135127332411593E8 ; 1.9937348058367705E9 ; 2.0290211598470287E10 ; 0.0
110 ; 1.855589329744556E7 ; 2.0135836075433302E8 ; 2.0123011241237135E9 ; 2.0491562871794403E10 ; 0.0
111 ; 1.854662324035576E7 ; 2.0136545260767987E8 ; 2.030857017421159E9 ; 2.0692921232548737E10 ; 0.0
112 ; 1.854075747331724E7 ; 2.0137254826170382E8 ; 2.0494036406615148E9 ; 2.0894286685156418E10 ; 0.0
113 ; 1.853285488740772E7 ; 2.0137964710643575E8 ; 2.067944398134832E9 ; 2.109565923341812E10 ; 0.0
114 ; 1.8520104099643048E7 ; 2.013867485440427E8 ; 2.0864772530222397E9 ; 2.1297038880524555E10 ; 0.0
115 ; 1.851967179787797E7 ; 2.013938519884904E8 ; 2.1049973571218827E9 ; 2.14984256290686E10 ; 0.0
116 ; 1.8507897564940043E7 ; 2.014009568652155E8 ; 2.1235170289197607E9 ; 2.169981948105709E10 ; 0.0
117 ; 1.849603056091663E7 ; 2.0140806261080748E8 ; 2.1420249264847007E9 ; 2.1901220437922306E10 ; 0.0
118 ; 1.848671545299487E7 ; 2.0141516867269954E8 ; 2.160520957045617E9 ; 2.2102628500533115E10 ; 0.0
119 ; 1.8474930511844765E7 ; 2.014222745088691E8 ; 2.179007672498612E9 ; 2.2304043669205814E10 ; 0.0
120 ; 1.8465338526896425E7 ; 2.014293795875467E8 ; 2.1974826030104566E9 ; 2.2505465943714684E10 ; 0.0
121 ; 1.8455091222196992E7 ; 2.0143648338693374E8 ; 2.215947941537353E9 ; 2.270689532330223E10 ; 0.0
122 ; 1.845237945172506E7 ; 2.0144358539492878E8 ; 2.23440303275955E9 ; 2.2908331806689163E10 ; 0.0
123 ; 1.843776695490754E7 ; 2.0145068510886192E8 ; 2.252855412211275E9 ; 2.310977539208409E10 ; 0.0
124 ; 1.842966636079162E7 ; 2.0145778203523716E8 ; 2.2712931791661825E9 ; 2.3311226077192955E10 ; 0.0
125 ; 1.841616693011664E7 ; 2.0146487568948278E8 ; 2.289722845526974E9 ; 2.351268385922819E10 ; 0.0
126 ; 1.8409024641442582E7 ; 2.0147196559570903E8 ; 2.308139012457091E9 ; 2.3714148734917675E10 ; 0.0
127 ; 1.8392488265396476E7 ; 2.014790512864734E8 ; 2.3265480370985336E9 ; 2.3915620700513386E10 ; 0.0
128 ; 1.8387278373635925E7 ; 2.0148613230255294E8 ; 2.34494052536393E9 ; 2.411709975179986E10 ; 0.0
129 ; 1.8371057364688814E7 ; 2.0149320819272372E8 ; 2.363327803737566E9 ; 2.431858588410241E10 ; 0.0
130 ; 1.8358079450886484E7 ; 2.015002785135467E8 ; 2.381698861102255E9 ; 2.452007909229513E10 ; 0.0
131 ; 1.83439042150824E7 ; 2.0150734282916066E8 ; 2.400056940553141E9 ; 2.4721579370808678E10 ; 0.0
132 ; 1.8325936830963306E7 ; 2.0151440071108112E8 ; 2.4184008447682233E9 ; 2.4923086713637836E10 ; 0.0
133 ; 1.8307975941202044E7 ; 2.0152145173800564E8 ; 2.4367267815991864E9 ; 2.512460111434892E10 ; 0.0
134 ; 1.8289755533195075E7 ; 2.01528495495625E8 ; 2.4550347575403886E9 ; 2.5326122566086926E10 ; 0.0
135 ; 1.8274052339634698E7 ; 2.0153553157644042E8 ; 2.4733245130735836E9 ; 2.552765106158255E10 ; 0.0
136 ; 1.825508382374993E7 ; 2.0154255957958627E8 ; 2.4915985654132185E9 ; 2.572918659315899E10 ; 0.0
137 ; 1.823889931342447E7 ; 2.0154957911065817E8 ; 2.5098536492369685E9 ; 2.5930729152738575E10 ; 0.0
138 ; 1.8220763629834104E7 ; 2.015565897815467E8 ; 2.528092548550393E9 ; 2.613227873184923E10 ; 0.0
139 ; 1.820313883480648E7 ; 2.01563591210276E8 ; 2.5463133121802273E9 ; 2.633383532163078E10 ; 0.0
140 ; 1.818557414385845E7 ; 2.0157058302084744E8 ; 2.5645164510150337E9 ; 2.6535398912841057E10 ; 0.0
141 ; 1.8164177525639173E7 ; 2.0157756484308815E8 ; 2.582702025158892E9 ; 2.6736969495861904E10 ; 0.0
142 ; 1.8148310086837396E7 ; 2.0158453631250426E8 ; 2.600866202684531E9 ; 2.6938547060704994E10 ; 0.0
143 ; 1.8130480257803306E7 ; 2.0159149707013863E8 ; 2.6190145127713685E9 ; 2.7140131597017498E10 ; 0.0
144 ; 1.8109117419055946E7 ; 2.01598446762433E8 ; 2.637144993029172E9 ; 2.7341723094087635E10 ; 0.0
145 ; 1.8096862552052505E7 ; 2.0160538504109433E8 ; 2.655254110448228E9 ; 2.7543321540850067E10 ; 0.0
146 ; 1.8087614095937505E7 ; 2.0161231156296542E8 ; 2.6733509730002804E9 ; 2.7744926925891163E10 ; 0.0
147 ; 1.8074043435361307E7 ; 2.0161922598989937E8 ; 2.691438587096218E9 ; 2.794653923745413E10 ; 0.0
148 ; 1.8062313997080624E7 ; 2.01626127988638E8 ; 2.7095126305315795E9 ; 2.8148158463444027E10 ; 0.0
149 ; 1.8052579459044278E7 ; 2.016330172306941E8 ; 2.7275749445286603E9 ; 2.8349784591432667E10 ; 0.0
150 ; 1.8038210839594953E7 ; 2.016398933922369E8 ; 2.7456275239877048E9 ; 2.855141760866336E10 ; 0.0
151 ; 1.8023872529613964E7 ; 2.0164675615398172E8 ; 2.7636657348272996E9 ; 2.87530575020556E10 ; 0.0
152 ; 1.8010232401983142E7 ; 2.016536052010824E8 ; 2.7816896073569136E9 ; 2.895470425820958E10 ; 0.0
153 ; 1.799885133377263E7 ; 2.0166044022302738E8 ; 2.799699839758897E9 ; 2.9156357863410664E10 ; 0.0
154 ; 1.7988466418581743E7 ; 2.0166726091353884E8 ; 2.8176986910926695E9 ; 2.935801830363369E10 ; 0.0
155 ; 1.797424044263264E7 ; 2.0167406697047496E8 ; 2.8356871575112514E9 ; 2.955968556454723E10 ; 0.0
156 ; 1.7963005172445185E7 ; 2.016808580957351E8 ; 2.853661397953884E9 ; 2.9761359631517704E10 ; 0.0
157 ; 1.7950013704214547E7 ; 2.0168763399516803E8 ; 2.8716244031263294E9 ; 2.9963040489613438E10 ; 0.0
158 ; 1.793593108356883E7 ; 2.016943943784828E8 ; 2.889574416830544E9 ; 3.0164728123608604E10 ; 0.0
159 ; 1.7925945385095913E7 ; 2.0170113895916232E8 ; 2.907510347914113E9 ; 3.0366422517987087E10 ; 0.0
160 ; 1.7914327987644177E7 ; 2.017078674543798E8 ; 2.925436293299209E9 ; 3.056812365694625E10 ; 0.0
161 ; 1.790261154001608E7 ; 2.0171457958491734E8 ; 2.9433506212868533E9 ; 3.076983152440063E10 ; 0.0
162 ; 1.7888313080880653E7 ; 2.0172127507508734E8 ; 2.9612532328268695E9 ; 3.097154610398555E10 ; 0.0
163 ; 1.787590233168669E7 ; 2.0172795365265608E8 ; 2.97914154590775E9 ; 3.117326737906064E10 ; 0.0
164 ; 1.7859083174199443E7 ; 2.0173461504876968E8 ; 2.9970174482394366E9 ; 3.1374995332713295E10 ; 0.0
165 ; 1.7847301177186653E7 ; 2.0174125899788228E8 ; 3.014876531413636E9 ; 3.1576729947762066E10 ; 0.0
166 ; 1.783234615430965E7 ; 2.0174788523768643E8 ; 3.0327238325908227E9 ; 3.177847120675995E10 ; 0.0
167 ; 1.782518718428884E7 ; 2.0175449350904536E8 ; 3.0505561787451324E9 ; 3.1980219091997635E10 ; 0.0
168 ; 1.781163853519593E7 ; 2.017610835559277E8 ; 3.0683813659294214E9 ; 3.218197358550668E10 ; 0.0
169 ; 1.7795141960423484E7 ; 2.0176765512534365E8 ; 3.0861930044646173E9 ; 3.2383734669062607E10 ; 0.0
170 ; 1.7787541071895063E7 ; 2.0177420796728346E8 ; 3.1039881464250407E9 ; 3.258550232418795E10 ; 0.0
171 ; 1.776721145385252E7 ; 2.0178074183465743E8 ; 3.121775687496936E9 ; 3.2787276532155235E10 ; 0.0
172 ; 1.7759190395014122E7 ; 2.0178725648323807E8 ; 3.1395428989507885E9 ; 3.298905727398989E10 ; 0.0
173 ; 1.774282079471886E7 ; 2.0179375167160356E8 ; 3.157302089345803E9 ; 3.319084453047313E10 ; 0.0
174 ; 1.7735300488100786E7 ; 2.018002271610832E8 ; 3.1750449101405215E9 ; 3.3392638282144733E10 ; 0.0
175 ; 1.7726824837052345E7 ; 2.0180668271570426E8 ; 3.1927802106286225E9 ; 3.3594438509305817E10 ; 0.0
176 ; 1.7719358503453076E7 ; 2.0181311810214067E8 ; 3.210507035465675E9 ; 3.3796245192021523E10 ; 0.0
177 ; 1.770648874051108E7 ; 2.0181953308966285E8 ; 3.228226393969128E9 ; 3.3998058310123665E10 ; 0.0
178 ; 1.770109295407496E7 ; 2.0182592745008942E8 ; 3.245932882709639E9 ; 3.419987784321333E10 ; 0.0
179 ; 1.7692687110529926E7 ; 2.0183230095773992E8 ; 3.263633975663714E9 ; 3.440170377066342E10 ; 0.0
180 ; 1.7683969541670006E7 ; 2.018386533893893E8 ; 3.281326662774244E9 ; 3.460353607162116E10 ; 0.0
181 ; 1.767471845284012E7 ; 2.018449845242235E8 ; 3.2990106323159137E9 ; 3.480537472501055E10 ; 0.0
182 ; 1.7667585326442927E7 ; 2.018512941437964E8 ; 3.316685350768754E9 ; 3.5007219709534775E10 ; 0.0
183 ; 1.7661284256017093E7 ; 2.01857582031988E8 ; 3.3343529360951967E9 ; 3.520907100367857E10 ; 0.0
184 ; 1.7650968274292752E7 ; 2.018638479749638E8 ; 3.352014220351214E9 ; 3.541092858571056E10 ; 0.0
185 ; 1.7640649592555873E7 ; 2.018700917611356E8 ; 3.369665188625507E9 ; 3.5612792433685524E10 ; 0.0
186 ; 1.7639373523728404E7 ; 2.01876313181123E8 ; 3.387305838218063E9 ; 3.581466252544666E10 ; 0.0
187 ; 1.7627217506942537E7 ; 2.0188251202771628E8 ; 3.4049452117417912E9 ; 3.6016538838627785E10 ; 0.0
188 ; 1.7617930470472075E7 ; 2.018886880958405E8 ; 3.422572429248734E9 ; 3.62184213506555E10 ; 0.0
189 ; 1.7612801253138233E7 ; 2.0189484118252024E8 ; 3.440190359719206E9 ; 3.642031003875134E10 ; 0.0
190 ; 1.7600952836174626E7 ; 2.019E8 ; 3.457803160972344E9 ; 3.662220487993386E10 ; 0.0
191 ; 1.7595091516937543E7 ; 2.019E8 ; 3.4754041138085184E9 ; 3.682410487993386E10 ; 0.0
192 ; 1.7584114887000013E7 ; 2.019E8 ; 3.492999205325456E9 ; 3.702600487993386E10 ; 0.0
193 ; 1.7579003134781457E7 ; 2.019E8 ; 3.510583320212456E9 ; 3.722790487993386E10 ; 0.0
194 ; 1.7571706171931207E7 ; 2.019E8 ; 3.5281623233472376E9 ; 3.742980487993386E10 ; 0.0
195 ; 1.7561663872256555E7 ; 2.019E8 ; 3.545734029519169E9 ; 3.763170487993386E10 ; 0.0
196 ; 1.755359032695546E7 ; 2.019E8 ; 3.5632956933914256E9 ; 3.783360487993386E10 ; 0.0
