CSV File for the City 6 on Day 201
1 - Minute m 
2 - Power Consumed at minute m 
3 - Power Produced at minute m 
4 - Energy Consumed since the beginning of the day 
5 - Energy Produced since the beginning of the day 
6 - Energy Lost since the beginning of the day on lines starting from the city
 
0 ; 970602.154887827 ; 1.057460559161677E8 ; 0.0 ; 0.0 ; 0.0
1 ; 978862.9431928324 ; 1.0589634180539733E8 ; 970602.154887827 ; 1.057460559161677E8 ; 0.0
2 ; 995315.7581783617 ; 1.0635566966693637E8 ; 1949465.0980806593 ; 2.1164239772156504E8 ; 0.0
3 ; 1010231.5635343781 ; 1.0712404738198578E8 ; 2944780.856259021 ; 3.179980673885014E8 ; 0.0
4 ; 1028031.1202762043 ; 1.0820148211404186E8 ; 3955012.419793399 ; 4.251221147704872E8 ; 0.0
5 ; 1047709.5080532338 ; 1.0958798023671919E8 ; 4983043.540069603 ; 5.3332359688452905E8 ; 0.0
6 ; 1076344.2566829612 ; 1.1128354726713619E8 ; 6030753.048122837 ; 6.429115771212482E8 ; 0.0
7 ; 1117505.5752976604 ; 1.1328818780641478E8 ; 7107097.304805798 ; 7.541951243883845E8 ; 0.0
8 ; 1171560.8413868267 ; 1.1560190548874372E8 ; 8224602.880103459 ; 8.674833121947992E8 ; 0.0
9 ; 1249677.5026969642 ; 1.1822470294029588E8 ; 9396163.721490286 ; 9.83085217683543E8 ; 0.0
10 ; 1375869.6308751286 ; 1.21156581749071E8 ; 1.0645841224187251E7 ; 1.101309920623839E9 ; 0.0
11 ; 1578566.9915708061 ; 1.2439754244646874E8 ; 1.202171085506238E7 ; 1.22246650237291E9 ; 0.0
12 ; 1892904.7947771845 ; 1.2794758450108942E8 ; 1.3600277846633187E7 ; 1.3468640448193789E9 ; 0.0
13 ; 2198168.908568392 ; 1.3180670632493329E8 ; 1.5493182641410371E7 ; 1.4748116293204682E9 ; 0.0
14 ; 2238157.3655214957 ; 1.3597490529182756E8 ; 1.7691351549978763E7 ; 1.6066183356454015E9 ; 0.0
15 ; 2251236.1640815604 ; 1.4045217776758337E8 ; 1.9929508915500257E7 ; 1.7425932409372292E9 ; 0.0
16 ; 2270246.104989679 ; 1.452385191510789E8 ; 2.218074507958182E7 ; 1.8830454187048125E9 ; 0.0
17 ; 2286159.467358501 ; 1.5033392392519566E8 ; 2.4450991184571497E7 ; 2.0282839378558915E9 ; 0.0
18 ; 2303147.2879136186 ; 1.5573838571631908E8 ; 2.6737150651929997E7 ; 2.178617861781087E9 ; 0.0
19 ; 2316733.0074671116 ; 1.6145189736095288E8 ; 2.9040297939843617E7 ; 2.334356247497406E9 ; 0.0
20 ; 2330800.0664271424 ; 1.6747445097789606E8 ; 3.135703094731073E7 ; 2.495808144858359E9 ; 0.0
21 ; 2346410.7711905222 ; 1.73806038044394E8 ; 3.368783101373787E7 ; 2.663282595836255E9 ; 0.0
22 ; 2364337.0014419397 ; 1.8044664947469318E8 ; 3.60342417849284E7 ; 2.837088633880649E9 ; 0.0
23 ; 2384863.36154418 ; 1.8739627569949967E8 ; 3.839857878637034E7 ; 3.0175352833553424E9 ; 0.0
24 ; 2395170.6208642023 ; 1.9465490674495298E8 ; 4.0783442147914514E7 ; 3.204931559054842E9 ; 0.0
25 ; 2411104.0213171253 ; 2.0091057320806023E8 ; 4.317861276877872E7 ; 3.399586465799795E9 ; 0.0
26 ; 2429869.3418156602 ; 2.0091681236804432E8 ; 4.558971679009584E7 ; 3.6004970390078554E9 ; 0.0
27 ; 2446229.990020327 ; 2.009233827820129E8 ; 4.80195861319115E7 ; 3.8014138513759E9 ; 0.0
28 ; 2459707.557424437 ; 2.0093027359810403E8 ; 5.046581612193183E7 ; 4.0023372341579127E9 ; 0.0
29 ; 2476982.68812939 ; 2.0093747391018876E8 ; 5.292552367935626E7 ; 4.2032675077560167E9 ; 0.0
30 ; 2490811.750105759 ; 2.0094497281406054E8 ; 5.540250636748565E7 ; 4.404204981666205E9 ; 0.0
31 ; 2505877.853005955 ; 2.009527594581596E8 ; 5.789331811759141E7 ; 4.605149954480266E9 ; 0.0
32 ; 2522659.5657366994 ; 2.0096082308877414E8 ; 6.0399195970597364E7 ; 4.806102713938425E9 ; 0.0
33 ; 2539353.1718890616 ; 2.0096915308977646E8 ; 6.292185553633406E7 ; 5.007063537027199E9 ; 0.0
34 ; 2550659.6086567766 ; 2.0097773901704988E8 ; 6.546120870822312E7 ; 5.208032690116975E9 ; 0.0
35 ; 2567139.572039153 ; 2.0098657062783995E8 ; 6.80118683168799E7 ; 5.409010429134025E9 ; 0.0
36 ; 2581614.1515363175 ; 2.009956379053199E8 ; 7.057900788891906E7 ; 5.609996999761865E9 ; 0.0
37 ; 2594465.737289324 ; 2.0100493107870293E8 ; 7.316062204045537E7 ; 5.810992637667185E9 ; 0.0
38 ; 2606200.1844756766 ; 2.0101444063925874E8 ; 7.57550877777447E7 ; 6.011997568745888E9 ; 0.0
39 ; 2619375.6925473954 ; 2.0102415735260567E8 ; 7.836128796222037E7 ; 6.213012009385146E9 ; 0.0
40 ; 2632903.989721754 ; 2.0103407226765066E8 ; 8.098066365476777E7 ; 6.414036166737752E9 ; 0.0
41 ; 2644020.1861703 ; 2.0104417672254488E8 ; 8.361356764448953E7 ; 6.615070239005403E9 ; 0.0
42 ; 2657228.323592102 ; 2.0105446234800792E8 ; 8.625758783065982E7 ; 6.816114415727947E9 ; 0.0
43 ; 2668274.828254669 ; 2.0106492106835702E8 ; 8.891481615425192E7 ; 7.017168878075955E9 ; 0.0
44 ; 2677608.9642867525 ; 2.010755451005555E8 ; 9.158309098250659E7 ; 7.218233799144313E9 ; 0.0
45 ; 2684218.4257102325 ; 2.0108632695157158E8 ; 9.426069994679335E7 ; 7.419309344244868E9 ; 0.0
46 ; 2694040.8390954556 ; 2.010972594143136E8 ; 9.694491837250358E7 ; 7.62039567119644E9 ; 0.0
47 ; 2703781.0636067805 ; 2.0110833556238315E8 ; 9.963895921159904E7 ; 7.821492930610753E9 ; 0.0
48 ; 2707864.7389764306 ; 2.0111954874386263E8 ; 1.0234274027520582E8 ; 8.022601266173136E9 ; 0.0
49 ; 2721019.295233985 ; 2.0113089257433054E8 ; 1.0505060501418225E8 ; 8.223720814916998E9 ; 0.0
50 ; 2727775.165410482 ; 2.0114236092927447E8 ; 1.0777162430941623E8 ; 8.424851707491328E9 ; 0.0
51 ; 2732800.7329624495 ; 2.0115394793605125E8 ; 1.1049939947482672E8 ; 8.625994068420603E9 ; 0.0
52 ; 2738966.227406842 ; 2.0116564796552446E8 ; 1.1323220020778917E8 ; 8.827148016356653E9 ; 0.0
53 ; 2743833.7455710024 ; 2.0117745562349054E8 ; 1.1597116643519601E8 ; 9.028313664322178E9 ; 0.0
54 ; 2753532.1692575915 ; 2.0118936574198976E8 ; 1.1871500018076701E8 ; 9.22949111994567E9 ; 0.0
55 ; 2757794.0614793645 ; 2.012013733705831E8 ; 1.2146853235002461E8 ; 9.430680485687658E9 ; 0.0
56 ; 2762861.798822097 ; 2.012134737676628E8 ; 1.2422632641150397E8 ; 9.63188185905824E9 ; 0.0
57 ; 2769454.647794444 ; 2.012256623918541E8 ; 1.2698918821032606E8 ; 9.833095332825903E9 ; 0.0
58 ; 2778271.842589129 ; 2.012379348935534E8 ; 1.297586428581205E8 ; 1.0034320995217756E10 ; 0.0
59 ; 2783870.403606434 ; 2.0125028710664132E8 ; 1.3253691470070963E8 ; 1.023555893011131E10 ; 0.0
60 ; 2789599.339141969 ; 2.0126271504040006E8 ; 1.3532078510431606E8 ; 1.043680921721795E10 ; 0.0
61 ; 2796303.7354225023 ; 2.0127521487165835E8 ; 1.3811038444345802E8 ; 1.063807193225835E10 ; 0.0
62 ; 2802141.4204757125 ; 2.0128778293718114E8 ; 1.409066881788805E8 ; 1.0839347147130009E10 ; 0.0
63 ; 2808277.5642627655 ; 2.013004157263166E8 ; 1.4370882959935623E8 ; 1.104063493006719E10 ; 0.0
64 ; 2812595.028433139 ; 2.013131098739088E8 ; 1.46517107163619E8 ; 1.1241935345793507E10 ; 0.0
65 ; 2817094.927812778 ; 2.0132586215348047E8 ; 1.4932970219205216E8 ; 1.1443248455667416E10 ; 0.0
66 ; 2823326.655938377 ; 2.0133866947068828E8 ; 1.5214679711986494E8 ; 1.1644574317820896E10 ; 0.0
67 ; 2829829.617073889 ; 2.013515288570493E8 ; 1.5497012377580333E8 ; 1.1845912987291584E10 ; 0.0
68 ; 2835366.557378452 ; 2.0136443746393642E8 ; 1.5779995339287722E8 ; 1.2047264516148634E10 ; 0.0
69 ; 2841881.6855270024 ; 2.0137739255683878E8 ; 1.6063531995025566E8 ; 1.224862895361257E10 ; 0.0
70 ; 2843025.469130578 ; 2.013903915098809E8 ; 1.6347720163578266E8 ; 1.2450006346169409E10 ; 0.0
71 ; 2849726.502266053 ; 2.0140343180059463E8 ; 1.6632022710491323E8 ; 1.2651396737679289E10 ; 0.0
72 ; 2853772.7161105145 ; 2.014165110049363E8 ; 1.6916995360717928E8 ; 1.2852800169479883E10 ; 0.0
73 ; 2859332.3043791605 ; 2.014296267925414E8 ; 1.720237263232898E8 ; 1.305421668048482E10 ; 0.0
74 ; 2862595.5024968204 ; 2.0144277692220798E8 ; 1.7488305862766898E8 ; 1.325564630727736E10 ; 0.0
75 ; 2868176.8997494485 ; 2.014559592376007E8 ; 1.777456541301658E8 ; 1.345708908419957E10 ; 0.0
76 ; 2870983.0852426263 ; 2.014691716631667E8 ; 1.8061383102991524E8 ; 1.365854504343717E10 ; 0.0
77 ; 2876906.4491942353 ; 2.0148241220025405E8 ; 1.8348481411515787E8 ; 1.3860014215100336E10 ; 0.0
78 ; 2877321.806273607 ; 2.0149567892342502E8 ; 1.863617205643521E8 ; 1.406149662730059E10 ; 0.0
79 ; 2880484.031132674 ; 2.015089699769542E8 ; 1.892390423706257E8 ; 1.4262992306224016E10 ; 0.0
80 ; 2876961.4258193336 ; 2.0152228357150427E8 ; 1.9211952640175837E8 ; 1.446450127620097E10 ; 0.0
81 ; 2882105.985010716 ; 2.015356179809702E8 ; 1.949964878275777E8 ; 1.4666023559772474E10 ; 0.0
82 ; 2881585.3475954933 ; 2.0154897153948438E8 ; 1.9787859381258842E8 ; 1.4867559177753445E10 ; 0.0
83 ; 2879048.1456904206 ; 2.0156234263857436E8 ; 2.007601791601839E8 ; 1.5069108149292929E10 ; 0.0
84 ; 2880643.905525205 ; 2.0157572972446612E8 ; 2.0363922730587432E8 ; 1.5270670491931503E10 ; 0.0
85 ; 2883546.471952176 ; 2.0158913129552516E8 ; 2.0651987121139953E8 ; 1.547224622165597E10 ; 0.0
86 ; 2880053.905052017 ; 2.0160254589982897E8 ; 2.094034176833517E8 ; 1.5673835352951494E10 ; 0.0
87 ; 2881494.201532035 ; 2.0161597213286328E8 ; 2.122834715884037E8 ; 1.5875437898851324E10 ; 0.0
88 ; 2878500.7543610847 ; 2.0162940863533673E8 ; 2.1516496578993574E8 ; 1.6077053870984188E10 ; 0.0
89 ; 2880725.143841033 ; 2.01642854091107E8 ; 2.1804346654429683E8 ; 1.6278683279619524E10 ; 0.0
90 ; 2883749.197043305 ; 2.0165630722521296E8 ; 2.2092419168813786E8 ; 1.648032613371063E10 ; 0.0
91 ; 2881477.664418853 ; 2.0166976680200723E8 ; 2.2380794088518116E8 ; 1.6681982440935843E10 ; 0.0
92 ; 2880066.297996853 ; 2.0168323162338364E8 ; 2.266894185496E8 ; 1.688365220773785E10 ; 0.0
93 ; 2879052.809466899 ; 2.01696700527095E8 ; 2.2956948484759685E8 ; 1.7085335439361235E10 ; 0.0
94 ; 2877009.770576377 ; 2.0171017238515577E8 ; 2.3244853765706375E8 ; 1.728703213988833E10 ; 0.0
95 ; 2876299.415870507 ; 2.0172364610232568E8 ; 2.3532554742764014E8 ; 1.7488742312273483E10 ; 0.0
96 ; 2877324.5818413417 ; 2.0173712061466974E8 ; 2.3820184684351066E8 ; 1.769046595837581E10 ; 0.0
97 ; 2876503.885176938 ; 2.0175059488819045E8 ; 2.41079171425352E8 ; 1.789220307899048E10 ; 0.0
98 ; 2875706.273888284 ; 2.0176406791752857E8 ; 2.4395567531052893E8 ; 1.809395367387867E10 ; 0.0
99 ; 2873678.487296033 ; 2.0177753872472885E8 ; 2.4683138158441722E8 ; 1.82957177417962E10 ; 0.0
100 ; 2874850.968310516 ; 2.017910063580668E8 ; 2.4970506007171327E8 ; 1.8497495280520927E10 ; 0.0
101 ; 2870261.696657324 ; 2.0180446989093384E8 ; 2.5257991104002377E8 ; 1.8699286286878994E10 ; 0.0
102 ; 2871656.233973129 ; 2.018179284207774E8 ; 2.554501727366811E8 ; 1.8901090756769928E10 ; 0.0
103 ; 2868383.716143955 ; 2.0183138106809297E8 ; 2.5832182897065422E8 ; 1.9102908685190704E10 ; 0.0
104 ; 2867884.166461665 ; 2.0184482697546557E8 ; 2.611902126867982E8 ; 1.9304740066258797E10 ; 0.0
105 ; 2869106.270719012 ; 2.0185826530665797E8 ; 2.6405809685325986E8 ; 1.950658489323426E10 ; 0.0
106 ; 2867521.21818391 ; 2.0187169524574307E8 ; 2.6692720312397888E8 ; 1.970844315854092E10 ; 0.0
107 ; 2863225.1749737333 ; 2.0188511599627817E8 ; 2.697947243421628E8 ; 1.9910314853786663E10 ; 0.0
108 ; 2861684.707674169 ; 2.01898526780519E8 ; 2.726579495171365E8 ; 2.011219996978294E10 ; 0.0
109 ; 2859074.507578221 ; 2.0191192683867145E8 ; 2.7551963422481066E8 ; 2.0314098496563457E10 ; 0.0
110 ; 2863709.004139427 ; 2.019253154281787E8 ; 2.7837870873238885E8 ; 2.051601042340213E10 ; 0.0
111 ; 2857074.341507185 ; 2.019386918230425E8 ; 2.812424177365283E8 ; 2.0717935738830307E10 ; 0.0
112 ; 2855993.1967388988 ; 2.019520553131762E8 ; 2.840994920780355E8 ; 2.091987443065335E10 ; 0.0
113 ; 2846445.4490092495 ; 2.0196540520378837E8 ; 2.869554852747744E8 ; 2.1121826485966526E10 ; 0.0
114 ; 2847120.521507859 ; 2.0197874081479502E8 ; 2.898019307237836E8 ; 2.1323791891170315E10 ; 0.0
115 ; 2849496.761782652 ; 2.0199206148025954E8 ; 2.926490512452915E8 ; 2.152577063198511E10 ; 0.0
116 ; 2848214.8930112724 ; 2.0200536654785812E8 ; 2.954985480070741E8 ; 2.172776269346537E10 ; 0.0
117 ; 2847105.340184608 ; 2.0201865537837017E8 ; 2.983467629000854E8 ; 2.192976806001323E10 ; 0.0
118 ; 2839817.8859821344 ; 2.0203192734519193E8 ; 3.0119386824027E8 ; 2.2131786715391598E10 ; 0.0
119 ; 2835380.388097986 ; 2.0204518183387232E8 ; 3.040336861262522E8 ; 2.233381864273679E10 ; 0.0
120 ; 2832260.3069283077 ; 2.020584182416698E8 ; 3.068690665143502E8 ; 2.2535863824570663E10 ; 0.0
121 ; 2830344.3173786094 ; 2.0207163597712943E8 ; 3.097013268212785E8 ; 2.2737922242812332E10 ; 0.0
122 ; 2829341.800627408 ; 2.0208483445967868E8 ; 3.125316711386571E8 ; 2.2939993878789463E10 ; 0.0
123 ; 2826098.8662874606 ; 2.0209801311924157E8 ; 3.153610129392845E8 ; 2.314207871324914E10 ; 0.0
124 ; 2823123.528883168 ; 2.0211117139586985E8 ; 3.18187111805572E8 ; 2.334417672636838E10 ; 0.0
125 ; 2822318.8536678837 ; 2.0212430873939058E8 ; 3.2101023533445513E8 ; 2.354628789776425E10 ; 0.0
126 ; 2813351.9657658385 ; 2.0213742460906917E8 ; 3.23832554188123E8 ; 2.3748412206503643E10 ; 0.0
127 ; 2813374.796126178 ; 2.0215051847328725E8 ; 3.266459061538888E8 ; 2.3950549631112713E10 ; 0.0
128 ; 2807728.9562296774 ; 2.0216358980923468E8 ; 3.29459280950015E8 ; 2.4152700149586E10 ; 0.0
129 ; 2807140.538328903 ; 2.021766381026148E8 ; 3.322670099062447E8 ; 2.4354863739395233E10 ; 0.0
130 ; 2804986.764662661 ; 2.0218966284736237E8 ; 3.350741504445736E8 ; 2.455704037749785E10 ; 0.0
131 ; 2793614.9587260173 ; 2.0220266354537398E8 ; 3.3787913720923626E8 ; 2.475923004034521E10 ; 0.0
132 ; 2788131.2136269533 ; 2.0221563970624954E8 ; 3.4067275216796225E8 ; 2.4961432703890587E10 ; 0.0
133 ; 2775985.3764318656 ; 2.0222859084704518E8 ; 3.4346088338158923E8 ; 2.5163648343596836E10 ; 0.0
134 ; 2774060.528677715 ; 2.0224151649203634E8 ; 3.462368687580211E8 ; 2.5365876934443882E10 ; 0.0
135 ; 2763754.4244715953 ; 2.0225441617249098E8 ; 3.490109292866988E8 ; 2.5568118450935917E10 ; 0.0
136 ; 2756597.6752914926 ; 2.0226728942645237E8 ; 3.5177468371117043E8 ; 2.5770372867108406E10 ; 0.0
137 ; 2745242.4139577984 ; 2.0228013579853085E8 ; 3.545312813864619E8 ; 2.597264015653486E10 ; 0.0
138 ; 2744577.122329667 ; 2.0229295483970428E8 ; 3.572765238004197E8 ; 2.617492029233339E10 ; 0.0
139 ; 2731856.0302930987 ; 2.0230574610712674E8 ; 3.6002110092274934E8 ; 2.637721324717309E10 ; 0.0
140 ; 2725976.5176811246 ; 2.0231850916394523E8 ; 3.6275295695304245E8 ; 2.657951899328022E10 ; 0.0
141 ; 2714077.2690473036 ; 2.0233124357912368E8 ; 3.6547893347072357E8 ; 2.6781837502444164E10 ; 0.0
142 ; 2704032.4378681127 ; 2.0234394892727435E8 ; 3.681930107397709E8 ; 2.698416874602329E10 ; 0.0
143 ; 2698517.936615771 ; 2.02356624788496E8 ; 3.70897043177639E8 ; 2.718651269495056E10 ; 0.0
144 ; 2690093.652639184 ; 2.0236927074821848E8 ; 3.735955611142548E8 ; 2.7388869319739056E10 ; 0.0
145 ; 2689358.44670286 ; 2.023818863970539E8 ; 3.76285654766894E8 ; 2.7591238590487274E10 ; 0.0
146 ; 2686128.209449342 ; 2.0239447133065337E8 ; 3.789750132135968E8 ; 2.7793620476884327E10 ; 0.0
147 ; 2679138.481281231 ; 2.0240702514956987E8 ; 3.816611414230462E8 ; 2.799601494821498E10 ; 0.0
148 ; 2675106.719618068 ; 2.024195474591262E8 ; 3.843402799043274E8 ; 2.819842197336455E10 ; 0.0
149 ; 2672505.7070330456 ; 2.0243203786928844E8 ; 3.870153866239455E8 ; 2.8400841520823677E10 ; 0.0
150 ; 2663134.446569469 ; 2.024444959945443E8 ; 3.896878923309785E8 ; 2.8603273558692966E10 ; 0.0
151 ; 2663005.36906723 ; 2.0245692145378608E8 ; 3.9235102677754796E8 ; 2.880571805468751E10 ; 0.0
152 ; 2661956.015321299 ; 2.0246931387019852E8 ; 3.950140321466152E8 ; 2.9008174976141296E10 ; 0.0
153 ; 2658230.968221643 ; 2.0248167287115085E8 ; 3.976759881619365E8 ; 2.9210644290011494E10 ; 0.0
154 ; 2654394.957199964 ; 2.0249399808809295E8 ; 4.003342191301582E8 ; 2.9413125962882645E10 ; 0.0
155 ; 2650277.3161240537 ; 2.0250628915645564E8 ; 4.029886140873582E8 ; 2.9615619960970737E10 ; 0.0
156 ; 2649417.7873479947 ; 2.0251854571555486E8 ; 4.0563889140348226E8 ; 2.9818126250127193E10 ; 0.0
157 ; 2643680.6191623467 ; 2.0253076740849933E8 ; 4.0828830919083023E8 ; 3.0020644795842747E10 ; 0.0
158 ; 2637172.114597116 ; 2.0254295388210183E8 ; 4.1093198980999255E8 ; 3.0223175563251247E10 ; 0.0
159 ; 2631592.477919844 ; 2.0255510478679404E8 ; 4.135691619245897E8 ; 3.042571851713335E10 ; 0.0
160 ; 2630301.120170011 ; 2.0256721977654424E8 ; 4.162007544025095E8 ; 3.0628273621920143E10 ; 0.0
161 ; 2626372.372945419 ; 2.025792985087784E8 ; 4.188310555226795E8 ; 3.0830840841696686E10 ; 0.0
162 ; 2622572.5830157558 ; 2.025913406443042E8 ; 4.2145742789562494E8 ; 3.1033420140205463E10 ; 0.0
163 ; 2623431.3550539757 ; 2.0260334584723774E8 ; 4.240800004786407E8 ; 3.1236011480849766E10 ; 0.0
164 ; 2617405.4686381933 ; 2.0261531378493327E8 ; 4.2670343183369464E8 ; 3.1438614826697002E10 ; 0.0
165 ; 2611953.5900001754 ; 2.0262724412791523E8 ; 4.293208373023328E8 ; 3.1641230140481937E10 ; 0.0
166 ; 2607606.6337937126 ; 2.0263913654981297E8 ; 4.31932790892333E8 ; 3.184385738460985E10 ; 0.0
167 ; 2600454.867435397 ; 2.0265099072729796E8 ; 4.345403975261267E8 ; 3.2046496521159664E10 ; 0.0
168 ; 2602349.893315421 ; 2.026628063400231E8 ; 4.371408523935621E8 ; 3.2249147511886963E10 ; 0.0
169 ; 2595344.011942666 ; 2.0267458307056454E8 ; 4.397432022868775E8 ; 3.2451810318226986E10 ; 0.0
170 ; 2591944.6690015746 ; 2.026863206043653E8 ; 4.423385462988202E8 ; 3.265448490129755E10 ; 0.0
171 ; 2587751.4804221494 ; 2.026980186296813E8 ; 4.449304909678218E8 ; 3.2857171221901917E10 ; 0.0
172 ; 2583462.0541364504 ; 2.0270967683752903E8 ; 4.475182424482439E8 ; 3.3059869240531597E10 ; 0.0
173 ; 2579716.0233164863 ; 2.0272129492163545E8 ; 4.501017045023804E8 ; 3.3262578917369125E10 ; 0.0
174 ; 2576547.2421156536 ; 2.0273287257838935E8 ; 4.526814205256969E8 ; 3.346530021229076E10 ; 0.0
175 ; 2577456.7678328566 ; 2.0274440950679484E8 ; 4.5525796776781255E8 ; 3.366803308486915E10 ; 0.0
176 ; 2572217.732965671 ; 2.0275590540842617E8 ; 4.578354245356454E8 ; 3.3870777494375942E10 ; 0.0
177 ; 2572306.524916487 ; 2.0276735998738435E8 ; 4.604076422686111E8 ; 3.4073533399784367E10 ; 0.0
178 ; 2565103.1730348454 ; 2.0277877295025545E8 ; 4.6297994879352754E8 ; 3.427630075977175E10 ; 0.0
179 ; 2565323.4763043625 ; 2.027901440060701E8 ; 4.655450519665624E8 ; 3.447907953272201E10 ; 0.0
180 ; 2558916.9338577455 ; 2.0280147286626467E8 ; 4.6811037544286674E8 ; 3.468186967672808E10 ; 0.0
181 ; 2558782.225375216 ; 2.0281275924464363E8 ; 4.706692923767245E8 ; 3.4884671149594345E10 ; 0.0
182 ; 2556521.378631709 ; 2.0282400285734355E8 ; 4.732280746020997E8 ; 3.508748390883899E10 ; 0.0
183 ; 2553792.214185962 ; 2.0283520342279807E8 ; 4.757845959807314E8 ; 3.5290307911696335E10 ; 0.0
184 ; 2551096.8515985985 ; 2.0284636066170418E8 ; 4.783383881949174E8 ; 3.549314311511913E10 ; 0.0
185 ; 2545281.7884727153 ; 2.0285747429698995E8 ; 4.80889485046516E8 ; 3.569598947578084E10 ; 0.0
186 ; 2545971.695879557 ; 2.0286854405378297E8 ; 4.834347668349887E8 ; 3.589884695007783E10 ; 0.0
187 ; 2543718.732046284 ; 2.0287956965938023E8 ; 4.859807385308683E8 ; 3.610171549413161E10 ; 0.0
188 ; 2537900.058389995 ; 2.0289055084321898E8 ; 4.885244572629146E8 ; 3.6304595063790985E10 ; 0.0
189 ; 2536757.7554337997 ; 2.0290148733684853E8 ; 4.910623573213046E8 ; 3.65074856146342E10 ; 0.0
190 ; 2536018.150681185 ; 2.0291237887390307E8 ; 4.935991150767384E8 ; 3.671038710197105E10 ; 0.0
191 ; 2532134.6235199366 ; 2.0292322519007555E8 ; 4.961351332274196E8 ; 3.691329948084495E10 ; 0.0
192 ; 2529454.538063812 ; 2.0293402602309233E8 ; 4.986672678509396E8 ; 3.711622270603503E10 ; 0.0
193 ; 2527862.4863841264 ; 2.0294478111268875E8 ; 5.011967223890034E8 ; 3.731915673205812E10 ; 0.0
194 ; 2524880.2034482122 ; 2.0295549020058563E8 ; 5.0372458487538755E8 ; 3.752210151317081E10 ; 0.0
195 ; 2522579.7860221085 ; 2.0296615303046656E8 ; 5.062494650788358E8 ; 3.772505700337139E10 ; 0.0
196 ; 2513799.671015553 ; 2.029767693479558E8 ; 5.087720448648579E8 ; 3.7928023156401855E10 ; 0.0
197 ; 2515689.119270004 ; 2.0298733890059724E8 ; 5.112858445358735E8 ; 3.813099992574981E10 ; 0.0
198 ; 2514628.604197672 ; 2.02997861437834E8 ; 5.138015336551435E8 ; 3.8333987264650406E10 ; 0.0
199 ; 2510824.3038161206 ; 2.0300833671098852E8 ; 5.163161622593412E8 ; 3.853698512608824E10 ; 0.0
200 ; 2507938.3194064773 ; 2.0301876447324365E8 ; 5.188269865631573E8 ; 3.873999346279923E10 ; 0.0
