CSV File for the City 6 on Day 263
1 - Minute m 
2 - Power Consumed at minute m 
3 - Power Produced at minute m 
4 - Energy Consumed since the beginning of the day 
5 - Energy Produced since the beginning of the day 
6 - Energy Lost since the beginning of the day on lines starting from the city
 
0 ; 4013046.000172011 ; 1.0604136439423242E8 ; 0.0 ; 0.0 ; 0.0
1 ; 4023811.6526979306 ; 1.0619222104678053E8 ; 4013046.000172011 ; 1.0604136439423242E8 ; 0.0
2 ; 4033016.6831220496 ; 1.0665207198201427E8 ; 8036857.652869942 ; 2.1223358544101295E8 ; 0.0
3 ; 4044038.9096361133 ; 1.0742092121576756E8 ; 1.2069874335991992E7 ; 3.188856574230272E8 ; 0.0
4 ; 4060079.224239269 ; 1.0849877235140336E8 ; 1.6113913245628105E7 ; 4.263065786387948E8 ; 0.0
5 ; 4077549.168437704 ; 1.0988562855834872E8 ; 2.0173992469867375E7 ; 5.3480535099019814E8 ; 0.0
6 ; 4099780.318526934 ; 1.1158149255282459E8 ; 2.425154163830508E7 ; 6.446909795485468E8 ; 0.0
7 ; 4134911.155674366 ; 1.1358636658103848E8 ; 2.8351321956832014E7 ; 7.562724721013714E8 ; 0.0
8 ; 4185697.4528196407 ; 1.1590025240508085E8 ; 3.248623311250638E7 ; 8.698588386824099E8 ; 0.0
9 ; 4263227.875104733 ; 1.18523151291731E8 ; 3.667193056532602E7 ; 9.857590910874908E8 ; 0.0
10 ; 4381509.008516542 ; 1.2145506400433886E8 ; 4.093515844043075E7 ; 1.104282242379222E9 ; 0.0
11 ; 4578210.586883462 ; 1.2469599079790387E8 ; 4.5316667448947296E7 ; 1.2257373063835607E9 ; 0.0
12 ; 4893736.158517875 ; 1.2824593141742656E8 ; 4.989487803583076E7 ; 1.3504332971814644E9 ; 0.0
13 ; 5195964.109827663 ; 1.3210488509955698E8 ; 5.478861419434863E7 ; 1.478679228598891E9 ; 0.0
14 ; 5227300.812407583 ; 1.3627285057751596E8 ; 5.998457830417629E7 ; 1.610784113698448E9 ; 0.0
15 ; 5241314.745787374 ; 1.407498260892129E8 ; 6.521187911658388E7 ; 1.7470569642759638E9 ; 0.0
16 ; 5253352.929065773 ; 1.455358093884404E8 ; 7.045319386237125E7 ; 1.8878067903651767E9 ; 0.0
17 ; 5264851.900921528 ; 1.5063079775897744E8 ; 7.570654679143703E7 ; 2.033342599753617E9 ; 0.0
18 ; 5275404.559320197 ; 1.5603478803139699E8 ; 8.097139869235855E7 ; 2.1839733975125947E9 ; 0.0
19 ; 5287951.370992711 ; 1.6174777660233608E8 ; 8.624680325167875E7 ; 2.3400081855439916E9 ; 0.0
20 ; 5303729.35190152 ; 1.6776975945596078E8 ; 9.153475462267146E7 ; 2.5017559621463275E9 ; 0.0
21 ; 5313099.89406967 ; 1.7410073218733546E8 ; 9.683848397457297E7 ; 2.6695257216022882E9 ; 0.0
22 ; 5321437.554039868 ; 1.8074069002738994E8 ; 1.0215158386864264E8 ; 2.8436264537896237E9 ; 0.0
23 ; 5339509.395727702 ; 1.8768962786917192E8 ; 1.0747302142268251E8 ; 3.0243671438170137E9 ; 0.0
24 ; 5351020.649562671 ; 1.9494754029506826E8 ; 1.1281253081841022E8 ; 3.212056771686186E9 ; 0.0
25 ; 5361230.8145919815 ; 2.0120246250286865E8 ; 1.1816355146797289E8 ; 3.407004311981254E9 ; 0.0
26 ; 5374565.281985318 ; 2.0120793637089875E8 ; 1.2352478228256488E8 ; 3.6082067744841228E9 ; 0.0
27 ; 5382391.847504495 ; 2.0121372501123354E8 ; 1.2889934756455019E8 ; 3.8094147108550215E9 ; 0.0
28 ; 5398527.222051377 ; 2.0121982204458505E8 ; 1.342817394120547E8 ; 4.010628435866255E9 ; 0.0
29 ; 5408075.244285549 ; 2.0122622092122468E8 ; 1.3968026663410607E8 ; 4.21184825791084E9 ; 0.0
30 ; 5422376.03798611 ; 2.0123291494800296E8 ; 1.4508834187839162E8 ; 4.413074478832065E9 ; 0.0
31 ; 5432958.26035464 ; 2.012398973145195E8 ; 1.5051071791637772E8 ; 4.614307393780067E9 ; 0.0
32 ; 5446885.668048894 ; 2.0124716111827746E8 ; 1.5594367617673236E8 ; 4.815547291094587E9 ; 0.0
33 ; 5454468.528829031 ; 2.012546993886854E8 ; 1.6139056184478125E8 ; 5.016794452212865E9 ; 0.0
34 ; 5465993.5574266305 ; 2.0126250510979518E8 ; 1.668450303736103E8 ; 5.21804915160155E9 ; 0.0
35 ; 5474280.889292956 ; 2.0127057124169126E8 ; 1.7231102393103692E8 ; 5.419311656711346E9 ; 0.0
36 ; 5484834.750672281 ; 2.0127889074047098E8 ; 1.7778530482032987E8 ; 5.620582227953037E9 ; 0.0
37 ; 5491876.669789135 ; 2.012874565767778E8 ; 1.8327013957100216E8 ; 5.821861118693508E9 ; 0.0
38 ; 5504815.001516151 ; 2.0129626175287074E8 ; 1.887620162407913E8 ; 6.023148575270286E9 ; 0.0
39 ; 5514061.156445756 ; 2.0130529931823066E8 ; 1.9426683124230745E8 ; 6.224444837023156E9 ; 0.0
40 ; 5518858.833836456 ; 2.0131456238372117E8 ; 1.997808923987532E8 ; 6.425750136341387E9 ; 0.0
41 ; 5527631.741375087 ; 2.0132404413433528E8 ; 2.0529975123258966E8 ; 6.627064698725108E9 ; 0.0
42 ; 5534041.639581622 ; 2.0133373784057075E8 ; 2.1082738297396475E8 ; 6.828388742859444E9 ; 0.0
43 ; 5534615.744686179 ; 2.0134363686848646E8 ; 2.1636142461354637E8 ; 7.029722480700014E9 ; 0.0
44 ; 5547287.491447716 ; 2.013537346884999E8 ; 2.2189604035823256E8 ; 7.2310661175685005E9 ; 0.0
45 ; 5550819.568878509 ; 2.0136402488299167E8 ; 2.2744332784968027E8 ; 7.432419852257E9 ; 0.0
46 ; 5558228.877725941 ; 2.0137450115278646E8 ; 2.3299414741855878E8 ; 7.633783877139992E9 ; 0.0
47 ; 5561840.54147906 ; 2.0138515732258305E8 ; 2.385523762962847E8 ; 7.835158378292778E9 ; 0.0
48 ; 5566805.08907286 ; 2.013959873454072E8 ; 2.4411421683776376E8 ; 8.036543535615361E9 ; 0.0
49 ; 5568997.109866878 ; 2.0140698530616063E8 ; 2.496810219268366E8 ; 8.237939522960769E9 ; 0.0
50 ; 5567465.405735175 ; 2.0141814542433998E8 ; 2.552500190367035E8 ; 8.43934650826693E9 ; 0.0
51 ; 5570649.879283243 ; 2.0142946205599633E8 ; 2.6081748444243866E8 ; 8.640764653691269E9 ; 0.0
52 ; 5573902.15544915 ; 2.0144092969500512E8 ; 2.663881343217219E8 ; 8.842194115747265E9 ; 0.0
53 ; 5577138.20913974 ; 2.0145254297371286E8 ; 2.7196203647717106E8 ; 9.04363504544227E9 ; 0.0
54 ; 5580144.059260967 ; 2.0146429666302374E8 ; 2.775391746863108E8 ; 9.245087588415983E9 ; 0.0
55 ; 5581445.386081657 ; 2.0147618567198676E8 ; 2.831193187455718E8 ; 9.446551885079006E9 ; 0.0
56 ; 5585425.339972022 ; 2.014882050469394E8 ; 2.887007641316534E8 ; 9.648028070750994E9 ; 0.0
57 ; 5584851.08372062 ; 2.0150034997026098E8 ; 2.9428618947162545E8 ; 9.849516275797934E9 ; 0.0
58 ; 5586254.32348671 ; 2.0151261575878465E8 ; 2.998710405553461E8 ; 1.0051016625768194E10 ; 0.0
59 ; 5589614.511534566 ; 2.0152499786191398E8 ; 3.0545729487883276E8 ; 1.025252924152698E10 ; 0.0
60 ; 5588375.519576333 ; 2.0153749185948533E8 ; 3.110469093903673E8 ; 1.0454054239388893E10 ; 0.0
61 ; 5596213.619435455 ; 2.015500934594153E8 ; 3.1663528490994364E8 ; 1.0655591731248379E10 ; 0.0
62 ; 5594015.725908739 ; 2.0156279849516752E8 ; 3.2223149852937907E8 ; 1.0857141824707794E10 ; 0.0
63 ; 5595528.03886125 ; 2.015756029230714E8 ; 3.278255142552878E8 ; 1.1058704623202961E10 ; 0.0
64 ; 5596266.879353261 ; 2.0158850281952095E8 ; 3.334210422941491E8 ; 1.1260280226126032E10 ; 0.0
65 ; 5602019.804894572 ; 2.0160149437808007E8 ; 3.390173091735024E8 ; 1.1461868728945553E10 ; 0.0
66 ; 5601878.051423923 ; 2.016145739065176E8 ; 3.4461932897839695E8 ; 1.1663470223323633E10 ; 0.0
67 ; 5599165.327295469 ; 2.016277378237927E8 ; 3.5022120702982086E8 ; 1.186508479723015E10 ; 0.0
68 ; 5602366.134044904 ; 2.0164098265700912E8 ; 3.5582037235711634E8 ; 1.2066712535053944E10 ; 0.0
69 ; 5603138.532029224 ; 2.0165430503835467E8 ; 3.614227384911612E8 ; 1.2268353517710953E10 ; 0.0
70 ; 5601737.302227604 ; 2.0166770170204034E8 ; 3.6702587702319044E8 ; 1.2470007822749308E10 ; 0.0
71 ; 5602557.3963885605 ; 2.0168116948125142E8 ; 3.7262761432541806E8 ; 1.2671675524451347E10 ; 0.0
72 ; 5605749.782840699 ; 2.0169470530512172E8 ; 3.7823017172180665E8 ; 1.2873356693932598E10 ; 0.0
73 ; 5603471.74803032 ; 2.0170830619574025E8 ; 3.838359215046474E8 ; 1.307505139923772E10 ; 0.0
74 ; 5605065.136374927 ; 2.017219692651984E8 ; 3.894393932526777E8 ; 1.327675970543346E10 ; 0.0
75 ; 5605332.672817873 ; 2.017356917126845E8 ; 3.950444583890526E8 ; 1.3478481674698658E10 ; 0.0
76 ; 5605205.577802667 ; 2.0174947082163146E8 ; 4.006497910618705E8 ; 1.3680217366411343E10 ; 0.0
77 ; 5604706.836999663 ; 2.017633039569221E8 ; 4.062549966396732E8 ; 1.3881966837232975E10 ; 0.0
78 ; 5602532.71244805 ; 2.0177718856215674E8 ; 4.118597034766728E8 ; 1.4083730141189898E10 ; 0.0
79 ; 5597877.8846300375 ; 2.017911221569848E8 ; 4.174622361891209E8 ; 1.4285507329752054E10 ; 0.0
80 ; 5595228.754618502 ; 2.0180510233450446E8 ; 4.230601140737509E8 ; 1.4487298451909039E10 ; 0.0
81 ; 5591529.369311696 ; 2.0181912675873068E8 ; 4.2865534282836944E8 ; 1.4689103554243544E10 ; 0.0
82 ; 5585275.836083524 ; 2.018331931621338E8 ; 4.342468721976811E8 ; 1.4890922681002274E10 ; 0.0
83 ; 5578933.184167973 ; 2.01847299343249E8 ; 4.3983214803376466E8 ; 1.5092755874164408E10 ; 0.0
84 ; 5580316.620450718 ; 2.0186144316435692E8 ; 4.4541108121793264E8 ; 1.5294603173507656E10 ; 0.0
85 ; 5577198.160304938 ; 2.0187562254923597E8 ; 4.509913978383834E8 ; 1.5496464616672012E10 ; 0.0
86 ; 5566983.676121004 ; 2.0188983548098534E8 ; 4.5656859599868834E8 ; 1.5698340239221249E10 ; 0.0
87 ; 5564675.840693359 ; 2.019040799999183E8 ; 4.6213557967480934E8 ; 1.5900230074702234E10 ; 0.0
88 ; 5562194.039218206 ; 2.019183542015252E8 ; 4.677002555155027E8 ; 1.6102134154702152E10 ; 0.0
89 ; 5554242.538144551 ; 2.0193265623450497E8 ; 4.732624495547209E8 ; 1.6304052508903677E10 ; 0.0
90 ; 5552394.097355327 ; 2.019469842988639E8 ; 4.788166920928654E8 ; 1.6505985165138182E10 ; 0.0
91 ; 5543412.750814642 ; 2.0196133664408022E8 ; 4.843690861902207E8 ; 1.6707932149437046E10 ; 0.0
92 ; 5541758.221944202 ; 2.0197571156733376E8 ; 4.8991249894103533E8 ; 1.6909893486081127E10 ; 0.0
93 ; 5538638.837994836 ; 2.01990107411798E8 ; 4.9545425716297954E8 ; 1.711186919764846E10 ; 0.0
94 ; 5532081.843494549 ; 2.0200452256499404E8 ; 5.0099289600097436E8 ; 1.7313859305060257E10 ; 0.0
95 ; 5526182.5899526095 ; 2.0201895545720416E8 ; 5.065249778444689E8 ; 1.751586382762525E10 ; 0.0
96 ; 5517781.982844674 ; 2.0203340455994377E8 ; 5.120511604344215E8 ; 1.7717882783082455E10 ; 0.0
97 ; 5516028.408354523 ; 2.0204786838448933E8 ; 5.1756894241726613E8 ; 1.79199161876424E10 ; 0.0
98 ; 5510687.39565444 ; 2.0206234548046145E8 ; 5.2308497082562065E8 ; 1.812196405602689E10 ; 0.0
99 ; 5502833.645328547 ; 2.0207683443446088E8 ; 5.285956582212751E8 ; 1.832402640150735E10 ; 0.0
100 ; 5494974.300674655 ; 2.0209133386875558E8 ; 5.340984918666036E8 ; 1.852610323594181E10 ; 0.0
101 ; 5491596.846619623 ; 2.0210584244001758E8 ; 5.395934661672783E8 ; 1.8728194569810566E10 ; 0.0
102 ; 5489038.328869856 ; 2.0212035883810788E8 ; 5.450850630138979E8 ; 1.8930300412250584E10 ; 0.0
103 ; 5482106.259640611 ; 2.0213488178490728E8 ; 5.505741013427677E8 ; 1.913242077108869E10 ; 0.0
104 ; 5472536.595531176 ; 2.0214941003319213E8 ; 5.560562076024083E8 ; 1.93345556528736E10 ; 0.0
105 ; 5466548.76123304 ; 2.021639423655531E8 ; 5.615287441979395E8 ; 1.953670506290679E10 ; 0.0
106 ; 5462481.253264177 ; 2.0217847759335533E8 ; 5.669952929591726E8 ; 1.9738869005272346E10 ; 0.0
107 ; 5453912.059336866 ; 2.0219301455573854E8 ; 5.724577742124368E8 ; 1.9941047482865704E10 ; 0.0
108 ; 5449141.188549871 ; 2.0220755211865586E8 ; 5.779116862717737E8 ; 2.0143240497421444E10 ; 0.0
109 ; 5440288.531335752 ; 2.0222208917394945E8 ; 5.833608274603236E8 ; 2.03454480495401E10 ; 0.0
110 ; 5432279.660440805 ; 2.0223662463846186E8 ; 5.888011159916593E8 ; 2.054767013871405E10 ; 0.0
111 ; 5427981.768317588 ; 2.022511574531817E8 ; 5.942333956521001E8 ; 2.0749906763352512E10 ; 0.0
112 ; 5417803.227110338 ; 2.022656865824224E8 ; 5.996613774204177E8 ; 2.0952157920805695E10 ; 0.0
113 ; 5415857.855472337 ; 2.0228021101303223E8 ; 6.05079180647528E8 ; 2.115442360738812E10 ; 0.0
114 ; 5407446.649811341 ; 2.022947297536354E8 ; 6.104950385030004E8 ; 2.135670381840115E10 ; 0.0
115 ; 5399492.683617562 ; 2.0230924183390203E8 ; 6.159024851528118E8 ; 2.1558998548154785E10 ; 0.0
116 ; 5390770.083086469 ; 2.023237463038462E8 ; 6.213019778364294E8 ; 2.1761307789988686E10 ; 0.0
117 ; 5383936.365163249 ; 2.0233824223315147E8 ; 6.266927479195158E8 ; 2.196363153629253E10 ; 0.0
118 ; 5376875.551068176 ; 2.023527287105217E8 ; 6.32076684284679E8 ; 2.216596977852568E10 ; 0.0
119 ; 5368631.824526423 ; 2.023672048430574E8 ; 6.374535598357472E8 ; 2.2368322507236202E10 ; 0.0
120 ; 5362984.862401991 ; 2.0238166975565565E8 ; 6.428221916602737E8 ; 2.2570689712079258E10 ; 0.0
121 ; 5355619.216703326 ; 2.023961225904331E8 ; 6.481851765226756E8 ; 2.2773071381834915E10 ; 0.0
122 ; 5347489.926419357 ; 2.0241056250617105E8 ; 6.535407957393789E8 ; 2.2975467504425346E10 ; 0.0
123 ; 5339249.359507493 ; 2.024249886777816E8 ; 6.588882856657983E8 ; 2.317787806693152E10 ; 0.0
124 ; 5330519.196817898 ; 2.0243940029579446E8 ; 6.642275350253057E8 ; 2.33803030556093E10 ; 0.0
125 ; 5325887.366541016 ; 2.0245379656586272E8 ; 6.695580542221236E8 ; 2.3582742455905094E10 ; 0.0
126 ; 5316422.293379872 ; 2.0246817670828784E8 ; 6.748839415886647E8 ; 2.378519625247096E10 ; 0.0
127 ; 5305966.158123886 ; 2.024825399575625E8 ; 6.802003638820446E8 ; 2.3987664429179245E10 ; 0.0
128 ; 5298213.936079036 ; 2.0249688556193063E8 ; 6.855063300401684E8 ; 2.4190146969136806E10 ; 0.0
129 ; 5289097.188251082 ; 2.0251121278296393E8 ; 6.908045439762474E8 ; 2.439264385469874E10 ; 0.0
130 ; 5281193.040749919 ; 2.0252552089515465E8 ; 6.960936411644986E8 ; 2.45951550674817E10 ; 0.0
131 ; 5268943.794998705 ; 2.0253980918552327E8 ; 7.013748342052485E8 ; 2.4797680588376854E10 ; 0.0
132 ; 5257195.988188344 ; 2.02554076953241E8 ; 7.066437780002472E8 ; 2.5000220397562378E10 ; 0.0
133 ; 5243242.1940322425 ; 2.0256832350926635E8 ; 7.119009739884356E8 ; 2.5202774474515617E10 ; 0.0
134 ; 5232116.543075905 ; 2.0258254817599523E8 ; 7.171442161824678E8 ; 2.5405342798024883E10 ; 0.0
135 ; 5221337.745388927 ; 2.0259675028692406E8 ; 7.223763327255437E8 ; 2.560792534620088E10 ; 0.0
136 ; 5203772.6717922725 ; 2.0261092918632516E8 ; 7.275976704709327E8 ; 2.58105220964878E10 ; 0.0
137 ; 5195258.744389647 ; 2.0262508422893426E8 ; 7.32801443142725E8 ; 2.6013133025674126E10 ; 0.0
138 ; 5177245.418064212 ; 2.0263921477964953E8 ; 7.379967018871146E8 ; 2.621575810990306E10 ; 0.0
139 ; 5168810.587354459 ; 2.0265332021324155E8 ; 7.431739473051789E8 ; 2.641839732468271E10 ; 0.0
140 ; 5153629.9594836775 ; 2.026673999140739E8 ; 7.483427578925333E8 ; 2.662105064489595E10 ; 0.0
141 ; 5139623.903219813 ; 2.0268145327583396E8 ; 7.534963878520169E8 ; 2.6823718044810024E10 ; 0.0
142 ; 5127849.219899713 ; 2.0269547970127344E8 ; 7.586360117552367E8 ; 2.7026399498085857E10 ; 0.0
143 ; 5114813.753283062 ; 2.0270947860195833E8 ; 7.637638609751364E8 ; 2.7229094977787132E10 ; 0.0
144 ; 5102084.917301288 ; 2.0272344939802796E8 ; 7.688786747284194E8 ; 2.743180445638909E10 ; 0.0
145 ; 5089157.398112538 ; 2.0273739151796257E8 ; 7.739807596457207E8 ; 2.763452790578712E10 ; 0.0
146 ; 5083708.1790803755 ; 2.0275130439835942E8 ; 7.790699170438333E8 ; 2.7837265297305084E10 ; 0.0
147 ; 5075702.371762843 ; 2.0276518748371673E8 ; 7.841536252229136E8 ; 2.8040016601703445E10 ; 0.0
148 ; 5065585.97019559 ; 2.027790402262253E8 ; 7.892293275946765E8 ; 2.824278178918716E10 ; 0.0
149 ; 5056975.527785744 ; 2.0279286208556783E8 ; 7.94294913564872E8 ; 2.8445560829413387E10 ; 0.0
150 ; 5046366.997516128 ; 2.028066525287251E8 ; 7.993518890926578E8 ; 2.8648353691498955E10 ; 0.0
151 ; 5039916.070084425 ; 2.0282041102978885E8 ; 8.04398256090174E8 ; 2.885116034402768E10 ; 0.0
152 ; 5030029.828900336 ; 2.0283413706978175E8 ; 8.094381721602584E8 ; 2.905398075505747E10 ; 0.0
153 ; 5024188.582206266 ; 2.0284783013648325E8 ; 8.144682019891587E8 ; 2.925681489212725E10 ; 0.0
154 ; 5014086.364377001 ; 2.028614897242616E8 ; 8.19492390571365E8 ; 2.9459662722263733E10 ; 0.0
155 ; 5005398.167209432 ; 2.0287511533391193E8 ; 8.24506476935742E8 ; 2.9662524211987995E10 ; 0.0
156 ; 4993149.8029253 ; 2.0288870647249973E8 ; 8.295118751029514E8 ; 2.9865399327321907E10 ; 0.0
157 ; 4986803.103542786 ; 2.0290226265320992E8 ; 8.345050249058768E8 ; 3.0068288033794407E10 ; 0.0
158 ; 4978050.091237626 ; 2.0291578339520106E8 ; 8.394918280094196E8 ; 3.0271190296447617E10 ; 0.0
159 ; 4966743.434755163 ; 2.0292926822346452E8 ; 8.444698781006572E8 ; 3.047410607984282E10 ; 0.0
160 ; 4959462.935465227 ; 2.0294271666868868E8 ; 8.494366215354124E8 ; 3.0677035348066284E10 ; 0.0
161 ; 4948616.412050294 ; 2.0295612826712763E8 ; 8.543960844708776E8 ; 3.0879978064734974E10 ; 0.0
162 ; 4939357.281988262 ; 2.029695025604743E8 ; 8.593447008829279E8 ; 3.10829341930021E10 ; 0.0
163 ; 4933207.1122270515 ; 2.029828390957381E8 ; 8.642840581649162E8 ; 3.1285903695562576E10 ; 0.0
164 ; 4924139.078022566 ; 2.0299613742512655E8 ; 8.692172652771432E8 ; 3.1488886534658314E10 ; 0.0
165 ; 4911209.979186693 ; 2.03009397105931E8 ; 8.741414043551658E8 ; 3.169188267208344E10 ; 0.0
166 ; 4907241.777144295 ; 2.0302261770041618E8 ; 8.790526143343525E8 ; 3.189489206918937E10 ; 0.0
167 ; 4897198.035176373 ; 2.030357987757134E8 ; 8.839598561114968E8 ; 3.2097914686889786E10 ; 0.0
168 ; 4887476.726438982 ; 2.0304893990371752E8 ; 8.888570541466732E8 ; 3.23009504856655E10 ; 0.0
169 ; 4877237.348098424 ; 2.0306204066098705E8 ; 8.937445308731122E8 ; 3.2503999425569218E10 ; 0.0
170 ; 4867196.3318358725 ; 2.0307510062864795E8 ; 8.986217682212106E8 ; 3.2707061466230206E10 ; 0.0
171 ; 4856911.231310262 ; 2.0308811939230037E8 ; 9.034889645530465E8 ; 3.2910136566858852E10 ; 0.0
172 ; 4847455.913484507 ; 2.0310109654192856E8 ; 9.083458757843567E8 ; 3.3113224686251152E10 ; 0.0
173 ; 4841639.95154554 ; 2.0311403167181376E8 ; 9.131933316978412E8 ; 3.331632578279308E10 ; 0.0
174 ; 4831508.6273705885 ; 2.0312692438044992E8 ; 9.180349716493868E8 ; 3.3519439814464893E10 ; 0.0
175 ; 4826004.660092957 ; 2.0313977427046233E8 ; 9.228664802767574E8 ; 3.3722566738845345E10 ; 0.0
176 ; 4818277.611731741 ; 2.0315258094852877E8 ; 9.276924849368503E8 ; 3.3925706513115807E10 ; 0.0
177 ; 4809946.770148225 ; 2.0316534402530318E8 ; 9.325107625485821E8 ; 3.4128859094064335E10 ; 0.0
178 ; 4806513.521270925 ; 2.0317806311534214E8 ; 9.373207093187304E8 ; 3.4332024438089638E10 ; 0.0
179 ; 4797374.699241912 ; 2.0319073783703333E8 ; 9.421272228400012E8 ; 3.453520250120498E10 ; 0.0
180 ; 4790852.082000977 ; 2.032033678125266E8 ; 9.469245975392431E8 ; 3.4738393239042015E10 ; 0.0
181 ; 4781964.792309491 ; 2.0321595266766727E8 ; 9.517154496212441E8 ; 3.494159660685454E10 ; 0.0
182 ; 4776533.988088674 ; 2.0322849203193122E8 ; 9.564974144135536E8 ; 3.51448125595222E10 ; 0.0
183 ; 4767269.5440747375 ; 2.0324098553836265E8 ; 9.612739484016423E8 ; 3.534804105155413E10 ; 0.0
184 ; 4760658.658224894 ; 2.0325343282351342E8 ; 9.660412179457171E8 ; 3.555128203709249E10 ; 0.0
185 ; 4753064.138708823 ; 2.032658335273843E8 ; 9.70801876603942E8 ; 3.575453546991601E10 ; 0.0
186 ; 4745986.788690325 ; 2.0327818729336858E8 ; 9.755549407426509E8 ; 3.595780130344339E10 ; 0.0
187 ; 4739623.318821212 ; 2.032904937681967E8 ; 9.803009275313412E8 ; 3.6161079490736755E10 ; 0.0
188 ; 4730904.008770367 ; 2.0330275260188356E8 ; 9.850405508501624E8 ; 3.636436998450495E10 ; 0.0
189 ; 4725632.705180847 ; 2.033149634476767E8 ; 9.897714548589327E8 ; 3.6567672737106834E10 ; 0.0
190 ; 4719688.138347957 ; 2.0332712596200654E8 ; 9.944970875641136E8 ; 3.677098770055451E10 ; 0.0
191 ; 4710857.4341351595 ; 2.0333923980443817E8 ; 9.992167757024616E8 ; 3.697431482651652E10 ; 0.0
192 ; 4703004.906035169 ; 2.033513046376246E8 ; 1.0039276331365968E9 ; 3.717765406632095E10 ; 0.0
193 ; 4693267.5610686075 ; 2.0336332012726134E8 ; 1.008630638042632E9 ; 3.738100537095858E10 ; 0.0
194 ; 4689135.024770109 ; 2.0337528594204277E8 ; 1.0133239056037006E9 ; 3.758436869108584E10 ; 0.0
195 ; 4684247.244727746 ; 2.0338720175361943E8 ; 1.0180130406284708E9 ; 3.778774397702788E10 ; 0.0
196 ; 4676436.846635684 ; 2.0339906723655707E8 ; 1.0226972878731985E9 ; 3.7991131178781494E10 ; 0.0
197 ; 4666601.641202801 ; 2.0341088206829664E8 ; 1.0273737247198342E9 ; 3.819453024601805E10 ; 0.0
198 ; 4663350.345829777 ; 2.0342264592911577E8 ; 1.032040326361037E9 ; 3.839794112808635E10 ; 0.0
199 ; 4651255.503042154 ; 2.0343435850209132E8 ; 1.0367036767068667E9 ; 3.8601363774015465E10 ; 0.0
200 ; 4643964.423754573 ; 1.9048314426587906E8 ; 1.0413549322099088E9 ; 3.8804798132517555E10 ; 0.0
201 ; 4639799.21202631 ; 1.5461763531174284E8 ; 1.0459988966336634E9 ; 3.899528127678343E10 ; 0.0
