CSV File for the City 1 on Day 184
1 - Minute m 
2 - Power Consumed at minute m 
3 - Power Produced at minute m 
4 - Energy Consumed since the beginning of the day 
5 - Energy Produced since the beginning of the day 
6 - Energy Lost since the beginning of the day on lines starting from the city
 
0 ; 3114757.5106669264 ; 1.0547257122618607E8 ; 0.0 ; 0.0 ; 0.0
1 ; 3130583.5476477146 ; 1.0562546363534313E8 ; 3114757.5106669264 ; 1.0547257122618607E8 ; 0.0
2 ; 3145306.9909538776 ; 1.0608714249531081E8 ; 6245341.058314641 ; 2.110980348615292E8 ; 0.0
3 ; 3167419.8287168317 ; 1.0685760971512818E8 ; 9390648.049268518 ; 3.1718517735684E8 ; 0.0
4 ; 3188238.0216759066 ; 1.0793686701259553E8 ; 1.2558067877985349E7 ; 4.240427870719682E8 ; 0.0
5 ; 3220105.6771910703 ; 1.0932491590243447E8 ; 1.5746305899661256E7 ; 5.3197965408456373E8 ; 0.0
6 ; 3253821.444280703 ; 1.11021757685595E8 ; 1.8966411576852325E7 ; 6.413045699869982E8 ; 0.0
7 ; 3311775.9319945993 ; 1.130273934398812E8 ; 2.2220233021133028E7 ; 7.523263276725932E8 ; 0.0
8 ; 3387496.7230620356 ; 1.1534182401205045E8 ; 2.5532008953127626E7 ; 8.653537211124744E8 ; 0.0
9 ; 3507057.1461282624 ; 1.1796505001152158E8 ; 2.891950567618966E7 ; 9.806955451245248E8 ; 0.0
10 ; 3681527.005192724 ; 1.2089707180579895E8 ; 3.2426562822317924E7 ; 1.0986605951360464E9 ; 0.0
11 ; 3968216.053820008 ; 1.2413788951769444E8 ; 3.610808982751065E7 ; 1.2195576669418454E9 ; 0.0
12 ; 4436537.995515128 ; 1.2768750302439615E8 ; 4.0076305881330654E7 ; 1.34369555645954E9 ; 0.0
13 ; 4882373.870458198 ; 1.3154591195839971E8 ; 4.4512843876845784E7 ; 1.471383059483936E9 ; 0.0
14 ; 4938108.528700378 ; 1.3571311571028638E8 ; 4.9395217747303985E7 ; 1.6029289714423358E9 ; 0.0
15 ; 4958143.36297878 ; 1.4018911343329865E8 ; 5.433332627600436E7 ; 1.7386420871526222E9 ; 0.0
16 ; 4978657.971112172 ; 1.4497390404963258E8 ; 5.929146963898314E7 ; 1.8788312005859208E9 ; 0.0
17 ; 4997462.369058997 ; 1.5006748625833806E8 ; 6.427012761009531E7 ; 2.0238051046355534E9 ; 0.0
18 ; 5018216.588969549 ; 1.5546985854469353E8 ; 6.92675899791543E7 ; 2.1738725908938913E9 ; 0.0
19 ; 5035897.742607392 ; 1.611810191908987E8 ; 7.428580656812385E7 ; 2.329342449438585E9 ; 0.0
20 ; 5057923.147741399 ; 1.6720096628791443E8 ; 7.932170431073123E7 ; 2.4905234686294837E9 ; 0.0
21 ; 5084086.70219506 ; 1.7352969774826524E8 ; 8.437962745847262E7 ; 2.657724434917398E9 ; 0.0
22 ; 5102402.69626554 ; 1.8016721131961405E8 ; 8.946371416066769E7 ; 2.8312541326656632E9 ; 0.0
23 ; 5124265.408202131 ; 1.8711350459891564E8 ; 9.456611685693322E7 ; 3.011421343985277E9 ; 0.0
24 ; 5146887.877707491 ; 1.9436857504695827E8 ; 9.969038226513535E7 ; 3.1985348485841928E9 ; 0.0
25 ; 5167569.401155239 ; 2.0062046090129378E8 ; 1.0483727014284284E8 ; 3.392903423631151E9 ; 0.0
26 ; 5183713.38576943 ; 2.0062270722790822E8 ; 1.1000483954399808E8 ; 3.593523884532445E9 ; 0.0
27 ; 5210109.350967291 ; 2.0062508046076876E8 ; 1.151885529297675E8 ; 3.794146591760353E9 ; 0.0
28 ; 5227560.511909334 ; 2.0062757766296104E8 ; 1.2039866228073479E8 ; 3.994771672221122E9 ; 0.0
29 ; 5252573.368382368 ; 2.006301958338916E8 ; 1.2562622279264413E8 ; 4.195399249884083E9 ; 0.0
30 ; 5272192.615317455 ; 2.006329319227248E8 ; 1.308787961610265E8 ; 4.396029445717975E9 ; 0.0
31 ; 5290275.917107031 ; 2.0063578284120673E8 ; 1.3615098877634394E8 ; 4.596662377640699E9 ; 0.0
32 ; 5309294.219424433 ; 2.006387454757994E8 ; 1.41441264693451E8 ; 4.797298160481906E9 ; 0.0
33 ; 5330460.031128216 ; 2.0064181669906828E8 ; 1.467505589128754E8 ; 4.9979369059577055E9 ; 0.0
34 ; 5351638.589488618 ; 2.0064499338028038E8 ; 1.5208101894400364E8 ; 5.198578722656774E9 ; 0.0
35 ; 5364903.441504934 ; 2.0064827239518785E8 ; 1.5743265753349227E8 ; 5.399223716037054E9 ; 0.0
36 ; 5389800.825260432 ; 2.006516506349839E8 ; 1.627975609749972E8 ; 5.599871988432241E9 ; 0.0
37 ; 5401614.294678083 ; 2.0065512501443142E8 ; 1.6818736180025762E8 ; 5.800523639067225E9 ; 0.0
38 ; 5421238.155756317 ; 2.0065869247917533E8 ; 1.7358897609493572E8 ; 6.001178764081656E9 ; 0.0
39 ; 5438570.177944384 ; 2.0066235001225805E8 ; 1.7901021425069204E8 ; 6.201837456560832E9 ; 0.0
40 ; 5448568.65919736 ; 2.0066609463986585E8 ; 1.8444878442863643E8 ; 6.40249980657309E9 ; 0.0
41 ; 5465768.99155308 ; 2.0066992343633947E8 ; 1.898973530878338E8 ; 6.603165901212955E9 ; 0.0
42 ; 5482679.651220383 ; 2.0067383352848706E8 ; 1.9536312207938686E8 ; 6.803835824649295E9 ; 0.0
43 ; 5493459.013708463 ; 2.0067782209924066E8 ; 2.0084580173060724E8 ; 7.004509658177782E9 ; 0.0
44 ; 5503965.552468507 ; 2.0068188639070028E8 ; 2.063392607443157E8 ; 7.205187480277022E9 ; 0.0
45 ; 5518262.034087741 ; 2.0068602370661008E8 ; 2.1184322629678422E8 ; 7.405869366667723E9 ; 0.0
46 ; 5526003.919449218 ; 2.0069023141431186E8 ; 2.1736148833087197E8 ; 7.606555390374332E9 ; 0.0
47 ; 5537673.280312943 ; 2.0069450694622108E8 ; 2.2288749225032118E8 ; 7.807245621788644E9 ; 0.0
48 ; 5546067.225316722 ; 2.0069884780086905E8 ; 2.2842516553063414E8 ; 8.007940128734865E9 ; 0.0
49 ; 5556306.678809155 ; 2.007032515435537E8 ; 2.3397123275595087E8 ; 8.208638976535734E9 ; 0.0
50 ; 5560834.81617908 ; 2.0070771580663997E8 ; 2.3952753943476003E8 ; 8.409342228079288E9 ; 0.0
51 ; 5567380.9745774735 ; 2.0071223828954828E8 ; 2.450883742509391E8 ; 8.610049943885927E9 ; 0.0
52 ; 5575074.089729758 ; 2.0071681675846747E8 ; 2.506557552255166E8 ; 8.810762182175476E9 ; 0.0
53 ; 5579902.741158551 ; 2.0072144904582632E8 ; 2.5623082931524634E8 ; 9.011478998933943E9 ; 0.0
54 ; 5589102.327704279 ; 2.007261330495552E8 ; 2.618107320564049E8 ; 9.212200447979769E9 ; 0.0
55 ; 5600740.242754246 ; 2.0073086673216727E8 ; 2.6739983438410917E8 ; 9.412926581029324E9 ; 0.0
56 ; 5603567.853765297 ; 2.0073564811968535E8 ; 2.730005746268634E8 ; 9.613657447761492E9 ; 0.0
57 ; 5606920.969104441 ; 2.0074047530043975E8 ; 2.786041424806287E8 ; 9.814393095881178E9 ; 0.0
58 ; 5615286.790034614 ; 2.0074534642375836E8 ; 2.842110634497332E8 ; 1.0015133571181618E10 ; 0.0
59 ; 5620564.269210738 ; 2.0075025969856972E8 ; 2.898263502397678E8 ; 1.0215878917605375E10 ; 0.0
60 ; 5628257.360345797 ; 2.0075521339193648E8 ; 2.9544691450897855E8 ; 1.0416629177303946E10 ; 0.0
61 ; 5633177.222216407 ; 2.0076020582753563E8 ; 3.010751718693243E8 ; 1.0617384390695883E10 ; 0.0
62 ; 5638619.501611829 ; 2.0076523538409936E8 ; 3.0670834909154075E8 ; 1.0818144596523418E10 ; 0.0
63 ; 5642120.886877921 ; 2.007703004938299E8 ; 3.123469685931526E8 ; 1.1018909831907518E10 ; 0.0
64 ; 5650572.8069158215 ; 2.007753996407985E8 ; 3.179890894800305E8 ; 1.1219680132401348E10 ; 0.0
65 ; 5654414.137937937 ; 2.0078053135933894E8 ; 3.236396622869463E8 ; 1.1420455532042147E10 ; 0.0
66 ; 5656632.149884307 ; 2.0078569423244348E8 ; 3.2929407642488426E8 ; 1.1621236063401485E10 ; 0.0
67 ; 5668423.260870518 ; 2.007908868901692E8 ; 3.3495070857476854E8 ; 1.1822021757633928E10 ; 0.0
68 ; 5669641.271495804 ; 2.0079610800806007E8 ; 3.4061913183563906E8 ; 1.2022812644524097E10 ; 0.0
69 ; 5673842.312280593 ; 2.0080135630559057E8 ; 3.462887731071349E8 ; 1.2223608752532158E10 ; 0.0
70 ; 5681733.84657382 ; 2.0080663054463544E8 ; 3.519626154194155E8 ; 1.2424410108837748E10 ; 0.0
71 ; 5683761.99674371 ; 2.0081192952796862E8 ; 3.576443492659893E8 ; 1.2625216739382383E10 ; 0.0
72 ; 5692260.7345715305 ; 2.00817252097795E8 ; 3.6332811126273304E8 ; 1.2826028668910353E10 ; 0.0
73 ; 5694384.553862237 ; 2.0082259713431713E8 ; 3.6902037199730456E8 ; 1.3026845921008148E10 ; 0.0
74 ; 5701712.128063007 ; 2.008279635543387E8 ; 3.747147565511668E8 ; 1.3227668518142466E10 ; 0.0
75 ; 5698286.314745489 ; 2.0083335030990642E8 ; 3.804164686792298E8 ; 1.3428496481696804E10 ; 0.0
76 ; 5702168.437226314 ; 2.008387563869912E8 ; 3.861147549939753E8 ; 1.362932983200671E10 ; 0.0
77 ; 5706419.191508774 ; 2.008441808042094E8 ; 3.918169234312016E8 ; 1.3830168588393702E10 ; 0.0
78 ; 5708678.582607646 ; 2.0084962261158448E8 ; 3.9752334262271035E8 ; 1.403101276919791E10 ; 0.0
79 ; 5711536.370217501 ; 2.0085508088934892E8 ; 4.03232021205318E8 ; 1.4231862391809494E10 ; 0.0
80 ; 5706809.879260887 ; 2.0086055474678695E8 ; 4.089435575755355E8 ; 1.4432717472698843E10 ; 0.0
81 ; 5702674.662635413 ; 2.0086604332111695E8 ; 4.146503674547964E8 ; 1.463357802744563E10 ; 0.0
82 ; 5703791.467178088 ; 2.008715457764138E8 ; 4.2035304211743176E8 ; 1.4834444070766747E10 ; 0.0
83 ; 5696402.572841895 ; 2.008770613025699E8 ; 4.2605683358460987E8 ; 1.503531561654316E10 ; 0.0
84 ; 5695956.919401593 ; 2.008825891142949E8 ; 4.3175323615745175E8 ; 1.523619267784573E10 ; 0.0
85 ; 5696726.966058372 ; 2.008881284501525E8 ; 4.3744919307685333E8 ; 1.5437075266960024E10 ; 0.0
86 ; 5695668.54057326 ; 2.008936785716341E8 ; 4.431459200429117E8 ; 1.5637963395410177E10 ; 0.0
87 ; 5687300.941418158 ; 2.008992387622683E8 ; 4.4884158858348495E8 ; 1.5838857073981812E10 ; 0.0
88 ; 5686569.256544157 ; 2.0090480832676452E8 ; 4.545288895249031E8 ; 1.603975631274408E10 ; 0.0
89 ; 5684049.818171811 ; 2.0091038659019083E8 ; 4.602154587814473E8 ; 1.6240661121070845E10 ; 0.0
90 ; 5682668.355199527 ; 2.009159728971843E8 ; 4.658995085996191E8 ; 1.6441571507661036E10 ; 0.0
91 ; 5675618.117183678 ; 2.0092156661119282E8 ; 4.715821769548186E8 ; 1.664248748055822E10 ; 0.0
92 ; 5675242.037773907 ; 2.0092716711374745E8 ; 4.772577950720023E8 ; 1.6843409047169413E10 ; 0.0
93 ; 5669474.521118015 ; 2.009327738037644E8 ; 4.829330371097762E8 ; 1.704433621428316E10 ; 0.0
94 ; 5662604.423891434 ; 2.009383860968754E8 ; 4.886025116308942E8 ; 1.7245268988086926E10 ; 0.0
95 ; 5663744.651218584 ; 2.009440034247854E8 ; 4.942651160547856E8 ; 1.74462073741838E10 ; 0.0
96 ; 5656941.468313828 ; 2.0094962523465672E8 ; 4.999288607060042E8 ; 1.7647151377608585E10 ; 0.0
97 ; 5654515.619064824 ; 2.0095525098851857E8 ; 5.05585802174318E8 ; 1.7848101002843243E10 ; 0.0
98 ; 5649792.006768263 ; 2.00960880162701E8 ; 5.112403177933828E8 ; 1.804905625383176E10 ; 0.0
99 ; 5645116.584270042 ; 2.0096651224729234E8 ; 5.168901098001511E8 ; 1.825001713399446E10 ; 0.0
100 ; 5644301.079165069 ; 2.0097214674561894E8 ; 5.2253522638442117E8 ; 1.8450983646241753E10 ; 0.0
101 ; 5636615.400927556 ; 2.009777831737469E8 ; 5.281795274635862E8 ; 1.8651955792987373E10 ; 0.0
102 ; 5636643.750557913 ; 2.0098342106000423E8 ; 5.3381614286451375E8 ; 1.885293357616112E10 ; 0.0
103 ; 5628877.139865487 ; 2.0098905994452295E8 ; 5.394527866150717E8 ; 1.9053916997221127E10 ; 0.0
104 ; 5623915.748496807 ; 2.009946993788004E8 ; 5.450816637549372E8 ; 1.925490605716565E10 ; 0.0
105 ; 5623009.189550239 ; 2.010003389252787E8 ; 5.50705579503434E8 ; 1.945590075654445E10 ; 0.0
106 ; 5613021.482656304 ; 2.010059781569417E8 ; 5.563285886929842E8 ; 1.9656901095469727E10 ; 0.0
107 ; 5605835.425005216 ; 2.0101161665692893E8 ; 5.619416101756406E8 ; 1.9857907073626667E10 ; 0.0
108 ; 5600705.954223696 ; 2.010172540181651E8 ; 5.675474456006458E8 ; 2.0058918690283596E10 ; 0.0
109 ; 5594955.862903549 ; 2.010228898430056E8 ; 5.731481515548695E8 ; 2.025993594430176E10 ; 0.0
110 ; 5593790.974594022 ; 2.0102852374289623E8 ; 5.787431074177731E8 ; 2.0460958834144768E10 ; 0.0
111 ; 5583102.363196711 ; 2.010341553380473E8 ; 5.843368983923671E8 ; 2.0661987357887665E10 ; 0.0
112 ; 5577929.197949424 ; 2.010397842571211E8 ; 5.899200007555639E8 ; 2.086302151322571E10 ; 0.0
113 ; 5571727.464299527 ; 2.010454101369322E8 ; 5.954979299535133E8 ; 2.1064061297482834E10 ; 0.0
114 ; 5566818.159496721 ; 2.0105103262216032E8 ; 6.010696574178128E8 ; 2.1265106707619766E10 ; 0.0
115 ; 5563940.824140442 ; 2.010566513650747E8 ; 6.066364755773095E8 ; 2.146615774024193E10 ; 0.0
116 ; 5555360.6690121675 ; 2.010622660252701E8 ; 6.122004164014499E8 ; 2.1667214391607002E10 ; 0.0
117 ; 5550339.076546082 ; 2.010678762694134E8 ; 6.177557770704621E8 ; 2.186827665763227E10 ; 0.0
118 ; 5542678.112117699 ; 2.010734817710005E8 ; 6.233061161470082E8 ; 2.2069344533901684E10 ; 0.0
119 ; 5533593.060930588 ; 2.0107908221012336E8 ; 6.288487942591258E8 ; 2.2270418015672684E10 ; 0.0
120 ; 5526613.9863844365 ; 2.010846772732462E8 ; 6.343823873200564E8 ; 2.247149709788281E10 ; 0.0
121 ; 5522566.356646456 ; 2.0109026665299106E8 ; 6.399090013064408E8 ; 2.2672581775156055E10 ; 0.0
122 ; 5509985.083260857 ; 2.0109585004793182E8 ; 6.454315676630872E8 ; 2.2873672041809048E10 ; 0.0
123 ; 5503145.116985415 ; 2.0110142716239652E8 ; 6.509415527463481E8 ; 2.307476789185698E10 ; 0.0
124 ; 5496386.300477333 ; 2.011069977062777E8 ; 6.564446978633336E8 ; 2.3275869319019375E10 ; 0.0
125 ; 5490691.259632294 ; 2.0111256139485037E8 ; 6.61941084163811E8 ; 2.347697631672565E10 ; 0.0
126 ; 5481669.015219524 ; 2.0111811794859704E8 ; 6.674317754234433E8 ; 2.3678088878120502E10 ; 0.0
127 ; 5473709.821482934 ; 2.0112366709303996E8 ; 6.729134444386629E8 ; 2.38792069960691E10 ; 0.0
128 ; 5466873.1211217875 ; 2.011292085585797E8 ; 6.783871542601458E8 ; 2.408033066316214E10 ; 0.0
129 ; 5455165.515484518 ; 2.0113474208034056E8 ; 6.838540273812675E8 ; 2.428145987172072E10 ; 0.0
130 ; 5444262.262247424 ; 2.011402673980216E8 ; 6.893091928967521E8 ; 2.448259461380106E10 ; 0.0
131 ; 5433022.360239951 ; 2.0114578425575373E8 ; 6.947534551589996E8 ; 2.468373488119908E10 ; 0.0
132 ; 5419075.985929957 ; 2.011512924019624E8 ; 7.001864775192395E8 ; 2.4884880665454834E10 ; 0.0
133 ; 5401552.364368839 ; 2.0115679158923575E8 ; 7.056055535051695E8 ; 2.5086031957856796E10 ; 0.0
134 ; 5388426.688189861 ; 2.0116228157419747E8 ; 7.110071058695383E8 ; 2.5287188749446033E10 ; 0.0
135 ; 5374927.172202323 ; 2.0116776211738512E8 ; 7.163955325577282E8 ; 2.548835103102023E10 ; 0.0
136 ; 5360478.4910115 ; 2.011732329831327E8 ; 7.217704597299305E8 ; 2.5689518793137615E10 ; 0.0
137 ; 5348844.906687397 ; 2.01178693939458E8 ; 7.27130938220942E8 ; 2.5890692026120747E10 ; 0.0
138 ; 5331724.918837119 ; 2.011841447579542E8 ; 7.324797831276294E8 ; 2.6091870720060204E10 ; 0.0
139 ; 5315232.109043637 ; 2.0118958521368545E8 ; 7.378115080464665E8 ; 2.6293054864818157E10 ; 0.0
140 ; 5300801.25898352 ; 2.011950150850867E8 ; 7.431267401555101E8 ; 2.649424445003184E10 ; 0.0
141 ; 5285690.176125691 ; 2.0120043415386707E8 ; 7.484275414144936E8 ; 2.669543946511693E10 ; 0.0
142 ; 5271154.292562405 ; 2.0120584220491704E8 ; 7.537132315906192E8 ; 2.6896639899270794E10 ; 0.0
143 ; 5258488.367230864 ; 2.01211239026219E8 ; 7.589843858831816E8 ; 2.709784574147571E10 ; 0.0
144 ; 5239424.14080498 ; 2.0121662440876132E8 ; 7.642428742504125E8 ; 2.729905698050193E10 ; 0.0
145 ; 5231071.777796825 ; 2.012219981464554E8 ; 7.694822983912175E8 ; 2.750027360491069E10 ; 0.0
146 ; 5223909.246757988 ; 2.01227360036056E8 ; 7.747133701690143E8 ; 2.7701495603057144E10 ; 0.0
147 ; 5214642.324160569 ; 2.0123270987708446E8 ; 7.799372794157723E8 ; 2.79027229630932E10 ; 0.0
148 ; 5206225.426333001 ; 2.012380474717547E8 ; 7.851519217399329E8 ; 2.8103955672970284E10 ; 0.0
149 ; 5194980.676657145 ; 2.0124337262490207E8 ; 7.903581471662658E8 ; 2.830519372044204E10 ; 0.0
150 ; 5187249.231690762 ; 2.012486851439146E8 ; 7.95553127842923E8 ; 2.850643709306694E10 ; 0.0
151 ; 5180235.20515761 ; 2.0125398483866715E8 ; 8.007403770746138E8 ; 2.8707685778210854E10 ; 0.0
152 ; 5173253.428324834 ; 2.0125927152145737E8 ; 8.059206122797714E8 ; 2.8908939763049522E10 ; 0.0
153 ; 5164621.883719188 ; 2.0126454500694463E8 ; 8.110938657080963E8 ; 2.911019903457098E10 ; 0.0
154 ; 5154370.195714309 ; 2.012698051120906E8 ; 8.162584875918155E8 ; 2.9311463579577923E10 ; 0.0
155 ; 5142095.989381824 ; 2.0127505165610236E8 ; 8.214128577875298E8 ; 2.9512733384690014E10 ; 0.0
156 ; 5138006.036698305 ; 2.0128028446037745E8 ; 8.265549537769116E8 ; 2.9714008436346115E10 ; 0.0
157 ; 5128660.614933117 ; 2.012855033484507E8 ; 8.3169295981361E8 ; 2.991528872080649E10 ; 0.0
158 ; 5119914.575773999 ; 2.012907081459432E8 ; 8.368216204285431E8 ; 3.011657422415494E10 ; 0.0
159 ; 5111225.855035457 ; 2.01295898680513E8 ; 8.41941535004317E8 ; 3.0317864932300884E10 ; 0.0
160 ; 5096269.188825493 ; 2.0130107478180748E8 ; 8.470527608593525E8 ; 3.0519160830981396E10 ; 0.0
161 ; 5093613.113465715 ; 2.0130623628141758E8 ; 8.52149030048178E8 ; 3.0720461905763203E10 ; 0.0
162 ; 5085121.770676926 ; 2.013113830128334E8 ; 8.572426431616436E8 ; 3.092176814204462E10 ; 0.0
163 ; 5076979.614623822 ; 2.0131651481140152E8 ; 8.623277649323206E8 ; 3.1123079525057453E10 ; 0.0
164 ; 5067112.637873484 ; 2.0132163151428384E8 ; 8.674047445469444E8 ; 3.1324396039868855E10 ; 0.0
165 ; 5056108.832093544 ; 2.0132673296041775E8 ; 8.724718571848179E8 ; 3.1525717671383137E10 ; 0.0
166 ; 5049586.048989571 ; 2.0133181899047777E8 ; 8.775279660169115E8 ; 3.1727044404343555E10 ; 0.0
167 ; 5039865.937590991 ; 2.0133688944683838E8 ; 8.82577552065901E8 ; 3.1928376223334034E10 ; 0.0
168 ; 5029357.500451445 ; 2.0134194417353827E8 ; 8.87617418003492E8 ; 3.2129713112780872E10 ; 0.0
169 ; 5022478.367760393 ; 2.0134698301624584E8 ; 8.926467755039434E8 ; 3.233105505695441E10 ; 0.0
170 ; 5014870.426918009 ; 2.013520058222258E8 ; 8.976692538717039E8 ; 3.2532402039970657E10 ; 0.0
171 ; 5002739.397089203 ; 2.0135701244030687E8 ; 9.026841242986219E8 ; 3.2733754045792885E10 ; 0.0
172 ; 4994848.264020293 ; 2.0136200272085068E8 ; 9.076868636957111E8 ; 3.2935111058233192E10 ; 0.0
173 ; 4985671.411188073 ; 2.013669765157217E8 ; 9.126817119597315E8 ; 3.3136473060954044E10 ; 0.0
174 ; 4983460.6103221625 ; 2.0137193367825824E8 ; 9.176673833709196E8 ; 3.3337840037469765E10 ; 0.0
175 ; 4972962.167886173 ; 2.013768740632443E8 ; 9.226508439812417E8 ; 3.353921197114802E10 ; 0.0
176 ; 4967887.969299208 ; 2.0138179752688247E8 ; 9.276238061491278E8 ; 3.3740588845211266E10 ; 0.0
177 ; 4959348.969008694 ; 2.013867039267677E8 ; 9.32591694118427E8 ; 3.3941970642738148E10 ; 0.0
178 ; 4954943.389808745 ; 2.0139159312186202E8 ; 9.375510430874357E8 ; 3.4143357346664917E10 ; 0.0
179 ; 4945001.618967099 ; 2.0139646497246996E8 ; 9.425059864772445E8 ; 3.4344748939786777E10 ; 0.0
180 ; 4939231.1599521935 ; 2.0140131934021497E8 ; 9.474509880962116E8 ; 3.454614540475925E10 ; 0.0
181 ; 4931961.876539622 ; 2.0140615608801648E8 ; 9.523902192561637E8 ; 3.4747546724099464E10 ; 0.0
182 ; 4923456.775839349 ; 2.014109750800678E8 ; 9.573221811327033E8 ; 3.494895288018748E10 ; 0.0
183 ; 4920359.842603594 ; 2.0141577618181482E8 ; 9.622456379085426E8 ; 3.515036385526755E10 ; 0.0
184 ; 4910763.148535521 ; 2.0142055925993502E8 ; 9.671659977511462E8 ; 3.535177963144936E10 ; 0.0
185 ; 4905025.304559483 ; 2.0142532418231788E8 ; 9.720767608996817E8 ; 3.55532001907093E10 ; 0.0
186 ; 4897718.977229273 ; 2.0143007081804526E8 ; 9.769817862042412E8 ; 3.575462551489162E10 ; 0.0
187 ; 4892197.012171036 ; 2.0143479903737274E8 ; 9.818795051814704E8 ; 3.595605558570966E10 ; 0.0
188 ; 4885729.423899816 ; 2.014395087117116E8 ; 9.867717021936414E8 ; 3.615749038474704E10 ; 0.0
189 ; 4877815.559051738 ; 2.0144419971361116E8 ; 9.916574316175412E8 ; 3.635892989345875E10 ; 0.0
190 ; 4868750.466950811 ; 2.0144887191674206E8 ; 9.96535247176593E8 ; 3.6560374093172356E10 ; 0.0
191 ; 4863927.859326641 ; 2.014535251958797E8 ; 1.0014039976435437E9 ; 3.6761822965089096E10 ; 0.0
192 ; 4854810.926731951 ; 2.0145815942688844E8 ; 1.0062679255028703E9 ; 3.696327649028497E10 ; 0.0
193 ; 4852718.399242394 ; 2.014627744867063E8 ; 1.0111227364296023E9 ; 3.716473464971186E10 ; 0.0
194 ; 4844935.690653356 ; 2.0146737025332996E8 ; 1.0159754548288447E9 ; 3.736619742419857E10 ; 0.0
195 ; 4840999.145385836 ; 2.014719466058007E8 ; 1.020820390519498E9 ; 3.75676647944519E10 ; 0.0
196 ; 4833848.113560031 ; 2.014765034241901E8 ; 1.0256613896648839E9 ; 3.77691367410577E10 ; 0.0
197 ; 4824338.377998397 ; 2.0148104058958697E8 ; 1.0304952377784439E9 ; 3.797061324448189E10 ; 0.0
198 ; 4816950.64111955 ; 2.0148555798408404E8 ; 1.0353195761564423E9 ; 3.817209428507147E10 ; 0.0
199 ; 4812774.825151699 ; 2.0149005549076554E8 ; 1.0401365267975619E9 ; 3.837357984305556E10 ; 0.0
200 ; 4803103.032268323 ; 2.0149453299369487E8 ; 1.0449493016227136E9 ; 3.8575069898546326E10 ; 0.0
201 ; 4798050.389076942 ; 1.9145774469255748E8 ; 1.0497524046549819E9 ; 3.877656443154002E10 ; 0.0
