CSV File for the City 2 on Day 213
1 - Minute m 
2 - Power Consumed at minute m 
3 - Power Produced at minute m 
4 - Energy Consumed since the beginning of the day 
5 - Energy Produced since the beginning of the day 
6 - Energy Lost since the beginning of the day on lines starting from the city
 
0 ; 121032.46746253161 ; 1.0520154132605627E8 ; 0.0 ; 0.0 ; 0.0
1 ; 122925.88623460314 ; 1.0535534579675126E8 ; 121032.46746253161 ; 1.0520154132605627E8 ; 0.0
2 ; 125909.95568052068 ; 1.0581784073905042E8 ; 243958.35369713476 ; 2.1055688712280753E8 ; 0.0
3 ; 126941.2695439448 ; 1.0658902794430387E8 ; 369868.30937765545 ; 3.1637472786185795E8 ; 0.0
4 ; 130599.98710147555 ; 1.0766890908464897E8 ; 496809.57892160024 ; 4.229637558061618E8 ; 0.0
5 ; 134397.39682050498 ; 1.0905748568407625E8 ; 627409.5660230758 ; 5.306326648908108E8 ; 0.0
6 ; 139567.43169672153 ; 1.1075475909007952E8 ; 761806.9628435809 ; 6.39690150574887E8 ; 0.0
7 ; 145861.82900487387 ; 1.1276073044699019E8 ; 901374.3945403025 ; 7.504449096649666E8 ; 0.0
8 ; 153644.83223013987 ; 1.1507540067213595E8 ; 1047236.2235451763 ; 8.632056401119568E8 ; 0.0
9 ; 168800.0793902617 ; 1.176987704359262E8 ; 1200881.0557753162 ; 9.782810407840928E8 ; 0.0
10 ; 190801.7815173853 ; 1.2063084014684176E8 ; 1369681.135165578 ; 1.0959798112200189E9 ; 0.0
11 ; 224639.47330272046 ; 1.2387160994209906E8 ; 1560482.9166829633 ; 1.2166106513668606E9 ; 0.0
12 ; 279158.85170891543 ; 1.2742107968448165E8 ; 1785122.3899856838 ; 1.3404822613089597E9 ; 0.0
13 ; 331649.18745877675 ; 1.312792489655087E8 ; 2064281.2416945994 ; 1.4679033409934413E9 ; 0.0
14 ; 336924.4471777162 ; 1.354461171147709E8 ; 2395930.4291533763 ; 1.59918258995895E9 ; 0.0
15 ; 340757.5476851926 ; 1.3992168321494043E8 ; 2732854.8763310923 ; 1.734628707073721E9 ; 0.0
16 ; 343834.131932963 ; 1.44705946121686E8 ; 3073612.4240162848 ; 1.8745503902886615E9 ; 0.0
17 ; 346147.0376988451 ; 1.4979890448751375E8 ; 3417446.555949248 ; 2.0192563364103475E9 ; 0.0
18 ; 349545.06331401353 ; 1.5520055678843313E8 ; 3763593.593648093 ; 2.169055240897861E9 ; 0.0
19 ; 352389.1083574424 ; 1.609109013523068E8 ; 4113138.6569621065 ; 2.324255797686294E9 ; 0.0
20 ; 354651.4628811617 ; 1.6692993638778463E8 ; 4465527.765319549 ; 2.485166699038601E9 ; 0.0
21 ; 356770.7126965722 ; 1.7325766001282987E8 ; 4820179.22820071 ; 2.6520966354263854E9 ; 0.0
22 ; 359714.40850613324 ; 1.798940702819965E8 ; 5176949.940897282 ; 2.825354295439215E9 ; 0.0
23 ; 364651.5451087329 ; 1.868391652117973E8 ; 5536664.349403416 ; 3.0052483657212114E9 ; 0.0
24 ; 365295.745538409 ; 1.9409294280368787E8 ; 5901315.894512149 ; 3.1920875309330087E9 ; 0.0
25 ; 368270.9920728767 ; 2.0034344196255553E8 ; 6266611.640050557 ; 3.3861804737366967E9 ; 0.0
26 ; 371385.72831048357 ; 2.0034420855110514E8 ; 6634882.632123434 ; 3.586523915699252E9 ; 0.0
27 ; 375425.1542371305 ; 2.0034500992943692E8 ; 7006268.3604339175 ; 3.786868124250357E9 ; 0.0
28 ; 377424.2417603242 ; 2.003458442137805E8 ; 7381693.514671048 ; 3.9872131341797943E9 ; 0.0
29 ; 380563.37027267535 ; 2.0034670957916948E8 ; 7759117.756431373 ; 4.1875589783935747E9 ; 0.0
30 ; 384596.3529320867 ; 2.0034760426656988E8 ; 8139681.126704048 ; 4.387905687972744E9 ; 0.0
31 ; 385085.59912656544 ; 2.0034852658796555E8 ; 8524277.479636135 ; 4.588253292239314E9 ; 0.0
32 ; 388567.0427531226 ; 2.0034947492967027E8 ; 8909363.0787627 ; 4.78860181882728E9 ; 0.0
33 ; 389714.45986977394 ; 2.0035044775413144E8 ; 9297930.121515824 ; 4.98895129375695E9 ; 0.0
34 ; 393852.3688948599 ; 2.0035144360047615E8 ; 9687644.581385598 ; 5.189301741511082E9 ; 0.0
35 ; 395531.311123669 ; 2.0035246108403203E8 ; 1.0081496950280458E7 ; 5.389653185111558E9 ; 0.0
36 ; 398668.5487619104 ; 2.0035349889502993E8 ; 1.0477028261404127E7 ; 5.59000564619559E9 ; 0.0
37 ; 401296.236627652 ; 2.003545557966709E8 ; 1.0875696810166037E7 ; 5.79035914509062E9 ; 0.0
38 ; 402205.4424327774 ; 2.0035563062271562E8 ; 1.1276993046793688E7 ; 5.990713700887291E9 ; 0.0
39 ; 405013.7924691987 ; 2.0035672227472883E8 ; 1.1679198489226466E7 ; 6.191069331510007E9 ; 0.0
40 ; 407048.4733924771 ; 2.0035782971909118E8 ; 1.2084212281695664E7 ; 6.391426053784736E9 ; 0.0
41 ; 409057.7537158994 ; 2.0035895198386914E8 ; 1.2491260755088141E7 ; 6.591783883503827E9 ; 0.0
42 ; 411254.4137998623 ; 2.0036008815561745E8 ; 1.290031850880404E7 ; 6.792142835487697E9 ; 0.0
43 ; 413183.59803576104 ; 2.0036123737617302E8 ; 1.3311572922603901E7 ; 6.992502923643314E9 ; 0.0
44 ; 414985.56014903844 ; 2.0036239883948547E8 ; 1.3724756520639662E7 ; 7.192864161019487E9 ; 0.0
45 ; 416816.4325572336 ; 2.0036357178851995E8 ; 1.41397420807887E7 ; 7.393226559858973E9 ; 0.0
46 ; 419010.8294296337 ; 2.003647555122577E8 ; 1.4556558513345934E7 ; 7.593590131647492E9 ; 0.0
47 ; 420414.14202078636 ; 2.0036594934281278E8 ; 1.4975569342775568E7 ; 7.79395488715975E9 ; 0.0
48 ; 420523.03441124223 ; 2.003671526526778E8 ; 1.5395983484796355E7 ; 7.9943208365025625E9 ; 0.0
49 ; 422274.1016833549 ; 2.0036836485210556E8 ; 1.5816506519207597E7 ; 8.19468798915524E9 ; 0.0
50 ; 424259.68701110536 ; 2.003695853866308E8 ; 1.623878062089095E7 ; 8.395056354007345E9 ; 0.0
51 ; 426752.8664833261 ; 2.0037081373473305E8 ; 1.6663040307902057E7 ; 8.595425939393976E9 ; 0.0
52 ; 427415.5754554943 ; 2.003720494056384E8 ; 1.7089793174385384E7 ; 8.79579675312871E9 ; 0.0
53 ; 427504.98430135753 ; 2.003732919372577E8 ; 1.7517208749840878E7 ; 8.996168802534348E9 ; 0.0
54 ; 427966.01326864806 ; 2.003745408942564E8 ; 1.7944713734142236E7 ; 9.196542094471605E9 ; 0.0
55 ; 430613.2553652606 ; 2.003757958662508E8 ; 1.8372679747410886E7 ; 9.396916635365862E9 ; 0.0
56 ; 430616.46186308755 ; 2.0037705646612486E8 ; 1.8803293002776146E7 ; 9.597292431232113E9 ; 0.0
57 ; 432314.1855173698 ; 2.0037832232846138E8 ; 1.9233909464639235E7 ; 9.797669487698238E9 ; 0.0
58 ; 433643.93052271503 ; 2.003795931080812E8 ; 1.9666223650156606E7 ; 9.9980478100267E9 ; 0.0
59 ; 434465.7807196247 ; 2.0038086847868398E8 ; 2.009986758067932E7 ; 1.019842740313478E10 ; 0.0
60 ; 435656.2293954709 ; 2.0038214813158423E8 ; 2.0534333361398943E7 ; 1.0398808271613464E10 ; 0.0
61 ; 436499.4144164666 ; 2.003834317745366E8 ; 2.0969989590794414E7 ; 1.0599190419745049E10 ; 0.0
62 ; 437351.51565056376 ; 2.003847191306444E8 ; 2.140648900521088E7 ; 1.0799573851519585E10 ; 0.0
63 ; 438365.1216796809 ; 2.003860099373456E8 ; 2.1843840520861443E7 ; 1.0999958570650229E10 ; 0.0
64 ; 438508.4897712701 ; 2.003873039454711E8 ; 2.2282205642541125E7 ; 1.1200344580587574E10 ; 0.0
65 ; 440568.80351609463 ; 2.0038860091837013E8 ; 2.2720714132312395E7 ; 1.1400731884533045E10 ; 0.0
66 ; 440506.2282080286 ; 2.0038990063109782E8 ; 2.316128293582849E7 ; 1.1601120485451414E10 ; 0.0
67 ; 442496.87240253447 ; 2.0039120286966062E8 ; 2.3601789164036516E7 ; 1.1801510386082512E10 ; 0.0
68 ; 443910.29086970317 ; 2.0039250743031532E8 ; 2.404428603643905E7 ; 1.2001901588952173E10 ; 0.0
69 ; 444031.8415739853 ; 2.003938141189176E8 ; 2.448819632730875E7 ; 1.2202294096382488E10 ; 0.0
70 ; 444793.9304716497 ; 2.0039512275031674E8 ; 2.4932228168882735E7 ; 1.2402687910501406E10 ; 0.0
71 ; 446480.5842999459 ; 2.003964331477926E8 ; 2.5377022099354386E7 ; 1.2603083033251722E10 ; 0.0
72 ; 447103.9675782691 ; 2.0039774514253247E8 ; 2.582350268365433E7 ; 1.2803479466399515E10 ; 0.0
73 ; 447475.8362644952 ; 2.0039905857314384E8 ; 2.62706066512326E7 ; 1.3003877211542048E10 ; 0.0
74 ; 447960.99322931207 ; 2.0040037328520143E8 ; 2.6718082487497095E7 ; 1.320427627011519E10 ; 0.0
75 ; 450083.0133408242 ; 2.0040168913082522E8 ; 2.7166043480726406E7 ; 1.3404676643400393E10 ; 0.0
76 ; 450855.3631724707 ; 2.0040300596828765E8 ; 2.761612649406723E7 ; 1.3605078332531218E10 ; 0.0
77 ; 452126.1318256284 ; 2.0040432366164723E8 ; 2.80669818572397E7 ; 1.3805481338499506E10 ; 0.0
78 ; 452186.8447503828 ; 2.004056420804075E8 ; 2.851910798906533E7 ; 1.4005885662161154E10 ; 0.0
79 ; 451965.76835794846 ; 2.0040696109919858E8 ; 2.8971294833815712E7 ; 1.4206291304241562E10 ; 0.0
80 ; 452176.6627894444 ; 2.004082805974802E8 ; 2.942326060217366E7 ; 1.4406698265340761E10 ; 0.0
81 ; 452530.4603433437 ; 2.004096004592645E8 ; 2.9875437264963105E7 ; 1.4607106545938242E10 ; 0.0
82 ; 453088.3357153508 ; 2.00410920572857E8 ; 3.0327967725306448E7 ; 1.4807516146397507E10 ; 0.0
83 ; 451913.47489103006 ; 2.004122408306149E8 ; 3.0781056061021797E7 ; 1.5007927066970364E10 ; 0.0
84 ; 452012.9677645068 ; 2.0041356112872073E8 ; 3.1232969535912827E7 ; 1.5208339307800978E10 ; 0.0
85 ; 453300.8894274644 ; 2.004148813669708E8 ; 3.1684982503677335E7 ; 1.5408752868929699E10 ; 0.0
86 ; 452646.59829011565 ; 2.004162014485775E8 ; 3.21382833931048E7 ; 1.5609167750296669E10 ; 0.0
87 ; 452858.18732075626 ; 2.0041752127998364E8 ; 3.2590929991394915E7 ; 1.5809583951745247E10 ; 0.0
88 ; 453369.59278693976 ; 2.0041884077068922E8 ; 3.3043788178715672E7 ; 1.601000147302523E10 ; 0.0
89 ; 453907.28352672805 ; 2.0042015983308858E8 ; 3.349715777150261E7 ; 1.621042031379592E10 ; 0.0
90 ; 452929.5478354951 ; 2.0042147838231787E8 ; 3.395106505502934E7 ; 1.6410840473629007E10 ; 0.0
91 ; 452998.97785144596 ; 2.004227963361121E8 ; 3.440399460286483E7 ; 1.6611261952011326E10 ; 0.0
92 ; 452171.9791823758 ; 2.0042411361467084E8 ; 3.4856993580716275E7 ; 1.6811684748347439E10 ; 0.0
93 ; 453582.56053762353 ; 2.0042543014053205E8 ; 3.530916555989865E7 ; 1.701210886196211E10 ; 0.0
94 ; 453506.4733591629 ; 2.004267458384538E8 ; 3.576274812043627E7 ; 1.7212534292102642E10 ; 0.0
95 ; 453180.24405298824 ; 2.0042806063530278E8 ; 3.621625459379543E7 ; 1.7412961037941097E10 ; 0.0
96 ; 453174.8045094229 ; 2.0042937445994985E8 ; 3.6669434837848425E7 ; 1.76133890985764E10 ; 0.0
97 ; 453881.0605361017 ; 2.0043068724317133E8 ; 3.712260964235785E7 ; 1.781381847303635E10 ; 0.0
98 ; 453458.39510365744 ; 2.0043199891755655E8 ; 3.757649070289395E7 ; 1.8014249160279522E10 ; 0.0
99 ; 453272.4018967797 ; 2.0043330941742042E8 ; 3.8029949097997606E7 ; 1.821468115919708E10 ; 0.0
100 ; 453573.0052675542 ; 2.0043461867872122E8 ; 3.848322149989439E7 ; 1.84151144686145E10 ; 0.0
101 ; 452504.35657824 ; 2.0043592663898322E8 ; 3.893679450516194E7 ; 1.861554908729322E10 ; 0.0
102 ; 452999.5289076065 ; 2.0043723323722357E8 ; 3.938929886174018E7 ; 1.8815985013932205E10 ; 0.0
103 ; 453248.19764995493 ; 2.004385384138833E8 ; 3.9842298390647784E7 ; 1.901642224716943E10 ; 0.0
104 ; 453053.92332081357 ; 2.0043984211076242E8 ; 4.029554658829774E7 ; 1.9216860785583313E10 ; 0.0
105 ; 452016.68153752387 ; 2.0044114427095833E8 ; 4.0748600511618555E7 ; 1.9417300627694077E10 ; 0.0
106 ; 452981.3274702139 ; 2.0044244483880797E8 ; 4.120061719315608E7 ; 1.9617741771965034E10 ; 0.0
107 ; 452148.3158616636 ; 2.0044374375983295E8 ; 4.165359852062629E7 ; 1.981818421680384E10 ; 0.0
108 ; 451822.84905905457 ; 2.0044504098068762E8 ; 4.210574683648796E7 ; 2.0018627960563675E10 ; 0.0
109 ; 451169.1842810463 ; 2.004463364491103E8 ; 4.255756968554701E7 ; 2.021907300154436E10 ; 0.0
110 ; 451084.0965593585 ; 2.0044763011387664E8 ; 4.300873886982805E7 ; 2.0419519337993473E10 ; 0.0
111 ; 451011.9538020653 ; 2.0044892192475596E8 ; 4.345982296638741E7 ; 2.061996696810735E10 ; 0.0
112 ; 450703.05052247597 ; 2.0045021183246952E8 ; 4.391083492018948E7 ; 2.0820415890032104E10 ; 0.0
113 ; 449806.19016697316 ; 2.004514997886513E8 ; 4.4361537970711954E7 ; 2.1020866101864574E10 ; 0.0
114 ; 449253.2617077224 ; 2.0045278574581048E8 ; 4.481134416087893E7 ; 2.1221317601653225E10 ; 0.0
115 ; 449237.70745741524 ; 2.0045406965729645E8 ; 4.526059742258665E7 ; 2.1421770387399036E10 ; 0.0
116 ; 449809.0986963734 ; 2.0045535147726488E8 ; 4.5709835130044065E7 ; 2.162222445705633E10 ; 0.0
117 ; 449650.5631988261 ; 2.004566311606461E8 ; 4.615964422874044E7 ; 2.1822679808533596E10 ; 0.0
118 ; 448864.3403290599 ; 2.00457908663115E8 ; 4.6609294791939266E7 ; 2.202313643969424E10 ; 0.0
119 ; 448829.15500600106 ; 2.0045918394106212E8 ; 4.7058159132268324E7 ; 2.2223594348357357E10 ; 0.0
120 ; 447210.87198326975 ; 2.0046045695156667E8 ; 4.750698828727432E7 ; 2.242405353229842E10 ; 0.0
121 ; 447413.8885836639 ; 2.0046172765237048E8 ; 4.795419915925759E7 ; 2.2624513989249985E10 ; 0.0
122 ; 446716.9039458269 ; 2.004629960018536E8 ; 4.840161304784126E7 ; 2.2824975716902355E10 ; 0.0
123 ; 447040.7557546308 ; 2.0046426195901084E8 ; 4.8848329951787084E7 ; 2.302543871290421E10 ; 0.0
124 ; 446081.14735447086 ; 2.0046552548342955E8 ; 4.929537070754171E7 ; 2.322590297486322E10 ; 0.0
125 ; 446064.21231840615 ; 2.0046678653526855E8 ; 4.974145185489618E7 ; 2.342636850034665E10 ; 0.0
126 ; 446269.71749082033 ; 2.0046804507523796E8 ; 5.0187516067214586E7 ; 2.3626835286881916E10 ; 0.0
127 ; 446016.6092987125 ; 2.0046930106458014E8 ; 5.063378578470541E7 ; 2.3827303331957153E10 ; 0.0
128 ; 444344.61671203224 ; 2.0047055446505135E8 ; 5.107980239400412E7 ; 2.4027772633021732E10 ; 0.0
129 ; 444383.38557573134 ; 2.0047180523890448E8 ; 5.1524147010716155E7 ; 2.4228243187486782E10 ; 0.0
130 ; 443469.0569526984 ; 2.0047305334887254E8 ; 5.196853039629189E7 ; 2.4428714992725685E10 ; 0.0
131 ; 442459.681118255 ; 2.0047429875815284E8 ; 5.241199945324459E7 ; 2.462918804607456E10 ; 0.0
132 ; 441171.65588729986 ; 2.0047554143039197E8 ; 5.285445913436285E7 ; 2.482966234483271E10 ; 0.0
133 ; 439530.1470974383 ; 2.004767813296715E8 ; 5.3295630790250145E7 ; 2.5030137886263103E10 ; 0.0
134 ; 438954.05380225723 ; 2.0047801842049438E8 ; 5.373516093734758E7 ; 2.5230614667592773E10 ; 0.0
135 ; 436944.96031644294 ; 2.0047925266777173E8 ; 5.417411499114984E7 ; 2.5431092686013268E10 ; 0.0
136 ; 436232.96115856327 ; 2.004804840368107E8 ; 5.4611059951466285E7 ; 2.5631571938681038E10 ; 0.0
137 ; 434274.5617998066 ; 2.0048171249330223E8 ; 5.504729291262485E7 ; 2.583205242271785E10 ; 0.0
138 ; 433105.7754258228 ; 2.0048293800331008E8 ; 5.548156747442466E7 ; 2.603253413521115E10 ; 0.0
139 ; 433083.13520336465 ; 2.0048416053325978E8 ; 5.591467324985048E7 ; 2.6233017073214462E10 ; 0.0
140 ; 431227.62403651036 ; 2.0048538004992834E8 ; 5.634775638505384E7 ; 2.6433501233747723E10 ; 0.0
141 ; 429305.3095674259 ; 2.0048659652043438E8 ; 5.677898400909036E7 ; 2.663398661379765E10 ; 0.0
142 ; 428646.0303697836 ; 2.0048780991222876E8 ; 5.7208289318657786E7 ; 2.6834473210318085E10 ; 0.0
143 ; 427372.2601944495 ; 2.004890201930855E8 ; 5.763693534902757E7 ; 2.7034961020230312E10 ; 0.0
144 ; 425437.98892652005 ; 2.0049022733109307E8 ; 5.806430760922202E7 ; 2.7235450040423397E10 ; 0.0
145 ; 425696.5671452845 ; 2.0049143129464635E8 ; 5.848974559814854E7 ; 2.743594026775449E10 ; 0.0
146 ; 424699.08707531384 ; 2.004926320524386E8 ; 5.891544216529383E7 ; 2.7636431699049137E10 ; 0.0
147 ; 423867.1053241087 ; 2.004938295734538E8 ; 5.934014125236914E7 ; 2.7836924331101574E10 ; 0.0
148 ; 423541.90115443047 ; 2.0049502382695982E8 ; 5.9764008357693255E7 ; 2.8037418160675026E10 ; 0.0
149 ; 423717.90852338716 ; 2.00496214782501E8 ; 6.018755025884768E7 ; 2.8237913184501987E10 ; 0.0
150 ; 422425.52884502185 ; 2.0049740240989202E8 ; 6.061126816737107E7 ; 2.843840939928449E10 ; 0.0
151 ; 422254.916321608 ; 2.0049858667921117E8 ; 6.103369369621609E7 ; 2.863890680169438E10 ; 0.0
152 ; 421840.13051425223 ; 2.0049976756079453E8 ; 6.14559486125377E7 ; 2.8839405388373592E10 ; 0.0
153 ; 421239.6343121294 ; 2.0050094502523014E8 ; 6.1877788743051946E7 ; 2.9039905155934387E10 ; 0.0
154 ; 419878.2962186444 ; 2.0050211904335234E8 ; 6.229902837736408E7 ; 2.9240406100959618E10 ; 0.0
155 ; 420505.2663341934 ; 2.005032895862365E8 ; 6.271890667358272E7 ; 2.944090822000297E10 ; 0.0
156 ; 419317.2815535757 ; 2.0050445662519392E8 ; 6.313941193991691E7 ; 2.9641411509589207E10 ; 0.0
157 ; 419396.4960613232 ; 2.0050562013176692E8 ; 6.355872922147048E7 ; 2.98419159662144E10 ; 0.0
158 ; 418138.5280406358 ; 2.005067800777242E8 ; 6.397812571753181E7 ; 3.004242158634617E10 ; 0.0
159 ; 418340.3061835378 ; 2.005079364350562E8 ; 6.439626424557244E7 ; 3.0242928366423893E10 ; 0.0
160 ; 416727.0022879764 ; 2.005090891759711E8 ; 6.481460455175598E7 ; 3.0443436302858948E10 ; 0.0
161 ; 417107.35633814434 ; 2.0051023827289027E8 ; 6.5231331554043956E7 ; 3.064394539203492E10 ; 0.0
162 ; 415713.0337903525 ; 2.005113836984447E8 ; 6.56484389103821E7 ; 3.084445563030781E10 ; 0.0
163 ; 415848.4778997357 ; 2.005125254254709E8 ; 6.606415194417245E7 ; 3.1044967014006256E10 ; 0.0
164 ; 415711.05021625746 ; 2.0051366342700747E8 ; 6.648000042207219E7 ; 3.124547953943173E10 ; 0.0
165 ; 414552.3442070472 ; 2.005147976762915E8 ; 6.6895711472288445E7 ; 3.1445993202858734E10 ; 0.0
166 ; 414306.8489532308 ; 2.0051592814675525E8 ; 6.73102638164955E7 ; 3.1646508000535027E10 ; 0.0
167 ; 413503.84442475846 ; 2.005170548120229E8 ; 6.772457066544873E7 ; 3.184702392868178E10 ; 0.0
168 ; 413004.10396423255 ; 2.0051817764590755E8 ; 6.813807450987348E7 ; 3.2047540983493805E10 ; 0.0
169 ; 412682.60022580693 ; 2.0051929662240812E8 ; 6.855107861383772E7 ; 3.2248059161139713E10 ; 0.0
170 ; 411641.48035150097 ; 2.0052041171570665E8 ; 6.896376121406353E7 ; 3.2448578457762123E10 ; 0.0
171 ; 411588.4778148932 ; 2.0052152290016547E8 ; 6.937540269441503E7 ; 3.264909886947783E10 ; 0.0
172 ; 411724.10336321796 ; 2.0052263015032467E8 ; 6.978699117222993E7 ; 3.2849620392377995E10 ; 0.0
173 ; 409779.08627556975 ; 2.0052373344089952E8 ; 7.019871527559315E7 ; 3.305014302252832E10 ; 0.0
174 ; 409392.2566926078 ; 2.005248327467781E8 ; 7.060849436186871E7 ; 3.325066675596922E10 ; 0.0
175 ; 409811.4111912375 ; 2.0052592804301897E8 ; 7.101788661856131E7 ; 3.3451191588715996E10 ; 0.0
176 ; 410012.7244966669 ; 2.005270193048489E8 ; 7.142769802975255E7 ; 3.3651717516759014E10 ; 0.0
177 ; 408955.8431114527 ; 2.0052810650766087E8 ; 7.183771075424922E7 ; 3.385224453606386E10 ; 0.0
178 ; 408654.86910605116 ; 2.005291896270119E8 ; 7.224666659736067E7 ; 3.405277264257152E10 ; 0.0
179 ; 408591.8485746311 ; 2.0053026863862112E8 ; 7.265532146646672E7 ; 3.4253301832198532E10 ; 0.0
180 ; 407068.29313792265 ; 2.0053134351836795E8 ; 7.306391331504136E7 ; 3.445383210083715E10 ; 0.0
181 ; 407990.4994080729 ; 2.0053241424229014E8 ; 7.347098160817929E7 ; 3.465436344435552E10 ; 0.0
182 ; 406961.87542387977 ; 2.0053348078658226E8 ; 7.387897210758735E7 ; 3.485489585859781E10 ; 0.0
183 ; 407080.1318141555 ; 2.0053454312759376E8 ; 7.428593398301123E7 ; 3.505542933938439E10 ; 0.0
184 ; 405573.40962373524 ; 2.0053560124182758E8 ; 7.469301411482538E7 ; 3.5255963882511986E10 ; 0.0
185 ; 406981.1815991583 ; 2.0053665510593855E8 ; 7.509858752444912E7 ; 3.5456499483753815E10 ; 0.0
186 ; 405152.5385443756 ; 2.0053770469673193E8 ; 7.550556870604828E7 ; 3.565703613885976E10 ; 0.0
187 ; 404651.14776020445 ; 2.0053874999116185E8 ; 7.591072124459265E7 ; 3.585757384355649E10 ; 0.0
188 ; 404184.7969200608 ; 2.0053979096633026E8 ; 7.631537239235285E7 ; 3.605811259354765E10 ; 0.0
189 ; 404212.15768147947 ; 2.0054082759948528E8 ; 7.671955718927291E7 ; 3.6258652384513985E10 ; 0.0
190 ; 404242.09921669157 ; 2.005418598680202E8 ; 7.712376934695439E7 ; 3.645919321211347E10 ; 0.0
191 ; 403496.76583592716 ; 2.0054288774947217E8 ; 7.752801144617108E7 ; 3.665973507198149E10 ; 0.0
192 ; 402671.97102980025 ; 2.0054391122152108E8 ; 7.7931508212007E7 ; 3.6860277959730965E10 ; 0.0
193 ; 403735.02163302654 ; 2.005449302619884E8 ; 7.83341801830368E7 ; 3.7060821870952484E10 ; 0.0
194 ; 402887.6990412008 ; 2.0054594484883624E8 ; 7.873791520466983E7 ; 3.726136680121447E10 ; 0.0
195 ; 402060.30558360904 ; 2.0054695496016625E8 ; 7.914080290371104E7 ; 3.746191274606331E10 ; 0.0
196 ; 401530.1467234848 ; 2.0054796057421857E8 ; 7.954286320929465E7 ; 3.7662459701023476E10 ; 0.0
197 ; 400581.7792680185 ; 2.005489616693711E8 ; 7.994439335601813E7 ; 3.7863007661597694E10 ; 0.0
198 ; 402068.7064270879 ; 2.005499582241384E8 ; 8.034497513528614E7 ; 3.806355662326707E10 ; 0.0
199 ; 400918.9388344028 ; 2.0055095021717104E8 ; 8.074704384171322E7 ; 3.82641065814912E10 ; 0.0
200 ; 399826.10612530203 ; 2.0055193762725452E8 ; 8.114796278054762E7 ; 3.8464657531708374E10 ; 0.0
201 ; 399196.8942655875 ; 2.0055292043330872E8 ; 8.154778888667291E7 ; 3.866520946933563E10 ; 0.0
