CSV File for the City 6 on Day 256
1 - Minute m 
2 - Power Consumed at minute m 
3 - Power Produced at minute m 
4 - Energy Consumed since the beginning of the day 
5 - Energy Produced since the beginning of the day 
6 - Energy Lost since the beginning of the day on lines starting from the city
 
0 ; 3134161.281005777 ; 1.0585673789336047E8 ; 0.0 ; 0.0 ; 0.0
1 ; 3142515.9615321374 ; 1.0600734209719896E8 ; 3134161.281005777 ; 1.0585673789336047E8 ; 0.0
2 ; 3152346.697151816 ; 1.064669617393432E8 ; 6276677.242537914 ; 2.1186407999055943E8 ; 0.0
3 ; 3165227.844912383 ; 1.0723560254152942E8 ; 9429023.93968973 ; 3.183310417299026E8 ; 0.0
4 ; 3180526.1806278806 ; 1.0831326966919947E8 ; 1.2594251784602113E7 ; 4.2556664427143204E8 ; 0.0
5 ; 3198477.0484480695 ; 1.096999676904164E8 ; 1.5774777965229994E7 ; 5.338799139406315E8 ; 0.0
6 ; 3222282.1738286777 ; 1.1139570053849909E8 ; 1.8973255013678063E7 ; 6.43579881631048E8 ; 0.0
7 ; 3257401.689691781 ; 1.1340047147906649E8 ; 2.219553718750674E7 ; 7.549755821695471E8 ; 0.0
8 ; 3311113.48446965 ; 1.1571428308212352E8 ; 2.545293887719852E7 ; 8.683760536486136E8 ; 0.0
9 ; 3391144.9315320873 ; 1.1833713719973779E8 ; 2.876405236166817E7 ; 9.840903367307371E8 ; 0.0
10 ; 3517762.498968212 ; 1.2126903494975859E8 ; 3.215519729320026E7 ; 1.1024274739304748E9 ; 0.0
11 ; 3711716.5512310416 ; 1.2450997670591065E8 ; 3.567295979216847E7 ; 1.2236965088802333E9 ; 0.0
12 ; 4027303.79772729 ; 1.2805996209446922E8 ; 3.938467634339951E7 ; 1.348206485586144E9 ; 0.0
13 ; 4326192.077418927 ; 1.31918989997585E8 ; 4.34119801411268E7 ; 1.4762664476806133E9 ; 0.0
14 ; 4364438.455963749 ; 1.3608705856319046E8 ; 4.773817221854572E7 ; 1.6081854376781983E9 ; 0.0
15 ; 4378171.955294962 ; 1.4056416522128057E8 ; 5.2102610674509466E7 ; 1.7442724962413888E9 ; 0.0
16 ; 4385136.681857071 ; 1.453503067062365E8 ; 5.6480782629804425E7 ; 1.8848366614626694E9 ; 0.0
17 ; 4402408.964123349 ; 1.504454790847393E8 ; 6.08659193116615E7 ; 2.030186968168906E9 ; 0.0
18 ; 4417598.4996793 ; 1.558496777887259E8 ; 6.526832827578484E7 ; 2.1806324472536454E9 ; 0.0
19 ; 4431146.049209227 ; 1.6156289765275452E8 ; 6.968592677546415E7 ; 2.3364821250423713E9 ; 0.0
20 ; 4443932.861985826 ; 1.6758513295508882E8 ; 7.411707282467337E7 ; 2.4980450226951256E9 ; 0.0
21 ; 4458761.438739942 ; 1.7391637746177253E8 ; 7.85610056866592E7 ; 2.665630155650214E9 ; 0.0
22 ; 4469769.091131196 ; 1.8055662447294837E8 ; 8.301976712539914E7 ; 2.8395465331119866E9 ; 0.0
23 ; 4483345.836988986 ; 1.8750586687068254E8 ; 8.748953621653034E7 ; 3.020103157584935E9 ; 0.0
24 ; 4496909.127816032 ; 1.9476409716757667E8 ; 9.197288205351932E7 ; 3.207609024455618E9 ; 0.0
25 ; 4510759.328749106 ; 2.0101934845367694E8 ; 9.646979118133536E7 ; 3.4023731216231947E9 ; 0.0
26 ; 4520986.567342202 ; 2.0102516048158392E8 ; 1.0098055051008447E8 ; 3.603392470076872E9 ; 0.0
27 ; 4534168.889623834 ; 2.0103129423850143E8 ; 1.0550153707742667E8 ; 3.804417630558456E9 ; 0.0
28 ; 4548960.876709289 ; 2.0103774123859718E8 ; 1.1003570596705051E8 ; 4.0054489247969575E9 ; 0.0
29 ; 4564326.672001474 ; 2.0104449285986638E8 ; 1.1458466684375979E8 ; 4.206486666035555E9 ; 0.0
30 ; 4573088.432271504 ; 2.0105154038544318E8 ; 1.1914899351576126E8 ; 4.407531158895421E9 ; 0.0
31 ; 4589193.105461778 ; 2.010588750423433E8 ; 1.2372208194803277E8 ; 4.608582699280864E9 ; 0.0
32 ; 4599161.700452627 ; 2.0106648803744674E8 ; 1.2831127505349454E8 ; 4.809641574323207E9 ; 0.0
33 ; 4612713.091529211 ; 2.010743705905968E8 ; 1.3291043675394717E8 ; 5.010708062360654E9 ; 0.0
34 ; 4621277.0395288 ; 2.0108251396475148E8 ; 1.375231498454764E8 ; 5.211782432951251E9 ; 0.0
35 ; 4635352.828715713 ; 2.0109090949317694E8 ; 1.4214442688500518E8 ; 5.412864946916002E9 ; 0.0
36 ; 4643949.315056696 ; 2.0109954860371882E8 ; 1.467797797137209E8 ; 5.61395585640918E9 ; 0.0
37 ; 4658355.941714852 ; 2.0110842284022656E8 ; 1.5142372902877757E8 ; 5.815055405012898E9 ; 0.0
38 ; 4664664.2262963895 ; 2.011175238812365E8 ; 1.5608208497049242E8 ; 6.016163827853125E9 ; 0.0
39 ; 4675415.907510396 ; 2.011268435560458E8 ; 1.6074674919678882E8 ; 6.217281351734361E9 ; 0.0
40 ; 4688121.946140972 ; 2.011363738583263E8 ; 1.6542216510429922E8 ; 6.418408195290406E9 ; 0.0
41 ; 4694155.2925013425 ; 2.0114610695744157E8 ; 1.701102870504402E8 ; 6.619544569148732E9 ; 0.0
42 ; 4702233.203719393 ; 2.0115603520763803E8 ; 1.7480444234294152E8 ; 6.8206906761061735E9 ; 0.0
43 ; 4710901.002022055 ; 2.0116615115528378E8 ; 1.7950667554666093E8 ; 7.021846711313811E9 ; 0.0
44 ; 4715297.208545579 ; 2.011764475443308E8 ; 1.84217576548683E8 ; 7.223012862469095E9 ; 0.0
45 ; 4721663.75771536 ; 2.0118691732017094E8 ; 1.8893287375722855E8 ; 7.424189310013426E9 ; 0.0
46 ; 4729329.064630026 ; 2.0119755363205275E8 ; 1.9365453751494393E8 ; 7.625376227333597E9 ; 0.0
47 ; 4735805.996420531 ; 2.012083498342182E8 ; 1.9838386657957396E8 ; 7.82657378096565E9 ; 0.0
48 ; 4741801.364620991 ; 2.0121929948590997E8 ; 2.031196725759945E8 ; 8.027782130799868E9 ; 0.0
49 ; 4743677.636289759 ; 2.0123039635039088E8 ; 2.0786147394061548E8 ; 8.229001430285778E9 ; 0.0
50 ; 4749855.139400737 ; 2.0124163439310715E8 ; 2.1260515157690522E8 ; 8.4302318266361685E9 ; 0.0
51 ; 4755383.357840873 ; 2.012530077791167E8 ; 2.1735500671630597E8 ; 8.631473461029276E9 ; 0.0
52 ; 4759285.617094408 ; 2.0126451086989376E8 ; 2.2211039007414684E8 ; 8.832726468808393E9 ; 0.0
53 ; 4761474.807696818 ; 2.0127613821961102E8 ; 2.2686967569124123E8 ; 9.033990979678288E9 ; 0.0
54 ; 4764420.011569791 ; 2.0128788457099062E8 ; 2.3163115049893805E8 ; 9.235267117897898E9 ; 0.0
55 ; 4767329.905991499 ; 2.0129974485080618E8 ; 2.3639557051050785E8 ; 9.43655500246889E9 ; 0.0
56 ; 4768596.814019892 ; 2.013117141651092E8 ; 2.4116290041649935E8 ; 9.637854747319695E9 ; 0.0
57 ; 4775650.262313381 ; 2.0132378779424468E8 ; 2.4593149723051924E8 ; 9.839166461484804E9 ; 0.0
58 ; 4776892.075168157 ; 2.013359611877137E8 ; 2.507071474928326E8 ; 1.0040490249279049E10 ; 0.0
59 ; 4781196.954939232 ; 2.0134822995893303E8 ; 2.5548403956800076E8 ; 1.0241826210466763E10 ; 0.0
60 ; 4783458.470703816 ; 2.0136058987993523E8 ; 2.6026523652294E8 ; 1.0443174440425695E10 ; 0.0
61 ; 4785098.623169876 ; 2.0137303687604815E8 ; 2.6504869499364382E8 ; 1.064453503030563E10 ; 0.0
62 ; 4788989.596755988 ; 2.0138556702058512E8 ; 2.698337936168137E8 ; 1.0845908067181679E10 ; 0.0
63 ; 4795550.788647502 ; 2.013981765295748E8 ; 2.746227832135697E8 ; 1.1047293634202265E10 ; 0.0
64 ; 4794304.013944171 ; 2.0141086175655293E8 ; 2.794183340022172E8 ; 1.124869181073184E10 ; 0.0
65 ; 4795799.00539714 ; 2.0142361918743643E8 ; 2.842126380161613E8 ; 1.1450102672488394E10 ; 0.0
66 ; 4800811.675121862 ; 2.0143644543549576E8 ; 2.8900843702155846E8 ; 1.165152629167583E10 ; 0.0
67 ; 4801483.611017477 ; 2.0144933723643824E8 ; 2.938092486966803E8 ; 1.1852962737111326E10 ; 0.0
68 ; 4801729.255340693 ; 2.014622914436135E8 ; 2.986107323076978E8 ; 1.2054412074347765E10 ; 0.0
69 ; 4804647.218429701 ; 2.014753050233485E8 ; 3.0341246156303847E8 ; 1.2255874365791378E10 ; 0.0
70 ; 4806480.230437256 ; 2.0148837505041888E8 ; 3.0821710878146815E8 ; 1.2457349670814726E10 ; 0.0
71 ; 4806494.230977507 ; 2.0150149870366037E8 ; 3.1302358901190543E8 ; 1.2658838045865145E10 ; 0.0
72 ; 4808380.569752745 ; 2.0151467326172355E8 ; 3.1783008324288297E8 ; 1.2860339544568806E10 ; 0.0
73 ; 4814281.818307948 ; 2.0152789609897333E8 ; 3.226384638126357E8 ; 1.306185421783053E10 ; 0.0
74 ; 4812434.719662979 ; 2.0154116468153355E8 ; 3.2745274563094366E8 ; 1.3263382113929504E10 ; 0.0
75 ; 4814596.202378476 ; 2.0155447656347618E8 ; 3.322651803506066E8 ; 1.3464923278611038E10 ; 0.0
76 ; 4815147.29514242 ; 2.0156782938315395E8 ; 3.370797765529851E8 ; 1.3666477755174515E10 ; 0.0
77 ; 4816133.1618728535 ; 2.0158122085967413E8 ; 3.418949238481275E8 ; 1.3868045584557669E10 ; 0.0
78 ; 4815027.215995413 ; 2.0159464878951162E8 ; 3.4671105701000035E8 ; 1.4069626805417343E10 ; 0.0
79 ; 4813497.5515438635 ; 2.0160811104325753E8 ; 3.515260842259958E8 ; 1.4271221454206854E10 ; 0.0
80 ; 4810699.992175753 ; 2.0162160556250072E8 ; 3.563395817775397E8 ; 1.447282956525011E10 ; 0.0
81 ; 4808127.624271211 ; 2.016351303568383E8 ; 3.611502817697154E8 ; 1.467445117081261E10 ; 0.0
82 ; 4806507.208153409 ; 2.0164868350101164E8 ; 3.6595840939398664E8 ; 1.4876086301169449E10 ; 0.0
83 ; 4801566.571382049 ; 2.016622631321638E8 ; 3.7076491660214007E8 ; 1.507773498467046E10 ; 0.0
84 ; 4798745.986810881 ; 2.0167586744721425E8 ; 3.755664831735221E8 ; 1.5279397247802624E10 ; 0.0
85 ; 4796137.69466514 ; 2.0168949470034716E8 ; 3.80365229160333E8 ; 1.5481073115249838E10 ; 0.0
86 ; 4795998.59937568 ; 2.01703143200609E8 ; 3.851613668549981E8 ; 1.5682762609950186E10 ; 0.0
87 ; 4791948.172827676 ; 2.017168113096111E8 ; 3.899573654543738E8 ; 1.5884465753150795E10 ; 0.0
88 ; 4786522.331491823 ; 2.0173049743933368E8 ; 3.9474931362720144E8 ; 1.6086182564460405E10 ; 0.0
89 ; 4786372.374394821 ; 2.0174420005002683E8 ; 3.9953583595869327E8 ; 1.6287913061899738E10 ; 0.0
90 ; 4777611.913578267 ; 2.017579176482049E8 ; 4.043222083330881E8 ; 1.6489657261949764E10 ; 0.0
91 ; 4774082.9397985265 ; 2.017716487847301E8 ; 4.090998202466664E8 ; 1.669141517959797E10 ; 0.0
92 ; 4770628.9194955565 ; 2.0178539205298182E8 ; 4.138739031864649E8 ; 1.68931868283827E10 ; 0.0
93 ; 4769664.166214221 ; 2.01799146087108E8 ; 4.186445321059605E8 ; 1.7094972220435682E10 ; 0.0
94 ; 4765688.653564244 ; 2.0181290956035474E8 ; 4.234141962721747E8 ; 1.729677136652279E10 ; 0.0
95 ; 4760272.358251981 ; 2.0182668118347117E8 ; 4.2817988492573893E8 ; 1.7498584276083145E10 ; 0.0
96 ; 4756443.006641397 ; 2.0184045970318577E8 ; 4.329401572839909E8 ; 1.7700410957266617E10 ; 0.0
97 ; 4751992.966475034 ; 2.0185424390075123E8 ; 4.376966002906323E8 ; 1.7902251416969803E10 ; 0.0
98 ; 4747462.096382768 ; 2.0186803259055492E8 ; 4.424485932571073E8 ; 1.8104105660870556E10 ; 0.0
99 ; 4745946.660247463 ; 2.0188182461879152E8 ; 4.471960553534901E8 ; 1.830597369346111E10 ; 0.0
100 ; 4741486.8096600305 ; 2.018956188621953E8 ; 4.5194200201373756E8 ; 1.85078555180799E10 ; 0.0
101 ; 4735114.348099321 ; 2.0190941422682947E8 ; 4.566834888233976E8 ; 1.8709751136942093E10 ; 0.0
102 ; 4730261.560895725 ; 2.0192320964692947E8 ; 4.6141860317149687E8 ; 1.8911660551168922E10 ; 0.0
103 ; 4726454.358690783 ; 2.0193700408379823E8 ; 4.661488647323926E8 ; 1.9113583760815853E10 ; 0.0
104 ; 4722288.182433757 ; 2.019507965247507E8 ; 4.708753190910834E8 ; 1.931552076489965E10 ; 0.0
105 ; 4719164.057422 ; 2.019645859821053E8 ; 4.755976072735172E8 ; 1.95174715614244E10 ; 0.0
106 ; 4711804.193323647 ; 2.0197837149222043E8 ; 4.803167713309392E8 ; 1.9719436147406506E10 ; 0.0
107 ; 4708279.546272163 ; 2.0199215211457354E8 ; 4.8502857552426285E8 ; 1.9921414518898727E10 ; 0.0
108 ; 4706346.169651396 ; 2.0200592693088114E8 ; 4.89736855070535E8 ; 2.01234066710133E10 ; 0.0
109 ; 4700179.467687363 ; 2.020196950442575E8 ; 4.944432012401864E8 ; 2.0325412597944183E10 ; 0.0
110 ; 4691844.305197617 ; 2.0203345557841048E8 ; 4.9914338070787376E8 ; 2.052743229298844E10 ; 0.0
111 ; 4687682.407198972 ; 2.020472076768727E8 ; 5.0383522501307136E8 ; 2.0729465748566853E10 ; 0.0
112 ; 4680498.8080513235 ; 2.020609505022663E8 ; 5.085229074202703E8 ; 2.0931512956243725E10 ; 0.0
113 ; 4677027.80483579 ; 2.0207468323559964E8 ; 5.132034062283217E8 ; 2.113357390674599E10 ; 0.0
114 ; 4667908.694774293 ; 2.0208840507559493E8 ; 5.1788043403315747E8 ; 2.133564858998159E10 ; 0.0
115 ; 4665088.417422251 ; 2.0210211523804477E8 ; 5.2254834272793174E8 ; 2.1537736995057186E10 ; 0.0
116 ; 4656274.02011827 ; 2.0211581295519644E8 ; 5.27213431145354E8 ; 2.173983911029523E10 ; 0.0
117 ; 4650757.194904159 ; 2.0212949747516286E8 ; 5.3186970516547227E8 ; 2.1941954923250427E10 ; 0.0
118 ; 4648666.184715581 ; 2.0214316806135878E8 ; 5.365204623603764E8 ; 2.214408442072559E10 ; 0.0
119 ; 4643791.393192828 ; 2.021568239919609E8 ; 5.41169128545092E8 ; 2.234622758878695E10 ; 0.0
120 ; 4634616.820553186 ; 2.0217046455939132E8 ; 5.458129199382849E8 ; 2.254838441277891E10 ; 0.0
121 ; 4630009.969525332 ; 2.0218408906982255E8 ; 5.50447536758838E8 ; 2.2750554877338303E10 ; 0.0
122 ; 4621963.814512127 ; 2.021976968427036E8 ; 5.550775467283634E8 ; 2.2952738966408127E10 ; 0.0
123 ; 4612664.888972813 ; 2.0221128721030617E8 ; 5.596995105428755E8 ; 2.315493666325083E10 ; 0.0
124 ; 4613540.347244999 ; 2.0222485951728955E8 ; 5.643121754318483E8 ; 2.3357147950461136E10 ; 0.0
125 ; 4603164.208576738 ; 2.0223841312028396E8 ; 5.689257157790933E8 ; 2.3559372809978424E10 ; 0.0
126 ; 4594726.744860921 ; 2.0225194738749117E8 ; 5.7352887998767E8 ; 2.376161122309871E10 ; 0.0
127 ; 4587576.443258944 ; 2.0226546169830155E8 ; 5.781236067325308E8 ; 2.39638631704862E10 ; 0.0
128 ; 4580083.416098133 ; 2.0227895544292718E8 ; 5.827111831757898E8 ; 2.41661286321845E10 ; 0.0
129 ; 4574604.201456598 ; 2.0229242802204973E8 ; 5.87291266591888E8 ; 2.436840758762743E10 ; 0.0
130 ; 4564010.804635723 ; 2.0230587884648305E8 ; 5.918658707933445E8 ; 2.457070001564948E10 ; 0.0
131 ; 4555176.396106581 ; 2.0231930733684927E8 ; 5.964298815979803E8 ; 2.477300589449596E10 ; 0.0
132 ; 4545985.687491558 ; 2.023327129232684E8 ; 6.009850579940869E8 ; 2.497532520183281E10 ; 0.0
133 ; 4534328.362691051 ; 2.0234609504506E8 ; 6.055310436815784E8 ; 2.5177657914756077E10 ; 0.0
134 ; 4520537.895967106 ; 2.0235945315045738E8 ; 6.100653720442694E8 ; 2.5380004009801136E10 ; 0.0
135 ; 4506852.165701407 ; 2.023727866963329E8 ; 6.145859099402366E8 ; 2.558236346295159E10 ; 0.0
136 ; 4501274.391364098 ; 2.0238609514793438E8 ; 6.19092762105938E8 ; 2.5784736249647923E10 ; 0.0
137 ; 4487727.00992525 ; 2.023993779786321E8 ; 6.23594036497302E8 ; 2.5987122344795856E10 ; 0.0
138 ; 4473284.166023274 ; 2.0241263466967565E8 ; 6.280817635072273E8 ; 2.618952172277449E10 ; 0.0
139 ; 4464769.699066195 ; 2.024258647099605E8 ; 6.325550476732506E8 ; 2.6391934357444164E10 ; 0.0
140 ; 4451435.326937949 ; 2.0243906759580365E8 ; 6.370198173723167E8 ; 2.6594360222154125E10 ; 0.0
141 ; 4439414.435256153 ; 2.024522428307282E8 ; 6.414712526992546E8 ; 2.6796799289749928E10 ; 0.0
142 ; 4426335.945786972 ; 2.0246538992525625E8 ; 6.459106671345108E8 ; 2.6999251532580654E10 ; 0.0
143 ; 4420265.287233411 ; 2.0247850839670974E8 ; 6.503370030802977E8 ; 2.720171692250591E10 ; 0.0
144 ; 4408733.528507389 ; 2.0249159776901925E8 ; 6.547572683675311E8 ; 2.740419543090262E10 ; 0.0
145 ; 4396070.25028475 ; 2.0250465757253984E8 ; 6.591660018960384E8 ; 2.760668702867164E10 ; 0.0
146 ; 4392299.53052644 ; 2.0251768734387434E8 ; 6.635620721463232E8 ; 2.780919168624418E10 ; 0.0
147 ; 4382285.683833807 ; 2.0253068662570298E8 ; 6.679543716768496E8 ; 2.8011709373588055E10 ; 0.0
148 ; 4380294.062536359 ; 2.0254365496661988E8 ; 6.723366573606834E8 ; 2.8214240060213757E10 ; 0.0
149 ; 4367509.6253366405 ; 2.0255659192097554E8 ; 6.767169514232198E8 ; 2.8416783715180378E10 ; 0.0
150 ; 4360964.018386209 ; 2.0256949704872528E8 ; 6.810844610485564E8 ; 2.8619340307101353E10 ; 0.0
151 ; 4356168.547569039 ; 2.025823699152834E8 ; 6.854454250669427E8 ; 2.8821909804150078E10 ; 0.0
152 ; 4348965.376355961 ; 2.02595210091383E8 ; 6.898015936145117E8 ; 2.902449217406536E10 ; 0.0
153 ; 4338754.505863384 ; 2.0260801715294072E8 ; 6.941505589908677E8 ; 2.9227087384156746E10 ; 0.0
154 ; 4331333.837305188 ; 2.0262079068092662E8 ; 6.984893134967312E8 ; 2.9429695401309685E10 ; 0.0
155 ; 4323358.533724301 ; 2.0263353026123917E8 ; 7.028206473340364E8 ; 2.9632316191990612E10 ; 0.0
156 ; 4315632.262580154 ; 2.0264623548458436E8 ; 7.071440058677607E8 ; 2.983494972225185E10 ; 0.0
157 ; 4311086.413142591 ; 2.0265890594635963E8 ; 7.114596381303408E8 ; 3.0037595957736435E10 ; 0.0
158 ; 4302482.566409281 ; 2.0267154124654204E8 ; 7.157707245434834E8 ; 3.0240254863682793E10 ; 0.0
159 ; 4297631.864769389 ; 2.0268414098958018E8 ; 7.200732071098926E8 ; 3.0442926404929337E10 ; 0.0
160 ; 4288852.956414512 ; 2.0269670478429055E8 ; 7.24370838974662E8 ; 3.064561054591892E10 ; 0.0
161 ; 4276951.272763599 ; 2.0270923224375716E8 ; 7.286596919310764E8 ; 3.084830725070321E10 ; 0.0
162 ; 4271439.929469133 ; 2.0272172298523518E8 ; 7.3293664320384E8 ; 3.1051016482946964E10 ; 0.0
163 ; 4266252.461210902 ; 2.027341766300579E8 ; 7.372080831333091E8 ; 3.1253738205932198E10 ; 0.0
164 ; 4258379.323394318 ; 2.0274659280354688E8 ; 7.4147433559452E8 ; 3.1456472382562256E10 ; 0.0
165 ; 4245196.629207663 ; 2.027589711349256E8 ; 7.457327149179143E8 ; 3.1659218975365803E10 ; 0.0
166 ; 4241082.412991426 ; 2.02771311257236E8 ; 7.499779115471219E8 ; 3.186197794650073E10 ; 0.0
167 ; 4234368.641426396 ; 2.02783612807258E8 ; 7.542189939601133E8 ; 3.2064749257757965E10 ; 0.0
168 ; 4224423.542785426 ; 2.027958754254321E8 ; 7.584533626015397E8 ; 3.2267532870565224E10 ; 0.0
169 ; 4219329.467944123 ; 2.0280809875578418E8 ; 7.626777861443251E8 ; 3.2470328745990654E10 ; 0.0
170 ; 4210570.92428238 ; 2.0282028244585365E8 ; 7.668971156122693E8 ; 3.2673136844746437E10 ; 0.0
171 ; 4198643.643865137 ; 2.0283242614662352E8 ; 7.711076865365517E8 ; 3.287595712719229E10 ; 0.0
172 ; 4192714.9183483077 ; 2.0284452951245335E8 ; 7.753063301804168E8 ; 3.3078789553338913E10 ; 0.0
173 ; 4186074.3256582897 ; 2.0285659220101416E8 ; 7.794990450987651E8 ; 3.3281634082851368E10 ; 0.0
174 ; 4181659.494694886 ; 2.02868613873226E8 ; 7.836851194244235E8 ; 3.3484490675052383E10 ; 0.0
175 ; 4178256.713009024 ; 2.028805941931973E8 ; 7.878667789191183E8 ; 3.368735928892561E10 ; 0.0
176 ; 4168535.099739426 ; 2.0289253282816666E8 ; 7.920450356321273E8 ; 3.389023988311881E10 ; 0.0
177 ; 4164824.430601341 ; 2.029044294484464E8 ; 7.962135707318667E8 ; 3.4093132415946976E10 ; 0.0
178 ; 4157255.248498226 ; 2.0291628372736815E8 ; 8.003783951624681E8 ; 3.4296036845395424E10 ; 0.0
179 ; 4151226.118201802 ; 2.0292809534123036E8 ; 8.045356504109663E8 ; 3.4498953129122795E10 ; 0.0
180 ; 4145688.786211031 ; 2.0293986396924752E8 ; 8.086868765291681E8 ; 3.470188122446403E10 ; 0.0
181 ; 4143651.4289331897 ; 2.0295158929350114E8 ; 8.128325653153791E8 ; 3.490482108843327E10 ; 0.0
182 ; 4134127.211363682 ; 2.0296327099889237E8 ; 8.169762167443123E8 ; 3.5107772677726776E10 ; 0.0
183 ; 4126229.8509188653 ; 2.0297490877309635E8 ; 8.21110343955676E8 ; 3.531073594872567E10 ; 0.0
184 ; 4120337.3761838432 ; 2.02986502306518E8 ; 8.252365738065948E8 ; 3.5513710857498764E10 ; 0.0
185 ; 4118126.930636658 ; 2.0299805129224914E8 ; 8.293569111827787E8 ; 3.571669735980528E10 ; 0.0
186 ; 4109057.961779356 ; 2.0300955542602766E8 ; 8.334750381134154E8 ; 3.5919695411097534E10 ; 0.0
187 ; 4107606.9488306926 ; 2.030210144061972E8 ; 8.375840960751947E8 ; 3.612270496652356E10 ; 0.0
188 ; 4102344.5269119195 ; 2.030324279336689E8 ; 8.416917030240254E8 ; 3.6325725980929756E10 ; 0.0
189 ; 4096152.9411761765 ; 2.0304379571188414E8 ; 8.457940475509374E8 ; 3.652875840886343E10 ; 0.0
190 ; 4085314.221403564 ; 2.0305511744677845E8 ; 8.498902004921136E8 ; 3.673180220457531E10 ; 0.0
191 ; 4080737.353382203 ; 2.030663928467469E8 ; 8.539755147135172E8 ; 3.693485732202209E10 ; 0.0
192 ; 4075835.50435125 ; 2.0307762162261024E8 ; 8.580562520668994E8 ; 3.7137923714868835E10 ; 0.0
193 ; 4069758.521717337 ; 2.030888034875827E8 ; 8.621320875712507E8 ; 3.734100133649145E10 ; 0.0
194 ; 4061694.6901246137 ; 2.030999381572403E8 ; 8.66201846092968E8 ; 3.754409013997903E10 ; 0.0
195 ; 4056788.4860371286 ; 2.031110253494906E8 ; 8.702635407830926E8 ; 3.774719007813627E10 ; 0.0
196 ; 4051692.2032302637 ; 2.0312206478454334E8 ; 8.743203292691298E8 ; 3.7950301103485756E10 ; 0.0
197 ; 4046864.4689286943 ; 2.0313305618488201E8 ; 8.7837202147236E8 ; 3.81534231682703E10 ; 0.0
198 ; 4038349.7376061175 ; 2.0314399927523634E8 ; 8.824188859412887E8 ; 3.8356556224455185E10 ; 0.0
199 ; 4034526.2641446795 ; 2.0315489378255588E8 ; 8.864572356788949E8 ; 3.855970022373042E10 ; 0.0
200 ; 4029657.341275404 ; 2.0316573943598416E8 ; 8.904917619430395E8 ; 3.876285511751298E10 ; 0.0
201 ; 4023961.0172178745 ; 1.551132787776294E8 ; 8.94521419284315E8 ; 3.896602085694896E10 ; 0.0
