CSV File for the City 3 on Day 72
1 - Minute m 
2 - Power Consumed at minute m 
3 - Power Produced at minute m 
4 - Energy Consumed since the beginning of the day 
5 - Energy Produced since the beginning of the day 
6 - Energy Lost since the beginning of the day on lines starting from the city
 
0 ; 2378197.287486967 ; 1.0548851265348676E8 ; 0.0 ; 0.0 ; 0.0
1 ; 2381157.9760935684 ; 1.0564142503196359E8 ; 2378197.287486967 ; 1.0548851265348676E8 ; 0.0
2 ; 2384229.491507716 ; 1.061031221875554E8 ; 4759355.263580536 ; 2.1112993768545035E8 ; 0.0
3 ; 2386758.4281521235 ; 1.0687360589411974E8 ; 7143584.755088251 ; 3.1723305987300575E8 ; 0.0
4 ; 2390936.317452445 ; 1.0795287774585372E8 ; 9530343.183240375 ; 4.241066657671255E8 ; 0.0
5 ; 2394717.9657992017 ; 1.0934093914695299E8 ; 1.192127950069282E7 ; 5.320595435129792E8 ; 0.0
6 ; 2399373.4401603467 ; 1.1103779130229643E8 ; 1.4315997466492021E7 ; 6.414004826599321E8 ; 0.0
7 ; 2407760.6072418094 ; 1.1304343520929831E8 ; 1.6715370906652369E7 ; 7.524382739622285E8 ; 0.0
8 ; 2417137.342573643 ; 1.1535787165105402E8 ; 1.9123131513894178E7 ; 8.654817091715269E8 ; 0.0
9 ; 2435987.6528193206 ; 1.1798110119088984E8 ; 2.154026885646782E7 ; 9.808395808225809E8 ; 0.0
10 ; 2461970.902782052 ; 1.2091312416840357E8 ; 2.397625650928714E7 ; 1.0988206820134706E9 ; 0.0
11 ; 2503122.145039125 ; 1.241539406970627E8 ; 2.6438227412069194E7 ; 1.2197338061818743E9 ; 0.0
12 ; 2570373.185681344 ; 1.2770355066339973E8 ; 2.894134955710832E7 ; 1.343887746878937E9 ; 0.0
13 ; 2632061.4205656424 ; 1.3156195372781682E8 ; 3.1511722742789663E7 ; 1.4715912975423367E9 ; 0.0
14 ; 2638266.2805282064 ; 1.357291493269878E8 ; 3.4143784163355306E7 ; 1.6031532512701535E9 ; 0.0
15 ; 2642031.7650898406 ; 1.4020513667781717E8 ; 3.678205044388351E7 ; 1.7388824005971413E9 ; 0.0
16 ; 2646145.989815711 ; 1.4498991478289077E8 ; 3.942408220897335E7 ; 1.8790875372749584E9 ; 0.0
17 ; 2648910.5422452986 ; 1.5008348243732962E8 ; 4.207022819878906E7 ; 2.0240774520578492E9 ; 0.0
18 ; 2652027.0730712074 ; 1.5548583823693812E8 ; 4.471913874103436E7 ; 2.1741609344951787E9 ; 0.0
19 ; 2654953.724233951 ; 1.6119698058751914E8 ; 4.737116581410556E7 ; 2.3296467727321167E9 ; 0.0
20 ; 2658042.5191917517 ; 1.6721690771521512E8 ; 5.002611953833951E7 ; 2.490843753319636E9 ; 0.0
21 ; 2660799.728899947 ; 1.7354561767772344E8 ; 5.268416205753126E7 ; 2.658060661034851E9 ; 0.0
22 ; 2664022.1694741873 ; 1.801831083762275E8 ; 5.534496178643121E7 ; 2.8316062787125745E9 ; 0.0
23 ; 2666921.335806402 ; 1.8712937756788278E8 ; 5.800898395590539E7 ; 3.011789387088802E9 ; 0.0
24 ; 2669681.8679428757 ; 1.9438442287869668E8 ; 6.067590529171179E7 ; 3.198918764656685E9 ; 0.0
25 ; 2673018.6444361126 ; 2.0063628271483E8 ; 6.334558715965467E7 ; 3.3933031875353813E9 ; 0.0
26 ; 2676533.6896377658 ; 2.0063850231269825E8 ; 6.601860580409078E7 ; 3.5939394702502112E9 ; 0.0
27 ; 2678701.575248945 ; 2.0064084827702877E8 ; 6.869513949372855E7 ; 3.7945779725629096E9 ; 0.0
28 ; 2683369.357012419 ; 2.006433178406067E8 ; 7.137384106897749E7 ; 3.995218820839938E9 ; 0.0
29 ; 2684611.070708541 ; 2.0064590817019722E8 ; 7.405721042598991E7 ; 4.195862138680545E9 ; 0.0
30 ; 2686774.933782853 ; 2.0064861637882537E8 ; 7.674182149669845E7 ; 4.396508046850742E9 ; 0.0
31 ; 2690706.1216106107 ; 2.006514395375709E8 ; 7.942859643048131E7 ; 4.597156663229568E9 ; 0.0
32 ; 2692901.0845040213 ; 2.0065437468680656E8 ; 8.211930255209193E7 ; 4.7978081027671385E9 ; 0.0
33 ; 2694825.309637795 ; 2.0065741884682152E8 ; 8.481220363659595E7 ; 4.998462477453945E9 ; 0.0
34 ; 2698279.190655774 ; 2.0066056902778628E8 ; 8.750702894623375E7 ; 5.199119896300767E9 ; 0.0
35 ; 2701561.2828614498 ; 2.006638222390284E8 ; 9.020530813688952E7 ; 5.399780465328553E9 ; 0.0
36 ; 2703931.6766589074 ; 2.006671754976E8 ; 9.290686941975097E7 ; 5.600444287567581E9 ; 0.0
37 ; 2706556.4577286877 ; 2.0067062583613E8 ; 9.561080109640989E7 ; 5.801111463065181E9 ; 0.0
38 ; 2709933.2281830506 ; 2.0067417030996215E8 ; 9.831735755413857E7 ; 6.001782088901311E9 ; 0.0
39 ; 2710383.779639324 ; 2.0067780600359014E8 ; 1.0102729078232162E8 ; 6.202456259211273E9 ; 0.0
40 ; 2712633.8089261963 ; 2.0068153003640673E8 ; 1.0373767456196094E8 ; 6.403134065214864E9 ; 0.0
41 ; 2712946.8165470157 ; 2.006853395677907E8 ; 1.0645030837088713E8 ; 6.60381559525127E9 ; 0.0
42 ; 2716956.7236224753 ; 2.0068923180155993E8 ; 1.0916325518743415E8 ; 6.804500934819061E9 ; 0.0
43 ; 2719093.3823030563 ; 2.006932039898224E8 ; 1.1188021191105662E8 ; 7.005190166620621E9 ; 0.0
44 ; 2718846.7578320834 ; 2.006972534362598E8 ; 1.1459930529335968E8 ; 7.205883370610443E9 ; 0.0
45 ; 2719637.7324932883 ; 2.0070137749888036E8 ; 1.1731815205119176E8 ; 7.406580624046703E9 ; 0.0
46 ; 2722778.554864951 ; 2.007055735922779E8 ; 1.2003778978368504E8 ; 7.607282001545584E9 ; 0.0
47 ; 2723468.895496801 ; 2.007098391894357E8 ; 1.2276056833855E8 ; 7.807987575137861E9 ; 0.0
48 ; 2723771.8780669593 ; 2.0071417182311165E8 ; 1.254840372340468E8 ; 8.008697414327297E9 ; 0.0
49 ; 2725879.530330152 ; 2.0071856908684272E8 ; 1.2820780911211376E8 ; 8.209411586150409E9 ; 0.0
50 ; 2725757.848681318 ; 2.007230286356036E8 ; 1.3093368864244391E8 ; 8.410130155237251E9 ; 0.0
51 ; 2728846.0974936467 ; 2.007275481861544E8 ; 1.3365944649112523E8 ; 8.610853183872854E9 ; 0.0
52 ; 2727903.395438403 ; 2.0073212551710993E8 ; 1.3638829258861887E8 ; 8.81158073205901E9 ; 0.0
53 ; 2729233.4227071675 ; 2.0073675846876183E8 ; 1.3911619598405728E8 ; 9.01231285757612E9 ; 0.0
54 ; 2729304.8573754653 ; 2.0074144494268212E8 ; 1.4184542940676445E8 ; 9.213049616044882E9 ; 0.0
55 ; 2730717.7892289306 ; 2.0074618290113598E8 ; 1.4457473426413992E8 ; 9.413791060987564E9 ; 0.0
56 ; 2732653.556940152 ; 2.007509703663282E8 ; 1.4730545205336884E8 ; 9.6145372438887E9 ; 0.0
57 ; 2733341.3301185197 ; 2.0075580541950724E8 ; 1.5003810561030897E8 ; 9.815288214255028E9 ; 0.0
58 ; 2733370.796898208 ; 2.0076068619994727E8 ; 1.5277144694042748E8 ; 1.0016044019674536E10 ; 0.0
59 ; 2731767.495351329 ; 2.007656109038287E8 ; 1.555048177373257E8 ; 1.0216804705874483E10 ; 0.0
60 ; 2733608.1949783913 ; 2.0077057778303397E8 ; 1.58236585232677E8 ; 1.0417570316778313E10 ; 0.0
61 ; 2733579.46120705 ; 2.007755851438744E8 ; 1.609701934276554E8 ; 1.0618340894561346E10 ; 0.0
62 ; 2735485.609565352 ; 2.0078063134576374E8 ; 1.6370377288886246E8 ; 1.0819116479705221E10 ; 0.0
63 ; 2735588.2318617725 ; 2.0078571479984933E8 ; 1.664392584984278E8 ; 1.1019897111050985E10 ; 0.0
64 ; 2736954.64688137 ; 2.007908339676139E8 ; 1.6917484673028958E8 ; 1.1220682825850834E10 ; 0.0
65 ; 2736015.494736663 ; 2.007959873594572E8 ; 1.7191180137717095E8 ; 1.1421473659818447E10 ; 0.0
66 ; 2736819.6642118283 ; 2.0080117353326675E8 ; 1.7464781687190762E8 ; 1.1622269647177904E10 ; 0.0
67 ; 2738546.220961442 ; 2.008063910929854E8 ; 1.7738463653611946E8 ; 1.182307082071117E10 ; 0.0
68 ; 2736742.67261645 ; 2.0081163868718252E8 ; 1.801231827570809E8 ; 1.2023877211804155E10 ; 0.0
69 ; 2738266.7912175795 ; 2.0081691500763476E8 ; 1.8285992542969736E8 ; 1.2224688850491339E10 ; 0.0
70 ; 2739550.64333392 ; 2.0082221878792137E8 ; 1.8559819222091493E8 ; 1.2425505765498974E10 ; 0.0
71 ; 2737924.9713500827 ; 2.0082754880203846E8 ; 1.8833774286424884E8 ; 1.2626327984286896E10 ; 0.0
72 ; 2739382.558883923 ; 2.0083290386303592E8 ; 1.9107566783559892E8 ; 1.2827155533088934E10 ; 0.0
73 ; 2739669.101785375 ; 2.0083828282167968E8 ; 1.9381505039448285E8 ; 1.302798843695197E10 ; 0.0
74 ; 2738719.8526776996 ; 2.0084368456514242E8 ; 1.965547194962682E8 ; 1.322882671977365E10 ; 0.0
75 ; 2739110.4833039124 ; 2.0084910801572418E8 ; 1.9929343934894592E8 ; 1.342967040433879E10 ; 0.0
76 ; 2739653.4613263826 ; 2.008545521296047E8 ; 2.0203254983224982E8 ; 1.3630519512354515E10 ; 0.0
77 ; 2738956.06809895 ; 2.008600158956288E8 ; 2.047722032935762E8 ; 1.383137406448412E10 ; 0.0
78 ; 2738715.9929058985 ; 2.0086549833412558E8 ; 2.0751115936167517E8 ; 1.4032234080379747E10 ; 0.0
79 ; 2738066.470434214 ; 2.0087099849576205E8 ; 2.1024987535458106E8 ; 1.4233099578713873E10 ; 0.0
80 ; 2739199.988782054 ; 2.0087651546043158E8 ; 2.1298794182501528E8 ; 1.4433970577209635E10 ; 0.0
81 ; 2737278.1093465956 ; 2.0088204833617717E8 ; 2.1572714181379732E8 ; 1.4634847092670067E10 ; 0.0
82 ; 2737391.0322619663 ; 2.0088759625814986E8 ; 2.1846441992314392E8 ; 1.4835729141006245E10 ; 0.0
83 ; 2734550.4471883224 ; 2.008931583876016E8 ; 2.212018109554059E8 ; 1.5036616737264395E10 ; 0.0
84 ; 2735046.726201501 ; 2.0089873391091242E8 ; 2.239363614025942E8 ; 1.5237509895651997E10 ; 0.0
85 ; 2734924.097134671 ; 2.0090432203865167E8 ; 2.266714081287957E8 ; 1.5438408629562908E10 ; 0.0
86 ; 2734374.107144981 ; 2.0090992200467226E8 ; 2.294063322259304E8 ; 1.563931295160156E10 ; 0.0
87 ; 2732922.678797136 ; 2.0091553306523776E8 ; 2.3214070633307537E8 ; 1.5840222873606234E10 ; 0.0
88 ; 2731799.774176523 ; 2.0092115449818143E8 ; 2.348736290118725E8 ; 1.604113840667147E10 ; 0.0
89 ; 2730911.2069953014 ; 2.009267856020962E8 ; 2.37605428786049E8 ; 1.6242059561169653E10 ; 0.0
90 ; 2729859.35129603 ; 2.0093242569555533E8 ; 2.4033633999304432E8 ; 1.644298634677175E10 ; 0.0
91 ; 2728379.323401481 ; 2.009380741163623E8 ; 2.4306619934434035E8 ; 1.6643918772467304E10 ; 0.0
92 ; 2726830.450987569 ; 2.0094373022082967E8 ; 2.4579457866774184E8 ; 1.6844856846583666E10 ; 0.0
93 ; 2727237.5147393453 ; 2.0094939338308555E8 ; 2.485214091187294E8 ; 1.7045800576804495E10 ; 0.0
94 ; 2725725.2170924013 ; 2.00955062994407E8 ; 2.5124864663346875E8 ; 1.724674997018758E10 ; 0.0
95 ; 2724392.6191805555 ; 2.0096073846257967E8 ; 2.5397437185056114E8 ; 1.7447705033181988E10 ; 0.0
96 ; 2722971.0599240805 ; 2.009664192112824E8 ; 2.566987644697417E8 ; 1.7648665771644566E10 ; 0.0
97 ; 2721186.2701959037 ; 2.0097210467949626E8 ; 2.5942173552966577E8 ; 1.7849632190855846E10 ; 0.0
98 ; 2720100.2014301256 ; 2.00977794320937E8 ; 2.6214292179986167E8 ; 1.8050604295535343E10 ; 0.0
99 ; 2719042.67592217 ; 2.009834876035101E8 ; 2.6486302200129178E8 ; 1.825158208985628E10 ; 0.0
100 ; 2718076.0662838086 ; 2.0098918400878754E8 ; 2.6758206467721394E8 ; 1.8452565577459793E10 ; 0.0
101 ; 2716649.334011612 ; 2.0099488303150555E8 ; 2.703001407434977E8 ; 1.8653554761468582E10 ; 0.0
102 ; 2716474.9265341 ; 2.0100058417908266E8 ; 2.7301679007750934E8 ; 1.8854549644500088E10 ; 0.0
103 ; 2713738.3290968616 ; 2.0100628697115687E8 ; 2.7573326500404346E8 ; 1.905555022867917E10 ; 0.0
104 ; 2712346.1610348 ; 2.0101199093914157E8 ; 2.784470033331403E8 ; 1.9256556515650326E10 ; 0.0
105 ; 2712617.0031708856 ; 2.010176956257995E8 ; 2.8115934949417514E8 ; 1.9457568506589466E10 ; 0.0
106 ; 2709396.24915083 ; 2.0102340058483365E8 ; 2.8387196649734604E8 ; 1.9658586202215267E10 ; 0.0
107 ; 2708978.597198392 ; 2.0102910538049477E8 ; 2.8658136274649686E8 ; 1.9859609602800102E10 ; 0.0
108 ; 2707594.5057772133 ; 2.0103480958720472E8 ; 2.892903413436952E8 ; 2.0060638708180595E10 ; 0.0
109 ; 2706390.378816773 ; 2.0104051278919506E8 ; 2.9199793584947246E8 ; 2.02616735177678E10 ; 0.0
110 ; 2703457.4865318486 ; 2.0104621458016008E8 ; 2.9470432622828925E8 ; 2.0462714030556995E10 ; 0.0
111 ; 2704707.555419229 ; 2.010519145629239E8 ; 2.974077837148211E8 ; 2.0663760245137154E10 ; 0.0
112 ; 2702588.9589060005 ; 2.0105761234912097E8 ; 3.001124912702403E8 ; 2.0864812159700077E10 ; 0.0
113 ; 2700297.544830156 ; 2.0106330755888936E8 ; 3.028150802291463E8 ; 2.10658697720492E10 ; 0.0
114 ; 2698435.943525217 ; 2.0106899982057637E8 ; 3.0551537777397645E8 ; 2.1266933079608086E10 ; 0.0
115 ; 2697738.8970718766 ; 2.0107468877045602E8 ; 3.0821381371750164E8 ; 2.146800207942866E10 ; 0.0
116 ; 2696593.277105843 ; 2.010803740524578E8 ; 3.1091155261457354E8 ; 2.1669076768199116E10 ; 0.0
117 ; 2694445.1291873055 ; 2.0108605531790614E8 ; 3.136081458916794E8 ; 2.187015714225157E10 ; 0.0
118 ; 2693075.7151183453 ; 2.0109173222527054E8 ; 3.163025910208667E8 ; 2.2071243197569477E10 ; 0.0
119 ; 2691450.1008311077 ; 2.0109740443992528E8 ; 3.1899566673598504E8 ; 2.2272334929794746E10 ; 0.0
120 ; 2689008.1675286912 ; 2.0110307163391915E8 ; 3.2168711683681613E8 ; 2.2473432334234673E10 ; 0.0
121 ; 2687592.3094335096 ; 2.0110873348575366E8 ; 3.243761250043448E8 ; 2.267453540586859E10 ; 0.0
122 ; 2684851.2125192466 ; 2.0111438968017074E8 ; 3.2706371731377834E8 ; 2.2875644139354343E10 ; 0.0
123 ; 2683703.956168016 ; 2.011200399079482E8 ; 3.2974856852629757E8 ; 2.3076758529034515E10 ; 0.0
124 ; 2681709.6321209976 ; 2.0112568386570352E8 ; 3.3243227248246557E8 ; 2.3277878568942463E10 ; 0.0
125 ; 2679577.0015682965 ; 2.0113132125570548E8 ; 3.351139821145866E8 ; 2.3479004252808167E10 ; 0.0
126 ; 2678616.0221972107 ; 2.0113695178569263E8 ; 3.377935591161549E8 ; 2.3680135574063873E10 ; 0.0
127 ; 2675211.2204916235 ; 2.011425751686995E8 ; 3.404721751383521E8 ; 2.3881272525849567E10 ; 0.0
128 ; 2675086.3049115767 ; 2.0114819112288907E8 ; 3.4314738635884374E8 ; 2.408241510101827E10 ; 0.0
129 ; 2670253.837335638 ; 2.0115379937139198E8 ; 3.458224726637553E8 ; 2.428356329214116E10 ; 0.0
130 ; 2669654.8435573434 ; 2.011593996421518E8 ; 3.4849272650109094E8 ; 2.448471709151255E10 ; 0.0
131 ; 2666746.2476537023 ; 2.0116499166777647E8 ; 3.511623813446483E8 ; 2.46858764911547E10 ; 0.0
132 ; 2662678.8517152653 ; 2.011705751853952E8 ; 3.53829127592302E8 ; 2.488704148282248E10 ; 0.0
133 ; 2663713.587409537 ; 2.011761499365211E8 ; 3.564918064440173E8 ; 2.5088212058007874E10 ; 0.0
134 ; 2658987.073409764 ; 2.011817156669188E8 ; 3.5915552003142685E8 ; 2.5289388207944393E10 ; 0.0
135 ; 2655623.1100036534 ; 2.0118727212647736E8 ; 3.618145071048366E8 ; 2.5490569923611313E10 ; 0.0
136 ; 2652786.420104578 ; 2.0119281906908774E8 ; 3.6447013021484023E8 ; 2.569175719573779E10 ; 0.0
137 ; 2649928.2132077646 ; 2.0119835625252515E8 ; 3.671229166349448E8 ; 2.5892950014806877E10 ; 0.0
138 ; 2646226.1161827445 ; 2.0120388343833563E8 ; 3.697728448481526E8 ; 2.6094148371059402E10 ; 0.0
139 ; 2644730.605348386 ; 2.0120940039172712E8 ; 3.724190709643353E8 ; 2.6295352254497738E10 ; 0.0
140 ; 2640549.7314913836 ; 2.0121490688146427E8 ; 3.7506380156968373E8 ; 2.6496561654889465E10 ; 0.0
141 ; 2639414.4451607144 ; 2.012204026797675E8 ; 3.777043513011751E8 ; 2.669777656177093E10 ; 0.0
142 ; 2635464.695295234 ; 2.0122588756221566E8 ; 3.803437657463358E8 ; 2.68989969644507E10 ; 0.0
143 ; 2631432.597833071 ; 2.012313613076523E8 ; 3.82979230441631E8 ; 2.7100222852012913E10 ; 0.0
144 ; 2630252.697605216 ; 2.0123682369809544E8 ; 3.856106630394641E8 ; 2.7301454213320564E10 ; 0.0
145 ; 2627731.143792156 ; 2.0124227451865056E8 ; 3.882409157370693E8 ; 2.750269103701866E10 ; 0.0
146 ; 2624342.723100468 ; 2.0124771355742702E8 ; 3.9086864688086146E8 ; 2.770393331153731E10 ; 0.0
147 ; 2621134.191906588 ; 2.0125314060545716E8 ; 3.9349298960396194E8 ; 2.7905181025094738E10 ; 0.0
148 ; 2620816.116017762 ; 2.012585554566188E8 ; 3.961141237958685E8 ; 2.8106434165700195E10 ; 0.0
149 ; 2619585.164386954 ; 2.0126395790756005E8 ; 3.987349399118863E8 ; 2.8307692721156815E10 ; 0.0
150 ; 2617916.5871983813 ; 2.0126934775762737E8 ; 4.013545250762732E8 ; 2.8508956679064373E10 ; 0.0
151 ; 2614159.426428963 ; 2.0127472480879578E8 ; 4.039724416634716E8 ; 2.8710226026822E10 ; 0.0
152 ; 2613116.1199009633 ; 2.012800888656018E8 ; 4.0658660108990055E8 ; 2.8911500751630795E10 ; 0.0
153 ; 2611786.4267068044 ; 2.012854397350788E8 ; 4.091997172098015E8 ; 2.9112780840496395E10 ; 0.0
154 ; 2606943.909935633 ; 2.012907772266945E8 ; 4.118115036365083E8 ; 2.9314066280231476E10 ; 0.0
155 ; 2606249.9482482322 ; 2.0129610115229088E8 ; 4.1441844754644394E8 ; 2.951535705745817E10 ; 0.0
156 ; 2603668.760753716 ; 2.0130141132602617E8 ; 4.1702469749469215E8 ; 2.9716653158610462E10 ; 0.0
157 ; 2600657.1243283665 ; 2.013067075643187E8 ; 4.1962836625544584E8 ; 2.991795456993649E10 ; 0.0
158 ; 2598999.0544961435 ; 2.013119896857931E8 ; 4.222290233797742E8 ; 3.011926127750081E10 ; 0.0
159 ; 2597279.7791870963 ; 2.01317257511228E8 ; 4.248280224342704E8 ; 3.0320573267186604E10 ; 0.0
160 ; 2595352.933833492 ; 2.0132251086350584E8 ; 4.2742530221345747E8 ; 3.052189052469783E10 ; 0.0
161 ; 2593931.951821237 ; 2.0132774956756425E8 ; 4.3002065514729095E8 ; 3.0723213035561337E10 ; 0.0
162 ; 2591531.002116245 ; 2.0133297345034927E8 ; 4.3261458709911215E8 ; 3.0924540785128902E10 ; 0.0
163 ; 2589618.3443604945 ; 2.013381823407701E8 ; 4.352061181012284E8 ; 3.112587375857925E10 ; 0.0
164 ; 2585895.6239925986 ; 2.013433760696553E8 ; 4.377957364455889E8 ; 3.132721194092002E10 ; 0.0
165 ; 2584668.963528101 ; 2.013485544697109E8 ; 4.403816320695815E8 ; 3.1528555316989677E10 ; 0.0
166 ; 2582879.3229837376 ; 2.0135371737547937E8 ; 4.429663010331096E8 ; 3.172990387145939E10 ; 0.0
167 ; 2580012.7846302553 ; 2.0135886462330055E8 ; 4.4554918035609335E8 ; 3.193125758883487E10 ; 0.0
168 ; 2577093.454763787 ; 2.013639960512735E8 ; 4.481291931407236E8 ; 3.2132616453458168E10 ; 0.0
169 ; 2574686.104721603 ; 2.013691114992199E8 ; 4.5070628659548736E8 ; 3.233398044950944E10 ; 0.0
170 ; 2571330.5149645642 ; 2.0137421080864856E8 ; 4.5328097270020896E8 ; 3.253534956100866E10 ; 0.0
171 ; 2570039.9533486012 ; 2.013792938227212E8 ; 4.5585230321517354E8 ; 3.2736723771817307E10 ; 0.0
172 ; 2567191.4293305 ; 2.0138436038621938E8 ; 4.584223431685221E8 ; 3.2938103065640026E10 ; 0.0
173 ; 2565393.659604483 ; 2.0138941034551245E8 ; 4.6098953459785265E8 ; 3.3139487426026245E10 ; 0.0
174 ; 2564308.9851207724 ; 2.0139444354852664E8 ; 4.6355492825745714E8 ; 3.3340876836371758E10 ; 0.0
175 ; 2563030.2217469085 ; 2.013994598447153E8 ; 4.661192372425779E8 ; 3.3542271279920284E10 ; 0.0
176 ; 2561039.124358981 ; 2.014044590850299E8 ; 4.6868226746432483E8 ; 3.3743670739765E10 ; 0.0
177 ; 2559088.2955956766 ; 2.0140944112189218E8 ; 4.712433065886838E8 ; 3.394507519885003E10 ; 0.0
178 ; 2557832.0369981457 ; 2.0141440580916715E8 ; 4.738023948842795E8 ; 3.414648463997192E10 ; 0.0
179 ; 2557150.1547408327 ; 2.0141935300213695E8 ; 4.7636022692127764E8 ; 3.4347899045781086E10 ; 0.0
180 ; 2555597.5781834614 ; 2.0142428255747563E8 ; 4.7891737707601845E8 ; 3.4549318398783226E10 ; 0.0
181 ; 2554867.500138271 ; 2.0142919433322474E8 ; 4.814729746542019E8 ; 3.47507426813407E10 ; 0.0
182 ; 2551714.5130293965 ; 2.0143408818876985E8 ; 4.840278421543402E8 ; 3.495217187567392E10 ; 0.0
183 ; 2549881.4857706553 ; 2.014389639848174E8 ; 4.865795566673696E8 ; 3.5153605963862686E10 ; 0.0
184 ; 2549925.482050375 ; 2.0144382158337298E8 ; 4.8912943815314025E8 ; 3.53550449278475E10 ; 0.0
185 ; 2549292.6915057683 ; 2.014486608477197E8 ; 4.916793636351906E8 ; 3.555648874943088E10 ; 0.0
186 ; 2548122.5864176247 ; 2.014534816423976E8 ; 4.942286563266964E8 ; 3.5757937410278595E10 ; 0.0
187 ; 2547356.5031050104 ; 2.0145828383318377E8 ; 4.96776778913114E8 ; 3.595939089192099E10 ; 0.0
188 ; 2544957.274049892 ; 2.014630672870727E8 ; 4.99324135416219E8 ; 3.616084917575417E10 ; 0.0
189 ; 2543097.3045776077 ; 2.0146783187225783E8 ; 5.018690926902689E8 ; 3.6362312243041245E10 ; 0.0
190 ; 2541267.808354771 ; 2.0147257745811328E8 ; 5.0441218999484646E8 ; 3.6563780074913506E10 ; 0.0
191 ; 2540186.436481525 ; 2.0147730391517633E8 ; 5.0695345780320126E8 ; 3.676525265237162E10 ; 0.0
192 ; 2539079.3566308967 ; 2.0148201111513054E8 ; 5.094936442396828E8 ; 3.69667299562868E10 ; 0.0
193 ; 2536348.398004019 ; 2.0148669893078905E8 ; 5.120327235963137E8 ; 3.7168211967401924E10 ; 0.0
194 ; 2535752.990854105 ; 2.0149136723607898E8 ; 5.145690719943177E8 ; 3.736969866633271E10 ; 0.0
195 ; 2534373.9728538874 ; 2.0149601590602577E8 ; 5.171048249851718E8 ; 3.757119003356879E10 ; 0.0
196 ; 2533424.0972038903 ; 2.0150064481673846E8 ; 5.196391989580257E8 ; 3.7772686049474815E10 ; 0.0
197 ; 2531171.3970874897 ; 2.015052538453951E8 ; 5.221726230552296E8 ; 3.797418669429156E10 ; 0.0
198 ; 2532529.8747240147 ; 2.0150984287022883E8 ; 5.247037944523171E8 ; 3.8175691948136955E10 ; 0.0
199 ; 2528953.2532354696 ; 2.0151441177051437E8 ; 5.2723632432704115E8 ; 3.837720179100719E10 ; 0.0
200 ; 2527646.90325542 ; 2.015189604265549E8 ; 5.297652775802766E8 ; 3.85787162027777E10 ; 0.0
