CSV File for the City 1 on Day 30
1 - Minute m 
2 - Power Consumed at minute m 
3 - Power Produced at minute m 
4 - Energy Consumed since the beginning of the day 
5 - Energy Produced since the beginning of the day 
6 - Energy Lost since the beginning of the day on lines starting from the city
 
0 ; 1.5981193898450267E7 ; 1.0526631283951995E8 ; 0.0 ; 0.0 ; 0.0
1 ; 1.5995615365077045E7 ; 1.0541767349418736E8 ; 1.5981193898450267E7 ; 1.0526631283951995E8 ; 0.0
2 ; 1.6013758425553713E7 ; 1.0587791231791571E8 ; 3.197680926352731E7 ; 2.106839863337073E8 ; 0.0
3 ; 1.6032417595699266E7 ; 1.066470494654463E8 ; 4.799056768908103E7 ; 3.16561898651623E8 ; 0.0
4 ; 1.6055139987276236E7 ; 1.0772510518960434E8 ; 6.402298528478029E7 ; 4.232089481170693E8 ; 0.0
5 ; 1.6085647439689001E7 ; 1.0911209927224839E8 ; 8.007812527205653E7 ; 5.3093405330667365E8 ; 0.0
6 ; 1.6119336542169249E7 ; 1.108080503464233E8 ; 9.616377271174553E7 ; 6.40046152578922E8 ; 0.0
7 ; 1.6174327416312829E7 ; 1.1281297514291126E8 ; 1.1228310925391477E8 ; 7.508542029253453E8 ; 0.0
8 ; 1.6251687225823462E7 ; 1.1512688771529359E8 ; 1.284574366702276E8 ; 8.636671780682566E8 ; 0.0
9 ; 1.6370682847039584E7 ; 1.1774979871498317E8 ; 1.4470912389605105E8 ; 9.787940657835503E8 ; 0.0
10 ; 1.6554561756798953E7 ; 1.2068171479572803E8 ; 1.6107980674309063E8 ; 1.0965438644985335E9 ; 0.0
11 ; 1.6843210433926623E7 ; 1.2392263822115603E8 ; 1.7763436849988958E8 ; 1.2172255792942615E9 ; 0.0
12 ; 1.730326696145129E7 ; 1.2747256672763929E8 ; 1.944775789338162E8 ; 1.3411482175154176E9 ; 0.0
13 ; 1.7752801217966896E7 ; 1.3133149366142976E8 ; 2.117808458952675E8 ; 1.4686207842430568E9 ; 0.0
14 ; 1.7805793019001737E7 ; 1.3549940837111467E8 ; 2.2953364711323437E8 ; 1.5999522779044867E9 ; 0.0
15 ; 1.7825257214315332E7 ; 1.3997629680311257E8 ; 2.4733944013223612E8 ; 1.7354516862756014E9 ; 0.0
16 ; 1.784791098141557E7 ; 1.447621422266414E8 ; 2.6516469734655145E8 ; 1.875427983078714E9 ; 0.0
17 ; 1.7865644596158646E7 ; 1.4985692600865617E8 ; 2.8301260832796705E8 ; 2.0201901253053553E9 ; 0.0
18 ; 1.7887149333703358E7 ; 1.5526062836729842E8 ; 3.008782529241257E8 ; 2.1700470513140116E9 ; 0.0
19 ; 1.7910545385853674E7 ; 1.609732290497429E8 ; 3.18765402257829E8 ; 2.32530767968131E9 ; 0.0
20 ; 1.79306954439233E7 ; 1.669947079012483E8 ; 3.3667594764368266E8 ; 2.486280908731053E9 ; 0.0
21 ; 1.795108601227896E7 ; 1.7332504531186834E8 ; 3.5460664308760595E8 ; 2.6532756166323013E9 ; 0.0
22 ; 1.797290058394307E7 ; 1.7996422254271823E8 ; 3.725577290998849E8 ; 2.8266006619441695E9 ; 0.0
23 ; 1.7992932097772967E7 ; 1.8691222194388658E8 ; 3.90530629683828E8 ; 3.006564884486888E9 ; 0.0
24 ; 1.8012099843872737E7 ; 1.9416902708141744E8 ; 4.0852356178160095E8 ; 3.1934771064307747E9 ; 0.0
25 ; 1.8034731082895946E7 ; 2.00422663690536E8 ; 4.265356616254737E8 ; 3.3876461335121922E9 ; 0.0
26 ; 1.8056274019548263E7 ; 2.004266657137122E8 ; 4.445703927083696E8 ; 3.5880687972027283E9 ; 0.0
27 ; 1.8074817939528883E7 ; 2.0043078978862244E8 ; 4.6262666672791785E8 ; 3.7884954629164405E9 ; 0.0
28 ; 1.809489620471265E7 ; 2.0043502443279415E8 ; 4.8070148466744673E8 ; 3.988926252705063E9 ; 0.0
29 ; 1.8116023172120027E7 ; 2.004393592596123E8 ; 4.9879638087215936E8 ; 4.189361277137857E9 ; 0.0
30 ; 1.8133812955519833E7 ; 2.0044378489348662E8 ; 5.169124040442794E8 ; 4.3898006363974695E9 ; 0.0
31 ; 1.8153953149479657E7 ; 2.0044829288280076E8 ; 5.3504621699979925E8 ; 4.5902444212909565E9 ; 0.0
32 ; 1.8174939221760456E7 ; 2.004528756143155E8 ; 5.532001701492789E8 ; 4.790692714173758E9 ; 0.0
33 ; 1.8192564757646933E7 ; 2.0045752623139748E8 ; 5.713751093710394E8 ; 4.991145589788073E9 ; 0.0
34 ; 1.8212503306933135E7 ; 2.0046223855748406E8 ; 5.895676741286863E8 ; 5.19160311601947E9 ; 0.0
35 ; 1.8225350419417568E7 ; 2.0046700702550972E8 ; 6.077801774356195E8 ; 5.392065354576954E9 ; 0.0
36 ; 1.8240432957176175E7 ; 2.0047182661354467E8 ; 6.260055278550371E8 ; 5.592532361602464E9 ; 0.0
37 ; 1.8258381472861297E7 ; 2.0047669278658217E8 ; 6.442459608122133E8 ; 5.793004188216008E9 ; 0.0
38 ; 1.8272375853284273E7 ; 2.0048160144421187E8 ; 6.625043422850746E8 ; 5.99348088100259E9 ; 0.0
39 ; 1.828746460586296E7 ; 2.004865488738001E8 ; 6.807767181383588E8 ; 6.193962482446802E9 ; 0.0
40 ; 1.830414115800638E7 ; 2.0049153170873883E8 ; 6.990641827442218E8 ; 6.394449031320602E9 ; 0.0
41 ; 1.8317134953997966E7 ; 2.0049654689130476E8 ; 7.173683239022282E8 ; 6.594940563029342E9 ; 0.0
42 ; 1.83284260638029E7 ; 2.005015916396738E8 ; 7.356854588562262E8 ; 6.795437109920647E9 ; 0.0
43 ; 1.8340052379635666E7 ; 2.0050666341865736E8 ; 7.540138849200292E8 ; 6.995938701560321E9 ; 0.0
44 ; 1.8351147267199043E7 ; 2.005117599137543E8 ; 7.723539372996649E8 ; 7.196445364978978E9 ; 0.0
45 ; 1.836439930120689E7 ; 2.0051687900814757E8 ; 7.907050845668639E8 ; 7.396957124892733E9 ; 0.0
46 ; 1.8372850783407155E7 ; 2.0052201876230752E8 ; 8.090694838680708E8 ; 7.59747400390088E9 ; 0.0
47 ; 1.8380119447682697E7 ; 2.0052717739589974E8 ; 8.27442334651478E8 ; 7.797996022663187E9 ; 0.0
48 ; 1.8386881464814488E7 ; 2.0053235327172658E8 ; 8.458224540991608E8 ; 7.998523200059087E9 ; 0.0
49 ; 1.8392235153728686E7 ; 2.005375448814632E8 ; 8.642093355639753E8 ; 8.199055553330813E9 ; 0.0
50 ; 1.8399153229960646E7 ; 2.0054275083297542E8 ; 8.82601570717704E8 ; 8.399593098212276E9 ; 0.0
51 ; 1.840280558807588E7 ; 2.0054796983903265E8 ; 9.010007239476647E8 ; 8.600135849045252E9 ; 0.0
52 ; 1.8407922578594293E7 ; 2.005532007072512E8 ; 9.194035295357406E8 ; 8.800683818884285E9 ; 0.0
53 ; 1.841466902437301E7 ; 2.0055844233112326E8 ; 9.37811452114335E8 ; 9.001237019591536E9 ; 0.0
54 ; 1.8419910439107392E7 ; 2.0056369368200454E8 ; 9.56226121138708E8 ; 9.201795461922659E9 ; 0.0
55 ; 1.842164830380408E7 ; 2.005689538019489E8 ; 9.746460315778154E8 ; 9.402359155604664E9 ; 0.0
56 ; 1.8430128064118713E7 ; 2.0057422179729244E8 ; 9.930676798816195E8 ; 9.602928109406612E9 ; 0.0
57 ; 1.843056077055557E7 ; 2.0057949683290055E8 ; 1.0114978079457382E9 ; 9.803502331203905E9 ; 0.0
58 ; 1.8437273473101582E7 ; 2.0058477812700322E8 ; 1.0299283687162938E9 ; 1.0004081828036806E10 ; 0.0
59 ; 1.844198433620442E7 ; 2.0059006494655174E8 ; 1.0483656421893954E9 ; 1.0204666606163809E10 ; 0.0
60 ; 1.8449774130632747E7 ; 2.0059535660303885E8 ; 1.0668076265255998E9 ; 1.0405256671110361E10 ; 0.0
61 ; 1.8445212408662707E7 ; 2.0060065244873103E8 ; 1.0852574006562326E9 ; 1.06058520277134E10 ; 0.0
62 ; 1.8448309073497593E7 ; 2.006059518732678E8 ; 1.1037026130648954E9 ; 1.080645268016213E10 ; 0.0
63 ; 1.845256146703932E7 ; 2.006112543005882E8 ; 1.122150922138393E9 ; 1.1007058632035398E10 ; 0.0
64 ; 1.8456527602219243E7 ; 2.006165591861494E8 ; 1.1406034836054323E9 ; 1.1207669886335987E10 ; 0.0
65 ; 1.845820690591247E7 ; 2.0062186601440665E8 ; 1.1590600112076516E9 ; 1.1408286445522137E10 ; 0.0
66 ; 1.8462965083664387E7 ; 2.0062717429652664E8 ; 1.177518218113564E9 ; 1.1608908311536543E10 ; 0.0
67 ; 1.846338452323842E7 ; 2.0063248356831056E8 ; 1.1959811831972284E9 ; 1.1809535485833069E10 ; 0.0
68 ; 1.8463769253989305E7 ; 2.0063779338830492E8 ; 1.2144445677204669E9 ; 1.2010167969401379E10 ; 0.0
69 ; 1.846655180912749E7 ; 2.0064310333608153E8 ; 1.232908336974456E9 ; 1.2210805762789684E10 ; 0.0
70 ; 1.8467994494626056E7 ; 2.0064841301066908E8 ; 1.2513748887835836E9 ; 1.2411448866125767E10 ; 0.0
71 ; 1.847027726878951E7 ; 2.006537220291217E8 ; 1.2698428832782097E9 ; 1.2612097279136436E10 ; 0.0
72 ; 1.8470856737220895E7 ; 2.006590300252108E8 ; 1.2883131605469992E9 ; 1.2812751001165558E10 ; 0.0
73 ; 1.847324024317017E7 ; 2.006643366482285E8 ; 1.3067840172842202E9 ; 1.301341003119077E10 ; 0.0
74 ; 1.847866125944078E7 ; 2.0066964156189156E8 ; 1.3252572575273905E9 ; 1.3214074367838997E10 ; 0.0
75 ; 1.847263824899821E7 ; 2.0067494444333664E8 ; 1.3437359187868314E9 ; 1.3414744009400888E10 ; 0.0
76 ; 1.847906932878351E7 ; 2.0068024498219788E8 ; 1.3622085570358295E9 ; 1.3615418953844225E10 ; 0.0
77 ; 1.8478399697259307E7 ; 2.006855428797597E8 ; 1.380687626364613E9 ; 1.3816099198826424E10 ; 0.0
78 ; 1.847084012251734E7 ; 2.0069083784817743E8 ; 1.3991660260618725E9 ; 1.4016784741706182E10 ; 0.0
79 ; 1.846668273115078E7 ; 2.0069612960975993E8 ; 1.4176368661843898E9 ; 1.421747557955436E10 ; 0.0
80 ; 1.846025761208401E7 ; 2.0070141789630833E8 ; 1.4361035489155407E9 ; 1.441817170916412E10 ; 0.0
81 ; 1.8452832771131545E7 ; 2.007067024485063E8 ; 1.4545638065276246E9 ; 1.4618873127060429E10 ; 0.0
82 ; 1.8448213217108514E7 ; 2.007119830153569E8 ; 1.4730166392987561E9 ; 1.4819579829508934E10 ; 0.0
83 ; 1.8448178401320986E7 ; 2.0071725935366222E8 ; 1.4914648525158646E9 ; 1.502029181252429E10 ; 0.0
84 ; 1.8438354508997124E7 ; 2.0072253122754228E8 ; 1.5099130309171855E9 ; 1.5221009071877953E10 ; 0.0
85 ; 1.843095556469809E7 ; 2.0072779840798917E8 ; 1.5283513854261827E9 ; 1.5421731603105495E10 ; 0.0
86 ; 1.842394081294425E7 ; 2.0073306067245445E8 ; 1.5467823409908807E9 ; 1.5622459401513485E10 ; 0.0
87 ; 1.841583061288286E7 ; 2.0073831780446622E8 ; 1.565206281803825E9 ; 1.582319246218594E10 ; 0.0
88 ; 1.8408549005535692E7 ; 2.0074356959327367E8 ; 1.5836221124167078E9 ; 1.6023930779990406E10 ; 0.0
89 ; 1.840490458216619E7 ; 2.0074881583351722E8 ; 1.6020306614222434E9 ; 1.622467434958368E10 ; 0.0
90 ; 1.8398074787249897E7 ; 2.0075405632492158E8 ; 1.6204355660044096E9 ; 1.6425423165417196E10 ; 0.0
91 ; 1.8386743612417303E7 ; 2.007592908720103E8 ; 1.6388336407916594E9 ; 1.6626177221742117E10 ; 0.0
92 ; 1.8382260352827147E7 ; 2.0076451928384006E8 ; 1.6572203844040766E9 ; 1.6826936512614128E10 ; 0.0
93 ; 1.8373739743471105E7 ; 2.007697413737531E8 ; 1.6756026447569036E9 ; 1.7027701031897968E10 ; 0.0
94 ; 1.8369156761370752E7 ; 2.0077495695914632E8 ; 1.6939763845003748E9 ; 1.722847077327172E10 ; 0.0
95 ; 1.8355363670801546E7 ; 2.007801658612558E8 ; 1.7123455412617455E9 ; 1.7429245730230865E10 ; 0.0
96 ; 1.8347174465635516E7 ; 2.0078536790495583E8 ; 1.730700904932547E9 ; 1.763002589609212E10 ; 0.0
97 ; 1.833797738008626E7 ; 2.0079056291857097E8 ; 1.7490480793981826E9 ; 1.7830811263997078E10 ; 0.0
98 ; 1.8332028804835297E7 ; 2.0079575073370016E8 ; 1.7673860567782688E9 ; 1.803160182691565E10 ; 0.0
99 ; 1.8319936294054776E7 ; 2.0080093118505272E8 ; 1.7857180855831041E9 ; 1.823239757764935E10 ; 0.0
100 ; 1.8313823049997855E7 ; 2.0080610411029416E8 ; 1.8040380218771589E9 ; 1.84331985088344E10 ; 0.0
101 ; 1.830487190300443E7 ; 2.0081126934990224E8 ; 1.8223518449271567E9 ; 1.8634004612944695E10 ; 0.0
102 ; 1.8287840173188876E7 ; 2.0081642674703184E8 ; 1.840656716830161E9 ; 1.8834815882294598E10 ; 0.0
103 ; 1.828600938909289E7 ; 2.0082157614738825E8 ; 1.85894455700335E9 ; 1.903563230904163E10 ; 0.0
104 ; 1.827674615659456E7 ; 2.008267173991083E8 ; 1.877230566392443E9 ; 1.923645388518902E10 ; 0.0
105 ; 1.826128868981593E7 ; 2.0083185035264874E8 ; 1.8955073125490375E9 ; 1.9437280602588127E10 ; 0.0
106 ; 1.825460950826054E7 ; 2.008369748606814E8 ; 1.9137686012388535E9 ; 1.9638112452940777E10 ; 0.0
107 ; 1.824628637645779E7 ; 2.0084209077799466E8 ; 1.932023210747114E9 ; 1.9838949427801456E10 ; 0.0
108 ; 1.823255158892639E7 ; 2.008471979614007E8 ; 1.9502694971235716E9 ; 2.0039791518579453E10 ; 0.0
109 ; 1.821905315437344E7 ; 2.0085229626964834E8 ; 1.968502048712498E9 ; 2.024063871654085E10 ; 0.0
110 ; 1.8212101361770894E7 ; 2.008573855633409E8 ; 1.9867211018668714E9 ; 2.04414910128105E10 ; 0.0
111 ; 1.8199814086303726E7 ; 2.0086246570485902E8 ; 2.0049332032286422E9 ; 2.064234839837384E10 ; 0.0
112 ; 1.8186950257298496E7 ; 2.008675365582876E8 ; 2.023133017314946E9 ; 2.08432108640787E10 ; 0.0
113 ; 1.817735735474251E7 ; 2.0087259798934725E8 ; 2.0413199675722444E9 ; 2.104407840063699E10 ; 0.0
114 ; 1.8164017892099764E7 ; 2.008776498653295E8 ; 2.059497324926987E9 ; 2.1244950998626335E10 ; 0.0
115 ; 1.8154371454873435E7 ; 2.0088269205503574E8 ; 2.0776613428190868E9 ; 2.1445828648491665E10 ; 0.0
116 ; 1.8140317128379423E7 ; 2.0088772442871937E8 ; 2.09581571427396E9 ; 2.16467113405467E10 ; 0.0
117 ; 1.8129517616696607E7 ; 2.0089274685803142E8 ; 2.1139560314023395E9 ; 2.1847599064975418E10 ; 0.0
118 ; 1.8119898261032455E7 ; 2.0089775921596912E8 ; 2.132085549019036E9 ; 2.204849181183345E10 ; 0.0
119 ; 1.810039735538855E7 ; 2.0090276137682712E8 ; 2.1502054472800684E9 ; 2.224938957104942E10 ; 0.0
120 ; 1.8090186875367437E7 ; 2.0090775321615165E8 ; 2.168305844635457E9 ; 2.2450292332426247E10 ; 0.0
121 ; 1.8078221406079944E7 ; 2.0091273461069688E8 ; 2.1863960315108247E9 ; 2.26512000856424E10 ; 0.0
122 ; 1.8065967972981274E7 ; 2.0091770543838388E8 ; 2.2044742529169044E9 ; 2.2852112820253098E10 ; 0.0
123 ; 1.8047250194655925E7 ; 2.0092266557826155E8 ; 2.222540220889886E9 ; 2.3053030525691483E10 ; 0.0
124 ; 1.8036567637210842E7 ; 2.0092761491046986E8 ; 2.240587471084542E9 ; 2.3253953191269745E10 ; 0.0
125 ; 1.802410440861011E7 ; 2.009325533162048E8 ; 2.2586240387217526E9 ; 2.3454880806180214E10 ; 0.0
126 ; 1.8008178063398913E7 ; 2.0093748067768523E8 ; 2.276648143130363E9 ; 2.3655813359496418E10 ; 0.0
127 ; 1.7994819599175647E7 ; 2.0094239687812182E8 ; 2.294656321193762E9 ; 2.3856750840174103E10 ; 0.0
128 ; 1.7983870351583604E7 ; 2.009473018016869E8 ; 2.3126511407929373E9 ; 2.4057693237052223E10 ; 0.0
129 ; 1.796812864691818E7 ; 2.0095219533348656E8 ; 2.3306350111445208E9 ; 2.425864053885391E10 ; 0.0
130 ; 1.7949057359899245E7 ; 2.0095707735953376E8 ; 2.348603139791439E9 ; 2.4459592734187393E10 ; 0.0
131 ; 1.7928583985441737E7 ; 2.0096194776672298E8 ; 2.366552197151338E9 ; 2.466054981154693E10 ; 0.0
132 ; 1.7907734481719933E7 ; 2.0096680644280615E8 ; 2.38448078113678E9 ; 2.4861511759313652E10 ; 0.0
133 ; 1.7888759146240503E7 ; 2.0097165327636978E8 ; 2.4023885156184998E9 ; 2.506247856575646E10 ; 0.0
134 ; 1.7863864119920485E7 ; 2.0097648815681326E8 ; 2.4202772747647405E9 ; 2.526345021903283E10 ; 0.0
135 ; 1.784561261878625E7 ; 2.0098131097432822E8 ; 2.4381411388846607E9 ; 2.5464426707189644E10 ; 0.0
136 ; 1.7826697257483803E7 ; 2.0098612161987895E8 ; 2.455986751503447E9 ; 2.566540801816397E10 ; 0.0
137 ; 1.780161812910283E7 ; 2.0099091998518378E8 ; 2.473813448760931E9 ; 2.586639413978385E10 ; 0.0
138 ; 1.7781034955746923E7 ; 2.0099570596269745E8 ; 2.4916150668900337E9 ; 2.6067385059769035E10 ; 0.0
139 ; 1.7759129741584867E7 ; 2.0100047944559428E8 ; 2.509396101845781E9 ; 2.626838076573173E10 ; 0.0
140 ; 1.7736803988174997E7 ; 2.0100524032775217E8 ; 2.5271552315873656E9 ; 2.6469381245177326E10 ; 0.0
141 ; 1.7713108046433695E7 ; 2.0100998850373745E8 ; 2.5448920355755405E9 ; 2.6670386485505077E10 ; 0.0
142 ; 1.7691303154356167E7 ; 2.0101472386879042E8 ; 2.5626051436219745E9 ; 2.6871396474008816E10 ; 0.0
143 ; 1.766839169216173E7 ; 2.010194463188116E8 ; 2.5802964467763305E9 ; 2.7072411197877605E10 ; 0.0
144 ; 1.7643592408194426E7 ; 2.0102415575034866E8 ; 2.597964838468492E9 ; 2.727343064419642E10 ; 0.0
145 ; 1.7630625782193545E7 ; 2.010288520605841E8 ; 2.6156084308766866E9 ; 2.7474454799946766E10 ; 0.0
146 ; 1.7615544107087668E7 ; 2.0103353514732328E8 ; 2.63323905665888E9 ; 2.767548365200735E10 ; 0.0
147 ; 1.7594813415626425E7 ; 2.0103820490898326E8 ; 2.650854600765968E9 ; 2.7876517187154675E10 ; 0.0
148 ; 1.7584418604962144E7 ; 2.010428612445821E8 ; 2.6684494141815944E9 ; 2.807755539206366E10 ; 0.0
149 ; 1.7563729141407203E7 ; 2.010475040537286E8 ; 2.6860338327865567E9 ; 2.8278598253308243E10 ; 0.0
150 ; 1.7551428078165792E7 ; 2.0105213323661283E8 ; 2.7035975619279637E9 ; 2.8479645757361973E10 ; 0.0
151 ; 1.7535114904539373E7 ; 2.0105674869399655E8 ; 2.7211489900061297E9 ; 2.8680697890598587E10 ; 0.0
152 ; 1.75161376367251E7 ; 2.010613503272048E8 ; 2.7386841049106693E9 ; 2.8881754639292583E10 ; 0.0
153 ; 1.749921413027346E7 ; 2.0106593803811732E8 ; 2.7562002425473943E9 ; 2.908281598961979E10 ; 0.0
154 ; 1.7487750097623788E7 ; 2.0107051172916073E8 ; 2.7736994566776676E9 ; 2.9283881927657906E10 ; 0.0
155 ; 1.7467864327938493E7 ; 2.0107507130330092E8 ; 2.7911872067752914E9 ; 2.9484952439387066E10 ; 0.0
156 ; 1.7450028674431987E7 ; 2.0107961666403586E8 ; 2.80865507110323E9 ; 2.968602751069037E10 ; 0.0
157 ; 1.743506960631635E7 ; 2.0108414771538875E8 ; 2.826105099777662E9 ; 2.9887107127354404E10 ; 0.0
158 ; 1.742066925192675E7 ; 2.0108866436190152E8 ; 2.8435401693839784E9 ; 3.0088191275069794E10 ; 0.0
159 ; 1.7403676561587594E7 ; 2.0109316650862867E8 ; 2.8609608386359053E9 ; 3.0289279939431694E10 ; 0.0
160 ; 1.738743520743847E7 ; 2.0109765406113136E8 ; 2.878364515197493E9 ; 3.0490373105940323E10 ; 0.0
161 ; 1.736636432886482E7 ; 2.0110212692547178E8 ; 2.8957519504049315E9 ; 3.0691470760001453E10 ; 0.0
162 ; 1.734902368652386E7 ; 2.011065850082079E8 ; 2.9131183147337966E9 ; 3.0892572886926926E10 ; 0.0
163 ; 1.733333625612463E7 ; 2.0111102821638823E8 ; 2.9304673384203205E9 ; 3.1093679471935135E10 ; 0.0
164 ; 1.731452848032948E7 ; 2.011154564575473E8 ; 2.947800674676445E9 ; 3.1294790500151524E10 ; 0.0
165 ; 1.7298452775507186E7 ; 2.011198696397008E8 ; 2.9651152031567745E9 ; 3.149590595660907E10 ; 0.0
166 ; 1.7278719459809102E7 ; 2.0112426767134145E8 ; 2.9824136559322815E9 ; 3.169702582624877E10 ; 0.0
167 ; 1.7262634859751526E7 ; 2.011286504614347E8 ; 2.999692375392091E9 ; 3.1898150093920113E10 ; 0.0
168 ; 1.7241741799367484E7 ; 2.011330179194149E8 ; 3.0169550102518425E9 ; 3.2099278744381546E10 ; 0.0
169 ; 1.7223103767901987E7 ; 2.011373699551817E8 ; 3.03419675205121E9 ; 3.230041176230096E10 ; 0.0
170 ; 1.7208123131704204E7 ; 2.0114170647909623E8 ; 3.051419855819112E9 ; 3.250154913225614E10 ; 0.0
171 ; 1.719410246441291E7 ; 2.0114602740197802E8 ; 3.068627978950816E9 ; 3.2702690838735237E10 ; 0.0
172 ; 1.7172605339982525E7 ; 2.0115033263510177E8 ; 3.085822081415229E9 ; 3.2903836866137215E10 ; 0.0
173 ; 1.7153538679545335E7 ; 2.0115462209019423E8 ; 3.1029946867552114E9 ; 3.3104987198772316E10 ; 0.0
174 ; 1.7146091932653725E7 ; 2.0115889567943144E8 ; 3.1201482254347568E9 ; 3.330614182086251E10 ; 0.0
175 ; 1.7132466244169023E7 ; 2.0116315331543607E8 ; 3.1372943173674107E9 ; 3.3507300716541943E10 ; 0.0
176 ; 1.7125077493297137E7 ; 2.0116739491127485E8 ; 3.15442678361158E9 ; 3.370846386985738E10 ; 0.0
177 ; 1.711373428648048E7 ; 2.0117162038045606E8 ; 3.171551861104877E9 ; 3.3909631264768654E10 ; 0.0
178 ; 1.7099957711757988E7 ; 2.0117582963692746E8 ; 3.1886655953913574E9 ; 3.411080288514911E10 ; 0.0
179 ; 1.7093810948013373E7 ; 2.011800225950739E8 ; 3.2057655531031156E9 ; 3.4311978714786037E10 ; 0.0
180 ; 1.7080730158756725E7 ; 2.0118419916971552E8 ; 3.222859364051129E9 ; 3.451315873738111E10 ; 0.0
181 ; 1.707070294031363E7 ; 2.0118835927610567E8 ; 3.2399400942098856E9 ; 3.471434293655083E10 ; 0.0
182 ; 1.705627457165816E7 ; 2.0119250282992923E8 ; 3.2570107971501994E9 ; 3.4915531295826935E10 ; 0.0
183 ; 1.7050408104260016E7 ; 2.0119662974730086E8 ; 3.2740670717218575E9 ; 3.511672379865686E10 ; 0.0
184 ; 1.703918090222952E7 ; 2.0120073994476345E8 ; 3.2911174798261175E9 ; 3.531792042840416E10 ; 0.0
185 ; 1.7024065929144308E7 ; 2.0120483333928663E8 ; 3.308156660728347E9 ; 3.551912116834892E10 ; 0.0
186 ; 1.70180706919458E7 ; 2.012089098482653E8 ; 3.325180726657491E9 ; 3.572032600168821E10 ; 0.0
187 ; 1.7007218526111633E7 ; 2.0121296938951847E8 ; 3.342198797349437E9 ; 3.5921534911536476E10 ; 0.0
188 ; 1.6997018876176886E7 ; 2.0121701188128793E8 ; 3.359206015875549E9 ; 3.6122747880925995E10 ; 0.0
189 ; 1.698431375358498E7 ; 2.0122103724223718E8 ; 3.3762030347517257E9 ; 3.632396489280728E10 ; 0.0
190 ; 1.697420540792616E7 ; 2.0122504539145038E8 ; 3.3931873485053105E9 ; 3.652518593004952E10 ; 0.0
191 ; 1.69607748597563E7 ; 2.0122903624843127E8 ; 3.4101615539132366E9 ; 3.672641097544097E10 ; 0.0
192 ; 1.695177343867622E7 ; 2.0123300973310247E8 ; 3.427122328772993E9 ; 3.69276400116894E10 ; 0.0
193 ; 1.6945795869870283E7 ; 2.012369657658044E8 ; 3.4440741022116694E9 ; 3.71288730214225E10 ; 0.0
194 ; 1.6932852547611825E7 ; 2.0124090426729476E8 ; 3.4610198980815396E9 ; 3.733010998718831E10 ; 0.0
195 ; 1.6921203915719114E7 ; 2.0124482515874767E8 ; 3.4779527506291513E9 ; 3.7531350891455605E10 ; 0.0
