CSV File for the City 1 on Day 341
1 - Minute m 
2 - Power Consumed at minute m 
3 - Power Produced at minute m 
4 - Energy Consumed since the beginning of the day 
5 - Energy Produced since the beginning of the day 
6 - Energy Lost since the beginning of the day on lines starting from the city
 
0 ; 1.6096518824169701E7 ; 1.0564093656922022E8 ; 0.0 ; 0.0 ; 0.0
1 ; 1.6113312670282874E7 ; 1.0579388686158347E8 ; 1.6096518824169701E7 ; 1.0564093656922022E8 ; 0.0
2 ; 1.612862205226009E7 ; 1.0625561979277673E8 ; 3.2209831494452573E7 ; 2.114348234308037E8 ; 0.0
3 ; 1.6149677181147264E7 ; 1.0702613654749018E8 ; 4.833845354671267E7 ; 3.176904432235804E8 ; 0.0
4 ; 1.6168181991276655E7 ; 1.0810543818382078E8 ; 6.448813072785993E7 ; 4.247165797710706E8 ; 0.0
5 ; 1.619724535350692E7 ; 1.0949352562863773E8 ; 8.065631271913658E7 ; 5.328220179548914E8 ; 0.0
6 ; 1.6240203618161516E7 ; 1.111903996734617E8 ; 9.68535580726435E7 ; 6.423155435835291E8 ; 0.0
7 ; 1.6295933507113999E7 ; 1.1319606097090137E8 ; 1.1309376169080502E8 ; 7.535059432569908E8 ; 0.0
8 ; 1.637582199369088E7 ; 1.1551051003168339E8 ; 1.2938969519791901E8 ; 8.667020042278922E8 ; 0.0
9 ; 1.6492760464335969E7 ; 1.18133747222309E8 ; 1.457655171916099E8 ; 9.822125142595756E8 ; 0.0
10 ; 1.6673592342913061E7 ; 1.2106577276336128E8 ; 1.6225827765594587E8 ; 1.1003462614818845E9 ; 0.0
11 ; 1.696088170714387E7 ; 1.2430658672848186E8 ; 1.7893186999885893E8 ; 1.2214120342452457E9 ; 0.0
12 ; 1.742150954791694E7 ; 1.2785618904402909E8 ; 1.958927517060028E8 ; 1.3457186209737275E9 ; 0.0
13 ; 1.7867934908939816E7 ; 1.3171457948941988E8 ; 2.1331426125391975E8 ; 1.4735748100177565E9 ; 0.0
14 ; 1.792437980886414E7 ; 1.3588175769815308E8 ; 2.3118219616285956E8 ; 1.6052893895071764E9 ; 0.0
15 ; 1.7943110629322637E7 ; 1.403577231595019E8 ; 2.491065759717237E8 ; 1.7411711472053294E9 ; 0.0
16 ; 1.796420169574007E7 ; 1.4514247522085783E8 ; 2.6704968660104635E8 ; 1.8815288703648314E9 ; 0.0
17 ; 1.798145182550257E7 ; 1.5023601309070006E8 ; 2.850138882967864E8 ; 2.0266713455856893E9 ; 0.0
18 ; 1.8006578546806026E7 ; 1.5563833584215945E8 ; 3.02995340122289E8 ; 2.176907358676389E9 ; 0.0
19 ; 1.802818199435498E7 ; 1.6134944241713902E8 ; 3.2100191866909504E8 ; 2.3325456945185485E9 ; 0.0
20 ; 1.804829868077364E7 ; 1.6736933163094857E8 ; 3.3903010066345E8 ; 2.4938951369356875E9 ; 0.0
21 ; 1.807126120332482E7 ; 1.7369800217740712E8 ; 3.570783993442236E8 ; 2.661264468566636E9 ; 0.0
22 ; 1.809180422068498E7 ; 1.8033545263436186E8 ; 3.751496605475484E8 ; 2.8349624707440434E9 ; 0.0
23 ; 1.8115135171718895E7 ; 1.872816814695719E8 ; 3.932414647682334E8 ; 3.015297923378405E9 ; 0.0
24 ; 1.8137229380638678E7 ; 1.9453668704690093E8 ; 4.113565999399523E8 ; 3.202579604847977E9 ; 0.0
25 ; 1.815390649115053E7 ; 2.0078850853094816E8 ; 4.29493829320591E8 ; 3.397116291894878E9 ; 0.0
26 ; 1.8178436865665145E7 ; 2.0079069193058956E8 ; 4.476477358117415E8 ; 3.597904800425826E9 ; 0.0
27 ; 1.819574825517116E7 ; 2.0079300463067007E8 ; 4.658261726774066E8 ; 3.7986954923564157E9 ; 0.0
28 ; 1.8220195489972956E7 ; 2.0079544464565554E8 ; 4.840219209325778E8 ; 3.999488496987086E9 ; 0.0
29 ; 1.8243212506880924E7 ; 2.0079800991979602E8 ; 5.0224211642255074E8 ; 4.2002839416327415E9 ; 0.0
30 ; 1.825833350224666E7 ; 2.0080069833403435E8 ; 5.204853289294317E8 ; 4.401081951552538E9 ; 0.0
31 ; 1.8277474782373406E7 ; 2.0080350771285915E8 ; 5.387436624316783E8 ; 4.601882649886572E9 ; 0.0
32 ; 1.829690257394099E7 ; 2.008064358310605E8 ; 5.570211372140517E8 ; 4.802686157599431E9 ; 0.0
33 ; 1.831747725206991E7 ; 2.0080948042034978E8 ; 5.753180397879927E8 ; 5.003492593430491E9 ; 0.0
34 ; 1.8334397021005075E7 ; 2.0081263917580953E8 ; 5.936355170400627E8 ; 5.2043020738508415E9 ; 0.0
35 ; 1.8353854658172973E7 ; 2.0081590976214278E8 ; 6.119699140610677E8 ; 5.405114713026651E9 ; 0.0
36 ; 1.8373019074557792E7 ; 2.0081928981969607E8 ; 6.303237687192407E8 ; 5.6059306227887945E9 ; 0.0
37 ; 1.8389230108249024E7 ; 2.0082277697023392E8 ; 6.486967877937984E8 ; 5.806749912608491E9 ; 0.0
38 ; 1.8401512102827985E7 ; 2.0082636882244667E8 ; 6.670860179020475E8 ; 6.007572689578725E9 ; 0.0
39 ; 1.8417070325897567E7 ; 2.0083006297717756E8 ; 6.854875300048755E8 ; 6.208399058401172E9 ; 0.0
40 ; 1.843223375508672E7 ; 2.0083385703235832E8 ; 7.039046003307731E8 ; 6.409229121378349E9 ; 0.0
41 ; 1.8444041790559392E7 ; 2.008377485876464E8 ; 7.223368340858598E8 ; 6.610062978410707E9 ; 0.0
42 ; 1.846043442000905E7 ; 2.0084173524875927E8 ; 7.407808758764192E8 ; 6.810900726998354E9 ; 0.0
43 ; 1.84742742319575E7 ; 2.0084581463150522E8 ; 7.592413102964282E8 ; 7.011742462247113E9 ; 0.0
44 ; 1.848608896344987E7 ; 2.0084998436551178E8 ; 7.777155845283858E8 ; 7.212588276878618E9 ; 0.0
45 ; 1.8497748696173158E7 ; 2.0085424209765527E8 ; 7.962016734918356E8 ; 7.41343826124413E9 ; 0.0
46 ; 1.850560395272824E7 ; 2.008585854951979E8 ; 8.146994221880088E8 ; 7.614292503341785E9 ; 0.0
47 ; 1.8516864198355123E7 ; 2.0086301224863923E8 ; 8.33205026140737E8 ; 7.815151088836984E9 ; 0.0
48 ; 1.852367894626495E7 ; 2.008675200742912E8 ; 8.517218903390921E8 ; 8.016014101085623E9 ; 0.0
49 ; 1.8531204234297402E7 ; 2.0087210671658695E8 ; 8.702455692853571E8 ; 8.216881621159914E9 ; 0.0
50 ; 1.8537636610768378E7 ; 2.0087676995013458E8 ; 8.887767735196545E8 ; 8.417753727876501E9 ; 0.0
51 ; 1.854024907187037E7 ; 2.0088150758152714E8 ; 9.073144101304228E8 ; 8.618630497826635E9 ; 0.0
52 ; 1.855021998364893E7 ; 2.0088631745092237E8 ; 9.258546592022932E8 ; 8.819512005408163E9 ; 0.0
53 ; 1.855800290938021E7 ; 2.0089119743340367E8 ; 9.44404879185942E8 ; 9.020398322859085E9 ; 0.0
54 ; 1.8560579897396464E7 ; 2.0089614544013616E8 ; 9.629628820953223E8 ; 9.221289520292488E9 ; 0.0
55 ; 1.856981130884203E7 ; 2.0090115941933048E8 ; 9.815234619927187E8 ; 9.422185665732624E9 ; 0.0
56 ; 1.8572488222269367E7 ; 2.0090623735702717E8 ; 1.0000932733015608E9 ; 9.623086825151955E9 ; 0.0
57 ; 1.857902604026857E7 ; 2.0091137727771476E8 ; 1.0186657615238302E9 ; 9.823993062508982E9 ; 0.0
58 ; 1.8583055474757366E7 ; 2.009165772447933E8 ; 1.0372447875640987E9 ; 1.0024904439786697E10 ; 0.0
59 ; 1.859201019078799E7 ; 2.0092183536089644E8 ; 1.055827843038856E9 ; 1.022582101703149E10 ; 0.0
60 ; 1.8594894878972605E7 ; 2.0092714976808283E8 ; 1.074419853229644E9 ; 1.0426742852392387E10 ; 0.0
61 ; 1.8596948197805353E7 ; 2.0093251864790866E8 ; 1.0930147481086166E9 ; 1.0627670002160471E10 ; 0.0
62 ; 1.860169703571141E7 ; 2.009379402213919E8 ; 1.111611696306422E9 ; 1.082860252080838E10 ; 0.0
63 ; 1.860490029152433E7 ; 2.0094341274887827E8 ; 1.1302133933421335E9 ; 1.1029540461029772E10 ; 0.0
64 ; 1.8612609958552673E7 ; 2.0094893452981928E8 ; 1.148818293633658E9 ; 1.123048387377865E10 ; 0.0
65 ; 1.8615909216629077E7 ; 2.009545039024704E8 ; 1.1674309035922105E9 ; 1.143143280830847E10 ; 0.0
66 ; 1.8616179775518708E7 ; 2.0096011924351925E8 ; 1.1860468128088396E9 ; 1.163238731221094E10 ; 0.0
67 ; 1.8617869604731303E7 ; 2.0096577896765047E8 ; 1.2046629925843582E9 ; 1.1833347431454458E10 ; 0.0
68 ; 1.8624552148694668E7 ; 2.0097148152705622E8 ; 1.2232808621890895E9 ; 1.203431321042211E10 ; 0.0
69 ; 1.8627526743003927E7 ; 2.009772254108978E8 ; 1.2419054143377843E9 ; 1.2235284691949165E10 ; 0.0
70 ; 1.863532086992961E7 ; 2.009830091447261E8 ; 1.2605329410807881E9 ; 1.2436261917360064E10 ; 0.0
71 ; 1.863519248587618E7 ; 2.009888312898662E8 ; 1.2791682619507177E9 ; 1.263724492650479E10 ; 0.0
72 ; 1.8638279577581856E7 ; 2.0099469044277176E8 ; 1.2978034544365938E9 ; 1.2838233757794655E10 ; 0.0
73 ; 1.8643555553311378E7 ; 2.0100058523435414E8 ; 1.3164417340141757E9 ; 1.3039228448237427E10 ; 0.0
74 ; 1.8640455687162187E7 ; 2.0100651432929114E8 ; 1.335085289567487E9 ; 1.324022903347178E10 ; 0.0
75 ; 1.8643795605065104E7 ; 2.010124764253193E8 ; 1.3537257452546492E9 ; 1.3441235547801071E10 ; 0.0
76 ; 1.8648011513216246E7 ; 2.0101847025251397E8 ; 1.3723695408597143E9 ; 1.364224802422639E10 ; 0.0
77 ; 1.8646368055106394E7 ; 2.0102449457255983E8 ; 1.3910175523729305E9 ; 1.3843266494478905E10 ; 0.0
78 ; 1.8647442511319667E7 ; 2.0103054817801616E8 ; 1.409663920428037E9 ; 1.4044290989051464E10 ; 0.0
79 ; 1.8638704295778215E7 ; 2.0103662989157847E8 ; 1.4283113629393566E9 ; 1.424532153722948E10 ; 0.0
80 ; 1.8637764303008307E7 ; 2.0104273856534016E8 ; 1.4469500672351348E9 ; 1.444635816712106E10 ; 0.0
81 ; 1.8633243377805486E7 ; 2.0104887308005542E8 ; 1.4655878315381432E9 ; 1.46474009056864E10 ; 0.0
82 ; 1.863339300552216E7 ; 2.0105503234440622E8 ; 1.4842210749159486E9 ; 1.4848449778766455E10 ; 0.0
83 ; 1.862328920726737E7 ; 2.0106121529427454E8 ; 1.5028544679214709E9 ; 1.504950481111086E10 ; 0.0
84 ; 1.862333375660772E7 ; 2.0106742089202204E8 ; 1.5214777571287382E9 ; 1.5250566026405136E10 ; 0.0
85 ; 1.8614956565547857E7 ; 2.0107364812577772E8 ; 1.540101090885346E9 ; 1.5451633447297157E10 ; 0.0
86 ; 1.8610237262209214E7 ; 2.010798960087358E8 ; 1.5587160474508939E9 ; 1.5652707095422935E10 ; 0.0
87 ; 1.8606301101715155E7 ; 2.010861635784636E8 ; 1.577326284713103E9 ; 1.5853786991431671E10 ; 0.0
88 ; 1.860219674409711E7 ; 2.0109244989622164E8 ; 1.5959325858148181E9 ; 1.6054873155010136E10 ; 0.0
89 ; 1.859398039110591E7 ; 2.0109875404629543E8 ; 1.6145347825589151E9 ; 1.6255965604906357E10 ; 0.0
90 ; 1.8586318047021817E7 ; 2.0110507513534072E8 ; 1.633128762950021E9 ; 1.6457064358952652E10 ; 0.0
91 ; 1.8583643972427018E7 ; 2.011114122917416E8 ; 1.651715080997043E9 ; 1.6658169434087994E10 ; 0.0
92 ; 1.8578415996283434E7 ; 2.0111776466498291E8 ; 1.67029872496947E9 ; 1.6859280846379736E10 ; 0.0
93 ; 1.8567135229232974E7 ; 2.0112413142503637E8 ; 1.6888771409657536E9 ; 1.706039861104472E10 ; 0.0
94 ; 1.856522177116497E7 ; 2.0113051176176143E8 ; 1.7074442761949866E9 ; 1.7261522742469757E10 ; 0.0
95 ; 1.8559459407004204E7 ; 2.0113690488432032E8 ; 1.7260094979661515E9 ; 1.7462653254231518E10 ; 0.0
96 ; 1.855283097526075E7 ; 2.0114331002060786E8 ; 1.7445689573731556E9 ; 1.7663790159115837E10 ; 0.0
97 ; 1.8544377244999953E7 ; 2.01149726416696E8 ; 1.7631217883484163E9 ; 1.7864933469136444E10 ; 0.0
98 ; 1.8538144804555412E7 ; 2.0115615333629274E8 ; 1.7816661655934162E9 ; 1.806608319555314E10 ; 0.0
99 ; 1.8533341263586715E7 ; 2.011625900602159E8 ; 1.8002043103979716E9 ; 1.826723934888943E10 ; 0.0
100 ; 1.8524216213065494E7 ; 2.0116903588588104E8 ; 1.8187376516615584E9 ; 1.8468401938949646E10 ; 0.0
101 ; 1.8517206885959666E7 ; 2.0117549012680402E8 ; 1.8372618678746238E9 ; 1.8669570974835526E10 ; 0.0
102 ; 1.8511955978844747E7 ; 2.0118195211211765E8 ; 1.8557790747605834E9 ; 1.887074646496233E10 ; 0.0
103 ; 1.849866428967236E7 ; 2.01188421186102E8 ; 1.874291030739428E9 ; 1.9071928417074448E10 ; 0.0
104 ; 1.8494364706579287E7 ; 2.011948967077289E8 ; 1.8927896950291004E9 ; 1.927311683826055E10 ; 0.0
105 ; 1.8487284296607707E7 ; 2.0120137805021968E8 ; 1.9112840597356796E9 ; 1.947431173496828E10 ; 0.0
106 ; 1.847989395022622E7 ; 2.0120786460061637E8 ; 1.9297713440322874E9 ; 1.96755131130185E10 ; 0.0
107 ; 1.8468589132020995E7 ; 2.0121435575936562E8 ; 1.9482512379825137E9 ; 1.9876720977619118E10 ; 0.0
108 ; 1.846127108749565E7 ; 2.0122085093991572E8 ; 1.9667198271145346E9 ; 2.0077935333378483E10 ; 0.0
109 ; 1.8451420531337894E7 ; 2.012273495683258E8 ; 1.9851810982020302E9 ; 2.0279156184318398E10 ; 0.0
110 ; 1.8445963353046164E7 ; 2.012338510828872E8 ; 2.0036325187333682E9 ; 2.0480383533886723E10 ; 0.0
111 ; 1.84371792630153E7 ; 2.01240354933757E8 ; 2.0220784820864143E9 ; 2.068161738496961E10 ; 0.0
112 ; 1.8423472502368066E7 ; 2.012468605826027E8 ; 2.0405156613494296E9 ; 2.0882857739903366E10 ; 0.0
113 ; 1.8418717602411207E7 ; 2.0125336750225845E8 ; 2.0589391338517976E9 ; 2.108410460048597E10 ; 0.0
114 ; 1.841039009754672E7 ; 2.012598751763922E8 ; 2.0773578514542089E9 ; 2.1285357967988228E10 ; 0.0
115 ; 1.839375584900311E7 ; 2.0126638309918347E8 ; 2.0957682415517557E9 ; 2.148661784316462E10 ; 0.0
116 ; 1.8390485009649094E7 ; 2.0127289077501157E8 ; 2.1141619974007587E9 ; 2.16878842262638E10 ; 0.0
117 ; 1.837054946677204E7 ; 2.0127939771815386E8 ; 2.1325524824104078E9 ; 2.1889157117038815E10 ; 0.0
118 ; 1.8368308736310706E7 ; 2.0128590345249382E8 ; 2.1509230318771796E9 ; 2.209043651475697E10 ; 0.0
119 ; 1.8358105471154682E7 ; 2.012924075112385E8 ; 2.16929134061349E9 ; 2.2291722418209465E10 ; 0.0
120 ; 1.8341624826945253E7 ; 2.0129890943664548E8 ; 2.187649446084645E9 ; 2.2493014825720703E10 ; 0.0
121 ; 1.833846902956963E7 ; 2.013054087797585E8 ; 2.20599107091159E9 ; 2.269431373515735E10 ; 0.0
122 ; 1.8323606557441313E7 ; 2.013119051001518E8 ; 2.2243295399411597E9 ; 2.2895619143937107E10 ; 0.0
123 ; 1.8315604916834004E7 ; 2.0131839796568295E8 ; 2.242653146498601E9 ; 2.309693104903726E10 ; 0.0
124 ; 1.830220495290341E7 ; 2.0132488695225385E8 ; 2.260968751415435E9 ; 2.329824944700294E10 ; 0.0
125 ; 1.828916712059178E7 ; 2.013313716435793E8 ; 2.279270956368338E9 ; 2.3499574333955196E10 ; 0.0
126 ; 1.8283091951992285E7 ; 2.013378516309637E8 ; 2.2975601234889297E9 ; 2.3700905705598774E10 ; 0.0
127 ; 1.8272119967678517E7 ; 2.0134432651308462E8 ; 2.3158432154409223E9 ; 2.3902243557229736E10 ; 0.0
128 ; 1.8256534516781963E7 ; 2.0135079589578387E8 ; 2.334115335408601E9 ; 2.410358788374282E10 ; 0.0
129 ; 1.824412318990129E7 ; 2.0135725939186525E8 ; 2.3523718699253826E9 ; 2.4304938679638603E10 ; 0.0
130 ; 1.8230252641964372E7 ; 2.0136371662089917E8 ; 2.370615993115284E9 ; 2.4506295939030468E10 ; 0.0
131 ; 1.8209628220267426E7 ; 2.0137016720903364E8 ; 2.3888462457572484E9 ; 2.4707659655651367E10 ; 0.0
132 ; 1.819542972150293E7 ; 2.0137661078881136E8 ; 2.4070558739775157E9 ; 2.49090298228604E10 ; 0.0
133 ; 1.8175855154317003E7 ; 2.0138304699899316E8 ; 2.4252513036990185E9 ; 2.511040643364921E10 ; 0.0
134 ; 1.815449756204969E7 ; 2.0138947548438707E8 ; 2.4434271588533354E9 ; 2.5311789480648205E10 ; 0.0
135 ; 1.8140622501995463E7 ; 2.01395895895683E8 ; 2.4615816564153852E9 ; 2.551317895613259E10 ; 0.0
136 ; 1.8121525385078546E7 ; 2.01402307889293E8 ; 2.479722278917381E9 ; 2.5714574852028275E10 ; 0.0
137 ; 1.8100822433721244E7 ; 2.0140871112719676E8 ; 2.4978438043024592E9 ; 2.591597715991757E10 ; 0.0
138 ; 1.8083393537704412E7 ; 2.0141510527679208E8 ; 2.5159446267361803E9 ; 2.6117385871044765E10 ; 0.0
139 ; 1.806507136684156E7 ; 2.0142149001075047E8 ; 2.534028020273885E9 ; 2.6318800976321556E10 ; 0.0
140 ; 1.8045785903169807E7 ; 2.0142786500687724E8 ; 2.5520930916407266E9 ; 2.6520222466332306E10 ; 0.0
141 ; 1.802542871484989E7 ; 2.0143422994797638E8 ; 2.570138877543896E9 ; 2.6721650331339184E10 ; 0.0
142 ; 1.8004555421801206E7 ; 2.014405845217199E8 ; 2.588164306258746E9 ; 2.692308456128716E10 ; 0.0
143 ; 1.7986656489394274E7 ; 2.014469284205211E8 ; 2.606168861680547E9 ; 2.712452514580888E10 ; 0.0
144 ; 1.7967310919374388E7 ; 2.0145326134141257E8 ; 2.6241555181699414E9 ; 2.73259720742294E10 ; 0.0
145 ; 1.795369046057487E7 ; 2.0145958298592758E8 ; 2.642122829089316E9 ; 2.7527425335570812E10 ; 0.0
146 ; 1.794013329291708E7 ; 2.014658930599857E8 ; 2.660076519549891E9 ; 2.772888491855674E10 ; 0.0
147 ; 1.7927451143519696E7 ; 2.0147219127378199E8 ; 2.6780166528428082E9 ; 2.7930350811616726E10 ; 0.0
148 ; 1.7916133221653838E7 ; 2.0147847734167993E8 ; 2.695944103986328E9 ; 2.8131823002890507E10 ; 0.0
149 ; 1.7902699686664727E7 ; 2.0148475098210767E8 ; 2.713860237207982E9 ; 2.8333301480232185E10 ; 0.0
150 ; 1.7889843425482374E7 ; 2.0149101191745767E8 ; 2.7317629368946466E9 ; 2.8534786231214294E10 ; 0.0
151 ; 1.787468449377819E7 ; 2.0149725987398964E8 ; 2.749652780320129E9 ; 2.8736277243131752E10 ; 0.0
152 ; 1.7864263719340168E7 ; 2.015034945817366E8 ; 2.767527464813907E9 ; 2.893777450300574E10 ; 0.0
153 ; 1.7848372425193176E7 ; 2.0150971577441388E8 ; 2.7853917285332475E9 ; 2.913927799758748E10 ; 0.0
154 ; 1.7839806441675905E7 ; 2.0151592318933123E8 ; 2.803240100958441E9 ; 2.9340787713361893E10 ; 0.0
155 ; 1.7821564666758846E7 ; 2.0152211656730747E8 ; 2.821079907400117E9 ; 2.9542303636551224E10 ; 0.0
156 ; 1.7806193342479933E7 ; 2.0152829565258816E8 ; 2.838901472066876E9 ; 2.974382575311853E10 ; 0.0
157 ; 1.7792825885429803E7 ; 2.0153446019276568E8 ; 2.8567076654093556E9 ; 2.994535404877112E10 ; 0.0
158 ; 1.778127169903246E7 ; 2.01540609938702E8 ; 2.8745004912947855E9 ; 3.0146888508963882E10 ; 0.0
159 ; 1.7769288203918763E7 ; 2.015467446444537E8 ; 2.892281762993818E9 ; 3.0348429118902584E10 ; 0.0
160 ; 1.7755336800693862E7 ; 2.0155286406719983E8 ; 2.9100510511977367E9 ; 3.054997586354704E10 ; 0.0
161 ; 1.773902167969883E7 ; 2.015589679671713E8 ; 2.9278063879984307E9 ; 3.075152872761424E10 ; 0.0
162 ; 1.772449375257431E7 ; 2.015650561075834E8 ; 2.9455454096781297E9 ; 3.095308769558141E10 ; 0.0
163 ; 1.771040940310906E7 ; 2.0157112825456962E8 ; 2.963269903430704E9 ; 3.115465275168899E10 ; 0.0
164 ; 1.7694907323880192E7 ; 2.0157718417711806E8 ; 2.980980312833813E9 ; 3.135622387994356E10 ; 0.0
165 ; 1.7682971740164723E7 ; 2.015832236470098E8 ; 2.9986752201576934E9 ; 3.1557801064120678E10 ; 0.0
166 ; 1.766858146763168E7 ; 2.0158924643875888E8 ; 3.016358191897858E9 ; 3.175938428776769E10 ; 0.0
167 ; 1.765897614970094E7 ; 2.015952523295545E8 ; 3.03402677336549E9 ; 3.1960973534206448E10 ; 0.0
168 ; 1.7639556361484043E7 ; 2.0160124109920487E8 ; 3.051685749515191E9 ; 3.2162568786536003E10 ; 0.0
169 ; 1.7625551000509027E7 ; 2.0160721253008285E8 ; 3.069325305876675E9 ; 3.236417002763521E10 ; 0.0
170 ; 1.7613648681084774E7 ; 2.0161316640707314E8 ; 3.0869508568771844E9 ; 3.256577724016529E10 ; 0.0
171 ; 1.759544583142565E7 ; 2.0161910251752138E8 ; 3.104564505558269E9 ; 3.2767390406572365E10 ; 0.0
172 ; 1.757986415945286E7 ; 2.0162502065118453E8 ; 3.1221599513896947E9 ; 3.2969009509089886E10 ; 0.0
173 ; 1.757102267795517E7 ; 2.0163092060018298E8 ; 3.1397398155491476E9 ; 3.317063452974107E10 ; 0.0
174 ; 1.7557411206121642E7 ; 2.0163680215895402E8 ; 3.1573108382271028E9 ; 3.337226545034125E10 ; 0.0
175 ; 1.7553120677672397E7 ; 2.0164266512420684E8 ; 3.174868249433224E9 ; 3.3573902252500206E10 ; 0.0
176 ; 1.7540159965126343E7 ; 2.0164850929487878E8 ; 3.1924213701108966E9 ; 3.3775544917624413E10 ; 0.0
177 ; 1.753336463916225E7 ; 2.0165433447209302E8 ; 3.209961530076023E9 ; 3.3977193426919292E10 ; 0.0
178 ; 1.752639962777174E7 ; 2.016601404591175E8 ; 3.227494894715185E9 ; 3.4178847761391384E10 ; 0.0
179 ; 1.7515379001651414E7 ; 2.0166592706132522E8 ; 3.245021294342957E9 ; 3.43805079018505E10 ; 0.0
180 ; 1.7501964188175865E7 ; 2.0167169408615544E8 ; 3.2625366733446083E9 ; 3.458217382891183E10 ; 0.0
181 ; 1.750197149260832E7 ; 2.0167744134307647E8 ; 3.280038637532784E9 ; 3.4783845522997986E10 ; 0.0
182 ; 1.7489379194062185E7 ; 2.0168316864354923E8 ; 3.2975406090253925E9 ; 3.4985522964341064E10 ; 0.0
183 ; 1.7481315196429946E7 ; 2.016888758009921E8 ; 3.315029988219455E9 ; 3.518720613298461E10 ; 0.0
184 ; 1.7470613079879936E7 ; 2.0169456263074675E8 ; 3.3325113034158845E9 ; 3.538889500878561E10 ; 0.0
185 ; 1.7463886660004303E7 ; 2.0170022895004505E8 ; 3.3499819164957643E9 ; 3.559058957141635E10 ; 0.0
186 ; 1.745740611196648E7 ; 2.017058745779769E8 ; 3.3674458031557684E9 ; 3.5792289800366394E10 ; 0.0
187 ; 1.7444289871897474E7 ; 2.017114993354592E8 ; 3.384903209267735E9 ; 3.5993995674944374E10 ; 0.0
188 ; 1.7435843166509975E7 ; 2.0171710304520538E8 ; 3.4023474991396327E9 ; 3.619570717427983E10 ; 0.0
189 ; 1.742550074988889E7 ; 2.017226855316963E8 ; 3.419783342306143E9 ; 3.6397424277325035E10 ; 0.0
190 ; 1.7421308041854788E7 ; 2.0172824662115163E8 ; 3.4372088430560317E9 ; 3.659914696285673E10 ; 0.0
191 ; 1.740811090514335E7 ; 2.0173378614150232E8 ; 3.4546301510978866E9 ; 3.680087520947788E10 ; 0.0
192 ; 1.7398991976063084E7 ; 2.0173930392236376E8 ; 3.47203826200303E9 ; 3.7002608995619385E10 ; 0.0
193 ; 1.739111296489434E7 ; 2.017447997950098E8 ; 3.489437253979093E9 ; 3.720434829954175E10 ; 0.0
194 ; 1.738181378078997E7 ; 2.0175027359234744E8 ; 3.5068283669439874E9 ; 3.740609309933676E10 ; 0.0
195 ; 1.7373039971294E7 ; 2.017557251488924E8 ; 3.524210180724777E9 ; 3.760784337292911E10 ; 0.0
