CSV File for the City 1 on Day 252
1 - Minute m 
2 - Power Consumed at minute m 
3 - Power Produced at minute m 
4 - Energy Consumed since the beginning of the day 
5 - Energy Produced since the beginning of the day 
6 - Energy Lost since the beginning of the day on lines starting from the city
 
0 ; 3851497.515685455 ; 1.0539725258431086E8 ; 0.0 ; 0.0 ; 0.0
1 ; 3864608.6390247717 ; 1.0554996699212885E8 ; 3851497.515685455 ; 1.0539725258431086E8 ; 0.0
2 ; 3880643.4823063123 ; 1.0601148276165989E8 ; 7716106.154710227 ; 2.109472195764397E8 ; 0.0
3 ; 3902309.763974078 ; 1.0678180299230957E8 ; 1.1596749637016539E7 ; 3.169587023380996E8 ; 0.0
4 ; 3922561.8300443683 ; 1.0786093050011158E8 ; 1.5499059400990617E7 ; 4.2374050533040917E8 ; 0.0
5 ; 3951480.448831748 ; 1.0924886778969598E8 ; 1.9421621231034987E7 ; 5.3160143583052075E8 ; 0.0
6 ; 3987174.0648271115 ; 1.109456170284405E8 ; 2.3373101679866735E7 ; 6.408503036202167E8 ; 0.0
7 ; 4041195.0040516667 ; 1.1295118002339947E8 ; 2.7360275744693846E7 ; 7.517959206486572E8 ; 0.0
8 ; 4118721.196658549 ; 1.1526555820156586E8 ; 3.1401470748745512E7 ; 8.647471006720567E8 ; 0.0
9 ; 4235795.767974692 ; 1.1788875259395951E8 ; 3.552019194540406E7 ; 9.800126588736225E8 ; 0.0
10 ; 4416117.780340555 ; 1.2082076382395166E8 ; 3.975598771337875E7 ; 1.097901411467582E9 ; 0.0
11 ; 4704296.394358644 ; 1.2406159210013238E8 ; 4.41721054937193E7 ; 1.2187221752915337E9 ; 0.0
12 ; 5161729.727037687 ; 1.2761123721391156E8 ; 4.8876401888077945E7 ; 1.3427837673916662E9 ; 0.0
13 ; 5609998.20329407 ; 1.3146969854191798E8 ; 5.403813161511563E7 ; 1.4703950046055777E9 ; 0.0
14 ; 5655591.153400629 ; 1.3563697505313188E8 ; 5.9648129818409696E7 ; 1.6018647031474957E9 ; 0.0
15 ; 5680288.50626914 ; 1.4011306532056016E8 ; 6.5303720971810326E7 ; 1.7375016782006276E9 ; 0.0
16 ; 5700732.07800862 ; 1.4489796753714862E8 ; 7.098400947807947E7 ; 1.8776147435211878E9 ; 0.0
17 ; 5715143.356861347 ; 1.4999167953551945E8 ; 7.668474155608809E7 ; 2.0225127110583365E9 ; 0.0
18 ; 5737452.152415096 ; 1.553941988110426E8 ; 8.239988491294944E7 ; 2.172504390593856E9 ; 0.0
19 ; 5758354.548895247 ; 1.611055225476844E8 ; 8.813733706536454E7 ; 2.3278985894048986E9 ; 0.0
20 ; 5779543.729026392 ; 1.6712564764603922E8 ; 9.389569161425978E7 ; 2.489004111952583E9 ; 0.0
21 ; 5801111.517973385 ; 1.734545707529336E8 ; 9.967523534328617E7 ; 2.656129759598622E9 ; 0.0
22 ; 5821994.905351217 ; 1.8009228829199797E8 ; 1.0547634686125955E8 ; 2.8295843303515553E9 ; 0.0
23 ; 5845654.6968280235 ; 1.870387964946285E8 ; 1.1129834176661077E8 ; 3.0096766186435533E9 ; 0.0
24 ; 5863015.32960689 ; 1.9429409143080002E8 ; 1.171439964634388E8 ; 3.1967154151381817E9 ; 0.0
25 ; 5883234.6679622 ; 2.0054620993743405E8 ; 1.2300701179304568E8 ; 3.3910095065689816E9 ; 0.0
26 ; 5901718.784371729 ; 2.005486956844312E8 ; 1.2889024646100788E8 ; 3.591555716506416E9 ; 0.0
27 ; 5918759.942466813 ; 2.005513137273148E8 ; 1.347919652453796E8 ; 3.792104412190847E9 ; 0.0
28 ; 5941783.024674525 ; 2.005540597800692E8 ; 1.4071072518784642E8 ; 3.992655725918162E9 ; 0.0
29 ; 5964458.347226064 ; 2.0055692953256795E8 ; 1.4665250821252096E8 ; 4.193209785698231E9 ; 0.0
30 ; 5982511.559045498 ; 2.005599186727308E8 ; 1.52616966559747E8 ; 4.393766715230799E9 ; 0.0
31 ; 6005455.837353014 ; 2.0056302290657273E8 ; 1.585994781187925E8 ; 4.594326633903529E9 ; 0.0
32 ; 6020439.443966836 ; 2.005662379761153E8 ; 1.6460493395614552E8 ; 4.7948896568101015E9 ; 0.0
33 ; 6040478.942897863 ; 2.0056955967517766E8 ; 1.7062537340011236E8 ; 4.995455894786217E9 ; 0.0
34 ; 6055533.014785576 ; 2.0057298386310232E8 ; 1.7666585234301022E8 ; 5.196025454461394E9 ; 0.0
35 ; 6074123.379560651 ; 2.005765064765003E8 ; 1.827213853577958E8 ; 5.396598438324496E9 ; 0.0
36 ; 6089541.540321551 ; 2.0058012353912568E8 ; 1.8879550873735645E8 ; 5.597174944800997E9 ; 0.0
37 ; 6105412.536701999 ; 2.0058383117000383E8 ; 1.94885050277678E8 ; 5.797755068340122E9 ; 0.0
38 ; 6120205.51682011 ; 2.0058762558995E8 ; 2.0099046281438002E8 ; 5.998338899510126E9 ; 0.0
39 ; 6136277.378085439 ; 2.0059150312662008E8 ; 2.0711066833120012E8 ; 6.198926525100076E9 ; 0.0
40 ; 6150733.113028326 ; 2.0059546021823725E8 ; 2.1324694570928556E8 ; 6.399518028226696E9 ; 0.0
41 ; 6163823.602898886 ; 2.005994934161354E8 ; 2.1939767882231387E8 ; 6.600113488444933E9 ; 0.0
42 ; 6177999.749507337 ; 2.0060359938625768E8 ; 2.2556150242521277E8 ; 6.800712981861069E9 ; 0.0
43 ; 6189020.879364969 ; 2.006077749097395E8 ; 2.317395021747201E8 ; 7.001316581247327E9 ; 0.0
44 ; 6199464.998746344 ; 2.0061201688269967E8 ; 2.3792852305408508E8 ; 7.201924356157066E9 ; 0.0
45 ; 6211252.358827071 ; 2.0061632231535295E8 ; 2.441279880528314E8 ; 7.402536373039766E9 ; 0.0
46 ; 6223819.689630619 ; 2.0062068833054867E8 ; 2.503392404116585E8 ; 7.60315269535512E9 ; 0.0
47 ; 6230322.059715442 ; 2.0062511216183054E8 ; 2.5656306010128912E8 ; 7.803773383685668E9 ; 0.0
48 ; 6239198.014695179 ; 2.0062959115110305E8 ; 2.6279338216100457E8 ; 8.004398495847499E9 ; 0.0
49 ; 6250384.768140658 ; 2.006341227459807E8 ; 2.690325801756998E8 ; 8.205028086998602E9 ; 0.0
50 ; 6257365.477872372 ; 2.0063870449688813E8 ; 2.7528296494384044E8 ; 8.405662209744582E9 ; 0.0
51 ; 6257172.992150925 ; 2.0064333405397E8 ; 2.815403304217128E8 ; 8.60630091424147E9 ; 0.0
52 ; 6265802.523743321 ; 2.0064800916386327E8 ; 2.877975034138637E8 ; 8.80694424829544E9 ; 0.0
53 ; 6274063.631063576 ; 2.0065272766637576E8 ; 2.9406330593760705E8 ; 9.007592257459305E9 ; 0.0
54 ; 6277896.656770274 ; 2.0065748749111032E8 ; 3.0033736956867063E8 ; 9.20824498512568E9 ; 0.0
55 ; 6282003.23284016 ; 2.0066228665406704E8 ; 3.066152662254409E8 ; 9.40890247261679E9 ; 0.0
56 ; 6284807.850421198 ; 2.0066712325425085E8 ; 3.128972694582811E8 ; 9.609564759270859E9 ; 0.0
57 ; 6295338.5620693425 ; 2.0067199547030818E8 ; 3.191820773087023E8 ; 9.81023188252511E9 ; 0.0
58 ; 6300941.605526776 ; 2.00676901557211E8 ; 3.2547741587077165E8 ; 1.0010903877995419E10 ; 0.0
59 ; 6302891.465184313 ; 2.0068183984300423E8 ; 3.3177835747629845E8 ; 1.021158077955263E10 ; 0.0
60 ; 6311806.82489147 ; 2.006868087256287E8 ; 3.380812489414828E8 ; 1.0412262619395634E10 ; 0.0
61 ; 6316671.097143759 ; 2.0069180666982934E8 ; 3.4439305576637423E8 ; 1.0612949428121262E10 ; 0.0
62 ; 6321079.808070066 ; 2.0069683220415592E8 ; 3.50709726863518E8 ; 1.081364123479109E10 ; 0.0
63 ; 6323582.609233098 ; 2.007018839180621E8 ; 3.5703080667158806E8 ; 1.1014338066995247E10 ; 0.0
64 ; 6331031.446218439 ; 2.007069604591059E8 ; 3.6335438928082114E8 ; 1.121503995091331E10 ; 0.0
65 ; 6336530.204776114 ; 2.0071206053025457E8 ; 3.696854207270396E8 ; 1.1415746911372416E10 ; 0.0
66 ; 6340570.720944072 ; 2.007171828872943E8 ; 3.760219509318157E8 ; 1.161645897190267E10 ; 0.0
67 ; 6342515.843858562 ; 2.0072232633634537E8 ; 3.8236252165275973E8 ; 1.1817176154789965E10 ; 0.0
68 ; 6351104.430718514 ; 2.0072748973148188E8 ; 3.887050374966183E8 ; 1.201789848112631E10 ; 0.0
69 ; 6347597.822152046 ; 2.007326719724543E8 ; 3.950561419273368E8 ; 1.2218625970857792E10 ; 0.0
70 ; 6356707.375689503 ; 2.0073787200251356E8 ; 4.0140373974948883E8 ; 1.2419358642830246E10 ; 0.0
71 ; 6357217.986406754 ; 2.0074308880633354E8 ; 4.0776044712517834E8 ; 1.262009651483276E10 ; 0.0
72 ; 6360845.683934559 ; 2.0074832140803015E8 ; 4.141176651115851E8 ; 1.2820839603639093E10 ; 0.0
73 ; 6364600.569466567 ; 2.007535688692731E8 ; 4.2047851079551965E8 ; 1.3021587925047123E10 ; 0.0
74 ; 6368561.420130769 ; 2.0075883028748795E8 ; 4.2684311136498624E8 ; 1.3222341493916395E10 ; 0.0
75 ; 6373514.964377473 ; 2.007641047941449E8 ; 4.3321167278511703E8 ; 1.3423100324203882E10 ; 0.0
76 ; 6374539.375280818 ; 2.0076939155313075E8 ; 4.395851877494945E8 ; 1.3623864428998028E10 ; 0.0
77 ; 6374305.215449193 ; 2.0077468975920138E8 ; 4.459597271247753E8 ; 1.3824633820551159E10 ; 0.0
78 ; 6374855.600503514 ; 2.0077999863651043E8 ; 4.523340323402245E8 ; 1.402540851031036E10 ; 0.0
79 ; 6369123.552994045 ; 2.0078531743721163E8 ; 4.58708887940728E8 ; 1.422618850894687E10 ; 0.0
80 ; 6367886.765025884 ; 2.0079064544013104E8 ; 4.650780114937221E8 ; 1.4426973826384083E10 ; 0.0
81 ; 6364616.716338307 ; 2.0079598194950625E8 ; 4.7144589825874794E8 ; 1.4627764471824213E10 ; 0.0
82 ; 6366156.392311584 ; 2.0080132629378906E8 ; 4.778105149750862E8 ; 1.482856045377372E10 ; 0.0
83 ; 6358457.326060513 ; 2.0080667782450902E8 ; 4.841766713673978E8 ; 1.5029361780067509E10 ; 0.0
84 ; 6357866.090994697 ; 2.008120359151944E8 ; 4.905351286934583E8 ; 1.5230168457892017E10 ; 0.0
85 ; 6353761.004539799 ; 2.008173999603482E8 ; 4.9689299478445303E8 ; 1.543098049380721E10 ; 0.0
86 ; 6351312.351744534 ; 2.0082276937447605E8 ; 5.032467557889928E8 ; 1.563179789376756E10 ; 0.0
87 ; 6347035.95023968 ; 2.0082814359116372E8 ; 5.0959806814073735E8 ; 1.5832620663142035E10 ; 0.0
88 ; 6339075.634346888 ; 2.008335220622013E8 ; 5.15945104090977E8 ; 1.6033448806733198E10 ; 0.0
89 ; 6340173.960695001 ; 2.0083890425675222E8 ; 5.222841797253239E8 ; 1.6234282328795399E10 ; 0.0
90 ; 6332781.770948989 ; 2.0084428966056412E8 ; 5.2862435368601894E8 ; 1.643512123305215E10 ; 0.0
91 ; 6330473.538115036 ; 2.0084967777521998E8 ; 5.3495713545696795E8 ; 1.6635965522712715E10 ; 0.0
92 ; 6328534.557001325 ; 2.00855068117427E8 ; 5.41287608995083E8 ; 1.6836815200487936E10 ; 0.0
93 ; 6318866.169946698 ; 2.008604602183414E8 ; 5.476161435520843E8 ; 1.7037670268605364E10 ; 0.0
94 ; 6316796.399500963 ; 2.0086585362292755E8 ; 5.53935009722031E8 ; 1.7238530728823704E10 ; 0.0
95 ; 6312837.771853342 ; 2.0087124788934872E8 ; 5.60251806121532E8 ; 1.7439396582446632E10 ; 0.0
96 ; 6302539.22733195 ; 2.0087664258838895E8 ; 5.665646438933853E8 ; 1.764026783033598E10 ; 0.0
97 ; 6304715.134659164 ; 2.008820373029035E8 ; 5.728671831207173E8 ; 1.784114447292437E10 ; 0.0
98 ; 6301410.320096755 ; 2.0088743162729686E8 ; 5.791718982553765E8 ; 1.8042026510227272E10 ; 0.0
99 ; 6286873.906242559 ; 2.0089282516702643E8 ; 5.854733085754732E8 ; 1.824291394185457E10 ; 0.0
100 ; 6285080.535254388 ; 2.008982175381311E8 ; 5.917601824817158E8 ; 1.8443806767021595E10 ; 0.0
101 ; 6279670.5932014175 ; 2.0090360836678278E8 ; 5.980452630169702E8 ; 1.8644704984559727E10 ; 0.0
102 ; 6274695.554393757 ; 2.0090899728886014E8 ; 6.043249336101716E8 ; 1.884560859292651E10 ; 0.0
103 ; 6271551.570594144 ; 2.0091438394954306E8 ; 6.105996291645653E8 ; 1.904651759021537E10 ; 0.0
104 ; 6261066.135281389 ; 2.0091976800292704E8 ; 6.168711807351595E8 ; 1.9247431974164913E10 ; 0.0
105 ; 6260991.480117248 ; 2.0092514911165613E8 ; 6.23132246870441E8 ; 1.944835174216784E10 ; 0.0
106 ; 6251320.0456874315 ; 2.0093052694657367E8 ; 6.293932383505582E8 ; 1.9649276891279495E10 ; 0.0
107 ; 6245488.3512117835 ; 2.0093590118638998E8 ; 6.356445583962456E8 ; 1.985020741822607E10 ; 0.0
108 ; 6234772.9404600635 ; 2.009412715173656E8 ; 6.418900467474574E8 ; 2.005114331941246E10 ; 0.0
109 ; 6232648.566949344 ; 2.0094663763301012E8 ; 6.481248196879175E8 ; 2.0252084590929825E10 ; 0.0
110 ; 6226720.175566858 ; 2.009519992337949E8 ; 6.543574682548668E8 ; 2.0453031228562836E10 ; 0.0
111 ; 6219511.478878125 ; 2.0095735602687955E8 ; 6.605841884304338E8 ; 2.065398322779663E10 ; 0.0
112 ; 6210335.648383608 ; 2.0096270772585136E8 ; 6.668036999093119E8 ; 2.085494058382351E10 ; 0.0
113 ; 6202381.233230027 ; 2.0096805405047673E8 ; 6.730140355576955E8 ; 2.1055903291549362E10 ; 0.0
114 ; 6198210.6448158035 ; 2.009733947264643E8 ; 6.792164167909255E8 ; 2.125687134559984E10 ; 0.0
115 ; 6183972.675375123 ; 2.0097872948523912E8 ; 6.854146274357413E8 ; 2.14578447403263E10 ; 0.0
116 ; 6181749.214097746 ; 2.0098405806372702E8 ; 6.915986001111164E8 ; 2.1658823469811543E10 ; 0.0
117 ; 6175018.137913829 ; 2.0098938020414928E8 ; 6.977803493252141E8 ; 2.185980752787527E10 ; 0.0
118 ; 6169871.369255603 ; 2.009946956538262E8 ; 7.03955367463128E8 ; 2.2060796908079422E10 ; 0.0
119 ; 6157581.366200775 ; 2.0100000416499E8 ; 7.101252388323836E8 ; 2.226179160373325E10 ; 0.0
120 ; 6148975.951671568 ; 2.0100530549460605E8 ; 7.162828201985844E8 ; 2.246279160789824E10 ; 0.0
121 ; 6141722.780428433 ; 2.01010599404202E8 ; 7.22431796150256E8 ; 2.2663796913392845E10 ; 0.0
122 ; 6133723.026411266 ; 2.0101588565970498E8 ; 7.285735189306844E8 ; 2.2864807512797047E10 ; 0.0
123 ; 6121104.013389471 ; 2.0102116403128552E8 ; 7.347072419570957E8 ; 2.3065823398456753E10 ; 0.0
124 ; 6112657.387465218 ; 2.010264342932089E8 ; 7.408283459704852E8 ; 2.3266844562488037E10 ; 0.0
125 ; 6103035.074039813 ; 2.0103169622369272E8 ; 7.469410033579504E8 ; 2.3467870996781246E10 ; 0.0
126 ; 6094782.023978994 ; 2.0103694960477093E8 ; 7.530440384319903E8 ; 2.366890269300494E10 ; 0.0
127 ; 6086248.283020096 ; 2.010421942221637E8 ; 7.591388204559692E8 ; 2.386993964260971E10 ; 0.0
128 ; 6079486.077892002 ; 2.0104742986515307E8 ; 7.652250687389894E8 ; 2.4070981836831875E10 ; 0.0
129 ; 6068947.08955806 ; 2.0105265632646376E8 ; 7.713045548168813E8 ; 2.427202926669703E10 ; 0.0
130 ; 6057289.958141691 ; 2.0105787340214944E8 ; 7.773735019064393E8 ; 2.4473081923023495E10 ; 0.0
131 ; 6042196.125101715 ; 2.010630808914836E8 ; 7.83430791864581E8 ; 2.4674139796425644E10 ; 0.0
132 ; 6027251.34857762 ; 2.0106827859685528E8 ; 7.894729879896827E8 ; 2.4875202877317127E10 ; 0.0
133 ; 6014380.0685406625 ; 2.0107346632366905E8 ; 7.955002393382603E8 ; 2.5076271155913982E10 ; 0.0
134 ; 5999748.074829987 ; 2.0107864388024938E8 ; 8.01514619406801E8 ; 2.527734462223765E10 ; 0.0
135 ; 5983190.615164719 ; 2.0108381107774892E8 ; 8.075143674816309E8 ; 2.54784232661179E10 ; 0.0
136 ; 5968082.32030816 ; 2.0108896773006076E8 ; 8.134975580967957E8 ; 2.567950707719565E10 ; 0.0
137 ; 5947846.653826795 ; 2.010941136537341E8 ; 8.194656404171039E8 ; 2.588059604492571E10 ; 0.0
138 ; 5936983.860576269 ; 2.010992486678937E8 ; 8.254134870709307E8 ; 2.608169015857944E10 ; 0.0
139 ; 5921894.581060378 ; 2.011043725941626E8 ; 8.31350470931507E8 ; 2.6282789407247334E10 ; 0.0
140 ; 5902651.641256875 ; 2.011094852565878E8 ; 8.372723655125674E8 ; 2.6483893779841496E10 ; 0.0
141 ; 5886554.045163447 ; 2.0111458648156914E8 ; 8.431750171538243E8 ; 2.6685003265098083E10 ; 0.0
142 ; 5872239.643948354 ; 2.011196760977912E8 ; 8.490615711989877E8 ; 2.688611785157965E10 ; 0.0
143 ; 5856939.625845935 ; 2.0112475393615782E8 ; 8.54933810842936E8 ; 2.708723752767744E10 ; 0.0
144 ; 5833742.065179032 ; 2.0112981982972914E8 ; 8.60790750468782E8 ; 2.7288362281613598E10 ; 0.0
145 ; 5832479.506695986 ; 2.0113487361366147E8 ; 8.666244925339609E8 ; 2.748949210144333E10 ; 0.0
146 ; 5818224.294481405 ; 2.011399151251493E8 ; 8.724569720406569E8 ; 2.769062697505699E10 ; 0.0
147 ; 5812005.766948492 ; 2.0114494420336986E8 ; 8.782751963351383E8 ; 2.789176689018214E10 ; 0.0
148 ; 5803708.493885715 ; 2.0114996068942955E8 ; 8.840872021020868E8 ; 2.809291183438551E10 ; 0.0
149 ; 5788736.415752386 ; 2.011549644263129E8 ; 8.898909105959725E8 ; 2.829406179507494E10 ; 0.0
150 ; 5781018.449266603 ; 2.0115995525883317E8 ; 8.95679647011725E8 ; 2.849521675950125E10 ; 0.0
151 ; 5768170.713372198 ; 2.011649330335852E8 ; 9.014606654609915E8 ; 2.8696376714760086E10 ; 0.0
152 ; 5758157.694118439 ; 2.0116989759889966E8 ; 9.072288361743637E8 ; 2.889754164779367E10 ; 0.0
153 ; 5750880.18428708 ; 2.0117484880479974E8 ; 9.129869938684821E8 ; 2.909871154539257E10 ; 0.0
154 ; 5737852.660843942 ; 2.0117978650295886E8 ; 9.187378740527692E8 ; 2.929988639419737E10 ; 0.0
155 ; 5729432.28504905 ; 2.0118471054666033E8 ; 9.244757267136132E8 ; 2.950106618070033E10 ; 0.0
156 ; 5722176.126733913 ; 2.011896207907586E8 ; 9.302051589986622E8 ; 2.970225089124699E10 ; 0.0
157 ; 5707773.230398085 ; 2.0119451709164187E8 ; 9.359273351253961E8 ; 2.990344051203775E10 ; 0.0
158 ; 5702224.738613031 ; 2.0119939930719614E8 ; 9.416351083557942E8 ; 3.010463502912939E10 ; 0.0
159 ; 5691099.364431249 ; 2.0120426729677066E8 ; 9.473373330944072E8 ; 3.030583442843659E10 ; 0.0
160 ; 5685700.680907124 ; 2.012091209211447E8 ; 9.530284324588385E8 ; 3.050703869573336E10 ; 0.0
161 ; 5671945.777088435 ; 2.012139600424955E8 ; 9.587141331397456E8 ; 3.0708247816654507E10 ; 0.0
162 ; 5660078.606707639 ; 2.012187845243675E8 ; 9.64386078916834E8 ; 3.0909461776697002E10 ; 0.0
163 ; 5651394.9288353985 ; 2.0122359423164278E8 ; 9.700461575235417E8 ; 3.111068056122137E10 ; 0.0
164 ; 5642342.535643477 ; 2.012283890305123E8 ; 9.756975524523771E8 ; 3.1311904155453014E10 ; 0.0
165 ; 5631105.772918592 ; 2.0123316878844863E8 ; 9.813398949880205E8 ; 3.151313254448353E10 ; 0.0
166 ; 5622719.976785579 ; 2.0123793337417945E8 ; 9.869710007609391E8 ; 3.1714365713271976E10 ; 0.0
167 ; 5615656.051545755 ; 2.0124268265766197E8 ; 9.925937207377247E8 ; 3.1915603646646156E10 ; 0.0
168 ; 5602593.477011054 ; 2.0124741651005846E8 ; 9.982093767892704E8 ; 3.2116846329303818E10 ; 0.0
169 ; 5589120.919889389 ; 2.0125213480371255E8 ; 1.0038119702662815E9 ; 3.2318093745813877E10 ; 0.0
170 ; 5576628.710256998 ; 2.0125683741212657E8 ; 1.0094010911861708E9 ; 3.2519345880617588E10 ; 0.0
171 ; 5567137.003689081 ; 2.0126152420993945E8 ; 1.0149777198964279E9 ; 3.2720602718029716E10 ; 0.0
172 ; 5558316.192930564 ; 2.0126619507290563E8 ; 1.0205448569001169E9 ; 3.2921864242239655E10 ; 0.0
173 ; 5549419.799853435 ; 2.0127084987787476E8 ; 1.0261031730930475E9 ; 3.312313043731256E10 ; 0.0
174 ; 5542797.168277538 ; 2.0127548850277185E8 ; 1.031652592892901E9 ; 3.3324401287190437E10 ; 0.0
175 ; 5534518.698668084 ; 2.0128011082657862E8 ; 1.0371953900611784E9 ; 3.352567677569321E10 ; 0.0
176 ; 5525021.630710727 ; 2.012847167293149E8 ; 1.0427299087598466E9 ; 3.372695688651979E10 ; 0.0
177 ; 5518653.475292939 ; 2.012893060920213E8 ; 1.0482549303905573E9 ; 3.3928241603249107E10 ; 0.0
178 ; 5508720.4443269735 ; 2.0129387879674214E8 ; 1.0537735838658502E9 ; 3.412953090934113E10 ; 0.0
179 ; 5507280.164762696 ; 2.012984347265091E8 ; 1.0592823043101772E9 ; 3.433082478813787E10 ; 0.0
180 ; 5494053.940540474 ; 2.0130297376532537E8 ; 1.06478958447494E9 ; 3.453212322286438E10 ; 0.0
181 ; 5485716.390885999 ; 2.013074957981505E8 ; 1.0702836384154804E9 ; 3.473342619662971E10 ; 0.0
182 ; 5478823.307301467 ; 2.0131200071088573E8 ; 1.0757693548063664E9 ; 3.493473369242786E10 ; 0.0
183 ; 5470209.495211308 ; 2.0131648839035973E8 ; 1.081248178113668E9 ; 3.513604569313874E10 ; 0.0
184 ; 5468156.949736525 ; 2.0132095872431505E8 ; 1.0867183876088793E9 ; 3.53373621815291E10 ; 0.0
185 ; 5455249.058726955 ; 2.013254116013949E8 ; 1.092186544558616E9 ; 3.553868314025341E10 ; 0.0
186 ; 5447008.737952876 ; 2.0132984691113037E8 ; 1.097641793617343E9 ; 3.5740008551854805E10 ; 0.0
187 ; 5438829.099844104 ; 2.0133426454392824E8 ; 1.103088802355296E9 ; 3.594133839876594E10 ; 0.0
188 ; 5430738.24769271 ; 2.013386643910591E8 ; 1.10852763145514E9 ; 3.614267266330987E10 ; 0.0
189 ; 5426608.298680017 ; 2.0134304634464595E8 ; 1.113958369702833E9 ; 3.634401132770093E10 ; 0.0
190 ; 5417081.66513 ; 2.0134741029765314E8 ; 1.119384978001513E9 ; 3.654535437404557E10 ; 0.0
191 ; 5407923.945350709 ; 2.0135175614387575E8 ; 1.124802059666643E9 ; 3.674670178434322E10 ; 0.0
192 ; 5403541.152941145 ; 2.0135608377792934E8 ; 1.1302099836119936E9 ; 3.69480535404871E10 ; 0.0
193 ; 5395808.243875666 ; 2.0136039309523997E8 ; 1.1356135247649348E9 ; 3.714940962426503E10 ; 0.0
194 ; 5387087.710029133 ; 2.013646839920347E8 ; 1.1410093330088105E9 ; 3.735077001736027E10 ; 0.0
195 ; 5381268.706776388 ; 2.013689563653323E8 ; 1.1463964207188396E9 ; 3.75521347013523E10 ; 0.0
196 ; 5374178.894914557 ; 2.0137321011293438E8 ; 1.151777689425616E9 ; 3.7753503657717636E10 ; 0.0
197 ; 5361053.882185103 ; 2.013774451334168E8 ; 1.1571518683205307E9 ; 3.7954876867830574E10 ; 0.0
198 ; 5359966.921094439 ; 2.013816613261213E8 ; 1.1625129222027159E9 ; 3.815625431296399E10 ; 0.0
199 ; 5347609.547762223 ; 2.0138585859114745E8 ; 1.1678728891238103E9 ; 3.835763597429011E10 ; 0.0
200 ; 5342175.232548261 ; 2.013900368293451E8 ; 1.1732204986715724E9 ; 3.8559021832881256E10 ; 0.0
201 ; 5336734.904832884 ; 1.9695720914451548E8 ; 1.1785626739041207E9 ; 3.87604118697106E10 ; 0.0
