CSV File for the City 2 on Day 185
1 - Minute m 
2 - Power Consumed at minute m 
3 - Power Produced at minute m 
4 - Energy Consumed since the beginning of the day 
5 - Energy Produced since the beginning of the day 
6 - Energy Lost since the beginning of the day on lines starting from the city
 
0 ; 338385.5982234991 ; 1.0523822169426635E8 ; 0.0 ; 0.0 ; 0.0
1 ; 339113.20759587706 ; 1.0539218420565182E8 ; 338385.5982234991 ; 1.0523822169426635E8 ; 0.0
2 ; 341122.67775210296 ; 1.0585482492340371E8 ; 677498.8058193761 ; 2.1063040589991817E8 ; 0.0
3 ; 344530.272695563 ; 1.0662614433359891E8 ; 1018621.4835714791 ; 3.164852308233219E8 ; 0.0
4 ; 345676.22746646905 ; 1.0770614287375915E8 ; 1363151.7562670421 ; 4.231113751569208E8 ; 0.0
5 ; 350428.3867564731 ; 1.0909482092979014E8 ; 1708827.983733511 ; 5.3081751803067994E8 ; 0.0
6 ; 355169.717287643 ; 1.1079217883321539E8 ; 2059256.3704899843 ; 6.399123389604701E8 ; 0.0
7 ; 359591.1571396285 ; 1.1279821685874993E8 ; 2414426.087777627 ; 7.507045177936854E8 ; 0.0
8 ; 369752.20681656385 ; 1.151129352222544E8 ; 2774017.244917256 ; 8.635027346524353E8 ; 0.0
9 ; 383614.5501499202 ; 1.1773633407910484E8 ; 3143769.4517338197 ; 9.786156698746897E8 ; 0.0
10 ; 405149.454179412 ; 1.206684135230074E8 ; 3527384.00188374 ; 1.0963520039537945E9 ; 0.0
11 ; 440489.9850020398 ; 1.239091735852777E8 ; 3932533.4560631523 ; 1.2170204174768019E9 ; 0.0
12 ; 494710.00774004427 ; 1.274586142346001E8 ; 4373023.441065192 ; 1.3409295910620797E9 ; 0.0
13 ; 544954.8519041011 ; 1.3131673537726843E8 ; 4867733.448805236 ; 1.4683882052966797E9 ; 0.0
14 ; 550857.6591744442 ; 1.3548353685790676E8 ; 5412688.300709337 ; 1.5997049406739483E9 ; 0.0
15 ; 554787.1429501092 ; 1.3995901846065432E8 ; 5963545.959883781 ; 1.735188477531855E9 ; 0.0
16 ; 556912.1016679242 ; 1.447431799107962E8 ; 6518333.10283389 ; 1.8751474959925094E9 ; 0.0
17 ; 558541.7360380695 ; 1.498360208768088E8 ; 7075245.204501814 ; 2.0198906759033055E9 ; 0.0
18 ; 561337.9988133401 ; 1.5523754097278643E8 ; 7633786.940539883 ; 2.169726696780114E9 ; 0.0
19 ; 564413.5175235083 ; 1.6094773976120737E8 ; 8195124.939353224 ; 2.3249642377529006E9 ; 0.0
20 ; 566807.0480644526 ; 1.669666167559947E8 ; 8759538.456876732 ; 2.485911977514108E9 ; 0.0
21 ; 569590.1808499733 ; 1.7329417142582306E8 ; 9326345.504941184 ; 2.652878594270103E9 ; 0.0
22 ; 571841.023734736 ; 1.7993040319762236E8 ; 9895935.685791157 ; 2.826172765695926E9 ; 0.0
23 ; 574997.3458989064 ; 1.868753114602273E8 ; 1.0467776709525893E7 ; 3.0061031688935485E9 ; 0.0
24 ; 576302.9047840937 ; 1.941288955681231E8 ; 1.1042774055424798E7 ; 3.192978480353776E9 ; 0.0
25 ; 579570.9309423458 ; 2.0037919574342313E8 ; 1.1619076960208893E7 ; 3.387107375921899E9 ; 0.0
26 ; 582884.0449887309 ; 2.0037975911656186E8 ; 1.2198647891151238E7 ; 3.587486571665322E9 ; 0.0
27 ; 584461.5142997637 ; 2.0038035425495642E8 ; 1.278153193613997E7 ; 3.7878663307818837E9 ; 0.0
28 ; 586608.0609745922 ; 2.0038098041346085E8 ; 1.3365993450439733E7 ; 3.98824668503684E9 ; 0.0
29 ; 590572.0348767622 ; 2.0038163683118328E8 ; 1.3952601511414325E7 ; 4.1886276654503007E9 ; 0.0
30 ; 592260.2415518783 ; 2.0038232273491958E8 ; 1.4543173546291087E7 ; 4.389009302281484E9 ; 0.0
31 ; 593252.0626082656 ; 2.0038303734242475E8 ; 1.5135433787842965E7 ; 4.589391625016403E9 ; 0.0
32 ; 597374.4072604575 ; 2.0038377986550304E8 ; 1.5728685850451231E7 ; 4.789774662358828E9 ; 0.0
33 ; 598328.3231895071 ; 2.0038454951290232E8 ; 1.6326060257711688E7 ; 4.990158442224331E9 ; 0.0
34 ; 600350.3688686783 ; 2.0038534549300253E8 ; 1.6924388580901194E7 ; 5.190542991737233E9 ; 0.0
35 ; 603828.680903081 ; 2.0038616701629198E8 ; 1.7524738949769873E7 ; 5.390928337230236E9 ; 0.0
36 ; 605792.3204441767 ; 2.0038701329762903E8 ; 1.8128567630672954E7 ; 5.591314504246528E9 ; 0.0
37 ; 608313.5962519841 ; 2.0038788355828953E8 ; 1.873435995111713E7 ; 5.791701517544157E9 ; 0.0
38 ; 610295.2520462715 ; 2.003887770278037E8 ; 1.9342673547369115E7 ; 5.992089401102447E9 ; 0.0
39 ; 610994.169318094 ; 2.0038969294558752E8 ; 1.9952968799415387E7 ; 6.19247817813025E9 ; 0.0
40 ; 613566.151029393 ; 2.0039063056237692E8 ; 2.0563962968733482E7 ; 6.392867871075837E9 ; 0.0
41 ; 614588.9893743816 ; 2.00391589141473E8 ; 2.1177529119762875E7 ; 6.593258501638214E9 ; 0.0
42 ; 616321.4796353539 ; 2.0039256795980912E8 ; 2.1792118109137256E7 ; 6.793650090779687E9 ; 0.0
43 ; 618425.6178573979 ; 2.0039356630885068E8 ; 2.240843958877261E7 ; 6.994042658739496E9 ; 0.0
44 ; 620708.0347159386 ; 2.0039458349533856E8 ; 2.3026865206630006E7 ; 7.1944362250483465E9 ; 0.0
45 ; 620867.8756913048 ; 2.0039561884188896E8 ; 2.3647573241345946E7 ; 7.394830808543685E9 ; 0.0
46 ; 623290.4185532404 ; 2.0039667168746072E8 ; 2.426844111703725E7 ; 7.595226427385574E9 ; 0.0
47 ; 625237.1625460127 ; 2.0039774138770187E8 ; 2.4891731535590492E7 ; 7.795623099073035E9 ; 0.0
48 ; 624591.3423917602 ; 2.003988273151871E8 ; 2.5516968698136505E7 ; 7.996020840460737E9 ; 0.0
49 ; 626532.5508143129 ; 2.00399928859557E8 ; 2.6141560040528264E7 ; 8.196419667775925E9 ; 0.0
50 ; 627887.948734166 ; 2.0040104542756933E8 ; 2.6768092591342576E7 ; 8.396819596635482E9 ; 0.0
51 ; 628096.4057743469 ; 2.0040217644307262E8 ; 2.739598054007674E7 ; 8.597220642063051E9 ; 0.0
52 ; 628809.2411616603 ; 2.0040332134691107E8 ; 2.8024076945851088E7 ; 8.797622818506124E9 ; 0.0
53 ; 630279.5338021807 ; 2.0040447959676987E8 ; 2.8652886187012747E7 ; 8.998026139853035E9 ; 0.0
54 ; 631560.0613611378 ; 2.0040565066696844E8 ; 2.928316572081493E7 ; 9.198430619449804E9 ; 0.0
55 ; 630974.6193418433 ; 2.0040683404820946E8 ; 2.9914725782176066E7 ; 9.398836270116774E9 ; 0.0
56 ; 631689.6309636977 ; 2.004080292472903E8 ; 3.054570040151791E7 ; 9.599243104164984E9 ; 0.0
57 ; 633172.408088682 ; 2.0040923578678298E8 ; 3.1177390032481607E7 ; 9.799651133412273E9 ; 0.0
58 ; 632722.635322739 ; 2.0041045320468813E8 ; 3.1810562440570287E7 ; 1.0000060369199057E10 ; 0.0
59 ; 634994.0986797672 ; 2.0041168105406857E8 ; 3.2443285075893026E7 ; 1.0200470822403746E10 ; 0.0
60 ; 635611.035869065 ; 2.004129189026659E8 ; 3.3078279174572792E7 ; 1.0400882503457813E10 ; 0.0
61 ; 636102.0653276371 ; 2.0041416633250552E8 ; 3.371389021044186E7 ; 1.060129542236048E10 ; 0.0
62 ; 636766.805744975 ; 2.0041542293949205E8 ; 3.4349992275769494E7 ; 1.0801709588692986E10 ; 0.0
63 ; 636989.6428804402 ; 2.004166883329999E8 ; 3.498675908151447E7 ; 1.1002125011632477E10 ; 0.0
64 ; 638286.5402940413 ; 2.0041796213546044E8 ; 3.562374872439491E7 ; 1.1202541699965477E10 ; 0.0
65 ; 639677.7084511212 ; 2.0041924398194867E8 ; 3.6262035264688954E7 ; 1.1402959662100937E10 ; 0.0
66 ; 637848.6023307124 ; 2.0042053351977184E8 ; 3.6901712973140076E7 ; 1.1603378906082886E10 ; 0.0
67 ; 640444.1695094379 ; 2.004218304080609E8 ; 3.753956157547079E7 ; 1.1803799439602657E10 ; 0.0
68 ; 641711.8783695033 ; 2.0042313431736708E8 ; 3.818000574498023E7 ; 1.2004221270010717E10 ; 0.0
69 ; 641330.8917653363 ; 2.0042444492926455E8 ; 3.882171762334973E7 ; 1.2204644404328085E10 ; 0.0
70 ; 642677.959999068 ; 2.004257619359602E8 ; 3.946304851511507E7 ; 1.2405068849257349E10 ; 0.0
71 ; 641759.0528861142 ; 2.0042708503991157E8 ; 4.010572647511414E7 ; 1.260549461119331E10 ; 0.0
72 ; 642858.9784659541 ; 2.0042841395345333E8 ; 4.074748552800025E7 ; 1.2805921696233221E10 ; 0.0
73 ; 644021.126369748 ; 2.004297483984335E8 ; 4.13903445064662E7 ; 1.3006350110186674E10 ; 0.0
74 ; 644968.5258716284 ; 2.004310881058589E8 ; 4.203436563283595E7 ; 1.3206779858585108E10 ; 0.0
75 ; 644268.1656773333 ; 2.004324328155511E8 ; 4.2679334158707574E7 ; 1.3407210946690968E10 ; 0.0
76 ; 645452.946045593 ; 2.0043378227581266E8 ; 4.3323602324384905E7 ; 1.360764337950652E10 ; 0.0
77 ; 646110.0095812869 ; 2.0043513624310338E8 ; 4.39690552704305E7 ; 1.3808077161782331E10 ; 0.0
78 ; 646583.3862252892 ; 2.0043649448172766E8 ; 4.461516528001179E7 ; 1.4008512298025434E10 ; 0.0
79 ; 646563.4478255042 ; 2.004378567635318E8 ; 4.526174866623708E7 ; 1.4208948792507162E10 ; 0.0
80 ; 644006.7261532913 ; 2.0043922286761215E8 ; 4.5908312114062585E7 ; 1.4409386649270695E10 ; 0.0
81 ; 644044.0052249371 ; 2.0044059258003336E8 ; 4.655231884021588E7 ; 1.4609825872138308E10 ; 0.0
82 ; 644208.9477856982 ; 2.0044196569355685E8 ; 4.719636284544081E7 ; 1.4810266464718342E10 ; 0.0
83 ; 644363.3101812111 ; 2.0044334200737932E8 ; 4.784057179322651E7 ; 1.50107084304119E10 ; 0.0
84 ; 645087.5471161775 ; 2.004447213268812E8 ; 4.848493510340772E7 ; 1.521115177241928E10 ; 0.0
85 ; 644846.2395657366 ; 2.004461034633844E8 ; 4.913002265052389E7 ; 1.541159649374616E10 ; 0.0
86 ; 643642.8161042017 ; 2.0044748823391962E8 ; 4.977486889008963E7 ; 1.5612042597209545E10 ; 0.0
87 ; 644850.1664096101 ; 2.0044887546100283E8 ; 5.0418511706193835E7 ; 1.5812490085443464E10 ; 0.0
88 ; 642982.6051317304 ; 2.004502649724203E8 ; 5.1063361872603446E7 ; 1.6012938960904467E10 ; 0.0
89 ; 643547.4080525872 ; 2.004516566010225E8 ; 5.170634447773518E7 ; 1.6213389225876886E10 ; 0.0
90 ; 643295.6246273362 ; 2.0045305018452603E8 ; 5.234989188578776E7 ; 1.641384088247791E10 ; 0.0
91 ; 643301.8688054904 ; 2.004544455653238E8 ; 5.29931875104151E7 ; 1.6614293932662436E10 ; 0.0
92 ; 643137.3099676322 ; 2.0045584259030282E8 ; 5.363648937922059E7 ; 1.6814748378227758E10 ; 0.0
93 ; 640561.1265337765 ; 2.0045724111066943E8 ; 5.427962668918822E7 ; 1.7015204220818062E10 ; 0.0
94 ; 642250.3751148892 ; 2.0045864098178184E8 ; 5.4920187815721996E7 ; 1.721566146192873E10 ; 0.0
95 ; 640748.8103460325 ; 2.0046004206298953E8 ; 5.5562438190836884E7 ; 1.741612010291051E10 ; 0.0
96 ; 640111.7717010432 ; 2.004614442174793E8 ; 5.6203187001182914E7 ; 1.76165801449735E10 ; 0.0
97 ; 640660.7904519847 ; 2.0046284731212774E8 ; 5.684329877288396E7 ; 1.781704158919098E10 ; 0.0
98 ; 639952.9619910354 ; 2.0046425121736E8 ; 5.748395956333594E7 ; 1.8017504436503105E10 ; 0.0
99 ; 639124.9378949149 ; 2.004656558070141E8 ; 5.8123912525326975E7 ; 1.8217968687720467E10 ; 0.0
100 ; 639149.065455518 ; 2.004670609582114E8 ; 5.876303746322189E7 ; 1.841843434352748E10 ; 0.0
101 ; 638751.2448159094 ; 2.004684665512321E8 ; 5.940218652867741E7 ; 1.861890140448569E10 ; 0.0
102 ; 637342.1607782113 ; 2.0046987246939614E8 ; 6.004093777349332E7 ; 1.8819369871036922E10 ; 0.0
103 ; 638806.9067736333 ; 2.004712785989492E8 ; 6.067827993427153E7 ; 1.9019839743506317E10 ; 0.0
104 ; 636053.1737019491 ; 2.0047268482895318E8 ; 6.131708684104516E7 ; 1.9220311022105267E10 ; 0.0
105 ; 635165.2975300793 ; 2.004740910511816E8 ; 6.195314001474711E7 ; 1.942078370693422E10 ; 0.0
106 ; 635348.4707676192 ; 2.0047549716001925E8 ; 6.258830531227719E7 ; 1.96212577979854E10 ; 0.0
107 ; 635991.0909389325 ; 2.0047690305236584E8 ; 6.322365378304481E7 ; 1.982173329514542E10 ; 0.0
108 ; 634896.3623115857 ; 2.004783086275442E8 ; 6.385964487398374E7 ; 2.0022210198197784E10 ; 0.0
109 ; 633589.3462566042 ; 2.0047971378721178E8 ; 6.449454123629533E7 ; 2.022268850682533E10 ; 0.0
110 ; 634435.8119177092 ; 2.004811184352761E8 ; 6.5128130582551934E7 ; 2.042316822061254E10 ; 0.0
111 ; 632073.1478804636 ; 2.0048252247781384E8 ; 6.576256639446964E7 ; 2.0623649339047817E10 ; 0.0
112 ; 631635.1077235779 ; 2.0048392582299292E8 ; 6.6394639542350106E7 ; 2.082413186152563E10 ; 0.0
113 ; 632226.1223708972 ; 2.0048532838099825E8 ; 6.7026274650073685E7 ; 2.1024615787348625E10 ; 0.0
114 ; 630946.1839252266 ; 2.0048673006396034E8 ; 6.765850077244458E7 ; 2.122510111572962E10 ; 0.0
115 ; 629638.320557656 ; 2.0048813078588668E8 ; 6.82894469563698E7 ; 2.1425587845793583E10 ; 0.0
116 ; 630328.5511107439 ; 2.0048953046259645E8 ; 6.891908527692746E7 ; 2.1626075976579468E10 ; 0.0
117 ; 628857.7885310721 ; 2.0049092901165733E8 ; 6.95494138280382E7 ; 2.1826565507042065E10 ; 0.0
118 ; 627809.0068669454 ; 2.0049232635232544E8 ; 7.017827161656927E7 ; 2.2027056436053722E10 ; 0.0
119 ; 628091.6450508324 ; 2.0049372240548736E8 ; 7.080608062343621E7 ; 2.2227548762406048E10 ; 0.0
120 ; 625801.814665881 ; 2.0049511709360462E8 ; 7.143417226848705E7 ; 2.2428042484811535E10 ; 0.0
121 ; 626191.3637800008 ; 2.0049651034066057E8 ; 7.205997408315293E7 ; 2.262853760190514E10 ; 0.0
122 ; 624474.970147595 ; 2.0049790207210928E8 ; 7.268616544693294E7 ; 2.28290341122458E10 ; 0.0
123 ; 624111.714314084 ; 2.0049929221482652E8 ; 7.331064041708054E7 ; 2.302953201431791E10 ; 0.0
124 ; 623728.3754643119 ; 2.005006806970628E8 ; 7.393475213139462E7 ; 2.3230031306532734E10 ; 0.0
125 ; 621864.6811654007 ; 2.005020674483981E8 ; 7.455848050685893E7 ; 2.3430531987229797E10 ; 0.0
126 ; 622376.8274216361 ; 2.005034523996988E8 ; 7.518034518802433E7 ; 2.3631034054678196E10 ; 0.0
127 ; 622165.6355432419 ; 2.005048354830758E8 ; 7.580272201544596E7 ; 2.3831537507077896E10 ; 0.0
128 ; 620681.0505797953 ; 2.005062166318448E8 ; 7.64248876509892E7 ; 2.403204234256097E10 ; 0.0
129 ; 617260.820030993 ; 2.0050759578048784E8 ; 7.7045568701569E7 ; 2.4232548559192814E10 ; 0.0
130 ; 616895.3973349278 ; 2.0050897286461654E8 ; 7.76628295216E7 ; 2.44330561549733E10 ; 0.0
131 ; 615659.4440151273 ; 2.0051034782093668E8 ; 7.827972491893493E7 ; 2.4633565127837917E10 ; 0.0
132 ; 613465.5787297845 ; 2.0051172058721414E8 ; 7.889538436295006E7 ; 2.4834075475658855E10 ; 0.0
133 ; 611617.1870862073 ; 2.005130911022424E8 ; 7.950884994167984E7 ; 2.503458719624607E10 ; 0.0
134 ; 612351.3555411795 ; 2.0051445930581102E8 ; 8.012046712876604E7 ; 2.5235100287348312E10 ; 0.0
135 ; 609081.9354348611 ; 2.0051582513867548E8 ; 8.073281848430723E7 ; 2.5435614746654125E10 ; 0.0
136 ; 606030.856767797 ; 2.0051718854252827E8 ; 8.134190041974209E7 ; 2.56361305717928E10 ; 0.0
137 ; 605242.8714672491 ; 2.0051854945997095E8 ; 8.19479312765099E7 ; 2.583664776033533E10 ; 0.0
138 ; 605145.225085265 ; 2.0051990783448726E8 ; 8.255317414797714E7 ; 2.6037166309795303E10 ; 0.0
139 ; 603487.0779504136 ; 2.0052126361041752E8 ; 8.31583193730624E7 ; 2.623768621762979E10 ; 0.0
140 ; 601202.4641093045 ; 2.0052261673293367E8 ; 8.376180645101282E7 ; 2.6438207481240208E10 ; 0.0
141 ; 599511.8452302194 ; 2.005239671480155E8 ; 8.436300891512212E7 ; 2.663873009797314E10 ; 0.0
142 ; 597490.2968633978 ; 2.0052531480242762E8 ; 8.496252076035234E7 ; 2.6839254065121155E10 ; 0.0
143 ; 595114.8629363596 ; 2.0052665964369747E8 ; 8.556001105721574E7 ; 2.7039779379923584E10 ; 0.0
144 ; 594651.1799837851 ; 2.0052800162009403E8 ; 8.61551259201521E7 ; 2.724030603956728E10 ; 0.0
145 ; 592906.5283053624 ; 2.0052934068060735E8 ; 8.674977710013588E7 ; 2.7440834041187374E10 ; 0.0
146 ; 592578.9128894787 ; 2.0053067677492875E8 ; 8.734268362844124E7 ; 2.764136338186798E10 ; 0.0
147 ; 590873.7917988726 ; 2.0053200985343212E8 ; 8.793526254133072E7 ; 2.784189405864291E10 ; 0.0
148 ; 590163.0580491473 ; 2.005333398671554E8 ; 8.85261363331296E7 ; 2.804242606849634E10 ; 0.0
149 ; 589062.5209228972 ; 2.0053466676778314E8 ; 8.911629939117874E7 ; 2.82429594083635E10 ; 0.0
150 ; 588016.0763912364 ; 2.0053599050762945E8 ; 8.970536191210164E7 ; 2.8443494075131283E10 ; 0.0
151 ; 587190.7987113172 ; 2.0053731103962186E8 ; 9.029337798849288E7 ; 2.8644030065638912E10 ; 0.0
152 ; 587660.1151158885 ; 2.0053862831728536E8 ; 9.088056878720419E7 ; 2.8844567376678535E10 ; 0.0
153 ; 585889.4248091718 ; 2.005399422947275E8 ; 9.146822890232009E7 ; 2.904510600499582E10 ; 0.0
154 ; 585265.6359667984 ; 2.005412529266236E8 ; 9.205411832712926E7 ; 2.9245645947290546E10 ; 0.0
155 ; 584460.3884510447 ; 2.0054256016820282E8 ; 9.263938396309605E7 ; 2.944618720021717E10 ; 0.0
156 ; 583296.9060655639 ; 2.005438639752344E8 ; 9.322384435154709E7 ; 2.9646729760385372E10 ; 0.0
157 ; 581617.8371235909 ; 2.005451643040148E8 ; 9.380714125761266E7 ; 2.9847273624360607E10 ; 0.0
158 ; 580197.7867701916 ; 2.00546461111355E8 ; 9.438875909473625E7 ; 3.0047818788664623E10 ; 0.0
159 ; 580158.9949909416 ; 2.0054775435456833E8 ; 9.496895688150644E7 ; 3.0248365249775978E10 ; 0.0
160 ; 577749.3164304072 ; 2.0054904399145868E8 ; 9.554911587649739E7 ; 3.0448913004130547E10 ; 0.0
161 ; 576741.3789182963 ; 2.005503299803094E8 ; 9.61268651929278E7 ; 3.0649462048122005E10 ; 0.0
162 ; 576686.7432487304 ; 2.005516122798721E8 ; 9.670360657184608E7 ; 3.0850012378102314E10 ; 0.0
163 ; 577385.6146491755 ; 2.005528908493563E8 ; 9.728029331509481E7 ; 3.1050563990382187E10 ; 0.0
164 ; 574964.7860756977 ; 2.005541656484193E8 ; 9.785767892974399E7 ; 3.1251116881231544E10 ; 0.0
165 ; 574055.4071626054 ; 2.0055543663715622E8 ; 9.843264371581969E7 ; 3.1451671046879963E10 ; 0.0
166 ; 573069.5882876101 ; 2.005567037760907E8 ; 9.90066991229823E7 ; 3.165222648351712E10 ; 0.0
167 ; 569902.7495028196 ; 2.005579670261657E8 ; 9.95797687112699E7 ; 3.1852783187293213E10 ; 0.0
168 ; 571190.45230288 ; 2.0055922634873453E8 ; 1.0014967146077272E8 ; 3.2053341154319378E10 ; 0.0
169 ; 570383.00108535 ; 2.0056048170555264E8 ; 1.007208619130756E8 ; 3.2253900380668114E10 ; 0.0
170 ; 569181.0945729928 ; 2.0056173305876914E8 ; 1.0129124491416095E8 ; 3.2454460862373665E10 ; 0.0
171 ; 566503.5111425862 ; 2.0056298037091902E8 ; 1.0186042600873394E8 ; 3.2655022595432434E10 ; 0.0
172 ; 566917.7192218887 ; 2.0056422360491538E8 ; 1.0242692951987652E8 ; 3.2855585575803352E10 ; 0.0
173 ; 565342.5718061113 ; 2.0056546272404206E8 ; 1.0299384723909841E8 ; 3.3056149799408268E10 ; 0.0
174 ; 564907.3100939315 ; 2.0056669769194648E8 ; 1.0355918981090453E8 ; 3.325671526213231E10 ; 0.0
175 ; 564908.5195260792 ; 2.005679284726328E8 ; 1.0412409712099846E8 ; 3.3457281959824257E10 ; 0.0
176 ; 563797.8776995346 ; 2.005691550304551E8 ; 1.0468900564052454E8 ; 3.365784988829689E10 ; 0.0
177 ; 563254.2919087334 ; 2.005703773301111E8 ; 1.0525280351822408E8 ; 3.3858419043327347E10 ; 0.0
178 ; 561889.6518915022 ; 2.0057159533663568E8 ; 1.058160578101328E8 ; 3.405898942065746E10 ; 0.0
179 ; 561674.2785469034 ; 2.0057280901539513E8 ; 1.063779474620243E8 ; 3.4259561015994095E10 ; 0.0
180 ; 560651.5386820089 ; 2.005740183320812E8 ; 1.069396217405712E8 ; 3.446013382500949E10 ; 0.0
181 ; 560146.0295580484 ; 2.005752232527054E8 ; 1.0750027327925321E8 ; 3.4660707843341576E10 ; 0.0
182 ; 558353.7723776341 ; 2.0057642374359363E8 ; 1.0806041930881126E8 ; 3.4861283066594284E10 ; 0.0
183 ; 559135.2863577278 ; 2.00577619771381E8 ; 1.086187730811889E8 ; 3.5061859490337875E10 ; 0.0
184 ; 557630.2907897694 ; 2.0057881130300653E8 ; 1.0917790836754663E8 ; 3.526243711010925E10 ; 0.0
185 ; 557375.6792086601 ; 2.0057999830570847E8 ; 1.097355386583364E8 ; 3.546301592141226E10 ; 0.0
186 ; 555780.8738678005 ; 2.0058118074701935E8 ; 1.1029291433754507E8 ; 3.566359591971797E10 ; 0.0
187 ; 555511.7154723326 ; 2.0058235859476146E8 ; 1.1084869521141286E8 ; 3.586417710046499E10 ; 0.0
188 ; 555069.707240946 ; 2.005835318170424E8 ; 1.1140420692688519E8 ; 3.606475945905975E10 ; 0.0
189 ; 554544.7658237587 ; 2.0058470038225082E8 ; 1.1195927663412613E8 ; 3.626534299087679E10 ; 0.0
190 ; 553450.0879903241 ; 2.0058586425905216E8 ; 1.1251382139994988E8 ; 3.646592769125904E10 ; 0.0
191 ; 553324.4313638442 ; 2.0058702341638464E8 ; 1.130672714879402E8 ; 3.666651355551809E10 ; 0.0
192 ; 552615.7828356267 ; 2.0058817782345542E8 ; 1.1362059591930406E8 ; 3.686710057893447E10 ; 0.0
193 ; 550964.6775464657 ; 2.005893274497368E8 ; 1.1417321170213969E8 ; 3.706768875675793E10 ; 0.0
194 ; 552969.1934966617 ; 2.005904722649626E8 ; 1.1472417637968616E8 ; 3.7268278084207664E10 ; 0.0
195 ; 550750.9348923606 ; 2.0059161223912457E8 ; 1.1527714557318282E8 ; 3.7468868556472626E10 ; 0.0
196 ; 549516.8405652356 ; 2.00592747342469E8 ; 1.1582789650807518E8 ; 3.7669460168711754E10 ; 0.0
197 ; 548716.2272456574 ; 2.0059387754549342E8 ; 1.1637741334864041E8 ; 3.787005291605422E10 ; 0.0
198 ; 546749.3496237333 ; 2.0059500281894338E8 ; 1.1692612957588607E8 ; 3.807064679359972E10 ; 0.0
199 ; 546712.2783643513 ; 2.0059612313380948E8 ; 1.1747287892550981E8 ; 3.827124179641866E10 ; 0.0
200 ; 546026.4778758833 ; 2.005972384613241E8 ; 1.1801959120387416E8 ; 3.8471837919552475E10 ; 0.0
201 ; 545111.2030403134 ; 2.005983487729588E8 ; 1.1856561768175004E8 ; 3.86724351580138E10 ; 0.0
