CSV File for the City 6 on Day 78
1 - Minute m 
2 - Power Consumed at minute m 
3 - Power Produced at minute m 
4 - Energy Consumed since the beginning of the day 
5 - Energy Produced since the beginning of the day 
6 - Energy Lost since the beginning of the day on lines starting from the city
 
0 ; 1.1159405906786487E7 ; 1.060235733831465E8 ; 0.0 ; 0.0 ; 0.0
1 ; 1.1166825869388094E7 ; 1.061744159637568E8 ; 1.1159405906786487E7 ; 1.060235733831465E8 ; 0.0
2 ; 1.1177577037765147E7 ; 1.0663425396599224E8 ; 2.2326231776174583E7 ; 2.121979893469033E8 ; 0.0
3 ; 1.1191488208718007E7 ; 1.0740309151422864E8 ; 3.3503808813939728E7 ; 3.1883224331289554E8 ; 0.0
4 ; 1.1210030603419505E7 ; 1.0848093231077898E8 ; 4.469529702265774E7 ; 4.262353348271242E8 ; 0.0
5 ; 1.122724167035941E7 ; 1.0986777961331838E8 ; 5.590532762607724E7 ; 5.3471626713790315E8 ; 0.0
6 ; 1.1255973148685837E7 ; 1.1156363621459934E8 ; 6.713256929643665E7 ; 6.445840467512215E8 ; 0.0
7 ; 1.129040021998324E7 ; 1.1356850442474598E8 ; 7.83885424451225E7 ; 7.561476829658209E8 ; 0.0
8 ; 1.1342783370942077E7 ; 1.1588238605638707E8 ; 8.967894266510573E7 ; 8.697161873905668E8 ; 0.0
9 ; 1.142428742408734E7 ; 1.1850528241285008E8 ; 1.010217260360478E8 ; 9.855985734469539E8 ; 0.0
10 ; 1.1550042072332768E7 ; 1.2143719427959532E8 ; 1.1244601346013515E8 ; 1.104103855859804E9 ; 0.0
11 ; 1.1744278830920804E7 ; 1.2467812191902295E8 ; 1.2399605553246792E8 ; 1.2255410501393993E9 ; 0.0
12 ; 1.2064562021385254E7 ; 1.2822806506873277E8 ; 1.3574033436338872E8 ; 1.3502191720584223E9 ; 0.0
13 ; 1.2371442968381127E7 ; 1.3208702294326448E8 ; 1.4780489638477397E8 ; 1.478447237127155E9 ; 0.0
14 ; 1.2402009402894337E7 ; 1.362549942392907E8 ; 1.601763393531551E8 ; 1.6105342600704195E9 ; 0.0
15 ; 1.2418735844383724E7 ; 1.4073197714418256E8 ; 1.7257834875604945E8 ; 1.7467892543097103E9 ; 0.0
16 ; 1.2434098386080131E7 ; 1.4551796934781602E8 ; 1.8499708460043317E8 ; 1.8875212314538927E9 ; 0.0
17 ; 1.2445624584441783E7 ; 1.5061296805743852E8 ; 1.9743118298651332E8 ; 2.0330392008017087E9 ; 0.0
18 ; 1.2457916054734373E7 ; 1.5601697001537496E8 ; 2.098768075709551E8 ; 2.183652168859147E9 ; 0.0
19 ; 1.247588177290274E7 ; 1.6172997151931235E8 ; 2.2233472362568948E8 ; 2.339669138874522E9 ; 0.0
20 ; 1.2487939571384577E7 ; 1.6775196844487485E8 ; 2.348106053985922E8 ; 2.5013991103938346E9 ; 0.0
21 ; 1.25029716941622E7 ; 1.7408295627017644E8 ; 2.4729854496997678E8 ; 2.6691510788387094E9 ; 0.0
22 ; 1.2516609240308799E7 ; 1.8072293010202318E8 ; 2.5980151666413897E8 ; 2.843234035108886E9 ; 0.0
23 ; 1.2530404264399676E7 ; 1.876718847034294E8 ; 2.723181259044478E8 ; 3.023956965210909E9 ; 0.0
24 ; 1.2551070983263638E7 ; 1.9492981452211088E8 ; 2.8484853016884744E8 ; 3.211628849914338E9 ; 0.0
25 ; 1.2560538213343728E7 ; 2.0118475461780754E8 ; 2.9739960115211105E8 ; 3.406558664436449E9 ; 0.0
26 ; 1.2576565424245983E7 ; 2.0119024672864497E8 ; 3.099601393654548E8 ; 3.6077434190542564E9 ; 0.0
27 ; 1.259137640170427E7 ; 2.011960538255283E8 ; 3.2253670478970075E8 ; 3.8089336657829013E9 ; 0.0
28 ; 1.26040417873257E7 ; 2.0120216938814914E8 ; 3.35128081191405E8 ; 4.0101297196084294E9 ; 0.0
29 ; 1.2616807165530035E7 ; 2.012085867269536E8 ; 3.477321229787307E8 ; 4.2113318889965787E9 ; 0.0
30 ; 1.2630194543316947E7 ; 2.012152990111251E8 ; 3.603489301442607E8 ; 4.412540475723533E9 ; 0.0
31 ; 1.2644981332236687E7 ; 2.0122229929562756E8 ; 3.7297912468757766E8 ; 4.613755774734657E9 ; 0.0
32 ; 1.2656055331539346E7 ; 2.0122958054713973E8 ; 3.856241060198144E8 ; 4.814978074030285E9 ; 0.0
33 ; 1.2666870335941534E7 ; 2.0123713566873956E8 ; 3.982801613513537E8 ; 5.016207654577425E9 ; 0.0
34 ; 1.2680871640507562E7 ; 2.0124495752322876E8 ; 4.1094703168729526E8 ; 5.217444790246164E9 ; 0.0
35 ; 1.2696376811792785E7 ; 2.0125303895501322E8 ; 4.2362790332780284E8 ; 5.418689747769393E9 ; 0.0
36 ; 1.270558166117833E7 ; 2.012613728104818E8 ; 4.363242801395956E8 ; 5.619942786724406E9 ; 0.0
37 ; 1.2716339541367242E7 ; 2.0126995195685035E8 ; 4.49029861800774E8 ; 5.821204159534888E9 ; 0.0
38 ; 1.2730806549684802E7 ; 2.0127876929945865E8 ; 4.617462013421412E8 ; 6.022474111491738E9 ; 0.0
39 ; 1.2740185448941335E7 ; 2.012878177975271E8 ; 4.7447700789182603E8 ; 6.223752880791197E9 ; 0.0
40 ; 1.2746570566100795E7 ; 2.012970904783976E8 ; 4.872171933407674E8 ; 6.425040698588724E9 ; 0.0
41 ; 1.2757387037925113E7 ; 2.0130658045029613E8 ; 4.9996376390686816E8 ; 6.6263377890671215E9 ; 0.0
42 ; 1.276779251565783E7 ; 2.0131628091366693E8 ; 5.127211509447933E8 ; 6.827644369517418E9 ; 0.0
43 ; 1.2772874662294593E7 ; 2.013261851711378E8 ; 5.254889434604511E8 ; 7.028960650431085E9 ; 0.0
44 ; 1.2783511026051577E7 ; 2.0133628663618308E8 ; 5.382618181227458E8 ; 7.230286835602222E9 ; 0.0
45 ; 1.2788850025525264E7 ; 2.0134657884055644E8 ; 5.510453291487973E8 ; 7.431623122238405E9 ; 0.0
46 ; 1.2794926186765306E7 ; 2.0135705544056964E8 ; 5.638341791743225E8 ; 7.632969701078961E9 ; 0.0
47 ; 1.2800667408187581E7 ; 2.0136771022229525E8 ; 5.766291053610878E8 ; 7.834326756519531E9 ; 0.0
48 ; 1.28065652697694E7 ; 2.0137853710577202E8 ; 5.894297727692754E8 ; 8.035694466741826E9 ; 0.0
49 ; 1.2814381170615323E7 ; 2.0138953014829212E8 ; 6.022363380390449E8 ; 8.237073003847598E9 ; 0.0
50 ; 1.2816771792544737E7 ; 2.01400683546847E8 ; 6.150507192096602E8 ; 8.438462533995891E9 ; 0.0
51 ; 1.2820657225745242E7 ; 2.0141199163980764E8 ; 6.278674910022049E8 ; 8.639863217542738E9 ; 0.0
52 ; 1.2824687927018827E7 ; 2.0142344890791184E8 ; 6.406881482279501E8 ; 8.841275209182545E9 ; 0.0
53 ; 1.282721454152802E7 ; 2.0143504997462764E8 ; 6.53512836154969E8 ; 9.042698658090456E9 ; 0.0
54 ; 1.283179139000935E7 ; 2.0144678960595942E8 ; 6.66340050696497E8 ; 9.244133708065084E9 ; 0.0
55 ; 1.2835359263872322E7 ; 2.014586627097584E8 ; 6.791718420865064E8 ; 9.445580497671043E9 ; 0.0
56 ; 1.2836558983428787E7 ; 2.014706643345965E8 ; 6.920072013503786E8 ; 9.647039160380802E9 ; 0.0
57 ; 1.283862429143123E7 ; 2.0148278966825715E8 ; 7.048437603338075E8 ; 9.848509824715399E9 ; 0.0
58 ; 1.2842738645875916E7 ; 2.0149503403589392E8 ; 7.176823846252387E8 ; 1.0049992614383656E10 ; 0.0
59 ; 1.2847247958018774E7 ; 2.0150739289790335E8 ; 7.305251232711146E8 ; 1.025148764841955E10 ; 0.0
60 ; 1.2850790269874403E7 ; 2.0151986184755442E8 ; 7.433723712291334E8 ; 1.0452995041317453E10 ; 0.0
61 ; 1.2849737396805897E7 ; 2.015324366084136E8 ; 7.562231614990078E8 ; 1.0654514903165009E10 ; 0.0
62 ; 1.2856102190510496E7 ; 2.0154511303160116E8 ; 7.690728988958137E8 ; 1.0856047339773422E10 ; 0.0
63 ; 1.2857915518165234E7 ; 2.0155788709291002E8 ; 7.819290010863242E8 ; 1.1057592452805023E10 ; 0.0
64 ; 1.2858896718234861E7 ; 2.0157075488981703E8 ; 7.947869166044894E8 ; 1.1259150339897934E10 ; 0.0
65 ; 1.2862443251680523E7 ; 2.0158371263841137E8 ; 8.076458133227243E8 ; 1.146072109478775E10 ; 0.0
66 ; 1.2865293516884571E7 ; 2.0159675667026424E8 ; 8.205082565744048E8 ; 1.166230480742616E10 ; 0.0
67 ; 1.2869197074889101E7 ; 2.016098834292596E8 ; 8.333735500912894E8 ; 1.1863901564096424E10 ; 0.0
68 ; 1.28701682210223E7 ; 2.0162308946840426E8 ; 8.462427471661785E8 ; 1.2065511447525684E10 ; 0.0
69 ; 1.2870874076390695E7 ; 2.016363714466337E8 ; 8.591129153872007E8 ; 1.226713453699409E10 ; 0.0
70 ; 1.2870084634202993E7 ; 2.016497261256269E8 ; 8.719837894635915E8 ; 1.2468770908440723E10 ; 0.0
71 ; 1.2874478943979979E7 ; 2.016631503666429E8 ; 8.848538740977944E8 ; 1.267042063456635E10 ; 0.0
72 ; 1.287512489679934E7 ; 2.016766411273892E8 ; 8.977283530417744E8 ; 1.2872083784932993E10 ; 0.0
73 ; 1.2878117100720847E7 ; 2.0169019545893097E8 ; 9.106034779385737E8 ; 1.3073760426060383E10 ; 0.0
74 ; 1.2881682750666836E7 ; 2.0170381050264898E8 ; 9.234815950392946E8 ; 1.3275450621519314E10 ; 0.0
75 ; 1.2875818436397519E7 ; 2.0171748348725232E8 ; 9.363632777899615E8 ; 1.3477154432021963E10 ; 0.0
76 ; 1.2880003108379722E7 ; 2.0173121172585124E8 ; 9.49239096226359E8 ; 1.3678871915509216E10 ; 0.0
77 ; 1.288198462564601E7 ; 2.017449926130947E8 ; 9.621190993347387E8 ; 1.3880603127235067E10 ; 0.0
78 ; 1.2881124702049263E7 ; 2.0175882362237564E8 ; 9.750010839603847E8 ; 1.4082348119848162E10 ; 0.0
79 ; 1.2874481544757692E7 ; 2.0177270230310714E8 ; 9.87882208662434E8 ; 1.4284106943470537E10 ; 0.0
80 ; 1.2865507195969947E7 ; 2.017866262780711E8 ; 1.0007566902071917E9 ; 1.4485879645773643E10 ; 0.0
81 ; 1.2867737579451269E7 ; 2.0180059324084082E8 ; 1.0136221974031616E9 ; 1.4687666272051714E10 ; 0.0
82 ; 1.2863855059606815E7 ; 2.018146009532788E8 ; 1.026489934982613E9 ; 1.4889466865292555E10 ; 0.0
83 ; 1.2861466694330636E7 ; 2.0182864724310946E8 ; 1.0393537900422198E9 ; 1.5091281466245834E10 ; 0.0
84 ; 1.2856006182567859E7 ; 2.018427300015676E8 ; 1.0522152567365505E9 ; 1.5293110113488943E10 ; 0.0
85 ; 1.2854381235933475E7 ; 2.018568471811216E8 ; 1.0650712629191183E9 ; 1.549495284349051E10 ; 0.0
86 ; 1.2848429474790737E7 ; 2.0187099679327092E8 ; 1.0779256441550517E9 ; 1.5696809690671633E10 ; 0.0
87 ; 1.2847312245731883E7 ; 2.0188517690641755E8 ; 1.0907740736298425E9 ; 1.5898680687464903E10 ; 0.0
88 ; 1.2840577909321133E7 ; 2.0189938564380932E8 ; 1.1036213858755744E9 ; 1.610056586437132E10 ; 0.0
89 ; 1.2838820971472373E7 ; 2.0191362118155465E8 ; 1.1164619637848954E9 ; 1.630246525001513E10 ; 0.0
90 ; 1.2835010847235255E7 ; 2.019278817467071E8 ; 1.1293007847563677E9 ; 1.6504378871196684E10 ; 0.0
91 ; 1.282727260386706E7 ; 2.01942165615418E8 ; 1.142135795603603E9 ; 1.6706306752943392E10 ; 0.0
92 ; 1.2822188168275878E7 ; 2.0195647111115563E8 ; 1.15496306820747E9 ; 1.690824891855881E10 ; 0.0
93 ; 1.2820778303646589E7 ; 2.0197079660298944E8 ; 1.1677852563757458E9 ; 1.7110205389669966E10 ; 0.0
94 ; 1.2816576338708803E7 ; 2.019851405039372E8 ; 1.1806060346793923E9 ; 1.7312176186272957E10 ; 0.0
95 ; 1.2810884605380611E7 ; 2.0199950126937374E8 ; 1.1934226110181012E9 ; 1.7514161326776894E10 ; 0.0
96 ; 1.2804714411752796E7 ; 2.0201387739549887E8 ; 1.2062334956234818E9 ; 1.771616082804627E10 ; 0.0
97 ; 1.2800870974855589E7 ; 2.0202826741786328E8 ; 1.2190382100352345E9 ; 1.791817470544177E10 ; 0.0
98 ; 1.2796943095584271E7 ; 2.020426699099502E8 ; 1.23183908101009E9 ; 1.812020297285963E10 ; 0.0
99 ; 1.2790025326730309E7 ; 2.0205708348181087E8 ; 1.2446360241056743E9 ; 1.832224564276958E10 ; 0.0
100 ; 1.2783981537683317E7 ; 2.0207150677875257E8 ; 1.2574260494324045E9 ; 1.8524302726251392E10 ; 0.0
101 ; 1.2778372524081413E7 ; 2.020859384800768E8 ; 1.2702100309700878E9 ; 1.8726374233030144E10 ; 0.0
102 ; 1.2771295794841718E7 ; 2.021003772978662E8 ; 1.2829884034941692E9 ; 1.892846017151022E10 ; 0.0
103 ; 1.2765324594364611E7 ; 2.0211482197581834E8 ; 1.295759699289011E9 ; 1.9130560548808086E10 ; 0.0
104 ; 1.2759065078703409E7 ; 2.0212927128812483E8 ; 1.3085250238833756E9 ; 1.9332675370783905E10 ; 0.0
105 ; 1.2757257621352734E7 ; 2.021437240383938E8 ; 1.321284088962079E9 ; 1.953480464207203E10 ; 0.0
106 ; 1.274695363473603E7 ; 2.0215817905861452E8 ; 1.3340413465834317E9 ; 1.9736948366110424E10 ; 0.0
107 ; 1.2744097971782329E7 ; 2.0217263520816225E8 ; 1.3467883002181678E9 ; 1.9939106545169037E10 ; 0.0
108 ; 1.2737409423840236E7 ; 2.0218709137284192E8 ; 1.3595323981899502E9 ; 2.0141279180377197E10 ; 0.0
109 ; 1.2733906861004E7 ; 2.0220154646396923E8 ; 1.3722698076137905E9 ; 2.034346627175004E10 ; 0.0
110 ; 1.272656488546066E7 ; 2.022159994174875E8 ; 1.3850037144747946E9 ; 2.054566781821401E10 ; 0.0
111 ; 1.2718157876749694E7 ; 2.0223044919311917E8 ; 1.3977302793602552E9 ; 2.0747883817631496E10 ; 0.0
112 ; 1.2710962771472903E7 ; 2.0224489477355036E8 ; 1.410448437237005E9 ; 2.0950114266824615E10 ; 0.0
113 ; 1.27016052831274E7 ; 2.022593351636472E8 ; 1.423159400008478E9 ; 2.1152359161598167E10 ; 0.0
114 ; 1.2699039007378934E7 ; 2.0227376938970295E8 ; 1.4358610052916052E9 ; 2.1354618496761814E10 ; 0.0
115 ; 1.2689741005631056E7 ; 2.022881964987142E8 ; 1.448560044298984E9 ; 2.1556892266151516E10 ; 0.0
116 ; 1.2680077483740723E7 ; 2.0230261555768552E8 ; 1.461249785304615E9 ; 2.175918046265023E10 ; 0.0
117 ; 1.2673136625560403E7 ; 2.0231702565296102E8 ; 1.4739298627883558E9 ; 2.1961483078207916E10 ; 0.0
118 ; 1.2666758646962589E7 ; 2.0233142588958183E8 ; 1.486602999413916E9 ; 2.2163800103860878E10 ; 0.0
119 ; 1.2660670429062938E7 ; 2.0234581539066872E8 ; 1.4992697580608788E9 ; 2.236613152975046E10 ; 0.0
120 ; 1.2648975395558875E7 ; 2.0236019329682842E8 ; 1.5119304284899416E9 ; 2.256847734514113E10 ; 0.0
121 ; 1.2642070195014613E7 ; 2.0237455876558295E8 ; 1.5245794038855004E9 ; 2.2770837538437958E10 ; 0.0
122 ; 1.2634124530805223E7 ; 2.0238891097082117E8 ; 1.5372214740805151E9 ; 2.297321209720354E10 ; 0.0
123 ; 1.2628974563604891E7 ; 2.0240324910227105E8 ; 1.5498555986113203E9 ; 2.3175601008174362E10 ; 0.0
124 ; 1.262156241277402E7 ; 2.024175723649927E8 ; 1.562484573174925E9 ; 2.3378004257276634E10 ; 0.0
125 ; 1.261283129127411E7 ; 2.0243187997889045E8 ; 1.5751061355876992E9 ; 2.358042182964163E10 ; 0.0
126 ; 1.2601812387928044E7 ; 2.024461711782438E8 ; 1.5877189668789732E9 ; 2.3782853709620518E10 ; 0.0
127 ; 1.2592884719929885E7 ; 2.0246044521125618E8 ; 1.6003207792669013E9 ; 2.3985299880798763E10 ; 0.0
128 ; 1.2584694431785678E7 ; 2.0247470133962107E8 ; 1.6129136639868312E9 ; 2.418776032601002E10 ; 0.0
129 ; 1.2576584317228936E7 ; 2.024889388381044E8 ; 1.6254983584186168E9 ; 2.4390235027349644E10 ; 0.0
130 ; 1.2565709412373757E7 ; 2.025031569941427E8 ; 1.6380749427358458E9 ; 2.4592723966187748E10 ; 0.0
131 ; 1.2552107653534772E7 ; 2.0251735510745683E8 ; 1.6506406521482196E9 ; 2.4795227123181892E10 ; 0.0
132 ; 1.2539389492841927E7 ; 2.0253153248967984E8 ; 1.6631927598017545E9 ; 2.499774447828935E10 ; 0.0
133 ; 1.2526888065138325E7 ; 2.0254568846399888E8 ; 1.6757321492945964E9 ; 2.520027601077903E10 ; 0.0
134 ; 1.2514963560191663E7 ; 2.0255982236481088E8 ; 1.6882590373597348E9 ; 2.540282169924303E10 ; 0.0
135 ; 1.2504293212154945E7 ; 2.025739335373906E8 ; 1.7007740009199264E9 ; 2.560538152160784E10 ; 0.0
136 ; 1.2485369444293043E7 ; 2.0258802133757135E8 ; 1.7132782941320813E9 ; 2.5807955455145233E10 ; 0.0
137 ; 1.247272603879208E7 ; 2.0260208513143745E8 ; 1.7257636635763743E9 ; 2.6010543476482803E10 ; 0.0
138 ; 1.245892816432551E7 ; 2.0261612429502824E8 ; 1.7382363896151664E9 ; 2.6213145561614243E10 ; 0.0
139 ; 1.2444918493784456E7 ; 2.026301382140527E8 ; 1.750695317779492E9 ; 2.641576168590927E10 ; 0.0
140 ; 1.243160466132612E7 ; 2.0264412628361484E8 ; 1.7631402362732763E9 ; 2.6618391824123325E10 ; 0.0
141 ; 1.2417739197572315E7 ; 2.0265808790794915E8 ; 1.7755718409346025E9 ; 2.682103595040694E10 ; 0.0
142 ; 1.2405475949813407E7 ; 2.0267202250016546E8 ; 1.7879895801321747E9 ; 2.7023694038314888E10 ; 0.0
143 ; 1.2389305911514506E7 ; 2.0268592948200354E8 ; 1.800395056081988E9 ; 2.7226366060815052E10 ; 0.0
144 ; 1.2373763538220476E7 ; 2.0269980828359616E8 ; 1.8127843619935026E9 ; 2.7429051990297054E10 ; 0.0
145 ; 1.2366329553265262E7 ; 2.02713658343241E8 ; 1.825158125531723E9 ; 2.763175179858065E10 ; 0.0
146 ; 1.2355502098500779E7 ; 2.0272747910718077E8 ; 1.8375244550849884E9 ; 2.7834465456923893E10 ; 0.0
147 ; 1.2346037806165205E7 ; 2.0274127002939126E8 ; 1.849879957183489E9 ; 2.8037192936031075E10 ; 0.0
148 ; 1.2337462048268856E7 ; 2.0275503057137674E8 ; 1.8622259949896543E9 ; 2.8239934206060467E10 ; 0.0
149 ; 1.2325839196446912E7 ; 2.027687602019731E8 ; 1.874563457037923E9 ; 2.8442689236631844E10 ; 0.0
150 ; 1.2316868660850886E7 ; 2.0278245839715767E8 ; 1.88688929623437E9 ; 2.8645457996833817E10 ; 0.0
151 ; 1.2306119830296203E7 ; 2.0279612463986593E8 ; 1.899206164895221E9 ; 2.8848240455230972E10 ; 0.0
152 ; 1.2298623119615728E7 ; 2.0280975841981468E8 ; 1.9115122847255173E9 ; 2.905103657987084E10 ; 0.0
153 ; 1.2287299285562828E7 ; 2.0282335923333156E8 ; 1.923810907845133E9 ; 2.9253846338290653E10 ; 0.0
154 ; 1.2277413520476965E7 ; 2.0283692658319032E8 ; 1.9360982071306958E9 ; 2.9456669697523983E10 ; 0.0
155 ; 1.2271311133245533E7 ; 2.0285045997845215E8 ; 1.9483756206511729E9 ; 2.9659506624107174E10 ; 0.0
156 ; 1.2256093718728969E7 ; 2.0286395893431237E8 ; 1.9606469317844183E9 ; 2.9862357084085625E10 ; 0.0
157 ; 1.2245216561088054E7 ; 2.0287742297195262E8 ; 1.9729030255031474E9 ; 3.0065221043019936E10 ; 0.0
158 ; 1.2237307598640729E7 ; 2.0289085161839795E8 ; 1.9851482420642354E9 ; 3.026809846599189E10 ; 0.0
159 ; 1.222637937741235E7 ; 2.029042444063791E8 ; 1.9973855496628761E9 ; 3.0470989317610287E10 ; 0.0
160 ; 1.2215343487365946E7 ; 2.029176008741994E8 ; 2.0096119290402884E9 ; 3.0673893562016666E10 ; 0.0
161 ; 1.2208530279440772E7 ; 2.0293092056560633E8 ; 2.0218272725276544E9 ; 3.0876811162890865E10 ; 0.0
162 ; 1.2196950750793098E7 ; 2.0294420302966744E8 ; 2.0340358028070953E9 ; 3.107974208345647E10 ; 0.0
163 ; 1.2184806374104224E7 ; 2.0295744782065046E8 ; 2.0462327535578883E9 ; 3.1282686286486137E10 ; 0.0
164 ; 1.2175049718343994E7 ; 2.029706544979076E8 ; 2.0584175599319925E9 ; 3.148564373430679E10 ; 0.0
165 ; 1.2164523880887007E7 ; 2.0298382262576386E8 ; 2.0705926096503365E9 ; 3.1688614388804695E10 ; 0.0
166 ; 1.2153797889472436E7 ; 2.0299695177340877E8 ; 2.0827571335312235E9 ; 3.1891598211430458E10 ; 0.0
167 ; 1.2142548546456628E7 ; 2.030100415147922E8 ; 2.094910931420696E9 ; 3.2094595163203865E10 ; 0.0
168 ; 1.2135053403901696E7 ; 2.0302309142852354E8 ; 2.1070534799671526E9 ; 3.229760520471866E10 ; 0.0
169 ; 1.2125407062539339E7 ; 2.0303610109777412E8 ; 2.1191885333710542E9 ; 3.2500628296147182E10 ; 0.0
170 ; 1.211250432498633E7 ; 2.030490701101831E8 ; 2.1313139404335935E9 ; 3.2703664397244957E10 ; 0.0
171 ; 1.210049317970163E7 ; 2.030619980577663E8 ; 2.1434264447585797E9 ; 3.290671346735514E10 ; 0.0
172 ; 1.2089870816351892E7 ; 2.0307488453682843E8 ; 2.1555269379382815E9 ; 3.3109775465412907E10 ; 0.0
173 ; 1.2081646767442156E7 ; 2.0308772914787775E8 ; 2.1676168087546334E9 ; 3.3312850349949734E10 ; 0.0
174 ; 1.2076461568726357E7 ; 2.0310053149554393E8 ; 2.1796984555220757E9 ; 3.351593807909761E10 ; 0.0
175 ; 1.2067555374412721E7 ; 2.0311329118849844E8 ; 2.191774917090802E9 ; 3.3719038610593155E10 ; 0.0
176 ; 1.206276954080219E7 ; 2.0312600783937767E8 ; 2.2038424724652147E9 ; 3.3922151901781654E10 ; 0.0
177 ; 1.2053414332350042E7 ; 2.0313868106470844E8 ; 2.2159052420060167E9 ; 3.4125277909621033E10 ; 0.0
178 ; 1.2044618822625935E7 ; 2.031513104848361E8 ; 2.227958656338367E9 ; 3.432841659068574E10 ; 0.0
179 ; 1.2040101427542085E7 ; 2.0316389572385496E8 ; 2.240003275160993E9 ; 3.453156790117058E10 ; 0.0
180 ; 1.2034836595089804E7 ; 2.0317643640954077E8 ; 2.2520433765885353E9 ; 3.473473179689443E10 ; 0.0
181 ; 1.2025773335107522E7 ; 2.0318893217328575E8 ; 2.264078213183625E9 ; 3.493790823330397E10 ; 0.0
182 ; 1.2021338654405126E7 ; 2.0320138265003538E8 ; 2.2761039865187325E9 ; 3.514109716547726E10 ; 0.0
183 ; 1.201071012245634E7 ; 2.032137874782276E8 ; 2.2881253251731377E9 ; 3.534429854812729E10 ; 0.0
184 ; 1.2004397511243323E7 ; 2.0322614629973355E8 ; 2.300136035295594E9 ; 3.5547512335605515E10 ; 0.0
185 ; 1.1998364724034956E7 ; 2.0323845875980055E8 ; 2.3121404328068376E9 ; 3.575073848190525E10 ; 0.0
186 ; 1.1993609575583806E7 ; 2.0325072450699684E8 ; 2.3241387975308723E9 ; 3.5953976940665054E10 ; 0.0
187 ; 1.1987901463263119E7 ; 2.0326294319315797E8 ; 2.3361324071064563E9 ; 3.615722766517205E10 ; 0.0
188 ; 1.19818753119333E7 ; 2.03275114473335E8 ; 2.3481203085697193E9 ; 3.636049060836521E10 ; 0.0
189 ; 1.1974875766787069E7 ; 2.0328723800574437E8 ; 2.360102183881653E9 ; 3.656376572283855E10 ; 0.0
190 ; 1.1970167537653217E7 ; 2.0329931345171934E8 ; 2.37207705964844E9 ; 3.676705296084429E10 ; 0.0
191 ; 1.1958850997044915E7 ; 2.0331134047566286E8 ; 2.3840472271860933E9 ; 3.697035227429601E10 ; 0.0
192 ; 1.1956511688226804E7 ; 2.0332331874500218E8 ; 2.3960060781831384E9 ; 3.7173663614771675E10 ; 0.0
193 ; 1.1951828273393437E7 ; 2.0333524793014473E8 ; 2.407962589871365E9 ; 3.737698693351668E10 ; 0.0
194 ; 1.1939298659244124E7 ; 2.0334712770443532E8 ; 2.4199144181447587E9 ; 3.758032218144682E10 ; 0.0
195 ; 1.1937179663795635E7 ; 2.033589577441149E8 ; 2.431853716804003E9 ; 3.778366930915126E10 ; 0.0
