CSV File for the City 1 on Day 273
1 - Minute m 
2 - Power Consumed at minute m 
3 - Power Produced at minute m 
4 - Energy Consumed since the beginning of the day 
5 - Energy Produced since the beginning of the day 
6 - Energy Lost since the beginning of the day on lines starting from the city
 
0 ; 7841956.573490313 ; 1.0561309552610543E8 ; 0.0 ; 0.0 ; 0.0
1 ; 7852284.843347978 ; 1.0576605312003922E8 ; 7841956.573490313 ; 1.0561309552610543E8 ; 0.0
2 ; 7865671.4292364875 ; 1.0622779241648224E8 ; 1.5694241416838292E7 ; 2.1137914864614466E8 ; 0.0
3 ; 7878429.411345094 ; 1.0699831465371305E8 ; 2.355991284607478E7 ; 3.176069410626269E8 ; 0.0
4 ; 7892270.266081736 ; 1.0807762093844831E8 ; 3.1438342257419873E7 ; 4.2460525571633995E8 ; 0.0
5 ; 7916615.37138582 ; 1.0946571224073392E8 ; 3.933061252350161E7 ; 5.3268287665478826E8 ; 0.0
6 ; 7945231.216764117 ; 1.1116258938939556E8 ; 4.724722789488743E7 ; 6.421485888955221E8 ; 0.0
7 ; 7993900.035835636 ; 1.1316825306809986E8 ; 5.519245911165155E7 ; 7.533111782849177E8 ; 0.0
8 ; 8065893.179928279 ; 1.1548270381206828E8 ; 6.3186359147487186E7 ; 8.664794313530176E8 ; 0.0
9 ; 8179611.698950974 ; 1.1810594200548196E8 ; 7.125225232741547E7 ; 9.819621351650858E8 ; 0.0
10 ; 8354304.191768334 ; 1.2103796787960589E8 ; 7.943186402636644E7 ; 1.1000680771705678E9 ; 0.0
11 ; 8634435.261821926 ; 1.2427878151165482E8 ; 8.778616821813478E7 ; 1.2211060450501738E9 ; 0.0
12 ; 9089757.615622943 ; 1.2782838282441399E8 ; 9.64206034799567E7 ; 1.3453848265618286E9 ; 0.0
13 ; 9526099.074802281 ; 1.3168677158661836E8 ; 1.0551036109557964E8 ; 1.4732132093862426E9 ; 0.0
14 ; 9577734.101947002 ; 1.3585394741408694E8 ; 1.1503646017038192E8 ; 1.604899980972861E9 ; 0.0
15 ; 9589296.166505707 ; 1.403299097715981E8 ; 1.2461419427232891E8 ; 1.740753928386948E9 ; 0.0
16 ; 9604425.767612323 ; 1.4511465797548535E8 ; 1.3420349043883462E8 ; 1.8810838381585462E9 ; 0.0
17 ; 9622277.102793152 ; 1.5020819119692293E8 ; 1.4380791620644695E8 ; 2.0261984961340315E9 ; 0.0
18 ; 9632635.344063926 ; 1.5561050846586496E8 ; 1.534301933092401E8 ; 2.1764066873309546E9 ; 0.0
19 ; 9650692.715798464 ; 1.6132160867559478E8 ; 1.6306282865330404E8 ; 2.3320171957968197E9 ; 0.0
20 ; 9662413.13653665 ; 1.673414905878338E8 ; 1.727135213691025E8 ; 2.4933388044724145E9 ; 0.0
21 ; 9674655.298629912 ; 1.7367015283835706E8 ; 1.8237593450563917E8 ; 2.6606802950602484E9 ; 0.0
22 ; 9688495.600811416 ; 1.8030759394305652E8 ; 1.9205058980426908E8 ; 2.8343504478986053E9 ; 0.0
23 ; 9708895.886301396 ; 1.8725381230439162E8 ; 2.017390854050805E8 ; 3.014658041841662E9 ; 0.0
24 ; 9721906.625407023 ; 1.945088062181635E8 ; 2.114479812913819E8 ; 3.2019118541460533E9 ; 0.0
25 ; 9739294.186620438 ; 2.0076061477873462E8 ; 2.211698879167889E8 ; 3.396420660364217E9 ; 0.0
26 ; 9754758.46136723 ; 2.007627839231578E8 ; 2.3090918210340935E8 ; 3.5971812751429515E9 ; 0.0
27 ; 9769793.245034724 ; 2.007650809634488E8 ; 2.4066394056477657E8 ; 3.797944059066109E9 ; 0.0
28 ; 9783271.56599364 ; 2.0076750384080353E8 ; 2.504337338098113E8 ; 3.998709140029558E9 ; 0.0
29 ; 9796439.703072218 ; 2.007700504263071E8 ; 2.6021700537580493E8 ; 4.199476643870362E9 ; 0.0
30 ; 9807682.673896134 ; 2.0077271852836204E8 ; 2.7001344507887715E8 ; 4.400246694296669E9 ; 0.0
31 ; 9823970.341141863 ; 2.0077550590003073E8 ; 2.798211277527733E8 ; 4.601019412825031E9 ; 0.0
32 ; 9839772.375160778 ; 2.0077841024624747E8 ; 2.8964509809391516E8 ; 4.801794918725062E9 ; 0.0
33 ; 9855401.088761942 ; 2.0078142923085728E8 ; 2.994848704690759E8 ; 5.00257332897131E9 ; 0.0
34 ; 9861744.389315058 ; 2.0078456048344627E8 ; 3.0934027155783784E8 ; 5.203354758202167E9 ; 0.0
35 ; 9872463.962596701 ; 2.0078780160593125E8 ; 3.192020159471529E8 ; 5.404139318685613E9 ; 0.0
36 ; 9885979.08518655 ; 2.007911501788819E8 ; 3.290744799097496E8 ; 5.604927120291544E9 ; 0.0
37 ; 9891612.150785593 ; 2.0079460376755363E8 ; 3.3896045899493617E8 ; 5.805718270470426E9 ; 0.0
38 ; 9906187.808867998 ; 2.0079815992761287E8 ; 3.4885207114572173E8 ; 6.006512874237979E9 ; 0.0
39 ; 9916292.207819184 ; 2.0080181621054238E8 ; 3.587582589545897E8 ; 6.207311034165592E9 ; 0.0
40 ; 9921232.385872887 ; 2.0080557016871682E8 ; 3.686745511624089E8 ; 6.408112850376135E9 ; 0.0
41 ; 9933866.678000158 ; 2.0080941936014342E8 ; 3.785957835482818E8 ; 6.608918420544851E9 ; 0.0
42 ; 9939600.142266823 ; 2.008133613528657E8 ; 3.8852965022628194E8 ; 6.809727839904995E9 ; 0.0
43 ; 9942900.325507043 ; 2.0081739372903153E8 ; 3.9846925036854875E8 ; 7.01054120125786E9 ; 0.0
44 ; 9947375.717659751 ; 2.008215140886292E8 ; 4.084121506940558E8 ; 7.211358594986892E9 ; 0.0
45 ; 9953764.05359691 ; 2.0082572005289787E8 ; 4.1835952641171557E8 ; 7.4121801090755205E9 ; 0.0
46 ; 9957915.366484445 ; 2.0083000926742104E8 ; 4.283132904653125E8 ; 7.613005829128418E9 ; 0.0
47 ; 9962983.84084707 ; 2.008343794049126E8 ; 4.3827120583179694E8 ; 7.813835838395839E9 ; 0.0
48 ; 9961624.803432573 ; 2.008388281677075E8 ; 4.48234189672644E8 ; 8.014670217800752E9 ; 0.0
49 ; 9966541.056594603 ; 2.0084335328996927E8 ; 4.581958144760766E8 ; 8.215509045968459E9 ; 0.0
50 ; 9969445.62899073 ; 2.0084795253962842E8 ; 4.681623555326712E8 ; 8.416352399258429E9 ; 0.0
51 ; 9970500.245122252 ; 2.008526237200653E8 ; 4.781318011616619E8 ; 8.617200351798058E9 ; 0.0
52 ; 9968474.545070311 ; 2.008573646715525E8 ; 4.881023014067842E8 ; 8.818052975518124E9 ; 0.0
53 ; 9972926.030023597 ; 2.0086217327247134E8 ; 4.9807077595185447E8 ; 9.018910340189676E9 ; 0.0
54 ; 9972418.691612422 ; 2.0086704744031703E8 ; 5.0804370198187804E8 ; 9.219772513462147E9 ; 0.0
55 ; 9970072.814272683 ; 2.0087198513250777E8 ; 5.1801612067349046E8 ; 9.420639560902464E9 ; 0.0
56 ; 9971658.31668031 ; 2.0087698434701177E8 ; 5.2798619348776317E8 ; 9.621511546034971E9 ; 0.0
57 ; 9968985.707712598 ; 2.0088204312280664E8 ; 5.379578518044435E8 ; 9.822388530381983E9 ; 0.0
58 ; 9968814.92833008 ; 2.008871595401845E8 ; 5.479268375121561E8 ; 1.002327057350479E10 ; 0.0
59 ; 9968250.154010234 ; 2.0089233172091645E8 ; 5.578956524404862E8 ; 1.0224157733044973E10 ; 0.0
60 ; 9965479.487869166 ; 2.008975578282887E8 ; 5.678639025944964E8 ; 1.042505006476589E10 ; 0.0
61 ; 9968446.183894025 ; 2.0090283606702268E8 ; 5.778293820823655E8 ; 1.062594762259418E10 ; 0.0
62 ; 9965292.939955585 ; 2.0090816468309024E8 ; 5.877978282662596E8 ; 1.0826850458661201E10 ; 0.0
63 ; 9964069.005481048 ; 2.0091354196343535E8 ; 5.977631212062151E8 ; 1.1027758623344292E10 ; 0.0
64 ; 9962261.47144719 ; 2.0091896623561153E8 ; 6.077271902116961E8 ; 1.1228672165307728E10 ; 0.0
65 ; 9958172.292152774 ; 2.0092443586734557E8 ; 6.176894516831434E8 ; 1.1429591131543339E10 ; 0.0
66 ; 9960325.733286755 ; 2.0092994926603565E8 ; 6.276476239752961E8 ; 1.1630515567410685E10 ; 0.0
67 ; 9960908.618872033 ; 2.009355048781924E8 ; 6.376079497085829E8 ; 1.183144551667672E10 ; 0.0
68 ; 9956321.118011283 ; 2.0094110118883058E8 ; 6.475688583274549E8 ; 1.2032381021554913E10 ; 0.0
69 ; 9957579.757655008 ; 2.0094673672081834E8 ; 6.575251794454662E8 ; 1.2233322122743744E10 ; 0.0
70 ; 9954464.530064467 ; 2.009524100341907E8 ; 6.674827592031212E8 ; 1.2434268859464561E10 ; 0.0
71 ; 9950833.760640834 ; 2.00958119725433E8 ; 6.774372237331856E8 ; 1.2635221269498753E10 ; 0.0
72 ; 9945345.298308335 ; 2.0096386442673978E8 ; 6.873880574938265E8 ; 1.2836179389224186E10 ; 0.0
73 ; 9947260.767025046 ; 2.009696428052545E8 ; 6.973334027921349E8 ; 1.3037143253650927E10 ; 0.0
74 ; 9946773.587604271 ; 2.0097545356229374E8 ; 7.072806635591599E8 ; 1.323811289645618E10 ; 0.0
75 ; 9941495.454688024 ; 2.009812954325609E8 ; 7.172274371467642E8 ; 1.3439088350018475E10 ; 0.0
76 ; 9938263.909568898 ; 2.0098716718335226E8 ; 7.271689326014522E8 ; 1.3640069645451035E10 ; 0.0
77 ; 9940390.771929406 ; 2.0099306761375934E8 ; 7.371071965110211E8 ; 1.3841056812634386E10 ; 0.0
78 ; 9928066.463973932 ; 2.0099899555387014E8 ; 7.470475872829505E8 ; 1.4042049880248146E10 ; 0.0
79 ; 9919238.750023887 ; 2.010049498639718E8 ; 7.569756537469244E8 ; 1.4243048875802015E10 ; 0.0
80 ; 9908660.758000776 ; 2.010109294337574E8 ; 7.668948924969482E8 ; 1.4444053825665987E10 ; 0.0
81 ; 9898730.34090274 ; 2.010169331815388E8 ; 7.76803553254949E8 ; 1.4645064755099745E10 ; 0.0
82 ; 9889255.617125986 ; 2.0102296005346686E8 ; 7.867022835958517E8 ; 1.4846081688281284E10 ; 0.0
83 ; 9883039.326571167 ; 2.0102900902276158E8 ; 7.965915392129776E8 ; 1.5047104648334751E10 ; 0.0
84 ; 9873485.680553118 ; 2.010350790889525E8 ; 8.064745785395489E8 ; 1.5248133657357513E10 ; 0.0
85 ; 9861997.976059303 ; 2.010411692771312E8 ; 8.16348064220102E8 ; 1.5449168736446466E10 ; 0.0
86 ; 9852222.83456526 ; 2.0104727863721657E8 ; 8.262100621961613E8 ; 1.5650209905723598E10 ; 0.0
87 ; 9845035.690100357 ; 2.0105340624323398E8 ; 8.360622850307266E8 ; 1.5851257184360815E10 ; 0.0
88 ; 9836028.830882097 ; 2.0105955119260874E8 ; 8.459073207208269E8 ; 1.605231059060405E10 ; 0.0
89 ; 9825261.823371341 ; 2.0106571260547432E8 ; 8.557433495517089E8 ; 1.6253370141796658E10 ; 0.0
90 ; 9814412.762484703 ; 2.010718896239965E8 ; 8.655686113750802E8 ; 1.6454435854402132E10 ; 0.0
91 ; 9801306.036139064 ; 2.010780814117127E8 ; 8.753830241375649E8 ; 1.6655507744026129E10 ; 0.0
92 ; 9793946.273944462 ; 2.0108428715288767E8 ; 8.851843301737039E8 ; 1.6856585825437841E10 ; 0.0
93 ; 9782710.117855437 ; 2.0109050605188534E8 ; 8.949782764476484E8 ; 1.7057670112590729E10 ; 0.0
94 ; 9770317.721451754 ; 2.0109673733255664E8 ; 9.047609865655038E8 ; 1.7258760618642612E10 ; 0.0
95 ; 9760419.612424448 ; 2.0110298023764387E8 ; 9.145313042869556E8 ; 1.745985735597517E10 ; 0.0
96 ; 9748062.914442064 ; 2.0110923402820128E8 ; 9.242917238993801E8 ; 1.7660960336212814E10 ; 0.0
97 ; 9737667.027114943 ; 2.0111549798303163E8 ; 9.340397868138222E8 ; 1.7862069570241016E10 ; 0.0
98 ; 9731107.079710336 ; 2.0112177139813882E8 ; 9.437774538409371E8 ; 1.806318506822405E10 ; 0.0
99 ; 9710252.55758127 ; 2.011280535861966E8 ; 9.535085609206475E8 ; 1.826430683962219E10 ; 0.0
100 ; 9704125.31109721 ; 2.011343438760326E8 ; 9.632188134782288E8 ; 1.8465434893208385E10 ; 0.0
101 ; 9688666.287801018 ; 2.011406416121279E8 ; 9.729229387893261E8 ; 1.866656923708442E10 ; 0.0
102 ; 9677666.68774309 ; 2.011469461541319E8 ; 9.826116050771271E8 ; 1.886770987869655E10 ; 0.0
103 ; 9669260.748999892 ; 2.0115325687639174E8 ; 9.922892717648702E8 ; 1.906885682485068E10 ; 0.0
104 ; 9656648.123215524 ; 2.0115957316749668E8 ; 1.00195853251387E9 ; 1.9270010081727074E10 ; 0.0
105 ; 9643051.659911921 ; 2.0116589442983654E8 ; 1.0116151806370856E9 ; 1.947116965489457E10 ; 0.0
106 ; 9631061.70097418 ; 2.01172220079174E8 ; 1.0212582322969974E9 ; 1.9672335549324406E10 ; 0.0
107 ; 9620510.014171636 ; 2.011785495442308E8 ; 1.0308892939979717E9 ; 1.987350776940358E10 ; 0.0
108 ; 9607308.063922405 ; 2.0118488226628706E8 ; 1.0405098040121433E9 ; 2.007468631894781E10 ; 0.0
109 ; 9595449.48234238 ; 2.0119121769879353E8 ; 1.0501171120760657E9 ; 2.02758712012141E10 ; 0.0
110 ; 9581003.379038991 ; 2.0119755530699667E8 ; 1.059712561558408E9 ; 2.0477062418912895E10 ; 0.0
111 ; 9567976.140655447 ; 2.012038945675757E8 ; 1.0692935649374471E9 ; 2.067825997421989E10 ; 0.0
112 ; 9554452.449895406 ; 2.0121023496829176E8 ; 1.0788615410781026E9 ; 2.0879463868787468E10 ; 0.0
113 ; 9540831.76936263 ; 2.012165760076488E8 ; 1.088415993527998E9 ; 2.108067410375576E10 ; 0.0
114 ; 9527565.867922986 ; 2.0122291719456536E8 ; 1.0979568252973607E9 ; 2.128189067976341E10 ; 0.0
115 ; 9512268.61256653 ; 2.0122925804805765E8 ; 1.1074843911652837E9 ; 2.1483113596957973E10 ; 0.0
116 ; 9501636.31379217 ; 2.0123559809693295E8 ; 1.1169966597778502E9 ; 2.168434285500603E10 ; 0.0
117 ; 9488879.362368952 ; 2.0124193687949345E8 ; 1.1264982960916424E9 ; 2.1885578453102962E10 ; 0.0
118 ; 9471767.54908276 ; 2.012482739432499E8 ; 1.1359871754540114E9 ; 2.2086820389982456E10 ; 0.0
119 ; 9458543.892037481 ; 2.0125460884464517E8 ; 1.1454589430030942E9 ; 2.2288068663925705E10 ; 0.0
120 ; 9444444.565910878 ; 2.0126094114878666E8 ; 1.1549174868951316E9 ; 2.248932327277035E10 ; 0.0
121 ; 9429526.616768502 ; 2.0126727042918822E8 ; 1.1643619314610424E9 ; 2.269058421391914E10 ; 0.0
122 ; 9414601.269729398 ; 2.0127359626752058E8 ; 1.173791458077811E9 ; 2.2891851484348328E10 ; 0.0
123 ; 9401601.370981539 ; 2.0127991825337014E8 ; 1.1832060593475404E9 ; 2.309312508061585E10 ; 0.0
124 ; 9385068.886468453 ; 2.0128623598400626E8 ; 1.1926076607185218E9 ; 2.3294404998869217E10 ; 0.0
125 ; 9369600.991183463 ; 2.0129254906415597E8 ; 1.2019927296049902E9 ; 2.349569123485322E10 ; 0.0
126 ; 9356136.653955797 ; 2.0129885710578677E8 ; 1.2113623305961738E9 ; 2.3696983783917377E10 ; 0.0
127 ; 9339061.822436983 ; 2.013051597278965E8 ; 1.2207184672501295E9 ; 2.3898282641023163E10 ; 0.0
128 ; 9327396.860748505 ; 2.013114565563106E8 ; 1.2300575290725665E9 ; 2.409958780075106E10 ; 0.0
129 ; 9305641.685747696 ; 2.013177472234858E8 ; 1.239384925933315E9 ; 2.430089925730737E10 ; 0.0
130 ; 9290773.743537221 ; 2.0132403136832103E8 ; 1.2486905676190627E9 ; 2.4502217004530853E10 ; 0.0
131 ; 9266092.297908403 ; 2.0133030863597432E8 ; 1.2579813413625998E9 ; 2.4703541035899174E10 ; 0.0
132 ; 9247559.372826766 ; 2.0133657867768613E8 ; 1.2672474336605082E9 ; 2.490487134453515E10 ; 0.0
133 ; 9221463.173426656 ; 2.0134284115060845E8 ; 1.276494993033335E9 ; 2.5106207923212833E10 ; 0.0
134 ; 9203123.411948914 ; 2.0134909571763992E8 ; 1.2857164562067616E9 ; 2.530755076436344E10 ; 0.0
135 ; 9179657.935979338 ; 2.0135534204726636E8 ; 1.2949195796187105E9 ; 2.550889986008108E10 ; 0.0
136 ; 9160535.426957741 ; 2.013615798134067E8 ; 1.30409923755469E9 ; 2.571025520212835E10 ; 0.0
137 ; 9134604.06460453 ; 2.0136780869526416E8 ; 1.3132597729816477E9 ; 2.5911616781941757E10 ; 0.0
138 ; 9116956.354856193 ; 2.0137402837718228E8 ; 1.3223943770462523E9 ; 2.611298459063702E10 ; 0.0
139 ; 9094402.074074479 ; 2.0138023854850614E8 ; 1.3315113334011085E9 ; 2.6314358619014202E10 ; 0.0
140 ; 9068701.368107826 ; 2.0138643890344778E8 ; 1.340605735475183E9 ; 2.651573885756271E10 ; 0.0
141 ; 9046608.251259374 ; 2.0139262914095646E8 ; 1.3496744368432908E9 ; 2.6717125296466156E10 ; 0.0
142 ; 9026868.972551817 ; 2.013988089645932E8 ; 1.3587210450945501E9 ; 2.6918517925607113E10 ; 0.0
143 ; 9003758.389952002 ; 2.0140497808240935E8 ; 1.367747914067102E9 ; 2.7119916734571705E10 ; 0.0
144 ; 8977515.95001109 ; 2.014111362068294E8 ; 1.376751672457054E9 ; 2.7321321712654114E10 ; 0.0
145 ; 8958604.7564405 ; 2.0141728305453762E8 ; 1.385729188407065E9 ; 2.7522732848860943E10 ; 0.0
146 ; 8947412.405849222 ; 2.0142341834636834E8 ; 1.3946877931635053E9 ; 2.772415013191548E10 ; 0.0
147 ; 8927501.16184531 ; 2.014295418072002E8 ; 1.4036352055693545E9 ; 2.792557355026185E10 ; 0.0
148 ; 8913136.922627922 ; 2.0143565316585347E8 ; 1.4125627067311997E9 ; 2.812700309206905E10 ; 0.0
149 ; 8899083.212514244 ; 2.0144175215499106E8 ; 1.4214758436538277E9 ; 2.83284387452349E10 ; 0.0
150 ; 8884062.08923379 ; 2.0144783851102275E8 ; 1.4303749268663418E9 ; 2.8529880497389893E10 ; 0.0
151 ; 8868406.285972666 ; 2.0145391197401243E8 ; 1.4392589889555757E9 ; 2.8731328335900917E10 ; 0.0
152 ; 8851978.15013789 ; 2.014599722875885E8 ; 1.4481273952415483E9 ; 2.893278224787493E10 ; 0.0
153 ; 8836667.799016653 ; 2.0146601919885728E8 ; 1.4569793733916862E9 ; 2.913424222016252E10 ; 0.0
154 ; 8816856.891769756 ; 2.0147205245831895E8 ; 1.465816041190703E9 ; 2.9335708239361378E10 ; 0.0
155 ; 8798844.921060804 ; 2.0147807181978655E8 ; 1.4746328980824726E9 ; 2.95371802918197E10 ; 0.0
156 ; 8783835.258814365 ; 2.0148407704030755E8 ; 1.4834317430035334E9 ; 2.9738658363639484E10 ; 0.0
157 ; 8766299.053426685 ; 2.0149006788008776E8 ; 1.4922155782623477E9 ; 2.994014244067979E10 ; 0.0
158 ; 8752421.550477322 ; 2.0149604410241786E8 ; 1.5009818773157744E9 ; 3.014163250855988E10 ; 0.0
159 ; 8730454.269316861 ; 2.015020054736024E8 ; 1.5097342988662517E9 ; 3.0343128552662296E10 ; 0.0
160 ; 8716942.904960463 ; 2.0150795176289093E8 ; 1.5184647531355686E9 ; 3.05446305581359E10 ; 0.0
161 ; 8701514.33055062 ; 2.015138827424113E8 ; 1.527181696040529E9 ; 3.074613850989879E10 ; 0.0
162 ; 8687398.896137102 ; 2.015197981871052E8 ; 1.5358832103710797E9 ; 3.09476523926412E10 ; 0.0
163 ; 8667241.908214534 ; 2.0152569787466592E8 ; 1.5445706092672167E9 ; 3.114917219082831E10 ; 0.0
164 ; 8655862.94642535 ; 2.0153158158547774E8 ; 1.5532378511754313E9 ; 3.1350697888702972E10 ; 0.0
165 ; 8636107.941899972 ; 2.015374491025575E8 ; 1.5618937141218567E9 ; 3.155222947028845E10 ; 0.0
166 ; 8616281.10007054 ; 2.0154330021149793E8 ; 1.5705298220637567E9 ; 3.1753766919391006E10 ; 0.0
167 ; 8599099.178805113 ; 2.0154913470041284E8 ; 1.5791461031638272E9 ; 3.1955310219602505E10 ; 0.0
168 ; 8586339.644881496 ; 2.01554952359884E8 ; 1.5877452023426323E9 ; 3.2156859354302917E10 ; 0.0
169 ; 8567056.455370119 ; 2.0156075298290968E8 ; 1.5963315419875138E9 ; 3.23584143066628E10 ; 0.0
170 ; 8550338.499907322 ; 2.0156653636485487E8 ; 1.604898598442884E9 ; 3.255997505964571E10 ; 0.0
171 ; 8534065.129867766 ; 2.01572302303403E8 ; 1.6134489369427912E9 ; 3.2761541596010567E10 ; 0.0
172 ; 8515269.980212878 ; 2.0157805059850913E8 ; 1.621983002072659E9 ; 3.296311389831397E10 ; 0.0
173 ; 8497049.019427266 ; 2.015837810523548E8 ; 1.630498272052872E9 ; 3.316469194891248E10 ; 0.0
174 ; 8485199.391084755 ; 2.0158949346930408E8 ; 1.6389953210722992E9 ; 3.3366275729964836E10 ; 0.0
175 ; 8470410.20496838 ; 2.0159518765586105E8 ; 1.647480520463384E9 ; 3.356786522343414E10 ; 0.0
176 ; 8456327.585899984 ; 2.0160086342062855E8 ; 1.6559509306683524E9 ; 3.376946041109E10 ; 0.0
177 ; 8443809.203268869 ; 2.0160652057426846E8 ; 1.6644072582542524E9 ; 3.3971061274510628E10 ; 0.0
178 ; 8432580.297725068 ; 2.016121589294628E8 ; 1.6728510674575212E9 ; 3.4172667795084896E10 ; 0.0
179 ; 8416680.195348011 ; 2.0161777830087635E8 ; 1.6812836477552462E9 ; 3.437427995401436E10 ; 0.0
180 ; 8400538.61394491 ; 2.0162337850512034E8 ; 1.6897003279505942E9 ; 3.457589773231523E10 ; 0.0
181 ; 8387682.899244778 ; 2.016289593607171E8 ; 1.6981008665645392E9 ; 3.477752111082035E10 ; 0.0
182 ; 8374002.392218177 ; 2.0163452068806598E8 ; 1.706488549463784E9 ; 3.497915007018107E10 ; 0.0
183 ; 8359777.309308566 ; 2.016400623094103E8 ; 1.714862551856002E9 ; 3.518078459086913E10 ; 0.0
184 ; 8346322.868863673 ; 2.0164558404880518E8 ; 1.7232223291653106E9 ; 3.538242465317854E10 ; 0.0
185 ; 8336538.492110269 ; 2.0165108573208636E8 ; 1.7315686520341742E9 ; 3.558407023722735E10 ; 0.0
186 ; 8320427.3256075755 ; 2.0165656718684024E8 ; 1.7399051905262845E9 ; 3.5785721322959435E10 ; 0.0
187 ; 8307131.141582383 ; 2.0166202824237433E8 ; 1.748225617851892E9 ; 3.598737789014628E10 ; 0.0
188 ; 8290000.752635318 ; 2.016674687296891E8 ; 1.7565327489934745E9 ; 3.618903991838865E10 ; 0.0
189 ; 8281667.050389311 ; 2.0167288848145032E8 ; 1.7648227497461097E9 ; 3.639070738711834E10 ; 0.0
190 ; 8269829.606490316 ; 2.016782873319624E8 ; 1.773104416796499E9 ; 3.659238027559979E10 ; 0.0
191 ; 8250981.737270036 ; 2.016836651171426E8 ; 1.7813742464029894E9 ; 3.6794058562931755E10 ; 0.0
192 ; 8238898.210529785 ; 2.0168902167449564E8 ; 1.7896252281402595E9 ; 3.69957422280489E10 ; 0.0
193 ; 8224718.255447173 ; 2.016943568430896E8 ; 1.7978641263507893E9 ; 3.719743124972339E10 ; 0.0
194 ; 8208584.3982242355 ; 2.0169967046353224E8 ; 1.8060888446062365E9 ; 3.7399125606566475E10 ; 0.0
195 ; 8196623.026379968 ; 2.017049623779478E8 ; 1.8142974290044608E9 ; 3.760082527703001E10 ; 0.0
196 ; 8186414.375172159 ; 2.0171023242995515E8 ; 1.8224940520308409E9 ; 3.780253023940795E10 ; 0.0
197 ; 8172431.361494274 ; 2.0171548046464586E8 ; 1.830680466406013E9 ; 3.8004240471837906E10 ; 0.0
198 ; 8154425.952517772 ; 2.0172070632856336E8 ; 1.8388528977675073E9 ; 3.820595595230255E10 ; 0.0
199 ; 8147922.910162832 ; 2.017259098696827E8 ; 1.847007323720025E9 ; 3.840767665863111E10 ; 0.0
200 ; 8128978.663251371 ; 2.0173109093739063E8 ; 1.855155246630188E9 ; 3.860940256850079E10 ; 0.0
201 ; 8113613.457359558 ; 1.8065789264688733E8 ; 1.8632842252934394E9 ; 3.881113365943819E10 ; 0.0
