CSV File for the City 1 on Day 219
1 - Minute m 
2 - Power Consumed at minute m 
3 - Power Produced at minute m 
4 - Energy Consumed since the beginning of the day 
5 - Energy Produced since the beginning of the day 
6 - Energy Lost since the beginning of the day on lines starting from the city
 
0 ; 1033593.0707539158 ; 1.0528184474776116E8 ; 0.0 ; 0.0 ; 0.0
1 ; 1050594.2945329833 ; 1.0543354844886589E8 ; 1033593.0707539158 ; 1.0528184474776116E8 ; 0.0
2 ; 1069131.133536062 ; 1.0589411881183252E8 ; 2084187.3652868993 ; 2.1071539319662705E8 ; 0.0
3 ; 1091353.8559214156 ; 1.0666357025458121E8 ; 3153318.498822961 ; 3.1660951200845957E8 ; 0.0
4 ; 1114250.133420833 ; 1.0774191680802542E8 ; 4244672.354744377 ; 4.232730822630408E8 ; 0.0
5 ; 1150704.5249832436 ; 1.0912917176386505E8 ; 5358922.488165209 ; 5.310149990710662E8 ; 0.0
6 ; 1185952.9028336168 ; 1.1082534729187301E8 ; 6509627.013148453 ; 6.401441708349313E8 ; 0.0
7 ; 1243042.4415763018 ; 1.1283045404632986E8 ; 7695579.915982069 ; 7.509695181268042E8 ; 0.0
8 ; 1324548.9372504025 ; 1.151445007867164E8 ; 8938622.357558371 ; 8.637999721731341E8 ; 0.0
9 ; 1441656.7678759466 ; 1.1776749404104418E8 ; 1.0263171294808773E7 ; 9.789444729598505E8 ; 0.0
10 ; 1628944.3830554364 ; 1.2069943784014547E8 ; 1.170482806268472E7 ; 1.0967119670008948E9 ; 0.0
11 ; 1915175.788386127 ; 1.2394033354721704E8 ; 1.3333772445740156E7 ; 1.2174114048410401E9 ; 0.0
12 ; 2384046.93370138 ; 1.274901797990621E8 ; 1.5248948234126283E7 ; 1.3413517383882573E9 ; 0.0
13 ; 2831327.33716933 ; 1.3134897256484836E8 ; 1.7632995167827662E7 ; 1.4688419181873193E9 ; 0.0
14 ; 2883622.5405333876 ; 1.3551670531656438E8 ; 2.0464322504996993E7 ; 1.6001908907521677E9 ; 0.0
15 ; 2910182.358708771 ; 1.3999336929472923E8 ; 2.334794504553038E7 ; 1.735707596068732E9 ; 0.0
16 ; 2932530.980605391 ; 1.4477895384506246E8 ; 2.6258127404239148E7 ; 1.8757009653634613E9 ; 0.0
17 ; 2955485.96489645 ; 1.498734467977911E8 ; 2.9190658384844538E7 ; 2.0204799192085238E9 ; 0.0
18 ; 2982470.4700357206 ; 1.552768348612153E8 ; 3.214614434974099E7 ; 2.1703533660063148E9 ; 0.0
19 ; 3003002.4961351915 ; 1.6098910400442144E8 ; 3.5128614819776714E7 ; 2.32563020086753E9 ; 0.0
20 ; 3030970.1356021455 ; 1.6701023980948952E8 ; 3.8131617315911904E7 ; 2.486619304871951E9 ; 0.0
21 ; 3052371.6872153757 ; 1.7334022777991655E8 ; 4.116258745151405E7 ; 2.653629544681441E9 ; 0.0
22 ; 3076043.8078675736 ; 1.7997905359819114E8 ; 4.421495913872942E7 ; 2.8269697724613576E9 ; 0.0
23 ; 3103201.861817827 ; 1.8692670333074516E8 ; 4.7291002946596995E7 ; 3.006948826059549E9 ; 0.0
24 ; 3124537.3472996135 ; 1.9418316358251542E8 ; 5.0394204808414824E7 ; 3.193875529390294E9 ; 0.0
25 ; 3145864.796601014 ; 2.0043646250418136E8 ; 5.351874215571444E7 ; 3.3880586929728093E9 ; 0.0
26 ; 3172464.201470719 ; 2.0044013589894098E8 ; 5.666460695231545E7 ; 3.5884951554769907E9 ; 0.0
27 ; 3195727.054204352 ; 2.004439417849518E8 ; 5.983707115378617E7 ; 3.7889352913759317E9 ; 0.0
28 ; 3219280.360799389 ; 2.004478696539582E8 ; 6.303279820799052E7 ; 3.9893792331608834E9 ; 0.0
29 ; 3242127.7693246156 ; 2.004519097567784E8 ; 6.625207856878991E7 ; 4.1898271028148417E9 ; 0.0
30 ; 3265906.1775995553 ; 2.0045605308119476E8 ; 6.949420633811453E7 ; 4.39027901257162E9 ; 0.0
31 ; 3289946.6305289166 ; 2.004602913198769E8 ; 7.276011251571408E7 ; 4.590735065652815E9 ; 0.0
32 ; 3309819.7515807506 ; 2.0046461683186784E8 ; 7.605005914624299E7 ; 4.791195356972692E9 ; 0.0
33 ; 3332337.7049923167 ; 2.0046902260039163E8 ; 7.935987889782374E7 ; 4.99165997380456E9 ; 0.0
34 ; 3353034.6491430677 ; 2.004735021890733E8 ; 8.269221660281605E7 ; 5.192128996404951E9 ; 0.0
35 ; 3378156.0129516795 ; 2.004780496981076E8 ; 8.604525125195912E7 ; 5.392602498594025E9 ; 0.0
36 ; 3395107.109028545 ; 2.0048265972146595E8 ; 8.942340726491079E7 ; 5.593080548292132E9 ; 0.0
37 ; 3416944.313687636 ; 2.004873273058793E8 ; 9.281851437393934E7 ; 5.793563208013598E9 ; 0.0
38 ; 3436523.015667543 ; 2.00492047912065E8 ; 9.623545868762697E7 ; 5.994050535319478E9 ; 0.0
39 ; 3451695.0558491703 ; 2.0049681737846315E8 ; 9.967198170329452E7 ; 6.194542583231543E9 ; 0.0
40 ; 3468074.775659155 ; 2.0050163188759884E8 ; 1.0312367675914368E8 ; 6.395039400610005E9 ; 0.0
41 ; 3487151.636410828 ; 2.005064879350819E8 ; 1.0659175153480284E8 ; 6.595541032497604E9 ; 0.0
42 ; 3504750.6307187905 ; 2.005113823011814E8 ; 1.1007890317121367E8 ; 6.796047520432686E9 ; 0.0
43 ; 3520002.860356197 ; 2.005163120248648E8 ; 1.1358365380193247E8 ; 6.996558902733868E9 ; 0.0
44 ; 3534834.966961029 ; 2.0052127438016075E8 ; 1.1710365666228867E8 ; 7.197075214758733E9 ; 0.0
45 ; 3552577.5386700816 ; 2.0052626685468924E8 ; 1.2063849162924969E8 ; 7.397596489138893E9 ; 0.0
46 ; 3566540.447215343 ; 2.0053128713019514E8 ; 1.2419106916791977E8 ; 7.598122755993583E9 ; 0.0
47 ; 3576554.4604687765 ; 2.005363330649218E8 ; 1.2775760961513512E8 ; 7.798654043123777E9 ; 0.0
48 ; 3591137.393713729 ; 2.005414026776654E8 ; 1.313341640756039E8 ; 7.999190376188699E9 ; 0.0
49 ; 3603573.5117185637 ; 2.0054649413335866E8 ; 1.3492530146931764E8 ; 8.1997317788663645E9 ; 0.0
50 ; 3610094.196300471 ; 2.0055160573004156E8 ; 1.3852887498103622E8 ; 8.400278272999723E9 ; 0.0
51 ; 3624025.4612211664 ; 2.005567358870869E8 ; 1.421389691773367E8 ; 8.600829878729765E9 ; 0.0
52 ; 3633602.3063193914 ; 2.005618831345587E8 ; 1.4576299463855785E8 ; 8.801386614616852E9 ; 0.0
53 ; 3641767.529354179 ; 2.005670461035926E8 ; 1.4939659694487724E8 ; 9.001948497751411E9 ; 0.0
54 ; 3651103.160494966 ; 2.005722235176963E8 ; 1.5303836447423142E8 ; 9.202515543855003E9 ; 0.0
55 ; 3664140.8631015033 ; 2.0057741418487862E8 ; 1.5668946763472638E8 ; 9.4030877673727E9 ; 0.0
56 ; 3673286.613000944 ; 2.0058261699052393E8 ; 1.603536084978279E8 ; 9.603665181557579E9 ; 0.0
57 ; 3681620.403372902 ; 2.0058783089093718E8 ; 1.6402689511082882E8 ; 9.804247798548103E9 ; 0.0
58 ; 3687257.593489508 ; 2.0059305490749207E8 ; 1.6770851551420173E8 ; 1.0004835629439041E10 ; 0.0
59 ; 3700529.4585091053 ; 2.0059828812132242E8 ; 1.7139577310769123E8 ; 1.0205428684346533E10 ; 0.0
60 ; 3709965.3041951233 ; 2.0060352966850156E8 ; 1.7509630256620035E8 ; 1.0406026972467855E10 ; 0.0
61 ; 3719817.5494825733 ; 2.0060877873566186E8 ; 1.7880626787039548E8 ; 1.0606630502136356E10 ; 0.0
62 ; 3727904.239915566 ; 2.0061403455601048E8 ; 1.8252608541987807E8 ; 1.0807239280872019E10 ; 0.0
63 ; 3733955.7427567844 ; 2.0061929640570202E8 ; 1.8625398965979365E8 ; 1.100785331542803E10 ; 0.0
64 ; 3742877.007746964 ; 2.0062456360053366E8 ; 1.8998794540255043E8 ; 1.1208472611833733E10 ; 0.0
65 ; 3750558.294601365 ; 2.0062983549293053E8 ; 1.937308224102974E8 ; 1.1409097175434267E10 ; 0.0
66 ; 3764254.1675566 ; 2.0063511146919408E8 ; 1.9748138070489874E8 ; 1.1609727010927198E10 ; 0.0
67 ; 3772135.723580554 ; 2.006403909469875E8 ; 2.0124563487245536E8 ; 1.1810362122396393E10 ; 0.0
68 ; 3774698.059761314 ; 2.00645673373036E8 ; 2.050177705960359E8 ; 1.201100251334338E10 ; 0.0
69 ; 3788524.8021179643 ; 2.0065095822102132E8 ; 2.087924686557972E8 ; 1.2211648186716415E10 ; 0.0
70 ; 3788913.973455065 ; 2.0065624498965278E8 ; 2.125809934579152E8 ; 1.2412299144937437E10 ; 0.0
71 ; 3804400.0107864537 ; 2.0066153320089754E8 ; 2.1636990743137026E8 ; 1.261295538992709E10 ; 0.0
72 ; 3810525.5731921 ; 2.0066682239835647E8 ; 2.201743074421567E8 ; 1.2813616923127987E10 ; 0.0
73 ; 3813108.431111174 ; 2.0067211214577135E8 ; 2.239848330153488E8 ; 1.3014283745526344E10 ; 0.0
74 ; 3822260.275200404 ; 2.0067740202565226E8 ; 2.2779794144645998E8 ; 1.3214955857672115E10 ; 0.0
75 ; 3834011.960265868 ; 2.0068269163801378E8 ; 2.3162020172166038E8 ; 1.3415633259697767E10 ; 0.0
76 ; 3840106.625792307 ; 2.0068798059921083E8 ; 2.3545421368192625E8 ; 1.3616315951335781E10 ; 0.0
77 ; 3845898.8769353195 ; 2.0069326854086483E8 ; 2.3929432030771855E8 ; 1.3817003931934992E10 ; 0.0
78 ; 3847089.8639510497 ; 2.0069855510887292E8 ; 2.4314021918465388E8 ; 1.4017697200475857E10 ; 0.0
79 ; 3849520.7129621673 ; 2.0070383996249244E8 ; 2.4698730904860494E8 ; 1.421839575558473E10 ; 0.0
80 ; 3848820.633388763 ; 2.0070912277349463E8 ; 2.5083682976156712E8 ; 1.4419099595547222E10 ; 0.0
81 ; 3851660.7621930195 ; 2.0071440322538152E8 ; 2.5468565039495587E8 ; 1.4619808718320717E10 ; 0.0
82 ; 3853813.6408260823 ; 2.0071968101266083E8 ; 2.585373111571489E8 ; 1.4820523121546099E10 ; 0.0
83 ; 3854786.1926181098 ; 2.0072495584017372E8 ; 2.6239112479797497E8 ; 1.502124280255876E10 ; 0.0
84 ; 3857050.990919273 ; 2.007302274224714E8 ; 2.6624591099059308E8 ; 1.5221967758398933E10 ; 0.0
85 ; 3858166.132468062 ; 2.0073549548323655E8 ; 2.7010296198151237E8 ; 1.5422697985821405E10 ; 0.0
86 ; 3856743.4260417097 ; 2.007407597547456E8 ; 2.739611281139804E8 ; 1.5623433481304642E10 ; 0.0
87 ; 3854525.4393991963 ; 2.0074601997736895E8 ; 2.7781787154002213E8 ; 1.5824174241059387E10 ; 0.0
88 ; 3858447.280253743 ; 2.007512758991061E8 ; 2.816723969794213E8 ; 1.6024920261036757E10 ; 0.0
89 ; 3860311.651267814 ; 2.0075652727515265E8 ; 2.855308442596751E8 ; 1.6225671536935863E10 ; 0.0
90 ; 3856284.7249959386 ; 2.0076177386749697E8 ; 2.893911559109429E8 ; 1.6426428064211016E10 ; 0.0
91 ; 3861396.402437078 ; 2.0076701544454417E8 ; 2.932474406359388E8 ; 1.6627189838078512E10 ; 0.0
92 ; 3859953.8620504895 ; 2.007722517807651E8 ; 2.971088370383759E8 ; 1.6827956853523056E10 ; 0.0
93 ; 3857107.328337986 ; 2.0077748265636894E8 ; 3.009687909004264E8 ; 1.7028729105303822E10 ; 0.0
94 ; 3857130.9045480615 ; 2.0078270785699713E8 ; 3.0482589822876436E8 ; 1.722950658796019E10 ; 0.0
95 ; 3858281.749410563 ; 2.0078792717343715E8 ; 3.086830291333124E8 ; 1.743028929581719E10 ; 0.0
96 ; 3855683.995095871 ; 2.0079314040135494E8 ; 3.12541310882723E8 ; 1.7631077222990627E10 ; 0.0
97 ; 3858745.1513185296 ; 2.0079834734104437E8 ; 3.163969948778188E8 ; 1.7831870363391983E10 ; 0.0
98 ; 3857754.7315004887 ; 2.008035477971927E8 ; 3.202557400291374E8 ; 1.803266871073303E10 ; 0.0
99 ; 3854247.588766562 ; 2.0080874157866043E8 ; 3.241134947606379E8 ; 1.823347225853022E10 ; 0.0
100 ; 3852696.8759148074 ; 2.0081392849827534E8 ; 3.2796774234940445E8 ; 1.843428100010888E10 ; 0.0
101 ; 3854997.166942951 ; 2.0081910837263888E8 ; 3.3182043922531927E8 ; 1.8635094928607155E10 ; 0.0
102 ; 3852116.4952659626 ; 2.0082428102194443E8 ; 3.356754363922622E8 ; 1.8835914036979794E10 ; 0.0
103 ; 3853762.215529278 ; 2.008294462698069E8 ; 3.395275528875282E8 ; 1.903673831800174E10 ; 0.0
104 ; 3848026.9157365947 ; 2.0083460394310212E8 ; 3.4338131510305744E8 ; 1.9237567764271545E10 ; 0.0
105 ; 3849119.299217719 ; 2.008397538718162E8 ; 3.4722934201879406E8 ; 1.943840236821465E10 ; 0.0
106 ; 3847727.3633223446 ; 2.0084489588890353E8 ; 3.5107846131801176E8 ; 1.9639242122086464E10 ; 0.0
107 ; 3842747.8684617304 ; 2.008500298301533E8 ; 3.549261886813341E8 ; 1.984008701797537E10 ; 0.0
108 ; 3840443.5527780424 ; 2.0085515553406364E8 ; 3.587689365497958E8 ; 2.0040937047805523E10 ; 0.0
109 ; 3841100.4057040964 ; 2.0086027284172317E8 ; 3.626093801025739E8 ; 2.024179220333959E10 ; 0.0
110 ; 3838526.4740679003 ; 2.0086538159669924E8 ; 3.6645048050827795E8 ; 2.0442652476181313E10 ; 0.0
111 ; 3835777.297775018 ; 2.008704816449324E8 ; 3.702890069823459E8 ; 2.064351785777801E10 ; 0.0
112 ; 3833766.3827894996 ; 2.0087557283463717E8 ; 3.741247842801209E8 ; 2.0844388339422943E10 ; 0.0
113 ; 3831086.2386667184 ; 2.0088065501620793E8 ; 3.779585506629104E8 ; 2.104526391225758E10 ; 0.0
114 ; 3829069.3518029405 ; 2.008857280421305E8 ; 3.817896369015771E8 ; 2.124614456727379E10 ; 0.0
115 ; 3826814.117812544 ; 2.008907917668981E8 ; 3.8561870625338006E8 ; 2.1447030295315918E10 ; 0.0
116 ; 3821547.430899096 ; 2.0089584604693234E8 ; 3.894455203711926E8 ; 2.1647921087082817E10 ; 0.0
117 ; 3819995.0177130657 ; 2.009008907405082E8 ; 3.9326706780209166E8 ; 2.184881693312975E10 ; 0.0
118 ; 3816432.0567629267 ; 2.0090592570768332E8 ; 3.970870628198047E8 ; 2.204971782387026E10 ; 0.0
119 ; 3813839.4235365344 ; 2.009109508102308E8 ; 4.0090349487656766E8 ; 2.225062374957794E10 ; 0.0
120 ; 3812000.5005040634 ; 2.009159659115757E8 ; 4.047173343001042E8 ; 2.2451534700388172E10 ; 0.0
121 ; 3806231.9162930083 ; 2.0092097087673512E8 ; 4.085293348006083E8 ; 2.2652450666299747E10 ; 0.0
122 ; 3802782.534504749 ; 2.0092596557226098E8 ; 4.123355667169013E8 ; 2.2853371637176483E10 ; 0.0
123 ; 3801721.6815637527 ; 2.009309498661861E8 ; 4.161383492514061E8 ; 2.3054297602748745E10 ; 0.0
124 ; 3796061.131659878 ; 2.009359236279731E8 ; 4.199400709329698E8 ; 2.325522855261493E10 ; 0.0
125 ; 3793905.4461020664 ; 2.0094088672846562E8 ; 4.237361320646297E8 ; 2.34561644762429E10 ; 0.0
126 ; 3789299.245558909 ; 2.0094583903984246E8 ; 4.2753003751073176E8 ; 2.3657105362971367E10 ; 0.0
127 ; 3785164.5759591656 ; 2.0095078043557364E8 ; 4.313193367562907E8 ; 2.3858051202011208E10 ; 0.0
128 ; 3783685.097368243 ; 2.0095571079037905E8 ; 4.351045013322498E8 ; 2.405900198244678E10 ; 0.0
129 ; 3776531.161269808 ; 2.0096062998018897E8 ; 4.3888818642961806E8 ; 2.425995769323716E10 ; 0.0
130 ; 3766023.656534589 ; 2.0096553788210645E8 ; 4.4266471759088784E8 ; 2.446091832321735E10 ; 0.0
131 ; 3758920.6784665026 ; 2.0097043437437198E8 ; 4.4643074124742246E8 ; 2.4661883861099457E10 ; 0.0
132 ; 3751570.549656647 ; 2.009753193363294E8 ; 4.5018966192588896E8 ; 2.4862854295473827E10 ; 0.0
133 ; 3740415.3256696193 ; 2.0098019264839387E8 ; 4.539412324755456E8 ; 2.5063829614810158E10 ; 0.0
134 ; 3730678.095881382 ; 2.0098505419202125E8 ; 4.5768164780121523E8 ; 2.5264809807458553E10 ; 0.0
135 ; 3717562.867993067 ; 2.009899038496789E8 ; 4.6141232589709663E8 ; 2.5465794861650574E10 ; 0.0
136 ; 3706701.4601399126 ; 2.009947415048181E8 ; 4.651298887650897E8 ; 2.566678476550025E10 ; 0.0
137 ; 3697482.110622216 ; 2.009995670418477E8 ; 4.688365902252296E8 ; 2.586777950700507E10 ; 0.0
138 ; 3684637.27893961 ; 2.0100438034610882E8 ; 4.7253407233585185E8 ; 2.6068779074046917E10 ; 0.0
139 ; 3671127.176145685 ; 2.0100918130385125E8 ; 4.7621870961479145E8 ; 2.6269783454393024E10 ; 0.0
140 ; 3663693.5631602462 ; 2.010139698022104E8 ; 4.798898367909371E8 ; 2.6470792635696877E10 ; 0.0
141 ; 3651588.549896045 ; 2.0101874572918588E8 ; 4.8355353035409737E8 ; 2.667180660549909E10 ; 0.0
142 ; 3642640.0310536977 ; 2.0102350897362062E8 ; 4.872051189039934E8 ; 2.6872825351228275E10 ; 0.0
143 ; 3632948.3120643413 ; 2.010282594251814E8 ; 4.9084775893504715E8 ; 2.7073848860201897E10 ; 0.0
144 ; 3619326.073717568 ; 2.010329969743399E8 ; 4.944807072471115E8 ; 2.727487711962708E10 ; 0.0
145 ; 3615356.489139572 ; 2.010377215123549E8 ; 4.981000333208291E8 ; 2.7475910116601418E10 ; 0.0
146 ; 3606956.9159752093 ; 2.0104243293125528E8 ; 5.0171538980996865E8 ; 2.7676947838113773E10 ; 0.0
147 ; 3606066.365392295 ; 2.0104713112382367E8 ; 5.0532234672594386E8 ; 2.787799027104503E10 ; 0.0
148 ; 3600407.7075921735 ; 2.0105181598358095E8 ; 5.0892841309133613E8 ; 2.8079037402168854E10 ; 0.0
149 ; 3595349.541798277 ; 2.0105648740477157E8 ; 5.125288207989283E8 ; 2.8280089218152435E10 ; 0.0
150 ; 3591578.403484544 ; 2.0106114528234926E8 ; 5.161241703407266E8 ; 2.8481145705557205E10 ; 0.0
151 ; 3587578.1109715374 ; 2.0106578951196373E8 ; 5.1971574874421114E8 ; 2.8682206850839554E10 ; 0.0
152 ; 3583150.620193719 ; 2.0107041998994774E8 ; 5.2330332685518265E8 ; 2.8883272640351517E10 ; 0.0
153 ; 3579516.363983027 ; 2.0107503661330485E8 ; 5.2688647747537637E8 ; 2.9084343060341465E10 ; 0.0
154 ; 3573105.4039013586 ; 2.0107963927969775E8 ; 5.304659938393594E8 ; 2.928541809695477E10 ; 0.0
155 ; 3569130.5883030104 ; 2.0108422788743705E8 ; 5.3403909924326074E8 ; 2.9486497736234467E10 ; 0.0
156 ; 3563806.9444825593 ; 2.0108880233547068E8 ; 5.376082298315637E8 ; 2.9687581964121902E10 ; 0.0
157 ; 3558496.5856403853 ; 2.010933625233737E8 ; 5.411720367760463E8 ; 2.9888670766457375E10 ; 0.0
158 ; 3551536.652649369 ; 2.010979083513385E8 ; 5.447305333616867E8 ; 3.0089764128980747E10 ; 0.0
159 ; 3550042.9221809474 ; 2.0110243972016573E8 ; 5.482820700143361E8 ; 3.0290862037332085E10 ; 0.0
160 ; 3542490.664784103 ; 2.0110695653125522E8 ; 5.51832112936517E8 ; 3.049196447705225E10 ; 0.0
161 ; 3540168.0417557233 ; 2.0111145868659768E8 ; 5.553746036013011E8 ; 3.0693071433583504E10 ; 0.0
162 ; 3534812.7858243897 ; 2.0111594608876657E8 ; 5.589147716430568E8 ; 3.08941828922701E10 ; 0.0
163 ; 3530243.546755947 ; 2.011204186409105E8 ; 5.624495844288812E8 ; 3.1095298838358868E10 ; 0.0
164 ; 3524506.011916364 ; 2.0112487624674574E8 ; 5.659798279756371E8 ; 3.129641925699978E10 ; 0.0
165 ; 3520598.354440806 ; 2.0112931881054932E8 ; 5.695043339875535E8 ; 3.1497544133246525E10 ; 0.0
166 ; 3516070.9839471914 ; 2.011337462371522E8 ; 5.730249323419943E8 ; 3.1698673452057076E10 ; 0.0
167 ; 3512201.8692300953 ; 2.0113815843193308E8 ; 5.765410033259414E8 ; 3.1899807198294228E10 ; 0.0
168 ; 3506897.311855506 ; 2.011425553008121E8 ; 5.800532051951716E8 ; 3.2100945356726162E10 ; 0.0
169 ; 3502619.972672451 ; 2.0114693675024512E8 ; 5.835601025070271E8 ; 3.2302087912026974E10 ; 0.0
170 ; 3494447.567705396 ; 2.0115130268721822E8 ; 5.870627224796996E8 ; 3.2503234848777218E10 ; 0.0
171 ; 3493784.9998442894 ; 2.011556530192422E8 ; 5.90557170047405E8 ; 3.2704386151464436E10 ; 0.0
172 ; 3487992.886952382 ; 2.0115998765434778E8 ; 5.940509550472493E8 ; 3.2905541804483677E10 ; 0.0
173 ; 3482636.546541377 ; 2.0116430650108057E8 ; 5.975389479342017E8 ; 3.3106701792138023E10 ; 0.0
174 ; 3482730.1032218575 ; 2.0116860946849656E8 ; 6.01021584480743E8 ; 3.3307866098639103E10 ; 0.0
175 ; 3476727.206640982 ; 2.011728964661578E8 ; 6.04504314583965E8 ; 3.35090347081076E10 ; 0.0
176 ; 3473001.1226328076 ; 2.0117716740412804E8 ; 6.079810417906059E8 ; 3.3710207604573757E10 ; 0.0
177 ; 3471723.538583649 ; 2.01181422192969E8 ; 6.114540429132388E8 ; 3.3911384771977886E10 ; 0.0
178 ; 3464154.9877232807 ; 2.0118566074373627E8 ; 6.149257664518224E8 ; 3.4112566194170856E10 ; 0.0
179 ; 3461301.3501184816 ; 2.01189882967976E8 ; 6.183899214395456E8 ; 3.4313751854914593E10 ; 0.0
180 ; 3457615.43741596 ; 2.0119408877772126E8 ; 6.218512227896641E8 ; 3.451494173788257E10 ; 0.0
181 ; 3456442.6767696915 ; 2.0119827808548877E8 ; 6.253088382270801E8 ; 3.4716135826660286E10 ; 0.0
182 ; 3452347.12740211 ; 2.0120245080427596E8 ; 6.287652809038498E8 ; 3.491733410474577E10 ; 0.0
183 ; 3450573.4225698784 ; 2.0120660684755775E8 ; 6.322176280312519E8 ; 3.511853655555005E10 ; 0.0
184 ; 3446562.364813377 ; 2.0121074612928396E8 ; 6.356682014538218E8 ; 3.5319743162397606E10 ; 0.0
185 ; 3444080.560581032 ; 2.0121486856387645E8 ; 6.391147638186351E8 ; 3.552095390852689E10 ; 0.0
186 ; 3442352.2244960056 ; 2.0121897406622675E8 ; 6.425588443792162E8 ; 3.572216877709077E10 ; 0.0
187 ; 3435593.4873192906 ; 2.0122306255169344E8 ; 6.460011966037122E8 ; 3.592338775115699E10 ; 0.0
188 ; 3434359.603819546 ; 2.0122713393610007E8 ; 6.494367900910316E8 ; 3.612461081370869E10 ; 0.0
189 ; 3432428.789689189 ; 2.0123118813573283E8 ; 6.52871149694851E8 ; 3.632583794764479E10 ; 0.0
190 ; 3431310.776770707 ; 2.0123522506733853E8 ; 6.563035784845402E8 ; 3.6527069135780525E10 ; 0.0
191 ; 3419513.786419344 ; 2.0123924464812267E8 ; 6.597348892613109E8 ; 3.672830436084786E10 ; 0.0
192 ; 3420975.530023219 ; 2.0124324679574767E8 ; 6.631544030477303E8 ; 3.692954360549599E10 ; 0.0
193 ; 3414419.1638063183 ; 2.0124723142833093E8 ; 6.665753785777535E8 ; 3.713078685229173E10 ; 0.0
194 ; 3410726.3700850923 ; 2.0125119846444333E8 ; 6.699897977415599E8 ; 3.733203408372006E10 ; 0.0
195 ; 3411552.1382801062 ; 2.0125514782310766E8 ; 6.73400524111645E8 ; 3.753328528218451E10 ; 0.0
196 ; 3404657.244384782 ; 2.0125907942379707E8 ; 6.768120762499251E8 ; 3.7734540430007614E10 ; 0.0
197 ; 3399090.204255565 ; 2.0126299318643385E8 ; 6.802167334943099E8 ; 3.793579950943141E10 ; 0.0
198 ; 3399281.5957021844 ; 2.0126688903138795E8 ; 6.836158236985655E8 ; 3.813706250261784E10 ; 0.0
199 ; 3397358.2285913606 ; 2.0127076687947583E8 ; 6.870151052942677E8 ; 3.833832939164923E10 ; 0.0
200 ; 3393661.11527566 ; 2.012746266519594E8 ; 6.90412463522859E8 ; 3.853960015852871E10 ; 0.0
