CSV File for the City 6 on Day 245
1 - Minute m 
2 - Power Consumed at minute m 
3 - Power Produced at minute m 
4 - Energy Consumed since the beginning of the day 
5 - Energy Produced since the beginning of the day 
6 - Energy Lost since the beginning of the day on lines starting from the city
 
0 ; 1988861.2945626632 ; 1.0557258414586923E8 ; 0.0 ; 0.0 ; 0.0
1 ; 2001244.5532605941 ; 1.0572182797243875E8 ; 1988861.2945626632 ; 1.0557258414586923E8 ; 0.0
2 ; 2011726.3556417234 ; 1.061801927468808E8 ; 3990105.8478232576 ; 2.1129441211830798E8 ; 0.0
3 ; 2027248.105221306 ; 1.0694769544877529E8 ; 6001832.203464981 ; 3.174746048651888E8 ; 0.0
4 ; 2042924.2702169751 ; 1.0802435189147556E8 ; 8029080.308686287 ; 4.2442230031396407E8 ; 0.0
5 ; 2062782.9083456509 ; 1.094101764572357E8 ; 1.0072004578903262E7 ; 5.324466522054396E8 ; 0.0
6 ; 2086780.2056965523 ; 1.1110518183906338E8 ; 1.2134787487248912E7 ; 6.418568286626754E8 ; 0.0
7 ; 2128952.5918467296 ; 1.1310937879901874E8 ; 1.4221567692945465E7 ; 7.529620105017388E8 ; 0.0
8 ; 2177711.8507693415 ; 1.154227759529475E8 ; 1.6350520284792196E7 ; 8.660713893007575E8 ; 0.0
9 ; 2258136.3887366722 ; 1.1804537959122986E8 ; 1.8528232135561537E7 ; 9.81494165253705E8 ; 0.0
10 ; 2388447.282468292 ; 1.209771935439915E8 ; 2.078636852429821E7 ; 1.099539544844935E9 ; 0.0
11 ; 2580326.685014074 ; 1.2421821909740272E8 ; 2.3174815806766503E7 ; 1.2205167383889265E9 ; 0.0
12 ; 2898286.0772927403 ; 1.277684549652932E8 ; 2.5755142491780575E7 ; 1.3447349574863293E9 ; 0.0
13 ; 3200674.9276956734 ; 1.3162789731753725E8 ; 2.8653428569073316E7 ; 1.4725034124516225E9 ; 0.0
14 ; 3241152.7558430405 ; 1.3579653986375475E8 ; 3.185410349676899E7 ; 1.6041313097691598E9 ; 0.0
15 ; 3255419.426848569 ; 1.4027437398809987E8 ; 3.509525625261203E7 ; 1.7399278496329145E9 ; 0.0
16 ; 3266193.019757565 ; 1.450613889285126E8 ; 3.83506756794606E7 ; 1.8802022236210144E9 ; 0.0
17 ; 3284208.8365335767 ; 1.5015757199198517E8 ; 4.161686869921817E7 ; 2.025263612549527E9 ; 0.0
18 ; 3297459.828173824 ; 1.5556290879626352E8 ; 4.4901077535751745E7 ; 2.175421184541512E9 ; 0.0
19 ; 3312825.6196810645 ; 1.612773835279943E8 ; 4.819853736392557E7 ; 2.3309840933377757E9 ; 0.0
20 ; 3327852.7006026623 ; 1.6730097920759758E8 ; 5.151136298360664E7 ; 2.49226147686577E9 ; 0.0
21 ; 3344540.747487786 ; 1.7363367795197973E8 ; 5.48392156842093E7 ; 2.6595624560733676E9 ; 0.0
22 ; 3357625.0805512974 ; 1.802754612274508E8 ; 5.8183756431697085E7 ; 2.833196134025347E9 ; 0.0
23 ; 3375226.7803652687 ; 1.872263100867151E8 ; 6.154138151224838E7 ; 3.013471595252798E9 ; 0.0
24 ; 3387776.204035095 ; 1.944862053854004E8 ; 6.491660829261365E7 ; 3.2006979053395133E9 ; 0.0
25 ; 3402431.8242404736 ; 2.007431688733338E8 ; 6.830438449664874E7 ; 3.3951841107249136E9 ; 0.0
26 ; 3415761.322247972 ; 2.0075072939953625E8 ; 7.170681632088922E7 ; 3.5959272795982475E9 ; 0.0
27 ; 3430676.848116372 ; 2.0075863757989225E8 ; 7.512257764313719E7 ; 3.7966780089977837E9 ; 0.0
28 ; 3446494.044023813 ; 2.007668751619923E8 ; 7.855325449125355E7 ; 3.997436646577676E9 ; 0.0
29 ; 3460688.839204783 ; 2.0077542441312793E8 ; 8.199974853527737E7 ; 4.198203521739668E9 ; 0.0
30 ; 3474677.6779501745 ; 2.0078426819360268E8 ; 8.546043737448215E7 ; 4.398978946152796E9 ; 0.0
31 ; 3491990.5970197264 ; 2.0079339001079807E8 ; 8.893511505243233E7 ; 4.599763214346398E9 ; 0.0
32 ; 3501535.1116214525 ; 2.0080277405632815E8 ; 9.242710564945206E7 ; 4.800556604357197E9 ; 0.0
33 ; 3518155.142555309 ; 2.008124052286317E8 ; 9.592864076107351E7 ; 5.001359378413525E9 ; 0.0
34 ; 3531128.756553353 ; 2.008222691432665E8 ; 9.944679590362883E7 ; 5.202171783642157E9 ; 0.0
35 ; 3541351.1474543326 ; 2.0083235213302147E8 ; 1.0297792466018218E8 ; 5.402994052785423E9 ; 0.0
36 ; 3561548.2453962006 ; 2.0084264123977223E8 ; 1.0651927580763651E8 ; 5.603826404918445E9 ; 0.0
37 ; 3566398.078247532 ; 2.008531241997948E8 ; 1.1008082405303271E8 ; 5.804669046158216E9 ; 0.0
38 ; 3578485.0777911674 ; 2.008637894240357E8 ; 1.1364722213128024E8 ; 6.005522170358011E9 ; 0.0
39 ; 3593518.9648610353 ; 2.0087462597462526E8 ; 1.1722570720907141E8 ; 6.206385959782047E9 ; 0.0
40 ; 3604346.0282717333 ; 2.00885623538722E8 ; 1.2081922617393245E8 ; 6.407260585756673E9 ; 0.0
41 ; 3616509.5914288615 ; 2.008967724005943E8 ; 1.2442357220220418E8 ; 6.608146209295395E9 ; 0.0
42 ; 3625079.428646945 ; 2.0090806341268235E8 ; 1.2804008179363304E8 ; 6.80904298169599E9 ; 0.0
43 ; 3630117.2084576874 ; 2.0091948796624118E8 ; 1.3166516122228E8 ; 7.009951045108672E9 ; 0.0
44 ; 3642038.091618792 ; 2.0093103796204036E8 ; 1.3529527843073767E8 ; 7.210870533074913E9 ; 0.0
45 ; 3648707.467655326 ; 2.0094270578149298E8 ; 1.3893731652235648E8 ; 7.411801571036953E9 ; 0.0
46 ; 3659472.627404003 ; 2.0095448425849548E8 ; 1.425860239900118E8 ; 7.612744276818446E9 ; 0.0
47 ; 3661683.5914824065 ; 2.0096636665218827E8 ; 1.4624549661741582E8 ; 7.8136987610769415E9 ; 0.0
48 ; 3670675.8048870177 ; 2.0097834662078467E8 ; 1.4990718020889822E8 ; 8.01466512772913E9 ; 0.0
49 ; 3680368.8474185 ; 2.009904181965681E8 ; 1.5357785601378524E8 ; 8.215643474349915E9 ; 0.0
50 ; 3680776.795410974 ; 2.0100257576211685E8 ; 1.5725822486120373E8 ; 8.416633892546483E9 ; 0.0
51 ; 3692209.6481392793 ; 2.010148140277846E8 ; 1.609390016566147E8 ; 8.6176364683086E9 ; 0.0
52 ; 3694084.746054466 ; 2.0102712801044115E8 ; 1.6463121130475396E8 ; 8.818651282336384E9 ; 0.0
53 ; 3694853.3898990797 ; 2.010395130134579E8 ; 1.6832529605080843E8 ; 9.019678410346825E9 ; 0.0
54 ; 3702447.561316299 ; 2.010519646079093E8 ; 1.720201494407075E8 ; 9.220717923360283E9 ; 0.0
55 ; 3705676.675883427 ; 2.0106447861495104E8 ; 1.7572259700202382E8 ; 9.421769887968193E9 ; 0.0
56 ; 3712956.825394954 ; 2.010770510893282E8 ; 1.7942827367790723E8 ; 9.622834366583143E9 ; 0.0
57 ; 3716686.646437856 ; 2.0108967830396175E8 ; 1.831412305033022E8 ; 9.823911417672472E9 ; 0.0
58 ; 3721612.451353069 ; 2.011023567355598E8 ; 1.8685791714974004E8 ; 1.0025001095976433E10 ; 0.0
59 ; 3726651.8720603776 ; 2.0111508305119693E8 ; 1.905795296010931E8 ; 1.0226103452711992E10 ; 0.0
60 ; 3734546.207651571 ; 2.0112785409580666E8 ; 1.943061814731535E8 ; 1.042721853576319E10 ; 0.0
61 ; 3736266.427143644 ; 2.0114066688053113E8 ; 1.980407276808051E8 ; 1.0628346389858995E10 ; 0.0
62 ; 3742524.5434437967 ; 2.011535185718746E8 ; 2.0177699410794872E8 ; 1.0829487056739527E10 ; 0.0
63 ; 3741334.926908641 ; 2.0116640648160833E8 ; 2.0551951865139252E8 ; 1.1030640575311401E10 ; 0.0
64 ; 3751943.931132797 ; 2.0117932805737752E8 ; 2.0926085357830116E8 ; 1.1231806981793009E10 ; 0.0
65 ; 3752934.690504341 ; 2.0119228087396196E8 ; 2.1301279750943395E8 ; 1.1432986309850386E10 ; 0.0
66 ; 3759108.6446927637 ; 2.01205262625146E8 ; 2.167657321999383E8 ; 1.1634178590724348E10 ; 0.0
67 ; 3758582.271571544 ; 2.0121827111615497E8 ; 2.2052484084463108E8 ; 1.1835383853349495E10 ; 0.0
68 ; 3764467.9728245335 ; 2.0123130425661808E8 ; 2.2428342311620262E8 ; 1.203660212446565E10 ; 0.0
69 ; 3767484.8878128584 ; 2.012443600540204E8 ; 2.2804789108902717E8 ; 1.223783342872227E10 ; 0.0
70 ; 3770937.7435411406 ; 2.012574366076089E8 ; 2.3181537597684002E8 ; 1.2439077788776289E10 ; 0.0
71 ; 3774630.0453984025 ; 2.0127053210271946E8 ; 2.3558631372038117E8 ; 1.2640335225383898E10 ; 0.0
72 ; 3778224.725930632 ; 2.0128364480549493E8 ; 2.3936094376577958E8 ; 1.2841605757486618E10 ; 0.0
73 ; 3781988.950683885 ; 2.0129677305796555E8 ; 2.4313916849171022E8 ; 1.3042889402292112E10 ; 0.0
74 ; 3787845.798275542 ; 2.0130991527346534E8 ; 2.469211574423941E8 ; 1.3244186175350079E10 ; 0.0
75 ; 3788159.0562246474 ; 2.0132306993236038E8 ; 2.5070900324066964E8 ; 1.3445496090623545E10 ; 0.0
76 ; 3792619.6529862257 ; 2.0133623557806593E8 ; 2.5449716229689428E8 ; 1.3646819160555904E10 ; 0.0
77 ; 3795815.502271214 ; 2.0134941081333166E8 ; 2.582897819498805E8 ; 1.384815539613397E10 ; 0.0
78 ; 3792166.6181615507 ; 2.013625942967756E8 ; 2.6208559745215172E8 ; 1.4049504806947302E10 ; 0.0
79 ; 3792962.1719580223 ; 2.0137578473964858E8 ; 2.6587776407031327E8 ; 1.4250867401244078E10 ; 0.0
80 ; 3793540.736929953 ; 2.013889809028127E8 ; 2.696707262422713E8 ; 1.4452243185983727E10 ; 0.0
81 ; 3792861.634954852 ; 2.0140218159391853E8 ; 2.7346426697920126E8 ; 1.465363216688654E10 ; 0.0
82 ; 3793333.0605035094 ; 2.014153856647666E8 ; 2.772571286141561E8 ; 1.4855034348480457E10 ; 0.0
83 ; 3789760.6779501587 ; 2.0142859200884017E8 ; 2.810504616746596E8 ; 1.5056449734145224E10 ; 0.0
84 ; 3787894.9051641608 ; 2.0144179955899692E8 ; 2.8484022235260975E8 ; 1.5257878326154064E10 ; 0.0
85 ; 3788836.897219812 ; 2.0145500728530878E8 ; 2.8862811725777394E8 ; 1.545932012571306E10 ; 0.0
86 ; 3782463.6388267353 ; 2.0146821419303867E8 ; 2.924169541549938E8 ; 1.566077513299837E10 ; 0.0
87 ; 3787689.892951721 ; 2.0148141932074562E8 ; 2.961994177938205E8 ; 1.5862243347191408E10 ; 0.0
88 ; 3785886.047021613 ; 2.014946217385081E8 ; 2.999871076867722E8 ; 1.6063724766512154E10 ; 0.0
89 ; 3785598.5945416857 ; 2.015078205462586E8 ; 3.0377299373379385E8 ; 1.6265219388250662E10 ; 0.0
90 ; 3780715.919321615 ; 2.015210148722208E8 ; 3.075585923283355E8 ; 1.646672720879692E10 ; 0.0
91 ; 3779126.747483304 ; 2.015342038714429E8 ; 3.113393082476571E8 ; 1.6668248223669142E10 ; 0.0
92 ; 3773840.605057621 ; 2.015473867244202E8 ; 3.1511843499514043E8 ; 1.6869782427540585E10 ; 0.0
93 ; 3774092.123342378 ; 2.0156056263580123E8 ; 3.1889227560019803E8 ; 1.7071329814265005E10 ; 0.0
94 ; 3772629.7650931654 ; 2.015737308331715E8 ; 3.226663677235404E8 ; 1.7272890376900806E10 ; 0.0
95 ; 3769213.097227178 ; 2.0158689056590983E8 ; 3.264389974886336E8 ; 1.747446410773398E10 ; 0.0
96 ; 3771788.984799097 ; 2.016000411041125E8 ; 3.302082105858607E8 ; 1.767605099829989E10 ; 0.0
97 ; 3765880.8269695747 ; 2.0161318173758045E8 ; 3.339799995706598E8 ; 1.7877651039404E10 ; 0.0
98 ; 3763537.5829333314 ; 2.0162631177486566E8 ; 3.377458803976294E8 ; 1.807926422114158E10 ; 0.0
99 ; 3761826.2704708767 ; 2.01639430542373E8 ; 3.415094179805627E8 ; 1.8280890532916443E10 ; 0.0
100 ; 3757973.1963704457 ; 2.0165253738351345E8 ; 3.4527124425103354E8 ; 1.8482529963458817E10 ; 0.0
101 ; 3754966.79516271 ; 2.016656316579059E8 ; 3.4902921744740397E8 ; 1.868418250084233E10 ; 0.0
102 ; 3754278.223287282 ; 2.0167871274062392E8 ; 3.527841842425667E8 ; 1.8885848132500237E10 ; 0.0
103 ; 3748587.725281472 ; 2.0169178002148533E8 ; 3.56538462465854E8 ; 1.908752684524086E10 ; 0.0
104 ; 3746283.2192453397 ; 2.0170483290438107E8 ; 3.6028705019113547E8 ; 1.9289218625262344E10 ; 0.0
105 ; 3741596.1060355846 ; 2.017178708066416E8 ; 3.640333334103808E8 ; 1.9490923458166725E10 ; 0.0
106 ; 3737152.946280374 ; 2.0173089315843812E8 ; 3.677749295164164E8 ; 1.9692641328973366E10 ; 0.0
107 ; 3739528.4491754905 ; 2.0174389940221635E8 ; 3.7151208246269673E8 ; 1.9894372222131805E10 ; 0.0
108 ; 3736026.132646834 ; 2.0175688899216148E8 ; 3.752516109118722E8 ; 2.0096116121534023E10 ; 0.0
109 ; 3727019.6850519236 ; 2.0176986139369154E8 ; 3.7898763704451907E8 ; 2.0297873010526184E10 ; 0.0
110 ; 3729408.6065356284 ; 2.0178281608297816E8 ; 3.82714656729571E8 ; 2.0499642871919876E10 ; 0.0
111 ; 3724568.8517402364 ; 2.017957525464928E8 ; 3.864440653361066E8 ; 2.0701425688002853E10 ; 0.0
112 ; 3720219.376045867 ; 2.0180867028057685E8 ; 3.9016863418784684E8 ; 2.0903221440549347E10 ; 0.0
113 ; 3713763.776311167 ; 2.018215687910344E8 ; 3.938888535638927E8 ; 2.1105030110829926E10 ; 0.0
114 ; 3713545.3543934524 ; 2.018344475927461E8 ; 3.976026173402039E8 ; 2.130685167962096E10 ; 0.0
115 ; 3708049.681578201 ; 2.0184730620930314E8 ; 4.0131616269459736E8 ; 2.1508686127213707E10 ; 0.0
116 ; 3704818.72201865 ; 2.0186014417265993E8 ; 4.050242123761756E8 ; 2.171053343342301E10 ; 0.0
117 ; 3698221.0042942627 ; 2.0187296102280462E8 ; 4.0872903109819424E8 ; 2.1912393577595673E10 ; 0.0
118 ; 3695481.7030691435 ; 2.018857563074462E8 ; 4.124272521024885E8 ; 2.2114266538618477E10 ; 0.0
119 ; 3690263.9319369677 ; 2.0189852958171758E8 ; 4.1612273380555767E8 ; 2.2316152294925922E10 ; 0.0
120 ; 3691363.6791548333 ; 2.019112804078933E8 ; 4.1981299773749465E8 ; 2.251805082450764E10 ; 0.0
121 ; 3682257.1424563667 ; 2.0192400835512143E8 ; 4.2350436141664946E8 ; 2.2719962104915535E10 ; 0.0
122 ; 3680848.7683712617 ; 2.019367129991687E8 ; 4.271866185591058E8 ; 2.2921886113270657E10 ; 0.0
123 ; 3675161.790689388 ; 2.019493939221781E8 ; 4.308674673274771E8 ; 2.3123822826269825E10 ; 0.0
124 ; 3673067.0759842866 ; 2.019620507124384E8 ; 4.345426291181665E8 ; 2.3325772220192E10 ; 0.0
125 ; 3665478.9985768567 ; 2.019746829641648E8 ; 4.382156961941508E8 ; 2.3527734270904438E10 ; 0.0
126 ; 3657696.854807236 ; 2.0198729027729008E8 ; 4.418811751927277E8 ; 2.3729708953868603E10 ; 0.0
127 ; 3656087.438444436 ; 2.0199987225726596E8 ; 4.4553887204753494E8 ; 2.3931696244145893E10 ; 0.0
128 ; 3649297.517741413 ; 2.0201242851487377E8 ; 4.491949594859794E8 ; 2.413369611640316E10 ; 0.0
129 ; 3642938.276024179 ; 2.0202495866604403E8 ; 4.528442570037208E8 ; 2.4335708544918034E10 ; 0.0
130 ; 3636641.1854906464 ; 2.0203746233168477E8 ; 4.56487195279745E8 ; 2.4537733503584076E10 ; 0.0
131 ; 3627232.4720376832 ; 2.020499391375176E8 ; 4.6012383646523565E8 ; 2.473977096591576E10 ; 0.0
132 ; 3618700.5466288254 ; 2.0206238871392164E8 ; 4.637510689372733E8 ; 2.4941820905053276E10 ; 0.0
133 ; 3610801.8780820025 ; 2.0207481069578454E8 ; 4.6736976948390216E8 ; 2.5143883293767197E10 ; 0.0
134 ; 3600405.6099705263 ; 2.0208720472236037E8 ; 4.7098057136198413E8 ; 2.5345958104462982E10 ; 0.0
135 ; 3592306.6471372377 ; 2.0209957043713415E8 ; 4.7458097697195464E8 ; 2.554804530918534E10 ; 0.0
136 ; 3583888.944345216 ; 2.021119074876923E8 ; 4.7817328361909187E8 ; 2.5750144879622475E10 ; 0.0
137 ; 3573010.741946136 ; 2.0212421552559924E8 ; 4.817571725634371E8 ; 2.595225678711017E10 ; 0.0
138 ; 3562101.5639755204 ; 2.0213649420627934E8 ; 4.8533018330538327E8 ; 2.615438100263577E10 ; 0.0
139 ; 3556819.207239185 ; 2.021487431889042E8 ; 4.888922848693588E8 ; 2.635651749684205E10 ; 0.0
140 ; 3543930.135423359 ; 2.0216096213628507E8 ; 4.92449104076598E8 ; 2.6558666240030952E10 ; 0.0
141 ; 3539391.0637891004 ; 2.0217315071476993E8 ; 4.9599303421202135E8 ; 2.6760827202167236E10 ; 0.0
142 ; 3521265.399914821 ; 2.0218530859414518E8 ; 4.995324252758105E8 ; 2.6963000352882008E10 ; 0.0
143 ; 3512353.2981388024 ; 2.021974354475415E8 ; 5.030536906757253E8 ; 2.7165185661476154E10 ; 0.0
144 ; 3502668.0746865626 ; 2.0220953095134416E8 ; 5.065660439738641E8 ; 2.7367383096923695E10 ; 0.0
145 ; 3497457.0747011956 ; 2.0222159478510684E8 ; 5.1006871204855067E8 ; 2.756959262787504E10 ; 0.0
146 ; 3492817.029452305 ; 2.0223362663146946E8 ; 5.1356616912325186E8 ; 2.7771814222660145E10 ; 0.0
147 ; 3486977.456570175 ; 2.0224562617607942E8 ; 5.170589861527042E8 ; 2.7974047849291615E10 ; 0.0
148 ; 3482583.82540175 ; 2.0225759310751632E8 ; 5.205459636092743E8 ; 2.8176293475467693E10 ; 0.0
149 ; 3475321.916962372 ; 2.0226952711721984E8 ; 5.2402854743467605E8 ; 2.837855106857521E10 ; 0.0
150 ; 3475803.7117543835 ; 2.0228142789942065E8 ; 5.2750386935163844E8 ; 2.858082059569243E10 ; 0.0
151 ; 3466674.00126619 ; 2.0229329515107435E8 ; 5.309796730633928E8 ; 2.878310202359185E10 ; 0.0
152 ; 3460863.743562045 ; 2.0230512857179815E8 ; 5.34446347064659E8 ; 2.8985395318742924E10 ; 0.0
153 ; 3457433.384723556 ; 2.0231692786381027E8 ; 5.379072108082211E8 ; 2.918770044731472E10 ; 0.0
154 ; 3450716.984582403 ; 2.0232869273187175E8 ; 5.413646441929446E8 ; 2.939001737517853E10 ; 0.0
155 ; 3446602.207360418 ; 2.023404228832308E8 ; 5.448153611775271E8 ; 2.9592346067910404E10 ; 0.0
156 ; 3437927.570468715 ; 2.023521180275695E8 ; 5.482619633848875E8 ; 2.9794686490793636E10 ; 0.0
157 ; 3431030.5650347285 ; 2.023637778769526E8 ; 5.516998909553561E8 ; 2.9997038608821205E10 ; 0.0
158 ; 3428039.463275656 ; 2.0237540214577842E8 ; 5.551309215203909E8 ; 3.019940238669816E10 ; 0.0
159 ; 3424009.394092367 ; 2.0238699055073214E8 ; 5.585589609836665E8 ; 3.0401777788843937E10 ; 0.0
160 ; 3418125.9459133716 ; 2.023985428107403E8 ; 5.619829703777589E8 ; 3.060416477939467E10 ; 0.0
161 ; 3410830.0020365696 ; 2.0241005864692795E8 ; 5.654010963236722E8 ; 3.080656332220541E10 ; 0.0
162 ; 3404750.248605321 ; 2.0242153778257698E8 ; 5.688119263257087E8 ; 3.1008973380852337E10 ; 0.0
163 ; 3399726.067161527 ; 2.024329799430864E8 ; 5.722166765743141E8 ; 3.1211394918634914E10 ; 0.0
164 ; 3393346.041422458 ; 2.024443848559342E8 ; 5.756164026414757E8 ; 3.1413827898578E10 ; 0.0
165 ; 3386628.672918997 ; 2.0245575225064075E8 ; 5.790097486828982E8 ; 3.1616272283433933E10 ; 0.0
166 ; 3380791.017884413 ; 2.0246708185873368E8 ; 5.823963773558172E8 ; 3.1818728035684574E10 ; 0.0
167 ; 3377341.926252611 ; 2.024783734137141E8 ; 5.857771683737016E8 ; 3.202119511754331E10 ; 0.0
168 ; 3367214.2090158975 ; 2.0248962665102437E8 ; 5.891545102999542E8 ; 3.2223673490957024E10 ; 0.0
169 ; 3363508.6773065524 ; 2.0250084130801693E8 ; 5.9252172450897E8 ; 3.2426163117608047E10 ; 0.0
170 ; 3359987.57870414 ; 2.0251201712392458E8 ; 5.958852331862766E8 ; 3.2628663958916065E10 ; 0.0
171 ; 3354543.5448446213 ; 2.0252315383983186E8 ; 5.992452207649807E8 ; 3.283117597603999E10 ; 0.0
172 ; 3347213.522640068 ; 2.0253425119864753E8 ; 6.025997643098253E8 ; 3.303369912987982E10 ; 0.0
173 ; 3340288.978138067 ; 2.0254530894507828E8 ; 6.059469778324654E8 ; 3.323623338107847E10 ; 0.0
174 ; 3338562.5904499674 ; 2.025563268256033E8 ; 6.092872668106035E8 ; 3.343877869002355E10 ; 0.0
175 ; 3331939.713136838 ; 2.0256730458845016E8 ; 6.126258294010534E8 ; 3.364133501684915E10 ; 0.0
176 ; 3328628.792625208 ; 2.025782419835712E8 ; 6.159577691141902E8 ; 3.3843902321437603E10 ; 0.0
177 ; 3325670.194335641 ; 2.0258913876262143E8 ; 6.192863979068154E8 ; 3.4046480563421173E10 ; 0.0
178 ; 3322672.533996552 ; 2.0259999467893672E8 ; 6.226120681011511E8 ; 3.4249069702183796E10 ; 0.0
179 ; 3319689.7297579856 ; 2.0261080948751333E8 ; 6.259347406351477E8 ; 3.445166969686273E10 ; 0.0
180 ; 3314094.5611310117 ; 2.0262158294498798E8 ; 6.292544303649057E8 ; 3.465428050635024E10 ; 0.0
181 ; 3308657.223006585 ; 2.026323148096188E8 ; 6.325685249260367E8 ; 3.485690208929523E10 ; 0.0
182 ; 3303705.5494112507 ; 2.0264300484126702E8 ; 6.358771821490433E8 ; 3.505953440410484E10 ; 0.0
183 ; 3298638.866555102 ; 2.0265365280137947E8 ; 6.391808876984546E8 ; 3.526217740894611E10 ; 0.0
184 ; 3296357.067034403 ; 2.026642584529716E8 ; 6.424795265650097E8 ; 3.546483106174749E10 ; 0.0
185 ; 3290237.0736851296 ; 2.026748215606113E8 ; 6.457758836320441E8 ; 3.566749532020046E10 ; 0.0
186 ; 3287116.233262023 ; 2.0268534189040348E8 ; 6.490661207057292E8 ; 3.587017014176107E10 ; 0.0
187 ; 3285623.3404642055 ; 2.0269581920997486E8 ; 6.523532369389913E8 ; 3.6072855483651474E10 ; 0.0
188 ; 3278674.1655680505 ; 2.0270625328845984E8 ; 6.556388602794555E8 ; 3.627555130286145E10 ; 0.0
189 ; 3276286.033852094 ; 2.027166438964867E8 ; 6.589175344450235E8 ; 3.647825755614991E10 ; 0.0
190 ; 3271714.219100184 ; 2.027269908061643E8 ; 6.621938204788756E8 ; 3.6680974200046394E10 ; 0.0
191 ; 3266759.703046679 ; 2.0273729379106942E8 ; 6.654655346979759E8 ; 3.688370119085256E10 ; 0.0
192 ; 3264505.9944587788 ; 2.0274755262623465E8 ; 6.687322944010226E8 ; 3.708643848464363E10 ; 0.0
193 ; 3260690.100443531 ; 2.0275776708813658E8 ; 6.719968003954813E8 ; 3.728918603726987E10 ; 0.0
194 ; 3256617.1604015273 ; 2.0276793695468467E8 ; 6.752574904959248E8 ; 3.7491943804358E10 ; 0.0
195 ; 3250287.3321134755 ; 2.0277806200521043E8 ; 6.785141076563264E8 ; 3.769471174131268E10 ; 0.0
196 ; 3248417.38834492 ; 2.027881420204571E8 ; 6.817643949884399E8 ; 3.7897489803317894E10 ; 0.0
197 ; 3237919.294269646 ; 2.0279817678256974E8 ; 6.850128123767848E8 ; 3.810027794533835E10 ; 0.0
198 ; 3237885.563640483 ; 2.028081660750858E8 ; 6.882507316710545E8 ; 3.830307612212092E10 ; 0.0
199 ; 3234498.0964169265 ; 2.0281810968292582E8 ; 6.91488617234695E8 ; 3.850588428819601E10 ; 0.0
200 ; 3231424.929093211 ; 2.0282800739238492E8 ; 6.947231153311119E8 ; 3.870870239787893E10 ; 0.0
