CSV File for the City 4 on Day 363
1 - Minute m 
2 - Power Consumed at minute m 
3 - Power Produced at minute m 
4 - Energy Consumed since the beginning of the day 
5 - Energy Produced since the beginning of the day 
6 - Energy Lost since the beginning of the day on lines starting from the city
 
0 ; 6811326.01791548 ; 1.0586931544331637E8 ; 0.0 ; 0.0 ; 0.0
1 ; 6815504.595050933 ; 1.0601940763587642E8 ; 6811326.01791548 ; 1.0586931544331637E8 ; 0.0
2 ; 6826229.317539223 ; 1.0647856441177228E8 ; 1.3626830612966413E7 ; 2.118887230791928E8 ; 0.0
3 ; 6831726.371510563 ; 1.0724679299079561E8 ; 2.0453059930505633E7 ; 3.1836728749096507E8 ; 0.0
4 ; 6843043.17450546 ; 1.0832409990866041E8 ; 2.72847863020162E7 ; 4.256140804817607E8 ; 0.0
5 ; 6857428.940716846 ; 1.0971049095934951E8 ; 3.4127829476521656E7 ; 5.339381803904211E8 ; 0.0
6 ; 6870813.824273985 ; 1.1140597114237055E8 ; 4.09852584172385E7 ; 6.436486713497705E8 ; 0.0
7 ; 6895221.106661543 ; 1.134105446160006E8 ; 4.785607224151249E7 ; 7.550546424921411E8 ; 0.0
8 ; 6927065.360316104 ; 1.157242146575141E8 ; 5.4751293348174036E7 ; 8.684651871081417E8 ; 0.0
9 ; 6976549.537161075 ; 1.1834698363126886E8 ; 6.167835870849014E7 ; 9.841894017656558E8 ; 0.0
10 ; 7056616.57950303 ; 1.2127885296536887E8 ; 6.865490824565122E7 ; 1.1025363853969245E9 ; 0.0
11 ; 7179011.14295742 ; 1.2451982313744172E8 ; 7.571152482515424E7 ; 1.2238152383622932E9 ; 0.0
12 ; 7377962.980148096 ; 1.280698936698598E8 ; 8.289053596811166E7 ; 1.3483350614997349E9 ; 0.0
13 ; 7567482.81957719 ; 1.319290631345191E8 ; 9.026849894825976E7 ; 1.4764049551695948E9 ; 0.0
14 ; 7589193.920483135 ; 1.3609732916706192E8 ; 9.783598176783694E7 ; 1.6083340183041139E9 ; 0.0
15 ; 7598584.57046719 ; 1.405746884902137E8 ; 1.0542517568832007E8 ; 1.7444313474711757E9 ; 0.0
16 ; 7606191.163962525 ; 1.4536113694569746E8 ; 1.1302376025878726E8 ; 1.8850060359613893E9 ; 0.0
17 ; 7616039.423016367 ; 1.504566695340055E8 ; 1.2062995142274979E8 ; 2.0303671729070868E9 ; 0.0
18 ; 7622974.963068502 ; 1.55861280461155E8 ; 1.2824599084576616E8 ; 2.1808238424410925E9 ; 0.0
19 ; 7633973.777477244 ; 1.6157496319143197E8 ; 1.3586896580883467E8 ; 2.3366851229022474E9 ; 0.0
20 ; 7642614.3893969795 ; 1.6759771050504473E8 ; 1.435029395863119E8 ; 2.4982600860936794E9 ; 0.0
21 ; 7652332.142313765 ; 1.7392951455956128E8 ; 1.5114555397570887E8 ; 2.6658577965987244E9 ; 0.0
22 ; 7659362.332329741 ; 1.8057036695399654E8 ; 1.5879788611802265E8 ; 2.8397873111582856E9 ; 0.0
23 ; 7669597.3591822665 ; 1.875202587944392E8 ; 1.664572484503524E8 ; 3.0203576781122823E9 ; 0.0
24 ; 7677642.760968047 ; 1.9477918076016188E8 ; 1.7412684580953467E8 ; 3.2078779369067216E9 ; 0.0
25 ; 7684941.317640632 ; 2.010351640674244E8 ; 1.8180448857050273E8 ; 3.4026571176668835E9 ; 0.0
26 ; 7692076.679461937 ; 2.0104174657061967E8 ; 1.8948942988814336E8 ; 3.603692281734308E9 ; 0.0
27 ; 7703087.206362398 ; 2.0104868734929475E8 ; 1.971815065676053E8 ; 3.8047340283049273E9 ; 0.0
28 ; 7713577.7693986315 ; 2.010559760142633E8 ; 2.0488459377396768E8 ; 4.005782715654222E9 ; 0.0
29 ; 7723453.818517975 ; 2.0106360205689207E8 ; 2.125981715433663E8 ; 4.206838691668485E9 ; 0.0
30 ; 7729114.16231666 ; 2.010715549014426E8 ; 2.203216253618843E8 ; 4.407902293725377E9 ; 0.0
31 ; 7736708.380283561 ; 2.0107982395342794E8 ; 2.2805073952420095E8 ; 4.60897384862682E9 ; 0.0
32 ; 7746304.284289174 ; 2.0108839864380574E8 ; 2.357874479044845E8 ; 4.810053672580248E9 ; 0.0
33 ; 7751860.312863748 ; 2.0109726846892458E8 ; 2.435337521887737E8 ; 5.011142071224053E9 ; 0.0
34 ; 7761026.815729937 ; 2.0110642302622566E8 ; 2.5128561250163743E8 ; 5.212239339692978E9 ; 0.0
35 ; 7765305.888581667 ; 2.0111585204577175E8 ; 2.5904663931736737E8 ; 5.413345762719204E9 ; 0.0
36 ; 7776276.230420152 ; 2.0112554541773638E8 ; 2.6681194520594904E8 ; 5.614461614764976E9 ; 0.0
37 ; 7781981.55285124 ; 2.011354932160311E8 ; 2.745882214363692E8 ; 5.815587160182712E9 ; 0.0
38 ; 7788960.045215608 ; 2.011456857182863E8 ; 2.8237020298922044E8 ; 6.016722653398743E9 ; 0.0
39 ; 7795824.241672951 ; 2.0115611342242438E8 ; 2.9015916303443605E8 ; 6.217868339117029E9 ; 0.0
40 ; 7799644.213159634 ; 2.011667670600822E8 ; 2.97954987276109E8 ; 6.4190244525394535E9 ; 0.0
41 ; 7805988.911203188 ; 2.011776376071468E8 ; 3.057546314892686E8 ; 6.620191219599536E9 ; 0.0
42 ; 7809708.914078332 ; 2.011887162916712E8 ; 3.135606204004718E8 ; 6.821368857206683E9 ; 0.0
43 ; 7815749.939112934 ; 2.0119999459943265E8 ; 3.2137032931455016E8 ; 7.022557573498354E9 ; 0.0
44 ; 7820089.079817 ; 2.0121146427738926E8 ; 3.291860792536631E8 ; 7.223757568097787E9 ; 0.0
45 ; 7825566.607464672 ; 2.012231173352779E8 ; 3.370061683334801E8 ; 7.424969032375176E9 ; 0.0
46 ; 7828784.12944917 ; 2.0123494604558492E8 ; 3.448317349409448E8 ; 7.626192149710454E9 ; 0.0
47 ; 7832003.542435993 ; 2.01246942942105E8 ; 3.52660519070394E8 ; 7.827427095756039E9 ; 0.0
48 ; 7837793.852553485 ; 2.012591008172869E8 ; 3.6049252261283E8 ; 8.028674038698144E9 ; 0.0
49 ; 7836241.321840712 ; 2.0127141271855035E8 ; 3.6833031646538347E8 ; 8.22993313951543E9 ; 0.0
50 ; 7842280.958637672 ; 2.0128387194373962E8 ; 3.761665577872242E8 ; 8.431204552233981E9 ; 0.0
51 ; 7844932.6042623455 ; 2.0129647203586474E8 ; 3.840088387458618E8 ; 8.632488424177721E9 ; 0.0
52 ; 7846338.720675422 ; 2.0130920677726516E8 ; 3.918537713501242E8 ; 8.833784896213585E9 ; 0.0
53 ; 7845931.0958575355 ; 2.0132207018331596E8 ; 3.997001100707996E8 ; 9.03509410299085E9 ; 0.0
54 ; 7851752.435686357 ; 2.0133505649578267E8 ; 4.0754604116665715E8 ; 9.236416173174166E9 ; 0.0
55 ; 7849675.654719086 ; 2.0134816017591846E8 ; 4.153977936023435E8 ; 9.437751229669949E9 ; 0.0
56 ; 7853432.04242415 ; 2.0136137589738432E8 ; 4.232474692570626E8 ; 9.639099389845867E9 ; 0.0
57 ; 7854383.43236107 ; 2.0137469853906378E8 ; 4.3110090129948676E8 ; 9.840460765743252E9 ; 0.0
58 ; 7858169.07120821 ; 2.0138812317783204E8 ; 4.389552847318478E8 ; 1.0041835464282316E10 ; 0.0
59 ; 7859561.7158709895 ; 2.0140164508133128E8 ; 4.4681345380305606E8 ; 1.0243223587460148E10 ; 0.0
60 ; 7858687.428339482 ; 2.0141525970079646E8 ; 4.5467301551892704E8 ; 1.044462523254148E10 ; 0.0
61 ; 7862828.071114817 ; 2.0142896266396752E8 ; 4.625317029472665E8 ; 1.0646040492242275E10 ; 0.0
62 ; 7863362.018931559 ; 2.0144274976811898E8 ; 4.7039453101838136E8 ; 1.0847469454906242E10 ; 0.0
63 ; 7865186.480203034 ; 2.0145661697323087E8 ; 4.782578930373129E8 ; 1.1048912204674362E10 ; 0.0
64 ; 7866148.4942017635 ; 2.014705603953216E8 ; 4.8612307951751596E8 ; 1.1250368821647593E10 ; 0.0
65 ; 7868595.753631376 ; 2.0148457629995805E8 ; 4.9398922801171774E8 ; 1.1451839382042913E10 ; 0.0
66 ; 7868905.001849974 ; 2.0149866109595445E8 ; 5.018578237653491E8 ; 1.165332395834287E10 ; 0.0
67 ; 7869510.155090405 ; 2.0151281132926944E8 ; 5.0972672876719904E8 ; 1.1854822619438826E10 ; 0.0
68 ; 7872755.046634449 ; 2.0152702367710668E8 ; 5.1759623892228943E8 ; 1.2056335430768095E10 ; 0.0
69 ; 7874288.304638611 ; 2.015412949422227E8 ; 5.2546899396892387E8 ; 1.2257862454445202E10 ; 0.0
70 ; 7872377.226303893 ; 2.0155562204744408E8 ; 5.333432822735625E8 ; 1.2459403749387424E10 ; 0.0
71 ; 7874085.051848504 ; 2.015700020303932E8 ; 5.412156594998664E8 ; 1.2660959371434868E10 ; 0.0
72 ; 7871850.965655339 ; 2.0158443203842166E8 ; 5.490897445517149E8 ; 1.2862529373465261E10 ; 0.0
73 ; 7876622.6787538575 ; 2.0159890932374862E8 ; 5.569615955173702E8 ; 1.3064113805503683E10 ; 0.0
74 ; 7874122.221452875 ; 2.0161343123880044E8 ; 5.648382181961241E8 ; 1.3265712714827433E10 ; 0.0
75 ; 7876992.511070876 ; 2.016279952317473E8 ; 5.727123404175769E8 ; 1.3467326146066233E10 ; 0.0
76 ; 7875983.742970792 ; 2.0164259884223232E8 ; 5.805893329286478E8 ; 1.366895414129798E10 ; 0.0
77 ; 7876359.34566382 ; 2.01657239697287E8 ; 5.884653166716186E8 ; 1.3870596740140211E10 ; 0.0
78 ; 7876181.63612262 ; 2.016719155074282E8 ; 5.963416760172824E8 ; 1.4072253979837498E10 ; 0.0
79 ; 7876299.048568963 ; 2.0168662406293005E8 ; 6.04217857653405E8 ; 1.4273925895344927E10 ; 0.0
80 ; 7871086.975023956 ; 2.0170136323026484E8 ; 6.120941567019739E8 ; 1.4475612519407856E10 ; 0.0
81 ; 7870677.784335608 ; 2.0171613094870695E8 ; 6.199652436769979E8 ; 1.467731388263812E10 ; 0.0
82 ; 7868238.8059316585 ; 2.0173092522709307E8 ; 6.278359214613335E8 ; 1.4879030013586828E10 ; 0.0
83 ; 7868305.636527957 ; 2.017457441407329E8 ; 6.357041602672652E8 ; 1.5080760938813921E10 ; 0.0
84 ; 7864760.388043482 ; 2.0176058582846406E8 ; 6.435724659037932E8 ; 1.5282506682954655E10 ; 0.0
85 ; 7859852.396578732 ; 2.0177544848984492E8 ; 6.514372262918367E8 ; 1.548426726878312E10 ; 0.0
86 ; 7857825.686446303 ; 2.0179033038247976E8 ; 6.592970786884155E8 ; 1.5686042717272964E10 ; 0.0
87 ; 7856074.066088336 ; 2.0180522981947008E8 ; 6.671549043748618E8 ; 1.5887833047655445E10 ; 0.0
88 ; 7856050.256974297 ; 2.018201451669866E8 ; 6.750109784409502E8 ; 1.6089638277474915E10 ; 0.0
89 ; 7851060.6731769005 ; 2.018350748419566E8 ; 6.828670286979245E8 ; 1.6291458422641901E10 ; 0.0
90 ; 7846623.527753197 ; 2.0185001730986062E8 ; 6.907180893711014E8 ; 1.6493293497483858E10 ; 0.0
91 ; 7844282.368753722 ; 2.018649710826345E8 ; 6.985647128988546E8 ; 1.6695143514793718E10 ; 0.0
92 ; 7842683.359412885 ; 2.0187993471667078E8 ; 7.064089952676083E8 ; 1.6897008485876352E10 ; 0.0
93 ; 7837423.982310086 ; 2.0189490681091532E8 ; 7.142516786270212E8 ; 1.7098888420593023E10 ; 0.0
94 ; 7836483.447385505 ; 2.0190988600505418E8 ; 7.220891026093313E8 ; 1.730078332740394E10 ; 0.0
95 ; 7830630.306625905 ; 2.0192487097778702E8 ; 7.299255860567168E8 ; 1.7502693213408993E10 ; 0.0
96 ; 7829301.886785688 ; 2.0193986044518203E8 ; 7.377562163633428E8 ; 1.770461808438678E10 ; 0.0
97 ; 7825115.879828109 ; 2.0195485315910894E8 ; 7.455855182501285E8 ; 1.7906557944831963E10 ; 0.0
98 ; 7822363.840823745 ; 2.019698479057464E8 ; 7.534106341299566E8 ; 1.810851279799107E10 ; 0.0
99 ; 7818160.96943389 ; 2.019848435041594E8 ; 7.612329979707804E8 ; 1.8310482645896816E10 ; 0.0
100 ; 7814886.018200719 ; 2.0199983880494407E8 ; 7.690511589402143E8 ; 1.8512467489400974E10 ; 0.0
101 ; 7812020.371802921 ; 2.0201483268893602E8 ; 7.76866044958415E8 ; 1.8714467328205917E10 ; 0.0
102 ; 7806438.348771728 ; 2.0202982406597942E8 ; 7.84678065330218E8 ; 1.891648216089485E10 ; 0.0
103 ; 7805362.551731005 ; 2.0204481187375325E8 ; 7.924845036789896E8 ; 1.911851198496083E10 ; 0.0
104 ; 7799799.141074998 ; 2.0205979507665277E8 ; 8.002898662307206E8 ; 1.9320556796834583E10 ; 0.0
105 ; 7798171.089999515 ; 2.0207477266472262E8 ; 8.080896653717957E8 ; 1.9522616591911236E10 ; 0.0
106 ; 7792799.882189699 ; 2.0208974365263963E8 ; 8.158878364617952E8 ; 1.972469136457596E10 ; 0.0
107 ; 7790810.411506788 ; 2.0210470707874224E8 ; 8.23680636343985E8 ; 1.99267811082286E10 ; 0.0
108 ; 7786337.985467 ; 2.0211966200410503E8 ; 8.314714467554917E8 ; 2.0128885815307343E10 ; 0.0
109 ; 7780685.876788834 ; 2.021346075116554E8 ; 8.392577847409587E8 ; 2.0331005477311447E10 ; 0.0
110 ; 7776361.987709594 ; 2.0214954270533064E8 ; 8.470384706177475E8 ; 2.05331400848231E10 ; 0.0
111 ; 7769148.543806462 ; 2.021644667092736E8 ; 8.548148326054572E8 ; 2.073528962752843E10 ; 0.0
112 ; 7770228.220602196 ; 2.021793786670645E8 ; 8.625839811492636E8 ; 2.0937454094237705E10 ; 0.0
113 ; 7763367.799318827 ; 2.0219427774098763E8 ; 8.703542093698658E8 ; 2.113963347290477E10 ; 0.0
114 ; 7758609.616588455 ; 2.0220916311133114E8 ; 8.781175771691846E8 ; 2.1341827750645756E10 ; 0.0
115 ; 7757658.636232557 ; 2.02224033975718E8 ; 8.85876186785773E8 ; 2.1544036913757088E10 ; 0.0
116 ; 7750864.341518023 ; 2.0223888954846698E8 ; 8.936338454220057E8 ; 2.1746260947732807E10 ; 0.0
117 ; 7745788.152769858 ; 2.0225372905998188E8 ; 9.013847097635237E8 ; 2.1948499837281273E10 ; 0.0
118 ; 7738617.141572416 ; 2.02268551756168E8 ; 9.091304979162935E8 ; 2.2150753566341255E10 ; 0.0
119 ; 7736706.899857594 ; 2.0228335689787412E8 ; 9.168691150578659E8 ; 2.2353022118097424E10 ; 0.0
120 ; 7733106.957948873 ; 2.0229814376035905E8 ; 9.246058219577235E8 ; 2.2555305474995296E10 ; 0.0
121 ; 7726210.536979893 ; 2.023129116327816E8 ; 9.323389289156724E8 ; 2.2757603618755657E10 ; 0.0
122 ; 7719601.248769659 ; 2.023276598177125E8 ; 9.400651394526523E8 ; 2.295991653038844E10 ; 0.0
123 ; 7715506.905934187 ; 2.0234238763066772E8 ; 9.47784740701422E8 ; 2.316224419020615E10 ; 0.0
124 ; 7708663.874612797 ; 2.0235709439966172E8 ; 9.555002476073562E8 ; 2.336458657783682E10 ; 0.0
125 ; 7703556.625872423 ; 2.0237177946477994E8 ; 9.63208911481969E8 ; 2.356694367223648E10 ; 0.0
126 ; 7701570.110373938 ; 2.023864421777697E8 ; 9.709124681078414E8 ; 2.376931545170126E10 ; 0.0
127 ; 7691753.684553507 ; 2.0240108190164822E8 ; 9.786140382182153E8 ; 2.397170189387903E10 ; 0.0
128 ; 7688139.638249582 ; 2.0241569801032758E8 ; 9.863057919027689E8 ; 2.4174102975780678E10 ; 0.0
129 ; 7680647.7785658175 ; 2.024302898882552E8 ; 9.939939315410185E8 ; 2.4376518673791004E10 ; 0.0
130 ; 7674449.885074344 ; 2.0244485693006974E8 ; 1.0016745793195843E9 ; 2.457894896367926E10 ; 0.0
131 ; 7667614.9490165915 ; 2.0245939854027098E8 ; 1.0093490292046586E9 ; 2.478139382060933E10 ; 0.0
132 ; 7661158.789260457 ; 2.0247391413290378E8 ; 1.0170166441536752E9 ; 2.49838532191496E10 ; 0.0
133 ; 7652566.172848881 ; 2.0248840313125512E8 ; 1.0246778029429357E9 ; 2.5186327133282505E10 ; 0.0
134 ; 7641960.229207618 ; 2.0250286496756333E8 ; 1.0323303691157846E9 ; 2.538881553641376E10 ; 0.0
135 ; 7634856.194124588 ; 2.025172990827396E8 ; 1.0399723293449923E9 ; 2.5591318401381325E10 ; 0.0
136 ; 7629429.197595618 ; 2.025317049261008E8 ; 1.0476071855391169E9 ; 2.5793835700464066E10 ; 0.0
137 ; 7616601.530419612 ; 2.0254608195511296E8 ; 1.0552366147367125E9 ; 2.5996367405390167E10 ; 0.0
138 ; 7610283.141786211 ; 2.0256042963514546E8 ; 1.062853216267132E9 ; 2.619891348734528E10 ; 0.0
139 ; 7602979.30765525 ; 2.0257474743923497E8 ; 1.0704634994089183E9 ; 2.6401473916980427E10 ; 0.0
140 ; 7592856.998524918 ; 2.0258903484785882E8 ; 1.0780664787165735E9 ; 2.6604048664419662E10 ; 0.0
141 ; 7583073.891226452 ; 2.026032913487176E8 ; 1.0856593357150984E9 ; 2.680663769926752E10 ; 0.0
142 ; 7576556.103478528 ; 2.0261751643652636E8 ; 1.093242409606325E9 ; 2.7009240990616238E10 ; 0.0
143 ; 7566700.220848804 ; 2.0263170961281398E8 ; 1.1008189657098033E9 ; 2.7211858507052765E10 ; 0.0
144 ; 7556694.783631497 ; 2.0264587038573065E8 ; 1.1083856659306521E9 ; 2.741449021666558E10 ; 0.0
145 ; 7552423.867168568 ; 2.0265999826986274E8 ; 1.1159423607142837E9 ; 2.761713608705131E10 ; 0.0
146 ; 7543955.004724503 ; 2.026740927860551E8 ; 1.1234947845814524E9 ; 2.7819796085321175E10 ; 0.0
147 ; 7536868.944014634 ; 2.0268815346124014E8 ; 1.1310387395861769E9 ; 2.802247017810723E10 ; 0.0
148 ; 7531510.532259998 ; 2.0270217982827362E8 ; 1.1385756085301914E9 ; 2.822515833156847E10 ; 0.0
149 ; 7526485.6930540865 ; 2.0271617142577687E8 ; 1.1461071190624514E9 ; 2.8427860511396744E10 ; 0.0
150 ; 7521428.223289612 ; 2.0273012779798484E8 ; 1.1536336047555056E9 ; 2.863057668282252E10 ; 0.0
151 ; 7513575.103472897 ; 2.027440484946003E8 ; 1.1611550329787953E9 ; 2.8833306810620506E10 ; 0.0
152 ; 7506508.361502027 ; 2.0275793307065338E8 ; 1.1686686080822682E9 ; 2.9036050859115105E10 ; 0.0
153 ; 7501918.113350253 ; 2.0277178108636656E8 ; 1.1761751164437702E9 ; 2.9238808792185757E10 ; 0.0
154 ; 7495219.288647927 ; 2.027855921070247E8 ; 1.1836770345571203E9 ; 2.944158057327212E10 ; 0.0
155 ; 7489134.756142664 ; 2.0279936570285016E8 ; 1.1911722538457682E9 ; 2.9644366165379147E10 ; 0.0
156 ; 7480507.662559035 ; 2.0281310144888237E8 ; 1.1986613886019108E9 ; 2.9847165531081997E10 ; 0.0
157 ; 7477612.922495473 ; 2.0282679892486206E8 ; 1.2061418962644699E9 ; 3.004997863253088E10 ; 0.0
158 ; 7468191.40950603 ; 2.028404577151199E8 ; 1.2136195091869652E9 ; 3.025280543145574E10 ; 0.0
159 ; 7461478.914908863 ; 2.0285407740846905E8 ; 1.2210877005964713E9 ; 3.045564588917086E10 ; 0.0
160 ; 7455261.256807985 ; 2.0286765759810188E8 ; 1.2285491795113802E9 ; 3.065849996657933E10 ; 0.0
161 ; 7449874.037242979 ; 2.0288119788149044E8 ; 1.2360044407681882E9 ; 3.0861367624177433E10 ; 0.0
162 ; 7441578.417254502 ; 2.028946978602906E8 ; 1.2434543148054311E9 ; 3.106424882205892E10 ; 0.0
163 ; 7435375.958644943 ; 2.029081571402497E8 ; 1.2508958932226856E9 ; 3.1267143519919212E10 ; 0.0
164 ; 7429427.818824163 ; 2.0292157533111763E8 ; 1.2583312691813304E9 ; 3.1470051677059464E10 ; 0.0
165 ; 7423937.063787447 ; 2.0293495204656106E8 ; 1.2657606970001545E9 ; 3.167297325239058E10 ; 0.0
166 ; 7413626.02748867 ; 2.029482869040808E8 ; 1.273184634063942E9 ; 3.187590820443714E10 ; 0.0
167 ; 7407964.472445173 ; 2.029615795249323E8 ; 1.2805982600914307E9 ; 3.207885649134122E10 ; 0.0
168 ; 7401880.959683446 ; 2.029748295340487E8 ; 1.288006224563876E9 ; 3.2281818070866154E10 ; 0.0
169 ; 7395879.42014023 ; 2.0298803655996707E8 ; 1.2954081055235593E9 ; 3.2484792900400204E10 ; 0.0
170 ; 7387262.423892843 ; 2.0300120023475692E8 ; 1.3028039849436996E9 ; 3.268778093696017E10 ; 0.0
171 ; 7379617.259062844 ; 2.0301432019395146E8 ; 1.3101912473675923E9 ; 3.2890782137194927E10 ; 0.0
172 ; 7372186.741485865 ; 2.0302739607648128E8 ; 1.317570864626655E9 ; 3.3093796457388878E10 ; 0.0
173 ; 7367281.455421439 ; 2.0304042752461034E8 ; 1.324943051368141E9 ; 3.329682385346536E10 ; 0.0
174 ; 7362936.631293432 ; 2.0305341418387428E8 ; 1.3323103328235624E9 ; 3.3499864280989967E10 ; 0.0
175 ; 7358805.719636895 ; 2.0306635570302087E8 ; 1.339673269454856E9 ; 3.3702917695173843E10 ; 0.0
176 ; 7356187.753253931 ; 2.0307925173395264E8 ; 1.3470320751744928E9 ; 3.3905984050876865E10 ; 0.0
177 ; 7350032.196972486 ; 2.0309210193167132E8 ; 1.3543882629277468E9 ; 3.4109063302610817E10 ; 0.0
178 ; 7347288.522329302 ; 2.0310490595422456E8 ; 1.3617382951247191E9 ; 3.431215540454249E10 ; 0.0
179 ; 7342868.8545947615 ; 2.0311766346265414E8 ; 1.3690855836470485E9 ; 3.451526031049671E10 ; 0.0
180 ; 7338150.10645019 ; 2.0313037412094632E8 ; 1.3764284525016432E9 ; 3.4718377973959366E10 ; 0.0
181 ; 7332851.821973828 ; 2.0314303759598362E8 ; 1.3837666026080933E9 ; 3.4921508348080315E10 ; 0.0
182 ; 7329386.461234634 ; 2.031556535574986E8 ; 1.391099454430067E9 ; 3.51246513856763E10 ; 0.0
183 ; 7327263.527895816 ; 2.0316822167802882E8 ; 1.3984288408913016E9 ; 3.5327807039233795E10 ; 0.0
184 ; 7316793.859855217 ; 2.0318074163287377E8 ; 1.4057561044191976E9 ; 3.553097526091183E10 ; 0.0
185 ; 7316357.228402711 ; 2.0319321310005313E8 ; 1.4130728982790527E9 ; 3.57341560025447E10 ; 0.0
186 ; 7309364.601040397 ; 2.032056357602663E8 ; 1.4203892555074553E9 ; 3.593734921564475E10 ; 0.0
187 ; 7307236.8236818975 ; 2.032180092968535E8 ; 1.4276986201084957E9 ; 3.614055485140502E10 ; 0.0
188 ; 7304472.189656727 ; 2.0323033339575836E8 ; 1.4350058569321775E9 ; 3.634377286070187E10 ; 0.0
189 ; 7299912.412093662 ; 2.0324260774549127E8 ; 1.4423103291218343E9 ; 3.654700319409763E10 ; 0.0
190 ; 7295058.058681618 ; 2.0325483203709456E8 ; 1.449610241533928E9 ; 3.6750245801843124E10 ; 0.0
191 ; 7290581.967624124 ; 2.0326700596410853E8 ; 1.4569052995926096E9 ; 3.695350063388022E10 ; 0.0
192 ; 7285590.253125787 ; 2.032791292225387E8 ; 1.4641958815602338E9 ; 3.715676763984433E10 ; 0.0
193 ; 7284524.367409645 ; 2.0329120151082423E8 ; 1.4714814718133597E9 ; 3.736004676906687E10 ; 0.0
194 ; 7278164.210429809 ; 2.0330322252980736E8 ; 1.4787659961807694E9 ; 3.75633379705777E10 ; 0.0
195 ; 7275436.776460053 ; 2.0331519198270386E8 ; 1.4860441603911994E9 ; 3.7766641193107506E10 ; 0.0
196 ; 7268987.128508763 ; 2.033271095750746E8 ; 1.4933195971676595E9 ; 3.796995638509021E10 ; 0.0
197 ; 7266325.650985171 ; 2.03338975014798E8 ; 1.5005885842961683E9 ; 3.817328349466528E10 ; 0.0
198 ; 7262484.193640756 ; 2.0335078801204318E8 ; 1.5078549099471536E9 ; 3.8376622469680084E10 ; 0.0
199 ; 7255037.373402668 ; 2.0336254827924463E8 ; 1.5151173941407943E9 ; 3.857997325769213E10 ; 0.0
200 ; 7253127.424882319 ; 2.016746054372582E8 ; 1.5223724315141969E9 ; 3.8783335805971375E10 ; 0.0
201 ; 7245662.320709519 ; 1.545459162655756E8 ; 1.5296255589390793E9 ; 3.898501041140863E10 ; 0.0
