CSV File for the City 4 on Day 338
1 - Minute m 
2 - Power Consumed at minute m 
3 - Power Produced at minute m 
4 - Energy Consumed since the beginning of the day 
5 - Energy Produced since the beginning of the day 
6 - Energy Lost since the beginning of the day on lines starting from the city
 
0 ; 6852091.743945784 ; 1.0655137687126431E8 ; 0.0 ; 0.0 ; 0.0
1 ; 6857361.715300946 ; 1.0670189965598798E8 ; 6852091.743945784 ; 1.0655137687126431E8 ; 0.0
2 ; 6864104.911145165 ; 1.0716145460404E8 ; 1.3709453459246729E7 ; 2.132532765272523E8 ; 0.0
3 ; 6875962.317289328 ; 1.079300448670314E8 ; 2.0573558370391894E7 ; 3.204147311312923E8 ; 0.0
4 ; 6884819.234214136 ; 1.090076732582882E8 ; 2.744952068768122E7 ; 4.283447759983237E8 ; 0.0
5 ; 6897898.343788365 ; 1.1039434224105221E8 ; 3.4334339921895355E7 ; 5.373524492566118E8 ; 0.0
6 ; 6913442.621225876 ; 1.1209005391800222E8 ; 4.123223826568372E7 ; 6.47746791497664E8 ; 0.0
7 ; 6934469.118771273 ; 1.1409481002220017E8 ; 4.81456808869096E7 ; 7.598368454156662E8 ; 0.0
8 ; 6969106.776677594 ; 1.1640861190955287E8 ; 5.508015000568087E7 ; 8.739316554378664E8 ; 0.0
9 ; 7018762.441263307 ; 1.1903146055286604E8 ; 6.204925678235846E7 ; 9.903402673474193E8 ; 0.0
10 ; 7096632.143890801 ; 1.2196335653755248E8 ; 6.906801922362177E7 ; 1.1093717279002852E9 ; 0.0
11 ; 7221218.216189098 ; 1.252043000590389E8 ; 7.616465136751257E7 ; 1.2313350844378376E9 ; 0.0
12 ; 7416831.757290569 ; 1.2875429092189857E8 ; 8.338586958370167E7 ; 1.3565393844968765E9 ; 0.0
13 ; 7610799.456159966 ; 1.3261332854071867E8 ; 9.080270134099224E7 ; 1.485293675418775E9 ; 0.0
14 ; 7629314.483264627 ; 1.367814119426936E8 ; 9.84135007971522E7 ; 1.6179070039594936E9 ; 0.0
15 ; 7643225.500358822 ; 1.412585397719164E8 ; 1.0604281528041683E8 ; 1.7546884159021873E9 ; 0.0
16 ; 7651565.74919131 ; 1.4604471029532525E8 ; 1.1368604078077565E8 ; 1.8959469556741037E9 ; 0.0
17 ; 7658567.74371076 ; 1.5113992141024128E8 ; 1.2133760652996697E8 ; 2.041991665969429E9 ; 0.0
18 ; 7668473.011868723 ; 1.565441706534227E8 ; 1.2899617427367772E8 ; 2.19313158737967E9 ; 0.0
19 ; 7679601.352217432 ; 1.6225745521154353E8 ; 1.3666464728554645E8 ; 2.349675758033093E9 ; 0.0
20 ; 7685842.38863905 ; 1.6827977193299267E8 ; 1.443442486377639E8 ; 2.5119332132446365E9 ; 0.0
21 ; 7693976.833530809 ; 1.7461111734088036E8 ; 1.5203009102640295E8 ; 2.680212985177629E9 ; 0.0
22 ; 7704708.064541978 ; 1.8125148764712763E8 ; 1.5972406785993376E8 ; 2.8548241025185094E9 ; 0.0
23 ; 7715081.176958644 ; 1.8820087876750928E8 ; 1.6742877592447573E8 ; 3.036075590165637E9 ; 0.0
24 ; 7724648.395670352 ; 1.9545928633751607E8 ; 1.7514385710143438E8 ; 3.2242764689331465E9 ; 0.0
25 ; 7731640.74789225 ; 2.017147466270824E8 ; 1.8286850549710473E8 ; 3.4197357552706623E9 ; 0.0
26 ; 7738122.90414977 ; 2.0172080259457025E8 ; 1.90600146244997E8 ; 3.6214505018977447E9 ; 0.0
27 ; 7746815.863821467 ; 2.0172721842916757E8 ; 1.9833826914914677E8 ; 3.823171304492315E9 ; 0.0
28 ; 7757723.54049771 ; 2.0173398881543013E8 ; 2.0608508501296824E8 ; 4.0248985229214826E9 ; 0.0
29 ; 7767934.7732269615 ; 2.0174110824444032E8 ; 2.1384280855346596E8 ; 4.2266325117369127E9 ; 0.0
30 ; 7773806.2402281305 ; 2.0174857103174257E8 ; 2.2161074332669294E8 ; 4.428373619981353E9 ; 0.0
31 ; 7783401.56587333 ; 2.017563713351839E8 ; 2.2938454956692106E8 ; 4.630122191013096E9 ; 0.0
32 ; 7791558.024041659 ; 2.0176450317255208E8 ; 2.3716795113279438E8 ; 4.83187856234828E9 ; 0.0
33 ; 7800706.259189807 ; 2.0177296043891227E8 ; 2.4495950915683603E8 ; 5.033643065520832E9 ; 0.0
34 ; 7805990.485584267 ; 2.0178173692355216E8 ; 2.5276021541602585E8 ; 5.235416025959744E9 ; 0.0
35 ; 7814384.964167782 ; 2.0179082632645643E8 ; 2.605662059016101E8 ; 5.437197762883297E9 ; 0.0
36 ; 7822034.737542515 ; 2.0180022227423993E8 ; 2.6838059086577788E8 ; 5.638988589209753E9 ; 0.0
37 ; 7831461.160840948 ; 2.0180991833548033E8 ; 2.762026256033204E8 ; 5.840788811483993E9 ; 0.0
38 ; 7836142.549162985 ; 2.0181990803539962E8 ; 2.8403408676416135E8 ; 6.042598729819473E9 ; 0.0
39 ; 7842986.744572387 ; 2.018301848698539E8 ; 2.9187022931332433E8 ; 6.244418637854873E9 ; 0.0
40 ; 7849535.7660446055 ; 2.0184074231860045E8 ; 2.9971321605789673E8 ; 6.446248822724727E9 ; 0.0
41 ; 7853435.1691991715 ; 2.018515738578183E8 ; 3.0756275182394135E8 ; 6.648089565043327E9 ; 0.0
42 ; 7862832.954891187 ; 2.018626729718682E8 ; 3.154161869931405E8 ; 6.849941138901146E9 ; 0.0
43 ; 7866527.741569231 ; 2.0187403316428375E8 ; 3.232790199480317E8 ; 7.051803811873014E9 ; 0.0
44 ; 7872402.833440144 ; 2.0188564796799386E8 ; 3.3114554768960094E8 ; 7.253677845037298E9 ; 0.0
45 ; 7872495.4490917465 ; 2.0189751095478073E8 ; 3.3901795052304107E8 ; 7.455563493005292E9 ; 0.0
46 ; 7881154.209152394 ; 2.019096157439849E8 ; 3.468904459721328E8 ; 7.6574610039600725E9 ; 0.0
47 ; 7883836.651686565 ; 2.0192195601047236E8 ; 3.547716001812852E8 ; 7.859370619704058E9 ; 0.0
48 ; 7885068.1519619385 ; 2.0193452549188307E8 ; 3.6265543683297175E8 ; 8.06129257571453E9 ; 0.0
49 ; 7892393.085338903 ; 2.0194731799518389E8 ; 3.705405049849337E8 ; 8.263227101206413E9 ; 0.0
50 ; 7894326.7305826 ; 2.0196032740255144E8 ; 3.7843289807027256E8 ; 8.465174419201597E9 ; 0.0
51 ; 7897809.0486602625 ; 2.0197354767661262E8 ; 3.8632722480085516E8 ; 8.667134746604149E9 ; 0.0
52 ; 7897953.087788494 ; 2.0198697286507264E8 ; 3.9422503384951544E8 ; 8.869108294280762E9 ; 0.0
53 ; 7901241.386421765 ; 2.0200059710476097E8 ; 4.0212298693730396E8 ; 9.071095267145834E9 ; 0.0
54 ; 7905658.953650536 ; 2.0201441462512752E8 ; 4.100242283237257E8 ; 9.273095864250595E9 ; 0.0
55 ; 7907628.1518141 ; 2.0202841975122023E8 ; 4.1792988727737623E8 ; 9.475110278875723E9 ; 0.0
56 ; 7910062.84534162 ; 2.0204260690617716E8 ; 4.2583751542919034E8 ; 9.677138698626944E9 ; 0.0
57 ; 7911109.206775626 ; 2.020569706132644E8 ; 4.3374757827453196E8 ; 9.879181305533121E9 ; 0.0
58 ; 7912675.068037781 ; 2.0207150549749187E8 ; 4.4165868748130757E8 ; 1.0081238276146385E10 ; 0.0
59 ; 7915301.066799066 ; 2.0208620628683728E8 ; 4.495713625493454E8 ; 1.0283309781643877E10 ; 0.0
60 ; 7918970.49002648 ; 2.02101067813109E8 ; 4.574866636161444E8 ; 1.0485395987930714E10 ; 0.0
61 ; 7919922.015859354 ; 2.0211608501247644E8 ; 4.654056341061709E8 ; 1.0687497055743822E10 ; 0.0
62 ; 7921367.597377408 ; 2.0213125292569575E8 ; 4.7332555612203026E8 ; 1.0889613140756298E10 ; 0.0
63 ; 7925315.886672491 ; 2.021465666980581E8 ; 4.812469237194077E8 ; 1.1091744393681993E10 ; 0.0
64 ; 7925369.148624003 ; 2.0216202157908577E8 ; 4.891722396060802E8 ; 1.129389096038005E10 ; 0.0
65 ; 7926741.276748227 ; 2.0217761292200005E8 ; 4.970976087547042E8 ; 1.1496052981959137E10 ; 0.0
66 ; 7927852.370733247 ; 2.0219333618298405E8 ; 5.050243500314524E8 ; 1.1698230594881138E10 ; 0.0
67 ; 7929512.903145328 ; 2.0220918692026222E8 ; 5.129522024021857E8 ; 1.1900423931064121E10 ; 0.0
68 ; 7932829.400784047 ; 2.0222516079301593E8 ; 5.20881715305331E8 ; 1.2102633117984383E10 ; 0.0
69 ; 7935243.710981447 ; 2.0224125356015524E8 ; 5.2881454470611507E8 ; 1.23048582787774E10 ; 0.0
70 ; 7932350.364578559 ; 2.0225746107896325E8 ; 5.367497884170965E8 ; 1.2507099532337555E10 ; 0.0
71 ; 7935446.258994775 ; 2.022737793036303E8 ; 5.446821387816751E8 ; 1.2709356993416517E10 ; 0.0
72 ; 7937993.373745359 ; 2.0229020428369263E8 ; 5.526175850406699E8 ; 1.2911630772720148E10 ; 0.0
73 ; 7940449.349912501 ; 2.0230673216239005E8 ; 5.605555784144152E8 ; 1.3113920977003841E10 ; 0.0
74 ; 7941046.603021764 ; 2.0232335917495486E8 ; 5.684960277643278E8 ; 1.3316227709166231E10 ; 0.0
75 ; 7939043.88106464 ; 2.0234008164684433E8 ; 5.764370743673495E8 ; 1.3518551068341187E10 ; 0.0
76 ; 7939518.7526933765 ; 2.0235689599192742E8 ; 5.843761182484142E8 ; 1.3720891149988031E10 ; 0.0
77 ; 7946226.993514782 ; 2.0237379871063575E8 ; 5.923156370011076E8 ; 1.392324804597996E10 ; 0.0
78 ; 7942555.398210329 ; 2.023907863880876E8 ; 6.002618639946223E8 ; 1.4125621844690596E10 ; 0.0
79 ; 7939078.8301055115 ; 2.0240785569219312E8 ; 6.082044193928326E8 ; 1.4328012631078684E10 ; 0.0
80 ; 7935525.251447459 ; 2.0242500337174842E8 ; 6.161434982229382E8 ; 1.4530420486770878E10 ; 0.0
81 ; 7937954.100625067 ; 2.0244222625452486E8 ; 6.240790234743856E8 ; 1.4732845490142626E10 ; 0.0
82 ; 7935326.99420246 ; 2.0245952124535948E8 ; 6.320169775750107E8 ; 1.493528771639715E10 ; 0.0
83 ; 7934403.229986611 ; 2.0247688532425213E8 ; 6.399523045692132E8 ; 1.513774723764251E10 ; 0.0
84 ; 7927658.3749472285 ; 2.024943155444739E8 ; 6.478867077991998E8 ; 1.5340224122966763E10 ; 0.0
85 ; 7928549.666381551 ; 2.0251180903069103E8 ; 6.55814366174147E8 ; 1.5542718438511236E10 ; 0.0
86 ; 7929685.458964583 ; 2.025293629771079E8 ; 6.637429158405286E8 ; 1.5745230247541927E10 ; 0.0
87 ; 7923772.974323783 ; 2.0254697464563262E8 ; 6.716726012994932E8 ; 1.5947759610519035E10 ; 0.0
88 ; 7923428.582215704 ; 2.025646413640676E8 ; 6.79596374273817E8 ; 1.6150306585164667E10 ; 0.0
89 ; 7922093.174302158 ; 2.0258236052432817E8 ; 6.875198028560326E8 ; 1.6352871226528734E10 ; 0.0
90 ; 7917298.4511650745 ; 2.0260012958069038E8 ; 6.954418960303347E8 ; 1.6555453587053062E10 ; 0.0
91 ; 7914627.437747908 ; 2.0261794604807076E8 ; 7.033591944814998E8 ; 1.6758053716633753E10 ; 0.0
92 ; 7914612.242505347 ; 2.026358075003388E8 ; 7.112738219192477E8 ; 1.6960671662681824E10 ; 0.0
93 ; 7911289.240608757 ; 2.026537115686635E8 ; 7.19188434161753E8 ; 1.7163307470182163E10 ; 0.0
94 ; 7907275.267824267 ; 2.026716559398952E8 ; 7.270997234023619E8 ; 1.7365961181750828E10 ; 0.0
95 ; 7903233.450335924 ; 2.0268963835498303E8 ; 7.350069986701862E8 ; 1.7568632837690723E10 ; 0.0
96 ; 7905428.056523479 ; 2.027076566074289E8 ; 7.429102321205221E8 ; 1.7771322476045708E10 ; 0.0
97 ; 7897369.1002708115 ; 2.0272570854177818E8 ; 7.508156601770456E8 ; 1.7974030132653137E10 ; 0.0
98 ; 7899236.36278177 ; 2.0274379205214733E8 ; 7.587130292773165E8 ; 1.8176755841194916E10 ; 0.0
99 ; 7897041.824463276 ; 2.027619050807885E8 ; 7.666122656400982E8 ; 1.8379499633247063E10 ; 0.0
100 ; 7893550.898068213 ; 2.0278004561669135E8 ; 7.745093074645615E8 ; 1.858226153832785E10 ; 0.0
101 ; 7888325.615446603 ; 2.027982116942215E8 ; 7.824028583626297E8 ; 1.8785041583944542E10 ; 0.0
102 ; 7885268.304057659 ; 2.028164013917956E8 ; 7.902911839780762E8 ; 1.8987839795638763E10 ; 0.0
103 ; 7884697.757787713 ; 2.028346128305928E8 ; 7.981764522821339E8 ; 1.919065619703056E10 ; 0.0
104 ; 7879966.3101793155 ; 2.028528441733019E8 ; 8.060611500399216E8 ; 1.9393490809861153E10 ; 0.0
105 ; 7877444.018838044 ; 2.0287109362290397E8 ; 8.13941116350101E8 ; 1.9596343654034454E10 ; 0.0
106 ; 7872434.922494872 ; 2.0288935942148978E8 ; 8.21818560368939E8 ; 1.979921474765736E10 ; 0.0
107 ; 7867947.461511119 ; 2.0290763984911147E8 ; 8.296909952914339E8 ; 2.000210410707885E10 ; 0.0
108 ; 7865923.173332118 ; 2.0292593322266808E8 ; 8.375589427529451E8 ; 2.020501174692796E10 ; 0.0
109 ; 7863416.134151386 ; 2.0294423789482376E8 ; 8.454248659262772E8 ; 2.0407937680150627E10 ; 0.0
110 ; 7858909.183107902 ; 2.0296255225295866E8 ; 8.532882820604285E8 ; 2.0610881918045452E10 ; 0.0
111 ; 7855037.400954537 ; 2.0298087471815112E8 ; 8.611471912435364E8 ; 2.0813844470298412E10 ; 0.0
112 ; 7852696.34272645 ; 2.0299920374419126E8 ; 8.690022286444908E8 ; 2.1016825345016563E10 ; 0.0
113 ; 7848282.348511412 ; 2.0301753781662422E8 ; 8.768549249872173E8 ; 2.1219824548760754E10 ; 0.0
114 ; 7842587.092834483 ; 2.030358754518234E8 ; 8.847032073357288E8 ; 2.1422842086577377E10 ; 0.0
115 ; 7840452.561370482 ; 2.0305421519609207E8 ; 8.925457944285632E8 ; 2.16258779620292E10 ; 0.0
116 ; 7835361.334420003 ; 2.0307255562479323E8 ; 9.003862469899337E8 ; 2.1828932177225292E10 ; 0.0
117 ; 7832561.14286566 ; 2.030908953415065E8 ; 9.082216083243537E8 ; 2.2032004732850086E10 ; 0.0
118 ; 7827258.739672163 ; 2.031092329772118E8 ; 9.160541694672194E8 ; 2.2235095628191593E10 ; 0.0
119 ; 7826015.18590333 ; 2.0312756718949866E8 ; 9.238814282068915E8 ; 2.2438204861168804E10 ; 0.0
120 ; 7818468.420697802 ; 2.031458966618006E8 ; 9.317074433927948E8 ; 2.2641332428358303E10 ; 0.0
121 ; 7814132.516775925 ; 2.0316422010265386E8 ; 9.395259118134927E8 ; 2.2844478325020103E10 ; 0.0
122 ; 7809802.338323456 ; 2.0318253624497995E8 ; 9.473400443302686E8 ; 2.3047642545122757E10 ; 0.0
123 ; 7805749.463593954 ; 2.0320084384539095E8 ; 9.551498466685921E8 ; 2.3250825081367737E10 ; 0.0
124 ; 7801319.775366666 ; 2.032191416835171E8 ; 9.62955596132186E8 ; 2.3454025925213127E10 ; 0.0
125 ; 7796458.17588299 ; 2.0323742856135616E8 ; 9.707569159075527E8 ; 2.3657245066896645E10 ; 0.0
126 ; 7791298.940849436 ; 2.0325570330264342E8 ; 9.785533740834357E8 ; 2.3860482495458E10 ; 0.0
127 ; 7786097.675776248 ; 2.0327396475224236E8 ; 9.863446730242851E8 ; 2.4063738198760643E10 ; 0.0
128 ; 7782871.592968262 ; 2.032922117755546E8 ; 9.941307707000613E8 ; 2.4267012163512886E10 ; 0.0
129 ; 7777777.881269988 ; 2.0331044325794923E8 ; 1.0019136422930295E9 ; 2.447030437528844E10 ; 0.0
130 ; 7769729.107026953 ; 2.0332865810421032E8 ; 1.0096914201742995E9 ; 2.467361481854639E10 ; 0.0
131 ; 7762427.912317492 ; 2.033468552380025E8 ; 1.0174611492813264E9 ; 2.48769434766506E10 ; 0.0
132 ; 7755909.671392863 ; 2.033650336013537E8 ; 1.0252235771936439E9 ; 2.5080290331888603E10 ; 0.0
133 ; 7750555.892573839 ; 2.0338319215415454E8 ; 1.0329794868650368E9 ; 2.5283655365489956E10 ; 0.0
134 ; 7738505.468556375 ; 2.034013298736743E8 ; 1.0407300427576107E9 ; 2.548703855764411E10 ; 0.0
135 ; 7734223.357969668 ; 2.03419445754092E8 ; 1.0484685482261671E9 ; 2.5690439887517784E10 ; 0.0
136 ; 7723985.085089228 ; 2.034375388060432E8 ; 1.0562027715841367E9 ; 2.5893859333271877E10 ; 0.0
137 ; 7717235.82150629 ; 2.0345560805618095E8 ; 1.0639267566692259E9 ; 2.609729687207792E10 ; 0.0
138 ; 7711403.759645379 ; 2.0347365254675132E8 ; 1.0716439924907322E9 ; 2.63007524801341E10 ; 0.0
139 ; 7704496.036885616 ; 2.0349167133518243E8 ; 1.0793553962503777E9 ; 2.6504226132680855E10 ; 0.0
140 ; 7692877.717450681 ; 2.0350966349368674E8 ; 1.0870598922872632E9 ; 2.6707717804016037E10 ; 0.0
141 ; 7686357.6062517585 ; 2.0352762810887635E8 ; 1.0947527700047138E9 ; 2.6911227467509724E10 ; 0.0
142 ; 7677728.524957837 ; 2.0354556428139043E8 ; 1.1024391276109655E9 ; 2.71147550956186E10 ; 0.0
143 ; 7668078.791185058 ; 2.0356347112553492E8 ; 1.1101168561359234E9 ; 2.731830065989999E10 ; 0.0
144 ; 7662199.5550851505 ; 2.0358134776893342E8 ; 1.1177849349271085E9 ; 2.7521864131025524E10 ; 0.0
145 ; 7655281.28445281 ; 2.035991933521898E8 ; 1.1254471344821937E9 ; 2.7725445478794456E10 ; 0.0
146 ; 7650180.249048227 ; 2.0361700702856123E8 ; 1.1331024157666466E9 ; 2.7929044672146645E10 ; 0.0
147 ; 7645439.09089784 ; 2.0363478796364173E8 ; 1.1407525960156949E9 ; 2.8132661679175205E10 ; 0.0
148 ; 7642892.481001228 ; 2.0365253533505607E8 ; 1.1483980351065927E9 ; 2.8336296467138847E10 ; 0.0
149 ; 7636137.135027656 ; 2.036702483321632E8 ; 1.1560409275875938E9 ; 2.8539949002473904E10 ; 0.0
150 ; 7629586.517690415 ; 2.0368792615576926E8 ; 1.1636770647226214E9 ; 2.874361925080607E10 ; 0.0
151 ; 7622967.0388001725 ; 2.0370556801784962E8 ; 1.1713066512403119E9 ; 2.8947307176961838E10 ; 0.0
152 ; 7618149.894410988 ; 2.037231731412799E8 ; 1.178929618279112E9 ; 2.9151012744979687E10 ; 0.0
153 ; 7614204.47421407 ; 2.037407407595754E8 ; 1.1865477681735232E9 ; 2.9354735918120968E10 ; 0.0
154 ; 7607043.900169541 ; 2.037582701166388E8 ; 1.1941619726477373E9 ; 2.9558476658880543E10 ; 0.0
155 ; 7598910.600573407 ; 2.0377576046651593E8 ; 1.2017690165479069E9 ; 2.976223492899718E10 ; 0.0
156 ; 7595106.9732421795 ; 2.0379321107315907E8 ; 1.2093679271484802E9 ; 2.9966010689463696E10 ; 0.0
157 ; 7588585.177625746 ; 2.0381062121019784E8 ; 1.2169630341217225E9 ; 3.0169803900536854E10 ; 0.0
158 ; 7584338.075648805 ; 2.0382799016071734E8 ; 1.224551619299348E9 ; 3.037361452174705E10 ; 0.0
159 ; 7578344.738988405 ; 2.0384531721704304E8 ; 1.232135957374997E9 ; 3.057744251190777E10 ; 0.0
160 ; 7571281.466567949 ; 2.0386260168053254E8 ; 1.2397143021139853E9 ; 3.0781287829124813E10 ; 0.0
161 ; 7565484.053021223 ; 2.0387984286137393E8 ; 1.2472855835805533E9 ; 3.0985150430805347E10 ; 0.0
162 ; 7558629.010278513 ; 2.0389704007839027E8 ; 1.2548510676335745E9 ; 3.118903027366672E10 ; 0.0
163 ; 7554169.879074958 ; 2.0391419265885016E8 ; 1.262409696643853E9 ; 3.1392927313745113E10 ; 0.0
164 ; 7549044.509057526 ; 2.0393129993828434E8 ; 1.269963866522928E9 ; 3.1596841506403965E10 ; 0.0
165 ; 7541841.279074105 ; 2.0394836126030788E8 ; 1.2775129110319855E9 ; 3.180077280634225E10 ; 0.0
166 ; 7536510.333371878 ; 2.0396537597644782E8 ; 1.2850547523110597E9 ; 3.200472116760256E10 ; 0.0
167 ; 7528656.498519163 ; 2.039823434459762E8 ; 1.2925912626444316E9 ; 3.2208686543579006E10 ; 0.0
168 ; 7523824.106132807 ; 2.0399926303574827E8 ; 1.3001199191429508E9 ; 3.2412668887024982E10 ; 0.0
169 ; 7520711.218997721 ; 2.0401613412004554E8 ; 1.3076437432490835E9 ; 3.261666815006073E10 ; 0.0
170 ; 7513485.170044383 ; 2.0403295608042383E8 ; 1.3151644544680812E9 ; 3.2820684284180775E10 ; 0.0
171 ; 7509673.834716971 ; 2.0404972830556574E8 ; 1.3226779396381257E9 ; 3.30247172402612E10 ; 0.0
172 ; 7502341.3063379135 ; 2.0406645019113782E8 ; 1.3301876134728427E9 ; 3.3228766968566765E10 ; 0.0
173 ; 7494141.251215833 ; 2.040831211396521E8 ; 1.3376899547791805E9 ; 3.3432833418757904E10 ; 0.0
174 ; 7489418.373948997 ; 2.0409974056033152E8 ; 1.3451840960303965E9 ; 3.3636916539897556E10 ; 0.0
175 ; 7488536.558113715 ; 2.0411630786898002E8 ; 1.3526735144043455E9 ; 3.384101628045789E10 ; 0.0
176 ; 7483039.910673788 ; 2.0413282248785585E8 ; 1.3601620509624593E9 ; 3.404513258832687E10 ; 0.0
177 ; 7479524.280383055 ; 2.0414928384554937E8 ; 1.3676450908731332E9 ; 3.4249265410814724E10 ; 0.0
178 ; 7476445.9324741615 ; 2.0416569137686417E8 ; 1.3751246151535163E9 ; 3.445341469466027E10 ; 0.0
179 ; 7470896.123950057 ; 2.041820445227017E8 ; 1.3826010610859904E9 ; 3.465758038603713E10 ; 0.0
180 ; 7467724.716359049 ; 2.0419834272994974E8 ; 1.3900719572099404E9 ; 3.486176243055984E10 ; 0.0
181 ; 7466131.410290391 ; 2.0421458545137382E8 ; 1.3975396819262996E9 ; 3.506596077328979E10 ; 0.0
182 ; 7460369.269232673 ; 2.042307721455121E8 ; 1.40500581333659E9 ; 3.527017535874116E10 ; 0.0
183 ; 7457091.901916364 ; 2.042469022765733E8 ; 1.4124661826058228E9 ; 3.547440613088667E10 ; 0.0
184 ; 7453900.386002775 ; 2.0426297531433782E8 ; 1.419923274507739E9 ; 3.5678653033163246E10 ; 0.0
185 ; 7449234.049058543 ; 2.042789907340615E8 ; 1.4273771748937418E9 ; 3.5882916008477585E10 ; 0.0
186 ; 7445125.478313956 ; 2.0429494801638263E8 ; 1.4348264089428003E9 ; 3.608719499921165E10 ; 0.0
187 ; 7442135.190816956 ; 2.0431084664723128E8 ; 1.4422715344211142E9 ; 3.629148994722803E10 ; 0.0
188 ; 7437916.941438188 ; 2.0432668611774176E8 ; 1.449713669611931E9 ; 3.649580079387526E10 ; 0.0
189 ; 7436307.588683897 ; 2.0434246592416722E8 ; 1.4571515865533693E9 ; 3.6700127479993004E10 ; 0.0
190 ; 7433215.628686858 ; 2.0435818556779712E8 ; 1.4645878941420531E9 ; 3.690446994591717E10 ; 0.0
191 ; 7427706.380447063 ; 2.0437384455487698E8 ; 1.47202110977074E9 ; 3.710882813148496E10 ; 0.0
192 ; 7423741.887348472 ; 2.0438944239653033E8 ; 1.4794488161511872E9 ; 3.731320197603984E10 ; 0.0
193 ; 7418237.168913908 ; 2.044049786086833E8 ; 1.4868725580385356E9 ; 3.751759141843637E10 ; 0.0
194 ; 7414622.355351476 ; 2.0442045271199104E8 ; 1.4942907952074494E9 ; 3.772199639704505E10 ; 0.0
195 ; 7410604.019024514 ; 2.044358642317666E8 ; 1.501705417562801E9 ; 3.792641684975704E10 ; 0.0
196 ; 7408666.6060398035 ; 2.0445121269791165E8 ; 1.5091160215818255E9 ; 3.813085271398881E10 ; 0.0
197 ; 7406682.675338608 ; 2.0446649764484924E8 ; 1.5165246881878653E9 ; 3.833530392668672E10 ; 0.0
198 ; 7401189.538642379 ; 2.0448171861145872E8 ; 1.5239313708632038E9 ; 3.853977042433157E10 ; 0.0
199 ; 7398243.840594292 ; 1.9971823376749888E8 ; 1.5313325604018462E9 ; 3.874425214294303E10 ; 0.0
200 ; 7391062.431035635 ; 1.5602004170277554E8 ; 1.5387308042424405E9 ; 3.894397037671053E10 ; 0.0
