CSV File for the City 1 on Day 21
1 - Minute m 
2 - Power Consumed at minute m 
3 - Power Produced at minute m 
4 - Energy Consumed since the beginning of the day 
5 - Energy Produced since the beginning of the day 
6 - Energy Lost since the beginning of the day on lines starting from the city
 
0 ; 1.5976517886318678E7 ; 1.052292593270537E8 ; 0.0 ; 0.0 ; 0.0
1 ; 1.5995552224738756E7 ; 1.0537907048948282E8 ; 1.5976517886318678E7 ; 1.052292593270537E8 ; 0.0
2 ; 1.601337111711971E7 ; 1.0583770623970029E8 ; 3.1972070111057434E7 ; 2.1060832981653652E8 ; 0.0
3 ; 1.6032089405654628E7 ; 1.0660521008015507E8 ; 4.7985441228177145E7 ; 3.164460360562368E8 ; 0.0
4 ; 1.6059765066833172E7 ; 1.0768163676681739E8 ; 6.401753063383177E7 ; 4.230512461363919E8 ; 0.0
5 ; 1.6087009334895082E7 ; 1.0906705417288584E8 ; 8.007729570066494E7 ; 5.3073288290320927E8 ; 0.0
6 ; 1.612692229164704E7 ; 1.107615440151932E8 ; 9.616430503556001E7 ; 6.397999370760951E8 ; 0.0
7 ; 1.617639032458335E7 ; 1.1276519986661708E8 ; 1.1229122732720706E8 ; 7.505614810912883E8 ; 0.0
8 ; 1.6259296605012711E7 ; 1.1507812040016723E8 ; 1.2846761765179041E8 ; 8.633266809579054E8 ; 0.0
9 ; 1.6375507957284851E7 ; 1.1770039648372954E8 ; 1.4472691425680313E8 ; 9.784048013580726E8 ; 0.0
10 ; 1.6551327700738136E7 ; 1.2063209365619099E8 ; 1.6110242221408796E8 ; 1.0961051978418021E9 ; 0.0
11 ; 1.6840474778782647E7 ; 1.238732359899024E8 ; 1.776537499148261E8 ; 1.216737291497993E9 ; 0.0
12 ; 1.7305078988385573E7 ; 1.2742379941251293E8 ; 1.9449422469360873E8 ; 1.3406105274878955E9 ; 0.0
13 ; 1.775150971459612E7 ; 1.3128371838513559E8 ; 2.1179930368199432E8 ; 1.4680343269004085E9 ; 0.0
14 ; 1.780141852289918E7 ; 1.3545290203988457E8 ; 2.2955081339659044E8 ; 1.5993180452855442E9 ; 0.0
15 ; 1.7821372794514865E7 ; 1.3993125170375E8 ; 2.4735223191948962E8 ; 1.7347709473254287E9 ; 0.0
16 ; 1.7845523394023634E7 ; 1.4471867380385444E8 ; 2.651736047140045E8 ; 1.8747021990291786E9 ; 0.0
17 ; 1.7859821172469422E7 ; 1.4981508662336496E8 ; 2.830191281080281E8 ; 2.019420872833033E9 ; 0.0
18 ; 1.7883987724743742E7 ; 1.55220422289083E8 ; 3.0087894928049755E8 ; 2.169235959456398E9 ; 0.0
19 ; 1.79125621614005E7 ; 1.6093462604503837E8 ; 3.187629370052413E8 ; 2.324456381745481E9 ; 0.0
20 ; 1.793049359151688E7 ; 1.6695765438878205E8 ; 3.366754991666418E8 ; 2.485391007790519E9 ; 0.0
21 ; 1.794854407933015E7 ; 1.732894729752663E8 ; 3.546059927581586E8 ; 2.6523486621793013E9 ; 0.0
22 ; 1.7970455674503908E7 ; 1.7993005470235765E8 ; 3.725545368374888E8 ; 2.8256381351545677E9 ; 0.0
23 ; 1.7992990281311873E7 ; 1.868793781154455E8 ; 3.905249925119927E8 ; 3.0055681898569255E9 ; 0.0
24 ; 1.801190730649601E7 ; 1.941374261384294E8 ; 4.0851798279330456E8 ; 3.192447567972371E9 ; 0.0
25 ; 1.8031305676418375E7 ; 2.003922259866302E8 ; 4.265298900998006E8 ; 3.3865849941108007E9 ; 0.0
26 ; 1.8056237207965977E7 ; 2.0039731444764176E8 ; 4.4456119577621895E8 ; 3.586977220097431E9 ; 0.0
27 ; 1.807587130519069E7 ; 2.004024518286151E8 ; 4.626174329841849E8 ; 3.787374534545073E9 ; 0.0
28 ; 1.809114565691588E7 ; 2.0040763076165923E8 ; 4.806933042893756E8 ; 3.987776986373688E9 ; 0.0
29 ; 1.811367017207206E7 ; 2.004128451588258E8 ; 4.987844499462915E8 ; 4.1881846171353474E9 ; 0.0
30 ; 1.8134914929050498E7 ; 2.0041808995165378E8 ; 5.1689812011836356E8 ; 4.388597462294173E9 ; 0.0
31 ; 1.815157430002935E7 ; 2.0042336088946974E8 ; 5.3503303504741406E8 ; 4.589015552245827E9 ; 0.0
32 ; 1.816826768512285E7 ; 2.0042865438219902E8 ; 5.531846093474435E8 ; 4.789438913135297E9 ; 0.0
33 ; 1.8186538583145123E7 ; 2.0043396737705106E8 ; 5.713528770325663E8 ; 4.989867567517496E9 ; 0.0
34 ; 1.820718987951853E7 ; 2.0043929726112685E8 ; 5.895394156157115E8 ; 5.190301534894547E9 ; 0.0
35 ; 1.8224299515331153E7 ; 2.00444641783983E8 ; 6.0774660549523E8 ; 5.390740832155674E9 ; 0.0
36 ; 1.8239902186386358E7 ; 2.0044999899565676E8 ; 6.259709050105611E8 ; 5.591185473939657E9 ; 0.0
37 ; 1.8253664331116352E7 ; 2.0045536719674656E8 ; 6.442108071969475E8 ; 5.791635472935314E9 ; 0.0
38 ; 1.827121808683229E7 ; 2.004607448979526E8 ; 6.624644715280638E8 ; 5.992090840132061E9 ; 0.0
39 ; 1.8288393063446462E7 ; 2.0046613078708807E8 ; 6.80735689614896E8 ; 6.192551585030014E9 ; 0.0
40 ; 1.830034571553923E7 ; 2.0047152370202655E8 ; 6.990240826783426E8 ; 6.393017715817102E9 ; 0.0
41 ; 1.8312890810381364E7 ; 2.0047692260839465E8 ; 7.173244283938818E8 ; 6.593489239519129E9 ; 0.0
42 ; 1.8324297489192612E7 ; 2.004823265810804E8 ; 7.356373192042632E8 ; 6.793966162127523E9 ; 0.0
43 ; 1.833763863641757E7 ; 2.0048773478882656E8 ; 7.539616166934558E8 ; 6.994448488708604E9 ; 0.0
44 ; 1.8348673544657454E7 ; 2.004931464813322E8 ; 7.722992553298734E8 ; 7.194936223497431E9 ; 0.0
45 ; 1.8359116702995587E7 ; 2.0049856097840455E8 ; 7.906479288745309E8 ; 7.395429369978763E9 ; 0.0
46 ; 1.8364995751934364E7 ; 2.005039776607939E8 ; 8.090070455775265E8 ; 7.595927930957168E9 ; 0.0
47 ; 1.837460681309782E7 ; 2.0050939596241865E8 ; 8.273720413294609E8 ; 7.796431908617962E9 ; 0.0
48 ; 1.8384031038954288E7 ; 2.0051481536374217E8 ; 8.457466481425587E8 ; 7.99694130458038E9 ; 0.0
49 ; 1.839110626136536E7 ; 2.0052023538610926E8 ; 8.64130679181513E8 ; 8.197456119944122E9 ; 0.0
50 ; 1.839488739448467E7 ; 2.0052565558688548E8 ; 8.825217854428784E8 ; 8.397976355330232E9 ; 0.0
51 ; 1.8403335474103954E7 ; 2.005310755552701E8 ; 9.00916672837363E8 ; 8.598502010917118E9 ; 0.0
52 ; 1.8407467054842155E7 ; 2.0053649490867767E8 ; 9.193200083114669E8 ; 8.799033086472387E9 ; 0.0
53 ; 1.840832364006992E7 ; 2.0054191328960043E8 ; 9.37727475366309E8 ; 8.999569581381065E9 ; 0.0
54 ; 1.8414427276522752E7 ; 2.005473303628793E8 ; 9.56135799006379E8 ; 9.200111494670666E9 ; 0.0
55 ; 1.841832575051115E7 ; 2.005527458133231E8 ; 9.745502262829018E8 ; 9.400658825033545E9 ; 0.0
56 ; 1.8423121556500126E7 ; 2.0055815934362558E8 ; 9.929685520334129E8 ; 9.601211570846869E9 ; 0.0
57 ; 1.8428140208204333E7 ; 2.0056357067253786E8 ; 1.011391673589913E9 ; 9.801769730190495E9 ; 0.0
58 ; 1.843047117160029E7 ; 2.005689795332611E8 ; 1.0298198137981174E9 ; 1.0002333300863033E10 ; 0.0
59 ; 1.843441867367238E7 ; 2.0057438567202863E8 ; 1.0482502849697177E9 ; 1.0202902280396294E10 ; 0.0
60 ; 1.8437575399310652E7 ; 2.0057978884685284E8 ; 1.0666847036433902E9 ; 1.0403476666068323E10 ; 0.0
61 ; 1.8442475467498697E7 ; 2.0058518882641435E8 ; 1.0851222790427008E9 ; 1.0604056454915176E10 ; 0.0
62 ; 1.8442789999691732E7 ; 2.0059058538907564E8 ; 1.1035647545101995E9 ; 1.080464164374159E10 ; 0.0
63 ; 1.8447669539285854E7 ; 2.005959783220031E8 ; 1.1220075445098913E9 ; 1.1005232229130667E10 ; 0.0
64 ; 1.8453653019896552E7 ; 2.0060136742038366E8 ; 1.1404552140491772E9 ; 1.120582820745267E10 ; 0.0
65 ; 1.8454340561415914E7 ; 2.0060675248672497E8 ; 1.1589088670690737E9 ; 1.1406429574873053E10 ; 0.0
66 ; 1.845777997431747E7 ; 2.006121333302283E8 ; 1.1773632076304896E9 ; 1.1607036327359777E10 ; 0.0
67 ; 1.8458657380237076E7 ; 2.0061750976622605E8 ; 1.1958209876048071E9 ; 1.1807648460690006E10 ; 0.0
68 ; 1.8459196245424386E7 ; 2.0062288161567625E8 ; 1.2142796449850442E9 ; 1.2008265970456232E10 ; 0.0
69 ; 1.846432875650589E7 ; 2.006282487047071E8 ; 1.2327388412304685E9 ; 1.2208888852071909E10 ; 0.0
70 ; 1.846085687339137E7 ; 2.0063361086420625E8 ; 1.2512031699869745E9 ; 1.2409517100776615E10 ; 0.0
71 ; 1.8465716519417446E7 ; 2.0063896792944998E8 ; 1.2696640268603659E9 ; 1.2610150711640821E10 ; 0.0
72 ; 1.846567545706969E7 ; 2.0064431973976701E8 ; 1.2881297433797834E9 ; 1.281078967957027E10 ; 0.0
73 ; 1.846771993434058E7 ; 2.0064966613823456E8 ; 1.306595418836853E9 ; 1.3011433999310038E10 ; 0.0
74 ; 1.8470488722442634E7 ; 2.0065500697140187E8 ; 1.3250631387711935E9 ; 1.3212083665448273E10 ; 0.0
75 ; 1.8469769005652063E7 ; 2.0066034208903918E8 ; 1.3435336274936361E9 ; 1.3412738672419674E10 ; 0.0
76 ; 1.847242342324E7 ; 2.0066567134390926E8 ; 1.362003396499288E9 ; 1.3613399014508713E10 ; 0.0
77 ; 1.847198604581147E7 ; 2.0067099459155896E8 ; 1.380475819922528E9 ; 1.3814064685852623E10 ; 0.0
78 ; 1.8467512317717604E7 ; 2.0067631169012925E8 ; 1.3989478059683394E9 ; 1.4014735680444181E10 ; 0.0
79 ; 1.84602993377805E7 ; 2.0068162250018138E8 ; 1.417415318286057E9 ; 1.421541199213431E10 ; 0.0
80 ; 1.8456675870064445E7 ; 2.0068692688453805E8 ; 1.4358756176238375E9 ; 1.4416093614634491E10 ; 0.0
81 ; 1.845085280497564E7 ; 2.0069222470813778E8 ; 1.454332293493902E9 ; 1.461678054151903E10 ; 0.0
82 ; 1.8443022917963956E7 ; 2.006975158379014E8 ; 1.4727831462988777E9 ; 1.4817472766227167E10 ; 0.0
83 ; 1.8436745768589E7 ; 2.007028001426097E8 ; 1.4912261692168417E9 ; 1.501817028206507E10 ; 0.0
84 ; 1.843422031865307E7 ; 2.0070807749279043E8 ; 1.5096629149854307E9 ; 1.521887308220768E10 ; 0.0
85 ; 1.8425186621398266E7 ; 2.0071334776061514E8 ; 1.5280971353040838E9 ; 1.541958115970047E10 ; 0.0
86 ; 1.841995963767584E7 ; 2.0071861081980354E8 ; 1.546522321925482E9 ; 1.5620294507461084E10 ; 0.0
87 ; 1.8413183050576687E7 ; 2.007238665455356E8 ; 1.5649422815631578E9 ; 1.5821013118280888E10 ; 0.0
88 ; 1.8406695238060985E7 ; 2.007291148143705E8 ; 1.5833554646137345E9 ; 1.6021736984826424E10 ; 0.0
89 ; 1.839790742458129E7 ; 2.0073435550417176E8 ; 1.6017621598517954E9 ; 1.6222466099640795E10 ; 0.0
90 ; 1.8392013013617225E7 ; 2.0073958849403787E8 ; 1.6201600672763767E9 ; 1.6423200455144966E10 ; 0.0
91 ; 1.8383169534167532E7 ; 2.0074481366423842E8 ; 1.638552080289994E9 ; 1.6623940043639004E10 ; 0.0
92 ; 1.8376885759046424E7 ; 2.007500308961548E8 ; 1.6569352498241615E9 ; 1.6824684857303242E10 ; 0.0
93 ; 1.8368651966440096E7 ; 2.0075524007222527E8 ; 1.6753121355832078E9 ; 1.7025434888199396E10 ; 0.0
94 ; 1.8359989259047586E7 ; 2.0076044107589415E8 ; 1.693680787549648E9 ; 1.722619012827162E10 ; 0.0
95 ; 1.835119924406122E7 ; 2.0076563379156443E8 ; 1.7120407768086956E9 ; 1.7426950569347515E10 ; 0.0
96 ; 1.8341144150328252E7 ; 2.0077081810455418E8 ; 1.7303919760527568E9 ; 1.762771620313908E10 ; 0.0
97 ; 1.8336549637479804E7 ; 2.007759939010556E8 ; 1.748733120203085E9 ; 1.7828487021243633E10 ; 0.0
98 ; 1.8328362377073843E7 ; 2.0078116106809735E8 ; 1.7670696698405647E9 ; 1.8029263015144688E10 ; 0.0
99 ; 1.831609757143536E7 ; 2.0078631949350923E8 ; 1.7853980322176385E9 ; 1.8230044176212784E10 ; 0.0
100 ; 1.8310143696061775E7 ; 2.0079146906588948E8 ; 1.803714129789074E9 ; 1.843083049570629E10 ; 0.0
101 ; 1.829943203064821E7 ; 2.0079660967457426E8 ; 1.8220242734851358E9 ; 1.8631621964772182E10 ; 0.0
102 ; 1.8291295318046264E7 ; 2.0080174120960924E8 ; 1.840323705515784E9 ; 1.883241857444676E10 ; 0.0
103 ; 1.827964192427243E7 ; 2.008068635617231E8 ; 1.8586150008338304E9 ; 1.903322031565637E10 ; 0.0
104 ; 1.827238799303655E7 ; 2.0081197662230292E8 ; 1.876894642758103E9 ; 1.923402717921809E10 ; 0.0
105 ; 1.8259264612706598E7 ; 2.0081708028337097E8 ; 1.8951670307511394E9 ; 1.9434839155840393E10 ; 0.0
106 ; 1.8254178975549895E7 ; 2.0082217443756336E8 ; 1.913426295363846E9 ; 1.9635656236123764E10 ; 0.0
107 ; 1.8240868594694205E7 ; 2.0082725897810993E8 ; 1.931680474339396E9 ; 1.983647841056133E10 ; 0.0
108 ; 1.822833775722199E7 ; 2.0083233379881543E8 ; 1.9499213429340901E9 ; 2.003730566953944E10 ; 0.0
109 ; 1.822148196569322E7 ; 2.0083739879404217E8 ; 1.968149680691312E9 ; 2.0238138003338257E10 ; 0.0
110 ; 1.8207156486669883E7 ; 2.0084245385869348E8 ; 1.9863711626570053E9 ; 2.0438975402132298E10 ; 0.0
111 ; 1.81990790790698E7 ; 2.0084749888819855E8 ; 2.004578319143675E9 ; 2.063981785599099E10 ; 0.0
112 ; 1.8184618487600345E7 ; 2.0085253377849805E8 ; 2.022777398222745E9 ; 2.084066535487919E10 ; 0.0
113 ; 1.8178454454419058E7 ; 2.008575584260308E8 ; 2.0409620167103453E9 ; 2.104151788865769E10 ; 0.0
114 ; 1.816700478906039E7 ; 2.0086257272772127E8 ; 2.0591404711647644E9 ; 2.1242375447083717E10 ; 0.0
115 ; 1.8151221666774426E7 ; 2.0086757658096787E8 ; 2.0773074759538248E9 ; 2.144323801981144E10 ; 0.0
116 ; 1.8141733500968657E7 ; 2.0087256988363197E8 ; 2.0954586976205993E9 ; 2.1644105596392406E10 ; 0.0
117 ; 1.8128194865758717E7 ; 2.0087755253402776E8 ; 2.113600431121568E9 ; 2.184497816627604E10 ; 0.0
118 ; 1.8115554658488836E7 ; 2.008825244309126E8 ; 2.1317286259873266E9 ; 2.2045855718810066E10 ; 0.0
119 ; 1.8103862684242457E7 ; 2.0088748547347817E8 ; 2.1498441806458154E9 ; 2.224673824324098E10 ; 0.0
120 ; 1.808878187847846E7 ; 2.008924355613419E8 ; 2.1679480433300576E9 ; 2.2447625728714455E10 ; 0.0
121 ; 1.807534124049734E7 ; 2.0089737459453937E8 ; 2.186036825208536E9 ; 2.2648518164275795E10 ; 0.0
122 ; 1.8061834030751105E7 ; 2.009023024735168E8 ; 2.2041121664490333E9 ; 2.2849415538870335E10 ; 0.0
123 ; 1.8051523422985416E7 ; 2.009072190991243E8 ; 2.2221740004797845E9 ; 2.3050317841343853E10 ; 0.0
124 ; 1.803428321439695E7 ; 2.0091212437260953E8 ; 2.24022552390277E9 ; 2.3251225060442978E10 ; 0.0
125 ; 1.8021228014812034E7 ; 2.009170181956115E8 ; 2.258259807117167E9 ; 2.3452137184815586E10 ; 0.0
126 ; 1.8008156422984894E7 ; 2.0092190047015527E8 ; 2.276281035131979E9 ; 2.3653054203011196E10 ; 0.0
127 ; 1.799427995688111E7 ; 2.009267710986465E8 ; 2.294289191554964E9 ; 2.385397610348135E10 ; 0.0
128 ; 1.7983238745032992E7 ; 2.0093162998386672E8 ; 2.312283471511845E9 ; 2.4054902874579998E10 ; 0.0
129 ; 1.796769840210863E7 ; 2.0093647702896878E8 ; 2.330266710256878E9 ; 2.4255834504563866E10 ; 0.0
130 ; 1.7951164450455073E7 ; 2.0094131213747257E8 ; 2.3482344086589866E9 ; 2.4456770981592834E10 ; 0.0
131 ; 1.7930488415591184E7 ; 2.0094613521326113E8 ; 2.3661855731094418E9 ; 2.465771229373031E10 ; 0.0
132 ; 1.7910873042044368E7 ; 2.0095094616057697E8 ; 2.384116061525033E9 ; 2.485865842894357E10 ; 0.0
133 ; 1.7888138003808606E7 ; 2.0095574488401866E8 ; 2.402026934567077E9 ; 2.5059609375104145E10 ; 0.0
134 ; 1.7864124995393265E7 ; 2.0096053128853777E8 ; 2.4199150725708857E9 ; 2.5260565119988163E10 ; 0.0
135 ; 1.7849624904074594E7 ; 2.0096530527943572E8 ; 2.437779197566279E9 ; 2.54615256512767E10 ; 0.0
136 ; 1.783007569834405E7 ; 2.0097006676236135E8 ; 2.4556288224703536E9 ; 2.5662490956556133E10 ; 0.0
137 ; 1.7804153848098457E7 ; 2.0097481564330813E8 ; 2.473458898168698E9 ; 2.5863461023318493E10 ; 0.0
138 ; 1.7783977682229545E7 ; 2.0097955182861206E8 ; 2.491263052016796E9 ; 2.60644358389618E10 ; 0.0
139 ; 1.776002226298353E7 ; 2.0098427522494948E8 ; 2.5090470296990256E9 ; 2.6265415390790413E10 ; 0.0
140 ; 1.773773295497165E7 ; 2.00988985739335E8 ; 2.526807051962009E9 ; 2.646639966601536E10 ; 0.0
141 ; 1.7713535160710104E7 ; 2.0099368327911988E8 ; 2.5445447849169807E9 ; 2.6667388651754696E10 ; 0.0
142 ; 1.7695694126106113E7 ; 2.0099836775199023E8 ; 2.562258320077691E9 ; 2.6868382335033817E10 ; 0.0
143 ; 1.7672525902216136E7 ; 2.0100303906596565E8 ; 2.5799540142037973E9 ; 2.706938070278581E10 ; 0.0
144 ; 1.7647540643021904E7 ; 2.0100769712939775E8 ; 2.5976265401060133E9 ; 2.7270383741851776E10 ; 0.0
145 ; 1.7635385562369414E7 ; 2.0101234185096902E8 ; 2.6152740807490354E9 ; 2.7471391438981174E10 ; 0.0
146 ; 1.7617571675564542E7 ; 2.0101697313969162E8 ; 2.6329094663114047E9 ; 2.767240378083214E10 ; 0.0
147 ; 1.760803909388814E7 ; 2.0102159090490654E8 ; 2.6505270379869695E9 ; 2.7873420753971832E10 ; 0.0
148 ; 1.758661612030841E7 ; 2.0102619505628255E8 ; 2.6681350770808578E9 ; 2.807444234487674E10 ; 0.0
149 ; 1.7570475364327703E7 ; 2.010307855038156E8 ; 2.685721693201166E9 ; 2.827546853993302E10 ; 0.0
150 ; 1.755517517798817E7 ; 2.0103536215782794E8 ; 2.703292168565494E9 ; 2.8476499325436836E10 ; 0.0
151 ; 1.7539246511258557E7 ; 2.010399249289678E8 ; 2.720847343743482E9 ; 2.8677534687594666E10 ; 0.0
152 ; 1.752031045562458E7 ; 2.010444737282087E8 ; 2.7383865902547407E9 ; 2.8878574612523632E10 ; 0.0
153 ; 1.751058433984159E7 ; 2.010490084668491E8 ; 2.7559069007103653E9 ; 2.9079619086251842E10 ; 0.0
154 ; 1.7490729471133757E7 ; 2.0105352905651212E8 ; 2.7734174850502067E9 ; 2.9280668094718693E10 ; 0.0
155 ; 1.747433576671646E7 ; 2.0105803540914524E8 ; 2.7909082145213404E9 ; 2.9481721623775204E10 ; 0.0
156 ; 1.74561263831753E7 ; 2.0106252743702015E8 ; 2.808382550288057E9 ; 2.968277965918435E10 ; 0.0
157 ; 1.744256194855161E7 ; 2.0106700505273268E8 ; 2.825838676671232E9 ; 2.988384218662137E10 ; 0.0
158 ; 1.7423687609602198E7 ; 2.0107146816920263E8 ; 2.843281238619784E9 ; 3.0084909191674103E10 ; 0.0
159 ; 1.7409016692109156E7 ; 2.0107591669967398E8 ; 2.860704926229386E9 ; 3.0285980659843304E10 ; 0.0
160 ; 1.7394935850874048E7 ; 2.0108035055771482E8 ; 2.878113942921495E9 ; 3.0487056576542976E10 ; 0.0
161 ; 1.7378292554434124E7 ; 2.0108476965721753E8 ; 2.895508878772369E9 ; 3.0688136927100693E10 ; 0.0
162 ; 1.73590977640451E7 ; 2.0108917391239896E8 ; 2.912887171326803E9 ; 3.088922169675791E10 ; 0.0
163 ; 1.734472061240884E7 ; 2.0109356323780075E8 ; 2.9302462690908484E9 ; 3.109031087067031E10 ; 0.0
164 ; 1.7322011689162113E7 ; 2.0109793754828948E8 ; 2.947590989703257E9 ; 3.129140443390811E10 ; 0.0
165 ; 1.7309578670362674E7 ; 2.0110229675905707E8 ; 2.9649130013924193E9 ; 3.14925023714564E10 ; 0.0
166 ; 1.728905049710712E7 ; 2.0110664078562123E8 ; 2.982222580062782E9 ; 3.1693604668215458E10 ; 0.0
167 ; 1.7273811963885687E7 ; 2.0111096954382566E8 ; 2.999511630559889E9 ; 3.189471130900108E10 ; 0.0
168 ; 1.7254493305828698E7 ; 2.0111528294984072E8 ; 3.0167854425237746E9 ; 3.2095822278544907E10 ; 0.0
169 ; 1.7240913150417183E7 ; 2.011195809201639E8 ; 3.034039935829603E9 ; 3.2296937561494747E10 ; 0.0
170 ; 1.722154456393681E7 ; 2.0112386337162018E8 ; 3.0512808489800205E9 ; 3.249805714241491E10 ; 0.0
171 ; 1.7202378216208227E7 ; 2.0112813022136274E8 ; 3.068502393543957E9 ; 3.269918100578653E10 ; 0.0
172 ; 1.7188546741088193E7 ; 2.0113238138687348E8 ; 3.0857047717601657E9 ; 3.2900309136007893E10 ; 0.0
173 ; 1.716528367654816E7 ; 2.011366167859637E8 ; 3.102893318501254E9 ; 3.3101441517394768E10 ; 0.0
174 ; 1.7158417854425527E7 ; 2.0114083633677468E8 ; 3.120058602177802E9 ; 3.3302578134180733E10 ; 0.0
175 ; 1.7147678229006022E7 ; 2.0114503995777833E8 ; 3.1372170200322275E9 ; 3.3503718970517506E10 ; 0.0
176 ; 1.7137072896808118E7 ; 2.0114922756777808E8 ; 3.1543646982612333E9 ; 3.3704864010475285E10 ; 0.0
177 ; 1.712979307099419E7 ; 2.0115339908590934E8 ; 3.1715017711580415E9 ; 3.3906013238043064E10 ; 0.0
178 ; 1.711706188862531E7 ; 2.0115755443164042E8 ; 3.188631564229036E9 ; 3.4107166637128975E10 ; 0.0
179 ; 1.7110053808680158E7 ; 2.011616935247732E8 ; 3.205748626117661E9 ; 3.4308324191560616E10 ; 0.0
180 ; 1.7092835340616167E7 ; 2.0116581628544405E8 ; 3.222858679926341E9 ; 3.450948588508539E10 ; 0.0
181 ; 1.708462647918956E7 ; 2.0116992263412452E8 ; 3.2399515152669573E9 ; 3.4710651701370834E10 ; 0.0
182 ; 1.706924686110398E7 ; 2.0117401249162212E8 ; 3.2570361417461467E9 ; 3.491182162400496E10 ; 0.0
183 ; 1.7061664562877152E7 ; 2.0117808577908137E8 ; 3.2741053886072507E9 ; 3.511299563649658E10 ; 0.0
184 ; 1.7054818212139543E7 ; 2.011821424179845E8 ; 3.291167053170128E9 ; 3.5314173722275665E10 ; 0.0
185 ; 1.7040794912879333E7 ; 2.0118618233015224E8 ; 3.3082218713822675E9 ; 3.551535586469365E10 ; 0.0
186 ; 1.7030485819575816E7 ; 2.0119020543774495E8 ; 3.325262666295147E9 ; 3.57165420470238E10 ; 0.0
187 ; 1.702083417041007E7 ; 2.0119421166326338E8 ; 3.3422931521147227E9 ; 3.591773225246155E10 ; 0.0
188 ; 1.7011096839899916E7 ; 2.0119820092954957E8 ; 3.359313986285133E9 ; 3.611892646412481E10 ; 0.0
189 ; 1.6999599685387578E7 ; 2.012021731597878E8 ; 3.376325083125033E9 ; 3.632012466505436E10 ; 0.0
190 ; 1.6988938066245254E7 ; 2.0120612827750558E8 ; 3.3933246828104205E9 ; 3.652132683821415E10 ; 0.0
191 ; 1.69788200884795E7 ; 2.0121006620657453E8 ; 3.4103136208766656E9 ; 3.672253296649165E10 ; 0.0
192 ; 1.6968578887510102E7 ; 2.0121398687121135E8 ; 3.427292440965145E9 ; 3.692374303269823E10 ; 0.0
193 ; 1.695540254051054E7 ; 2.0121789019597888E8 ; 3.4442610198526554E9 ; 3.7124957019569435E10 ; 0.0
194 ; 1.6942765407685257E7 ; 2.0122177610578695E8 ; 3.461216422393166E9 ; 3.732617490976541E10 ; 0.0
195 ; 1.6938312078215428E7 ; 2.012256445258934E8 ; 3.4781591878008513E9 ; 3.75273966858712E10 ; 0.0
