CSV File for the City 4 on Day 112
1 - Minute m 
2 - Power Consumed at minute m 
3 - Power Produced at minute m 
4 - Energy Consumed since the beginning of the day 
5 - Energy Produced since the beginning of the day 
6 - Energy Lost since the beginning of the day on lines starting from the city
 
0 ; 6883954.373995429 ; 1.0625393588526413E8 ; 0.0 ; 0.0 ; 0.0
1 ; 6890442.184135657 ; 1.0640450522506726E8 ; 6883954.373995429 ; 1.0625393588526413E8 ; 0.0
2 ; 6899843.270695347 ; 1.0686409968849662E8 ; 1.3774396558131086E7 ; 2.126584411103314E8 ; 0.0
3 ; 6907107.593457923 ; 1.0763272311003137E8 ; 2.0674239828826435E7 ; 3.19522540798828E8 ; 0.0
4 ; 6916758.030341894 ; 1.0871037892287016E8 ; 2.7581347422284357E7 ; 4.271552639088594E8 ; 0.0
5 ; 6931161.383550553 ; 1.1009707014098668E8 ; 3.449810545262625E7 ; 5.3586564283172953E8 ; 0.0
6 ; 6944531.46233193 ; 1.1179279934309319E8 ; 4.1429266836176805E7 ; 6.459627129727162E8 ; 0.0
7 ; 6971054.130693124 ; 1.1379756865870869E8 ; 4.837379829850873E7 ; 7.577555123158094E8 ; 0.0
8 ; 7000979.410187416 ; 1.161113797565068E8 ; 5.5344852429201856E7 ; 8.715530809745181E8 ; 0.0
9 ; 7055235.801002378 ; 1.1873423383509147E8 ; 6.234583183938927E7 ; 9.876644607310249E8 ; 0.0
10 ; 7132101.120015441 ; 1.2166613161632055E8 ; 6.940106764039165E7 ; 1.1063986945661163E9 ; 0.0
11 ; 7254009.641686993 ; 1.2490707334126434E8 ; 7.653316876040709E7 ; 1.228064826182437E9 ; 0.0
12 ; 7452679.434850594 ; 1.284570587688525E8 ; 8.378717840209408E7 ; 1.3529718995237012E9 ; 0.0
13 ; 7646497.239271638 ; 1.323160871772272E8 ; 9.123985783694467E7 ; 1.4814289582925537E9 ; 0.0
14 ; 7665857.3975814255 ; 1.3648415736778456E8 ; 9.888635507621631E7 ; 1.613745045469781E9 ; 0.0
15 ; 7675806.131255704 ; 1.4096126767185086E8 ; 1.0655221247379774E8 ; 1.7502292028375654E9 ; 0.0
16 ; 7686579.197320826 ; 1.457474159599072E8 ; 1.1422801860505344E8 ; 1.8911904705094163E9 ; 0.0
17 ; 7695559.155962872 ; 1.5084259965324125E8 ; 1.2191459780237427E8 ; 2.0369378864693236E9 ; 0.0
18 ; 7703502.088956817 ; 1.5624681573787934E8 ; 1.2961015695833714E8 ; 2.187780486122565E9 ; 0.0
19 ; 7712548.256025827 ; 1.619600607806228E8 ; 1.3731365904729396E8 ; 2.344027301860444E9 ; 0.0
20 ; 7722052.595288132 ; 1.679823309469925E8 ; 1.4502620730331978E8 ; 2.505987362641067E9 ; 0.0
21 ; 7733249.2980831275 ; 1.7431362202086654E8 ; 1.527482598986079E8 ; 2.6739696935880594E9 ; 0.0
22 ; 7740272.950921006 ; 1.809539294255839E8 ; 1.6048150919669104E8 ; 2.848283315608926E9 ; 0.0
23 ; 7752424.125794064 ; 1.879032482462768E8 ; 1.6822178214761204E8 ; 3.0292372450345097E9 ; 0.0
24 ; 7761034.621066505 ; 1.9516157325319052E8 ; 1.759742062734061E8 ; 3.2171404932807865E9 ; 0.0
25 ; 7770774.5979636 ; 2.0141693982393438E8 ; 1.837352408944726E8 ; 3.412302066533977E9 ; 0.0
26 ; 7774860.560035748 ; 2.014228900049542E8 ; 1.915060154924362E8 ; 3.6137190063579116E9 ; 0.0
27 ; 7787037.168090432 ; 2.0142918706129318E8 ; 1.9928087605247194E8 ; 3.815141896362866E9 ; 0.0
28 ; 7797881.624451684 ; 2.0143582474828452E8 ; 2.0706791322056237E8 ; 4.016571083424159E9 ; 0.0
29 ; 7805552.417930422 ; 2.014427966295742E8 ; 2.1486579484501407E8 ; 4.2180069081724434E9 ; 0.0
30 ; 7813351.760797608 ; 2.0145009610156807E8 ; 2.226713472629445E8 ; 4.419449704802017E9 ; 0.0
31 ; 7820326.826449717 ; 2.0145771641737655E8 ; 2.304846990237421E8 ; 4.620899800903585E9 ; 0.0
32 ; 7830403.381907768 ; 2.0146565071010473E8 ; 2.3830502585019183E8 ; 4.822357517320962E9 ; 0.0
33 ; 7841637.837853711 ; 2.0147389201535496E8 ; 2.461354292320996E8 ; 5.023823168031067E9 ; 0.0
34 ; 7848107.493887348 ; 2.0148243329282814E8 ; 2.539770670699533E8 ; 5.225297060046422E9 ; 0.0
35 ; 7855213.008006009 ; 2.014912674469302E8 ; 2.6182517456384063E8 ; 5.426779493339251E9 ; 0.0
36 ; 7863883.934549855 ; 2.0150038734630808E8 ; 2.6968038757184666E8 ; 5.6282707607861805E9 ; 0.0
37 ; 7872924.202517658 ; 2.015097858422587E8 ; 2.7754427150639653E8 ; 5.829771148132488E9 ; 0.0
38 ; 7874968.299617421 ; 2.015194557859705E8 ; 2.8541719570891416E8 ; 6.031280933974747E9 ; 0.0
39 ; 7884379.510956659 ; 2.0152939004457343E8 ; 2.932921640085316E8 ; 6.232800389760717E9 ; 0.0
40 ; 7888533.060797115 ; 2.01539581515987E8 ; 3.011765435194882E8 ; 6.434329779805291E9 ; 0.0
41 ; 7898080.27083858 ; 2.0155002314256975E8 ; 3.090650765802853E8 ; 6.635869361321279E9 ; 0.0
42 ; 7902056.7895136075 ; 2.0156070792358357E8 ; 3.1696315685112387E8 ; 6.837419384463848E9 ; 0.0
43 ; 7907056.382774696 ; 2.0157162892649773E8 ; 3.2486521364063746E8 ; 7.038980092387432E9 ; 0.0
44 ; 7915524.581692234 ; 2.0158277929716396E8 ; 3.3277227002341217E8 ; 7.24055172131393E9 ; 0.0
45 ; 7919309.490935842 ; 2.0159415226890293E8 ; 3.406877946051044E8 ; 7.4421345006110935E9 ; 0.0
46 ; 7923543.506148796 ; 2.0160574117054576E8 ; 3.4860710409604025E8 ; 7.643728652879996E9 ; 0.0
47 ; 7927422.615155907 ; 2.0161753943348128E8 ; 3.5653064760218906E8 ; 7.845334394050542E9 ; 0.0
48 ; 7931638.460235399 ; 2.0162954059776014E8 ; 3.64458070217345E8 ; 8.046951933484023E9 ; 0.0
49 ; 7933531.996222648 ; 2.0164173831731135E8 ; 3.723897086775804E8 ; 8.248581474081783E9 ; 0.0
50 ; 7937331.986172868 ; 2.016541263643268E8 ; 3.803232406738031E8 ; 8.450223212399095E9 ; 0.0
51 ; 7940025.405854274 ; 2.0166669863287047E8 ; 3.8826057265997595E8 ; 8.651877338763422E9 ; 0.0
52 ; 7943893.608341838 ; 2.0167944914176843E8 ; 3.9620059806583023E8 ; 8.853544037396292E9 ; 0.0
53 ; 7946761.976887149 ; 2.016923720368352E8 ; 4.0414449167417204E8 ; 9.05522348653806E9 ; 0.0
54 ; 7947507.13787948 ; 2.0170546159249082E8 ; 4.120912536510592E8 ; 9.256915858574894E9 ; 0.0
55 ; 7953731.93877216 ; 2.0171871221282074E8 ; 4.200387607889387E8 ; 9.458621320167385E9 ; 0.0
56 ; 7954388.103382539 ; 2.017321184321298E8 ; 4.2799249272771084E8 ; 9.660340032380205E9 ; 0.0
57 ; 7957614.0842790855 ; 2.0174567491503805E8 ; 4.359468808310934E8 ; 9.862072150812334E9 ; 0.0
58 ; 7962441.895363297 ; 2.017593764561645E8 ; 4.4390449491537243E8 ; 1.0063817825727371E10 ; 0.0
59 ; 7962267.903033044 ; 2.0177321797944248E8 ; 4.518669368107357E8 ; 1.0265577202183537E10 ; 0.0
60 ; 7962220.632497512 ; 2.0178719453710693E8 ; 4.598292047137687E8 ; 1.046735042016298E10 ; 0.0
61 ; 7965837.098215446 ; 2.0180130130839223E8 ; 4.677914253462662E8 ; 1.0669137614700087E10 ; 0.0
62 ; 7966649.852160096 ; 2.0181553359797606E8 ; 4.757572624444817E8 ; 1.0870938916008478E10 ; 0.0
63 ; 7968963.636929447 ; 2.01829886834202E8 ; 4.8372391229664177E8 ; 1.1072754449606455E10 ; 0.0
64 ; 7974742.506682967 ; 2.0184435656711152E8 ; 4.916928759335712E8 ; 1.1274584336440657E10 ; 0.0
65 ; 7974988.919261587 ; 2.018589384663138E8 ; 4.996676184402542E8 ; 1.1476428693007769E10 ; 0.0
66 ; 7977674.928542365 ; 2.0187362831871808E8 ; 5.076426073595158E8 ; 1.1678287631474083E10 ; 0.0
67 ; 7980957.649040761 ; 2.0188842202615303E8 ; 5.1562028228805816E8 ; 1.18801612597928E10 ; 0.0
68 ; 7979331.755124357 ; 2.0190331560289377E8 ; 5.236012399370989E8 ; 1.2082049681818954E10 ; 0.0
69 ; 7980394.963062649 ; 2.019183051731163E8 ; 5.3158057169222325E8 ; 1.2283952997421848E10 ; 0.0
70 ; 7985525.049982258 ; 2.0193338696829647E8 ; 5.39560966655286E8 ; 1.2485871302594965E10 ; 0.0
71 ; 7986397.344571966 ; 2.0194855732456917E8 ; 5.475464917052683E8 ; 1.2687804689563261E10 ; 0.0
72 ; 7988340.315006487 ; 2.019638126800622E8 ; 5.555328890498402E8 ; 1.288975324688783E10 ; 0.0
73 ; 7988401.356937949 ; 2.0197914957221678E8 ; 5.635212293648467E8 ; 1.3091717059567892E10 ; 0.0
74 ; 7988520.524644345 ; 2.0199456463510597E8 ; 5.715096307217847E8 ; 1.3293696209140108E10 ; 0.0
75 ; 7988449.299554924 ; 2.0201005459676135E8 ; 5.794981512464291E8 ; 1.3495690773775213E10 ; 0.0
76 ; 7993770.026044509 ; 2.0202561627651548E8 ; 5.87486600545984E8 ; 1.3697700828371975E10 ; 0.0
77 ; 7994699.058823243 ; 2.020412465823689E8 ; 5.954803705720285E8 ; 1.389972644464849E10 ; 0.0
78 ; 7995934.901048808 ; 2.020569425083871E8 ; 6.034750696308517E8 ; 1.410176769123086E10 ; 0.0
79 ; 7992678.7154137455 ; 2.0207270113213387E8 ; 6.114710045319005E8 ; 1.4303824633739246E10 ; 0.0
80 ; 7991347.477250566 ; 2.0208851961214563E8 ; 6.194636832473142E8 ; 1.450589733487138E10 ; 0.0
81 ; 7987292.424170956 ; 2.0210439518545038E8 ; 6.274550307245648E8 ; 1.4707985854483526E10 ; 0.0
82 ; 7990074.8706315635 ; 2.0212032516513517E8 ; 6.354423231487358E8 ; 1.4910090249668976E10 ; 0.0
83 ; 7987246.720911732 ; 2.021363069379648E8 ; 6.434323980193673E8 ; 1.511221057483411E10 ; 0.0
84 ; 7983312.03499424 ; 2.021523379620536E8 ; 6.514196447402791E8 ; 1.5314346881772076E10 ; 0.0
85 ; 7982450.275098808 ; 2.0216841576459253E8 ; 6.594029567752733E8 ; 1.5516499219734129E10 ; 0.0
86 ; 7982180.558245009 ; 2.021845379396325E8 ; 6.673854070503721E8 ; 1.5718667635498722E10 ; 0.0
87 ; 7980356.21559246 ; 2.0220070214592534E8 ; 6.753675876086172E8 ; 1.5920852173438354E10 ; 0.0
88 ; 7980536.662956943 ; 2.022169061048224E8 ; 6.833479438242097E8 ; 1.612305287558428E10 ; 0.0
89 ; 7978121.060223078 ; 2.0223314759823146E8 ; 6.913284804871666E8 ; 1.6325269781689102E10 ; 0.0
90 ; 7977098.328947053 ; 2.022494244666323E8 ; 6.993066015473897E8 ; 1.6527502929287334E10 ; 0.0
91 ; 7973680.983767239 ; 2.0226573460714975E8 ; 7.072836998763368E8 ; 1.6729752353753967E10 ; 0.0
92 ; 7970517.425498564 ; 2.0228207597168487E8 ; 7.152573808601041E8 ; 1.6932018088361116E10 ; 0.0
93 ; 7970284.221797952 ; 2.0229844656510314E8 ; 7.232278982856027E8 ; 1.7134300164332802E10 ; 0.0
94 ; 7967898.01564029 ; 2.0231484444347897E8 ; 7.311981825074006E8 ; 1.7336598610897903E10 ; 0.0
95 ; 7964233.837195599 ; 2.0233126771239597E8 ; 7.391660805230409E8 ; 1.753891345534138E10 ; 0.0
96 ; 7963144.847261732 ; 2.0234771452530155E8 ; 7.471303143602365E8 ; 1.7741244723053776E10 ; 0.0
97 ; 7961487.420698772 ; 2.0236418308191535E8 ; 7.550934592074983E8 ; 1.794359243757908E10 ; 0.0
98 ; 7961322.258294367 ; 2.0238067162669006E8 ; 7.630549466281971E8 ; 1.8145956620660995E10 ; 0.0
99 ; 7958128.576866554 ; 2.0239717844732347E8 ; 7.710162688864914E8 ; 1.8348337292287685E10 ; 0.0
100 ; 7952497.5829710625 ; 2.0241370187332076E8 ; 7.789743974633579E8 ; 1.855073447073501E10 ; 0.0
101 ; 7949188.7994772075 ; 2.024302402746054E8 ; 7.86926895046329E8 ; 1.875314817260833E10 ; 0.0
102 ; 7950177.422675232 ; 2.024467920601777E8 ; 7.948760838458062E8 ; 1.8955578412882935E10 ; 0.0
103 ; 7944773.59447453 ; 2.0246335567681992E8 ; 8.028262612684815E8 ; 1.915802520494311E10 ; 0.0
104 ; 7941217.133174687 ; 2.024799296078456E8 ; 8.10771034862956E8 ; 1.936048856061993E10 ; 0.0
105 ; 7940157.9952485785 ; 2.0249651237189344E8 ; 8.187122519961307E8 ; 1.9562968490227776E10 ; 0.0
106 ; 7938846.351172721 ; 2.0251310252176273E8 ; 8.266524099913793E8 ; 1.976546500259967E10 ; 0.0
107 ; 7935861.967143366 ; 2.0252969864329043E8 ; 8.34591256342552E8 ; 1.9967978105121433E10 ; 0.0
108 ; 7930355.621808868 ; 2.0254629935426757E8 ; 8.425271183096954E8 ; 2.0170507803764725E10 ; 0.0
109 ; 7926445.146024827 ; 2.025629033033944E8 ; 8.504574739315042E8 ; 2.037305410311899E10 ; 0.0
110 ; 7925824.976921549 ; 2.0257950916927278E8 ; 8.583839190775291E8 ; 2.0575617006422386E10 ; 0.0
111 ; 7922649.928316668 ; 2.0259611565943435E8 ; 8.663097440544506E8 ; 2.077819651559166E10 ; 0.0
112 ; 7918774.934532622 ; 2.0261272150940382E8 ; 8.742323939827673E8 ; 2.0980792631251095E10 ; 0.0
113 ; 7915702.664761242 ; 2.0262932548179567E8 ; 8.821511689173E8 ; 2.1183405352760498E10 ; 0.0
114 ; 7911361.614652761 ; 2.0264592636544335E8 ; 8.900668715820612E8 ; 2.1386034678242294E10 ; 0.0
115 ; 7909693.630263377 ; 2.0266252297456005E8 ; 8.979782331967139E8 ; 2.158868060460774E10 ; 0.0
116 ; 7903639.79571375 ; 2.0267911414792928E8 ; 9.058879268269773E8 ; 2.17913431275823E10 ; 0.0
117 ; 7899880.086078752 ; 2.026956987481252E8 ; 9.13791566622691E8 ; 2.199402224173023E10 ; 0.0
118 ; 7898359.523670549 ; 2.027122756607605E8 ; 9.216914467087698E8 ; 2.2196717940478355E10 ; 0.0
119 ; 7895532.144345511 ; 2.0272884379376194E8 ; 9.295898062324404E8 ; 2.2399430216139114E10 ; 0.0
120 ; 7888522.645447342 ; 2.0274540207667175E8 ; 9.374853383767859E8 ; 2.2602159059932877E10 ; 0.0
121 ; 7885672.823849087 ; 2.0276194945997423E8 ; 9.453738610222332E8 ; 2.280490446200955E10 ; 0.0
122 ; 7883555.118326984 ; 2.0277848491444695E8 ; 9.532595338460823E8 ; 2.300766641146952E10 ; 0.0
123 ; 7878612.676860972 ; 2.027950074305349E8 ; 9.611430889644094E8 ; 2.321044489638397E10 ; 0.0
124 ; 7873808.457438982 ; 2.0281151601774758E8 ; 9.690217016412703E8 ; 2.3413239903814503E10 ; 0.0
125 ; 7868443.206674967 ; 2.0282800970407766E8 ; 9.768955100987092E8 ; 2.361605141983225E10 ; 0.0
126 ; 7865638.9837563615 ; 2.0284448753544044E8 ; 9.847639533053842E8 ; 2.3818879429536327E10 ; 0.0
127 ; 7859768.008618582 ; 2.0286094857513362E8 ; 9.926295922891405E8 ; 2.402172391707177E10 ; 0.0
128 ; 7857393.921139817 ; 2.0287739190331644E8 ; 1.000489360297759E9 ; 2.4224584865646904E10 ; 0.0
129 ; 7852429.691505837 ; 2.0289381661650735E8 ; 1.0083467542188989E9 ; 2.442746225755022E10 ; 0.0
130 ; 7847198.4919212265 ; 2.0291022182709986E8 ; 1.0161991839104047E9 ; 2.463035607416673E10 ; 0.0
131 ; 7840032.770764159 ; 2.0292660666289544E8 ; 1.0240463824023259E9 ; 2.4833266295993828E10 ; 0.0
132 ; 7834728.977752028 ; 2.029429702666534E8 ; 1.03188641517309E9 ; 2.5036192902656723E10 ; 0.0
133 ; 7826751.685206595 ; 2.0295931179565638E8 ; 1.039721144150842E9 ; 2.5239135872923378E10 ; 0.0
134 ; 7821066.452313655 ; 2.0297563042129174E8 ; 1.0475478958360486E9 ; 2.5442095184719036E10 ; 0.0
135 ; 7813318.05536115 ; 2.029919253286475E8 ; 1.0553689622883623E9 ; 2.5645070815140327E10 ; 0.0
136 ; 7806510.8379728515 ; 2.030081957161225E8 ; 1.0631822803437234E9 ; 2.5848062740468975E10 ; 0.0
137 ; 7797001.794352909 ; 2.0302444079505083E8 ; 1.0709887911816963E9 ; 2.6051070936185097E10 ; 0.0
138 ; 7790861.869673396 ; 2.0304065978933874E8 ; 1.0787857929760492E9 ; 2.625409537698015E10 ; 0.0
139 ; 7779619.869853693 ; 2.0305685193511507E8 ; 1.0865766548457227E9 ; 2.6457136036769485E10 ; 0.0
140 ; 7760252.487026244 ; 2.030730164803934E8 ; 1.0943562747155764E9 ; 2.66601928887046E10 ; 0.0
141 ; 7744596.065594206 ; 2.0308915268474635E8 ; 1.1021165272026026E9 ; 2.6863265905184994E10 ; 0.0
142 ; 7726603.494725986 ; 2.0310525981899107E8 ; 1.1098611232681968E9 ; 2.706635505786974E10 ; 0.0
143 ; 7709227.468374562 ; 2.0312133716488573E8 ; 1.1175877267629228E9 ; 2.7269460317688732E10 ; 0.0
144 ; 7688446.126973148 ; 2.0313738401483673E8 ; 1.1252969542312973E9 ; 2.747258165485362E10 ; 0.0
145 ; 7674099.73347993 ; 2.0315339967161572E8 ; 1.1329854003582704E9 ; 2.7675719038868454E10 ; 0.0
146 ; 7661388.035267087 ; 2.0316938344808668E8 ; 1.1406595000917504E9 ; 2.787887243854007E10 ; 0.0
147 ; 7642326.0765417 ; 2.031853346669424E8 ; 1.1483208881270175E9 ; 2.8082041821988155E10 ; 0.0
148 ; 7629758.49055686 ; 2.032012526604497E8 ; 1.1559632142035592E9 ; 2.8285227156655098E10 ; 0.0
149 ; 7618649.520890258 ; 2.0321713677020407E8 ; 1.163592972694116E9 ; 2.8488428409315548E10 ; 0.0
150 ; 7601067.395224832 ; 2.0323298634689176E8 ; 1.1712116222150064E9 ; 2.869164554608575E10 ; 0.0
151 ; 7586827.228936822 ; 2.0324880075006095E8 ; 1.1788126896102312E9 ; 2.8894878532432644E10 ; 0.0
152 ; 7571288.839660838 ; 2.0326457934789997E8 ; 1.186399516839168E9 ; 2.9098127333182705E10 ; 0.0
153 ; 7555117.889104052 ; 2.0328032151702347E8 ; 1.193970805678829E9 ; 2.9301391912530605E10 ; 0.0
154 ; 7540194.367873239 ; 2.032960266422657E8 ; 1.201525923567933E9 ; 2.950467223404763E10 ; 0.0
155 ; 7526491.297320918 ; 2.0331169411648077E8 ; 1.2090661179358063E9 ; 2.9707968260689896E10 ; 0.0
156 ; 7509386.28779746 ; 2.033273233403495E8 ; 1.216592609233127E9 ; 2.9911279954806377E10 ; 0.0
157 ; 7496876.415096293 ; 2.0334291372219306E8 ; 1.2241019955209246E9 ; 3.011460727814673E10 ; 0.0
158 ; 7481376.693927959 ; 2.0335846467779258E8 ; 1.2315988719360209E9 ; 3.0317950191868923E10 ; 0.0
159 ; 7465142.043013374 ; 2.0337397563021496E8 ; 1.2390802486299489E9 ; 3.0521308656546715E10 ; 0.0
160 ; 7449280.781181649 ; 2.033894460096443E8 ; 1.2465453906729622E9 ; 3.072468263217693E10 ; 0.0
161 ; 7435274.153036223 ; 2.0340487525321904E8 ; 1.2539946714541438E9 ; 3.0928072078186573E10 ; 0.0
162 ; 7420790.309074664 ; 2.0342026280487454E8 ; 1.2614299456071799E9 ; 3.1131476953439793E10 ; 0.0
163 ; 7403558.766270942 ; 2.034356081151908E8 ; 1.2688507359162545E9 ; 3.1334897216244667E10 ; 0.0
164 ; 7387102.991474872 ; 2.0345091064124513E8 ; 1.2762542946825254E9 ; 3.153833282435986E10 ; 0.0
165 ; 7374332.577613965 ; 2.0346616984646976E8 ; 1.2836413976740003E9 ; 3.1741783735001106E10 ; 0.0
166 ; 7357975.931760458 ; 2.034813852005141E8 ; 1.2910157302516143E9 ; 3.1945249904847576E10 ; 0.0
167 ; 7345126.346242716 ; 2.0349655617911148E8 ; 1.298373706183375E9 ; 3.214873129004809E10 ; 0.0
168 ; 7327831.270474941 ; 2.0351168226395017E8 ; 1.3057188325296175E9 ; 3.2352227846227203E10 ; 0.0
169 ; 7310868.9180590045 ; 2.035267629425487E8 ; 1.3130466638000925E9 ; 3.2555739528491154E10 ; 0.0
170 ; 7298544.747580786 ; 2.0354179770813516E8 ; 1.3203575327181516E9 ; 3.27592662914337E10 ; 0.0
171 ; 7281535.6640467 ; 2.0355678605953047E8 ; 1.3276560774657323E9 ; 3.2962808089141834E10 ; 0.0
172 ; 7264285.18206637 ; 2.0357172750103527E8 ; 1.334937613129779E9 ; 3.3166364875201366E10 ; 0.0
173 ; 7251118.445580122 ; 2.0358662154232055E8 ; 1.3422018983118455E9 ; 3.33699366027024E10 ; 0.0
174 ; 7236006.344587012 ; 2.0360146769832185E8 ; 1.3494530167574255E9 ; 3.357352322424472E10 ; 0.0
175 ; 7223893.712974571 ; 2.0361626548913667E8 ; 1.3566890231020126E9 ; 3.3777124691943043E10 ; 0.0
176 ; 7208998.127896246 ; 2.0363101443992534E8 ; 1.3639129168149872E9 ; 3.398074095743218E10 ; 0.0
177 ; 7197423.261224664 ; 2.0364571408081484E8 ; 1.3711219149428835E9 ; 3.4184371971872105E10 ; 0.0
178 ; 7183450.670528045 ; 2.0366036394680592E8 ; 1.3783193382041082E9 ; 3.438801768595292E10 ; 0.0
179 ; 7170008.469162493 ; 2.036749635776829E8 ; 1.3855027888746362E9 ; 3.459167804989973E10 ; 0.0
180 ; 7159013.012565304 ; 2.036895125179266E8 ; 1.3926727973437986E9 ; 3.479535301347741E10 ; 0.0
181 ; 7144369.701621241 ; 2.0370401031662974E8 ; 1.399831810356364E9 ; 3.499904252599534E10 ; 0.0
182 ; 7129221.4686461715 ; 2.037184565274151E8 ; 1.4069761800579853E9 ; 3.5202746536311966E10 ; 0.0
183 ; 7119006.849313878 ; 2.0373285070835644E8 ; 1.4141054015266316E9 ; 3.540646499283938E10 ; 0.0
184 ; 7104192.182167605 ; 2.0374719242190155E8 ; 1.4212244083759456E9 ; 3.561019784354774E10 ; 0.0
185 ; 7092307.331828524 ; 2.0376148123479795E8 ; 1.428328600558113E9 ; 3.5813945035969635E10 ; 0.0
186 ; 7076262.613018709 ; 2.037757167180209E8 ; 1.4354209078899417E9 ; 3.601770651720443E10 ; 0.0
187 ; 7062168.728436781 ; 2.0378989844670334E8 ; 1.4424971705029604E9 ; 3.622148223392245E10 ; 0.0
188 ; 7047249.761459294 ; 2.0380402600006863E8 ; 1.4495593392313972E9 ; 3.642527213236915E10 ; 0.0
189 ; 7033759.604419339 ; 2.0381809896136457E8 ; 1.4566065889928565E9 ; 3.662907615836922E10 ; 0.0
190 ; 7021564.293830622 ; 2.0383211691780016E8 ; 1.4636403485972757E9 ; 3.683289425733058E10 ; 0.0
191 ; 7008968.375102459 ; 2.038460794604839E8 ; 1.4706619128911064E9 ; 3.703672637424838E10 ; 0.0
192 ; 6995385.185854112 ; 2.038599861843641E8 ; 1.477670881266209E9 ; 3.724057245370887E10 ; 0.0
193 ; 6982040.738040048 ; 2.038738366881711E8 ; 1.484666266452063E9 ; 3.7444432439893234E10 ; 0.0
194 ; 6971815.804262183 ; 2.038876305743611E8 ; 1.491648307190103E9 ; 3.7648306276581406E10 ; 0.0
195 ; 6955561.327953761 ; 2.0390136744906178E8 ; 1.4986201229943652E9 ; 3.785219390715577E10 ; 0.0
196 ; 6944019.7997037945 ; 2.039150469220198E8 ; 1.505575684322319E9 ; 3.805609527460483E10 ; 0.0
197 ; 6929169.343917596 ; 2.0392866860654938E8 ; 1.5125197041220229E9 ; 3.826001032152685E10 ; 0.0
198 ; 6917907.55616218 ; 2.0394223211948296E8 ; 1.5194488734659405E9 ; 3.84639389901334E10 ; 0.0
199 ; 6901268.998272245 ; 2.039557370811231E8 ; 1.5263667810221026E9 ; 3.8667881222252884E10 ; 0.0
200 ; 6888048.524011001 ; 1.735589112293143E8 ; 1.5332680500203748E9 ; 3.887183695933401E10 ; 0.0
201 ; 6876184.264512582 ; 1.5514257662994987E8 ; 1.5401560985443857E9 ; 3.9045395870563324E10 ; 0.0
