CSV File for the City 1 on Day 90
1 - Minute m 
2 - Power Consumed at minute m 
3 - Power Produced at minute m 
4 - Energy Consumed since the beginning of the day 
5 - Energy Produced since the beginning of the day 
6 - Energy Lost since the beginning of the day on lines starting from the city
 
0 ; 1.6081993497704564E7 ; 1.0553303613537839E8 ; 0.0 ; 0.0 ; 0.0
1 ; 1.6095044399302026E7 ; 1.0568598355442941E8 ; 1.6081993497704564E7 ; 1.0553303613537839E8 ; 0.0
2 ; 1.6115212828357313E7 ; 1.0614771291962674E8 ; 3.217703789700659E7 ; 2.112190196898078E8 ; 0.0
3 ; 1.6137822490127902E7 ; 1.0691822573298913E8 ; 4.82922507253639E7 ; 3.1736673260943455E8 ; 0.0
4 ; 1.6159717176299639E7 ; 1.0799752334086215E8 ; 6.44300732154918E7 ; 4.242849583424237E8 ; 0.0
5 ; 1.6188039278520677E7 ; 1.0938560692636824E8 ; 8.058979039179143E7 ; 5.3228248168328583E8 ; 0.0
6 ; 1.623192922226872E7 ; 1.1108247750264302E8 ; 9.67778296703121E7 ; 6.416680886096541E8 ; 0.0
7 ; 1.6276403355491694E7 ; 1.1308813590694809E8 ; 1.1300975889258082E8 ; 7.52750566112297E8 ; 0.0
8 ; 1.6359550924205467E7 ; 1.1540258279573798E8 ; 1.2928616224807252E8 ; 8.658387020192451E8 ; 0.0
9 ; 1.6475408663676897E7 ; 1.1802581864075011E8 ; 1.45645713172278E8 ; 9.812412848149831E8 ; 0.0
10 ; 1.6657730783257352E7 ; 1.2095784372617161E8 ; 1.6212112183595487E8 ; 1.0992671034557333E9 ; 0.0
11 ; 1.6945650741468184E7 ; 1.2419865814692298E8 ; 1.7877885261921224E8 ; 1.2202249471819048E9 ; 0.0
12 ; 1.7408798664537895E7 ; 1.2774826180808368E8 ; 1.9572450336068043E8 ; 1.3444236053288279E9 ; 0.0
13 ; 1.7851934470146917E7 ; 1.316066544254666E8 ; 2.1313330202521834E8 ; 1.4721718671369116E9 ; 0.0
14 ; 1.790868945167911E7 ; 1.357738355273344E8 ; 2.3098523649536526E8 ; 1.6037785215623782E9 ; 0.0
15 ; 1.7926062995009873E7 ; 1.4024980445723242E8 ; 2.4889392594704437E8 ; 1.7395523570897126E9 ; 0.0
16 ; 1.7953431254872847E7 ; 1.450345603778992E8 ; 2.6681998894205424E8 ; 1.879802161546945E9 ; 0.0
17 ; 1.7970521881130077E7 ; 1.50128102276199E8 ; 2.847734201969271E8 ; 2.0248367219248443E9 ; 0.0
18 ; 1.799123887850883E7 ; 1.5553042896900946E8 ; 3.0274394207805717E8 ; 2.174964824201043E9 ; 0.0
19 ; 1.801166630748988E7 ; 1.6124153910998496E8 ; 3.20735180956566E8 ; 2.3304952531700525E9 ; 0.0
20 ; 1.8038407212833047E7 ; 1.6726143119710675E8 ; 3.3874684726405585E8 ; 2.4917367922800374E9 ; 0.0
21 ; 1.8059949068737388E7 ; 1.7359010358092305E8 ; 3.567852544768889E8 ; 2.6589982234771442E9 ; 0.0
22 ; 1.807505741107239E7 ; 1.8022755447337776E8 ; 3.748452035456263E8 ; 2.8325883270580673E9 ; 0.0
23 ; 1.8098541960054886E7 ; 1.871737819571222E8 ; 3.9292026095669866E8 ; 3.012815881531445E9 ; 0.0
24 ; 1.812385011470082E7 ; 1.9442878399520254E8 ; 4.1101880291675353E8 ; 3.1999896634885674E9 ; 0.0
25 ; 1.813915853661931E7 ; 2.0068059933920264E8 ; 4.291426530314543E8 ; 3.39441844748377E9 ; 0.0
26 ; 1.8162959863112643E7 ; 2.0068277357626578E8 ; 4.4728181156807363E8 ; 3.5950990468229723E9 ; 0.0
27 ; 1.8183194023363438E7 ; 2.0068507366419348E8 ; 4.6544477143118626E8 ; 3.795781820399238E9 ; 0.0
28 ; 1.820149784533052E7 ; 2.006874971883887E8 ; 4.836279654545497E8 ; 3.9964668940634317E9 ; 0.0
29 ; 1.8224582746861078E7 ; 2.00690041665162E8 ; 5.018294632998802E8 ; 4.1971543912518206E9 ; 0.0
30 ; 1.8240736321811948E7 ; 2.0069270455160323E8 ; 5.200540460467413E8 ; 4.397844432916983E9 ; 0.0
31 ; 1.8264539401698332E7 ; 2.006954832551947E8 ; 5.382947823685533E8 ; 4.598537137468586E9 ; 0.0
32 ; 1.828029630176523E7 ; 2.0069837514310405E8 ; 5.565593217702516E8 ; 4.799232620723781E9 ; 0.0
33 ; 1.829782211489359E7 ; 2.0070137755110493E8 ; 5.748396180720168E8 ; 4.999930995866884E9 ; 0.0
34 ; 1.8318168182597086E7 ; 2.0070448779208213E8 ; 5.931374401869104E8 ; 5.200632373417989E9 ; 0.0
35 ; 1.8335339508405726E7 ; 2.0070770316408607E8 ; 6.114556083695074E8 ; 5.401336861210071E9 ; 0.0
36 ; 1.835418230925291E7 ; 2.0071102095791143E8 ; 6.297909478779131E8 ; 5.602044564374157E9 ; 0.0
37 ; 1.8368777215536103E7 ; 2.0071443846418044E8 ; 6.48145130187166E8 ; 5.802755585332068E9 ; 0.0
38 ; 1.838721972388101E7 ; 2.0071795297992018E8 ; 6.665139074027021E8 ; 6.003470023796248E9 ; 0.0
39 ; 1.839738585934254E7 ; 2.0072156181462938E8 ; 6.849011271265831E8 ; 6.204187976776169E9 ; 0.0
40 ; 1.8414168668755572E7 ; 2.007252622958358E8 ; 7.032985129859257E8 ; 6.404909538590798E9 ; 0.0
41 ; 1.842805769396212E7 ; 2.007290517741506E8 ; 7.217126816546812E8 ; 6.605634800886634E9 ; 0.0
42 ; 1.8441546776539788E7 ; 2.0073292762783116E8 ; 7.401407393486433E8 ; 6.806363852660785E9 ; 0.0
43 ; 1.8453943621819064E7 ; 2.0073688726686615E8 ; 7.585822861251831E8 ; 7.007096780288616E9 ; 0.0
44 ; 1.846434489160663E7 ; 2.007409281366016E8 ; 7.770362297470021E8 ; 7.207833667555482E9 ; 0.0
45 ; 1.8475058385238223E7 ; 2.0074504772092757E8 ; 7.955005746386087E8 ; 7.408574595692083E9 ; 0.0
46 ; 1.8485617375708718E7 ; 2.0074924354504764E8 ; 8.139756330238469E8 ; 7.609319643413011E9 ; 0.0
47 ; 1.84985184737977E7 ; 2.0075351317785493E8 ; 8.324612503995556E8 ; 7.810068886958058E9 ; 0.0
48 ; 1.8505354787768245E7 ; 2.0075785423393878E8 ; 8.509597688733532E8 ; 8.010822400135913E9 ; 0.0
49 ; 1.8512351846975796E7 ; 2.0076226437524685E8 ; 8.694651236611215E8 ; 8.211580254369852E9 ; 0.0
50 ; 1.8517105387717873E7 ; 2.0076674131242794E8 ; 8.879774755080973E8 ; 8.412342518745099E9 ; 0.0
51 ; 1.8523178638456415E7 ; 2.007712828058797E8 ; 9.064945808958151E8 ; 8.613109260057528E9 ; 0.0
52 ; 1.8529792354463257E7 ; 2.0077588666652608E8 ; 9.250177595342716E8 ; 8.813880542863407E9 ; 0.0
53 ; 1.853732844327384E7 ; 2.0078055075634724E8 ; 9.435475518887348E8 ; 9.014656429529934E9 ; 0.0
54 ; 1.853908940880423E7 ; 2.0078527298868588E8 ; 9.620848803320086E8 ; 9.215436980286282E9 ; 0.0
55 ; 1.8547320991090097E7 ; 2.0079005132835042E8 ; 9.806239697408128E8 ; 9.416222253274967E9 ; 0.0
56 ; 1.8551012271091677E7 ; 2.007948837915367E8 ; 9.991712907319028E8 ; 9.617012304603317E9 ; 0.0
57 ; 1.8560343982036818E7 ; 2.0079976844558704E8 ; 1.0177223030029945E9 ; 9.817807188394854E9 ; 0.0
58 ; 1.8562145092047874E7 ; 2.008047034086058E8 ; 1.0362826469850314E9 ; 1.001860695684044E10 ; 0.0
59 ; 1.8566176927410226E7 ; 2.0080968684894753E8 ; 1.0548447920770793E9 ; 1.0219411660249046E10 ; 0.0
60 ; 1.856894285734057E7 ; 2.0081471698459464E8 ; 1.0734109690044895E9 ; 1.0420221347097994E10 ; 0.0
61 ; 1.8578827851093005E7 ; 2.0081979208243895E8 ; 1.09197991186183E9 ; 1.0621036064082588E10 ; 0.0
62 ; 1.8582127370671734E7 ; 2.0082491045748052E8 ; 1.110558739712923E9 ; 1.0821855856165028E10 ; 0.0
63 ; 1.8586518357604366E7 ; 2.0083007047195664E8 ; 1.1291408670835948E9 ; 1.1022680766622509E10 ; 0.0
64 ; 1.8588821562407047E7 ; 2.0083527053441218E8 ; 1.147727385441199E9 ; 1.1223510837094465E10 ; 0.0
65 ; 1.8595540131310116E7 ; 2.0084050909872162E8 ; 1.166316207003606E9 ; 1.1424346107628878E10 ; 0.0
66 ; 1.85922706686834E7 ; 2.008457846630723E8 ; 1.1849117471349163E9 ; 1.16251866167276E10 ; 0.0
67 ; 1.859922772434161E7 ; 2.0085109576891735E8 ; 1.2035040178035996E9 ; 1.1826032401390673E10 ; 0.0
68 ; 1.8602719331909996E7 ; 2.0085644099990582E8 ; 1.2221032455279412E9 ; 1.202688349715959E10 ; 0.0
69 ; 1.860509201074996E7 ; 2.0086181898079693E8 ; 1.2407059648598511E9 ; 1.2227739938159496E10 ; 0.0
70 ; 1.860449906408807E7 ; 2.0086722837636465E8 ; 1.2593110568706012E9 ; 1.2428601757140293E10 ; 0.0
71 ; 1.8610596442725863E7 ; 2.0087266789029756E8 ; 1.2779155559346893E9 ; 1.2629468985516657E10 ; 0.0
72 ; 1.8613161964287683E7 ; 2.008781362640994E8 ; 1.2965261523774152E9 ; 1.2830341653406954E10 ; 0.0
73 ; 1.861173185638579E7 ; 2.008836322759938E8 ; 1.315139314341703E9 ; 1.3031219789671053E10 ; 0.0
74 ; 1.8615379436033327E7 ; 2.008891547398374E8 ; 1.3337510461980886E9 ; 1.3232103421947046E10 ; 0.0
75 ; 1.8621126950877696E7 ; 2.0089470250404438E8 ; 1.352366425634122E9 ; 1.3432992576686884E10 ; 0.0
76 ; 1.862247171955399E7 ; 2.0090027445052457E8 ; 1.3709875525849996E9 ; 1.3633887279190928E10 ; 0.0
77 ; 1.8624857217163432E7 ; 2.009058694936384E8 ; 1.3896100243045535E9 ; 1.3834787553641453E10 ; 0.0
78 ; 1.862130242647575E7 ; 2.0091148657917002E8 ; 1.4082348815217168E9 ; 1.4035693423135092E10 ; 0.0
79 ; 1.86163434980977E7 ; 2.0091712468332022E8 ; 1.4268561839481926E9 ; 1.4236604909714262E10 ; 0.0
80 ; 1.8613025403943744E7 ; 2.009227828117209E8 ; 1.4454725274462903E9 ; 1.4437522034397583E10 ; 0.0
81 ; 1.8606828789108407E7 ; 2.009284599984717E8 ; 1.464085552850234E9 ; 1.4638444817209305E10 ; 0.0
82 ; 1.860137125284647E7 ; 2.0093415530519995E8 ; 1.4826923816393425E9 ; 1.4839373277207777E10 ; 0.0
83 ; 1.8601915069281537E7 ; 2.009398678201445E8 ; 1.501293752892189E9 ; 1.5040307432512978E10 ; 0.0
84 ; 1.8597751818399247E7 ; 2.009455966572639E8 ; 1.5198956679614706E9 ; 1.5241247300333122E10 ; 0.0
85 ; 1.859072221521897E7 ; 2.009513409553691E8 ; 1.5384934197798698E9 ; 1.5442192896990387E10 ; 0.0
86 ; 1.8585006769330803E7 ; 2.0095709987728116E8 ; 1.5570841419950888E9 ; 1.5643144237945757E10 ; 0.0
87 ; 1.8579570531481475E7 ; 2.009628726090135E8 ; 1.5756691487644196E9 ; 1.5844101337823038E10 ; 0.0
88 ; 1.8572907766664978E7 ; 2.0096865835897905E8 ; 1.594248719295901E9 ; 1.604506421043205E10 ; 0.0
89 ; 1.8569710362128615E7 ; 2.0097445635722208E8 ; 1.612821627062566E9 ; 1.6246032868791029E10 ; 0.0
90 ; 1.8562213692374263E7 ; 2.0098026585467428E8 ; 1.6313913374246945E9 ; 1.644700732514825E10 ; 0.0
91 ; 1.8560389168923516E7 ; 2.0098608612243465E8 ; 1.6499535511170688E9 ; 1.6647987591002924E10 ; 0.0
92 ; 1.855009679464596E7 ; 2.0099191645107347E8 ; 1.6685139402859924E9 ; 1.6848973677125359E10 ; 0.0
93 ; 1.8543551375780333E7 ; 2.009977561499591E8 ; 1.6870640370806384E9 ; 1.7049965593576431E10 ; 0.0
94 ; 1.8538919576392904E7 ; 2.0100360454660776E8 ; 1.7056075884564188E9 ; 1.725096334972639E10 ; 0.0
95 ; 1.853077427291601E7 ; 2.0100946098605558E8 ; 1.7241465080328116E9 ; 1.7451966954273E10 ; 0.0
96 ; 1.8523491456671614E7 ; 2.0101532483025226E8 ; 1.7426772823057277E9 ; 1.7652976415259056E10 ; 0.0
97 ; 1.8513365389511693E7 ; 2.0102119545747605E8 ; 1.7612007737623994E9 ; 1.785399174008931E10 ; 0.0
98 ; 1.851353695850519E7 ; 2.0102707226176932E8 ; 1.779714139151911E9 ; 1.8055012935546787E10 ; 0.0
99 ; 1.850174434798772E7 ; 2.0103295465239432E8 ; 1.7982276761104162E9 ; 1.8256040007808556E10 ; 0.0
100 ; 1.849930218545342E7 ; 2.0103884205330834E8 ; 1.8167294204584038E9 ; 1.845707296246095E10 ; 0.0
101 ; 1.8486546241305932E7 ; 2.0104473390265778E8 ; 1.8352287226438572E9 ; 1.8658111804514256E10 ; 0.0
102 ; 1.8481997075999297E7 ; 2.0105062965229064E8 ; 1.853715268885163E9 ; 1.8859156538416912E10 ; 0.0
103 ; 1.8476584805624362E7 ; 2.0105652876728693E8 ; 1.8721972659611623E9 ; 1.9060207168069202E10 ; 0.0
104 ; 1.8466687784939315E7 ; 2.0106243072550592E8 ; 1.8906738507667866E9 ; 1.926126369683649E10 ; 0.0
105 ; 1.845731593462631E7 ; 2.010683350171503E8 ; 1.9091405385517259E9 ; 1.9462326127561996E10 ; 0.0
106 ; 1.844988813103295E7 ; 2.0107424114434657E8 ; 1.9275978544863522E9 ; 1.9663394462579147E10 ; 0.0
107 ; 1.844021258374227E7 ; 2.0108014862074044E8 ; 1.9460477426173851E9 ; 1.9864468703723495E10 ; 0.0
108 ; 1.8433245444540195E7 ; 2.010860569711079E8 ; 1.9644879552011275E9 ; 2.0065548852344234E10 ; 0.0
109 ; 1.8427422588364873E7 ; 2.0109196573098013E8 ; 1.9829212006456678E9 ; 2.0266634909315342E10 ; 0.0
110 ; 1.841430508692358E7 ; 2.0109787444628292E8 ; 2.0013486232340326E9 ; 2.046772687504632E10 ; 0.0
111 ; 1.8409420965381227E7 ; 2.0110378267298922E8 ; 2.0197629283209562E9 ; 2.0668824749492603E10 ; 0.0
112 ; 1.83995831382972E7 ; 2.0110968997678468E8 ; 2.0381723492863374E9 ; 2.0869928532165592E10 ; 0.0
113 ; 1.838540852619787E7 ; 2.011155959327458E8 ; 2.0565719324246345E9 ; 2.1071038222142376E10 ; 0.0
114 ; 1.8379558157194633E7 ; 2.0112150012503022E8 ; 2.0749573409508324E9 ; 2.1272153818075123E10 ; 0.0
115 ; 1.836912110716033E7 ; 2.0112740214657825E8 ; 2.093336899108027E9 ; 2.1473275318200153E10 ; 0.0
116 ; 1.835581389569E7 ; 2.0113330159882593E8 ; 2.1117060202151873E9 ; 2.1674402720346733E10 ; 0.0
117 ; 1.8348398980431475E7 ; 2.0113919809142855E8 ; 2.1300618341108773E9 ; 2.187553602194556E10 ; 0.0
118 ; 1.8337886461937808E7 ; 2.0114509124199474E8 ; 2.1484102330913086E9 ; 2.2076675220036987E10 ; 0.0
119 ; 1.832212943510492E7 ; 2.0115098067583036E8 ; 2.1667481195532465E9 ; 2.227782031127898E10 ; 0.0
120 ; 1.8314321710429948E7 ; 2.01156866025692E8 ; 2.1850702489883513E9 ; 2.247897129195481E10 ; 0.0
121 ; 1.8305306601516135E7 ; 2.0116274693154943E8 ; 2.2033845706987815E9 ; 2.2680128157980503E10 ; 0.0
122 ; 1.8296471819921073E7 ; 2.011686230403576E8 ; 2.2216898773002977E9 ; 2.2881290904912052E10 ; 0.0
123 ; 1.8280485117570758E7 ; 2.011744940058362E8 ; 2.2399863491202188E9 ; 2.3082459527952408E10 ; 0.0
124 ; 1.827046478337384E7 ; 2.0118035948825806E8 ; 2.2582668342377896E9 ; 2.3283634021958244E10 ; 0.0
125 ; 1.8258359600330006E7 ; 2.0118621915424535E8 ; 2.2765372990211635E9 ; 2.3484814381446503E10 ; 0.0
126 ; 1.8249397273226622E7 ; 2.011920726765729E8 ; 2.2947956586214933E9 ; 2.3686000600600746E10 ; 0.0
127 ; 1.8236876280273013E7 ; 2.0119791973397934E8 ; 2.31304505589472E9 ; 2.388719267327732E10 ; 0.0
128 ; 1.822440239365411E7 ; 2.012037600109849E8 ; 2.331281932174993E9 ; 2.40883905930113E10 ; 0.0
129 ; 1.8209305882152874E7 ; 2.0120959319771585E8 ; 2.3495063345686474E9 ; 2.4289594353022285E10 ; 0.0
130 ; 1.81975447389746E7 ; 2.0121541898973578E8 ; 2.3677156404508004E9 ; 2.449080394622E10 ; 0.0
131 ; 1.8178733496252388E7 ; 2.012212370878826E8 ; 2.385913185189775E9 ; 2.4692019365209736E10 ; 0.0
132 ; 1.8162268931953404E7 ; 2.012270471981119E8 ; 2.4040919186860275E9 ; 2.489324060229762E10 ; 0.0
133 ; 1.813866197705818E7 ; 2.0123284903134573E8 ; 2.422254187617981E9 ; 2.509446764949573E10 ; 0.0
134 ; 1.8121739134632505E7 ; 2.0123864230332714E8 ; 2.4403928495950394E9 ; 2.5295700498527077E10 ; 0.0
135 ; 1.810708235201387E7 ; 2.0124442673447984E8 ; 2.458514588729672E9 ; 2.5496939140830402E10 ; 0.0
136 ; 1.8091524538429793E7 ; 2.0125020204977304E8 ; 2.476621671081686E9 ; 2.569818356756488E10 ; 0.0
137 ; 1.8066506917380452E7 ; 2.01255967978591E8 ; 2.4947131956201158E9 ; 2.5899433769614655E10 ; 0.0
138 ; 1.804808042481143E7 ; 2.012617242546077E8 ; 2.512779702537496E9 ; 2.6100689737593246E10 ; 0.0
139 ; 1.8028269567992892E7 ; 2.0126747061566556E8 ; 2.5308277829623075E9 ; 2.6301951461847855E10 ; 0.0
140 ; 1.801115634512591E7 ; 2.0127320680365863E8 ; 2.5488560525303E9 ; 2.650321893246352E10 ; 0.0
141 ; 1.7987953469136424E7 ; 2.0127893256442034E8 ; 2.566867208875426E9 ; 2.6704492139267178E10 ; 0.0
142 ; 1.797229730523818E7 ; 2.012846476476146E8 ; 2.584855162344562E9 ; 2.6905771071831596E10 ; 0.0
143 ; 1.7951193234424204E7 ; 2.012903518066314E8 ; 2.6028274596498003E9 ; 2.710705571947921E10 ; 0.0
144 ; 1.793543753803726E7 ; 2.0129604479848567E8 ; 2.6207786528842244E9 ; 2.7308346071285843E10 ; 0.0
145 ; 1.7917611355232097E7 ; 2.0130172638372E8 ; 2.6387140904222617E9 ; 2.7509642116084328E10 ; 0.0
146 ; 1.7906902933024153E7 ; 2.0130739632631066E8 ; 2.656631701777494E9 ; 2.771094384246805E10 ; 0.0
147 ; 1.7892599839440633E7 ; 2.013130543935769E8 ; 2.674538604710518E9 ; 2.7912251238794357E10 ; 0.0
148 ; 1.7881776438959E7 ; 2.013187003560936E8 ; 2.6924312045499587E9 ; 2.8113564293187935E10 ; 0.0
149 ; 1.786871935497214E7 ; 2.013243339876067E8 ; 2.710312980988918E9 ; 2.831488299354403E10 ; 0.0
150 ; 1.7850801967295833E7 ; 2.0132995506495196E8 ; 2.72818170034389E9 ; 2.8516207327531635E10 ; 0.0
151 ; 1.7837346062118895E7 ; 2.0133556336797613E8 ; 2.746032502311186E9 ; 2.871753728259659E10 ; 0.0
152 ; 1.7827813889906574E7 ; 2.013411586794612E8 ; 2.763869848373305E9 ; 2.8918872845964565E10 ; 0.0
153 ; 1.7813588818494678E7 ; 2.0134674078505108E8 ; 2.7816976622632113E9 ; 2.9120214004644028E10 ; 0.0
154 ; 1.7801584636529244E7 ; 2.0135230947318077E8 ; 2.799511251081706E9 ; 2.9321560745429077E10 ; 0.0
155 ; 1.7785300288427096E7 ; 2.0135786453500813E8 ; 2.8173128357182355E9 ; 2.952291305490226E10 ; 0.0
156 ; 1.7773399962312862E7 ; 2.01363405764348E8 ; 2.8350981360066624E9 ; 2.9724270919437267E10 ; 0.0
157 ; 1.7760537476565775E7 ; 2.0136893295760825E8 ; 2.852871535968975E9 ; 2.9925634325201614E10 ; 0.0
158 ; 1.774272393697761E7 ; 2.0137444591372845E8 ; 2.870632073445541E9 ; 3.012700325815922E10 ; 0.0
159 ; 1.773207119217018E7 ; 2.0137994443412027E8 ; 2.8883747973825183E9 ; 3.032837770407295E10 ; 0.0
160 ; 1.7720946856895946E7 ; 2.013854283226101E8 ; 2.9061068685746884E9 ; 3.052975764850707E10 ; 0.0
161 ; 1.7698407524428364E7 ; 2.0139089738538364E8 ; 2.9238278154315844E9 ; 3.0731143076829678E10 ; 0.0
162 ; 1.7688078611037884E7 ; 2.0139635143093204E8 ; 2.9415262229560127E9 ; 3.093253397421506E10 ; 0.0
163 ; 1.76744243850956E7 ; 2.0140179027000028E8 ; 2.9592143015670505E9 ; 3.1133930325645992E10 ; 0.0
164 ; 1.7660424797703955E7 ; 2.0140721371553692E8 ; 2.976888725952146E9 ; 3.1335332115915993E10 ; 0.0
165 ; 1.764320797958902E7 ; 2.0141262158264586E8 ; 2.99454915074985E9 ; 3.153673932963153E10 ; 0.0
166 ; 1.7632231032860387E7 ; 2.014180136885394E8 ; 3.012192358729439E9 ; 3.1738151951214176E10 ; 0.0
167 ; 1.7614907974229414E7 ; 2.0142338985249287E8 ; 3.029824589762299E9 ; 3.1939569964902714E10 ; 0.0
168 ; 1.7601829324682333E7 ; 2.0142874989580116E8 ; 3.0474394977365284E9 ; 3.2140993354755207E10 ; 0.0
169 ; 1.7586443499755923E7 ; 2.014340936417362E8 ; 3.0650413270612106E9 ; 3.234242210465101E10 ; 0.0
170 ; 1.7574690204786893E7 ; 2.0143942091550612E8 ; 3.0826277705609665E9 ; 3.2543856198292744E10 ; 0.0
171 ; 1.7559442614129502E7 ; 2.0144473154421556E8 ; 3.1002024607657533E9 ; 3.274529561920825E10 ; 0.0
172 ; 1.754596108683216E7 ; 2.0145002535682756E8 ; 3.117761903379883E9 ; 3.2946740350752464E10 ; 0.0
173 ; 1.7531108714452486E7 ; 2.0145530218412635E8 ; 3.135307864466715E9 ; 3.314819037610929E10 ; 0.0
174 ; 1.752046891981255E7 ; 2.014605618586817E8 ; 3.152838973181167E9 ; 3.334964567829342E10 ; 0.0
175 ; 1.751066639821165E7 ; 2.0146580421481416E8 ; 3.17035944210098E9 ; 3.35511062401521E10 ; 0.0
176 ; 1.7503077313792482E7 ; 2.0147102908856142E8 ; 3.1878701084991913E9 ; 3.3752572044366913E10 ; 0.0
177 ; 1.749495967191355E7 ; 2.014762363176461E8 ; 3.205373185812984E9 ; 3.3954043073455475E10 ; 0.0
178 ; 1.7487815474105366E7 ; 2.0148142574144408E8 ; 3.2228681454848976E9 ; 3.415551930977312E10 ; 0.0
179 ; 1.747879814900766E7 ; 2.014865972009543E8 ; 3.240355960959003E9 ; 3.4357000735514565E10 ; 0.0
180 ; 1.7464744878291164E7 ; 2.0149175053876925E8 ; 3.257834759108011E9 ; 3.4558487332715515E10 ; 0.0
181 ; 1.7457083771137826E7 ; 2.014968855990464E8 ; 3.275299503986302E9 ; 3.475997908325429E10 ; 0.0
182 ; 1.7449842139638342E7 ; 2.0150200222748086E8 ; 3.2927565877574396E9 ; 3.496147596885333E10 ; 0.0
183 ; 1.7439262461042058E7 ; 2.0150710027127835E8 ; 3.310206429897078E9 ; 3.516297797108081E10 ; 0.0
184 ; 1.7430078996235494E7 ; 2.0151217957912964E8 ; 3.32764569235812E9 ; 3.536448507135209E10 ; 0.0
185 ; 1.7420440121717867E7 ; 2.0151724000118536E8 ; 3.3450757713543553E9 ; 3.556599725093122E10 ; 0.0
186 ; 1.7412361175213896E7 ; 2.0152228138903186E8 ; 3.3624962114760733E9 ; 3.57675144909324E10 ; 0.0
187 ; 1.740412074513031E7 ; 2.0152730359566754E8 ; 3.379908572651287E9 ; 3.5969036772321434E10 ; 0.0
188 ; 1.7391182698650476E7 ; 2.015323064754804E8 ; 3.3973126933964176E9 ; 3.61705640759171E10 ; 0.0
189 ; 1.73850063994958E7 ; 2.0153728988422576E8 ; 3.414703876095068E9 ; 3.637209638239258E10 ; 0.0
190 ; 1.737725722309356E7 ; 2.0154225367900506E8 ; 3.4320888824945636E9 ; 3.65736336722768E10 ; 0.0
191 ; 1.7370618822642528E7 ; 2.015471977182451E8 ; 3.449466139717657E9 ; 3.677517592595581E10 ; 0.0
192 ; 1.735622850642466E7 ; 2.015521218616781E8 ; 3.4668367585402994E9 ; 3.697672312367406E10 ; 0.0
193 ; 1.7348177032925244E7 ; 2.0155702597032228E8 ; 3.484192987046724E9 ; 3.7178275245535736E10 ; 0.0
194 ; 1.7339521099348962E7 ; 2.0156190990646303E8 ; 3.501541164079649E9 ; 3.737983227150606E10 ; 0.0
195 ; 1.7328577901968185E7 ; 2.0156677353363472E8 ; 3.518880685178998E9 ; 3.758139418141252E10 ; 0.0
