CSV File for the City 6 on Day 317
1 - Minute m 
2 - Power Consumed at minute m 
3 - Power Produced at minute m 
4 - Energy Consumed since the beginning of the day 
5 - Energy Produced since the beginning of the day 
6 - Energy Lost since the beginning of the day on lines starting from the city
 
0 ; 1.1275448418146936E7 ; 1.0672749446811447E8 ; 0.0 ; 0.0 ; 0.0
1 ; 1.1283991018324317E7 ; 1.0687815527653658E8 ; 1.1275448418146936E7 ; 1.0672749446811447E8 ; 0.0
2 ; 1.130373525961362E7 ; 1.0733783530820087E8 ; 2.2559439436471254E7 ; 2.1360564974465105E8 ; 0.0
3 ; 1.1311490599001385E7 ; 1.0810653720119041E8 ; 3.386317469608487E7 ; 3.209434850528519E8 ; 0.0
4 ; 1.1329564196715698E7 ; 1.0918426330645227E8 ; 4.517466529508626E7 ; 4.290500222540423E8 ; 0.0
5 ; 1.1352777056120273E7 ; 1.1057101567932326E8 ; 5.6504229491801955E7 ; 5.382342855604947E8 ; 0.0
6 ; 1.137756562325593E7 ; 1.1226679607203063E8 ; 6.785700654792222E7 ; 6.488053012398179E8 ; 0.0
7 ; 1.1418567419555845E7 ; 1.1427160592723209E8 ; 7.923457217117816E7 ; 7.610720973118485E8 ; 0.0
8 ; 1.147038714585686E7 ; 1.1658544637265092E8 ; 9.0653139590734E7 ; 8.753437032390807E8 ; 0.0
9 ; 1.155228276156431E7 ; 1.1920831821685284E8 ; 1.0212352673659086E8 ; 9.919291496117315E8 ; 0.0
10 ; 1.1677581139564564E7 ; 1.2214022194620234E8 ; 1.1367580949815518E8 ; 1.1111374678285844E9 ; 0.0
11 ; 1.1874679650157632E7 ; 1.2538115772302571E8 ; 1.2535339063771974E8 ; 1.2332776897747867E9 ; 0.0
12 ; 1.2195395408890273E7 ; 1.2893112538499662E8 ; 1.3722807028787738E8 ; 1.3586588474978125E9 ; 0.0
13 ; 1.2499474255211178E7 ; 1.327901244457506E8 ; 1.4942346569676766E8 ; 1.4875899728828092E9 ; 0.0
14 ; 1.2532908899476973E7 ; 1.36958154096722E8 ; 1.6192293995197883E8 ; 1.6203800973285599E9 ; 0.0
15 ; 1.2550601491731014E7 ; 1.4143521321018744E8 ; 1.744558488514558E8 ; 1.757338251425282E9 ; 0.0
16 ; 1.2565184697973436E7 ; 1.4622130034348932E8 ; 1.8700645034318683E8 ; 1.8987734646354694E9 ; 0.0
17 ; 1.2579734039661344E7 ; 1.513164137444003E8 ; 1.9957163504116026E8 ; 2.0449947649789588E9 ; 0.0
18 ; 1.259309574270259E7 ; 1.5672055135758358E8 ; 2.121513690808216E8 ; 2.196311178723359E9 ; 0.0
19 ; 1.2611259001546126E7 ; 1.6243371083209214E8 ; 2.247444648235242E8 ; 2.3530317300809426E9 ; 0.0
20 ; 1.2626217206434466E7 ; 1.6845588952984282E8 ; 2.3735572382507032E8 ; 2.515465440913035E9 ; 0.0
21 ; 1.2640145603920233E7 ; 1.7478708453499535E8 ; 2.4998194103150478E8 ; 2.683921330442878E9 ; 0.0
22 ; 1.2650135040588373E7 ; 1.814272926641575E8 ; 2.62622086635425E8 ; 2.8587084149778733E9 ; 0.0
23 ; 1.2669991079111625E7 ; 1.883765104773364E8 ; 2.7527222167601335E8 ; 3.0401357076420307E9 ; 0.0
24 ; 1.2683522795130733E7 ; 1.956347342895484E8 ; 2.87942212755125E8 ; 3.228512218119367E9 ; 0.0
25 ; 1.2703553672748215E7 ; 2.0189000108118436E8 ; 3.006257355502557E8 ; 3.4241469524089155E9 ; 0.0
26 ; 1.2714702634917883E7 ; 2.0189585454756773E8 ; 3.133292892230039E8 ; 3.6260369534901E9 ; 0.0
27 ; 1.2727745548503539E7 ; 2.0190205963691148E8 ; 3.260439918579218E8 ; 3.8279328080376678E9 ; 0.0
28 ; 1.2745988166561833E7 ; 2.0190861181044567E8 ; 3.387717374064253E8 ; 4.029834867674579E9 ; 0.0
29 ; 1.2760311564810015E7 ; 2.0191550634923103E8 ; 3.5151772557298714E8 ; 4.231743479485025E9 ; 0.0
30 ; 1.2774887944704836E7 ; 2.019227383678563E8 ; 3.642780371377972E8 ; 4.433658985834256E9 ; 0.0
31 ; 1.2789927808138939E7 ; 2.0193030282818115E8 ; 3.77052925082502E8 ; 4.635581724202112E9 ; 0.0
32 ; 1.2802677716907702E7 ; 2.0193819455304828E8 ; 3.89842852890641E8 ; 4.837512027030293E9 ; 0.0
33 ; 1.2820034902670398E7 ; 2.0194640823989022E8 ; 4.0264553060754865E8 ; 5.039450221583342E9 ; 0.0
34 ; 1.2832243347550236E7 ; 2.0195493847416365E8 ; 4.1546556551021904E8 ; 5.241396629823232E9 ; 0.0
35 ; 1.284432888303171E7 ; 2.0196377974254838E8 ; 4.2829780885776925E8 ; 5.443351568297396E9 ; 0.0
36 ; 1.2856549798691671E7 ; 2.0197292644585392E8 ; 4.41142137740801E8 ; 5.645315348039944E9 ; 0.0
37 ; 1.2869223415386902E7 ; 2.0198237291158378E8 ; 4.5399868753949267E8 ; 5.847288274485798E9 ; 0.0
38 ; 1.2878795700020127E7 ; 2.019921134061117E8 ; 4.668679109548796E8 ; 6.049270647397382E9 ; 0.0
39 ; 1.289266845333538E7 ; 2.020021421464317E8 ; 4.797467066548997E8 ; 6.2512627608034935E9 ; 0.0
40 ; 1.2900787683743693E7 ; 2.0201245331144935E8 ; 4.926393751082351E8 ; 6.453264902949925E9 ; 0.0
41 ; 1.2915308766615916E7 ; 2.0202304105278617E8 ; 5.0554016279197884E8 ; 6.655277356261374E9 ; 0.0
42 ; 1.2920167355083419E7 ; 2.0203389950507712E8 ; 5.1845547155859476E8 ; 6.85730039731416E9 ; 0.0
43 ; 1.293363391180707E7 ; 2.0204502279574353E8 ; 5.3137563891367817E8 ; 7.059334296819238E9 ; 0.0
44 ; 1.2939622196934044E7 ; 2.0205640505423126E8 ; 5.443092728254852E8 ; 7.261379319614982E9 ; 0.0
45 ; 1.2947387036925243E7 ; 2.0206804042070642E8 ; 5.572488950224192E8 ; 7.463435724669213E9 ; 0.0
46 ; 1.2958270844794765E7 ; 2.020799230542072E8 ; 5.701962820593444E8 ; 7.66550376508992E9 ; 0.0
47 ; 1.2964180797209239E7 ; 2.0209204714025223E8 ; 5.831545529041392E8 ; 7.867583688144127E9 ; 0.0
48 ; 1.2968160583628818E7 ; 2.021044068979112E8 ; 5.961187337013484E8 ; 8.069675735284379E9 ; 0.0
49 ; 1.2974981688927444E7 ; 2.02116996586345E8 ; 6.090868942849772E8 ; 8.27178014218229E9 ; 0.0
50 ; 1.2978352012434103E7 ; 2.021298105108269E8 ; 6.220618759739046E8 ; 8.473897138768635E9 ; 0.0
51 ; 1.2986217687030207E7 ; 2.02142843028257E8 ; 6.350402279863387E8 ; 8.67602694927946E9 ; 0.0
52 ; 1.2990263695566518E7 ; 2.021560885521858E8 ; 6.480264456733689E8 ; 8.878169792307718E9 ; 0.0
53 ; 1.2994828579187013E7 ; 2.0216954155736294E8 ; 6.610167093689355E8 ; 9.080325880859903E9 ; 0.0
54 ; 1.3001057708534038E7 ; 2.0218319658382997E8 ; 6.740115379481225E8 ; 9.282495422417267E9 ; 0.0
55 ; 1.3003979007151093E7 ; 2.0219704824057576E8 ; 6.870125956566565E8 ; 9.484678619001097E9 ; 0.0
56 ; 1.3009033055302925E7 ; 2.022110912087748E8 ; 7.000165746638076E8 ; 9.686875667241673E9 ; 0.0
57 ; 1.3011960763448056E7 ; 2.02225320244629E8 ; 7.130256077191106E8 ; 9.889086758450447E9 ; 0.0
58 ; 1.3019978992309686E7 ; 2.022397301818337E8 ; 7.260375684825586E8 ; 1.0091312078695076E10 ; 0.0
59 ; 1.3025600461525105E7 ; 2.0225431593368918E8 ; 7.390575474748683E8 ; 1.029355180887691E10 ; 0.0
60 ; 1.3025472630034683E7 ; 2.022690724948783E8 ; 7.520831479363934E8 ; 1.0495806124810598E10 ; 0.0
61 ; 1.3026761066812564E7 ; 2.0228399494293144E8 ; 7.651086205664281E8 ; 1.0698075197305477E10 ; 0.0
62 ; 1.3034288600525845E7 ; 2.0229907843939927E8 ; 7.781353816332406E8 ; 1.090035919224841E10 ; 0.0
63 ; 1.303909453532961E7 ; 2.0231431823075277E8 ; 7.911696702337664E8 ; 1.1102658270687809E10 ; 0.0
64 ; 1.3037984903134752E7 ; 2.0232970964903092E8 ; 8.04208764769096E8 ; 1.1304972588918562E10 ; 0.0
65 ; 1.3046216135178482E7 ; 2.023452481122543E8 ; 8.172467496722307E8 ; 1.1507302298567593E10 ; 0.0
66 ; 1.3049149635781376E7 ; 2.02360929124623E8 ; 8.302929658074092E8 ; 1.1709647546679848E10 ; 0.0
67 ; 1.305479445478713E7 ; 2.0237674827651668E8 ; 8.433421154431906E8 ; 1.191200847580447E10 ; 0.0
68 ; 1.3054549677428389E7 ; 2.0239270124431312E8 ; 8.563969098979777E8 ; 1.2114385224080986E10 ; 0.0
69 ; 1.3059215088870648E7 ; 2.024087837900414E8 ; 8.694514595754061E8 ; 1.2316777925325298E10 ; 0.0
70 ; 1.3063561907770213E7 ; 2.0242499176088503E8 ; 8.825106746642767E8 ; 1.251918670911534E10 ; 0.0
71 ; 1.3064025856625237E7 ; 2.0244132108854914E8 ; 8.955742365720469E8 ; 1.2721611700876225E10 ; 0.0
72 ; 1.3065732267276108E7 ; 2.0245776778850558E8 ; 9.086382624286721E8 ; 1.2924053021964773E10 ; 0.0
73 ; 1.3069581152476788E7 ; 2.0247432795912847E8 ; 9.217039946959481E8 ; 1.3126510789753279E10 ; 0.0
74 ; 1.3074172681364836E7 ; 2.0249099778073248E8 ; 9.347735758484249E8 ; 1.3328985117712408E10 ; 0.0
75 ; 1.307625062882249E7 ; 2.025077735145246E8 ; 9.478477485297898E8 ; 1.3531476115493141E10 ; 0.0
76 ; 1.3075530526265744E7 ; 2.025246515014805E8 ; 9.609239991586123E8 ; 1.3733983889007666E10 ; 0.0
77 ; 1.3079013030735934E7 ; 2.025416281611546E8 ; 9.73999529684878E8 ; 1.3936508540509146E10 ; 0.0
78 ; 1.3078682272171512E7 ; 2.0255869999043354E8 ; 9.87078542715614E8 ; 1.41390501686703E10 ; 0.0
79 ; 1.3076142547005365E7 ; 2.025758635622409E8 ; 1.0001572249877855E9 ; 1.4341608868660732E10 ; 0.0
80 ; 1.307486102470798E7 ; 2.025931155242011E8 ; 1.0132333675347909E9 ; 1.4544184732222973E10 ; 0.0
81 ; 1.3072462559373535E7 ; 2.0261045259727E8 ; 1.0263082285594989E9 ; 1.4746777847747173E10 ; 0.0
82 ; 1.3073463400706336E7 ; 2.026278715743382E8 ; 1.0393806911188724E9 ; 1.4949388300344444E10 ; 0.0
83 ; 1.3069027430452349E7 ; 2.0264536931881326E8 ; 1.0524541545195787E9 ; 1.5152016171918783E10 ; 0.0
84 ; 1.3069209235208288E7 ; 2.0266294276318675E8 ; 1.065523181950031E9 ; 1.5354661541237597E10 ; 0.0
85 ; 1.3067187461332485E7 ; 2.0268058890759042E8 ; 1.0785923911852393E9 ; 1.5557324484000784E10 ; 0.0
86 ; 1.30628630906929E7 ; 2.026983048183467E8 ; 1.0916595786465719E9 ; 1.5760005072908375E10 ; 0.0
87 ; 1.3063866295654388E7 ; 2.0271608762651742E8 ; 1.1047224417372649E9 ; 1.596270337772672E10 ; 0.0
88 ; 1.3057705037454264E7 ; 2.0273393452645418E8 ; 1.1177863080329192E9 ; 1.616541946535324E10 ; 0.0
89 ; 1.3056125501948608E7 ; 2.0275184277435452E8 ; 1.1308440130703735E9 ; 1.6368153399879694E10 ; 0.0
90 ; 1.3052742171023326E7 ; 2.0276980968682602E8 ; 1.1439001385723221E9 ; 1.6570905242654049E10 ; 0.0
91 ; 1.305189340107666E7 ; 2.027878326394616E8 ; 1.1569528807433455E9 ; 1.6773675052340876E10 ; 0.0
92 ; 1.3049513208447991E7 ; 2.0280590906542826E8 ; 1.170004774144422E9 ; 1.6976462884980337E10 ; 0.0
93 ; 1.3043094947494498E7 ; 2.028240364540713E8 ; 1.18305428735287E9 ; 1.7179268794045765E10 ; 0.0
94 ; 1.3041042134530686E7 ; 2.0284221234953603E8 ; 1.1960973823003645E9 ; 1.7382092830499836E10 ; 0.0
95 ; 1.3038439142107988E7 ; 2.0286043434940827E8 ; 1.2091384244348953E9 ; 1.7584935042849373E10 ; 0.0
96 ; 1.3033185831430936E7 ; 2.0287870010337582E8 ; 1.2221768635770032E9 ; 1.778779547719878E10 ; 0.0
97 ; 1.3033518005999962E7 ; 2.0289700731191096E8 ; 1.2352100494084342E9 ; 1.7990674177302155E10 ; 0.0
98 ; 1.3028494189858416E7 ; 2.0291535372497603E8 ; 1.2482435674144342E9 ; 1.8193571184614067E10 ; 0.0
99 ; 1.3023099481659409E7 ; 2.0293373714075258E8 ; 1.2612720616042926E9 ; 1.8396486538339043E10 ; 0.0
100 ; 1.3020868722915638E7 ; 2.0295215540439445E8 ; 1.274295161085952E9 ; 1.8599420275479794E10 ; 0.0
101 ; 1.3015053856466144E7 ; 2.0297060640680614E8 ; 1.2873160298088677E9 ; 1.880237243088419E10 ; 0.0
102 ; 1.3010008849595146E7 ; 2.02989088083446E8 ; 1.3003310836653337E9 ; 1.9005343037290997E10 ; 0.0
103 ; 1.3006859981999803E7 ; 2.030075984131555E8 ; 1.3133410925149288E9 ; 1.9208332125374443E10 ; 0.0
104 ; 1.300226405776429E7 ; 2.0302613541701394E8 ; 1.3263479524969287E9 ; 1.9411339723787598E10 ; 0.0
105 ; 1.2999806956262663E7 ; 2.0304469715721938E8 ; 1.339350216554693E9 ; 1.9614365859204613E10 ; 0.0
106 ; 1.2996241150895828E7 ; 2.0306328173599565E8 ; 1.3523500235109556E9 ; 1.981741055636183E10 ; 0.0
107 ; 1.2989475256765917E7 ; 2.0308188729452506E8 ; 1.3653462646618514E9 ; 2.0020473838097828E10 ; 0.0
108 ; 1.298195592286069E7 ; 2.0310051201190752E8 ; 1.3783357399186172E9 ; 2.0223555725392353E10 ; 0.0
109 ; 1.297909898603135E7 ; 2.03119154104145E8 ; 1.3913176958414779E9 ; 2.042665623740426E10 ; 0.0
110 ; 1.2972858352700371E7 ; 2.0313781182315186E8 ; 1.4042967948275092E9 ; 2.0629775391508404E10 ; 0.0
111 ; 1.2970874779863764E7 ; 2.0315648345579043E8 ; 1.4172696531802096E9 ; 2.0832913203331554E10 ; 0.0
112 ; 1.2964185848731292E7 ; 2.0317516732293156E8 ; 1.4302405279600735E9 ; 2.1036069686787346E10 ; 0.0
113 ; 1.2954992615819117E7 ; 2.0319386177854005E8 ; 1.4432047138088048E9 ; 2.123924485411028E10 ; 0.0
114 ; 1.2956680091068957E7 ; 2.032125652087843E8 ; 1.456159706424624E9 ; 2.144243871588882E10 ; 0.0
115 ; 1.2946765773139821E7 ; 2.0323127603117016E8 ; 1.469116386515693E9 ; 2.1645651281097607E10 ; 0.0
116 ; 1.2945848592485668E7 ; 2.032499926936981E8 ; 1.4820631522888327E9 ; 2.1848882557128777E10 ; 0.0
117 ; 1.2941634258650295E7 ; 2.032687136740438E8 ; 1.4950090008813183E9 ; 2.2052132549822475E10 ; 0.0
118 ; 1.2933387531820394E7 ; 2.032874374787613E8 ; 1.5079506351399686E9 ; 2.225540126349652E10 ; 0.0
119 ; 1.2927111321570724E7 ; 2.0330616264250842E8 ; 1.520884022671789E9 ; 2.245868870097528E10 ; 0.0
120 ; 1.2912065183933439E7 ; 2.0332488772729424E8 ; 1.5338111339933596E9 ; 2.266199486361779E10 ; 0.0
121 ; 1.2887847251150811E7 ; 2.0334361132174763E8 ; 1.546723199177293E9 ; 2.2865319751345085E10 ; 0.0
122 ; 1.2870044678432392E7 ; 2.033623320404068E8 ; 1.559611046428444E9 ; 2.3068663362666832E10 ; 0.0
123 ; 1.2843561151938844E7 ; 2.033810485230292E8 ; 1.5724810911068764E9 ; 2.3272025694707237E10 ; 0.0
124 ; 1.2825567125302233E7 ; 2.0339975943392143E8 ; 1.5853246522588153E9 ; 2.3475406743230267E10 ; 0.0
125 ; 1.2801064348282188E7 ; 2.0341846346128836E8 ; 1.5981502193841176E9 ; 2.367880650266419E10 ; 0.0
126 ; 1.2777345822017029E7 ; 2.0343715931660157E8 ; 1.6109512837323997E9 ; 2.3882224966125477E10 ; 0.0
127 ; 1.2755030030636083E7 ; 2.034558457339858E8 ; 1.6237286295544167E9 ; 2.4085662125442078E10 ; 0.0
128 ; 1.2733465726283312E7 ; 2.034745214696239E8 ; 1.6364836595850527E9 ; 2.4289117971176064E10 ; 0.0
129 ; 1.271011908464851E7 ; 2.0349318530117878E8 ; 1.649217125311336E9 ; 2.4492592492645687E10 ; 0.0
130 ; 1.2682195030195694E7 ; 2.0351183602723297E8 ; 1.6619272443959846E9 ; 2.4696085677946865E10 ; 0.0
131 ; 1.2658496060179858E7 ; 2.035304724667444E8 ; 1.6746094394261804E9 ; 2.48995975139741E10 ; 0.0
132 ; 1.263098398388355E7 ; 2.0354909345851842E8 ; 1.6872679354863603E9 ; 2.510312798644084E10 ; 0.0
133 ; 1.2607417010483025E7 ; 2.035676978606957E8 ; 1.699898919470244E9 ; 2.530667707989936E10 ; 0.0
134 ; 1.2574329010438593E7 ; 2.0358628455025512E8 ; 1.712506336480727E9 ; 2.5510244777760056E10 ; 0.0
135 ; 1.2549706031617323E7 ; 2.0360485242253184E8 ; 1.7250806654911656E9 ; 2.571383106231031E10 ; 0.0
136 ; 1.2522134192974214E7 ; 2.036234003907494E8 ; 1.737630371522783E9 ; 2.591743591473284E10 ; 0.0
137 ; 1.2493927039927863E7 ; 2.036419273855662E8 ; 1.7501525057157574E9 ; 2.6121059315123592E10 ; 0.0
138 ; 1.246889417683322E7 ; 2.0366043235463533E8 ; 1.7626464327556853E9 ; 2.632470124250916E10 ; 0.0
139 ; 1.244160005972634E7 ; 2.0367891426217768E8 ; 1.7751153269325185E9 ; 2.6528361674863796E10 ; 0.0
140 ; 1.2411584819512045E7 ; 2.0369737208856794E8 ; 1.7875569269922447E9 ; 2.6732040589125973E10 ; 0.0
141 ; 1.2384406684489569E7 ; 2.03715804829933E8 ; 1.7999685118117568E9 ; 2.6935737961214542E10 ; 0.0
142 ; 1.2357980289432654E7 ; 2.037342114977623E8 ; 1.8123529184962463E9 ; 2.7139453766044476E10 ; 0.0
143 ; 1.2329482585355373E7 ; 2.0375259111853006E8 ; 1.824710898785679E9 ; 2.7343187977542236E10 ; 0.0
144 ; 1.2297888206595687E7 ; 2.037709427333289E8 ; 1.8370403813710344E9 ; 2.7546940568660767E10 ; 0.0
145 ; 1.2275899545782091E7 ; 2.037892653975142E8 ; 1.84933826957763E9 ; 2.7750711511394096E10 ; 0.0
146 ; 1.225134084823439E7 ; 2.0380755818035954E8 ; 1.8616141691234121E9 ; 2.795450077679161E10 ; 0.0
147 ; 1.2230556007082056E7 ; 2.0382582016472214E8 ; 1.8738655099716465E9 ; 2.815830833497197E10 ; 0.0
148 ; 1.2206258009370867E7 ; 2.038440504467187E8 ; 1.8860960659787285E9 ; 2.8362134155136692E10 ; 0.0
149 ; 1.2182648805211006E7 ; 2.0386224813541064E8 ; 1.8983023239880993E9 ; 2.8565978205583412E10 ; 0.0
150 ; 1.215811176366666E7 ; 2.03880412352499E8 ; 1.9104849727933104E9 ; 2.8769840453718822E10 ; 0.0
151 ; 1.2132285953606121E7 ; 2.0389854223202857E8 ; 1.922643084556977E9 ; 2.897372086607132E10 ; 0.0
152 ; 1.2111349959468307E7 ; 2.0391663692010048E8 ; 1.9347753705105832E9 ; 2.917761940830335E10 ; 0.0
153 ; 1.2084824662485028E7 ; 2.0393469557459405E8 ; 1.9468867204700515E9 ; 2.938153604522345E10 ; 0.0
154 ; 1.206455398923994E7 ; 2.0395271736489636E8 ; 1.9589715451325366E9 ; 2.9585470740798042E10 ; 0.0
155 ; 1.2043234268254926E7 ; 2.0397070147164017E8 ; 1.9710360991217766E9 ; 2.9789423458162937E10 ; 0.0
156 ; 1.201634295073053E7 ; 2.0398864708644983E8 ; 1.9830793333900316E9 ; 2.999339415963458E10 ; 0.0
157 ; 1.1991382944870837E7 ; 2.0400655341169447E8 ; 1.9950956763407621E9 ; 3.0197382806721027E10 ; 0.0
158 ; 1.1969143526502907E7 ; 2.0402441966024867E8 ; 2.007087059285633E9 ; 3.040138936013272E10 ; 0.0
159 ; 1.1950500021342099E7 ; 2.0404224505526036E8 ; 2.019056202812136E9 ; 3.060541377979297E10 ; 0.0
160 ; 1.192138864504034E7 ; 2.0406002882992542E8 ; 2.031006702833478E9 ; 3.080945602484823E10 ; 0.0
161 ; 1.1894465700152868E7 ; 2.040777702272693E8 ; 2.0429280914785182E9 ; 3.1013516053678154E10 ; 0.0
162 ; 1.1868196233496437E7 ; 2.040954684999346E8 ; 2.0548225571786711E9 ; 3.1217593823905422E10 ; 0.0
163 ; 1.1847080880796988E7 ; 2.0411312290997562E8 ; 2.0666907534121675E9 ; 3.1421689292405357E10 ; 0.0
164 ; 1.1824122984432992E7 ; 2.041307327286583E8 ; 2.0785378342929645E9 ; 3.1625802415315334E10 ; 0.0
165 ; 1.1799290246266013E7 ; 2.041482972362666E8 ; 2.0903619572773974E9 ; 3.182993314804399E10 ; 0.0
166 ; 1.1774527196822759E7 ; 2.0416581572191435E8 ; 2.1021612475236635E9 ; 3.203408144528026E10 ; 0.0
167 ; 1.1750833836803729E7 ; 2.041832874833626E8 ; 2.1139357747204862E9 ; 3.2238247261002174E10 ; 0.0
168 ; 1.1727328195179652E7 ; 2.0420071182684252E8 ; 2.1256866085572898E9 ; 3.244243054848554E10 ; 0.0
169 ; 1.1705826769331336E7 ; 2.042180880668834E8 ; 2.1374139367524695E9 ; 3.264663126031238E10 ; 0.0
170 ; 1.1680220134091683E7 ; 2.0423541552614564E8 ; 2.149119763521801E9 ; 3.2850849348379265E10 ; 0.0
171 ; 1.1653113277970433E7 ; 2.0425269353525874E8 ; 2.160799983655893E9 ; 3.305508476390541E10 ; 0.0
172 ; 1.1628159844281755E7 ; 2.0426992143266398E8 ; 2.172453096933863E9 ; 3.325933745744067E10 ; 0.0
173 ; 1.1605567855731506E7 ; 2.042870985644616E8 ; 2.184081256778145E9 ; 3.3463607378873333E10 ; 0.0
174 ; 1.1583211140346052E7 ; 2.043E8 ; 2.1956868246338763E9 ; 3.3667894477437794E10 ; 0.0
175 ; 1.1561432159931032E7 ; 2.043E8 ; 2.2072700357742224E9 ; 3.3872194477437794E10 ; 0.0
176 ; 1.153925101841227E7 ; 2.043E8 ; 2.2188314679341536E9 ; 3.4076494477437794E10 ; 0.0
177 ; 1.1524800735625485E7 ; 2.043E8 ; 2.2303707189525657E9 ; 3.4280794477437794E10 ; 0.0
178 ; 1.1496906135718497E7 ; 2.043E8 ; 2.241895519688191E9 ; 3.448509447743779E10 ; 0.0
179 ; 1.1478965806686135E7 ; 2.043E8 ; 2.2533924258239093E9 ; 3.468939447743779E10 ; 0.0
180 ; 1.1459490836365728E7 ; 2.043E8 ; 2.264871391630595E9 ; 3.489369447743779E10 ; 0.0
181 ; 1.143776973484401E7 ; 2.043E8 ; 2.276330882466961E9 ; 3.509799447743779E10 ; 0.0
182 ; 1.1414194976064749E7 ; 2.043E8 ; 2.287768652201805E9 ; 3.530229447743779E10 ; 0.0
183 ; 1.1396194349453252E7 ; 2.043E8 ; 2.29918284717787E9 ; 3.550659447743779E10 ; 0.0
184 ; 1.1376904309848092E7 ; 2.043E8 ; 2.3105790415273232E9 ; 3.571089447743779E10 ; 0.0
185 ; 1.135090725848117E7 ; 2.043E8 ; 2.3219559458371716E9 ; 3.591519447743779E10 ; 0.0
186 ; 1.1334327095832953E7 ; 2.043E8 ; 2.3333068530956526E9 ; 3.611949447743779E10 ; 0.0
187 ; 1.1311179992137041E7 ; 2.043E8 ; 2.3446411801914854E9 ; 3.632379447743779E10 ; 0.0
188 ; 1.129080373295992E7 ; 2.043E8 ; 2.3559523601836224E9 ; 3.652809447743779E10 ; 0.0
189 ; 1.126778534985279E7 ; 2.043E8 ; 2.367243163916582E9 ; 3.673239447743779E10 ; 0.0
190 ; 1.1248698301489858E7 ; 2.043E8 ; 2.3785109492664347E9 ; 3.693669447743779E10 ; 0.0
191 ; 1.122693950456598E7 ; 2.043E8 ; 2.3897596475679245E9 ; 3.714099447743779E10 ; 0.0
192 ; 1.1204029376750365E7 ; 2.043E8 ; 2.4009865870724907E9 ; 3.734529447743779E10 ; 0.0
193 ; 1.1182094971275676E7 ; 2.043E8 ; 2.412190616449241E9 ; 3.754959447743779E10 ; 0.0
194 ; 1.11648244518631E7 ; 2.043E8 ; 2.423372711420517E9 ; 3.775389447743779E10 ; 0.0
195 ; 1.1140818114036242E7 ; 2.043E8 ; 2.4345375358723803E9 ; 3.795819447743779E10 ; 0.0
196 ; 1.1124344830826523E7 ; 2.043E8 ; 2.4456783539864163E9 ; 3.816249447743779E10 ; 0.0
197 ; 1.1102153315351775E7 ; 2.043E8 ; 2.456802698817243E9 ; 3.836679447743779E10 ; 0.0
198 ; 1.1079486369394539E7 ; 2.043E8 ; 2.467904852132595E9 ; 3.857109447743779E10 ; 0.0
