CSV File for the City 1 on Day 218
1 - Minute m 
2 - Power Consumed at minute m 
3 - Power Produced at minute m 
4 - Energy Consumed since the beginning of the day 
5 - Energy Produced since the beginning of the day 
6 - Energy Lost since the beginning of the day on lines starting from the city
 
0 ; 1024856.50675719 ; 1.0528856143689713E8 ; 0.0 ; 0.0 ; 0.0
1 ; 1042791.4397088754 ; 1.054403848190617E8 ; 1024856.50675719 ; 1.0528856143689713E8 ; 0.0
2 ; 1063491.5134118889 ; 1.0590106938035557E8 ; 2067647.9464660655 ; 2.1072894625595883E8 ; 0.0
3 ; 1084181.5761404713 ; 1.0667062774422449E8 ; 3131139.4598779543 ; 3.166300156363144E8 ; 0.0
4 ; 1109163.3218337218 ; 1.0774907207273084E8 ; 4215321.036018426 ; 4.233006433805389E8 ; 0.0
5 ; 1139593.4585942945 ; 1.0913641377924055E8 ; 5324484.357852148 ; 5.310497154532697E8 ; 0.0
6 ; 1180293.8904899082 ; 1.1083266322431704E8 ; 6464077.816446442 ; 6.401861292325103E8 ; 0.0
7 ; 1235831.6257234479 ; 1.128378294099614E8 ; 7644371.70693635 ; 7.510187924568274E8 ; 0.0
8 ; 1316087.4960790277 ; 1.1515191969046092E8 ; 8880203.332659798 ; 8.638566218667889E8 ; 0.0
9 ; 1435528.2413027182 ; 1.17774939519647E8 ; 1.0196290828738825E7 ; 9.790085415572498E8 ; 0.0
10 ; 1618399.0130996506 ; 1.2070689225373304E8 ; 1.1631819070041543E7 ; 1.0967834810768967E9 ; 0.0
11 ; 1910690.1799635924 ; 1.2394777902581987E8 ; 1.3250218083141193E7 ; 1.2174903733306298E9 ; 0.0
12 ; 2373549.245645308 ; 1.2749759870280662E8 ; 1.5160908263104785E7 ; 1.3414381523564496E9 ; 0.0
13 ; 2824597.596664511 ; 1.3135634792847991E8 ; 1.7534457508750092E7 ; 1.4689357510592563E9 ; 0.0
14 ; 2875720.7493605656 ; 1.3552402124900842E8 ; 2.0359055105414603E7 ; 1.6002920989877362E9 ; 0.0
15 ; 2897479.237151207 ; 1.4000061131010473E8 ; 2.3234775854775168E7 ; 1.7358161202367446E9 ; 0.0
16 ; 2926158.3101356397 ; 1.4478610910976788E8 ; 2.6132255091926374E7 ; 1.8758167315468493E9 ; 0.0
17 ; 2949190.82139537 ; 1.4988050428743437E8 ; 2.9058413402062014E7 ; 2.0206028406566172E9 ; 0.0
18 ; 2973573.9571502507 ; 1.5528378542973828E8 ; 3.2007604223457385E7 ; 2.1704833449440517E9 ; 0.0
19 ; 2994999.139040389 ; 1.6099594037461725E8 ; 3.498117818060763E7 ; 2.32576713037379E9 ; 0.0
20 ; 3021764.147444688 ; 1.670169564986255E8 ; 3.797617731964802E7 ; 2.486763070748407E9 ; 0.0
21 ; 3045911.111088289 ; 1.7334682097628984E8 ; 4.099794146709271E7 ; 2.653780027247032E9 ; 0.0
22 ; 3066590.8450079197 ; 1.7998552100449598E8 ; 4.4043852578181E7 ; 2.827126848223322E9 ; 0.0
23 ; 3092198.5121830306 ; 1.8693304398868823E8 ; 4.711044342318892E7 ; 3.007112369227818E9 ; 0.0
24 ; 3116713.767542671 ; 1.9418937769077462E8 ; 5.020264193537195E7 ; 3.194045413216506E9 ; 0.0
25 ; 3140920.6678439183 ; 2.004425512391093E8 ; 5.331935570291462E7 ; 3.3882347909072804E9 ; 0.0
26 ; 3164408.645667689 ; 2.0044610124475294E8 ; 5.646027637075853E7 ; 3.58867734214639E9 ; 0.0
27 ; 3187357.9108648384 ; 2.0044978637777138E8 ; 5.962468501642622E7 ; 3.789123443391143E9 ; 0.0
28 ; 3212999.7149338224 ; 2.004535966421412E8 ; 6.281204292729106E7 ; 3.989573229768914E9 ; 0.0
29 ; 3233474.6486235256 ; 2.0045752267843193E8 ; 6.602504264222488E7 ; 4.1900268264110556E9 ; 0.0
30 ; 3258005.7388299243 ; 2.004615557587227E8 ; 6.92585172908484E7 ; 4.390484349089487E9 ; 0.0
31 ; 3282757.7427818067 ; 2.00465687770657E8 ; 7.251652302967833E7 ; 4.590945904848209E9 ; 0.0
32 ; 3302854.7501959098 ; 2.0046991119372645E8 ; 7.579928077246013E7 ; 4.791411592618866E9 ; 0.0
33 ; 3323060.8253563317 ; 2.0047421907031816E8 ; 7.910213552265604E7 ; 4.9918815038125925E9 ; 0.0
34 ; 3347306.8151265644 ; 2.0047860497354877E8 ; 8.242519634801237E7 ; 5.192355722882911E9 ; 0.0
35 ; 3368020.196890301 ; 2.0048306297345603E8 ; 8.577250316313894E7 ; 5.39283432785646E9 ; 0.0
36 ; 3388959.4214027226 ; 2.004875876027382E8 ; 8.914052336002924E7 ; 5.593317390829916E9 ; 0.0
37 ; 3407716.0850653998 ; 2.0049217382291436E8 ; 9.252948278143196E7 ; 5.793804978432654E9 ; 0.0
38 ; 3428340.645682194 ; 2.0049681699152523E8 ; 9.593719886649735E7 ; 5.9942971522555685E9 ; 0.0
39 ; 3446684.482171815 ; 2.0050151283079332E8 ; 9.936553951217955E7 ; 6.194793969247094E9 ; 0.0
40 ; 3463694.993328277 ; 2.0050625739800584E8 ; 1.0281222399435137E8 ; 6.395295482077888E9 ; 0.0
41 ; 3483619.531596887 ; 2.0051104705776685E8 ; 1.0627591898767965E8 ; 6.595801739475893E9 ; 0.0
42 ; 3497558.9156703516 ; 2.0051587845617798E8 ; 1.0975953851927653E8 ; 6.79631278653366E9 ; 0.0
43 ; 3515248.194283471 ; 2.0052074849694347E8 ; 1.1325709743494688E8 ; 6.996828664989838E9 ; 0.0
44 ; 3528915.931219616 ; 2.0052565431935188E8 ; 1.1677234562923035E8 ; 7.197349413486781E9 ; 0.0
45 ; 3542345.713378048 ; 2.0053059327805677E8 ; 1.2030126156044997E8 ; 7.397875067806133E9 ; 0.0
46 ; 3558273.5418668445 ; 2.005355629245594E8 ; 1.2384360727382801E8 ; 7.59840566108419E9 ; 0.0
47 ; 3570647.971325959 ; 2.0054056099028674E8 ; 1.2740188081569485E8 ; 7.79894122400875E9 ; 0.0
48 ; 3583277.720346671 ; 2.0054558537115225E8 ; 1.3097252878702082E8 ; 7.999481784999037E9 ; 0.0
49 ; 3593955.961969359 ; 2.005506341134871E8 ; 1.345558065073675E8 ; 8.200027370370189E9 ; 0.0
50 ; 3606193.2341969577 ; 2.005557054012317E8 ; 1.3814976246933684E8 ; 8.400578004483676E9 ; 0.0
51 ; 3614939.8385391897 ; 2.0056079754428172E8 ; 1.417559557035338E8 ; 8.601133709884907E9 ; 0.0
52 ; 3628316.0961930924 ; 2.005659089678886E8 ; 1.4537089554207298E8 ; 8.801694507429188E9 ; 0.0
53 ; 3636749.419181042 ; 2.0057103820302072E8 ; 1.489992116382661E8 ; 9.002260416397076E9 ; 0.0
54 ; 3645682.5388026796 ; 2.0057618387759823E8 ; 1.5263596105744714E8 ; 9.202831454600096E9 ; 0.0
55 ; 3652724.721877237 ; 2.005813447085213E8 ; 1.5628164359624982E8 ; 9.403407638477694E9 ; 0.0
56 ; 3665548.8851272254 ; 2.005865194944181E8 ; 1.5993436831812707E8 ; 9.603988983186214E9 ; 0.0
57 ; 3674940.849499951 ; 2.0059170710904482E8 ; 1.6359991720325428E8 ; 9.804575502680632E9 ; 0.0
58 ; 3684074.804194074 ; 2.0059690649527675E8 ; 1.6727485805275422E8 ; 1.0005167209789677E10 ; 0.0
59 ; 3692871.013377998 ; 2.0060211665963462E8 ; 1.709589328569483E8 ; 1.0205764116284954E10 ; 0.0
60 ; 3703643.5306518986 ; 2.006073366672952E8 ; 1.7465180387032628E8 ; 1.040636623294459E10 ; 0.0
61 ; 3710033.0535209966 ; 2.0061256563754088E8 ; 1.7835544740097818E8 ; 1.0606973569611885E10 ; 0.0
62 ; 3718427.802770821 ; 2.0061780273960656E8 ; 1.8206548045449919E8 ; 1.0807586135249426E10 ; 0.0
63 ; 3729308.4101878516 ; 2.006230471888863E8 ; 1.8578390825727E8 ; 1.1008203937989033E10 ; 0.0
64 ; 3738192.8682068265 ; 2.0062829824346647E8 ; 1.8951321666745785E8 ; 1.120882698517792E10 ; 0.0
65 ; 3745132.043321602 ; 2.0063355520095417E8 ; 1.9325140953566468E8 ; 1.1409455283421387E10 ; 0.0
66 ; 3749975.3559620236 ; 2.0063881739557424E8 ; 1.969965415789863E8 ; 1.1610088838622341E10 ; 0.0
67 ; 3759499.382909341 ; 2.0064408419550934E8 ; 2.0074651693494833E8 ; 1.1810727656017916E10 ; 0.0
68 ; 3769560.9208189487 ; 2.0064935500046134E8 ; 2.0450601631785765E8 ; 1.2011371740213425E10 ; 0.0
69 ; 3777125.498693383 ; 2.0065462923941302E8 ; 2.082755772386766E8 ; 1.2212021095213886E10 ; 0.0
70 ; 3788951.725730945 ; 2.00659906368573E8 ; 2.1205270273736998E8 ; 1.2412675724453299E10 ; 0.0
71 ; 3792952.400200834 ; 2.0066518586948624E8 ; 2.1584165446310094E8 ; 1.261333563082187E10 ; 0.0
72 ; 3800707.8278671503 ; 2.0067046724729612E8 ; 2.1963460686330178E8 ; 1.2814000816691357E10 ; 0.0
73 ; 3809658.9706937186 ; 2.0067575002914423E8 ; 2.2343531469116893E8 ; 1.3014671283938652E10 ; 0.0
74 ; 3817027.6834824653 ; 2.0068103376269585E8 ; 2.2724497366186264E8 ; 1.3215347033967796E10 ; 0.0
75 ; 3822232.7510114177 ; 2.0068631801478028E8 ; 2.310620013453451E8 ; 1.3416028067730492E10 ; 0.0
76 ; 3831400.9577772487 ; 2.0069160237013572E8 ; 2.3488423409635654E8 ; 1.3616714385745272E10 ; 0.0
77 ; 3834695.677259495 ; 2.0069688643025008E8 ; 2.387156350541338E8 ; 1.3817405988115408E10 ; 0.0
78 ; 3838342.20555729 ; 2.0070216981228927E8 ; 2.425503307313933E8 ; 1.4018102874545658E10 ; 0.0
79 ; 3841679.29154165 ; 2.0070745214810583E8 ; 2.463886729369506E8 ; 1.4218805044357948E10 ; 0.0
80 ; 3841353.820805145 ; 2.0071273308332092E8 ; 2.5023035222849223E8 ; 1.4419512496506054E10 ; 0.0
81 ; 3842213.8080899627 ; 2.007180122764736E8 ; 2.5407170604929736E8 ; 1.4620225229589375E10 ; 0.0
82 ; 3843700.000315969 ; 2.007232893982323E8 ; 2.5791391985738733E8 ; 1.4820943241865849E10 ; 0.0
83 ; 3846985.933325778 ; 2.0072856413066262E8 ; 2.617576198577033E8 ; 1.502166653126408E10 ; 0.0
84 ; 3849423.083031877 ; 2.007338361665476E8 ; 2.6560460579102907E8 ; 1.5222395095394743E10 ; 0.0
85 ; 3847739.6351975747 ; 2.0073910520875594E8 ; 2.694540288740609E8 ; 1.542312893156129E10 ; 0.0
86 ; 3852491.174866567 ; 2.007443709696544E8 ; 2.733017685092585E8 ; 1.5623868036770046E10 ; 0.0
87 ; 3847645.264529693 ; 2.0074963317056084E8 ; 2.7715425968412507E8 ; 1.58246124077397E10 ; 0.0
88 ; 3848000.924159597 ; 2.007548915412349E8 ; 2.810019049486548E8 ; 1.6025362040910261E10 ; 0.0
89 ; 3854574.994469988 ; 2.0076014581940338E8 ; 2.8484990587281436E8 ; 1.6226116932451496E10 ; 0.0
90 ; 3848248.2523786365 ; 2.0076539575031725E8 ; 2.8870448086728436E8 ; 1.6426877078270899E10 ; 0.0
91 ; 3849640.049137631 ; 2.0077064108633867E8 ; 2.92552729119663E8 ; 1.6627642474021215E10 ; 0.0
92 ; 3850385.276365143 ; 2.0077588158655494E8 ; 2.9640236916880065E8 ; 1.6828413115107553E10 ; 0.0
93 ; 3851483.7344413255 ; 2.0078111701641804E8 ; 3.002527544451658E8 ; 1.7029188996694109E10 ; 0.0
94 ; 3851107.115537127 ; 2.007863471474073E8 ; 3.0410423817960715E8 ; 1.7229970113710526E10 ; 0.0
95 ; 3849721.0760855125 ; 2.007915717567139E8 ; 3.0795534529514426E8 ; 1.7430756460857933E10 ; 0.0
96 ; 3849557.871611172 ; 2.007967906269456E8 ; 3.1180506637122977E8 ; 1.7631548032614647E10 ; 0.0
97 ; 3847215.1499930327 ; 2.0080200354584998E8 ; 3.1565462424284095E8 ; 1.7832344823241592E10 ; 0.0
98 ; 3846090.0672450042 ; 2.008072103060549E8 ; 3.19501839392834E8 ; 1.803314682678744E10 ; 0.0
99 ; 3849992.0310453046 ; 2.0081241070482546E8 ; 3.23347929460079E8 ; 1.8233954037093494E10 ; 0.0
100 ; 3847467.8595887814 ; 2.0081760454383552E8 ; 3.2719792149112433E8 ; 1.843476644779832E10 ; 0.0
101 ; 3849015.50243014 ; 2.0082279162895343E8 ; 3.3104538935071313E8 ; 1.8635584052342155E10 ; 0.0
102 ; 3843349.2448601816 ; 2.0082797177004054E8 ; 3.348944048531433E8 ; 1.8836406843971107E10 ; 0.0
103 ; 3843933.270235329 ; 2.0083314478076193E8 ; 3.3873775409800345E8 ; 1.903723481574115E10 ; 0.0
104 ; 3843106.681818414 ; 2.0083831047840846E8 ; 3.4258168736823875E8 ; 1.923806796052191E10 ; 0.0
105 ; 3841267.281759294 ; 2.00843468683729E8 ; 3.464247940500572E8 ; 1.943890627100032E10 ; 0.0
106 ; 3838989.889642491 ; 2.0084861922077295E8 ; 3.502660613318165E8 ; 1.9639749739684048E10 ; 0.0
107 ; 3838775.5819366765 ; 2.008537619167415E8 ; 3.54105051221459E8 ; 1.984059835890482E10 ; 0.0
108 ; 3840028.5469460543 ; 2.0085889660184765E8 ; 3.579438268033956E8 ; 2.004145212082156E10 ; 0.0
109 ; 3837401.925285348 ; 2.0086402310918424E8 ; 3.617838553503417E8 ; 2.024231101742341E10 ; 0.0
110 ; 3832313.534607564 ; 2.008691412745993E8 ; 3.65621257275627E8 ; 2.0443175040532593E10 ; 0.0
111 ; 3828899.5523837726 ; 2.0087425093657878E8 ; 3.694535708102346E8 ; 2.0644044181807194E10 ; 0.0
112 ; 3827398.4309522375 ; 2.008793519361352E8 ; 3.732824703626184E8 ; 2.0844918432743774E10 ; 0.0
113 ; 3824287.034046968 ; 2.0088444411670324E8 ; 3.7710986879357064E8 ; 2.104579778467991E10 ; 0.0
114 ; 3824077.753848025 ; 2.008895273240404E8 ; 3.809341558276176E8 ; 2.124668222879661E10 ; 0.0
115 ; 3819312.893913622 ; 2.008946014061335E8 ; 3.847582335814656E8 ; 2.144757175612065E10 ; 0.0
116 ; 3815746.408580802 ; 2.0089966621311006E8 ; 3.885775464753792E8 ; 2.1648466357526783E10 ; 0.0
117 ; 3814510.681185455 ; 2.009047215971545E8 ; 3.9239329288396E8 ; 2.1849366023739895E10 ; 0.0
118 ; 3806383.0830018125 ; 2.0090976741242892E8 ; 3.962078035651455E8 ; 2.2050270745337048E10 ; 0.0
119 ; 3808891.2703963225 ; 2.0091480351499778E8 ; 4.000141866481473E8 ; 2.2251180512749477E10 ; 0.0
120 ; 3805891.3117892453 ; 2.00919829762757E8 ; 4.0382307791854364E8 ; 2.2452095316264477E10 ; 0.0
121 ; 3802512.438253632 ; 2.0092484601536632E8 ; 4.076289692303329E8 ; 2.2653015146027233E10 ; 0.0
122 ; 3799368.520109222 ; 2.0092985213418546E8 ; 4.1143148166858655E8 ; 2.28539399920426E10 ; 0.0
123 ; 3791607.8952803453 ; 2.0093484798221353E8 ; 4.152308501886958E8 ; 2.3054869844176785E10 ; 0.0
124 ; 3790812.855868769 ; 2.0093983342403147E8 ; 4.1902245808397615E8 ; 2.3255804692158997E10 ; 0.0
125 ; 3789157.7941199164 ; 2.0094480832574746E8 ; 4.228132709398449E8 ; 2.3456744525583027E10 ; 0.0
126 ; 3781516.615455967 ; 2.009497725549452E8 ; 4.266024287339648E8 ; 2.3657689333908775E10 ; 0.0
127 ; 3776579.141945339 ; 2.0095472598063463E8 ; 4.303839453494208E8 ; 2.3858639106463722E10 ; 0.0
128 ; 3771198.5879137893 ; 2.0095966847320518E8 ; 4.3416052449136615E8 ; 2.4059593832444355E10 ; 0.0
129 ; 3770222.704225702 ; 2.0096459990438142E8 ; 4.3793172307927996E8 ; 2.426055350091756E10 ; 0.0
130 ; 3761658.8217594507 ; 2.0096952014718083E8 ; 4.417019457835057E8 ; 2.446151810082194E10 ; 0.0
131 ; 3750619.028931228 ; 2.0097442907587358E8 ; 4.4546360460526514E8 ; 2.4662487620969124E10 ; 0.0
132 ; 3741895.9837830407 ; 2.0097932656594455E8 ; 4.4921422363419634E8 ; 2.4863462050045E10 ; 0.0
133 ; 3733582.558521456 ; 2.009842124940568E8 ; 4.529561196179794E8 ; 2.5064441376610943E10 ; 0.0
134 ; 3722863.998220599 ; 2.0098908673801714E8 ; 4.5668970217650086E8 ; 2.5265425589105E10 ; 0.0
135 ; 3713849.7442628243 ; 2.0099394917674327E8 ; 4.604125661747215E8 ; 2.5466414675843018E10 ; 0.0
136 ; 3699761.226985564 ; 2.0099879969023234E8 ; 4.641264159189843E8 ; 2.566740862501976E10 ; 0.0
137 ; 3688377.8782111267 ; 2.010036381595312E8 ; 4.6782617714596987E8 ; 2.586840742470999E10 ; 0.0
138 ; 3677614.698297458 ; 2.0100846446670806E8 ; 4.71514555024181E8 ; 2.6069411062869522E10 ; 0.0
139 ; 3666998.6939959517 ; 2.010132784948253E8 ; 4.7519216972247845E8 ; 2.627041952733623E10 ; 0.0
140 ; 3654720.516847931 ; 2.0101808012791374E8 ; 4.788591684164744E8 ; 2.6471432805831055E10 ; 0.0
141 ; 3645418.8867119746 ; 2.0102286925094807E8 ; 4.825138889333223E8 ; 2.667245088595897E10 ; 0.0
142 ; 3636057.3520666836 ; 2.0102764574982342E8 ; 4.8615930782003427E8 ; 2.687347375520992E10 ; 0.0
143 ; 3624033.599005219 ; 2.0103240951133293E8 ; 4.8979536517210096E8 ; 2.7074501400959743E10 ; 0.0
144 ; 3614108.815494554 ; 2.0103716042314658E8 ; 4.934193987711062E8 ; 2.7275533810471077E10 ; 0.0
145 ; 3606919.9359469935 ; 2.0104189837379065E8 ; 4.970335075866007E8 ; 2.7476570970894222E10 ; 0.0
146 ; 3601891.9547879524 ; 2.0104662325262856E8 ; 5.006404275225477E8 ; 2.7677612869268013E10 ; 0.0
147 ; 3599080.299009581 ; 2.010513349498422E8 ; 5.042423194773357E8 ; 2.787865949252064E10 ; 0.0
148 ; 3594224.361699061 ; 2.0105603335641426E8 ; 5.0784139977634525E8 ; 2.807971082747048E10 ; 0.0
149 ; 3588203.75051358 ; 2.010607183641114E8 ; 5.114356241380443E8 ; 2.8280766860826897E10 ; 0.0
150 ; 3585134.4537778976 ; 2.0106538986546823E8 ; 5.1502382788855785E8 ; 2.848182757919101E10 ; 0.0
151 ; 3580407.054318904 ; 2.010700477537718E8 ; 5.1860896234233576E8 ; 2.8682892969056477E10 ; 0.0
152 ; 3576709.2236749926 ; 2.01074691923047E8 ; 5.2218936939665467E8 ; 2.888396301681025E10 ; 0.0
153 ; 3570047.0619129413 ; 2.0107932226804247E8 ; 5.257660786203297E8 ; 2.9085037708733295E10 ; 0.0
154 ; 3568716.3602297707 ; 2.0108393868421733E8 ; 5.2933612568224263E8 ; 2.928611703100134E10 ; 0.0
155 ; 3561582.9766212944 ; 2.0108854106772825E8 ; 5.329048420424724E8 ; 2.9487200969685555E10 ; 0.0
156 ; 3558719.7605710896 ; 2.010931293154173E8 ; 5.364664250190937E8 ; 2.9688289510753284E10 ; 0.0
157 ; 3553944.5706800865 ; 2.0109770332480025E8 ; 5.400251447796648E8 ; 2.9889382640068703E10 ; 0.0
158 ; 3548317.86514654 ; 2.0110226299405548E8 ; 5.435790893503449E8 ; 3.00904803433935E10 ; 0.0
159 ; 3545041.4497759854 ; 2.011068082220132E8 ; 5.471274072154914E8 ; 3.0291582606387558E10 ; 0.0
160 ; 3539724.00229771 ; 2.0111133890814537E8 ; 5.506724486652673E8 ; 3.049268941460957E10 ; 0.0
161 ; 3534457.2032794035 ; 2.0111585495255584E8 ; 5.542121726675651E8 ; 3.0693800753517715E10 ; 0.0
162 ; 3528365.2784694373 ; 2.0112035625597116E8 ; 5.577466298708445E8 ; 3.0894916608470272E10 ; 0.0
163 ; 3526357.534770041 ; 2.0112484271973172E8 ; 5.612749951493139E8 ; 3.1096036964726242E10 ; 0.0
164 ; 3521447.9383871756 ; 2.0112931424578306E8 ; 5.648013526840839E8 ; 3.1297161807445972E10 ; 0.0
165 ; 3518002.3746787035 ; 2.011337707366679E8 ; 5.683228006224711E8 ; 3.1498291121691757E10 ; 0.0
166 ; 3513799.860895369 ; 2.0113821209551838E8 ; 5.718408029971498E8 ; 3.1699424892428425E10 ; 0.0
167 ; 3508002.959511639 ; 2.011426382260486E8 ; 5.753546028580452E8 ; 3.1900563104523945E10 ; 0.0
168 ; 3500843.066646787 ; 2.011470490325474E8 ; 5.788626058175569E8 ; 3.2101705742749992E10 ; 0.0
169 ; 3495961.603270982 ; 2.011514444198719E8 ; 5.823634488842037E8 ; 3.230285279178254E10 ; 0.0
170 ; 3489866.5359787173 ; 2.011558242934407E8 ; 5.858594104874747E8 ; 3.250400423620241E10 ; 0.0
171 ; 3488516.568320071 ; 2.0116018855922788E8 ; 5.893492770234534E8 ; 3.2705160060495853E10 ; 0.0
172 ; 3482471.3298640735 ; 2.0116453712375703E8 ; 5.928377935917734E8 ; 3.290632024905508E10 ; 0.0
173 ; 3478106.411388353 ; 2.0116886989409557E8 ; 5.963202649216374E8 ; 3.3107484786178837E10 ; 0.0
174 ; 3476572.304710145 ; 2.0117318677784947E8 ; 5.997983713330258E8 ; 3.3308653656072933E10 ; 0.0
175 ; 3470964.2947426024 ; 2.0117748768315795E8 ; 6.03274943637736E8 ; 3.3509826842850784E10 ; 0.0
176 ; 3466312.146851832 ; 2.0118177251868862E8 ; 6.067459079324785E8 ; 3.3711004330533943E10 ; 0.0
177 ; 3465652.730819524 ; 2.011860411936328E8 ; 6.102122200793303E8 ; 3.391218610305263E10 ; 0.0
178 ; 3460343.6621951186 ; 2.0119029361770105E8 ; 6.136778728101499E8 ; 3.4113372144246265E10 ; 0.0
179 ; 3457681.575564807 ; 2.011945297011188E8 ; 6.17138216472345E8 ; 3.4314562437863968E10 ; 0.0
180 ; 3455371.8025563937 ; 2.0119874935462236E8 ; 6.205958980479099E8 ; 3.451575696756509E10 ; 0.0
181 ; 3452332.401548423 ; 2.0120295248945493E8 ; 6.240512698504663E8 ; 3.471695571691971E10 ; 0.0
182 ; 3447564.615014069 ; 2.0120713901736295E8 ; 6.275036022520146E8 ; 3.4918158669409164E10 ; 0.0
183 ; 3444910.186679161 ; 2.0121130885059252E8 ; 6.309511668670287E8 ; 3.511936580842653E10 ; 0.0
184 ; 3443775.048146306 ; 2.0121546190188605E8 ; 6.343960770537078E8 ; 3.532057711727712E10 ; 0.0
185 ; 3438428.056519615 ; 2.0121959808447894E8 ; 6.378398521018541E8 ; 3.552179257917901E10 ; 0.0
186 ; 3436762.3602040275 ; 2.012237173120967E8 ; 6.412782801583737E8 ; 3.572301217726349E10 ; 0.0
187 ; 3430374.5442712475 ; 2.012278194989517E8 ; 6.447150425185777E8 ; 3.5924235894575584E10 ; 0.0
188 ; 3429431.005044127 ; 2.012319045597408E8 ; 6.481454170628489E8 ; 3.612546371407454E10 ; 0.0
189 ; 3425198.0313514564 ; 2.012359724096424E8 ; 6.51574848067893E8 ; 3.632669561863428E10 ; 0.0
190 ; 3422151.918110414 ; 2.0124002296431392E8 ; 6.550000460992445E8 ; 3.652793159104392E10 ; 0.0
191 ; 3419170.245843265 ; 2.0124405613988963E8 ; 6.584221980173548E8 ; 3.672917161400824E10 ; 0.0
192 ; 3415973.889123422 ; 2.0124807185297814E8 ; 6.618413682631981E8 ; 3.693041567014813E10 ; 0.0
193 ; 3411882.034301366 ; 2.012520700206603E8 ; 6.652573421523216E8 ; 3.7131663742001114E10 ; 0.0
194 ; 3409850.7068117773 ; 2.0125605056048727E8 ; 6.68669224186623E8 ; 3.7332915812021774E10 ; 0.0
195 ; 3404456.812198876 ; 2.0126001339047837E8 ; 6.720790748934348E8 ; 3.753417186258226E10 ; 0.0
196 ; 3397519.244752403 ; 2.0126395842911938E8 ; 6.754835317056336E8 ; 3.773543187597274E10 ; 0.0
197 ; 3394606.107719396 ; 2.0126788559536076E8 ; 6.78881050950386E8 ; 3.793669583440186E10 ; 0.0
198 ; 3395072.205624596 ; 2.0127179480861595E8 ; 6.822756570581055E8 ; 3.813796371999722E10 ; 0.0
199 ; 3392218.0289475597 ; 2.0127568598875985E8 ; 6.8567072926373E8 ; 3.833923551480584E10 ; 0.0
200 ; 3389913.639544333 ; 2.012795590561273E8 ; 6.890629472926776E8 ; 3.85405112007946E10 ; 0.0
