CSV File for the City 6 on Day 196
1 - Minute m 
2 - Power Consumed at minute m 
3 - Power Produced at minute m 
4 - Energy Consumed since the beginning of the day 
5 - Energy Produced since the beginning of the day 
6 - Energy Lost since the beginning of the day on lines starting from the city
 
0 ; 1237811.5213346947 ; 1.058110389895666E8 ; 0.0 ; 0.0 ; 0.0
1 ; 1248493.9450966679 ; 1.0596153235885495E8 ; 1237811.5213346947 ; 1.058110389895666E8 ; 0.0
2 ; 1262029.3935511366 ; 1.0642105049082741E8 ; 2486305.4664313626 ; 2.1177257134842154E8 ; 0.0
3 ; 1272758.836802312 ; 1.0718959983702797E8 ; 3748334.859982499 ; 3.1819362183924896E8 ; 0.0
4 ; 1290879.50510507 ; 1.0826718623563212E8 ; 5021093.696784811 ; 4.253832216762769E8 ; 0.0
5 ; 1308935.6314344185 ; 1.0965381486060101E8 ; 6311973.201889881 ; 5.3365040791190904E8 ; 0.0
6 ; 1338911.939158941 ; 1.1134949017520037E8 ; 7620908.833324299 ; 6.4330422277251E8 ; 0.0
7 ; 1377734.6955895384 ; 1.133542158908245E8 ; 8959820.77248324 ; 7.546537129477104E8 ; 0.0
8 ; 1430762.3439590023 ; 1.1566799493198961E8 ; 1.033755546807278E7 ; 8.680079288385348E8 ; 0.0
9 ; 1514392.178852318 ; 1.1829082940825635E8 ; 1.1768317812031781E7 ; 9.836759237705245E8 ; 0.0
10 ; 1638190.1844854997 ; 1.2122272059370494E8 ; 1.32827099908841E7 ; 1.1019667531787808E9 ; 0.0
11 ; 1838617.6470834871 ; 1.2446366891442922E8 ; 1.4920900175369598E7 ; 1.2231894737724857E9 ; 0.0
12 ; 2150909.914721333 ; 1.2801367394433531E8 ; 1.6759517822453085E7 ; 1.347653142686915E9 ; 0.0
13 ; 2455955.465373015 ; 1.31872734409343E8 ; 1.8910427737174418E7 ; 1.4756668166312501E9 ; 0.0
14 ; 2500023.3950314755 ; 1.3604084819989175E8 ; 2.136638320254743E7 ; 1.6075395510405931E9 ; 0.0
15 ; 2510854.1946208314 ; 1.405180123914652E8 ; 2.3866406597578906E7 ; 1.743580399240485E9 ; 0.0
16 ; 2526165.3144180253 ; 1.4530422327266917E8 ; 2.637726079219974E7 ; 1.8840984116319501E9 ; 0.0
17 ; 2546878.047426407 ; 1.5039947638023785E8 ; 2.8903426106617764E7 ; 2.0294026349046192E9 ; 0.0
18 ; 2558585.0922361286 ; 1.5580376654021013E8 ; 3.145030415404417E7 ; 2.1798021112848573E9 ; 0.0
19 ; 2574300.114409645 ; 1.615170879144105E8 ; 3.40088892462803E7 ; 2.3356058778250675E9 ; 0.0
20 ; 2594438.4476268557 ; 1.6753943405129495E8 ; 3.6583189360689946E7 ; 2.497122965739478E9 ; 0.0
21 ; 2607756.5954856137 ; 1.7387079794018224E8 ; 3.9177627808316804E7 ; 2.664662399790773E9 ; 0.0
22 ; 2619923.1414827737 ; 1.805111720678786E8 ; 4.178538440380242E7 ; 2.838533197730955E9 ; 0.0
23 ; 2636741.1477271803 ; 1.8746054847672522E8 ; 4.440530754528519E7 ; 3.019044369798834E9 ; 0.0
24 ; 2653375.956869421 ; 1.9471891882314235E8 ; 4.704204869301237E7 ; 3.206504918275559E9 ; 0.0
25 ; 2669681.2565700896 ; 2.0097431533399647E8 ; 4.9695424649881795E7 ; 3.4012238370987015E9 ; 0.0
26 ; 2685516.1447135676 ; 2.009802769005443E8 ; 5.236510590645188E7 ; 3.602198152432698E9 ; 0.0
27 ; 2699915.9311642004 ; 2.0098656365857214E8 ; 5.505062205116545E7 ; 3.803178429333242E9 ; 0.0
28 ; 2714275.3430284914 ; 2.0099316628801927E8 ; 5.7750537982329644E7 ; 4.004164992991814E9 ; 0.0
29 ; 2734160.624595771 ; 2.0100007535622063E8 ; 6.046481332535814E7 ; 4.2051581592798333E9 ; 0.0
30 ; 2747626.255029859 ; 2.0100728136469E8 ; 6.3198973949953906E7 ; 4.406158234636054E9 ; 0.0
31 ; 2762762.6611842113 ; 2.010147747924267E8 ; 6.594660020498376E7 ; 4.607165516000744E9 ; 0.0
32 ; 2780316.7941842354 ; 2.01022546135578E8 ; 6.870936286616798E7 ; 4.808180290793171E9 ; 0.0
33 ; 2791537.3923475356 ; 2.0103058594337407E8 ; 7.148967966035222E7 ; 5.009202836928749E9 ; 0.0
34 ; 2805232.9709020886 ; 2.0103888485032618E8 ; 7.428121705269974E7 ; 5.210233422872123E9 ; 0.0
35 ; 2821307.44718811 ; 2.0104743360474324E8 ; 7.708645002360183E7 ; 5.411272307722449E9 ; 0.0
36 ; 2833434.6201227037 ; 2.0105622309367368E8 ; 7.990775747078994E7 ; 5.612319741327192E9 ; 0.0
37 ; 2846856.6519520488 ; 2.0106524436442307E8 ; 8.274119209091264E7 ; 5.813375964420866E9 ; 0.0
38 ; 2861812.564778034 ; 2.0107448864282945E8 ; 8.558804874286468E7 ; 6.014441208785289E9 ; 0.0
39 ; 2873631.779283035 ; 2.010839473485025E8 ; 8.844986130764271E7 ; 6.215515697428119E9 ; 0.0
40 ; 2881816.9960061694 ; 2.0109361210724765E8 ; 9.132349308692575E7 ; 6.416599644776621E9 ; 0.0
41 ; 2893068.2539021424 ; 2.0110347476090547E8 ; 9.420531008293192E7 ; 6.617693256883868E9 ; 0.0
42 ; 2902116.5446371906 ; 2.0111352737483835E8 ; 9.709837833683406E7 ; 6.8187967316447735E9 ; 0.0
43 ; 2916686.2646607333 ; 2.0112376224329552E8 ; 1.0000049488147125E8 ; 7.019910259019611E9 ; 0.0
44 ; 2924524.648200771 ; 2.0113417189288032E8 ; 1.0291718114613198E8 ; 7.221034021262907E9 ; 0.0
45 ; 2930537.57804291 ; 2.011447490843354E8 ; 1.0584170579433274E8 ; 7.422168193155787E9 ; 0.0
46 ; 2943232.6018006257 ; 2.0115548681285003E8 ; 1.0877224337237565E8 ; 7.623312942240123E9 ; 0.0
47 ; 2953168.3290461884 ; 2.0116637830708054E8 ; 1.1171547597417627E8 ; 7.824468429052973E9 ; 0.0
48 ; 2960564.962435525 ; 2.0117741702706188E8 ; 1.1466864430322246E8 ; 8.025634807360053E9 ; 0.0
49 ; 2968130.524002079 ; 2.0118859666117376E8 ; 1.1762920926565799E8 ; 8.226812224387115E9 ; 0.0
50 ; 2973388.373021429 ; 2.0119991112231013E8 ; 1.2059733978966007E8 ; 8.428000821048288E9 ; 0.0
51 ; 2978507.573272902 ; 2.0121135454338762E8 ; 1.2357072816268149E8 ; 8.629200732170599E9 ; 0.0
52 ; 2984050.7602119753 ; 2.0122292127231383E8 ; 1.2654923573595439E8 ; 8.830412086713987E9 ; 0.0
53 ; 2992272.5106721334 ; 2.012346058665244E8 ; 1.2953328649616636E8 ; 9.031635007986301E9 ; 0.0
54 ; 2993858.9173615645 ; 2.0124640308718464E8 ; 1.325255590068385E8 ; 9.232869613852825E9 ; 0.0
55 ; 3004143.0879372195 ; 2.012583078931407E8 ; 1.3551941792420006E8 ; 9.43411601694001E9 ; 0.0
56 ; 3011198.7178057465 ; 2.0127031543469423E8 ; 1.3852356101213726E8 ; 9.63537432483315E9 ; 0.0
57 ; 3014046.7063040906 ; 2.012824210472652E8 ; 1.41534759729943E8 ; 9.836644640267845E9 ; 0.0
58 ; 3019194.887958701 ; 2.0129462024499825E8 ; 1.445488064362471E8 ; 1.0037927061315111E10 ; 0.0
59 ; 3025453.5360938245 ; 2.013069087143603E8 ; 1.4756800132420582E8 ; 1.023922168156011E10 ; 0.0
60 ; 3034579.925787835 ; 2.0131928230776995E8 ; 1.5059345486029965E8 ; 1.0440528590274471E10 ; 0.0
61 ; 3041961.1909562596 ; 2.013317370372924E8 ; 1.5362803478608748E8 ; 1.0641847872582241E10 ; 0.0
62 ; 3042003.453239559 ; 2.0134426906842852E8 ; 1.5666999597704375E8 ; 1.0843179609619534E10 ; 0.0
63 ; 3049220.805041872 ; 2.0135687471402106E8 ; 1.597119994302833E8 ; 1.1044523878687962E10 ; 0.0
64 ; 3054467.0871942444 ; 2.0136955042829692E8 ; 1.627612202353252E8 ; 1.1245880753401983E10 ; 0.0
65 ; 3057234.740489321 ; 2.0138229280106056E8 ; 1.6581568732251942E8 ; 1.144725030383028E10 ; 0.0
66 ; 3066683.4539282834 ; 2.013950985520497E8 ; 1.6887292206300876E8 ; 1.164863259663134E10 ; 0.0
67 ; 3069442.2151013264 ; 2.0140796452546245E8 ; 1.7193960551693705E8 ; 1.185002769518339E10 ; 0.0
68 ; 3074372.9559447723 ; 2.0142088768466154E8 ; 1.7500904773203838E8 ; 1.2051435659708853E10 ; 0.0
69 ; 3078601.581071476 ; 2.014338651070597E8 ; 1.7808342068798316E8 ; 1.2252856547393515E10 ; 0.0
70 ; 3083218.0231747623 ; 2.014468939791885E8 ; 1.8116202226905462E8 ; 1.2454290412500574E10 ; 0.0
71 ; 3091929.3871795065 ; 2.014599715919508E8 ; 1.8424524029222938E8 ; 1.2655737306479763E10 ; 0.0
72 ; 3093541.0837247283 ; 2.0147309533605635E8 ; 1.8733716967940888E8 ; 1.2857197278071714E10 ; 0.0
73 ; 3095915.9664511355 ; 2.014862626976386E8 ; 1.9043071076313362E8 ; 1.305867037340777E10 ; 0.0
74 ; 3098981.4584280862 ; 2.014994712540499E8 ; 1.9352662672958475E8 ; 1.326015663610541E10 ; 0.0
75 ; 3104870.334525155 ; 2.0151271866983166E8 ; 1.9662560818801284E8 ; 1.3461656107359459E10 ; 0.0
76 ; 3112002.990023953 ; 2.0152600269285554E8 ; 1.99730478522538E8 ; 1.3663168826029291E10 ; 0.0
77 ; 3111003.0710642957 ; 2.0153932115063092E8 ; 2.0284248151256195E8 ; 1.3864694828722147E10 ; 0.0
78 ; 3112584.077684601 ; 2.0155267194677404E8 ; 2.0595348458362624E8 ; 1.4066234149872778E10 ; 0.0
79 ; 3116540.7537742825 ; 2.0156605305763355E8 ; 2.0906606866131085E8 ; 1.4267786821819551E10 ; 0.0
80 ; 3115605.9781750795 ; 2.0157946252906728E8 ; 2.1218260941508514E8 ; 1.4469352874877186E10 ; 0.0
81 ; 3115750.706910491 ; 2.0159289847336477E8 ; 2.152982153932602E8 ; 1.4670932337406254E10 ; 0.0
82 ; 3115672.5104505625 ; 2.0160635906631014E8 ; 2.184139661001707E8 ; 1.4872525235879618E10 ; 0.0
83 ; 3115753.839329113 ; 2.0161984254437995E8 ; 2.2152963861062127E8 ; 1.5074131594945929E10 ; 0.0
84 ; 3115703.62601049 ; 2.016333472020704E8 ; 2.246453924499504E8 ; 1.5275751437490309E10 ; 0.0
85 ; 3117059.9206926557 ; 2.0164687138934878E8 ; 2.2776109607596087E8 ; 1.5477384784692379E10 ; 0.0
86 ; 3117446.9940468767 ; 2.0166041350922388E8 ; 2.3087815599665353E8 ; 1.5679031656081728E10 ; 0.0
87 ; 3116362.9539551726 ; 2.0167397201542997E8 ; 2.339956029907004E8 ; 1.5880692069590952E10 ; 0.0
88 ; 3114408.6698620305 ; 2.016875454102195E8 ; 2.3711196594465557E8 ; 1.6082366041606382E10 ; 0.0
89 ; 3117486.24098083 ; 2.0170113224225983E8 ; 2.402263746145176E8 ; 1.6284053587016602E10 ; 0.0
90 ; 3113782.7804702143 ; 2.0171473110462904E8 ; 2.4334386085549843E8 ; 1.6485754719258862E10 ; 0.0
91 ; 3111415.1476953207 ; 2.017283406329061E8 ; 2.4645764363596866E8 ; 1.6687469450363491E10 ; 0.0
92 ; 3112628.6189136906 ; 2.0174195950335154E8 ; 2.49569058783664E8 ; 1.6889197790996397E10 ; 0.0
93 ; 3112074.2058766778 ; 2.0175558643117365E8 ; 2.5268168740257767E8 ; 1.7090939750499748E10 ; 0.0
94 ; 3109236.6889576917 ; 2.0176922016887695E8 ; 2.5579376160845435E8 ; 1.7292695336930923E10 ; 0.0
95 ; 3111208.8365060864 ; 2.017828595046883E8 ; 2.5890299829741204E8 ; 1.74944645570998E10 ; 0.0
96 ; 3107914.9406473953 ; 2.0179650326105735E8 ; 2.6201420713391814E8 ; 1.769624741660449E10 ; 0.0
97 ; 3103866.8285561725 ; 2.0181015029322758E8 ; 2.6512212207456553E8 ; 1.7898043919865547E10 ; 0.0
98 ; 3104661.185136744 ; 2.0182379948787454E8 ; 2.682259889031217E8 ; 1.8099854070158775E10 ; 0.0
99 ; 3105658.9289302304 ; 2.018374497618081E8 ; 2.7133065008825845E8 ; 1.830167786964665E10 ; 0.0
100 ; 3101106.085987048 ; 2.0185110006073523E8 ; 2.7443630901718867E8 ; 1.8503515319408455E10 ; 0.0
101 ; 3098209.8308553067 ; 2.01864749358081E8 ; 2.775374151031757E8 ; 1.870536641946919E10 ; 0.0
102 ; 3098676.1156222406 ; 2.0187839665386444E8 ; 2.80635624934031E8 ; 1.890723116882727E10 ; 0.0
103 ; 3099948.3163225306 ; 2.0189204097362635E8 ; 2.8373430104965323E8 ; 1.9109109565481136E10 ; 0.0
104 ; 3093581.945285321 ; 2.0190568136740744E8 ; 2.8683424936597574E8 ; 1.931100160645476E10 ; 0.0
105 ; 3094965.813603528 ; 2.0191931690877333E8 ; 2.8992783131126106E8 ; 1.951290728782217E10 ; 0.0
106 ; 3093038.235484076 ; 2.0193294669388458E8 ; 2.930227971248646E8 ; 1.971482660473094E10 ; 0.0
107 ; 3089561.6472842707 ; 2.019465698406096E8 ; 2.9611583536034864E8 ; 1.9916759551424828E10 ; 0.0
108 ; 3087483.130591875 ; 2.0196018548767802E8 ; 2.992053970076329E8 ; 2.0118706121265438E10 ; 0.0
109 ; 3081756.447333597 ; 2.0197379279387292E8 ; 3.022928801382248E8 ; 2.0320666306753117E10 ; 0.0
110 ; 3086208.659856461 ; 2.0198739093725964E8 ; 3.0537463658555835E8 ; 2.052264009954699E10 ; 0.0
111 ; 3081584.6765861227 ; 2.0200097911444956E8 ; 3.084608452454148E8 ; 2.072462749048425E10 ; 0.0
112 ; 3078047.0483428393 ; 2.0201455653989738E8 ; 3.1154242992200094E8 ; 2.0926628469598698E10 ; 0.0
113 ; 3073873.8460395057 ; 2.0202812244522953E8 ; 3.1462047697034377E8 ; 2.1128643026138596E10 ; 0.0
114 ; 3074890.761367733 ; 2.0204167607860324E8 ; 3.176943508163833E8 ; 2.1330671148583824E10 ; 0.0
115 ; 3069851.508477853 ; 2.020552167040938E8 ; 3.2076924157775104E8 ; 2.1532712824662426E10 ; 0.0
116 ; 3069624.198197286 ; 2.0206874360110924E8 ; 3.238390930862289E8 ; 2.173476804136652E10 ; 0.0
117 ; 3060977.5146222836 ; 2.020822560638309E8 ; 3.269087172844262E8 ; 2.193683678496763E10 ; 0.0
118 ; 3060731.8424776387 ; 2.020957534006787E8 ; 3.299696947990485E8 ; 2.213891904103146E10 ; 0.0
119 ; 3055186.7385738012 ; 2.0210923493379983E8 ; 3.330304266415261E8 ; 2.234101479443214E10 ; 0.0
120 ; 3054455.5162775274 ; 2.021226999985798E8 ; 3.360856133800999E8 ; 2.254312402936594E10 ; 0.0
121 ; 3052161.6510445653 ; 2.021361479431749E8 ; 3.3914006889637744E8 ; 2.274524672936452E10 ; 0.0
122 ; 3049904.11416707 ; 2.0214957812806478E8 ; 3.42192230547422E8 ; 2.2947382877307697E10 ; 0.0
123 ; 3047285.838067357 ; 2.021629899256244E8 ; 3.452421346615891E8 ; 2.314953245543576E10 ; 0.0
124 ; 3036707.864806336 ; 2.0217638271971446E8 ; 3.4828942049965644E8 ; 2.3351695445361385E10 ; 0.0
125 ; 3038554.126638841 ; 2.021897559052892E8 ; 3.513261283644628E8 ; 2.35538718280811E10 ; 0.0
126 ; 3032968.1304910663 ; 2.0220310888802108E8 ; 3.543646824911016E8 ; 2.375606158398639E10 ; 0.0
127 ; 3030661.1242830097 ; 2.0221644108394122E8 ; 3.573976506215927E8 ; 2.395826469287441E10 ; 0.0
128 ; 3025171.962852182 ; 2.0222975191909522E8 ; 3.604283117458757E8 ; 2.416048113395835E10 ; 0.0
129 ; 3023040.1688854634 ; 2.022430408292132E8 ; 3.634534837087279E8 ; 2.4362710885877445E10 ; 0.0
130 ; 3014838.705269186 ; 2.0225630725939405E8 ; 3.6647652387761337E8 ; 2.4564953926706657E10 ; 0.0
131 ; 3008573.882284067 ; 2.0226955066380224E8 ; 3.694913625828825E8 ; 2.4767210233966053E10 ; 0.0
132 ; 3000204.440161546 ; 2.0228277050537792E8 ; 3.7249993646516657E8 ; 2.4969479784629856E10 ; 0.0
133 ; 2993208.6265144865 ; 2.0229596625555843E8 ; 3.755001409053281E8 ; 2.5171762555135235E10 ; 0.0
134 ; 2985034.620021155 ; 2.0230913739401156E8 ; 3.784933495318426E8 ; 2.5374058521390793E10 ; 0.0
135 ; 2976611.372003076 ; 2.023222834083796E8 ; 3.8147838415186375E8 ; 2.5576367658784805E10 ; 0.0
136 ; 2969071.552976764 ; 2.0233540379403406E8 ; 3.8445499552386683E8 ; 2.5778689942193184E10 ; 0.0
137 ; 2961370.5683644344 ; 2.0234849805383995E8 ; 3.874240670768436E8 ; 2.5981025345987217E10 ; 0.0
138 ; 2947500.1240204475 ; 2.0236156569792995E8 ; 3.9038543764520806E8 ; 2.6183373844041058E10 ; 0.0
139 ; 2942268.2767889313 ; 2.0237460624348748E8 ; 3.933329377692285E8 ; 2.6385735409738987E10 ; 0.0
140 ; 2934341.873426404 ; 2.0238761921453863E8 ; 3.9627520604601747E8 ; 2.6588110015982475E10 ; 0.0
141 ; 2925473.991426715 ; 2.0240060414175215E8 ; 3.9920954791944385E8 ; 2.6790497635197014E10 ; 0.0
142 ; 2916045.32217401 ; 2.024135605622476E8 ; 4.0213502191087055E8 ; 2.6992898239338764E10 ; 0.0
143 ; 2909219.62973488 ; 2.02426488019411E8 ; 4.0505106723304456E8 ; 2.7195311799901012E10 ; 0.0
144 ; 2896796.937308866 ; 2.0243938606271774E8 ; 4.0796028686277944E8 ; 2.739773828792042E10 ; 0.0
145 ; 2895947.961764513 ; 2.0245225424756247E8 ; 4.108570838000883E8 ; 2.760017767398314E10 ; 0.0
146 ; 2892274.6176870526 ; 2.024650921350957E8 ; 4.137530317618528E8 ; 2.78026299282307E10 ; 0.0
147 ; 2890264.9989103856 ; 2.0247789929206648E8 ; 4.1664530637953985E8 ; 2.80050950203658E10 ; 0.0
148 ; 2885015.907496951 ; 2.0249067529067168E8 ; 4.195355713784502E8 ; 2.8207572919657864E10 ; 0.0
149 ; 2877287.1522358377 ; 2.0250341970841047E8 ; 4.2242058728594714E8 ; 2.8410063594948536E10 ; 0.0
150 ; 2876481.5216807923 ; 2.0251613212794492E8 ; 4.25297874438183E8 ; 2.8612567014656948E10 ; 0.0
151 ; 2869362.7958833207 ; 2.025288121369657E8 ; 4.281743559598638E8 ; 2.8815083146784893E10 ; 0.0
152 ; 2868756.2707531773 ; 2.0254145932806283E8 ; 4.310437187557471E8 ; 2.901761195892186E10 ; 0.0
153 ; 2861409.204347999 ; 2.0255407329860157E8 ; 4.339124750265003E8 ; 2.9220153418249924E10 ; 0.0
154 ; 2860617.551203164 ; 2.0256665365060276E8 ; 4.367738842308483E8 ; 2.9422707491548527E10 ; 0.0
155 ; 2852261.8780708285 ; 2.0257919999062788E8 ; 4.396345017820515E8 ; 2.962527414519913E10 ; 0.0
156 ; 2847762.2208723924 ; 2.0259171192966825E8 ; 4.4248676366012233E8 ; 2.982785334518976E10 ; 0.0
157 ; 2845680.864884425 ; 2.0260418908303854E8 ; 4.4533452588099474E8 ; 3.0030445057119427E10 ; 0.0
158 ; 2841447.917734319 ; 2.0261663107027408E8 ; 4.481802067458792E8 ; 3.0233049246202465E10 ; 0.0
159 ; 2834823.1162351267 ; 2.026290375150321E8 ; 4.510216546636135E8 ; 3.043566587727274E10 ; 0.0
160 ; 2832630.84405028 ; 2.0264140804499668E8 ; 4.5385647777984864E8 ; 3.0638294914787773E10 ; 0.0
161 ; 2825897.6838358995 ; 2.0265374229178688E8 ; 4.566891086238989E8 ; 3.084093632283277E10 ; 0.0
162 ; 2825938.976163901 ; 2.026660398908688E8 ; 4.5951500630773485E8 ; 3.1043590065124557E10 ; 0.0
163 ; 2820074.8538176543 ; 2.026783004814703E8 ; 4.623409452838988E8 ; 3.1246256105015427E10 ; 0.0
164 ; 2813164.653084701 ; 2.026905237064991E8 ; 4.651610201377164E8 ; 3.14489344054969E10 ; 0.0
165 ; 2808194.977612225 ; 2.0270270921246392E8 ; 4.679741847908011E8 ; 3.16516249292034E10 ; 0.0
166 ; 2807281.980994247 ; 2.0271485664939833E8 ; 4.707823797684133E8 ; 3.1854327638415863E10 ; 0.0
167 ; 2801110.1107430183 ; 2.0272696567078745E8 ; 4.7358966174940753E8 ; 3.205704249506526E10 ; 0.0
168 ; 2797361.474579644 ; 2.0273903593349713E8 ; 4.763907718601506E8 ; 3.225976946073605E10 ; 0.0
169 ; 2794383.6199796153 ; 2.027510670977059E8 ; 4.791881333347302E8 ; 3.2462508496669548E10 ; 0.0
170 ; 2789215.6595123084 ; 2.0276305882683918E8 ; 4.819825169547098E8 ; 3.2665259563767254E10 ; 0.0
171 ; 2780356.6261064694 ; 2.0277501078750598E8 ; 4.847717326142221E8 ; 3.2868022622594093E10 ; 0.0
172 ; 2778075.908914989 ; 2.0278692264943767E8 ; 4.8755208924032855E8 ; 3.30707976333816E10 ; 0.0
173 ; 2769832.206480849 ; 2.02798794085429E8 ; 4.9033016514924353E8 ; 3.3273584556031036E10 ; 0.0
174 ; 2770268.465422628 ; 2.0281062477128136E8 ; 4.930999973557244E8 ; 3.3476383350116467E10 ; 0.0
175 ; 2767563.7659825943 ; 2.028224143857478E8 ; 4.95870265821147E8 ; 3.367919397488775E10 ; 0.0
176 ; 2766361.7748807888 ; 2.0283416261048E8 ; 4.986378295871296E8 ; 3.3882016389273495E10 ; 0.0
177 ; 2763567.091904273 ; 2.0284586912997746E8 ; 5.0140419136201036E8 ; 3.4084850551883976E10 ; 0.0
178 ; 2758224.452275397 ; 2.028575336315379E8 ; 5.0416775845391464E8 ; 3.4287696421013954E10 ; 0.0
179 ; 2758116.7981649013 ; 2.0286915580520988E8 ; 5.0692598290619004E8 ; 3.449055395464549E10 ; 0.0
180 ; 2752629.6254330534 ; 2.028807353437467E8 ; 5.0968409970435494E8 ; 3.46934231104507E10 ; 0.0
181 ; 2753268.111222915 ; 2.0289227194256225E8 ; 5.1243672932978797E8 ; 3.489630384579445E10 ; 0.0
182 ; 2745867.5933082607 ; 2.029037652996881E8 ; 5.151899974410109E8 ; 3.5099196117737015E10 ; 0.0
183 ; 2743154.880465361 ; 2.0291521511573213E8 ; 5.1793586503431916E8 ; 3.5302099883036705E10 ; 0.0
184 ; 2742213.091451757 ; 2.029266210938388E8 ; 5.2067901991478455E8 ; 3.5505015098152435E10 ; 0.0
185 ; 2739218.390256485 ; 2.029379829396505E8 ; 5.234212330062363E8 ; 3.570794171924628E10 ; 0.0
186 ; 2734193.4486532668 ; 2.0294930036127034E8 ; 5.261604513964928E8 ; 3.591087970218593E10 ; 0.0
187 ; 2732136.8715690663 ; 2.029605730692263E8 ; 5.2889464484514606E8 ; 3.6113829002547195E10 ; 0.0
188 ; 2723445.976624593 ; 2.0297180077643648E8 ; 5.316267817167151E8 ; 3.6316789575616425E10 ; 0.0
189 ; 2722380.7714485135 ; 2.0298298319817558E8 ; 5.343502276933397E8 ; 3.651976137639286E10 ; 0.0
190 ; 2722451.2735585985 ; 2.0299412005204257E8 ; 5.370726084647882E8 ; 3.6722744359591034E10 ; 0.0
191 ; 2719884.752672747 ; 2.0300521105792934E8 ; 5.397950597383468E8 ; 3.6925738479643074E10 ; 0.0
192 ; 2716980.101150774 ; 2.030162559379906E8 ; 5.425149444910196E8 ; 3.7128743690701004E10 ; 0.0
193 ; 2712469.9924933277 ; 2.0302725441661453E8 ; 5.452319245921704E8 ; 3.733175994663899E10 ; 0.0
194 ; 2709995.3945676796 ; 2.0303820622039476E8 ; 5.479443945846636E8 ; 3.75347872010556E10 ; 0.0
195 ; 2707443.555220998 ; 2.03049111078103E8 ; 5.506543899792314E8 ; 3.7737825407276E10 ; 0.0
196 ; 2701816.129089449 ; 2.0305996872066274E8 ; 5.533618335344523E8 ; 3.79408745183541E10 ; 0.0
197 ; 2703913.512127653 ; 2.0307077888112384E8 ; 5.560636496635418E8 ; 3.814393448707477E10 ; 0.0
198 ; 2701757.875164671 ; 2.0308154129463792E8 ; 5.587675631756694E8 ; 3.8347005265955894E10 ; 0.0
199 ; 2694729.653688718 ; 2.0309225569843456E8 ; 5.614693210508341E8 ; 3.8550086807250534E10 ; 0.0
200 ; 2690933.1770675606 ; 2.0310292183179843E8 ; 5.641640507045227E8 ; 3.875317906294897E10 ; 0.0
