CSV File for the City 6 on Day 183
1 - Minute m 
2 - Power Consumed at minute m 
3 - Power Produced at minute m 
4 - Energy Consumed since the beginning of the day 
5 - Energy Produced since the beginning of the day 
6 - Energy Lost since the beginning of the day on lines starting from the city
 
0 ; 2263495.8397993087 ; 1.0594844446116194E8 ; 0.0 ; 0.0 ; 0.0
1 ; 2275968.6222586376 ; 1.0609920632611376E8 ; 2263495.8397993087 ; 1.0594844446116194E8 ; 0.0
2 ; 2284457.3132710317 ; 1.0655897031858918E8 ; 4539464.462057946 ; 2.120476507872757E8 ; 0.0
3 ; 2299199.5414666776 ; 1.073277411290108E8 ; 6823921.775328978 ; 3.186066211058649E8 ; 0.0
4 ; 2313691.42133468 ; 1.0840552297668862E8 ; 9123121.316795655 ; 4.259343622348757E8 ; 0.0
5 ; 2334608.078988412 ; 1.0979231958114904E8 ; 1.1436812738130335E7 ; 5.343398852115643E8 ; 0.0
6 ; 2361863.6951075047 ; 1.1148813413625589E8 ; 1.3771420817118747E7 ; 6.441322047927134E8 ; 0.0
7 ; 2392934.184640809 ; 1.1349296928753614E8 ; 1.6133284512226252E7 ; 7.556203389289693E8 ; 0.0
8 ; 2448888.2457034467 ; 1.1580682711307877E8 ; 1.852621869686706E7 ; 8.691133082165054E8 ; 0.0
9 ; 2529212.143175895 ; 1.1842970910832709E8 ; 2.0975106942570508E7 ; 9.849201353295841E8 ; 0.0
10 ; 2657558.618137636 ; 1.2136161617502385E8 ; 2.3504319085746404E7 ; 1.1033498444379113E9 ; 0.0
11 ; 2853175.2928366535 ; 1.2460254861449996E8 ; 2.616187770388404E7 ; 1.224711460612935E9 ; 0.0
12 ; 3166139.6851922944 ; 1.2815250612542447E8 ; 2.9015052996720694E7 ; 1.349314009227435E9 ; 0.0
13 ; 3472100.0536034005 ; 1.3201148780605465E8 ; 3.218119268191299E7 ; 1.4774665153528595E9 ; 0.0
14 ; 3507280.600611536 ; 1.3617949216094726E8 ; 3.565329273551639E7 ; 1.609478003158914E9 ; 0.0
15 ; 3521385.8529585083 ; 1.4065651711201322E8 ; 3.916057333612793E7 ; 1.7456574953198614E9 ; 0.0
16 ; 3536984.266582988 ; 1.4544256001372567E8 ; 4.268195918908644E7 ; 1.8863140124318748E9 ; 0.0
17 ; 3548937.6382239144 ; 1.5053761767222068E8 ; 4.6218943455669425E7 ; 2.0317565724456005E9 ; 0.0
18 ; 3565748.161686736 ; 1.559416863679719E8 ; 4.976788109389334E7 ; 2.182294190117821E9 ; 0.0
19 ; 3582103.50765613 ; 1.616547618816693E8 ; 5.3333629255580075E7 ; 2.338235876485793E9 ; 0.0
20 ; 3596117.457074203 ; 1.676768395228903E8 ; 5.69157327632362E7 ; 2.4998906383674626E9 ; 0.0
21 ; 3607679.616647338 ; 1.740079141611252E8 ; 6.0511850220310405E7 ; 2.6675674778903527E9 ; 0.0
22 ; 3622950.008107559 ; 1.8064798025869942E8 ; 6.4119529836957745E7 ; 2.841575392051478E9 ; 0.0
23 ; 3639964.627344435 ; 1.8759703190513074E8 ; 6.774247984506531E7 ; 3.0222233723101773E9 ; 0.0
24 ; 3650510.55958839 ; 1.9485506285246295E8 ; 7.138244447240974E7 ; 3.209820404215308E9 ; 0.0
25 ; 3663555.7012693267 ; 2.0111010744931605E8 ; 7.503295503199813E7 ; 3.404675467067771E9 ; 0.0
26 ; 3679102.899963528 ; 2.011157067137612E8 ; 7.869651073326746E7 ; 3.605785574517087E9 ; 0.0
27 ; 3696724.998317863 ; 2.0112162289392525E8 ; 8.237561363323098E7 ; 3.8069012812308483E9 ; 0.0
28 ; 3707788.950802464 ; 2.0112784874983048E8 ; 8.607233863154885E7 ; 4.0080229041247735E9 ; 0.0
29 ; 3725761.7071537613 ; 2.0113437688075826E8 ; 8.978012758235131E7 ; 4.209150752874604E9 ; 0.0
30 ; 3737826.0692493278 ; 2.01141199758145E8 ; 9.350588928950508E7 ; 4.4102851297553625E9 ; 0.0
31 ; 3751251.617040833 ; 2.011483097570248E8 ; 9.724371535875441E7 ; 4.611426329513508E9 ; 0.0
32 ; 3763739.0199656175 ; 2.0115569918583173E8 ; 1.0099496697579524E8 ; 4.812574639270533E9 ; 0.0
33 ; 3779082.1720436686 ; 2.0116336031441626E8 ; 1.0475870599576086E8 ; 5.013730338456365E9 ; 0.0
34 ; 3793217.428864418 ; 2.0117128540017E8 ; 1.0853778816780452E8 ; 5.214893698770781E9 ; 0.0
35 ; 3805356.7275092416 ; 2.0117946671219027E8 ; 1.1233100559666894E8 ; 5.416064984170951E9 ; 0.0
36 ; 3811108.4010927724 ; 2.0118789655344915E8 ; 1.1613636232417819E8 ; 5.6172444508831415E9 ; 0.0
37 ; 3826047.463744078 ; 2.0119656728096244E8 ; 1.1994747072527096E8 ; 5.81843234743659E9 ; 0.0
38 ; 3840503.04312043 ; 2.012054713239793E8 ; 1.2377351818901503E8 ; 6.019628914717552E9 ; 0.0
39 ; 3851445.6577448514 ; 2.0121460120023683E8 ; 1.2761402123213546E8 ; 6.220834386041532E9 ; 0.0
40 ; 3859931.147192695 ; 2.0122394953034148E8 ; 1.3146546688988031E8 ; 6.422048987241769E9 ; 0.0
41 ; 3868816.041939671 ; 2.0123350905035463E8 ; 1.3532539803707302E8 ; 6.62327293677211E9 ; 0.0
42 ; 3881225.332391779 ; 2.01243272622672E8 ; 1.391942140790127E8 ; 6.824506445822465E9 ; 0.0
43 ; 3889009.9942468232 ; 2.0125323324529362E8 ; 1.4307543941140446E8 ; 7.025749718445137E9 ; 0.0
44 ; 3897095.675933373 ; 2.012633840595889E8 ; 1.4696444940565127E8 ; 7.227002951690431E9 ; 0.0
45 ; 3905459.735574948 ; 2.012737183566631E8 ; 1.5086154508158463E8 ; 7.428266335750019E9 ; 0.0
46 ; 3913113.7828812744 ; 2.012842295824338E8 ; 1.547670048171596E8 ; 7.629540054106682E9 ; 0.0
47 ; 3917748.423253969 ; 2.0129491134152532E8 ; 1.5868011860004085E8 ; 7.830824283689116E9 ; 0.0
48 ; 3921636.4094113125 ; 2.0130575740008694E8 ; 1.6259786702329484E8 ; 8.032119195030641E9 ; 0.0
49 ; 3927438.6011071033 ; 2.0131676168763813E8 ; 1.6651950343270615E8 ; 8.233424952430728E9 ; 0.0
50 ; 3936897.061124266 ; 2.013279182980389E8 ; 1.7044694203381324E8 ; 8.434741714118366E9 ; 0.0
51 ; 3940049.8108495297 ; 2.0133922148968062E8 ; 1.743838390949375E8 ; 8.636069632416405E9 ; 0.0
52 ; 3945868.0530153913 ; 2.013506656849849E8 ; 1.7832388890578702E8 ; 8.837408853906086E9 ; 0.0
53 ; 3946212.1599495597 ; 2.0136224546929488E8 ; 1.822697569588024E8 ; 9.03875951959107E9 ; 0.0
54 ; 3956498.252871873 ; 2.01373955589236E8 ; 1.8621596911875197E8 ; 9.240121765060366E9 ; 0.0
55 ; 3960498.958183316 ; 2.0138579095061794E8 ; 1.9017246737162384E8 ; 9.441495720649601E9 ; 0.0
56 ; 3963123.430717673 ; 2.0139774661594433E8 ; 1.9413296632980716E8 ; 9.64288151160022E9 ; 0.0
57 ; 3969054.493112988 ; 2.0140981780158973E8 ; 1.9809608976052484E8 ; 9.844279258216164E9 ; 0.0
58 ; 3969254.2791305915 ; 2.0142199987469977E8 ; 2.0206514425363782E8 ; 1.0045689076017754E10 ; 0.0
59 ; 3975516.224402737 ; 2.0143428834986332E8 ; 2.060343985327684E8 ; 1.0247111075892454E10 ; 0.0
60 ; 3981060.569958488 ; 2.014466788856019E8 ; 2.1000991475717112E8 ; 1.0448545364242317E10 ; 0.0
61 ; 3983248.4024410606 ; 2.014591672807164E8 ; 2.139909753271296E8 ; 1.0649992043127918E10 ; 0.0
62 ; 3989403.860904139 ; 2.0147174947052646E8 ; 2.1797422372957066E8 ; 1.0851451210408634E10 ; 0.0
63 ; 3992416.452308611 ; 2.0148442152303502E8 ; 2.2196362759047478E8 ; 1.105292295987916E10 ; 0.0
64 ; 3997770.980379195 ; 2.0149717963504484E8 ; 2.259560440427834E8 ; 1.1254407381402195E10 ; 0.0
65 ; 4000531.0881480547 ; 2.0151002012825257E8 ; 2.299538150231626E8 ; 1.145590456103724E10 ; 0.0
66 ; 4001186.0924310773 ; 2.0152293944534114E8 ; 2.3395434611131066E8 ; 1.1657414581165491E10 ; 0.0
67 ; 4009308.065251708 ; 2.015359341460891E8 ; 2.3795553220374173E8 ; 1.1858937520610832E10 ; 0.0
68 ; 4008809.423064783 ; 2.015490009035129E8 ; 2.4196484026899344E8 ; 1.2060473454756922E10 ; 0.0
69 ; 4012869.696073486 ; 2.0156213650005573E8 ; 2.459736496920582E8 ; 1.2262022455660435E10 ; 0.0
70 ; 4016512.668638566 ; 2.0157533782383424E8 ; 2.4998651938813168E8 ; 1.246358459216049E10 ; 0.0
71 ; 4019631.5717543527 ; 2.0158860186495292E8 ; 2.5400303205677024E8 ; 1.2665159929984324E10 ; 0.0
72 ; 4022584.1848302437 ; 2.0160192571189386E8 ; 2.580226636285246E8 ; 1.2866748531849276E10 ; 0.0
73 ; 4025787.845996041 ; 2.0161530654798856E8 ; 2.6204524781335485E8 ; 1.3068350457561169E10 ; 0.0
74 ; 4029212.6262685717 ; 2.0162874164797667E8 ; 2.660710356593509E8 ; 1.3269965764109158E10 ; 0.0
75 ; 4028325.4259046162 ; 2.016422283746557E8 ; 2.701002482856195E8 ; 1.3471594505757133E10 ; 0.0
76 ; 4033903.1637859815 ; 2.016557641756247E8 ; 2.741285737115241E8 ; 1.3673236734131788E10 ; 0.0
77 ; 4037511.143382162 ; 2.016693465801237E8 ; 2.781624768753101E8 ; 1.3874892498307413E10 ; 0.0
78 ; 4040521.6514844564 ; 2.0168297319597042E8 ; 2.8219998801869226E8 ; 1.4076561844887537E10 ; 0.0
79 ; 4033061.8493840336 ; 2.016966417065947E8 ; 2.862405096701767E8 ; 1.4278244818083508E10 ; 0.0
80 ; 4035716.440487211 ; 2.0171034986817068E8 ; 2.902735715195607E8 ; 1.4479941459790102E10 ; 0.0
81 ; 4030652.937692399 ; 2.0172409550684595E8 ; 2.943092879600479E8 ; 1.4681651809658272E10 ; 0.0
82 ; 4029889.9755429323 ; 2.0173787651606742E8 ; 2.983399408977403E8 ; 1.4883375905165117E10 ; 0.0
83 ; 4028191.8256350737 ; 2.0175169085400188E8 ; 3.023698308732832E8 ; 1.5085113781681185E10 ; 0.0
84 ; 4029256.052696174 ; 2.0176553654105017E8 ; 3.063980226989183E8 ; 1.5286865472535187E10 ; 0.0
85 ; 4027786.393161925 ; 2.017794116574529E8 ; 3.1042727875161445E8 ; 1.5488631009076237E10 ; 0.0
86 ; 4024632.2478026585 ; 2.017933143409859E8 ; 3.144550651447764E8 ; 1.569041042073369E10 ; 0.0
87 ; 4019288.7278969665 ; 2.0180724278474292E8 ; 3.184796973925791E8 ; 1.5892203735074677E10 ; 0.0
88 ; 4017864.6417068043 ; 2.0182119523500383E8 ; 3.2249898612047607E8 ; 1.6094010977859419E10 ; 0.0
89 ; 4018244.899407217 ; 2.0183516998918515E8 ; 3.265168507621829E8 ; 1.6295832173094423E10 ; 0.0
90 ; 4015960.563001275 ; 2.018491653938712E8 ; 3.305350956615901E8 ; 1.6497667343083609E10 ; 0.0
91 ; 4011002.9590094243 ; 2.01863179842923E8 ; 3.345510562245914E8 ; 1.669951650847748E10 ; 0.0
92 ; 4006742.5000722045 ; 2.0187721177566236E8 ; 3.385620591836008E8 ; 1.6901379688320402E10 ; 0.0
93 ; 4008997.960835292 ; 2.018912596751289E8 ; 3.4256880168367296E8 ; 1.7103256900096064E10 ; 0.0
94 ; 4009284.997592396 ; 2.0190532206640723E8 ; 3.4657779964450824E8 ; 1.730514815977119E10 ; 0.0
95 ; 4001414.54613735 ; 2.0191939751502177E8 ; 3.5058708464210063E8 ; 1.7507053481837597E10 ; 0.0
96 ; 3995159.3084374946 ; 2.0193348462539715E8 ; 3.5458849918823797E8 ; 1.770897287935262E10 ; 0.0
97 ; 3996752.9771716455 ; 2.0194758203938124E8 ; 3.5858365849667543E8 ; 1.7910906363978016E10 ; 0.0
98 ; 3990180.6068590586 ; 2.0196168843482873E8 ; 3.625804114738471E8 ; 1.81128539460174E10 ; 0.0
99 ; 3992562.8606094285 ; 2.019758025242429E8 ; 3.665705920807062E8 ; 1.831481563445223E10 ; 0.0
100 ; 3985752.5254304204 ; 2.0198992305347323E8 ; 3.705631549413156E8 ; 1.851679143697647E10 ; 0.0
101 ; 3982894.757854748 ; 2.0200404880046672E8 ; 3.7454890746674603E8 ; 1.8718781360029945E10 ; 0.0
102 ; 3978143.830874115 ; 2.0201817857407075E8 ; 3.785318022246008E8 ; 1.8920785408830414E10 ; 0.0
103 ; 3977517.513295087 ; 2.0203231121288538E8 ; 3.825099460554749E8 ; 1.9122803587404484E10 ; 0.0
104 ; 3973124.9648783267 ; 2.0204644558416295E8 ; 3.8648746356877E8 ; 1.932483589861737E10 ; 0.0
105 ; 3970386.1913649635 ; 2.020605805827535E8 ; 3.904605885336483E8 ; 1.9526882344201534E10 ; 0.0
106 ; 3964391.518667951 ; 2.0207471513009334E8 ; 3.9443097472501326E8 ; 1.9728942924784286E10 ; 0.0
107 ; 3961935.7265882734 ; 2.020888481732357E8 ; 3.983953662436812E8 ; 1.993101763991438E10 ; 0.0
108 ; 3962884.154510112 ; 2.0210297868392152E8 ; 4.0235730197026944E8 ; 2.0133106488087616E10 ; 0.0
109 ; 3954345.666420049 ; 2.0211710565768802E8 ; 4.063201861247796E8 ; 2.0335209466771538E10 ; 0.0
110 ; 3952077.020274693 ; 2.021312281130147E8 ; 4.102745317911996E8 ; 2.0537326572429226E10 ; 0.0
111 ; 3946906.1084656985 ; 2.0214534509050405E8 ; 4.142266088114743E8 ; 2.073945780054224E10 ; 0.0
112 ; 3941762.881857762 ; 2.0215945565209606E8 ; 4.1817351491994E8 ; 2.0941603145632744E10 ; 0.0
113 ; 3937260.1603381597 ; 2.0217355888031492E8 ; 4.2211527780179775E8 ; 2.114376260128484E10 ; 0.0
114 ; 3930870.441477621 ; 2.0218765387754664E8 ; 4.260525379621359E8 ; 2.1345936160165154E10 ; 0.0
115 ; 3930410.0293880007 ; 2.022017397653462E8 ; 4.299834084036135E8 ; 2.15481238140427E10 ; 0.0
116 ; 3925069.0621402506 ; 2.022158156837729E8 ; 4.339138184330015E8 ; 2.175032555380805E10 ; 0.0
117 ; 3917977.397155793 ; 2.022298807907527E8 ; 4.3783888749514174E8 ; 2.195254136949182E10 ; 0.0
118 ; 3914190.2066146997 ; 2.0224393426146683E8 ; 4.4175686489229757E8 ; 2.2154771250282574E10 ; 0.0
119 ; 3910452.739576238 ; 2.0225797528776452E8 ; 4.4567105509891224E8 ; 2.235701518454404E10 ; 0.0
120 ; 3908617.688368767 ; 2.0227200307760006E8 ; 4.4958150783848846E8 ; 2.2559273159831806E10 ; 0.0
121 ; 3899982.1119573335 ; 2.0228601685449225E8 ; 4.534901255268572E8 ; 2.2761545162909405E10 ; 0.0
122 ; 3894902.534474373 ; 2.0230001585700563E8 ; 4.573901076388145E8 ; 2.2963831179763897E10 ; 0.0
123 ; 3888455.9548230767 ; 2.0231399933825245E8 ; 4.612850101732889E8 ; 2.3166131195620903E10 ; 0.0
124 ; 3886906.163300815 ; 2.0232796656541467E8 ; 4.6517346612811196E8 ; 2.3368445194959156E10 ; 0.0
125 ; 3881661.2537248977 ; 2.023419168192848E8 ; 4.690603722914128E8 ; 2.357077316152457E10 ; 0.0
126 ; 3873415.297318954 ; 2.0235584939382517E8 ; 4.7294203354513764E8 ; 2.3773115078343857E10 ; 0.0
127 ; 3868827.8846991486 ; 2.023697635957446E8 ; 4.768154488424566E8 ; 2.3975470927737682E10 ; 0.0
128 ; 3865912.7527789786 ; 2.023836587440916E8 ; 4.8068427672715575E8 ; 2.4177840691333427E10 ; 0.0
129 ; 3857997.9074857347 ; 2.023975341698639E8 ; 4.8455018947993475E8 ; 2.438022435007752E10 ; 0.0
130 ; 3850973.8557470995 ; 2.0241138921563292E8 ; 4.884081873874205E8 ; 2.4582621884247383E10 ; 0.0
131 ; 3841769.152969329 ; 2.0242522323518324E8 ; 4.922591612431676E8 ; 2.4785033273463017E10 ; 0.0
132 ; 3832514.5356953475 ; 2.024390355931659E8 ; 4.961009303961369E8 ; 2.49874584966982E10 ; 0.0
133 ; 3824262.825998474 ; 2.0245282566476527E8 ; 4.9993344493183225E8 ; 2.5189897532291367E10 ; 0.0
134 ; 3814613.0041648233 ; 2.0246659283537877E8 ; 5.0375770775783074E8 ; 2.539235035795613E10 ; 0.0
135 ; 3802290.4772175644 ; 2.024803365003088E8 ; 5.0757232076199555E8 ; 2.559481695079151E10 ; 0.0
136 ; 3790577.338548453 ; 2.0249405606446692E8 ; 5.113746112392131E8 ; 2.579729728729182E10 ; 0.0
137 ; 3782444.5772856087 ; 2.0250775094208878E8 ; 5.151651885777616E8 ; 2.599979134335629E10 ; 0.0
138 ; 3776939.092914464 ; 2.0252142055646038E8 ; 5.189476331550472E8 ; 2.6202299094298378E10 ; 0.0
139 ; 3763509.045876036 ; 2.0253506433965454E8 ; 5.2272457224796164E8 ; 2.640482051485484E10 ; 0.0
140 ; 3751766.15860574 ; 2.025486817322774E8 ; 5.2648808129383767E8 ; 2.6607355579194492E10 ; 0.0
141 ; 3742108.593479962 ; 2.0256227218322447E8 ; 5.302398474524434E8 ; 2.680990426092677E10 ; 0.0
142 ; 3734040.7474281453 ; 2.0257583514944583E8 ; 5.339819560459234E8 ; 2.7012466533109993E10 ; 0.0
143 ; 3724332.2607012293 ; 2.025893700957203E8 ; 5.377159967933515E8 ; 2.7215042368259438E10 ; 0.0
144 ; 3709222.505748615 ; 2.026028764944377E8 ; 5.414403290540527E8 ; 2.7417631738355156E10 ; 0.0
145 ; 3704721.201083192 ; 2.0261635382538956E8 ; 5.451495515598013E8 ; 2.7620234614849594E10 ; 0.0
146 ; 3697665.919286953 ; 2.026298015755675E8 ; 5.488542727608845E8 ; 2.7822850968674984E10 ; 0.0
147 ; 3692928.5117878546 ; 2.0264321923896888E8 ; 5.525519386801715E8 ; 2.8025480770250553E10 ; 0.0
148 ; 3684339.4181547756 ; 2.0265660631640977E8 ; 5.562448671919594E8 ; 2.822812398948952E10 ; 0.0
149 ; 3679215.6050028615 ; 2.026699623153449E8 ; 5.599292066101141E8 ; 2.843078059580593E10 ; 0.0
150 ; 3675539.4007601324 ; 2.0268328674969387E8 ; 5.63608422215117E8 ; 2.8633450558121277E10 ; 0.0
151 ; 3666602.97913691 ; 2.0269657913967395E8 ; 5.672839616158772E8 ; 2.883613384487097E10 ; 0.0
152 ; 3662515.11177607 ; 2.0270983901163882E8 ; 5.709505645950141E8 ; 2.9038830424010647E10 ; 0.0
153 ; 3655207.5119328406 ; 2.027230658979233E8 ; 5.746130797067902E8 ; 2.9241540263022285E10 ; 0.0
154 ; 3652782.5978192533 ; 2.027362593366934E8 ; 5.78268287218723E8 ; 2.9444263328920208E10 ; 0.0
155 ; 3643731.0158656267 ; 2.0274941887180218E8 ; 5.819210698165423E8 ; 2.96469995882569E10 ; 0.0
156 ; 3637536.1139520574 ; 2.0276254405265027E8 ; 5.85564800832408E8 ; 2.9849749007128704E10 ; 0.0
157 ; 3633409.850118086 ; 2.0277563443405172E8 ; 5.8920233694636E8 ; 3.0052511551181355E10 ; 0.0
158 ; 3622838.581439342 ; 2.0278868957610458E8 ; 5.92835746796478E8 ; 3.0255287185615406E10 ; 0.0
159 ; 3621742.4167007674 ; 2.0280170904406592E8 ; 5.964585853779174E8 ; 3.045807587519151E10 ; 0.0
160 ; 3614035.4415045194 ; 2.0281469240823138E8 ; 6.000803277946181E8 ; 3.0660877584235577E10 ; 0.0
161 ; 3605794.1316129644 ; 2.0282763924381897E8 ; 6.036943632361226E8 ; 3.0863692276643806E10 ; 0.0
162 ; 3596371.9574271697 ; 2.0284054913085684E8 ; 6.073001573677356E8 ; 3.1066519915887627E10 ; 0.0
163 ; 3594420.381042235 ; 2.0285342165407518E8 ; 6.108965293251628E8 ; 3.1269360465018482E10 ; 0.0
164 ; 3589151.065819146 ; 2.028662564028015E8 ; 6.14490949706205E8 ; 3.1472213886672558E10 ; 0.0
165 ; 3583117.167103106 ; 2.0287905297086015E8 ; 6.180801007720242E8 ; 3.167508014307536E10 ; 0.0
166 ; 3576781.924301081 ; 2.0289181095647472E8 ; 6.216632179391272E8 ; 3.187795919604622E10 ; 0.0
167 ; 3568671.1564704636 ; 2.0290452996217415E8 ; 6.252399998634282E8 ; 3.2080851007002693E10 ; 0.0
168 ; 3561103.612626335 ; 2.02917209594702E8 ; 6.288086710198987E8 ; 3.2283755536964867E10 ; 0.0
169 ; 3555725.955810942 ; 2.0292984946492884E8 ; 6.32369774632525E8 ; 3.248667274655957E10 ; 0.0
170 ; 3548274.0958516384 ; 2.029424491877676E8 ; 6.359255005883359E8 ; 3.2689602596024498E10 ; 0.0
171 ; 3544640.839982232 ; 2.0295500838209182E8 ; 6.394737746841875E8 ; 3.2892545045212265E10 ; 0.0
172 ; 3534882.714962117 ; 2.029675266706567E8 ; 6.430184155241698E8 ; 3.3095500053594357E10 ; 0.0
173 ; 3531660.983816585 ; 2.0298000368002293E8 ; 6.465532982391319E8 ; 3.3298467580265015E10 ; 0.0
174 ; 3526600.4970670342 ; 2.0299243904048276E8 ; 6.500849592229486E8 ; 3.3501447583945038E10 ; 0.0
175 ; 3519421.7920140973 ; 2.0300483238598898E8 ; 6.536115597200155E8 ; 3.370444002298552E10 ; 0.0
176 ; 3515541.7803612323 ; 2.0301718335408607E8 ; 6.571309815120296E8 ; 3.390744485537151E10 ; 0.0
177 ; 3509453.4651568183 ; 2.0302949158584365E8 ; 6.606465232923908E8 ; 3.4110462038725597E10 ; 0.0
178 ; 3508791.4295134894 ; 2.030417567257922E8 ; 6.641559767575476E8 ; 3.431349153031144E10 ; 0.0
179 ; 3501365.934231558 ; 2.030539784218609E8 ; 6.676647681870611E8 ; 3.451653328703723E10 ; 0.0
180 ; 3496393.322722884 ; 2.0306615632531765E8 ; 6.711661341212926E8 ; 3.471958726545909E10 ; 0.0
181 ; 3496114.812695524 ; 2.0307829009071088E8 ; 6.746625274440155E8 ; 3.492265342178441E10 ; 0.0
182 ; 3491790.1702090926 ; 2.0309037937581345E8 ; 6.78158642256711E8 ; 3.512573171187512E10 ; 0.0
183 ; 3482715.6173222563 ; 2.0310242384156835E8 ; 6.8165043242692E8 ; 3.532882209125094E10 ; 0.0
184 ; 3479822.7007469484 ; 2.031144231520362E8 ; 6.851331480442423E8 ; 3.553192451509251E10 ; 0.0
185 ; 3475176.722231408 ; 2.0312637697434437E8 ; 6.886129707449892E8 ; 3.5735038938244545E10 ; 0.0
186 ; 3468877.889419396 ; 2.0313828497863802E8 ; 6.920881474672205E8 ; 3.593816531521889E10 ; 0.0
187 ; 3466414.932089995 ; 2.031501468380324E8 ; 6.9555702535664E8 ; 3.6141303600197525E10 ; 0.0
188 ; 3462728.0052247695 ; 2.0316196222856703E8 ; 6.9902344028873E8 ; 3.634445374703556E10 ; 0.0
189 ; 3454228.4396619136 ; 2.0317373082916117E8 ; 7.024861682939548E8 ; 3.654761570926413E10 ; 0.0
190 ; 3451998.849009176 ; 2.0318545232157084E8 ; 7.059403967336167E8 ; 3.675078944009329E10 ; 0.0
191 ; 3442489.6906358358 ; 2.0319712639034712E8 ; 7.093923955826259E8 ; 3.695397489241486E10 ; 0.0
192 ; 3445535.547684169 ; 2.0320875272279596E8 ; 7.128348852732617E8 ; 3.7157172018805214E10 ; 0.0
193 ; 3438288.5269477074 ; 2.032203310089391E8 ; 7.162804208209459E8 ; 3.736038077152801E10 ; 0.0
194 ; 3433914.2024779487 ; 2.0323186094147643E8 ; 7.197187093478936E8 ; 3.756360110253695E10 ; 0.0
195 ; 3429769.0633853297 ; 2.0324334221574947E8 ; 7.231526235503715E8 ; 3.7766832963478424E10 ; 0.0
196 ; 3422943.151291788 ; 2.032547745297061E8 ; 7.265823926137569E8 ; 3.7970076305694176E10 ; 0.0
197 ; 3419612.4271347774 ; 2.0326615758386612E8 ; 7.300053357650487E8 ; 3.8173331080223885E10 ; 0.0
198 ; 3416232.525726193 ; 2.0327749108128843E8 ; 7.334249481921835E8 ; 3.8376597237807755E10 ; 0.0
199 ; 3408043.5795547287 ; 2.0328877472753885E8 ; 7.368411807179097E8 ; 3.8579874728889046E10 ; 0.0
200 ; 3404383.6685544755 ; 1.973177653030256E8 ; 7.402492242974644E8 ; 3.8783163503616585E10 ; 0.0
