CSV File for the City 6 on Day 248
1 - Minute m 
2 - Power Consumed at minute m 
3 - Power Produced at minute m 
4 - Energy Consumed since the beginning of the day 
5 - Energy Produced since the beginning of the day 
6 - Energy Lost since the beginning of the day on lines starting from the city
 
0 ; 2270134.863157885 ; 1.056475629486765E8 ; 0.0 ; 0.0 ; 0.0
1 ; 2280253.866781468 ; 1.0579737407008201E8 ; 2270134.863157885 ; 1.056475629486765E8 ; 0.0
2 ; 2292539.7027438227 ; 1.0625626486185482E8 ; 4550388.729939353 ; 2.114449370187585E8 ; 0.0
3 ; 2306845.6523848483 ; 1.070242469183824E8 ; 6842928.432683175 ; 3.177012018806133E8 ; 0.0
4 ; 2324424.004533611 ; 1.0810133088948673E8 ; 9149774.085068025 ; 4.2472544879899573E8 ; 0.0
5 ; 2342869.833932396 ; 1.0948752634054548E8 ; 1.1474198089601636E7 ; 5.3282677968848246E8 ; 0.0
6 ; 2363764.621054832 ; 1.1118284162037453E8 ; 1.3817067923534032E7 ; 6.423143060290279E8 ; 0.0
7 ; 2401737.8065486946 ; 1.1318728374083781E8 ; 1.6180832544588864E7 ; 7.534971476494025E8 ; 0.0
8 ; 2456348.615832821 ; 1.1550085827204186E8 ; 1.858257035113756E7 ; 8.666844313902403E8 ; 0.0
9 ; 2536631.328074001 ; 1.1812356925665623E8 ; 2.103891896697038E7 ; 9.821852896622822E8 ; 0.0
10 ; 2658491.9158719503 ; 1.2105541914637542E8 ; 2.357555029504438E7 ; 1.1003088589189384E9 ; 0.0
11 ; 2859326.0977619872 ; 1.242964087628291E8 ; 2.6234042210916333E7 ; 1.2213642780653138E9 ; 0.0
12 ; 3179609.112314823 ; 1.2784653728438756E8 ; 2.909336830867832E7 ; 1.345660686828143E9 ; 0.0
13 ; 3478659.1757610133 ; 1.3170580225935632E8 ; 3.2272977420993146E7 ; 1.4735072241125305E9 ; 0.0
14 ; 3513200.674076184 ; 1.3587419964506584E8 ; 3.5751636596754156E7 ; 1.6052130263718867E9 ; 0.0
15 ; 3532102.0983473947 ; 1.4035172387140965E8 ; 3.926483727083034E7 ; 1.7410872260169525E9 ; 0.0
16 ; 3541520.7195275007 ; 1.4513836792652377E8 ; 4.279693936917774E7 ; 1.8814389498883622E9 ; 0.0
17 ; 3554704.9607581124 ; 1.502341234615923E8 ; 4.6338460088705234E7 ; 2.0265773178148859E9 ; 0.0
18 ; 3570874.876848803 ; 1.5563898091123754E8 ; 4.989316504946335E7 ; 2.1768114412764783E9 ; 0.0
19 ; 3581712.4531703396 ; 1.6135292962563756E8 ; 5.346403992631215E7 ; 2.332450422187716E9 ; 0.0
20 ; 3602039.318962253 ; 1.6737595801040486E8 ; 5.7045752379482485E7 ; 2.4938033518133535E9 ; 0.0
21 ; 3615379.039425047 ; 1.7370805367034683E8 ; 6.064779169844474E7 ; 2.6611793098237586E9 ; 0.0
22 ; 3626222.710551013 ; 1.8034920355348414E8 ; 6.4263170737869784E7 ; 2.8348873634941053E9 ; 0.0
23 ; 3644619.5249300436 ; 1.8729939409208864E8 ; 6.78893934484208E7 ; 3.0152365670475893E9 ; 0.0
24 ; 3662299.036841871 ; 1.9455861133797967E8 ; 7.153401297335084E7 ; 3.202535961139678E9 ; 0.0
25 ; 3672472.837539965 ; 2.008148819880312E8 ; 7.51963120101927E7 ; 3.397094572477658E9 ; 0.0
26 ; 3692560.0771389315 ; 2.008217395387281E8 ; 7.886878484773268E7 ; 3.597909454465689E9 ; 0.0
27 ; 3702910.452834594 ; 2.0082893891790107E8 ; 8.256134492487161E7 ; 3.7987311940044174E9 ; 0.0
28 ; 3718798.6170388157 ; 2.0083646582682204E8 ; 8.62642553777062E7 ; 3.9995601329223185E9 ; 0.0
29 ; 3732326.1471247845 ; 2.00844306117007E8 ; 8.998305399474502E7 ; 4.2003965987491407E9 ; 0.0
30 ; 3745979.273808636 ; 2.0085244586211288E8 ; 9.37153801418698E7 ; 4.401240904866148E9 ; 0.0
31 ; 3757609.2345188158 ; 2.0086087141856584E8 ; 9.746135941567844E7 ; 4.602093350728261E9 ; 0.0
32 ; 3771327.658331388 ; 2.00869569475533E8 ; 1.0121896865019725E8 ; 4.802954222146827E9 ; 0.0
33 ; 3784801.907092356 ; 2.008785270950066E8 ; 1.0499029630852865E8 ; 5.00382379162236E9 ; 0.0
34 ; 3798938.542958574 ; 2.0088773174286824E8 ; 1.0877509821562101E8 ; 5.204702318717367E9 ; 0.0
35 ; 3811537.41186757 ; 2.008971713118541E8 ; 1.1257403675857958E8 ; 5.405590050460236E9 ; 0.0
36 ; 3823523.8301878385 ; 2.009068341373534E8 ; 1.1638557417044716E8 ; 5.60648722177209E9 ; 0.0
37 ; 3833502.4054612494 ; 2.0091670900695655E8 ; 1.20209098000635E8 ; 5.807394055909443E9 ; 0.0
38 ; 3845958.863585555 ; 2.0092678516462743E8 ; 1.2404260040609625E8 ; 6.008310764916399E9 ; 0.0
39 ; 3858283.2526540426 ; 2.0093705231031975E8 ; 1.2788855926968181E8 ; 6.209237550081026E9 ; 0.0
40 ; 3868859.991396446 ; 2.009475005957901E8 ; 1.3174684252233586E8 ; 6.410174602391346E9 ; 0.0
41 ; 3875371.282440304 ; 2.0095812061728963E8 ; 1.356157025137323E8 ; 6.611122102987136E9 ; 0.0
42 ; 3885529.1042927625 ; 2.00968903405743E8 ; 1.3949107379617262E8 ; 6.812080223604425E9 ; 0.0
43 ; 3896997.0505768727 ; 2.0097984041495043E8 ; 1.4337660290046537E8 ; 7.013049127010168E9 ; 0.0
44 ; 3905894.062867625 ; 2.0099092350828078E8 ; 1.4727359995104223E8 ; 7.214028967425118E9 ; 0.0
45 ; 3912695.6530960044 ; 2.0100214494425794E8 ; 1.5117949401390985E8 ; 7.415019890933399E9 ; 0.0
46 ; 3922185.7065838645 ; 2.0101349736138347E8 ; 1.5509218966700584E8 ; 7.616022035877657E9 ; 0.0
47 ; 3927380.7115430073 ; 2.010249737624849E8 ; 1.590143753735897E8 ; 7.81703553323904E9 ; 0.0
48 ; 3934053.351055321 ; 2.0103656749883094E8 ; 1.629417560851327E8 ; 8.018060507001525E9 ; 0.0
49 ; 3938901.130415086 ; 2.0104827225421128E8 ; 1.66875809436188E8 ; 8.219097074500356E9 ; 0.0
50 ; 3946602.9493920635 ; 2.010600820291431E8 ; 1.708147105666031E8 ; 8.420145346754567E9 ; 0.0
51 ; 3947718.781210626 ; 2.0107199112533236E8 ; 1.7476131351599514E8 ; 8.62120542878371E9 ; 0.0
52 ; 3953649.79093806 ; 2.0108399413049194E8 ; 1.7870903229720578E8 ; 8.822277419909042E9 ; 0.0
53 ; 3963725.503398444 ; 2.0109608590359345E8 ; 1.8266268208814383E8 ; 9.023361414039534E9 ; 0.0
54 ; 3966834.409511583 ; 2.011082615606112E8 ; 1.8662640759154227E8 ; 9.224457499943127E9 ; 0.0
55 ; 3967207.6887959633 ; 2.011205164607986E8 ; 1.9059324200105387E8 ; 9.425565761503738E9 ; 0.0
56 ; 3969546.2977387644 ; 2.0113284619352525E8 ; 1.9456044968984982E8 ; 9.626686277964537E9 ; 0.0
57 ; 3975483.2630750355 ; 2.0114524656568924E8 ; 1.9852999598758858E8 ; 9.827819124158062E9 ; 0.0
58 ; 3980737.3205966516 ; 2.011577135897124E8 ; 2.025054792506636E8 ; 1.0028964370723751E10 ; 0.0
59 ; 3988442.483996894 ; 2.0117024347211692E8 ; 2.0648621657126027E8 ; 1.0230122084313463E10 ; 0.0
60 ; 3988343.9465709613 ; 2.0118283260267663E8 ; 2.1047465905525717E8 ; 1.043129232778558E10 ; 0.0
61 ; 3992474.644745495 ; 2.0119547754413158E8 ; 2.1446300300182813E8 ; 1.0632475160388256E10 ; 0.0
62 ; 3997010.6019080523 ; 2.0120817502245098E8 ; 2.1845547764657363E8 ; 1.0833670637932388E10 ; 0.0
63 ; 4002290.337326299 ; 2.0122092191762644E8 ; 2.224524882484817E8 ; 1.103487881295484E10 ; 0.0
64 ; 4002835.6956895255 ; 2.0123371525497648E8 ; 2.2645477858580798E8 ; 1.1236099734872467E10 ; 0.0
65 ; 4010312.8462689696 ; 2.0124655219694114E8 ; 2.304576142814975E8 ; 1.1437333450127443E10 ; 0.0
66 ; 4013998.762670635 ; 2.0125943003534523E8 ; 2.344679271277665E8 ; 1.1638580002324385E10 ; 0.0
67 ; 4017150.2600787184 ; 2.0127234618410805E8 ; 2.3848192589043713E8 ; 1.183983943235973E10 ; 0.0
68 ; 4018871.4738882985 ; 2.0128529817237803E8 ; 2.4249907615051585E8 ; 1.2041111778543839E10 ; 0.0
69 ; 4028358.7393023265 ; 2.0129828363806966E8 ; 2.4651794762440416E8 ; 1.2242397076716217E10 ; 0.0
70 ; 4030484.6275671995 ; 2.0131130032178217E8 ; 2.505463063637065E8 ; 1.2443695360354286E10 ; 0.0
71 ; 4030201.6165320063 ; 2.013243460610784E8 ; 2.545767909912737E8 ; 1.264500666067607E10 ; 0.0
72 ; 4031755.920016067 ; 2.0133741878510404E8 ; 2.586069926078057E8 ; 1.2846331006737148E10 ; 0.0
73 ; 4036296.8938978766 ; 2.013505165095276E8 ; 2.6263874852782178E8 ; 1.3047668425522253E10 ; 0.0
74 ; 4039882.392096662 ; 2.0136363733178252E8 ; 2.6667504542171967E8 ; 1.324901894203178E10 ; 0.0
75 ; 4041221.4587533125 ; 2.0137677942659375E8 ; 2.707149278138163E8 ; 1.3450382579363564E10 ; 0.0
76 ; 4044039.1047770213 ; 2.0138994104177123E8 ; 2.747561492725696E8 ; 1.3651759358790157E10 ; 0.0
77 ; 4045800.3794517787 ; 2.014031204942552E8 ; 2.7880018837734663E8 ; 1.3853149299831928E10 ; 0.0
78 ; 4045528.4568333803 ; 2.0141631616639677E8 ; 2.828459887567984E8 ; 1.4054552420326183E10 ; 0.0
79 ; 4042749.1315255854 ; 2.0142952650246066E8 ; 2.8689151721363175E8 ; 1.425596873649258E10 ; 0.0
80 ; 4043830.682510329 ; 2.014427500053353E8 ; 2.909342663451573E8 ; 1.445739826299504E10 ; 0.0
81 ; 4042482.8182530263 ; 2.0145598523343825E8 ; 2.9497809702766764E8 ; 1.4658841013000376E10 ; 0.0
82 ; 4042756.212093174 ; 2.0146923079780433E8 ; 2.990205798459207E8 ; 1.4860296998233814E10 ; 0.0
83 ; 4042267.9383341786 ; 2.0148248535934561E8 ; 3.0306333605801386E8 ; 1.5061766229031618E10 ; 0.0
84 ; 4038267.7129281186 ; 2.0149574762627202E8 ; 3.07105603996348E8 ; 1.5263248714390965E10 ; 0.0
85 ; 4039290.7160652285 ; 2.0150901635166302E8 ; 3.1114387170927614E8 ; 1.5464744462017237E10 ; 0.0
86 ; 4035905.0612519695 ; 2.015222903311805E8 ; 3.1518316242534137E8 ; 1.56662534783689E10 ; 0.0
87 ; 4030226.670406253 ; 2.0153556840091476E8 ; 3.1921906748659337E8 ; 1.586777576870008E10 ; 0.0
88 ; 4031510.0971830455 ; 2.0154884943535432E8 ; 3.2324929415699965E8 ; 1.6069311337100996E10 ; 0.0
89 ; 4028510.8092112355 ; 2.015621323454729E8 ; 3.272808042541827E8 ; 1.627086018653635E10 ; 0.0
90 ; 4027882.5060842596 ; 2.015754160769256E8 ; 3.3130931506339395E8 ; 1.6472422318881823E10 ; 0.0
91 ; 4022737.4590362795 ; 2.0158869960834777E8 ; 3.353371975694782E8 ; 1.6673997734958748E10 ; 0.0
92 ; 4019440.177564064 ; 2.0160198194975019E8 ; 3.393599350285145E8 ; 1.6875586434567095E10 ; 0.0
93 ; 4020278.0281323716 ; 2.016152621410047E8 ; 3.433793752060786E8 ; 1.7077188416516846E10 ; 0.0
94 ; 4016542.0492366566 ; 2.0162853925041464E8 ; 3.4739965323421097E8 ; 1.7278803678657852E10 ; 0.0
95 ; 4013971.7332340693 ; 2.0164181237336487E8 ; 3.514161952834476E8 ; 1.7480432217908268E10 ; 0.0
96 ; 4013504.566464074 ; 2.0165508063104668E8 ; 3.554301670166817E8 ; 1.768207403028163E10 ; 0.0
97 ; 4005333.700705154 ; 2.0166834316925305E8 ; 3.5944367158314574E8 ; 1.7883729110912678E10 ; 0.0
98 ; 4006243.0134177646 ; 2.0168159915723953E8 ; 3.634490052838509E8 ; 1.8085397454081932E10 ; 0.0
99 ; 4001598.0370140946 ; 2.016948477866477E8 ; 3.674552482972687E8 ; 1.828707905323917E10 ; 0.0
100 ; 4002820.687293836 ; 2.017080882704865E8 ; 3.7145684633428276E8 ; 1.8488773901025818E10 ; 0.0
101 ; 3994840.7976430096 ; 2.0172131984216854E8 ; 3.754596670215766E8 ; 1.8690481989296303E10 ; 0.0
102 ; 3995941.1228614463 ; 2.01734541754598E8 ; 3.794545078192196E8 ; 1.889220330913847E10 ; 0.0
103 ; 3989998.093637108 ; 2.017477532793071E8 ; 3.8345044894208103E8 ; 1.9093937850893066E10 ; 0.0
104 ; 3984683.839955684 ; 2.0176095370563817E8 ; 3.8744044703571814E8 ; 1.9295685604172375E10 ; 0.0
105 ; 3983405.3549676356 ; 2.0177414233996862E8 ; 3.9142513087567383E8 ; 1.9497446557878014E10 ; 0.0
106 ; 3977267.706823776 ; 2.017873185049766E8 ; 3.954085362306415E8 ; 1.9699220700217983E10 ; 0.0
107 ; 3975121.5032558027 ; 2.018004815389447E8 ; 3.9938580393746525E8 ; 1.990100801872296E10 ; 0.0
108 ; 3974525.4034067155 ; 2.018136307950995E8 ; 4.0336092544072104E8 ; 2.0102808500261906E10 ; 0.0
109 ; 3968465.1271059937 ; 2.0182676564098525E8 ; 4.073354508441278E8 ; 2.0304622131057007E10 ; 0.0
110 ; 3967329.3710435657 ; 2.018398854578692E8 ; 4.113039159712338E8 ; 2.050644889669799E10 ; 0.0
111 ; 3958097.8351513487 ; 2.018529896401773E8 ; 4.1527124534227735E8 ; 2.070828878215586E10 ; 0.0
112 ; 3955375.359264757 ; 2.0186607759495828E8 ; 4.192293431774287E8 ; 2.091014177179604E10 ; 0.0
113 ; 3949595.6018182724 ; 2.0187914874137437E8 ; 4.2318471853669345E8 ; 2.1112007849391E10 ; 0.0
114 ; 3948544.382171159 ; 2.018922025102178E8 ; 4.271343141385117E8 ; 2.1313886998132374E10 ; 0.0
115 ; 3945343.9023981737 ; 2.0190523834345073E8 ; 4.310828585206829E8 ; 2.1515779200642593E10 ; 0.0
116 ; 3938473.790748873 ; 2.0191825569376823E8 ; 4.3502820242308104E8 ; 2.1717684438986046E10 ; 0.0
117 ; 3936022.7361763204 ; 2.0193125402418232E8 ; 4.3896667621382993E8 ; 2.1919602694679813E10 ; 0.0
118 ; 3930650.8076244807 ; 2.0194423280762646E8 ; 4.4290269895000625E8 ; 2.2121533948703995E10 ; 0.0
119 ; 3927341.691471909 ; 2.0195719152657887E8 ; 4.468333497576307E8 ; 2.232347818151162E10 ; 0.0
120 ; 3919006.3935717167 ; 2.0197012967270437E8 ; 4.5076069144910264E8 ; 2.2525435373038197E10 ; 0.0
121 ; 3914647.163225424 ; 2.0198304674651286E8 ; 4.546796978426744E8 ; 2.27274055027109E10 ; 0.0
122 ; 3910709.6661510183 ; 2.0199594225703427E8 ; 4.585943450058998E8 ; 2.2929388549457413E10 ; 0.0
123 ; 3906495.7604238847 ; 2.020088157215089E8 ; 4.6250505467205083E8 ; 2.3131384491714447E10 ; 0.0
124 ; 3900792.3194816443 ; 2.0202166666509205E8 ; 4.6641155043247473E8 ; 2.3333393307435955E10 ; 0.0
125 ; 3893510.1627110676 ; 2.020344946205727E8 ; 4.703123427519564E8 ; 2.3535414974101048E10 ; 0.0
126 ; 3890453.954296922 ; 2.02047299128105E8 ; 4.742058529146675E8 ; 2.373744946872162E10 ; 0.0
127 ; 3884279.9174363487 ; 2.0206007973495245E8 ; 4.7809630686896443E8 ; 2.3939496767849724E10 ; 0.0
128 ; 3881136.8672199654 ; 2.020728359952434E8 ; 4.819805867864008E8 ; 2.4141556847584675E10 ; 0.0
129 ; 3872713.3864382086 ; 2.020855674697381E8 ; 4.858617236536208E8 ; 2.4343629683579918E10 ; 0.0
130 ; 3868071.2945824713 ; 2.0209827372560602E8 ; 4.89734437040059E8 ; 2.4545715251049656E10 ; 0.0
131 ; 3856990.213046604 ; 2.0211095433621356E8 ; 4.9360250833464146E8 ; 2.474781352477526E10 ; 0.0
132 ; 3850513.918907153 ; 2.0212360888092086E8 ; 4.9745949854768807E8 ; 2.4949924479111473E10 ; 0.0
133 ; 3834789.1893907376 ; 2.0213623694488794E8 ; 5.0131001246659523E8 ; 2.5152048087992393E10 ; 0.0
134 ; 3830968.2339584255 ; 2.0214883811888954E8 ; 5.0514480165598595E8 ; 2.5354184324937283E10 ; 0.0
135 ; 3817936.450644202 ; 2.0216141199913785E8 ; 5.089757698899444E8 ; 2.555633316305617E10 ; 0.0
136 ; 3805605.882949555 ; 2.021739581871132E8 ; 5.1279370634058857E8 ; 2.575849457505531E10 ; 0.0
137 ; 3796679.2865922386 ; 2.0218647628940222E8 ; 5.165993122235381E8 ; 2.5960668533242424E10 ; 0.0
138 ; 3787086.910292043 ; 2.0219896591754285E8 ; 5.2039599151013035E8 ; 2.6162855009531826E10 ; 0.0
139 ; 3775210.238620984 ; 2.0221142668787616E8 ; 5.241830784204224E8 ; 2.6365053975449368E10 ; 0.0
140 ; 3765274.6709634406 ; 2.0222385822140458E8 ; 5.279582886590434E8 ; 2.6567265402137245E10 ; 0.0
141 ; 3754678.4769763267 ; 2.022362601436562E8 ; 5.3172356333000684E8 ; 2.676948926035865E10 ; 0.0
142 ; 3744848.9039751766 ; 2.022486320845547E8 ; 5.354782418069832E8 ; 2.6971725520502308E10 ; 0.0
143 ; 3735877.0887337388 ; 2.02260973678295E8 ; 5.392230907109584E8 ; 2.7173974152586864E10 ; 0.0
144 ; 3728116.913367691 ; 2.0227328456322402E8 ; 5.429589677996922E8 ; 2.737623512626516E10 ; 0.0
145 ; 3720727.730859402 ; 2.0228556438172662E8 ; 5.466870847130599E8 ; 2.7578508410828384E10 ; 0.0
146 ; 3715037.158267298 ; 2.022978127801161E8 ; 5.504078124439193E8 ; 2.778079397521011E10 ; 0.0
147 ; 3709654.813049293 ; 2.023100294085294E8 ; 5.541228496021866E8 ; 2.7983091787990227E10 ; 0.0
148 ; 3701836.690533637 ; 2.023222139208265E8 ; 5.578325044152359E8 ; 2.8185401817398758E10 ; 0.0
149 ; 3698907.5705512767 ; 2.0233436597449428E8 ; 5.615343411057695E8 ; 2.8387724031319584E10 ; 0.0
150 ; 3689647.999757992 ; 2.0234648523055398E8 ; 5.652332486763208E8 ; 2.859005839729408E10 ; 0.0
151 ; 3685154.5498009953 ; 2.023585713534726E8 ; 5.689228966760788E8 ; 2.879240488252463E10 ; 0.0
152 ; 3677594.0136495633 ; 2.023706240110779E8 ; 5.726080512258798E8 ; 2.8994763453878105E10 ; 0.0
153 ; 3668968.1419900204 ; 2.0238264287447703E8 ; 5.762856452395294E8 ; 2.9197134077889183E10 ; 0.0
154 ; 3666300.6998866894 ; 2.0239462761797798E8 ; 5.799546133815194E8 ; 2.939951672076366E10 ; 0.0
155 ; 3658000.059361439 ; 2.0240657791901472E8 ; 5.836209140814061E8 ; 2.9601911348381638E10 ; 0.0
156 ; 3655569.9300778843 ; 2.02418493458075E8 ; 5.872789141407676E8 ; 2.980431792630065E10 ; 0.0
157 ; 3650236.8953482495 ; 2.0243037391863114E8 ; 5.909344840708455E8 ; 3.0006736419758728E10 ; 0.0
158 ; 3642481.9978900887 ; 2.0244221898707366E8 ; 5.945847209661937E8 ; 3.020916679367736E10 ; 0.0
159 ; 3632975.4290303034 ; 2.0245402835264736E8 ; 5.982272029640838E8 ; 3.0411609012664433E10 ; 0.0
160 ; 3630027.584713677 ; 2.0246580170739007E8 ; 6.018601783931141E8 ; 3.061406304101708E10 ; 0.0
161 ; 3624998.6313514183 ; 2.0247753874607378E8 ; 6.054902059778278E8 ; 3.081652884272447E10 ; 0.0
162 ; 3614665.272777452 ; 2.0248923916614804E8 ; 6.091152046091793E8 ; 3.1019006381470543E10 ; 0.0
163 ; 3613931.5834086607 ; 2.0250090266768557E8 ; 6.127298698819567E8 ; 3.1221495620636692E10 ; 0.0
164 ; 3605492.005738293 ; 2.0251252895333013E8 ; 6.163438014653654E8 ; 3.142399652330438E10 ; 0.0
165 ; 3601647.584916098 ; 2.0252411772824618E8 ; 6.199492934711037E8 ; 3.162650905225771E10 ; 0.0
166 ; 3593686.633073342 ; 2.025356687000707E8 ; 6.235509410560198E8 ; 3.1829033169985954E10 ; 0.0
167 ; 3585296.9206336797 ; 2.0254718157886678E8 ; 6.271446276890931E8 ; 3.2031568838686024E10 ; 0.0
168 ; 3578904.8340900093 ; 2.0255865607707897E8 ; 6.307299246097268E8 ; 3.223411602026489E10 ; 0.0
169 ; 3574988.0782214166 ; 2.0257009190949038E8 ; 6.343088294438168E8 ; 3.243667467634197E10 ; 0.0
170 ; 3568696.148210688 ; 2.0258148879318154E8 ; 6.378838175220382E8 ; 3.2639244768251457E10 ; 0.0
171 ; 3560439.6382019147 ; 2.0259284644749054E8 ; 6.414525136702489E8 ; 3.284182625704464E10 ; 0.0
172 ; 3557889.439786878 ; 2.02604164593975E8 ; 6.450129533084508E8 ; 3.304441910349213E10 ; 0.0
173 ; 3549425.0863901414 ; 2.0261544295637533E8 ; 6.485708427482377E8 ; 3.3247023268086105E10 ; 0.0
174 ; 3543591.8287444157 ; 2.0262668126057938E8 ; 6.521202678346279E8 ; 3.344963871104248E10 ; 0.0
175 ; 3541977.855608415 ; 2.0263787923458844E8 ; 6.556638596633723E8 ; 3.365226539230306E10 ; 0.0
176 ; 3534099.654425403 ; 2.026490366084847E8 ; 6.592058375189807E8 ; 3.3854903271537647E10 ; 0.0
177 ; 3531352.3716533533 ; 2.0266015311439952E8 ; 6.627399371734061E8 ; 3.4057552308146133E10 ; 0.0
178 ; 3525406.6551354793 ; 2.0267122848648337E8 ; 6.662712895450594E8 ; 3.4260212461260532E10 ; 0.0
179 ; 3519605.20220301 ; 2.0268226246087658E8 ; 6.69796696200195E8 ; 3.446288368974702E10 ; 0.0
180 ; 3519652.7799845007 ; 2.026932547756814E8 ; 6.73316301402398E8 ; 3.466556595220789E10 ; 0.0
181 ; 3512843.9933836274 ; 2.0270420517093486E8 ; 6.768359541823825E8 ; 3.4868259206983574E10 ; 0.0
182 ; 3506489.079434528 ; 2.0271511338858283E8 ; 6.803487981757661E8 ; 3.507096341215451E10 ; 0.0
183 ; 3502549.42152979 ; 2.027259791724551E8 ; 6.838552872552006E8 ; 3.527367852554309E10 ; 0.0
184 ; 3499062.446878617 ; 2.0273680226824117E8 ; 6.873578366767304E8 ; 3.5476404504715546E10 ; 0.0
185 ; 3493446.9925845987 ; 2.027475824234672E8 ; 6.908568991236091E8 ; 3.567914130698379E10 ; 0.0
186 ; 3489474.2515069107 ; 2.027583193874735E8 ; 6.943503461161937E8 ; 3.588188888940726E10 ; 0.0
187 ; 3483068.402202311 ; 2.0276901291139323E8 ; 6.978398203677006E8 ; 3.608464720879473E10 ; 0.0
188 ; 3480767.483556262 ; 2.0277966274813163E8 ; 7.01322888769903E8 ; 3.628741622170612E10 ; 0.0
189 ; 3477386.9899270763 ; 2.027902686523461E8 ; 7.048036562534592E8 ; 3.6490195884454254E10 ; 0.0
190 ; 3472152.865321098 ; 2.0280083038042706E8 ; 7.082810432433863E8 ; 3.66929861531066E10 ; 0.0
191 ; 3467580.815462011 ; 2.028113476904794E8 ; 7.117531961087073E8 ; 3.689578698348702E10 ; 0.0
192 ; 3463510.793475106 ; 2.028218203423048E8 ; 7.152207769241693E8 ; 3.7098598331177505E10 ; 0.0
193 ; 3457170.0168098267 ; 2.028322480973845E8 ; 7.186842877176445E8 ; 3.730142015151981E10 ; 0.0
194 ; 3450683.2514268532 ; 2.02842630718863E8 ; 7.221414577344543E8 ; 3.7504252399617195E10 ; 0.0
195 ; 3446329.275030757 ; 2.0285296797153205E8 ; 7.255921409858811E8 ; 3.770709503033606E10 ; 0.0
196 ; 3442218.3007177208 ; 2.0286325962181526E8 ; 7.290384702609118E8 ; 3.7909947998307594E10 ; 0.0
197 ; 3439370.5167706884 ; 2.0287350543775374E8 ; 7.324806885616295E8 ; 3.811281125792941E10 ; 0.0
198 ; 3433984.116575968 ; 2.0288370518899155E8 ; 7.359200590784003E8 ; 3.8315684763367165E10 ; 0.0
199 ; 3428143.9914486767 ; 2.028938586467624E8 ; 7.393540431949762E8 ; 3.851856846855615E10 ; 0.0
200 ; 3426547.0187866287 ; 2.0290396558387625E8 ; 7.427821871864249E8 ; 3.872146232720291E10 ; 0.0
