CSV File for the City 1 on Day 108
1 - Minute m 
2 - Power Consumed at minute m 
3 - Power Produced at minute m 
4 - Energy Consumed since the beginning of the day 
5 - Energy Produced since the beginning of the day 
6 - Energy Lost since the beginning of the day on lines starting from the city
 
0 ; 1.6164158765334757E7 ; 1.05555880575317E8 ; 0.0 ; 0.0 ; 0.0
1 ; 1.6178150682907695E7 ; 1.0570883663441724E8 ; 1.6164158765334757E7 ; 1.05555880575317E8 ; 0.0
2 ; 1.6201048959471783E7 ; 1.0617057403594813E8 ; 3.2342309448242452E7 ; 2.1126471720973423E8 ; 0.0
3 ; 1.6219618782782376E7 ; 1.069410941846152E8 ; 4.854335840771423E7 ; 3.1743529124568236E8 ; 0.0
4 ; 1.6241324282043302E7 ; 1.0802039833826041E8 ; 6.476297719049661E7 ; 4.2437638543029755E8 ; 0.0
5 ; 1.6270308718904275E7 ; 1.0940848760124028E8 ; 8.100430147253992E7 ; 5.3239678376855797E8 ; 0.0
6 ; 1.6310973517608909E7 ; 1.1110536291850647E8 ; 9.727461019144419E7 ; 6.418052713697982E8 ; 0.0
7 ; 1.6367134902752578E7 ; 1.1311102507046276E8 ; 1.135855837090531E8 ; 7.529106342883047E8 ; 0.0
8 ; 1.6445549546660868E7 ; 1.1542547466866219E8 ; 1.2995271861180568E8 ; 8.660216593587675E8 ; 0.0
9 ; 1.6562485676116167E7 ; 1.1804871215240097E8 ; 1.4639826815846655E8 ; 9.814471340274297E8 ; 0.0
10 ; 1.67442141746906E7 ; 1.2098073778625226E8 ; 1.6296075383458272E8 ; 1.0994958461798306E9 ; 0.0
11 ; 1.7034846716322903E7 ; 1.2422155165857384E8 ; 1.7970496800927332E8 ; 1.2204765839660828E9 ; 0.0
12 ; 1.7496389979001667E7 ; 1.2777115368100789E8 ; 1.9673981472559622E8 ; 1.3446981356246567E9 ; 0.0
13 ; 1.794388080089011E7 ; 1.3162954358898127E8 ; 2.142362047045979E8 ; 1.4724692893056645E9 ; 0.0
14 ; 1.799385515619505E7 ; 1.3579672094319785E8 ; 2.32180085505488E8 ; 1.6040988328946457E9 ; 0.0
15 ; 1.801267075638626E7 ; 1.4027268513210446E8 ; 2.5017394066168305E8 ; 1.7398955538378434E9 ; 0.0
16 ; 1.8036772370645124E7 ; 1.4505743537529746E8 ; 2.681866114180693E8 ; 1.8801682389699478E9 ; 0.0
17 ; 1.8059164185289796E7 ; 1.5015097072782508E8 ; 2.862233837887144E8 ; 2.0252256743452454E9 ; 0.0
18 ; 1.807768128260713E7 ; 1.5555329008533084E8 ; 3.042825479740042E8 ; 2.1753766450730705E9 ; 0.0
19 ; 1.810605313924291E7 ; 1.612643921899728E8 ; 3.2236022925661135E8 ; 2.3309299351584015E9 ; 0.0
20 ; 1.81231704529446E7 ; 1.6728427563704535E8 ; 3.4046628239585423E8 ; 2.4921943273483744E9 ; 0.0
21 ; 1.8148949007457823E7 ; 1.736129388822243E8 ; 3.585894528487988E8 ; 2.6594786029854198E9 ; 0.0
22 ; 1.816929754711162E7 ; 1.8025038024934965E8 ; 3.767384018562566E8 ; 2.833091541867644E9 ; 0.0
23 ; 1.819380071468452E7 ; 1.8719659793866003E8 ; 3.9490769940336823E8 ; 3.0133419221169934E9 ; 0.0
24 ; 1.8212091240698393E7 ; 1.9445159003538686E8 ; 4.131015001180528E8 ; 3.2005385200556536E9 ; 0.0
25 ; 1.823526757107198E7 ; 2.0070339541680503E8 ; 4.313135913587512E8 ; 3.3949901100910406E9 ; 0.0
26 ; 1.8254043033100527E7 ; 2.0070555979817915E8 ; 4.4954885892982316E8 ; 3.595693505507846E9 ; 0.0
27 ; 1.828047130066113E7 ; 2.0070785026681682E8 ; 4.678029019629237E8 ; 3.796399065306025E9 ; 0.0
28 ; 1.8297076468457077E7 ; 2.007102645380094E8 ; 4.8608337326358485E8 ; 3.9971069155728416E9 ; 0.0
29 ; 1.831603688573219E7 ; 2.0071280025738877E8 ; 5.0438044973204195E8 ; 4.1978171801108513E9 ; 0.0
30 ; 1.83391595483751E7 ; 2.0071545500991237E8 ; 5.226964866177741E8 ; 4.39852998036824E9 ; 0.0
31 ; 1.835829289890587E7 ; 2.0071822632865843E8 ; 5.410356461661493E8 ; 4.599245435378153E9 ; 0.0
32 ; 1.838470083597042E7 ; 2.007211117033758E8 ; 5.593939390650551E8 ; 4.799963661706811E9 ; 0.0
33 ; 1.840008784371303E7 ; 2.0072410858873913E8 ; 5.777786399010255E8 ; 5.000684773410187E9 ; 0.0
34 ; 1.8420213179095916E7 ; 2.007272144122685E8 ; 5.961787277447386E8 ; 5.201408881998926E9 ; 0.0
35 ; 1.8438029043291017E7 ; 2.007304265818785E8 ; 6.145989409238344E8 ; 5.402136096411195E9 ; 0.0
36 ; 1.8451172870493986E7 ; 2.0073374249303007E8 ; 6.330369699671254E8 ; 5.602866522993073E9 ; 0.0
37 ; 1.8470162758310802E7 ; 2.0073715953546438E8 ; 6.514881428376194E8 ; 5.803600265486103E9 ; 0.0
38 ; 1.848713187467363E7 ; 2.0074067509950417E8 ; 6.699583055959302E8 ; 6.004337425021567E9 ; 0.0
39 ; 1.850276123885955E7 ; 2.0074428658191478E8 ; 6.884454374706038E8 ; 6.205078100121072E9 ; 0.0
40 ; 1.8517528870596055E7 ; 2.0074799139132056E8 ; 7.069481987094634E8 ; 6.405822386702987E9 ; 0.0
41 ; 1.8537638177159782E7 ; 2.0075178695317936E8 ; 7.254657275800594E8 ; 6.606570378094307E9 ; 0.0
42 ; 1.8544538912058227E7 ; 2.007556707143199E8 ; 7.440033657572192E8 ; 6.807322165047486E9 ; 0.0
43 ; 1.8558838702394616E7 ; 2.007596401470517E8 ; 7.625479046692774E8 ; 7.0080778357618065E9 ; 0.0
44 ; 1.8573298535711873E7 ; 2.0076369275285968E8 ; 7.81106743371672E8 ; 7.208837475908858E9 ; 0.0
45 ; 1.8583740399998315E7 ; 2.0076782606569847E8 ; 7.996800419073839E8 ; 7.409601168661718E9 ; 0.0
46 ; 1.859436092742617E7 ; 2.0077203765490332E8 ; 8.182637823073822E8 ; 7.610368994727417E9 ; 0.0
47 ; 1.860618343031359E7 ; 2.0077632512773558E8 ; 8.368581432348084E8 ; 7.81114103238232E9 ; 0.0
48 ; 1.8610893993054576E7 ; 2.0078068613158306E8 ; 8.55464326665122E8 ; 8.011917357510056E9 ; 0.0
49 ; 1.8623575323439475E7 ; 2.0078511835583505E8 ; 8.740752206581767E8 ; 8.212698043641639E9 ; 0.0
50 ; 1.8628493803853907E7 ; 2.00789619533453E8 ; 8.926987959816161E8 ; 8.413483161997474E9 ; 0.0
51 ; 1.86327526301806E7 ; 2.0079418744225797E8 ; 9.1132728978547E8 ; 8.614272781530926E9 ; 0.0
52 ; 1.8643958715872455E7 ; 2.0079881990595543E8 ; 9.299600424156506E8 ; 8.815066968973185E9 ; 0.0
53 ; 1.8649848675164603E7 ; 2.0080351479491797E8 ; 9.48604001131523E8 ; 9.01586578887914E9 ; 0.0
54 ; 1.8654301505378224E7 ; 2.0080827002674606E8 ; 9.672538498066876E8 ; 9.216669303674059E9 ; 0.0
55 ; 1.865988208589253E7 ; 2.0081308356662628E8 ; 9.859081513120658E8 ; 9.417477573700806E9 ; 0.0
56 ; 1.866756018712933E7 ; 2.0081795342750528E8 ; 1.0045680333979584E9 ; 9.618290657267431E9 ; 0.0
57 ; 1.8673699060524877E7 ; 2.0082287767009786E8 ; 1.0232355935850878E9 ; 9.819108610694937E9 ; 0.0
58 ; 1.8678146316397578E7 ; 2.008278544027453E8 ; 1.0419092926456126E9 ; 1.0019931488365034E10 ; 0.0
59 ; 1.8684735317356046E7 ; 2.0083288178114063E8 ; 1.0605874389620101E9 ; 1.022075934276778E10 ; 0.0
60 ; 1.8690553210794043E7 ; 2.0083795800793514E8 ; 1.0792721742793663E9 ; 1.0421592224548922E10 ; 0.0
61 ; 1.8695132688981414E7 ; 2.0084308133224058E8 ; 1.0979627274901602E9 ; 1.0622430182556856E10 ; 0.0
62 ; 1.8703848746958055E7 ; 2.008482500490399E8 ; 1.1166578601791415E9 ; 1.0823273263889097E10 ; 0.0
63 ; 1.870842356951328E7 ; 2.0085346249851838E8 ; 1.1353617089260995E9 ; 1.1024121513938137E10 ; 0.0
64 ; 1.8712530486509677E7 ; 2.0085871706532672E8 ; 1.1540701324956129E9 ; 1.1224974976436655E10 ; 0.0
65 ; 1.871721568118308E7 ; 2.0086401217778572E8 ; 1.1727826629821224E9 ; 1.1425833693501982E10 ; 0.0
66 ; 1.8717455492540937E7 ; 2.008693463070426E8 ; 1.1914998786633055E9 ; 1.1626697705679768E10 ; 0.0
67 ; 1.8725208702508893E7 ; 2.0087471796618682E8 ; 1.2102173341558464E9 ; 1.182756705198681E10 ; 0.0
68 ; 1.872716983976745E7 ; 2.0088012570933357E8 ; 1.2289425428583553E9 ; 1.2028441769952997E10 ; 0.0
69 ; 1.873369420130851E7 ; 2.0088556813068184E8 ; 1.2476697126981227E9 ; 1.222932189566233E10 ; 0.0
70 ; 1.873857121341588E7 ; 2.0089104386355343E8 ; 1.2664034068994312E9 ; 1.2430207463793013E10 ; 0.0
71 ; 1.8738332052109517E7 ; 2.008965515794182E8 ; 1.285141978112847E9 ; 1.2631098507656567E10 ; 0.0
72 ; 1.874537876889082E7 ; 2.0090208998691154E8 ; 1.3038803101649566E9 ; 1.2831995059235985E10 ; 0.0
73 ; 1.874469219348622E7 ; 2.009076578308472E8 ; 1.3226256889338474E9 ; 1.3032897149222897E10 ; 0.0
74 ; 1.874943945746403E7 ; 2.0091325389123115E8 ; 1.3413703811273336E9 ; 1.3233804807053743E10 ; 0.0
75 ; 1.8754050620994445E7 ; 2.0091887698227838E8 ; 1.3601198205847976E9 ; 1.3434718060944975E10 ; 0.0
76 ; 1.875436761603852E7 ; 2.0092452595143697E8 ; 1.378873871205792E9 ; 1.3635636937927254E10 ; 0.0
77 ; 1.8758351920092966E7 ; 2.0093019967842126E8 ; 1.3976282388218305E9 ; 1.383656146387869E10 ; 0.0
78 ; 1.875606635644139E7 ; 2.009358970742572E8 ; 1.4163865907419236E9 ; 1.4037491663557112E10 ; 0.0
79 ; 1.8753565398969136E7 ; 2.0094161708034125E8 ; 1.435142657098365E9 ; 1.4238427560631369E10 ; 0.0
80 ; 1.8749034133377265E7 ; 2.009473586675148E8 ; 1.4538962224973342E9 ; 1.443936917771171E10 ; 0.0
81 ; 1.87462447494423E7 ; 2.0095312083515579E8 ; 1.4726452566307116E9 ; 1.4640316536379225E10 ; 0.0
82 ; 1.8743900429652248E7 ; 2.009589026102882E8 ; 1.491391501380154E9 ; 1.484126965721438E10 ; 0.0
83 ; 1.8739249384738017E7 ; 2.0096470304671085E8 ; 1.510135401809806E9 ; 1.5042228559824669E10 ; 0.0
84 ; 1.8736501378918197E7 ; 2.0097052122414592E8 ; 1.528874651194544E9 ; 1.524319326287138E10 ; 0.0
85 ; 1.8731072994026814E7 ; 2.009763562474083E8 ; 1.5476111525734622E9 ; 1.5444163784095526E10 ; 0.0
86 ; 1.872592968728842E7 ; 2.0098220724559548E8 ; 1.5663422255674891E9 ; 1.5645140140342934E10 ; 0.0
87 ; 1.8722487063942075E7 ; 2.0098807337129906E8 ; 1.5850681552547777E9 ; 1.584612234758853E10 ; 0.0
88 ; 1.8716348687217664E7 ; 2.009939537998375E8 ; 1.6037906423187199E9 ; 1.604711042095983E10 ; 0.0
89 ; 1.8717215857525054E7 ; 2.0099984772851047E8 ; 1.6225069910059376E9 ; 1.6248104374759666E10 ; 0.0
90 ; 1.8714006247893166E7 ; 2.0100575437587485E8 ; 1.6412242068634627E9 ; 1.6449104222488176E10 ; 0.0
91 ; 1.870611668565743E7 ; 2.0101167298104182E8 ; 1.6599382131113558E9 ; 1.6650109976864052E10 ; 0.0
92 ; 1.8704125929263793E7 ; 2.010176028029956E8 ; 1.6786443297970133E9 ; 1.6851121649845093E10 ; 0.0
93 ; 1.869323571732118E7 ; 2.010235431199329E8 ; 1.697348455726277E9 ; 1.7052139252648088E10 ; 0.0
94 ; 1.8693777851105403E7 ; 2.010294932286234E8 ; 1.7160416914435983E9 ; 1.725316279576802E10 ; 0.0
95 ; 1.8684857670717116E7 ; 2.0103545244379032E8 ; 1.7347354692947037E9 ; 1.7454192288996643E10 ; 0.0
96 ; 1.8678866406796206E7 ; 2.0104142009751144E8 ; 1.7534203269654207E9 ; 1.7655227741440434E10 ; 0.0
97 ; 1.86721010387206E7 ; 2.0104739553863946E8 ; 1.772099193372217E9 ; 1.7856269161537945E10 ; 0.0
98 ; 1.8668104983763874E7 ; 2.010533781322417E8 ; 1.7907712944109375E9 ; 1.8057316557076584E10 ; 0.0
99 ; 1.8662321889909584E7 ; 2.0105936725905877E8 ; 1.8094393993947015E9 ; 1.8258369935208824E10 ; 0.0
100 ; 1.8655844504467376E7 ; 2.010653623149813E8 ; 1.828101721284611E9 ; 1.8459429302467884E10 ; 0.0
101 ; 1.8649298197047528E7 ; 2.0107136271054482E8 ; 1.8467575657890785E9 ; 1.8660494664782864E10 ; 0.0
102 ; 1.8640571817186285E7 ; 2.0107736787044185E8 ; 1.865406863986126E9 ; 1.886156602749341E10 ; 0.0
103 ; 1.8638050351818003E7 ; 2.010833772330511E8 ; 1.8840474358033123E9 ; 1.906264339536385E10 ; 0.0
104 ; 1.862803766558039E7 ; 2.010893902499828E8 ; 1.9026854861551304E9 ; 1.92637267725969E10 ; 0.0
105 ; 1.8622630364688553E7 ; 2.010954063856405E8 ; 1.9213135238207107E9 ; 1.946481616284688E10 ; 0.0
106 ; 1.8610620228243623E7 ; 2.0110142511679775E8 ; 1.9399361541853993E9 ; 1.966591156923252E10 ; 0.0
107 ; 1.8608665912683118E7 ; 2.011074459321902E8 ; 1.958546774413643E9 ; 1.986701299434932E10 ; 0.0
108 ; 1.8599222636798434E7 ; 2.011134683321221E8 ; 1.977155440326326E9 ; 2.006812044028151E10 ; 0.0
109 ; 1.859114013283741E7 ; 2.0111949182808664E8 ; 1.9957546629631243E9 ; 2.0269233908613632E10 ; 0.0
110 ; 1.8585087687468175E7 ; 2.0112551594240037E8 ; 2.0143458030959616E9 ; 2.047035340044172E10 ; 0.0
111 ; 1.8575175950815067E7 ; 2.011315402078501E8 ; 2.0329308907834299E9 ; 2.067147891638412E10 ; 0.0
112 ; 1.8570064390839946E7 ; 2.0113756416735312E8 ; 2.0515060667342448E9 ; 2.0872610456591972E10 ; 0.0
113 ; 1.85585249358411E7 ; 2.0114358737362933E8 ; 2.0700761311250849E9 ; 2.1073748020759327E10 ; 0.0
114 ; 1.855067346686782E7 ; 2.0114960938888517E8 ; 2.088634656060926E9 ; 2.1274891608132957E10 ; 0.0
115 ; 1.8545244692218874E7 ; 2.011556297845092E8 ; 2.107185329527794E9 ; 2.1476041217521843E10 ; 0.0
116 ; 1.8533951265227232E7 ; 2.011616481407786E8 ; 2.1257305742200127E9 ; 2.167719684730635E10 ; 0.0
117 ; 1.8521859679542713E7 ; 2.0116766404657614E8 ; 2.14426452548524E9 ; 2.187835849544713E10 ; 0.0
118 ; 1.8516604446164362E7 ; 2.0117367709911767E8 ; 2.1627863851647825E9 ; 2.2079526159493706E10 ; 0.0
119 ; 1.8508838012275238E7 ; 2.011796869036893E8 ; 2.1813029896109467E9 ; 2.2280699836592823E10 ; 0.0
120 ; 1.8499123622974884E7 ; 2.0118569307339412E8 ; 2.199811827623222E9 ; 2.2481879523496513E10 ; 0.0
121 ; 1.848412918278211E7 ; 2.0119169522890824E8 ; 2.2183109512461967E9 ; 2.268306521656991E10 ; 0.0
122 ; 1.848134077596942E7 ; 2.0119769299824542E8 ; 2.236795080428979E9 ; 2.2884256911798817E10 ; 0.0
123 ; 1.8471323097908765E7 ; 2.0120368601653042E8 ; 2.2552764212049484E9 ; 2.3085454604797062E10 ; 0.0
124 ; 1.8460515787052616E7 ; 2.0120967392578053E8 ; 2.2737477443028574E9 ; 2.328665829081359E10 ; 0.0
125 ; 1.8451100183502488E7 ; 2.0121565637469476E8 ; 2.29220826008991E9 ; 2.3487867964739372E10 ; 0.0
126 ; 1.8434804795458652E7 ; 2.0122163301845106E8 ; 2.3106593602734127E9 ; 2.3689083621114067E10 ; 0.0
127 ; 1.842703730719812E7 ; 2.0122760351851034E8 ; 2.3290941650688715E9 ; 2.389030525413252E10 ; 0.0
128 ; 1.841849708109052E7 ; 2.01233567542428E8 ; 2.3475212023760695E9 ; 2.4091532857651028E10 ; 0.0
129 ; 1.8406428690989207E7 ; 2.0123952476367196E8 ; 2.36593969945716E9 ; 2.4292766425193455E10 ; 0.0
130 ; 1.83883618960444E7 ; 2.012454748614474E8 ; 2.384346128148149E9 ; 2.4494005949957127E10 ; 0.0
131 ; 1.8377189929502275E7 ; 2.012514175205275E8 ; 2.4027344900441933E9 ; 2.4695251424818573E10 ; 0.0
132 ; 1.8361667563290067E7 ; 2.012573524310906E8 ; 2.4211116799736958E9 ; 2.48965028423391E10 ; 0.0
133 ; 1.8341631406488203E7 ; 2.0126327928856286E8 ; 2.439473347536986E9 ; 2.509776019477019E10 ; 0.0
134 ; 1.8326195470958453E7 ; 2.0126919779346675E8 ; 2.4578149789434743E9 ; 2.5299023474058754E10 ; 0.0
135 ; 1.8308213320103846E7 ; 2.0127510765127477E8 ; 2.4761411744144325E9 ; 2.5500292671852222E10 ; 0.0
136 ; 1.829198443978829E7 ; 2.0128100857226852E8 ; 2.494449387734536E9 ; 2.5701567779503498E10 ; 0.0
137 ; 1.827084979051426E7 ; 2.0128690027140248E8 ; 2.5127413721743245E9 ; 2.5902848788075768E10 ; 0.0
138 ; 1.8251637700963575E7 ; 2.0129278246817303E8 ; 2.531012221964839E9 ; 2.610413568834717E10 ; 0.0
139 ; 1.823681705995489E7 ; 2.0129865488649166E8 ; 2.5492638596658025E9 ; 2.6305428470815346E10 ; 0.0
140 ; 1.821500720558932E7 ; 2.0130451725456285E8 ; 2.5675006767257576E9 ; 2.6506727125701836E10 ; 0.0
141 ; 1.8200094100974232E7 ; 2.0131036930476642E8 ; 2.585715683931347E9 ; 2.6708031642956398E10 ; 0.0
142 ; 1.81814826827404E7 ; 2.0131621077354342E8 ; 2.603915778032321E9 ; 2.6909342012261166E10 ; 0.0
143 ; 1.816221137243577E7 ; 2.0132204140128666E8 ; 2.622097260715061E9 ; 2.711065822303471E10 ; 0.0
144 ; 1.8145768274185274E7 ; 2.0132786093223476E8 ; 2.6402594720874968E9 ; 2.7311980264435997E10 ; 0.0
145 ; 1.8136495464445196E7 ; 2.013336691143697E8 ; 2.658405240361682E9 ; 2.7513308125368233E10 ; 0.0
146 ; 1.8120741611452155E7 ; 2.013394656993182E8 ; 2.676541735826127E9 ; 2.77146417944826E10 ; 0.0
147 ; 1.8109614646897364E7 ; 2.0134525044225654E8 ; 2.694662477437579E9 ; 2.791598126018192E10 ; 0.0
148 ; 1.8099072343392864E7 ; 2.0135102310181838E8 ; 2.7127720920844765E9 ; 2.8117326510624176E10 ; 0.0
149 ; 1.8086648785481293E7 ; 2.0135678344000587E8 ; 2.7308711644278693E9 ; 2.8318677533725994E10 ; 0.0
150 ; 1.8075654074427303E7 ; 2.0136253122210404E8 ; 2.748957813213351E9 ; 2.8520034317166E10 ; 0.0
151 ; 1.8062028712270938E7 ; 2.0136826621659777E8 ; 2.767033467287778E9 ; 2.8721396848388103E10 ; 0.0
152 ; 1.8047913326480404E7 ; 2.013739881950917E8 ; 2.7850954960000486E9 ; 2.8922765114604702E10 ; 0.0
153 ; 1.8040293456251845E7 ; 2.013796969322331E8 ; 2.803143409326529E9 ; 2.9124139102799793E10 ; 0.0
154 ; 1.8028756470884826E7 ; 2.0138539220563695E8 ; 2.8211837027827806E9 ; 2.9325518799732025E10 ; 0.0
155 ; 1.8012601991396755E7 ; 2.013910737958139E8 ; 2.8392124592536654E9 ; 2.952690419193766E10 ; 0.0
156 ; 1.8000903919707518E7 ; 2.0139674148610047E8 ; 2.8572250612450624E9 ; 2.9728295265733475E10 ; 0.0
157 ; 1.7991457666088108E7 ; 2.0140239506259164E8 ; 2.8752259651647696E9 ; 2.9929692007219574E10 ; 0.0
158 ; 1.7976787459074747E7 ; 2.0140803431407583E8 ; 2.8932174228308578E9 ; 3.0131094402282166E10 ; 0.0
159 ; 1.7962977550482586E7 ; 2.0141365903197175E8 ; 2.9111942102899327E9 ; 3.033250243659624E10 ; 0.0
160 ; 1.7954476215080734E7 ; 2.0141926901026767E8 ; 2.9291571878404155E9 ; 3.0533916095628212E10 ; 0.0
161 ; 1.7941193715549093E7 ; 2.0142486404546258E8 ; 2.947111664055496E9 ; 3.073533536463848E10 ; 0.0
162 ; 1.7926063376662724E7 ; 2.0143044393650928E8 ; 2.965052857771045E9 ; 3.0936760228683945E10 ; 0.0
163 ; 1.7913440218901407E7 ; 2.014360084847594E8 ; 2.982978921147708E9 ; 3.1138190672620453E10 ; 0.0
164 ; 1.7903238213064242E7 ; 2.014415574939102E8 ; 3.0008923613666096E9 ; 3.1339626681105213E10 ; 0.0
165 ; 1.7890953250934325E7 ; 2.014470907699531E8 ; 3.018795599579674E9 ; 3.1541068238599125E10 ; 0.0
166 ; 1.7876741556327816E7 ; 2.0145260812112403E8 ; 3.036686552830608E9 ; 3.174251532936908E10 ; 0.0
167 ; 1.786858728913867E7 ; 2.0145810935785526E8 ; 3.0545632943869357E9 ; 3.1943967937490204E10 ; 0.0
168 ; 1.7850644184127513E7 ; 2.0146359429272878E8 ; 3.0724318816760745E9 ; 3.214542604684806E10 ; 0.0
169 ; 1.7838528033782385E7 ; 2.0146906274043137E8 ; 3.090282525860202E9 ; 3.234688964114079E10 ; 0.0
170 ; 1.782129004113194E7 ; 2.0147451451771104E8 ; 3.1081210538939843E9 ; 3.254835870388122E10 ; 0.0
171 ; 1.7813030557770535E7 ; 2.0147994944333476E8 ; 3.1259423439351163E9 ; 3.2749833218398933E10 ; 0.0
172 ; 1.7796402026770085E7 ; 2.014853673380477E8 ; 3.143755374492887E9 ; 3.295131316784227E10 ; 0.0
173 ; 1.7790559674649846E7 ; 2.0149076802453384E8 ; 3.161551776519657E9 ; 3.3152798535180317E10 ; 0.0
174 ; 1.775973060971658E7 ; 2.0149615132737765E8 ; 3.179342336194307E9 ; 3.335428930320485E10 ; 0.0
175 ; 1.772676697009422E7 ; 2.0150151707302704E8 ; 3.1971020668040233E9 ; 3.3555785454532227E10 ; 0.0
176 ; 1.7692551818632334E7 ; 2.015068650897578E8 ; 3.2148288337741175E9 ; 3.3757286971605255E10 ; 0.0
177 ; 1.7662926864603147E7 ; 2.0151219520763865E8 ; 3.2325213855927496E9 ; 3.395879383669501E10 ; 0.0
178 ; 1.7624817363090694E7 ; 2.0151750725849777E8 ; 3.2501843124573526E9 ; 3.416030603190265E10 ; 0.0
179 ; 1.7592110180475958E7 ; 2.0152280107589045E8 ; 3.267809129820443E9 ; 3.436182353916115E10 ; 0.0
180 ; 1.7561436909110576E7 ; 2.015280764950673E8 ; 3.2854012400009193E9 ; 3.456334634023704E10 ; 0.0
181 ; 1.7522939045917086E7 ; 2.015333333529441E8 ; 3.30296267691003E9 ; 3.47648744167321E10 ; 0.0
182 ; 1.749291962430414E7 ; 2.0153857148807213E8 ; 3.320485615955947E9 ; 3.4966407750085045E10 ; 0.0
183 ; 1.746066394980211E7 ; 2.0154379074060944E8 ; 3.337978535580251E9 ; 3.516794632157312E10 ; 0.0
184 ; 1.743079668555034E7 ; 2.0154899095229343E8 ; 3.355439199530053E9 ; 3.536949011231373E10 ; 0.0
185 ; 1.7397936484403487E7 ; 2.0155417196641386E8 ; 3.3728699962156034E9 ; 3.557103910326602E10 ; 0.0
186 ; 1.735838932109424E7 ; 2.0155933362778682E8 ; 3.390267932700007E9 ; 3.577259327523244E10 ; 0.0
187 ; 1.7325649458014242E7 ; 2.0156447578272966E8 ; 3.407626322021101E9 ; 3.597415260886022E10 ; 0.0
188 ; 1.7295411762271713E7 ; 2.015695982790365E8 ; 3.424951971479115E9 ; 3.617571708464295E10 ; 0.0
189 ; 1.7259422631941993E7 ; 2.0157470096595463E8 ; 3.442247383241387E9 ; 3.637728668292199E10 ; 0.0
190 ; 1.7228506125507277E7 ; 2.0157978369416156E8 ; 3.4595068058733287E9 ; 3.657886138388795E10 ; 0.0
191 ; 1.7199278886336852E7 ; 2.0158484631574285E8 ; 3.476735311998836E9 ; 3.678044116758211E10 ; 0.0
192 ; 1.7161864698348515E7 ; 2.015898886841705E8 ; 3.493934590885173E9 ; 3.698202601389785E10 ; 0.0
193 ; 1.7128890002294526E7 ; 2.015949106542823E8 ; 3.5110964555835214E9 ; 3.718361590258202E10 ; 0.0
194 ; 1.7098533916422494E7 ; 2.015999120822613E8 ; 3.528225345585816E9 ; 3.7385210813236305E10 ; 0.0
195 ; 1.706413506375128E7 ; 2.0160489282561642E8 ; 3.5453238795022383E9 ; 3.7586810725318565E10 ; 0.0
