CSV File for the City 3 on Day 106
1 - Minute m 
2 - Power Consumed at minute m 
3 - Power Produced at minute m 
4 - Energy Consumed since the beginning of the day 
5 - Energy Produced since the beginning of the day 
6 - Energy Lost since the beginning of the day on lines starting from the city
 
0 ; 2398302.3024091036 ; 1.0555420780706605E8 ; 0.0 ; 0.0 ; 0.0
1 ; 2399626.1089418284 ; 1.0570716341233045E8 ; 2398302.3024091036 ; 1.0555420780706605E8 ; 0.0
2 ; 2404097.4462749376 ; 1.0616890038772902E8 ; 4797928.411350932 ; 2.112613712193965E8 ; 0.0
3 ; 2406747.9834044743 ; 1.069394201443603E8 ; 7202025.85762587 ; 3.174302716071255E8 ; 0.0
4 ; 2409959.9245708934 ; 1.0801872394587708E8 ; 9608773.841030344 ; 4.243696917514858E8 ; 0.0
5 ; 2415392.985351034 ; 1.0940681290180469E8 ; 1.2018733765601238E7 ; 5.323884156973629E8 ; 0.0
6 ; 2419973.0729178013 ; 1.1110368796156725E8 ; 1.4434126750952272E7 ; 6.417952285991676E8 ; 0.0
7 ; 2427113.2376038088 ; 1.1310934990929651E8 ; 1.6854099823870074E7 ; 7.528989165607349E8 ; 0.0
8 ; 2438889.1694641407 ; 1.1542379935948879E8 ; 1.9281213061473884E7 ; 8.660082664700314E8 ; 0.0
9 ; 2456724.661877527 ; 1.1804703675356615E8 ; 2.1720102230938025E7 ; 9.814320658295202E8 ; 0.0
10 ; 2482660.1443318967 ; 1.20979062357387E8 ; 2.4176826892815553E7 ; 1.0994791025830865E9 ; 0.0
11 ; 2523269.9061938887 ; 1.2421987625973901E8 ; 2.6659487037147447E7 ; 1.2204581649404736E9 ; 0.0
12 ; 2589999.525977285 ; 1.2776947837183449E8 ; 2.9182756943341337E7 ; 1.3446780412002125E9 ; 0.0
13 ; 2653561.098707353 ; 1.3162786842781502E8 ; 3.177275646931862E7 ; 1.472447519572047E9 ; 0.0
14 ; 2662293.982518557 ; 1.3579504598625863E8 ; 3.442631756802598E7 ; 1.604075387999862E9 ; 0.0
15 ; 2666050.3581857667 ; 1.4027101043266886E8 ; 3.708861155054453E7 ; 1.7398704339861207E9 ; 0.0
16 ; 2667181.09127497 ; 1.4505576098291412E8 ; 3.97546619087303E7 ; 1.8801414444187896E9 ; 0.0
17 ; 2670237.3934890004 ; 1.5014929668757018E8 ; 4.242184300000527E7 ; 2.0251972054017038E9 ; 0.0
18 ; 2673709.669210393 ; 1.5555161643711174E8 ; 4.509208039349427E7 ; 2.175346502089274E9 ; 0.0
19 ; 2676654.5191252735 ; 1.61262718967886E8 ; 4.776579006270467E7 ; 2.330898118526386E9 ; 0.0
20 ; 2679635.2722774283 ; 1.672826028687944E8 ; 5.044244458182994E7 ; 2.4921608374942718E9 ; 0.0
21 ; 2682852.437188244 ; 1.7361126658860162E8 ; 5.312207985410737E7 ; 2.659443440363066E9 ; 0.0
22 ; 2686864.7600215357 ; 1.8024870844378692E8 ; 5.580493229129562E7 ; 2.833054706951668E9 ; 0.0
23 ; 2690107.0860195556 ; 1.8719492662684745E8 ; 5.8491797051317155E7 ; 3.013303415395455E9 ; 0.0
24 ; 2693806.600341348 ; 1.9444991921496415E8 ; 6.118190413733671E7 ; 3.200498342022302E9 ; 0.0
25 ; 2696314.4652457614 ; 2.0070172507712343E8 ; 6.387571073767806E7 ; 3.3949482612372665E9 ; 0.0
26 ; 2699870.294926826 ; 2.0070388992013347E8 ; 6.657202520292382E7 ; 3.59564998631439E9 ; 0.0
27 ; 2703410.3773239832 ; 2.0070618082274613E8 ; 6.927189549785064E7 ; 3.796353876234524E9 ; 0.0
28 ; 2704669.1829829332 ; 2.0070859549166378E8 ; 7.197530587517463E7 ; 3.99706005705727E9 ; 0.0
29 ; 2708340.182918879 ; 2.0071113156395832E8 ; 7.467997505815756E7 ; 4.197768652548934E9 ; 0.0
30 ; 2710498.299319582 ; 2.0071378661611515E8 ; 7.738831524107644E7 ; 4.398479784112892E9 ; 0.0
31 ; 2714633.1439361856 ; 2.007165581728826E8 ; 8.009881354039602E7 ; 4.599193570729008E9 ; 0.0
32 ; 2718405.1304676626 ; 2.0071944371587148E8 ; 8.28134466843322E7 ; 4.799910128901891E9 ; 0.0
33 ; 2720640.72283933 ; 2.0072244069185498E8 ; 8.553185181479988E7 ; 5.000629572617763E9 ; 0.0
34 ; 2724454.87342037 ; 2.007255465207277E8 ; 8.82524925376392E7 ; 5.201352013309618E9 ; 0.0
35 ; 2725758.5259993346 ; 2.0072875860308915E8 ; 9.097694741105957E7 ; 5.402077559830346E9 ; 0.0
36 ; 2727618.106058209 ; 2.0073207432742494E8 ; 9.370270593705891E7 ; 5.602806318433435E9 ; 0.0
37 ; 2729752.474360716 ; 2.0073549107686484E8 ; 9.643032404311712E7 ; 5.80353839276086E9 ; 0.0
38 ; 2733810.1557278363 ; 2.007390062355037E8 ; 9.916007651747784E7 ; 6.004273883837726E9 ; 0.0
39 ; 2735469.656228627 ; 2.0074261719427702E8 ; 1.0189388667320567E8 ; 6.20501289007323E9 ; 0.0
40 ; 2738137.5397000182 ; 2.0074632135638815E8 ; 1.046293563294343E8 ; 6.405755507267507E9 ; 0.0
41 ; 2741033.402837613 ; 2.0075011614228916E8 ; 1.0736749386913432E8 ; 6.606501828623895E9 ; 0.0
42 ; 2741937.8702877606 ; 2.0075399899422097E8 ; 1.1010852727197194E8 ; 6.807251944766184E9 ; 0.0
43 ; 2742983.008469357 ; 2.0075796738032272E8 ; 1.128504651422597E8 ; 7.008005943760405E9 ; 0.0
44 ; 2745295.885683122 ; 2.00762018798323E8 ; 1.1559344815072906E8 ; 7.208763911140727E9 ; 0.0
45 ; 2746841.6299267714 ; 2.007661507788278E8 ; 1.1833874403641218E8 ; 7.40952592993905E9 ; 0.0
46 ; 2748757.701309964 ; 2.0077036088822272E8 ; 1.2108558566633895E8 ; 7.610292080717877E9 ; 0.0
47 ; 2749789.004635077 ; 2.007746467312085E8 ; 1.2383434336764891E8 ; 7.8110624416061E9 ; 0.0
48 ; 2751631.9744582544 ; 2.007790059529886E8 ; 1.26584132372284E8 ; 8.011837088337309E9 ; 0.0
49 ; 2752363.3479451844 ; 2.0078343624113098E8 ; 1.2933576434674224E8 ; 8.2126160942902975E9 ; 0.0
50 ; 2754659.046321933 ; 2.0078793532712412E8 ; 1.3208812769468743E8 ; 8.413399530531428E9 ; 0.0
51 ; 2754574.393999716 ; 2.0079250098764881E8 ; 1.3484278674100935E8 ; 8.614187465858553E9 ; 0.0
52 ; 2755938.00542146 ; 2.0079713104558685E8 ; 1.3759736113500908E8 ; 8.8149799668462E9 ; 0.0
53 ; 2757085.3549824688 ; 2.0080182337078723E8 ; 1.4035329914043054E8 ; 9.015777097891788E9 ; 0.0
54 ; 2757964.877008569 ; 2.0080657588061014E8 ; 1.43110384495413E8 ; 9.216578921262575E9 ; 0.0
55 ; 2757567.4653701987 ; 2.008113865402681E8 ; 1.4586834937242156E8 ; 9.417385497143185E9 ; 0.0
56 ; 2758421.3784006275 ; 2.008162533629834E8 ; 1.4862591683779177E8 ; 9.618196883683453E9 ; 0.0
57 ; 2760940.5526130693 ; 2.0082117440997937E8 ; 1.513843382161924E8 ; 9.819013137046436E9 ; 0.0
58 ; 2762055.4946428356 ; 2.0082614779032254E8 ; 1.5414527876880547E8 ; 1.0019834311456415E10 ; 0.0
59 ; 2763411.5422095484 ; 2.008311716606319E8 ; 1.569073342634483E8 ; 1.0220660459246738E10 ; 0.0
60 ; 2761384.5765658086 ; 2.0083624422467E8 ; 1.5967074580565783E8 ; 1.042149163090737E10 ; 0.0
61 ; 2765085.6619553906 ; 2.0084136373283026E8 ; 1.6243213038222364E8 ; 1.062232787513204E10 ; 0.0
62 ; 2764344.802511655 ; 2.008465284815332E8 ; 1.6519721604417902E8 ; 1.082316923886487E10 ; 0.0
63 ; 2765789.078986858 ; 2.0085173681254396E8 ; 1.6796156084669068E8 ; 1.1024015767346403E10 ; 0.0
64 ; 2765942.1991999284 ; 2.0085698711222208E8 ; 1.7072734992567754E8 ; 1.1224867504158947E10 ; 0.0
65 ; 2766357.405281592 ; 2.0086227781071377E8 ; 1.7349329212487745E8 ; 1.142572449127117E10 ; 0.0
66 ; 2767839.7614094513 ; 2.0086760738109642E8 ; 1.7625964953015906E8 ; 1.1626586769081882E10 ; 0.0
67 ; 2766364.1483573955 ; 2.00872974338483E8 ; 1.7902748929156852E8 ; 1.1827454376462978E10 ; 0.0
68 ; 2768228.9425694654 ; 2.0087837723909524E8 ; 1.817938534399259E8 ; 1.2028327350801462E10 ; 0.0
69 ; 2768678.9883362995 ; 2.008838146793115E8 ; 1.8456208238249537E8 ; 1.2229205728040558E10 ; 0.0
70 ; 2769081.9365894524 ; 2.008892852946966E8 ; 1.8733076137083167E8 ; 1.243008954271987E10 ; 0.0
71 ; 2769831.641906446 ; 2.0089478775901845E8 ; 1.9009984330742112E8 ; 1.2630978828014566E10 ; 0.0
72 ; 2771526.8732256386 ; 2.0090032078325698E8 ; 1.9286967494932756E8 ; 1.2831873615773584E10 ; 0.0
73 ; 2770641.756179797 ; 2.0090588311461008E8 ; 1.956412018225532E8 ; 1.303277393655684E10 ; 0.0
74 ; 2772503.026054839 ; 2.0091147353549972E8 ; 1.98411843578733E8 ; 1.3233679819671452E10 ; 0.0
75 ; 2772091.8506284645 ; 2.0091709086258277E8 ; 2.0118434660478783E8 ; 1.3434591293206951E10 ; 0.0
76 ; 2771305.20294545 ; 2.009227339457687E8 ; 2.039564384554163E8 ; 1.3635508384069534E10 ; 0.0
77 ; 2772690.7234365097 ; 2.009284016672476E8 ; 2.0672774365836173E8 ; 1.3836431118015303E10 ; 0.0
78 ; 2772165.066925016 ; 2.0093409294053E8 ; 2.0950043438179824E8 ; 1.403735951968255E10 ; 0.0
79 ; 2770717.2231165194 ; 2.009398067095014E8 ; 2.1227259944872326E8 ; 1.4238293612623081E10 ; 0.0
80 ; 2771229.723963216 ; 2.0094554194749233E8 ; 2.1504331667183977E8 ; 1.4439233419332582E10 ; 0.0
81 ; 2770174.9807543363 ; 2.009512976563661E8 ; 2.1781454639580297E8 ; 1.4640178961280075E10 ; 0.0
82 ; 2769426.6150895585 ; 2.0095707286562473E8 ; 2.2058472137655732E8 ; 1.4841130258936441E10 ; 0.0
83 ; 2770262.057018528 ; 2.0096286663153437E8 ; 2.233541479916469E8 ; 1.5042087331802067E10 ; 0.0
84 ; 2768607.758299799 ; 2.0096867803627133E8 ; 2.261244100486654E8 ; 1.5243050198433601E10 ; 0.0
85 ; 2767073.7843097337 ; 2.009745061870883E8 ; 2.288930178069652E8 ; 1.5444018876469873E10 ; 0.0
86 ; 2768901.4806336975 ; 2.0098035021550235E8 ; 2.3166009159127495E8 ; 1.5644993382656961E10 ; 0.0
87 ; 2767696.0264838985 ; 2.00986209276504E8 ; 2.3442899307190865E8 ; 1.5845973732872463E10 ; 0.0
88 ; 2767511.8553580455 ; 2.009920825477883E8 ; 2.3719668909839255E8 ; 1.6046959942148968E10 ; 0.0
89 ; 2765711.124433864 ; 2.0099796922900742E8 ; 2.3996420095375058E8 ; 1.6247952024696756E10 ; 0.0
90 ; 2765989.5768015054 ; 2.0100386854104525E8 ; 2.4272991207818446E8 ; 1.6448949993925764E10 ; 0.0
91 ; 2762905.7819761634 ; 2.010097797253132E8 ; 2.4549590165498596E8 ; 1.664995386246681E10 ; 0.0
92 ; 2763400.539298137 ; 2.0101570204306784E8 ; 2.4825880743696213E8 ; 1.6850963642192123E10 ; 0.0
93 ; 2762981.746438281 ; 2.0102163477474946E8 ; 2.5102220797626027E8 ; 1.7051979344235191E10 ; 0.0
94 ; 2762000.1019608825 ; 2.010275772193416E8 ; 2.5378518972269857E8 ; 1.725300097900994E10 ; 0.0
95 ; 2759914.380641248 ; 2.0103352869375122E8 ; 2.5654718982465947E8 ; 1.7454028556229282E10 ; 0.0
96 ; 2760104.1659835554 ; 2.010394885322088E8 ; 2.5930710420530072E8 ; 1.7655062084923035E10 ; 0.0
97 ; 2758881.9635107857 ; 2.0104545608568856E8 ; 2.6206720837128428E8 ; 1.7856101573455242E10 ; 0.0
98 ; 2758271.6229359847 ; 2.010514307213478E8 ; 2.6482609033479506E8 ; 1.805714702954093E10 ; 0.0
99 ; 2757369.014035192 ; 2.010574118219851E8 ; 2.6758436195773104E8 ; 1.825819846026228E10 ; 0.0
100 ; 2757046.38958045 ; 2.0106339878551716E8 ; 2.7034173097176623E8 ; 1.8459255872084263E10 ; 0.0
101 ; 2753194.152804482 ; 2.0106939102447343E8 ; 2.7309877736134666E8 ; 1.866031927086978E10 ; 0.0
102 ; 2756436.6663716375 ; 2.0107538796550825E8 ; 2.7585197151415116E8 ; 1.8861388661894257E10 ; 0.0
103 ; 2753649.396523001 ; 2.0108138904893005E8 ; 2.786084081805228E8 ; 1.9062464049859764E10 ; 0.0
104 ; 2752623.8726941086 ; 2.0108739372824693E8 ; 2.813620575770458E8 ; 1.9263545438908695E10 ; 0.0
105 ; 2752129.5671634553 ; 2.010934014697283E8 ; 2.8411468144973993E8 ; 1.9464632832636944E10 ; 0.0
106 ; 2750868.149209753 ; 2.0109941175198212E8 ; 2.868668110169034E8 ; 1.966572623410667E10 ; 0.0
107 ; 2748946.262446944 ; 2.0110542406554702E8 ; 2.8961767916611314E8 ; 1.9866825645858654E10 ; 0.0
108 ; 2747776.689747249 ; 2.011114379124991E8 ; 2.923666254285601E8 ; 2.0067931069924202E10 ; 0.0
109 ; 2748852.0224102647 ; 2.011174528060727E8 ; 2.9511440211830735E8 ; 2.02690425078367E10 ; 0.0
110 ; 2746334.390238166 ; 2.0112346827029493E8 ; 2.978632541407176E8 ; 2.0470159960642773E10 ; 0.0
111 ; 2745533.6900175866 ; 2.0112948383963323E8 ; 3.006095885309558E8 ; 2.0671283428913067E10 ; 0.0
112 ; 2743960.3811168703 ; 2.0113549905865565E8 ; 3.033551222209734E8 ; 2.08724129127527E10 ; 0.0
113 ; 2742550.134326235 ; 2.0114151348170358E8 ; 3.0609908260209024E8 ; 2.1073548411811356E10 ; 0.0
114 ; 2741613.5454585166 ; 2.011475266725761E8 ; 3.0884163273641646E8 ; 2.127468992529306E10 ; 0.0
115 ; 2739238.431014631 ; 2.0115353820422593E8 ; 3.1158324628187495E8 ; 2.1475837451965637E10 ; 0.0
116 ; 2738915.807687386 ; 2.011595476584663E8 ; 3.143224847128896E8 ; 2.1676990990169865E10 ; 0.0
117 ; 2737502.08398958 ; 2.0116555462568855E8 ; 3.17061400520577E8 ; 2.187815053782833E10 ; 0.0
118 ; 2736874.0982274027 ; 2.011715587045899E8 ; 3.197989026045666E8 ; 2.2079316092454018E10 ; 0.0
119 ; 2736038.069391226 ; 2.011775595019112E8 ; 3.2253577670279396E8 ; 2.2280487651158607E10 ; 0.0
120 ; 2732749.837277608 ; 2.0118355663218406E8 ; 3.252718147721852E8 ; 2.248166521066052E10 ; 0.0
121 ; 2732960.378954056 ; 2.0118954971748745E8 ; 3.280045646094628E8 ; 2.26828487672927E10 ; 0.0
122 ; 2730032.505576986 ; 2.0119553838721263E8 ; 3.3073752498841685E8 ; 2.288403831701019E10 ; 0.0
123 ; 2729031.668452523 ; 2.0120152227783716E8 ; 3.334675574939938E8 ; 2.30852338553974E10 ; 0.0
124 ; 2726981.4614047864 ; 2.0120750103270674E8 ; 3.361965891624463E8 ; 2.3286435377675236E10 ; 0.0
125 ; 2724264.755975556 ; 2.0121347430182502E8 ; 3.389235706238511E8 ; 2.3487642878707943E10 ; 0.0
126 ; 2723580.269723807 ; 2.0121944174165106E8 ; 3.4164783537982666E8 ; 2.368885635300977E10 ; 0.0
127 ; 2724286.5853118505 ; 2.0122540301490414E8 ; 3.443714156495505E8 ; 2.389007579475142E10 ; 0.0
128 ; 2722601.198298542 ; 2.012313577903755E8 ; 3.470957022348623E8 ; 2.4091301197766323E10 ; 0.0
129 ; 2718564.2365912884 ; 2.0123730574274686E8 ; 3.4981830343316084E8 ; 2.4292532555556698E10 ; 0.0
130 ; 2717921.8349679653 ; 2.012432465524156E8 ; 3.525368676697521E8 ; 2.4493769861299446E10 ; 0.0
131 ; 2716548.1996969106 ; 2.0124917990532613E8 ; 3.552547895047201E8 ; 2.469501310785186E10 ; 0.0
132 ; 2712065.0089611067 ; 2.0125510549280718E8 ; 3.57971337704417E8 ; 2.4896262287757187E10 ; 0.0
133 ; 2711230.3982564667 ; 2.0126102301141518E8 ; 3.606834027133781E8 ; 2.5097517393249992E10 ; 0.0
134 ; 2707837.5346066356 ; 2.01266932162783E8 ; 3.6339463311163455E8 ; 2.5298778416261406E10 ; 0.0
135 ; 2706109.984473501 ; 2.0127283265347412E8 ; 3.661024706462412E8 ; 2.550004534842419E10 ; 0.0
136 ; 2702507.870044703 ; 2.0127872419484216E8 ; 3.688085806307147E8 ; 2.5701318181077663E10 ; 0.0
137 ; 2699583.4520364148 ; 2.012846065028951E8 ; 3.715110885007594E8 ; 2.5902596905272507E10 ; 0.0
138 ; 2697148.322864981 ; 2.012904792981645E8 ; 3.7421067195279586E8 ; 2.6103881511775402E10 ; 0.0
139 ; 2695169.216245436 ; 2.0129634230557933E8 ; 3.769078202756609E8 ; 2.6305171991073566E10 ; 0.0
140 ; 2693388.7510853065 ; 2.013021952543442E8 ; 3.796029894919063E8 ; 2.6506468333379147E10 ; 0.0
141 ; 2689509.428794336 ; 2.0130803787782186E8 ; 3.8229637824299157E8 ; 2.670777052863349E10 ; 0.0
142 ; 2687376.2244772324 ; 2.0131386991341978E8 ; 3.849858876717859E8 ; 2.6909078566511314E10 ; 0.0
143 ; 2683506.680631309 ; 2.0131969110248086E8 ; 3.876732638962631E8 ; 2.7110392436424736E10 ; 0.0
144 ; 2682226.035549989 ; 2.013255011901778E8 ; 3.903567705768944E8 ; 2.7311712127527218E10 ; 0.0
145 ; 2680056.1381684123 ; 2.013312999254111E8 ; 3.930389966124444E8 ; 2.7513037628717396E10 ; 0.0
146 ; 2678562.7144710724 ; 2.0133708706071082E8 ; 3.957190527506128E8 ; 2.7714368928642807E10 ; 0.0
147 ; 2676243.7786092623 ; 2.0134286235214156E8 ; 3.983976154650839E8 ; 2.7915706015703518E10 ; 0.0
148 ; 2676237.095597751 ; 2.0134862555921066E8 ; 4.010738592436932E8 ; 2.811704887805566E10 ; 0.0
149 ; 2672919.0259779324 ; 2.013543764447798E8 ; 4.037500963392909E8 ; 2.8318397503614872E10 ; 0.0
150 ; 2672711.5426142234 ; 2.013601147749795E8 ; 4.064230153652688E8 ; 2.851975188005965E10 ; 0.0
151 ; 2668569.626153123 ; 2.013658403191264E8 ; 4.0909572690788305E8 ; 2.872111199483463E10 ; 0.0
152 ; 2667102.8533804854 ; 2.0137155284964368E8 ; 4.1176429653403616E8 ; 2.8922477835153755E10 ; 0.0
153 ; 2666670.0389810605 ; 2.0137725214198393E8 ; 4.1443139938741666E8 ; 2.91238493880034E10 ; 0.0
154 ; 2664949.7157272664 ; 2.0138293797455472E8 ; 4.1709806942639774E8 ; 2.9325226640145382E10 ; 0.0
155 ; 2663852.5132137346 ; 2.0138861012864676E8 ; 4.19763019142125E8 ; 2.9526609578119938E10 ; 0.0
156 ; 2661824.861721561 ; 2.0139426838836434E8 ; 4.2242687165533876E8 ; 2.9727998188248585E10 ; 0.0
157 ; 2660223.836970359 ; 2.013999125405583E8 ; 4.2508869651706034E8 ; 2.9929392456636948E10 ; 0.0
158 ; 2657801.5674233055 ; 2.014055423747611E8 ; 4.277489203540307E8 ; 3.0130792369177505E10 ; 0.0
159 ; 2656190.742606 ; 2.014111576831241E8 ; 4.30406721921454E8 ; 3.0332197911552265E10 ; 0.0
160 ; 2654406.272895724 ; 2.0141675826035693E8 ; 4.3306291266406E8 ; 3.053360906923539E10 ; 0.0
161 ; 2651123.6372106946 ; 2.0142234390366894E8 ; 4.3571731893695575E8 ; 3.0735025827495747E10 ; 0.0
162 ; 2649575.196118502 ; 2.0142791441271257E8 ; 4.383684425741664E8 ; 3.0936448171399414E10 ; 0.0
163 ; 2648254.9223634047 ; 2.014334695895285E8 ; 4.410180177702849E8 ; 3.1137876085812126E10 ; 0.0
164 ; 2646069.8267169395 ; 2.0143900923849276E8 ; 4.436662726926483E8 ; 3.1339309555401653E10 ; 0.0
165 ; 2644035.7105572396 ; 2.0144453316626552E8 ; 4.4631234251936525E8 ; 3.1540748564640144E10 ; 0.0
166 ; 2643991.6499321125 ; 2.0145004118174142E8 ; 4.489563782299225E8 ; 3.174219309780641E10 ; 0.0
167 ; 2641409.640734938 ; 2.0145553309600183E8 ; 4.5160036987985456E8 ; 3.194364313898815E10 ; 0.0
168 ; 2638871.999363489 ; 2.0146100872226843E8 ; 4.542417795205895E8 ; 3.2145098672084152E10 ; 0.0
169 ; 2636202.9769100705 ; 2.0146646787585837E8 ; 4.5688065151995295E8 ; 3.234655968080642E10 ; 0.0
170 ; 2633743.7889405433 ; 2.0147191037414083E8 ; 4.59516854496863E8 ; 3.2548026148682278E10 ; 0.0
171 ; 2634504.8306217953 ; 2.0147733603649518E8 ; 4.6215059828580356E8 ; 3.274949805905642E10 ; 0.0
172 ; 2632788.355910704 ; 2.0148274468427023E8 ; 4.6478510311642534E8 ; 3.2950975395092915E10 ; 0.0
173 ; 2629645.0596354925 ; 2.01488136140745E8 ; 4.6741789147233605E8 ; 3.3152458139777184E10 ; 0.0
174 ; 2629201.817641402 ; 2.014935102310907E8 ; 4.700475365319716E8 ; 3.3353946275917927E10 ; 0.0
175 ; 2626884.286592326 ; 2.0149886678233376E8 ; 4.7267673834961295E8 ; 3.3555439786149017E10 ; 0.0
176 ; 2628913.3471803004 ; 2.0150420562332034E8 ; 4.7530362263620526E8 ; 3.375693865293135E10 ; 0.0
177 ; 2626673.1518946076 ; 2.0150952658468178E8 ; 4.7793253598338556E8 ; 3.3958442858554672E10 ; 0.0
178 ; 2623592.7283837707 ; 2.015148294988011E8 ; 4.805592091352802E8 ; 3.4159952385139355E10 ; 0.0
179 ; 2622847.3679735498 ; 2.0152011419978082E8 ; 4.83182801863664E8 ; 3.436146721463815E10 ; 0.0
180 ; 2621745.7506950176 ; 2.0152538052341142E8 ; 4.8580564923163754E8 ; 3.456298732883794E10 ; 0.0
181 ; 2620843.2121796845 ; 2.015306283071412E8 ; 4.884273949823325E8 ; 3.476451270936135E10 ; 0.0
182 ; 2620320.2154757883 ; 2.0153585739004683E8 ; 4.910482381945122E8 ; 3.4966043337668495E10 ; 0.0
183 ; 2618670.6879449957 ; 2.0154106761280477E8 ; 4.93668558409988E8 ; 3.516757919505854E10 ; 0.0
184 ; 2617113.4636646644 ; 2.0154625881766394E8 ; 4.96287229097933E8 ; 3.536912026267135E10 ; 0.0
185 ; 2616992.0644709333 ; 2.0155143084841883E8 ; 4.9890434256159765E8 ; 3.557066652148901E10 ; 0.0
186 ; 2616786.747577071 ; 2.0155658355038372E8 ; 5.015213346260686E8 ; 3.577221795233743E10 ; 0.0
187 ; 2614279.635232935 ; 2.0156171677036756E8 ; 5.0413812137364566E8 ; 3.597377453588782E10 ; 0.0
188 ; 2611847.16636688 ; 2.0156683035664982E8 ; 5.067524010088786E8 ; 3.617533625265819E10 ; 0.0
189 ; 2612240.2234757175 ; 2.0157192415895674E8 ; 5.0936424817524546E8 ; 3.637690308301484E10 ; 0.0
190 ; 2606884.474233329 ; 2.0157699802843872E8 ; 5.1197648839872116E8 ; 3.65784750071738E10 ; 0.0
191 ; 2601765.205077685 ; 2.0158205181764814E8 ; 5.145833728729545E8 ; 3.678005200520224E10 ; 0.0
192 ; 2596416.549085422 ; 2.0158708538051802E8 ; 5.171851380780322E8 ; 3.698163405701989E10 ; 0.0
193 ; 2591593.6195740537 ; 2.015920985723411E8 ; 5.1978155462711763E8 ; 3.7183221142400406E10 ; 0.0
194 ; 2586375.374967337 ; 2.015970912497499E8 ; 5.223731482466917E8 ; 3.738481324097275E10 ; 0.0
195 ; 2581496.189160586 ; 2.016020632706971E8 ; 5.2495952362165904E8 ; 3.7586410332222496E10 ; 0.0
196 ; 2577267.6707062037 ; 2.0160701449443668E8 ; 5.275410198108196E8 ; 3.7788012395493195E10 ; 0.0
197 ; 2571825.039781444 ; 2.0161194478150558E8 ; 5.3011828748152584E8 ; 3.798961940998763E10 ; 0.0
198 ; 2566270.5504140165 ; 2.0161685399370596E8 ; 5.326901125213073E8 ; 3.8191231354769135E10 ; 0.0
199 ; 2562251.793288913 ; 2.0162174199408787E8 ; 5.352563830717213E8 ; 3.839284820876284E10 ; 0.0
200 ; 2557090.2403927986 ; 2.0162660864693272E8 ; 5.378186348650103E8 ; 3.859446995075693E10 ; 0.0
