CSV File for the City 6 on Day 112
1 - Minute m 
2 - Power Consumed at minute m 
3 - Power Produced at minute m 
4 - Energy Consumed since the beginning of the day 
5 - Energy Produced since the beginning of the day 
6 - Energy Lost since the beginning of the day on lines starting from the city
 
0 ; 1.1256302147629922E7 ; 1.0615460915186432E8 ; 0.0 ; 0.0 ; 0.0
1 ; 1.1269130651093697E7 ; 1.0630551955056298E8 ; 1.1256302147629922E7 ; 1.0615460915186432E8 ; 0.0
2 ; 1.1283246851261854E7 ; 1.0676542024122265E8 ; 2.252543279872362E7 ; 2.124601287024273E8 ; 0.0
3 ; 1.1295778276216986E7 ; 1.0753431470973349E8 ; 3.380867964998548E7 ; 3.1922554894364995E8 ; 0.0
4 ; 1.1313844363402348E7 ; 1.0861220607718515E8 ; 4.510445792620246E7 ; 4.2675986365338343E8 ; 0.0
5 ; 1.1330568961985229E7 ; 1.0999909708355373E8 ; 5.641830228960481E7 ; 5.353720697305686E8 ; 0.0
6 ; 1.136146379060687E7 ; 1.1169499007312301E8 ; 6.774887125159004E7 ; 6.453711668141223E8 ; 0.0
7 ; 1.1397233206329783E7 ; 1.1369988698181951E8 ; 7.911033504219691E7 ; 7.570661568872453E8 ; 0.0
8 ; 1.1448091231093679E7 ; 1.1601378932661915E8 ; 9.050756824852669E7 ; 8.707660438690648E8 ; 0.0
9 ; 1.1531754562326571E7 ; 1.1863669819716185E8 ; 1.0195565947962037E8 ; 9.86779833195684E8 ; 0.0
10 ; 1.1658117305866087E7 ; 1.2156861424968213E8 ; 1.1348741404194693E8 ; 1.1054165313928459E9 ; 0.0
11 ; 1.185305191180736E7 ; 1.2480953770333472E8 ; 1.2514553134781303E8 ; 1.226985145642528E9 ; 0.0
12 ; 1.217332789724767E7 ; 1.2835946833896485E8 ; 1.369985832596204E8 ; 1.3517946833458629E9 ; 0.0
13 ; 1.2475987503438331E7 ; 1.3221840550033802E8 ; 1.4917191115686807E8 ; 1.4801541516848278E9 ; 0.0
14 ; 1.2509524185292354E7 ; 1.3638634809781438E8 ; 1.616478986603064E8 ; 1.612372557185166E9 ; 0.0
15 ; 1.2533003524049047E7 ; 1.408632946144179E8 ; 1.7415742284559876E8 ; 1.7487589052829802E9 ; 0.0
16 ; 1.2546267181584995E7 ; 1.456492431142222E8 ; 1.866904263696478E8 ; 1.889622199897398E9 ; 0.0
17 ; 1.2557286776897267E7 ; 1.5074419125294337E8 ; 1.9923669355123278E8 ; 2.0352714430116203E9 ; 0.0
18 ; 1.2574292863734622E7 ; 1.5614813629060537E8 ; 2.1179398032813007E8 ; 2.1860156342645636E9 ; 0.0
19 ; 1.2587335789051926E7 ; 1.6186107510611853E8 ; 2.243682731918647E8 ; 2.342163770555169E9 ; 0.0
20 ; 1.260278304200947E7 ; 1.6788300421359268E8 ; 2.3695560898091662E8 ; 2.504024845661288E9 ; 0.0
21 ; 1.2620553914357085E7 ; 1.7421391978018972E8 ; 2.495583920229261E8 ; 2.6719078498748803E9 ; 0.0
22 ; 1.263237681451724E7 ; 1.808538176453088E8 ; 2.621789459372832E8 ; 2.84612176965507E9 ; 0.0
23 ; 1.2648717491066799E7 ; 1.8780269334088814E8 ; 2.748113227518004E8 ; 3.026975587300379E9 ; 0.0
24 ; 1.266477798820567E7 ; 1.9506054211260545E8 ; 2.8746004024286723E8 ; 3.214778280641267E9 ; 0.0
25 ; 1.2680259040309591E7 ; 2.0131539983994034E8 ; 3.001248182310729E8 ; 3.4098388227538724E9 ; 0.0
26 ; 1.2692892554491222E7 ; 2.0132080909541288E8 ; 3.128050772713825E8 ; 3.611154222593813E9 ; 0.0
27 ; 1.2709131075245604E7 ; 2.013265336920847E8 ; 3.2549796982587373E8 ; 3.8124750316892257E9 ; 0.0
28 ; 1.2722279171190578E7 ; 2.013325679529859E8 ; 3.3820710090111935E8 ; 4.0138015653813105E9 ; 0.0
29 ; 1.273774194537052E7 ; 2.0133890602688563E8 ; 3.509293800723099E8 ; 4.215134133334296E9 ; 0.0
30 ; 1.2752085553955028E7 ; 2.0134554191051644E8 ; 3.636671220176804E8 ; 4.416473039361182E9 ; 0.0
31 ; 1.2767108839634692E7 ; 2.0135246947034234E8 ; 3.764192075716354E8 ; 4.617818581271699E9 ; 0.0
32 ; 1.2777265315595243E7 ; 2.013596824637316E8 ; 3.8918631641127014E8 ; 4.819171050742042E9 ; 0.0
33 ; 1.2792812386653967E7 ; 2.013671745594136E8 ; 4.019635817268654E8 ; 5.020530733205773E9 ; 0.0
34 ; 1.2805344149613319E7 ; 2.013749393571165E8 ; 4.147563941135194E8 ; 5.221897907765187E9 ; 0.0
35 ; 1.2818719879680876E7 ; 2.013829704063002E8 ; 4.275617382631327E8 ; 5.423272847122304E9 ; 0.0
36 ; 1.2827756422324512E7 ; 2.0139126122391644E8 ; 4.4038045814281356E8 ; 5.6246558175286045E9 ; 0.0
37 ; 1.2842251866315156E7 ; 2.0139980531114426E8 ; 4.532082145651381E8 ; 5.826047078752521E9 ; 0.0
38 ; 1.285447864803176E7 ; 2.014085961690641E8 ; 4.660504664314532E8 ; 6.027446884063664E9 ; 0.0
39 ; 1.2864050990971018E7 ; 2.0141762731324857E8 ; 4.78904945079485E8 ; 6.228855480232729E9 ; 0.0
40 ; 1.2875901975845126E7 ; 2.0142689228726092E8 ; 4.91768996070456E8 ; 6.430273107545978E9 ; 0.0
41 ; 1.2886844580046691E7 ; 2.014363846750634E8 ; 5.046448980463011E8 ; 6.631699999833239E9 ; 0.0
42 ; 1.2898814549070448E7 ; 2.014460981123487E8 ; 5.1753174262634784E8 ; 6.833136384508302E9 ; 0.0
43 ; 1.2902209468136597E7 ; 2.014560262968161E8 ; 5.3043055717541826E8 ; 7.03458248262065E9 ; 0.0
44 ; 1.2916493322982753E7 ; 2.014661629974218E8 ; 5.433327666435548E8 ; 7.236038508917466E9 ; 0.0
45 ; 1.2921705167393051E7 ; 2.01476502062639E8 ; 5.562492599665376E8 ; 7.437504671914888E9 ; 0.0
46 ; 1.2932459873630404E7 ; 2.0148703742776886E8 ; 5.691709651339307E8 ; 7.638981173977528E9 ; 0.0
47 ; 1.2938251275063857E7 ; 2.0149776312134662E8 ; 5.821034250075611E8 ; 7.840468211405296E9 ; 0.0
48 ; 1.2944440731130444E7 ; 2.0150867327069104E8 ; 5.95041676282625E8 ; 8.041965974526643E9 ; 0.0
49 ; 1.2947835356058916E7 ; 2.015197621066467E8 ; 6.079861170137554E8 ; 8.243474647797334E9 ; 0.0
50 ; 1.2951315455159506E7 ; 2.015310239675698E8 ; 6.209339523698144E8 ; 8.44499440990398E9 ; 0.0
51 ; 1.2960089058857381E7 ; 2.015424533026095E8 ; 6.33885267824974E8 ; 8.64652543387155E9 ; 0.0
52 ; 1.2964039405552128E7 ; 2.015540446743349E8 ; 6.468453568838313E8 ; 8.84806788717416E9 ; 0.0
53 ; 1.2967008567978632E7 ; 2.015657927607593E8 ; 6.598093962893834E8 ; 9.049621931848495E9 ; 0.0
54 ; 1.2973916626233995E7 ; 2.0157769235680982E8 ; 6.72776404857362E8 ; 9.251187724609255E9 ; 0.0
55 ; 1.2976520092220709E7 ; 2.015897383752916E8 ; 6.857503214835961E8 ; 9.452765416966064E9 ; 0.0
56 ; 1.298287947046877E7 ; 2.0160192584739074E8 ; 6.987268415758168E8 ; 9.654355155341356E9 ; 0.0
57 ; 1.298623199291654E7 ; 2.0161424992276186E8 ; 7.117097210462855E8 ; 9.855957081188747E9 ; 0.0
58 ; 1.2988951812232755E7 ; 2.0162670586924046E8 ; 7.246959530392021E8 ; 1.005757133111151E10 ; 0.0
59 ; 1.2994542733800659E7 ; 2.0163928907222044E8 ; 7.376849048514348E8 ; 1.025919803698075E10 ; 0.0
60 ; 1.3001042443228237E7 ; 2.0165199503373358E8 ; 7.506794475852355E8 ; 1.0460837326052969E10 ; 0.0
61 ; 1.3001756108366659E7 ; 2.0166481937126565E8 ; 7.636804900284637E8 ; 1.0662489321086702E10 ; 0.0
62 ; 1.3007844618184362E7 ; 2.0167775781634188E8 ; 7.766822461368303E8 ; 1.0864154140457968E10 ; 0.0
63 ; 1.3006602990455974E7 ; 2.016908062129109E8 ; 7.896900907550147E8 ; 1.106583189827431E10 ; 0.0
64 ; 1.3018727730731506E7 ; 2.0170396051555595E8 ; 8.026966937454706E8 ; 1.126752270448722E10 ; 0.0
65 ; 1.3019453622471116E7 ; 2.0171721678755802E8 ; 8.157154214762021E8 ; 1.1469226665002777E10 ; 0.0
66 ; 1.3019624424572648E7 ; 2.0173057119883463E8 ; 8.287348750986732E8 ; 1.1670943881790335E10 ; 0.0
67 ; 1.3021978950271402E7 ; 2.017440200237755E8 ; 8.417544995232459E8 ; 1.187267445298917E10 ; 0.0
68 ; 1.3026300781020291E7 ; 2.0175755963899434E8 ; 8.547764784735173E8 ; 1.2074418473012945E10 ; 0.0
69 ; 1.3028858463691937E7 ; 2.0177118652101484E8 ; 8.678027792545376E8 ; 1.227617603265194E10 ; 0.0
70 ; 1.3030752252776926E7 ; 2.0178489724390587E8 ; 8.808316377182295E8 ; 1.2477947219172955E10 ; 0.0
71 ; 1.3034590968576409E7 ; 2.017986884768811E8 ; 8.938623899710065E8 ; 1.267973211641686E10 ; 0.0
72 ; 1.3035069990883695E7 ; 2.0181255698187473E8 ; 9.06896980939583E8 ; 1.2881530804893742E10 ; 0.0
73 ; 1.3039623954266505E7 ; 2.0182649961110616E8 ; 9.199320509304667E8 ; 1.3083343361875616E10 ; 0.0
74 ; 1.304036921946131E7 ; 2.0184051330464178E8 ; 9.329716748847332E8 ; 1.3285169861486723E10 ; 0.0
75 ; 1.3042047954336975E7 ; 2.0185459508796486E8 ; 9.460120441041945E8 ; 1.3487010374791365E10 ; 0.0
76 ; 1.3049945511401922E7 ; 2.0186874206955954E8 ; 9.590540920585315E8 ; 1.368886496987933E10 ; 0.0
77 ; 1.3047697942073002E7 ; 2.0188295143851718E8 ; 9.721040375699334E8 ; 1.3890733711948889E10 ; 0.0
78 ; 1.3047045842472665E7 ; 2.0189722046217006E8 ; 9.851517355120064E8 ; 1.4092616663387405E10 ; 0.0
79 ; 1.3048575512790052E7 ; 2.0191154648375806E8 ; 9.981987813544791E8 ; 1.4294513883849575E10 ; 0.0
80 ; 1.3044570211917616E7 ; 2.019259269201324E8 ; 1.0112473568672692E9 ; 1.4496425430333334E10 ; 0.0
81 ; 1.3042656678084917E7 ; 2.0194035925950032E8 ; 1.0242919270791868E9 ; 1.4698351357253466E10 ; 0.0
82 ; 1.3040054181501346E7 ; 2.019548410592138E8 ; 1.0373345837572718E9 ; 1.4900291716512966E10 ; 0.0
83 ; 1.3038352050757667E7 ; 2.0196936994360438E8 ; 1.0503746379387732E9 ; 1.510224655757218E10 ; 0.0
84 ; 1.3034572854745308E7 ; 2.0198394360186693E8 ; 1.0634129899895308E9 ; 1.5304215927515783E10 ; 0.0
85 ; 1.3030618778498245E7 ; 2.0199855978599322E8 ; 1.0764475628442762E9 ; 1.5506199871117651E10 ; 0.0
86 ; 1.302822191547227E7 ; 2.0201321630875683E8 ; 1.0894781816227744E9 ; 1.5708198430903645E10 ; 0.0
87 ; 1.3027500956584616E7 ; 2.020279110417503E8 ; 1.1025064035382466E9 ; 1.5910211647212402E10 ; 0.0
88 ; 1.3025074239043277E7 ; 2.020426419134749E8 ; 1.1155339044948313E9 ; 1.6112239558254152E10 ; 0.0
89 ; 1.3021539322333662E7 ; 2.0205740690748316E8 ; 1.1285589787338746E9 ; 1.6314282200167627E10 ; 0.0
90 ; 1.3016189990351126E7 ; 2.0207220406057483E8 ; 1.1415805180562081E9 ; 1.6516339607075111E10 ; 0.0
91 ; 1.3012967630319158E7 ; 2.0208703146104524E8 ; 1.1545967080465593E9 ; 1.6718411811135687E10 ; 0.0
92 ; 1.3011480672421882E7 ; 2.0210188724698624E8 ; 1.1676096756768785E9 ; 1.6920498842596731E10 ; 0.0
93 ; 1.3009670996096509E7 ; 2.021167696046392E8 ; 1.1806211563493004E9 ; 1.7122600729843718E10 ; 0.0
94 ; 1.3003930408156287E7 ; 2.0213167676679906E8 ; 1.193630827345397E9 ; 1.7324717499448357E10 ; 0.0
95 ; 1.300144345591131E7 ; 2.0214660701126906E8 ; 1.2066347577535534E9 ; 1.7526849176215157E10 ; 0.0
96 ; 1.3001073651670251E7 ; 2.0216155865936503E8 ; 1.2196362012094648E9 ; 1.7728995783226425E10 ; 0.0
97 ; 1.2991004224040601E7 ; 2.021765300744685E8 ; 1.232637274861135E9 ; 1.793115734188579E10 ; 0.0
98 ; 1.2989836065300664E7 ; 2.021915196606273E8 ; 1.2456282790851755E9 ; 1.813333387196026E10 ; 0.0
99 ; 1.2988319784205103E7 ; 2.0220652586120316E8 ; 1.2586181151504762E9 ; 1.8335525391620884E10 ; 0.0
100 ; 1.2984804046567071E7 ; 2.0222154715756434E8 ; 1.2716064349346814E9 ; 1.8537731917482086E10 ; 0.0
101 ; 1.2979804395985564E7 ; 2.0223658206782308E8 ; 1.2845912389812484E9 ; 1.8739953464639652E10 ; 0.0
102 ; 1.297418730289336E7 ; 2.022516291456161E8 ; 1.297571043377234E9 ; 1.8942190046707474E10 ; 0.0
103 ; 1.2971872624729527E7 ; 2.022666869789272E8 ; 1.3105452306801274E9 ; 1.914444167585309E10 ; 0.0
104 ; 1.2964869409973904E7 ; 2.0228175418895054E8 ; 1.323517103304857E9 ; 1.9346708362832016E10 ; 0.0
105 ; 1.295880264154554E7 ; 2.0229682942899403E8 ; 1.3364819727148309E9 ; 1.9548990117020966E10 ; 0.0
106 ; 1.2953914836697003E7 ; 2.0231191138342068E8 ; 1.3494407753563764E9 ; 1.975128694644996E10 ; 0.0
107 ; 1.2954012747467874E7 ; 2.0232699876662767E8 ; 1.3623946901930735E9 ; 1.9953598857833378E10 ; 0.0
108 ; 1.294639884364644E7 ; 2.0234209032206142E8 ; 1.3753487029405413E9 ; 2.0155925856600006E10 ; 0.0
109 ; 1.293982451685252E7 ; 2.0235718482126763E8 ; 1.3882951017841878E9 ; 2.0358267946922066E10 ; 0.0
110 ; 1.2937756728874477E7 ; 2.0237228106297526E8 ; 1.4012349263010404E9 ; 2.0560625131743332E10 ; 0.0
111 ; 1.2932962266831832E7 ; 2.0238737787221304E8 ; 1.4141726830299149E9 ; 2.076299741280631E10 ; 0.0
112 ; 1.2926860411707243E7 ; 2.02402474099458E8 ; 1.4271056452967467E9 ; 2.096538479067852E10 ; 0.0
113 ; 1.2919890047207441E7 ; 2.0241756861981422E8 ; 1.440032505708454E9 ; 2.1167787264777977E10 ; 0.0
114 ; 1.2914441455913862E7 ; 2.0243266033222124E8 ; 1.4529523957556612E9 ; 2.1370204833397793E10 ; 0.0
115 ; 1.2909547807510797E7 ; 2.0244774815869096E8 ; 1.465866837211575E9 ; 2.1572637493730015E10 ; 0.0
116 ; 1.2904752570811087E7 ; 2.024628310435721E8 ; 1.478776385019086E9 ; 2.1775085241888706E10 ; 0.0
117 ; 1.2895485797036717E7 ; 2.0247790795284107E8 ; 1.491681137589897E9 ; 2.1977548072932278E10 ; 0.0
118 ; 1.2890687930999417E7 ; 2.0249297787341863E8 ; 1.5045766233869336E9 ; 2.218002598088512E10 ; 0.0
119 ; 1.2887268039676111E7 ; 2.0250803981251085E8 ; 1.517467311317933E9 ; 2.2382518958758537E10 ; 0.0
120 ; 1.2879893466840416E7 ; 2.025230927969743E8 ; 1.5303545793576093E9 ; 2.258502699857105E10 ; 0.0
121 ; 1.2872846030507138E7 ; 2.0253813587270385E8 ; 1.5432344728244498E9 ; 2.2787550091368023E10 ; 0.0
122 ; 1.2866532545715522E7 ; 2.0255316810404268E8 ; 1.5561073188549569E9 ; 2.2990088227240726E10 ; 0.0
123 ; 1.2858261706719462E7 ; 2.0256818857321355E8 ; 1.5689738514006724E9 ; 2.319264139534477E10 ; 0.0
124 ; 1.2853459228213346E7 ; 2.0258319637977055E8 ; 1.5818321131073918E9 ; 2.339520958391798E10 ; 0.0
125 ; 1.284443456675965E7 ; 2.0259819064007062E8 ; 1.5946855723356051E9 ; 2.3597792780297752E10 ; 0.0
126 ; 1.2838541909867844E7 ; 2.0261317048676404E8 ; 1.6075300069023647E9 ; 2.3800390970937824E10 ; 0.0
127 ; 1.2832907272177644E7 ; 2.026281350683033E8 ; 1.6203685488122325E9 ; 2.4003004141424587E10 ; 0.0
128 ; 1.2825151587395372E7 ; 2.0264308354846948E8 ; 1.6332014560844102E9 ; 2.420563227649289E10 ; 0.0
129 ; 1.2820328634705095E7 ; 2.0265801510591578E8 ; 1.6460266076718056E9 ; 2.440827536004136E10 ; 0.0
130 ; 1.2808024848701913E7 ; 2.0267292893372715E8 ; 1.6588469363065107E9 ; 2.4610933375147274E10 ; 0.0
131 ; 1.2797464530363508E7 ; 2.0268782423899585E8 ; 1.6716549611552126E9 ; 2.4813606304081E10 ; 0.0
132 ; 1.2784817537509063E7 ; 2.0270270024241218E8 ; 1.6844524256855762E9 ; 2.5016294128319996E10 ; 0.0
133 ; 1.277694789052416E7 ; 2.0271755617786944E8 ; 1.6972372432230852E9 ; 2.521899682856241E10 ; 0.0
134 ; 1.2765685496509714E7 ; 2.027323912920834E8 ; 1.7100141911136093E9 ; 2.5421714384740276E10 ; 0.0
135 ; 1.275366369830289E7 ; 2.02747204844225E8 ; 1.722779876610119E9 ; 2.562444677603236E10 ; 0.0
136 ; 1.27440975988093E7 ; 2.0276199610556594E8 ; 1.735533540308422E9 ; 2.5827193980876587E10 ; 0.0
137 ; 1.2732848628215548E7 ; 2.0277676435913712E8 ; 1.7482776379072313E9 ; 2.602995597698215E10 ; 0.0
138 ; 1.2717630018969797E7 ; 2.0279150889939886E8 ; 1.761010486535447E9 ; 2.623273274134129E10 ; 0.0
139 ; 1.2699368696008043E7 ; 2.028062290319228E8 ; 1.7737281165544167E9 ; 2.643552425024069E10 ; 0.0
140 ; 1.2664456821992682E7 ; 2.0282092407308492E8 ; 1.7864274852504246E9 ; 2.663833047927261E10 ; 0.0
141 ; 1.2635623441121524E7 ; 2.028355933497694E8 ; 1.7990919420724173E9 ; 2.6841151403345695E10 ; 0.0
142 ; 1.2612720205726035E7 ; 2.0285023619908276E8 ; 1.8117275655135388E9 ; 2.7043986996695465E10 ; 0.0
143 ; 1.258489685948541E7 ; 2.0286485196807793E8 ; 1.824340285719265E9 ; 2.7246837232894547E10 ; 0.0
144 ; 1.2553873485397404E7 ; 2.0287944001348794E8 ; 1.8369251825787504E9 ; 2.7449702084862625E10 ; 0.0
145 ; 1.252793839699466E7 ; 2.0289399970146883E8 ; 1.8494790560641477E9 ; 2.7652581524876114E10 ; 0.0
146 ; 1.2506821605836082E7 ; 2.0290853040735152E8 ; 1.8620069944611423E9 ; 2.7855475524577583E10 ; 0.0
147 ; 1.2480680943848731E7 ; 2.0292303151540217E8 ; 1.8745138160669785E9 ; 2.8058384054984936E10 ; 0.0
148 ; 1.245458508180467E7 ; 2.0293750241859066E8 ; 1.8869944970108273E9 ; 2.826130708650034E10 ; 0.0
149 ; 1.2430860685926935E7 ; 2.0295194251836732E8 ; 1.899449082092632E9 ; 2.846424458891893E10 ; 0.0
150 ; 1.2407945969975105E7 ; 2.0296635122444707E8 ; 1.911879942778559E9 ; 2.8667196531437298E10 ; 0.0
151 ; 1.2382098189157085E7 ; 2.0298072795460087E8 ; 1.924287888748534E9 ; 2.8870162882661743E10 ; 0.0
152 ; 1.2358880487393718E7 ; 2.0299507213445452E8 ; 1.936669986937691E9 ; 2.9073143610616344E10 ; 0.0
153 ; 1.2333237017637666E7 ; 2.0300938319729406E8 ; 1.9490288674250846E9 ; 2.9276138682750797E10 ; 0.0
154 ; 1.230811254652576E7 ; 2.0302366058387792E8 ; 1.9613621044427223E9 ; 2.947914806594809E10 ; 0.0
155 ; 1.2282946414899481E7 ; 2.0303790374225524E8 ; 1.973670216989248E9 ; 2.9682171726531967E10 ; 0.0
156 ; 1.2264500226610428E7 ; 2.0305211212759045E8 ; 1.9859531634041476E9 ; 2.9885209630274223E10 ; 0.0
157 ; 1.2241144434644662E7 ; 2.0306628520199367E8 ; 1.998217663630758E9 ; 3.0088261742401814E10 ; 0.0
158 ; 1.2214984103148777E7 ; 2.030804224343569E8 ; 2.0104588080654027E9 ; 3.0291328027603806E10 ; 0.0
159 ; 1.2188749645984782E7 ; 2.0309452330019543E8 ; 2.0226737921685514E9 ; 3.0494408450038162E10 ; 0.0
160 ; 1.2161501540266793E7 ; 2.0310858728149483E8 ; 2.0348625418145363E9 ; 3.0697502973338356E10 ; 0.0
161 ; 1.2136200690311281E7 ; 2.0312261386656275E8 ; 2.047024043354803E9 ; 3.090061156061985E10 ; 0.0
162 ; 1.2112095776091972E7 ; 2.0313660254988593E8 ; 2.0591602440451143E9 ; 3.1103734174486412E10 ; 0.0
163 ; 1.2088134695439687E7 ; 2.031505528319916E8 ; 2.0712723398212063E9 ; 3.1306870777036297E10 ; 0.0
164 ; 1.2065350970560083E7 ; 2.0316446421931374E8 ; 2.083360474516646E9 ; 3.151002132986829E10 ; 0.0
165 ; 1.2036924721864486E7 ; 2.0317833622406343E8 ; 2.095425825487206E9 ; 3.1713185794087605E10 ; 0.0
166 ; 1.2013868782365864E7 ; 2.0319216836410373E8 ; 2.1074627502090704E9 ; 3.191636413031167E10 ; 0.0
167 ; 1.1990362333685879E7 ; 2.0320596016282862E8 ; 2.1194766189914362E9 ; 3.2119556298675774E10 ; 0.0
168 ; 1.1963783492572872E7 ; 2.032197111490456E8 ; 2.131466981325122E9 ; 3.2322762258838604E10 ; 0.0
169 ; 1.1937609060948465E7 ; 2.0323342085686243E8 ; 2.143430764817695E9 ; 3.2525981969987648E10 ; 0.0
170 ; 1.1913353036546355E7 ; 2.032470888255774E8 ; 2.1553683738786435E9 ; 3.272921539084451E10 ; 0.0
171 ; 1.1887386926066432E7 ; 2.0326071459957317E8 ; 2.1672817269151897E9 ; 3.2932462479670086E10 ; 0.0
172 ; 1.186529344856457E7 ; 2.0327429772821388E8 ; 2.179169113841256E9 ; 3.313572319426966E10 ; 0.0
173 ; 1.1838321347985364E7 ; 2.0328783776574594E8 ; 2.1910344072898207E9 ; 3.3338997491997875E10 ; 0.0
174 ; 1.1817963803948224E7 ; 2.0330133427120167E8 ; 2.202872728637806E9 ; 3.3542285329763622E10 ; 0.0
175 ; 1.1793486332052078E7 ; 2.0331478680830607E8 ; 2.2146906924417543E9 ; 3.3745586664034824E10 ; 0.0
176 ; 1.1774843821015323E7 ; 2.0332819494538668E8 ; 2.2264841787738066E9 ; 3.3948901450843132E10 ; 0.0
177 ; 1.1752338417597672E7 ; 2.0334155825528622E8 ; 2.238259022594822E9 ; 3.4152229645788517E10 ; 0.0
178 ; 1.1725259552127026E7 ; 2.033548763152781E8 ; 2.2500113610124197E9 ; 3.4355571204043804E10 ; 0.0
179 ; 1.1707872931258628E7 ; 2.0336814870698446E8 ; 2.2617366205645466E9 ; 3.4558926080359085E10 ; 0.0
180 ; 1.1685186320828913E7 ; 2.0338137501629692E8 ; 2.2734444934958053E9 ; 3.476229422906607E10 ; 0.0
181 ; 1.166400316849994E7 ; 2.0339455483329976E8 ; 2.285129679816634E9 ; 3.496567560408237E10 ; 0.0
182 ; 1.1645034456223713E7 ; 2.0340768775219554E8 ; 2.296793682985134E9 ; 3.5169070158915665E10 ; 0.0
183 ; 1.1620141760075118E7 ; 2.0342077337123314E8 ; 2.3084387174413576E9 ; 3.537247784666786E10 ; 0.0
184 ; 1.1599552470997127E7 ; 2.0343381129263777E8 ; 2.3200588592014327E9 ; 3.557589862003909E10 ; 0.0
185 ; 1.1573040783148345E7 ; 2.034468011225436E8 ; 2.33165841167243E9 ; 3.577933243133173E10 ; 0.0
186 ; 1.155604692288421E7 ; 2.0345974247092807E8 ; 2.3432314524555783E9 ; 3.598277923245428E10 ; 0.0
187 ; 1.152952659672079E7 ; 2.034726349515485E8 ; 2.3547874993784623E9 ; 3.61862389749252E10 ; 0.0
188 ; 1.1513179564872978E7 ; 2.0348547818188056E8 ; 2.366317025975183E9 ; 3.638971160987675E10 ; 0.0
189 ; 1.1490575796691587E7 ; 2.034982717830587E8 ; 2.3778302055400558E9 ; 3.6593197088058624E10 ; 0.0
190 ; 1.1469853390321186E7 ; 2.0351101537981832E8 ; 2.389320781336747E9 ; 3.679669535984168E10 ; 0.0
191 ; 1.1445397915045535E7 ; 2.035237086004399E8 ; 2.4007906347270684E9 ; 3.7000206375221504E10 ; 0.0
192 ; 1.1425277377516914E7 ; 2.0353635107669464E8 ; 2.412236032642114E9 ; 3.7203730083821945E10 ; 0.0
193 ; 1.1405587463143848E7 ; 2.0354894244379193E8 ; 2.423661310019631E9 ; 3.740726643489864E10 ; 0.0
194 ; 1.1380484426029198E7 ; 2.0356148234032825E8 ; 2.4350668974827747E9 ; 3.761081537734244E10 ; 0.0
195 ; 1.136105456779711E7 ; 2.03573970408238E8 ; 2.446447381908804E9 ; 3.781437685968277E10 ; 0.0
