CSV File for the City 2 on Day 238
1 - Minute m 
2 - Power Consumed at minute m 
3 - Power Produced at minute m 
4 - Energy Consumed since the beginning of the day 
5 - Energy Produced since the beginning of the day 
6 - Energy Lost since the beginning of the day on lines starting from the city
 
0 ; 234852.51511914414 ; 1.0518686093805179E8 ; 0.0 ; 0.0 ; 0.0
1 ; 237974.93203768562 ; 1.0534042263840306E8 ; 234852.51511914414 ; 1.0518686093805179E8 ; 0.0
2 ; 239549.41521502013 ; 1.0580268577451238E8 ; 472827.44715682976 ; 2.1052728357645485E8 ; 0.0
3 ; 240681.12385713638 ; 1.06573655731709E8 ; 712376.8623718498 ; 3.163299693509672E8 ; 0.0
4 ; 243487.05608760318 ; 1.076533379644385E8 ; 953057.9862289862 ; 4.2290362508267623E8 ; 0.0
5 ; 248210.64983236635 ; 1.0904173784123129E8 ; 1196545.0423165893 ; 5.3055696304711473E8 ; 0.0
6 ; 252988.26028279474 ; 1.1073886045536157E8 ; 1444755.6921489555 ; 6.39598700888346E8 ; 0.0
7 ; 257880.4761986042 ; 1.127447104099797E8 ; 1697743.9524317503 ; 7.503375613437076E8 ; 0.0
8 ; 269383.92672536464 ; 1.1505929159328604E8 ; 1955624.4286303543 ; 8.630822717536873E8 ; 0.0
9 ; 282097.43554007483 ; 1.1768260696526611E8 ; 2225008.355355719 ; 9.781415633469733E8 ; 0.0
10 ; 302924.2185087409 ; 1.206146583806566E8 ; 2507105.790895794 ; 1.0958241703122394E9 ; 0.0
11 ; 339006.1305329217 ; 1.2385544647143897E8 ; 2810030.009404535 ; 1.216438828692896E9 ; 0.0
12 ; 392657.5664312657 ; 1.2740497060563174E8 ; 3149036.1399374567 ; 1.3402942751643348E9 ; 0.0
13 ; 444053.4921162195 ; 1.3126322892849821E8 ; 3541693.7063687225 ; 1.4676992457699666E9 ; 0.0
14 ; 451267.4552336808 ; 1.3543021848005295E8 ; 3985747.198484942 ; 1.5989624746984649E9 ; 0.0
15 ; 453787.9243573745 ; 1.3990593537209547E8 ; 4437014.653718622 ; 1.7343926931785178E9 ; 0.0
16 ; 456653.9790850821 ; 1.4469037500147554E8 ; 4890802.578075997 ; 1.8742986285506134E9 ; 0.0
17 ; 458774.5542140359 ; 1.4978353227491888E8 ; 5347456.557161079 ; 2.018989003552089E9 ; 0.0
18 ; 462394.45821897266 ; 1.551854018238951E8 ; 5806231.111375115 ; 2.168772535827008E9 ; 0.0
19 ; 464129.39604448 ; 1.608959781939586E8 ; 6268625.569594087 ; 2.3239579376509027E9 ; 0.0
20 ; 467345.4615846866 ; 1.6691525599978015E8 ; 6732754.965638567 ; 2.4848539158448615E9 ; 0.0
21 ; 470755.5786756158 ; 1.7324323004314712E8 ; 7200100.427223253 ; 2.6517691718446417E9 ; 0.0
22 ; 472082.6270259364 ; 1.7987989539571172E8 ; 7670856.005898869 ; 2.825012401887789E9 ; 0.0
23 ; 476124.1269596424 ; 1.8682524745100695E8 ; 8142938.632924805 ; 3.0048922972835007E9 ; 0.0
24 ; 477914.9871394061 ; 1.940792819514773E8 ; 8619062.759884447 ; 3.1917175447345076E9 ; 0.0
25 ; 481925.4084489996 ; 2.0033003589458108E8 ; 9096977.747023853 ; 3.3857968266859846E9 ; 0.0
26 ; 484016.82104854606 ; 2.0033105356383002E8 ; 9578903.155472852 ; 3.5861268625805655E9 ; 0.0
27 ; 486441.73497629917 ; 2.0033210103853932E8 ; 1.0062919976521399E7 ; 3.7864579161443954E9 ; 0.0
28 ; 488747.4683129981 ; 2.0033317541969237E8 ; 1.0549361711497698E7 ; 3.9867900171829348E9 ; 0.0
29 ; 492001.05360382365 ; 2.0033427409918758E8 ; 1.1038109179810695E7 ; 4.1871231926026273E9 ; 0.0
30 ; 493791.6254000977 ; 2.0033539473466435E8 ; 1.153011023341452E7 ; 4.387457466701815E9 ; 0.0
31 ; 496107.6169435062 ; 2.0033653522446477E8 ; 1.2023901858814618E7 ; 4.587792861436479E9 ; 0.0
32 ; 500392.971175018 ; 2.003376936835823E8 ; 1.2520009475758124E7 ; 4.788129396660943E9 ; 0.0
33 ; 500887.30801879504 ; 2.0033886842110682E8 ; 1.3020402446933143E7 ; 4.988467090344525E9 ; 0.0
34 ; 503702.6443727388 ; 2.0034005791943404E8 ; 1.3521289754951937E7 ; 5.188805958765633E9 ; 0.0
35 ; 505649.3902762976 ; 2.0034126081534106E8 ; 1.4024992399324676E7 ; 5.389146016685066E9 ; 0.0
36 ; 510061.98140820104 ; 2.0034247588291955E8 ; 1.4530641789600974E7 ; 5.589487277500407E9 ; 0.0
37 ; 510865.09476068296 ; 2.003437020182899E8 ; 1.5040703771009175E7 ; 5.789829753383327E9 ; 0.0
38 ; 513796.62994371547 ; 2.0034493822597963E8 ; 1.5551568865769858E7 ; 5.990173455401616E9 ; 0.0
39 ; 515089.62976450205 ; 2.0034618360682952E8 ; 1.6065365495713573E7 ; 6.190518393627596E9 ; 0.0
40 ; 516537.0372913665 ; 2.003474373472838E8 ; 1.6580455125478076E7 ; 6.390864577234426E9 ; 0.0
41 ; 517994.63385981834 ; 2.0034869870992288E8 ; 1.709699216276944E7 ; 6.591212014581709E9 ; 0.0
42 ; 520591.48667061183 ; 2.0034996702510324E8 ; 1.7614986796629258E7 ; 6.791560713291632E9 ; 0.0
43 ; 522749.2813674377 ; 2.0035124168357918E8 ; 1.813557828329987E7 ; 6.991910680316735E9 ; 0.0
44 ; 523148.17444659234 ; 2.0035252212999192E8 ; 1.8658327564667307E7 ; 7.192261922000315E9 ; 0.0
45 ; 525842.4168137674 ; 2.003538078571227E8 ; 1.91814757391139E7 ; 7.392614444130306E9 ; 0.0
46 ; 526532.8984197528 ; 2.003550984008178E8 ; 1.970731815592767E7 ; 7.592968251987429E9 ; 0.0
47 ; 528819.2344465648 ; 2.0035639333550355E8 ; 2.0233851054347422E7 ; 7.793323350388247E9 ; 0.0
48 ; 528816.1226256408 ; 2.0035769227021945E8 ; 2.076267028879399E7 ; 7.99367974372375E9 ; 0.0
49 ; 530798.857881644 ; 2.0035899484510553E8 ; 2.129148641141963E7 ; 8.19403743599397E9 ; 0.0
50 ; 532212.6012719742 ; 2.003603007282888E8 ; 2.1822285269301273E7 ; 8.394396430839075E9 ; 0.0
51 ; 532923.7651855511 ; 2.0036160961311978E8 ; 2.235449787057325E7 ; 8.594756731567364E9 ; 0.0
52 ; 535486.3517343679 ; 2.0036292121571642E8 ; 2.28874216357588E7 ; 8.795118341180483E9 ; 0.0
53 ; 535716.0808431285 ; 2.0036423527277878E8 ; 2.3422907987493165E7 ; 8.9954812623962E9 ; 0.0
54 ; 536028.069326287 ; 2.0036555153964135E8 ; 2.3958624068336293E7 ; 9.19584549766898E9 ; 0.0
55 ; 538172.5945588629 ; 2.0036686978853494E8 ; 2.449465213766258E7 ; 9.39621104920862E9 ; 0.0
56 ; 539386.8566340125 ; 2.0036818980703372E8 ; 2.503282473222144E7 ; 9.596577918997154E9 ; 0.0
57 ; 538661.3905713202 ; 2.0036951139666495E8 ; 2.5572211588855453E7 ; 9.796946108804188E9 ; 0.0
58 ; 540125.5563069124 ; 2.0037083437166327E8 ; 2.611087297942677E7 ; 9.997315620200853E9 ; 0.0
59 ; 540258.5550643806 ; 2.003721585578526E8 ; 2.6650998535733685E7 ; 1.0197686454572517E10 ; 0.0
60 ; 541574.884958763 ; 2.00373483791641E8 ; 2.7191257090798065E7 ; 1.039805861313037E10 ; 0.0
61 ; 543050.916922425 ; 2.0037480991911623E8 ; 2.7732831975756828E7 ; 1.059843209692201E10 ; 0.0
62 ; 542655.5289105969 ; 2.0037613679523024E8 ; 2.827588289267925E7 ; 1.0798806906841127E10 ; 0.0
63 ; 544830.4645183836 ; 2.0037746428306347E8 ; 2.8818538421589848E7 ; 1.0999183043636358E10 ; 0.0
64 ; 544786.3233764839 ; 2.0037879225315943E8 ; 2.936336888610823E7 ; 1.1199560507919422E10 ; 0.0
65 ; 546148.4120585066 ; 2.0038012058292297E8 ; 2.9908155209484715E7 ; 1.139993930017258E10 ; 0.0
66 ; 546842.795647461 ; 2.003814491560744E8 ; 3.045430362154322E7 ; 1.1600319420755505E10 ; 0.0
67 ; 547739.842307489 ; 2.0038277786215484E8 ; 3.1001146417190682E7 ; 1.180070086991158E10 ; 0.0
68 ; 548229.4748000919 ; 2.00384106596076E8 ; 3.154888625949817E7 ; 1.2001083647773733E10 ; 0.0
69 ; 549168.1050394602 ; 2.003854352577113E8 ; 3.2097115734298263E7 ; 1.2201467754369808E10 ; 0.0
70 ; 550483.0595407721 ; 2.0038676375152287E8 ; 3.264628383933772E7 ; 1.240185318962752E10 ; 0.0
71 ; 550160.6807945718 ; 2.0038809198622185E8 ; 3.3196766898878492E7 ; 1.2602239953379042E10 ; 0.0
72 ; 551387.1545001363 ; 2.0038941987445793E8 ; 3.374692757967307E7 ; 1.2802628045365263E10 ; 0.0
73 ; 552268.7656244844 ; 2.0039074733253554E8 ; 3.42983147341732E7 ; 1.3003017465239721E10 ; 0.0
74 ; 553052.9422676755 ; 2.0039207428015438E8 ; 3.485058349979769E7 ; 1.3203408212572256E10 ; 0.0
75 ; 554481.877284221 ; 2.003934006401715E8 ; 3.5403636442065366E7 ; 1.3403800286852411E10 ; 0.0
76 ; 554803.7124709265 ; 2.0039472633838308E8 ; 3.595811831934959E7 ; 1.3604193687492582E10 ; 0.0
77 ; 554787.5617261024 ; 2.0039605130332407E8 ; 3.651292203182051E7 ; 1.3804588413830965E10 ; 0.0
78 ; 555039.2294522756 ; 2.0039737546608418E8 ; 3.7067709593546614E7 ; 1.4004984465134289E10 ; 0.0
79 ; 556047.7750049591 ; 2.0039869876013848E8 ; 3.762274882299889E7 ; 1.4205381840600372E10 ; 0.0
80 ; 553850.8491455896 ; 2.0040002112119126E8 ; 3.817879659800385E7 ; 1.440578053936051E10 ; 0.0
81 ; 555184.4627996086 ; 2.0040134248703226E8 ; 3.873264744714944E7 ; 1.46061805604817E10 ; 0.0
82 ; 555506.1957797296 ; 2.0040266279740405E8 ; 3.928783190994905E7 ; 1.4806581902968733E10 ; 0.0
83 ; 554953.7463874076 ; 2.0040398199387926E8 ; 3.9843338105728775E7 ; 1.5006984565766136E10 ; 0.0
84 ; 555780.9498695977 ; 2.0040530001974735E8 ; 4.039829185211618E7 ; 1.5207388547760015E10 ; 0.0
85 ; 555450.1774026759 ; 2.0040661681990975E8 ; 4.095407280198578E7 ; 1.5407793847779762E10 ; 0.0
86 ; 554980.4782787386 ; 2.0040793234078273E8 ; 4.150952297938845E7 ; 1.5608200464599672E10 ; 0.0
87 ; 555753.7360497147 ; 2.0040924653020734E8 ; 4.2064503457667194E7 ; 1.5808608396940454E10 ; 0.0
88 ; 554880.024428491 ; 2.0041055933736584E8 ; 4.2620257193716906E7 ; 1.6009017643470661E10 ; 0.0
89 ; 553998.347369152 ; 2.004118707127043E8 ; 4.31751372181454E7 ; 1.6209428202808027E10 ; 0.0
90 ; 554459.0757189387 ; 2.0041318060786042E8 ; 4.372913556551455E7 ; 1.6409840073520731E10 ; 0.0
91 ; 554758.1651016641 ; 2.0041448897559664E8 ; 4.428359464123349E7 ; 1.6610253254128592E10 ; 0.0
92 ; 554312.195477631 ; 2.0041579576973757E8 ; 4.483835280633515E7 ; 1.6810667743104189E10 ; 0.0
93 ; 554238.954603939 ; 2.004171009451122E8 ; 4.5392665001812786E7 ; 1.7011083538873926E10 ; 0.0
94 ; 553204.6606587179 ; 2.0041840445749947E8 ; 4.5946903956416726E7 ; 1.721150063981904E10 ; 0.0
95 ; 551513.583719648 ; 2.00419706263578E8 ; 4.650010861707544E7 ; 1.741191904427654E10 ; 0.0
96 ; 552934.0411275796 ; 2.0042100632087886E8 ; 4.705162220079509E7 ; 1.7612338750540115E10 ; 0.0
97 ; 553181.63167751 ; 2.0042230458774155E8 ; 4.760455624192267E7 ; 1.7812759756860992E10 ; 0.0
98 ; 553062.5005331832 ; 2.0042360102327293E8 ; 4.815773787360018E7 ; 1.8013182061448734E10 ; 0.0
99 ; 551297.941534008 ; 2.0042489558730868E8 ; 4.871080037413336E7 ; 1.8213605662472008E10 ; 0.0
100 ; 551715.9543352406 ; 2.004261882403773E8 ; 4.926209831566737E7 ; 1.8414030558059315E10 ; 0.0
101 ; 551247.80160804 ; 2.0042747894366643E8 ; 4.981381427000261E7 ; 1.861445674629969E10 ; 0.0
102 ; 550442.8942614944 ; 2.004287676589912E8 ; 5.036506207161065E7 ; 1.8814884225243355E10 ; 0.0
103 ; 550377.3318819246 ; 2.004300543487647E8 ; 5.0915504965872146E7 ; 1.9015312992902348E10 ; 0.0
104 ; 551698.0425365757 ; 2.004313389759701E8 ; 5.146588229775407E7 ; 1.9215743047251114E10 ; 0.0
105 ; 549989.306570101 ; 2.0043262150413463E8 ; 5.201758034029065E7 ; 1.9416174386227085E10 ; 0.0
106 ; 551043.1383588635 ; 2.0043390189730507E8 ; 5.256756964686075E7 ; 1.961660700773122E10 ; 0.0
107 ; 550842.5485373951 ; 2.0043518012002477E8 ; 5.311861278521961E7 ; 1.9817040909628525E10 ; 0.0
108 ; 549674.9499553563 ; 2.0043645613731188E8 ; 5.3669455333757006E7 ; 2.001747608974855E10 ; 0.0
109 ; 548057.4188001237 ; 2.0043772991463923E8 ; 5.4219130283712365E7 ; 2.021791254588586E10 ; 0.0
110 ; 546460.6483888483 ; 2.0043900141791496E8 ; 5.476718770251249E7 ; 2.04183502758005E10 ; 0.0
111 ; 548883.7789388198 ; 2.0044027061346453E8 ; 5.5313648350901335E7 ; 2.0618789277218414E10 ; 0.0
112 ; 546899.3436772609 ; 2.004415374680139E8 ; 5.586253212984016E7 ; 2.081922954783188E10 ; 0.0
113 ; 547095.8634821828 ; 2.004428019486733E8 ; 5.640943147351742E7 ; 2.1019671085299892E10 ; 0.0
114 ; 546608.9681426209 ; 2.0044406402292225E8 ; 5.69565273369996E7 ; 2.1220113887248566E10 ; 0.0
115 ; 545958.2418874681 ; 2.0044532365859526E8 ; 5.7503136305142224E7 ; 2.142055795127149E10 ; 0.0
116 ; 543863.6656021875 ; 2.004465808238685E8 ; 5.804909454702969E7 ; 2.1621003274930084E10 ; 0.0
117 ; 546373.715133568 ; 2.0044783548724702E8 ; 5.8592958212631874E7 ; 2.1821449855753952E10 ; 0.0
118 ; 543572.0115349549 ; 2.0044908761755273E8 ; 5.9139331927765444E7 ; 2.20218976912412E10 ; 0.0
119 ; 544233.5627244522 ; 2.0045033718391323E8 ; 5.9682903939300396E7 ; 2.2222346778858753E10 ; 0.0
120 ; 544302.1091044823 ; 2.00451584155751E8 ; 6.0227137502024844E7 ; 2.2422797116042667E10 ; 0.0
121 ; 541271.7652232093 ; 2.004528285027732E8 ; 6.077143961112933E7 ; 2.2623248700198418E10 ; 0.0
122 ; 541381.9881128599 ; 2.0045407019496238E8 ; 6.131271137635254E7 ; 2.282370152870119E10 ; 0.0
123 ; 541755.1616602378 ; 2.0045530920256713E8 ; 6.18540933644654E7 ; 2.3024155598896152E10 ; 0.0
124 ; 539806.6423864025 ; 2.004565454960937E8 ; 6.239584852612564E7 ; 2.322461090809872E10 ; 0.0
125 ; 539687.1927672611 ; 2.004577790462977E8 ; 6.293565516851204E7 ; 2.3425067453594814E10 ; 0.0
126 ; 538963.0754103081 ; 2.0045900982417667E8 ; 6.34753423612793E7 ; 2.3625525232641113E10 ; 0.0
127 ; 538981.9179118768 ; 2.004602378009626E8 ; 6.401430543668961E7 ; 2.382598424246529E10 ; 0.0
128 ; 535618.2555459035 ; 2.0046146294811502E8 ; 6.455328735460149E7 ; 2.4026444480266254E10 ; 0.0
129 ; 536550.1031737068 ; 2.0046268523731467E8 ; 6.5088905610147394E7 ; 2.422690594321437E10 ; 0.0
130 ; 536726.7235146232 ; 2.00463904640457E8 ; 6.5625455713321105E7 ; 2.4427368628451687E10 ; 0.0
131 ; 534612.9971884162 ; 2.0046512112964654E8 ; 6.616218243683573E7 ; 2.4627832533092144E10 ; 0.0
132 ; 533922.0430642954 ; 2.004663346771912E8 ; 6.669679543402415E7 ; 2.482829765422179E10 ; 0.0
133 ; 532224.736423165 ; 2.0046754525559697E8 ; 6.723071747708844E7 ; 2.5028763988898983E10 ; 0.0
134 ; 530903.8006971861 ; 2.0046875283756292E8 ; 6.77629422135116E7 ; 2.522923153415458E10 ; 0.0
135 ; 528518.4298038101 ; 2.0046995739597645E8 ; 6.82938460142088E7 ; 2.542970028699214E10 ; 0.0
136 ; 528794.8041800162 ; 2.0047115890390873E8 ; 6.88223644440126E7 ; 2.563017024438812E10 ; 0.0
137 ; 525987.592959265 ; 2.0047235733461037E8 ; 6.935115924819261E7 ; 2.5830641403292027E10 ; 0.0
138 ; 523643.6139378158 ; 2.004735526615074E8 ; 6.987714684115188E7 ; 2.6031113760626637E10 ; 0.0
139 ; 522246.2253238833 ; 2.0047474485819736E8 ; 7.040079045508969E7 ; 2.6231587313288143E10 ; 0.0
140 ; 522274.4192471727 ; 2.0047593389844555E8 ; 7.092303668041357E7 ; 2.643206205814634E10 ; 0.0
141 ; 520164.67474425083 ; 2.0047711975618166E8 ; 7.144531109966074E7 ; 2.6632537992044785E10 ; 0.0
142 ; 519438.16012911306 ; 2.0047830240549627E8 ; 7.196547577440499E7 ; 2.6833015111800964E10 ; 0.0
143 ; 517240.50835284864 ; 2.0047948182063782E8 ; 7.24849139345341E7 ; 2.703349341420646E10 ; 0.0
144 ; 515424.33274152444 ; 2.0048065797600958E8 ; 7.300215444288695E7 ; 2.7233972896027096E10 ; 0.0
145 ; 514465.9857118173 ; 2.004818308461667E8 ; 7.351757877562848E7 ; 2.7434453554003105E10 ; 0.0
146 ; 512922.6656429213 ; 2.0048300040581357E8 ; 7.403204476134029E7 ; 2.7634935384849274E10 ; 0.0
147 ; 512450.4970356717 ; 2.004841666298012E8 ; 7.454496742698321E7 ; 2.783541838525509E10 ; 0.0
148 ; 512351.33154750697 ; 2.004853294931248E8 ; 7.505741792401887E7 ; 2.803590255188489E10 ; 0.0
149 ; 509795.7185510212 ; 2.0048648897092143E8 ; 7.556976925556639E7 ; 2.8236387881378017E10 ; 0.0
150 ; 509862.0039302506 ; 2.0048764503846765E8 ; 7.607956497411741E7 ; 2.8436874370348938E10 ; 0.0
151 ; 509984.7494811213 ; 2.004887976711776E8 ; 7.658942697804767E7 ; 2.8637362015387405E10 ; 0.0
152 ; 509572.30048442556 ; 2.0048994684460092E8 ; 7.70994117275288E7 ; 2.8837850813058582E10 ; 0.0
153 ; 509052.6754421704 ; 2.004910925344208E8 ; 7.760898402801321E7 ; 2.9038340759903183E10 ; 0.0
154 ; 507043.8623252052 ; 2.004922347164521E8 ; 7.811803670345539E7 ; 2.9238831852437603E10 ; 0.0
155 ; 506417.08287965733 ; 2.004933733666398E8 ; 7.86250805657806E7 ; 2.9439324087154057E10 ; 0.0
156 ; 506784.85279827827 ; 2.0049450846105725E8 ; 7.913149764866026E7 ; 2.9639817460520695E10 ; 0.0
157 ; 504645.6306048641 ; 2.0049563997590455E8 ; 7.963828250145854E7 ; 2.984031196898175E10 ; 0.0
158 ; 505062.0275806658 ; 2.0049676788750723E8 ; 8.01429281320634E7 ; 3.0040807608957657E10 ; 0.0
159 ; 504136.79459177214 ; 2.0049789217231464E8 ; 8.064799015964407E7 ; 3.0241304376845165E10 ; 0.0
160 ; 503644.7911147468 ; 2.0049901280689877E8 ; 8.115212695423584E7 ; 3.044180226901748E10 ; 0.0
161 ; 503165.1220408031 ; 2.0050012976795295E8 ; 8.165577174535058E7 ; 3.064230128182438E10 ; 0.0
162 ; 502164.2675238021 ; 2.0050124303229052E8 ; 8.21589368673914E7 ; 3.084280141159233E10 ; 0.0
163 ; 500186.8656336473 ; 2.005023525768438E8 ; 8.266110113491519E7 ; 3.1043302654624622E10 ; 0.0
164 ; 501076.23818526615 ; 2.00503458378663E8 ; 8.316128800054884E7 ; 3.1243805007201466E10 ; 0.0
165 ; 498945.9466012593 ; 2.0050456041491514E8 ; 8.366236423873411E7 ; 3.1444308465580128E10 ; 0.0
166 ; 498504.44118319935 ; 2.005056586628831E8 ; 8.416131018533537E7 ; 3.1644813025995045E10 ; 0.0
167 ; 497984.8057314772 ; 2.0050675309996462E8 ; 8.465981462651856E7 ; 3.184531868465793E10 ; 0.0
168 ; 497372.54987526697 ; 2.005078437036715E8 ; 8.515779943225004E7 ; 3.2045825437757893E10 ; 0.0
169 ; 496514.5733834929 ; 2.0050893045162874E8 ; 8.565517198212531E7 ; 3.2246333281461563E10 ; 0.0
170 ; 494544.2560057972 ; 2.0051001332157373E8 ; 8.61516865555088E7 ; 3.2446842211913193E10 ; 0.0
171 ; 495049.6161731451 ; 2.0051109229135552E8 ; 8.66462308115146E7 ; 3.2647352225234768E10 ; 0.0
172 ; 494155.1431444178 ; 2.0051216733893412E8 ; 8.714128042768775E7 ; 3.2847863317526123E10 ; 0.0
173 ; 492563.82566549536 ; 2.0051323844237977E8 ; 8.763543557083216E7 ; 3.304837548486506E10 ; 0.0
174 ; 493641.1118139485 ; 2.0051430557987237E8 ; 8.812799939649765E7 ; 3.3248888723307438E10 ; 0.0
175 ; 492043.41456361115 ; 2.0051536872970086E8 ; 8.86216405083116E7 ; 3.344940302888731E10 ; 0.0
176 ; 491042.6527055704 ; 2.0051642787026265E8 ; 8.911368392287521E7 ; 3.3649918397617012E10 ; 0.0
177 ; 491065.6883858798 ; 2.005174829800631E8 ; 8.960472657558078E7 ; 3.3850434825487274E10 ; 0.0
178 ; 489703.02690620424 ; 2.0051853403771502E8 ; 9.009579226396665E7 ; 3.405095230846734E10 ; 0.0
179 ; 489876.54329742206 ; 2.0051958102193817E8 ; 9.058549529087286E7 ; 3.4251470842505054E10 ; 0.0
180 ; 488985.5061779193 ; 2.005206239115588E8 ; 9.107537183417028E7 ; 3.445199042352699E10 ; 0.0
181 ; 489731.61555915157 ; 2.0052166268550938E8 ; 9.15643573403482E7 ; 3.465251104743855E10 ; 0.0
182 ; 489903.95324692334 ; 2.0052269732282797E8 ; 9.205408895590734E7 ; 3.485303271012406E10 ; 0.0
183 ; 486620.06992480165 ; 2.0052372780265808E8 ; 9.254399290915427E7 ; 3.505355540744689E10 ; 0.0
184 ; 486015.8421772683 ; 2.005247541042482E8 ; 9.303061297907907E7 ; 3.525407913524955E10 ; 0.0
185 ; 486441.7315598301 ; 2.0052577620695147E8 ; 9.351662882125634E7 ; 3.54546038893538E10 ; 0.0
186 ; 485267.41491936415 ; 2.0052679409022552E8 ; 9.400307055281617E7 ; 3.565512966556075E10 ; 0.0
187 ; 483246.19085050566 ; 2.0052780773363197E8 ; 9.448833796773553E7 ; 3.585565645965098E10 ; 0.0
188 ; 484968.6486311157 ; 2.0052881711683646E8 ; 9.497158415858604E7 ; 3.605618426738461E10 ; 0.0
189 ; 483601.4211290176 ; 2.0052982221960813E8 ; 9.545655280721715E7 ; 3.625671308450145E10 ; 0.0
190 ; 483849.7163410907 ; 2.005308230218196E8 ; 9.594015422834617E7 ; 3.6457242906721054E10 ; 0.0
191 ; 481991.2031150923 ; 2.0053181950344664E8 ; 9.642400394468726E7 ; 3.6657773729742874E10 ; 0.0
192 ; 481582.6205217439 ; 2.0053281164456812E8 ; 9.690599514780235E7 ; 3.685830554924632E10 ; 0.0
193 ; 481162.9818005802 ; 2.0053379942536566E8 ; 9.738757776832409E7 ; 3.705883836089089E10 ; 0.0
194 ; 481072.776180678 ; 2.005347828261237E8 ; 9.786874075012468E7 ; 3.725937216031626E10 ; 0.0
195 ; 480505.1728158156 ; 2.0053576182722923E8 ; 9.834981352630536E7 ; 3.745990694314239E10 ; 0.0
196 ; 479846.37979995913 ; 2.0053673640917158E8 ; 9.883031869912118E7 ; 3.766044270496962E10 ; 0.0
197 ; 480398.6243253431 ; 2.005377065525425E8 ; 9.931016507892114E7 ; 3.786097944137879E10 ; 0.0
198 ; 478419.02715376276 ; 2.0053867223803598E8 ; 9.979056370324649E7 ; 3.8061517147931335E10 ; 0.0
199 ; 477712.90957766405 ; 2.0053963344644818E8 ; 1.0026898273040025E8 ; 3.826205582016937E10 ; 0.0
200 ; 477174.5979896241 ; 2.0054059015867725E8 ; 1.0074669563997792E8 ; 3.846259545361582E10 ; 0.0
201 ; 475924.1070851975 ; 2.0054154235572347E8 ; 1.0122387023796754E8 ; 3.86631360437745E10 ; 0.0
