CSV File for the City 1 on Day 354
1 - Minute m 
2 - Power Consumed at minute m 
3 - Power Produced at minute m 
4 - Energy Consumed since the beginning of the day 
5 - Energy Produced since the beginning of the day 
6 - Energy Lost since the beginning of the day on lines starting from the city
 
0 ; 1.6046265938992865E7 ; 1.0551381083479795E8 ; 0.0 ; 0.0 ; 0.0
1 ; 1.6058247745275082E7 ; 1.0566674642851686E8 ; 1.6046265938992865E7 ; 1.0551381083479795E8 ; 0.0
2 ; 1.6073819805908449E7 ; 1.0612846489318475E8 ; 3.2104513684267946E7 ; 2.111805572633148E8 ; 0.0
3 ; 1.6098484599649154E7 ; 1.0689896783244163E8 ; 4.8178333490176395E7 ; 3.1730902215649956E8 ; 0.0
4 ; 1.611820228237568E7 ; 1.079782566851781E8 ; 6.427681808982555E7 ; 4.242079899889412E8 ; 0.0
5 ; 1.6147438761430304E7 ; 1.0936633271697652E8 ; 8.039502037220123E7 ; 5.321862466741193E8 ; 0.0
6 ; 1.618909539830109E7 ; 1.1106319701242766E8 ; 9.654245913363154E7 ; 6.415525793910959E8 ; 0.0
7 ; 1.6240802038399395E7 ; 1.1306885046843016E8 ; 1.1273155453193264E8 ; 7.526157764035236E8 ; 0.0
8 ; 1.6318356404836867E7 ; 1.1538329378856772E8 ; 1.2897235657033204E8 ; 8.656846268719537E8 ; 0.0
9 ; 1.6434254850778826E7 ; 1.1800652747864628E8 ; 1.452907129751689E8 ; 9.810679206605215E8 ; 0.0
10 ; 1.662090242910678E7 ; 1.2093855184345794E8 ; 1.6172496782594773E8 ; 1.0990744481391678E9 ; 0.0
11 ; 1.6907429281098172E7 ; 1.2417936698481914E8 ; 1.783458702550545E8 ; 1.2200129999826257E9 ; 0.0
12 ; 1.73705940935777E7 ; 1.2772897280091342E8 ; 1.9525329953615266E8 ; 1.344192366967445E9 ; 0.0
13 ; 1.7811837831737228E7 ; 1.3158736898694867E8 ; 2.1262389362973037E8 ; 1.4719213397683582E9 ; 0.0
14 ; 1.7866113686069455E7 ; 1.3575455503711903E8 ; 2.304357314614676E8 ; 1.603508708755307E9 ; 0.0
15 ; 1.7885290232287735E7 ; 1.402305302478407E8 ; 2.4830184514753705E8 ; 1.739263263792426E9 ; 0.0
16 ; 1.790385049484991E7 ; 1.4501529372221515E8 ; 2.661871353798248E8 ; 1.8794937940402668E9 ; 0.0
17 ; 1.792894181060311E7 ; 1.501088443756515E8 ; 2.840909858746747E8 ; 2.024509087762482E9 ; 0.0
18 ; 1.7946415124634545E7 ; 1.5551118094256747E8 ; 3.0201992768527776E8 ; 2.1746179321381335E9 ; 0.0
19 ; 1.7973136150301944E7 ; 1.6122230198407242E8 ; 3.199663428099123E8 ; 2.330129113080701E9 ; 0.0
20 ; 1.7994957343451962E7 ; 1.672422058965263E8 ; 3.3793947896021426E8 ; 2.491351415064773E9 ; 0.0
21 ; 1.801564129243144E7 ; 1.7357089092085788E8 ; 3.5593443630366623E8 ; 2.6585936209612994E9 ; 0.0
22 ; 1.8030673723185614E7 ; 1.8020835515252155E8 ; 3.7395007759609765E8 ; 2.8321645118821573E9 ; 0.0
23 ; 1.8060224974119447E7 ; 1.8715459655196685E8 ; 3.9198075131928325E8 ; 3.012372867034679E9 ; 0.0
24 ; 1.8077575620923515E7 ; 1.9440961295549566E8 ; 4.100409762934027E8 ; 3.1995274635866456E9 ; 0.0
25 ; 1.8098771150700394E7 ; 2.0066144298456678E8 ; 4.281185519143262E8 ; 3.3939370765421414E9 ; 0.0
26 ; 1.812056720353513E7 ; 2.006636320939562E8 ; 4.462173230650266E8 ; 3.594598519526708E9 ; 0.0
27 ; 1.813676954468675E7 ; 2.0066594710795504E8 ; 4.643378902685617E8 ; 3.795262151620664E9 ; 0.0
28 ; 1.8161753884766124E7 ; 2.0066838547836033E8 ; 4.8247465981324846E8 ; 3.995928098728619E9 ; 0.0
29 ; 1.8179121644502793E7 ; 2.0067094458876508E8 ; 5.0063641369801456E8 ; 4.1965964842069793E9 ; 0.0
30 ; 1.820179073998567E7 ; 2.006736217653422E8 ; 5.188155353425174E8 ; 4.397267428795744E9 ; 0.0
31 ; 1.821780197891723E7 ; 2.006764142872907E8 ; 5.370173260825031E8 ; 4.597941050561086E9 ; 0.0
32 ; 1.8235633116836913E7 ; 2.0067931939687788E8 ; 5.552351280614203E8 ; 4.798617464848376E9 ; 0.0
33 ; 1.8255375980745874E7 ; 2.0068233430902305E8 ; 5.734707611782572E8 ; 4.9992967842452545E9 ; 0.0
34 ; 1.8277136557017423E7 ; 2.006854562203779E8 ; 5.917261371590031E8 ; 5.199979118554277E9 ; 0.0
35 ; 1.829148819750379E7 ; 2.006886823178697E8 ; 6.100032737160206E8 ; 5.400664574774655E9 ; 0.0
36 ; 1.8311859542494744E7 ; 2.0069200978668338E8 ; 6.282947619135244E8 ; 5.6013532570925255E9 ; 0.0
37 ; 1.8320981453524802E7 ; 2.0069543581766692E8 ; 6.466066214560192E8 ; 5.802045266879209E9 ; 0.0
38 ; 1.834207741693854E7 ; 2.0069895761415312E8 ; 6.64927602909544E8 ; 6.002740702696876E9 ; 0.0
39 ; 1.835502307807735E7 ; 2.0070257239819807E8 ; 6.832696803264825E8 ; 6.2034396603110285E9 ; 0.0
40 ; 1.8368420022590466E7 ; 2.0070627741624355E8 ; 7.016247034045599E8 ; 6.404142232709227E9 ; 0.0
41 ; 1.8381664840252593E7 ; 2.0071006994421476E8 ; 7.199931234271504E8 ; 6.60484851012547E9 ; 0.0
42 ; 1.8398300238910526E7 ; 2.0071394729207152E8 ; 7.38374788267403E8 ; 6.805558580069685E9 ; 0.0
43 ; 1.8409413462356526E7 ; 2.0071790680783272E8 ; 7.567730885063136E8 ; 7.006272527361756E9 ; 0.0
44 ; 1.8420050264853053E7 ; 2.0072194588109857E8 ; 7.751825019686701E8 ; 7.206990434169589E9 ; 0.0
45 ; 1.842953774628703E7 ; 2.0072606194609648E8 ; 7.936025522335231E8 ; 7.407712380050688E9 ; 0.0
46 ; 1.843927242522588E7 ; 2.0073025248427832E8 ; 8.120320899798101E8 ; 7.608438441996784E9 ; 0.0
47 ; 1.8448146556106918E7 ; 2.0073451502649793E8 ; 8.30471362405036E8 ; 7.809168694481063E9 ; 0.0
48 ; 1.8455966707204357E7 ; 2.0073884715479842E8 ; 8.489195089611429E8 ; 8.009903209507561E9 ; 0.0
49 ; 1.84593002927487E7 ; 2.0074324650383806E8 ; 8.673754756683472E8 ; 8.210642056662359E9 ; 0.0
50 ; 1.846720257620889E7 ; 2.007477107619847E8 ; 8.858347759610959E8 ; 8.411385303166197E9 ; 0.0
51 ; 1.8473421776284836E7 ; 2.007522376721064E8 ; 9.043019785373049E8 ; 8.61213301392818E9 ; 0.0
52 ; 1.8479000205389228E7 ; 2.0075682503208637E8 ; 9.227754003135897E8 ; 8.812885251600286E9 ; 0.0
53 ; 1.8486651467752673E7 ; 2.007614706950888E8 ; 9.41254400518979E8 ; 9.013642076632374E9 ; 0.0
54 ; 1.8490689572584767E7 ; 2.007661725696004E8 ; 9.597410519867316E8 ; 9.214403547327463E9 ; 0.0
55 ; 1.8497711130030684E7 ; 2.0077092861927214E8 ; 9.782317415593164E8 ; 9.415169719897064E9 ; 0.0
56 ; 1.850635652363096E7 ; 2.007757368625834E8 ; 9.96729452689347E8 ; 9.615940648516336E9 ; 0.0
57 ; 1.850569133547314E7 ; 2.0078059537234998E8 ; 1.015235809212978E9 ; 9.81671638537892E9 ; 0.0
58 ; 1.8511968878176223E7 ; 2.007855022750952E8 ; 1.0337415005484512E9 ; 1.001749698075127E10 ; 0.0
59 ; 1.851910400067109E7 ; 2.0079045575030258E8 ; 1.0522534694266274E9 ; 1.0218282483026365E10 ; 0.0
60 ; 1.8519677165989995E7 ; 2.0079545402956676E8 ; 1.0707725734272985E9 ; 1.0419072938776669E10 ; 0.0
61 ; 1.8523205234792773E7 ; 2.0080049539565796E8 ; 1.0892922505932884E9 ; 1.0619868392806236E10 ; 0.0
62 ; 1.8528864209928688E7 ; 2.0080557818151397E8 ; 1.1078154558280811E9 ; 1.0820668888201895E10 ; 0.0
63 ; 1.8531510894074857E7 ; 2.0081070076917282E8 ; 1.12634432003801E9 ; 1.102147446638341E10 ; 0.0
64 ; 1.8532843309747014E7 ; 2.0081586158865693E8 ; 1.1448758309320848E9 ; 1.1222285167152582E10 ; 0.0
65 ; 1.8539254630652383E7 ; 2.008210591168197E8 ; 1.1634086742418318E9 ; 1.142310102874124E10 ; 0.0
66 ; 1.8544877358685132E7 ; 2.0082629187616384E8 ; 1.1819479288724842E9 ; 1.1623922087858059E10 ; 0.0
67 ; 1.8546527230283793E7 ; 2.0083155843363923E8 ; 1.2004928062311692E9 ; 1.1824748379734222E10 ; 0.0
68 ; 1.8551925869780727E7 ; 2.0083685739942843E8 ; 1.219039333461453E9 ; 1.2025579938167862E10 ; 0.0
69 ; 1.8547232134100612E7 ; 2.008421874257258E8 ; 1.2375912593312337E9 ; 1.2226416795567291E10 ; 0.0
70 ; 1.8551958812169746E7 ; 2.0084754720551628E8 ; 1.2561384914653344E9 ; 1.2427258982993017E10 ; 0.0
71 ; 1.855625576619815E7 ; 2.008529354713589E8 ; 1.2746904502775042E9 ; 1.2628106530198534E10 ; 0.0
72 ; 1.8555640498708017E7 ; 2.00858350994179E8 ; 1.2932467060437024E9 ; 1.2828959465669893E10 ; 0.0
73 ; 1.8559282229924027E7 ; 2.0086379258207342E8 ; 1.3118023465424104E9 ; 1.3029817816664072E10 ; 0.0
74 ; 1.855870389934637E7 ; 2.0086925907913166E8 ; 1.3303616287723343E9 ; 1.3230681609246145E10 ; 0.0
75 ; 1.8557454025208063E7 ; 2.008747493642759E8 ; 1.3489203326716807E9 ; 1.3431550868325277E10 ; 0.0
76 ; 1.8562504468034636E7 ; 2.008802623501217E8 ; 1.3674777866968887E9 ; 1.3632425617689552E10 ; 0.0
77 ; 1.8568106179233316E7 ; 2.0088579698186228E8 ; 1.3860402911649234E9 ; 1.3833305880039675E10 ; 0.0
78 ; 1.8566596972484842E7 ; 2.0089135223617667E8 ; 1.4046083973441567E9 ; 1.4034191677021538E10 ; 0.0
79 ; 1.856003504796668E7 ; 2.008969271201642E8 ; 1.4231749943166416E9 ; 1.4235083029257715E10 ; 0.0
80 ; 1.8554073344580453E7 ; 2.0090252067030537E8 ; 1.4417350293646083E9 ; 1.443597995637788E10 ; 0.0
81 ; 1.8544622307955176E7 ; 2.009081319514505E8 ; 1.4602891027091887E9 ; 1.4636882477048185E10 ; 0.0
82 ; 1.8544315354051292E7 ; 2.009137600558359E8 ; 1.478833725017144E9 ; 1.4837790608999636E10 ; 0.0
83 ; 1.85381160522497E7 ; 2.0091940410212886E8 ; 1.4973780403711953E9 ; 1.5038704369055471E10 ; 0.0
84 ; 1.852868903572894E7 ; 2.009250632345007E8 ; 1.515916156423445E9 ; 1.52396237731576E10 ; 0.0
85 ; 1.852747474924395E7 ; 2.0093073662172833E8 ; 1.534444845459174E9 ; 1.5440548836392101E10 ; 0.0
86 ; 1.8521489131274443E7 ; 2.0093642345632413E8 ; 1.552972320208418E9 ; 1.564147957301383E10 ; 0.0
87 ; 1.8514634272062395E7 ; 2.0094212295369402E8 ; 1.5714938093396924E9 ; 1.5842415996470154E10 ; 0.0
88 ; 1.8508484088926584E7 ; 2.0094783435132292E8 ; 1.5900084436117547E9 ; 1.6043358119423847E10 ; 0.0
89 ; 1.8506360462015994E7 ; 2.0095355690798798E8 ; 1.6085169277006812E9 ; 1.624430595377517E10 ; 0.0
90 ; 1.8500300401091643E7 ; 2.0095928990299836E8 ; 1.6270232881626973E9 ; 1.6445259510683157E10 ; 0.0
91 ; 1.8492255333765868E7 ; 2.009650326354615E8 ; 1.645523588563789E9 ; 1.6646218800586155E10 ; 0.0
92 ; 1.8484583102580987E7 ; 2.0097078442357504E8 ; 1.6640158438975549E9 ; 1.6847183833221617E10 ; 0.0
93 ; 1.847785502067242E7 ; 2.0097654460394412E8 ; 1.682500427000136E9 ; 1.7048154617645191E10 ; 0.0
94 ; 1.846952124098085E7 ; 2.0098231253092292E8 ; 1.7009782820208082E9 ; 1.7249131162249134E10 ; 0.0
95 ; 1.846828701869776E7 ; 2.009880875759804E8 ; 1.719447803261789E9 ; 1.7450113474780056E10 ; 0.0
96 ; 1.8457947731592283E7 ; 2.0099386912708896E8 ; 1.7379160902804868E9 ; 1.7651101562356037E10 ; 0.0
97 ; 1.8453643235021148E7 ; 2.00999656588136E8 ; 1.756374038012079E9 ; 1.7852095431483128E10 ; 0.0
98 ; 1.844378751082938E7 ; 2.0100544937835687E8 ; 1.7748276812471E9 ; 1.8053095088071262E10 ; 0.0
99 ; 1.8434370166196927E7 ; 2.0101124693178955E8 ; 1.7932714687579296E9 ; 1.825410053744962E10 ; 0.0
100 ; 1.84290270537752E7 ; 2.010170486967492E8 ; 1.8117058389241264E9 ; 1.845511178438141E10 ; 0.0
101 ; 1.842093214310769E7 ; 2.010228541353232E8 ; 1.8301348659779017E9 ; 1.865612883307816E10 ; 0.0
102 ; 1.8411430577034716E7 ; 2.010286627228847E8 ; 1.8485557981210093E9 ; 1.885715168721348E10 ; 0.0
103 ; 1.8404603770818964E7 ; 2.0103447394762525E8 ; 1.866967228698044E9 ; 1.9058180349936367E10 ; 0.0
104 ; 1.8394690001720883E7 ; 2.0104028731010473E8 ; 1.885371832468863E9 ; 1.925921482388399E10 ; 0.0
105 ; 1.8385342302803762E7 ; 2.0104610232281885E8 ; 1.903766522470584E9 ; 1.9460255111194096E10 ; 0.0
106 ; 1.8375498620052252E7 ; 2.0105191850978318E8 ; 1.9221518647733877E9 ; 1.9661301213516914E10 ; 0.0
107 ; 1.8363429903133463E7 ; 2.0105773540613306E8 ; 1.94052736339344E9 ; 1.98623531320267E10 ; 0.0
108 ; 1.8360878446545884E7 ; 2.0106355255773893E8 ; 1.9588907932965734E9 ; 2.006341086743283E10 ; 0.0
109 ; 1.835403130898676E7 ; 2.0106936952083647E8 ; 1.9772516717431192E9 ; 2.026447441999057E10 ; 0.0
110 ; 1.8341393200219408E7 ; 2.0107518586167112E8 ; 1.995605703052106E9 ; 2.0465543789511406E10 ; 0.0
111 ; 1.8323230913370047E7 ; 2.01081001156156E8 ; 2.0139470962523253E9 ; 2.0666618975373077E10 ; 0.0
112 ; 1.8320205486015752E7 ; 2.010868149895434E8 ; 2.0322703271656954E9 ; 2.0867699976529232E10 ; 0.0
113 ; 1.8309885382744465E7 ; 2.0109262695610872E8 ; 2.0505905326517112E9 ; 2.1068786791518776E10 ; 0.0
114 ; 1.8300598925496235E7 ; 2.0109843665884653E8 ; 2.0689004180344558E9 ; 2.1269879418474884E10 ; 0.0
115 ; 1.8288764616032403E7 ; 2.0110424370917854E8 ; 2.087201016959952E9 ; 2.147097785513373E10 ; 0.0
116 ; 1.828024410974301E7 ; 2.0111004772667268E8 ; 2.1054897815759845E9 ; 2.167208209884291E10 ; 0.0
117 ; 1.8264265685888037E7 ; 2.0111584833877304E8 ; 2.1237700256857276E9 ; 2.1873192146569584E10 ; 0.0
118 ; 1.8252673389603276E7 ; 2.011216451805402E8 ; 2.1420342913716156E9 ; 2.2074307994908356E10 ; 0.0
119 ; 1.8243861801967513E7 ; 2.0112743789440143E8 ; 2.160286964761219E9 ; 2.2275429640088898E10 ; 0.0
120 ; 1.8231436694408383E7 ; 2.0113322612991062E8 ; 2.1785308265631866E9 ; 2.24765570779833E10 ; 0.0
121 ; 1.822486174629942E7 ; 2.0113900954351723E8 ; 2.196762263257595E9 ; 2.267769030411321E10 ; 0.0
122 ; 1.821529102991419E7 ; 2.0114478779834428E8 ; 2.2149871250038943E9 ; 2.2878829313656727E10 ; 0.0
123 ; 1.8205236471971642E7 ; 2.0115056056397453E8 ; 2.2332024160338087E9 ; 2.307997410145507E10 ; 0.0
124 ; 1.8185514716610298E7 ; 2.0115632751624513E8 ; 2.25140765250578E9 ; 2.3281124662019047E10 ; 0.0
125 ; 1.8175090005649664E7 ; 2.0116208833704966E8 ; 2.2695931672223907E9 ; 2.3482280989535294E10 ; 0.0
126 ; 1.8160767194000226E7 ; 2.0116784271414816E8 ; 2.28776825722804E9 ; 2.3683443077872345E10 ; 0.0
127 ; 1.8148012648691863E7 ; 2.01173590340984E8 ; 2.3059290244220405E9 ; 2.3884610920586494E10 ; 0.0
128 ; 1.8135253659684725E7 ; 2.011793309165076E8 ; 2.324077037070732E9 ; 2.408578451092748E10 ; 0.0
129 ; 1.8124228036474142E7 ; 2.0118506414500725E8 ; 2.342212290730417E9 ; 2.4286963841843987E10 ; 0.0
130 ; 1.8112855495912485E7 ; 2.011907897359457E8 ; 2.360336518766891E9 ; 2.4488148905988995E10 ; 0.0
131 ; 1.809297548347902E7 ; 2.0119650740380338E8 ; 2.3784493742628036E9 ; 2.468933969572494E10 ; 0.0
132 ; 1.8074684340179168E7 ; 2.01202216867927E8 ; 2.3965423497462826E9 ; 2.4890536203128746E10 ; 0.0
133 ; 1.80542254215597E7 ; 2.0120791785238433E8 ; 2.4146170340864615E9 ; 2.5091738419996674E10 ; 0.0
134 ; 1.8034593493916698E7 ; 2.0121361008582383E8 ; 2.4326712595080214E9 ; 2.5292946337849056E10 ; 0.0
135 ; 1.8019419649211675E7 ; 2.0121929330133992E8 ; 2.450705853001938E9 ; 2.549415994793488E10 ; 0.0
136 ; 1.7995240781721376E7 ; 2.0122496723634294E8 ; 2.4687252726511497E9 ; 2.5695379241236217E10 ; 0.0
137 ; 1.7976886631481342E7 ; 2.0123063163243407E8 ; 2.4867205134328713E9 ; 2.589660420847256E10 ; 0.0
138 ; 1.7954963828169048E7 ; 2.0123628623528484E8 ; 2.5046974000643525E9 ; 2.6097834840104996E10 ; 0.0
139 ; 1.7936676682924565E7 ; 2.0124193079452088E8 ; 2.5226523638925214E9 ; 2.6299071126340282E10 ; 0.0
140 ; 1.7913399324145395E7 ; 2.0124756506361014E8 ; 2.540589040575446E9 ; 2.6500313057134804E10 ; 0.0
141 ; 1.788888349820636E7 ; 2.0125318879975504E8 ; 2.5585024398995914E9 ; 2.6701560622198414E10 ; 0.0
142 ; 1.7873702219978124E7 ; 2.012588017637886E8 ; 2.5763913233977976E9 ; 2.690281381099817E10 ; 0.0
143 ; 1.785868802942706E7 ; 2.0126440372007433E8 ; 2.594265025617776E9 ; 2.710407261276196E10 ; 0.0
144 ; 1.7834435871138096E7 ; 2.0126999443640968E8 ; 2.612123713647203E9 ; 2.7305337016482033E10 ; 0.0
145 ; 1.781929610759481E7 ; 2.01275573683933E8 ; 2.629958149518341E9 ; 2.750660701091844E10 ; 0.0
146 ; 1.7804247429433756E7 ; 2.012811412370338E8 ; 2.647777445625936E9 ; 2.7707882584602375E10 ; 0.0
147 ; 1.7788493647255376E7 ; 2.0128669687326643E8 ; 2.66558169305537E9 ; 2.790916372583941E10 ; 0.0
148 ; 1.777800216274024E7 ; 2.012922403732664E8 ; 2.6833701867026253E9 ; 2.8110450422712677E10 ; 0.0
149 ; 1.7762011182250433E7 ; 2.0129777152067012E8 ; 2.7011481888653655E9 ; 2.8311742663085945E10 ; 0.0
150 ; 1.7747433122335706E7 ; 2.0130329010203725E8 ; 2.718910200047616E9 ; 2.8513040434606617E10 ; 0.0
151 ; 1.7734246338814612E7 ; 2.0130879590677583E8 ; 2.736657633169952E9 ; 2.8714343724708652E10 ; 0.0
152 ; 1.7720527044330046E7 ; 2.0131428872707006E8 ; 2.7543918795087667E9 ; 2.891565252061543E10 ; 0.0
153 ; 1.770521968433813E7 ; 2.0131976835781065E8 ; 2.772112406553097E9 ; 2.91169668093425E10 ; 0.0
154 ; 1.7693816051745776E7 ; 2.0132523459652743E8 ; 2.789817626237435E9 ; 2.931828657770031E10 ; 0.0
155 ; 1.7676926950318813E7 ; 2.0133068724332464E8 ; 2.8075114422891808E9 ; 2.9519611812296837E10 ; 0.0
156 ; 1.7663171441724535E7 ; 2.0133612610081822E8 ; 2.8251883692394996E9 ; 2.972094249954016E10 ; 0.0
157 ; 1.7647883701610107E7 ; 2.0134155097407517E8 ; 2.842851540681224E9 ; 2.992227862564098E10 ; 0.0
158 ; 1.763469734517696E7 ; 2.0134696167055544E8 ; 2.860499424382834E9 ; 3.0123620176615055E10 ; 0.0
159 ; 1.7615162970816474E7 ; 2.0135235800005528E8 ; 2.878134121728011E9 ; 3.032496713828561E10 ; 0.0
160 ; 1.761011759384501E7 ; 2.0135773977465305E8 ; 2.8957492846988277E9 ; 3.0526319496285664E10 ; 0.0
161 ; 1.7594473787411027E7 ; 2.0136310680865636E8 ; 2.9133594022926726E9 ; 3.0727677236060318E10 ; 0.0
162 ; 1.7577972233505096E7 ; 2.0136845891855162E8 ; 2.930953876080084E9 ; 3.0929040342868973E10 ; 0.0
163 ; 1.7560093720625024E7 ; 2.0137379592295468E8 ; 2.948531848313589E9 ; 3.1130408801787525E10 ; 0.0
164 ; 1.7543638037035532E7 ; 2.0137911764256364E8 ; 2.966091942034214E9 ; 3.133178259771048E10 ; 0.0
165 ; 1.752970793741252E7 ; 2.01384423900113E8 ; 2.9836355800712495E9 ; 3.1533161715353043E10 ; 0.0
166 ; 1.7513876036834523E7 ; 2.013897145203293E8 ; 3.001165288008662E9 ; 3.1734546139253155E10 ; 0.0
167 ; 1.7498430157820344E7 ; 2.0139498932988858E8 ; 3.018679164045497E9 ; 3.1935935853773483E10 ; 0.0
168 ; 1.7483957429855928E7 ; 2.0140024815737498E8 ; 3.036177594203317E9 ; 3.213733084310337E10 ; 0.0
169 ; 1.7465955582190208E7 ; 2.0140549083324063E8 ; 3.053661551633173E9 ; 3.2338731091260746E10 ; 0.0
170 ; 1.745016629773238E7 ; 2.0141071718976733E8 ; 3.071127507215363E9 ; 3.2540136582093987E10 ; 0.0
171 ; 1.7436395074825056E7 ; 2.0141592706102893E8 ; 3.0885776735130954E9 ; 3.2741547299283752E10 ; 0.0
172 ; 1.742604701077934E7 ; 2.014211202828555E8 ; 3.1060140685879207E9 ; 3.294296322634478E10 ; 0.0
173 ; 1.7404841539166566E7 ; 2.0142629669279826E8 ; 3.1234401155987E9 ; 3.3144384346627636E10 ; 0.0
174 ; 1.7398201965632156E7 ; 2.014314561300959E8 ; 3.1408449571378665E9 ; 3.3345810643320435E10 ; 0.0
175 ; 1.738689566471163E7 ; 2.0143659843564188E8 ; 3.1582431591034985E9 ; 3.354724209945053E10 ; 0.0
176 ; 1.737602312315415E7 ; 2.01441723451953E8 ; 3.17563005476821E9 ; 3.3748678697886173E10 ; 0.0
177 ; 1.7368463294729907E7 ; 2.0144683102313873E8 ; 3.193006077891364E9 ; 3.3950120421338127E10 ; 0.0
178 ; 1.7362287931027845E7 ; 2.014519209948717E8 ; 3.210374541186094E9 ; 3.4151567252361267E10 ; 0.0
179 ; 1.73460580643501E7 ; 2.0145699321435916E8 ; 3.2277368291171217E9 ; 3.435301917335614E10 ; 0.0
180 ; 1.734045486991642E7 ; 2.0146204753031534E8 ; 3.245082887181472E9 ; 3.4554476166570496E10 ; 0.0
181 ; 1.7332914079208806E7 ; 2.014670837929346E8 ; 3.2624233420513883E9 ; 3.475593821410081E10 ; 0.0
182 ; 1.732351069374297E7 ; 2.0147210185386556E8 ; 3.279756256130597E9 ; 3.4957405297893745E10 ; 0.0
183 ; 1.7314160840391725E7 ; 2.0147710156618622E8 ; 3.29707976682434E9 ; 3.515887739974761E10 ; 0.0
184 ; 1.7301531170247998E7 ; 2.014820827843794E8 ; 3.3143939276647315E9 ; 3.53603545013138E10 ; 0.0
185 ; 1.7291236297824044E7 ; 2.0148704536430952E8 ; 3.3316954588349795E9 ; 3.5561836584098175E10 ; 0.0
186 ; 1.7282556611252286E7 ; 2.014919891631997E8 ; 3.3489866951328034E9 ; 3.576332362946249E10 ; 0.0
187 ; 1.7274116627626143E7 ; 2.014969140396099E8 ; 3.3662692517440557E9 ; 3.596481561862569E10 ; 0.0
188 ; 1.7263758843304213E7 ; 2.015018198534155E8 ; 3.3835433683716817E9 ; 3.61663125326653E10 ; 0.0
189 ; 1.725630743425032E7 ; 2.0150670646578676E8 ; 3.400807127214986E9 ; 3.6367814352518715E10 ; 0.0
190 ; 1.7245324325439412E7 ; 2.0151157373916873E8 ; 3.418063434649236E9 ; 3.6569321058984505E10 ; 0.0
191 ; 1.7238090492409922E7 ; 2.0151642153726208E8 ; 3.4353087589746757E9 ; 3.677083263272367E10 ; 0.0
192 ; 1.7225204012951054E7 ; 2.0152124972500423E8 ; 3.4525468494670854E9 ; 3.697234905426093E10 ; 0.0
193 ; 1.721371566412285E7 ; 2.0152605816855127E8 ; 3.4697720534800363E9 ; 3.717387030398594E10 ; 0.0
194 ; 1.720174335064949E7 ; 2.0153084673526034E8 ; 3.4869857691441593E9 ; 3.737539636215449E10 ; 0.0
195 ; 1.7197190369459324E7 ; 2.015356152936727E8 ; 3.5041875124948087E9 ; 3.757692720888975E10 ; 0.0
