CSV File for the City 2 on Day 337
1 - Minute m 
2 - Power Consumed at minute m 
3 - Power Produced at minute m 
4 - Energy Consumed since the beginning of the day 
5 - Energy Produced since the beginning of the day 
6 - Energy Lost since the beginning of the day on lines starting from the city
 
0 ; 1792579.2630296396 ; 1.052897688537145E8 ; 0.0 ; 0.0 ; 0.0
1 ; 1795556.8103535217 ; 1.0544374355272949E8 ; 1792579.2630296396 ; 1.052897688537145E8 ; 0.0
2 ; 1796445.5121720745 ; 1.0590639581186065E8 ; 3588136.0733831613 ; 2.1073351240644398E8 ; 0.0
3 ; 1799061.638818584 ; 1.0667772591500819E8 ; 5384581.585555236 ; 3.1663990821830463E8 ; 0.0
4 ; 1800734.6498044974 ; 1.0775773411556023E8 ; 7183643.224373819 ; 4.233176341333128E8 ; 0.0
5 ; 1804974.9607009364 ; 1.0914642063534385E8 ; 8984377.874178316 ; 5.3107536824887305E8 ; 0.0
6 ; 1809996.7356127854 ; 1.1084378566369316E8 ; 1.0789352834879253E7 ; 6.402217888842169E8 ; 0.0
7 ; 1816173.1536362967 ; 1.128498293566451E8 ; 1.2599349570492039E7 ; 7.510655745479101E8 ; 0.0
8 ; 1824562.9254567157 ; 1.1516455183626956E8 ; 1.4415522724128336E7 ; 8.639154039045552E8 ; 0.0
9 ; 1838816.3038335703 ; 1.1778795319014144E8 ; 1.6240085649585051E7 ; 9.790799557408247E8 ; 0.0
10 ; 1860127.7328924076 ; 1.2072003347095907E8 ; 1.807890195341862E7 ; 1.0968679089309661E9 ; 0.0
11 ; 1892892.317423765 ; 1.239607926963143E8 ; 1.993902968631103E7 ; 1.217587942401925E9 ; 0.0
12 ; 1947891.2917326014 ; 1.2751023084861526E8 ; 2.1831922003734794E7 ; 1.3415487350982394E9 ; 0.0
13 ; 2000868.272753071 ; 1.3136834787516361E8 ; 2.3779813295467395E7 ; 1.4690589659468546E9 ; 0.0
14 ; 2007011.8048351998 ; 1.3553514368838453E8 ; 2.5780681568220466E7 ; 1.6004273138220181E9 ; 0.0
15 ; 2008383.013131451 ; 1.4001061816620803E8 ; 2.7787693373055667E7 ; 1.7359624575104027E9 ; 0.0
16 ; 2010743.86793733 ; 1.4479477115259728E8 ; 2.9796076386187118E7 ; 1.8759730756766107E9 ; 0.0
17 ; 2013348.9702524627 ; 1.4988760245821807E8 ; 3.1806820254124448E7 ; 2.020767846829208E9 ; 0.0
18 ; 2016030.8572891606 ; 1.5528911186124337E8 ; 3.382016922437691E7 ; 2.170655449287426E9 ; 0.0
19 ; 2018563.6087285257 ; 1.6099929910828504E8 ; 3.583620008166607E7 ; 2.3259445611486692E9 ; 0.0
20 ; 2021277.0750496231 ; 1.6701816391544285E8 ; 3.7854763690394595E7 ; 2.486943860256954E9 ; 0.0
21 ; 2023386.4317361051 ; 1.733457059694611E8 ; 3.987604076544422E7 ; 2.653962024172397E9 ; 0.0
22 ; 2026987.4733187663 ; 1.7998192492898297E8 ; 4.189942719718032E7 ; 2.827307730141858E9 ; 0.0
23 ; 2029362.9646811937 ; 1.869268204258892E8 ; 4.392641467049909E7 ; 3.007289655070841E9 ; 0.0
24 ; 2031283.272831044 ; 1.9418039206671113E8 ; 4.595577763518028E7 ; 3.19421647549673E9 ; 0.0
25 ; 2034296.7973891452 ; 2.0043068033228892E8 ; 4.7987060908011325E7 ; 3.388396867563441E9 ; 0.0
26 ; 2036735.0203335865 ; 2.004312326161905E8 ; 5.002135770540047E7 ; 3.5888275478957295E9 ; 0.0
27 ; 2037866.9461613891 ; 2.0043181775117636E8 ; 5.2058092725734055E7 ; 3.78925878051192E9 ; 0.0
28 ; 2041217.720468824 ; 2.004324352575582E8 ; 5.4095959671895444E7 ; 3.9896905982630963E9 ; 0.0
29 ; 2043998.782283549 ; 2.0043308463804477E8 ; 5.613717739236427E7 ; 4.1901230335206547E9 ; 0.0
30 ; 2045779.1821356136 ; 2.0043376537934572E8 ; 5.818117617464782E7 ; 4.390556118158699E9 ; 0.0
31 ; 2049384.0321026219 ; 2.0043447695376784E8 ; 6.0226955356783435E7 ; 4.590989883538045E9 ; 0.0
32 ; 2050997.218477239 ; 2.004352188207951E8 ; 6.227633938888606E7 ; 4.791424360491813E9 ; 0.0
33 ; 2053676.1810459413 ; 2.004359904286425E8 ; 6.43273366073633E7 ; 4.991859579312608E9 ; 0.0
34 ; 2054040.936066609 ; 2.0043679121577662E8 ; 6.638101278840924E7 ; 5.19229556974125E9 ; 0.0
35 ; 2057295.509756385 ; 2.00437620612395E8 ; 6.843505372447585E7 ; 5.3927323609570265E9 ; 0.0
36 ; 2059594.908918897 ; 2.004384780418587E8 ; 7.049234923423223E7 ; 5.593169981569422E9 ; 0.0
37 ; 2061229.1757030725 ; 2.004393629220722E8 ; 7.255194414315113E7 ; 5.79360845961128E9 ; 0.0
38 ; 2063904.1588039985 ; 2.0044027466680598E8 ; 7.461317331885421E7 ; 5.994047822533353E9 ; 0.0
39 ; 2064614.2268994867 ; 2.0044121268695852E8 ; 7.667707747765821E7 ; 6.194488097200159E9 ; 0.0
40 ; 2066911.9220275227 ; 2.004421763917545E8 ; 7.87416917045577E7 ; 6.394929309887117E9 ; 0.0
41 ; 2069524.9146364455 ; 2.0044316518987694E8 ; 8.080860362658523E7 ; 6.595371486278872E9 ; 0.0
42 ; 2071235.275724598 ; 2.0044417849053207E8 ; 8.287812854122168E7 ; 6.795814651468748E9 ; 0.0
43 ; 2072631.6571643108 ; 2.0044521570444605E8 ; 8.494936381694628E7 ; 6.99625882995928E9 ; 0.0
44 ; 2072191.6906615028 ; 2.0044627624479333E8 ; 8.702199547411059E7 ; 7.196704045663726E9 ; 0.0
45 ; 2072818.7230226388 ; 2.004473595280571E8 ; 8.90941871647721E7 ; 7.397150321908519E9 ; 0.0
46 ; 2075229.075977261 ; 2.0044846497482246E8 ; 9.116700588779473E7 ; 7.597597681436576E9 ; 0.0
47 ; 2076559.1356639082 ; 2.0044959201050395E8 ; 9.3242234963772E7 ; 7.798046146411398E9 ; 0.0
48 ; 2077529.2470760283 ; 2.0045074006600854E8 ; 9.531879409943591E7 ; 7.998495738421902E9 ; 0.0
49 ; 2077952.1892167388 ; 2.0045190857833675E8 ; 9.739632334651195E7 ; 8.19894647848791E9 ; 0.0
50 ; 2079357.0905838588 ; 2.0045309699112323E8 ; 9.947427553572868E7 ; 8.399398387066247E9 ; 0.0
51 ; 2079259.3526878497 ; 2.0045430475512007E8 ; 1.0155363262631254E8 ; 8.599851484057371E9 ; 0.0
52 ; 2079740.974068863 ; 2.004555313286247E8 ; 1.0363289197900039E8 ; 8.80030578881249E9 ; 0.0
53 ; 2081845.960190201 ; 2.0045677617785564E8 ; 1.0571263295306925E8 ; 9.000761320141115E9 ; 0.0
54 ; 2081463.6779249618 ; 2.0045803877727842E8 ; 1.0779447891325946E8 ; 9.201218096318972E9 ; 0.0
55 ; 2082863.2235980988 ; 2.0045931860988486E8 ; 1.0987594259118442E8 ; 9.40167613509625E9 ; 0.0
56 ; 2084902.0761975043 ; 2.0046061516742817E8 ; 1.1195880581478252E8 ; 9.602135453706135E9 ; 0.0
57 ; 2083493.1719237005 ; 2.004619279506172E8 ; 1.1404370789098002E8 ; 9.802596068873564E9 ; 0.0
58 ; 2083811.1312783537 ; 2.0046325646927214E8 ; 1.1612720106290372E8 ; 1.000305799682418E10 ; 0.0
59 ; 2085929.5040999965 ; 2.0046460024244457E8 ; 1.1821101219418207E8 ; 1.0203521253293453E10 ; 0.0
60 ; 2086094.3485856804 ; 2.004659587985049E8 ; 1.2029694169828206E8 ; 1.0403985853535898E10 ; 0.0
61 ; 2087049.3756663925 ; 2.00467331675199E8 ; 1.2238303604686774E8 ; 1.0604451812334404E10 ; 0.0
62 ; 2088464.2223031635 ; 2.0046871841967762E8 ; 1.2447008542253414E8 ; 1.0804919144009604E10 ; 0.0
63 ; 2086450.1243382748 ; 2.004701185884996E8 ; 1.265585496448373E8 ; 1.1005387862429281E10 ; 0.0
64 ; 2087380.3352401154 ; 2.0047153174761268E8 ; 1.2864499976917557E8 ; 1.120585798101778E10 ; 0.0
65 ; 2087751.3171724598 ; 2.004729574723128E8 ; 1.3073238010441568E8 ; 1.1406329512765392E10 ; 0.0
66 ; 2089841.857674033 ; 2.0047439534718475E8 ; 1.3282013142158814E8 ; 1.1606802470237705E10 ; 0.0
67 ; 2090203.2522634875 ; 2.0047584496602568E8 ; 1.3490997327926219E8 ; 1.180727686558489E10 ; 0.0
68 ; 2089119.983504919 ; 2.0047730593175367E8 ; 1.3700017653152567E8 ; 1.2007752710550917E10 ; 0.0
69 ; 2091340.847178373 ; 2.004787778563026E8 ; 1.390892965150306E8 ; 1.220823001648267E10 ; 0.0
70 ; 2092283.952237878 ; 2.0048026036050528E8 ; 1.4118063736220896E8 ; 1.2408708794338972E10 ; 0.0
71 ; 2091468.673670027 ; 2.0048175307396635E8 ; 1.4327292131444684E8 ; 1.2609189054699478E10 ; 0.0
72 ; 2090566.0978935154 ; 2.0048325563492593E8 ; 1.4536438998811686E8 ; 1.2809670807773445E10 ; 0.0
73 ; 2092338.4907174902 ; 2.0048476769011587E8 ; 1.4745495608601037E8 ; 1.3010154063408371E10 ; 0.0
74 ; 2092522.9418973865 ; 2.004862888946091E8 ; 1.4954729457672787E8 ; 1.3210638831098486E10 ; 0.0
75 ; 2092113.469978865 ; 2.0048781891166392E8 ; 1.5163981751862526E8 ; 1.3411125119993095E10 ; 0.0
76 ; 2094238.5759044667 ; 2.0048935741256347E8 ; 1.5373193098860413E8 ; 1.3611612938904758E10 ; 0.0
77 ; 2093574.6337239048 ; 2.0049090407645208E8 ; 1.558261695645086E8 ; 1.3812102296317322E10 ; 0.0
78 ; 2092597.0604705706 ; 2.0049245859016827E8 ; 1.579197441982325E8 ; 1.4012593200393774E10 ; 0.0
79 ; 2092213.8159929698 ; 2.0049402064807656E8 ; 1.6001234125870308E8 ; 1.4213085658983942E10 ; 0.0
80 ; 2091351.667278291 ; 2.004955899518972E8 ; 1.6210455507469606E8 ; 1.4413579679632019E10 ; 0.0
81 ; 2091635.4553487014 ; 2.0049716621053585E8 ; 1.6419590674197435E8 ; 1.4614075269583916E10 ; 0.0
82 ; 2091235.614566495 ; 2.0049874913991278E8 ; 1.6628754219732305E8 ; 1.481457243579445E10 ; 0.0
83 ; 2090729.20733453 ; 2.005003384627925E8 ; 1.6837877781188956E8 ; 1.5015071184934364E10 ; 0.0
84 ; 2090541.3578374048 ; 2.0050193390861422E8 ; 1.7046950701922408E8 ; 1.5215571523397158E10 ; 0.0
85 ; 2087768.9683589714 ; 2.0050353521332365E8 ; 1.725600483770615E8 ; 1.5416073457305773E10 ; 0.0
86 ; 2088631.0991872943 ; 2.0050514211920613E8 ; 1.7464781734542045E8 ; 1.5616576992519096E10 ; 0.0
87 ; 2087694.409055759 ; 2.0050675437472165E8 ; 1.7673644844460773E8 ; 1.5817082134638302E10 ; 0.0
88 ; 2087177.3383200164 ; 2.0050837173434207E8 ; 1.788241428536635E8 ; 1.6017588889013023E10 ; 0.0
89 ; 2088659.2652835029 ; 2.005099939583907E8 ; 1.8091132019198352E8 ; 1.6218097260747366E10 ; 0.0
90 ; 2087170.1077657333 ; 2.0051162081288436E8 ; 1.8299997945726702E8 ; 1.6418607254705757E10 ; 0.0
91 ; 2085307.9023021972 ; 2.0051325206937814E8 ; 1.8508714956503275E8 ; 1.6619118875518642E10 ; 0.0
92 ; 2085514.8785938653 ; 2.0051488750481308E8 ; 1.8717245746733496E8 ; 1.681963212758802E10 ; 0.0
93 ; 2084560.3018217555 ; 2.0051652690136677E8 ; 1.8925797234592882E8 ; 1.7020147015092833E10 ; 0.0
94 ; 2084228.5977034532 ; 2.005181700463071E8 ; 1.913425326477506E8 ; 1.7220663541994198E10 ; 0.0
95 ; 2084467.5908282315 ; 2.00519816731849E8 ; 1.9342676124545404E8 ; 1.7421181712040504E10 ; 0.0
96 ; 2082402.2850246471 ; 2.0052146675501472E8 ; 1.9551122883628228E8 ; 1.7621701528772354E10 ; 0.0
97 ; 2082719.2828 ; 2.005231199174968E8 ; 1.9759363112130693E8 ; 1.782222299552737E10 ; 0.0
98 ; 2082284.1829495204 ; 2.0052477602552482E8 ; 1.9967635040410691E8 ; 1.8022746115444866E10 ; 0.0
99 ; 2079872.0124109706 ; 2.005264348897353E8 ; 2.0175863458705643E8 ; 1.822327089147039E10 ; 0.0
100 ; 2079991.481610993 ; 2.0052809632504463E8 ; 2.038385065994674E8 ; 1.8423797326360126E10 ; 0.0
101 ; 2077669.951899954 ; 2.0052976015052572E8 ; 2.0591849808107838E8 ; 1.8624325422685173E10 ; 0.0
102 ; 2076527.734855356 ; 2.0053142618928748E8 ; 2.0799616803297833E8 ; 1.8824855182835697E10 ; 0.0
103 ; 2077171.2854817084 ; 2.0053309426835787E8 ; 2.1007269576783368E8 ; 1.9025386609024986E10 ; 0.0
104 ; 2076278.6109198248 ; 2.005347642185699E8 ; 2.121498670533154E8 ; 1.9225919703293343E10 ; 0.0
105 ; 2075200.819050436 ; 2.0053643587445104E8 ; 2.1422614566423523E8 ; 1.9426454467511913E10 ; 0.0
106 ; 2073684.6810404984 ; 2.005381090741155E8 ; 2.1630134648328567E8 ; 1.9626990903386364E10 ; 0.0
107 ; 2073825.5049519476 ; 2.0053978365915978E8 ; 2.1837503116432616E8 ; 1.982752901246048E10 ; 0.0
108 ; 2073619.4132007353 ; 2.0054145947456118E8 ; 2.2044885666927812E8 ; 2.002806879611964E10 ; 0.0
109 ; 2070790.594931562 ; 2.005431363685792E8 ; 2.2252247608247885E8 ; 2.02286102555942E10 ; 0.0
110 ; 2069555.0017601477 ; 2.0054481419266003E8 ; 2.2459326667741042E8 ; 2.042915339196278E10 ; 0.0
111 ; 2069657.286805042 ; 2.005464928013437E8 ; 2.2666282167917058E8 ; 2.062969820615544E10 ; 0.0
112 ; 2066919.5003474818 ; 2.0054817205217406E8 ; 2.287324789659756E8 ; 2.0830244698956783E10 ; 0.0
113 ; 2066483.836097381 ; 2.005498518056116E8 ; 2.307993984663231E8 ; 2.1030792871008957E10 ; 0.0
114 ; 2067331.032747884 ; 2.0055153192494887E8 ; 2.328658823024205E8 ; 2.1231342722814568E10 ; 0.0
115 ; 2064240.6429675247 ; 2.005532122762284E8 ; 2.349332133351684E8 ; 2.1431894254739517E10 ; 0.0
116 ; 2063296.5002228308 ; 2.005548927281632E8 ; 2.369974539781359E8 ; 2.1632447467015747E10 ; 0.0
117 ; 2060720.0379673536 ; 2.005565731520599E8 ; 2.3906075047835875E8 ; 2.183300235974391E10 ; 0.0
118 ; 2061775.793406025 ; 2.0055825342174405E8 ; 2.411214705163261E8 ; 2.2033558932895973E10 ; 0.0
119 ; 2061224.356258945 ; 2.0055993341348782E8 ; 2.4318324630973214E8 ; 2.223411718631772E10 ; 0.0
120 ; 2060524.4075584821 ; 2.0056161300594002E8 ; 2.452444706659911E8 ; 2.2434677119731205E10 ; 0.0
121 ; 2056913.1484742837 ; 2.005632920800584E8 ; 2.4730499507354957E8 ; 2.2635238732737144E10 ; 0.0
122 ; 2055107.666316417 ; 2.0056497051904386E8 ; 2.4936190822202384E8 ; 2.2835802024817204E10 ; 0.0
123 ; 2053736.5045723736 ; 2.00566648208277E8 ; 2.5141701588834026E8 ; 2.3036366995336246E10 ; 0.0
124 ; 2053612.3352970744 ; 2.0056832503525648E8 ; 2.5347075239291263E8 ; 2.3236933643544525E10 ; 0.0
125 ; 2052089.7086283122 ; 2.0057000088953957E8 ; 2.555243647282097E8 ; 2.343750196857978E10 ; 0.0
126 ; 2051357.8672494933 ; 2.0057167566268435E8 ; 2.5757645443683803E8 ; 2.363807196946932E10 ; 0.0
127 ; 2049695.7730958501 ; 2.005733492481939E8 ; 2.5962781230408752E8 ; 2.3838643645132004E10 ; 0.0
128 ; 2049302.2215628861 ; 2.0057502154146224E8 ; 2.6167750807718337E8 ; 2.40392169943802E10 ; 0.0
129 ; 2046682.5608376923 ; 2.005766924397222E8 ; 2.6372681029874626E8 ; 2.423979201592166E10 ; 0.0
130 ; 2045770.9644299287 ; 2.005783618419945E8 ; 2.6577349285958394E8 ; 2.4440368708361385E10 ; 0.0
131 ; 2043439.8161140366 ; 2.0058002964903888E8 ; 2.6781926382401386E8 ; 2.464094707020338E10 ; 0.0
132 ; 2041589.4768188796 ; 2.005816957633067E8 ; 2.698627036401279E8 ; 2.484152709985242E10 ; 0.0
133 ; 2040296.3003315236 ; 2.0058336008889502E8 ; 2.7190429311694676E8 ; 2.5042108795615726E10 ; 0.0
134 ; 2038106.0329150592 ; 2.005850225315021E8 ; 2.739445894172783E8 ; 2.524269215570462E10 ; 0.0
135 ; 2034614.6313897413 ; 2.0058668299838448E8 ; 2.7598269545019335E8 ; 2.5443277178236122E10 ; 0.0
136 ; 2032782.6295695351 ; 2.0058834139831522E8 ; 2.780173100815831E8 ; 2.5643863861234505E10 ; 0.0
137 ; 2030811.0940737 ; 2.005899976415439E8 ; 2.800500927111526E8 ; 2.584445220263282E10 ; 0.0
138 ; 2028957.8507453795 ; 2.0059165163975722E8 ; 2.820809038052263E8 ; 2.6045042200274364E10 ; 0.0
139 ; 2025683.1080199212 ; 2.005933033060417E8 ; 2.841098616559717E8 ; 2.6245633851914124E10 ; 0.0
140 ; 2024434.6033521402 ; 2.0059495255484676E8 ; 2.8613554476399165E8 ; 2.6446227155220165E10 ; 0.0
141 ; 2023840.4386624654 ; 2.005965993019497E8 ; 2.881599793673438E8 ; 2.6646822107775013E10 ; 0.0
142 ; 2019726.8696133713 ; 2.0059824346442124E8 ; 2.9018381980600625E8 ; 2.684741870707696E10 ; 0.0
143 ; 2016681.6067690186 ; 2.005998849605925E8 ; 2.922035466756196E8 ; 2.704801695054138E10 ; 0.0
144 ; 2014197.33127147 ; 2.006015237100229E8 ; 2.942202282823886E8 ; 2.7248616835501976E10 ; 0.0
145 ; 2013309.3770389885 ; 2.0060315963346916E8 ; 2.962344256136601E8 ; 2.7449218359211998E10 ; 0.0
146 ; 2011719.3914579814 ; 2.0060479265285516E8 ; 2.982477349906991E8 ; 2.7649821518845467E10 ; 0.0
147 ; 2010552.769823738 ; 2.0060642269124296E8 ; 3.002594543821571E8 ; 2.785042631149832E10 ; 0.0
148 ; 2009005.2704501227 ; 2.0060804967280456E8 ; 3.022700071519808E8 ; 2.8051032734189564E10 ; 0.0
149 ; 2007607.9755412175 ; 2.006096735227946E8 ; 3.0427901242243093E8 ; 2.825164078386237E10 ; 0.0
150 ; 2005419.915840324 ; 2.0061129416752404E8 ; 3.0628662039797217E8 ; 2.8452250457385162E10 ; 0.0
151 ; 2003164.360850041 ; 2.0061291153433448E8 ; 3.082920403138125E8 ; 2.8652861751552685E10 ; 0.0
152 ; 2003635.8752702938 ; 2.0061452555157351E8 ; 3.1029520467466253E8 ; 2.885347466308702E10 ; 0.0
153 ; 2001669.984346806 ; 2.0061613614857066E8 ; 3.1229884054993284E8 ; 2.9054089188638596E10 ; 0.0
154 ; 1999981.9052676063 ; 2.0061774325561413E8 ; 3.1430051053427964E8 ; 2.9254705324787167E10 ; 0.0
155 ; 1998471.9132443776 ; 2.0061934680392843E8 ; 3.1630049243954724E8 ; 2.945532306804278E10 ; 0.0
156 ; 1997174.3001752703 ; 2.006209467256525E8 ; 3.182989643527916E8 ; 2.965594241484671E10 ; 0.0
157 ; 1994743.7639315454 ; 2.0062254295381853E8 ; 3.2029613865296686E8 ; 2.985656336157236E10 ; 0.0
158 ; 1992191.7112015577 ; 2.0062413542233172E8 ; 3.222908824168984E8 ; 3.005718590452618E10 ; 0.0
159 ; 1993212.1936584008 ; 2.0062572406595033E8 ; 3.242830741281E8 ; 3.0257810039948513E10 ; 0.0
160 ; 1991421.6638646144 ; 2.006273088202665E8 ; 3.262762863217584E8 ; 3.045843576401446E10 ; 0.0
161 ; 1989123.3398521668 ; 2.0062888962168765E8 ; 3.28267707985623E8 ; 3.065906307283473E10 ; 0.0
162 ; 1987726.515027661 ; 2.0063046640741858E8 ; 3.3025683132547516E8 ; 3.0859691962456417E10 ; 0.0
163 ; 1986366.5329678413 ; 2.006320391154439E8 ; 3.322445578405028E8 ; 3.1060322428863834E10 ; 0.0
164 ; 1984974.08842545 ; 2.006336076845111E8 ; 3.3423092437347066E8 ; 3.126095446797928E10 ; 0.0
165 ; 1981514.234931392 ; 2.006351720541143E8 ; 3.362158984618961E8 ; 3.1461588075663788E10 ; 0.0
166 ; 1982527.2900610869 ; 2.006367321644782E8 ; 3.3819741269682753E8 ; 3.1662223247717903E10 ; 0.0
167 ; 1981178.061853741 ; 2.006382879565428E8 ; 3.4017993998688865E8 ; 3.186285997988238E10 ; 0.0
168 ; 1979789.0016776342 ; 2.0063983937194833E8 ; 3.421611180487424E8 ; 3.2063498267838924E10 ; 0.0
169 ; 1977266.669286947 ; 2.0064138635302103E8 ; 3.4414090705042005E8 ; 3.2264138107210873E10 ; 0.0
170 ; 1973909.5784528654 ; 2.0064292884275883E8 ; 3.46118173719707E8 ; 3.2464779493563892E10 ; 0.0
171 ; 1973282.7002664632 ; 2.00644466784818E8 ; 3.480920832981599E8 ; 3.266542242240665E10 ; 0.0
172 ; 1971192.2093919523 ; 2.0064600012349972E8 ; 3.500653659984264E8 ; 3.2866066889191467E10 ; 0.0
173 ; 1969200.0126167953 ; 2.0064752880373755E8 ; 3.520365582078183E8 ; 3.306671288931497E10 ; 0.0
174 ; 1968557.5314296947 ; 2.006490527710849E8 ; 3.5400575822043514E8 ; 3.3267360418118706E10 ; 0.0
175 ; 1968147.3875054766 ; 2.0065057197170296E8 ; 3.5597431575186485E8 ; 3.346800947088979E10 ; 0.0
176 ; 1966920.4876479039 ; 2.0065208635234916E8 ; 3.579424631393703E8 ; 3.3668660042861492E10 ; 0.0
177 ; 1965927.4184832557 ; 2.0065359586036578E8 ; 3.599093836270182E8 ; 3.386931212921384E10 ; 0.0
178 ; 1963388.2788633953 ; 2.00655100443669E8 ; 3.618753110455015E8 ; 3.4069965725074207E10 ; 0.0
179 ; 1964281.6840663417 ; 2.0065660005073825E8 ; 3.6383869932436484E8 ; 3.4270620825517876E10 ; 0.0
180 ; 1962380.5719144116 ; 2.0065809463060594E8 ; 3.658029810084312E8 ; 3.447127742556861E10 ; 0.0
181 ; 1961982.8689999857 ; 2.0065958413284743E8 ; 3.6776536158034563E8 ; 3.467193552019922E10 ; 0.0
182 ; 1960930.6923794313 ; 2.0066106850757125E8 ; 3.697273444493456E8 ; 3.487259510433207E10 ; 0.0
183 ; 1959112.214115576 ; 2.0066254770540974E8 ; 3.71688275141725E8 ; 3.507325617283964E10 ; 0.0
184 ; 1960052.7330482057 ; 2.0066402167750987E8 ; 3.7364738735584056E8 ; 3.5273918720545044E10 ; 0.0
185 ; 1958050.3140665237 ; 2.0066549037552443E8 ; 3.7560744008888876E8 ; 3.547458274222256E10 ; 0.0
186 ; 1957553.696443759 ; 2.0066695375160336E8 ; 3.775654904029553E8 ; 3.567524823259808E10 ; 0.0
187 ; 1956210.410216598 ; 2.0066841175838536E8 ; 3.7952304409939903E8 ; 3.5875915186349686E10 ; 0.0
188 ; 1955604.294890042 ; 2.0066986434898987E8 ; 3.814792545096156E8 ; 3.607658359810807E10 ; 0.0
189 ; 1953849.7848646347 ; 2.0067131147700915E8 ; 3.8343485880450565E8 ; 3.627725346245706E10 ; 0.0
190 ; 1953080.4603401967 ; 2.0067275309650058E8 ; 3.853887085893703E8 ; 3.6477924773934074E10 ; 0.0
191 ; 1952002.91250651 ; 2.0067418916197938E8 ; 3.873417890497105E8 ; 3.667859752703058E10 ; 0.0
192 ; 1950669.785100298 ; 2.006756196284113E8 ; 3.8929379196221703E8 ; 3.687927171619256E10 ; 0.0
193 ; 1949230.4029305447 ; 2.0067704445120564E8 ; 3.912444617473173E8 ; 3.707994733582097E10 ; 0.0
194 ; 1949033.1350311732 ; 2.0067846358620846E8 ; 3.931936921502479E8 ; 3.728062438027217E10 ; 0.0
195 ; 1946333.9595177304 ; 2.006798769896961E8 ; 3.9514272528527904E8 ; 3.748130284385838E10 ; 0.0
196 ; 1946302.4067327501 ; 2.0068128461836854E8 ; 3.9708905924479675E8 ; 3.7681982720848076E10 ; 0.0
197 ; 1944418.8117039434 ; 2.0068268642934352E8 ; 3.990353616515295E8 ; 3.7882664005466446E10 ; 0.0
198 ; 1944620.4485136243 ; 2.0068408238015017E8 ; 4.009797804632334E8 ; 3.808334669189579E10 ; 0.0
199 ; 1943868.346120924 ; 2.006854724287234E8 ; 4.0292440091174704E8 ; 3.828403077427594E10 ; 0.0
