CSV File for the City 4 on Day 46
1 - Minute m 
2 - Power Consumed at minute m 
3 - Power Produced at minute m 
4 - Energy Consumed since the beginning of the day 
5 - Energy Produced since the beginning of the day 
6 - Energy Lost since the beginning of the day on lines starting from the city
 
0 ; 6795560.310141272 ; 1.0573600003399423E8 ; 0.0 ; 0.0 ; 0.0
1 ; 6800693.172763744 ; 1.058855828756938E8 ; 6795560.310141272 ; 1.0573600003399423E8 ; 0.0
2 ; 6807938.888746892 ; 1.0634427182318059E8 ; 1.3596253482905015E7 ; 2.1162158290968803E8 ; 0.0
3 ; 6816195.26047489 ; 1.0711207779751462E8 ; 2.0404192371651907E7 ; 3.179658547328686E8 ; 0.0
4 ; 6830423.930148335 ; 1.0818901078423727E8 ; 2.7220387632126797E7 ; 4.250779325303832E8 ; 0.0
5 ; 6838920.9815831175 ; 1.0957507971519738E8 ; 3.4050811562275134E7 ; 5.332669433146205E8 ; 0.0
6 ; 6856895.205090877 ; 1.1127029235806128E8 ; 4.088973254385825E7 ; 6.428420230298178E8 ; 0.0
7 ; 6879765.044286573 ; 1.1327465521650904E8 ; 4.7746627748949125E7 ; 7.541123153878791E8 ; 0.0
8 ; 6913705.478400901 ; 1.155881734439885E8 ; 5.46263927932357E7 ; 8.673869706043882E8 ; 0.0
9 ; 6962748.494354741 ; 1.1821085077362543E8 ; 6.15400982716366E7 ; 9.829751440483768E8 ; 0.0
10 ; 7039353.615125569 ; 1.2114268946647805E8 ; 6.850284676599135E7 ; 1.1011859948220022E9 ; 0.0
11 ; 7167280.12291918 ; 1.243836902797983E8 ; 7.554220038111691E7 ; 1.2223286842884803E9 ; 0.0
12 ; 7361932.010438872 ; 1.279338524563342E8 ; 8.27094805040361E7 ; 1.3467123745682786E9 ; 0.0
13 ; 7553785.30793355 ; 1.3179317373502755E8 ; 9.007141251447497E7 ; 1.4746462270246127E9 ; 0.0
14 ; 7575366.859671393 ; 1.3596165038275266E8 ; 9.762519782240853E7 ; 1.6064394007596402E9 ; 0.0
15 ; 7581975.861852091 ; 1.4043927724606156E8 ; 1.0520056468207993E8 ; 1.7424010511423929E9 ; 0.0
16 ; 7591451.659186999 ; 1.452260478212743E8 ; 1.1278254054393202E8 ; 1.8828403283884544E9 ; 0.0
17 ; 7601405.521527533 ; 1.503219543407245E8 ; 1.2037399220311902E8 ; 2.0280663762097287E9 ; 0.0
18 ; 7608739.895295485 ; 1.557269878725633E8 ; 1.2797539772464655E8 ; 2.178388330550453E9 ; 0.0
19 ; 7618385.095059833 ; 1.6144113843124935E8 ; 1.3558413761994204E8 ; 2.3341153184230165E9 ; 0.0
20 ; 7627389.668827294 ; 1.674643950957226E8 ; 1.4320252271500188E8 ; 2.4955564568542657E9 ; 0.0
21 ; 7635293.894822059 ; 1.7379674613226292E8 ; 1.5082991238382918E8 ; 2.6630208519499884E9 ; 0.0
22 ; 7644271.405558891 ; 1.8043817911916053E8 ; 1.5846520627865124E8 ; 2.836817598082251E9 ; 0.0
23 ; 7653521.189069249 ; 1.873886810705524E8 ; 1.6610947768421012E8 ; 3.0172557772014117E9 ; 0.0
24 ; 7661343.272164105 ; 1.94648238557083E8 ; 1.7376299887327936E8 ; 3.204644458271964E9 ; 0.0
25 ; 7672722.85650284 ; 2.0090487871958777E8 ; 1.8142434214544347E8 ; 3.399292696829047E9 ; 0.0
26 ; 7679326.64851762 ; 2.0091213541472384E8 ; 1.890970650019463E8 ; 3.600197575548635E9 ; 0.0
27 ; 7688098.660788251 ; 2.009197638406265E8 ; 1.967763916504639E8 ; 3.801109710963359E9 ; 0.0
28 ; 7697546.193127858 ; 2.0092774987560713E8 ; 2.0446449031125215E8 ; 4.0020294748039856E9 ; 0.0
29 ; 7704846.839679323 ; 2.009360794539928E8 ; 2.1216203650438002E8 ; 4.2029572246795926E9 ; 0.0
30 ; 7713424.818661245 ; 2.009447386391902E8 ; 2.1986688334405935E8 ; 4.403893304133585E9 ; 0.0
31 ; 7721640.108246348 ; 2.00953713687277E8 ; 2.275803081627206E8 ; 4.604838042772776E9 ; 0.0
32 ; 7729705.840837041 ; 2.0096299110139203E8 ; 2.3530194827096695E8 ; 4.8057917564600525E9 ; 0.0
33 ; 7735457.157700886 ; 2.0097255767735827E8 ; 2.4303165411180398E8 ; 5.006754747561444E9 ; 0.0
34 ; 7746236.191539711 ; 2.0098240054109675E8 ; 2.5076711126950487E8 ; 5.207727305238803E9 ; 0.0
35 ; 7752331.806310578 ; 2.0099250717847022E8 ; 2.5851334746104458E8 ; 5.4087097057799E9 ; 0.0
36 ; 7757519.309862954 ; 2.0100286545824477E8 ; 2.6626567926735514E8 ; 5.60970221295837E9 ; 0.0
37 ; 7764728.980179107 ; 2.010134636488774E8 ; 2.740231985772181E8 ; 5.810705078416615E9 ; 0.0
38 ; 7771686.176147482 ; 2.0102429042983508E8 ; 2.8178792755739725E8 ; 6.011718542065492E9 ; 0.0
39 ; 7778237.607062608 ; 2.0103533489812952E8 ; 2.895596137335447E8 ; 6.212742832495327E9 ; 0.0
40 ; 7785872.848431001 ; 2.0104658657071945E8 ; 2.973378513406073E8 ; 6.413778167393456E9 ; 0.0
41 ; 7787503.3772683535 ; 2.0105803538338804E8 ; 3.051237241890383E8 ; 6.614824753964176E9 ; 0.0
42 ; 7793434.352951864 ; 2.010696716866555E8 ; 3.1291122756630665E8 ; 6.815882789347565E9 ; 0.0
43 ; 7798237.295758562 ; 2.010814862392354E8 ; 3.2070466191925853E8 ; 7.01695246103422E9 ; 0.0
44 ; 7803365.510987301 ; 2.0109347019949076E8 ; 3.285028992150171E8 ; 7.218033947273455E9 ; 0.0
45 ; 7808160.302011618 ; 2.0110561511529475E8 ; 3.3630626472600436E8 ; 7.419127417472945E9 ; 0.0
46 ; 7810146.623370399 ; 2.0111791291265202E8 ; 3.44114425028016E8 ; 7.62023303258824E9 ; 0.0
47 ; 7813043.954757107 ; 2.0113035588338983E8 ; 3.519245716513864E8 ; 7.821350945500892E9 ; 0.0
48 ; 7818996.282802095 ; 2.0114293667218587E8 ; 3.597376156061435E8 ; 8.022481301384281E9 ; 0.0
49 ; 7818598.92173931 ; 2.0115564826316008E8 ; 3.675566118889456E8 ; 8.223624238056467E9 ; 0.0
50 ; 7825326.224010617 ; 2.0116848396622303E8 ; 3.753752108106849E8 ; 8.424779886319627E9 ; 0.0
51 ; 7825785.250861499 ; 2.0118143740334144E8 ; 3.832005370346955E8 ; 8.62594837028585E9 ; 0.0
52 ; 7826170.227878389 ; 2.0119450249485376E8 ; 3.9102632228555703E8 ; 8.827129807689192E9 ; 0.0
53 ; 7831306.919643086 ; 2.0120767344594473E8 ; 3.988524925134354E8 ; 9.028324310184046E9 ; 0.0
54 ; 7831758.0795499 ; 2.0122094473336533E8 ; 4.066837994330785E8 ; 9.22953198362999E9 ; 0.0
55 ; 7832407.483361984 ; 2.012343110924681E8 ; 4.1451555751262844E8 ; 9.430752928363356E9 ; 0.0
56 ; 7835734.499898408 ; 2.0124776750461033E8 ; 4.223479649959904E8 ; 9.631987239455824E9 ; 0.0
57 ; 7836350.409866454 ; 2.012613091849646E8 ; 4.301836994958888E8 ; 9.833235006960434E9 ; 0.0
58 ; 7839227.721831698 ; 2.0127493157076642E8 ; 4.380200499057553E8 ; 1.00344963161454E10 ; 0.0
59 ; 7838966.040915621 ; 2.0128863031001657E8 ; 4.4585927762758696E8 ; 1.0235771247716166E10 ; 0.0
60 ; 7841945.006446282 ; 2.0130240125065017E8 ; 4.5369824366850257E8 ; 1.0437059878026182E10 ; 0.0
61 ; 7844665.4542309465 ; 2.0131624043017694E8 ; 4.615401886749489E8 ; 1.0638362279276833E10 ; 0.0
62 ; 7843759.3421054715 ; 2.013301440657919E8 ; 4.6938485412917984E8 ; 1.083967851970701E10 ; 0.0
63 ; 7843256.500050747 ; 2.0134410854495168E8 ; 4.772286134712853E8 ; 1.1041008663772802E10 ; 0.0
64 ; 7847587.336069229 ; 2.013581304164084E8 ; 4.85071869971336E8 ; 1.1242352772317755E10 ; 0.0
65 ; 7846734.340747921 ; 2.013722063816898E8 ; 4.9291945730740523E8 ; 1.1443710902734163E10 ; 0.0
66 ; 7845684.279897115 ; 2.0138633328701308E8 ; 5.007661916481531E8 ; 1.1645083109115852E10 ; 0.0
67 ; 7847038.526017616 ; 2.0140050811561778E8 ; 5.086118759280502E8 ; 1.1846469442402866E10 ; 0.0
68 ; 7850662.409882809 ; 2.0141472798050228E8 ; 5.164589144540678E8 ; 1.2047869950518484E10 ; 0.0
69 ; 7853226.350528616 ; 2.0142899011754787E8 ; 5.243095768639506E8 ; 1.2249284678498987E10 ; 0.0
70 ; 7851292.171194389 ; 2.014432918790136E8 ; 5.321628032144792E8 ; 1.2450713668616535E10 ; 0.0
71 ; 7852421.046019703 ; 2.014576307273855E8 ; 5.400140953856736E8 ; 1.2652156960495548E10 ; 0.0
72 ; 7852783.436569008 ; 2.0147200422956312E8 ; 5.478665164316933E8 ; 1.2853614591222933E10 ; 0.0
73 ; 7852419.259866868 ; 2.0148641005136734E8 ; 5.557192998682623E8 ; 1.3055086595452496E10 ; 0.0
74 ; 7853773.642970896 ; 2.0150084595235276E8 ; 5.635717191281291E8 ; 1.3256573005503862E10 ; 0.0
75 ; 7856664.417712328 ; 2.0151530978090948E8 ; 5.714254927711E8 ; 1.3458073851456215E10 ; 0.0
76 ; 7858219.925581445 ; 2.0152979946963853E8 ; 5.792821571888124E8 ; 1.3659589161237123E10 ; 0.0
77 ; 7853716.302423358 ; 2.0154431303098667E8 ; 5.871403771143938E8 ; 1.3861118960706762E10 ; 0.0
78 ; 7854037.60808853 ; 2.0155884855312586E8 ; 5.949940934168172E8 ; 1.406266327373775E10 ; 0.0
79 ; 7851933.1143185105 ; 2.0157340419606435E8 ; 6.028481310249057E8 ; 1.4264222122290874E10 ; 0.0
80 ; 7847739.722135798 ; 2.0158797818797618E8 ; 6.107000641392242E8 ; 1.4465795526486938E10 ; 0.0
81 ; 7843310.376150941 ; 2.0160256882173663E8 ; 6.1854780386136E8 ; 1.4667383504674915E10 ; 0.0
82 ; 7843685.099666573 ; 2.016171744516522E8 ; 6.263911142375109E8 ; 1.4868986073496653E10 ; 0.0
83 ; 7842231.764980141 ; 2.0163179349037358E8 ; 6.342347993371775E8 ; 1.5070603247948305E10 ; 0.0
84 ; 7838588.56708503 ; 2.0164642440598145E8 ; 6.420770311021577E8 ; 1.5272235041438679E10 ; 0.0
85 ; 7833887.908610635 ; 2.0166106571923462E8 ; 6.499156196692427E8 ; 1.547388146584466E10 ; 0.0
86 ; 7832939.481660304 ; 2.0167571600097156E8 ; 6.577495075778533E8 ; 1.5675542531563894E10 ; 0.0
87 ; 7832166.194332089 ; 2.016903738696561E8 ; 6.655824470595136E8 ; 1.5877218247564865E10 ; 0.0
88 ; 7827992.524126092 ; 2.017050379890586E8 ; 6.734146132538457E8 ; 1.607890862143452E10 ; 0.0
89 ; 7825426.84034355 ; 2.0171970706606567E8 ; 6.812426057779717E8 ; 1.628061365942358E10 ; 0.0
90 ; 7820490.815210171 ; 2.017343798486094E8 ; 6.890680326183153E8 ; 1.6482333366489645E10 ; 0.0
91 ; 7817152.244759965 ; 2.017490551237105E8 ; 6.968885234335256E8 ; 1.6684067746338255E10 ; 0.0
92 ; 7812073.568930128 ; 2.0176373171562803E8 ; 7.047056756782855E8 ; 1.6885816801461966E10 ; 0.0
93 ; 7810155.594931806 ; 2.0177840848410922E8 ; 7.125177492472156E8 ; 1.7087580533177593E10 ; 0.0
94 ; 7806677.823611673 ; 2.017930843227344E8 ; 7.203279048421475E8 ; 1.72893589416617E10 ; 0.0
95 ; 7805138.406119793 ; 2.0180775815735057E8 ; 7.281345826657591E8 ; 1.7491152025984436E10 ; 0.0
96 ; 7801488.300222294 ; 2.0182242894458908E8 ; 7.359397210718789E8 ; 1.769295978414179E10 ; 0.0
97 ; 7799232.544261211 ; 2.0183709567046216E8 ; 7.437412093721012E8 ; 1.7894782213086376E10 ; 0.0
98 ; 7792894.502586639 ; 2.0185175734903413E8 ; 7.515404419163624E8 ; 1.809661930875684E10 ; 0.0
99 ; 7791077.781445537 ; 2.0186641302116242E8 ; 7.59333336418949E8 ; 1.8298471066105873E10 ; 0.0
100 ; 7785355.500440203 ; 2.0188106175330505E8 ; 7.671244142003945E8 ; 1.8500337479127037E10 ; 0.0
101 ; 7779795.535137573 ; 2.0189570263639012E8 ; 7.749097697008348E8 ; 1.870221854088034E10 ; 0.0
102 ; 7775532.124443516 ; 2.019103347847442E8 ; 7.826895652359723E8 ; 1.890411424351673E10 ; 0.0
103 ; 7773810.919629987 ; 2.0192495733507612E8 ; 7.904650973604158E8 ; 1.9106024578301476E10 ; 0.0
104 ; 7769368.050231158 ; 2.01939569445513E8 ; 7.982389082800457E8 ; 1.930794953563655E10 ; 0.0
105 ; 7767152.651572824 ; 2.019541702946855E8 ; 8.060082763302768E8 ; 1.9509889105082066E10 ; 0.0
106 ; 7762441.535506467 ; 2.019687590808598E8 ; 8.137754289818497E8 ; 1.971184327537675E10 ; 0.0
107 ; 7757401.352839425 ; 2.0198333502111325E8 ; 8.215378705173562E8 ; 1.991381203445761E10 ; 0.0
108 ; 7754551.673209055 ; 2.019978973505517E8 ; 8.292952718701956E8 ; 2.0115795369478725E10 ; 0.0
109 ; 7747977.23358788 ; 2.020124453215659E8 ; 8.370498235434047E8 ; 2.0317793266829277E10 ; 0.0
110 ; 7744310.360198113 ; 2.0202697820312488E8 ; 8.447978007769926E8 ; 2.0519805712150845E10 ; 0.0
111 ; 7739281.454521597 ; 2.0204149528010446E8 ; 8.525421111371907E8 ; 2.072183269035397E10 ; 0.0
112 ; 7736038.168329987 ; 2.0205599585264853E8 ; 8.602813925917124E8 ; 2.0923874185634075E10 ; 0.0
113 ; 7727374.925723659 ; 2.0207047923556176E8 ; 8.680174307600423E8 ; 2.1125930181486725E10 ; 0.0
114 ; 7725598.109781536 ; 2.0208494475773194E8 ; 8.75744805685766E8 ; 2.1328000660722286E10 ; 0.0
115 ; 7718135.259044354 ; 2.0209939176158008E8 ; 8.834704037955475E8 ; 2.153008560548002E10 ; 0.0
116 ; 7715794.915910454 ; 2.0211381960253713E8 ; 8.911885390545919E8 ; 2.17321849972416E10 ; 0.0
117 ; 7708808.8408290995 ; 2.0212822764854553E8 ; 8.989043339705024E8 ; 2.1934298816844135E10 ; 0.0
118 ; 7702995.266865609 ; 2.0214261527958488E8 ; 9.066131428113315E8 ; 2.213642704449268E10 ; 0.0
119 ; 7697009.041803526 ; 2.0215698188721952E8 ; 9.143161380781971E8 ; 2.2338569659772263E10 ; 0.0
120 ; 7692145.084712621 ; 2.021713268741679E8 ; 9.220131471200006E8 ; 2.254072664165948E10 ; 0.0
121 ; 7688549.02862633 ; 2.0218564965389165E8 ; 9.297052922047132E8 ; 2.274289796853365E10 ; 0.0
122 ; 7682702.996124956 ; 2.021999496502043E8 ; 9.373938412333395E8 ; 2.2945083618187542E10 ; 0.0
123 ; 7678195.490551319 ; 2.022142262968976E8 ; 9.450765442294645E8 ; 2.3147283567837746E10 ; 0.0
124 ; 7670480.939885349 ; 2.0222847903738528E8 ; 9.527547397200159E8 ; 2.3349497794134644E10 ; 0.0
125 ; 7664122.440198146 ; 2.0224270732436317E8 ; 9.604252206599013E8 ; 2.3551726273172028E10 ; 0.0
126 ; 7661597.666611757 ; 2.0225691061948466E8 ; 9.680893431000994E8 ; 2.375396898049639E10 ; 0.0
127 ; 7654941.658483901 ; 2.0227108839305103E8 ; 9.757509407667112E8 ; 2.3956225891115875E10 ; 0.0
128 ; 7647874.5712737655 ; 2.0228524012371537E8 ; 9.834058824251951E8 ; 2.4158496979508926E10 ; 0.0
129 ; 7642954.954098114 ; 2.0229936529820034E8 ; 9.910537569964689E8 ; 2.436078221963264E10 ; 0.0
130 ; 7636808.219765017 ; 2.023134634110279E8 ; 9.98696711950567E8 ; 2.456308158493084E10 ; 0.0
131 ; 7623490.528465884 ; 2.0232753396426153E8 ; 1.0063335201703321E9 ; 2.4765395048341866E10 ; 0.0
132 ; 7616303.212041581 ; 2.0234157646725932E8 ; 1.013957010698798E9 ; 2.4967722582306126E10 ; 0.0
133 ; 7609960.910455794 ; 2.0235559043643847E8 ; 1.0215733139108396E9 ; 2.5170064158773384E10 ; 0.0
134 ; 7599114.989177568 ; 2.0236957539504954E8 ; 1.0291832748212954E9 ; 2.5372419749209824E10 ; 0.0
135 ; 7592330.493373111 ; 2.0238353087296084E8 ; 1.036782389810473E9 ; 2.5574789324604874E10 ; 0.0
136 ; 7581687.744982827 ; 2.0239745640645188E8 ; 1.0443747203038461E9 ; 2.5777172855477833E10 ; 0.0
137 ; 7573580.010471462 ; 2.0241135153801608E8 ; 1.051956408048829E9 ; 2.5979570311884285E10 ; 0.0
138 ; 7565589.387393483 ; 2.024252158161714E8 ; 1.0595299880593004E9 ; 2.6181981663422302E10 ; 0.0
139 ; 7553903.510706687 ; 2.0243904879527953E8 ; 1.0670955774466939E9 ; 2.6384406879238472E10 ; 0.0
140 ; 7546115.109693967 ; 2.0245285003537235E8 ; 1.0746494809574006E9 ; 2.6586845928033752E10 ; 0.0
141 ; 7536305.4236734435 ; 2.0246661910198596E8 ; 1.0821955960670946E9 ; 2.6789298778069126E10 ; 0.0
142 ; 7527391.4617810175 ; 2.024803555660016E8 ; 1.089731901490768E9 ; 2.6991765397171112E10 ; 0.0
143 ; 7516840.8263603505 ; 2.0249405900349307E8 ; 1.097259292952549E9 ; 2.7194245752737114E10 ; 0.0
144 ; 7508363.333457619 ; 2.025077289955808E8 ; 1.1047761337789094E9 ; 2.739673981174061E10 ; 0.0
145 ; 7503431.917741052 ; 2.0252136512829155E8 ; 1.1122844971123672E9 ; 2.759924754073619E10 ; 0.0
146 ; 7493765.979492761 ; 2.0253496699242434E8 ; 1.1197879290301082E9 ; 2.7801768905864483E10 ; 0.0
147 ; 7488874.433240138 ; 2.0254853418342143E8 ; 1.1272816950096009E9 ; 2.8004303872856907E10 ; 0.0
148 ; 7482463.026015235 ; 2.025620663012449E8 ; 1.134770569442841E9 ; 2.820685240704033E10 ; 0.0
149 ; 7473448.462696523 ; 2.0257556295025814E8 ; 1.1422530324688563E9 ; 2.8409414473341576E10 ; 0.0
150 ; 7467280.569779026 ; 2.02589023739112E8 ; 1.149726480931553E9 ; 2.8611990036291832E10 ; 0.0
151 ; 7460429.770186093 ; 2.026024482806357E8 ; 1.1571937615013318E9 ; 2.8814579060030945E10 ; 0.0
152 ; 7454089.810957705 ; 2.0261583619173214E8 ; 1.164654191271518E9 ; 2.901718150831158E10 ; 0.0
153 ; 7449270.030516763 ; 2.026291870932772E8 ; 1.1721082810824757E9 ; 2.921979734450331E10 ; 0.0
154 ; 7443319.429640021 ; 2.0264250061002317E8 ; 1.1795575511129925E9 ; 2.942242653159659E10 ; 0.0
155 ; 7433969.8257809365 ; 2.0265577637050605E8 ; 1.1870008705426326E9 ; 2.962506903220661E10 ; 0.0
156 ; 7426753.622624235 ; 2.0266901400695643E8 ; 1.1944348403684134E9 ; 2.9827724808577118E10 ; 0.0
157 ; 7420536.543741278 ; 2.026822131552138E8 ; 1.2018615939910376E9 ; 3.0030393822584076E10 ; 0.0
158 ; 7410750.2828472275 ; 2.0269537345464447E8 ; 1.2092821305347788E9 ; 3.023307603573929E10 ; 0.0
159 ; 7404394.932752466 ; 2.0270849454806247E8 ; 1.216692880817626E9 ; 3.043577140919393E10 ; 0.0
160 ; 7400562.580973031 ; 2.0272157608165354E8 ; 1.2240972757503784E9 ; 3.0638479903741993E10 ; 0.0
161 ; 7393145.360383036 ; 2.0273461770490214E8 ; 1.2314978383313515E9 ; 3.0841201479823647E10 ; 0.0
162 ; 7383129.125947185 ; 2.0274761907052132E8 ; 1.2388909836917346E9 ; 3.104393609752855E10 ; 0.0
163 ; 7378144.985149734 ; 2.0276057983438513E8 ; 1.2462741128176818E9 ; 3.124668371659907E10 ; 0.0
164 ; 7368577.035716593 ; 2.0277349965546373E8 ; 1.2536522578028314E9 ; 3.1449444296433456E10 ; 0.0
165 ; 7364361.220200967 ; 2.0278637819576108E8 ; 1.261020834838548E9 ; 3.165221779608892E10 ; 0.0
166 ; 7355777.400851368 ; 2.0279921512025467E8 ; 1.268385196058749E9 ; 3.1855004174284683E10 ; 0.0
167 ; 7348578.367277229 ; 2.0281201009683797E8 ; 1.2757409734596002E9 ; 3.2057803389404938E10 ; 0.0
168 ; 7340351.640581962 ; 2.028247627962647E8 ; 1.2830895518268774E9 ; 3.2260615399501774E10 ; 0.0
169 ; 7331971.471507919 ; 2.0283747289209542E8 ; 1.2904299034674592E9 ; 3.246344016229804E10 ; 0.0
170 ; 7324412.085240982 ; 2.0285014006064603E8 ; 1.2977618749389672E9 ; 3.2666277635190132E10 ; 0.0
171 ; 7315537.738067298 ; 2.0286276398093823E8 ; 1.3050862870242083E9 ; 3.286912777525078E10 ; 0.0
172 ; 7310103.587342578 ; 2.028753443346519E8 ; 1.3124018247622757E9 ; 3.3071990539231716E10 ; 0.0
173 ; 7305177.814686632 ; 2.0288788080607912E8 ; 1.3197119283496182E9 ; 3.327486588356637E10 ; 0.0
174 ; 7299255.629429924 ; 2.0290037308207995E8 ; 1.3270171061643047E9 ; 3.3477753764372448E10 ; 0.0
175 ; 7292891.409014458 ; 2.0291282085204005E8 ; 1.3343163617937346E9 ; 3.368065413745453E10 ; 0.0
176 ; 7288265.720065938 ; 2.0292522380782947E8 ; 1.341609253202749E9 ; 3.388356695830657E10 ; 0.0
177 ; 7285513.930912277 ; 2.0293758164376342E8 ; 1.3488975189228148E9 ; 3.40864921821144E10 ; 0.0
178 ; 7279275.983001818 ; 2.029498940565641E8 ; 1.356183032853727E9 ; 3.4289429763758163E10 ; 0.0
179 ; 7274866.626966076 ; 2.0296216074532416E8 ; 1.3634623088367288E9 ; 3.449237965781473E10 ; 0.0
180 ; 7270231.8833101 ; 2.0297438141147155E8 ; 1.3707371754636948E9 ; 3.469534181856005E10 ; 0.0
181 ; 7267542.720416357 ; 2.029865557587353E8 ; 1.378007407347005E9 ; 3.489831619997152E10 ; 0.0
182 ; 7261105.428625698 ; 2.029986834931131E8 ; 1.3852749500674212E9 ; 3.5101302755730255E10 ; 0.0
183 ; 7258087.51302176 ; 2.0301076432283956E8 ; 1.3925360554960468E9 ; 3.5304301439223366E10 ; 0.0
184 ; 7253601.286373723 ; 2.0302279795835593E8 ; 1.3997941430090685E9 ; 3.55073122035462E10 ; 0.0
185 ; 7248415.2930611195 ; 2.0303478411228088E8 ; 1.407047744295442E9 ; 3.571033500150456E10 ; 0.0
186 ; 7243098.176859925 ; 2.0304672249938223E8 ; 1.4142961595885031E9 ; 3.5913369785616844E10 ; 0.0
187 ; 7241192.110220187 ; 2.0305861283654973E8 ; 1.421539257765363E9 ; 3.611641650811623E10 ; 0.0
188 ; 7235590.039427216 ; 2.030704548427691E8 ; 1.4287804498755832E9 ; 3.6319475120952774E10 ; 0.0
189 ; 7231925.716611232 ; 2.030822482390965E8 ; 1.4360160399150105E9 ; 3.652254557579554E10 ; 0.0
190 ; 7225807.544954781 ; 2.0309399274863446E8 ; 1.4432479656316216E9 ; 3.672562782403464E10 ; 0.0
191 ; 7225664.602353767 ; 2.0310568809650826E8 ; 1.4504737731765764E9 ; 3.692872181678327E10 ; 0.0
192 ; 7215117.816007096 ; 2.0311733400984353E8 ; 1.4576994377789302E9 ; 3.713182750487978E10 ; 0.0
193 ; 7211649.332730896 ; 2.031289302177443E8 ; 1.4649145555949373E9 ; 3.7334944838889626E10 ; 0.0
194 ; 7209517.390361694 ; 2.031404764512721E8 ; 1.4721262049276683E9 ; 3.753807376910737E10 ; 0.0
195 ; 7203140.9002036145 ; 2.0315197244342574E8 ; 1.47933572231803E9 ; 3.774121424555864E10 ; 0.0
196 ; 7196846.960554853 ; 2.0316341792912185E8 ; 1.4865388632182338E9 ; 3.794436621800207E10 ; 0.0
197 ; 7195177.9717873 ; 2.0317481264517602E8 ; 1.4937357101787887E9 ; 3.814752963593119E10 ; 0.0
198 ; 7188392.410616901 ; 2.0318615633028474E8 ; 1.5009308881505759E9 ; 3.835070444857637E10 ; 0.0
199 ; 7184139.55410356 ; 2.031974487250079E8 ; 1.5081192805611928E9 ; 3.8553890604906654E10 ; 0.0
200 ; 7179007.45201272 ; 2.0320868957175207E8 ; 1.5153034201152964E9 ; 3.875708805363166E10 ; 0.0
201 ; 7174434.920146589 ; 1.620452153629352E8 ; 1.5224824275673091E9 ; 3.8960296743203415E10 ; 0.0
