CSV File for the City 1 on Day 265
1 - Minute m 
2 - Power Consumed at minute m 
3 - Power Produced at minute m 
4 - Energy Consumed since the beginning of the day 
5 - Energy Produced since the beginning of the day 
6 - Energy Lost since the beginning of the day on lines starting from the city
 
0 ; 6160636.147300848 ; 1.055340585507262E8 ; 0.0 ; 0.0 ; 0.0
1 ; 6176280.043726557 ; 1.0568700647524047E8 ; 6160636.147300848 ; 1.055340585507262E8 ; 0.0
2 ; 6184348.585530117 ; 1.0614873630796322E8 ; 1.2336916191027405E7 ; 2.1122106502596667E8 ; 0.0
3 ; 6204714.351411453 ; 1.0691924954605842E8 ; 1.852126477655752E7 ; 3.173698013339299E8 ; 0.0
4 ; 6226037.445759802 ; 1.0799854753145355E8 ; 2.4725979127968974E7 ; 4.242890508799883E8 ; 0.0
5 ; 6244732.801456675 ; 1.093866314433369E8 ; 3.0952016573728777E7 ; 5.3228759841144186E8 ; 0.0
6 ; 6282041.561431471 ; 1.1108350229143706E8 ; 3.719674937518545E7 ; 6.416742298547788E8 ; 0.0
7 ; 6329805.166426233 ; 1.1308916091017324E8 ; 4.347879093661693E7 ; 7.527577321462158E8 ; 0.0
8 ; 6404304.661870595 ; 1.154036079537546E8 ; 4.980859610304316E7 ; 8.658468930563891E8 ; 0.0
9 ; 6518865.433525463 ; 1.1802684389229608E8 ; 5.621290076491375E7 ; 9.812505010101438E8 ; 0.0
10 ; 6691204.454744526 ; 1.2095886900900346E8 ; 6.273176619843922E7 ; 1.0992773449024398E9 ; 0.0
11 ; 6977119.488208759 ; 1.2419968339846894E8 ; 6.942297065318374E7 ; 1.2202362139114432E9 ; 0.0
12 ; 7435252.292709454 ; 1.277492869661003E8 ; 7.64000901413925E7 ; 1.3444358973099122E9 ; 0.0
13 ; 7877816.755365294 ; 1.3160767942869174E8 ; 8.383534243410195E7 ; 1.4721851842760124E9 ; 0.0
14 ; 7923331.413757279 ; 1.3577486031612843E8 ; 9.171315918946725E7 ; 1.6037928637047043E9 ; 0.0
15 ; 7942414.800143619 ; 1.4025082897420108E8 ; 9.963649060322453E7 ; 1.7395677240208328E9 ; 0.0
16 ; 7959908.952700225 ; 1.450355845684906E8 ; 1.0757890540336815E8 ; 1.8798185529950337E9 ; 0.0
17 ; 7975945.378799016 ; 1.501291260892683E8 ; 1.1553881435606837E8 ; 2.0248541375635242E9 ; 0.0
18 ; 7992960.61798341 ; 1.5553145235734594E8 ; 1.235147597348674E8 ; 2.1749832636527925E9 ; 0.0
19 ; 8011912.867274219 ; 1.6124256203079602E8 ; 1.3150772035285081E8 ; 2.3305147160101385E9 ; 0.0
20 ; 8029061.908846294 ; 1.6726245361245456E8 ; 1.3951963322012502E8 ; 2.4917572780409346E9 ; 0.0
21 ; 8040900.502715113 ; 1.7359112545811108E8 ; 1.475486951289713E8 ; 2.659019731653389E9 ; 0.0
22 ; 8063730.95458462 ; 1.8022857578528398E8 ; 1.5558959563168642E8 ; 2.8326108571115003E9 ; 0.0
23 ; 8080274.682531187 ; 1.87174802682478E8 ; 1.6365332658627105E8 ; 3.0128394328967843E9 ; 0.0
24 ; 8098098.198379227 ; 1.9442980411881644E8 ; 1.7173360126880223E8 ; 3.2000142355792623E9 ; 0.0
25 ; 8117590.931549645 ; 2.006816188521292E8 ; 1.7983169946718144E8 ; 3.3944440396980786E9 ; 0.0
26 ; 8136130.4752041325 ; 2.0068379247592023E8 ; 1.8794929039873108E8 ; 3.5951256585502076E9 ; 0.0
27 ; 8149315.697344152 ; 2.0068609195441428E8 ; 1.9608542087393522E8 ; 3.795809451026128E9 ; 0.0
28 ; 8168536.457727028 ; 2.0068851487945002E8 ; 2.0423473657127938E8 ; 3.996495542980542E9 ; 0.0
29 ; 8183538.579158866 ; 2.0069105877373898E8 ; 2.124032730290064E8 ; 4.197184057859992E9 ; 0.0
30 ; 8200273.222494575 ; 2.006937211006933E8 ; 2.2058681160816526E8 ; 4.397875116633731E9 ; 0.0
31 ; 8214733.717636964 ; 2.0069649927399856E8 ; 2.2878708483065984E8 ; 4.598568837734425E9 ; 0.0
32 ; 8230033.001406675 ; 2.0069939066687033E8 ; 2.370018185482968E8 ; 4.799265337008423E9 ; 0.0
33 ; 8251713.4707642 ; 2.0070239262094223E8 ; 2.4523185154970348E8 ; 4.999964727675293E9 ; 0.0
34 ; 8260600.072338443 ; 2.0070550245474258E8 ; 2.5348356502046767E8 ; 5.200667120296235E9 ; 0.0
35 ; 8274708.329671503 ; 2.0070871747172487E8 ; 2.617441650928061E8 ; 5.4013726227509775E9 ; 0.0
36 ; 8289544.705692944 ; 2.007120349678257E8 ; 2.700188734224776E8 ; 5.602081340222702E9 ; 0.0
37 ; 8302462.937538065 ; 2.0071545223853186E8 ; 2.7830841812817055E8 ; 5.802793375190528E9 ; 0.0
38 ; 8313296.31838332 ; 2.0071896658544472E8 ; 2.8661088106570864E8 ; 6.00350882742906E9 ; 0.0
39 ; 8322494.620735645 ; 2.007225753223378E8 ; 2.94924177384092E8 ; 6.204227794014504E9 ; 0.0
40 ; 8336760.649142527 ; 2.007262757807081E8 ; 3.032466720048276E8 ; 6.404950369336843E9 ; 0.0
41 ; 8343535.599848554 ; 2.0073006531482735E8 ; 3.115834326539701E8 ; 6.605676645117551E9 ; 0.0
42 ; 8352531.2169927 ; 2.0073394130630437E8 ; 3.199269682538187E8 ; 6.806406710432378E9 ; 0.0
43 ; 8367041.957192377 ; 2.0073790116817236E8 ; 3.2827949947081137E8 ; 7.007140651738682E9 ; 0.0
44 ; 8370184.360173874 ; 2.0074194234851906E8 ; 3.366465414280037E8 ; 7.207878552906855E9 ; 0.0
45 ; 8381680.993374555 ; 2.0074606233367923E8 ; 3.450167257881776E8 ; 7.408620495255374E9 ; 0.0
46 ; 8389557.297405392 ; 2.0075025865101212E8 ; 3.5339840678155214E8 ; 7.609366557589053E9 ; 0.0
47 ; 8392896.15430102 ; 2.0075452887128615E8 ; 3.6178796407895756E8 ; 7.810116816240066E9 ; 0.0
48 ; 8400881.372503325 ; 2.0075887061069572E8 ; 3.701808602332586E8 ; 8.010871345111352E9 ; 0.0
49 ; 8403533.645339258 ; 2.0076328153253442E8 ; 3.7858174160576195E8 ; 8.211630215722048E9 ; 0.0
50 ; 8404543.588764986 ; 2.0076775934854922E8 ; 3.869852752511012E8 ; 8.412393497254582E9 ; 0.0
51 ; 8408480.124484602 ; 2.0077230182000047E8 ; 3.9538981883986616E8 ; 8.613161256603132E9 ; 0.0
52 ; 8411972.327024736 ; 2.0077690675845158E8 ; 4.0379829896435076E8 ; 8.813933558423132E9 ; 0.0
53 ; 8418178.588924121 ; 2.0078157202631187E8 ; 4.122102712913755E8 ; 9.014710465181583E9 ; 0.0
54 ; 8415452.478607953 ; 2.0078629553715527E8 ; 4.206284498802996E8 ; 9.215492037207895E9 ; 0.0
55 ; 8420972.382554216 ; 2.007910752558363E8 ; 4.290439023589076E8 ; 9.41627833274505E9 ; 0.0
56 ; 8422556.964956963 ; 2.0079590919842404E8 ; 4.374648747414618E8 ; 9.617069408000887E9 ; 0.0
57 ; 8426812.421945626 ; 2.0080079543197364E8 ; 4.4588743170641875E8 ; 9.81786531719931E9 ; 0.0
58 ; 8428101.023883684 ; 2.008057320741535E8 ; 4.543142441283644E8 ; 1.0018666112631285E10 ; 0.0
59 ; 8428395.820328057 ; 2.008107172927452E8 ; 4.627423451522481E8 ; 1.0219471844705439E10 ; 0.0
60 ; 8428952.156847144 ; 2.0081574930503222E8 ; 4.7117074097257614E8 ; 1.0420282561998184E10 ; 0.0
61 ; 8433950.204266101 ; 2.0082082637709212E8 ; 4.7959969312942326E8 ; 1.0621098311303217E10 ; 0.0
62 ; 8433552.0928747 ; 2.0082594682300568E8 ; 4.8803364333368933E8 ; 1.082191913768031E10 ; 0.0
63 ; 8434233.093095666 ; 2.008311090039956E8 ; 4.9646719542656404E8 ; 1.1022745084503315E10 ; 0.0
64 ; 8436364.575840631 ; 2.008363113275061E8 ; 5.049014285196597E8 ; 1.122357619350731E10 ; 0.0
65 ; 8433055.275017481 ; 2.0084155224623367E8 ; 5.1333779309550035E8 ; 1.1424412504834818E10 ; 0.0
66 ; 8437093.595454909 ; 2.008468302571187E8 ; 5.2177084837051785E8 ; 1.162525405708105E10 ; 0.0
67 ; 8437111.741480246 ; 2.00852143900306E8 ; 5.302079419659728E8 ; 1.182610088733817E10 ; 0.0
68 ; 8440149.148823526 ; 2.0085749175808236E8 ; 5.38645053707453E8 ; 1.2026953031238476E10 ; 0.0
69 ; 8437019.16626757 ; 2.008628724537976E8 ; 5.470852028562765E8 ; 1.2227810522996557E10 ; 0.0
70 ; 8440835.18301146 ; 2.0086828465077534E8 ; 5.55522222022544E8 ; 1.2428673395450356E10 ; 0.0
71 ; 8440238.925065415 ; 2.0087372705121908E8 ; 5.639630572055554E8 ; 1.2629541680101131E10 ; 0.0
72 ; 8441004.440708946 ; 2.008791983951179E8 ; 5.724032961306208E8 ; 1.2830415407152351E10 ; 0.0
73 ; 8439885.0671249 ; 2.0088469745915654E8 ; 5.808443005713298E8 ; 1.303129460554747E10 ; 0.0
74 ; 8438703.108574862 ; 2.0089022305563316E8 ; 5.892841856384547E8 ; 1.3232179303006626E10 ; 0.0
75 ; 8438237.681185605 ; 2.00895774031388E8 ; 5.977228887470295E8 ; 1.343306952606226E10 ; 0.0
76 ; 8441078.517318841 ; 2.0090134926674578E8 ; 6.061611264282151E8 ; 1.3633965300093647E10 ; 0.0
77 ; 8439415.47078971 ; 2.009069476744741E8 ; 6.14602204945534E8 ; 1.3834866649360394E10 ; 0.0
78 ; 8430741.996071318 ; 2.009125681987599E8 ; 6.230416204163237E8 ; 1.4035773597034868E10 ; 0.0
79 ; 8426840.81276287 ; 2.0091820981420562E8 ; 6.31472362412395E8 ; 1.4236686165233627E10 ; 0.0
80 ; 8416587.05601103 ; 2.0092387152484614E8 ; 6.398992032251579E8 ; 1.4437604375047832E10 ; 0.0
81 ; 8416636.627882117 ; 2.0092955236318818E8 ; 6.483157902811689E8 ; 1.463852824657268E10 ; 0.0
82 ; 8405371.71725422 ; 2.0093525138927242E8 ; 6.567324269090511E8 ; 1.4839457798935867E10 ; 0.0
83 ; 8400638.032236734 ; 2.0094096768975937E8 ; 6.651377986263052E8 ; 1.504039305032514E10 ; 0.0
84 ; 8394059.374860302 ; 2.0094670037703946E8 ; 6.735384366585419E8 ; 1.52413340180149E10 ; 0.0
85 ; 8386289.538668451 ; 2.0095244858836737E8 ; 6.819324960334022E8 ; 1.544228071839194E10 ; 0.0
86 ; 8379003.188510486 ; 2.0095821148502102E8 ; 6.903187855720706E8 ; 1.5643233166980307E10 ; 0.0
87 ; 8376341.9206407545 ; 2.009639882514855E8 ; 6.986977887605811E8 ; 1.5844191378465328E10 ; 0.0
88 ; 8365330.621918912 ; 2.0096977809466112E8 ; 7.070741306812218E8 ; 1.6045155366716814E10 ; 0.0
89 ; 8353715.222482013 ; 2.0097558024309626E8 ; 7.154394613031408E8 ; 1.6246125144811476E10 ; 0.0
90 ; 8349718.666373214 ; 2.0098139394624433E8 ; 7.237931765256227E8 ; 1.6447100725054571E10 ; 0.0
91 ; 8345272.598731223 ; 2.0098721847374454E8 ; 7.32142895191996E8 ; 1.6648082119000816E10 ; 0.0
92 ; 8334696.578990963 ; 2.0099305311472636E8 ; 7.404881677907273E8 ; 1.6849069337474562E10 ; 0.0
93 ; 8321383.918633113 ; 2.00998897177137E8 ; 7.488228643697182E8 ; 1.7050062390589289E10 ; 0.0
94 ; 8316183.043653353 ; 2.0100474998709157E8 ; 7.571442482883513E8 ; 1.7251061287766426E10 ; 0.0
95 ; 8311224.7493166365 ; 2.010106108882455E8 ; 7.654604313320047E8 ; 1.7452066037753517E10 ; 0.0
96 ; 8300173.418176735 ; 2.010164792411885E8 ; 7.737716560813214E8 ; 1.765307664864176E10 ; 0.0
97 ; 8291047.697827864 ; 2.010223544228598E8 ; 7.820718294994981E8 ; 1.785409312788295E10 ; 0.0
98 ; 8285332.727261962 ; 2.0102823582598388E8 ; 7.90362877197326E8 ; 1.805511548230581E10 ; 0.0
99 ; 8274915.781899017 ; 2.0103412285852623E8 ; 7.98648209924588E8 ; 1.8256143718131794E10 ; 0.0
100 ; 8264099.276645048 ; 2.0104001494316867E8 ; 8.069231257064869E8 ; 1.845717784099032E10 ; 0.0
101 ; 8257046.686490153 ; 2.010459115168034E8 ; 8.15187224983132E8 ; 1.8658217855933487E10 ; 0.0
102 ; 8253109.9163280465 ; 2.010518120300455E8 ; 8.234442716696222E8 ; 1.885926376745029E10 ; 0.0
103 ; 8240183.484803 ; 2.01057715946763E8 ; 8.316973815859503E8 ; 1.9060315579480335E10 ; 0.0
104 ; 8231443.70723679 ; 2.010636227436244E8 ; 8.399375650707532E8 ; 1.9261373295427097E10 ; 0.0
105 ; 8221995.74447499 ; 2.0106953190966243E8 ; 8.4816900877799E8 ; 1.9462436918170723E10 ; 0.0
106 ; 8209036.91833821 ; 2.0107544294585425E8 ; 8.56391004522465E8 ; 1.9663506450080387E10 ; 0.0
107 ; 8202943.332551509 ; 2.0108135536471695E8 ; 8.646000414408032E8 ; 1.986458189302624E10 ; 0.0
108 ; 8189583.192616143 ; 2.0108726868991798E8 ; 8.728029847733546E8 ; 2.0065663248390957E10 ; 0.0
109 ; 8181360.691509461 ; 2.010931824559002E8 ; 8.809925679659708E8 ; 2.0266750517080875E10 ; 0.0
110 ; 8169144.40423778 ; 2.0109909620752078E8 ; 8.891739286574802E8 ; 2.0467843699536774E10 ; 0.0
111 ; 8158838.694285626 ; 2.0110500949970365E8 ; 8.97343073061718E8 ; 2.0668942795744293E10 ; 0.0
112 ; 8149205.124881289 ; 2.011109218971047E8 ; 9.055019117560036E8 ; 2.0870047805243996E10 ; 0.0
113 ; 8137074.334100711 ; 2.0111683297378972E8 ; 9.136511168808849E8 ; 2.10711587271411E10 ; 0.0
114 ; 8125661.922817819 ; 2.0112274231292415E8 ; 9.217881912149856E8 ; 2.127227556011489E10 ; 0.0
115 ; 8117387.685750207 ; 2.011286495064746E8 ; 9.299138531378034E8 ; 2.1473398302427814E10 ; 0.0
116 ; 8103216.529461611 ; 2.0113455415492156E8 ; 9.380312408235537E8 ; 2.1674526951934288E10 ; 0.0
117 ; 8096056.620090211 ; 2.0114045586698237E8 ; 9.461344573530153E8 ; 2.187566150608921E10 ; 0.0
118 ; 8084165.569958198 ; 2.011463542593453E8 ; 9.542305139731055E8 ; 2.2076801961956192E10 ; 0.0
119 ; 8069952.293995902 ; 2.0115224895641285E8 ; 9.623146795430638E8 ; 2.2277948316215538E10 ; 0.0
120 ; 8056320.333127171 ; 2.011581395900551E8 ; 9.703846318370596E8 ; 2.247910056517195E10 ; 0.0
121 ; 8046330.213351403 ; 2.0116402579937196E8 ; 9.784409521701868E8 ; 2.2680258704762005E10 ; 0.0
122 ; 8030651.437298469 ; 2.0116990723046443E8 ; 9.864872823835381E8 ; 2.288142273056138E10 ; 0.0
123 ; 8022061.714091633 ; 2.0117578353621426E8 ; 9.945179338208365E8 ; 2.3082592637791843E10 ; 0.0
124 ; 8008139.168075963 ; 2.0118165437607187E8 ; 1.0025399955349282E9 ; 2.3283768421328056E10 ; 0.0
125 ; 7997111.667168003 ; 2.011875194158522E8 ; 1.0105481347030041E9 ; 2.348495007570413E10 ; 0.0
126 ; 7985651.358230458 ; 2.0119337832753778E8 ; 1.0185452463701721E9 ; 2.368613759511998E10 ; 0.0
127 ; 7971456.537945932 ; 2.0119923078908956E8 ; 1.0265308977284026E9 ; 2.3887330973447517E10 ; 0.0
128 ; 7957434.538740838 ; 2.0120507648426428E8 ; 1.0345023542663486E9 ; 2.4088530204236607E10 ; 0.0
129 ; 7946247.1571922265 ; 2.012109151024389E8 ; 1.0424597888050895E9 ; 2.428973528072087E10 ; 0.0
130 ; 7929656.5058265105 ; 2.0121674633844122E8 ; 1.0504060359622817E9 ; 2.449094619582331E10 ; 0.0
131 ; 7912832.556980293 ; 2.0122256989238688E8 ; 1.0583356924681082E9 ; 2.469216294216175E10 ; 0.0
132 ; 7896503.679570416 ; 2.012283854695222E8 ; 1.0662485250250884E9 ; 2.489338551205414E10 ; 0.0
133 ; 7875191.429994534 ; 2.0123419278007293E8 ; 1.0741450287046587E9 ; 2.509461389752366E10 ; 0.0
134 ; 7859911.603301172 ; 2.0123999153909823E8 ; 1.0820202201346533E9 ; 2.529584809030373E10 ; 0.0
135 ; 7837677.451673089 ; 2.0124578146635026E8 ; 1.0898801317379546E9 ; 2.5497088081842827E10 ; 0.0
136 ; 7820295.582100311 ; 2.012515622861386E8 ; 1.0977178091896276E9 ; 2.5698333863309177E10 ; 0.0
137 ; 7798110.218966476 ; 2.0125733372719982E8 ; 1.105538104771728E9 ; 2.5899585425595318E10 ; 0.0
138 ; 7778322.861112725 ; 2.0126309552257144E8 ; 1.1133362149906945E9 ; 2.6100842759322517E10 ; 0.0
139 ; 7758848.5780183 ; 2.0126884740947074E8 ; 1.1211145378518074E9 ; 2.630210585484509E10 ; 0.0
140 ; 7738469.48091703 ; 2.012745891291777E8 ; 1.1288733864298255E9 ; 2.650337470225456E10 ; 0.0
141 ; 7719249.887361734 ; 2.012803204269222E8 ; 1.1366118559107425E9 ; 2.6704649291383736E10 ; 0.0
142 ; 7700005.269162008 ; 2.0128604105177525E8 ; 1.1443311057981043E9 ; 2.6905929611810658E10 ; 0.0
143 ; 7680505.386656143 ; 2.0129175075654414E8 ; 1.1520311110672662E9 ; 2.7107215652862434E10 ; 0.0
144 ; 7656870.554246261 ; 2.0129744929767108E8 ; 1.1597116164539223E9 ; 2.730850740361898E10 ; 0.0
145 ; 7642911.535880575 ; 2.013031364351358E8 ; 1.1673684870081685E9 ; 2.7509804852916653E10 ; 0.0
146 ; 7628904.816818603 ; 2.0130881193236127E8 ; 1.175011398544049E9 ; 2.7711107989351788E10 ; 0.0
147 ; 7616429.374729221 ; 2.0131447555612275E8 ; 1.1826403033608677E9 ; 2.791241680128415E10 ; 0.0
148 ; 7604254.826356329 ; 2.013201270764603E8 ; 1.190256732735597E9 ; 2.811373127684027E10 ; 0.0
149 ; 7590137.313133192 ; 2.0132576626659408E8 ; 1.1978609875619533E9 ; 2.8315051403916733E10 ; 0.0
150 ; 7575397.320133179 ; 2.013313929028427E8 ; 1.2054511248750865E9 ; 2.8516377170183327E10 ; 0.0
151 ; 7565505.026591597 ; 2.0133700676454437E8 ; 1.2130265221952198E9 ; 2.871770856308617E10 ; 0.0
152 ; 7552652.593928168 ; 2.013426076339809E8 ; 1.2205920272218113E9 ; 2.8919045569850716E10 ; 0.0
153 ; 7537631.567329054 ; 2.013481952963041E8 ; 1.2281446798157394E9 ; 2.9120388177484695E10 ; 0.0
154 ; 7523660.23439647 ; 2.0135376953946507E8 ; 1.2356823113830686E9 ; 2.9321736372781E10 ; 0.0
155 ; 7510318.419990307 ; 2.0135933015414542E8 ; 1.243205971617465E9 ; 2.9523090142320465E10 ; 0.0
156 ; 7494968.690486282 ; 2.0136487693369138E8 ; 1.2507162900374553E9 ; 2.972444947247461E10 ; 0.0
157 ; 7478056.071707413 ; 2.0137040967404982E8 ; 1.2582112587279415E9 ; 2.9925814349408302E10 ; 0.0
158 ; 7468265.474733529 ; 2.0137592817370647E8 ; 1.265689314799649E9 ; 3.012718475908235E10 ; 0.0
159 ; 7452879.823465308 ; 2.013814322336264E8 ; 1.2731575802743826E9 ; 3.0328560687256058E10 ; 0.0
160 ; 7439384.987645923 ; 2.0138692165719643E8 ; 1.280610460097848E9 ; 3.0529942119489685E10 ; 0.0
161 ; 7431039.905199418 ; 2.0139239625016937E8 ; 1.2880498450854938E9 ; 3.073132904114688E10 ; 0.0
162 ; 7416465.052534315 ; 2.0139785582061034E8 ; 1.2954808849906933E9 ; 3.093272143739705E10 ; 0.0
163 ; 7401445.510983314 ; 2.0140330017884475E8 ; 1.3028973500432277E9 ; 3.113411929321766E10 ; 0.0
164 ; 7385230.73416135 ; 2.014087291374081E8 ; 1.310298795554211E9 ; 3.1335522593396503E10 ; 0.0
165 ; 7372772.837578039 ; 2.0141414251099738E8 ; 1.3176840262883723E9 ; 3.1536931322533913E10 ; 0.0
166 ; 7359089.0724216085 ; 2.014195401164241E8 ; 1.3250567991259503E9 ; 3.173834546504491E10 ; 0.0
167 ; 7346559.110143815 ; 2.0142492177256903E8 ; 1.332415888198372E9 ; 3.1939765005161335E10 ; 0.0
168 ; 7328992.168342552 ; 2.0143028730033812E8 ; 1.3397624473085158E9 ; 3.2141189926933903E10 ; 0.0
169 ; 7317518.508501987 ; 2.0143563652262023E8 ; 1.3470914394768584E9 ; 3.234262021423424E10 ; 0.0
170 ; 7295030.956621879 ; 2.01440969264246E8 ; 1.3544089579853604E9 ; 3.2544055850756863E10 ; 0.0
171 ; 7284594.798842406 ; 2.014462853519482E8 ; 1.3617039889419823E9 ; 3.274549682002111E10 ; 0.0
172 ; 7272295.79910528 ; 2.0145158461432332E8 ; 1.3689885837408247E9 ; 3.294694310537306E10 ; 0.0
173 ; 7256695.504703444 ; 2.0145686688179436E8 ; 1.3762608795399299E9 ; 3.314839468998738E10 ; 0.0
174 ; 7244746.298707646 ; 2.01462131986575E8 ; 1.3835175750446334E9 ; 3.3349851556869175E10 ; 0.0
175 ; 7240867.221435487 ; 2.0146737976263484E8 ; 1.390762321343341E9 ; 3.355131368885575E10 ; 0.0
176 ; 7225986.131710269 ; 2.0147261004566556E8 ; 1.3980031885647767E9 ; 3.3752781068618385E10 ; 0.0
177 ; 7214932.592892403 ; 2.0147782267304865E8 ; 1.405229174696487E9 ; 3.395425367866405E10 ; 0.0
178 ; 7205686.100758046 ; 2.014830174838236E8 ; 1.4124441072893794E9 ; 3.41557315013371E10 ; 0.0
179 ; 7189176.951669152 ; 2.014881943186577E8 ; 1.4196497933901374E9 ; 3.4357214518820923E10 ; 0.0
180 ; 7178636.084697947 ; 2.0149335301981628E8 ; 1.4268389703418067E9 ; 3.455870271313958E10 ; 0.0
181 ; 7169018.759053804 ; 2.0149849343113428E8 ; 1.4340176064265046E9 ; 3.476019606615939E10 ; 0.0
182 ; 7159499.692645968 ; 2.0150361539798853E8 ; 1.4411866251855583E9 ; 3.496169455959053E10 ; 0.0
183 ; 7142108.051943136 ; 2.0150871876727095E8 ; 1.4483461248782043E9 ; 3.516319817498852E10 ; 0.0
184 ; 7133293.762846468 ; 2.015138033873626E8 ; 1.4554882329301474E9 ; 3.536470689375579E10 ; 0.0
185 ; 7125353.843866421 ; 2.015188691081087E8 ; 1.4626215266929939E9 ; 3.556622069714315E10 ; 0.0
186 ; 7112418.360579849 ; 2.0152391578079408E8 ; 1.4697468805368602E9 ; 3.576773956625126E10 ; 0.0
187 ; 7102488.390533997 ; 2.0152894325811985E8 ; 1.4768592988974402E9 ; 3.596926348203205E10 ; 0.0
188 ; 7087869.049384116 ; 2.0153395139418045E8 ; 1.483961787287974E9 ; 3.617079242529017E10 ; 0.0
189 ; 7079652.342778624 ; 2.0153894004444155E8 ; 1.4910496563373582E9 ; 3.637232637668435E10 ; 0.0
190 ; 7070947.092174274 ; 2.0154390906571874E8 ; 1.498129308680137E9 ; 3.657386531672879E10 ; 0.0
191 ; 7057752.189761851 ; 2.015488583161567E8 ; 1.5052002557723112E9 ; 3.677540922579451E10 ; 0.0
192 ; 7040988.046245794 ; 2.0155378765520906E8 ; 1.512258007962073E9 ; 3.6976958084110664E10 ; 0.0
193 ; 7032979.085771293 ; 2.015586969436192E8 ; 1.519298996008319E9 ; 3.717851187176588E10 ; 0.0
194 ; 7025399.2380076805 ; 2.0156358604340097E8 ; 1.5263319750940902E9 ; 3.7380070568709496E10 ; 0.0
195 ; 7016096.521031423 ; 2.0156845481782082E8 ; 1.533357374332098E9 ; 3.75816341547529E10 ; 0.0
196 ; 6999483.587341276 ; 2.0157330313137978E8 ; 1.5403734708531294E9 ; 3.778320260957072E10 ; 0.0
197 ; 6990027.270738982 ; 2.015781308497965E8 ; 1.5473729544404707E9 ; 3.7984775912702095E10 ; 0.0
198 ; 6974650.648163035 ; 2.0158293783999047E8 ; 1.5543629817112098E9 ; 3.8186354043551895E10 ; 0.0
199 ; 6967713.429752013 ; 2.0158772397006598E8 ; 1.5613376323593729E9 ; 3.8387936981391884E10 ; 0.0
200 ; 6956587.949053839 ; 2.0159248910929644E8 ; 1.568305345789125E9 ; 3.8589524705361946E10 ; 0.0
201 ; 6944662.932635389 ; 1.867951596058136E8 ; 1.5752619337381787E9 ; 3.8791117194471245E10 ; 0.0
