CSV File for the City 3 on Day 18
1 - Minute m 
2 - Power Consumed at minute m 
3 - Power Produced at minute m 
4 - Energy Consumed since the beginning of the day 
5 - Energy Produced since the beginning of the day 
6 - Energy Lost since the beginning of the day on lines starting from the city
 
0 ; 5947065.644805785 ; 7036298.920272381 ; 0.0 ; 0.0 ; 0.0
1 ; 5953195.354105199 ; 7036298.920272381 ; 5947065.644805785 ; 7036298.920272381 ; 0.0
2 ; 5959807.325059338 ; 7036298.920272381 ; 1.1900260998910984E7 ; 1.4072597840544762E7 ; 0.0
3 ; 5966346.089882176 ; 7036298.920272381 ; 1.786006832397032E7 ; 2.1108896760817144E7 ; 0.0
4 ; 5974927.602664028 ; 7036298.920272381 ; 2.3826414413852498E7 ; 2.8145195681089524E7 ; 0.0
5 ; 5987675.652610089 ; 7036298.920272381 ; 2.9801342016516525E7 ; 3.518149460136191E7 ; 0.0
6 ; 6000209.546575666 ; 7036298.920272381 ; 3.5789017669126615E7 ; 4.221779352163429E7 ; 0.0
7 ; 6021760.178257763 ; 7036298.920272381 ; 4.178922721570228E7 ; 4.925409244190667E7 ; 0.0
8 ; 6047172.741512319 ; 7036298.920272381 ; 4.7810987393960044E7 ; 5.629039136217905E7 ; 0.0
9 ; 6091325.844376542 ; 7036298.920272381 ; 5.3858160135472365E7 ; 6.332669028245143E7 ; 0.0
10 ; 6154144.133571493 ; 7036298.920272381 ; 5.994948597984891E7 ; 7.036298920272382E7 ; 0.0
11 ; 6259377.546491116 ; 7036298.920272381 ; 6.61036301134204E7 ; 7.73992881229962E7 ; 0.0
12 ; 6426489.988338022 ; 7036298.920272381 ; 7.236300765991151E7 ; 8.443558704326858E7 ; 0.0
13 ; 6580399.230445508 ; 7036298.920272381 ; 7.878949764824954E7 ; 9.147188596354096E7 ; 0.0
14 ; 6598905.602980871 ; 7036298.920272381 ; 8.536989687869504E7 ; 9.850818488381334E7 ; 0.0
15 ; 6609308.76004804 ; 7036298.920272381 ; 9.196880248167591E7 ; 1.0554448380408572E8 ; 0.0
16 ; 6614743.582356135 ; 7036298.920272381 ; 9.857811124172395E7 ; 1.125807827243581E8 ; 0.0
17 ; 6622956.274424819 ; 7036298.920272381 ; 1.051928548240801E8 ; 1.1961708164463048E8 ; 0.0
18 ; 6631356.893263359 ; 7036298.920272381 ; 1.1181581109850492E8 ; 1.2665338056490286E8 ; 0.0
19 ; 6636698.927529902 ; 7036298.920272381 ; 1.1844716799176827E8 ; 1.3368967948517524E8 ; 0.0
20 ; 6643641.556161862 ; 7036298.920272381 ; 1.2508386691929817E8 ; 1.4072597840544763E8 ; 0.0
21 ; 6652943.769575104 ; 7036298.920272381 ; 1.3172750847546004E8 ; 1.4776227732572E8 ; 0.0
22 ; 6662866.455929162 ; 7036298.920272381 ; 1.3838045224503514E8 ; 1.547985762459924E8 ; 0.0
23 ; 6672703.303332285 ; 7036298.920272381 ; 1.450433187009643E8 ; 1.6183487516626477E8 ; 0.0
24 ; 6681441.065837999 ; 7036298.920272381 ; 1.517160220042966E8 ; 1.6887117408653715E8 ; 0.0
25 ; 6685550.83486666 ; 7036298.920272381 ; 1.583974630701346E8 ; 1.7590747300680953E8 ; 0.0
26 ; 6695276.270909741 ; 7036298.920272381 ; 1.6508301390500128E8 ; 1.829437719270819E8 ; 0.0
27 ; 6701660.187049982 ; 7036298.920272381 ; 1.71778290175911E8 ; 1.899800708473543E8 ; 0.0
28 ; 6707298.45387689 ; 7036298.920272381 ; 1.78479950362961E8 ; 1.9701636976762667E8 ; 0.0
29 ; 6717321.271390753 ; 7036298.920272381 ; 1.8518724881683788E8 ; 2.0405266868789905E8 ; 0.0
30 ; 6725967.304157912 ; 7036298.920272381 ; 1.9190457008822864E8 ; 2.1108896760817143E8 ; 0.0
31 ; 6732231.505529552 ; 7036298.920272381 ; 1.9863053739238656E8 ; 2.181252665284438E8 ; 0.0
32 ; 6735888.183345852 ; 7036298.920272381 ; 2.053627688979161E8 ; 2.251615654487162E8 ; 0.0
33 ; 6747861.402231775 ; 7036298.920272381 ; 2.1209865708126196E8 ; 2.3219786436898857E8 ; 0.0
34 ; 6750985.3636486735 ; 7036298.920272381 ; 2.1884651848349375E8 ; 2.3923416328926095E8 ; 0.0
35 ; 6757235.847314797 ; 7036298.920272381 ; 2.2559750384714243E8 ; 2.4627046220953333E8 ; 0.0
36 ; 6764142.355379199 ; 7036298.920272381 ; 2.3235473969445723E8 ; 2.533067611298057E8 ; 0.0
37 ; 6769388.426867261 ; 7036298.920272381 ; 2.3911888204983643E8 ; 2.603430600500781E8 ; 0.0
38 ; 6776023.1763115795 ; 7036298.920272381 ; 2.4588827047670367E8 ; 2.6737935897035047E8 ; 0.0
39 ; 6780335.1384407235 ; 7036298.920272381 ; 2.5266429365301526E8 ; 2.7441565789062285E8 ; 0.0
40 ; 6787267.226653817 ; 7036298.920272381 ; 2.5944462879145598E8 ; 2.8145195681089526E8 ; 0.0
41 ; 6791981.1671919655 ; 7036298.920272381 ; 2.662318960181098E8 ; 2.884882557311677E8 ; 0.0
42 ; 6796396.752587151 ; 7036298.920272381 ; 2.730238771853018E8 ; 2.955245546514401E8 ; 0.0
43 ; 6799718.480165135 ; 7036298.920272381 ; 2.798202739378889E8 ; 3.025608535717125E8 ; 0.0
44 ; 6806007.854311336 ; 7036298.920272381 ; 2.8661999241805404E8 ; 3.095971524919849E8 ; 0.0
45 ; 6809854.99558175 ; 7036298.920272381 ; 2.934260002723654E8 ; 3.166334514122573E8 ; 0.0
46 ; 6813877.608606521 ; 7036298.920272381 ; 3.0023585526794714E8 ; 3.236697503325297E8 ; 0.0
47 ; 6815864.206968205 ; 7036298.920272381 ; 3.0704973287655365E8 ; 3.3070604925280213E8 ; 0.0
48 ; 6820457.749285546 ; 7036298.920272381 ; 3.1386559708352184E8 ; 3.3774234817307454E8 ; 0.0
49 ; 6821914.977655545 ; 7036298.920272381 ; 3.2068605483280736E8 ; 3.4477864709334695E8 ; 0.0
50 ; 6822277.232766122 ; 7036298.920272381 ; 3.275079698104629E8 ; 3.5181494601361936E8 ; 0.0
51 ; 6827178.793215181 ; 7036298.920272381 ; 3.34330247043229E8 ; 3.588512449338918E8 ; 0.0
52 ; 6828767.1403554855 ; 7036298.920272381 ; 3.4115742583644414E8 ; 3.658875438541642E8 ; 0.0
53 ; 6829889.671521439 ; 7036298.920272381 ; 3.479861929767996E8 ; 3.729238427744366E8 ; 0.0
54 ; 6830380.934844325 ; 7036298.920272381 ; 3.5481608264832103E8 ; 3.79960141694709E8 ; 0.0
55 ; 6830010.733336117 ; 7036298.920272381 ; 3.6164646358316535E8 ; 3.869964406149814E8 ; 0.0
56 ; 6833507.898732085 ; 7036298.920272381 ; 3.6847647431650144E8 ; 3.940327395352538E8 ; 0.0
57 ; 6836138.935551524 ; 7036298.920272381 ; 3.753099822152335E8 ; 4.0106903845552623E8 ; 0.0
58 ; 6837510.371527675 ; 7036298.920272381 ; 3.82146121150785E8 ; 4.0810533737579864E8 ; 0.0
59 ; 6840454.264629092 ; 7036298.920272381 ; 3.889836315223127E8 ; 4.1514163629607105E8 ; 0.0
60 ; 6841244.977449999 ; 7036298.920272381 ; 3.9582408578694177E8 ; 4.2217793521634346E8 ; 0.0
61 ; 6840762.98566521 ; 7036298.920272381 ; 4.026653307643918E8 ; 4.292142341366159E8 ; 0.0
62 ; 6842384.343724722 ; 7036298.920272381 ; 4.09506093750057E8 ; 4.362505330568883E8 ; 0.0
63 ; 6842599.171885077 ; 7036298.920272381 ; 4.163484780937817E8 ; 4.432868319771607E8 ; 0.0
64 ; 6843040.669355895 ; 7036298.920272381 ; 4.231910772656668E8 ; 4.503231308974331E8 ; 0.0
65 ; 6846460.2978089005 ; 7036298.920272381 ; 4.3003411793502265E8 ; 4.573594298177055E8 ; 0.0
66 ; 6847078.202389301 ; 7036298.920272381 ; 4.3688057823283154E8 ; 4.643957287379779E8 ; 0.0
67 ; 6846055.4412286505 ; 7036298.920272381 ; 4.4372765643522084E8 ; 4.7143202765825033E8 ; 0.0
68 ; 6847930.632504956 ; 7036298.920272381 ; 4.5057371187644947E8 ; 4.7846832657852274E8 ; 0.0
69 ; 6850107.292504489 ; 7036298.920272381 ; 4.574216425089544E8 ; 4.8550462549879515E8 ; 0.0
70 ; 6849357.835091519 ; 7036298.920272381 ; 4.642717498014589E8 ; 4.9254092441906756E8 ; 0.0
71 ; 6849129.367649875 ; 7036298.920272381 ; 4.711211076365504E8 ; 4.9957722333934E8 ; 0.0
72 ; 6851270.856559311 ; 7036298.920272381 ; 4.779702370042003E8 ; 5.066135222596124E8 ; 0.0
73 ; 6850793.183712364 ; 7036298.920272381 ; 4.848215078607596E8 ; 5.136498211798848E8 ; 0.0
74 ; 6851168.055692172 ; 7036298.920272381 ; 4.91672301044472E8 ; 5.206861201001572E8 ; 0.0
75 ; 6851967.710059342 ; 7036298.920272381 ; 4.985234691001642E8 ; 5.277224190204296E8 ; 0.0
76 ; 6853044.956676072 ; 7036298.920272381 ; 5.053754368102235E8 ; 5.34758717940702E8 ; 0.0
77 ; 6850005.250156889 ; 7036298.920272381 ; 5.122284817668996E8 ; 5.417950168609744E8 ; 0.0
78 ; 6852492.827923527 ; 7036298.920272381 ; 5.1907848701705647E8 ; 5.488313157812468E8 ; 0.0
79 ; 6849554.505771956 ; 7036298.920272381 ; 5.2593097984498E8 ; 5.558676147015191E8 ; 0.0
80 ; 6846472.637496939 ; 7036298.920272381 ; 5.3278053435075194E8 ; 5.629039136217915E8 ; 0.0
81 ; 6846404.738359748 ; 7036298.920272381 ; 5.396270069882488E8 ; 5.699402125420638E8 ; 0.0
82 ; 6844468.747398958 ; 7036298.920272381 ; 5.464734117266085E8 ; 5.769765114623362E8 ; 0.0
83 ; 6841518.6441365285 ; 7036298.920272381 ; 5.533178804740075E8 ; 5.840128103826085E8 ; 0.0
84 ; 6837103.546866869 ; 7036298.920272381 ; 5.60159399118144E8 ; 5.910491093028809E8 ; 0.0
85 ; 6836589.725910148 ; 7036298.920272381 ; 5.669965026650109E8 ; 5.980854082231532E8 ; 0.0
86 ; 6833392.163340783 ; 7036298.920272381 ; 5.738330923909211E8 ; 6.051217071434256E8 ; 0.0
87 ; 6830558.280213175 ; 7036298.920272381 ; 5.806664845542619E8 ; 6.121580060636979E8 ; 0.0
88 ; 6827751.473449045 ; 7036298.920272381 ; 5.87497042834475E8 ; 6.191943049839703E8 ; 0.0
89 ; 6827382.572779273 ; 7036298.920272381 ; 5.94324794307924E8 ; 6.262306039042426E8 ; 0.0
90 ; 6822853.803109985 ; 7036298.920272381 ; 6.011521768807033E8 ; 6.33266902824515E8 ; 0.0
91 ; 6820373.629632345 ; 7036298.920272381 ; 6.079750306838133E8 ; 6.403032017447873E8 ; 0.0
92 ; 6819451.236863137 ; 7036298.920272381 ; 6.147954043134457E8 ; 6.473395006650597E8 ; 0.0
93 ; 6816690.389951208 ; 7036298.920272381 ; 6.216148555503088E8 ; 6.54375799585332E8 ; 0.0
94 ; 6810011.025822374 ; 7036298.920272381 ; 6.2843154594026E8 ; 6.614120985056044E8 ; 0.0
95 ; 6808687.742780716 ; 7036298.920272381 ; 6.352415569660825E8 ; 6.684483974258767E8 ; 0.0
96 ; 6806265.238006614 ; 7036298.920272381 ; 6.420502447088631E8 ; 6.754846963461491E8 ; 0.0
97 ; 6799171.389430691 ; 7036298.920272381 ; 6.488565099468697E8 ; 6.825209952664214E8 ; 0.0
98 ; 6799690.475741196 ; 7036298.920272381 ; 6.556556813363004E8 ; 6.895572941866938E8 ; 0.0
99 ; 6795835.197408749 ; 7036298.920272381 ; 6.624553718120415E8 ; 6.965935931069661E8 ; 0.0
100 ; 6792069.605515304 ; 7036298.920272381 ; 6.692512070094503E8 ; 7.036298920272385E8 ; 0.0
101 ; 6789659.727913302 ; 7036298.920272381 ; 6.760432766149657E8 ; 7.106661909475108E8 ; 0.0
102 ; 6786866.109243303 ; 7036298.920272381 ; 6.828329363428789E8 ; 7.177024898677832E8 ; 0.0
103 ; 6779490.051667922 ; 7036298.920272381 ; 6.896198024521222E8 ; 7.247387887880555E8 ; 0.0
104 ; 6777081.571192899 ; 7036298.920272381 ; 6.963992925037901E8 ; 7.317750877083279E8 ; 0.0
105 ; 6776435.011805948 ; 7036298.920272381 ; 7.03176374074983E8 ; 7.388113866286002E8 ; 0.0
106 ; 6771575.644110486 ; 7036298.920272381 ; 7.099528090867889E8 ; 7.458476855488726E8 ; 0.0
107 ; 6768497.835362825 ; 7036298.920272381 ; 7.167243847308993E8 ; 7.528839844691449E8 ; 0.0
108 ; 6765299.808866425 ; 7036298.920272381 ; 7.234928825662621E8 ; 7.599202833894173E8 ; 0.0
109 ; 6759694.810043899 ; 7036298.920272381 ; 7.302581823751285E8 ; 7.669565823096896E8 ; 0.0
110 ; 6754648.67753311 ; 7036298.920272381 ; 7.370178771851724E8 ; 7.73992881229962E8 ; 0.0
111 ; 6751136.568048591 ; 7036298.920272381 ; 7.437725258627056E8 ; 7.810291801502343E8 ; 0.0
112 ; 6746949.366102886 ; 7036298.920272381 ; 7.505236624307542E8 ; 7.880654790705067E8 ; 0.0
113 ; 6743658.591170831 ; 7036298.920272381 ; 7.572706117968571E8 ; 7.95101777990779E8 ; 0.0
114 ; 6737297.147362476 ; 7036298.920272381 ; 7.640142703880279E8 ; 8.021380769110514E8 ; 0.0
115 ; 6732753.7907647975 ; 7036298.920272381 ; 7.707515675353904E8 ; 8.091743758313237E8 ; 0.0
116 ; 6728566.708880432 ; 7036298.920272381 ; 7.774843213261552E8 ; 8.162106747515961E8 ; 0.0
117 ; 6725804.422883462 ; 7036298.920272381 ; 7.842128880350356E8 ; 8.232469736718684E8 ; 0.0
118 ; 6719843.17779894 ; 7036298.920272381 ; 7.909386924579191E8 ; 8.302832725921408E8 ; 0.0
119 ; 6715274.491158274 ; 7036298.920272381 ; 7.976585356357181E8 ; 8.373195715124131E8 ; 0.0
120 ; 6710255.699101985 ; 7036298.920272381 ; 8.043738101268764E8 ; 8.443558704326855E8 ; 0.0
121 ; 6704051.473385794 ; 7036298.920272381 ; 8.110840658259784E8 ; 8.513921693529578E8 ; 0.0
122 ; 6699376.703861184 ; 7036298.920272381 ; 8.177881172993642E8 ; 8.584284682732302E8 ; 0.0
123 ; 6695113.219422594 ; 7036298.920272381 ; 8.244874940032254E8 ; 8.654647671935025E8 ; 0.0
124 ; 6688544.165714945 ; 7036298.920272381 ; 8.31182607222648E8 ; 8.725010661137749E8 ; 0.0
125 ; 6683045.36645928 ; 7036298.920272381 ; 8.37871151388363E8 ; 8.795373650340472E8 ; 0.0
126 ; 6680566.440228822 ; 7036298.920272381 ; 8.445541967548223E8 ; 8.865736639543196E8 ; 0.0
127 ; 6674037.775528651 ; 7036298.920272381 ; 8.512347631950511E8 ; 8.93609962874592E8 ; 0.0
128 ; 6668652.563625206 ; 7036298.920272381 ; 8.579088009705797E8 ; 9.006462617948643E8 ; 0.0
129 ; 6664005.736566765 ; 7036298.920272381 ; 8.64577453534205E8 ; 9.076825607151366E8 ; 0.0
130 ; 6658653.796140663 ; 7036298.920272381 ; 8.712414592707717E8 ; 9.14718859635409E8 ; 0.0
131 ; 6651910.268864793 ; 7036298.920272381 ; 8.779001130669124E8 ; 9.217551585556813E8 ; 0.0
132 ; 6641314.879767037 ; 7036298.920272381 ; 8.845520233357772E8 ; 9.287914574759537E8 ; 0.0
133 ; 6638038.036304842 ; 7036298.920272381 ; 8.911933382155442E8 ; 9.35827756396226E8 ; 0.0
134 ; 6628160.725234471 ; 7036298.920272381 ; 8.97831376251849E8 ; 9.428640553164984E8 ; 0.0
135 ; 6620838.0128032705 ; 7036298.920272381 ; 9.044595369770836E8 ; 9.499003542367707E8 ; 0.0
136 ; 6611617.466659725 ; 7036298.920272381 ; 9.110803749898869E8 ; 9.569366531570431E8 ; 0.0
137 ; 6605135.941900588 ; 7036298.920272381 ; 9.176919924565465E8 ; 9.639729520773154E8 ; 0.0
138 ; 6597214.26090835 ; 7036298.920272381 ; 9.242971283984472E8 ; 9.710092509975878E8 ; 0.0
139 ; 6588037.078647103 ; 7036298.920272381 ; 9.308943426593555E8 ; 9.780455499178602E8 ; 0.0
140 ; 6582232.165277603 ; 7036298.920272381 ; 9.374823797380027E8 ; 9.850818488381325E8 ; 0.0
141 ; 6572859.075259944 ; 7036298.920272381 ; 9.440646119032803E8 ; 9.921181477584049E8 ; 0.0
142 ; 6562874.986283422 ; 7036298.920272381 ; 9.506374709785402E8 ; 9.991544466786772E8 ; 0.0
143 ; 6556590.444070228 ; 7036298.920272381 ; 9.572003459648236E8 ; 1.0061907455989496E9 ; 0.0
144 ; 6549712.711852583 ; 7036298.920272381 ; 9.637569364088938E8 ; 1.0132270445192219E9 ; 0.0
145 ; 6542608.274732446 ; 7036298.920272381 ; 9.703066491207464E8 ; 1.0202633434394943E9 ; 0.0
146 ; 6536882.026123424 ; 7036298.920272381 ; 9.768492573954788E8 ; 1.0272996423597666E9 ; 0.0
147 ; 6532407.812136957 ; 7036298.920272381 ; 9.833861394216022E8 ; 1.034335941280039E9 ; 0.0
148 ; 6526850.589715737 ; 7036298.920272381 ; 9.899185472337393E8 ; 1.0413722402003113E9 ; 0.0
149 ; 6521887.741609488 ; 7036298.920272381 ; 9.96445397823455E8 ; 1.0484085391205837E9 ; 0.0
150 ; 6513804.423291614 ; 7036298.920272381 ; 1.0029672855650644E9 ; 1.055444838040856E9 ; 0.0
151 ; 6511371.474476385 ; 7036298.920272381 ; 1.009481089988356E9 ; 1.0624811369611284E9 ; 0.0
152 ; 6505728.401060873 ; 7036298.920272381 ; 1.0159924614628323E9 ; 1.0695174358814007E9 ; 0.0
153 ; 6499856.1371662095 ; 7036298.920272381 ; 1.0224981898638932E9 ; 1.0765537348016732E9 ; 0.0
154 ; 6491306.112521074 ; 7036298.920272381 ; 1.0289980460010594E9 ; 1.0835900337219455E9 ; 0.0
155 ; 6484917.888241895 ; 7036298.920272381 ; 1.0354893521135805E9 ; 1.0906263326422179E9 ; 0.0
156 ; 6478606.791569567 ; 7036298.920272381 ; 1.0419742700018224E9 ; 1.0976626315624902E9 ; 0.0
157 ; 6473027.708945578 ; 7036298.920272381 ; 1.048452876793392E9 ; 1.1046989304827626E9 ; 0.0
158 ; 6467768.382786196 ; 7036298.920272381 ; 1.0549259045023376E9 ; 1.111735229403035E9 ; 0.0
159 ; 6461558.237311081 ; 7036298.920272381 ; 1.0613936728851237E9 ; 1.1187715283233073E9 ; 0.0
160 ; 6457154.3871244 ; 7036298.920272381 ; 1.0678552311224349E9 ; 1.1258078272435796E9 ; 0.0
161 ; 6449063.00203084 ; 7036298.920272381 ; 1.0743123855095592E9 ; 1.132844126163852E9 ; 0.0
162 ; 6444006.114639242 ; 7036298.920272381 ; 1.08076144851159E9 ; 1.1398804250841243E9 ; 0.0
163 ; 6439027.861395655 ; 7036298.920272381 ; 1.0872054546262293E9 ; 1.1469167240043967E9 ; 0.0
164 ; 6430386.692873847 ; 7036298.920272381 ; 1.093644482487625E9 ; 1.153953022924669E9 ; 0.0
165 ; 6422526.2083460055 ; 7036298.920272381 ; 1.1000748691804988E9 ; 1.1609893218449414E9 ; 0.0
166 ; 6420672.644671361 ; 7036298.920272381 ; 1.1064973953888447E9 ; 1.1680256207652137E9 ; 0.0
167 ; 6411706.354354373 ; 7036298.920272381 ; 1.1129180680335162E9 ; 1.175061919685486E9 ; 0.0
168 ; 6407550.578137007 ; 7036298.920272381 ; 1.1193297743878706E9 ; 1.1820982186057584E9 ; 0.0
169 ; 6399459.6376317525 ; 7036298.920272381 ; 1.1257373249660075E9 ; 1.1891345175260308E9 ; 0.0
170 ; 6395679.439966859 ; 7036298.920272381 ; 1.1321367846036391E9 ; 1.1961708164463031E9 ; 0.0
171 ; 6384887.004647356 ; 7036298.920272381 ; 1.138532464043606E9 ; 1.2032071153665755E9 ; 0.0
172 ; 6380727.497572444 ; 7036298.920272381 ; 1.1449173510482533E9 ; 1.2102434142868478E9 ; 0.0
173 ; 6374045.914978813 ; 7036298.920272381 ; 1.1512980785458257E9 ; 1.2172797132071202E9 ; 0.0
174 ; 6375812.135869146 ; 7036298.920272381 ; 1.1576721244608045E9 ; 1.2243160121273925E9 ; 0.0
175 ; 6366937.993405464 ; 7036298.920272381 ; 1.1640479365966737E9 ; 1.2313523110476649E9 ; 0.0
176 ; 6364164.855536913 ; 7036298.920272381 ; 1.1704148745900793E9 ; 1.2383886099679372E9 ; 0.0
177 ; 6361954.951303889 ; 7036298.920272381 ; 1.1767790394456162E9 ; 1.2454249088882096E9 ; 0.0
178 ; 6356328.252926422 ; 7036298.920272381 ; 1.1831409943969202E9 ; 1.252461207808482E9 ; 0.0
179 ; 6355401.675422104 ; 7036298.920272381 ; 1.1894973226498466E9 ; 1.2594975067287543E9 ; 0.0
180 ; 6347838.028241602 ; 7036298.920272381 ; 1.1958527243252687E9 ; 1.2665338056490266E9 ; 0.0
181 ; 6344521.68501442 ; 7036298.920272381 ; 1.2022005623535104E9 ; 1.273570104569299E9 ; 0.0
182 ; 6343637.04260026 ; 7036298.920272381 ; 1.2085450840385249E9 ; 1.2806064034895713E9 ; 0.0
183 ; 6336627.06877582 ; 7036298.920272381 ; 1.214888721081125E9 ; 1.2876427024098437E9 ; 0.0
184 ; 6334341.30214171 ; 7036298.920272381 ; 1.221225348149901E9 ; 1.294679001330116E9 ; 0.0
185 ; 6332215.756437343 ; 7036298.920272381 ; 1.2275596894520426E9 ; 1.3017153002503884E9 ; 0.0
186 ; 6325337.219138013 ; 7036298.920272381 ; 1.23389190520848E9 ; 1.3087515991706607E9 ; 0.0
187 ; 6323381.835916553 ; 7036298.920272381 ; 1.2402172424276178E9 ; 1.315787898090933E9 ; 0.0
188 ; 6319877.849858508 ; 7036298.920272381 ; 1.2465406242635343E9 ; 1.3228241970112054E9 ; 0.0
189 ; 6320386.02438338 ; 7036298.920272381 ; 1.2528605021133928E9 ; 1.3298604959314778E9 ; 0.0
190 ; 6314879.588159104 ; 7036298.920272381 ; 1.2591808881377761E9 ; 1.3368967948517501E9 ; 0.0
191 ; 6310060.78108601 ; 7036298.920272381 ; 1.2654957677259352E9 ; 1.3439330937720225E9 ; 0.0
192 ; 6306512.085765239 ; 7036298.920272381 ; 1.2718058285070212E9 ; 1.3509693926922948E9 ; 0.0
193 ; 6301186.0045473995 ; 7036298.920272381 ; 1.2781123405927863E9 ; 1.3580056916125672E9 ; 0.0
194 ; 6299647.277169675 ; 7036298.920272381 ; 1.2844135265973337E9 ; 1.3650419905328395E9 ; 0.0
195 ; 6294665.2674512 ; 7036298.920272381 ; 1.2907131738745034E9 ; 1.372078289453112E9 ; 0.0
196 ; 6291080.912058141 ; 7036298.920272381 ; 1.2970078391419547E9 ; 1.3791145883733842E9 ; 0.0
197 ; 6288799.8593237065 ; 7036298.920272381 ; 1.3032989200540128E9 ; 1.3861508872936566E9 ; 0.0
198 ; 6283063.126443531 ; 7036298.920272381 ; 1.3095877199133365E9 ; 1.393187186213929E9 ; 0.0
199 ; 6277875.29826344 ; 7036298.920272381 ; 1.3158707830397801E9 ; 1.4002234851342013E9 ; 0.0
200 ; 6274770.25758741 ; 7036298.920272381 ; 1.3221486583380437E9 ; 1.4072597840544736E9 ; 0.0
201 ; 6270982.207772215 ; 7036298.920272381 ; 1.3284234285956311E9 ; 1.414296082974746E9 ; 0.0
202 ; 6267414.88125361 ; 7036298.920272381 ; 1.3346944108034034E9 ; 1.4213323818950183E9 ; 0.0
203 ; 6266731.9867220605 ; 7036298.920272381 ; 1.340961825684657E9 ; 1.4283686808152907E9 ; 0.0
204 ; 6260226.3829464745 ; 7036298.920272381 ; 1.347228557671379E9 ; 1.435404979735563E9 ; 0.0
205 ; 6257086.645875946 ; 7036298.920272381 ; 1.3534887840543256E9 ; 1.4424412786558354E9 ; 0.0
206 ; 6254281.983711354 ; 7036298.920272381 ; 1.3597458707002015E9 ; 1.4494775775761077E9 ; 0.0
207 ; 6250945.156628319 ; 7036298.920272381 ; 1.3660001526839128E9 ; 1.45651387649638E9 ; 0.0
208 ; 6244626.676098121 ; 7036298.920272381 ; 1.3722510978405411E9 ; 1.4635501754166524E9 ; 0.0
