CSV File for the City 3 on Day 173
1 - Minute m 
2 - Power Consumed at minute m 
3 - Power Produced at minute m 
4 - Energy Consumed since the beginning of the day 
5 - Energy Produced since the beginning of the day 
6 - Energy Lost since the beginning of the day on lines starting from the city
 
0 ; 717557.6024412836 ; 1.0550720709483138E8 ; 0.0 ; 0.0 ; 0.0
1 ; 718994.7927394144 ; 1.05660137530451E8 ; 717557.6024412836 ; 1.0550720709483138E8 ; 0.0
2 ; 722138.6928569674 ; 1.061218512539114E8 ; 1436552.395180698 ; 2.1116734462528238E8 ; 0.0
3 ; 724990.6815364702 ; 1.0689234990882957E8 ; 2158691.0880376655 ; 3.172891958791938E8 ; 0.0
4 ; 728546.7290157612 ; 1.079716349705379E8 ; 2883681.7695741355 ; 4.2418154578802335E8 ; 0.0
5 ; 731236.0969302625 ; 1.0935970773711741E8 ; 3612228.4985898966 ; 5.3215318075856125E8 ; 0.0
6 ; 736746.7793337756 ; 1.1105656932134154E8 ; 4343464.595520159 ; 6.415128884956787E8 ; 0.0
7 ; 743730.4224502381 ; 1.1306222064364517E8 ; 5080211.374853935 ; 7.525694578170202E8 ; 0.0
8 ; 754849.5941468971 ; 1.1537666242622119E8 ; 5823941.797304173 ; 8.656316784606653E8 ; 0.0
9 ; 769715.0905007899 ; 1.179998951883331E8 ; 6578791.39145107 ; 9.810083408868866E8 ; 0.0
10 ; 794630.3630981385 ; 1.2093191924291426E8 ; 7348506.48195186 ; 1.0990082360752196E9 ; 0.0
11 ; 837664.5711364514 ; 1.2417273469450596E8 ; 8143136.845049998 ; 1.2199401553181338E9 ; 0.0
12 ; 902190.7761472383 ; 1.277223414385669E8 ; 8980801.41618645 ; 1.3441128900126398E9 ; 0.0
13 ; 966270.3671754295 ; 1.3158073916216367E8 ; 9882992.192333689 ; 1.4718352314512067E9 ; 0.0
14 ; 972545.3679130403 ; 1.3574792734603292E8 ; 1.0849262559509119E7 ; 1.6034159706133704E9 ; 0.0
15 ; 975454.0347170567 ; 1.402239052679816E8 ; 1.1821807927422158E7 ; 1.7391638979594033E9 ; 0.0
16 ; 978685.586200987 ; 1.4500867200757495E8 ; 1.2797261962139215E7 ; 1.8793878032273848E9 ; 0.0
17 ; 980873.5678585563 ; 1.5010222645203945E8 ; 1.3775947548340201E7 ; 2.0243964752349598E9 ; 0.0
18 ; 985071.1787427809 ; 1.5550456730329412E8 ; 1.4756821116198758E7 ; 2.1744987016869993E9 ; 0.0
19 ; 987449.6177881457 ; 1.6121569308600655E8 ; 1.5741892294941539E7 ; 2.3300032689902935E9 ; 0.0
20 ; 990100.9916370019 ; 1.6723560215655974E8 ; 1.6729341912729684E7 ; 2.4912189620763E9 ; 0.0
21 ; 992657.3522289521 ; 1.735642927128059E8 ; 1.7719442904366687E7 ; 2.65845456423286E9 ; 0.0
22 ; 993985.1334926607 ; 1.8020176280447704E8 ; 1.8712100256595638E7 ; 2.832018856945666E9 ; 0.0
23 ; 998218.4786860124 ; 1.8714801034411985E8 ; 1.9706085390088297E7 ; 3.012220619750143E9 ; 0.0
24 ; 1000191.4380715212 ; 1.9440303311842036E8 ; 2.070430386877431E7 ; 3.199368630094263E9 ; 0.0
25 ; 1004666.689835166 ; 2.0065486969797227E8 ; 2.1704495306845833E7 ; 3.3937716632126837E9 ; 0.0
26 ; 1006191.785296247 ; 2.0065706548588902E8 ; 2.2709161996680997E7 ; 3.594426532910656E9 ; 0.0
27 ; 1008800.4100914984 ; 2.0065938725443667E8 ; 2.3715353781977244E7 ; 3.795083598396545E9 ; 0.0
28 ; 1011065.8560381866 ; 2.0066183240343678E8 ; 2.472415419206874E7 ; 3.9957429856509814E9 ; 0.0
29 ; 1015125.4401340423 ; 2.006643982649417E8 ; 2.5735220048106927E7 ; 4.196404818054418E9 ; 0.0
30 ; 1018102.1694830232 ; 2.0066708211437348E8 ; 2.675034548824097E7 ; 4.39706921631936E9 ; 0.0
31 ; 1019314.6029545189 ; 2.00669881181292E8 ; 2.7768447657723993E7 ; 4.597736298433733E9 ; 0.0
32 ; 1022286.4995782494 ; 2.0067279265972495E8 ; 2.878776226067851E7 ; 4.798406179615025E9 ; 0.0
33 ; 1025361.287559966 ; 2.0067581371800333E8 ; 2.981004876025676E7 ; 4.99907897227475E9 ; 0.0
34 ; 1028283.3199073222 ; 2.0067894150805858E8 ; 3.0835410047816727E7 ; 5.199754785992753E9 ; 0.0
35 ; 1028901.570643841 ; 2.0068217317414722E8 ; 3.186369336772405E7 ; 5.400433727500812E9 ; 0.0
36 ; 1033203.2459493477 ; 2.006855058609806E8 ; 3.2892594938367892E7 ; 5.601115900674959E9 ; 0.0
37 ; 1032993.9310326871 ; 2.0068893672124523E8 ; 3.392579818431724E7 ; 5.80180140653594E9 ; 0.0
38 ; 1036898.5524239024 ; 2.0069246292250904E8 ; 3.4958792115349926E7 ; 6.002490343257185E9 ; 0.0
39 ; 1037465.3443958805 ; 2.006960816535163E8 ; 3.599569066777383E7 ; 6.203182806179694E9 ; 0.0
40 ; 1041622.8835409866 ; 2.006997901298796E8 ; 3.703315601216971E7 ; 6.40387888783321E9 ; 0.0
41 ; 1043653.5050300981 ; 2.0070358559918457E8 ; 3.80747788957107E7 ; 6.60457867796309E9 ; 0.0
42 ; 1043262.9607532173 ; 2.0070746534552625E8 ; 3.9118432400740795E7 ; 6.805282263562275E9 ; 0.0
43 ; 1045070.1479731987 ; 2.007114266935006E8 ; 4.016169536149401E7 ; 7.005989728907802E9 ; 0.0
44 ; 1046199.2515913823 ; 2.0071546701167777E8 ; 4.1206765509467214E7 ; 7.206701155601302E9 ; 0.0
45 ; 1047363.8620394779 ; 2.0071958371558505E8 ; 4.22529647610586E7 ; 7.40741662261298E9 ; 0.0
46 ; 1048524.6028653042 ; 2.007237742702301E8 ; 4.3300328623098075E7 ; 7.608136206328565E9 ; 0.0
47 ; 1050124.6741026659 ; 2.0072803619219515E8 ; 4.434885322596338E7 ; 7.808859980598795E9 ; 0.0
48 ; 1050599.266568214 ; 2.007323670513332E8 ; 4.539897790006604E7 ; 8.00958801679099E9 ; 0.0
49 ; 1051464.1508258174 ; 2.007367644720978E8 ; 4.6449577166634254E7 ; 8.210320383842323E9 ; 0.0
50 ; 1052718.6625497607 ; 2.0074122613453716E8 ; 4.7501041317460075E7 ; 8.411057148314421E9 ; 0.0
51 ; 1052945.5853757975 ; 2.0074574977498186E8 ; 4.855375998000984E7 ; 8.611798374448957E9 ; 0.0
52 ; 1054616.8660735176 ; 2.0075033318645576E8 ; 4.960670556538564E7 ; 8.81254412422394E9 ; 0.0
53 ; 1054886.8340718977 ; 2.0075497421883756E8 ; 5.066132243145916E7 ; 9.013294457410397E9 ; 0.0
54 ; 1055871.550563671 ; 2.0075967077879888E8 ; 5.1716209265531056E7 ; 9.214049431629234E9 ; 0.0
55 ; 1057282.910563599 ; 2.007644208295442E8 ; 5.277208081609473E7 ; 9.414809102408033E9 ; 0.0
56 ; 1056531.0534679198 ; 2.0076922239037544E8 ; 5.382936372665832E7 ; 9.615573523237577E9 ; 0.0
57 ; 1057408.8485145716 ; 2.0077407353610316E8 ; 5.4885894780126244E7 ; 9.816342745627953E9 ; 0.0
58 ; 1057777.4664480833 ; 2.0077897239632413E8 ; 5.5943303628640816E7 ; 1.0017116819164055E10 ; 0.0
59 ; 1056896.8949849792 ; 2.0078391715458423E8 ; 5.70010810950889E7 ; 1.0217895791560379E10 ; 0.0
60 ; 1057917.7385411514 ; 2.0078890604744318E8 ; 5.8057977990073875E7 ; 1.0418679708714964E10 ; 0.0
61 ; 1058574.0217669837 ; 2.0079393736345708E8 ; 5.911589572861502E7 ; 1.0619468614762407E10 ; 0.0
62 ; 1060066.2768814552 ; 2.0079900944209263E8 ; 6.0174469750382006E7 ; 1.0820262552125864E10 ; 0.0
63 ; 1059184.2329364838 ; 2.0080412067258584E8 ; 6.123453602726346E7 ; 1.1021061561567957E10 ; 0.0
64 ; 1060431.458991905 ; 2.0080926949275702E8 ; 6.229372026019995E7 ; 1.1221865682240543E10 ; 0.0
65 ; 1061504.3527508143 ; 2.0081445438779202E8 ; 6.335415171919186E7 ; 1.1422674951733301E10 ; 0.0
66 ; 1061454.1128357258 ; 2.0081967388899928E8 ; 6.441565607194267E7 ; 1.1623489406121094E10 ; 0.0
67 ; 1061017.5813075395 ; 2.0082492657255068E8 ; 6.54771101847784E7 ; 1.1824309080010094E10 ; 0.0
68 ; 1062669.263213573 ; 2.0083021105821362E8 ; 6.653812776608594E7 ; 1.2025134006582644E10 ; 0.0
69 ; 1064115.8496840266 ; 2.0083552600808084E8 ; 6.760079702929951E7 ; 1.2225964217640858E10 ; 0.0
70 ; 1062070.8261702645 ; 2.0084087012530306E8 ; 6.866491287898354E7 ; 1.242679974364894E10 ; 0.0
71 ; 1063773.285721249 ; 2.008462421528302E8 ; 6.972698370515381E7 ; 1.2627640613774242E10 ; 0.0
72 ; 1063367.085513687 ; 2.008516408721644E8 ; 7.079075699087505E7 ; 1.2828486855927073E10 ; 0.0
73 ; 1064145.1594754157 ; 2.008570651021291E8 ; 7.185412407638873E7 ; 1.3029338496799236E10 ; 0.0
74 ; 1063282.931844514 ; 2.008625136976573E8 ; 7.291826923586415E7 ; 1.3230195561901365E10 ; 0.0
75 ; 1065469.0958834724 ; 2.0086798554860094E8 ; 7.398155216770867E7 ; 1.3431058075599022E10 ; 0.0
76 ; 1063702.3051156336 ; 2.008734795785644E8 ; 7.504702126359214E7 ; 1.3631926061147623E10 ; 0.0
77 ; 1065476.54584559 ; 2.0087899474376312E8 ; 7.611072356870778E7 ; 1.3832799540726187E10 ; 0.0
78 ; 1063337.9654799523 ; 2.0088453003190908E8 ; 7.717620011455336E7 ; 1.403367853546995E10 ; 0.0
79 ; 1062146.2766408627 ; 2.0089008446112445E8 ; 7.823953808003332E7 ; 1.423456306550186E10 ; 0.0
80 ; 1062812.6335277092 ; 2.0089565707888377E8 ; 7.930168435667418E7 ; 1.4435453149962984E10 ; 0.0
81 ; 1062243.5807372946 ; 2.0090124696098548E8 ; 8.036449699020189E7 ; 1.4636348807041868E10 ; 0.0
82 ; 1061351.286447772 ; 2.0090685321055335E8 ; 8.142674057093918E7 ; 1.4837250054002853E10 ; 0.0
83 ; 1060194.979951798 ; 2.009124749570675E8 ; 8.248809185738696E7 ; 1.5038156907213408E10 ; 0.0
84 ; 1057541.6672798444 ; 2.0091811135542548E8 ; 8.354828683733876E7 ; 1.5239069382170475E10 ; 0.0
85 ; 1058620.2127522505 ; 2.009237615850334E8 ; 8.46058285046186E7 ; 1.54399874935259E10 ; 0.0
86 ; 1057693.1434686605 ; 2.0092942484892595E8 ; 8.566444871737085E7 ; 1.5640911255110933E10 ; 0.0
87 ; 1056863.3896994358 ; 2.0093510037291646E8 ; 8.672214186083952E7 ; 1.584184067995986E10 ; 0.0
88 ; 1056865.3257062496 ; 2.0094078740477517E8 ; 8.777900525053895E7 ; 1.6042775780332777E10 ; 0.0
89 ; 1054893.3691603583 ; 2.009464852134361E8 ; 8.883587057624519E7 ; 1.6243716567737553E10 ; 0.0
90 ; 1054782.2947702545 ; 2.0095219308823147E8 ; 8.989076394540554E7 ; 1.6444663052950989E10 ; 0.0
91 ; 1053790.985809001 ; 2.009579103381536E8 ; 9.09455462401758E7 ; 1.664561524603922E10 ; 0.0
92 ; 1053044.9591045885 ; 2.009636362911431E8 ; 9.19993372259848E7 ; 1.6846573156377375E10 ; 0.0
93 ; 1053169.9233270718 ; 2.009693702934028E8 ; 9.305238218508938E7 ; 1.7047536792668518E10 ; 0.0
94 ; 1051386.6357854567 ; 2.009751117087372E8 ; 9.410555210841645E7 ; 1.724850616296192E10 ; 0.0
95 ; 1050160.2938819814 ; 2.009808599179161E8 ; 9.515693874420191E7 ; 1.744948127467066E10 ; 0.0
96 ; 1050208.170631723 ; 2.0098661431806195E8 ; 9.62070990380839E7 ; 1.7650462134588573E10 ; 0.0
97 ; 1048681.727715064 ; 2.0099237432206044E8 ; 9.725730720871562E7 ; 1.7851448748906635E10 ; 0.0
98 ; 1046248.1388419766 ; 2.0099813935799304E8 ; 9.830598893643068E7 ; 1.8052441123228695E10 ; 0.0
99 ; 1045725.6979550786 ; 2.0100390886859134E8 ; 9.935223707527265E7 ; 1.825343926258669E10 ; 0.0
100 ; 1045463.3386446458 ; 2.010096823107122E8 ; 1.0039796277322772E8 ; 1.845444317145528E10 ; 0.0
101 ; 1044670.4621350695 ; 2.0101545915483278E8 ; 1.0144342611187236E8 ; 1.865545285376599E10 ; 0.0
102 ; 1042328.9446607876 ; 2.0102123888456544E8 ; 1.0248809657400744E8 ; 1.8856468312920822E10 ; 0.0
103 ; 1041374.2883228888 ; 2.0102702099619088E8 ; 1.0353042551866822E8 ; 1.905748955180539E10 ; 0.0
104 ; 1041305.4547289016 ; 2.010328049982096E8 ; 1.0457179980699112E8 ; 1.925851657280158E10 ; 0.0
105 ; 1038619.2893126076 ; 2.010385904109108E8 ; 1.0561310526172002E8 ; 1.945954937779979E10 ; 0.0
106 ; 1038394.670596024 ; 2.010443767659579E8 ; 1.0665172455103262E8 ; 1.96605879682107E10 ; 0.0
107 ; 1037940.3016234018 ; 2.0105016360599017E8 ; 1.0769011922162864E8 ; 1.9861632344976658E10 ; 0.0
108 ; 1034938.2142629345 ; 2.0105595048424E8 ; 1.0872805952325204E8 ; 2.006268250858265E10 ; 0.0
109 ; 1035992.7368308228 ; 2.0106173696416497E8 ; 1.0976299773751497E8 ; 2.026373845906689E10 ; 0.0
110 ; 1033596.91400048 ; 2.0106752261909437E8 ; 1.1079899047434579E8 ; 2.0464800196031055E10 ; 0.0
111 ; 1032104.4817585094 ; 2.010733070318893E8 ; 1.1183258738834627E8 ; 2.066586771865015E10 ; 0.0
112 ; 1031116.299609237 ; 2.0107908979461637E8 ; 1.1286469187010477E8 ; 2.086694102568204E10 ; 0.0
113 ; 1030475.8398111399 ; 2.0108487050823373E8 ; 1.1389580816971402E8 ; 2.1068020115476658E10 ; 0.0
114 ; 1027891.5258294082 ; 2.010906487822897E8 ; 1.1492628400952516E8 ; 2.126910498598489E10 ; 0.0
115 ; 1026353.6479883486 ; 2.0109642423463276E8 ; 1.1595417553535457E8 ; 2.147019563476718E10 ; 0.0
116 ; 1025442.4909675246 ; 2.0110219649113318E8 ; 1.1698052918334292E8 ; 2.1671292059001816E10 ; 0.0
117 ; 1025519.3813254444 ; 2.011079651854152E8 ; 1.1800597167431045E8 ; 2.187239425549295E10 ; 0.0
118 ; 1022635.520228402 ; 2.0111372995859972E8 ; 1.1903149105563588E8 ; 2.2073502220678364E10 ; 0.0
119 ; 1021002.9052804038 ; 2.0111949045905697E8 ; 1.2005412657586429E8 ; 2.2274615950636963E10 ; 0.0
120 ; 1020298.619834624 ; 2.0112524634216866E8 ; 1.210751294811447E8 ; 2.247573544109602E10 ; 0.0
121 ; 1019918.0580537929 ; 2.0113099727009943E8 ; 1.2209542810097931E8 ; 2.2676860687438187E10 ; 0.0
122 ; 1016514.4573210225 ; 2.0113674291157702E8 ; 1.231153461590331E8 ; 2.2877991684708286E10 ; 0.0
123 ; 1016972.2635875606 ; 2.011424829416809E8 ; 1.2413186061635412E8 ; 2.307912842761986E10 ; 0.0
124 ; 1013961.4487871459 ; 2.0114821704163915E8 ; 1.2514883287994169E8 ; 2.3280270910561543E10 ; 0.0
125 ; 1013803.575982622 ; 2.0115394489863282E8 ; 1.2616279432872884E8 ; 2.348141912760318E10 ; 0.0
126 ; 1011291.8005598802 ; 2.0115966620560816E8 ; 1.2717659790471146E8 ; 2.3682573072501812E10 ; 0.0
127 ; 1009647.9559787309 ; 2.0116538066109568E8 ; 1.2818788970527133E8 ; 2.388373273870742E10 ; 0.0
128 ; 1007511.3175422067 ; 2.0117108796903628E8 ; 1.2919753766125007E8 ; 2.4084898119368515E10 ; 0.0
129 ; 1007534.0465993065 ; 2.0117678783861384E8 ; 1.3020504897879228E8 ; 2.428606920733755E10 ; 0.0
130 ; 1004500.3841743713 ; 2.0118247998409432E8 ; 1.312125830253916E8 ; 2.4487245995176167E10 ; 0.0
131 ; 1002507.3106023758 ; 2.011881641246708E8 ; 1.3221708340956597E8 ; 2.468842847516026E10 ; 0.0
132 ; 1001611.2662005475 ; 2.011938399843143E8 ; 1.3321959072016835E8 ; 2.488961663928493E10 ; 0.0
133 ; 996995.6068690427 ; 2.0119950729163036E8 ; 1.342212019863689E8 ; 2.5090810479269245E10 ; 0.0
134 ; 994905.4503397275 ; 2.012051657797209E8 ; 1.3521819759323794E8 ; 2.5292009986560875E10 ; 0.0
135 ; 992796.2140930778 ; 2.012108151860513E8 ; 1.3621310304357767E8 ; 2.5493215152340595E10 ; 0.0
136 ; 989915.7639497875 ; 2.0121645525232226E8 ; 1.3720589925767076E8 ; 2.5694425967526646E10 ; 0.0
137 ; 987540.2115356314 ; 2.0122208572434652E8 ; 1.3819581502162054E8 ; 2.589564242277897E10 ; 0.0
138 ; 985254.7242071237 ; 2.0122770635193023E8 ; 1.3918335523315617E8 ; 2.6096864508503315E10 ; 0.0
139 ; 983020.5740637226 ; 2.0123331688875863E8 ; 1.401686099573633E8 ; 2.6298092214855244E10 ; 0.0
140 ; 979831.2756748057 ; 2.0123891709228572E8 ; 1.4115163053142703E8 ; 2.6499325531744003E10 ; 0.0
141 ; 975128.7601310598 ; 2.0124450672362843E8 ; 1.4213146180710185E8 ; 2.670056444883629E10 ; 0.0
142 ; 973974.694261974 ; 2.012500855474641E8 ; 1.431065905672329E8 ; 2.6901808955559917E10 ; 0.0
143 ; 972034.7446474099 ; 2.0125565333193228E8 ; 1.4408056526149487E8 ; 2.710305904110738E10 ; 0.0
144 ; 969853.6893923018 ; 2.0126120984853947E8 ; 1.450526000061423E8 ; 2.7304314694439312E10 ; 0.0
145 ; 965937.5827112664 ; 2.01266754872068E8 ; 1.460224536955346E8 ; 2.7505575904287853E10 ; 0.0
146 ; 966171.0455438319 ; 2.0127228818048748E8 ; 1.4698839127824587E8 ; 2.770684265915992E10 ; 0.0
147 ; 965456.4302428768 ; 2.0127780955487E8 ; 1.479545623237897E8 ; 2.790811494734041E10 ; 0.0
148 ; 962096.7994803203 ; 2.012833187793082E8 ; 1.4892001875403255E8 ; 2.810939275689528E10 ; 0.0
149 ; 961039.2686325245 ; 2.012888156408359E8 ; 1.4988211555351287E8 ; 2.8310676075674587E10 ; 0.0
150 ; 958511.9940510789 ; 2.0129429992935234E8 ; 1.508431548221454E8 ; 2.8511964891315422E10 ; 0.0
151 ; 959127.2701676766 ; 2.0129977143754828E8 ; 1.5180166681619647E8 ; 2.8713259191244774E10 ; 0.0
152 ; 955698.6626163302 ; 2.0130522996083522E8 ; 1.5276079408636415E8 ; 2.8914558962682323E10 ; 0.0
153 ; 955512.3065178745 ; 2.0131067529727703E8 ; 1.537164927489805E8 ; 2.9115864192643158E10 ; 0.0
154 ; 954327.9692609939 ; 2.013161072475238E8 ; 1.5467200505549836E8 ; 2.9317174867940434E10 ; 0.0
155 ; 951405.5784662431 ; 2.013215256147484E8 ; 1.5562633302475935E8 ; 2.9518490975187958E10 ; 0.0
156 ; 950352.8438979394 ; 2.0132693020458457E8 ; 1.565777386032256E8 ; 2.9719812500802708E10 ; 0.0
157 ; 948401.7357681146 ; 2.0133232082506812E8 ; 1.5752809144712353E8 ; 2.9921139431007294E10 ; 0.0
158 ; 946686.8101887173 ; 2.013376972865792E8 ; 1.5847649318289164E8 ; 3.0122471751832363E10 ; 0.0
159 ; 943997.8698627992 ; 2.0134305940178728E8 ; 1.5942317999308035E8 ; 3.0323809449118942E10 ; 0.0
160 ; 942915.9055565016 ; 2.0134840698559767E8 ; 1.6036717786294314E8 ; 3.052515250852073E10 ; 0.0
161 ; 941138.4526404291 ; 2.0135373985510007E8 ; 1.6131009376849964E8 ; 3.072650091550633E10 ; 0.0
162 ; 940126.4888853526 ; 2.0135905782951856E8 ; 1.622512322211401E8 ; 3.0927854655361427E10 ; 0.0
163 ; 937418.3540636334 ; 2.013643607301638E8 ; 1.6319135871002543E8 ; 3.1129213713190945E10 ; 0.0
164 ; 935227.7550138666 ; 2.013696483803865E8 ; 1.6412877706408906E8 ; 3.133057807392111E10 ; 0.0
165 ; 933763.0508662892 ; 2.013749206055324E8 ; 1.650640048191029E8 ; 3.1531947722301495E10 ; 0.0
166 ; 932114.9749969969 ; 2.0138017723289916E8 ; 1.659977678699692E8 ; 3.173332264290703E10 ; 0.0
167 ; 930096.9373145277 ; 2.0138541809169438E8 ; 1.6692988284496617E8 ; 3.1934702820139927E10 ; 0.0
168 ; 929041.9766643611 ; 2.0139064301299512E8 ; 1.678599797822807E8 ; 3.213608823823162E10 ; 0.0
169 ; 927180.0035615389 ; 2.013958518297088E8 ; 1.6878902175894508E8 ; 3.2337478881244617E10 ; 0.0
170 ; 924805.9060866224 ; 2.0140104437653548E8 ; 1.697162017625066E8 ; 3.2538874733074326E10 ; 0.0
171 ; 923780.1472738403 ; 2.0140622048993117E8 ; 1.7064100766859323E8 ; 3.2740275777450863E10 ; 0.0
172 ; 921181.676224927 ; 2.0141138000807264E8 ; 1.7156478781586707E8 ; 3.2941681997940796E10 ; 0.0
173 ; 920254.8295697762 ; 2.0141652277082327E8 ; 1.7248596949209198E8 ; 3.3143093377948868E10 ; 0.0
174 ; 920777.5010688169 ; 2.0142164861969995E8 ; 1.7340622432166177E8 ; 3.3344509900719692E10 ; 0.0
175 ; 919399.141711349 ; 2.014267573978412E8 ; 1.743270018227306E8 ; 3.3545931549339394E10 ; 0.0
176 ; 917525.1214611556 ; 2.0143184894997627E8 ; 1.7524640096444196E8 ; 3.3747358306737236E10 ; 0.0
177 ; 916948.106438092 ; 2.0143692312239537E8 ; 1.761639260859031E8 ; 3.3948790155687214E10 ; 0.0
178 ; 913501.50878791 ; 2.0144197976292062E8 ; 1.770808741923412E8 ; 3.415022707880961E10 ; 0.0
179 ; 912452.8681108346 ; 2.014470187208783E8 ; 1.779943757011291E8 ; 3.435166905857253E10 ; 0.0
180 ; 911012.3314451404 ; 2.0145203984707165E8 ; 1.7890682856923994E8 ; 3.45531160772934E10 ; 0.0
181 ; 909213.087614177 ; 2.014570429937548E8 ; 1.7981784090068507E8 ; 3.475456811714047E10 ; 0.0
182 ; 907638.2539586884 ; 2.014620280146075E8 ; 1.8072705398829925E8 ; 3.4956025160134224E10 ; 0.0
183 ; 909232.3453367889 ; 2.0146699476471052E8 ; 1.8163469224225795E8 ; 3.5157487188148834E10 ; 0.0
184 ; 905848.5712594795 ; 2.0147194310052204E8 ; 1.8254392458759475E8 ; 3.535895418291354E10 ; 0.0
185 ; 905145.3423474322 ; 2.0147687287985477E8 ; 1.8344977315885422E8 ; 3.556042612601407E10 ; 0.0
186 ; 903768.7591466927 ; 2.0148178396185353E8 ; 1.8435491850120166E8 ; 3.576190299889392E10 ; 0.0
187 ; 902078.7735982559 ; 2.014866762069741E8 ; 1.8525868726034835E8 ; 3.5963384782855774E10 ; 0.0
188 ; 900767.8202060951 ; 2.01491549476962E8 ; 1.861607660339466E8 ; 3.616487145906275E10 ; 0.0
189 ; 899124.52041993 ; 2.0149640363483277E8 ; 1.870615338541527E8 ; 3.636636300853971E10 ; 0.0
190 ; 899103.0653665095 ; 2.0150123854485223E8 ; 1.8796065837457263E8 ; 3.6567859412174545E10 ; 0.0
191 ; 896731.9718869198 ; 2.015060540725176E8 ; 1.8885976143993914E8 ; 3.67693606507194E10 ; 0.0
192 ; 894822.9145566106 ; 2.0151085008453935E8 ; 1.8975649341182607E8 ; 3.6970866704791916E10 ; 0.0
193 ; 893566.698759954 ; 2.015156264488234E8 ; 1.906513163263827E8 ; 3.717237755487646E10 ; 0.0
194 ; 892047.2774507597 ; 2.0152038303445396E8 ; 1.9154488302514264E8 ; 3.737389318132528E10 ; 0.0
195 ; 890491.5824599153 ; 2.0152511971167707E8 ; 1.924369303025934E8 ; 3.757541356435973E10 ; 0.0
196 ; 890000.0295209285 ; 2.015298363518843E8 ; 1.9332742188505334E8 ; 3.777693868407141E10 ; 0.0
197 ; 890234.8913966956 ; 2.0153453282759738E8 ; 1.9421742191457427E8 ; 3.7978468520423294E10 ; 0.0
198 ; 887272.567431344 ; 2.01539209012453E8 ; 1.9510765680597097E8 ; 3.818000305325089E10 ; 0.0
199 ; 887939.1043285467 ; 2.0154386478118816E8 ; 1.959949293734023E8 ; 3.838154226226334E10 ; 0.0
200 ; 885200.040846537 ; 2.0154850000962615E8 ; 1.9688286847773084E8 ; 3.858308612704453E10 ; 0.0
