CSV File for the City 6 on Day 83
1 - Minute m 
2 - Power Consumed at minute m 
3 - Power Produced at minute m 
4 - Energy Consumed since the beginning of the day 
5 - Energy Produced since the beginning of the day 
6 - Energy Lost since the beginning of the day on lines starting from the city
 
0 ; 1.1168576698800305E7 ; 1.0605476206668434E8 ; 0.0 ; 0.0 ; 0.0
1 ; 1.1177079449644957E7 ; 1.0620562819415617E8 ; 1.1168576698800305E7 ; 1.0605476206668434E8 ; 0.0
2 ; 1.11902061944149E7 ; 1.0666548784781674E8 ; 2.2345656148445264E7 ; 2.122603902608405E8 ; 0.0
3 ; 1.1204359392943146E7 ; 1.0743434496706533E8 ; 3.3535862342860162E7 ; 3.1892587810865724E8 ; 0.0
4 ; 1.1220849441285154E7 ; 1.0851220308562064E8 ; 4.4740221735803306E7 ; 4.263602230757226E8 ; 0.0
5 ; 1.1242834652122557E7 ; 1.09899065310826E8 ; 5.596107117708846E7 ; 5.348724261613432E8 ; 0.0
6 ; 1.126762458347882E7 ; 1.1159493430508259E8 ; 6.720390582921103E7 ; 6.447714914721692E8 ; 0.0
7 ; 1.1304171507569296E7 ; 1.1359981226966411E8 ; 7.847153041268985E7 ; 7.563664257772517E8 ; 0.0
8 ; 1.135966600181603E7 ; 1.159137009311418E8 ; 8.977570192025915E7 ; 8.699662380469158E8 ; 0.0
9 ; 1.1438053191794068E7 ; 1.1853660153061372E8 ; 1.0113536792207518E8 ; 9.858799389780576E8 ; 0.0
10 ; 1.1559556410534745E7 ; 1.2146851481589526E8 ; 1.1257342111386925E8 ; 1.1044165405086713E9 ; 0.0
11 ; 1.1760790639865028E7 ; 1.2470944103678659E8 ; 1.2413297752440399E8 ; 1.2258850553245666E9 ; 0.0
12 ; 1.2079482329069117E7 ; 1.282593799434875E8 ; 1.3589376816426903E8 ; 1.3505944963613532E9 ; 0.0
13 ; 1.23793752495712E7 ; 1.3211833078818262E8 ; 1.4797325049333814E8 ; 1.4788538763048406E9 ; 0.0
14 ; 1.2419226484047404E7 ; 1.3628629232977396E8 ; 1.6035262574290934E8 ; 1.6109722070930233E9 ; 0.0
15 ; 1.2427802659632558E7 ; 1.4076326284169018E8 ; 1.7277185222695675E8 ; 1.7472584994227972E9 ; 0.0
16 ; 1.2445375658667468E7 ; 1.455492401226577E8 ; 1.8519965488658932E8 ; 1.8880217622644873E9 ; 0.0
17 ; 1.245893610803397E7 ; 1.5064422151027521E8 ; 1.976450305452568E8 ; 2.033571002387145E9 ; 0.0
18 ; 1.2474255756902197E7 ; 1.5604820389719945E8 ; 2.1010396665329075E8 ; 2.1842152238974204E9 ; 0.0
19 ; 1.2486985708326599E7 ; 1.6176118374971172E8 ; 2.2257822241019294E8 ; 2.34026342779462E9 ; 0.0
20 ; 1.250188663258987E7 ; 1.677831571284127E8 ; 2.3506520811851954E8 ; 2.5020246115443316E9 ; 0.0
21 ; 1.251781826505737E7 ; 1.741141197107692E8 ; 2.4756709475110942E8 ; 2.6698077686727443E9 ; 0.0
22 ; 1.2533797838566434E7 ; 1.8075406681522256E8 ; 2.600849130161668E8 ; 2.8439218883835135E9 ; 0.0
23 ; 1.2548454832831321E7 ; 1.877029934265597E8 ; 2.726187108547332E8 ; 3.024675955198736E9 ; 0.0
24 ; 1.2559982507390287E7 ; 1.9496089422224724E8 ; 2.8516716568756455E8 ; 3.2123789486252956E9 ; 0.0
25 ; 1.2576840525605816E7 ; 2.0121580449761468E8 ; 2.977271481949548E8 ; 3.407339842847543E9 ; 0.0
26 ; 1.2591717079470508E7 ; 2.012212662301267E8 ; 3.103039887205606E8 ; 3.6085556473451576E9 ; 0.0
27 ; 1.2601924952857869E7 ; 2.0122704263176736E8 ; 3.228957058000311E8 ; 3.8097769135752845E9 ; 0.0
28 ; 1.261553377669742E7 ; 2.012331274231399E8 ; 3.35497630752889E8 ; 4.0110039562070518E9 ; 0.0
29 ; 1.2632315917865723E7 ; 2.0123951415365076E8 ; 3.481131645295864E8 ; 4.212237083630192E9 ; 0.0
30 ; 1.264180374532778E7 ; 2.0124619622784746E8 ; 3.6074548044745207E8 ; 4.413476597783842E9 ; 0.0
31 ; 1.2657041523714472E7 ; 2.012531669309675E8 ; 3.7338728419277984E8 ; 4.614722794011689E9 ; 0.0
32 ; 1.2670365524050578E7 ; 2.012604194535371E8 ; 3.860443257164943E8 ; 4.8159759609426565E9 ; 0.0
33 ; 1.2689132594742365E7 ; 2.0126794691488317E8 ; 3.987146912405449E8 ; 5.0172363803961935E9 ; 0.0
34 ; 1.2696150211547803E7 ; 2.0127574238544863E8 ; 4.114038238352873E8 ; 5.218504327311077E9 ; 0.0
35 ; 1.2708473242792238E7 ; 2.0128379890782547E8 ; 4.2409997404683506E8 ; 5.419780069696526E9 ; 0.0
36 ; 1.2720041752101751E7 ; 2.0129210951644295E8 ; 4.368084472896273E8 ; 5.621063868604351E9 ; 0.0
37 ; 1.2731357601195626E7 ; 2.01300667255871E8 ; 4.495284890417291E8 ; 5.822355978120794E9 ; 0.0
38 ; 1.2742463807327105E7 ; 2.0130946519771773E8 ; 4.622598466429247E8 ; 6.023656645376665E9 ; 0.0
39 ; 1.2751386764708761E7 ; 2.013184964561185E8 ; 4.750023104502518E8 ; 6.224966110574383E9 ; 0.0
40 ; 1.2763233996112736E7 ; 2.013277542018297E8 ; 4.877536972149606E8 ; 6.426284607030501E9 ; 0.0
41 ; 1.2771667083167275E7 ; 2.013372316749539E8 ; 5.0051693121107334E8 ; 6.627612361232331E9 ; 0.0
42 ; 1.2779940938625665E7 ; 2.0134692219633424E8 ; 5.132885982942406E8 ; 6.828949592907285E9 ; 0.0
43 ; 1.2788274367240442E7 ; 2.0135681917766616E8 ; 5.260685392328663E8 ; 7.030296515103619E9 ; 0.0
44 ; 1.2799428704472749E7 ; 2.0136691613038164E8 ; 5.388568136001067E8 ; 7.231653334281284E9 ; 0.0
45 ; 1.2800860703458596E7 ; 2.0137720667336735E8 ; 5.516562423045795E8 ; 7.433020250411666E9 ; 0.0
46 ; 1.280970941480356E7 ; 2.013876845395819E8 ; 5.64457103008038E8 ; 7.634397457085033E9 ; 0.0
47 ; 1.2817842305833636E7 ; 2.0139834358164087E8 ; 5.772668124228415E8 ; 7.835785141624616E9 ; 0.0
48 ; 1.2824115968838327E7 ; 2.014091777764394E8 ; 5.900846547286751E8 ; 8.037183485206257E9 ; 0.0
49 ; 1.282755473871011E7 ; 2.014201812288826E8 ; 6.029087706975135E8 ; 8.238592662982697E9 ; 0.0
50 ; 1.2833917037897337E7 ; 2.0143134817479405E8 ; 6.157363254362236E8 ; 8.440012844211579E9 ; 0.0
51 ; 1.2835187832161762E7 ; 2.0144267298307046E8 ; 6.28570242474121E8 ; 8.641444192386374E9 ; 0.0
52 ; 1.283935620032676E7 ; 2.0145415015715E8 ; 6.414054303062828E8 ; 8.842886865369444E9 ; 0.0
53 ; 1.2847861558023768E7 ; 2.0146577433585808E8 ; 6.542447865066096E8 ; 9.044341015526594E9 ; 0.0
54 ; 1.284882832875943E7 ; 2.0147754029369238E8 ; 6.670926480646334E8 ; 9.245806789862452E9 ; 0.0
55 ; 1.2849880722497202E7 ; 2.0148944294060552E8 ; 6.799414763933928E8 ; 9.447284330156143E9 ; 0.0
56 ; 1.28538543296375E7 ; 2.015014773213407E8 ; 6.9279135711589E8 ; 9.648773773096748E9 ; 0.0
57 ; 1.2858565872435542E7 ; 2.015136386143718E8 ; 7.056452114455276E8 ; 9.850275250418089E9 ; 0.0
58 ; 1.2859551598390266E7 ; 2.015259221304964E8 ; 7.185037773179631E8 ; 1.0051788889032461E10 ; 0.0
59 ; 1.286545091219148E7 ; 2.0153832331112665E8 ; 7.313633289163533E8 ; 1.0253314811162958E10 ; 0.0
60 ; 1.286819887830876E7 ; 2.0155083772631878E8 ; 7.442287798285449E8 ; 1.0454853134474085E10 ; 0.0
61 ; 1.287313586691682E7 ; 2.0156346107258028E8 ; 7.570969787068536E8 ; 1.0656403972200403E10 ; 0.0
62 ; 1.2871496894194003E7 ; 2.0157618917048863E8 ; 7.699701145737704E8 ; 1.0857967433272984E10 ; 0.0
63 ; 1.2876200077797689E7 ; 2.0158901796215373E8 ; 7.828416114679644E8 ; 1.1059543622443472E10 ; 0.0
64 ; 1.2874535502997588E7 ; 2.0160194350855288E8 ; 7.957178115457621E8 ; 1.1261132640405626E10 ; 0.0
65 ; 1.2879502572567305E7 ; 2.0161496198676398E8 ; 8.085923470487597E8 ; 1.1462734583914179E10 ; 0.0
66 ; 1.288499303583843E7 ; 2.0162806968712083E8 ; 8.21471849621327E8 ; 1.1664349545900944E10 ; 0.0
67 ; 1.2883869443770843E7 ; 2.0164126301031074E8 ; 8.343568426571655E8 ; 1.1865977615588064E10 ; 0.0
68 ; 1.288590896325587E7 ; 2.0165453846443397E8 ; 8.472407121009364E8 ; 1.2067618878598375E10 ; 0.0
69 ; 1.2890305738594243E7 ; 2.0166789266204086E8 ; 8.601266210641923E8 ; 1.2269273417062809E10 ; 0.0
70 ; 1.2890365942505766E7 ; 2.0168132231716165E8 ; 8.730169268027866E8 ; 1.247094130972485E10 ; 0.0
71 ; 1.2891358453626834E7 ; 2.0169482424234176E8 ; 8.859072927452923E8 ; 1.2672622632042011E10 ; 0.0
72 ; 1.2895808185795847E7 ; 2.0170839534569353E8 ; 8.987986511989192E8 ; 1.2874317456284353E10 ; 0.0
73 ; 1.2895789221190143E7 ; 2.0172203262797466E8 ; 9.116944593847151E8 ; 1.3076025851630047E10 ; 0.0
74 ; 1.2897365268637808E7 ; 2.0173573317970112E8 ; 9.245902486059052E8 ; 1.3277747884258022E10 ; 0.0
75 ; 1.2900263660794508E7 ; 2.0174949417830205E8 ; 9.37487613874543E8 ; 1.3479483617437723E10 ; 0.0
76 ; 1.2899143388347594E7 ; 2.017633128853227E8 ; 9.503878775353374E8 ; 1.3681233111616026E10 ; 0.0
77 ; 1.2898830798577636E7 ; 2.0177718664368033E8 ; 9.632870209236851E8 ; 1.3882996424501348E10 ; 0.0
78 ; 1.2896224555970466E7 ; 2.017911128749774E8 ; 9.761858517222627E8 ; 1.408477361114503E10 ; 0.0
79 ; 1.2894063853792608E7 ; 2.0180508907687527E8 ; 9.890820762782332E8 ; 1.4286564724020006E10 ; 0.0
80 ; 1.2892920590719566E7 ; 2.01819112820531E8 ; 1.0019761401320257E9 ; 1.4488369813096882E10 ; 0.0
81 ; 1.288990058095163E7 ; 2.0183318174809998E8 ; 1.0148690607227453E9 ; 1.4690188925917414E10 ; 0.0
82 ; 1.2885406079396777E7 ; 2.0184729357030478E8 ; 1.0277589613036969E9 ; 1.4892022107665514E10 ; 0.0
83 ; 1.2882214027212735E7 ; 2.0186144606407216E8 ; 1.0406443673830936E9 ; 1.5093869401235819E10 ; 0.0
84 ; 1.2878496889376512E7 ; 2.0187563707023826E8 ; 1.0535265814103063E9 ; 1.529573084729989E10 ; 0.0
85 ; 1.2872551988302948E7 ; 2.0188986449132252E8 ; 1.0664050782996829E9 ; 1.5497606484370129E10 ; 0.0
86 ; 1.2872640934532467E7 ; 2.0190412628937006E8 ; 1.0792776302879858E9 ; 1.569949634886145E10 ; 0.0
87 ; 1.2869048072519824E7 ; 2.0191842048386183E8 ; 1.0921502712225182E9 ; 1.590140047515082E10 ; 0.0
88 ; 1.2865766820832519E7 ; 2.0193274514969257E8 ; 1.105019319295038E9 ; 1.6103318895634682E10 ; 0.0
89 ; 1.2858160228213737E7 ; 2.0194709841521502E8 ; 1.1178850861158705E9 ; 1.6305251640784374E10 ; 0.0
90 ; 1.2855833696482355E7 ; 2.0196147846034968E8 ; 1.1307432463440843E9 ; 1.6507198739199589E10 ; 0.0
91 ; 1.2850933967652231E7 ; 2.0197588351475915E8 ; 1.1435990800405667E9 ; 1.6709160217659939E10 ; 0.0
92 ; 1.2847750996105274E7 ; 2.0199031185608512E8 ; 1.156450014008219E9 ; 1.6911136101174698E10 ; 0.0
93 ; 1.284293432053377E7 ; 2.020047618082475E8 ; 1.1692977650043242E9 ; 1.7113126413030783E10 ; 0.0
94 ; 1.2838325164480582E7 ; 2.0201923173980337E8 ; 1.182140699324858E9 ; 1.731513117483903E10 ; 0.0
95 ; 1.2833847818365308E7 ; 2.0203372006236473E8 ; 1.1949790244893386E9 ; 1.7517150406578835E10 ; 0.0
96 ; 1.28283489552754E7 ; 2.0204822522907346E8 ; 1.207812872307704E9 ; 1.77191841266412E10 ; 0.0
97 ; 1.2825592987466179E7 ; 2.0206274573313168E8 ; 1.2206412212629793E9 ; 1.7921232351870274E10 ; 0.0
98 ; 1.281813429803697E7 ; 2.0207728010638595E8 ; 1.2334668142504454E9 ; 1.8123295097603405E10 ; 0.0
99 ; 1.2813098325913744E7 ; 2.020918269179637E8 ; 1.2462849485484824E9 ; 1.832537237770979E10 ; 0.0
100 ; 1.2806277856904574E7 ; 2.0210638477296057E8 ; 1.259098046874396E9 ; 1.8527464204627754E10 ; 0.0
101 ; 1.280641515522197E7 ; 2.021209523111762E8 ; 1.2719043247313006E9 ; 1.8729570589400715E10 ; 0.0
102 ; 1.2799368449262718E7 ; 2.021355282058979E8 ; 1.2847107398865225E9 ; 1.893169154171189E10 ; 0.0
103 ; 1.2794222138314303E7 ; 2.0215011116272974E8 ; 1.2975101083357852E9 ; 1.913382706991779E10 ; 0.0
104 ; 1.2784334198370326E7 ; 2.0216469991846615E8 ; 1.3103043304740994E9 ; 1.933597718108052E10 ; 0.0
105 ; 1.2779417400010386E7 ; 2.0217929324000785E8 ; 1.3230886646724696E9 ; 1.9538141880998985E10 ; 0.0
106 ; 1.277405825838015E7 ; 2.0219388992331928E8 ; 1.33586808207248E9 ; 1.9740321174238995E10 ; 0.0
107 ; 1.2766979792967353E7 ; 2.022084887924254E8 ; 1.3486421403308601E9 ; 1.9942515064162315E10 ; 0.0
108 ; 1.276310881204944E7 ; 2.0222308869844693E8 ; 1.3614091201238275E9 ; 2.0144723552954742E10 ; 0.0
109 ; 1.2755840834601251E7 ; 2.022376885186723E8 ; 1.3741722289358768E9 ; 2.034694664165319E10 ; 0.0
110 ; 1.274872981652935E7 ; 2.0225228715566504E8 ; 1.386928069770478E9 ; 2.0549184330171864E10 ; 0.0
111 ; 1.2744216580738235E7 ; 2.0226688353640556E8 ; 1.3996767995870073E9 ; 2.075143661732753E10 ; 0.0
112 ; 1.2734140204505606E7 ; 2.0228147661146522E8 ; 1.4124210161677456E9 ; 2.0953703500863937E10 ; 0.0
113 ; 1.2730313263498649E7 ; 2.0229606535421258E8 ; 1.4251551563722513E9 ; 2.1155984977475403E10 ; 0.0
114 ; 1.272443434767869E7 ; 2.0231064876004967E8 ; 1.4378854696357498E9 ; 2.1358281042829617E10 ; 0.0
115 ; 1.2711709940745227E7 ; 2.0232522584567752E8 ; 1.4506099039834285E9 ; 2.1560591691589664E10 ; 0.0
116 ; 1.2706313025447441E7 ; 2.0233979564838988E8 ; 1.4633216139241736E9 ; 2.176291691743534E10 ; 0.0
117 ; 1.2699614911820339E7 ; 2.023543572253937E8 ; 1.476027926949621E9 ; 2.1965256713083733E10 ; 0.0
118 ; 1.2694915711609662E7 ; 2.023689096531559E8 ; 1.4887275418614414E9 ; 2.2167611070309128E10 ; 0.0
119 ; 1.2684662928586796E7 ; 2.0238345202677456E8 ; 1.501422457573051E9 ; 2.2369979979962284E10 ; 0.0
120 ; 1.267518908573541E7 ; 2.023979834593745E8 ; 1.5141071205016377E9 ; 2.257236343198906E10 ; 0.0
121 ; 1.2671643671242727E7 ; 2.0241250308152556E8 ; 1.526782309587373E9 ; 2.2774761415448433E10 ; 0.0
122 ; 1.2662740489414785E7 ; 2.0242701004068324E8 ; 1.5394539532586157E9 ; 2.2977173918529957E10 ; 0.0
123 ; 1.2655222890740728E7 ; 2.0244150350065005E8 ; 1.5521166937480304E9 ; 2.317960092857064E10 ; 0.0
124 ; 1.2645825878622869E7 ; 2.0245598264105788E8 ; 1.564771916638771E9 ; 2.338204243207129E10 ; 0.0
125 ; 1.2640787601548027E7 ; 2.0247044665686935E8 ; 1.5774177425173938E9 ; 2.3584498414712345E10 ; 0.0
126 ; 1.2629762275732445E7 ; 2.0248489475789833E8 ; 1.5900585301189418E9 ; 2.3786968861369213E10 ; 0.0
127 ; 1.2620849728986662E7 ; 2.0249932616834834E8 ; 1.6026882923946743E9 ; 2.3989453756127113E10 ; 0.0
128 ; 1.2614131000978421E7 ; 2.0251374012636828E8 ; 1.615309142123661E9 ; 2.4191953082295464E10 ; 0.0
129 ; 1.260106237680004E7 ; 2.025281358836248E8 ; 1.6279232731246395E9 ; 2.4394466822421833E10 ; 0.0
130 ; 1.2594169930145714E7 ; 2.025425127048906E8 ; 1.6405243355014396E9 ; 2.4596994958305458E10 ; 0.0
131 ; 1.258333260794397E7 ; 2.0255686986764836E8 ; 1.6531185054315853E9 ; 2.479953747101035E10 ; 0.0
132 ; 1.2572026506233495E7 ; 2.0257120666170877E8 ; 1.6657018380395293E9 ; 2.5002094340878E10 ; 0.0
133 ; 1.2556124468682483E7 ; 2.0258552238884348E8 ; 1.6782738645457628E9 ; 2.5204665547539707E10 ; 0.0
134 ; 1.2541549075492233E7 ; 2.0259981636243102E8 ; 1.6908299890144453E9 ; 2.540725106992855E10 ; 0.0
135 ; 1.2532481378849233E7 ; 2.026140879071161E8 ; 1.7033715380899374E9 ; 2.560985088629098E10 ; 0.0
136 ; 1.2516469331800895E7 ; 2.0262833635848138E8 ; 1.7159040194687867E9 ; 2.5812464974198097E10 ; 0.0
137 ; 1.2502420983683348E7 ; 2.0264256106273115E8 ; 1.7284204888005877E9 ; 2.601509331055658E10 ; 0.0
138 ; 1.248885906799185E7 ; 2.0265676137638682E8 ; 1.740922909784271E9 ; 2.6217735871619312E10 ; 0.0
139 ; 1.2475972066634001E7 ; 2.0267093666599318E8 ; 1.7534117688522627E9 ; 2.64203926329957E10 ; 0.0
140 ; 1.2462561962728191E7 ; 2.0268508630783582E8 ; 1.7658877409188967E9 ; 2.6623063569661694E10 ; 0.0
141 ; 1.2448659342606308E7 ; 2.026992096876682E8 ; 1.778350302881625E9 ; 2.682574865596953E10 ; 0.0
142 ; 1.2441353013036879E7 ; 2.0271330620044914E8 ; 1.7907989622242312E9 ; 2.7028447865657196E10 ; 0.0
143 ; 1.2421620491729496E7 ; 2.027273752500894E8 ; 1.8032403152372682E9 ; 2.7231161171857647E10 ; 0.0
144 ; 1.2407880417244302E7 ; 2.027414162492076E8 ; 1.8156619357289977E9 ; 2.7433888547107735E10 ; 0.0
145 ; 1.239657879109168E7 ; 2.027554286188947E8 ; 1.828069816146242E9 ; 2.763662996335694E10 ; 0.0
146 ; 1.2390233720811458E7 ; 2.0276941178848702E8 ; 1.8404663949373336E9 ; 2.7839385391975838E10 ; 0.0
147 ; 1.238116910201706E7 ; 2.0278336519534734E8 ; 1.852856628658145E9 ; 2.8042154803764324E10 ; 0.0
148 ; 1.237013396612083E7 ; 2.027972882846536E8 ; 1.865237797760162E9 ; 2.824493816895967E10 ; 0.0
149 ; 1.235926061825459E7 ; 2.0281118050919545E8 ; 1.8776079317262828E9 ; 2.8447735457244324E10 ; 0.0
150 ; 1.2353167887218652E7 ; 2.0282504132917744E8 ; 1.8899671923445375E9 ; 2.865054663775352E10 ; 0.0
151 ; 1.234329741367272E7 ; 2.028388702120297E8 ; 1.9023203602317562E9 ; 2.88533716790827E10 ; 0.0
152 ; 1.2329075200335266E7 ; 2.028526666322249E8 ; 1.914663657645429E9 ; 2.9056210549294727E10 ; 0.0
153 ; 1.2323520676072385E7 ; 2.028664300711016E8 ; 1.9269927328457642E9 ; 2.9259063215926952E10 ; 0.0
154 ; 1.2316728452755217E7 ; 2.0288016001669407E8 ; 1.9393162535218365E9 ; 2.9461929645998055E10 ; 0.0
155 ; 1.2303218023319742E7 ; 2.0289385596356764E8 ; 1.9516329819745917E9 ; 2.9664809806014748E10 ; 0.0
156 ; 1.2293263956941638E7 ; 2.0290751741266E8 ; 1.9639361999979115E9 ; 2.9867703661978313E10 ; 0.0
157 ; 1.228648156224402E7 ; 2.029211438711279E8 ; 1.976229463954853E9 ; 3.0070611179390972E10 ; 0.0
158 ; 1.2273022314296149E7 ; 2.029347348521991E8 ; 1.988515945517097E9 ; 3.02735323232621E10 ; 0.0
159 ; 1.2264239900677659E7 ; 2.0294828987502956E8 ; 2.0007889678313932E9 ; 3.04764670581143E10 ; 0.0
160 ; 1.2258098315657226E7 ; 2.029618084645652E8 ; 2.013053207732071E9 ; 3.067941534798933E10 ; 0.0
161 ; 1.2244466919747937E7 ; 2.029752901514087E8 ; 2.025311306047728E9 ; 3.0882377156453896E10 ; 0.0
162 ; 1.2235130087503174E7 ; 2.0298873447169077E8 ; 2.037555772967476E9 ; 3.1085352446605305E10 ; 0.0
163 ; 1.2224315178130748E7 ; 2.030021409669455E8 ; 2.049790903054979E9 ; 3.1288341181076996E10 ; 0.0
164 ; 1.221325656887701E7 ; 2.030155091839903E8 ; 2.06201521823311E9 ; 3.149134332204394E10 ; 0.0
165 ; 1.2205893468148425E7 ; 2.0302883867480972E8 ; 2.074228474801987E9 ; 3.1694358831227932E10 ; 0.0
166 ; 1.2192020444279661E7 ; 2.0304212899644315E8 ; 2.0864343682701354E9 ; 3.189738766990274E10 ; 0.0
167 ; 1.2186847827585792E7 ; 2.0305537971087626E8 ; 2.098626388714415E9 ; 3.2100429798899185E10 ; 0.0
168 ; 1.2171220765473899E7 ; 2.030685903849362E8 ; 2.1108132365420008E9 ; 3.230348517861006E10 ; 0.0
169 ; 1.2158466496289078E7 ; 2.0308176059019026E8 ; 2.1229844573074746E9 ; 3.2506553768995E10 ; 0.0
170 ; 1.2151663759611709E7 ; 2.0309488990284768E8 ; 2.1351429238037636E9 ; 3.270963552958519E10 ; 0.0
171 ; 1.2143987110908821E7 ; 2.031079779036651E8 ; 2.1472945875633752E9 ; 3.2912730419488037E10 ; 0.0
172 ; 1.2129656906656113E7 ; 2.0312102417785472E8 ; 2.159438574674284E9 ; 3.31158383973917E10 ; 0.0
173 ; 1.212119159688687E7 ; 2.031340283149958E8 ; 2.1715682315809402E9 ; 3.3318959421569557E10 ; 0.0
174 ; 1.2115611796825713E7 ; 2.0314698990894896E8 ; 2.183689423177827E9 ; 3.3522093449884552E10 ; 0.0
175 ; 1.210708855769238E7 ; 2.0315990855777317E8 ; 2.195805034974653E9 ; 3.3725240439793503E10 ; 0.0
176 ; 1.2102417037964799E7 ; 2.031727838636457E8 ; 2.2079121235323453E9 ; 3.3928400348351276E10 ; 0.0
177 ; 1.2096386568308726E7 ; 2.031856154327845E8 ; 2.22001454057031E9 ; 3.4131573132214924E10 ; 0.0
178 ; 1.2086916438475465E7 ; 2.03198402875373E8 ; 2.232110927138619E9 ; 3.433475874764771E10 ; 0.0
179 ; 1.208126474295427E7 ; 2.0321114580548772E8 ; 2.2441978435770946E9 ; 3.453795715052308E10 ; 0.0
180 ; 1.2075397849546028E7 ; 2.032238438410279E8 ; 2.256279108320049E9 ; 3.474116829632857E10 ; 0.0
181 ; 1.207109491480019E7 ; 2.0323649660364738E8 ; 2.268354506169595E9 ; 3.494439214016959E10 ; 0.0
182 ; 1.206242060468814E7 ; 2.0324910371868896E8 ; 2.280425601084395E9 ; 3.514762863677324E10 ; 0.0
183 ; 1.2059072832726393E7 ; 2.0326166481512064E8 ; 2.292488021689083E9 ; 3.535087774049193E10 ; 0.0
184 ; 1.2049554087951502E7 ; 2.0327417952547383E8 ; 2.3045470945218096E9 ; 3.5554139405307045E10 ; 0.0
185 ; 1.2044633616654145E7 ; 2.0328664748578385E8 ; 2.316596648609761E9 ; 3.575741358483252E10 ; 0.0
186 ; 1.2038114963610955E7 ; 2.0329906833553198E8 ; 2.328641282226415E9 ; 3.5960700232318306E10 ; 0.0
187 ; 1.2032396830368819E7 ; 2.0331144171758965E8 ; 2.3406793971900263E9 ; 3.616399930065384E10 ; 0.0
188 ; 1.2028485319973918E7 ; 2.0332376727816412E8 ; 2.3527117940203953E9 ; 3.636731074237143E10 ; 0.0
189 ; 1.2016300610597543E7 ; 2.0333604466674605E8 ; 2.364740279340369E9 ; 3.65706345096496E10 ; 0.0
190 ; 1.2011123309881717E7 ; 2.0334827353605875E8 ; 2.376756579950967E9 ; 3.6773970554316345E10 ; 0.0
191 ; 1.2007393575069584E7 ; 2.0336045354200897E8 ; 2.3887677032608485E9 ; 3.69773188278524E10 ; 0.0
192 ; 1.2002749411487596E7 ; 2.033725843436391E8 ; 2.400775096835918E9 ; 3.718067928139441E10 ; 0.0
193 ; 1.1991689906858029E7 ; 2.033846656030813E8 ; 2.4127778462474055E9 ; 3.7384051865738045E10 ; 0.0
194 ; 1.198502273364164E7 ; 2.033966969855124E8 ; 2.4247695361542635E9 ; 3.7587436531341125E10 ; 0.0
195 ; 1.1978433243963813E7 ; 2.0340867815911093E8 ; 2.436754558887905E9 ; 3.779083322832664E10 ; 0.0
