CSV File for the City 4 on Day 19
1 - Minute m 
2 - Power Consumed at minute m 
3 - Power Produced at minute m 
4 - Energy Consumed since the beginning of the day 
5 - Energy Produced since the beginning of the day 
6 - Energy Lost since the beginning of the day on lines starting from the city
 
0 ; 6797341.572931664 ; 1.053559299203802E8 ; 0.0 ; 0.0 ; 0.0
1 ; 6803953.782714324 ; 1.0549835402821267E8 ; 6797341.572931664 ; 1.053559299203802E8 ; 0.0
2 ; 6809437.910262672 ; 1.0594997099355385E8 ; 1.3601295355645988E7 ; 2.1085428394859287E8 ; 0.0
3 ; 6820682.715336619 ; 1.0671089851765442E8 ; 2.041073326590866E7 ; 3.168042549421467E8 ; 0.0
4 ; 6829695.510653811 ; 1.0778127957898194E8 ; 2.723141598124528E7 ; 4.2351515345980114E8 ; 0.0
5 ; 6842497.594061158 ; 1.0916128435865188E8 ; 3.406111149189909E7 ; 5.312964330387831E8 ; 0.0
6 ; 6857202.2156045595 ; 1.1085110869658431E8 ; 4.090360908596025E7 ; 6.40457717397435E8 ; 0.0
7 ; 6882414.9251381755 ; 1.1285096627472603E8 ; 4.7760811301564805E7 ; 7.513088260940193E8 ; 0.0
8 ; 6914086.36547623 ; 1.151610717645173E8 ; 5.464322622670298E7 ; 8.641597923687453E8 ; 0.0
9 ; 6963508.182069595 ; 1.1778161433256847E8 ; 6.155731259217921E7 ; 9.793208641332626E8 ; 0.0
10 ; 7041341.738069134 ; 1.207127258450917E8 ; 6.852082077424881E7 ; 1.097102478465831E9 ; 0.0
11 ; 7166958.500474199 ; 1.2395445383874133E8 ; 7.556216251231794E7 ; 1.2178152043109226E9 ; 0.0
12 ; 7363317.916124557 ; 1.2750675077686301E8 ; 8.272912101279214E7 ; 1.341769658149664E9 ; 0.0
13 ; 7553967.819300684 ; 1.3136948479324454E8 ; 9.00924389289167E7 ; 1.469276408926527E9 ; 0.0
14 ; 7576463.260038069 ; 1.355424667212757E8 ; 9.764640674821737E7 ; 1.6006458937197716E9 ; 0.0
15 ; 7585913.603864256 ; 1.4002548188951606E8 ; 1.0522287000825544E8 ; 1.7361883604410472E9 ; 0.0
16 ; 7593657.278900194 ; 1.4481831661601898E8 ; 1.1280878361211969E8 ; 1.8762138423305633E9 ; 0.0
17 ; 7601077.219231817 ; 1.499207750608643E8 ; 1.2040244089101988E8 ; 2.0210321589465823E9 ; 0.0
18 ; 7611341.225213072 ; 1.5533268704293656E8 ; 1.280035181102517E8 ; 2.170952934007447E9 ; 0.0
19 ; 7621721.040679783 ; 1.6105390958376822E8 ; 1.3561485933546478E8 ; 2.3262856210503836E9 ; 0.0
20 ; 7627852.545058339 ; 1.6708432498210856E8 ; 1.4323658037614456E8 ; 2.487339530634152E9 ; 0.0
21 ; 7636163.7260200335 ; 1.7342383742444018E8 ; 1.508644329212029E8 ; 2.6544238556162605E9 ; 0.0
22 ; 7647138.587481683 ; 1.8007236929964787E8 ; 1.5850059664722294E8 ; 2.827847693040701E9 ; 0.0
23 ; 7655506.501663484 ; 1.8702985778698874E8 ; 1.661477352347046E8 ; 3.0079200623403487E9 ; 0.0
24 ; 7662569.61149598 ; 1.9429625193232727E8 ; 1.738032417363681E8 ; 3.1949499201273375E9 ; 0.0
25 ; 7672466.461226287 ; 2.0055955114386177E8 ; 1.8146581134786406E8 ; 3.3892461720596647E9 ; 0.0
26 ; 7680038.765572278 ; 2.0057326930069107E8 ; 1.8913827780909035E8 ; 3.5898057232035265E9 ; 0.0
27 ; 7688992.205585321 ; 2.0058714774953026E8 ; 1.9681831657466263E8 ; 3.7903789925042176E9 ; 0.0
28 ; 7696897.355525497 ; 2.0060116334779784E8 ; 2.0450730878024796E8 ; 3.990966140253748E9 ; 0.0
29 ; 7707238.9793802 ; 2.0061529681057787E8 ; 2.1220420613577345E8 ; 4.191567303601546E9 ; 0.0
30 ; 7715214.938070306 ; 2.0062953196607378E8 ; 2.1991144511515364E8 ; 4.392182600412124E9 ; 0.0
31 ; 7724501.963801262 ; 2.0064385516825253E8 ; 2.2762666005322394E8 ; 4.592812132378198E9 ; 0.0
32 ; 7730999.790641955 ; 2.0065825483173355E8 ; 2.353511620170252E8 ; 4.793455987546451E9 ; 0.0
33 ; 7737181.678409085 ; 2.0067272106181026E8 ; 2.4308216180766717E8 ; 4.994114242378184E9 ; 0.0
34 ; 7747713.424683167 ; 2.0068724535867727E8 ; 2.5081934348607624E8 ; 5.194786963439995E9 ; 0.0
35 ; 7754128.425685504 ; 2.0070182037974203E8 ; 2.585670569107594E8 ; 5.395474208798672E9 ; 0.0
36 ; 7759825.750806801 ; 2.0071643974759236E8 ; 2.6632118533644488E8 ; 5.596176029178413E9 ; 0.0
37 ; 7766095.206569653 ; 2.0073109789401805E8 ; 2.7408101108725166E8 ; 5.796892468926005E9 ; 0.0
38 ; 7772471.529174676 ; 2.0074578993264467E8 ; 2.8184710629382133E8 ; 5.997623566820024E9 ; 0.0
39 ; 7780273.580785737 ; 2.007605115543887E8 ; 2.89619577822996E8 ; 6.198369356752668E9 ; 0.0
40 ; 7783456.3555939095 ; 2.007752589412089E8 ; 2.973998514037818E8 ; 6.399129868307057E9 ; 0.0
41 ; 7788814.051853225 ; 2.0079002869460016E8 ; 3.051833077593757E8 ; 6.599905127248266E9 ; 0.0
42 ; 7797304.366109953 ; 2.0080481777602687E8 ; 3.1297212181122893E8 ; 6.800695155942866E9 ; 0.0
43 ; 7797755.6365430625 ; 2.008196234570734E8 ; 3.207694261773389E8 ; 7.001499973718893E9 ; 0.0
44 ; 7807461.334063657 ; 2.0083444327754068E8 ; 3.2856718181388193E8 ; 7.202319597175966E9 ; 0.0
45 ; 7808702.262080028 ; 2.00849275010072E8 ; 3.363746431479456E8 ; 7.403154040453506E9 ; 0.0
46 ; 7814712.311059141 ; 2.0086411663016722E8 ; 3.441833454100256E8 ; 7.604003315463578E9 ; 0.0
47 ; 7815161.202346838 ; 2.008789662906646E8 ; 3.519980577210847E8 ; 7.804867432093745E9 ; 0.0
48 ; 7818474.741801541 ; 2.008938222999417E8 ; 3.598132189234316E8 ; 8.00574639838441E9 ; 0.0
49 ; 7822201.598502513 ; 2.0090868310322508E8 ; 3.6763169366523314E8 ; 8.206640220684352E9 ; 0.0
50 ; 7821821.471975044 ; 2.0092354726651025E8 ; 3.7545389526373565E8 ; 8.407548903787577E9 ; 0.0
51 ; 7828035.950236407 ; 2.0093841346267927E8 ; 3.832757167357107E8 ; 8.608472451054087E9 ; 0.0
52 ; 7829966.277504102 ; 2.009532804594782E8 ; 3.9110375268594706E8 ; 8.809410864516766E9 ; 0.0
53 ; 7830837.640249699 ; 2.0096814710907167E8 ; 3.9893371896345115E8 ; 9.010364144976244E9 ; 0.0
54 ; 7832378.087528114 ; 2.009830123389416E8 ; 4.067645566037009E8 ; 9.211332292085316E9 ; 0.0
55 ; 7835366.66275668 ; 2.0099787514393327E8 ; 4.14596934691229E8 ; 9.412315304424257E9 ; 0.0
56 ; 7835823.252530316 ; 2.0101273457928574E8 ; 4.2243230135398567E8 ; 9.61331317956819E9 ; 0.0
57 ; 7836577.11477027 ; 2.0102758975450778E8 ; 4.30268124606516E8 ; 9.814325914147476E9 ; 0.0
58 ; 7840750.614729716 ; 2.0104243982798356E8 ; 4.381047017212863E8 ; 1.0015353503901983E10 ; 0.0
59 ; 7840672.601693396 ; 2.0105728400220904E8 ; 4.45945452336016E8 ; 1.0216395943729967E10 ; 0.0
60 ; 7840659.375439722 ; 2.0107212151957533E8 ; 4.537861249377094E8 ; 1.0417453227732176E10 ; 0.0
61 ; 7843037.389478743 ; 2.010869516586278E8 ; 4.616267843131491E8 ; 1.061852534925175E10 ; 0.0
62 ; 7846883.0308958925 ; 2.011017737307399E8 ; 4.6946982170262784E8 ; 1.081961230091038E10 ; 0.0
63 ; 7845940.933750239 ; 2.0111658707714924E8 ; 4.773167047335237E8 ; 1.1020714074641119E10 ; 0.0
64 ; 7848412.707536416 ; 2.0113139106631124E8 ; 4.8516264566727394E8 ; 1.1221830661718267E10 ; 0.0
65 ; 7852182.521695647 ; 2.011461850915315E8 ; 4.9301105837481034E8 ; 1.1422962052784578E10 ; 0.0
66 ; 7849229.362775356 ; 2.0116096856884354E8 ; 5.00863240896506E8 ; 1.162410823787611E10 ; 0.0
67 ; 7850336.9407431325 ; 2.0117574093510297E8 ; 5.087124702592814E8 ; 1.1825269206444954E10 ; 0.0
68 ; 7851360.737447139 ; 2.011905016462729E8 ; 5.1656280720002455E8 ; 1.2026444947380056E10 ; 0.0
69 ; 7854320.75297848 ; 2.012052501758786E8 ; 5.244141679374717E8 ; 1.2227635449026329E10 ; 0.0
70 ; 7852912.889997599 ; 2.0121998601361284E8 ; 5.322684886904502E8 ; 1.2428840699202208E10 ; 0.0
71 ; 7855680.2895901725 ; 2.0123470866407445E8 ; 5.401214015804478E8 ; 1.263006068521582E10 ; 0.0
72 ; 7854443.205934248 ; 2.0124941764562643E8 ; 5.479770818700379E8 ; 1.2831295393879894E10 ; 0.0
73 ; 7855433.695390384 ; 2.0126411248935997E8 ; 5.558315250759722E8 ; 1.303254481152552E10 ; 0.0
74 ; 7857130.41697577 ; 2.012787927381536E8 ; 5.636869587713625E8 ; 1.3233808924014881E10 ; 0.0
75 ; 7857088.866724868 ; 2.0129345794581747E8 ; 5.715440891883383E8 ; 1.3435087716753035E10 ; 0.0
76 ; 7857767.878446441 ; 2.0130810767631388E8 ; 5.794011780550631E8 ; 1.3636381174698853E10 ; 0.0
77 ; 7857500.308305509 ; 2.0132274150304627E8 ; 5.872589459335096E8 ; 1.3837689282375166E10 ; 0.0
78 ; 7853727.323027519 ; 2.0133735900821027E8 ; 5.951164462418151E8 ; 1.4039012023878212E10 ; 0.0
79 ; 7852833.549615031 ; 2.0135195978219983E8 ; 6.029701735648426E8 ; 1.4240349382886423E10 ; 0.0
80 ; 7849105.367858976 ; 2.0136654342306402E8 ; 6.108230071144576E8 ; 1.4441701342668623E10 ; 0.0
81 ; 7847732.51679259 ; 2.0138110953600895E8 ; 6.186721124823166E8 ; 1.4643067886091686E10 ; 0.0
82 ; 7844695.37743483 ; 2.0139565773294073E8 ; 6.265198449991091E8 ; 1.4844448995627695E10 ; 0.0
83 ; 7844010.707020925 ; 2.0141018763204578E8 ; 6.34364540376544E8 ; 1.5045844653360636E10 ; 0.0
84 ; 7841279.739343048 ; 2.014246988574047E8 ; 6.422085510835649E8 ; 1.5247254840992682E10 ; 0.0
85 ; 7837631.581517893 ; 2.0143919103863716E8 ; 6.500498308229079E8 ; 1.5448679539850086E10 ; 0.0
86 ; 7833398.981526793 ; 2.0145366381057435E8 ; 6.578874624044259E8 ; 1.5650118730888723E10 ; 0.0
87 ; 7833226.407309646 ; 2.014681168129572E8 ; 6.657208613859527E8 ; 1.5851572394699297E10 ; 0.0
88 ; 7829240.484168696 ; 2.0148254969015747E8 ; 6.735540877932624E8 ; 1.6053040511512255E10 ; 0.0
89 ; 7826920.601592895 ; 2.014969620909203E8 ; 6.81383328277431E8 ; 1.6254523061202412E10 ; 0.0
90 ; 7822881.230733157 ; 2.0151135366812602E8 ; 6.892102488790239E8 ; 1.6456020023293331E10 ; 0.0
91 ; 7820772.990936381 ; 2.0152572407856965E8 ; 6.970331301097571E8 ; 1.6657531376961456E10 ; 0.0
92 ; 7817645.828340962 ; 2.0154007298275682E8 ; 7.048539031006935E8 ; 1.6859057101040026E10 ; 0.0
93 ; 7814078.375607468 ; 2.0155440004471424E8 ; 7.126715489290345E8 ; 1.7060597174022783E10 ; 0.0
94 ; 7813195.882176063 ; 2.015687049318142E8 ; 7.20485627304642E8 ; 1.7262151574067497E10 ; 0.0
95 ; 7806526.46604805 ; 2.015829873146114E8 ; 7.28298823186818E8 ; 1.7463720278999313E10 ; 0.0
96 ; 7804236.212895109 ; 2.015972468666916E8 ; 7.36105349652866E8 ; 1.7665303266313923E10 ; 0.0
97 ; 7797806.447924197 ; 2.016114832645305E8 ; 7.439095858657612E8 ; 1.7866900513180614E10 ; 0.0
98 ; 7797090.101906207 ; 2.0162569618736294E8 ; 7.517073923136854E8 ; 1.8068511996445145E10 ; 0.0
99 ; 7790553.034325979 ; 2.016398853170606E8 ; 7.595044824155916E8 ; 1.8270137692632507E10 ; 0.0
100 ; 7788506.346652349 ; 2.016540503380186E8 ; 7.672950354499176E8 ; 1.847177757794957E10 ; 0.0
101 ; 7786008.09012712 ; 2.0166819093704945E8 ; 7.7508354179657E8 ; 1.867343162828759E10 ; 0.0
102 ; 7780003.467491115 ; 2.0168230680328432E8 ; 7.82869549886697E8 ; 1.887509981922464E10 ; 0.0
103 ; 7776523.5889187055 ; 2.0169639762808082E8 ; 7.906495533541882E8 ; 1.9076782126027924E10 ; 0.0
104 ; 7769860.3452387275 ; 2.0171046310493687E8 ; 7.984260769431069E8 ; 1.9278478523656006E10 ; 0.0
105 ; 7769071.940658719 ; 2.0172450292941055E8 ; 8.061959372883456E8 ; 1.9480188986760944E10 ; 0.0
106 ; 7764180.461678784 ; 2.0173851679904482E8 ; 8.139650092290043E8 ; 1.9681913489690353E10 ; 0.0
107 ; 7759722.82466762 ; 2.0175250441329738E8 ; 8.21729189690683E8 ; 1.98836520064894E10 ; 0.0
108 ; 7754966.775785361 ; 2.0176646547347507E8 ; 8.294889125153506E8 ; 2.0085404510902695E10 ; 0.0
109 ; 7753333.24875583 ; 2.017803996826723E8 ; 8.372438792911359E8 ; 2.028717097637617E10 ; 0.0
110 ; 7747599.539977649 ; 2.017943067457137E8 ; 8.449972125398917E8 ; 2.048895137605884E10 ; 0.0
111 ; 7741789.145812441 ; 2.0180818636910033E8 ; 8.527448120798694E8 ; 2.0690745682804554E10 ; 0.0
112 ; 7740184.719613109 ; 2.0182203826095912E8 ; 8.604866012256818E8 ; 2.0892553869173653E10 ; 0.0
113 ; 7731309.8515432095 ; 2.0183586213099584E8 ; 8.682267859452949E8 ; 2.1094375907434612E10 ; 0.0
114 ; 7727061.715955608 ; 2.0184965769045067E8 ; 8.75958095796838E8 ; 2.129621176956561E10 ; 0.0
115 ; 7721652.386574585 ; 2.0186342465205696E8 ; 8.836851575127937E8 ; 2.1498061427256058E10 ; 0.0
116 ; 7717748.308224581 ; 2.018771627300022E8 ; 8.914068098993683E8 ; 2.1699924851908115E10 ; 0.0
117 ; 7713050.522470556 ; 2.018908716398916E8 ; 8.991245582075928E8 ; 2.190180201463812E10 ; 0.0
118 ; 7710340.82903494 ; 2.0190455109871402E8 ; 9.068376087300634E8 ; 2.210369288627801E10 ; 0.0
119 ; 7702433.737346141 ; 2.0191820082480985E8 ; 9.145479495590984E8 ; 2.2305597437376724E10 ; 0.0
120 ; 7697123.951853398 ; 2.0193182053784096E8 ; 9.222503832964445E8 ; 2.2507515638201534E10 ; 0.0
121 ; 7691361.1545895245 ; 2.019454099587626E8 ; 9.299475072482979E8 ; 2.2709447458739376E10 ; 0.0
122 ; 7686195.491494547 ; 2.0195896880979672E8 ; 9.376388684028875E8 ; 2.291139286869814E10 ; 0.0
123 ; 7681147.8624278195 ; 2.0197249681440756E8 ; 9.45325063894382E8 ; 2.3113351837507935E10 ; 0.0
124 ; 7673350.764154516 ; 2.0198599369727805E8 ; 9.530062117568098E8 ; 2.3315324334322342E10 ; 0.0
125 ; 7666779.875152148 ; 2.0199945918428823E8 ; 9.606795625209644E8 ; 2.351731032801962E10 ; 0.0
126 ; 7660763.340077174 ; 2.020128930024946E8 ; 9.683463423961165E8 ; 2.3719309787203907E10 ; 0.0
127 ; 7655454.040521158 ; 2.0202629488011122E8 ; 9.760071057361937E8 ; 2.39213226802064E10 ; 0.0
128 ; 7650343.851977461 ; 2.0203966454649138E8 ; 9.836625597767148E8 ; 2.4123348975086514E10 ; 0.0
129 ; 7644402.012039533 ; 2.020530017321112E8 ; 9.913129036286923E8 ; 2.4325388639633003E10 ; 0.0
130 ; 7639424.320896344 ; 2.0206630616855344E8 ; 9.989573056407318E8 ; 2.4527441641365116E10 ; 0.0
131 ; 7631318.096278457 ; 2.0207957758849305E8 ; 1.0065967299616282E9 ; 2.472950794753367E10 ; 0.0
132 ; 7621584.9677528385 ; 2.0209281572568315E8 ; 1.0142280480579066E9 ; 2.493158752512216E10 ; 0.0
133 ; 7612722.703386354 ; 2.0210602031494224E8 ; 1.0218496330256594E9 ; 2.5133680340847843E10 ; 0.0
134 ; 7601813.609727935 ; 2.02119191092142E8 ; 1.0294623557290457E9 ; 2.5335786361162785E10 ; 0.0
135 ; 7593303.335345221 ; 2.0213232779419604E8 ; 1.0370641693387737E9 ; 2.5537905552254925E10 ; 0.0
136 ; 7584023.612904852 ; 2.021454301590494E8 ; 1.044657472674119E9 ; 2.574003788004912E10 ; 0.0
137 ; 7577623.995415628 ; 2.021584979256686E8 ; 1.0522414962870239E9 ; 2.594218331020817E10 ; 0.0
138 ; 7570575.353482459 ; 2.0217153083403262E8 ; 1.0598191202824395E9 ; 2.614434180813384E10 ; 0.0
139 ; 7559464.473133686 ; 2.021845286251242E8 ; 1.067389695635922E9 ; 2.6346513338967873E10 ; 0.0
140 ; 7549257.008377242 ; 2.02197491040922E8 ; 1.0749491601090558E9 ; 2.6548697867593E10 ; 0.0
141 ; 7540152.706403691 ; 2.0221041782439312E8 ; 1.082498417117433E9 ; 2.675089535863392E10 ; 0.0
142 ; 7532335.217437946 ; 2.022233087194865E8 ; 1.0900385698238368E9 ; 2.6953105776458313E10 ; 0.0
143 ; 7521965.018901645 ; 2.022361634711262E8 ; 1.0975709050412748E9 ; 2.71553290851778E10 ; 0.0
144 ; 7513630.657302065 ; 2.022489818252059E8 ; 1.1050928700601764E9 ; 2.7357565248648926E10 ; 0.0
145 ; 7505876.919574906 ; 2.022617635285832E8 ; 1.1126065007174785E9 ; 2.7559814230474133E10 ; 0.0
146 ; 7500013.08879272 ; 2.0227450832907483E8 ; 1.1201123776370535E9 ; 2.7762075994002716E10 ; 0.0
147 ; 7491460.1437984845 ; 2.0228721597545207E8 ; 1.1276123907258463E9 ; 2.796435050233179E10 ; 0.0
148 ; 7486592.621759904 ; 2.0229988621743637E8 ; 1.1351038508696449E9 ; 2.8166637718307243E10 ; 0.0
149 ; 7476745.479155256 ; 2.023125188056958E8 ; 1.1425904434914048E9 ; 2.836893760452468E10 ; 0.0
150 ; 7471369.965905023 ; 2.023251134918413E8 ; 1.15006718897056E9 ; 2.8571250123330376E10 ; 0.0
151 ; 7464094.268921042 ; 2.0233767002842376E8 ; 1.157538558936465E9 ; 2.8773575236822216E10 ; 0.0
152 ; 7458836.857534604 ; 2.02350188168931E8 ; 1.1650026532053862E9 ; 2.897591290685064E10 ; 0.0
153 ; 7450774.203064322 ; 2.023626676677854E8 ; 1.1724614900629208E9 ; 2.917826309501957E10 ; 0.0
154 ; 7446304.94024012 ; 2.0237510828034145E8 ; 1.179912264265985E9 ; 2.9380625762687355E10 ; 0.0
155 ; 7439125.059097617 ; 2.0238750976288387E8 ; 1.1873585692062252E9 ; 2.9583000870967697E10 ; 0.0
156 ; 7429699.993333334 ; 2.023998718726259E8 ; 1.1947976942653227E9 ; 2.978538838073058E10 ; 0.0
157 ; 7424248.289458591 ; 2.024121943677076E8 ; 1.202227394258656E9 ; 2.9987788252603207E10 ; 0.0
158 ; 7416582.512719689 ; 2.024244770071949E8 ; 1.2096516425481145E9 ; 3.0190200446970913E10 ; 0.0
159 ; 7409306.327122234 ; 2.0243671955107823E8 ; 1.2170682250608342E9 ; 3.0392624923978107E10 ; 0.0
160 ; 7404514.4148249095 ; 2.0244892176027176E8 ; 1.2244775313879564E9 ; 3.0595061643529186E10 ; 0.0
161 ; 7396847.391556421 ; 2.0246108339661282E8 ; 1.2318820458027813E9 ; 3.079751056528946E10 ; 0.0
162 ; 7387036.721525741 ; 2.0247320422286144E8 ; 1.2392788931943378E9 ; 3.0999971648686073E10 ; 0.0
163 ; 7381161.6201066645 ; 2.0248528400269985E8 ; 1.2466659299158635E9 ; 3.1202444852908936E10 ; 0.0
164 ; 7372996.232006308 ; 2.0249732250073263E8 ; 1.2540470915359702E9 ; 3.1404930136911636E10 ; 0.0
165 ; 7367311.57672184 ; 2.0250931948248652E8 ; 1.2614200877679765E9 ; 3.160742745941237E10 ; 0.0
166 ; 7360201.526197926 ; 2.025212747144107E8 ; 1.2687873993446984E9 ; 3.1809936778894855E10 ; 0.0
167 ; 7352758.32150706 ; 2.0253318796387708E8 ; 1.2761476008708963E9 ; 3.2012458053609264E10 ; 0.0
168 ; 7345453.075409415 ; 2.0254505899918094E8 ; 1.2835003591924033E9 ; 3.2214991241573143E10 ; 0.0
169 ; 7339812.806434188 ; 2.0255688758954117E8 ; 1.2908458122678127E9 ; 3.2417536300572323E10 ; 0.0
170 ; 7329371.563177395 ; 2.0256867350510132E8 ; 1.298185625074247E9 ; 3.2620093188161865E10 ; 0.0
171 ; 7321751.378203166 ; 2.025804165169303E8 ; 1.3055149966374242E9 ; 3.2822661861666965E10 ; 0.0
172 ; 7314908.055682911 ; 2.0259211639702332E8 ; 1.3128367480156274E9 ; 3.3025242278183895E10 ; 0.0
173 ; 7308252.55099438 ; 2.0260377291830298E8 ; 1.3201516560713103E9 ; 3.3227834394580917E10 ; 0.0
174 ; 7303618.177482771 ; 2.026153858546204E8 ; 1.3274599086223047E9 ; 3.343043816749922E10 ; 0.0
175 ; 7300302.673571412 ; 2.0262695498075646E8 ; 1.3347635267997875E9 ; 3.3633053553353844E10 ; 0.0
176 ; 7295577.070904045 ; 2.026384800724233E8 ; 1.3420638294733589E9 ; 3.38356805083346E10 ; 0.0
177 ; 7289324.611284093 ; 2.0264996090626547E8 ; 1.349359406544263E9 ; 3.403831898840702E10 ; 0.0
178 ; 7285879.972597041 ; 2.0266139725986165E8 ; 1.356648731155547E9 ; 3.4240968949313286E10 ; 0.0
179 ; 7281973.627419326 ; 2.026727889117262E8 ; 1.363934611128144E9 ; 3.444363034657315E10 ; 0.0
180 ; 7275753.992208412 ; 2.0268413564131087E8 ; 1.3712165847555633E9 ; 3.464630313548488E10 ; 0.0
181 ; 7270362.991091588 ; 2.0269543722900638E8 ; 1.3784923387477717E9 ; 3.484898727112619E10 ; 0.0
182 ; 7266557.836552179 ; 2.027066934561444E8 ; 1.3857627017388632E9 ; 3.5051682708355194E10 ; 0.0
183 ; 7262575.69630085 ; 2.027179041049993E8 ; 1.3930292595754154E9 ; 3.525438940181134E10 ; 0.0
184 ; 7257258.983058939 ; 2.0272906895879015E8 ; 1.400291835271716E9 ; 3.5457107305916336E10 ; 0.0
185 ; 7252358.407443485 ; 2.0274018780168268E8 ; 1.407549094254775E9 ; 3.565983637487513E10 ; 0.0
186 ; 7250253.924956776 ; 2.027512604187913E8 ; 1.4148014526622186E9 ; 3.586257656267681E10 ; 0.0
187 ; 7245354.245511711 ; 2.0276228659618124E8 ; 1.4220517065871754E9 ; 3.6065327823095604E10 ; 0.0
188 ; 7239124.081453448 ; 2.0277326612087065E8 ; 1.4292970608326871E9 ; 3.626809010969179E10 ; 0.0
189 ; 7235319.135162556 ; 2.027841987808328E8 ; 1.4365361849141407E9 ; 3.647086337581266E10 ; 0.0
190 ; 7232034.070219945 ; 2.0279508436499825E8 ; 1.4437715040493033E9 ; 3.667364757459349E10 ; 0.0
191 ; 7226442.85315514 ; 2.0280592266325724E8 ; 1.4510035381195233E9 ; 3.687644265895849E10 ; 0.0
192 ; 7222168.563095217 ; 2.0281671346646193E8 ; 1.4582299809726784E9 ; 3.707924858162174E10 ; 0.0
193 ; 7217067.685511066 ; 2.028274565664287E8 ; 1.4654521495357738E9 ; 3.72820652950882E10 ; 0.0
194 ; 7212468.424343473 ; 2.0283815175594062E8 ; 1.4726692172212849E9 ; 3.748489275165463E10 ; 0.0
195 ; 7207015.56417913 ; 2.028487988287498E8 ; 1.4798816856456285E9 ; 3.7687730903410576E10 ; 0.0
196 ; 7202867.032171378 ; 2.0285939757957992E8 ; 1.4870887012098076E9 ; 3.789057970223933E10 ; 0.0
197 ; 7196388.697893764 ; 2.028699478041285E8 ; 1.4942915682419791E9 ; 3.809343909981891E10 ; 0.0
198 ; 7194773.712489875 ; 2.0288044929906964E8 ; 1.501487956939873E9 ; 3.829630904762304E10 ; 0.0
199 ; 7187507.232613079 ; 2.0289090186205643E8 ; 1.5086827306523628E9 ; 3.849918949692211E10 ; 0.0
200 ; 7183585.267519009 ; 2.0290130529172346E8 ; 1.515870237884976E9 ; 3.8702080398784164E10 ; 0.0
201 ; 7179219.342418218 ; 1.8514685794909588E8 ; 1.523053823152495E9 ; 3.890498170407589E10 ; 0.0
