CSV File for the City 1 on Day 243
1 - Minute m 
2 - Power Consumed at minute m 
3 - Power Produced at minute m 
4 - Energy Consumed since the beginning of the day 
5 - Energy Produced since the beginning of the day 
6 - Energy Lost since the beginning of the day on lines starting from the city
 
0 ; 2608347.333031782 ; 1.0530664530781183E8 ; 0.0 ; 0.0 ; 0.0
1 ; 2622658.792276655 ; 1.0545872956315023E8 ; 2608347.333031782 ; 1.0530664530781183E8 ; 0.0
2 ; 2641382.525626385 ; 1.0591966070616886E8 ; 5231006.125308437 ; 2.1076537487096205E8 ; 0.0
3 ; 2662953.654583476 ; 1.0668944786689508E8 ; 7872388.650934823 ; 3.166850355771309E8 ; 0.0
4 ; 2685967.287040106 ; 1.0776809966807032E8 ; 1.05353423055183E7 ; 4.23374483444026E8 ; 0.0
5 ; 2719689.1191989006 ; 1.0915562405328208E8 ; 1.3221309592558406E7 ; 5.311425831120963E8 ; 0.0
6 ; 2754621.452222944 ; 1.1085202811384216E8 ; 1.5940998711757306E7 ; 6.402982071653783E8 ; 0.0
7 ; 2807661.6229168293 ; 1.1285731792200494E8 ; 1.869562016398025E7 ; 7.511502352792205E8 ; 0.0
8 ; 2884962.738770769 ; 1.1517149837881565E8 ; 2.150328178689708E7 ; 8.640075532012254E8 ; 0.0
9 ; 3005783.602443995 ; 1.1779457308493268E8 ; 2.4388244525667846E7 ; 9.79179051580041E8 ; 0.0
10 ; 3188150.42310992 ; 1.2072654424205518E8 ; 2.739402812811184E7 ; 1.0969736246649737E9 ; 0.0
11 ; 3478709.80751054 ; 1.2396741259110555E8 ; 3.0582178551221758E7 ; 1.217700168907029E9 ; 0.0
12 ; 3936386.866899378 ; 1.2751717739116135E8 ; 3.40608883587323E7 ; 1.3416675814981344E9 ; 0.0
13 ; 4381080.364915797 ; 1.3137583644052345E8 ; 3.799727522563168E7 ; 1.4691847588892958E9 ; 0.0
14 ; 4436238.923483865 ; 1.3554338613853353E8 ; 4.237835559054747E7 ; 1.6005605953298192E9 ; 0.0
15 ; 4458547.347441993 ; 1.4001982158414626E8 ; 4.6814594514031336E7 ; 1.7361039814683528E9 ; 0.0
16 ; 4482816.803936621 ; 1.4480513670510736E8 ; 5.127314186147333E7 ; 1.876123803052499E9 ; 0.0
17 ; 4505339.438320184 ; 1.4989932441010496E8 ; 5.575595866540995E7 ; 2.0209289397576065E9 ; 0.0
18 ; 4521268.203377281 ; 1.5530237675555158E8 ; 6.0261298103730135E7 ; 2.1708282641677113E9 ; 0.0
19 ; 4546636.038704572 ; 1.6101428511870578E8 ; 6.478256630710742E7 ; 2.3261306409232626E9 ; 0.0
20 ; 4572603.312404726 ; 1.6703504036954018E8 ; 6.9329202345812E7 ; 2.4871449260419683E9 ; 0.0
21 ; 4593966.188685726 ; 1.733646330349367E8 ; 7.390180565821671E7 ; 2.6541799664115086E9 ; 0.0
22 ; 4614608.84510994 ; 1.8000305345023227E8 ; 7.849577184690244E7 ; 2.8275445994464455E9 ; 0.0
23 ; 4638932.554857475 ; 1.8695029189466834E8 ; 8.311038069201238E7 ; 3.007547652896678E9 ; 0.0
24 ; 4659982.2003494855 ; 1.9420633870874566E8 ; 8.774931324686986E7 ; 3.1944979447913465E9 ; 0.0
25 ; 4673823.489011411 ; 2.004592252909412E8 ; 9.240929544721934E7 ; 3.388704283500092E9 ; 0.0
26 ; 4702521.008324493 ; 2.0046249021461332E8 ; 9.708311893623075E7 ; 3.5891635087910333E9 ; 0.0
27 ; 4723964.819957877 ; 2.004658938154503E8 ; 1.0178563994455524E8 ; 3.7896259990056467E9 ; 0.0
28 ; 4745467.017709881 ; 2.0046942748489475E8 ; 1.0650960476451312E8 ; 3.990091892821097E9 ; 0.0
29 ; 4764752.816372806 ; 2.0047308299601215E8 ; 1.11255071782223E8 ; 4.1905613203059916E9 ; 0.0
30 ; 4784928.307090766 ; 2.0047685252406594E8 ; 1.1601982459859581E8 ; 4.391034403302004E9 ; 0.0
31 ; 4810533.91738222 ; 2.0048072865700734E8 ; 1.2080475290568657E8 ; 4.59151125582607E9 ; 0.0
32 ; 4829217.832080909 ; 2.0048470439773417E8 ; 1.256152868230688E8 ; 4.791991984483077E9 ; 0.0
33 ; 4852226.49769153 ; 2.004887731598058E8 ; 1.3044450465514971E8 ; 4.992476688880812E9 ; 0.0
34 ; 4867522.895862915 ; 2.0049292875810277E8 ; 1.3529673115284124E8 ; 5.192965462040618E9 ; 0.0
35 ; 4889501.73768535 ; 2.0049716539571413E8 ; 1.4016425404870415E8 ; 5.39345839079872E9 ; 0.0
36 ; 4904151.24505985 ; 2.0050147764813155E8 ; 1.450537557863895E8 ; 5.593955556194434E9 ; 0.0
37 ; 4929199.785459936 ; 2.0050586044564056E8 ; 1.4995790703144935E8 ; 5.794457033842566E9 ; 0.0
38 ; 4940954.853868278 ; 2.0051030905462968E8 ; 1.5488710681690928E8 ; 5.994962894288206E9 ; 0.0
39 ; 4958184.859822853 ; 2.005148190583885E8 ; 1.5982806167077756E8 ; 6.195473203342835E9 ; 0.0
40 ; 4972343.712633047 ; 2.0051938633783883E8 ; 1.647862465306004E8 ; 6.395988022401224E9 ; 0.0
41 ; 4987688.841572794 ; 2.0052400705253604E8 ; 1.6975859024323344E8 ; 6.596507408739063E9 ; 0.0
42 ; 5001929.942490643 ; 2.0052867762218887E8 ; 1.7474627908480623E8 ; 6.797031415791599E9 ; 0.0
43 ; 5019029.66701016 ; 2.0053339470887482E8 ; 1.7974820902729687E8 ; 6.997560093413788E9 ; 0.0
44 ; 5032614.628083784 ; 2.005381552000706E8 ; 1.8476723869430703E8 ; 7.198093488122663E9 ; 0.0
45 ; 5041858.470168512 ; 2.0054295619257128E8 ; 1.8979985332239082E8 ; 7.398631643322733E9 ; 0.0
46 ; 5053771.899579235 ; 2.0054779497733778E8 ; 1.9484171179255933E8 ; 7.599174599515305E9 ; 0.0
47 ; 5067175.762461344 ; 2.0055266902528402E8 ; 1.9989548369213855E8 ; 7.799722394492642E9 ; 0.0
48 ; 5074557.977716995 ; 2.0055757597399628E8 ; 2.049626594545999E8 ; 8.000275063517926E9 ; 0.0
49 ; 5084733.889140469 ; 2.0056251361536187E8 ; 2.1003721743231687E8 ; 8.200832639491922E9 ; 0.0
50 ; 5096761.286205364 ; 2.0056747988407412E8 ; 2.1512195132145733E8 ; 8.401395153107285E9 ; 0.0
51 ; 5103704.008546601 ; 2.0057247284697396E8 ; 2.2021871260766268E8 ; 8.601962632991358E9 ; 0.0
52 ; 5112900.417433482 ; 2.0057749069318384E8 ; 2.2532241661620927E8 ; 8.802535105838331E9 ; 0.0
53 ; 5116651.514005549 ; 2.0058253172498724E8 ; 2.3043531703364274E8 ; 9.003112596531515E9 ; 0.0
54 ; 5124845.953483968 ; 2.005875943494067E8 ; 2.3555196854764828E8 ; 9.203695128256502E9 ; 0.0
55 ; 5129664.301075187 ; 2.005926770704331E8 ; 2.4067681450113225E8 ; 9.40428272260591E9 ; 0.0
56 ; 5138964.225684276 ; 2.0059777848186055E8 ; 2.4580647880220744E8 ; 9.604875399676342E9 ; 0.0
57 ; 5145505.3434221465 ; 2.0060289726068237E8 ; 2.5094544302789173E8 ; 9.805473178158203E9 ; 0.0
58 ; 5157318.814299654 ; 2.0060803216100618E8 ; 2.5609094837131387E8 ; 1.0006076075418886E10 ; 0.0
59 ; 5160426.725501793 ; 2.00613182008448E8 ; 2.612482671856135E8 ; 1.0206684107579893E10 ; 0.0
60 ; 5170767.8833328225 ; 2.0061834569496816E8 ; 2.6640869391111532E8 ; 1.040729728958834E10 ; 0.0
61 ; 5172749.227382991 ; 2.0062352217411366E8 ; 2.7157946179444814E8 ; 1.0607915635283308E10 ; 0.0
62 ; 5178746.655981185 ; 2.0062871045663458E8 ; 2.7675221102183115E8 ; 1.0808539157457422E10 ; 0.0
63 ; 5188558.1725001205 ; 2.0063390960644397E8 ; 2.8193095767781234E8 ; 1.1009167867914057E10 ; 0.0
64 ; 5195903.002495648 ; 2.0063911873689383E8 ; 2.871195158503125E8 ; 1.12098017775205E10 ; 0.0
65 ; 5201064.580111349 ; 2.0064433700734073E8 ; 2.923154188528081E8 ; 1.1410440896257395E10 ; 0.0
66 ; 5206500.1123931445 ; 2.0064956361997744E8 ; 2.9751648343291944E8 ; 1.1611085233264736E10 ; 0.0
67 ; 5215433.770589026 ; 2.006547978169092E8 ; 3.027229835453126E8 ; 1.1811734796884714E10 ; 0.0
68 ; 5218552.344407003 ; 2.0066003887745383E8 ; 3.0793841731590164E8 ; 1.2012389594701624E10 ; 0.0
69 ; 5225092.702640764 ; 2.0066528611564794E8 ; 3.1315696966030866E8 ; 1.2213049633579079E10 ; 0.0
70 ; 5229319.5325042 ; 2.0067053887794164E8 ; 3.1838206236294943E8 ; 1.2413714919694727E10 ; 0.0
71 ; 5233582.745899974 ; 2.006757965410673E8 ; 3.2361138189545363E8 ; 1.2614385458572668E10 ; 0.0
72 ; 5241293.191400875 ; 2.006810585100671E8 ; 3.288449646413536E8 ; 1.2815061255113735E10 ; 0.0
73 ; 5245497.64988267 ; 2.006863242164673E8 ; 3.340862578327545E8 ; 1.3015742313623802E10 ; 0.0
74 ; 5255679.3005219605 ; 2.0069159311658677E8 ; 3.3933175548263717E8 ; 1.321642863784027E10 ; 0.0
75 ; 5253766.857701855 ; 2.0069686468996963E8 ; 3.4458743478315914E8 ; 1.3417120230956856E10 ; 0.0
76 ; 5258720.22913066 ; 2.0070213843793124E8 ; 3.49841201640861E8 ; 1.3617817095646826E10 ; 0.0
77 ; 5265094.261039211 ; 2.0070741388220906E8 ; 3.5509992186999166E8 ; 1.3818519234084757E10 ; 0.0
78 ; 5266643.710339711 ; 2.0071269056371012E8 ; 3.6036501613103086E8 ; 1.4019226647966967E10 ; 0.0
79 ; 5264804.247985345 ; 2.007179680413469E8 ; 3.656316598413706E8 ; 1.4219939338530676E10 ; 0.0
80 ; 5264573.815906784 ; 2.0072324589095542E8 ; 3.7089646408935595E8 ; 1.4420657306572023E10 ; 0.0
81 ; 5266246.461682272 ; 2.0072852370428857E8 ; 3.761610379052627E8 ; 1.4621380552462978E10 ; 0.0
82 ; 5257023.457175262 ; 2.0073380108807924E8 ; 3.8142728436694497E8 ; 1.4822109076167267E10 ; 0.0
83 ; 5254260.565231986 ; 2.0073907766316772E8 ; 3.866843078241202E8 ; 1.5022842877255346E10 ; 0.0
84 ; 5260315.9208312 ; 2.0074435306368825E8 ; 3.919385683893522E8 ; 1.5223581954918514E10 ; 0.0
85 ; 5253777.551582489 ; 2.0074962693631086E8 ; 3.971988843101834E8 ; 1.5424326307982203E10 ; 0.0
86 ; 5254449.915143855 ; 2.0075489893953365E8 ; 4.024526618617659E8 ; 1.5625075934918514E10 ; 0.0
87 ; 5254893.65820296 ; 2.007601687430222E8 ; 4.0770711177690977E8 ; 1.5825830833858047E10 ; 0.0
88 ; 5253673.080165711 ; 2.0076543602699235E8 ; 4.129620054351127E8 ; 1.602659100260107E10 ; 0.0
89 ; 5248722.70427475 ; 2.0077070048163334E8 ; 4.182156785152784E8 ; 1.6227356438628063E10 ; 0.0
90 ; 5248294.638590816 ; 2.0077596180656826E8 ; 4.234644012195532E8 ; 1.6428127139109697E10 ; 0.0
91 ; 5246190.9682508735 ; 2.0078121971034926E8 ; 4.28712695858144E8 ; 1.6628903100916265E10 ; 0.0
92 ; 5241549.436678278 ; 2.0078647390998465E8 ; 4.3395888682639486E8 ; 1.6829684320626616E10 ; 0.0
93 ; 5236603.315563407 ; 2.007917241304961E8 ; 4.3920043626307315E8 ; 1.70304707945366E10 ; 0.0
94 ; 5234523.950934521 ; 2.0079697010450345E8 ; 4.444370395786365E8 ; 1.7231262518667095E10 ; 0.0
95 ; 5234373.995135475 ; 2.0080221157183522E8 ; 4.4967156352957106E8 ; 1.74320594887716E10 ; 0.0
96 ; 5232091.31005278 ; 2.0080744827916342E8 ; 4.5490593752470654E8 ; 1.7632861700343433E10 ; 0.0
97 ; 5227350.163456815 ; 2.008126799796602E8 ; 4.601380288347593E8 ; 1.7833669148622597E10 ; 0.0
98 ; 5220414.0594431525 ; 2.008179064326759E8 ; 4.653653789982161E8 ; 1.8034481828602257E10 ; 0.0
99 ; 5217737.862477357 ; 2.008231274034358E8 ; 4.7058579305765927E8 ; 1.823529973503493E10 ; 0.0
100 ; 5216434.77166284 ; 2.0082834266275543E8 ; 4.7580353092013663E8 ; 1.8436122862438366E10 ; 0.0
101 ; 5216167.567668853 ; 2.008335519867726E8 ; 4.8101996569179946E8 ; 1.863695120510112E10 ; 0.0
102 ; 5205337.874208197 ; 2.0083875515669507E8 ; 4.862361332594683E8 ; 1.8837784757087894E10 ; 0.0
103 ; 5205790.061675066 ; 2.0084395195856294E8 ; 4.914414711336765E8 ; 1.903862351224459E10 ; 0.0
104 ; 5197079.391951583 ; 2.008491421830249E8 ; 4.966472611953516E8 ; 1.9239467464203156E10 ; 0.0
105 ; 5199820.874092575 ; 2.008543256251271E8 ; 5.0184434058730316E8 ; 1.944031660638618E10 ; 0.0
106 ; 5192747.0287082 ; 2.008595020841141E8 ; 5.0704416146139574E8 ; 1.9641170932011307E10 ; 0.0
107 ; 5185411.77452867 ; 2.008646713632412E8 ; 5.1223690849010396E8 ; 1.984203043409542E10 ; 0.0
108 ; 5184348.956962365 ; 2.0086983326959705E8 ; 5.1742232026463264E8 ; 2.0042895105458664E10 ; 0.0
109 ; 5183065.340960886 ; 2.0087498761393636E8 ; 5.22606669221595E8 ; 2.024376493872826E10 ; 0.0
110 ; 5173830.36344249 ; 2.0088013421052155E8 ; 5.2778973456255585E8 ; 2.0444639926342197E10 ; 0.0
111 ; 5171144.75936026 ; 2.0088527287697345E8 ; 5.3296356492599833E8 ; 2.064552006055272E10 ; 0.0
112 ; 5163506.665903989 ; 2.008904034341297E8 ; 5.381347096853586E8 ; 2.084640533342969E10 ; 0.0
113 ; 5163744.166968853 ; 2.008955257059111E8 ; 5.432982163512627E8 ; 2.104729573686382E10 ; 0.0
114 ; 5153899.0496116 ; 2.009006395191951E8 ; 5.484619605182315E8 ; 2.124819126256973E10 ; 0.0
115 ; 5147242.772048204 ; 2.0090574470369586E8 ; 5.536158595678431E8 ; 2.1449091902088924E10 ; 0.0
116 ; 5145310.696753701 ; 2.0091084109185067E8 ; 5.587631023398913E8 ; 2.164999764679262E10 ; 0.0
117 ; 5132661.969159973 ; 2.0091592851871252E8 ; 5.63908413036645E8 ; 2.185090848788447E10 ; 0.0
118 ; 5128737.609640249 ; 2.009210068218481E8 ; 5.69041075005805E8 ; 2.2051824416403183E10 ; 0.0
119 ; 5123238.890632576 ; 2.0092607584124103E8 ; 5.741698126154453E8 ; 2.2252745423225033E10 ; 0.0
120 ; 5122102.0510717705 ; 2.009311354192003E8 ; 5.792930515060779E8 ; 2.2453671499066273E10 ; 0.0
121 ; 5114000.489861189 ; 2.0093618540027314E8 ; 5.844151535571496E8 ; 2.2654602634485474E10 ; 0.0
122 ; 5106148.320057603 ; 2.0094122563116246E8 ; 5.895291540470108E8 ; 2.2855538819885746E10 ; 0.0
123 ; 5098712.9123651795 ; 2.009462559606483E8 ; 5.946353023670684E8 ; 2.3056480045516907E10 ; 0.0
124 ; 5092570.276202386 ; 2.009512762395134E8 ; 5.997340152794336E8 ; 2.3257426301477554E10 ; 0.0
125 ; 5086494.694704839 ; 2.0095628632047242E8 ; 6.04826585555636E8 ; 2.3458377577717068E10 ; 0.0
126 ; 5077230.869067319 ; 2.009612860581045E8 ; 6.099130802503409E8 ; 2.365933386403754E10 ; 0.0
127 ; 5076470.202328803 ; 2.0096627530878934E8 ; 6.149903111194082E8 ; 2.3860295150095646E10 ; 0.0
128 ; 5067181.005231531 ; 2.009712539306463E8 ; 6.20066781321737E8 ; 2.4061261425404434E10 ; 0.0
129 ; 5057065.707084025 ; 2.009762217834765E8 ; 6.251339623269686E8 ; 2.426223267933508E10 ; 0.0
130 ; 5050102.688342977 ; 2.0098117872870758E8 ; 6.301910280340526E8 ; 2.4463208901118557E10 ; 0.0
131 ; 5036064.985156441 ; 2.0098612462934145E8 ; 6.352411307223955E8 ; 2.4664190079847263E10 ; 0.0
132 ; 5021079.24786872 ; 2.00991059349904E8 ; 6.40277195707552E8 ; 2.4865176204476604E10 ; 0.0
133 ; 5009958.218811742 ; 2.0099598275639775E8 ; 6.452982749554207E8 ; 2.5066167263826508E10 ; 0.0
134 ; 4992964.075602457 ; 2.0100089471625638E8 ; 6.503082331742325E8 ; 2.5267163246582905E10 ; 0.0
135 ; 4986188.0916252155 ; 2.0100579509830147E8 ; 6.553011972498349E8 ; 2.546816414129916E10 ; 0.0
136 ; 4969604.023262843 ; 2.0101068377270132E8 ; 6.602873853414601E8 ; 2.566916993639746E10 ; 0.0
137 ; 4951902.115054804 ; 2.010155606109317E8 ; 6.65256989364723E8 ; 2.5870180620170162E10 ; 0.0
138 ; 4941322.082449312 ; 2.0102042548573822E8 ; 6.702088914797778E8 ; 2.6071196180781094E10 ; 0.0
139 ; 4929118.60185893 ; 2.0102527827110076E8 ; 6.751502135622271E8 ; 2.627221660626683E10 ; 0.0
140 ; 4911027.2317415 ; 2.0103011884219912E8 ; 6.800793321640861E8 ; 2.647324188453793E10 ; 0.0
141 ; 4898144.054860187 ; 2.0103494707538062E8 ; 6.849903593958277E8 ; 2.6674272003380127E10 ; 0.0
142 ; 4884362.1553367665 ; 2.0103976284812894E8 ; 6.898885034506879E8 ; 2.687530695045551E10 ; 0.0
143 ; 4871202.65368602 ; 2.0104456603903446E8 ; 6.947728656060246E8 ; 2.707634671330364E10 ; 0.0
144 ; 4854783.632334421 ; 2.0104935652776572E8 ; 6.996440682597107E8 ; 2.7277391279342674E10 ; 0.0
145 ; 4849196.731925198 ; 2.010541341950426E8 ; 7.044988518920451E8 ; 2.747844063587044E10 ; 0.0
146 ; 4841934.961455035 ; 2.0105889892261025E8 ; 7.093480486239704E8 ; 2.7679494770065483E10 ; 0.0
147 ; 4833910.556955298 ; 2.0106365059321433E8 ; 7.141899835854254E8 ; 2.7880553668988094E10 ; 0.0
148 ; 4825236.519788042 ; 2.0106838909057748E8 ; 7.190238941423807E8 ; 2.808161731958131E10 ; 0.0
149 ; 4820301.535441491 ; 2.0107311429937664E8 ; 7.238491306621687E8 ; 2.8282685708671886E10 ; 0.0
150 ; 4810922.438995582 ; 2.010778261052214E8 ; 7.286694321976103E8 ; 2.8483758822971264E10 ; 0.0
151 ; 4799475.396296581 ; 2.0108252439463335E8 ; 7.334803546366059E8 ; 2.8684836649076485E10 ; 0.0
152 ; 4792458.53663654 ; 2.0108720905502638E8 ; 7.382798300329025E8 ; 2.888591917347112E10 ; 0.0
153 ; 4792217.737413842 ; 2.010918799746876E8 ; 7.430722885695391E8 ; 2.9087006382526146E10 ; 0.0
154 ; 4781340.308521247 ; 2.0109653704275942E8 ; 7.47864506306953E8 ; 2.9288098262500835E10 ; 0.0
155 ; 4773843.039063234 ; 2.0110118014922202E8 ; 7.526458466154742E8 ; 2.9489194799543594E10 ; 0.0
156 ; 4764965.539610519 ; 2.0110580918487698E8 ; 7.574196896545374E8 ; 2.9690295979692818E10 ; 0.0
157 ; 4755534.419205272 ; 2.0111042404133126E8 ; 7.62184655194148E8 ; 2.9891401788877693E10 ; 0.0
158 ; 4752021.427403434 ; 2.0111502461098212E8 ; 7.669401896133533E8 ; 3.0092512212919025E10 ; 0.0
159 ; 4740989.6066869935 ; 2.0111961078700244E8 ; 7.716922110407567E8 ; 3.0293627237530006E10 ; 0.0
160 ; 4736558.032521701 ; 2.0112418246332696E8 ; 7.764332006474437E8 ; 3.049474684831701E10 ; 0.0
161 ; 4723243.20606823 ; 2.0112873953463876E8 ; 7.811697586799654E8 ; 3.0695871030780334E10 ; 0.0
162 ; 4715570.6560236225 ; 2.0113328189635664E8 ; 7.858930018860337E8 ; 3.0896999770314972E10 ; 0.0
163 ; 4710576.868256835 ; 2.011378094446228E8 ; 7.906085725420573E8 ; 3.109813305221133E10 ; 0.0
164 ; 4702194.371944982 ; 2.0114232207629126E8 ; 7.953191494103141E8 ; 3.1299270861655952E10 ; 0.0
165 ; 4696735.642115462 ; 2.0114681968891636E8 ; 8.000213437822591E8 ; 3.1500413183732243E10 ; 0.0
166 ; 4689111.137734137 ; 2.0115130218074226E8 ; 8.047180794243746E8 ; 3.1701560003421158E10 ; 0.0
167 ; 4676074.611356077 ; 2.0115576945069256E8 ; 8.094071905621088E8 ; 3.19027113056019E10 ; 0.0
168 ; 4671142.293303596 ; 2.0116022139836046E8 ; 8.140832651734648E8 ; 3.210386707505259E10 ; 0.0
169 ; 4667070.980713527 ; 2.011646579239992E8 ; 8.187544074667684E8 ; 3.230502729645095E10 ; 0.0
170 ; 4650889.72007397 ; 2.0116907892851308E8 ; 8.234214784474819E8 ; 3.250619195437495E10 ; 0.0
171 ; 4645207.533195308 ; 2.011734843134488E8 ; 8.280723681675558E8 ; 3.2707361033303463E10 ; 0.0
172 ; 4637712.762893197 ; 2.0117787398098704E8 ; 8.327175757007511E8 ; 3.2908534517616913E10 ; 0.0
173 ; 4630824.147804251 ; 2.011822478339347E8 ; 8.373552884636443E8 ; 3.31097123915979E10 ; 0.0
174 ; 4626971.199915542 ; 2.0118660577571696E8 ; 8.419861126114485E8 ; 3.3310894639431835E10 ; 0.0
175 ; 4616971.919930428 ; 2.0119094771037018E8 ; 8.46613083811364E8 ; 3.3512081245207554E10 ; 0.0
176 ; 4610457.910182556 ; 2.0119527354253486E8 ; 8.512300557312945E8 ; 3.3713272192917923E10 ; 0.0
177 ; 4606335.496321538 ; 2.011995831774488E8 ; 8.558405136414771E8 ; 3.3914467466460457E10 ; 0.0
178 ; 4603220.314761807 ; 2.012038765209409E8 ; 8.604468491377987E8 ; 3.4115667049637905E10 ; 0.0
179 ; 4593960.010136711 ; 2.012081534794247E8 ; 8.650500694525604E8 ; 3.4316870926158848E10 ; 0.0
180 ; 4588158.372662192 ; 2.0121241395989263E8 ; 8.696440294626971E8 ; 3.4518079079638275E10 ; 0.0
181 ; 4587871.288790215 ; 2.0121665786991042E8 ; 8.742321878353593E8 ; 3.471929149359817E10 ; 0.0
182 ; 4577023.513318519 ; 2.012208851176115E8 ; 8.788200591241496E8 ; 3.492050815146808E10 ; 0.0
183 ; 4573256.03710651 ; 2.0122509561169198E8 ; 8.833970826374681E8 ; 3.512172903658569E10 ; 0.0
184 ; 4566441.112823342 ; 2.012292892614055E8 ; 8.879703386745746E8 ; 3.532295413219739E10 ; 0.0
185 ; 4559233.805448485 ; 2.0123346597655863E8 ; 8.92536779787398E8 ; 3.552418342145879E10 ; 0.0
186 ; 4555360.372309145 ; 2.012376256675062E8 ; 8.970960135928465E8 ; 3.572541688743535E10 ; 0.0
187 ; 4549827.501164113 ; 2.0124176824514702E8 ; 9.016513739651556E8 ; 3.592665451310285E10 ; 0.0
188 ; 4543596.44937007 ; 2.0124589362091964E8 ; 9.062012014663197E8 ; 3.6127896281348E10 ; 0.0
189 ; 4537659.135487706 ; 2.0125000170679837E8 ; 9.107447979156897E8 ; 3.632914217496892E10 ; 0.0
190 ; 4530651.322021424 ; 2.0125409241528943E8 ; 9.152824570511774E8 ; 3.653039217667571E10 ; 0.0
191 ; 4526579.43120445 ; 2.0125816565942734E8 ; 9.198131083731987E8 ; 3.6731646269091E10 ; 0.0
192 ; 4521695.89160975 ; 2.0126222135277137E8 ; 9.243396878044032E8 ; 3.693290443475043E10 ; 0.0
193 ; 4514266.362002401 ; 2.0126625940940225E8 ; 9.28861383696013E8 ; 3.7134166656103195E10 ; 0.0
194 ; 4506072.034378 ; 2.0127027974391887E8 ; 9.333756500580153E8 ; 3.7335432915512596E10 ; 0.0
195 ; 4502501.548821936 ; 2.0127428227143532E8 ; 9.378817220923934E8 ; 3.7536703195256516E10 ; 0.0
196 ; 4498678.955094949 ; 2.0127826690757796E8 ; 9.423842236412153E8 ; 3.7737977477527954E10 ; 0.0
197 ; 4491858.113598358 ; 2.0128223356848255E8 ; 9.468829025963103E8 ; 3.793925574443553E10 ; 0.0
198 ; 4484332.2123925965 ; 2.0128618217079166E8 ; 9.513747607099086E8 ; 3.814053797800401E10 ; 0.0
199 ; 4478152.380037291 ; 2.0129011263165206E8 ; 9.558590929223012E8 ; 3.8341824160174805E10 ; 0.0
200 ; 4471295.093564011 ; 2.0129402486871243E8 ; 9.603372453023385E8 ; 3.854311427280646E10 ; 0.0
201 ; 4466977.046640216 ; 2.012979188001208E8 ; 9.648085403959025E8 ; 3.874440829767517E10 ; 0.0
