CSV File for the City 1 on Day 40
1 - Minute m 
2 - Power Consumed at minute m 
3 - Power Produced at minute m 
4 - Energy Consumed since the beginning of the day 
5 - Energy Produced since the beginning of the day 
6 - Energy Lost since the beginning of the day on lines starting from the city
 
0 ; 1.5978362593382956E7 ; 1.0533288496477237E8 ; 0.0 ; 0.0 ; 0.0
1 ; 1.5992547914941953E7 ; 1.0548523716551238E8 ; 1.5978362593382956E7 ; 1.0533288496477237E8 ; 0.0
2 ; 1.601201195918623E7 ; 1.0594641859302828E8 ; 3.197091050832491E7 ; 2.1081812213028476E8 ; 0.0
3 ; 1.6027571942772642E7 ; 1.0671643540653098E8 ; 4.798292246751114E7 ; 3.1676454072331303E8 ; 0.0
4 ; 1.605296095138663E7 ; 1.0779529331964076E8 ; 6.401049441028378E7 ; 4.23480976129844E8 ; 0.0
5 ; 1.608457656801447E7 ; 1.0918299751030022E8 ; 8.00634553616704E7 ; 5.3127626944948477E8 ; 0.0
6 ; 1.612136464664401E7 ; 1.1087955253376606E8 ; 9.614803192968488E7 ; 6.40459266959785E8 ; 0.0
7 ; 1.6173619919539068E7 ; 1.1288496224177957E8 ; 1.1226939657632889E8 ; 7.51338819493551E8 ; 0.0
8 ; 1.6249962401998049E7 ; 1.1519922971104997E8 ; 1.2844301649586795E8 ; 8.642237817353306E8 ; 0.0
9 ; 1.637533428843965E7 ; 1.1782235718401927E8 ; 1.44692978897866E8 ; 9.794230114463806E8 ; 0.0
10 ; 1.6554285767594606E7 ; 1.2075434602449822E8 ; 1.6106831318630567E8 ; 1.0972453686304E9 ; 0.0
11 ; 1.6839177698014744E7 ; 1.2399519669019213E8 ; 1.7762259895390028E8 ; 1.2179997146548982E9 ; 0.0
12 ; 1.7303250985478524E7 ; 1.2754490872339568E8 ; 1.94461776651915E8 ; 1.3419949113450904E9 ; 0.0
13 ; 1.774590459203059E7 ; 1.3140348076029807E8 ; 2.1176502763739353E8 ; 1.469539820068486E9 ; 0.0
14 ; 1.7802745936826415E7 ; 1.3557091055845743E8 ; 2.2951093222942412E8 ; 1.600943300828784E9 ; 0.0
15 ; 1.781996882787944E7 ; 1.400471950411644E8 ; 2.4731367816625053E8 ; 1.7365142113872414E9 ; 0.0
16 ; 1.7843884464983184E7 ; 1.448323303566778E8 ; 2.6513364699412996E8 ; 1.8765614064284058E9 ; 0.0
17 ; 1.7866883231841795E7 ; 1.4992631194974086E8 ; 2.829775314591131E8 ; 2.0213937367850835E9 ; 0.0
18 ; 1.7883046214964323E7 ; 1.55329134642411E8 ; 3.008444146909549E8 ; 2.171320048734824E9 ; 0.0
19 ; 1.790509909430855E7 ; 1.6104079272106794E8 ; 3.1872746090591925E8 ; 2.3266491833772354E9 ; 0.0
20 ; 1.7929294899608094E7 ; 1.6706128002650073E8 ; 3.366325600002278E8 ; 2.4876899760983033E9 ; 0.0
21 ; 1.7950052967485525E7 ; 1.73390590044183E8 ; 3.545618548998359E8 ; 2.654751256124804E9 ; 0.0
22 ; 1.797215711365054E7 ; 1.8002871599218756E8 ; 3.7251190786732143E8 ; 2.828141846168987E9 ; 0.0
23 ; 1.7990123173947968E7 ; 1.8697565090462583E8 ; 3.90484064980972E8 ; 3.0081705621611743E9 ; 0.0
24 ; 1.801528638646926E7 ; 1.94231387708973E8 ; 4.0847418815492E8 ; 3.1951462130658E9 ; 0.0
25 ; 1.8032579805031095E7 ; 2.0048396019430438E8 ; 4.264894745413892E8 ; 3.389377600774773E9 ; 0.0
26 ; 1.8053001077112965E7 ; 2.00486909110265E8 ; 4.4452205434642035E8 ; 3.5898615609690776E9 ; 0.0
27 ; 1.807275919554533E7 ; 2.0048999674576342E8 ; 4.625750554235333E8 ; 3.7903484700793424E9 ; 0.0
28 ; 1.809141371579913E7 ; 2.0049321622128206E8 ; 4.8064781461907864E8 ; 3.9908384668251057E9 ; 0.0
29 ; 1.8110490525325168E7 ; 2.00496560819705E8 ; 4.987392283348778E8 ; 4.1913316830463877E9 ; 0.0
30 ; 1.8131873018214848E7 ; 2.0050002401643956E8 ; 5.1684971886020297E8 ; 4.391828243866093E9 ; 0.0
31 ; 1.815188371601104E7 ; 2.0050359950270426E8 ; 5.349815918784178E8 ; 4.592328267882532E9 ; 0.0
32 ; 1.8172492862020068E7 ; 2.005072812026886E8 ; 5.531334755944288E8 ; 4.792831867385237E9 ; 0.0
33 ; 1.819091305876821E7 ; 2.0051106328532338E8 ; 5.713059684564488E8 ; 4.993339148587925E9 ; 0.0
34 ; 1.8202656548634488E7 ; 2.0051494017139688E8 ; 5.89496881515217E8 ; 5.193850211873248E9 ; 0.0
35 ; 1.822299299846899E7 ; 2.0051890653672445E8 ; 6.076995380638515E8 ; 5.394365152044645E9 ; 0.0
36 ; 1.824021428242253E7 ; 2.005229573120309E8 ; 6.259225310623205E8 ; 5.594884058581369E9 ; 0.0
37 ; 1.8253879641318012E7 ; 2.0052708768014812E8 ; 6.44162745344743E8 ; 5.7954070158934E9 ; 0.0
38 ; 1.8270716578118462E7 ; 2.005312930710656E8 ; 6.62416624986061E8 ; 5.995934103573548E9 ; 0.0
39 ; 1.8284965461436775E7 ; 2.0053556915530735E8 ; 6.806873415641794E8 ; 6.196465396644614E9 ; 0.0
40 ; 1.8298188004042987E7 ; 2.0053991183604327E8 ; 6.989723070256162E8 ; 6.397000965799922E9 ; 0.0
41 ; 1.83102611010355E7 ; 2.00544317240284E8 ; 7.172704950296592E8 ; 6.597540877635965E9 ; 0.0
42 ; 1.8328475445496306E7 ; 2.0054878170945212E8 ; 7.355807561306946E8 ; 6.798085194876249E9 ; 0.0
43 ; 1.8335967209696796E7 ; 2.0055330178957206E8 ; 7.53909231576191E8 ; 6.998633976585701E9 ; 0.0
44 ; 1.834429225207181E7 ; 2.0055787422127745E8 ; 7.722451987858877E8 ; 7.199187278375273E9 ; 0.0
45 ; 1.835603751558309E7 ; 2.0056249592979562E8 ; 7.905894910379596E8 ; 7.39974515259655E9 ; 0.0
46 ; 1.836485495060683E7 ; 2.005671640150355E8 ; 8.089455285535426E8 ; 7.600307648526345E9 ; 0.0
47 ; 1.8376216905300666E7 ; 2.0057187574187678E8 ; 8.273103835041494E8 ; 7.800874812541381E9 ; 0.0
48 ; 1.8382568414716963E7 ; 2.0057662853073478E8 ; 8.4568660040945E8 ; 8.0014466882832575E9 ; 0.0
49 ; 1.8392165061890673E7 ; 2.0058141994845566E8 ; 8.64069168824167E8 ; 8.2020233168139925E9 ; 0.0
50 ; 1.8390941283361208E7 ; 2.005862476995793E8 ; 8.824613338860577E8 ; 8.402604736762448E9 ; 0.0
51 ; 1.840043658768223E7 ; 2.005911096179952E8 ; 9.008522751694189E8 ; 8.603190984462029E9 ; 0.0
52 ; 1.8407684054621596E7 ; 2.0059600365900543E8 ; 9.192527117571012E8 ; 8.803782094080023E9 ; 0.0
53 ; 1.8406209963882457E7 ; 2.0060092789179987E8 ; 9.376603958117228E8 ; 9.004378097739029E9 ; 0.0
54 ; 1.8414278992207713E7 ; 2.0060588049234277E8 ; 9.560666057756052E8 ; 9.204979025630829E9 ; 0.0
55 ; 1.841581900981997E7 ; 2.0061085973666453E8 ; 9.74480884767813E8 ; 9.40558490612317E9 ; 0.0
56 ; 1.842228077739664E7 ; 2.006158639945484E8 ; 9.92896703777633E8 ; 9.606195765859835E9 ; 0.0
57 ; 1.8428277430330697E7 ; 2.006208917235988E8 ; 1.0113189845550296E9 ; 9.806811629854383E9 ; 0.0
58 ; 1.843349149432612E7 ; 2.0062594146367693E8 ; 1.0297472619853604E9 ; 1.0007432521577982E10 ; 0.0
59 ; 1.8434545793850478E7 ; 2.0063101183168676E8 ; 1.0481807534796865E9 ; 1.0208058463041658E10 ; 0.0
60 ; 1.8439021288118068E7 ; 2.0063610151669455E8 ; 1.0666152992735369E9 ; 1.0408689474873344E10 ; 0.0
61 ; 1.8440349278697886E7 ; 2.0064120927536404E8 ; 1.085054320561655E9 ; 1.060932557639004E10 ; 0.0
62 ; 1.844696471947727E7 ; 2.0064633392769048E8 ; 1.103494669840353E9 ; 1.0809966785665403E10 ; 0.0
63 ; 1.8446597412114006E7 ; 2.0065147435301524E8 ; 1.1219416345598302E9 ; 1.1010613119593094E10 ; 0.0
64 ; 1.8453976538541213E7 ; 2.0065662948630482E8 ; 1.140388231971944E9 ; 1.121126459394611E10 ; 0.0
65 ; 1.845704287921336E7 ; 2.006617983146774E8 ; 1.1588422085104854E9 ; 1.1411921223432415E10 ; 0.0
66 ; 1.8452867678786803E7 ; 2.0066697987416136E8 ; 1.1772992513896987E9 ; 1.1612583021747093E10 ; 0.0
67 ; 1.8456745242675517E7 ; 2.006721732466708E8 ; 1.1957521190684855E9 ; 1.1813250001621254E10 ; 0.0
68 ; 1.845759935447902E7 ; 2.006773775571834E8 ; 1.214208864311161E9 ; 1.2013922174867926E10 ; 0.0
69 ; 1.8458010340750962E7 ; 2.0068259197110748E8 ; 1.23266646366564E9 ; 1.221459955242511E10 ; 0.0
70 ; 1.846339977033337E7 ; 2.0068781569182515E8 ; 1.251124474006391E9 ; 1.2415282144396217E10 ; 0.0
71 ; 1.8465914177010804E7 ; 2.006930479583998E8 ; 1.2695878737767243E9 ; 1.2615969960088043E10 ; 0.0
72 ; 1.846702664492938E7 ; 2.0069828804343632E8 ; 1.288053787953735E9 ; 1.2816663008046444E10 ; 0.0
73 ; 1.8465645217412498E7 ; 2.0070353525108376E8 ; 1.3065208145986645E9 ; 1.301736129608988E10 ; 0.0
74 ; 1.8471542124780685E7 ; 2.0070878891517043E8 ; 1.324986459816077E9 ; 1.3218064831340963E10 ; 0.0
75 ; 1.8468079136527974E7 ; 2.007140483974623E8 ; 1.3434580019408576E9 ; 1.3418773620256134E10 ; 0.0
76 ; 1.846804153343512E7 ; 2.0071931308603582E8 ; 1.3619260810773857E9 ; 1.3619487668653597E10 ; 0.0
77 ; 1.847593100583821E7 ; 2.0072458239375758E8 ; 1.3803941226108208E9 ; 1.3820206981739634E10 ; 0.0
78 ; 1.8463030240230784E7 ; 2.0072985575686312E8 ; 1.398870053616659E9 ; 1.402093156413339E10 ; 0.0
79 ; 1.8461167461995784E7 ; 2.0073513263362792E8 ; 1.4173330838568897E9 ; 1.4221661419890253E10 ; 0.0
80 ; 1.845456403011693E7 ; 2.0074041250312427E8 ; 1.4357942513188856E9 ; 1.4422396552523882E10 ; 0.0
81 ; 1.844976479226998E7 ; 2.007456948640579E8 ; 1.4542488153490026E9 ; 1.4623136965027006E10 ; 0.0
82 ; 1.8443889537270546E7 ; 2.0075097923367912E8 ; 1.4726985801412725E9 ; 1.4823882659891064E10 ; 0.0
83 ; 1.8441787433232524E7 ; 2.007562651467629E8 ; 1.491142469678543E9 ; 1.5024633639124743E10 ; 0.0
84 ; 1.8432675122195985E7 ; 2.007615521546535E8 ; 1.5095842571117756E9 ; 1.5225389904271505E10 ; 0.0
85 ; 1.842564941871573E7 ; 2.0076683982436875E8 ; 1.5280169322339716E9 ; 1.5426151456426159E10 ; 0.0
86 ; 1.8418610922625445E7 ; 2.0077212773776075E8 ; 1.5464425816526873E9 ; 1.5626918296250528E10 ; 0.0
87 ; 1.841180193402718E7 ; 2.0077741549072787E8 ; 1.5648611925753129E9 ; 1.5827690423988289E10 ; 0.0
88 ; 1.840479046356026E7 ; 2.0078270269247586E8 ; 1.58327299450934E9 ; 1.6028467839479017E10 ; 0.0
89 ; 1.8399749925105695E7 ; 2.0078798896482372E8 ; 1.6016777849729004E9 ; 1.6229250542171494E10 ; 0.0
90 ; 1.8389001534354318E7 ; 2.0079327394155216E8 ; 1.6200775348980062E9 ; 1.6430038531136318E10 ; 0.0
91 ; 1.8381080318936273E7 ; 2.007985572677909E8 ; 1.6384665364323604E9 ; 1.663083180507787E10 ; 0.0
92 ; 1.837583730810297E7 ; 2.008038385994432E8 ; 1.6568476167512968E9 ; 1.6831630362345661E10 ; 0.0
93 ; 1.8369871730185676E7 ; 2.008091176026442E8 ; 1.6752234540593998E9 ; 1.7032434200945105E10 ; 0.0
94 ; 1.8358308188460115E7 ; 2.0081439395325166E8 ; 1.6935933257895856E9 ; 1.723324331854775E10 ; 0.0
95 ; 1.8350912473096065E7 ; 2.0081966733636642E8 ; 1.7119516339780457E9 ; 1.7434057712501E10 ; 0.0
96 ; 1.834166814582737E7 ; 2.008249374458808E8 ; 1.7303025464511418E9 ; 1.7634877379837364E10 ; 0.0
97 ; 1.833254957595697E7 ; 2.0083020398405343E8 ; 1.7486442145969691E9 ; 1.7835702317283245E10 ; 0.0
98 ; 1.8326246669464715E7 ; 2.0083546666110808E8 ; 1.7669767641729262E9 ; 1.80365325212673E10 ; 0.0
99 ; 1.832046684102679E7 ; 2.0084072519485584E8 ; 1.785303010842391E9 ; 1.823736798792841E10 ; 0.0
100 ; 1.8308975432266448E7 ; 2.008459793103386E8 ; 1.8036234776834178E9 ; 1.8438208713123264E10 ; 0.0
101 ; 1.8296553199475024E7 ; 2.0085122873949245E8 ; 1.8219324531156843E9 ; 1.86390546924336E10 ; 0.0
102 ; 1.8285613888862576E7 ; 2.0085647322083014E8 ; 1.8402290063151593E9 ; 1.8839905921173096E10 ; 0.0
103 ; 1.827970168871375E7 ; 2.0086171249914113E8 ; 1.858514620204022E9 ; 1.9040762394393925E10 ; 0.0
104 ; 1.8269678930527117E7 ; 2.0086694632520807E8 ; 1.8767943218927357E9 ; 1.9241624106893066E10 ; 0.0
105 ; 1.8257747545923732E7 ; 2.0087217445553896E8 ; 1.895064000823263E9 ; 1.9442491053218273E10 ; 0.0
106 ; 1.825148096778268E7 ; 2.0087739665211377E8 ; 1.9133217483691866E9 ; 1.9643363227673813E10 ; 0.0
107 ; 1.8238789881516837E7 ; 2.0088261268214497E8 ; 1.9315732293369694E9 ; 1.9844240624325928E10 ; 0.0
108 ; 1.8223868426530257E7 ; 2.008878223178506E8 ; 1.9498120192184863E9 ; 2.004512323700807E10 ; 0.0
109 ; 1.8214465980201494E7 ; 2.0089302533623967E8 ; 1.9680358876450167E9 ; 2.0246011059325924E10 ; 0.0
110 ; 1.8205103340385996E7 ; 2.0089822151890892E8 ; 1.9862503536252182E9 ; 2.0446904084662163E10 ; 0.0
111 ; 1.819158015037004E7 ; 2.009034106518501E8 ; 2.004455456965604E9 ; 2.0647802306181072E10 ; 0.0
112 ; 1.8181993229662567E7 ; 2.009085925252676E8 ; 2.0226470371159742E9 ; 2.0848705716832924E10 ; 0.0
113 ; 1.8175180680392224E7 ; 2.0091376693340513E8 ; 2.0408290303456368E9 ; 2.1049614309358192E10 ; 0.0
114 ; 1.815880106362825E7 ; 2.0091893367438188E8 ; 2.059004211026029E9 ; 2.12505280762916E10 ; 0.0
115 ; 1.8147932037503537E7 ; 2.009240925500365E8 ; 2.0771630120896573E9 ; 2.145144700996598E10 ; 0.0
116 ; 1.8135722082098894E7 ; 2.009292433657795E8 ; 2.0953109441271608E9 ; 2.1652371102516018E10 ; 0.0
117 ; 1.8125084876536474E7 ; 2.009343859304528E8 ; 2.1134466662092597E9 ; 2.1853300345881798E10 ; 0.0
118 ; 1.811009217110842E7 ; 2.009395200561965E8 ; 2.131571751085796E9 ; 2.2054234731812252E10 ; 0.0
119 ; 1.8096664717561666E7 ; 2.0094464555832222E8 ; 2.1496818432569046E9 ; 2.225517425186845E10 ; 0.0
120 ; 1.8087040807939425E7 ; 2.0094976225519273E8 ; 2.1677785079744663E9 ; 2.2456118897426773E10 ; 0.0
121 ; 1.8071659130523175E7 ; 2.0095486996810755E8 ; 2.185865548782406E9 ; 2.2657068659681965E10 ; 0.0
122 ; 1.8059075265935034E7 ; 2.0095996852119407E8 ; 2.203937207912929E9 ; 2.2858023529650074E10 ; 0.0
123 ; 1.8046859335221287E7 ; 2.0096505774130416E8 ; 2.221996283178864E9 ; 2.305898349817127E10 ; 0.0
124 ; 1.8034149411573645E7 ; 2.0097013745791546E8 ; 2.2400431425140853E9 ; 2.325994855591257E10 ; 0.0
125 ; 1.801640391796274E7 ; 2.0097520750303778E8 ; 2.2580772919256587E9 ; 2.3460918693370487E10 ; 0.0
126 ; 1.8004306219339576E7 ; 2.0098026771112368E8 ; 2.2760936958436213E9 ; 2.3661893900873524E10 ; 0.0
127 ; 1.7989622909298047E7 ; 2.0098531791898343E8 ; 2.2940980020629606E9 ; 2.386287416858465E10 ; 0.0
128 ; 1.79718533855968E7 ; 2.0099035796570405E8 ; 2.3120876249722586E9 ; 2.406385948650363E10 ; 0.0
129 ; 1.7959325643834006E7 ; 2.00995387692572E8 ; 2.3300594783578553E9 ; 2.4264849844469337E10 ; 0.0
130 ; 1.7946687236406922E7 ; 2.0100040694299948E8 ; 2.3480188040016894E9 ; 2.446584523216191E10 ; 0.0
131 ; 1.79228369826008E7 ; 2.0100541556245434E8 ; 2.365965491238096E9 ; 2.466684563910491E10 ; 0.0
132 ; 1.7904230808227193E7 ; 2.0101041339839312E8 ; 2.383888328220697E9 ; 2.4867851054667366E10 ; 0.0
133 ; 1.7884313741070796E7 ; 2.0101540030019698E8 ; 2.401792559028924E9 ; 2.5068861468065758E10 ; 0.0
134 ; 1.7859912639569793E7 ; 2.0102037611911085E8 ; 2.4196768727699947E9 ; 2.5269876868365955E10 ; 0.0
135 ; 1.783921806515934E7 ; 2.0102534070818523E8 ; 2.4375367854095645E9 ; 2.5470897244485065E10 ; 0.0
136 ; 1.7817698276183777E7 ; 2.0103029392222047E8 ; 2.455376003474724E9 ; 2.5671922585193253E10 ; 0.0
137 ; 1.7796418190377172E7 ; 2.010352356177138E8 ; 2.4731937017509074E9 ; 2.5872952879115475E10 ; 0.0
138 ; 1.777624685673402E7 ; 2.0104016565280864E8 ; 2.4909901199412847E9 ; 2.607398811473319E10 ; 0.0
139 ; 1.7758206095048208E7 ; 2.010450838872459E8 ; 2.5087663667980185E9 ; 2.6275028280385998E10 ; 0.0
140 ; 1.7730087492956135E7 ; 2.0104999018231794E8 ; 2.526524572893067E9 ; 2.6476073364273243E10 ; 0.0
141 ; 1.7712477228494626E7 ; 2.0105488440082413E8 ; 2.544254660386023E9 ; 2.6677123354455563E10 ; 0.0
142 ; 1.768495323473016E7 ; 2.010597664070285E8 ; 2.5619671376145177E9 ; 2.6878178238856388E10 ; 0.0
143 ; 1.7666303425821826E7 ; 2.010646360666193E8 ; 2.579652090849248E9 ; 2.7079238005263416E10 ; 0.0
144 ; 1.7643759853746496E7 ; 2.0106949324667022E8 ; 2.5973183942750697E9 ; 2.7280302641330036E10 ; 0.0
145 ; 1.7627993727432657E7 ; 2.0107433781560335E8 ; 2.614962154128816E9 ; 2.7481372134576706E10 ; 0.0
146 ; 1.7610957869190276E7 ; 2.010791696431536E8 ; 2.632590147856249E9 ; 2.768244647239231E10 ; 0.0
147 ; 1.759744652655682E7 ; 2.0108398860033488E8 ; 2.650201105725439E9 ; 2.7883525642035465E10 ; 0.0
148 ; 1.7579978434564896E7 ; 2.0108879455940747E8 ; 2.667798552251996E9 ; 2.80846096306358E10 ; 0.0
149 ; 1.7567029283311523E7 ; 2.0109358739384696E8 ; 2.685378530686561E9 ; 2.8285698425195206E10 ; 0.0
150 ; 1.7550572518711917E7 ; 2.0109836697831437E8 ; 2.7029455599698725E9 ; 2.8486792012589054E10 ; 0.0
151 ; 1.7531343264999203E7 ; 2.0110313318862763E8 ; 2.7204961324885845E9 ; 2.8687890379567368E10 ; 0.0
152 ; 1.7511593326762483E7 ; 2.011078859017341E8 ; 2.738027475753584E9 ; 2.8888993512755997E10 ; 0.0
153 ; 1.749972836977566E7 ; 2.011126249956845E8 ; 2.7555390690803466E9 ; 2.909010139865773E10 ; 0.0
154 ; 1.7483423045456797E7 ; 2.011173503496077E8 ; 2.7730387974501224E9 ; 2.9291214023653416E10 ; 0.0
155 ; 1.746646025510343E7 ; 2.0112206184368655E8 ; 2.7905222204955792E9 ; 2.9492331374003025E10 ; 0.0
156 ; 1.7445586294182193E7 ; 2.0112675935913482E8 ; 2.807988680750683E9 ; 2.969345343584671E10 ; 0.0
157 ; 1.7433196386232235E7 ; 2.0113144277817512E8 ; 2.825434267044865E9 ; 2.9894580195205845E10 ; 0.0
158 ; 1.7418682093428742E7 ; 2.0113611198401755E8 ; 2.8428674634310975E9 ; 3.009571163798402E10 ; 0.0
159 ; 1.7399579893602964E7 ; 2.0114076686083937E8 ; 2.860286145524526E9 ; 3.0296847749968037E10 ; 0.0
160 ; 1.7380812416730884E7 ; 2.011454072937654E8 ; 2.877685725418129E9 ; 3.0497988516828876E10 ; 0.0
161 ; 1.736816069383583E7 ; 2.0115003316884932E8 ; 2.89506653783486E9 ; 3.0699133924122643E10 ; 0.0
162 ; 1.7348567062688164E7 ; 2.011546443730556E8 ; 2.9124346985286956E9 ; 3.0900283957291492E10 ; 0.0
163 ; 1.7331053182096887E7 ; 2.0115924079424232E8 ; 2.929783265591384E9 ; 3.1101438601664547E10 ; 0.0
164 ; 1.7312369256222196E7 ; 2.011638223211445E8 ; 2.947114318773481E9 ; 3.130259784245879E10 ; 0.0
165 ; 1.7299059278888255E7 ; 2.0116838884335822E8 ; 2.964426688029703E9 ; 3.1503761664779934E10 ; 0.0
166 ; 1.7279212019576263E7 ; 2.0117294025132534E8 ; 2.9817257473085914E9 ; 3.170493005362329E10 ; 0.0
167 ; 1.7259817866270717E7 ; 2.011774764363188E8 ; 2.9990049593281674E9 ; 3.1906102993874615E10 ; 0.0
168 ; 1.7246579524766244E7 ; 2.0118199729042867E8 ; 3.016264777194438E9 ; 3.2107280470310932E10 ; 0.0
169 ; 1.7226019350156024E7 ; 2.0118650270654836E8 ; 3.0335113567192044E9 ; 3.230846246760136E10 ; 0.0
170 ; 1.7208281463331476E7 ; 2.0119099257836187E8 ; 3.0507373760693603E9 ; 3.2509648970307907E10 ; 0.0
171 ; 1.7192614578500006E7 ; 2.0119546680033123E8 ; 3.067945657532692E9 ; 3.271083996288627E10 ; 0.0
172 ; 1.7172203594071537E7 ; 2.0119992526768455E8 ; 3.0851382721111917E9 ; 3.29120354296866E10 ; 0.0
173 ; 1.7154472803304512E7 ; 2.0120436787640435E8 ; 3.102310475705263E9 ; 3.3113235354954285E10 ; 0.0
174 ; 1.7143685129491936E7 ; 2.012087945232167E8 ; 3.119464948508568E9 ; 3.331443972283069E10 ; 0.0
175 ; 1.7137072192354992E7 ; 2.0121320510558057E8 ; 3.1366086336380596E9 ; 3.3515648517353905E10 ; 0.0
176 ; 1.7128465837103724E7 ; 2.0121759952167746E8 ; 3.153745705830415E9 ; 3.3716861722459484E10 ; 0.0
177 ; 1.711267635844911E7 ; 2.012219776704018E8 ; 3.1708741716675186E9 ; 3.3918079321981163E10 ; 0.0
178 ; 1.710239157217655E7 ; 2.0122633945135137E8 ; 3.1879868480259676E9 ; 3.4119301299651566E10 ; 0.0
179 ; 1.7094625997305974E7 ; 2.0123068476481834E8 ; 3.205089239598144E9 ; 3.4320527639102917E10 ; 0.0
180 ; 1.7082224207182687E7 ; 2.012350135117805E8 ; 3.22218386559545E9 ; 3.452175832386774E10 ; 0.0
181 ; 1.7073513115355346E7 ; 2.0123932559389296E8 ; 3.239266089802633E9 ; 3.472299333737952E10 ; 0.0
182 ; 1.7061408272158615E7 ; 2.012436209134801E8 ; 3.2563396029179883E9 ; 3.492423266297341E10 ; 0.0
183 ; 1.704833712856481E7 ; 2.0124789937352782E8 ; 3.273401011190147E9 ; 3.5125476283886894E10 ; 0.0
184 ; 1.7037010166175373E7 ; 2.0125216087767616E8 ; 3.2904493483187118E9 ; 3.532672418326042E10 ; 0.0
185 ; 1.7030564598222405E7 ; 2.0125640533021215E8 ; 3.307486358484887E9 ; 3.55279763441381E10 ; 0.0
186 ; 1.701860492111581E7 ; 2.012606326360629E8 ; 3.3245169230831094E9 ; 3.5729232749468315E10 ; 0.0
187 ; 1.7007747135690447E7 ; 2.0126484270078918E8 ; 3.3415355280042253E9 ; 3.593049338210438E10 ; 0.0
188 ; 1.6999518699109465E7 ; 2.0126903543057892E8 ; 3.3585432751399155E9 ; 3.613175822480517E10 ; 0.0
189 ; 1.6984783784927305E7 ; 2.0127321073224124E8 ; 3.375542793839025E9 ; 3.633302726023575E10 ; 0.0
190 ; 1.6972794419809785E7 ; 2.0127736851320058E8 ; 3.3925275776239524E9 ; 3.653430047096799E10 ; 0.0
191 ; 1.696685663584791E7 ; 2.0128150868149102E8 ; 3.409500372043762E9 ; 3.6735577839481186E10 ; 0.0
192 ; 1.695146015571721E7 ; 2.0128563114575106E8 ; 3.4264672286796103E9 ; 3.6936859348162674E10 ; 0.0
193 ; 1.6942112877994753E7 ; 2.012897358152182E8 ; 3.4434186888353276E9 ; 3.7138144979308426E10 ; 0.0
194 ; 1.6933353123292085E7 ; 2.0129382259972423E8 ; 3.460360801713322E9 ; 3.733943471512364E10 ; 0.0
195 ; 1.6922705586606674E7 ; 2.0129789140969026E8 ; 3.477294154836614E9 ; 3.7540728537723366E10 ; 0.0
