CSV File for the City 3 on Day 350
1 - Minute m 
2 - Power Consumed at minute m 
3 - Power Produced at minute m 
4 - Energy Consumed since the beginning of the day 
5 - Energy Produced since the beginning of the day 
6 - Energy Lost since the beginning of the day on lines starting from the city
 
0 ; 2382971.139306723 ; 1.0555490423691449E8 ; 0.0 ; 0.0 ; 0.0
1 ; 2387656.704879822 ; 1.0570786003436792E8 ; 2382971.139306723 ; 1.0555490423691449E8 ; 0.0
2 ; 2388321.617953709 ; 1.0616959719012114E8 ; 4770627.844186545 ; 2.112627642712824E8 ; 0.0
3 ; 2392386.9007376637 ; 1.0694011711259824E8 ; 7158949.462140255 ; 3.1743236146140355E8 ; 0.0
4 ; 2396377.504622498 ; 1.0801942106302094E8 ; 9551336.362877918 ; 4.243724785740018E8 ; 0.0
5 ; 2397935.2671476677 ; 1.0940751014875203E8 ; 1.1947713867500417E7 ; 5.3239189963702273E8 ; 0.0
6 ; 2405093.4559947983 ; 1.1110438531734458E8 ; 1.4345649134648085E7 ; 6.417994097857747E8 ; 0.0
7 ; 2412943.4122476527 ; 1.1311004735137051E8 ; 1.6750742590642883E7 ; 7.529037951031193E8 ; 0.0
8 ; 2425469.263264758 ; 1.1542449686409473E8 ; 1.9163686002890535E7 ; 8.660138424544897E8 ; 0.0
9 ; 2443020.4119106065 ; 1.1804773429604983E8 ; 2.158915526615529E7 ; 9.814383393185844E8 ; 0.0
10 ; 2468978.8178937277 ; 1.2097975991255659E8 ; 2.4032175678065896E7 ; 1.0994860736146343E9 ; 0.0
11 ; 2510507.8081894456 ; 1.242205738022227E8 ; 2.6501154495959625E7 ; 1.220465833527191E9 ; 0.0
12 ; 2574794.44112193 ; 1.2777017587644044E8 ; 2.901166230414907E7 ; 1.3446864073294137E9 ; 0.0
13 ; 2639046.7799022826 ; 1.3162856586988902E8 ; 3.1586456745270997E7 ; 1.4724565832058542E9 ; 0.0
14 ; 2645255.10769418 ; 1.3579574334203595E8 ; 3.422550352517328E7 ; 1.6040851490757432E9 ; 0.0
15 ; 2650509.761943276 ; 1.402717076796162E8 ; 3.6870758632867455E7 ; 1.7398808924177792E9 ; 0.0
16 ; 2651950.472314867 ; 1.45056458100058E8 ; 3.952126839481073E7 ; 1.8801526000973954E9 ; 0.0
17 ; 2655169.5470561404 ; 1.5014999365580812E8 ; 4.217321886712559E7 ; 2.0252090581974535E9 ; 0.0
18 ; 2658512.613144129 ; 1.5555231323950386E8 ; 4.482838841418173E7 ; 2.1753590518532615E9 ; 0.0
19 ; 2661768.943476598 ; 1.6126341558992347E8 ; 4.748690102732586E7 ; 2.3309113650927653E9 ; 0.0
20 ; 2663782.9249105016 ; 1.6728329929864284E8 ; 5.0148669970802456E7 ; 2.4921747806826887E9 ; 0.0
21 ; 2668199.7847813694 ; 1.7361196281731793E8 ; 5.281245289571296E7 ; 2.6594580799813313E9 ; 0.0
22 ; 2670219.080541511 ; 1.8024940446550715E8 ; 5.548065268049432E7 ; 2.8330700427986493E9 ; 0.0
23 ; 2674095.942974943 ; 1.87195622438946E8 ; 5.815087176103584E7 ; 3.0133194472641563E9 ; 0.0
24 ; 2676861.9499394544 ; 1.9445061481818306E8 ; 6.082496770401078E7 ; 3.200515069703102E9 ; 0.0
25 ; 2680572.11483834 ; 2.007024204756717E8 ; 6.350182965395023E7 ; 3.394965684521285E9 ; 0.0
26 ; 2683721.3930460694 ; 2.007045851217572E8 ; 6.618240176878857E7 ; 3.595668104996957E9 ; 0.0
27 ; 2686482.815059323 ; 2.0070687583876994E8 ; 6.886612316183464E7 ; 3.796372690118714E9 ; 0.0
28 ; 2687604.165242792 ; 2.0070929033700454E8 ; 7.155260597689396E7 ; 3.997079565957484E9 ; 0.0
29 ; 2692989.922101792 ; 2.0071182625711304E8 ; 7.424021014213675E7 ; 4.1977888562944884E9 ; 0.0
30 ; 2695659.1621714365 ; 2.0071448117912382E8 ; 7.693320006423855E7 ; 4.398500682551601E9 ; 0.0
31 ; 2697851.4863009993 ; 2.0071725263126883E8 ; 7.962885922640999E7 ; 4.599215163730725E9 ; 0.0
32 ; 2699718.095192015 ; 2.0072013809856203E8 ; 8.232671071271099E7 ; 4.799932416361994E9 ; 0.0
33 ; 2703204.307836295 ; 2.0072313503108075E8 ; 8.5026428807903E7 ; 5.000652554460556E9 ; 0.0
34 ; 2707150.268033195 ; 2.0072624085190815E8 ; 8.77296331157393E7 ; 5.201375689491637E9 ; 0.0
35 ; 2710009.247584707 ; 2.0072945296470243E8 ; 9.043678338377249E7 ; 5.402101930343545E9 ; 0.0
36 ; 2711534.3762001498 ; 2.0073276876086575E8 ; 9.31467926313572E7 ; 5.602831383308248E9 ; 0.0
37 ; 2713810.3852954977 ; 2.0073618562629217E8 ; 9.585832700755735E7 ; 5.803564152069114E9 ; 0.0
38 ; 2715759.698301553 ; 2.0073970094768047E8 ; 9.857213739285284E7 ; 6.004300337695406E9 ; 0.0
39 ; 2718005.3950145966 ; 2.0074331211840343E8 ; 1.012878970911544E8 ; 6.205040038643086E9 ; 0.0
40 ; 2719376.330704448 ; 2.0074701654393095E8 ; 1.04005902486169E8 ; 6.40578335076149E9 ; 0.0
41 ; 2722023.0990860355 ; 2.0075081164680782E8 ; 1.0672527881687345E8 ; 6.606530367305421E9 ; 0.0
42 ; 2725860.456455784 ; 2.0075469487119308E8 ; 1.0944730191595948E8 ; 6.807281178952229E9 ; 0.0
43 ; 2725218.68073804 ; 2.0075866368696943E8 ; 1.1217316237241526E8 ; 7.0080358738234215E9 ; 0.0
44 ; 2727857.353013939 ; 2.0076271559343588E8 ; 1.148983810531533E8 ; 7.208794537510391E9 ; 0.0
45 ; 2729486.8997640177 ; 2.0076684812259856E8 ; 1.1762623840616724E8 ; 7.409557253103827E9 ; 0.0
46 ; 2730263.8469700194 ; 2.0077105884207648E8 ; 1.2035572530593126E8 ; 7.610324101226426E9 ; 0.0
47 ; 2732584.648711275 ; 2.0077534535764104E8 ; 1.2308598915290128E8 ; 7.811095160068502E9 ; 0.0
48 ; 2733340.2189888954 ; 2.0077970531540936E8 ; 1.2581857380161256E8 ; 8.011870505426144E9 ; 0.0
49 ; 2734443.9125871146 ; 2.0078413640371123E8 ; 1.2855191402060145E8 ; 8.212650210741553E9 ; 0.0
50 ; 2734949.74976645 ; 2.007886363546516E8 ; 1.3128635793318857E8 ; 8.413434347145265E9 ; 0.0
51 ; 2736718.932944193 ; 2.007932029453886E8 ; 1.3402130768295503E8 ; 8.614222983499916E9 ; 0.0
52 ; 2736604.929477093 ; 2.007978339991492E8 ; 1.367580266158992E8 ; 8.815016186445305E9 ; 0.0
53 ; 2736934.4463851233 ; 2.0080252738600224E8 ; 1.394946315453763E8 ; 9.015814020444454E9 ; 0.0
54 ; 2738036.6763810725 ; 2.0080728102340943E8 ; 1.4223156599176142E8 ; 9.216616547830456E9 ; 0.0
55 ; 2739242.1395794433 ; 2.0081209287657368E8 ; 1.449696026681425E8 ; 9.417423828853865E9 ; 0.0
56 ; 2739612.3477992285 ; 2.0081696095860338E8 ; 1.4770884480772194E8 ; 9.618235921730438E9 ; 0.0
57 ; 2741740.7487974726 ; 2.0082188333051077E8 ; 1.5044845715552118E8 ; 9.819052882689041E9 ; 0.0
58 ; 2742921.4572800915 ; 2.0082685810106075E8 ; 1.5319019790431866E8 ; 1.0019874766019552E10 ; 0.0
59 ; 2740813.327556509 ; 2.0083188342648697E8 ; 1.5593311936159876E8 ; 1.0220701624120613E10 ; 0.0
60 ; 2742857.9056409425 ; 2.0083695751008928E8 ; 1.5867393268915528E8 ; 1.04215335075471E10 ; 0.0
61 ; 2743670.8252794803 ; 2.008420786017273E8 ; 1.614167905947962E8 ; 1.062237046505719E10 ; 0.0
62 ; 2744915.2448442723 ; 2.0084724499722263E8 ; 1.6416046142007568E8 ; 1.0823212543658916E10 ; 0.0
63 ; 2743604.966136814 ; 2.008524550376822E8 ; 1.6690537666491994E8 ; 1.102405978865614E10 ; 0.0
64 ; 2745766.539519632 ; 2.0085770710875344E8 ; 1.6964898163105676E8 ; 1.122491224369382E10 ; 0.0
65 ; 2744380.132190552 ; 2.0086299963982198E8 ; 1.723947481705764E8 ; 1.1425769950802574E10 ; 0.0
66 ; 2746164.5605039382 ; 2.0086833110316068E8 ; 1.7513912830276695E8 ; 1.1626632950442396E10 ; 0.0
67 ; 2747863.724171672 ; 2.008737000130393E8 ; 1.7788529286327088E8 ; 1.1827501281545557E10 ; 0.0
68 ; 2746833.717106751 ; 2.0087910492480156E8 ; 1.8063315658744255E8 ; 1.2028374981558596E10 ; 0.0
69 ; 2746779.54080337 ; 2.0088454443391758E8 ; 1.833799903045493E8 ; 1.2229254086483397E10 ; 0.0
70 ; 2750010.3575125095 ; 2.0089001717501727E8 ; 1.8612676984535268E8 ; 1.2430138630917315E10 ; 0.0
71 ; 2747663.973507238 ; 2.0089552182091075E8 ; 1.8887678020286518E8 ; 1.263102864809233E10 ; 0.0
72 ; 2747299.962129653 ; 2.0090105708160082E8 ; 1.916244441763724E8 ; 1.2831924169913242E10 ; 0.0
73 ; 2749560.0089641595 ; 2.0090662170329168E8 ; 1.9437174413850206E8 ; 1.3032825226994843E10 ; 0.0
74 ; 2748617.0513817538 ; 2.009122144673984E8 ; 1.971213041474662E8 ; 1.3233731848698133E10 ; 0.0
75 ; 2749886.237534294 ; 2.0091783418956012E8 ; 1.9986992119884798E8 ; 1.3434644063165531E10 ; 0.0
76 ; 2749182.147662176 ; 2.0092347971866047E8 ; 2.0261980743638226E8 ; 1.3635561897355091E10 ; 0.0
77 ; 2750299.221294737 ; 2.0092914993585774E8 ; 2.0536898958404443E8 ; 1.3836485377073751E10 ; 0.0
78 ; 2750016.276800227 ; 2.00934843753627E8 ; 2.0811928880533916E8 ; 1.403741452700961E10 ; 0.0
79 ; 2748849.9438976753 ; 2.009405601148164E8 ; 2.1086930508213937E8 ; 1.4238349370763237E10 ; 0.0
80 ; 2747862.780038916 ; 2.0094629799171922E8 ; 2.1361815502603704E8 ; 1.4439289930878054E10 ; 0.0
81 ; 2746558.7656491725 ; 2.0095205638516295E8 ; 2.1636601780607596E8 ; 1.4640236228869772E10 ; 0.0
82 ; 2745647.7295196913 ; 2.0095783432361695E8 ; 2.1911257657172513E8 ; 1.4841188285254934E10 ; 0.0
83 ; 2746621.8003203417 ; 2.009636308623192E8 ; 2.2185822430124483E8 ; 1.504214611957855E10 ; 0.0
84 ; 2745606.18963811 ; 2.0096944508242333E8 ; 2.2460484610156515E8 ; 1.524310975044087E10 ; 0.0
85 ; 2744955.211960437 ; 2.0097527609016618E8 ; 2.2735045229120326E8 ; 1.5444079195523294E10 ; 0.0
86 ; 2743370.7380900015 ; 2.0098112301605657E8 ; 2.300954075031637E8 ; 1.564505447161346E10 ; 0.0
87 ; 2741754.2578020627 ; 2.009869850140854E8 ; 2.328387782412537E8 ; 1.5846035594629517E10 ; 0.0
88 ; 2742949.924367701 ; 2.0099286126095745E8 ; 2.3558053249905577E8 ; 1.6047022579643602E10 ; 0.0
89 ; 2743297.4539157073 ; 2.0099875095534468E8 ; 2.3832348242342347E8 ; 1.624801544090456E10 ; 0.0
90 ; 2740331.184776992 ; 2.0100465331716132E8 ; 2.4106677987733918E8 ; 1.6449014191859905E10 ; 0.0
91 ; 2741005.8614977268 ; 2.0101056758686045E8 ; 2.4380711106211618E8 ; 1.6650018845177067E10 ; 0.0
92 ; 2737924.7115701106 ; 2.0101649302475178E8 ; 2.465481169236139E8 ; 1.6851029412763927E10 ; 0.0
93 ; 2737750.848699333 ; 2.0102242891034088E8 ; 2.4928604163518402E8 ; 1.705204590578868E10 ; 0.0
94 ; 2736634.058849879 ; 2.010283745416889E8 ; 2.5202379248388335E8 ; 1.725306833469902E10 ; 0.0
95 ; 2735627.8078690083 ; 2.0103432923479295E8 ; 2.5476042654273322E8 ; 1.7454096709240707E10 ; 0.0
96 ; 2734268.108566467 ; 2.0104029232298666E8 ; 2.5749605435060224E8 ; 1.7655131038475502E10 ; 0.0
97 ; 2732975.0565186315 ; 2.0104626315636045E8 ; 2.602303224591687E8 ; 1.785617133079849E10 ; 0.0
98 ; 2731843.272340749 ; 2.0105224110120085E8 ; 2.6296329751568735E8 ; 1.805721759395485E10 ; 0.0
99 ; 2732071.7401358816 ; 2.010582255394491E8 ; 2.656951407880281E8 ; 1.825826983505605E10 ; 0.0
100 ; 2730931.406073709 ; 2.0106421586817786E8 ; 2.6842721252816397E8 ; 1.8459328060595497E10 ; 0.0
101 ; 2728548.034432212 ; 2.0107021149908593E8 ; 2.7115814393423766E8 ; 1.8660392276463676E10 ; 0.0
102 ; 2727288.407854515 ; 2.010762118580104E8 ; 2.738866919686699E8 ; 1.886146248796276E10 ; 0.0
103 ; 2726671.7049689293 ; 2.0108221638445583E8 ; 2.766139803765244E8 ; 1.906253869982077E10 ; 0.0
104 ; 2726022.479744818 ; 2.0108822453113976E8 ; 2.793406520814933E8 ; 1.9263620916205227E10 ; 0.0
105 ; 2724509.3791949716 ; 2.010942357635543E8 ; 2.820666745612381E8 ; 1.9464709140736366E10 ; 0.0
106 ; 2723426.7915106597 ; 2.0110024955954334E8 ; 2.847911839404331E8 ; 1.966580337649992E10 ; 0.0
107 ; 2722747.283335538 ; 2.0110626540889448E8 ; 2.875146107319437E8 ; 1.9866903626059464E10 ; 0.0
108 ; 2720751.1030155974 ; 2.011122828129457E8 ; 2.902373580152793E8 ; 2.0068009891468357E10 ; 0.0
109 ; 2718734.140522964 ; 2.0111830128420615E8 ; 2.929581091182949E8 ; 2.0269122174281303E10 ; 0.0
110 ; 2717681.6958947536 ; 2.0112432034599045E8 ; 2.9567684325881785E8 ; 2.047024047556551E10 ; 0.0
111 ; 2717433.1747839795 ; 2.01130339532066E8 ; 2.983945249547126E8 ; 2.06713647959115E10 ; 0.0
112 ; 2715002.7404758614 ; 2.011363583863133E8 ; 3.0111195812949663E8 ; 2.0872495135443565E10 ; 0.0
113 ; 2712950.3431503796 ; 2.0114237646239832E8 ; 3.0382696086997247E8 ; 2.107363149382988E10 ; 0.0
114 ; 2711400.5788222793 ; 2.0114839332345688E8 ; 3.0653991121312284E8 ; 2.127477387029228E10 ; 0.0
115 ; 2713201.9765294776 ; 2.0115440854179022E8 ; 3.092513117919451E8 ; 2.1475922263615734E10 ; 0.0
116 ; 2708741.034402783 ; 2.0116042169857174E8 ; 3.119645137684746E8 ; 2.1677076672157524E10 ; 0.0
117 ; 2707750.7576215253 ; 2.0116643238356456E8 ; 3.1467325480287737E8 ; 2.1878237093856094E10 ; 0.0
118 ; 2704499.0489801955 ; 2.011724401948489E8 ; 3.173810055604989E8 ; 2.207940352623966E10 ; 0.0
119 ; 2704287.544244136 ; 2.0117844473855972E8 ; 3.2008550460947907E8 ; 2.2280575966434505E10 ; 0.0
120 ; 2703937.0779462047 ; 2.011844456286338E8 ; 3.227897921537232E8 ; 2.2481754411173065E10 ; 0.0
121 ; 2700414.949891623 ; 2.0119044248656574E8 ; 3.2549372923166937E8 ; 2.26829388568017E10 ; 0.0
122 ; 2699701.7263334827 ; 2.011964349411732E8 ; 3.28194144181561E8 ; 2.2884129299288265E10 ; 0.0
123 ; 2697025.154957753 ; 2.0120242262837034E8 ; 3.308938459078945E8 ; 2.308532573422944E10 ; 0.0
124 ; 2696004.1366703683 ; 2.0120840519094965E8 ; 3.3359087106285226E8 ; 2.328652815685781E10 ; 0.0
125 ; 2693786.318623829 ; 2.0121438227837145E8 ; 3.362868751995226E8 ; 2.348773656204876E10 ; 0.0
126 ; 2692415.32474532 ; 2.0122035354656133E8 ; 3.3898066151814646E8 ; 2.368895094432713E10 ; 0.0
127 ; 2691436.715081676 ; 2.0122631865771452E8 ; 3.4167307684289175E8 ; 2.389017129787369E10 ; 0.0
128 ; 2688566.736105973 ; 2.0123227728010762E8 ; 3.4436451355797344E8 ; 2.4091397616531406E10 ; 0.0
129 ; 2686550.6930536185 ; 2.0123822908791688E8 ; 3.470530802940794E8 ; 2.4292629893811516E10 ; 0.0
130 ; 2684519.4222990256 ; 2.0124417376104325E8 ; 3.49739630987133E8 ; 2.4493868122899433E10 ; 0.0
131 ; 2683262.3214890515 ; 2.0125011098494336E8 ; 3.5242415040943205E8 ; 2.4695112296660477E10 ; 0.0
132 ; 2678281.404999402 ; 2.01256040450467E8 ; 3.551074127309211E8 ; 2.489636240764542E10 ; 0.0
133 ; 2676540.1177404886 ; 2.0126196185369983E8 ; 3.5778569413592046E8 ; 2.5097618448095886E10 ; 0.0
134 ; 2674090.2048659315 ; 2.0126787489581245E8 ; 3.60462234253661E8 ; 2.5298880409949585E10 ; 0.0
135 ; 2671061.166655533 ; 2.0127377928291404E8 ; 3.631363244585269E8 ; 2.5500148284845398E10 ; 0.0
136 ; 2667713.280508265 ; 2.012796747259118E8 ; 3.6580738562518245E8 ; 2.570142206412831E10 ; 0.0
137 ; 2664864.9761772575 ; 2.0128556094037503E8 ; 3.684750989056907E8 ; 2.590270173885422E10 ; 0.0
138 ; 2663704.981715685 ; 2.012914376464043E8 ; 3.71139963881868E8 ; 2.6103987299794598E10 ; 0.0
139 ; 2659187.648177083 ; 2.0129730456850487E8 ; 3.738036688635837E8 ; 2.6305278737441E10 ; 0.0
140 ; 2656668.3853371236 ; 2.01303161435465E8 ; 3.764628565117608E8 ; 2.6506576042009506E10 ; 0.0
141 ; 2653617.3198079 ; 2.0130900798023805E8 ; 3.791195248970979E8 ; 2.6707879203444973E10 ; 0.0
142 ; 2651178.4665705455 ; 2.0131484393982923E8 ; 3.817731422169058E8 ; 2.6909188211425213E10 ; 0.0
143 ; 2647710.600291357 ; 2.0132066905518577E8 ; 3.844243206834763E8 ; 2.7110503055365044E10 ; 0.0
144 ; 2645704.678717387 ; 2.0132648307109147E8 ; 3.870720312837677E8 ; 2.731182372442023E10 ; 0.0
145 ; 2643796.6266242797 ; 2.013322857360644E8 ; 3.897177359624851E8 ; 2.751315020749132E10 ; 0.0
146 ; 2641788.1014480046 ; 2.0133807680225855E8 ; 3.9236153258910936E8 ; 2.7714482493227386E10 ; 0.0
147 ; 2640165.615150067 ; 2.0134385602536857E8 ; 3.9500332069055736E8 ; 2.7915820570029644E10 ; 0.0
148 ; 2637016.653547228 ; 2.0134962316453812E8 ; 3.9764348630570745E8 ; 2.811716442605501E10 ; 0.0
149 ; 2635473.6802065675 ; 2.0135537798227102E8 ; 4.002805029592547E8 ; 2.831851404921955E10 ; 0.0
150 ; 2634330.9980084896 ; 2.0136112024434572E8 ; 4.029159766394613E8 ; 2.851986942720182E10 ; 0.0
151 ; 2632128.6101930295 ; 2.013668497197326E8 ; 4.0555030763746977E8 ; 2.8721230547446167E10 ; 0.0
152 ; 2628221.3754992452 ; 2.013725661805141E8 ; 4.081824362476628E8 ; 2.89225973971659E10 ; 0.0
153 ; 2629031.2384836785 ; 2.0137826940180746E8 ; 4.1081065762316203E8 ; 2.9123969963346416E10 ; 0.0
154 ; 2625144.2734845374 ; 2.013839591616903E8 ; 4.134396888616457E8 ; 2.9325348232748222E10 ; 0.0
155 ; 2621963.568677086 ; 2.0138963524112853E8 ; 4.160648331351302E8 ; 2.9526732191909912E10 ; 0.0
156 ; 2622910.5587956817 ; 2.013952974239069E8 ; 4.186867967038073E8 ; 2.972812182715104E10 ; 0.0
157 ; 2619773.395820923 ; 2.0140094549656147E8 ; 4.21309707262603E8 ; 2.9929517124574947E10 ; 0.0
158 ; 2615882.7729264144 ; 2.0140657924831498E8 ; 4.239294806584239E8 ; 3.013091807007151E10 ; 0.0
159 ; 2615655.0375155066 ; 2.0141219847101378E8 ; 4.265453634313503E8 ; 3.0332324649319824E10 ; 0.0
160 ; 2613936.1101948037 ; 2.014178029590672E8 ; 4.291610184688658E8 ; 3.0533736847790836E10 ; 0.0
161 ; 2611757.4856714127 ; 2.0142339250938886E8 ; 4.317749545790606E8 ; 3.0735154650749905E10 ; 0.0
162 ; 2608035.520804749 ; 2.014289669213399E8 ; 4.34386712064732E8 ; 3.0936578043259293E10 ; 0.0
163 ; 2606087.0176593605 ; 2.014345259966742E8 ; 4.369947475855368E8 ; 3.1138007010180634E10 ; 0.0
164 ; 2604217.3350454895 ; 2.014400695394852E8 ; 4.3960083460319614E8 ; 3.1339441536177307E10 ; 0.0
165 ; 2602934.1054003704 ; 2.0144559735615462E8 ; 4.4220505193824166E8 ; 3.1540881605716793E10 ; 0.0
166 ; 2598952.343614385 ; 2.01451109255303E8 ; 4.4480798604364204E8 ; 3.174232720307295E10 ; 0.0
167 ; 2598467.739322837 ; 2.0145660504774138E8 ; 4.4740693838725644E8 ; 3.194377831232825E10 ; 0.0
168 ; 2597323.008741694 ; 2.0146208454642522E8 ; 4.500054061265793E8 ; 3.214523491737599E10 ; 0.0
169 ; 2594417.2740845354 ; 2.014675475664092E8 ; 4.5260272913532096E8 ; 3.2346697001922417E10 ; 0.0
170 ; 2592639.6558382474 ; 2.0147299392480397E8 ; 4.5519714640940547E8 ; 3.2548164549488827E10 ; 0.0
171 ; 2589385.1911238427 ; 2.014784234407339E8 ; 4.577897860652437E8 ; 3.274963754341363E10 ; 0.0
172 ; 2588179.420148983 ; 2.014838359352966E8 ; 4.6037917125636756E8 ; 3.2951115966854366E10 ; 0.0
173 ; 2584244.354627192 ; 2.0148923123152336E8 ; 4.6296735067651653E8 ; 3.315259980278966E10 ; 0.0
174 ; 2582518.582602015 ; 2.014946091543411E8 ; 4.655515950311437E8 ; 3.3354089034021183E10 ; 0.0
175 ; 2584152.381393796 ; 2.0149996953053552E8 ; 4.6813411361374575E8 ; 3.3555583643175526E10 ; 0.0
176 ; 2581795.9053017762 ; 2.0150531218871528E8 ; 4.7071826599513954E8 ; 3.3757083612706062E10 ; 0.0
177 ; 2580035.5945437476 ; 2.015106369592775E8 ; 4.733000619004413E8 ; 3.395858892489478E10 ; 0.0
178 ; 2578759.930258892 ; 2.0151594367437437E8 ; 4.7588009749498504E8 ; 3.4160099561854057E10 ; 0.0
179 ; 2578194.8363847453 ; 2.0152123216788045E8 ; 4.784588574252439E8 ; 3.4361615505528435E10 ; 0.0
180 ; 2576445.174000975 ; 2.0152650227536163E8 ; 4.810370522616287E8 ; 3.456313673769631E10 ; 0.0
181 ; 2573872.8755696705 ; 2.015317538340445E8 ; 4.8361349743562967E8 ; 3.476466323997167E10 ; 0.0
182 ; 2573169.6783132926 ; 2.0153698668278694E8 ; 4.861873703111993E8 ; 3.496619499380572E10 ; 0.0
183 ; 2571684.7161632734 ; 2.0154220066204977E8 ; 4.887605399895126E8 ; 3.51677319804885E10 ; 0.0
184 ; 2570627.60749523 ; 2.0154739561386895E8 ; 4.913322247056759E8 ; 3.536927418115055E10 ; 0.0
185 ; 2569492.183049529 ; 2.015525713818288E8 ; 4.9390285231317115E8 ; 3.557082157676442E10 ; 0.0
186 ; 2567775.107448956 ; 2.0155772781103632E8 ; 4.9647234449622065E8 ; 3.577237414814625E10 ; 0.0
187 ; 2566966.7425534916 ; 2.0156286474809578E8 ; 4.990401196036696E8 ; 3.597393187595728E10 ; 0.0
188 ; 2567158.7511328133 ; 2.0156798204108465E8 ; 5.0160708634622306E8 ; 3.6175494740705376E10 ; 0.0
189 ; 2564456.9876133045 ; 2.015730795395298E8 ; 5.0417424509735584E8 ; 3.637706272274646E10 ; 0.0
190 ; 2562841.86862302 ; 2.0157815709438482E8 ; 5.0673870208496916E8 ; 3.657863580228599E10 ; 0.0
191 ; 2560052.7318643644 ; 2.0158321455800778E8 ; 5.093015439535922E8 ; 3.678021395938037E10 ; 0.0
192 ; 2559337.121058299 ; 2.0158825178413978E8 ; 5.118615966854566E8 ; 3.698179717393838E10 ; 0.0
193 ; 2558733.582211269 ; 2.015932686278842E8 ; 5.1442093380651486E8 ; 3.718338542572252E10 ; 0.0
194 ; 2557239.1830609255 ; 2.015982649456865E8 ; 5.169796673887261E8 ; 3.73849786943504E10 ; 0.0
195 ; 2556552.9027602547 ; 2.0160324059531462E8 ; 5.1953690657178706E8 ; 3.758657695929609E10 ; 0.0
196 ; 2553408.782564882 ; 2.0160819543584016E8 ; 5.220934594745473E8 ; 3.77881801998914E10 ; 0.0
197 ; 2551215.796509307 ; 2.0161312932761994E8 ; 5.246468682571122E8 ; 3.798978839532724E10 ; 0.0
198 ; 2551762.6535441256 ; 2.016180421322781E8 ; 5.2719808405362153E8 ; 3.819140152465486E10 ; 0.0
199 ; 2549904.015407222 ; 2.0162293371268904E8 ; 5.2974984670716566E8 ; 3.839301956678714E10 ; 0.0
200 ; 2549413.314900586 ; 2.0162780393296045E8 ; 5.3229975072257286E8 ; 3.859464250049983E10 ; 0.0
