CSV File for the City 3 on Day 22
1 - Minute m 
2 - Power Consumed at minute m 
3 - Power Produced at minute m 
4 - Energy Consumed since the beginning of the day 
5 - Energy Produced since the beginning of the day 
6 - Energy Lost since the beginning of the day on lines starting from the city
 
0 ; 5946124.84698547 ; 7031955.123679705 ; 0.0 ; 0.0 ; 0.0
1 ; 5950201.29059047 ; 7031955.123679705 ; 5946124.84698547 ; 7031955.123679705 ; 0.0
2 ; 5955908.134868967 ; 7031955.123679705 ; 1.189632613757594E7 ; 1.406391024735941E7 ; 0.0
3 ; 5966883.510849401 ; 7031955.123679705 ; 1.7852234272444908E7 ; 2.1095865371039115E7 ; 0.0
4 ; 5977160.265528197 ; 7031955.123679705 ; 2.381911778329431E7 ; 2.812782049471882E7 ; 0.0
5 ; 5985805.456278871 ; 7031955.123679705 ; 2.9796278048822507E7 ; 3.5159775618398525E7 ; 0.0
6 ; 6000601.875838041 ; 7031955.123679705 ; 3.5782083505101375E7 ; 4.219173074207823E7 ; 0.0
7 ; 6021277.589863178 ; 7031955.123679705 ; 4.178268538093942E7 ; 4.9223685865757935E7 ; 0.0
8 ; 6049125.927866875 ; 7031955.123679705 ; 4.78039629708026E7 ; 5.625564098943764E7 ; 0.0
9 ; 6088201.26045931 ; 7031955.123679705 ; 5.3853088898669474E7 ; 6.3287596113117345E7 ; 0.0
10 ; 6155527.34797682 ; 7031955.123679705 ; 5.9941290159128785E7 ; 7.031955123679705E7 ; 0.0
11 ; 6260277.896100705 ; 7031955.123679705 ; 6.6096817507105604E7 ; 7.735150636047676E7 ; 0.0
12 ; 6427455.9820372015 ; 7031955.123679705 ; 7.23570954032063E7 ; 8.438346148415646E7 ; 0.0
13 ; 6579397.017667609 ; 7031955.123679705 ; 7.87845513852435E7 ; 9.141541660783616E7 ; 0.0
14 ; 6598543.727874088 ; 7031955.123679705 ; 8.536394840291111E7 ; 9.844737173151585E7 ; 0.0
15 ; 6607062.11841437 ; 7031955.123679705 ; 9.19624921307852E7 ; 1.0547932685519555E8 ; 0.0
16 ; 6612403.173030049 ; 7031955.123679705 ; 9.856955424919957E7 ; 1.1251128197887525E8 ; 0.0
17 ; 6622080.644241913 ; 7031955.123679705 ; 1.0518195742222962E8 ; 1.1954323710255495E8 ; 0.0
18 ; 6629238.246913596 ; 7031955.123679705 ; 1.1180403806647153E8 ; 1.2657519222623464E8 ; 0.0
19 ; 6639364.7569203805 ; 7031955.123679705 ; 1.1843327631338513E8 ; 1.3360714734991434E8 ; 0.0
20 ; 6644976.637495927 ; 7031955.123679705 ; 1.2507264107030551E8 ; 1.4063910247359404E8 ; 0.0
21 ; 6653513.655500614 ; 7031955.123679705 ; 1.3171761770780143E8 ; 1.4767105759727374E8 ; 0.0
22 ; 6664031.520532803 ; 7031955.123679705 ; 1.3837113136330205E8 ; 1.5470301272095343E8 ; 0.0
23 ; 6670806.897436526 ; 7031955.123679705 ; 1.4503516288383487E8 ; 1.6173496784463313E8 ; 0.0
24 ; 6676947.196312543 ; 7031955.123679705 ; 1.517059697812714E8 ; 1.6876692296831283E8 ; 0.0
25 ; 6687287.947611345 ; 7031955.123679705 ; 1.5838291697758394E8 ; 1.7579887809199253E8 ; 0.0
26 ; 6692539.820818712 ; 7031955.123679705 ; 1.6507020492519528E8 ; 1.8283083321567222E8 ; 0.0
27 ; 6701888.327065154 ; 7031955.123679705 ; 1.71762744746014E8 ; 1.8986278833935192E8 ; 0.0
28 ; 6708552.38022985 ; 7031955.123679705 ; 1.7846463307307914E8 ; 1.9689474346303162E8 ; 0.0
29 ; 6716256.359127706 ; 7031955.123679705 ; 1.85173185453309E8 ; 2.0392669858671132E8 ; 0.0
30 ; 6723677.606641464 ; 7031955.123679705 ; 1.918894418124367E8 ; 2.10958653710391E8 ; 0.0
31 ; 6731684.184157281 ; 7031955.123679705 ; 1.9861311941907817E8 ; 2.179906088340707E8 ; 0.0
32 ; 6737817.956957233 ; 7031955.123679705 ; 2.0534480360323545E8 ; 2.250225639577504E8 ; 0.0
33 ; 6745266.387859682 ; 7031955.123679705 ; 2.1208262156019267E8 ; 2.320545190814301E8 ; 0.0
34 ; 6750827.3904956905 ; 7031955.123679705 ; 2.1882788794805235E8 ; 2.390864742051098E8 ; 0.0
35 ; 6759496.441845805 ; 7031955.123679705 ; 2.2557871533854803E8 ; 2.461184293287895E8 ; 0.0
36 ; 6766343.926393584 ; 7031955.123679705 ; 2.3233821178039384E8 ; 2.531503844524692E8 ; 0.0
37 ; 6770246.361488437 ; 7031955.123679705 ; 2.3910455570678744E8 ; 2.601823395761489E8 ; 0.0
38 ; 6777296.102325357 ; 7031955.123679705 ; 2.4587480206827587E8 ; 2.672142946998286E8 ; 0.0
39 ; 6783142.124465834 ; 7031955.123679705 ; 2.5265209817060122E8 ; 2.742462498235083E8 ; 0.0
40 ; 6788335.121939886 ; 7031955.123679705 ; 2.5943524029506704E8 ; 2.81278204947188E8 ; 0.0
41 ; 6791754.732995759 ; 7031955.123679705 ; 2.6622357541700694E8 ; 2.883101600708677E8 ; 0.0
42 ; 6797454.609438582 ; 7031955.123679705 ; 2.730153301500027E8 ; 2.953421151945474E8 ; 0.0
43 ; 6801577.572384411 ; 7031955.123679705 ; 2.798127847594413E8 ; 3.023740703182271E8 ; 0.0
44 ; 6807987.456230346 ; 7031955.123679705 ; 2.8661436233182573E8 ; 3.094060254419068E8 ; 0.0
45 ; 6811290.166119852 ; 7031955.123679705 ; 2.934223497880561E8 ; 3.164379805655865E8 ; 0.0
46 ; 6813778.175870064 ; 7031955.123679705 ; 3.0023363995417595E8 ; 3.234699356892662E8 ; 0.0
47 ; 6814535.82324913 ; 7031955.123679705 ; 3.07047418130046E8 ; 3.305018908129459E8 ; 0.0
48 ; 6819251.67906343 ; 7031955.123679705 ; 3.138619539532951E8 ; 3.375338459366256E8 ; 0.0
49 ; 6822620.692549053 ; 7031955.123679705 ; 3.2068120563235855E8 ; 3.445658010603053E8 ; 0.0
50 ; 6824740.167311885 ; 7031955.123679705 ; 3.275038263249076E8 ; 3.51597756183985E8 ; 0.0
51 ; 6826560.463945227 ; 7031955.123679705 ; 3.343285664922195E8 ; 3.586297113076647E8 ; 0.0
52 ; 6827908.218207098 ; 7031955.123679705 ; 3.411551269561647E8 ; 3.656616664313444E8 ; 0.0
53 ; 6828830.238831132 ; 7031955.123679705 ; 3.4798303517437184E8 ; 3.726936215550241E8 ; 0.0
54 ; 6831859.348811487 ; 7031955.123679705 ; 3.5481186541320294E8 ; 3.797255766787038E8 ; 0.0
55 ; 6834274.595203742 ; 7031955.123679705 ; 3.6164372476201445E8 ; 3.867575318023835E8 ; 0.0
56 ; 6834512.02084201 ; 7031955.123679705 ; 3.684779993572182E8 ; 3.937894869260632E8 ; 0.0
57 ; 6835450.844951353 ; 7031955.123679705 ; 3.753125113780602E8 ; 4.008214420497429E8 ; 0.0
58 ; 6836159.582286761 ; 7031955.123679705 ; 3.8214796222301155E8 ; 4.078533971734226E8 ; 0.0
59 ; 6838181.498783951 ; 7031955.123679705 ; 3.889841218052983E8 ; 4.148853522971023E8 ; 0.0
60 ; 6843014.017482377 ; 7031955.123679705 ; 3.958223033040823E8 ; 4.2191730742078197E8 ; 0.0
61 ; 6841479.257526101 ; 7031955.123679705 ; 4.026653173215647E8 ; 4.2894926254446167E8 ; 0.0
62 ; 6842425.991747189 ; 7031955.123679705 ; 4.095067965790908E8 ; 4.3598121766814137E8 ; 0.0
63 ; 6842887.101611246 ; 7031955.123679705 ; 4.16349222570838E8 ; 4.4301317279182106E8 ; 0.0
64 ; 6846432.50848946 ; 7031955.123679705 ; 4.2319210967244923E8 ; 4.5004512791550076E8 ; 0.0
65 ; 6847677.489060389 ; 7031955.123679705 ; 4.300385421809387E8 ; 4.5707708303918046E8 ; 0.0
66 ; 6846713.635976867 ; 7031955.123679705 ; 4.368862196699991E8 ; 4.6410903816286016E8 ; 0.0
67 ; 6848562.502124575 ; 7031955.123679705 ; 4.43732933305976E8 ; 4.7114099328653985E8 ; 0.0
68 ; 6849607.80115773 ; 7031955.123679705 ; 4.505814958081005E8 ; 4.7817294841021955E8 ; 0.0
69 ; 6850958.62318769 ; 7031955.123679705 ; 4.5743110360925823E8 ; 4.8520490353389925E8 ; 0.0
70 ; 6849898.764482318 ; 7031955.123679705 ; 4.642820622324459E8 ; 4.9223685865757895E8 ; 0.0
71 ; 6847675.958801583 ; 7031955.123679705 ; 4.711319609969282E8 ; 4.9926881378125864E8 ; 0.0
72 ; 6849809.303911708 ; 7031955.123679705 ; 4.779796369557298E8 ; 5.0630076890493834E8 ; 0.0
73 ; 6853273.59657627 ; 7031955.123679705 ; 4.8482944625964147E8 ; 5.1333272402861804E8 ; 0.0
74 ; 6850838.463889144 ; 7031955.123679705 ; 4.9168271985621774E8 ; 5.2036467915229774E8 ; 0.0
75 ; 6853396.3558396455 ; 7031955.123679705 ; 4.9853355832010686E8 ; 5.2739663427597743E8 ; 0.0
76 ; 6851507.527700157 ; 7031955.123679705 ; 5.0538695467594653E8 ; 5.3442858939965713E8 ; 0.0
77 ; 6851786.941308422 ; 7031955.123679705 ; 5.122384622036467E8 ; 5.414605445233369E8 ; 0.0
78 ; 6851441.043027185 ; 7031955.123679705 ; 5.1909024914495516E8 ; 5.484924996470166E8 ; 0.0
79 ; 6848964.864224644 ; 7031955.123679705 ; 5.259416901879823E8 ; 5.555244547706964E8 ; 0.0
80 ; 6847617.858723021 ; 7031955.123679705 ; 5.32790655052207E8 ; 5.625564098943762E8 ; 0.0
81 ; 6844128.2975539295 ; 7031955.123679705 ; 5.3963827291093E8 ; 5.695883650180559E8 ; 0.0
82 ; 6842698.643423994 ; 7031955.123679705 ; 5.464824012084839E8 ; 5.766203201417357E8 ; 0.0
83 ; 6840564.816551069 ; 7031955.123679705 ; 5.53325099851908E8 ; 5.836522752654154E8 ; 0.0
84 ; 6837405.591061027 ; 7031955.123679705 ; 5.60165664668459E8 ; 5.906842303890952E8 ; 0.0
85 ; 6835775.290440863 ; 7031955.123679705 ; 5.6700307025952E8 ; 5.97716185512775E8 ; 0.0
86 ; 6831920.860826831 ; 7031955.123679705 ; 5.73838845549961E8 ; 6.047481406364547E8 ; 0.0
87 ; 6830314.534289999 ; 7031955.123679705 ; 5.806707664107878E8 ; 6.117800957601345E8 ; 0.0
88 ; 6829981.535671937 ; 7031955.123679705 ; 5.875010809450778E8 ; 6.188120508838142E8 ; 0.0
89 ; 6823338.098687691 ; 7031955.123679705 ; 5.943310624807497E8 ; 6.25844006007494E8 ; 0.0
90 ; 6824456.3782349685 ; 7031955.123679705 ; 6.011544005794374E8 ; 6.328759611311737E8 ; 0.0
91 ; 6820722.566636138 ; 7031955.123679705 ; 6.079788569576724E8 ; 6.399079162548535E8 ; 0.0
92 ; 6816703.842010024 ; 7031955.123679705 ; 6.147995795243084E8 ; 6.469398713785332E8 ; 0.0
93 ; 6814357.553741882 ; 7031955.123679705 ; 6.216162833663185E8 ; 6.53971826502213E8 ; 0.0
94 ; 6811307.519705523 ; 7031955.123679705 ; 6.284306409200604E8 ; 6.610037816258928E8 ; 0.0
95 ; 6808840.239246052 ; 7031955.123679705 ; 6.352419484397659E8 ; 6.680357367495725E8 ; 0.0
96 ; 6805217.075163551 ; 7031955.123679705 ; 6.42050788679012E8 ; 6.750676918732523E8 ; 0.0
97 ; 6803437.677727279 ; 7031955.123679705 ; 6.488560057541755E8 ; 6.82099646996932E8 ; 0.0
98 ; 6797877.38527845 ; 7031955.123679705 ; 6.556594434319028E8 ; 6.891316021206118E8 ; 0.0
99 ; 6796432.367938993 ; 7031955.123679705 ; 6.624573208171812E8 ; 6.961635572442915E8 ; 0.0
100 ; 6792389.588455643 ; 7031955.123679705 ; 6.692537531851202E8 ; 7.031955123679713E8 ; 0.0
101 ; 6788321.880123341 ; 7031955.123679705 ; 6.760461427735759E8 ; 7.10227467491651E8 ; 0.0
102 ; 6782830.890668707 ; 7031955.123679705 ; 6.828344646536993E8 ; 7.172594226153308E8 ; 0.0
103 ; 6780432.499496881 ; 7031955.123679705 ; 6.89617295544368E8 ; 7.242913777390106E8 ; 0.0
104 ; 6778226.051171311 ; 7031955.123679705 ; 6.96397728043865E8 ; 7.313233328626903E8 ; 0.0
105 ; 6774926.501194441 ; 7031955.123679705 ; 7.031759540950363E8 ; 7.383552879863701E8 ; 0.0
106 ; 6769216.984994733 ; 7031955.123679705 ; 7.099508805962307E8 ; 7.453872431100498E8 ; 0.0
107 ; 6767080.519496227 ; 7031955.123679705 ; 7.167200975812255E8 ; 7.524191982337296E8 ; 0.0
108 ; 6763230.094796863 ; 7031955.123679705 ; 7.234871781007217E8 ; 7.594511533574094E8 ; 0.0
109 ; 6758618.228149073 ; 7031955.123679705 ; 7.302504081955186E8 ; 7.664831084810891E8 ; 0.0
110 ; 6754444.265535503 ; 7031955.123679705 ; 7.370090264236677E8 ; 7.735150636047689E8 ; 0.0
111 ; 6748984.8721812805 ; 7031955.123679705 ; 7.437634706892031E8 ; 7.805470187284486E8 ; 0.0
112 ; 6743638.740884871 ; 7031955.123679705 ; 7.505124555613844E8 ; 7.875789738521284E8 ; 0.0
113 ; 6739132.3835641565 ; 7031955.123679705 ; 7.572560943022693E8 ; 7.946109289758081E8 ; 0.0
114 ; 6738763.558879168 ; 7031955.123679705 ; 7.639952266858335E8 ; 8.016428840994879E8 ; 0.0
115 ; 6731135.451037564 ; 7031955.123679705 ; 7.707339902447126E8 ; 8.086748392231677E8 ; 0.0
116 ; 6727292.1270790035 ; 7031955.123679705 ; 7.774651256957501E8 ; 8.157067943468474E8 ; 0.0
117 ; 6723574.811148211 ; 7031955.123679705 ; 7.841924178228291E8 ; 8.227387494705272E8 ; 0.0
118 ; 6718490.488071449 ; 7031955.123679705 ; 7.909159926339773E8 ; 8.297707045942069E8 ; 0.0
119 ; 6713466.514062146 ; 7031955.123679705 ; 7.976344831220487E8 ; 8.368026597178867E8 ; 0.0
120 ; 6711913.912229509 ; 7031955.123679705 ; 8.043479496361109E8 ; 8.438346148415664E8 ; 0.0
121 ; 6706125.641617699 ; 7031955.123679705 ; 8.110598635483404E8 ; 8.508665699652462E8 ; 0.0
122 ; 6698147.482659462 ; 7031955.123679705 ; 8.177659891899581E8 ; 8.57898525088926E8 ; 0.0
123 ; 6697389.767015743 ; 7031955.123679705 ; 8.244641366726176E8 ; 8.649304802126057E8 ; 0.0
124 ; 6688187.499128748 ; 7031955.123679705 ; 8.311615264396333E8 ; 8.719624353362855E8 ; 0.0
125 ; 6682612.695916138 ; 7031955.123679705 ; 8.37849713938762E8 ; 8.789943904599652E8 ; 0.0
126 ; 6679169.890916388 ; 7031955.123679705 ; 8.445323266346781E8 ; 8.86026345583645E8 ; 0.0
127 ; 6674030.307208384 ; 7031955.123679705 ; 8.512114965255945E8 ; 8.930583007073247E8 ; 0.0
128 ; 6666580.453448855 ; 7031955.123679705 ; 8.578855268328029E8 ; 9.000902558310045E8 ; 0.0
129 ; 6662647.326963096 ; 7031955.123679705 ; 8.645521072862518E8 ; 9.071222109546843E8 ; 0.0
130 ; 6656660.393781152 ; 7031955.123679705 ; 8.712147546132149E8 ; 9.14154166078364E8 ; 0.0
131 ; 6647716.478047213 ; 7031955.123679705 ; 8.77871415006996E8 ; 9.211861212020438E8 ; 0.0
132 ; 6642403.422489557 ; 7031955.123679705 ; 8.845191314850433E8 ; 9.282180763257235E8 ; 0.0
133 ; 6633398.189074836 ; 7031955.123679705 ; 8.911615349075328E8 ; 9.352500314494033E8 ; 0.0
134 ; 6626527.635043776 ; 7031955.123679705 ; 8.977949330966077E8 ; 9.42281986573083E8 ; 0.0
135 ; 6619684.732017534 ; 7031955.123679705 ; 9.044214607316514E8 ; 9.493139416967628E8 ; 0.0
136 ; 6610664.402613293 ; 7031955.123679705 ; 9.11041145463669E8 ; 9.563458968204426E8 ; 0.0
137 ; 6601175.5081534255 ; 7031955.123679705 ; 9.176518098662822E8 ; 9.633778519441223E8 ; 0.0
138 ; 6597002.7290025335 ; 7031955.123679705 ; 9.242529853744357E8 ; 9.704098070678021E8 ; 0.0
139 ; 6588174.29813804 ; 7031955.123679705 ; 9.308499881034381E8 ; 9.774417621914818E8 ; 0.0
140 ; 6579677.849710774 ; 7031955.123679705 ; 9.374381624015762E8 ; 9.844737173151616E8 ; 0.0
141 ; 6571521.897221974 ; 7031955.123679705 ; 9.44017840251287E8 ; 9.915056724388413E8 ; 0.0
142 ; 6562985.463092877 ; 7031955.123679705 ; 9.505893621485089E8 ; 9.985376275625211E8 ; 0.0
143 ; 6556348.215504949 ; 7031955.123679705 ; 9.571523476116018E8 ; 1.0055695826862009E9 ; 0.0
144 ; 6546360.359583455 ; 7031955.123679705 ; 9.637086958271068E8 ; 1.0126015378098806E9 ; 0.0
145 ; 6538968.705554392 ; 7031955.123679705 ; 9.702550561866903E8 ; 1.0196334929335604E9 ; 0.0
146 ; 6534626.747725885 ; 7031955.123679705 ; 9.767940248922447E8 ; 1.0266654480572401E9 ; 0.0
147 ; 6533343.778533714 ; 7031955.123679705 ; 9.833286516399705E8 ; 1.0336974031809199E9 ; 0.0
148 ; 6524097.668156112 ; 7031955.123679705 ; 9.898619954185042E8 ; 1.0407293583045996E9 ; 0.0
149 ; 6519752.018847759 ; 7031955.123679705 ; 9.963860930866604E8 ; 1.0477613134282794E9 ; 0.0
150 ; 6512944.026281607 ; 7031955.123679705 ; 1.0029058451055081E9 ; 1.0547932685519592E9 ; 0.0
151 ; 6504355.9265763275 ; 7031955.123679705 ; 1.0094187891317897E9 ; 1.0618252236756389E9 ; 0.0
152 ; 6501213.10593944 ; 7031955.123679705 ; 1.0159231450583661E9 ; 1.0688571787993187E9 ; 0.0
153 ; 6496437.93524989 ; 7031955.123679705 ; 1.0224243581643054E9 ; 1.0758891339229984E9 ; 0.0
154 ; 6487321.76877968 ; 7031955.123679705 ; 1.0289207960995554E9 ; 1.082921089046678E9 ; 0.0
155 ; 6483788.099755569 ; 7031955.123679705 ; 1.035408117868335E9 ; 1.0899530441703577E9 ; 0.0
156 ; 6476628.42841988 ; 7031955.123679705 ; 1.0418919059680905E9 ; 1.0969849992940373E9 ; 0.0
157 ; 6472355.426976811 ; 7031955.123679705 ; 1.0483685343965104E9 ; 1.104016954417717E9 ; 0.0
158 ; 6463839.634234974 ; 7031955.123679705 ; 1.0548408898234872E9 ; 1.1110489095413966E9 ; 0.0
159 ; 6458400.371358638 ; 7031955.123679705 ; 1.0613047294577222E9 ; 1.1180808646650763E9 ; 0.0
160 ; 6453165.844772443 ; 7031955.123679705 ; 1.0677631298290808E9 ; 1.125112819788756E9 ; 0.0
161 ; 6445977.8908994375 ; 7031955.123679705 ; 1.0742162956738532E9 ; 1.1321447749124355E9 ; 0.0
162 ; 6438705.940223878 ; 7031955.123679705 ; 1.0806622735647526E9 ; 1.1391767300361152E9 ; 0.0
163 ; 6437127.611814068 ; 7031955.123679705 ; 1.0871009795049765E9 ; 1.1462086851597948E9 ; 0.0
164 ; 6426817.050506938 ; 7031955.123679705 ; 1.0935381071167905E9 ; 1.1532406402834744E9 ; 0.0
165 ; 6421392.875846605 ; 7031955.123679705 ; 1.0999649241672974E9 ; 1.160272595407154E9 ; 0.0
166 ; 6416655.435144128 ; 7031955.123679705 ; 1.106386317043144E9 ; 1.1673045505308337E9 ; 0.0
167 ; 6409158.935741354 ; 7031955.123679705 ; 1.1128029724782882E9 ; 1.1743365056545134E9 ; 0.0
168 ; 6402965.434511613 ; 7031955.123679705 ; 1.1192121314140296E9 ; 1.181368460778193E9 ; 0.0
169 ; 6396431.585276214 ; 7031955.123679705 ; 1.1256150968485413E9 ; 1.1884004159018726E9 ; 0.0
170 ; 6390271.029598742 ; 7031955.123679705 ; 1.1320115284338174E9 ; 1.1954323710255523E9 ; 0.0
171 ; 6382599.027691729 ; 7031955.123679705 ; 1.138401799463416E9 ; 1.202464326149232E9 ; 0.0
172 ; 6379057.695247675 ; 7031955.123679705 ; 1.144784398491108E9 ; 1.2094962812729115E9 ; 0.0
173 ; 6371100.201728594 ; 7031955.123679705 ; 1.1511634561863556E9 ; 1.2165282363965912E9 ; 0.0
174 ; 6367889.113212921 ; 7031955.123679705 ; 1.1575345563880842E9 ; 1.2235601915202708E9 ; 0.0
175 ; 6363439.966407128 ; 7031955.123679705 ; 1.163902445501297E9 ; 1.2305921466439505E9 ; 0.0
176 ; 6360786.9540882185 ; 7031955.123679705 ; 1.170265885467704E9 ; 1.23762410176763E9 ; 0.0
177 ; 6355871.162401702 ; 7031955.123679705 ; 1.1766266724217923E9 ; 1.2446560568913097E9 ; 0.0
178 ; 6352694.978285674 ; 7031955.123679705 ; 1.182982543584194E9 ; 1.2516880120149894E9 ; 0.0
179 ; 6349082.03155262 ; 7031955.123679705 ; 1.1893352385624797E9 ; 1.258719967138669E9 ; 0.0
180 ; 6347275.92020775 ; 7031955.123679705 ; 1.1956843205940323E9 ; 1.2657519222623487E9 ; 0.0
181 ; 6343097.576881783 ; 7031955.123679705 ; 1.20203159651424E9 ; 1.2727838773860283E9 ; 0.0
182 ; 6336481.726415553 ; 7031955.123679705 ; 1.208374694091122E9 ; 1.279815832509708E9 ; 0.0
183 ; 6332733.964698777 ; 7031955.123679705 ; 1.2147111758175375E9 ; 1.2868477876333876E9 ; 0.0
184 ; 6331838.025963994 ; 7031955.123679705 ; 1.2210439097822363E9 ; 1.2938797427570672E9 ; 0.0
185 ; 6327490.084590934 ; 7031955.123679705 ; 1.2273757478082004E9 ; 1.3009116978807468E9 ; 0.0
186 ; 6323038.430669031 ; 7031955.123679705 ; 1.2337032378927913E9 ; 1.3079436530044265E9 ; 0.0
187 ; 6317184.265757122 ; 7031955.123679705 ; 1.2400262763234603E9 ; 1.314975608128106E9 ; 0.0
188 ; 6315705.679780415 ; 7031955.123679705 ; 1.2463434605892174E9 ; 1.3220075632517858E9 ; 0.0
189 ; 6313052.117860512 ; 7031955.123679705 ; 1.252659166268998E9 ; 1.3290395183754654E9 ; 0.0
190 ; 6308906.471201786 ; 7031955.123679705 ; 1.2589722183868585E9 ; 1.336071473499145E9 ; 0.0
191 ; 6304034.711040357 ; 7031955.123679705 ; 1.2652811248580604E9 ; 1.3431034286228247E9 ; 0.0
192 ; 6299793.366725688 ; 7031955.123679705 ; 1.2715851595691006E9 ; 1.3501353837465043E9 ; 0.0
193 ; 6297045.874350656 ; 7031955.123679705 ; 1.2778849529358263E9 ; 1.357167338870184E9 ; 0.0
194 ; 6293300.891010025 ; 7031955.123679705 ; 1.2841819988101768E9 ; 1.3641992939938636E9 ; 0.0
195 ; 6290267.381934639 ; 7031955.123679705 ; 1.290475299701187E9 ; 1.3712312491175432E9 ; 0.0
196 ; 6288311.554239888 ; 7031955.123679705 ; 1.2967655670831215E9 ; 1.3782632042412229E9 ; 0.0
197 ; 6281163.699513359 ; 7031955.123679705 ; 1.3030538786373615E9 ; 1.3852951593649025E9 ; 0.0
198 ; 6279208.359728645 ; 7031955.123679705 ; 1.309335042336875E9 ; 1.3923271144885821E9 ; 0.0
199 ; 6275676.46141964 ; 7031955.123679705 ; 1.3156142506966035E9 ; 1.3993590696122618E9 ; 0.0
200 ; 6271371.55517815 ; 7031955.123679705 ; 1.321889927158023E9 ; 1.4063910247359414E9 ; 0.0
201 ; 6268879.027724366 ; 7031955.123679705 ; 1.3281612987132013E9 ; 1.413422979859621E9 ; 0.0
202 ; 6263622.569865756 ; 7031955.123679705 ; 1.3344301777409256E9 ; 1.4204549349833007E9 ; 0.0
203 ; 6260647.016070836 ; 7031955.123679705 ; 1.3406938003107913E9 ; 1.4274868901069803E9 ; 0.0
204 ; 6254222.83629904 ; 7031955.123679705 ; 1.346954447326862E9 ; 1.43451884523066E9 ; 0.0
205 ; 6251984.219413438 ; 7031955.123679705 ; 1.353208670163161E9 ; 1.4415508003543396E9 ; 0.0
206 ; 6249583.825193211 ; 7031955.123679705 ; 1.3594606543825746E9 ; 1.4485827554780192E9 ; 0.0
207 ; 6247339.732599383 ; 7031955.123679705 ; 1.3657102382077677E9 ; 1.4556147106016989E9 ; 0.0
208 ; 6241389.383620698 ; 7031955.123679705 ; 1.3719575779403672E9 ; 1.4626466657253785E9 ; 0.0
