CSV File for the City 4 on Day 313
1 - Minute m 
2 - Power Consumed at minute m 
3 - Power Produced at minute m 
4 - Energy Consumed since the beginning of the day 
5 - Energy Produced since the beginning of the day 
6 - Energy Lost since the beginning of the day on lines starting from the city
 
0 ; 6901997.24716566 ; 1.0690739016806331E8 ; 0.0 ; 0.0 ; 0.0
1 ; 6909977.647778634 ; 1.070576646597873E8 ; 6901997.24716566 ; 1.0690739016806331E8 ; 0.0
2 ; 6916440.16123054 ; 1.0751699825932679E8 ; 1.3811974894944295E7 ; 2.139650548278506E8 ; 0.0
3 ; 6925390.658597267 ; 1.0828539386136693E8 ; 2.0728415056174837E7 ; 3.214820530871774E8 ; 0.0
4 ; 6937330.90534842 ; 1.0936285404531288E8 ; 2.7653805714772105E7 ; 4.297674469485443E8 ; 0.0
5 ; 6949681.432077432 ; 1.107493810660674E8 ; 3.4591136620120525E7 ; 5.391303009938571E8 ; 0.0
6 ; 6962598.845317079 ; 1.1244497684587106E8 ; 4.1540818052197956E7 ; 6.498796820599246E8 ; 0.0
7 ; 6992828.462156443 ; 1.1444964296727443E8 ; 4.8503416897515036E7 ; 7.623246589057957E8 ; 0.0
8 ; 7021828.952775844 ; 1.1676338066730165E8 ; 5.549624535967148E7 ; 8.767743018730701E8 ; 0.0
9 ; 7073581.932042496 ; 1.1938619083285785E8 ; 6.2518074312447324E7 ; 9.935376825403718E8 ; 0.0
10 ; 7154408.072459883 ; 1.2231807399741828E8 ; 6.959165624448982E7 ; 1.1129238733732295E9 ; 0.0
11 ; 7276300.416638855 ; 1.2555903033903071E8 ; 7.67460643169497E7 ; 1.235241947370648E9 ; 0.0
12 ; 7479600.080743667 ; 1.2910905967964736E8 ; 8.402236473358855E7 ; 1.3608009777096786E9 ; 0.0
13 ; 7663642.096960234 ; 1.3296816148579293E8 ; 9.150196481433222E7 ; 1.489910037389326E9 ; 0.0
14 ; 7688256.978749189 ; 1.3713633487056243E8 ; 9.916560691129245E7 ; 1.622878198875119E9 ; 0.0
15 ; 7697260.385972881 ; 1.4161357859693158E8 ; 1.0685386389004163E8 ; 1.7600145337456813E9 ; 0.0
16 ; 7707767.157644257 ; 1.4639989108234993E8 ; 1.1455112427601452E8 ; 1.9016281123426127E9 ; 0.0
17 ; 7716318.614069693 ; 1.514952704045768E8 ; 1.2225889143365878E8 ; 2.0480280034249628E9 ; 0.0
18 ; 7729122.05476145 ; 1.568997143087095E8 ; 1.2997521004772848E8 ; 2.19952327382954E9 ; 0.0
19 ; 7733998.802051713 ; 1.6261322021534285E8 ; 1.3770433210248992E8 ; 2.3564229881382494E9 ; 0.0
20 ; 7744921.215689689 ; 1.6863578522979167E8 ; 1.4543833090454164E8 ; 2.5190362083535924E9 ; 0.0
21 ; 7752063.248515228 ; 1.7496740615229926E8 ; 1.5318325212023133E8 ; 2.687671993583384E9 ; 0.0
22 ; 7764950.754589743 ; 1.8160807948914856E8 ; 1.6093531536874655E8 ; 2.8626393997356834E9 ; 0.0
23 ; 7775053.227829961 ; 1.885578014645877E8 ; 1.687002661233363E8 ; 3.044247479224832E9 ; 0.0
24 ; 7783220.039696133 ; 1.9581656803347683E8 ; 1.7647531935116625E8 ; 3.2328052806894197E9 ; 0.0
25 ; 7791821.343037456 ; 2.0207241579274467E8 ; 1.8425853939086238E8 ; 3.4286218487228966E9 ; 0.0
26 ; 7801974.738842164 ; 2.0207888803208596E8 ; 1.9205036073389983E8 ; 3.630694264515641E9 ; 0.0
27 ; 7812470.105068675 ; 2.0208574927309713E8 ; 1.99852335472742E8 ; 3.832773152547727E9 ; 0.0
28 ; 7820627.073365392 ; 2.0209299453061536E8 ; 2.0766480557781067E8 ; 4.034858901820824E9 ; 0.0
29 ; 7831575.882462261 ; 2.0210061862076902E8 ; 2.1548543265117607E8 ; 4.2369518963514395E9 ; 0.0
30 ; 7840369.805775479 ; 2.021086161759288E8 ; 2.2331700853363833E8 ; 4.439052514972208E9 ; 0.0
31 ; 7845670.455816086 ; 2.0211698165971604E8 ; 2.3115737833941382E8 ; 4.641161131148137E9 ; 0.0
32 ; 7856264.247656002 ; 2.0212570938198334E8 ; 2.390030487952299E8 ; 4.843278112807853E9 ; 0.0
33 ; 7867554.906746714 ; 2.021347935136875E8 ; 2.468593130428859E8 ; 5.0454038221898365E9 ; 0.0
34 ; 7873214.192929434 ; 2.021442281015812E8 ; 2.547268679496326E8 ; 5.247538615703524E9 ; 0.0
35 ; 7881226.514430742 ; 2.0215400708265454E8 ; 2.6260008214256206E8 ; 5.449682843805105E9 ; 0.0
36 ; 7889230.445231386 ; 2.0216412429826486E8 ; 2.704813086569928E8 ; 5.65183685088776E9 ; 0.0
37 ; 7896165.236534453 ; 2.0217457350789878E8 ; 2.783705391022242E8 ; 5.854000975186025E9 ; 0.0
38 ; 7904596.298076934 ; 2.0218534840251774E8 ; 2.8626670433875865E8 ; 6.056175548693923E9 ; 0.0
39 ; 7908267.267167962 ; 2.0219644261744416E8 ; 2.941713006368356E8 ; 6.25836089709644E9 ; 0.0
40 ; 7915089.217356623 ; 2.022078497447521E8 ; 3.0207956790400356E8 ; 6.460557339713884E9 ; 0.0
41 ; 7921998.608300205 ; 2.0221956334513244E8 ; 3.099946571213602E8 ; 6.662765189458636E9 ; 0.0
42 ; 7927523.858914618 ; 2.0223157695920822E8 ; 3.179166557296604E8 ; 6.864984752803769E9 ; 0.0
43 ; 7936441.603404774 ; 2.0224388411828253E8 ; 3.25844179588575E8 ; 7.067216329762978E9 ; 0.0
44 ; 7937668.70008819 ; 2.0225647835450548E8 ; 3.3378062119197977E8 ; 7.26946021388126E9 ; 0.0
45 ; 7945882.486099165 ; 2.0226935321045238E8 ; 3.4171828989206797E8 ; 7.471716692235765E9 ; 0.0
46 ; 7950448.76400318 ; 2.0228250224811032E8 ; 3.4966417237816715E8 ; 7.673986045446218E9 ; 0.0
47 ; 7952986.2331380565 ; 2.022959190572735E8 ; 3.576146211421703E8 ; 7.876268547694328E9 ; 0.0
48 ; 7958179.441788574 ; 2.0230959726335266E8 ; 3.655676073753084E8 ; 8.078564466751602E9 ; 0.0
49 ; 7963194.903043793 ; 2.0232353053460622E8 ; 3.7352578681709695E8 ; 8.280874064014955E9 ; 0.0
50 ; 7963702.059094198 ; 2.023377125888049E8 ; 3.8148898172014076E8 ; 8.483197594549561E9 ; 0.0
51 ; 7967667.350664123 ; 2.0235213719934323E8 ; 3.8945268377923495E8 ; 8.685535307138365E9 ; 0.0
52 ; 7972996.806160456 ; 2.0236679820081398E8 ; 3.974203511298991E8 ; 8.887887444337708E9 ; 0.0
53 ; 7975838.72984007 ; 2.0238168949406344E8 ; 4.0539334793605953E8 ; 9.09025424253852E9 ; 0.0
54 ; 7978295.009686201 ; 2.0239680505074722E8 ; 4.1336918666589963E8 ; 9.292635932032585E9 ; 0.0
55 ; 7981382.746615071 ; 2.0241213891740662E8 ; 4.213474816755858E8 ; 9.495032737083332E9 ; 0.0
56 ; 7982631.4003523225 ; 2.024276852190875E8 ; 4.2932886442220086E8 ; 9.697444876000738E9 ; 0.0
57 ; 7986490.782551303 ; 2.0244343816252396E8 ; 4.3731149582255316E8 ; 9.899872561219826E9 ; 0.0
58 ; 7990033.932831783 ; 2.0245939203890872E8 ; 4.4529798660510445E8 ; 1.0102315999382349E10 ; 0.0
59 ; 7992712.338568188 ; 2.0247554122627386E8 ; 4.532880205379362E8 ; 1.0304775391421257E10 ; 0.0
60 ; 7994642.100205261 ; 2.024918801915039E8 ; 4.612807328765044E8 ; 1.0507250932647532E10 ; 0.0
61 ; 7995253.747311302 ; 2.0250840349200436E8 ; 4.6927537497670966E8 ; 1.0709742812839035E10 ; 0.0
62 ; 7997045.25069948 ; 2.0252510577704778E8 ; 4.7727062872402096E8 ; 1.091225121633104E10 ; 0.0
63 ; 8000686.756042599 ; 2.0254198178881902E8 ; 4.852676739747204E8 ; 1.1114776322108088E10 ; 0.0
64 ; 8002545.760612709 ; 2.025590263631813E8 ; 4.93268360730763E8 ; 1.1317318303896906E10 ; 0.0
65 ; 8005808.734935897 ; 2.0257623443018335E8 ; 5.0127090649137574E8 ; 1.1519877330260088E10 ; 0.0
66 ; 8009535.569048254 ; 2.0259360101432794E8 ; 5.092767152263116E8 ; 1.1722453564690271E10 ; 0.0
67 ; 8012700.482430663 ; 2.0261112123462054E8 ; 5.1728625079535985E8 ; 1.19250471657046E10 ; 0.0
68 ; 8011584.874418477 ; 2.026287903044166E8 ; 5.252989512777905E8 ; 1.212765828693922E10 ; 0.0
69 ; 8011929.2919587195 ; 2.0264660353108522E8 ; 5.33310536152209E8 ; 1.2330287077243637E10 ; 0.0
70 ; 8017605.510639401 ; 2.0266455631550556E8 ; 5.413224654441677E8 ; 1.2532933680774723E10 ; 0.0
71 ; 8017792.132050816 ; 2.0268264415141162E8 ; 5.493400709548072E8 ; 1.2735598237090229E10 ; 0.0
72 ; 8018355.9435827155 ; 2.0270086262460083E8 ; 5.57357863086858E8 ; 1.293828088124164E10 ; 0.0
73 ; 8021177.019390417 ; 2.0271920741202E8 ; 5.653762190304408E8 ; 1.3140981743866241E10 ; 0.0
74 ; 8021811.73813077 ; 2.0273767428074226E8 ; 5.733973960498313E8 ; 1.3343700951278261E10 ; 0.0
75 ; 8027017.954121229 ; 2.0275625908684677E8 ; 5.814192077879621E8 ; 1.3546438625559004E10 ; 0.0
76 ; 8026551.022107974 ; 2.0277495777421343E8 ; 5.894462257420833E8 ; 1.3749194884645851E10 ; 0.0
77 ; 8026813.6673503285 ; 2.0279376637324294E8 ; 5.974727767641913E8 ; 1.3951969842420065E10 ; 0.0
78 ; 8023524.628818117 ; 2.0281268099951234E8 ; 6.054995904315416E8 ; 1.4154763608793308E10 ; 0.0
79 ; 8016757.305633739 ; 2.028316978523753E8 ; 6.135231150603597E8 ; 1.435757628979282E10 ; 0.0
80 ; 8002036.015894548 ; 2.0285081321351576E8 ; 6.215398723659935E8 ; 1.4560407987645195E10 ; 0.0
81 ; 7992719.199673563 ; 2.0287002344546297E8 ; 6.29541908381888E8 ; 1.4763258800858711E10 ; 0.0
82 ; 7984695.063202126 ; 2.0288932499007487E8 ; 6.375346275815616E8 ; 1.4966128824304174E10 ; 0.0
83 ; 7972380.079686931 ; 2.0290871436699694E8 ; 6.455193226447637E8 ; 1.5169018149294249E10 ; 0.0
84 ; 7961829.813205078 ; 2.029281881721023E8 ; 6.534917027244506E8 ; 1.5371926863661245E10 ; 0.0
85 ; 7953298.051139419 ; 2.0294774307591897E8 ; 6.614535325376557E8 ; 1.5574855051833347E10 ; 0.0
86 ; 7938578.753118221 ; 2.02967375822049E8 ; 6.694068305887952E8 ; 1.5777802794909266E10 ; 0.0
87 ; 7928135.310394844 ; 2.029870832255844E8 ; 6.773454093419135E8 ; 1.5980770170731314E10 ; 0.0
88 ; 7917700.823643357 ; 2.03006862171524E8 ; 6.852735446523083E8 ; 1.6183757253956898E10 ; 0.0
89 ; 7906749.572280034 ; 2.0302670961319482E8 ; 6.931912454759517E8 ; 1.6386764116128422E10 ; 0.0
90 ; 7897744.60476474 ; 2.0304662257068157E8 ; 7.010979950482317E8 ; 1.6589790825741617E10 ; 0.0
91 ; 7886406.459233634 ; 2.0306659812926722E8 ; 7.089957396529964E8 ; 1.6792837448312298E10 ; 0.0
92 ; 7876526.0041702995 ; 2.0308663343788722E8 ; 7.168821461122301E8 ; 1.6995904046441565E10 ; 0.0
93 ; 7864432.379708268 ; 2.0310672570759994E8 ; 7.247586721164004E8 ; 1.719899067987945E10 ; 0.0
94 ; 7853033.51372329 ; 2.031268722100754E8 ; 7.326231044961087E8 ; 1.740209740558705E10 ; 0.0
95 ; 7841084.075782073 ; 2.0314707027610415E8 ; 7.404761380098319E8 ; 1.7605224277797127E10 ; 0.0
96 ; 7831425.9222715525 ; 2.0316731729412752E8 ; 7.48317222085614E8 ; 1.780837134807323E10 ; 0.0
97 ; 7820896.079274156 ; 2.0318761070879158E8 ; 7.561486480078856E8 ; 1.801153866536736E10 ; 0.0
98 ; 7812734.053753843 ; 2.0320794801952472E8 ; 7.639695440871598E8 ; 1.821472627607615E10 ; 0.0
99 ; 7799084.818122281 ; 2.03228326779141E8 ; 7.717822781409136E8 ; 1.8417934224095673E10 ; 0.0
100 ; 7783762.927852522 ; 2.032487445924694E8 ; 7.795813629590359E8 ; 1.8621162550874813E10 ; 0.0
101 ; 7773241.583540937 ; 2.0326919911500987E8 ; 7.873651258868884E8 ; 1.882441129546728E10 ; 0.0
102 ; 7764573.486843305 ; 2.0328968805161673E8 ; 7.951383674704293E8 ; 1.902768049458229E10 ; 0.0
103 ; 7751836.042355772 ; 2.0331020915520972E8 ; 8.029029409572726E8 ; 1.9230970182633907E10 ; 0.0
104 ; 7741064.987375177 ; 2.0333076022551325E8 ; 8.106547769996284E8 ; 1.9434280391789116E10 ; 0.0
105 ; 7729168.984214146 ; 2.0335133910782352E8 ; 8.183958419870036E8 ; 1.963761115201463E10 ; 0.0
106 ; 7716147.097892138 ; 2.033719436918044E8 ; 8.261250109712178E8 ; 1.984096249112245E10 ; 0.0
107 ; 7706219.564933932 ; 2.0339257191031113E8 ; 8.338411580691099E8 ; 2.0044334434814255E10 ; 0.0
108 ; 7692592.947879667 ; 2.0341322173824257E8 ; 8.415473776340438E8 ; 2.0247727006724567E10 ; 0.0
109 ; 7681861.971757894 ; 2.0343389119142142E8 ; 8.492399705819235E8 ; 2.045114022846281E10 ; 0.0
110 ; 7668998.634674838 ; 2.034545783255025E8 ; 8.569218325536814E8 ; 2.0654574119654232E10 ; 0.0
111 ; 7657675.230897618 ; 2.0347528123490846E8 ; 8.645908311883562E8 ; 2.0858028697979736E10 ; 0.0
112 ; 7645206.27849366 ; 2.0349599805179298E8 ; 8.722485064192538E8 ; 2.1061503979214645E10 ; 0.0
113 ; 7630030.328006937 ; 2.0351672694503102E8 ; 8.798937126977475E8 ; 2.1264999977266438E10 ; 0.0
114 ; 7619143.416869828 ; 2.0353746611923578E8 ; 8.875237430257545E8 ; 2.1468516704211468E10 ; 0.0
115 ; 7606156.9536172 ; 2.0355821381380185E8 ; 8.951428864426243E8 ; 2.1672054170330704E10 ; 0.0
116 ; 7595820.617844821 ; 2.0357896830197403E8 ; 9.027490433962415E8 ; 2.1875612384144505E10 ; 0.0
117 ; 7583578.546524275 ; 2.03599727889942E8 ; 9.103448640140864E8 ; 2.207919135244648E10 ; 0.0
118 ; 7571051.459314484 ; 2.0362049091595936E8 ; 9.179284425606107E8 ; 2.2282791080336422E10 ; 0.0
119 ; 7557586.921979908 ; 2.0364125574948758E8 ; 9.254994940199251E8 ; 2.248641157125238E10 ; 0.0
120 ; 7547596.738687029 ; 2.0366202079036358E8 ; 9.33057080941905E8 ; 2.269005282700187E10 ; 0.0
121 ; 7531608.167567876 ; 2.036827844679909E8 ; 9.406046776805921E8 ; 2.2893714847792233E10 ; 0.0
122 ; 7518805.735181161 ; 2.037035452405537E8 ; 9.481362858481599E8 ; 2.3097397632260223E10 ; 0.0
123 ; 7504960.7020590855 ; 2.0372430159425336E8 ; 9.556550915833411E8 ; 2.330110117750078E10 ; 0.0
124 ; 7492349.820706004 ; 2.037450520425667E8 ; 9.631600522854002E8 ; 2.350482547909503E10 ; 0.0
125 ; 7477570.946575933 ; 2.0376579512552583E8 ; 9.706524021061062E8 ; 2.37085705311376E10 ; 0.0
126 ; 7467420.4859962 ; 2.0378652940901867E8 ; 9.78129973052682E8 ; 2.3912336326263126E10 ; 0.0
127 ; 7455064.994141965 ; 2.038072534841099E8 ; 9.855973935386783E8 ; 2.4116122855672146E10 ; 0.0
128 ; 7437504.204610106 ; 2.038279659663817E8 ; 9.930524585328202E8 ; 2.4319930109156258E10 ; 0.0
129 ; 7427930.504539497 ; 2.0384866549529377E8 ; 1.0004899627374303E9 ; 2.452375807512264E10 ; 0.0
130 ; 7412101.124769362 ; 2.0386935073356226E8 ; 1.0079178932419698E9 ; 2.472760674061793E10 ; 0.0
131 ; 7398470.402799337 ; 2.0389002036655685E8 ; 1.0153299943667392E9 ; 2.4931476091351494E10 ; 0.0
132 ; 7381848.367448538 ; 2.0391067310171568E8 ; 1.0227284647695385E9 ; 2.5135366111718052E10 ; 0.0
133 ; 7366255.642084727 ; 2.039313076679778E8 ; 1.0301103131369871E9 ; 2.5339276784819767E10 ; 0.0
134 ; 7348368.915751407 ; 2.0395192281523207E8 ; 1.0374765687790718E9 ; 2.5543208092487743E10 ; 0.0
135 ; 7333637.47424293 ; 2.0397251731378278E8 ; 1.0448249376948233E9 ; 2.5747160015302975E10 ; 0.0
136 ; 7317043.996582497 ; 2.0399308995383117E8 ; 1.0521585751690662E9 ; 2.5951132532616756E10 ; 0.0
137 ; 7301051.885225885 ; 2.0401363954497206E8 ; 1.0594756191656487E9 ; 2.6155125622570587E10 ; 0.0
138 ; 7287625.253427673 ; 2.040341649157059E8 ; 1.0667766710508746E9 ; 2.635913926211556E10 ; 0.0
139 ; 7269898.135906701 ; 2.0405466491296524E8 ; 1.0740642963043022E9 ; 2.6563173427031265E10 ; 0.0
140 ; 7252134.180316015 ; 2.0407513840165532E8 ; 1.081334194440209E9 ; 2.676722809194423E10 ; 0.0
141 ; 7234504.221064585 ; 2.040955842642085E8 ; 1.088586328620525E9 ; 2.6971303230345886E10 ; 0.0
142 ; 7220046.001335527 ; 2.0411600140015188E8 ; 1.0958208328415895E9 ; 2.7175398814610096E10 ; 0.0
143 ; 7203963.566476759 ; 2.041363887256881E8 ; 1.103040878842925E9 ; 2.7379514816010246E10 ; 0.0
144 ; 7187247.869150833 ; 2.0415674517328843E8 ; 1.110244842409402E9 ; 2.7583651204735935E10 ; 0.0
145 ; 7175007.953772344 ; 2.0417706969129837E8 ; 1.1174320902785528E9 ; 2.7787807949909225E10 ; 0.0
146 ; 7158441.8854089705 ; 2.0419736124355462E8 ; 1.124607098232325E9 ; 2.7991985019600525E10 ; 0.0
147 ; 7147114.341452096 ; 2.042176188090141E8 ; 1.131765540117734E9 ; 2.8196182380844078E10 ; 0.0
148 ; 7132163.5917567285 ; 2.042378413813935E8 ; 1.138912654459186E9 ; 2.840039999965309E10 ; 0.0
149 ; 7117700.498156817 ; 2.0425802796881995E8 ; 1.146044818050943E9 ; 2.8604637841034485E10 ; 0.0
150 ; 7105729.802408824 ; 2.0427817759349224E8 ; 1.1531625185490997E9 ; 2.8808895869003304E10 ; 0.0
151 ; 7091162.469745202 ; 2.042982892913518E8 ; 1.1602682483515086E9 ; 2.9013174046596794E10 ; 0.0
152 ; 7075331.007905775 ; 2.0431836211176378E8 ; 1.1673594108212538E9 ; 2.9217472335888145E10 ; 0.0
153 ; 7062637.649429003 ; 2.043383951172077E8 ; 1.1744347418291595E9 ; 2.942179069799991E10 ; 0.0
154 ; 7049223.981319249 ; 2.043583873829771E8 ; 1.1814973794785886E9 ; 2.9626129093117115E10 ; 0.0
155 ; 7038379.600492097 ; 2.0437833799688828E8 ; 1.1885466034599078E9 ; 2.983048748050009E10 ; 0.0
156 ; 7021614.359977593 ; 2.043982460589978E8 ; 1.1955849830603998E9 ; 3.003486581849698E10 ; 0.0
157 ; 7007266.648067514 ; 2.044181106813283E8 ; 1.2026065974203773E9 ; 3.0239264064555977E10 ; 0.0
158 ; 6992401.772264354 ; 2.0443793098760226E8 ; 1.2096138640684447E9 ; 3.0443682175237305E10 ; 0.0
159 ; 6982359.3294766 ; 2.0445770611298415E8 ; 1.216606265840709E9 ; 3.0648120106224907E10 ; 0.0
160 ; 6967609.963150913 ; 2.0447743520382974E8 ; 1.2235886251701856E9 ; 3.085257781233789E10 ; 0.0
161 ; 6952191.415977895 ; 2.0449711741744313E8 ; 1.2305562351333365E9 ; 3.105705524754172E10 ; 0.0
162 ; 6935747.118773582 ; 2.045167519218409E8 ; 1.2375084265493145E9 ; 3.1261552364959164E10 ; 0.0
163 ; 6923441.281851608 ; 2.0453633789552322E8 ; 1.2444441736680882E9 ; 3.1466069116881004E10 ; 0.0
164 ; 6909133.475151572 ; 2.045558745272515E8 ; 1.2513676149499397E9 ; 3.1670605454776527E10 ; 0.0
165 ; 6896158.429381114 ; 2.0457536101583317E8 ; 1.2582767484250913E9 ; 3.187516132930378E10 ; 0.0
166 ; 6878990.111907921 ; 2.0459479656991208E8 ; 1.2651729068544724E9 ; 3.2079736690319614E10 ; 0.0
167 ; 6865063.014829835 ; 2.0461418040776554E8 ; 1.2720518969663804E9 ; 3.2284331486889526E10 ; 0.0
168 ; 6854481.844355891 ; 2.0463351175710717E8 ; 1.2789169599812102E9 ; 3.248894566729729E10 ; 0.0
169 ; 6837060.786573677 ; 2.0465278985489553E8 ; 1.285771441825566E9 ; 3.2693579179054398E10 ; 0.0
170 ; 6823963.1336500645 ; 2.046720139471483E8 ; 1.2926085026121397E9 ; 3.2898231968909294E10 ; 0.0
171 ; 6809745.983434544 ; 2.0469118328876194E8 ; 1.2994324657457898E9 ; 3.310290398285644E10 ; 0.0
172 ; 6793922.203379416 ; 2.047E8 ; 1.3062422117292242E9 ; 3.3307595166145203E10 ; 0.0
173 ; 6780677.311697864 ; 2.047E8 ; 1.3130361339326036E9 ; 3.3512295166145203E10 ; 0.0
174 ; 6767726.012133319 ; 2.047E8 ; 1.3198168112443016E9 ; 3.3716995166145203E10 ; 0.0
175 ; 6757900.068187745 ; 2.047E8 ; 1.326584537256435E9 ; 3.3921695166145203E10 ; 0.0
176 ; 6743238.274311114 ; 2.047E8 ; 1.3333424373246226E9 ; 3.4126395166145203E10 ; 0.0
177 ; 6731817.392483356 ; 2.047E8 ; 1.3400856755989337E9 ; 3.4331095166145203E10 ; 0.0
178 ; 6717301.887594812 ; 2.047E8 ; 1.3468174929914172E9 ; 3.45357951661452E10 ; 0.0
179 ; 6705109.841191569 ; 2.047E8 ; 1.3535347948790119E9 ; 3.47404951661452E10 ; 0.0
180 ; 6692169.923337956 ; 2.047E8 ; 1.3602399047202034E9 ; 3.49451951661452E10 ; 0.0
181 ; 6682335.417704528 ; 2.047E8 ; 1.3669320746435413E9 ; 3.51498951661452E10 ; 0.0
182 ; 6670264.236223989 ; 2.047E8 ; 1.373614410061246E9 ; 3.53545951661452E10 ; 0.0
183 ; 6660271.1221467415 ; 2.047E8 ; 1.3802846742974699E9 ; 3.55592951661452E10 ; 0.0
184 ; 6644125.5356867695 ; 2.047E8 ; 1.3869449454196167E9 ; 3.57639951661452E10 ; 0.0
185 ; 6631234.977972491 ; 2.047E8 ; 1.3935890709553034E9 ; 3.59686951661452E10 ; 0.0
186 ; 6620481.103822315 ; 2.047E8 ; 1.400220305933276E9 ; 3.61733951661452E10 ; 0.0
187 ; 6608091.215560043 ; 2.047E8 ; 1.4068407870370982E9 ; 3.63780951661452E10 ; 0.0
188 ; 6594373.897003481 ; 2.047E8 ; 1.4134488782526581E9 ; 3.65827951661452E10 ; 0.0
189 ; 6584022.410704875 ; 2.047E8 ; 1.4200432521496615E9 ; 3.67874951661452E10 ; 0.0
190 ; 6571710.602554662 ; 2.047E8 ; 1.4266272745603664E9 ; 3.69921951661452E10 ; 0.0
191 ; 6560691.874150988 ; 2.047E8 ; 1.433198985162921E9 ; 3.71968951661452E10 ; 0.0
192 ; 6548309.638593251 ; 2.047E8 ; 1.439759677037072E9 ; 3.74015951661452E10 ; 0.0
193 ; 6534932.9899265235 ; 2.047E8 ; 1.4463079866756651E9 ; 3.76062951661452E10 ; 0.0
194 ; 6523960.859527487 ; 2.047E8 ; 1.4528429196655917E9 ; 3.78109951661452E10 ; 0.0
195 ; 6509147.546826743 ; 2.047E8 ; 1.4593668805251193E9 ; 3.80156951661452E10 ; 0.0
196 ; 6499135.15043009 ; 2.047E8 ; 1.4658760280719461E9 ; 3.82203951661452E10 ; 0.0
197 ; 6485102.920744732 ; 2.047E8 ; 1.4723751632223763E9 ; 3.84250951661452E10 ; 0.0
198 ; 6473001.936554322 ; 2.047E8 ; 1.478860266143121E9 ; 3.86297951661452E10 ; 0.0
199 ; 6462338.281420271 ; 1.7233241156815514E8 ; 1.4853332680796754E9 ; 3.88344951661452E10 ; 0.0
200 ; 6446435.179734436 ; 1.5620807492166224E8 ; 1.4917956063610957E9 ; 3.9006827577713356E10 ; 0.0
201 ; 6433648.348820683 ; 1.5586000678114402E8 ; 1.4982420415408301E9 ; 3.916303565263502E10 ; 0.0
202 ; 6423203.471724198 ; 1.555127382774142E8 ; 1.5046756898896508E9 ; 3.931889565941616E10 ; 0.0
203 ; 6410886.636013282 ; 1.5516626757342157E8 ; 1.511098893361375E9 ; 3.947440839769357E10 ; 0.0
204 ; 6399026.632623652 ; 1.548205928363353E8 ; 1.5175097799973884E9 ; 3.9629574665267E10 ; 0.0
