CSV File for the City 4 on Day 237
1 - Minute m 
2 - Power Consumed at minute m 
3 - Power Produced at minute m 
4 - Energy Consumed since the beginning of the day 
5 - Energy Produced since the beginning of the day 
6 - Energy Lost since the beginning of the day on lines starting from the city
 
0 ; 836470.9671611607 ; 1.054217576417068E8 ; 0.0 ; 0.0 ; 0.0
1 ; 843202.9368751051 ; 1.0556712293155056E8 ; 836470.9671611607 ; 1.054217576417068E8 ; 0.0
2 ; 853440.7630931603 ; 1.0602179155374578E8 ; 1679673.9040362658 ; 2.1098888057325736E8 ; 0.0
3 ; 858632.3979408666 ; 1.0678583403048527E8 ; 2533114.6671294263 ; 3.1701067212700313E8 ; 0.0
4 ; 869192.9442443107 ; 1.0785932353312981E8 ; 3391747.065070293 ; 4.237965061574884E8 ; 0.0
5 ; 885122.2724451404 ; 1.0924233380521011E8 ; 4260940.009314604 ; 5.316558296906182E8 ; 0.0
6 ; 899933.3557413226 ; 1.1093493640261093E8 ; 5146062.2817597445 ; 6.408981634958284E8 ; 0.0
7 ; 924244.5744154173 ; 1.129371973406508E8 ; 6045995.6375010675 ; 7.518330998984393E8 ; 0.0
8 ; 955682.5758222817 ; 1.1524917338415545E8 ; 6970240.211916485 ; 8.647702972390901E8 ; 0.0
9 ; 1007486.0414085042 ; 1.178709083667326E8 ; 7925922.7877387665 ; 9.800194706232455E8 ; 0.0
10 ; 1086754.5738697741 ; 1.2080243002933526E8 ; 8933408.82914727 ; 1.097890378989978E9 ; 0.0
11 ; 1209449.0201907624 ; 1.2404374787290546E8 ; 1.0020163403017044E7 ; 1.2186928090193133E9 ; 0.0
12 ; 1408002.5026506402 ; 1.2759485239650115E8 ; 1.1229612423207806E7 ; 1.3427365568922188E9 ; 0.0
13 ; 1598237.0996924508 ; 1.314557158591693E8 ; 1.2637614925858447E7 ; 1.47033140928872E9 ; 0.0
14 ; 1621006.4278375788 ; 1.356262944273023E8 ; 1.4235852025550898E7 ; 1.6017871251478891E9 ; 0.0
15 ; 1632129.6490756972 ; 1.401065313360743E8 ; 1.5856858453388477E7 ; 1.7374134195751915E9 ; 0.0
16 ; 1640876.6908791827 ; 1.4489636057016686E8 ; 1.7488988102464173E7 ; 1.8775199509112659E9 ; 0.0
17 ; 1650360.968834338 ; 1.4999571057369515E8 ; 1.9129864793343354E7 ; 2.0224163114814327E9 ; 0.0
18 ; 1662979.8856109174 ; 1.554045076031285E8 ; 2.078022576217769E7 ; 2.1724120220551276E9 ; 0.0
19 ; 1670302.1930490043 ; 1.611226784871061E8 ; 2.2443205647788607E7 ; 2.327816529658256E9 ; 0.0
20 ; 1680568.3030863663 ; 1.6715015270343515E8 ; 2.4113507840837613E7 ; 2.4889392081453624E9 ; 0.0
21 ; 1691603.0637480386 ; 1.7348686379538515E8 ; 2.579407614392398E7 ; 2.6560893608487973E9 ; 0.0
22 ; 1699798.4188661587 ; 1.801327502170825E8 ; 2.748567920767202E7 ; 2.8295762246441827E9 ; 0.0
23 ; 1709610.3937592984 ; 1.8708775572652662E8 ; 2.9185477626538176E7 ; 3.009708974861265E9 ; 0.0
24 ; 1717573.213355447 ; 1.9435182944607085E8 ; 3.0895088020297475E7 ; 3.196796730587792E9 ; 0.0
25 ; 1728880.6638957856 ; 2.006129665941874E8 ; 3.2612661233652923E7 ; 3.3911485600338626E9 ; 0.0
26 ; 1739827.795151869 ; 2.0062467421411392E8 ; 3.4341541897548705E7 ; 3.59176152662805E9 ; 0.0
27 ; 1751123.5971480284 ; 2.0063668531264153E8 ; 3.608136969270057E7 ; 3.7923862008421636E9 ; 0.0
28 ; 1758716.885380336 ; 2.0064896768826258E8 ; 3.78324932898486E7 ; 3.993022886154805E9 ; 0.0
29 ; 1766404.5038263968 ; 2.006614928036532E8 ; 3.959121017522894E7 ; 4.1936718538430676E9 ; 0.0
30 ; 1779082.777370502 ; 2.0067423538182655E8 ; 4.135761467905533E7 ; 4.394333346646721E9 ; 0.0
31 ; 1784584.6537020814 ; 2.0068717303012556E8 ; 4.313669745642584E7 ; 4.595007582028547E9 ; 0.0
32 ; 1795641.5157000443 ; 2.0070028589739224E8 ; 4.492128211012792E7 ; 4.795694755058673E9 ; 0.0
33 ; 1804444.8062821804 ; 2.007135563659785E8 ; 4.671692362582796E7 ; 4.996395040956065E9 ; 0.0
34 ; 1815000.037885156 ; 2.0072696877796897E8 ; 4.852136843211014E7 ; 5.197108597322043E9 ; 0.0
35 ; 1820218.3418164782 ; 2.007405091936494E8 ; 5.03363684699953E7 ; 5.397835566100013E9 ; 0.0
36 ; 1829904.1578777828 ; 2.007541651795603E8 ; 5.2156586811811775E7 ; 5.598576075293662E9 ; 0.0
37 ; 1837397.7219193224 ; 2.0076792562319705E8 ; 5.3986490969689555E7 ; 5.799330240473223E9 ; 0.0
38 ; 1843144.3352271982 ; 2.0078178057139987E8 ; 5.5823888691608876E7 ; 6.000098166096419E9 ; 0.0
39 ; 1852616.2935228746 ; 2.007957210896105E8 ; 5.7667033026836075E7 ; 6.200879946667819E9 ; 0.0
40 ; 1859017.4420474416 ; 2.008097391393874E8 ; 5.951964932035895E7 ; 6.401675667757429E9 ; 0.0
41 ; 1865613.271880522 ; 2.008238274718235E8 ; 6.137866676240639E7 ; 6.602485406896816E9 ; 0.0
42 ; 1873044.99392365 ; 2.0083797953477007E8 ; 6.324428003428691E7 ; 6.80330923436864E9 ; 0.0
43 ; 1879947.12519998 ; 2.0085218939202115E8 ; 6.511732502821056E7 ; 7.00414721390341E9 ; 0.0
44 ; 1883895.8378472745 ; 2.0086645165284795E8 ; 6.699727215341054E7 ; 7.204999403295431E9 ; 0.0
45 ; 1891211.060942982 ; 2.0088076141048312E8 ; 6.888116799125782E7 ; 7.405865854948279E9 ; 0.0
46 ; 1895300.8587104296 ; 2.0089511418834475E8 ; 7.07723790522008E7 ; 7.606746616358763E9 ; 0.0
47 ; 1898125.9281995157 ; 2.0090950589295575E8 ; 7.266767991091122E7 ; 7.807641730547108E9 ; 0.0
48 ; 1903296.1726724263 ; 2.0092393277265877E8 ; 7.456580583911073E7 ; 8.008551236440063E9 ; 0.0
49 ; 1912071.114124137 ; 2.0093839138135293E8 ; 7.646910201178315E7 ; 8.209475169212722E9 ; 0.0
50 ; 1914955.2883390717 ; 2.009528785465868E8 ; 7.838117312590729E7 ; 8.410413560594075E9 ; 0.0
51 ; 1917435.099583211 ; 2.0096739134143475E8 ; 8.029612841424637E7 ; 8.611366439140661E9 ; 0.0
52 ; 1925003.0680441821 ; 2.0098192705966434E8 ; 8.221356351382957E7 ; 8.812333830482096E9 ; 0.0
53 ; 1923469.2339233118 ; 2.0099648319377053E8 ; 8.413856658187376E7 ; 9.01331575754176E9 ; 0.0
54 ; 1929882.0493010706 ; 2.0101105741551095E8 ; 8.606203581579708E7 ; 9.21431224073553E9 ; 0.0
55 ; 1929845.2147462445 ; 2.010256475586271E8 ; 8.799191786509815E7 ; 9.415323298151041E9 ; 0.0
56 ; 1937229.7467512335 ; 2.010402516034787E8 ; 8.99217630798444E7 ; 9.616348945709667E9 ; 0.0
57 ; 1940695.2909483234 ; 2.010548676633561E8 ; 9.185899282659563E7 ; 9.817389197313147E9 ; 0.0
58 ; 1942654.8220633252 ; 2.0106949397226584E8 ; 9.379968811754395E7 ; 1.0018444064976503E10 ; 0.0
59 ; 1946289.9127087242 ; 2.0108412887401295E8 ; 9.574234293960728E7 ; 1.0219513558948769E10 ; 0.0
60 ; 1946381.7788945616 ; 2.0109877081242564E8 ; 9.7688632852316E7 ; 1.042059768782278E10 ; 0.0
61 ; 1952295.424916943 ; 2.0111341832258904E8 ; 9.963501463121057E7 ; 1.0621696458635206E10 ; 0.0
62 ; 1954878.773416335 ; 2.0112807002297038E8 ; 1.015873100561275E8 ; 1.0822809876957796E10 ; 0.0
63 ; 1959068.4294342992 ; 2.0114272460833475E8 ; 1.0354218882954384E8 ; 1.1023937946980766E10 ; 0.0
64 ; 1960102.8580720017 ; 2.011573808433616E8 ; 1.0550125725897814E8 ; 1.1225080671589102E10 ; 0.0
65 ; 1962710.9693487827 ; 2.011720375568842E8 ; 1.0746136011705014E8 ; 1.1426238052432463E10 ; 0.0
66 ; 1964844.997456652 ; 2.0118669363668358E8 ; 1.0942407108639893E8 ; 1.1627410089989347E10 ; 0.0
67 ; 1969439.2813341867 ; 2.0120134802477685E8 ; 1.1138891608385558E8 ; 1.1828596783626032E10 ; 0.0
68 ; 1973464.8695491306 ; 2.012159997131466E8 ; 1.1335835536518978E8 ; 1.2029798131650808E10 ; 0.0
69 ; 1974555.9265589966 ; 2.0123064773986533E8 ; 1.153318202347389E8 ; 1.2231014131363955E10 ; 0.0
70 ; 1978899.5546018805 ; 2.01245291185573E8 ; 1.173063761612979E8 ; 1.243224477910382E10 ; 0.0
71 ; 1983092.678600949 ; 2.0125992917027166E8 ; 1.1928527571589978E8 ; 1.2633490070289394E10 ; 0.0
72 ; 1985924.013875242 ; 2.0127456085040492E8 ; 1.2126836839450073E8 ; 1.2834749999459665E10 ; 0.0
73 ; 1987680.143799145 ; 2.0128918541619328E8 ; 1.2325429240837598E8 ; 1.303602456031007E10 ; 0.0
74 ; 1990861.5445614562 ; 2.0130380208920023E8 ; 1.2524197255217512E8 ; 1.3237313745726263E10 ; 0.0
75 ; 1992464.7582671049 ; 2.0131841012010637E8 ; 1.2723283409673658E8 ; 1.3438617547815464E10 ; 0.0
76 ; 1994559.4472902452 ; 2.0133300878667125E8 ; 1.2922529885500368E8 ; 1.363993595793557E10 ; 0.0
77 ; 1995047.0594051278 ; 2.0134759739186525E8 ; 1.3121985830229393E8 ; 1.384126896672224E10 ; 0.0
78 ; 1997276.7467741878 ; 2.0136217526215523E8 ; 1.3321490536169906E8 ; 1.4042616564114105E10 ; 0.0
79 ; 2000302.022864668 ; 2.0137674174592933E8 ; 1.3521218210847324E8 ; 1.424397873937626E10 ; 0.0
80 ; 1995021.233864402 ; 2.013912962120488E8 ; 1.372124841313379E8 ; 1.444535548112219E10 ; 0.0
81 ; 1998405.2963329738 ; 2.014058380485145E8 ; 1.392075053652023E8 ; 1.464674677733424E10 ; 0.0
82 ; 1997388.1399974248 ; 2.0142036666123796E8 ; 1.412059106615353E8 ; 1.4848152615382755E10 ; 0.0
83 ; 1997145.398366921 ; 2.0143488147290817E8 ; 1.4320329880153272E8 ; 1.5049572982043993E10 ; 0.0
84 ; 1997809.6916319672 ; 2.0144938192194474E8 ; 1.4520044419989964E8 ; 1.5251007863516901E10 ; 0.0
85 ; 1997015.9057297017 ; 2.0146386746153083E8 ; 1.4719825389153162E8 ; 1.5452457245438847E10 ; 0.0
86 ; 1994301.3976094595 ; 2.014783375587182E8 ; 1.4919526979726133E8 ; 1.5653921112900377E10 ; 0.0
87 ; 1999003.3576727002 ; 2.0149279169359902E8 ; 1.511895711948708E8 ; 1.5855399450459095E10 ; 0.0
88 ; 1995413.4898174647 ; 2.0150722935853782E8 ; 1.531885745525435E8 ; 1.6056892242152695E10 ; 0.0
89 ; 1996311.599460418 ; 2.0152165005745986E8 ; 1.5518398804236096E8 ; 1.6258399471511232E10 ; 0.0
90 ; 1993830.2332286125 ; 2.0153605330518988E8 ; 1.5718029964182138E8 ; 1.6459921121568693E10 ; 0.0
91 ; 1993117.5882388286 ; 2.015504386268382E8 ; 1.5917412987505E8 ; 1.6661457174873882E10 ; 0.0
92 ; 1994876.1420345493 ; 2.0156480555722982E8 ; 1.6116724746328884E8 ; 1.6863007613500721E10 ; 0.0
93 ; 1991798.8390028123 ; 2.0157915364037317E8 ; 1.631621236053234E8 ; 1.7064572419057951E10 ; 0.0
94 ; 1992564.2548120327 ; 2.015934824289657E8 ; 1.6515392244432622E8 ; 1.7266151572698322E10 ; 0.0
95 ; 1990526.7117119613 ; 2.0160779148393258E8 ; 1.6714648669913825E8 ; 1.746774505512729E10 ; 0.0
96 ; 1991469.81498129 ; 2.016220803739973E8 ; 1.6913701341085023E8 ; 1.766935284661122E10 ; 0.0
97 ; 1989175.1803187148 ; 2.016363486752803E8 ; 1.711284832258315E8 ; 1.7870974926985218E10 ; 0.0
98 ; 1989206.7651052102 ; 2.016505959709245E8 ; 1.7311765840615022E8 ; 1.80726112756605E10 ; 0.0
99 ; 1988280.595815517 ; 2.0166482185074526E8 ; 1.7510686517125544E8 ; 1.8274261871631424E10 ; 0.0
100 ; 1986213.6596388617 ; 2.0167902591090322E8 ; 1.7709514576707095E8 ; 1.847592669348217E10 ; 0.0
101 ; 1984922.8048285663 ; 2.0169320775359797E8 ; 1.790813594267098E8 ; 1.8677605719393074E10 ; 0.0
102 ; 1982772.728355508 ; 2.0170736698678148E8 ; 1.8106628223153836E8 ; 1.887929892714667E10 ; 0.0
103 ; 1986369.8297790212 ; 2.0172150322388944E8 ; 1.8304905495989385E8 ; 1.9081006294133453E10 ; 0.0
104 ; 1982798.1486561073 ; 2.0173561608358967E8 ; 1.8503542478967288E8 ; 1.928272779735734E10 ; 0.0
105 ; 1979005.6998407347 ; 2.0174970518954593E8 ; 1.8701822293832898E8 ; 1.9484463413440933E10 ; 0.0
106 ; 1978489.9043670907 ; 2.017637701701963E8 ; 1.889972286381697E8 ; 1.9686213118630478E10 ; 0.0
107 ; 1976547.9663900915 ; 2.017778106585454E8 ; 1.909757185425368E8 ; 1.9887976888800674E10 ; 0.0
108 ; 1976122.1869032085 ; 2.017918262919688E8 ; 1.929522665089269E8 ; 2.008975469945922E10 ; 0.0
109 ; 1974884.4790184947 ; 2.018058167120294E8 ; 1.949283886958301E8 ; 2.029154652575119E10 ; 0.0
110 ; 1974163.9322341555 ; 2.0181978156430477E8 ; 1.9690327317484862E8 ; 2.049335234246322E10 ; 0.0
111 ; 1972201.1631447915 ; 2.018337204982246E8 ; 1.9887743710708278E8 ; 2.0695172124027523E10 ; 0.0
112 ; 1967737.0432061993 ; 2.0184763316691777E8 ; 2.0084963827022758E8 ; 2.089700584452575E10 ; 0.0
113 ; 1969085.370926285 ; 2.0186151922706842E8 ; 2.0281737531343377E8 ; 2.1098853477692665E10 ; 0.0
114 ; 1967215.9265831325 ; 2.0187537833878013E8 ; 2.0478646068436006E8 ; 2.1300714996919735E10 ; 0.0
115 ; 1966345.8891377866 ; 2.0188921016544813E8 ; 2.067536766109432E8 ; 2.1502590375258514E10 ; 0.0
116 ; 1964057.432378392 ; 2.0190301437363863E8 ; 2.0872002250008097E8 ; 2.170447958542396E10 ; 0.0
117 ; 1963590.4271703132 ; 2.019167906329752E8 ; 2.1068407993245935E8 ; 2.19063825997976E10 ; 0.0
118 ; 1959732.931982437 ; 2.0193053861603126E8 ; 2.1264767035962966E8 ; 2.2108299390430576E10 ; 0.0
119 ; 1956951.3929810156 ; 2.019442579982289E8 ; 2.146074032916121E8 ; 2.2310229929046608E10 ; 0.0
120 ; 1954030.3571493 ; 2.0195794845774314E8 ; 2.165643546845931E8 ; 2.2512174187044838E10 ; 0.0
121 ; 1954708.541141994 ; 2.019716096754114E8 ; 2.185183850417424E8 ; 2.2714132135502583E10 ; 0.0
122 ; 1951307.3607088176 ; 2.0198524133464828E8 ; 2.204730935828844E8 ; 2.2916103745177994E10 ; 0.0
123 ; 1951961.6591534477 ; 2.0199884312136462E8 ; 2.224244009435932E8 ; 2.311808898651264E10 ; 0.0
124 ; 1947439.6032570058 ; 2.0201241472389126E8 ; 2.2437636260274667E8 ; 2.3320087829634007E10 ; 0.0
125 ; 1947306.3919506166 ; 2.0202595583290663E8 ; 2.2632380220600367E8 ; 2.35221002443579E10 ; 0.0
126 ; 1940066.3215287596 ; 2.020394661413686E8 ; 2.2827110859795427E8 ; 2.3724126200190804E10 ; 0.0
127 ; 1940293.6126383608 ; 2.020529453444496E8 ; 2.3021117491948304E8 ; 2.3926165666332172E10 ; 0.0
128 ; 1937997.05862707 ; 2.020663931394755E8 ; 2.321514685321214E8 ; 2.412821861167662E10 ; 0.0
129 ; 1934012.965433855 ; 2.0207980922586748E8 ; 2.3408946559074846E8 ; 2.4330285004816097E10 ; 0.0
130 ; 1932425.3850929113 ; 2.0209319330508724E8 ; 2.3602347855618232E8 ; 2.4532364814041965E10 ; 0.0
131 ; 1925088.9319373239 ; 2.0210654508058485E8 ; 2.3795590394127524E8 ; 2.4734458007347054E10 ; 0.0
132 ; 1920374.597860615 ; 2.0211986425774947E8 ; 2.3988099287321258E8 ; 2.493656455242764E10 ; 0.0
133 ; 1915590.831740438 ; 2.021331505438626E8 ; 2.4180136747107318E8 ; 2.5138684416685387E10 ; 0.0
134 ; 1909146.969722601 ; 2.0214640364805382E8 ; 2.4371695830281362E8 ; 2.5340817567229248E10 ; 0.0
135 ; 1907042.7212816062 ; 2.021596232812587E8 ; 2.4562610527253622E8 ; 2.55429639708773E10 ; 0.0
136 ; 1899990.4095794777 ; 2.0217280915617895E8 ; 2.4753314799381784E8 ; 2.5745123594158558E10 ; 0.0
137 ; 1895383.7492149454 ; 2.0218596098724478E8 ; 2.4943313840339732E8 ; 2.5947296403314735E10 ; 0.0
138 ; 1890131.1701450269 ; 2.0219907849057898E8 ; 2.5132852215261227E8 ; 2.614948236430198E10 ; 0.0
139 ; 1886962.1804093067 ; 2.022121613839628E8 ; 2.532186533227573E8 ; 2.6351681442792557E10 ; 0.0
140 ; 1878452.7830305782 ; 2.02225209386804E8 ; 2.5510561550316662E8 ; 2.655389360417652E10 ; 0.0
141 ; 1875253.5509558935 ; 2.0223822222010598E8 ; 2.569840682861972E8 ; 2.6756118813563324E10 ; 0.0
142 ; 1868930.490138853 ; 2.0225119960643882E8 ; 2.5885932183715308E8 ; 2.695835703578343E10 ; 0.0
143 ; 1864320.2970915872 ; 2.0226414126991183E8 ; 2.6072825232729194E8 ; 2.7160608235389866E10 ; 0.0
144 ; 1858075.5101147525 ; 2.0227704693614727E8 ; 2.625925726243835E8 ; 2.736287237665978E10 ; 0.0
145 ; 1855561.2460348827 ; 2.0228991633225572E8 ; 2.6445064813449827E8 ; 2.7565149423595924E10 ; 0.0
146 ; 1853698.4726794758 ; 2.0230274918681228E8 ; 2.6630620938053316E8 ; 2.776743933992818E10 ; 0.0
147 ; 1847699.4105542928 ; 2.023155452298345E8 ; 2.6815990785321262E8 ; 2.7969742089114994E10 ; 0.0
148 ; 1845747.885896335 ; 2.02328304192761E8 ; 2.7000760726376694E8 ; 2.817205763434483E10 ; 0.0
149 ; 1847274.1521372036 ; 2.0234102580843142E8 ; 2.7185335514966327E8 ; 2.837438593853759E10 ; 0.0
150 ; 1838347.089870651 ; 2.0235370981106743E8 ; 2.737006293018005E8 ; 2.857672696434602E10 ; 0.0
151 ; 1840482.2579555102 ; 2.0236635593625444E8 ; 2.755389763916711E8 ; 2.8779080674157085E10 ; 0.0
152 ; 1835454.888857653 ; 2.0237896392092457E8 ; 2.773794586496266E8 ; 2.8981447030093338E10 ; 0.0
153 ; 1832938.5978902918 ; 2.023915335033404E8 ; 2.792149135384843E8 ; 2.9183825994014263E10 ; 0.0
154 ; 1830080.8288755266 ; 2.0240406442307934E8 ; 2.810478521363746E8 ; 2.9386217527517605E10 ; 0.0
155 ; 1826955.7864954548 ; 2.0241655642101923E8 ; 2.8287793296525013E8 ; 2.9588621591940685E10 ; 0.0
156 ; 1824717.6044374488 ; 2.0242900923932427E8 ; 2.847048887517456E8 ; 2.9791038148361706E10 ; 0.0
157 ; 1819945.513634392 ; 2.0244142262143198E8 ; 2.8652960635618305E8 ; 2.999346715760103E10 ; 0.0
158 ; 1819859.2497503783 ; 2.0245379631204078E8 ; 2.8834955186981744E8 ; 3.019590858022246E10 ; 0.0
159 ; 1815517.6573320166 ; 2.0246613005709803E8 ; 2.901694111195678E8 ; 3.0398362376534504E10 ; 0.0
160 ; 1812722.030432408 ; 2.0247842360378906E8 ; 2.919849287768998E8 ; 3.0600828506591602E10 ; 0.0
161 ; 1811885.2886754891 ; 2.024906767005265E8 ; 2.937976508073322E8 ; 3.0803306930195393E10 ; 0.0
162 ; 1805643.0695323562 ; 2.0250288909694028E8 ; 2.956095360960077E8 ; 3.100579760689592E10 ; 0.0
163 ; 1802545.120903656 ; 2.0251506054386818E8 ; 2.9741517916554004E8 ; 3.120830049599286E10 ; 0.0
164 ; 1802110.0062595422 ; 2.02527190793347E8 ; 2.992177242864437E8 ; 3.1410815556536728E10 ; 0.0
165 ; 1799612.3569856551 ; 2.0253927959860402E8 ; 3.010198342927033E8 ; 3.1613342747330074E10 ; 0.0
166 ; 1796629.172765401 ; 2.02551326714049E8 ; 3.028194466496889E8 ; 3.1815882026928677E10 ; 0.0
167 ; 1794082.3051240954 ; 2.0256333189526686E8 ; 3.046160758224543E8 ; 3.2018433353642727E10 ; 0.0
168 ; 1791059.1637202906 ; 2.025752948990104E8 ; 3.064101581275784E8 ; 3.2220996685537994E10 ; 0.0
169 ; 1785789.0731600581 ; 2.0258721548319373E8 ; 3.082012172912987E8 ; 3.2423571980437004E10 ; 0.0
170 ; 1783039.0545791998 ; 2.0259909340688604E8 ; 3.0998700636445874E8 ; 3.2626159195920197E10 ; 0.0
171 ; 1781386.1604801686 ; 2.026109284303056E8 ; 3.1177004541903794E8 ; 3.2828758289327084E10 ; 0.0
172 ; 1777195.167338309 ; 2.0262272031481433E8 ; 3.135514315795181E8 ; 3.303136921775739E10 ; 0.0
173 ; 1774647.7218073863 ; 2.0263446882291248E8 ; 3.153286267468564E8 ; 3.3233991938072205E10 ; 0.0
174 ; 1772110.6544916935 ; 2.026461737182339E8 ; 3.1710327446866375E8 ; 3.343662640689512E10 ; 0.0
175 ; 1771422.141543968 ; 2.026578347655414E8 ; 3.188753851231555E8 ; 3.3639272580613354E10 ; 0.0
176 ; 1767716.950413477 ; 2.026694517307225E8 ; 3.2064680726469946E8 ; 3.3841930415378895E10 ; 0.0
177 ; 1764729.5441836715 ; 2.026810243807855E8 ; 3.224145242151129E8 ; 3.404459986710962E10 ; 0.0
178 ; 1763703.3394477027 ; 2.0269255248385575E8 ; 3.241792537592966E8 ; 3.4247280891490406E10 ; 0.0
179 ; 1763495.6469796528 ; 2.0270403580917233E8 ; 3.259429570987443E8 ; 3.444997344397426E10 ; 0.0
180 ; 1759688.129414693 ; 2.0271547412708467E8 ; 3.277064527457239E8 ; 3.465267747978343E10 ; 0.0
181 ; 1757052.8924146343 ; 2.0272686720904976E8 ; 3.294661408751386E8 ; 3.4855392953910515E10 ; 0.0
182 ; 1755508.3944858261 ; 2.0273821482762945E8 ; 3.312231937675532E8 ; 3.505811982111957E10 ; 0.0
183 ; 1755273.0682460747 ; 2.027495167564878E8 ; 3.3297870216203904E8 ; 3.52608580359472E10 ; 0.0
184 ; 1751377.6729543193 ; 2.02760772770389E8 ; 3.347339752302851E8 ; 3.546360755270368E10 ; 0.0
185 ; 1748688.758167427 ; 2.0277198264519513E8 ; 3.364853529032394E8 ; 3.566636832547407E10 ; 0.0
186 ; 1748941.130358422 ; 2.0278314615786442E8 ; 3.382340416614069E8 ; 3.586914030811926E10 ; 0.0
187 ; 1745019.574720785 ; 2.0279426308644938E8 ; 3.399829827917653E8 ; 3.607192345427713E10 ; 0.0
188 ; 1741699.6341591503 ; 2.0280533321009544E8 ; 3.417280023664861E8 ; 3.627471771736358E10 ; 0.0
189 ; 1743646.6229421422 ; 2.028163563090394E8 ; 3.434697020006452E8 ; 3.647752305057368E10 ; 0.0
190 ; 1742585.398894228 ; 2.0282733216460845E8 ; 3.4521334862358737E8 ; 3.668033940688271E10 ; 0.0
191 ; 1738549.5128584283 ; 2.028382605592189E8 ; 3.469559340224816E8 ; 3.6883166739047325E10 ; 0.0
192 ; 1737070.6500251987 ; 2.0284914127637556E8 ; 3.486944835353401E8 ; 3.7086004999606544E10 ; 0.0
193 ; 1732961.0177233405 ; 2.028599741006707E8 ; 3.5043155418536526E8 ; 3.728885414088292E10 ; 0.0
194 ; 1731347.9043859565 ; 2.0287075881778356E8 ; 3.521645152030886E8 ; 3.749171411498359E10 ; 0.0
195 ; 1729287.1957661237 ; 2.0288149521447995E8 ; 3.5389586310747457E8 ; 3.769458487380138E10 ; 0.0
196 ; 1728591.2635259756 ; 2.0289218307861173E8 ; 3.556251503032407E8 ; 3.7897466369015854E10 ; 0.0
197 ; 1726322.981184807 ; 2.0290282219911665E8 ; 3.573537415667667E8 ; 3.810035855209447E10 ; 0.0
198 ; 1722323.3289308564 ; 2.0291341236601818E8 ; 3.5908006454795146E8 ; 3.830326137429359E10 ; 0.0
199 ; 1722398.9418745835 ; 2.0292395337042558E8 ; 3.608023878768823E8 ; 3.850617478665961E10 ; 0.0
