CSV File for the City 1 on Day 11
1 - Minute m 
2 - Power Consumed at minute m 
3 - Power Produced at minute m 
4 - Energy Consumed since the beginning of the day 
5 - Energy Produced since the beginning of the day 
6 - Energy Lost since the beginning of the day on lines starting from the city
 
0 ; 1.5991352633494707E7 ; 1.0528277392133209E8 ; 0.0 ; 0.0 ; 0.0
1 ; 1.6007563455066051E7 ; 1.0543449506475967E8 ; 1.5991352633494707E7 ; 1.0528277392133209E8 ; 0.0
2 ; 1.6022573277446514E7 ; 1.0589508211561707E8 ; 3.199891608856076E7 ; 2.1071726898609176E8 ; 0.0
3 ; 1.6041416558835434E7 ; 1.066645492231009E8 ; 4.8021489366007276E7 ; 3.166123511017088E8 ; 0.0
4 ; 1.6062576406599838E7 ; 1.0774291013601649E8 ; 6.406290592484271E7 ; 4.2327690032480973E8 ; 0.0
5 ; 1.609724687079581E7 ; 1.0913017786046487E8 ; 8.012548233144255E7 ; 5.310198104608262E8 ; 0.0
6 ; 1.6132758191813126E7 ; 1.108263642893593E8 ; 9.622272920223837E7 ; 6.401499883212911E8 ; 0.0
7 ; 1.6184575570943724E7 ; 1.1283147982273567E8 ; 1.1235548739405149E8 ; 7.509763526106504E8 ; 0.0
8 ; 1.6265400855004122E7 ; 1.1514553300286579E8 ; 1.2854006296499522E8 ; 8.638078324333861E8 ; 0.0
9 ; 1.6383410349783309E7 ; 1.177685301911388E8 ; 1.4480546381999934E8 ; 9.789533654362519E8 ; 0.0
10 ; 1.6559762151151123E7 ; 1.207004753134948E8 ; 1.6118887416978264E8 ; 1.0967218956273906E9 ; 0.0
11 ; 1.6848336985709805E7 ; 1.2394136969731167E8 ; 1.7774863632093376E8 ; 1.2174223709408855E9 ; 0.0
12 ; 1.731096800409216E7 ; 1.274912120152115E8 ; 1.9459697330664358E8 ; 1.3413637406381972E9 ; 0.0
13 ; 1.7760466207187075E7 ; 1.3134999834125417E8 ; 2.1190794131073573E8 ; 1.4688549526534088E9 ; 0.0
14 ; 1.7805238784948513E7 ; 1.3551772231405067E8 ; 2.2966840751792282E8 ; 1.600204950994663E9 ; 0.0
15 ; 1.7830308482748225E7 ; 1.3999437539132905E8 ; 2.4747364630287135E8 ; 1.7357226733087137E9 ; 0.0
16 ; 1.7852217092698634E7 ; 1.4477994717305353E8 ; 2.6530395478561956E8 ; 1.8757170487000427E9 ; 0.0
17 ; 1.7874823783793055E7 ; 1.4987442576631078E8 ; 2.831561718783182E8 ; 2.0204969958730962E9 ; 0.0
18 ; 1.789445860681754E7 ; 1.5527779816499978E8 ; 3.010309956621112E8 ; 2.170371421639407E9 ; 0.0
19 ; 1.791111639676322E7 ; 1.6099005062031522E8 ; 3.1892545426892877E8 ; 2.325649219804407E9 ; 0.0
20 ; 1.7936467229625564E7 ; 1.6701116898306045E8 ; 3.36836570665692E8 ; 2.486639270424722E9 ; 0.0
21 ; 1.7957941504072994E7 ; 1.7334113900479773E8 ; 3.5477303789531755E8 ; 2.6536504394077826E9 ; 0.0
22 ; 1.7978336390640993E7 ; 1.7997994659071594E8 ; 3.727309793993906E8 ; 2.8269915784125805E9 ; 0.0
23 ; 1.80015510378386E7 ; 1.869275780021544E8 ; 3.9070931579003155E8 ; 3.0069715250032964E9 ; 0.0
24 ; 1.801761020280545E7 ; 1.941840200105976E8 ; 4.0871086682787013E8 ; 3.1938991030054507E9 ; 0.0
25 ; 1.804052817242796E7 ; 2.0043730090574995E8 ; 4.267284770306756E8 ; 3.3880831230160484E9 ; 0.0
26 ; 1.8064323122411538E7 ; 2.0044095660411653E8 ; 4.4476900520310354E8 ; 3.588520423921798E9 ; 0.0
27 ; 1.8081428570612077E7 ; 2.0044474521384144E8 ; 4.628333283255151E8 ; 3.7889613805259147E9 ; 0.0
28 ; 1.8101804168228142E7 ; 2.004486562960243E8 ; 4.8091475689612716E8 ; 3.989406125739756E9 ; 0.0
29 ; 1.812246012206609E7 ; 2.0045268015296412E8 ; 4.990165610643553E8 ; 4.1898547820357804E9 ; 0.0
30 ; 1.8138810195845567E7 ; 2.0045680780871892E8 ; 5.171390211864214E8 ; 4.390307462188745E9 ; 0.0
31 ; 1.8157748745444942E7 ; 2.0046103097951144E8 ; 5.3527783138226694E8 ; 4.590764269997463E9 ; 0.0
32 ; 1.817715749417621E7 ; 2.0046534203745663E8 ; 5.534355801277119E8 ; 4.7912253009769745E9 ; 0.0
33 ; 1.8194960479778748E7 ; 2.0046973397034603E8 ; 5.716127376218882E8 ; 4.991690643014431E9 ; 0.0
34 ; 1.8211416742201492E7 ; 2.0047420033957875E8 ; 5.898076981016669E8 ; 5.192160376984777E9 ; 0.0
35 ; 1.823115885708226E7 ; 2.0047873523778832E8 ; 6.080191148438684E8 ; 5.392634577324356E9 ; 0.0
36 ; 1.824439453341617E7 ; 2.0048333324727607E8 ; 6.262502737009506E8 ; 5.593113312562144E9 ; 0.0
37 ; 1.826338051755647E7 ; 2.004879894000135E8 ; 6.444946682343668E8 ; 5.793596645809421E9 ; 0.0
38 ; 1.827717887753044E7 ; 2.004926991397078E8 ; 6.627580487519232E8 ; 5.9940846352094345E9 ; 0.0
39 ; 1.8290734232499573E7 ; 2.004974582862207E8 ; 6.810352276294537E8 ; 6.194577334349142E9 ; 0.0
40 ; 1.8307310160986047E7 ; 2.0050226300248182E8 ; 6.993259618619533E8 ; 6.395074792635363E9 ; 0.0
41 ; 1.831473878947908E7 ; 2.005071097639278E8 ; 7.176332720229393E8 ; 6.595577055637844E9 ; 0.0
42 ; 1.8329407820769567E7 ; 2.0051199533042425E8 ; 7.359480108124185E8 ; 6.796084165401772E9 ; 0.0
43 ; 1.8341337171974726E7 ; 2.0051691672057557E8 ; 7.54277418633188E8 ; 6.996596160732196E9 ; 0.0
44 ; 1.8354477118107922E7 ; 2.005218711882964E8 ; 7.726187558051628E8 ; 7.197113077452771E9 ; 0.0
45 ; 1.836301785088133E7 ; 2.0052685620149902E8 ; 7.909732329232707E8 ; 7.3976349486410675E9 ; 0.0
46 ; 1.837258077543912E7 ; 2.005318694227432E8 ; 8.09336250774152E8 ; 7.5981618048425665E9 ; 0.0
47 ; 1.8381630289035846E7 ; 2.0053690869169286E8 ; 8.277088315495912E8 ; 7.798693674265309E9 ; 0.0
48 ; 1.8385371988648146E7 ; 2.005419720092272E8 ; 8.46090461838627E8 ; 7.999230582957003E9 ; 0.0
49 ; 1.8395745318237025E7 ; 2.0054705752305996E8 ; 8.644758338272752E8 ; 8.199772554966229E9 ; 0.0
50 ; 1.840093616844735E7 ; 2.0055216351472947E8 ; 8.828715791455122E8 ; 8.400319612489289E9 ; 0.0
51 ; 1.840631777612355E7 ; 2.0055728838783053E8 ; 9.012725153139596E8 ; 8.600871776004019E9 ; 0.0
52 ; 1.840969183317979E7 ; 2.0056243065736935E8 ; 9.196788330900831E8 ; 8.80142906439185E9 ; 0.0
53 ; 1.8413574262442324E7 ; 2.0056758894013286E8 ; 9.38088524923263E8 ; 9.00199149504922E9 ; 0.0
54 ; 1.8416245804796707E7 ; 2.0057276194597265E8 ; 9.565020991857053E8 ; 9.202559083989351E9 ; 0.0
55 ; 1.8425644866365165E7 ; 2.0057794846991333E8 ; 9.74918344990502E8 ; 9.403131845935324E9 ; 0.0
56 ; 1.8426913643198013E7 ; 2.0058314738500357E8 ; 9.933439898568672E8 ; 9.603709794405237E9 ; 0.0
57 ; 1.8430900201335356E7 ; 2.0058835763583556E8 ; 1.0117709035000652E9 ; 9.804292941790241E9 ; 0.0
58 ; 1.843758737640474E7 ; 2.0059357823266706E8 ; 1.0302018037014005E9 ; 1.0004881299426077E10 ; 0.0
59 ; 1.843994899593033E7 ; 2.0059880824608535E8 ; 1.0486393910778053E9 ; 1.0205474877658745E10 ; 0.0
60 ; 1.8442820229312398E7 ; 2.0060404680215988E8 ; 1.0670793400737356E9 ; 1.040607368590483E10 ; 0.0
61 ; 1.8446856296270963E7 ; 2.0060929307803485E8 ; 1.085522160303048E9 ; 1.0606677732706991E10 ; 0.0
62 ; 1.8451408817187548E7 ; 2.0061454629791865E8 ; 1.1039690165993187E9 ; 1.0807287025785027E10 ; 0.0
63 ; 1.8453558223762784E7 ; 2.0061980572943115E8 ; 1.1224204254165063E9 ; 1.1007901572082945E10 ; 0.0
64 ; 1.8452969329031825E7 ; 2.006250706802739E8 ; 1.140873983640269E9 ; 1.1208521377812376E10 ; 0.0
65 ; 1.845890962110587E7 ; 2.0063034049519196E8 ; 1.1593269529693007E9 ; 1.140914644849265E10 ; 0.0
66 ; 1.846425362068551E7 ; 2.0063561455319947E8 ; 1.1777858625904067E9 ; 1.160977678898784E10 ; 0.0
67 ; 1.846740017153567E7 ; 2.0064089226504344E8 ; 1.1962501162110922E9 ; 1.181041240354104E10 ; 0.0
68 ; 1.8465382039100643E7 ; 2.006461730708833E8 ; 1.214717516382628E9 ; 1.2011053295806084E10 ; 0.0
69 ; 1.8469585408619657E7 ; 2.0065145643816593E8 ; 1.2331828984217286E9 ; 1.2211699468876966E10 ; 0.0
70 ; 1.8470531205166116E7 ; 2.0065674185967806E8 ; 1.2516524838303483E9 ; 1.2412350925315132E10 ; 0.0
71 ; 1.8474778965122033E7 ; 2.006620288517591E8 ; 1.2701230150355144E9 ; 1.261300766717481E10 ; 0.0
72 ; 1.847775369434358E7 ; 2.006673169526603E8 ; 1.2885977940006363E9 ; 1.281366969602657E10 ; 0.0
73 ; 1.847764465958645E7 ; 2.0067260572103643E8 ; 1.30707554769498E9 ; 1.3014337012979229E10 ; 0.0
74 ; 1.847849513924784E7 ; 2.0067789473455834E8 ; 1.3255531923545663E9 ; 1.3215009618700266E10 ; 0.0
75 ; 1.8477057623295657E7 ; 2.0068318358863533E8 ; 1.3440316874938142E9 ; 1.3415687513434824E10 ; 0.0
76 ; 1.8480204342825994E7 ; 2.006884718952378E8 ; 1.3625087451171098E9 ; 1.3616370697023458E10 ; 0.0
77 ; 1.84771482333138E7 ; 2.006937592818113E8 ; 1.3809889494599357E9 ; 1.3817059168918695E10 ; 0.0
78 ; 1.8473384537614726E7 ; 2.00699045390274E8 ; 1.3994660976932495E9 ; 1.4017752928200506E10 ; 0.0
79 ; 1.8469373421469856E7 ; 2.0070432987609023E8 ; 1.4179394822308643E9 ; 1.421845197359078E10 ; 0.0
80 ; 1.8462569670441374E7 ; 2.007096124074142E8 ; 1.4364088556523342E9 ; 1.4419156303466871E10 ; 0.0
81 ; 1.845882386742328E7 ; 2.007148926642971E8 ; 1.4548714253227756E9 ; 1.4619865915874285E10 ; 0.0
82 ; 1.8450907647247955E7 ; 2.0072017033795288E8 ; 1.473330249190199E9 ; 1.4820580808538582E10 ; 0.0
83 ; 1.8444410693263963E7 ; 2.0072544513007754E8 ; 1.491781156837447E9 ; 1.5021300978876535E10 ; 0.0
84 ; 1.8445701849693064E7 ; 2.0073071675221792E8 ; 1.510225567530711E9 ; 1.5222026424006613E10 ; 0.0
85 ; 1.843600424073523E7 ; 2.0073598492518523E8 ; 1.528671269380404E9 ; 1.5422757140758831E10 ; 0.0
86 ; 1.8432531507983338E7 ; 2.0074124937851065E8 ; 1.5471072736211393E9 ; 1.5623493125684017E10 ; 0.0
87 ; 1.8424085227126513E7 ; 2.007465098499386E8 ; 1.5655398051291227E9 ; 1.5824234375062529E10 ; 0.0
88 ; 1.8417454101680618E7 ; 2.0075176608495578E8 ; 1.5839638903562493E9 ; 1.6024980884912468E10 ; 0.0
89 ; 1.840814790781646E7 ; 2.007570178363521E8 ; 1.6023813444579298E9 ; 1.6225732650997423E10 ; 0.0
90 ; 1.840117856010733E7 ; 2.0076226486381203E8 ; 1.6207894923657463E9 ; 1.6426489668833775E10 ; 0.0
91 ; 1.8393234522410583E7 ; 2.007675069335331E8 ; 1.6391906709258535E9 ; 1.6627251933697586E10 ; 0.0
92 ; 1.8388528911858108E7 ; 2.0077274381787026E8 ; 1.6575839054482641E9 ; 1.6828019440631119E10 ; 0.0
93 ; 1.837930813648279E7 ; 2.0077797529500356E8 ; 1.6759724343601222E9 ; 1.702879218444899E10 ; 0.0
94 ; 1.8372891396013558E7 ; 2.007832011486278E8 ; 1.694351742496605E9 ; 1.722957015974399E10 ; 0.0
95 ; 1.836231808372868E7 ; 2.007884211676623E8 ; 1.7127246338926184E9 ; 1.743035336089262E10 ; 0.0
96 ; 1.835358987463657E7 ; 2.0079363514597932E8 ; 1.7310869519763472E9 ; 1.7631141782060284E10 ; 0.0
97 ; 1.8345566675396897E7 ; 2.0079884288214993E8 ; 1.7494405418509839E9 ; 1.7831935417206264E10 ; 0.0
98 ; 1.8338189536012944E7 ; 2.0080404417920592E8 ; 1.7677861085263808E9 ; 1.8032734260088413E10 ; 0.0
99 ; 1.8331709822075948E7 ; 2.0080923884441656E8 ; 1.7861242980623937E9 ; 1.823353830426762E10 ; 0.0
100 ; 1.832289709759072E7 ; 2.008144266890793E8 ; 1.8044560078844695E9 ; 1.8434347543112038E10 ; 0.0
101 ; 1.831216495625441E7 ; 2.008196075283235E8 ; 1.8227789049820602E9 ; 1.8635161969801117E10 ; 0.0
102 ; 1.8303531406836312E7 ; 2.0082478118092582E8 ; 1.8410910699383147E9 ; 1.883598157732944E10 ; 0.0
103 ; 1.8293152821427945E7 ; 2.0082994746913716E8 ; 1.859394601345151E9 ; 1.903680635851037E10 ; 0.0
104 ; 1.828416050697932E7 ; 2.0083510621851978E8 ; 1.877687754166579E9 ; 1.9237636305979504E10 ; 0.0
105 ; 1.827560804669603E7 ; 2.0084025725779408E8 ; 1.8959719146735582E9 ; 1.9438471412198025E10 ; 0.0
106 ; 1.826496894028724E7 ; 2.0084540041869467E8 ; 1.9142475227202542E9 ; 1.963931166945582E10 ; 0.0
107 ; 1.8257356553316265E7 ; 2.0085053553583452E8 ; 1.9325124916605415E9 ; 1.984015706987451E10 ; 0.0
108 ; 1.8246238858358946E7 ; 2.0085566244657743E8 ; 1.950769848213858E9 ; 2.0041007605410347E10 ; 0.0
109 ; 1.8238650775143437E7 ; 2.0086078099091738E8 ; 1.9690160870722167E9 ; 2.0241863267856926E10 ; 0.0
110 ; 1.822442363944283E7 ; 2.0086589101136523E8 ; 1.9872547378473601E9 ; 2.0442724048847843E10 ; 0.0
111 ; 1.821115063555439E7 ; 2.0087099235284153E8 ; 2.005479161486803E9 ; 2.0643589939859207E10 ; 0.0
112 ; 1.82003797989956E7 ; 2.0087608486257544E8 ; 2.0236903121223574E9 ; 2.0844460932212048E10 ; 0.0
113 ; 1.8189643937457483E7 ; 2.0088116839000946E8 ; 2.0418906919213529E9 ; 2.1045337017074623E10 ; 0.0
114 ; 1.818204382621169E7 ; 2.008862427867092E8 ; 2.0600803358588104E9 ; 2.1246218185464634E10 ; 0.0
115 ; 1.8167815120188814E7 ; 2.0089130790627828E8 ; 2.078262379685022E9 ; 2.1447104428251343E10 ; 0.0
116 ; 1.8158909847489968E7 ; 2.0089636360427788E8 ; 2.0964301948052108E9 ; 2.164799573615762E10 ; 0.0
117 ; 1.81420120251743E7 ; 2.0090140973815054E8 ; 2.114589104652701E9 ; 2.1848892099761898E10 ; 0.0
118 ; 1.813083867266441E7 ; 2.0090644616714814E8 ; 2.1327311166778753E9 ; 2.204979350950005E10 ; 0.0
119 ; 1.811772386674285E7 ; 2.009114727522638E8 ; 2.1508619553505397E9 ; 2.22506999556672E10 ; 0.0
120 ; 1.8108549758533947E7 ; 2.009164893561673E8 ; 2.1689796792172823E9 ; 2.245161142841946E10 ; 0.0
121 ; 1.809382368203262E7 ; 2.0092149584314385E8 ; 2.1870882289758162E9 ; 2.2652527917775627E10 ; 0.0
122 ; 1.8081053006428033E7 ; 2.009264920790363E8 ; 2.205182052657849E9 ; 2.285344941361877E10 ; 0.0
123 ; 1.8066577253608815E7 ; 2.0093147793119013E8 ; 2.223263105664277E9 ; 2.3054375905697807E10 ; 0.0
124 ; 1.80540468997126E7 ; 2.009364532684014E8 ; 2.241329682917886E9 ; 2.3255307383628998E10 ; 0.0
125 ; 1.8040621121327225E7 ; 2.0094141796086738E8 ; 2.2593837298175983E9 ; 2.34562438368974E10 ; 0.0
126 ; 1.8031093398666054E7 ; 2.009463718801396E8 ; 2.2774243509389257E9 ; 2.365718525485827E10 ; 0.0
127 ; 1.80166441861591E7 ; 2.0095131489907944E8 ; 2.2954554443375916E9 ; 2.3858131626738407E10 ; 0.0
128 ; 1.800071091863667E7 ; 2.0095624689181587E8 ; 2.313472088523751E9 ; 2.4059082941637486E10 ; 0.0
129 ; 1.7988849158289384E7 ; 2.0096116773370528E8 ; 2.3314727994423876E9 ; 2.42600391885293E10 ; 0.0
130 ; 1.7974067698796198E7 ; 2.0096607730129346E8 ; 2.349461648600677E9 ; 2.4461000356263004E10 ; 0.0
131 ; 1.7953321322626542E7 ; 2.0097097547227928E8 ; 2.3674357162994733E9 ; 2.4661966433564297E10 ; 0.0
132 ; 1.792953888784085E7 ; 2.0097586212548023E8 ; 2.3853890376221E9 ; 2.4862937409036575E10 ; 0.0
133 ; 1.7912591183850117E7 ; 2.0098073714079985E8 ; 2.4033185765099406E9 ; 2.5063913271162056E10 ; 0.0
134 ; 1.789144922639037E7 ; 2.009856003991964E8 ; 2.421231167693791E9 ; 2.5264894008302856E10 ; 0.0
135 ; 1.7868999287443332E7 ; 2.0099045178265327E8 ; 2.4391226169201813E9 ; 2.5465879608702053E10 ; 0.0
136 ; 1.784856078838085E7 ; 2.0099529117415088E8 ; 2.4569916162076244E9 ; 2.5666870060484707E10 ; 0.0
137 ; 1.783024464392675E7 ; 2.0100011845763978E8 ; 2.474840176996005E9 ; 2.586786535165886E10 ; 0.0
138 ; 1.78076672597025E7 ; 2.0100493351801503E8 ; 2.4926704216399317E9 ; 2.60688654701165E10 ; 0.0
139 ; 1.778852691030492E7 ; 2.0100973624109197E8 ; 2.5104780888996344E9 ; 2.6269870403634518E10 ; 0.0
140 ; 1.7765229336079042E7 ; 2.0101452651358303E8 ; 2.5282666158099394E9 ; 2.647088013987561E10 ; 0.0
141 ; 1.774135328821156E7 ; 2.0101930422307566E8 ; 2.5460318451460185E9 ; 2.6671894666389194E10 ; 0.0
142 ; 1.7721462233699393E7 ; 2.0102406925801113E8 ; 2.56377319843423E9 ; 2.687291397061227E10 ; 0.0
143 ; 1.7699939817913726E7 ; 2.0102882150766477E8 ; 2.581494660667929E9 ; 2.707393803987028E10 ; 0.0
144 ; 1.7678429179817863E7 ; 2.0103356086212662E8 ; 2.5991946004858427E9 ; 2.7274966861377945E10 ; 0.0
145 ; 1.7663497373226956E7 ; 2.010382872122833E8 ; 2.6168730296656604E9 ; 2.747600042224007E10 ; 0.0
146 ; 1.7645727312286768E7 ; 2.0104300044980067E8 ; 2.6345365270388875E9 ; 2.7677038709452354E10 ; 0.0
147 ; 1.7635440071938727E7 ; 2.010477004671072E8 ; 2.6521822543511744E9 ; 2.7878081709902157E10 ; 0.0
148 ; 1.7617713573098883E7 ; 2.0105238715737817E8 ; 2.669817694423113E9 ; 2.8079129410369263E10 ; 0.0
149 ; 1.7603990872346263E7 ; 2.0105706041452062E8 ; 2.6874354079962115E9 ; 2.828018179752664E10 ; 0.0
150 ; 1.758439529317523E7 ; 2.0106172013315898E8 ; 2.705039398868558E9 ; 2.8481238857941162E10 ; 0.0
151 ; 1.7568774604445323E7 ; 2.0106636620862132E8 ; 2.722623794161733E9 ; 2.868230057807432E10 ; 0.0
152 ; 1.755830696366634E7 ; 2.0107099853692624E8 ; 2.7401925687661786E9 ; 2.8883366944282944E10 ; 0.0
153 ; 1.7542364725386333E7 ; 2.010756170147704E8 ; 2.757750875729845E9 ; 2.908443794281987E10 ; 0.0
154 ; 1.752523689225781E7 ; 2.010802215395165E8 ; 2.775293240455231E9 ; 2.928551355983464E10 ; 0.0
155 ; 1.750976349837476E7 ; 2.0108481200918216E8 ; 2.792818477347489E9 ; 2.9486593781374157E10 ; 0.0
156 ; 1.7493623311235316E7 ; 2.0108938832242867E8 ; 2.810328240845864E9 ; 2.968767859338334E10 ; 0.0
157 ; 1.7476877142565187E7 ; 2.0109395037855086E8 ; 2.8278218641570992E9 ; 2.988876798170577E10 ; 0.0
158 ; 1.7462161628607444E7 ; 2.0109849807746714E8 ; 2.8452987412996645E9 ; 3.008986193208432E10 ; 0.0
159 ; 1.7443450615849417E7 ; 2.0110303131971005E8 ; 2.862760902928272E9 ; 3.029096043016179E10 ; 0.0
160 ; 1.7426489123568807E7 ; 2.0110755000641716E8 ; 2.8802043535441213E9 ; 3.04920634614815E10 ; 0.0
161 ; 1.741059529761621E7 ; 2.0111205403932253E8 ; 2.8976308426676903E9 ; 3.0693171011487915E10 ; 0.0
162 ; 1.7392691518274315E7 ; 2.011165433207484E8 ; 2.9150414379653063E9 ; 3.0894283065527237E10 ; 0.0
163 ; 1.7374987954735734E7 ; 2.0112101775359738E8 ; 2.9324341294835806E9 ; 3.1095399608847984E10 ; 0.0
164 ; 1.7362000117033377E7 ; 2.01125477241345E8 ; 2.9498091174383163E9 ; 3.129652062660158E10 ; 0.0
165 ; 1.7347415413508426E7 ; 2.0112992168803236E8 ; 2.96717111755535E9 ; 3.1497646103842926E10 ; 0.0
166 ; 1.7331465079453446E7 ; 2.0113435099825945E8 ; 2.9845185329688582E9 ; 3.169877602553096E10 ; 0.0
167 ; 1.7310810183425054E7 ; 2.0113876507717857E8 ; 3.0018499980483117E9 ; 3.189991037652922E10 ; 0.0
168 ; 1.72936549114273E7 ; 2.0114316383048812E8 ; 3.0191608082317367E9 ; 3.21010491416064E10 ; 0.0
169 ; 1.7277713735461254E7 ; 2.0114754716442654E8 ; 3.036454463143164E9 ; 3.2302192305436886E10 ; 0.0
170 ; 1.7258321060834978E7 ; 2.011519149857668E8 ; 3.0537321768786254E9 ; 3.250333985260131E10 ; 0.0
171 ; 1.7244607056137174E7 ; 2.0115626720181084E8 ; 3.0709904979394603E9 ; 3.270449176758708E10 ; 0.0
172 ; 1.722269938581234E7 ; 2.0116060372038445E8 ; 3.0882351049955974E9 ; 3.2905648034788887E10 ; 0.0
173 ; 1.720949273112228E7 ; 2.011649244498323E8 ; 3.1054578043814096E9 ; 3.310680863850927E10 ; 0.0
174 ; 1.7200782094808165E7 ; 2.0116922929901335E8 ; 3.122667297112532E9 ; 3.3307973562959103E10 ; 0.0
175 ; 1.7192696620460022E7 ; 2.011735181772962E8 ; 3.1398680792073402E9 ; 3.3509142792258118E10 ; 0.0
176 ; 1.718272027797604E7 ; 2.011777909945549E8 ; 3.1570607758278003E9 ; 3.3710316310435413E10 ; 0.0
177 ; 1.716871091349678E7 ; 2.011820476611649E8 ; 3.1742434961057763E9 ; 3.391149410142997E10 ; 0.0
178 ; 1.7160802257922452E7 ; 2.0118628808799902E8 ; 3.1914122070192733E9 ; 3.4112676149091133E10 ; 0.0
179 ; 1.7148080338984497E7 ; 2.0119051218642393E8 ; 3.208573009277196E9 ; 3.431386243717913E10 ; 0.0
180 ; 1.714024431885022E7 ; 2.0119471986829647E8 ; 3.2257210896161804E9 ; 3.4515052949365555E10 ; 0.0
181 ; 1.712577771549992E7 ; 2.011989110459604E8 ; 3.2428613339350305E9 ; 3.471624766923385E10 ; 0.0
182 ; 1.7114841227668382E7 ; 2.012030856322431E8 ; 3.2599871116505303E9 ; 3.491744658027981E10 ; 0.0
183 ; 1.7104963694912646E7 ; 2.0120724354045257E8 ; 3.2771019528781986E9 ; 3.511864966591205E10 ; 0.0
184 ; 1.7094273027646042E7 ; 2.012113846843746E8 ; 3.294206916573111E9 ; 3.53198569094525E10 ; 0.0
185 ; 1.7086894194314905E7 ; 2.0121550897826985E8 ; 3.311301189600757E9 ; 3.552106829413687E10 ; 0.0
186 ; 1.7077060266755775E7 ; 2.0121961633687145E8 ; 3.328388083795072E9 ; 3.572228380311514E10 ; 0.0
187 ; 1.7065256987404313E7 ; 2.0122370667538232E8 ; 3.3454651440618277E9 ; 3.592350341945201E10 ; 0.0
188 ; 1.7056280460500073E7 ; 2.0122777990947294E8 ; 3.362530401049232E9 ; 3.6124727126127396E10 ; 0.0
189 ; 1.7047113117350135E7 ; 2.0123183595527902E8 ; 3.3795866815097322E9 ; 3.6325954906036865E10 ; 0.0
190 ; 1.7035746290795777E7 ; 2.0123587472939944E8 ; 3.3966337946270823E9 ; 3.652718674199214E10 ; 0.0
191 ; 1.7026251105267256E7 ; 2.0123989614889425E8 ; 3.413669540917878E9 ; 3.672842261672154E10 ; 0.0
192 ; 1.701395926001394E7 ; 2.0124390013128263E8 ; 3.430695792023145E9 ; 3.692966251287044E10 ; 0.0
193 ; 1.700364888968043E7 ; 2.012478865945413E8 ; 3.4477097512831593E9 ; 3.713090641300172E10 ; 0.0
194 ; 1.699826904751612E7 ; 2.0125185545710266E8 ; 3.4647134001728396E9 ; 3.733215429959626E10 ; 0.0
195 ; 1.6981942910620444E7 ; 2.0125580663785324E8 ; 3.481711669220356E9 ; 3.753340615505336E10 ; 0.0
