CSV File for the City 1 on Day 188
1 - Minute m 
2 - Power Consumed at minute m 
3 - Power Produced at minute m 
4 - Energy Consumed since the beginning of the day 
5 - Energy Produced since the beginning of the day 
6 - Energy Lost since the beginning of the day on lines starting from the city
 
0 ; 2601881.5295030028 ; 1.0545712890991113E8 ; 0.0 ; 0.0 ; 0.0
1 ; 2623835.1165501033 ; 1.056099972790178E8 ; 2601881.5295030028 ; 1.0545712890991113E8 ; 0.0
2 ; 2633925.12718216 ; 1.0607165412766084E8 ; 5225716.646053106 ; 2.1106712618892893E8 ; 0.0
3 ; 2655267.0853498783 ; 1.068421015227381E8 ; 7859641.773235265 ; 3.171387803165898E8 ; 0.0
4 ; 2680692.899813364 ; 1.0792134132668209E8 ; 1.0514908858585143E7 ; 4.239808818393279E8 ; 0.0
5 ; 2709093.6303514764 ; 1.0930937518377864E8 ; 1.3195601758398507E7 ; 5.3190222316600996E8 ; 0.0
6 ; 2751318.7344275457 ; 1.1100620450777301E8 ; 1.5904695388749983E7 ; 6.412115983497887E8 ; 0.0
7 ; 2802860.1628030823 ; 1.130118304709776E8 ; 1.865601412317753E7 ; 7.522178028575617E8 ; 0.0
8 ; 2876732.0977756535 ; 1.1532625399507213E8 ; 2.1458874285980612E7 ; 8.652296333285394E8 ; 0.0
9 ; 2994334.679835596 ; 1.1794947574376369E8 ; 2.4335606383756265E7 ; 9.805558873236115E8 ; 0.0
10 ; 3181548.4491292555 ; 1.208814961174429E8 ; 2.732994106359186E7 ; 1.0985053630673752E9 ; 0.0
11 ; 3467745.582748827 ; 1.2412231524993655E8 ; 3.0511489512721114E7 ; 1.219386859184818E9 ; 0.0
12 ; 3930839.0499215084 ; 1.2767193300741783E8 ; 3.3979235095469944E7 ; 1.3435091744347546E9 ; 0.0
13 ; 4382597.8980059875 ; 1.3153034898949611E8 ; 3.791007414539145E7 ; 1.4711811074421725E9 ; 0.0
14 ; 4432681.497889948 ; 1.3569756253246439E8 ; 4.2292672043397434E7 ; 1.6027114564316688E9 ; 0.0
15 ; 4455816.931855032 ; 1.4017357271464282E8 ; 4.6725353541287385E7 ; 1.7384090189641333E9 ; 0.0
16 ; 4473347.586648714 ; 1.4495837836371914E8 ; 5.1181170473142415E7 ; 1.878582591678776E9 ; 0.0
17 ; 4495759.837367137 ; 1.5005197806594798E8 ; 5.565451805979113E7 ; 2.0235409700424953E9 ; 0.0
18 ; 4517453.138592655 ; 1.5545437017704356E8 ; 6.015027789715827E7 ; 2.1735929481084433E9 ; 0.0
19 ; 4537328.854667712 ; 1.6116555283457336E8 ; 6.4667731035750926E7 ; 2.3290473182854867E9 ; 0.0
20 ; 4562629.80224855 ; 1.6718552397163948E8 ; 6.920505989041863E7 ; 2.49021287112006E9 ; 0.0
21 ; 4585069.5353057925 ; 1.7351428133162352E8 ; 7.376768969266719E7 ; 2.6573983950916996E9 ; 0.0
22 ; 4604249.690987234 ; 1.8015182248376185E8 ; 7.835275922797298E7 ; 2.830912676423323E9 ; 0.0
23 ; 4630480.524821191 ; 1.8709814483931756E8 ; 8.295700891896021E7 ; 3.011064498907085E9 ; 0.0
24 ; 4646864.702946968 ; 1.9435324566812128E8 ; 8.75874894437814E7 ; 3.1981626437464027E9 ; 0.0
25 ; 4673568.577174301 ; 2.0060516301344466E8 ; 9.223435414672837E7 ; 3.392515889414524E9 ; 0.0
26 ; 4693611.396998529 ; 2.0060744174553117E8 ; 9.690792272390267E7 ; 3.593121052427969E9 ; 0.0
27 ; 4713352.274457338 ; 2.0060984810289222E8 ; 1.016015341209012E8 ; 3.7937284941735E9 ; 0.0
28 ; 4737838.5811819965 ; 2.0061237895506278E8 ; 1.0631488639535853E8 ; 3.9943383422763925E9 ; 0.0
29 ; 4760028.391513722 ; 2.006150311112754E8 ; 1.1105272497654054E8 ; 4.1949507212314553E9 ; 0.0
30 ; 4776993.78781414 ; 2.0061780133521208E8 ; 1.1581275336805426E8 ; 4.3955657523427305E9 ; 0.0
31 ; 4801818.991460157 ; 2.0062068635897902E8 ; 1.205897471558684E8 ; 4.596183553677942E9 ; 0.0
32 ; 4821046.007391215 ; 2.00623682896227E8 ; 1.2539156614732856E8 ; 4.7968042400369215E9 ; 0.0
33 ; 4838487.04393409 ; 2.0062678765436125E8 ; 1.3021261215471977E8 ; 4.997427922933148E9 ; 0.0
34 ; 4859868.718312532 ; 2.0062999734580365E8 ; 1.3505109919865385E8 ; 5.198054710587509E9 ; 0.0
35 ; 4877175.9892124105 ; 2.0063330869828922E8 ; 1.3991096791696638E8 ; 5.398684707933312E9 ; 0.0
36 ; 4895504.123683996 ; 2.0063671846419355E8 ; 1.447881439061788E8 ; 5.599318016631601E9 ; 0.0
37 ; 4915471.169376466 ; 2.0064022342890295E8 ; 1.496836480298628E8 ; 5.799954735095795E9 ; 0.0
38 ; 4935242.05092583 ; 2.0064382041824916E8 ; 1.5459911919923925E8 ; 6.000594958524697E9 ; 0.0
39 ; 4946213.181881256 ; 2.0064750630504212E8 ; 1.5953436125016508E8 ; 6.201238778942946E9 ; 0.0
40 ; 4961366.575975126 ; 2.006512780147402E8 ; 1.6448057443204632E8 ; 6.401886285247989E9 ; 0.0
41 ; 4980540.832893823 ; 2.006551325303044E8 ; 1.6944194100802144E8 ; 6.602537563262729E9 ; 0.0
42 ; 4992651.717815221 ; 2.0065906689628625E8 ; 1.7442248184091526E8 ; 6.803192695793033E9 ; 0.0
43 ; 5009651.650784199 ; 2.00663078222203E8 ; 1.7941513355873048E8 ; 7.003851762689319E9 ; 0.0
44 ; 5020852.567081998 ; 2.0066716368525404E8 ; 1.8442478520951468E8 ; 7.204514840911522E9 ; 0.0
45 ; 5033858.620761329 ; 2.0067132053243345E8 ; 1.8944563777659667E8 ; 7.405182004596776E9 ; 0.0
46 ; 5047238.719521233 ; 2.006755460820932E8 ; 1.94479496397358E8 ; 7.6058533251292095E9 ; 0.0
47 ; 5054924.503475656 ; 2.0067983772500938E8 ; 1.9952673511687922E8 ; 7.806528871211303E9 ; 0.0
48 ; 5066383.61428548 ; 2.006841929250031E8 ; 2.045816596203549E8 ; 8.007208708936312E9 ; 0.0
49 ; 5072412.462379068 ; 2.006886092191643E8 ; 2.0964804323464036E8 ; 8.207892901861315E9 ; 0.0
50 ; 5084107.2262101425 ; 2.0069308421772474E8 ; 2.1472045569701943E8 ; 8.408581511080479E9 ; 0.0
51 ; 5096202.935841113 ; 2.0069761560362318E8 ; 2.1980456292322958E8 ; 8.609274595298203E9 ; 0.0
52 ; 5099370.382790643 ; 2.007022011318033E8 ; 2.249007658590707E8 ; 8.809972210901825E9 ; 0.0
53 ; 5105059.117711125 ; 2.0070683862828076E8 ; 2.3000013624186134E8 ; 9.010674412033628E9 ; 0.0
54 ; 5113440.747226404 ; 2.0071152598901406E8 ; 2.3510519535957247E8 ; 9.21138125066191E9 ; 0.0
55 ; 5125462.943056844 ; 2.0071626117861E8 ; 2.402186361067989E8 ; 9.412092776650923E9 ; 0.0
56 ; 5127917.323196151 ; 2.0072104222889176E8 ; 2.4534409904985574E8 ; 9.612809037829533E9 ; 0.0
57 ; 5136335.630305655 ; 2.0072586723735538E8 ; 2.5047201637305188E8 ; 9.813530080058424E9 ; 0.0
58 ; 5143703.701132201 ; 2.0073073436553687E8 ; 2.5560835200335753E8 ; 1.001425594729578E10 ; 0.0
59 ; 5151287.414269956 ; 2.0073564183731067E8 ; 2.6075205570448974E8 ; 1.0214986681661318E10 ; 0.0
60 ; 5158291.8892349005 ; 2.0074058793713734E8 ; 2.659033431187597E8 ; 1.0415722323498629E10 ; 0.0
61 ; 5161693.487338662 ; 2.0074557100827613E8 ; 2.710616350079946E8 ; 1.0616462911435766E10 ; 0.0
62 ; 5174457.522502709 ; 2.007505894509767E8 ; 2.7622332849533325E8 ; 1.0817208482444042E10 ; 0.0
63 ; 5177574.522271823 ; 2.0075564172066188E8 ; 2.81397786017836E8 ; 1.101795907189502E10 ; 0.0
64 ; 5186106.828721515 ; 2.0076072632611185E8 ; 2.865753605401078E8 ; 1.121871471361568E10 ; 0.0
65 ; 5189713.261994783 ; 2.007658418276592E8 ; 2.917614673688293E8 ; 1.1419475439941793E10 ; 0.0
66 ; 5195997.57085193 ; 2.0077098683540195E8 ; 2.969511806308241E8 ; 1.1620241281769453E10 ; 0.0
67 ; 5197619.353850596 ; 2.0077616000744167E8 ; 3.02147178201676E8 ; 1.1821012268604855E10 ; 0.0
68 ; 5209220.812642133 ; 2.0078136004815146E8 ; 3.073447975555266E8 ; 1.2021788428612297E10 ; 0.0
69 ; 5213564.859675061 ; 2.0078658570647877E8 ; 3.125540183681688E8 ; 1.2222569788660448E10 ; 0.0
70 ; 5217303.478255353 ; 2.0079183577428663E8 ; 3.177675832278438E8 ; 1.2423356374366926E10 ; 0.0
71 ; 5224965.724681749 ; 2.007971090847357E8 ; 3.2298488670609915E8 ; 1.2624148210141212E10 ; 0.0
72 ; 5231814.940449487 ; 2.0080240451071012E8 ; 3.282098524307809E8 ; 1.2824945319225948E10 ; 0.0
73 ; 5233155.019024774 ; 2.008077209632884E8 ; 3.3344166737123036E8 ; 1.3025747723736658E10 ; 0.0
74 ; 5240475.138094953 ; 2.0081305739026022E8 ; 3.3867482239025515E8 ; 1.3226555444699947E10 ; 0.0
75 ; 5240427.41605647 ; 2.008184127746908E8 ; 3.439152975283501E8 ; 1.3427368502090208E10 ; 0.0
76 ; 5246125.301929487 ; 2.0082378613353223E8 ; 3.4915572494440657E8 ; 1.3628186914864899E10 ; 0.0
77 ; 5247289.143848086 ; 2.0082917651628235E8 ; 3.5440185024633604E8 ; 1.382901070099843E10 ; 0.0
78 ; 5253386.837376342 ; 2.0083458300369096E8 ; 3.596491393901841E8 ; 1.4029839877514713E10 ; 0.0
79 ; 5249016.504012655 ; 2.0084000470651272E8 ; 3.6490252622756046E8 ; 1.4230674460518404E10 ; 0.0
80 ; 5247844.24403217 ; 2.0084544076430622E8 ; 3.701515427315731E8 ; 1.4431514465224916E10 ; 0.0
81 ; 5245283.786029476 ; 2.0085089034427834E8 ; 3.7539938697560525E8 ; 1.4632359905989223E10 ; 0.0
82 ; 5244228.74290041 ; 2.0085635264017326E8 ; 3.806446707616347E8 ; 1.4833210796333502E10 ; 0.0
83 ; 5249304.2312186165 ; 2.008618268712045E8 ; 3.8588889950453514E8 ; 1.5034067148973675E10 ; 0.0
84 ; 5243878.15014955 ; 2.0086731228102976E8 ; 3.911382037357538E8 ; 1.523492897584488E10 ; 0.0
85 ; 5244920.455290249 ; 2.0087280813676646E8 ; 3.963820818859033E8 ; 1.543579628812591E10 ; 0.0
86 ; 5238725.80897553 ; 2.0087831372804734E8 ; 4.0162700234119356E8 ; 1.5636669096262676E10 ; 0.0
87 ; 5237076.049338129 ; 2.0088382836611488E8 ; 4.068657281501691E8 ; 1.5837547409990723E10 ; 0.0
88 ; 5232868.352904556 ; 2.00889351382953E8 ; 4.121028041995072E8 ; 1.6038431238356838E10 ; 0.0
89 ; 5233490.692409579 ; 2.0089488213045466E8 ; 4.1733567255241174E8 ; 1.6239320589739792E10 ; 0.0
90 ; 5230267.192795242 ; 2.009004199796248E8 ; 4.225691632448213E8 ; 1.6440215471870247E10 ; 0.0
91 ; 5232641.048858406 ; 2.0090596431981647E8 ; 4.277994304376165E8 ; 1.6641115891849873E10 ; 0.0
92 ; 5224320.2701567095 ; 2.0091151455799922E8 ; 4.3303207148647493E8 ; 1.684202185616969E10 ; 0.0
93 ; 5224191.50309911 ; 2.0091707011805898E8 ; 4.382563917566316E8 ; 1.7042933370727688E10 ; 0.0
94 ; 5222691.439946986 ; 2.0092263044012743E8 ; 4.434805832597307E8 ; 1.7243850440845745E10 ; 0.0
95 ; 5218510.9874563925 ; 2.0092819497994012E8 ; 4.487032746996777E8 ; 1.7444773071285873E10 ; 0.0
96 ; 5215414.983705697 ; 2.0093376320822215E8 ; 4.539217856871341E8 ; 1.7645701266265812E10 ; 0.0
97 ; 5210150.327237843 ; 2.0093933461010024E8 ; 4.591372006708398E8 ; 1.7846635029474033E10 ; 0.0
98 ; 5206623.026122529 ; 2.0094490868454E8 ; 4.6434735099807763E8 ; 1.8047574364084133E10 ; 0.0
99 ; 5205040.526764965 ; 2.0095048494380754E8 ; 4.6955397402420014E8 ; 1.8248519272768673E10 ; 0.0
100 ; 5203263.259262269 ; 2.009560629129541E8 ; 4.7475901455096513E8 ; 1.844946975771248E10 ; 0.0
101 ; 5197181.691784072 ; 2.0096164212932304E8 ; 4.799622778102274E8 ; 1.865042582062543E10 ; 0.0
102 ; 5192509.332981254 ; 2.0096722214207798E8 ; 4.851594595020115E8 ; 1.8851387462754753E10 ; 0.0
103 ; 5186912.093487692 ; 2.0097280251175123E8 ; 4.903519688349927E8 ; 1.905235468489683E10 ; 0.0
104 ; 5187502.449501294 ; 2.0097838280981183E8 ; 4.955388809284804E8 ; 1.9253327487408585E10 ; 0.0
105 ; 5180377.584725979 ; 2.009839626182518E8 ; 5.0072638337798166E8 ; 1.9454305870218395E10 ; 0.0
106 ; 5177234.202735672 ; 2.0098954152919057E8 ; 5.0590676096270764E8 ; 1.9655289832836647E10 ; 0.0
107 ; 5167209.853233464 ; 2.0099511914449614E8 ; 5.110839951654433E8 ; 1.9856279374365837E10 ; 0.0
108 ; 5168003.097708917 ; 2.0100069507542244E8 ; 5.1625120501867676E8 ; 2.0057274493510334E10 ; 0.0
109 ; 5164409.084628812 ; 2.010062689422623E8 ; 5.214192081163857E8 ; 2.025827518858576E10 ; 0.0
110 ; 5157363.731875748 ; 2.010118403740151E8 ; 5.265836172010145E8 ; 2.045928145752802E10 ; 0.0
111 ; 5154734.61345898 ; 2.0101740900806874E8 ; 5.317409809328903E8 ; 2.0660293297902035E10 ; 0.0
112 ; 5144196.530965546 ; 2.0102297448989493E8 ; 5.368957155463493E8 ; 2.0861310706910103E10 ; 0.0
113 ; 5143484.202600736 ; 2.0102853647275746E8 ; 5.420399120773149E8 ; 2.1062333681399998E10 ; 0.0
114 ; 5137910.630314913 ; 2.0103409461743283E8 ; 5.471833962799156E8 ; 2.1263362217872757E10 ; 0.0
115 ; 5128043.2165803695 ; 2.010396485919426E8 ; 5.523213069102305E8 ; 2.146439631249019E10 ; 0.0
116 ; 5128490.849696954 ; 2.0104519807129708E8 ; 5.574493501268109E8 ; 2.166543596108213E10 ; 0.0
117 ; 5122769.198923025 ; 2.0105074273724958E8 ; 5.625778409765079E8 ; 2.1866481159153427E10 ; 0.0
118 ; 5114314.299114811 ; 2.0105628227806106E8 ; 5.677006101754309E8 ; 2.206753190189068E10 ; 0.0
119 ; 5107115.125845484 ; 2.010618163882747E8 ; 5.728149244745457E8 ; 2.226858818416874E10 ; 0.0
120 ; 5099099.500977506 ; 2.010673447684995E8 ; 5.779220396003911E8 ; 2.2469650000557014E10 ; 0.0
121 ; 5096716.870560707 ; 2.0107286712520313E8 ; 5.830211391013687E8 ; 2.2670717345325516E10 ; 0.0
122 ; 5088863.763325747 ; 2.0107838317051318E8 ; 5.881178559719294E8 ; 2.2871790212450718E10 ; 0.0
123 ; 5078757.459362618 ; 2.0108389262202668E8 ; 5.932067197352551E8 ; 2.307286859562123E10 ; 0.0
124 ; 5073441.055849573 ; 2.010893952026273E8 ; 5.982854771946177E8 ; 2.327395248824326E10 ; 0.0
125 ; 5069023.426893685 ; 2.0109489064031005E8 ; 6.033589182504673E8 ; 2.347504188344589E10 ; 0.0
126 ; 5060302.728272898 ; 2.0110037866801324E8 ; 6.08427941677361E8 ; 2.3676136774086197E10 ; 0.0
127 ; 5056512.687893915 ; 2.011058590234571E8 ; 6.134882444056339E8 ; 2.387723715275421E10 ; 0.0
128 ; 5044920.904559695 ; 2.0111133144898897E8 ; 6.185447570935278E8 ; 2.4078343011777668E10 ; 0.0
129 ; 5040380.615032256 ; 2.0111679569143465E8 ; 6.235896779980875E8 ; 2.4279454343226658E10 ; 0.0
130 ; 5030021.328985744 ; 2.011222515019559E8 ; 6.286300586131198E8 ; 2.448057113891809E10 ; 0.0
131 ; 5021976.5731197065 ; 2.011276986359135E8 ; 6.336600799421055E8 ; 2.4681693390420048E10 ; 0.0
132 ; 5005830.326868607 ; 2.0113313685273567E8 ; 6.386820565152253E8 ; 2.488282108905596E10 ; 0.0
133 ; 4990077.692489852 ; 2.0113856591579187E8 ; 6.43687886842094E8 ; 2.50839542259087E10 ; 0.0
134 ; 4976306.587131551 ; 2.011439855922716E8 ; 6.486779645345838E8 ; 2.528509279182449E10 ; 0.0
135 ; 4966174.693767564 ; 2.011493956530678E8 ; 6.536542711217153E8 ; 2.548623677741676E10 ; 0.0
136 ; 4951082.801007425 ; 2.0115479587266493E8 ; 6.586204458154829E8 ; 2.5687386173069828E10 ; 0.0
137 ; 4934289.696083651 ; 2.0116018602903146E8 ; 6.635715286164902E8 ; 2.5888540968942493E10 ; 0.0
138 ; 4925635.198281066 ; 2.011655659035164E8 ; 6.685058183125739E8 ; 2.6089701154971523E10 ; 0.0
139 ; 4914085.088524378 ; 2.0117093528075016E8 ; 6.73431453510855E8 ; 2.629086672087504E10 ; 0.0
140 ; 4895038.472727102 ; 2.0117629394854864E8 ; 6.783455385993793E8 ; 2.649203765615579E10 ; 0.0
141 ; 4880687.211067754 ; 2.0118164169782174E8 ; 6.832405770721064E8 ; 2.6693213950104336E10 ; 0.0
142 ; 4863760.035863745 ; 2.0118697832248482E8 ; 6.881212642831742E8 ; 2.689439559180216E10 ; 0.0
143 ; 4853299.119325848 ; 2.0119230361937374E8 ; 6.929850243190379E8 ; 2.709558257012464E10 ; 0.0
144 ; 4835474.423396797 ; 2.0119761738816327E8 ; 6.978383234383638E8 ; 2.7296774873744015E10 ; 0.0
145 ; 4830617.575130671 ; 2.0120291943128827E8 ; 7.026737978617606E8 ; 2.749797249113218E10 ; 0.0
146 ; 4822464.952295315 ; 2.0120820955386817E8 ; 7.075044154368913E8 ; 2.769917541056347E10 ; 0.0
147 ; 4815473.282161569 ; 2.0121348756363404E8 ; 7.123268803891866E8 ; 2.7900383620117336E10 ; 0.0
148 ; 4808172.856905901 ; 2.0121875327085856E8 ; 7.171423536713482E8 ; 2.810159710768097E10 ; 0.0
149 ; 4799623.197453103 ; 2.012240064882885E8 ; 7.219505265282542E8 ; 2.8302815860951828E10 ; 0.0
150 ; 4791269.814417235 ; 2.0122924703107983E8 ; 7.267501497257073E8 ; 2.8504039867440117E10 ; 0.0
151 ; 4783059.482460322 ; 2.01234474716735E8 ; 7.315414195401245E8 ; 2.8705269114471195E10 ; 0.0
152 ; 4780637.910230389 ; 2.0123968936504287E8 ; 7.363244790225849E8 ; 2.890650358918793E10 ; 0.0
153 ; 4766896.831087953 ; 2.0124489079802054E8 ; 7.411051169328153E8 ; 2.9107743278552975E10 ; 0.0
154 ; 4761743.660088331 ; 2.0125007883985752E8 ; 7.458720137639033E8 ; 2.9308988169350994E10 ; 0.0
155 ; 4747386.781177023 ; 2.0125525331686178E8 ; 7.506337574239916E8 ; 2.9510238248190853E10 ; 0.0
156 ; 4745459.0341523625 ; 2.012604140574079E8 ; 7.553811442051686E8 ; 2.9711493501507713E10 ; 0.0
157 ; 4737334.471894959 ; 2.0126556089188704E8 ; 7.60126603239321E8 ; 2.991275391556512E10 ; 0.0
158 ; 4726144.7541131005 ; 2.012706936526587E8 ; 7.64863937711216E8 ; 3.011401947645701E10 ; 0.0
159 ; 4719171.500775751 ; 2.0127581217400426E8 ; 7.69590082465329E8 ; 3.031529017010967E10 ; 0.0
160 ; 4713082.228791104 ; 2.0128091629208207E8 ; 7.743092539661047E8 ; 3.0516565982283672E10 ; 0.0
161 ; 4700142.164547223 ; 2.0128600584488437E8 ; 7.790223361948959E8 ; 3.0717846898575756E10 ; 0.0
162 ; 4695491.36225916 ; 2.0129108067219552E8 ; 7.837224783594431E8 ; 3.091913290442064E10 ; 0.0
163 ; 4687678.741119613 ; 2.012961406155519E8 ; 7.884179697217022E8 ; 3.1120423985092834E10 ; 0.0
164 ; 4681302.8612334 ; 2.0130118551820293E8 ; 7.931056484628218E8 ; 3.1321720125708385E10 ; 0.0
165 ; 4671969.506934517 ; 2.01306215225074E8 ; 7.977869513240552E8 ; 3.152302131122659E10 ; 0.0
166 ; 4670791.043274164 ; 2.0131122958273E8 ; 8.024589208309897E8 ; 3.1724327526451664E10 ; 0.0
167 ; 4655923.690901816 ; 2.0131622843934077E8 ; 8.071297118742639E8 ; 3.1925638756034393E10 ; 0.0
168 ; 4649302.890815454 ; 2.0132121164464742E8 ; 8.117856355651658E8 ; 3.2126954984473736E10 ; 0.0
169 ; 4643843.34167528 ; 2.0132617904992983E8 ; 8.164349384559813E8 ; 3.232827619611838E10 ; 0.0
170 ; 4628490.834660711 ; 2.013311305079754E8 ; 8.210787817976565E8 ; 3.2529602375168312E10 ; 0.0
171 ; 4625099.369537985 ; 2.0133606587304878E8 ; 8.257072726323173E8 ; 3.273093350567629E10 ; 0.0
172 ; 4613867.526127359 ; 2.0134098500086278E8 ; 8.303323720018553E8 ; 3.293226957154934E10 ; 0.0
173 ; 4602691.198766613 ; 2.0134588774855E8 ; 8.349462395279826E8 ; 3.31336105565502E10 ; 0.0
174 ; 4601456.620308031 ; 2.0135077397463584E8 ; 8.395489307267492E8 ; 3.333495644429875E10 ; 0.0
175 ; 4594867.154998226 ; 2.0135564353901207E8 ; 8.441503873470572E8 ; 3.3536307218273388E10 ; 0.0
176 ; 4594044.348497761 ; 2.013604963029115E8 ; 8.487452545020554E8 ; 3.37376628618124E10 ; 0.0
177 ; 4583740.824398612 ; 2.0136533212888342E8 ; 8.533392988505532E8 ; 3.393902335811531E10 ; 0.0
178 ; 4581554.878341909 ; 2.0137015088076997E8 ; 8.579230396749518E8 ; 3.4140388690244194E10 ; 0.0
179 ; 4571900.17899799 ; 2.0137495242368317E8 ; 8.625045945532937E8 ; 3.4341758841124966E10 ; 0.0
180 ; 4564493.653418434 ; 2.013797366239829E8 ; 8.670764947322917E8 ; 3.4543133793548645E10 ; 0.0
181 ; 4563217.047125833 ; 2.0138450334925547E8 ; 8.716409883857101E8 ; 3.474451353017263E10 ; 0.0
182 ; 4558124.098820914 ; 2.0138925246829295E8 ; 8.762042054328359E8 ; 3.494589803352189E10 ; 0.0
183 ; 4550286.173782702 ; 2.0139398385107324E8 ; 8.807623295316569E8 ; 3.514728728599018E10 ; 0.0
184 ; 4542012.405451914 ; 2.0139869736874077E8 ; 8.853126157054396E8 ; 3.5348681269841255E10 ; 0.0
185 ; 4539632.170119337 ; 2.014033928935879E8 ; 8.898546281108915E8 ; 3.555007996721E10 ; 0.0
186 ; 4530549.542869657 ; 2.014080702990367E8 ; 8.943942602810107E8 ; 3.5751483360103584E10 ; 0.0
187 ; 4520841.28122032 ; 2.0141272945962188E8 ; 8.989248098238804E8 ; 3.595289143040262E10 ; 0.0
188 ; 4519281.285260647 ; 2.0141737025097346E8 ; 9.034456511051008E8 ; 3.615430415986224E10 ; 0.0
189 ; 4509696.27915607 ; 2.014219925498009E8 ; 9.079649323903614E8 ; 3.635572153011322E10 ; 0.0
190 ; 4503702.408375067 ; 2.0142659623387706E8 ; 9.124746286695175E8 ; 3.6557143522663025E10 ; 0.0
191 ; 4498462.449371161 ; 2.0143118118202317E8 ; 9.169783310778925E8 ; 3.6758570118896904E10 ; 0.0
192 ; 4499951.155342546 ; 2.014357472740938E8 ; 9.214767935272638E8 ; 3.6960001300078926E10 ; 0.0
193 ; 4493379.880674431 ; 2.01440294390963E8 ; 9.259767446826063E8 ; 3.716143704735302E10 ; 0.0
194 ; 4482198.117059332 ; 2.0144482241451007E8 ; 9.304701245632808E8 ; 3.736287734174398E10 ; 0.0
195 ; 4480192.6933548 ; 2.0144933122760665E8 ; 9.349523226803402E8 ; 3.756432216415849E10 ; 0.0
196 ; 4472278.8237285 ; 2.0145382071410343E8 ; 9.39432515373695E8 ; 3.77657714953861E10 ; 0.0
197 ; 4466003.651015044 ; 2.0145829075881794E8 ; 9.439047941974235E8 ; 3.7967225316100204E10 ; 0.0
198 ; 4464693.292836214 ; 2.0146274124752232E8 ; 9.483707978484385E8 ; 3.8168683606859024E10 ; 0.0
199 ; 4454872.810586552 ; 2.0146717206693172E8 ; 9.528354911412747E8 ; 3.8370146348106544E10 ; 0.0
200 ; 4443947.194357779 ; 2.0147158310469297E8 ; 9.572903639518613E8 ; 3.857161352017348E10 ; 0.0
201 ; 4441107.575228744 ; 1.9260762024722618E8 ; 9.61734311146219E8 ; 3.877308510327817E10 ; 0.0
