CSV File for the City 4 on Day 193
1 - Minute m 
2 - Power Consumed at minute m 
3 - Power Produced at minute m 
4 - Energy Consumed since the beginning of the day 
5 - Energy Produced since the beginning of the day 
6 - Energy Lost since the beginning of the day on lines starting from the city
 
0 ; 876231.0216582379 ; 1.0591526025619277E8 ; 0.0 ; 0.0 ; 0.0
1 ; 882201.1132406959 ; 1.0606546838372254E8 ; 876231.0216582379 ; 1.0591526025619277E8 ; 0.0
2 ; 888721.431167795 ; 1.065247313540971E8 ; 1758432.1348989338 ; 2.1198072863991532E8 ; 0.0
3 ; 897087.7727270885 ; 1.0729305562050849E8 ; 2647153.566066729 ; 3.185054599940124E8 ; 0.0
4 ; 908788.9721683054 ; 1.0837044701153862E8 ; 3544241.3387938174 ; 4.257985156145209E8 ; 0.0
5 ; 922035.2817284598 ; 1.097569106839053E8 ; 4453030.310962123 ; 5.3416896262605953E8 ; 0.0
6 ; 935161.0441913595 ; 1.1145245107944122E8 ; 5375065.592690582 ; 6.439258733099649E8 ; 0.0
7 ; 961749.502940752 ; 1.1345707188711643E8 ; 6310226.636881942 ; 7.553783243894061E8 ; 0.0
8 ; 995096.3335966296 ; 1.157707760108468E8 ; 7271976.139822694 ; 8.688353962765225E8 ; 0.0
9 ; 1046250.7978794143 ; 1.1839356554373479E8 ; 8267072.473419324 ; 9.846061722873693E8 ; 0.0
10 ; 1126030.3451233585 ; 1.213254417492736E8 ; 9313323.271298738 ; 1.102999737831104E9 ; 0.0
11 ; 1249859.2648759237 ; 1.2456640504990765E8 ; 1.0439353616422096E7 ; 1.2243251795803776E9 ; 0.0
12 ; 1448425.6666696074 ; 1.281164550231925E8 ; 1.168921288129802E7 ; 1.3488915846302853E9 ; 0.0
13 ; 1637080.555597482 ; 1.3197559040563494E8 ; 1.3137638547967628E7 ; 1.4770080396534777E9 ; 0.0
14 ; 1659880.4506127846 ; 1.361438091041326E8 ; 1.477471910356511E7 ; 1.6089836300591125E9 ; 0.0
15 ; 1671951.7980798979 ; 1.4062110821476948E8 ; 1.6434599554177895E7 ; 1.7451274391632452E9 ; 0.0
16 ; 1680109.0934926085 ; 1.4540748404857567E8 ; 1.8106551352257792E7 ; 1.8857485473780146E9 ; 0.0
17 ; 1685307.8666163904 ; 1.5050293216371837E8 ; 1.97866604457504E7 ; 2.0311560314265902E9 ; 0.0
18 ; 1697575.0950953588 ; 1.559074474034798E8 ; 2.147196831236679E7 ; 2.1816589635903087E9 ; 0.0
19 ; 1706429.6214361258 ; 1.616210239392781E8 ; 2.316954340746215E7 ; 2.3375664109937887E9 ; 0.0
20 ; 1718024.9726931576 ; 1.6764365531792113E8 ; 2.4875973028898276E7 ; 2.499187434933067E9 ; 0.0
21 ; 1726027.4467007357 ; 1.7397533451224062E8 ; 2.6593998001591433E7 ; 2.666831090250988E9 ; 0.0
22 ; 1736935.8279241507 ; 1.8061605397423518E8 ; 2.832002544829217E7 ; 2.8408064247632284E9 ; 0.0
23 ; 1744592.3657675195 ; 1.875658056898613E8 ; 3.005696127621632E7 ; 3.0214224787374635E9 ; 0.0
24 ; 1757885.7573181097 ; 1.948245812346397E8 ; 3.180155364198384E7 ; 3.208988284427325E9 ; 0.0
25 ; 1765728.0143702717 ; 2.0108041272747838E8 ; 3.355943939930195E7 ; 3.4038128656619644E9 ; 0.0
26 ; 1774024.3469665728 ; 2.0108683892252347E8 ; 3.532516741367222E7 ; 3.604893278389443E9 ; 0.0
27 ; 1785571.5267679996 ; 2.010936197876928E8 ; 3.7099191760638796E7 ; 3.8059801173119664E9 ; 0.0
28 ; 1794332.9610203893 ; 2.0110074580319694E8 ; 3.8884763287406795E7 ; 4.007073737099659E9 ; 0.0
29 ; 1806120.7123758458 ; 2.0110820730418473E8 ; 4.067909624842718E7 ; 4.208174482902856E9 ; 0.0
30 ; 1814875.9586577315 ; 2.011159945274172E8 ; 4.248521696080303E7 ; 4.409282690207041E9 ; 0.0
31 ; 1823171.7430448455 ; 2.0112409765492538E8 ; 4.4300092919460766E7 ; 4.610398684734458E9 ; 0.0
32 ; 1830624.4844388163 ; 2.0113250685444507E8 ; 4.612326466250561E7 ; 4.811522782389383E9 ; 0.0
33 ; 1840590.8150864288 ; 2.0114121231649938E8 ; 4.7953889146944426E7 ; 5.012655289243829E9 ; 0.0
34 ; 1845989.8469200402 ; 2.0115020428806868E8 ; 4.979447996203086E7 ; 5.2137965015603285E9 ; 0.0
35 ; 1856411.9415936314 ; 2.0115947310284916E8 ; 5.16404698089509E7 ; 5.414946705848397E9 ; 0.0
36 ; 1861773.0151696375 ; 2.0116900920815393E8 ; 5.349688175054453E7 ; 5.616106178951246E9 ; 0.0
37 ; 1873331.6880477215 ; 2.011788031885539E8 ; 5.535865476571417E7 ; 5.8172751881594E9 ; 0.0
38 ; 1881617.197937872 ; 2.0118884578639072E8 ; 5.723198645376189E7 ; 6.018453991347954E9 ; 0.0
39 ; 1889059.3284525499 ; 2.0119912791932246E8 ; 5.911360365169976E7 ; 6.219642837134344E9 ; 0.0
40 ; 1897069.118222974 ; 2.0120964069508103E8 ; 6.100266298015231E7 ; 6.420841965053666E9 ; 0.0
41 ; 1902199.0912724987 ; 2.0122037542363548E8 ; 6.289973209837528E7 ; 6.622051605748747E9 ; 0.0
42 ; 1907147.221883877 ; 2.012313236269618E8 ; 6.480193118964778E7 ; 6.823271981172382E9 ; 0.0
43 ; 1915007.9290030203 ; 2.012424770466235E8 ; 6.670907841153166E7 ; 7.024503304799344E9 ; 0.0
44 ; 1919515.9618279673 ; 2.0125382764936617E8 ; 6.862408634053467E7 ; 7.225745781845967E9 ; 0.0
45 ; 1925488.099446821 ; 2.0126536763092396E8 ; 7.054360230236264E7 ; 7.426999609495334E9 ; 0.0
46 ; 1932577.2429892146 ; 2.0127708941822994E8 ; 7.246909040180945E7 ; 7.628264977126258E9 ; 0.0
47 ; 1937985.8310685852 ; 2.012889856702128E8 ; 7.440166764479867E7 ; 7.829542066544488E9 ; 0.0
48 ; 1940540.3942364333 ; 2.0130104927735183E8 ; 7.633965347586726E7 ; 8.030831052214701E9 ; 0.0
49 ; 1945798.9883018013 ; 2.0131327336015117E8 ; 7.828019387010369E7 ; 8.232132101492052E9 ; 0.0
50 ; 1951838.4229416875 ; 2.013256512666822E8 ; 8.022599285840549E7 ; 8.433445374852203E9 ; 0.0
51 ; 1955004.1127732112 ; 2.0133817656933144E8 ; 8.217783128134717E7 ; 8.634771026118885E9 ; 0.0
52 ; 1955415.0310307976 ; 2.013508430608778E8 ; 8.413283539412038E7 ; 8.836109202688217E9 ; 0.0
53 ; 1958514.485113492 ; 2.0136364475001395E8 ; 8.608825042515118E7 ; 9.037460045749096E9 ; 0.0
54 ; 1962570.9776527004 ; 2.0137657585641244E8 ; 8.804676491026467E7 ; 9.23882369049911E9 ; 0.0
55 ; 1967681.1556156094 ; 2.0138963080542833E8 ; 9.000933588791737E7 ; 9.440200266355522E9 ; 0.0
56 ; 1970032.8070839096 ; 2.0140280422251952E8 ; 9.197701704353298E7 ; 9.64158989716095E9 ; 0.0
57 ; 1972382.7967351356 ; 2.0141609092745623E8 ; 9.394704985061689E7 ; 9.842992701383469E9 ; 0.0
58 ; 1976532.600796048 ; 2.0142948592838266E8 ; 9.591943264735202E7 ; 1.0044408792310925E10 ; 0.0
59 ; 1981554.313295473 ; 2.0144298441578582E8 ; 9.789596524814807E7 ; 1.0245838278239307E10 ; 0.0
60 ; 1983624.5621530833 ; 2.0145658175641897E8 ; 9.987751956144354E7 ; 1.0447281262655094E10 ; 0.0
61 ; 1988040.3914589281 ; 2.014702734872209E8 ; 1.0186114412359662E8 ; 1.0648737844411512E10 ; 0.0
62 ; 1989221.5462161223 ; 2.0148405530926585E8 ; 1.0384918451505555E8 ; 1.0850208117898733E10 ; 0.0
63 ; 1994243.5737492477 ; 2.0149792308177385E8 ; 1.0583840606127167E8 ; 1.1051692173207998E10 ; 0.0
64 ; 1995696.7494964593 ; 2.0151187281620607E8 ; 1.0783264963502091E8 ; 1.1253190096289772E10 ; 0.0
65 ; 1997002.3490236707 ; 2.0152590067046607E8 ; 1.0982834638451737E8 ; 1.1454701969105978E10 ; 0.0
66 ; 2001236.1743505527 ; 2.0154000294322348E8 ; 1.1182534873354104E8 ; 1.1656227869776443E10 ; 0.0
67 ; 2002137.7139753965 ; 2.0155417606837365E8 ; 1.138265849078916E8 ; 1.1857767872719667E10 ; 0.0
68 ; 2006403.5294013931 ; 2.0156841660964414E8 ; 1.15828722621867E8 ; 1.205932204878804E10 ; 0.0
69 ; 2007561.1036896675 ; 2.0158272125535548E8 ; 1.178351261512684E8 ; 1.2260890465397684E10 ; 0.0
70 ; 2011692.688666185 ; 2.0159708681334257E8 ; 1.1984268725495806E8 ; 1.246247318665304E10 ; 0.0
71 ; 2014037.528607614 ; 2.0161151020604074E8 ; 1.2185437994362424E8 ; 1.2664070273466383E10 ; 0.0
72 ; 2017350.014797773 ; 2.0162598846573812E8 ; 1.2386841747223185E8 ; 1.2865681783672424E10 ; 0.0
73 ; 2019200.7326201608 ; 2.0164051872999603E8 ; 1.2588576748702963E8 ; 1.3067307772138163E10 ; 0.0
74 ; 2021387.5012961458 ; 2.0165509823723677E8 ; 1.2790496821964979E8 ; 1.3268948290868158E10 ; 0.0
75 ; 2022656.222718769 ; 2.016697243224974E8 ; 1.2992635572094594E8 ; 1.3470603389105394E10 ; 0.0
76 ; 2026457.1236759855 ; 2.0168439441334796E8 ; 1.3194901194366471E8 ; 1.3672273113427893E10 ; 0.0
77 ; 2029203.6588081387 ; 2.0169910602597108E8 ; 1.339754690673407E8 ; 1.387395750784124E10 ; 0.0
78 ; 2029205.758488721 ; 2.0171385676139957E8 ; 1.3600467272614884E8 ; 1.407565661386721E10 ; 0.0
79 ; 2027220.35259769 ; 2.017286443019086E8 ; 1.3803387848463756E8 ; 1.427737047062861E10 ; 0.0
80 ; 2028960.8403135482 ; 2.0174346640755826E8 ; 1.4006109883723524E8 ; 1.447909911493052E10 ; 0.0
81 ; 2029008.0435583529 ; 2.0175832091288206E8 ; 1.420900596775488E8 ; 1.4680842581338078E10 ; 0.0
82 ; 2028677.3403710222 ; 2.0177320572371706E8 ; 1.4411906772110716E8 ; 1.488260090225096E10 ; 0.0
83 ; 2031117.7312275344 ; 2.0178811881417072E8 ; 1.4614774506147817E8 ; 1.5084374107974676E10 ; 0.0
84 ; 2030042.9615945881 ; 2.0180305822371995E8 ; 1.481788627927057E8 ; 1.5286162226788847E10 ; 0.0
85 ; 2030356.6738743242 ; 2.0181802205443758E8 ; 1.502089057543003E8 ; 1.5487965285012568E10 ; 0.0
86 ; 2029338.429001015 ; 2.0183300846834123E8 ; 1.5223926242817461E8 ; 1.5689783307067005E10 ; 0.0
87 ; 2028535.7415596955 ; 2.018480156848602E8 ; 1.5426860085717562E8 ; 1.5891616315535347E10 ; 0.0
88 ; 2026246.6904143014 ; 2.018630419784154E8 ; 1.562971365987353E8 ; 1.6093464331220207E10 ; 0.0
89 ; 2026496.682699168 ; 2.0187808567610785E8 ; 1.583233832891496E8 ; 1.6295327373198622E10 ; 0.0
90 ; 2029001.5213746598 ; 2.0189314515551123E8 ; 1.603498799718488E8 ; 1.649720545887473E10 ; 0.0
91 ; 2026710.538765695 ; 2.019082188425641E8 ; 1.6237888149322346E8 ; 1.6699098604030241E10 ; 0.0
92 ; 2027900.7165773015 ; 2.019233052095574E8 ; 1.6440559203198916E8 ; 1.6901006822872805E10 ; 0.0
93 ; 2024175.9685444722 ; 2.0193840277321312E8 ; 1.6643349274856645E8 ; 1.7102930128082361E10 ; 0.0
94 ; 2022912.543965727 ; 2.0195351009285024E8 ; 1.6845766871711093E8 ; 1.7304868530855576E10 ; 0.0
95 ; 2021247.6474493663 ; 2.019686257686338E8 ; 1.7048058126107666E8 ; 1.7506822040948425E10 ; 0.0
96 ; 2021360.70908798 ; 2.0198374843990374E8 ; 1.7250182890852603E8 ; 1.770879066671706E10 ; 0.0
97 ; 2017642.7148001762 ; 2.019988767835792E8 ; 1.74523189617614E8 ; 1.7910774415156963E10 ; 0.0
98 ; 2020247.5077663707 ; 2.020140095126357E8 ; 1.7654083233241418E8 ; 1.8112773291940544E10 ; 0.0
99 ; 2017497.4953623768 ; 2.020291453746512E8 ; 1.7856107984018055E8 ; 1.831478730145318E10 ; 0.0
100 ; 2018082.423620368 ; 2.0204428315041807E8 ; 1.8057857733554292E8 ; 1.851681644682783E10 ; 0.0
101 ; 2017704.9400050319 ; 2.0205942165261787E8 ; 1.825966597591633E8 ; 1.871886072997825E10 ; 0.0
102 ; 2013239.9234270053 ; 2.0207455972455618E8 ; 1.8461436469916832E8 ; 1.8920920151630867E10 ; 0.0
103 ; 2015730.4543860245 ; 2.0208969623895425E8 ; 1.8662760462259534E8 ; 1.9122994711355423E10 ; 0.0
104 ; 2012072.9093384976 ; 2.0210483009679526E8 ; 1.8864333507698137E8 ; 1.9325084407594376E10 ; 0.0
105 ; 2011810.5398075178 ; 2.021199602262225E8 ; 1.9065540798631987E8 ; 1.952718923769117E10 ; 0.0
106 ; 2008004.9767582398 ; 2.0213508558148655E8 ; 1.926672185261274E8 ; 1.9729309197917393E10 ; 0.0
107 ; 2010219.9914819477 ; 2.0215020514194012E8 ; 1.9467522350288564E8 ; 1.993144428349888E10 ; 0.0
108 ; 2008541.5840701596 ; 2.021653179110772E8 ; 1.966854434943676E8 ; 2.013359448864082E10 ; 0.0
109 ; 2003749.8145233428 ; 2.0218042291561523E8 ; 1.9869398507843775E8 ; 2.0335759806551895E10 ; 0.0
110 ; 2003156.249026971 ; 2.0219551920461792E8 ; 2.0069773489296108E8 ; 2.053794022946751E10 ; 0.0
111 ; 2001950.5630437548 ; 2.0221060584865677E8 ; 2.0270089114198807E8 ; 2.0740135748672127E10 ; 0.0
112 ; 2001130.2230521212 ; 2.022256819390096E8 ; 2.047028417050318E8 ; 2.0942346354520782E10 ; 0.0
113 ; 1997822.0062221012 ; 2.0224074658689445E8 ; 2.0670397192808393E8 ; 2.1144572036459793E10 ; 0.0
114 ; 1996509.5418102464 ; 2.0225579892273656E8 ; 2.0870179393430603E8 ; 2.1346812783046688E10 ; 0.0
115 ; 1995442.9184767292 ; 2.0227083809546793E8 ; 2.1069830347611627E8 ; 2.1549068581969425E10 ; 0.0
116 ; 1992112.192868224 ; 2.0228586327185684E8 ; 2.12693746394593E8 ; 2.175133942006489E10 ; 0.0
117 ; 1992520.9014148056 ; 2.023008736358667E8 ; 2.1468585858746123E8 ; 2.195362528333675E10 ; 0.0
118 ; 1988710.1554976592 ; 2.0231586838804245E8 ; 2.1667837948887604E8 ; 2.215592615697262E10 ; 0.0
119 ; 1986174.5080837784 ; 2.0233084674492323E8 ; 2.1866708964437371E8 ; 2.235824202536066E10 ; 0.0
120 ; 1984610.538065363 ; 2.0234580793848068E8 ; 2.206532641524575E8 ; 2.2560572872105583E10 ; 0.0
121 ; 1983002.086743583 ; 2.023607512155805E8 ; 2.2263787469052288E8 ; 2.2762918680044064E10 ; 0.0
122 ; 1980851.743163916 ; 2.023756758374675E8 ; 2.2462087677726647E8 ; 2.2965279431259644E10 ; 0.0
123 ; 1977018.724328449 ; 2.0239058107927215E8 ; 2.266017285204304E8 ; 2.316765510709711E10 ; 0.0
124 ; 1975094.8156096132 ; 2.0240546622953805E8 ; 2.2857874724475884E8 ; 2.3370045688176384E10 ; 0.0
125 ; 1974986.9735914175 ; 2.024203305897691E8 ; 2.3055384206036845E8 ; 2.3572451154405922E10 ; 0.0
126 ; 1971233.6510827665 ; 2.024351734739959E8 ; 2.3252882903395987E8 ; 2.377487148499569E10 ; 0.0
127 ; 1968456.733683664 ; 2.0244999420835978E8 ; 2.3450006268504262E8 ; 2.3977306658469685E10 ; 0.0
128 ; 1965382.8459168696 ; 2.024647921307146E8 ; 2.364685194187263E8 ; 2.4179756652678043E10 ; 0.0
129 ; 1962324.2448372494 ; 2.0247956659024462E8 ; 2.3843390226464316E8 ; 2.4382221444808758E10 ; 0.0
130 ; 1959436.2876952963 ; 2.0249431694709817E8 ; 2.4039622650948042E8 ; 2.4584701011399002E10 ; 0.0
131 ; 1952130.2618241583 ; 2.0250904257203647E8 ; 2.423556627971757E8 ; 2.47871953283461E10 ; 0.0
132 ; 1949025.1245869426 ; 2.0252374284609678E8 ; 2.4430779305899987E8 ; 2.4989704370918137E10 ; 0.0
133 ; 1943813.9000141097 ; 2.0253841716026887E8 ; 2.462568181835868E8 ; 2.5192228113764233E10 ; 0.0
134 ; 1939130.708193663 ; 2.025530649151852E8 ; 2.482006320836009E8 ; 2.5394766530924503E10 ; 0.0
135 ; 1932831.5810856558 ; 2.0256768552082306E8 ; 2.5013976279179457E8 ; 2.5597319595839687E10 ; 0.0
136 ; 1928621.7689800053 ; 2.0258227839621896E8 ; 2.5207259437288022E8 ; 2.579988728136051E10 ; 0.0
137 ; 1922913.471972686 ; 2.025968429691943E8 ; 2.5400121614186022E8 ; 2.600246955975673E10 ; 0.0
138 ; 1918256.2349468397 ; 2.0261137867609197E8 ; 2.559241296138329E8 ; 2.620506640272592E10 ; 0.0
139 ; 1911209.839276877 ; 2.026258849615236E8 ; 2.5784238584877974E8 ; 2.640767778140201E10 ; 0.0
140 ; 1906158.0197270736 ; 2.026403612781264E8 ; 2.5975359568805662E8 ; 2.6610303666363537E10 ; 0.0
141 ; 1899951.369562072 ; 2.026548070863299E8 ; 2.616597537077837E8 ; 2.6812944027641663E10 ; 0.0
142 ; 1895465.5761906847 ; 2.026692218541318E8 ; 2.6355970507734576E8 ; 2.7015598834727993E10 ; 0.0
143 ; 1887081.7557473185 ; 2.026836050568822E8 ; 2.6545517065353644E8 ; 2.7218268056582127E10 ; 0.0
144 ; 1883909.4492737453 ; 2.0269795617707673E8 ; 2.6734225240928376E8 ; 2.7420951661639008E10 ; 0.0
145 ; 1881999.278410896 ; 2.0271227470415735E8 ; 2.692261618585575E8 ; 2.7623649617816086E10 ; 0.0
146 ; 1879021.4355552485 ; 2.0272656013432086E8 ; 2.7110816113696843E8 ; 2.7826361892520245E10 ; 0.0
147 ; 1875275.5303418008 ; 2.0274081197033486E8 ; 2.7298718257252365E8 ; 2.8029088452654564E10 ; 0.0
148 ; 1872920.8643193508 ; 2.027550297213607E8 ; 2.7486245810286546E8 ; 2.8231829264624897E10 ; 0.0
149 ; 1871500.4373386842 ; 2.027692129027832E8 ; 2.767353789671848E8 ; 2.8434584294346256E10 ; 0.0
150 ; 1864421.474939868 ; 2.0278336103604656E8 ; 2.786068794045235E8 ; 2.863735350724904E10 ; 0.0
151 ; 1862753.5814322492 ; 2.0279747364849707E8 ; 2.804713008794634E8 ; 2.8840136868285084E10 ; 0.0
152 ; 1864416.4816829483 ; 2.0281155027323112E8 ; 2.823340544608956E8 ; 2.9042934341933582E10 ; 0.0
153 ; 1858586.327826428 ; 2.028255904489492E8 ; 2.8419847094257855E8 ; 2.9245745892206814E10 ; 0.0
154 ; 1854808.5679052982 ; 2.028395937198153E8 ; 2.86057057270405E8 ; 2.944857148265576E10 ; 0.0
155 ; 1851428.3918512731 ; 2.0285355963532168E8 ; 2.879118658383103E8 ; 2.9651411076375576E10 ; 0.0
156 ; 1852891.4394942871 ; 2.0286748775015834E8 ; 2.8976329423016155E8 ; 2.98542646360109E10 ; 0.0
157 ; 1845521.096008872 ; 2.0288137762408763E8 ; 2.9161618566965586E8 ; 3.005713212376106E10 ; 0.0
158 ; 1844450.1178775085 ; 2.028952288218233E8 ; 2.9346170676566476E8 ; 3.0260013501385147E10 ; 0.0
159 ; 1842665.390418547 ; 2.0290904091291404E8 ; 2.9530615688354224E8 ; 3.046290873020697E10 ; 0.0
160 ; 1839999.7863713272 ; 2.0292281347163117E8 ; 2.9714882227396077E8 ; 3.0665817771119884E10 ; 0.0
161 ; 1835394.0844154337 ; 2.0293654607686067E8 ; 2.989888220603321E8 ; 3.0868740584591515E10 ; 0.0
162 ; 1829678.49701501 ; 2.029502383119988E8 ; 3.0082421614474756E8 ; 3.1071677130668377E10 ; 0.0
163 ; 1828288.5493220375 ; 2.0296388976485187E8 ; 3.0265389464176255E8 ; 3.1274627368980377E10 ; 0.0
164 ; 1824314.6862008413 ; 2.029775000275391E8 ; 3.0448218319108456E8 ; 3.1477591258745228E10 ; 0.0
165 ; 1821280.9365101256 ; 2.0299106869639957E8 ; 3.063064978772854E8 ; 3.1680568758772766E10 ; 0.0
166 ; 1819217.004774552 ; 2.0300459537190208E8 ; 3.0812777881379557E8 ; 3.1883559827469166E10 ; 0.0
167 ; 1817959.7372857614 ; 2.0301807965855834E8 ; 3.0994699581857014E8 ; 3.208656442284107E10 ; 0.0
168 ; 1810525.7397202954 ; 2.0303152116483933E8 ; 3.117649555558559E8 ; 3.2289582502499626E10 ; 0.0
169 ; 1811700.8349769285 ; 2.030449195030945E8 ; 3.1357548129557616E8 ; 3.2492614023664467E10 ; 0.0
170 ; 1806376.8530751271 ; 2.030582742894739E8 ; 3.1538718213055307E8 ; 3.269565894316756E10 ; 0.0
171 ; 1800728.0749336858 ; 2.0307158514385304E8 ; 3.171935589836282E8 ; 3.2898717217457035E10 ; 0.0
172 ; 1800636.6881776152 ; 2.0308485168976036E8 ; 3.189942870585619E8 ; 3.3101788802600887E10 ; 0.0
173 ; 1798388.980223744 ; 2.0309807355430728E8 ; 3.207949237467395E8 ; 3.330487365429065E10 ; 0.0
174 ; 1794799.8620115248 ; 2.0311125036812073E8 ; 3.225933127269632E8 ; 3.3507971727844955E10 ; 0.0
175 ; 1795766.8034546135 ; 2.031243817652779E8 ; 3.243881125889748E8 ; 3.3711082978213078E10 ; 0.0
176 ; 1790374.5992585886 ; 2.0313746738324326E8 ; 3.261838793924294E8 ; 3.3914207359978355E10 ; 0.0
177 ; 1786476.9455233158 ; 2.0315050686280808E8 ; 3.27974253991688E8 ; 3.41173448273616E10 ; 0.0
178 ; 1785423.5843989828 ; 2.0316349984803152E8 ; 3.2976073093721133E8 ; 3.4320495334224407E10 ; 0.0
179 ; 1784920.3817979044 ; 2.0317644598618415E8 ; 3.315461545216103E8 ; 3.452365883407244E10 ; 0.0
180 ; 1782853.6535389682 ; 2.0318934492769328E8 ; 3.333310749034082E8 ; 3.4726835280058624E10 ; 0.0
181 ; 1779653.2522210274 ; 2.0320219632609013E8 ; 3.351139285569472E8 ; 3.493002462498632E10 ; 0.0
182 ; 1778653.469113288 ; 2.0321499983795887E8 ; 3.368935818091682E8 ; 3.513322682131241E10 ; 0.0
183 ; 1774215.6252772603 ; 2.0322775512288728E8 ; 3.386722352782815E8 ; 3.533644182115037E10 ; 0.0
184 ; 1775381.9869752815 ; 2.032404618434193E8 ; 3.404464509035588E8 ; 3.5539669576273254E10 ; 0.0
185 ; 1772595.6923513352 ; 2.0325311966500902E8 ; 3.4222183289053404E8 ; 3.574291003811668E10 ; 0.0
186 ; 1770240.045845257 ; 2.0326572825597617E8 ; 3.439944285828854E8 ; 3.5946163157781685E10 ; 0.0
187 ; 1766148.5539949038 ; 2.0327828728746337E8 ; 3.4576466862873065E8 ; 3.614942888603766E10 ; 0.0
188 ; 1766513.675374626 ; 2.0329079643339452E8 ; 3.4753081718272555E8 ; 3.635270717332512E10 ; 0.0
189 ; 1763877.633485279 ; 2.0330325537043497E8 ; 3.492973308581002E8 ; 3.6555997969758514E10 ; 0.0
190 ; 1761314.303690565 ; 2.033156637779525E8 ; 3.5106120849158543E8 ; 3.675930122512895E10 ; 0.0
191 ; 1761892.9956264768 ; 2.0332802133798015E8 ; 3.52822522795276E8 ; 3.6962616888906906E10 ; 0.0
192 ; 1755423.2118635126 ; 2.033403277351799E8 ; 3.5458441579090244E8 ; 3.716594491024489E10 ; 0.0
193 ; 1754164.0042029747 ; 2.033525826568078E8 ; 3.5633983900276595E8 ; 3.736928523798007E10 ; 0.0
194 ; 1751782.1065592514 ; 2.0336478579268014E8 ; 3.580940030069689E8 ; 3.757263782063688E10 ; 0.0
195 ; 1748745.8471783628 ; 2.0337693683514085E8 ; 3.598457851135282E8 ; 3.777600260642956E10 ; 0.0
196 ; 1747539.8553625655 ; 2.0338903547902974E8 ; 3.6159453096070653E8 ; 3.79793795432647E10 ; 0.0
197 ; 1746414.0203278023 ; 2.0340108142165226E8 ; 3.633420708160691E8 ; 3.818276857874373E10 ; 0.0
198 ; 1743046.017179483 ; 2.034130743627497E8 ; 3.6508848483639693E8 ; 3.838616966016538E10 ; 0.0
199 ; 1741018.9285599112 ; 2.034250140044708E8 ; 3.668315308535764E8 ; 3.858958273452813E10 ; 0.0
