CSV File for the City 6 on Day 18
1 - Minute m 
2 - Power Consumed at minute m 
3 - Power Produced at minute m 
4 - Energy Consumed since the beginning of the day 
5 - Energy Produced since the beginning of the day 
6 - Energy Lost since the beginning of the day on lines starting from the city
 
0 ; 8668699.332238736 ; 1.0282010176472947E7 ; 0.0 ; 0.0 ; 0.0
1 ; 8678956.637760762 ; 1.0282010176472947E7 ; 8668699.332238736 ; 1.0282010176472947E7 ; 0.0
2 ; 8688451.726014711 ; 1.0282010176472947E7 ; 1.73476559699995E7 ; 2.0564020352945894E7 ; 0.0
3 ; 8693165.20766199 ; 1.0282010176472947E7 ; 2.603610769601421E7 ; 3.084603052941884E7 ; 0.0
4 ; 8710658.874533672 ; 1.0282010176472947E7 ; 3.47292729036762E7 ; 4.112804070589179E7 ; 0.0
5 ; 8727040.792256547 ; 1.0282010176472947E7 ; 4.3439931778209865E7 ; 5.1410050882364735E7 ; 0.0
6 ; 8747244.794762203 ; 1.0282010176472947E7 ; 5.2166972570466414E7 ; 6.169206105883768E7 ; 0.0
7 ; 8777004.74562592 ; 1.0282010176472947E7 ; 6.0914217365228616E7 ; 7.197407123531063E7 ; 0.0
8 ; 8818083.867679328 ; 1.0282010176472947E7 ; 6.969122211085454E7 ; 8.225608141178358E7 ; 0.0
9 ; 8880951.594614156 ; 1.0282010176472947E7 ; 7.850930597853386E7 ; 9.253809158825652E7 ; 0.0
10 ; 8980874.54730571 ; 1.0282010176472947E7 ; 8.739025757314801E7 ; 1.0282010176472947E8 ; 0.0
11 ; 9131430.776927203 ; 1.0282010176472947E7 ; 9.637113212045372E7 ; 1.1310211194120242E8 ; 0.0
12 ; 9382257.108419776 ; 1.0282010176472947E7 ; 1.0550256289738092E8 ; 1.2338412211767536E8 ; 0.0
13 ; 9616737.888307106 ; 1.0282010176472947E7 ; 1.148848200058007E8 ; 1.3366613229414831E8 ; 0.0
14 ; 9643563.91110248 ; 1.0282010176472947E7 ; 1.245015578941078E8 ; 1.4394814247062126E8 ; 0.0
15 ; 9657145.875660382 ; 1.0282010176472947E7 ; 1.3414512180521028E8 ; 1.542301526470942E8 ; 0.0
16 ; 9669836.914646314 ; 1.0282010176472947E7 ; 1.4380226768087065E8 ; 1.6451216282356715E8 ; 0.0
17 ; 9681163.52348001 ; 1.0282010176472947E7 ; 1.5347210459551698E8 ; 1.747941730000401E8 ; 0.0
18 ; 9690648.45940923 ; 1.0282010176472947E7 ; 1.6315326811899698E8 ; 1.8507618317651308E8 ; 0.0
19 ; 9702381.017105116 ; 1.0282010176472947E7 ; 1.728439165784062E8 ; 1.9535819335298604E8 ; 0.0
20 ; 9714184.617760478 ; 1.0282010176472947E7 ; 1.8254629759551132E8 ; 2.05640203529459E8 ; 0.0
21 ; 9725660.052312942 ; 1.0282010176472947E7 ; 1.922604822132718E8 ; 2.1592221370593196E8 ; 0.0
22 ; 9738420.598854303 ; 1.0282010176472947E7 ; 2.0198614226558474E8 ; 2.2620422388240492E8 ; 0.0
23 ; 9748977.789242705 ; 1.0282010176472947E7 ; 2.1172456286443904E8 ; 2.364862340588779E8 ; 0.0
24 ; 9762015.246191278 ; 1.0282010176472947E7 ; 2.2147354065368176E8 ; 2.4676824423535085E8 ; 0.0
25 ; 9772062.486168409 ; 1.0282010176472947E7 ; 2.3123555589987302E8 ; 2.570502544118238E8 ; 0.0
26 ; 9783762.541944833 ; 1.0282010176472947E7 ; 2.4100761838604143E8 ; 2.6733226458829677E8 ; 0.0
27 ; 9796329.632988693 ; 1.0282010176472947E7 ; 2.5079138092798626E8 ; 2.7761427476476973E8 ; 0.0
28 ; 9805965.108239865 ; 1.0282010176472947E7 ; 2.6058771056097496E8 ; 2.878962849412427E8 ; 0.0
29 ; 9815342.332915341 ; 1.0282010176472947E7 ; 2.7039367566921484E8 ; 2.9817829511771566E8 ; 0.0
30 ; 9825249.44260374 ; 1.0282010176472947E7 ; 2.802090180021302E8 ; 3.084603052941886E8 ; 0.0
31 ; 9836532.3854371 ; 1.0282010176472947E7 ; 2.90034267444734E8 ; 3.187423154706616E8 ; 0.0
32 ; 9848371.85448977 ; 1.0282010176472947E7 ; 2.9987079983017105E8 ; 3.2902432564713454E8 ; 0.0
33 ; 9855890.710155623 ; 1.0282010176472947E7 ; 3.097191716846608E8 ; 3.393063358236075E8 ; 0.0
34 ; 9865926.089670636 ; 1.0282010176472947E7 ; 3.195750623948164E8 ; 3.4958834600008047E8 ; 0.0
35 ; 9877469.45993248 ; 1.0282010176472947E7 ; 3.2944098848448706E8 ; 3.598703561765534E8 ; 0.0
36 ; 9884495.144672235 ; 1.0282010176472947E7 ; 3.3931845794441956E8 ; 3.701523663530264E8 ; 0.0
37 ; 9892438.489963885 ; 1.0282010176472947E7 ; 3.492029530890918E8 ; 3.8043437652949935E8 ; 0.0
38 ; 9902394.273049138 ; 1.0282010176472947E7 ; 3.5909539157905567E8 ; 3.907163867059723E8 ; 0.0
39 ; 9909464.213055633 ; 1.0282010176472947E7 ; 3.689977858521048E8 ; 4.009983968824453E8 ; 0.0
40 ; 9919524.99480613 ; 1.0282010176472947E7 ; 3.789072500651604E8 ; 4.1128040705891824E8 ; 0.0
41 ; 9921858.869502464 ; 1.0282010176472947E7 ; 3.888267750599665E8 ; 4.215624172353912E8 ; 0.0
42 ; 9931590.345458385 ; 1.0282010176472947E7 ; 3.98748633929469E8 ; 4.3184442741186416E8 ; 0.0
43 ; 9938405.02093886 ; 1.0282010176472947E7 ; 4.086802242749274E8 ; 4.421264375883371E8 ; 0.0
44 ; 9943095.20654268 ; 1.0282010176472947E7 ; 4.1861862929586625E8 ; 4.524084477648101E8 ; 0.0
45 ; 9949871.171855547 ; 1.0282010176472947E7 ; 4.285617245024089E8 ; 4.6269045794128305E8 ; 0.0
46 ; 9955449.203287529 ; 1.0282010176472947E7 ; 4.385115956742645E8 ; 4.72972468117756E8 ; 0.0
47 ; 9959513.312542446 ; 1.0282010176472947E7 ; 4.4846704487755203E8 ; 4.83254478294229E8 ; 0.0
48 ; 9962593.201480562 ; 1.0282010176472947E7 ; 4.584265581900945E8 ; 4.9353648847070193E8 ; 0.0
49 ; 9968180.983344473 ; 1.0282010176472947E7 ; 4.6838915139157504E8 ; 5.038184986471749E8 ; 0.0
50 ; 9970134.773629423 ; 1.0282010176472947E7 ; 4.7835733237491953E8 ; 5.1410050882364786E8 ; 0.0
51 ; 9972385.188580694 ; 1.0282010176472947E7 ; 4.8832746714854896E8 ; 5.243825190001208E8 ; 0.0
52 ; 9975108.82928883 ; 1.0282010176472947E7 ; 4.9829985233712965E8 ; 5.346645291765938E8 ; 0.0
53 ; 9981032.701776093 ; 1.0282010176472947E7 ; 5.082749611664185E8 ; 5.449465393530667E8 ; 0.0
54 ; 9980119.091680564 ; 1.0282010176472947E7 ; 5.182559938681946E8 ; 5.552285495295396E8 ; 0.0
55 ; 9982745.771028902 ; 1.0282010176472947E7 ; 5.2823611295987517E8 ; 5.655105597060125E8 ; 0.0
56 ; 9987048.266186558 ; 1.0282010176472947E7 ; 5.382188587309041E8 ; 5.757925698824854E8 ; 0.0
57 ; 9985450.422744928 ; 1.0282010176472947E7 ; 5.482059069970907E8 ; 5.860745800589583E8 ; 0.0
58 ; 9993215.669025226 ; 1.0282010176472947E7 ; 5.581913574198356E8 ; 5.963565902354312E8 ; 0.0
59 ; 9992629.040343625 ; 1.0282010176472947E7 ; 5.681845730888608E8 ; 6.066386004119041E8 ; 0.0
60 ; 9994371.999599706 ; 1.0282010176472947E7 ; 5.781772021292044E8 ; 6.16920610588377E8 ; 0.0
61 ; 9993614.539168905 ; 1.0282010176472947E7 ; 5.881715741288041E8 ; 6.272026207648499E8 ; 0.0
62 ; 9997357.199166242 ; 1.0282010176472947E7 ; 5.98165188667973E8 ; 6.374846309413228E8 ; 0.0
63 ; 9997994.751009258 ; 1.0282010176472947E7 ; 6.081625458671393E8 ; 6.477666411177957E8 ; 0.0
64 ; 9999660.233360406 ; 1.0282010176472947E7 ; 6.181605406181486E8 ; 6.580486512942686E8 ; 0.0
65 ; 1.0002036793335307E7 ; 1.0282010176472947E7 ; 6.28160200851509E8 ; 6.683306614707415E8 ; 0.0
66 ; 1.0002053243717985E7 ; 1.0282010176472947E7 ; 6.381622376448443E8 ; 6.786126716472144E8 ; 0.0
67 ; 1.0005702350525878E7 ; 1.0282010176472947E7 ; 6.481642908885623E8 ; 6.888946818236873E8 ; 0.0
68 ; 1.0005948948425466E7 ; 1.0282010176472947E7 ; 6.581699932390882E8 ; 6.991766920001602E8 ; 0.0
69 ; 1.0006952491612379E7 ; 1.0282010176472947E7 ; 6.681759421875136E8 ; 7.094587021766331E8 ; 0.0
70 ; 1.000716547867159E7 ; 1.0282010176472947E7 ; 6.78182894679126E8 ; 7.19740712353106E8 ; 0.0
71 ; 1.0008764970165368E7 ; 1.0282010176472947E7 ; 6.881900601577976E8 ; 7.300227225295789E8 ; 0.0
72 ; 1.001298079284069E7 ; 1.0282010176472947E7 ; 6.98198825127963E8 ; 7.403047327060518E8 ; 0.0
73 ; 1.0012039583728047E7 ; 1.0282010176472947E7 ; 7.082118059208037E8 ; 7.505867428825247E8 ; 0.0
74 ; 1.0011467573845789E7 ; 1.0282010176472947E7 ; 7.182238455045317E8 ; 7.608687530589976E8 ; 0.0
75 ; 1.0011648172151605E7 ; 1.0282010176472947E7 ; 7.282353130783775E8 ; 7.711507632354705E8 ; 0.0
76 ; 1.0009839327029858E7 ; 1.0282010176472947E7 ; 7.38246961250529E8 ; 7.814327734119434E8 ; 0.0
77 ; 1.0013559115746327E7 ; 1.0282010176472947E7 ; 7.482568005775589E8 ; 7.917147835884163E8 ; 0.0
78 ; 1.000975094896248E7 ; 1.0282010176472947E7 ; 7.582703596933053E8 ; 8.019967937648892E8 ; 0.0
79 ; 1.000691982586473E7 ; 1.0282010176472947E7 ; 7.682801106422677E8 ; 8.122788039413621E8 ; 0.0
80 ; 1.0001966517441664E7 ; 1.0282010176472947E7 ; 7.782870304681324E8 ; 8.22560814117835E8 ; 0.0
81 ; 1.0003262196941826E7 ; 1.0282010176472947E7 ; 7.88288996985574E8 ; 8.32842824294308E8 ; 0.0
82 ; 9998229.069406144 ; 1.0282010176472947E7 ; 7.982922591825159E8 ; 8.431248344707808E8 ; 0.0
83 ; 9994877.323466552 ; 1.0282010176472947E7 ; 8.08290488251922E8 ; 8.534068446472538E8 ; 0.0
84 ; 9993805.894351564 ; 1.0282010176472947E7 ; 8.182853655753886E8 ; 8.636888548237267E8 ; 0.0
85 ; 9985848.678488538 ; 1.0282010176472947E7 ; 8.282791714697402E8 ; 8.739708650001996E8 ; 0.0
86 ; 9982225.304164072 ; 1.0282010176472947E7 ; 8.382650201482286E8 ; 8.842528751766725E8 ; 0.0
87 ; 9980213.373523355 ; 1.0282010176472947E7 ; 8.482472454523927E8 ; 8.945348853531454E8 ; 0.0
88 ; 9975290.008649476 ; 1.0282010176472947E7 ; 8.58227458825916E8 ; 9.048168955296183E8 ; 0.0
89 ; 9972482.074798442 ; 1.0282010176472947E7 ; 8.682027488345655E8 ; 9.150989057060912E8 ; 0.0
90 ; 9966121.913251134 ; 1.0282010176472947E7 ; 8.78175230909364E8 ; 9.253809158825641E8 ; 0.0
91 ; 9966480.863357993 ; 1.0282010176472947E7 ; 8.881413528226151E8 ; 9.35662926059037E8 ; 0.0
92 ; 9960934.372104837 ; 1.0282010176472947E7 ; 8.981078336859732E8 ; 9.459449362355099E8 ; 0.0
93 ; 9958147.824422305 ; 1.0282010176472947E7 ; 9.08068768058078E8 ; 9.562269464119828E8 ; 0.0
94 ; 9951858.901304437 ; 1.0282010176472947E7 ; 9.180269158825004E8 ; 9.665089565884557E8 ; 0.0
95 ; 9945853.266053239 ; 1.0282010176472947E7 ; 9.279787747838049E8 ; 9.767909667649286E8 ; 0.0
96 ; 9942377.673100578 ; 1.0282010176472947E7 ; 9.379246280498581E8 ; 9.870729769414015E8 ; 0.0
97 ; 9938789.683582382 ; 1.0282010176472947E7 ; 9.478670057229587E8 ; 9.973549871178744E8 ; 0.0
98 ; 9934304.245671047 ; 1.0282010176472947E7 ; 9.578057954065411E8 ; 1.0076369972943473E9 ; 0.0
99 ; 9927013.651404342 ; 1.0282010176472947E7 ; 9.677400996522121E8 ; 1.0179190074708202E9 ; 0.0
100 ; 9922175.980621224 ; 1.0282010176472947E7 ; 9.776671133036165E8 ; 1.0282010176472931E9 ; 0.0
101 ; 9918952.546772543 ; 1.0282010176472947E7 ; 9.875892892842377E8 ; 1.038483027823766E9 ; 0.0
102 ; 9914212.558406262 ; 1.0282010176472947E7 ; 9.975082418310103E8 ; 1.0487650380002389E9 ; 0.0
103 ; 9907276.65334856 ; 1.0282010176472947E7 ; 1.0074224543894166E9 ; 1.0590470481767118E9 ; 0.0
104 ; 9903480.196003964 ; 1.0282010176472947E7 ; 1.0173297310427651E9 ; 1.0693290583531847E9 ; 0.0
105 ; 9895546.42012851 ; 1.0282010176472947E7 ; 1.027233211238769E9 ; 1.0796110685296576E9 ; 0.0
106 ; 9889562.000869606 ; 1.0282010176472947E7 ; 1.0371287576588975E9 ; 1.0898930787061305E9 ; 0.0
107 ; 9883988.972052412 ; 1.0282010176472947E7 ; 1.0470183196597672E9 ; 1.1001750888826034E9 ; 0.0
108 ; 9881268.532096574 ; 1.0282010176472947E7 ; 1.0569023086318196E9 ; 1.1104570990590763E9 ; 0.0
109 ; 9872751.899420988 ; 1.0282010176472947E7 ; 1.0667835771639162E9 ; 1.1207391092355492E9 ; 0.0
110 ; 9869002.899598282 ; 1.0282010176472947E7 ; 1.0766563290633373E9 ; 1.131021119412022E9 ; 0.0
111 ; 9861513.961649371 ; 1.0282010176472947E7 ; 1.0865253319629357E9 ; 1.141303129588495E9 ; 0.0
112 ; 9857156.092520108 ; 1.0282010176472947E7 ; 1.096386845924585E9 ; 1.151585139764968E9 ; 0.0
113 ; 9851058.856972437 ; 1.0282010176472947E7 ; 1.106244002017105E9 ; 1.1618671499414408E9 ; 0.0
114 ; 9844340.45945377 ; 1.0282010176472947E7 ; 1.1160950608740776E9 ; 1.1721491601179137E9 ; 0.0
115 ; 9840148.718666892 ; 1.0282010176472947E7 ; 1.1259394013335314E9 ; 1.1824311702943866E9 ; 0.0
116 ; 9832618.450912716 ; 1.0282010176472947E7 ; 1.1357795500521982E9 ; 1.1927131804708595E9 ; 0.0
117 ; 9825458.794829387 ; 1.0282010176472947E7 ; 1.145612168503111E9 ; 1.2029951906473324E9 ; 0.0
118 ; 9814490.041698951 ; 1.0282010176472947E7 ; 1.1554376272979403E9 ; 1.2132772008238053E9 ; 0.0
119 ; 9809869.67564682 ; 1.0282010176472947E7 ; 1.1652521173396392E9 ; 1.2235592110002782E9 ; 0.0
120 ; 9805811.9230996 ; 1.0282010176472947E7 ; 1.175061987015286E9 ; 1.2338412211767511E9 ; 0.0
121 ; 9797272.918115236 ; 1.0282010176472947E7 ; 1.1848677989383855E9 ; 1.244123231353224E9 ; 0.0
122 ; 9790931.566467151 ; 1.0282010176472947E7 ; 1.1946650718565006E9 ; 1.254405241529697E9 ; 0.0
123 ; 9780512.584221799 ; 1.0282010176472947E7 ; 1.2044560034229677E9 ; 1.2646872517061698E9 ; 0.0
124 ; 9774728.326597229 ; 1.0282010176472947E7 ; 1.2142365160071895E9 ; 1.2749692618826427E9 ; 0.0
125 ; 9765716.990861438 ; 1.0282010176472947E7 ; 1.2240112443337867E9 ; 1.2852512720591156E9 ; 0.0
126 ; 9759181.805196624 ; 1.0282010176472947E7 ; 1.2337769613246481E9 ; 1.2955332822355886E9 ; 0.0
127 ; 9750434.8749829 ; 1.0282010176472947E7 ; 1.2435361431298447E9 ; 1.3058152924120615E9 ; 0.0
128 ; 9743636.0106619 ; 1.0282010176472947E7 ; 1.2532865780048275E9 ; 1.3160973025885344E9 ; 0.0
129 ; 9736233.866611907 ; 1.0282010176472947E7 ; 1.2630302140154893E9 ; 1.3263793127650073E9 ; 0.0
130 ; 9724938.06638751 ; 1.0282010176472947E7 ; 1.2727664478821013E9 ; 1.3366613229414802E9 ; 0.0
131 ; 9713067.499041436 ; 1.0282010176472947E7 ; 1.2824913859484887E9 ; 1.346943333117953E9 ; 0.0
132 ; 9703660.388562055 ; 1.0282010176472947E7 ; 1.29220445344753E9 ; 1.357225343294426E9 ; 0.0
133 ; 9694683.622188728 ; 1.0282010176472947E7 ; 1.301908113836092E9 ; 1.3675073534708989E9 ; 0.0
134 ; 9684942.46875684 ; 1.0282010176472947E7 ; 1.3116027974582808E9 ; 1.3777893636473718E9 ; 0.0
135 ; 9673562.046276437 ; 1.0282010176472947E7 ; 1.3212877399270377E9 ; 1.3880713738238447E9 ; 0.0
136 ; 9658133.89628729 ; 1.0282010176472947E7 ; 1.330961301973314E9 ; 1.3983533840003176E9 ; 0.0
137 ; 9646732.971847277 ; 1.0282010176472947E7 ; 1.3406194358696012E9 ; 1.4086353941767905E9 ; 0.0
138 ; 9636766.820166346 ; 1.0282010176472947E7 ; 1.3502661688414485E9 ; 1.4189174043532634E9 ; 0.0
139 ; 9624842.186903384 ; 1.0282010176472947E7 ; 1.359902935661615E9 ; 1.4291994145297363E9 ; 0.0
140 ; 9612980.896431968 ; 1.0282010176472947E7 ; 1.3695277778485184E9 ; 1.4394814247062092E9 ; 0.0
141 ; 9598684.388473304 ; 1.0282010176472947E7 ; 1.3791407587449503E9 ; 1.449763434882682E9 ; 0.0
142 ; 9591054.392366929 ; 1.0282010176472947E7 ; 1.3887394431334236E9 ; 1.460045445059155E9 ; 0.0
143 ; 9577559.57113425 ; 1.0282010176472947E7 ; 1.3983304975257905E9 ; 1.470327455235628E9 ; 0.0
144 ; 9564569.293864207 ; 1.0282010176472947E7 ; 1.4079080570969248E9 ; 1.4806094654121008E9 ; 0.0
145 ; 9558480.215728467 ; 1.0282010176472947E7 ; 1.417472626390789E9 ; 1.4908914755885737E9 ; 0.0
146 ; 9544171.5116947 ; 1.0282010176472947E7 ; 1.4270311066065176E9 ; 1.5011734857650466E9 ; 0.0
147 ; 9541194.036543045 ; 1.0282010176472947E7 ; 1.4365752781182122E9 ; 1.5114554959415195E9 ; 0.0
148 ; 9532160.318784347 ; 1.0282010176472947E7 ; 1.4461164721547554E9 ; 1.5217375061179924E9 ; 0.0
149 ; 9524475.854229689 ; 1.0282010176472947E7 ; 1.4556486324735396E9 ; 1.5320195162944653E9 ; 0.0
150 ; 9513452.427561255 ; 1.0282010176472947E7 ; 1.4651731083277693E9 ; 1.5423015264709382E9 ; 0.0
151 ; 9510574.593149934 ; 1.0282010176472947E7 ; 1.4746865607553306E9 ; 1.552583536647411E9 ; 0.0
152 ; 9497073.915412592 ; 1.0282010176472947E7 ; 1.4841971353484805E9 ; 1.562865546823884E9 ; 0.0
153 ; 9488696.671714844 ; 1.0282010176472947E7 ; 1.4936942092638931E9 ; 1.573147557000357E9 ; 0.0
154 ; 9480607.579566952 ; 1.0282010176472947E7 ; 1.503182905935608E9 ; 1.5834295671768298E9 ; 0.0
155 ; 9471270.777719678 ; 1.0282010176472947E7 ; 1.5126635135151749E9 ; 1.5937115773533027E9 ; 0.0
156 ; 9462483.675121581 ; 1.0282010176472947E7 ; 1.5221347842928946E9 ; 1.6039935875297756E9 ; 0.0
157 ; 9453442.663713876 ; 1.0282010176472947E7 ; 1.5315972679680161E9 ; 1.6142755977062485E9 ; 0.0
158 ; 9446224.672580598 ; 1.0282010176472947E7 ; 1.54105071063173E9 ; 1.6245576078827214E9 ; 0.0
159 ; 9437387.981657999 ; 1.0282010176472947E7 ; 1.5504969353043106E9 ; 1.6348396180591943E9 ; 0.0
160 ; 9429038.845515354 ; 1.0282010176472947E7 ; 1.5599343232859685E9 ; 1.6451216282356672E9 ; 0.0
161 ; 9417952.380749004 ; 1.0282010176472947E7 ; 1.5693633621314838E9 ; 1.6554036384121401E9 ; 0.0
162 ; 9408516.323253775 ; 1.0282010176472947E7 ; 1.5787813145122328E9 ; 1.665685648588613E9 ; 0.0
163 ; 9400891.05296402 ; 1.0282010176472947E7 ; 1.5881898308354867E9 ; 1.675967658765086E9 ; 0.0
164 ; 9390471.205980951 ; 1.0282010176472947E7 ; 1.5975907218884506E9 ; 1.6862496689415588E9 ; 0.0
165 ; 9383079.065175503 ; 1.0282010176472947E7 ; 1.6069811930944316E9 ; 1.6965316791180317E9 ; 0.0
166 ; 9373234.631892366 ; 1.0282010176472947E7 ; 1.6163642721596072E9 ; 1.7068136892945046E9 ; 0.0
167 ; 9361306.945529332 ; 1.0282010176472947E7 ; 1.6257375067914996E9 ; 1.7170956994709775E9 ; 0.0
168 ; 9354632.250503194 ; 1.0282010176472947E7 ; 1.6350988137370288E9 ; 1.7273777096474504E9 ; 0.0
169 ; 9344748.52560188 ; 1.0282010176472947E7 ; 1.6444534459875321E9 ; 1.7376597198239233E9 ; 0.0
170 ; 9337097.064980585 ; 1.0282010176472947E7 ; 1.653798194513134E9 ; 1.7479417300003963E9 ; 0.0
171 ; 9324988.149681602 ; 1.0282010176472947E7 ; 1.6631352915781145E9 ; 1.7582237401768692E9 ; 0.0
172 ; 9317491.578747792 ; 1.0282010176472947E7 ; 1.672460279727796E9 ; 1.768505750353342E9 ; 0.0
173 ; 9308642.508589512 ; 1.0282010176472947E7 ; 1.6817777713065438E9 ; 1.778787760529815E9 ; 0.0
174 ; 9301412.672190825 ; 1.0282010176472947E7 ; 1.6910864138151333E9 ; 1.7890697707062879E9 ; 0.0
175 ; 9295429.67959374 ; 1.0282010176472947E7 ; 1.7003878264873242E9 ; 1.7993517808827608E9 ; 0.0
176 ; 9289483.533816988 ; 1.0282010176472947E7 ; 1.709683256166918E9 ; 1.8096337910592337E9 ; 0.0
177 ; 9286303.186525853 ; 1.0282010176472947E7 ; 1.718972739700735E9 ; 1.8199158012357066E9 ; 0.0
178 ; 9283249.181875184 ; 1.0282010176472947E7 ; 1.728259042887261E9 ; 1.8301978114121795E9 ; 0.0
179 ; 9274069.39737493 ; 1.0282010176472947E7 ; 1.7375422920691361E9 ; 1.8404798215886524E9 ; 0.0
180 ; 9267874.95516257 ; 1.0282010176472947E7 ; 1.746816361466511E9 ; 1.8507618317651253E9 ; 0.0
181 ; 9263124.689755179 ; 1.0282010176472947E7 ; 1.7560842364216735E9 ; 1.8610438419415982E9 ; 0.0
182 ; 9257658.275968796 ; 1.0282010176472947E7 ; 1.7653473611114287E9 ; 1.871325852118071E9 ; 0.0
183 ; 9250285.406386282 ; 1.0282010176472947E7 ; 1.7746050193873975E9 ; 1.881607862294544E9 ; 0.0
184 ; 9245847.572128657 ; 1.0282010176472947E7 ; 1.783855304793784E9 ; 1.891889872471017E9 ; 0.0
185 ; 9239709.536936203 ; 1.0282010176472947E7 ; 1.7931011523659127E9 ; 1.9021718826474898E9 ; 0.0
186 ; 9237113.027718505 ; 1.0282010176472947E7 ; 1.802340861902849E9 ; 1.9124538928239627E9 ; 0.0
187 ; 9229527.35843485 ; 1.0282010176472947E7 ; 1.8115779749305675E9 ; 1.9227359030004356E9 ; 0.0
188 ; 9223453.046821121 ; 1.0282010176472947E7 ; 1.8208075022890024E9 ; 1.9330179131769085E9 ; 0.0
189 ; 9219574.512234211 ; 1.0282010176472947E7 ; 1.8300309553358235E9 ; 1.9432999233533814E9 ; 0.0
190 ; 9212987.320814254 ; 1.0282010176472947E7 ; 1.8392505298480577E9 ; 1.9535819335298543E9 ; 0.0
191 ; 9207523.017006628 ; 1.0282010176472947E7 ; 1.848463517168872E9 ; 1.9638639437063272E9 ; 0.0
192 ; 9202425.033515057 ; 1.0282010176472947E7 ; 1.8576710401858788E9 ; 1.9741459538828E9 ; 0.0
193 ; 9195144.554429332 ; 1.0282010176472947E7 ; 1.8668734652193937E9 ; 1.984427964059273E9 ; 0.0
194 ; 9189387.164558345 ; 1.0282010176472947E7 ; 1.876068609773823E9 ; 1.994709974235746E9 ; 0.0
195 ; 9182656.62848132 ; 1.0282010176472947E7 ; 1.8852579969383814E9 ; 2.0049919844122188E9 ; 0.0
196 ; 9180160.546624877 ; 1.0282010176472947E7 ; 1.8944406535668628E9 ; 2.0152739945886917E9 ; 0.0
197 ; 9172790.93015877 ; 1.0282010176472947E7 ; 1.9036208141134877E9 ; 2.0255560047651646E9 ; 0.0
198 ; 9166996.886332924 ; 1.0282010176472947E7 ; 1.9127936050436466E9 ; 2.0358380149416375E9 ; 0.0
199 ; 9164465.55049268 ; 1.0282010176472947E7 ; 1.9219606019299796E9 ; 2.0461200251181104E9 ; 0.0
200 ; 9154570.722842 ; 1.0282010176472947E7 ; 1.9311250674804723E9 ; 2.0564020352945833E9 ; 0.0
201 ; 9149684.594050186 ; 1.0282010176472947E7 ; 1.9402796382033143E9 ; 2.0666840454710562E9 ; 0.0
