CSV File for the City 4 on Day 186
1 - Minute m 
2 - Power Consumed at minute m 
3 - Power Produced at minute m 
4 - Energy Consumed since the beginning of the day 
5 - Energy Produced since the beginning of the day 
6 - Energy Lost since the beginning of the day on lines starting from the city
 
0 ; 1214579.7230861566 ; 1.0599654434903917E8 ; 0.0 ; 0.0 ; 0.0
1 ; 1223551.1943898674 ; 1.0614690626538378E8 ; 1214579.7230861566 ; 1.0599654434903917E8 ; 0.0
2 ; 1230006.6686577867 ; 1.0660631003416178E8 ; 2438130.917476024 ; 2.1214345061442295E8 ; 0.0
3 ; 1235105.6513352909 ; 1.0737476110642642E8 ; 3668137.5861338107 ; 3.187497606485847E8 ; 0.0
4 ; 1248999.422872291 ; 1.0845226439035845E8 ; 4903243.237469101 ; 4.2612452175501114E8 ; 0.0
5 ; 1260609.6081297589 ; 1.0983882421639293E8 ; 6152242.660341392 ; 5.345767861453696E8 ; 0.0
6 ; 1277332.6322515693 ; 1.1153444430567989E8 ; 7412852.268471152 ; 6.444156103617625E8 ; 0.0
7 ; 1300424.9120576112 ; 1.1353912774240106E8 ; 8690184.900722722 ; 7.559500546674424E8 ; 0.0
8 ; 1332032.4650584077 ; 1.158528769504162E8 ; 9990609.812780332 ; 8.694891824098434E8 ; 0.0
9 ; 1382634.0980456208 ; 1.1847569367464817E8 ; 1.132264227783874E7 ; 9.853420593602597E8 ; 0.0
10 ; 1459445.4741212272 ; 1.2140757896753854E8 ; 1.2705276375884362E7 ; 1.1038177530349078E9 ; 0.0
11 ; 1581704.612858743 ; 1.2464853318082103E8 ; 1.416472185000559E7 ; 1.2252253320024464E9 ; 0.0
12 ; 1778612.93255309 ; 1.2819855596276191E8 ; 1.5746426462864332E7 ; 1.3498738651832674E9 ; 0.0
13 ; 1972922.14780946 ; 1.3205764626091957E8 ; 1.7525039395417422E7 ; 1.4780724211460292E9 ; 0.0
14 ; 1995781.9341963762 ; 1.3622580233037126E8 ; 1.9497961543226883E7 ; 1.6101300674069488E9 ; 0.0
15 ; 2003741.0461066524 ; 1.407030217472571E8 ; 2.1493743477423258E7 ; 1.74635586973732E9 ; 0.0
16 ; 2011768.9809051775 ; 1.454893014273955E8 ; 2.349748452352991E7 ; 1.8870588914845772E9 ; 0.0
17 ; 2022982.3343329818 ; 1.505846376496363E8 ; 2.550925350443509E7 ; 2.0325481929119728E9 ; 0.0
18 ; 2029496.5794454485 ; 1.559890260835445E8 ; 2.753223583876807E7 ; 2.1831328305616093E9 ; 0.0
19 ; 2038741.5572862062 ; 1.6170246182093933E8 ; 2.9561732418213516E7 ; 2.339121856645154E9 ; 0.0
20 ; 2049013.8699457673 ; 1.6772493941076753E8 ; 3.1600473975499723E7 ; 2.5008243184660935E9 ; 0.0
21 ; 2059644.3301733863 ; 1.7405645289675364E8 ; 3.364948784544549E7 ; 2.668549257876861E9 ; 0.0
22 ; 2065887.0726576077 ; 1.8069699585725027E8 ; 3.570913217561888E7 ; 2.842605710773615E9 ; 0.0
23 ; 2074998.3693901028 ; 1.876465614467078E8 ; 3.777501924827649E7 ; 3.023302706630865E9 ; 0.0
24 ; 2084360.5954246393 ; 1.9490514243819135E8 ; 3.985001761766659E7 ; 3.210949268077573E9 ; 0.0
25 ; 2094580.9836460883 ; 2.011607721645785E8 ; 4.1934378213091224E7 ; 3.405854410515764E9 ; 0.0
26 ; 2102455.667324869 ; 2.0116699059844884E8 ; 4.402895919673731E7 ; 3.6070151826803427E9 ; 0.0
27 ; 2112935.5001014275 ; 2.0117355891948324E8 ; 4.613141486406218E7 ; 3.8081821732787914E9 ; 0.0
28 ; 2121557.2987321434 ; 2.011804688028063E8 ; 4.824435036416361E7 ; 4.0093557321982746E9 ; 0.0
29 ; 2133075.642586973 ; 2.0118771175249815E8 ; 5.0365907662895754E7 ; 4.210536201001081E9 ; 0.0
30 ; 2137939.763579894 ; 2.011952791402365E8 ; 5.249898330548273E7 ; 4.411723912753579E9 ; 0.0
31 ; 2146943.438221925 ; 2.0120316224204764E8 ; 5.463692306906262E7 ; 4.612919191893816E9 ; 0.0
32 ; 2157566.7781971996 ; 2.0121135227295542E8 ; 5.6783866507284544E7 ; 4.814122354135863E9 ; 0.0
33 ; 2164450.693752994 ; 2.0121984041937E8 ; 5.894143328548174E7 ; 5.015333706408819E9 ; 0.0
34 ; 2171295.8892074903 ; 2.0122861786910725E8 ; 6.110588397923474E7 ; 5.216553546828189E9 ; 0.0
35 ; 2179444.4916441557 ; 2.0123767583897582E8 ; 6.327717986844223E7 ; 5.417782164697296E9 ; 0.0
36 ; 2189376.5668767835 ; 2.012470055999093E8 ; 6.545662436008639E7 ; 5.619019840536272E9 ; 0.0
37 ; 2195392.032947608 ; 2.0125659849965686E8 ; 6.764600092696317E7 ; 5.820266846136181E9 ; 0.0
38 ; 2203504.9048799356 ; 2.0126644598307675E8 ; 6.984139295991078E7 ; 6.021523444635838E9 ; 0.0
39 ; 2208082.5357734887 ; 2.0127653961010334E8 ; 7.204489786479072E7 ; 6.222789890618915E9 ; 0.0
40 ; 2216214.942498915 ; 2.0128687107147804E8 ; 7.425298040056421E7 ; 6.424066430229018E9 ; 0.0
41 ; 2221969.310675751 ; 2.012974322023524E8 ; 7.646919534306312E7 ; 6.625353301300496E9 ; 0.0
42 ; 2230568.2223586557 ; 2.0130821499388343E8 ; 7.869116465373887E7 ; 6.826650733502849E9 ; 0.0
43 ; 2234648.6165004624 ; 2.0131921160294893E8 ; 8.092173287609753E7 ; 7.027958948496732E9 ; 0.0
44 ; 2236197.5653081504 ; 2.0133041436011732E8 ; 8.3156381492598E7 ; 7.229278160099681E9 ; 0.0
45 ; 2243794.972761368 ; 2.0134181577600738E8 ; 8.539257905790615E7 ; 7.430608574459798E9 ; 0.0
46 ; 2248232.9592511468 ; 2.0135340854617417E8 ; 8.763637403066751E7 ; 7.6319503902358055E9 ; 0.0
47 ; 2253731.3094824106 ; 2.013651855546546E8 ; 8.988460698991866E7 ; 7.83330379878198E9 ; 0.0
48 ; 2258412.2084251163 ; 2.0137713987630272E8 ; 9.213833829940107E7 ; 8.034668984336634E9 ; 0.0
49 ; 2263146.1962521183 ; 2.0138926477803996E8 ; 9.43967505078262E7 ; 8.236046124212936E9 ; 0.0
50 ; 2265673.3434412084 ; 2.0140155371913868E8 ; 9.665989670407832E7 ; 8.437435388990976E9 ; 0.0
51 ; 2271258.570081602 ; 2.014140003506519E8 ; 9.892557004751952E7 ; 8.638836942710115E9 ; 0.0
52 ; 2272708.992112465 ; 2.0142659851409358E8 ; 1.0119682861760113E8 ; 8.840250943060768E9 ; 0.0
53 ; 2275334.872113966 ; 2.014393422394681E8 ; 1.0346953760971358E8 ; 9.041677541574862E9 ; 0.0
54 ; 2278175.9784890115 ; 2.0145222574273804E8 ; 1.0574487248182756E8 ; 9.24311688381433E9 ; 0.0
55 ; 2282413.522840039 ; 2.0146524342281383E8 ; 1.0802304846031657E8 ; 9.444569109557068E9 ; 0.0
56 ; 2283018.3237398453 ; 2.0147838985814065E8 ; 1.103054619831566E8 ; 9.646034352979881E9 ; 0.0
57 ; 2287446.791244987 ; 2.014916598029508E8 ; 1.1258848030689645E8 ; 9.847512742838022E9 ; 0.0
58 ; 2290620.432864958 ; 2.0150504818324372E8 ; 1.1487592709814143E8 ; 1.0049004402640972E10 ; 0.0
59 ; 2290747.911179747 ; 2.01518550092549E8 ; 1.171665475310064E8 ; 1.0250509450824215E10 ; 0.0
60 ; 2295701.864031244 ; 2.0153216078752193E8 ; 1.1945729544218615E8 ; 1.0452028000916763E10 ; 0.0
61 ; 2297175.767432968 ; 2.0154587568341553E8 ; 1.2175299730621739E8 ; 1.0653560161704285E10 ; 0.0
62 ; 2298131.3560538418 ; 2.0155969034946814E8 ; 1.2405017307365036E8 ; 1.0855106037387701E10 ; 0.0
63 ; 2303402.5947421915 ; 2.0157360050424036E8 ; 1.263483044297042E8 ; 1.105666572773717E10 ; 0.0
64 ; 2306518.3582277326 ; 2.015876020109315E8 ; 1.286517070244464E8 ; 1.125823932824141E10 ; 0.0
65 ; 2309825.255346007 ; 2.0160169087270096E8 ; 1.3095822538267413E8 ; 1.145982693025234E10 ; 0.0
66 ; 2309411.6738921953 ; 2.0161586322801733E8 ; 1.3326805063802013E8 ; 1.1661428621125042E10 ; 0.0
67 ; 2312898.3453969522 ; 2.016301153460536E8 ; 1.3557746231191233E8 ; 1.186304448435306E10 ; 0.0
68 ; 2315113.345600567 ; 2.016444436221452E8 ; 1.378903606573093E8 ; 1.2064674599699114E10 ; 0.0
69 ; 2316611.043709057 ; 2.0165884457332405E8 ; 1.4020547400290987E8 ; 1.2266319043321259E10 ; 0.0
70 ; 2316926.343368093 ; 2.0167331483393976E8 ; 1.4252208504661894E8 ; 1.2467977887894583E10 ; 0.0
71 ; 2321535.270253365 ; 2.0168785115137732E8 ; 1.4483901138998702E8 ; 1.2669651202728523E10 ; 0.0
72 ; 2323313.2608386353 ; 2.0170245038187858E8 ; 1.4716054666024038E8 ; 1.28713390538799E10 ; 0.0
73 ; 2327244.9217701624 ; 2.0171710948647287E8 ; 1.49483859921079E8 ; 1.3073041504261778E10 ; 0.0
74 ; 2327964.852143894 ; 2.017318255270216E8 ; 1.5181110484284917E8 ; 1.3274758613748251E10 ; 0.0
75 ; 2331621.704365509 ; 2.0174659566237935E8 ; 1.5413906969499305E8 ; 1.3476490439275272E10 ; 0.0
76 ; 2330774.136965657 ; 2.0176141714467394E8 ; 1.5647069139935857E8 ; 1.3678237034937653E10 ; 0.0
77 ; 2334639.9405556824 ; 2.0177628731570607E8 ; 1.5880146553632423E8 ; 1.3879998452082327E10 ; 0.0
78 ; 2333910.746291312 ; 2.0179120360346913E8 ; 1.6113610547687992E8 ; 1.4081774739398033E10 ; 0.0
79 ; 2333053.706320512 ; 2.018061635187887E8 ; 1.6347001622317123E8 ; 1.4283565943001503E10 ; 0.0
80 ; 2333524.4573169295 ; 2.0182116465208063E8 ; 1.6580306992949176E8 ; 1.4485372106520292E10 ; 0.0
81 ; 2332255.2935641133 ; 2.0183620467022645E8 ; 1.681365943868087E8 ; 1.4687193271172373E10 ; 0.0
82 ; 2330182.2482941253 ; 2.0185128131356397E8 ; 1.704688496803728E8 ; 1.48890294758426E10 ; 0.0
83 ; 2328314.3219672134 ; 2.018663923929911E8 ; 1.7279903192866692E8 ; 1.5090880757156164E10 ; 0.0
84 ; 2327425.9863391332 ; 2.0188153578718022E8 ; 1.7512734625063413E8 ; 1.5292747149549156E10 ; 0.0
85 ; 2327996.3719936553 ; 2.0189670943990055E8 ; 1.7745477223697326E8 ; 1.5494628685336336E10 ; 0.0
86 ; 2325720.8116996866 ; 2.0191191135744575E8 ; 1.7978276860896692E8 ; 1.5696525394776237E10 ; 0.0
87 ; 2325061.812662201 ; 2.019271396061632E8 ; 1.821084894206666E8 ; 1.5898437306133684E10 ; 0.0
88 ; 2325270.6883142362 ; 2.0194239231008288E8 ; 1.8443355123332882E8 ; 1.6100364445739847E10 ; 0.0
89 ; 2322843.0819838983 ; 2.0195766764864162E8 ; 1.8675882192164305E8 ; 1.630230683804993E10 ; 0.0
90 ; 2322059.237064858 ; 2.0197296385450038E8 ; 1.8908166500362694E8 ; 1.6504264505698572E10 ; 0.0
91 ; 2321578.0750390985 ; 2.01988279211451E8 ; 1.914037242406918E8 ; 1.6706237469553072E10 ; 0.0
92 ; 2318837.1266015824 ; 2.020036120524092E8 ; 1.937253023157309E8 ; 1.6908225748764523E10 ; 0.0
93 ; 2319881.0414813054 ; 2.0201896075749105E8 ; 1.9604413944233248E8 ; 1.7110229360816933E10 ; 0.0
94 ; 2319957.757374696 ; 2.0203432375216937E8 ; 1.983640204838138E8 ; 1.7312248321574425E10 ; 0.0
95 ; 2316901.5120608546 ; 2.020496995055072E8 ; 2.006839782411885E8 ; 1.7514282645326595E10 ; 0.0
96 ; 2313768.016501635 ; 2.0206508652846557E8 ; 2.0300087975324935E8 ; 1.7716332344832104E10 ; 0.0
97 ; 2312552.8069221736 ; 2.020804833722823E8 ; 2.0531464776975098E8 ; 1.791839743136057E10 ; 0.0
98 ; 2310259.2800939567 ; 2.020958886269189E8 ; 2.0762720057667315E8 ; 1.8120477914732853E10 ; 0.0
99 ; 2310493.6441894867 ; 2.021113009195736E8 ; 2.0993745985676712E8 ; 1.832257380335977E10 ; 0.0
100 ; 2309813.8845263664 ; 2.0212671891325647E8 ; 2.122479535009566E8 ; 1.8524685104279346E10 ; 0.0
101 ; 2309254.809006547 ; 2.0214214130542547E8 ; 2.1455776738548297E8 ; 1.8726811823192604E10 ; 0.0
102 ; 2306568.7576189274 ; 2.021575668266798E8 ; 2.168670221944895E8 ; 1.8928953964498028E10 ; 0.0
103 ; 2305411.7832125793 ; 2.021729942395087E8 ; 2.1917359095210844E8 ; 1.9131111531324707E10 ; 0.0
104 ; 2300809.070761724 ; 2.0218842233709326E8 ; 2.2147900273532102E8 ; 1.9333284525564217E10 ; 0.0
105 ; 2301014.211676942 ; 2.0220384994215867E8 ; 2.2377981180608273E8 ; 1.953547294790131E10 ; 0.0
106 ; 2295650.435102058 ; 2.0221927590587527E8 ; 2.2608082601775968E8 ; 1.9737676797843468E10 ; 0.0
107 ; 2297619.120330553 ; 2.022346991068057E8 ; 2.2837647645286173E8 ; 1.9939896073749344E10 ; 0.0
108 ; 2294132.5901203384 ; 2.022501184498968E8 ; 2.3067409557319227E8 ; 2.0142130772856148E10 ; 0.0
109 ; 2290780.434915618 ; 2.0226553286551362E8 ; 2.329682281633126E8 ; 2.0344380891306046E10 ; 0.0
110 ; 2288385.508922062 ; 2.0228094130851418E8 ; 2.3525900859822825E8 ; 2.054664642417156E10 ; 0.0
111 ; 2283927.6125041093 ; 2.022963427573632E8 ; 2.3754739410715032E8 ; 2.0748927365480072E10 ; 0.0
112 ; 2283756.650803752 ; 2.0231173621328282E8 ; 2.398313217196544E8 ; 2.0951223708237434E10 ; 0.0
113 ; 2281985.617528104 ; 2.0232712069943872E8 ; 2.4211507837045816E8 ; 2.1153535444450718E10 ; 0.0
114 ; 2282367.5088949595 ; 2.0234249526016042E8 ; 2.4439706398798627E8 ; 2.1355862565150158E10 ; 0.0
115 ; 2279638.0825069244 ; 2.0235785896019384E8 ; 2.4667943149688122E8 ; 2.1558205060410316E10 ; 0.0
116 ; 2273304.9088039766 ; 2.02373210883985E8 ; 2.4895906957938814E8 ; 2.176056291937051E10 ; 0.0
117 ; 2272052.825657256 ; 2.0238855013499334E8 ; 2.512323744881921E8 ; 2.1962936130254494E10 ; 0.0
118 ; 2269784.4999039965 ; 2.024038758350333E8 ; 2.5350442731384936E8 ; 2.216532468038949E10 ; 0.0
119 ; 2268941.9784961347 ; 2.0241918712364313E8 ; 2.5577421181375337E8 ; 2.236772855622452E10 ; 0.0
120 ; 2265453.8186646206 ; 2.0243448315747952E8 ; 2.580431537922495E8 ; 2.2570147743348164E10 ; 0.0
121 ; 2262999.342134831 ; 2.0244976310973716E8 ; 2.603086076109141E8 ; 2.2772582226505642E10 ; 0.0
122 ; 2259948.97691336 ; 2.0246502616959172E8 ; 2.6257160695304894E8 ; 2.297503198961538E10 ; 0.0
123 ; 2257074.2708265353 ; 2.0248027154166576E8 ; 2.648315559299623E8 ; 2.317749701578497E10 ; 0.0
124 ; 2253953.7228409112 ; 2.0249549844551602E8 ; 2.6708863020078886E8 ; 2.3379977287326633E10 ; 0.0
125 ; 2251241.907080379 ; 2.0251070611514178E8 ; 2.6934258392362976E8 ; 2.358247278577215E10 ; 0.0
126 ; 2248873.1126619824 ; 2.0252589379851264E8 ; 2.715938258307101E8 ; 2.378498349188729E10 ; 0.0
127 ; 2246431.9948611897 ; 2.025410607571155E8 ; 2.738426989433721E8 ; 2.3987509385685802E10 ; 0.0
128 ; 2241312.601331046 ; 2.0255620626551962E8 ; 2.7608913093823326E8 ; 2.4190050446442917E10 ; 0.0
129 ; 2238232.3077579644 ; 2.0257132961095893E8 ; 2.783304435395643E8 ; 2.4392606652708435E10 ; 0.0
130 ; 2232532.6528175436 ; 2.025864300929311E8 ; 2.805686758473223E8 ; 2.4595177982319393E10 ; 0.0
131 ; 2230530.5515505085 ; 2.0260150702281216E8 ; 2.8280120850013983E8 ; 2.4797764412412323E10 ; 0.0
132 ; 2223827.9725218154 ; 2.0261655972348684E8 ; 2.8503173905169034E8 ; 2.5000365919435135E10 ; 0.0
133 ; 2219661.248744419 ; 2.0263158752899286E8 ; 2.872555670242122E8 ; 2.5202982479158623E10 ; 0.0
134 ; 2213019.392107445 ; 2.026465897841796E8 ; 2.894752282729566E8 ; 2.5405614066687614E10 ; 0.0
135 ; 2205429.7648326545 ; 2.026615658443798E8 ; 2.9168824766506404E8 ; 2.5608260656471794E10 ; 0.0
136 ; 2199212.572555191 ; 2.0267651507509422E8 ; 2.938936774298967E8 ; 2.5810922222316174E10 ; 0.0
137 ; 2193039.821209875 ; 2.0269143685168833E8 ; 2.960928900024519E8 ; 2.6013598737391266E10 ; 0.0
138 ; 2185728.8046662067 ; 2.0270633055910087E8 ; 2.9828592982366174E8 ; 2.6216290174242954E10 ; 0.0
139 ; 2181524.585459441 ; 2.0272119559156358E8 ; 3.0047165862832797E8 ; 2.6418996504802055E10 ; 0.0
140 ; 2176810.580986956 ; 2.0273603135233155E8 ; 3.0265318321378744E8 ; 2.662171770039362E10 ; 0.0
141 ; 2167582.2799441502 ; 2.0275083725342396E8 ; 3.048299937947744E8 ; 2.6824453731745953E10 ; 0.0
142 ; 2163189.039297165 ; 2.0276561271537468E8 ; 3.0699757607471853E8 ; 2.702720456899938E10 ; 0.0
143 ; 2156753.2158838403 ; 2.0278035716699234E8 ; 3.091607651140157E8 ; 2.7229970181714752E10 ; 0.0
144 ; 2150390.2960104397 ; 2.0279507004512936E8 ; 3.1131751832989955E8 ; 2.7432750538881744E10 ; 0.0
145 ; 2147618.8065071395 ; 2.028097507944597E8 ; 3.1346790862591E8 ; 2.7635545608926872E10 ; 0.0
146 ; 2142556.0226573953 ; 2.0282439886726502E8 ; 3.156155274324171E8 ; 2.7838355359721333E10 ; 0.0
147 ; 2140260.2542901165 ; 2.0283901372322872E8 ; 3.177580834550745E8 ; 2.8041179758588596E10 ; 0.0
148 ; 2139441.995783488 ; 2.028535948292377E8 ; 3.198983437093646E8 ; 2.8244018772311825E10 ; 0.0
149 ; 2132076.8286055927 ; 2.0286814165919146E8 ; 3.220377857051481E8 ; 2.8446872367141064E10 ; 0.0
150 ; 2132872.283789672 ; 2.0288265369381818E8 ; 3.241698625337537E8 ; 2.8649740508800255E10 ; 0.0
151 ; 2124881.220788274 ; 2.0289713042049763E8 ; 3.263027348175434E8 ; 2.8852623162494072E10 ; 0.0
152 ; 2125486.3142075245 ; 2.0291157133309066E8 ; 3.284276160383317E8 ; 2.905552029291457E10 ; 0.0
153 ; 2119294.1818083306 ; 2.0292597593177468E8 ; 3.3055310235253924E8 ; 2.925843186424766E10 ; 0.0
154 ; 2113593.1854377724 ; 2.029403437228853E8 ; 3.326723965343476E8 ; 2.9461357840179436E10 ; 0.0
155 ; 2111000.4965996933 ; 2.0295467421876383E8 ; 3.347859897197854E8 ; 2.966429818390232E10 ; 0.0
156 ; 2108416.94689206 ; 2.029689669376099E8 ; 3.3689699021638507E8 ; 2.9867252858121086E10 ; 0.0
157 ; 2106786.184108634 ; 2.029832214033398E8 ; 3.3900540716327715E8 ; 3.0070221825058697E10 ; 0.0
158 ; 2100715.0874195686 ; 2.029974371454497E8 ; 3.4111219334738576E8 ; 3.0273205046462036E10 ; 0.0
159 ; 2101020.35474686 ; 2.0301161369888377E8 ; 3.4321290843480533E8 ; 3.0476202483607487E10 ; 0.0
160 ; 2097094.574134378 ; 2.0302575060390696E8 ; 3.453139287895522E8 ; 3.067921409730637E10 ; 0.0
161 ; 2092385.7486391314 ; 2.0303984740598255E8 ; 3.4741102336368656E8 ; 3.088223984791028E10 ; 0.0
162 ; 2084966.2487689478 ; 2.0305390365565366E8 ; 3.4950340911232567E8 ; 3.108527969531626E10 ; 0.0
163 ; 2083901.5094636905 ; 2.030679189084292E8 ; 3.515883753610946E8 ; 3.1288333598971916E10 ; 0.0
164 ; 2076841.4943020134 ; 2.0308189272467384E8 ; 3.5367227687055826E8 ; 3.1491401517880344E10 ; 0.0
165 ; 2077413.7508129475 ; 2.030958246695016E8 ; 3.557491183648603E8 ; 3.169448341060502E10 ; 0.0
166 ; 2071135.615739987 ; 2.0310971431267342E8 ; 3.5782653211567324E8 ; 3.189757923527452E10 ; 0.0
167 ; 2068988.9772343053 ; 2.0312356122849825E8 ; 3.5989766773141325E8 ; 3.2100688949587193E10 ; 0.0
168 ; 2063994.614155412 ; 2.031373649957373E8 ; 3.6196665670864755E8 ; 3.230381251081569E10 ; 0.0
169 ; 2062479.9565445567 ; 2.0315112519751215E8 ; 3.6403065132280296E8 ; 3.2506949875811428E10 ; 0.0
170 ; 2058971.7540288523 ; 2.031648414212154E8 ; 3.6609313127934754E8 ; 3.271010100100894E10 ; 0.0
171 ; 2054756.2442156596 ; 2.0317851325842482E8 ; 3.681521030333764E8 ; 3.2913265842430157E10 ; 0.0
172 ; 2052077.815087557 ; 2.0319214030482036E8 ; 3.7020685927759206E8 ; 3.3116444355688583E10 ; 0.0
173 ; 2044827.2665394198 ; 2.0320572216010395E8 ; 3.722589370926796E8 ; 3.3319636495993404E10 ; 0.0
174 ; 2045460.4146500826 ; 2.0321925842792198E8 ; 3.74303764359219E8 ; 3.3522842218153507E10 ; 0.0
175 ; 2042399.3700502275 ; 2.0323274871579057E8 ; 3.763492247738691E8 ; 3.372606147658143E10 ; 0.0
176 ; 2040084.3719831721 ; 2.032461926350232E8 ; 3.7839162414391935E8 ; 3.392929422529722E10 ; 0.0
177 ; 2035016.841397723 ; 2.0325958980066094E8 ; 3.804317085159025E8 ; 3.4132540417932243E10 ; 0.0
178 ; 2033489.01244743 ; 2.0327293983140495E8 ; 3.824667253573002E8 ; 3.4335800007732903E10 ; 0.0
179 ; 2031489.0315543318 ; 2.032862423495513E8 ; 3.8450021436974764E8 ; 3.453907294756431E10 ; 0.0
180 ; 2027136.6648072412 ; 2.032994969809278E8 ; 3.86531703401302E8 ; 3.474235918991386E10 ; 0.0
181 ; 2024403.2827052518 ; 2.0331270335483336E8 ; 3.8855884006610924E8 ; 3.494565868689478E10 ; 0.0
182 ; 2023433.8842188404 ; 2.0332586110397878E8 ; 3.905832433488145E8 ; 3.514897139024962E10 ; 0.0
183 ; 2018319.2549625917 ; 2.0333896986443016E8 ; 3.926066772330333E8 ; 3.53522972513536E10 ; 0.0
184 ; 2018240.497357431 ; 2.0335202927555352E8 ; 3.9462499648799586E8 ; 3.555563622121803E10 ; 0.0
185 ; 2015188.128512178 ; 2.0336503897996196E8 ; 3.966432369853533E8 ; 3.575898825049358E10 ; 0.0
186 ; 2014100.8056199285 ; 2.0337799862346387E8 ; 3.986584251138655E8 ; 3.596235328947355E10 ; 0.0
187 ; 2007630.764193281 ; 2.0339090785501343E8 ; 4.0067252591948545E8 ; 3.6165731288097015E10 ; 0.0
188 ; 2009116.1330209207 ; 2.0340376632666242E8 ; 4.0268015668367875E8 ; 3.636912219595203E10 ; 0.0
189 ; 2003290.9959043267 ; 2.0341657369351357E8 ; 4.046892728166997E8 ; 3.657252596227869E10 ; 0.0
190 ; 2002601.4615059814 ; 2.0342932961367574E8 ; 4.06692563812604E8 ; 3.67759425359722E10 ; 0.0
191 ; 2000191.1903927452 ; 2.0344203374822026E8 ; 4.0869516527411E8 ; 3.697937186558588E10 ; 0.0
192 ; 1994244.5290151385 ; 2.0345468576113886E8 ; 4.1069535646450275E8 ; 3.71828138993341E10 ; 0.0
193 ; 1993141.5847654233 ; 2.0346728531930295E8 ; 4.126896009935179E8 ; 3.738626858509524E10 ; 0.0
194 ; 1991136.2616880464 ; 2.0347983209242412E8 ; 4.146827425782833E8 ; 3.758973587041454E10 ; 0.0
195 ; 1989467.7237302389 ; 2.0349232575301605E8 ; 4.1667387883997136E8 ; 3.7793215702506966E10 ; 0.0
196 ; 1985257.0489978683 ; 2.035047659763577E8 ; 4.186633465637016E8 ; 3.799670802825998E10 ; 0.0
197 ; 1984978.1036398935 ; 2.0351715244045743E8 ; 4.206486036126995E8 ; 3.8200212794236336E10 ; 0.0
198 ; 1982408.9320872081 ; 2.0352948482601854E8 ; 4.226335817163394E8 ; 3.8403729946676796E10 ; 0.0
199 ; 1977255.9124260752 ; 2.0354176281640586E8 ; 4.246159906484266E8 ; 3.8607259431502815E10 ; 0.0
