CSV File for the City 4 on Day 78
1 - Minute m 
2 - Power Consumed at minute m 
3 - Power Produced at minute m 
4 - Energy Consumed since the beginning of the day 
5 - Energy Produced since the beginning of the day 
6 - Energy Lost since the beginning of the day on lines starting from the city
 
0 ; 6820488.306573352 ; 1.0610979653967455E8 ; 0.0 ; 0.0 ; 0.0
1 ; 6826396.2865938675 ; 1.0626029127958047E8 ; 6820488.306573352 ; 1.0610979653967455E8 ; 0.0
2 ; 6835901.706029761 ; 1.0671981678574315E8 ; 1.364688459316722E7 ; 2.1237008781925502E8 ; 0.0
3 ; 6843558.033482547 ; 1.0748837759497607E8 ; 2.048278629919698E7 ; 3.190899046049982E8 ; 0.0
4 ; 6849906.153592711 ; 1.0856597777982336E8 ; 2.732634433267953E7 ; 4.2657828219997424E8 ; 0.0
5 ; 6865726.2314020805 ; 1.0995262092372787E8 ; 3.417625048627224E7 ; 5.351442599797976E8 ; 0.0
6 ; 6876653.648495773 ; 1.1164831009871712E8 ; 4.1041976717674315E7 ; 6.450968809035255E8 ; 0.0
7 ; 6906317.790772756 ; 1.1365304784592783E8 ; 4.7918630366170086E7 ; 7.567451910022426E8 ; 0.0
8 ; 6934723.505769599 ; 1.1596683615925157E8 ; 5.4824948156942844E7 ; 8.703982388481704E8 ; 0.0
9 ; 6986363.399589736 ; 1.1858967647234845E8 ; 6.175967166271244E7 ; 9.86365075007422E8 ; 0.0
10 ; 7064503.726132232 ; 1.2152156964922506E8 ; 6.874603506230217E7 ; 1.1049547514797704E9 ; 0.0
11 ; 7189721.858371104 ; 1.2476251597852132E8 ; 7.58105387884344E7 ; 1.2264763211289954E9 ; 0.0
12 ; 7384404.303260963 ; 1.2831251517159727E8 ; 8.300026064680551E7 ; 1.3512388371075168E9 ; 0.0
13 ; 7576628.564049465 ; 1.3217156636444634E8 ; 9.038466495006648E7 ; 1.479551352279114E9 ; 0.0
14 ; 7602443.626819938 ; 1.363396681234085E8 ; 9.796129351411594E7 ; 1.6117229186435604E9 ; 0.0
15 ; 7607647.152903121 ; 1.4081681845459205E8 ; 1.0556373714093588E8 ; 1.748062586766969E9 ; 0.0
16 ; 7616424.336289264 ; 1.456030148168604E8 ; 1.1317138429383901E8 ; 1.888879405221561E9 ; 0.0
17 ; 7626307.559153698 ; 1.5069825413818595E8 ; 1.2078780863012826E8 ; 2.0344824200384214E9 ; 0.0
18 ; 7633832.185550008 ; 1.5610253283512586E8 ; 1.2841411618928197E8 ; 2.185180674176607E9 ; 0.0
19 ; 7641471.093592623 ; 1.6181584683513603E8 ; 1.3604794837483197E8 ; 2.341283207011733E9 ; 0.0
20 ; 7651663.599442387 ; 1.678381916014029E8 ; 1.436894194684246E8 ; 2.503099053846869E9 ; 0.0
21 ; 7660582.048923009 ; 1.7416956215985194E8 ; 1.5134108306786698E8 ; 2.6709372454482718E9 ; 0.0
22 ; 7672135.852985718 ; 1.8080995312796974E8 ; 1.5900166511679E8 ; 2.845106807608124E9 ; 0.0
23 ; 7679286.180333857 ; 1.877593587450722E8 ; 1.666738009697757E8 ; 3.0259167607360935E9 ; 0.0
24 ; 7689822.241322616 ; 1.9501777290364647E8 ; 1.7435308715010956E8 ; 3.213676119481166E9 ; 0.0
25 ; 7695393.003374967 ; 2.012732300795883E8 ; 1.8204290939143217E8 ; 3.4086938923848124E9 ; 0.0
26 ; 7709168.004370721 ; 2.0127927140150946E8 ; 1.8973830239480713E8 ; 3.609967122464401E9 ; 0.0
27 ; 7716406.7188797025 ; 2.0128565920808113E8 ; 1.9744747039917785E8 ; 3.81124639386591E9 ; 0.0
28 ; 7722380.07851773 ; 2.0129238632696405E8 ; 2.0516387711805755E8 ; 4.0125320530739913E9 ; 0.0
29 ; 7726371.494852448 ; 2.0129944539964896E8 ; 2.1288625719657528E8 ; 4.213824439400955E9 ; 0.0
30 ; 7740677.521350375 ; 2.0130682891223758E8 ; 2.2061262869142774E8 ; 4.415123884800604E9 ; 0.0
31 ; 7749393.765697752 ; 2.0131452922519034E8 ; 2.2835330621277812E8 ; 4.616430713712841E9 ; 0.0
32 ; 7755840.805494727 ; 2.013225386018537E8 ; 2.3610269997847587E8 ; 4.817745242938031E9 ; 0.0
33 ; 7762000.052315048 ; 2.013308492356135E8 ; 2.438585407839706E8 ; 5.019067781539885E9 ; 0.0
34 ; 7769222.893733568 ; 2.0133945327555165E8 ; 2.5162054083628565E8 ; 5.220398630775498E9 ; 0.0
35 ; 7776989.5883004675 ; 2.0134834285051453E8 ; 2.593897637300192E8 ; 5.42173808405105E9 ; 0.0
36 ; 7786651.364397936 ; 2.0135751009152997E8 ; 2.6716675331831968E8 ; 5.623086426901565E9 ; 0.0
37 ; 7791169.290779767 ; 2.0136694715253538E8 ; 2.749534046827176E8 ; 5.824443936993094E9 ; 0.0
38 ; 7797530.637638122 ; 2.013766462294045E8 ; 2.827445739734974E8 ; 6.02581088414563E9 ; 0.0
39 ; 7802701.369800115 ; 2.013865995772798E8 ; 2.905421046111355E8 ; 6.227187530375034E9 ; 0.0
40 ; 7809752.840111172 ; 2.0139679952623737E8 ; 2.983448059809356E8 ; 6.428574129952314E9 ; 0.0
41 ; 7813896.659829558 ; 2.0140723849532577E8 ; 3.0615455882104677E8 ; 6.629970929478552E9 ; 0.0
42 ; 7821572.821999687 ; 2.0141790900503364E8 ; 3.139684554808763E8 ; 6.831378167973878E9 ; 0.0
43 ; 7828004.611397239 ; 2.0142880368825158E8 ; 3.21790028302876E8 ; 7.032796076978911E9 ; 0.0
44 ; 7829988.578501956 ; 2.0143991529980138E8 ; 3.2961803291427326E8 ; 7.234224880667163E9 ; 0.0
45 ; 7836105.330921718 ; 2.014512367246121E8 ; 3.374480214927752E8 ; 7.435664795966965E9 ; 0.0
46 ; 7839676.624632463 ; 2.0146276098462662E8 ; 3.452841268236969E8 ; 7.637116032691577E9 ; 0.0
47 ; 7843983.135573653 ; 2.0147448124452478E8 ; 3.531238034483294E8 ; 7.838578793676204E9 ; 0.0
48 ; 7847066.989415676 ; 2.0148639081634924E8 ; 3.60967786583903E8 ; 8.040053274920729E9 ; 0.0
49 ; 7849297.324285078 ; 2.014984831631213E8 ; 3.688148535733187E8 ; 8.241539665737078E9 ; 0.0
50 ; 7853174.231502166 ; 2.0151075190153167E8 ; 3.766641508976038E8 ; 8.443038148900199E9 ; 0.0
51 ; 7852413.423158752 ; 2.015231908037884E8 ; 3.84517325129106E8 ; 8.644548900801731E9 ; 0.0
52 ; 7855235.447851288 ; 2.0153579379870304E8 ; 3.9236973855226475E8 ; 8.84607209160552E9 ; 0.0
53 ; 7860942.024256902 ; 2.0154855497209042E8 ; 4.0022497400011605E8 ; 9.047607885404222E9 ; 0.0
54 ; 7860826.691398529 ; 2.0156146856655535E8 ; 4.0808591602437294E8 ; 9.249156440376312E9 ; 0.0
55 ; 7860426.733681972 ; 2.0157452898073423E8 ; 4.1594674271577144E8 ; 9.450717908942867E9 ; 0.0
56 ; 7862871.495475429 ; 2.0158773076805615E8 ; 4.238071694494534E8 ; 9.652292437923601E9 ; 0.0
57 ; 7865442.245254841 ; 2.0160106863508287E8 ; 4.316700409449288E8 ; 9.853880168691658E9 ; 0.0
58 ; 7866449.187317945 ; 2.016145374394833E8 ; 4.3953548319018364E8 ; 1.005548123732674E10 ; 0.0
59 ; 7871114.730283324 ; 2.016281321876937E8 ; 4.474019323775016E8 ; 1.0257095774766224E10 ; 0.0
60 ; 7872803.660194839 ; 2.0164184803230986E8 ; 4.552730471077849E8 ; 1.0458723906953918E10 ; 0.0
61 ; 7871857.57486103 ; 2.0165568026925498E8 ; 4.6314585076797974E8 ; 1.0660365754986229E10 ; 0.0
62 ; 7873759.929231672 ; 2.0166962433476126E8 ; 4.710177083428408E8 ; 1.0862021435255484E10 ; 0.0
63 ; 7878119.995420396 ; 2.0168367580220103E8 ; 4.7889146827207243E8 ; 1.1063691059590244E10 ; 0.0
64 ; 7880398.736636721 ; 2.0169783037879872E8 ; 4.8676958826749283E8 ; 1.1265374735392445E10 ; 0.0
65 ; 7879146.558025856 ; 2.017120839022525E8 ; 4.946499870041295E8 ; 1.1467072565771244E10 ; 0.0
66 ; 7880069.219415749 ; 2.0172643233729067E8 ; 5.0252913356215537E8 ; 1.1668784649673496E10 ; 0.0
67 ; 7880224.6889612805 ; 2.0174087177218556E8 ; 5.104092027815711E8 ; 1.1870511082010786E10 ; 0.0
68 ; 7883783.536894409 ; 2.017553984152447E8 ; 5.1828942747053236E8 ; 1.2072251953782972E10 ; 0.0
69 ; 7883740.299016881 ; 2.0177000859129706E8 ; 5.2617321100742674E8 ; 1.2274007352198217E10 ; 0.0
70 ; 7883044.171402083 ; 2.0178469873818958E8 ; 5.3405695130644363E8 ; 1.2475777360789515E10 ; 0.0
71 ; 7889176.677553868 ; 2.017994654033072E8 ; 5.419399954778457E8 ; 1.2677562059527704E10 ; 0.0
72 ; 7886235.628093848 ; 2.018143052401281E8 ; 5.498291721553996E8 ; 1.2879361524931011E10 ; 0.0
73 ; 7890090.381217968 ; 2.0182921500482407E8 ; 5.577154077834934E8 ; 1.3081175830171139E10 ; 0.0
74 ; 7888469.266594801 ; 2.0184419155291387E8 ; 5.656054981647114E8 ; 1.3283005045175962E10 ; 0.0
75 ; 7890687.976995549 ; 2.0185923183597755E8 ; 5.734939674313061E8 ; 1.3484849236728876E10 ; 0.0
76 ; 7889994.264464093 ; 2.0187433289843637E8 ; 5.813846554083017E8 ; 1.3686708468564854E10 ; 0.0
77 ; 7893589.724587636 ; 2.0188949187440416E8 ; 5.892746496727659E8 ; 1.388858280146329E10 ; 0.0
78 ; 7887974.033846438 ; 2.0190470598461318E8 ; 5.971682393973535E8 ; 1.4090472293337694E10 ; 0.0
79 ; 7885144.641507685 ; 2.0191997253341785E8 ; 6.050562134312E8 ; 1.4292376999322308E10 ; 0.0
80 ; 7884288.063018439 ; 2.0193528890587822E8 ; 6.129413580727077E8 ; 1.4494296971855726E10 ; 0.0
81 ; 7883821.407142774 ; 2.0195065256492493E8 ; 6.208256461357261E8 ; 1.4696232260761604E10 ; 0.0
82 ; 7884019.912311472 ; 2.0196606104860666E8 ; 6.287094675428689E8 ; 1.4898182913326529E10 ; 0.0
83 ; 7878836.264515573 ; 2.019815119674204E8 ; 6.365934874551803E8 ; 1.5100148974375135E10 ; 0.0
84 ; 7878376.250816354 ; 2.0199700300172436E8 ; 6.444723237196958E8 ; 1.5302130486342556E10 ; 0.0
85 ; 7874520.004165235 ; 2.0201253189923373E8 ; 6.523506999705122E8 ; 1.550412748934428E10 ; 0.0
86 ; 7872314.145184609 ; 2.0202809647259802E8 ; 6.602252199746774E8 ; 1.5706140021243513E10 ; 0.0
87 ; 7873408.288167829 ; 2.020436945970593E8 ; 6.680975341198621E8 ; 1.590816811771611E10 ; 0.0
88 ; 7866746.5949184755 ; 2.0205932420819023E8 ; 6.759709424080299E8 ; 1.611021181231317E10 ; 0.0
89 ; 7866527.5336709 ; 2.020749832997101E8 ; 6.838376890029484E8 ; 1.631227113652136E10 ; 0.0
90 ; 7860609.328053988 ; 2.020906699213778E8 ; 6.917042165366193E8 ; 1.651434611982107E10 ; 0.0
91 ; 7857446.347840273 ; 2.021063821769598E8 ; 6.995648258646733E8 ; 1.6716436789742447E10 ; 0.0
92 ; 7858523.4057802735 ; 2.021221182222712E8 ; 7.074222722125136E8 ; 1.6918543171919407E10 ; 0.0
93 ; 7853150.624599126 ; 2.0213787626328838E8 ; 7.152807956182939E8 ; 1.7120665290141678E10 ; 0.0
94 ; 7848306.0206344295 ; 2.0215365455433095E8 ; 7.23133946242893E8 ; 1.7322803166404964E10 ; 0.0
95 ; 7846145.911636451 ; 2.021694513963111E8 ; 7.309822522635274E8 ; 1.7524956820959297E10 ; 0.0
96 ; 7845743.288416108 ; 2.0218526513504875E8 ; 7.388283981751639E8 ; 1.772712627235561E10 ; 0.0
97 ; 7840819.058874515 ; 2.022010941596496E8 ; 7.4667414146358E8 ; 1.7929311537490658E10 ; 0.0
98 ; 7838339.6092987005 ; 2.0221693690094522E8 ; 7.545149605224545E8 ; 1.8131512631650307E10 ; 0.0
99 ; 7837527.504259073 ; 2.0223279182999194E8 ; 7.623533001317532E8 ; 1.833372956855125E10 ; 0.0
100 ; 7832214.593751388 ; 2.0224865745662782E8 ; 7.701908276360123E8 ; 1.853596236038124E10 ; 0.0
101 ; 7829886.36705323 ; 2.0226453232808447E8 ; 7.780230422297637E8 ; 1.8738211017837868E10 ; 0.0
102 ; 7826029.391069139 ; 2.0228041502765283E8 ; 7.85852928596817E8 ; 1.894047555016595E10 ; 0.0
103 ; 7820962.836378913 ; 2.022963041734002E8 ; 7.936789579878862E8 ; 1.9142755965193604E10 ; 0.0
104 ; 7818908.806730635 ; 2.0231219841693732E8 ; 8.014999208242651E8 ; 1.9345052269367004E10 ; 0.0
105 ; 7815612.689408456 ; 2.0232809644223318E8 ; 8.093188296309958E8 ; 1.9547364467783943E10 ; 0.0
106 ; 7809889.62910421 ; 2.0234399696447596E8 ; 8.171344423204042E8 ; 1.9749692564226177E10 ; 0.0
107 ; 7805478.192730258 ; 2.0235989872897846E8 ; 8.249443319495084E8 ; 1.9952036561190655E10 ; 0.0
108 ; 7799935.387046495 ; 2.023758005101261E8 ; 8.327498101422387E8 ; 2.0154396459919632E10 ; 0.0
109 ; 7799018.6454807725 ; 2.0239170111036614E8 ; 8.405497455292852E8 ; 2.0356772260429756E10 ; 0.0
110 ; 7792516.112582 ; 2.0240759935923624E8 ; 8.48348764174766E8 ; 2.0559163961540123E10 ; 0.0
111 ; 7790135.462168749 ; 2.0242349411243108E8 ; 8.561412802873479E8 ; 2.076157156089936E10 ; 0.0
112 ; 7786003.860772817 ; 2.024393842509054E8 ; 8.639314157495166E8 ; 2.096399505501179E10 ; 0.0
113 ; 7781284.488213359 ; 2.0245526868001193E8 ; 8.717174196102895E8 ; 2.1166434439262695E10 ; 0.0
114 ; 7776887.534181259 ; 2.0247114632867324E8 ; 8.794987040985028E8 ; 2.1368889707942707E10 ; 0.0
115 ; 7775882.224839708 ; 2.0248701614858562E8 ; 8.87275591632684E8 ; 2.157136085427138E10 ; 0.0
116 ; 7768326.24167331 ; 2.0250287711345407E8 ; 8.950514738575237E8 ; 2.1773847870419968E10 ; 0.0
117 ; 7764449.345303858 ; 2.0251872821825713E8 ; 9.02819800099197E8 ; 2.197635074753342E10 ; 0.0
118 ; 7760390.780193597 ; 2.0253456847854003E8 ; 9.105842494445009E8 ; 2.217886947575168E10 ; 0.0
119 ; 7753248.342746756 ; 2.025503969297356E8 ; 9.183446402246945E8 ; 2.2381404044230217E10 ; 0.0
120 ; 7751006.143422614 ; 2.0256621262651125E8 ; 9.260978885674412E8 ; 2.2583954441159954E10 ; 0.0
121 ; 7744461.887596216 ; 2.0258201464214125E8 ; 9.338488947108638E8 ; 2.2786520653786465E10 ; 0.0
122 ; 7739942.008586007 ; 2.0259780206790328E8 ; 9.415933565984601E8 ; 2.2989102668428604E10 ; 0.0
123 ; 7735277.531592864 ; 2.0261357401249817E8 ; 9.493332986070461E8 ; 2.3191700470496506E10 ; 0.0
124 ; 7728871.22259457 ; 2.02629329601492E8 ; 9.57068576138639E8 ; 2.3394314044509003E10 ; 0.0
125 ; 7725957.29076984 ; 2.0264506797677952E8 ; 9.647974473612336E8 ; 2.3596943374110497E10 ; 0.0
126 ; 7720075.172890095 ; 2.0266078829606816E8 ; 9.725234046520034E8 ; 2.3799588442087276E10 ; 0.0
127 ; 7716338.422140309 ; 2.026764897323818E8 ; 9.802434798248935E8 ; 2.4002249230383343E10 ; 0.0
128 ; 7710487.876990245 ; 2.026921714735832E8 ; 9.879598182470338E8 ; 2.4204925720115723E10 ; 0.0
129 ; 7706990.890714944 ; 2.0270783272191483E8 ; 9.95670306124024E8 ; 2.4407617891589306E10 ; 0.0
130 ; 7698931.287307431 ; 2.0272347269355696E8 ; 1.003377297014739E9 ; 2.4610325724311222E10 ; 0.0
131 ; 7691830.2227227595 ; 2.0273909061820254E8 ; 1.0110762283020464E9 ; 2.481304919700478E10 ; 0.0
132 ; 7680503.688537327 ; 2.0275468573864782E8 ; 1.0187680585247692E9 ; 2.5015788287622982E10 ; 0.0
133 ; 7673416.462903245 ; 2.027702573103988E8 ; 1.0264485622133065E9 ; 2.521854297336163E10 ; 0.0
134 ; 7667233.366937256 ; 2.0278580460129198E8 ; 1.0341219786762098E9 ; 2.5421313230672028E10 ; 0.0
135 ; 7659339.983317316 ; 2.0280132689112967E8 ; 1.0417892120431471E9 ; 2.562409903527332E10 ; 0.0
136 ; 7647527.238205143 ; 2.0281682347132847E8 ; 1.0494485520264645E9 ; 2.5826900362164448E10 ; 0.0
137 ; 7642245.44525825 ; 2.028322936445812E8 ; 1.0570960792646697E9 ; 2.6029717185635777E10 ; 0.0
138 ; 7633280.615655854 ; 2.0284773672453108E8 ; 1.0647383247099279E9 ; 2.6232549479280357E10 ; 0.0
139 ; 7623300.348309645 ; 2.0286315203545797E8 ; 1.0723716053255838E9 ; 2.6435397216004887E10 ; 0.0
140 ; 7615888.061076741 ; 2.0287853891197634E8 ; 1.0799949056738935E9 ; 2.6638260368040344E10 ; 0.0
141 ; 7604340.810120614 ; 2.0289389669874406E8 ; 1.08761079373497E9 ; 2.684113890695232E10 ; 0.0
142 ; 7596102.072496309 ; 2.0290922475018203E8 ; 1.0952151345450907E9 ; 2.7044032803651066E10 ; 0.0
143 ; 7591652.575925174 ; 2.029245224302039E8 ; 1.102811236617587E9 ; 2.724694202840125E10 ; 0.0
144 ; 7581205.645022099 ; 2.0293978911195576E8 ; 1.1104028891935122E9 ; 2.744986655083145E10 ; 0.0
145 ; 7574436.269821202 ; 2.029550241775651E8 ; 1.1179840948385344E9 ; 2.765280633994341E10 ; 0.0
146 ; 7565378.460628251 ; 2.0297022701789886E8 ; 1.1255585311083555E9 ; 2.7855761364120975E10 ; 0.0
147 ; 7562081.419019484 ; 2.029853970323304E8 ; 1.1331239095689838E9 ; 2.8058731591138874E10 ; 0.0
148 ; 7557123.208929669 ; 2.030005336285144E8 ; 1.1406859909880033E9 ; 2.8261716988171204E10 ; 0.0
149 ; 7549896.379049407 ; 2.030156362221704E8 ; 1.148243114196933E9 ; 2.8464717521799717E10 ; 0.0
150 ; 7545898.850139272 ; 2.0303070423687345E8 ; 1.1557930105759823E9 ; 2.866773315802189E10 ; 0.0
151 ; 7537558.232149957 ; 2.030457371038525E8 ; 1.1633389094261217E9 ; 2.8870763862258762E10 ; 0.0
152 ; 7532916.589307532 ; 2.0306073426179615E8 ; 1.1708764676582716E9 ; 2.9073809599362614E10 ; 0.0
153 ; 7526812.824986242 ; 2.030756951566647E8 ; 1.178409384247579E9 ; 2.927687033362441E10 ; 0.0
154 ; 7520951.822063391 ; 2.0309061924150935E8 ; 1.1859361970725653E9 ; 2.9479946028781075E10 ; 0.0
155 ; 7513450.336007521 ; 2.0310550597629735E8 ; 1.1934571488946288E9 ; 2.9683036648022583E10 ; 0.0
156 ; 7506619.05067052 ; 2.0312035482774362E8 ; 1.2009705992306364E9 ; 2.988614215399888E10 ; 0.0
157 ; 7504130.972997248 ; 2.031351652691479E8 ; 1.208477218281307E9 ; 3.0089262508826622E10 ; 0.0
158 ; 7494881.65836087 ; 2.0314993678023773E8 ; 1.2159813492543042E9 ; 3.029239767409577E10 ; 0.0
159 ; 7490955.316556005 ; 2.03164668847017E8 ; 1.2234762309126651E9 ; 3.049554761087601E10 ; 0.0
160 ; 7484050.906810992 ; 2.0317936096161935E8 ; 1.230967186229221E9 ; 3.0698712279723026E10 ; 0.0
161 ; 7477419.795757677 ; 2.0319401262216696E8 ; 1.238451237136032E9 ; 3.0901891640684647E10 ; 0.0
162 ; 7473209.3639034005 ; 2.0320862333263418E8 ; 1.2459286569317899E9 ; 3.1105085653306812E10 ; 0.0
163 ; 7467079.686261543 ; 2.032231926027155E8 ; 1.2534018662956932E9 ; 3.1308294276639446E10 ; 0.0
164 ; 7458028.445881739 ; 2.0323771994769838E8 ; 1.2608689459819548E9 ; 3.151151746924216E10 ; 0.0
165 ; 7449265.3981518615 ; 2.0325220488834023E8 ; 1.2683269744278367E9 ; 3.1714755189189857E10 ; 0.0
166 ; 7446411.66843549 ; 2.0326664695074964E8 ; 1.2757762398259885E9 ; 3.1918007394078197E10 ; 0.0
167 ; 7437876.702004356 ; 2.0328104566627142E8 ; 1.283222651494424E9 ; 3.2121274041028946E10 ; 0.0
168 ; 7431345.806951922 ; 2.032954005713759E8 ; 1.2906605281964285E9 ; 3.2324555086695217E10 ; 0.0
169 ; 7424420.450164305 ; 2.0330971120755154E8 ; 1.2980918740033805E9 ; 3.2527850487266594E10 ; 0.0
170 ; 7416811.266595463 ; 2.033239771212014E8 ; 1.3055162944535449E9 ; 3.2731160198474144E10 ; 0.0
171 ; 7412202.331786783 ; 2.033381978635429E8 ; 1.3129331057201402E9 ; 3.2934484175595345E10 ; 0.0
172 ; 7404098.825448966 ; 2.0335237299051127E8 ; 1.320345308051927E9 ; 3.313782237345889E10 ; 0.0
173 ; 7399480.217486892 ; 2.0336650206266552E8 ; 1.327749406877376E9 ; 3.33411747464494E10 ; 0.0
174 ; 7394773.077351656 ; 2.0338058464509833E8 ; 1.335148887094863E9 ; 3.3544541248512066E10 ; 0.0
175 ; 7390306.387476616 ; 2.0339462030734828E8 ; 1.3425436601722145E9 ; 3.3747921833157166E10 ; 0.0
176 ; 7385815.746384024 ; 2.0340860862331542E8 ; 1.3499339665596912E9 ; 3.3951316453464516E10 ; 0.0
177 ; 7382882.970891204 ; 2.0342254917117926E8 ; 1.357319782306075E9 ; 3.415472506208783E10 ; 0.0
178 ; 7378533.875212472 ; 2.0343644153331974E8 ; 1.3647026652769663E9 ; 3.435814761125901E10 ; 0.0
179 ; 7375719.310353906 ; 2.0345028529624045E8 ; 1.3720811991521788E9 ; 3.456158405279233E10 ; 0.0
180 ; 7368344.483658568 ; 2.0346408005049485E8 ; 1.3794569184625328E9 ; 3.476503433808857E10 ; 0.0
181 ; 7364984.651325678 ; 2.0347782539061433E8 ; 1.3868252629461913E9 ; 3.496849841813906E10 ; 0.0
182 ; 7362109.286578215 ; 2.0349152091503894E8 ; 1.394190247597517E9 ; 3.517197624352968E10 ; 0.0
183 ; 7356086.035093556 ; 2.0350516622605035E8 ; 1.4015523568840952E9 ; 3.537546776444472E10 ; 0.0
184 ; 7352712.106887439 ; 2.035187609297069E8 ; 1.4089084429191887E9 ; 3.557897293067077E10 ; 0.0
185 ; 7348435.299443623 ; 2.035323046357806E8 ; 1.416261155026076E9 ; 3.578249169160048E10 ; 0.0
186 ; 7341197.548339591 ; 2.0354579695769653E8 ; 1.4236095903255198E9 ; 3.598602399623626E10 ; 0.0
187 ; 7341119.606371512 ; 2.0355923751247376E8 ; 1.4309507878738594E9 ; 3.6189569793193954E10 ; 0.0
188 ; 7336866.39060017 ; 2.035726259206685E8 ; 1.4382919074802308E9 ; 3.639312903070643E10 ; 0.0
189 ; 7329551.3793989485 ; 2.0358596180631882E8 ; 1.445628773870831E9 ; 3.65967016566271E10 ; 0.0
190 ; 7325996.096170711 ; 2.0359924479689127E8 ; 1.45295832525023E9 ; 3.680028761843342E10 ; 0.0
191 ; 7322934.873524299 ; 2.0361247452322915E8 ; 1.4602843213464007E9 ; 3.700388686323031E10 ; 0.0
192 ; 7321295.828452709 ; 2.036256506195024E8 ; 1.467607256219925E9 ; 3.720749933775354E10 ; 0.0
193 ; 7313696.348390483 ; 2.036387727231592E8 ; 1.4749285520483778E9 ; 3.741112498837304E10 ; 0.0
194 ; 7310647.2507304745 ; 2.0365184047487885E8 ; 1.4822422483967683E9 ; 3.76147637610962E10 ; 0.0
195 ; 7310142.003391784 ; 2.0366485351852638E8 ; 1.4895528956474988E9 ; 3.7818415601571075E10 ; 0.0
196 ; 7302204.388165158 ; 2.0367781150110847E8 ; 1.4968630376508906E9 ; 3.80220804550896E10 ; 0.0
197 ; 7298644.991090665 ; 2.0369071407273072E8 ; 1.5041652420390558E9 ; 3.8225758266590706E10 ; 0.0
198 ; 7294108.772144649 ; 2.0370356088655648E8 ; 1.5114638870301466E9 ; 3.842944898066344E10 ; 0.0
199 ; 7291405.986443761 ; 2.037163515987666E8 ; 1.5187579958022912E9 ; 3.8633152541549995E10 ; 0.0
200 ; 7288237.226608509 ; 1.8427510850782564E8 ; 1.526049401788735E9 ; 3.8836868893148766E10 ; 0.0
201 ; 7281432.481497024 ; 1.549017701390638E8 ; 1.5333376390153434E9 ; 3.902114400165659E10 ; 0.0
