CSV File for the City 4 on Day 324
1 - Minute m 
2 - Power Consumed at minute m 
3 - Power Produced at minute m 
4 - Energy Consumed since the beginning of the day 
5 - Energy Produced since the beginning of the day 
6 - Energy Lost since the beginning of the day on lines starting from the city
 
0 ; 6878184.890051963 ; 1.06810208280058E8 ; 0.0 ; 0.0 ; 0.0
1 ; 6888782.361391098 ; 1.0696056433278167E8 ; 6878184.890051963 ; 1.06810208280058E8 ; 0.0
2 ; 6895064.396343399 ; 1.0741997079005715E8 ; 1.3766967251443062E7 ; 2.1377077261283967E8 ; 0.0
3 ; 6900715.7710565 ; 1.081884305836227E8 ; 2.066203164778646E7 ; 3.211907434028968E8 ; 0.0
4 ; 6911166.807633472 ; 1.0926594632687163E8 ; 2.756274741884296E7 ; 4.293791739865195E8 ; 0.0
5 ; 6929582.606826704 ; 1.1065252030516732E8 ; 3.447391422647643E7 ; 5.386451203133912E8 ; 0.0
6 ; 6938733.894816397 ; 1.1234815446726814E8 ; 4.140349683330314E7 ; 6.492976406185585E8 ; 0.0
7 ; 6964461.65173192 ; 1.143528504179365E8 ; 4.834223072811954E7 ; 7.616457950858266E8 ; 0.0
8 ; 7001352.9655886805 ; 1.166666094117977E8 ; 5.530669237985146E7 ; 8.759986455037632E8 ; 0.0
9 ; 7047557.761965555 ; 1.1928943234850514E8 ; 6.230804534544014E7 ; 9.92665254915561E8 ; 0.0
10 ; 7125501.964737339 ; 1.2222131976925427E8 ; 6.935560310740569E7 ; 1.1119546872640662E9 ; 0.0
11 ; 7251295.379667429 ; 1.25462271854678E8 ; 7.648110507214303E7 ; 1.2341760070333204E9 ; 0.0
12 ; 7451345.566006387 ; 1.290122884241434E8 ; 8.373240045181046E7 ; 1.3596382788879983E9 ; 0.0
13 ; 7642582.206788164 ; 1.3287136893645501E8 ; 9.118374601781686E7 ; 1.4886505673121417E9 ; 0.0
14 ; 7660774.072407484 ; 1.370395124919595E8 ; 9.882632822460502E7 ; 1.6215219362485967E9 ; 0.0
15 ; 7672493.527319409 ; 1.415167178360315E8 ; 1.0648710229701251E8 ; 1.7585614487405562E9 ; 0.0
16 ; 7682796.769602812 ; 1.4630298336390868E8 ; 1.1415959582433191E8 ; 1.9000781665765877E9 ; 0.0
17 ; 7689635.771612868 ; 1.5139830712683257E8 ; 1.2184239259393471E8 ; 2.0463811499404964E9 ; 0.0
18 ; 7699847.514349297 ; 1.5680268683943987E8 ; 1.2953202836554758E8 ; 2.197779457067329E9 ; 0.0
19 ; 7708548.303808325 ; 1.6251611988833722E8 ; 1.3723187587989688E8 ; 2.354582143906769E9 ; 0.0
20 ; 7719573.287149799 ; 1.6853860334178635E8 ; 1.449404241837052E8 ; 2.517098263795106E9 ; 0.0
21 ; 7725697.495599399 ; 1.748701339604145E8 ; 1.52659997470855E8 ; 2.6856368671368923E9 ; 0.0
22 ; 7737433.190264009 ; 1.8151070820886093E8 ; 1.603856949664544E8 ; 2.8605070010973067E9 ; 0.0
23 ; 7745897.265119622 ; 1.8846032226826286E8 ; 1.681231281567184E8 ; 3.0420177093061676E9 ; 0.0
24 ; 7756235.624847417 ; 1.9571897204948103E8 ; 1.7586902542183802E8 ; 3.2304780315744305E9 ; 0.0
25 ; 7763949.169383994 ; 2.0197469410514557E8 ; 1.8362526104668543E8 ; 3.4261970036239114E9 ; 0.0
26 ; 7770966.583981118 ; 2.019810316809456E8 ; 1.9138921021606943E8 ; 3.628171697729057E9 ; 0.0
27 ; 7783161.316747487 ; 2.0198774925535372E8 ; 1.9916017680005056E8 ; 3.830152729410002E9 ; 0.0
28 ; 7792927.123913765 ; 2.019948418015429E8 ; 2.0694333811679804E8 ; 4.032140478665356E9 ; 0.0
29 ; 7799507.59770002 ; 2.0200230409599805E8 ; 2.147362652407118E8 ; 4.234135320466899E9 ; 0.0
30 ; 7808164.660648362 ; 2.0201013073400593E8 ; 2.2253577283841184E8 ; 4.436137624562897E9 ; 0.0
31 ; 7814182.977663712 ; 2.0201831614517456E8 ; 2.303439374990602E8 ; 4.638147755296903E9 ; 0.0
32 ; 7829153.899124828 ; 2.020268546088929E8 ; 2.3815812047672394E8 ; 4.840166071442078E9 ; 0.0
33 ; 7833803.749532286 ; 2.0203574026964724E8 ; 2.4598727437584877E8 ; 5.04219292605097E9 ; 0.0
34 ; 7843708.736253395 ; 2.0204496715211743E8 ; 2.5382107812538105E8 ; 5.244228666320618E9 ; 0.0
35 ; 7849286.737423247 ; 2.020545291759821E8 ; 2.6166478686163443E8 ; 5.446273633472735E9 ; 0.0
36 ; 7855183.641132943 ; 2.0206442017036885E8 ; 2.695140735990577E8 ; 5.648328162648718E9 ; 0.0
37 ; 7863824.011183502 ; 2.020746338878936E8 ; 2.773692572401906E8 ; 5.850392582819087E9 ; 0.0
38 ; 7870267.617441986 ; 2.020851640182386E8 ; 2.852330812513741E8 ; 6.052467216706981E9 ; 0.0
39 ; 7879753.735858836 ; 2.0209600420122743E8 ; 2.9310334886881614E8 ; 6.25455238072522E9 ; 0.0
40 ; 7887025.1467217 ; 2.0210714803936088E8 ; 3.00983102604675E8 ; 6.456648384926447E9 ; 0.0
41 ; 7891974.886180915 ; 2.0211858910978523E8 ; 3.088701277513967E8 ; 6.658755532965808E9 ; 0.0
42 ; 7899095.3020762205 ; 2.0213032097567025E8 ; 3.1676210263757765E8 ; 6.860874122075593E9 ; 0.0
43 ; 7901885.7188232355 ; 2.0214233719698054E8 ; 3.246611979396539E8 ; 7.063004443051263E9 ; 0.0
44 ; 7910173.775131982 ; 2.021546313406297E8 ; 3.325630836584771E8 ; 7.265146780248243E9 ; 0.0
45 ; 7912950.662634921 ; 2.0216719699001133E8 ; 3.404732574336091E8 ; 7.467301411588873E9 ; 0.0
46 ; 7920926.662464907 ; 2.0218002775390682E8 ; 3.4838620809624404E8 ; 7.669468608578884E9 ; 0.0
47 ; 7921751.672722414 ; 2.0219311727477303E8 ; 3.5630713475870895E8 ; 7.871648636332791E9 ; 0.0
48 ; 7927917.793139703 ; 2.0220645923641765E8 ; 3.6422888643143135E8 ; 8.073841753607564E9 ; 0.0
49 ; 7929287.64766667 ; 2.0222004737107304E8 ; 3.7215680422457105E8 ; 8.276048212843982E9 ; 0.0
50 ; 7931924.925579051 ; 2.02233875465883E8 ; 3.8008609187223774E8 ; 8.4782682602150545E9 ; 0.0
51 ; 7933933.371113827 ; 2.02247937368818E8 ; 3.880180167978168E8 ; 8.680502135680937E9 ; 0.0
52 ; 7942446.520482039 ; 2.0226222699403876E8 ; 3.9595195016893065E8 ; 8.882750073049755E9 ; 0.0
53 ; 7946064.619583436 ; 2.022767383267275E8 ; 4.038943966894127E8 ; 9.085012300043795E9 ; 0.0
54 ; 7942216.061226904 ; 2.0229146542740947E8 ; 4.1184046130899614E8 ; 9.287289038370522E9 ; 0.0
55 ; 7946998.782505518 ; 2.0230640243578723E8 ; 4.1978267737022305E8 ; 9.489580503797932E9 ; 0.0
56 ; 7946890.978711606 ; 2.0232154357411158E8 ; 4.2772967615272856E8 ; 9.691886906233719E9 ; 0.0
57 ; 7951816.156707536 ; 2.023368831501133E8 ; 4.3567656713144016E8 ; 9.89420844980783E9 ; 0.0
58 ; 7955121.0405694125 ; 2.0235241555951992E8 ; 4.436283832881477E8 ; 1.0096545332957945E10 ; 0.0
59 ; 7954618.561001003 ; 2.02368135288182E8 ; 4.515835043287171E8 ; 1.0298897748517466E10 ; 0.0
60 ; 7960370.862721954 ; 2.0238403691383377E8 ; 4.595381228897181E8 ; 1.0501265883805647E10 ; 0.0
61 ; 7961646.073955563 ; 2.024001151075111E8 ; 4.674984937524401E8 ; 1.070364992071948E10 ; 0.0
62 ; 7963425.668302404 ; 2.024163646346511E8 ; 4.7546013982639563E8 ; 1.0906050035826992E10 ; 0.0
63 ; 7964291.506048975 ; 2.0243278035589576E8 ; 4.8342356549469805E8 ; 1.1108466400461643E10 ; 0.0
64 ; 7969073.174092573 ; 2.0244935722762194E8 ; 4.91387857000747E8 ; 1.131089918081754E10 ; 0.0
65 ; 7971369.0269782515 ; 2.024660903022195E8 ; 4.993569301748396E8 ; 1.151334853804516E10 ; 0.0
66 ; 7969927.04145144 ; 2.0248297472813728E8 ; 5.0732829920181787E8 ; 1.171581462834738E10 ; 0.0
67 ; 7977173.742424317 ; 2.025000057497175E8 ; 5.152982262432693E8 ; 1.1918297603075518E10 ; 0.0
68 ; 7975202.029831773 ; 2.02517178706837E8 ; 5.2327539998569363E8 ; 1.2120797608825235E10 ; 0.0
69 ; 7975441.362589752 ; 2.025344890343729E8 ; 5.312506020155254E8 ; 1.2323314787532072E10 ; 0.0
70 ; 7980140.61431007 ; 2.025519322615101E8 ; 5.392260433781152E8 ; 1.2525849276566444E10 ; 0.0
71 ; 7980063.449527806 ; 2.025695040109061E8 ; 5.472061839924252E8 ; 1.2728401208827955E10 ; 0.0
72 ; 7983582.659577285 ; 2.0258719999772844E8 ; 5.551862474419531E8 ; 1.2930970712838861E10 ; 0.0
73 ; 7983868.615105072 ; 2.026050160285786E8 ; 5.631698301015303E8 ; 1.313355791283659E10 ; 0.0
74 ; 7984864.554827341 ; 2.026229480003158E8 ; 5.711536987166353E8 ; 1.3336162928865168E10 ; 0.0
75 ; 7985974.482322604 ; 2.0264099189879256E8 ; 5.791385632714627E8 ; 1.3538785876865484E10 ; 0.0
76 ; 7987329.301591345 ; 2.02659143797514E8 ; 5.871245377537853E8 ; 1.3741426868764277E10 ; 0.0
77 ; 7989362.769001455 ; 2.02677399856231E8 ; 5.951118670553766E8 ; 1.394408601256179E10 ; 0.0
78 ; 7989422.175500329 ; 2.026957563194773E8 ; 6.031012298243781E8 ; 1.4146763412418022E10 ; 0.0
79 ; 7984276.516313273 ; 2.027142095150593E8 ; 6.110906519998784E8 ; 1.43494591687375E10 ; 0.0
80 ; 7986256.04449929 ; 2.0273275585250756E8 ; 6.190749285161917E8 ; 1.4552173378252558E10 ; 0.0
81 ; 7985693.813182292 ; 2.027513918214969E8 ; 6.27061184560691E8 ; 1.4754906134105064E10 ; 0.0
82 ; 7980495.003273995 ; 2.0277011399024227E8 ; 6.350468783738732E8 ; 1.4957657525926561E10 ; 0.0
83 ; 7980661.383783133 ; 2.0278891900387746E8 ; 6.430273733771472E8 ; 1.5160427639916803E10 ; 0.0
84 ; 7980036.944400091 ; 2.028078035828214E8 ; 6.510080347609303E8 ; 1.5363216558920681E10 ; 0.0
85 ; 7975808.640871283 ; 2.028267645211383E8 ; 6.589880717053304E8 ; 1.5566024362503502E10 ; 0.0
86 ; 7978201.830967398 ; 2.0284579868489596E8 ; 6.669638803462017E8 ; 1.5768851127024641E10 ; 0.0
87 ; 7974052.295026578 ; 2.0286490301052642E8 ; 6.749420821771691E8 ; 1.5971696925709538E10 ; 0.0
88 ; 7969367.02733206 ; 2.0288407450319323E8 ; 6.829161344721956E8 ; 1.6174561828720064E10 ; 0.0
89 ; 7971543.884502244 ; 2.029033102351687E8 ; 6.908855014995277E8 ; 1.6377445903223257E10 ; 0.0
90 ; 7970098.877622945 ; 2.0292260734422386E8 ; 6.9885704538403E8 ; 1.6580349213458426E10 ; 0.0
91 ; 7969689.673763496 ; 2.0294196303203455E8 ; 7.06827144261653E8 ; 1.6783271820802649E10 ; 0.0
92 ; 7966265.069076448 ; 2.0296137456260523E8 ; 7.147968339354165E8 ; 1.6986213783834682E10 ; 0.0
93 ; 7964570.801219413 ; 2.0298083926071358E8 ; 7.227630990044929E8 ; 1.718917515839729E10 ; 0.0
94 ; 7962047.965448321 ; 2.0300035451037678E8 ; 7.307276698057123E8 ; 1.7392155997658005E10 ; 0.0
95 ; 7959437.366147386 ; 2.0301991775334188E8 ; 7.386897177711607E8 ; 1.759515635216838E10 ; 0.0
96 ; 7957129.32468002 ; 2.0303952648760095E8 ; 7.466491551373081E8 ; 1.7798176269921722E10 ; 0.0
97 ; 7953562.860613891 ; 2.0305917826593292E8 ; 7.546062844619881E8 ; 1.8001215796409325E10 ; 0.0
98 ; 7952335.400243753 ; 2.0307887069447216E8 ; 7.62559847322602E8 ; 1.820427497467526E10 ; 0.0
99 ; 7948238.010499469 ; 2.030986014313055E8 ; 7.705121827228458E8 ; 1.840735384536973E10 ; 0.0
100 ; 7947370.662532836 ; 2.0311836818509755E8 ; 7.784604207333453E8 ; 1.8610452446801037E10 ; 0.0
101 ; 7943776.213186742 ; 2.0313816871374536E8 ; 7.864077913958781E8 ; 1.8813570814986134E10 ; 0.0
102 ; 7940471.026524185 ; 2.0315800082306254E8 ; 7.943515676090648E8 ; 1.901670898369988E10 ; 0.0
103 ; 7937110.392815422 ; 2.0317786236549294E8 ; 8.02292038635589E8 ; 1.921986698452294E10 ; 0.0
104 ; 7932800.837064796 ; 2.031977512388544E8 ; 8.102291490284045E8 ; 1.9423044846888435E10 ; 0.0
105 ; 7931558.753330385 ; 2.0321766538511214E8 ; 8.181619498654692E8 ; 1.962624259812729E10 ; 0.0
106 ; 7930176.707218832 ; 2.032376027891821E8 ; 8.260935086187996E8 ; 1.98294602635124E10 ; 0.0
107 ; 7927662.637218593 ; 2.0325756147776404E8 ; 8.340236853260185E8 ; 2.0032697866301582E10 ; 0.0
108 ; 7921670.918680796 ; 2.0327753951820397E8 ; 8.41951347963237E8 ; 2.0235955427779346E10 ; 0.0
109 ; 7920490.019686639 ; 2.0329753501738593E8 ; 8.498730188819178E8 ; 2.043923296729755E10 ; 0.0
110 ; 7915121.261450181 ; 2.0331754612065268E8 ; 8.577935089016044E8 ; 2.0642530502314938E10 ; 0.0
111 ; 7915083.118337292 ; 2.033375710107551E8 ; 8.657086301630546E8 ; 2.084584804843559E10 ; 0.0
112 ; 7912474.175957365 ; 2.033576079068295E8 ; 8.736237132813919E8 ; 2.1049185619446342E10 ; 0.0
113 ; 7907460.705562613 ; 2.0337765506340295E8 ; 8.815361874573492E8 ; 2.1252543227353172E10 ; 0.0
114 ; 7904361.672154565 ; 2.0339771076942596E8 ; 8.894436481629118E8 ; 2.1455920882416576E10 ; 0.0
115 ; 7900682.006852529 ; 2.034177733473316E8 ; 8.973480098350663E8 ; 2.1659318593186E10 ; 0.0
116 ; 7899054.992657031 ; 2.034378411521216E8 ; 9.052486918419188E8 ; 2.1862736366533333E10 ; 0.0
117 ; 7892764.0874410365 ; 2.0345791257047755E8 ; 9.131477468345759E8 ; 2.2066174207685455E10 ; 0.0
118 ; 7891686.160119749 ; 2.0347798601989788E8 ; 9.21040510922017E8 ; 2.226963212025593E10 ; 0.0
119 ; 7885106.398525655 ; 2.0349805994785947E8 ; 9.289321970821368E8 ; 2.247311010627583E10 ; 0.0
120 ; 7879653.676410483 ; 2.0351813283100334E8 ; 9.368173034806623E8 ; 2.267660816622369E10 ; 0.0
121 ; 7877105.207080132 ; 2.0353820317434406E8 ; 9.446969571570728E8 ; 2.2880126299054695E10 ; 0.0
122 ; 7873247.498621016 ; 2.0355826951050222E8 ; 9.525740623641529E8 ; 2.308366450222904E10 ; 0.0
123 ; 7871293.001290437 ; 2.0357833039895937E8 ; 9.604473098627739E8 ; 2.328722277173954E10 ; 0.0
124 ; 7865932.303941029 ; 2.0359838442533505E8 ; 9.683186028640643E8 ; 2.34908011021385E10 ; 0.0
125 ; 7861791.17567675 ; 2.0361843020068514E8 ; 9.761845351680053E8 ; 2.3694399486563835E10 ; 0.0
126 ; 7858089.727576194 ; 2.0363846636082092E8 ; 9.84046326343682E8 ; 2.389801791676452E10 ; 0.0
127 ; 7854440.390675366 ; 2.0365849156564873E8 ; 9.919044160712582E8 ; 2.410165638312534E10 ; 0.0
128 ; 7848358.022290162 ; 2.0367850449852917E8 ; 9.997588564619336E8 ; 2.4305314874690987E10 ; 0.0
129 ; 7842411.499522601 ; 2.0369850386565548E8 ; 1.0076072144842237E9 ; 2.4508993379189514E10 ; 0.0
130 ; 7837701.061186507 ; 2.0371848839545086E8 ; 1.0154496259837463E9 ; 2.471269188305517E10 ; 0.0
131 ; 7834749.444223893 ; 2.037384568379837E8 ; 1.0232873270449328E9 ; 2.491641037145062E10 ; 0.0
132 ; 7826402.799486175 ; 2.0375840796440056E8 ; 1.0311220764891567E9 ; 2.51201488282886E10 ; 0.0
133 ; 7817420.858255522 ; 2.0377834056637642E8 ; 1.0389484792886429E9 ; 2.5323907236253002E10 ; 0.0
134 ; 7808525.42516266 ; 2.037982534555814E8 ; 1.0467659001468984E9 ; 2.5527685576819378E10 ; 0.0
135 ; 7801145.455529762 ; 2.038181454631638E8 ; 1.0545744255720611E9 ; 2.573148383027496E10 ; 0.0
136 ; 7794021.749580026 ; 2.0383801543924874E8 ; 1.0623755710275909E9 ; 2.5935301975738125E10 ; 0.0
137 ; 7790655.15326039 ; 2.0385786225245216E8 ; 1.0701695927771709E9 ; 2.6139139991177372E10 ; 0.0
138 ; 7780224.693272081 ; 2.0387768478940952E8 ; 1.0779602479304314E9 ; 2.6342997853429825E10 ; 0.0
139 ; 7771851.31566545 ; 2.0389748195431888E8 ; 1.0857404726237035E9 ; 2.6546875538219234E10 ; 0.0
140 ; 7766755.30080802 ; 2.039172526684979E8 ; 1.093512323939369E9 ; 2.6750773020173553E10 ; 0.0
141 ; 7757771.036427848 ; 2.039369958699543E8 ; 1.101279079240177E9 ; 2.6954690272842052E10 ; 0.0
142 ; 7751907.33627404 ; 2.039567105129695E8 ; 1.1090368502766047E9 ; 2.7158627268712006E10 ; 0.0
143 ; 7742267.038251784 ; 2.039763955676949E8 ; 1.1167887576128788E9 ; 2.7362583979224976E10 ; 0.0
144 ; 7736260.611388942 ; 2.039960500197604E8 ; 1.1245310246511307E9 ; 2.756656037479267E10 ; 0.0
145 ; 7732539.096591058 ; 2.040156728698949E8 ; 1.1322672852625196E9 ; 2.777055642481243E10 ; 0.0
146 ; 7724707.726706436 ; 2.0403526313355836E8 ; 1.1399998243591106E9 ; 2.7974572097682327E10 ; 0.0
147 ; 7722152.725484108 ; 2.0405481984058517E8 ; 1.147724532085817E9 ; 2.8178607360815887E10 ; 0.0
148 ; 7719092.466600131 ; 2.040743420348381E8 ; 1.1554466848113012E9 ; 2.838266218065647E10 ; 0.0
149 ; 7711656.7741200635 ; 2.0409382877387303E8 ; 1.1631657772779014E9 ; 2.858673652269131E10 ; 0.0
150 ; 7706206.210104716 ; 2.0411327912861365E8 ; 1.1708774340520215E9 ; 2.8790830351465183E10 ; 0.0
151 ; 7701645.83720523 ; 2.0413269218303633E8 ; 1.1785836402621262E9 ; 2.8994943630593796E10 ; 0.0
152 ; 7695428.488891443 ; 2.041520670338642E8 ; 1.1862852860993314E9 ; 2.9199076322776833E10 ; 0.0
153 ; 7689814.789948866 ; 2.0417140279027075E8 ; 1.1939807145882227E9 ; 2.9403228389810696E10 ; 0.0
154 ; 7686396.130811024 ; 2.0419069857359233E8 ; 1.2016705293781717E9 ; 2.9607399792600967E10 ; 0.0
155 ; 7680059.296352708 ; 2.0420995351704925E8 ; 1.2093569255089827E9 ; 2.981159049117456E10 ; 0.0
156 ; 7673823.973346667 ; 2.042291667654755E8 ; 1.2170369848053353E9 ; 3.001580044469161E10 ; 0.0
157 ; 7670786.658496423 ; 2.0424833747505638E8 ; 1.224710808778682E9 ; 3.0220029611457085E10 ; 0.0
158 ; 7665730.837310292 ; 2.042674648130743E8 ; 1.2323815954371784E9 ; 3.042427794893214E10 ; 0.0
159 ; 7660427.60686118 ; 2.0428654795766193E8 ; 1.2400473262744887E9 ; 3.0628545413745216E10 ; 0.0
160 ; 7655261.738874827 ; 2.0430558609756312E8 ; 1.2477077538813498E9 ; 3.0832831961702877E10 ; 0.0
161 ; 7646976.911923132 ; 2.0432457843190056E8 ; 1.2553630156202247E9 ; 3.103713754780044E10 ; 0.0
162 ; 7640800.971842454 ; 2.043435241699509E8 ; 1.263009992532148E9 ; 3.124146212623234E10 ; 0.0
163 ; 7638159.912056538 ; 2.0436242253092617E8 ; 1.2706507935039904E9 ; 3.1445805650402294E10 ; 0.0
164 ; 7633744.984539504 ; 2.0438127274376187E8 ; 1.2782889534160469E9 ; 3.165016807293322E10 ; 0.0
165 ; 7628256.749241882 ; 2.044000740469116E8 ; 1.2859226984005864E9 ; 3.1854549345676983E10 ; 0.0
166 ; 7620927.693742724 ; 2.0441882568814737E8 ; 1.2935509551498282E9 ; 3.2058949419723896E10 ; 0.0
167 ; 7615817.287328293 ; 2.0443752692436627E8 ; 1.301171882843571E9 ; 3.2263368245412045E10 ; 0.0
168 ; 7612624.302152031 ; 2.044561770214026E8 ; 1.3087877001308992E9 ; 3.246780577233641E10 ; 0.0
169 ; 7608006.920267202 ; 2.044747752538457E8 ; 1.316400324433051E9 ; 3.2672261949357815E10 ; 0.0
170 ; 7599740.593692785 ; 2.0449332090486315E8 ; 1.3240083313533182E9 ; 3.287673672461166E10 ; 0.0
171 ; 7595002.760256378 ; 2.045118132660291E8 ; 1.331608071947011E9 ; 3.308123004551652E10 ; 0.0
172 ; 7592968.359428047 ; 2.0453025163715777E8 ; 1.3392030747072673E9 ; 3.328574185878255E10 ; 0.0
173 ; 7585251.195883881 ; 2.0454863532614192E8 ; 1.3467960430666952E9 ; 3.349027211041971E10 ; 0.0
174 ; 7579286.630569459 ; 2.0456696364879572E8 ; 1.3543812942625792E9 ; 3.369482074574585E10 ; 0.0
175 ; 7577979.668535187 ; 2.045852359287027E8 ; 1.3619605808931487E9 ; 3.3899387709394646E10 ; 0.0
176 ; 7575143.9467076175 ; 2.0460345149706778E8 ; 1.369538560561684E9 ; 3.410397294532335E10 ; 0.0
177 ; 7570893.230238434 ; 2.0462160969257385E8 ; 1.3771137045083916E9 ; 3.4308576396820415E10 ; 0.0
178 ; 7565281.741875823 ; 2.046397098612423E8 ; 1.38468459773863E9 ; 3.451319800651299E10 ; 0.0
179 ; 7563354.492761473 ; 2.0465775135629794E8 ; 1.392249879480506E9 ; 3.471783771637424E10 ; 0.0
180 ; 7561583.142504353 ; 2.0467573353803757E8 ; 1.3998132339732673E9 ; 3.492249546773054E10 ; 0.0
181 ; 7554546.629046839 ; 2.046936557737024E8 ; 1.4073748171157718E9 ; 3.512717120126858E10 ; 0.0
182 ; 7542564.702331821 ; 2.047E8 ; 1.4149293637448187E9 ; 3.533186485704228E10 ; 0.0
183 ; 7530530.478212902 ; 2.047E8 ; 1.4224719284471505E9 ; 3.553656485704228E10 ; 0.0
184 ; 7517739.782779312 ; 2.047E8 ; 1.4300024589253633E9 ; 3.574126485704228E10 ; 0.0
185 ; 7503359.567934144 ; 2.047E8 ; 1.4375201987081425E9 ; 3.594596485704228E10 ; 0.0
186 ; 7487521.979074007 ; 2.047E8 ; 1.4450235582760766E9 ; 3.615066485704228E10 ; 0.0
187 ; 7470972.005314656 ; 2.047E8 ; 1.4525110802551506E9 ; 3.635536485704228E10 ; 0.0
188 ; 7461019.211869342 ; 2.047E8 ; 1.4599820522604651E9 ; 3.656006485704228E10 ; 0.0
189 ; 7444209.606219768 ; 2.047E8 ; 1.4674430714723344E9 ; 3.676476485704228E10 ; 0.0
190 ; 7428153.684076959 ; 2.047E8 ; 1.4748872810785542E9 ; 3.696946485704228E10 ; 0.0
191 ; 7415721.416636222 ; 2.047E8 ; 1.4823154347626312E9 ; 3.717416485704228E10 ; 0.0
192 ; 7404249.758516878 ; 2.047E8 ; 1.4897311561792674E9 ; 3.737886485704228E10 ; 0.0
193 ; 7389447.697431388 ; 2.047E8 ; 1.4971354059377842E9 ; 3.758356485704228E10 ; 0.0
194 ; 7372205.36846255 ; 2.047E8 ; 1.5045248536352155E9 ; 3.778826485704228E10 ; 0.0
195 ; 7358492.877981641 ; 2.047E8 ; 1.511897059003678E9 ; 3.799296485704228E10 ; 0.0
196 ; 7346606.483111696 ; 2.047E8 ; 1.5192555518816597E9 ; 3.819766485704228E10 ; 0.0
197 ; 7331324.817100406 ; 2.047E8 ; 1.5266021583647714E9 ; 3.840236485704228E10 ; 0.0
198 ; 7315761.897579056 ; 2.047E8 ; 1.533933483181872E9 ; 3.860706485704228E10 ; 0.0
199 ; 7303672.179183719 ; 1.798704339812506E8 ; 1.5412492450794508E9 ; 3.881176485704228E10 ; 0.0
200 ; 7288912.570593518 ; 1.5620807492166224E8 ; 1.5485529172586346E9 ; 3.899163529102353E10 ; 0.0
201 ; 7275616.74060773 ; 1.5586000678114402E8 ; 1.5558418298292282E9 ; 3.914784336594519E10 ; 0.0
202 ; 7260834.6755114775 ; 1.555127382774142E8 ; 1.563117446569836E9 ; 3.930370337272633E10 ; 0.0
203 ; 7246482.012334466 ; 1.5516626757342157E8 ; 1.5703782812453473E9 ; 3.9459216111003746E10 ; 0.0
