CSV File for the City 1 on Day 37
1 - Minute m 
2 - Power Consumed at minute m 
3 - Power Produced at minute m 
4 - Energy Consumed since the beginning of the day 
5 - Energy Produced since the beginning of the day 
6 - Energy Lost since the beginning of the day on lines starting from the city
 
0 ; 1.597597837822152E7 ; 1.0531306768130133E8 ; 0.0 ; 0.0 ; 0.0
1 ; 1.599003870259227E7 ; 1.0546522761308849E8 ; 1.597597837822152E7 ; 1.0531306768130133E8 ; 0.0
2 ; 1.6009895944804983E7 ; 1.0592622973183063E8 ; 3.1966017080813788E7 ; 2.107782952943898E8 ; 0.0
3 ; 1.6031348968539013E7 ; 1.0669608226488513E8 ; 4.797591302561877E7 ; 3.1670452502622044E8 ; 0.0
4 ; 1.605579628892945E7 ; 1.0777479294129848E8 ; 6.400726199415778E7 ; 4.2340060729110557E8 ; 0.0
5 ; 1.6083741875377648E7 ; 1.0916236884665179E8 ; 8.006305828308724E7 ; 5.3117540023240405E8 ; 0.0
6 ; 1.6120758269451762E7 ; 1.1085881627869037E8 ; 9.614680015846488E7 ; 6.403377690790558E8 ; 0.0
7 ; 1.6175822629047694E7 ; 1.1286414060975718E8 ; 1.1226755842791665E8 ; 7.511965853577461E8 ; 0.0
8 ; 1.6256247491060443E7 ; 1.1517834616244721E8 ; 1.2844338105696434E8 ; 8.640607259675033E8 ; 0.0
9 ; 1.6370069909222173E7 ; 1.1780143610482246E8 ; 1.4469962854802477E8 ; 9.792390721299505E8 ; 0.0
10 ; 1.6555905147000335E7 ; 1.2073341237090325E8 ; 1.6106969845724696E8 ; 1.097040508234773E9 ; 0.0
11 ; 1.684267644876321E7 ; 1.2397427561099532E8 ; 1.776256036042473E8 ; 1.2177739206056762E9 ; 0.0
12 ; 1.730391899223937E7 ; 1.2752402517479292E8 ; 1.9446828005301052E8 ; 1.3417481962166715E9 ; 0.0
13 ; 1.775144818589077E7 ; 1.3138265912827569E8 ; 2.1177219904524988E8 ; 1.4692722213914645E9 ; 0.0
14 ; 1.779947765231742E7 ; 1.3555017430338174E8 ; 2.2952364723114064E8 ; 1.60065488051974E9 ; 0.0
15 ; 1.782451180678789E7 ; 1.4002656637751597E8 ; 2.4732312488345808E8 ; 1.7362050548231218E9 ; 0.0
16 ; 1.784192056087383E7 ; 1.4481182997833553E8 ; 2.6514763669024596E8 ; 1.8762316212006378E9 ; 0.0
17 ; 1.7863290700794775E7 ; 1.49905958808095E8 ; 2.829895572511198E8 ; 2.0210434511789734E9 ; 0.0
18 ; 1.788897069384154E7 ; 1.5530894578121334E8 ; 3.0085284795191455E8 ; 2.1709494099870687E9 ; 0.0
19 ; 1.790538570052674E7 ; 1.6102078316864404E8 ; 3.1874181864575607E8 ; 2.326258355768282E9 ; 0.0
20 ; 1.7929730109947342E7 ; 1.6704146274302968E8 ; 3.366472043462828E8 ; 2.487279138936926E9 ; 0.0
21 ; 1.7948805623143174E7 ; 1.7337097591939232E8 ; 3.545769344562301E8 ; 2.6543206016799555E9 ; 0.0
22 ; 1.7972714204531673E7 ; 1.8000931388711596E8 ; 3.725257400793733E8 ; 2.8276915775993476E9 ; 0.0
23 ; 1.7988164321278553E7 ; 1.8695646773009104E8 ; 3.9049845428390497E8 ; 3.0077008914864635E9 ; 0.0
24 ; 1.801210706231857E7 ; 1.9421242853298903E8 ; 4.0848661860518354E8 ; 3.1946573592165546E9 ; 0.0
25 ; 1.8030306246588327E7 ; 2.0046522837082464E8 ; 4.264987256675021E8 ; 3.3888697877495437E9 ; 0.0
26 ; 1.805413467805884E7 ; 2.0046840642215377E8 ; 4.4452903191409045E8 ; 3.5893350161203685E9 ; 0.0
27 ; 1.807646187155128E7 ; 2.0047172355569443E8 ; 4.625831665921493E8 ; 3.7898034225425224E9 ; 0.0
28 ; 1.8094355576170694E7 ; 2.0047517162520614E8 ; 4.806596284637006E8 ; 3.990275146098217E9 ; 0.0
29 ; 1.811330223536009E7 ; 2.0047874279852524E8 ; 4.987539840398713E8 ; 4.190750317723423E9 ; 0.0
30 ; 1.8132784060561314E7 ; 2.0048242958250257E8 ; 5.1686728627523136E8 ; 4.391229060521948E9 ; 0.0
31 ; 1.8152768564684343E7 ; 2.0048622483861142E8 ; 5.3500007033579266E8 ; 4.59171149010445E9 ; 0.0
32 ; 1.8171954512559652E7 ; 2.0049012179071906E8 ; 5.53152838900477E8 ; 4.792197714943062E9 ; 0.0
33 ; 1.8191984790293317E7 ; 2.004941140264266E8 ; 5.713247934130367E8 ; 4.992687836733781E9 ; 0.0
34 ; 1.820977358988113E7 ; 2.0049819549325565E8 ; 5.8951677820333E8 ; 5.193181950760207E9 ; 0.0
35 ; 1.8227672510455575E7 ; 2.0050236049081445E8 ; 6.077265517932112E8 ; 5.393680146253463E9 ; 0.0
36 ; 1.8243737681602616E7 ; 2.005066036599249E8 ; 6.259542243036668E8 ; 5.594182506744277E9 ; 0.0
37 ; 1.825619375128335E7 ; 2.0051091996954256E8 ; 6.441979619852694E8 ; 5.7946891104042015E9 ; 0.0
38 ; 1.8273864217815816E7 ; 2.0051530470216307E8 ; 6.624541557365528E8 ; 5.995200030373744E9 ; 0.0
39 ; 1.8286803020178996E7 ; 2.0051975343828228E8 ; 6.807280199543686E8 ; 6.195715335075907E9 ; 0.0
40 ; 1.8299992200387683E7 ; 2.0052426204036626E8 ; 6.990148229745476E8 ; 6.396235088514189E9 ; 0.0
41 ; 1.8311001798609726E7 ; 2.0052882663669023E8 ; 7.173148151749353E8 ; 6.596759350554555E9 ; 0.0
42 ; 1.83248011912273E7 ; 2.0053344360532504E8 ; 7.356258169735451E8 ; 6.797288177191245E9 ; 0.0
43 ; 1.8341973295822043E7 ; 2.0053810955848008E8 ; 7.539506181647724E8 ; 6.99782162079657E9 ; 0.0
44 ; 1.834919081124984E7 ; 2.0054282132735625E8 ; 7.722925914605944E8 ; 7.19835973035505E9 ; 0.0
45 ; 1.8356155061088774E7 ; 2.0054757594761655E8 ; 7.906417822718443E8 ; 7.398902551682406E9 ; 0.0
46 ; 1.837052209412765E7 ; 2.0055237064554486E8 ; 8.089979373329331E8 ; 7.599450127630023E9 ; 0.0
47 ; 1.837421901997074E7 ; 2.0055720282493517E8 ; 8.273684594270607E8 ; 7.800002498275568E9 ; 0.0
48 ; 1.838428365332161E7 ; 2.0056207005473045E8 ; 8.457426784470315E8 ; 8.000559701100503E9 ; 0.0
49 ; 1.839392013554123E7 ; 2.005669700574133E8 ; 8.641269621003531E8 ; 8.201121771155233E9 ; 0.0
50 ; 1.8394669755621627E7 ; 2.005719006981374E8 ; 8.825208822358943E8 ; 8.4016887412126465E9 ; 0.0
51 ; 1.8401836537432663E7 ; 2.0057685997457975E8 ; 9.00915551991516E8 ; 8.602260641910784E9 ; 0.0
52 ; 1.8406189584917534E7 ; 2.0058184600748625E8 ; 9.193173885289487E8 ; 8.802837501885363E9 ; 0.0
53 ; 1.841329718941773E7 ; 2.0058685703187943E8 ; 9.377235781138662E8 ; 9.003419347892849E9 ; 0.0
54 ; 1.8417520161796793E7 ; 2.0059189138889378E8 ; 9.561368753032839E8 ; 9.204006204924728E9 ; 0.0
55 ; 1.842070168669449E7 ; 2.005969475182032E8 ; 9.745543954650807E8 ; 9.404598096313622E9 ; 0.0
56 ; 1.8425761179612864E7 ; 2.0060202395100388E8 ; 9.929750971517752E8 ; 9.605195043831825E9 ; 0.0
57 ; 1.8432058459616363E7 ; 2.0060711930351707E8 ; 1.0114008583313881E9 ; 9.80579706778283E9 ; 0.0
58 ; 1.8438137165570255E7 ; 2.0061223227097648E8 ; 1.0298329167910044E9 ; 1.0006404187086346E10 ; 0.0
59 ; 1.8438108729625463E7 ; 2.006173616220664E8 ; 1.0482710539565747E9 ; 1.0207016419357323E10 ; 0.0
60 ; 1.843940427029907E7 ; 2.0062250619377828E8 ; 1.0667091626862001E9 ; 1.040763378097939E10 ; 0.0
61 ; 1.8442328661131937E7 ; 2.0062766488665485E8 ; 1.085148566956499E9 ; 1.0608256287173168E10 ; 0.0
62 ; 1.8448803835108347E7 ; 2.0063283666039297E8 ; 1.103590895617631E9 ; 1.0808883952059822E10 ; 0.0
63 ; 1.8451536993356034E7 ; 2.0063802052977812E8 ; 1.1220396994527392E9 ; 1.1009516788720215E10 ; 0.0
64 ; 1.8455567705621146E7 ; 2.0064321556092477E8 ; 1.1404912364460952E9 ; 1.1210154809249992E10 ; 0.0
65 ; 1.8454922768980034E7 ; 2.0064842086779922E8 ; 1.1589468041517165E9 ; 1.1410798024810917E10 ; 0.0
66 ; 1.8457754304649428E7 ; 2.0065363560900322E8 ; 1.1774017269206965E9 ; 1.1611446445678717E10 ; 0.0
67 ; 1.8460299543317772E7 ; 2.0065885898479712E8 ; 1.1958594812253458E9 ; 1.181210008128772E10 ; 0.0
68 ; 1.845891816417175E7 ; 2.0066409023434487E8 ; 1.2143197807686636E9 ; 1.2012758940272516E10 ; 0.0
69 ; 1.846229803014132E7 ; 2.006693286331625E8 ; 1.2327786989328353E9 ; 1.221342303050686E10 ; 0.0
70 ; 1.8465015658044543E7 ; 2.0067457349075463E8 ; 1.2512409969629767E9 ; 1.2414092359140022E10 ; 0.0
71 ; 1.847030386310814E7 ; 2.00679824148424E8 ; 1.2697060126210213E9 ; 1.2614766932630777E10 ; 0.0
72 ; 1.847067699874778E7 ; 2.006850799772405E8 ; 1.2881763164841294E9 ; 1.2815446756779202E10 ; 0.0
73 ; 1.8474061288374875E7 ; 2.0069034037615713E8 ; 1.3066469934828773E9 ; 1.3016131836756441E10 ; 0.0
74 ; 1.8471243314048197E7 ; 2.0069560477026153E8 ; 1.3251210547712522E9 ; 1.3216822177132599E10 ; 0.0
75 ; 1.8472568127563074E7 ; 2.007008726091523E8 ; 1.3435922980853004E9 ; 1.341751778190286E10 ; 0.0
76 ; 1.8473515600622762E7 ; 2.007061433654305E8 ; 1.3620648662128634E9 ; 1.3618218654512012E10 ; 0.0
77 ; 1.8475737398971908E7 ; 2.0071141653329775E8 ; 1.380538381813486E9 ; 1.3818924797877443E10 ; 0.0
78 ; 1.8468957322502058E7 ; 2.007166916272519E8 ; 1.399014119212458E9 ; 1.4019636214410742E10 ; 0.0
79 ; 1.846015127690849E7 ; 2.0072196818087366E8 ; 1.41748307653496E9 ; 1.4220352906037994E10 ; 0.0
80 ; 1.845766748576157E7 ; 2.0072724574569693E8 ; 1.4359432278118684E9 ; 1.4421074874218868E10 ; 0.0
81 ; 1.8449016116543256E7 ; 2.0073252389015597E8 ; 1.45440089529763E9 ; 1.4621802119964565E10 ; 0.0
82 ; 1.8449284516764835E7 ; 2.0073780219860464E8 ; 1.4728499114141734E9 ; 1.4822534643854721E10 ; 0.0
83 ; 1.8441464384876005E7 ; 2.0074308027040133E8 ; 1.4912991959309382E9 ; 1.5023272446053326E10 ; 0.0
84 ; 1.8434365625980474E7 ; 2.0074835771905518E8 ; 1.5097406603158143E9 ; 1.5224015526323727E10 ; 0.0
85 ; 1.843091362484378E7 ; 2.0075363417142907E8 ; 1.5281750259417946E9 ; 1.5424763884042782E10 ; 0.0
86 ; 1.8417009973355003E7 ; 2.0075890926699492E8 ; 1.5466059395666385E9 ; 1.562551751821421E10 ; 0.0
87 ; 1.8413984073302653E7 ; 2.007641826571377E8 ; 1.5650229495399935E9 ; 1.5826276427481205E10 ; 0.0
88 ; 1.8411806031232346E7 ; 2.0076945400450444E8 ; 1.5834369336132963E9 ; 1.6027040610138342E10 ; 0.0
89 ; 1.8404928766573526E7 ; 2.0077472298239535E8 ; 1.6018487396445286E9 ; 1.6227810064142847E10 ; 0.0
90 ; 1.839550215734189E7 ; 2.0077998927419344E8 ; 1.620253668411102E9 ; 1.6428584787125242E10 ; 0.0
91 ; 1.8384849037689757E7 ; 2.007852525728304E8 ; 1.638649170568444E9 ; 1.6629364776399435E10 ; 0.0
92 ; 1.837537517447261E7 ; 2.007905125802861E8 ; 1.6570340196061337E9 ; 1.6830150028972265E10 ; 0.0
93 ; 1.8371736748202384E7 ; 2.0079576900711897E8 ; 1.6754093947806063E9 ; 1.7030940541552551E10 ; 0.0
94 ; 1.836108917550709E7 ; 2.0080102157202575E8 ; 1.6937811315288086E9 ; 1.723173631055967E10 ; 0.0
95 ; 1.835405403876522E7 ; 2.008062700014279E8 ; 1.7121422207043157E9 ; 1.7432537332131695E10 ; 0.0
96 ; 1.8347593915003102E7 ; 2.0081151402908337E8 ; 1.7304962747430809E9 ; 1.763334360213312E10 ; 0.0
97 ; 1.8337613537677303E7 ; 2.0081675339572176E8 ; 1.748843868658084E9 ; 1.7834155116162205E10 ; 0.0
98 ; 1.8326756525044687E7 ; 2.0082198784870115E8 ; 1.7671814821957612E9 ; 1.8034971869557926E10 ; 0.0
99 ; 1.832042325231476E7 ; 2.0082721714168563E8 ; 1.785508238720806E9 ; 1.8235793857406628E10 ; 0.0
100 ; 1.830884990581233E7 ; 2.0083244103434145E8 ; 1.8038286619731207E9 ; 1.8436621074548313E10 ; 0.0
101 ; 1.8304929836256303E7 ; 2.0083765929205132E8 ; 1.822137511878933E9 ; 1.8637453515582653E10 ; 0.0
102 ; 1.8293959884343047E7 ; 2.0084287168564498E8 ; 1.8404424417151892E9 ; 1.8838291174874702E10 ; 0.0
103 ; 1.8282355945322454E7 ; 2.0084807799114546E8 ; 1.8587364015995324E9 ; 1.903913404656035E10 ; 0.0
104 ; 1.8274639528602056E7 ; 2.0085327798952976E8 ; 1.8770187575448549E9 ; 1.9239982124551495E10 ; 0.0
105 ; 1.8258415811354134E7 ; 2.008584714665032E8 ; 1.895293397073457E9 ; 1.9440835402541023E10 ; 0.0
106 ; 1.8251046481758006E7 ; 2.008636582122863E8 ; 1.9135518128848112E9 ; 1.9641693874007526E10 ; 0.0
107 ; 1.8239302410396297E7 ; 2.0086883802141368E8 ; 1.9318028593665693E9 ; 1.9842557532219814E10 ; 0.0
108 ; 1.8228144714075968E7 ; 2.0087401069254425E8 ; 1.9500421617769656E9 ; 2.0043426370241226E10 ; 0.0
109 ; 1.8222929578283217E7 ; 2.0087917602828145E8 ; 1.9682703064910417E9 ; 2.024430038093377E10 ; 0.0
110 ; 1.8208746362567987E7 ; 2.0088433383500376E8 ; 1.986493236069325E9 ; 2.044517955696205E10 ; 0.0
111 ; 1.8195258925312243E7 ; 2.008894839227041E8 ; 2.0047019824318929E9 ; 2.0646063890797054E10 ; 0.0
112 ; 1.818402864012419E7 ; 2.00894626104838E8 ; 2.0228972413572052E9 ; 2.0846953374719757E10 ; 0.0
113 ; 1.8174597201860968E7 ; 2.0089976019817993E8 ; 2.0410812699973292E9 ; 2.1047848000824596E10 ; 0.0
114 ; 1.8163717743865296E7 ; 2.0090488602268702E8 ; 2.0592558671991901E9 ; 2.1248747761022778E10 ; 0.0
115 ; 1.8150494583094288E7 ; 2.0091000340137038E8 ; 2.0774195849430554E9 ; 2.1449652647045464E10 ; 0.0
116 ; 1.8138494496058475E7 ; 2.0091511216017273E8 ; 2.0955700795261497E9 ; 2.1650562650446835E10 ; 0.0
117 ; 1.812272637197996E7 ; 2.0092021212785268E8 ; 2.1137085740222082E9 ; 2.1851477762607006E10 ; 0.0
118 ; 1.8112243761369783E7 ; 2.0092530313587487E8 ; 2.1318313003941882E9 ; 2.205239797473486E10 ; 0.0
119 ; 1.809967032529798E7 ; 2.0093038501830572E8 ; 2.149943544155558E9 ; 2.2253323277870735E10 ; 0.0
120 ; 1.8089106731400505E7 ; 2.0093545761171457E8 ; 2.168043214480856E9 ; 2.245425366288904E10 ; 0.0
121 ; 1.807558747557636E7 ; 2.009405207550798E8 ; 2.1861323212122564E9 ; 2.2655189120500755E10 ; 0.0
122 ; 1.806077499933903E7 ; 2.0094557428969964E8 ; 2.204207908687833E9 ; 2.2856129641255836E10 ; 0.0
123 ; 1.8047519436153263E7 ; 2.0095061805910745E8 ; 2.222268683687172E9 ; 2.3057075215545536E10 ; 0.0
124 ; 1.8033321321742903E7 ; 2.0095565190899125E8 ; 2.2403162031233253E9 ; 2.3258025833604645E10 ; 0.0
125 ; 1.8021073936514374E7 ; 2.009606756871171E8 ; 2.2583495244450684E9 ; 2.3458981485513638E10 ; 0.0
126 ; 1.8006173801082764E7 ; 2.0096568924325642E8 ; 2.2763705983815827E9 ; 2.3659942161200756E10 ; 0.0
127 ; 1.7989050906295985E7 ; 2.0097069242911664E8 ; 2.2943767721826653E9 ; 2.386090785044401E10 ; 0.0
128 ; 1.7975964168988116E7 ; 2.0097568509827545E8 ; 2.312365823088961E9 ; 2.4061878542873127E10 ; 0.0
129 ; 1.7963173272990312E7 ; 2.0098066710611796E8 ; 2.3303417872579494E9 ; 2.42628542279714E10 ; 0.0
130 ; 1.7943250201579053E7 ; 2.0098563830977708E8 ; 2.3483049605309396E9 ; 2.446383489507752E10 ; 0.0
131 ; 1.792450687970711E7 ; 2.0099059856807655E8 ; 2.3662482107325187E9 ; 2.4664820533387295E10 ; 0.0
132 ; 1.7908291224941567E7 ; 2.009955477414769E8 ; 2.384172717612226E9 ; 2.486581113195537E10 ; 0.0
133 ; 1.788521180412649E7 ; 2.0100048569202363E8 ; 2.4020810088371677E9 ; 2.506680667969685E10 ; 0.0
134 ; 1.786305908031895E7 ; 2.0100541228329822E8 ; 2.419966220641294E9 ; 2.5267807165388874E10 ; 0.0
135 ; 1.7841740674720477E7 ; 2.01010327380371E8 ; 2.437829279721613E9 ; 2.5468812577672173E10 ; 0.0
136 ; 1.781833034438153E7 ; 2.0101523084975654E8 ; 2.455671020396333E9 ; 2.5669822905052544E10 ; 0.0
137 ; 1.779683508320885E7 ; 2.0102012255937088E8 ; 2.4734893507407146E9 ; 2.58708381359023E10 ; 0.0
138 ; 1.777559354311418E7 ; 2.0102500237849075E8 ; 2.4912861858239236E9 ; 2.6071858258461674E10 ; 0.0
139 ; 1.7756447631203216E7 ; 2.0102987017771485E8 ; 2.509061779367038E9 ; 2.6272883260840164E10 ; 0.0
140 ; 1.7732908658876356E7 ; 2.0103472582892653E8 ; 2.526818226998241E9 ; 2.647391313101788E10 ; 0.0
141 ; 1.77127558879251E7 ; 2.0103956920525855E8 ; 2.5445511356571174E9 ; 2.6674947856846806E10 ; 0.0
142 ; 1.7687882909272138E7 ; 2.0104440018105897E8 ; 2.5622638915450425E9 ; 2.6875987426052063E10 ; 0.0
143 ; 1.7666384704038408E7 ; 2.010492186318591E8 ; 2.5799517744543147E9 ; 2.7077031826233124E10 ; 0.0
144 ; 1.7642679700966977E7 ; 2.0105402443434235E8 ; 2.5976181591583533E9 ; 2.7278081044864983E10 ; 0.0
145 ; 1.762815346824612E7 ; 2.0105881746631485E8 ; 2.61526083885932E9 ; 2.7479135069299324E10 ; 0.0
146 ; 1.7609453277551487E7 ; 2.0106359760667714E8 ; 2.632888992327566E9 ; 2.768019388676564E10 ; 0.0
147 ; 1.759831605229755E7 ; 2.0106836473539725E8 ; 2.650498445605118E9 ; 2.788125748437232E10 ; 0.0
148 ; 1.7577953867074084E7 ; 2.0107311873348475E8 ; 2.6680967616574154E9 ; 2.8082325849107716E10 ; 0.0
149 ; 1.756497234939784E7 ; 2.0107785948296627E8 ; 2.6856747155244894E9 ; 2.82833989678412E10 ; 0.0
150 ; 1.754671795076503E7 ; 2.010825868668617E8 ; 2.703239687873887E9 ; 2.848447682732417E10 ; 0.0
151 ; 1.7530903770432424E7 ; 2.0108730076916164E8 ; 2.720786405824652E9 ; 2.8685559414191032E10 ; 0.0
152 ; 1.75158795619435E7 ; 2.010920010748059E8 ; 2.7383173095950847E9 ; 2.8886646714960194E10 ; 0.0
153 ; 1.749770905626425E7 ; 2.010966876696625E8 ; 2.755833189157028E9 ; 2.9087738716035E10 ; 0.0
154 ; 1.7482471806819644E7 ; 2.0110136044050828E8 ; 2.7733308982132926E9 ; 2.9288835403704662E10 ; 0.0
155 ; 1.7466628234435145E7 ; 2.011060192750096E8 ; 2.790813370020112E9 ; 2.9489936764145172E10 ; 0.0
156 ; 1.745052834436183E7 ; 2.0111066406170425E8 ; 2.808279998254547E9 ; 2.969104278342018E10 ; 0.0
157 ; 1.7433837768215593E7 ; 2.0111529468998417E8 ; 2.825730526598909E9 ; 2.9892153447481884E10 ; 0.0
158 ; 1.741712335663593E7 ; 2.0111991105007866E8 ; 2.8431643643671246E9 ; 3.0093268742171867E10 ; 0.0
159 ; 1.7397788875746425E7 ; 2.011245130330385E8 ; 2.8605814877237606E9 ; 3.0294388653221947E10 ; 0.0
160 ; 1.738348775658875E7 ; 2.0112910053072062E8 ; 2.877979276599507E9 ; 3.0495513166254986E10 ; 0.0
161 ; 1.7365255656567883E7 ; 2.011336734357735E8 ; 2.895362764356096E9 ; 3.0696642266785706E10 ; 0.0
162 ; 1.7347261559080977E7 ; 2.0113823164162305E8 ; 2.912728020012664E9 ; 3.0897775940221478E10 ; 0.0
163 ; 1.7328662785357945E7 ; 2.0114277504245925E8 ; 2.930075281571745E9 ; 3.1098914171863102E10 ; 0.0
164 ; 1.7314443753447562E7 ; 2.0114730353322318E8 ; 2.947403944357103E9 ; 3.130005694690556E10 ; 0.0
165 ; 1.729867181684502E7 ; 2.0115181700959477E8 ; 2.9647183881105504E9 ; 3.150120425043878E10 ; 0.0
166 ; 1.727851506303391E7 ; 2.0115631536798084E8 ; 2.9820170599273953E9 ; 3.1702356067448376E10 ; 0.0
167 ; 1.7263258475288253E7 ; 2.0116079850550374E8 ; 2.9992955749904294E9 ; 3.1903512382816357E10 ; 0.0
168 ; 1.7242356809390333E7 ; 2.011652663199906E8 ; 3.016558833465718E9 ; 3.210467318132186E10 ; 0.0
169 ; 1.7224646193821084E7 ; 2.0116971870996276E8 ; 3.0338011902751083E9 ; 3.2305838447641853E10 ; 0.0
170 ; 1.7206840963778567E7 ; 2.0117415557462582E8 ; 3.0510258364689293E9 ; 3.2507008166351814E10 ; 0.0
171 ; 1.7190878157289322E7 ; 2.0117857681386006E8 ; 3.068232677432708E9 ; 3.270818232192644E10 ; 0.0
172 ; 1.717238965145588E7 ; 2.011829823282112E8 ; 3.0854235555899973E9 ; 3.2909360898740303E10 ; 0.0
173 ; 1.715344071811751E7 ; 2.011873720188815E8 ; 3.102595945241453E9 ; 3.3110543881068516E10 ; 0.0
174 ; 1.714491872621831E7 ; 2.011917457877215E8 ; 3.119749385959571E9 ; 3.33117312530874E10 ; 0.0
175 ; 1.7134137109020364E7 ; 2.0119610353722182E8 ; 3.136894304685789E9 ; 3.351292299887512E10 ; 0.0
176 ; 1.7123703032517735E7 ; 2.0120044517050523E8 ; 3.1540284417948093E9 ; 3.371411910241234E10 ; 0.0
177 ; 1.711079749130153E7 ; 2.012047705913194E8 ; 3.1711521448273273E9 ; 3.3915319547582844E10 ; 0.0
178 ; 1.7099145025540866E7 ; 2.0120907970402965E8 ; 3.188262942318629E9 ; 3.4116524318174164E10 ; 0.0
179 ; 1.7087468983681817E7 ; 2.0121337241361207E8 ; 3.2053620873441696E9 ; 3.4317733397878193E10 ; 0.0
180 ; 1.7080750423463672E7 ; 2.0121764862564698E8 ; 3.2224495563278513E9 ; 3.45189467702918E10 ; 0.0
181 ; 1.7070792191362604E7 ; 2.0122190824631265E8 ; 3.239530306751315E9 ; 3.472016441891745E10 ; 0.0
182 ; 1.7059888049566053E7 ; 2.0122615118237916E8 ; 3.2566010989426775E9 ; 3.4921386327163765E10 ; 0.0
183 ; 1.704465612985994E7 ; 2.0123037734120265E8 ; 3.273660986992244E9 ; 3.5122612478346146E10 ; 0.0
184 ; 1.704021954267724E7 ; 2.012345866307198E8 ; 3.2907056431221037E9 ; 3.532384285568735E10 ; 0.0
185 ; 1.7025932015459627E7 ; 2.0123877895944253E8 ; 3.307745862664781E9 ; 3.552507744231807E10 ; 0.0
186 ; 1.7017769953356594E7 ; 2.012429542364526E8 ; 3.3247717946802406E9 ; 3.572631622127751E10 ; 0.0
187 ; 1.7006414019390646E7 ; 2.0124711237139723E8 ; 3.3417895646335974E9 ; 3.592755917551396E10 ; 0.0
188 ; 1.699508508981874E7 ; 2.012512532744839E8 ; 3.358795978652988E9 ; 3.612880628788536E10 ; 0.0
189 ; 1.6983282874429118E7 ; 2.0125537685647613E8 ; 3.375791063742807E9 ; 3.633005754115984E10 ; 0.0
190 ; 1.697225742379245E7 ; 2.0125948302868918E8 ; 3.392774346617236E9 ; 3.653131291801632E10 ; 0.0
191 ; 1.6959982183460347E7 ; 2.0126357170298576E8 ; 3.4097466040410285E9 ; 3.6732572401045006E10 ; 0.0
192 ; 1.695420751748816E7 ; 2.0126764279177225E8 ; 3.4267065862244887E9 ; 3.693383597274799E10 ; 0.0
193 ; 1.69425403367452E7 ; 2.012716962079948E8 ; 3.4436607937419767E9 ; 3.7135103615539764E10 ; 0.0
194 ; 1.6928274965499703E7 ; 2.012757318651357E8 ; 3.460603334078722E9 ; 3.733637531174776E10 ; 0.0
195 ; 1.6922057173531123E7 ; 2.0127974967721003E8 ; 3.477531609044222E9 ; 3.753765104361289E10 ; 0.0
