CSV File for the City 1 on Day 159
1 - Minute m 
2 - Power Consumed at minute m 
3 - Power Produced at minute m 
4 - Energy Consumed since the beginning of the day 
5 - Energy Produced since the beginning of the day 
6 - Energy Lost since the beginning of the day on lines starting from the city
 
0 ; 7611537.717071737 ; 1.0553711679547366E8 ; 0.0 ; 0.0 ; 0.0
1 ; 7621403.882989406 ; 1.0569006616216135E8 ; 7611537.717071737 ; 1.0553711679547366E8 ; 0.0
2 ; 7631747.272443708 ; 1.0615179732996795E8 ; 1.5232941600061143E7 ; 2.1122718295763502E8 ; 0.0
3 ; 7646073.509202461 ; 1.0692231178183597E8 ; 2.2864688872504853E7 ; 3.1737898028760296E8 ; 0.0
4 ; 7661679.88498119 ; 1.0800161084675288E8 ; 3.0510762381707314E7 ; 4.2430129206943893E8 ; 0.0
5 ; 7683815.056416546 ; 1.093896956923855E8 ; 3.81724422666885E7 ; 5.323029029161918E8 ; 0.0
6 ; 7717618.092041511 ; 1.1108656731848529E8 ; 4.585625732310505E7 ; 6.416925986085773E8 ; 0.0
7 ; 7768171.269675709 ; 1.1309222655114901E8 ; 5.357387541514656E7 ; 7.527791659270625E8 ; 0.0
8 ; 7833649.54098534 ; 1.1540667403801179E8 ; 6.134204668482227E7 ; 8.658713924782115E8 ; 0.0
9 ; 7944773.1696977 ; 1.1802991024443787E8 ; 6.91756962258076E7 ; 9.812780665162233E8 ; 0.0
10 ; 8117587.778415277 ; 1.2096193545076054E8 ; 7.712046939550531E7 ; 1.0993079767606611E9 ; 0.0
11 ; 8403021.820098186 ; 1.2420274975061074E8 ; 8.523805717392059E7 ; 1.2202699122114217E9 ; 0.0
12 ; 8856667.452121604 ; 1.2775235305035749E8 ; 9.364107899401878E7 ; 1.3444726619620326E9 ; 0.0
13 ; 9296694.436205821 ; 1.3161074506966752E8 ; 1.0249774644614038E8 ; 1.4722250150123901E9 ; 0.0
14 ; 9346124.062464628 ; 1.3577792534317666E8 ; 1.117944408823462E8 ; 1.6038357600820577E9 ; 0.0
15 ; 9359106.096044993 ; 1.4025389322324967E8 ; 1.2114056494481082E8 ; 1.7396136854252343E9 ; 0.0
16 ; 9373482.6712068 ; 1.4503864788378993E8 ; 1.3049967104085581E8 ; 1.879867578648484E9 ; 0.0
17 ; 9388214.809889905 ; 1.5013218832504585E8 ; 1.398731537120626E8 ; 2.024906226532274E9 ; 0.0
18 ; 9406854.340994893 ; 1.5553451337935066E8 ; 1.492613685219525E8 ; 2.17503841485732E9 ; 0.0
19 ; 9417399.824143967 ; 1.612456217177169E8 ; 1.586682228629474E8 ; 2.3305729282366705E9 ; 0.0
20 ; 9436073.857033411 ; 1.6726551185720202E8 ; 1.6808562268709138E8 ; 2.491818549954387E9 ; 0.0
21 ; 9447156.26766365 ; 1.735941821689507E8 ; 1.7752169654412478E8 ; 2.6590840618115892E9 ; 0.0
22 ; 9465306.555481652 ; 1.8023163088681573E8 ; 1.8696885281178844E8 ; 2.83267824398054E9 ; 0.0
23 ; 9480246.22909284 ; 1.871778561164561E8 ; 1.9643415936727008E8 ; 3.0129098748673553E9 ; 0.0
24 ; 9497704.996236514 ; 1.9443285584480846E8 ; 2.0591440559636292E8 ; 3.2000877309838114E9 ; 0.0
25 ; 9509133.957847994 ; 2.00684668848014E8 ; 2.1541211059259942E8 ; 3.39452058682862E9 ; 0.0
26 ; 9524408.373512825 ; 2.006868407382284E8 ; 2.249212445504474E8 ; 3.595205255676634E9 ; 0.0
27 ; 9540539.943347044 ; 2.0068913849851516E8 ; 2.3444565292396024E8 ; 3.795892096414862E9 ; 0.0
28 ; 9552953.31266872 ; 2.0069155973959225E8 ; 2.4398619286730728E8 ; 3.9965812349133773E9 ; 0.0
29 ; 9572980.38344681 ; 2.0069410200295272E8 ; 2.53539146179976E8 ; 4.1972727946529694E9 ; 0.0
30 ; 9578742.868831307 ; 2.006967627705637E8 ; 2.631121265634228E8 ; 4.397966896655922E9 ; 0.0
31 ; 9597801.237200955 ; 2.006995394743208E8 ; 2.726908694322541E8 ; 4.598663659426486E9 ; 0.0
32 ; 9607950.757583985 ; 2.0070242950519723E8 ; 2.8228867066945505E8 ; 4.799363198900806E9 ; 0.0
33 ; 9621786.835899204 ; 2.0070543022203666E8 ; 2.91896621427039E8 ; 5.000065628406004E9 ; 0.0
34 ; 9632004.678076329 ; 2.0070853895994595E8 ; 3.0151840826293826E8 ; 5.20077105862804E9 ; 0.0
35 ; 9645503.479514308 ; 2.0071175303825384E8 ; 3.111504129410146E8 ; 5.401479597587986E9 ; 0.0
36 ; 9658043.022494812 ; 2.0071506976800898E8 ; 3.207959164205289E8 ; 5.60219135062624E9 ; 0.0
37 ; 9671020.792555667 ; 2.0071848645899788E8 ; 3.304539594430237E8 ; 5.802906420394249E9 ; 0.0
38 ; 9679895.002683148 ; 2.007220004262716E8 ; 3.401249802355794E8 ; 6.003624906853247E9 ; 0.0
39 ; 9687487.857136391 ; 2.0072560899617526E8 ; 3.4980487523826253E8 ; 6.204346907279518E9 ; 0.0
40 ; 9698409.919427125 ; 2.0072930951188123E8 ; 3.594923630953989E8 ; 6.405072516275693E9 ; 0.0
41 ; 9707274.38707088 ; 2.007330993384308E8 ; 3.69190773014826E8 ; 6.605801825787574E9 ; 0.0
42 ; 9710277.813579546 ; 2.007369758672947E8 ; 3.788980474018969E8 ; 6.806534925126004E9 ; 0.0
43 ; 9718723.884498864 ; 2.0074093652046612E8 ; 3.8860832521547645E8 ; 7.007271900993299E9 ; 0.0
44 ; 9729476.367819449 ; 2.0074497875410244E8 ; 3.9832704909997535E8 ; 7.208012837513764E9 ; 0.0
45 ; 9730128.825827582 ; 2.0074910006173503E8 ; 4.080565254677948E8 ; 7.408757816267867E9 ; 0.0
46 ; 9738932.702790871 ; 2.0075329797706872E8 ; 4.177866542936224E8 ; 7.609506916329602E9 ; 0.0
47 ; 9737578.299519671 ; 2.0075757007639232E8 ; 4.2752558699641323E8 ; 7.810260214306671E9 ; 0.0
48 ; 9741352.581302783 ; 2.0076191398062485E8 ; 4.372631652959329E8 ; 8.011017784383063E9 ; 0.0
49 ; 9745407.069563268 ; 2.007663273570204E8 ; 4.4700451787723565E8 ; 8.211779698363688E9 ; 0.0
50 ; 9748059.679389784 ; 2.0077080792055628E8 ; 4.567499249467989E8 ; 8.412546025720709E9 ; 0.0
51 ; 9747168.201553537 ; 2.0077535343502846E8 ; 4.664979846261887E8 ; 8.613316833641266E9 ; 0.0
52 ; 9750688.082333647 ; 2.0077996171387756E8 ; 4.762451528277422E8 ; 8.814092187076294E9 ; 0.0
53 ; 9747788.787475342 ; 2.0078463062076873E8 ; 4.8599584091007584E8 ; 9.01487214879017E9 ; 0.0
54 ; 9749469.257836167 ; 2.007893580699473E8 ; 4.957436296975512E8 ; 9.21565677941094E9 ; 0.0
55 ; 9745737.073745798 ; 2.00794142026392E8 ; 5.0549309895538735E8 ; 9.416446137480888E9 ; 0.0
56 ; 9750020.780510228 ; 2.0079898050578538E8 ; 5.1523883602913314E8 ; 9.61724027950728E9 ; 0.0
57 ; 9749587.201431653 ; 2.0080387157432106E8 ; 5.249888568096434E8 ; 9.818039260013065E9 ; 0.0
58 ; 9743579.80564961 ; 2.0080881334836614E8 ; 5.34738444011075E8 ; 1.0018843131587387E10 ; 0.0
59 ; 9748783.868123526 ; 2.0081380399399495E8 ; 5.444820238167247E8 ; 1.0219651944935753E10 ; 0.0
60 ; 9748149.648985859 ; 2.0081884172641057E8 ; 5.542308076848482E8 ; 1.0420465748929749E10 ; 0.0
61 ; 9746726.135555102 ; 2.0082392480926853E8 ; 5.63978957333834E8 ; 1.0621284590656158E10 ; 0.0
62 ; 9744664.168247545 ; 2.008290515539161E8 ; 5.737256834693892E8 ; 1.0822108515465427E10 ; 0.0
63 ; 9746155.761789873 ; 2.008342203185597E8 ; 5.834703476376368E8 ; 1.1022937567019344E10 ; 0.0
64 ; 9743241.50064859 ; 2.008394295073719E8 ; 5.932165033994267E8 ; 1.1223771787337904E10 ; 0.0
65 ; 9742778.862321094 ; 2.008446775695479E8 ; 6.029597449000753E8 ; 1.1424611216845276E10 ; 0.0
66 ; 9737947.967237037 ; 2.008499629983216E8 ; 6.127025237623965E8 ; 1.1625455894414824E10 ; 0.0
67 ; 9739962.473033898 ; 2.0085528432994914E8 ; 6.224404717296335E8 ; 1.1826305857413145E10 ; 0.0
68 ; 9736921.384104008 ; 2.0086064014266792E8 ; 6.321804342026674E8 ; 1.2027161141743093E10 ; 0.0
69 ; 9733132.941800902 ; 2.008660290556379E8 ; 6.419173555867714E8 ; 1.2228021781885761E10 ; 0.0
70 ; 9733509.596852839 ; 2.0087144972787112E8 ; 6.516504885285723E8 ; 1.2428887810941399E10 ; 0.0
71 ; 9728449.279891891 ; 2.0087690085715532E8 ; 6.613839981254251E8 ; 1.262975926066927E10 ; 0.0
72 ; 9729575.649349114 ; 2.0088238117897597E8 ; 6.71112447405317E8 ; 1.2830636161526424E10 ; 0.0
73 ; 9725638.021175737 ; 2.0088788946544138E8 ; 6.80842023054666E8 ; 1.30315185427054E10 ; 0.0
74 ; 9725868.747078499 ; 2.0089342452421436E8 ; 6.905676610758418E8 ; 1.3232406432170841E10 ; 0.0
75 ; 9720000.418937767 ; 2.008989851974538E8 ; 7.002935298229203E8 ; 1.3433299856695055E10 ; 0.0
76 ; 9718148.61678844 ; 2.009045703607689E8 ; 7.100135302418581E8 ; 1.363419884189251E10 ; 0.0
77 ; 9714582.24456643 ; 2.009101789221884E8 ; 7.197316788586465E8 ; 1.3835103412253279E10 ; 0.0
78 ; 9709040.844780382 ; 2.0091580982114694E8 ; 7.29446261103213E8 ; 1.4036013591175467E10 ; 0.0
79 ; 9698019.236057268 ; 2.009214620274902E8 ; 7.391553019479933E8 ; 1.4236929400996613E10 ; 0.0
80 ; 9687930.509979071 ; 2.0092713454050028E8 ; 7.488533211840506E8 ; 1.4437850863024103E10 ; 0.0
81 ; 9679729.409018833 ; 2.0093282638794255E8 ; 7.585412516940297E8 ; 1.4638777997564604E10 ; 0.0
82 ; 9673218.751090655 ; 2.0093853662513438E8 ; 7.682209811030486E8 ; 1.4839710823952547E10 ; 0.0
83 ; 9664911.479631133 ; 2.0094426433403733E8 ; 7.778941998541392E8 ; 1.504064936057768E10 ; 0.0
84 ; 9654751.714666158 ; 2.0095000862237263E8 ; 7.875591113337704E8 ; 1.5241593624911718E10 ; 0.0
85 ; 9644650.619199751 ; 2.0095576862276047E8 ; 7.972138630484365E8 ; 1.5442543633534092E10 ; 0.0
86 ; 9633114.168920847 ; 2.0096154349188346E8 ; 8.068585136676363E8 ; 1.5643499402156853E10 ; 0.0
87 ; 9627721.561627094 ; 2.0096733240967423E8 ; 8.164916278365571E8 ; 1.5844460945648737E10 ; 0.0
88 ; 9617697.493709002 ; 2.0097313457852718E8 ; 8.261193493981843E8 ; 1.604542827805841E10 ; 0.0
89 ; 9603895.690399248 ; 2.0097894922253427E8 ; 8.357370468918933E8 ; 1.6246401412636938E10 ; 0.0
90 ; 9595954.478647472 ; 2.0098477558674452E8 ; 8.453409425822926E8 ; 1.6447380361859472E10 ; 0.0
91 ; 9586193.449522337 ; 2.0099061293644723E8 ; 8.5493689706094E8 ; 1.6648365137446217E10 ; 0.0
92 ; 9577204.006013904 ; 2.0099646055647823E8 ; 8.645230905104624E8 ; 1.6849355750382664E10 ; 0.0
93 ; 9567550.973863488 ; 2.010023177505491E8 ; 8.741002945164763E8 ; 1.7050352210939142E10 ; 0.0
94 ; 9554911.145565547 ; 2.0100818384059876E8 ; 8.836678454903398E8 ; 1.725135452868969E10 ; 0.0
95 ; 9544182.09374706 ; 2.0101405816616678E8 ; 8.932227566359053E8 ; 1.745236271253029E10 ; 0.0
96 ; 9533380.85586704 ; 2.0101994008378854E8 ; 9.027669387296523E8 ; 1.7653376770696457E10 ; 0.0
97 ; 9524013.59482193 ; 2.01025828966411E8 ; 9.123003195855193E8 ; 1.7854396710780247E10 ; 0.0
98 ; 9514802.420037156 ; 2.0103172420282876E8 ; 9.218243331803412E8 ; 1.805542253974666E10 ; 0.0
99 ; 9501245.946413204 ; 2.0103762519714057E8 ; 9.313391356003784E8 ; 1.8256454263949486E10 ; 0.0
100 ; 9492047.430137403 ; 2.0104353136822432E8 ; 9.408403815467916E8 ; 1.8457491889146626E10 ; 0.0
101 ; 9479927.325092996 ; 2.010494421492315E8 ; 9.50332428976929E8 ; 1.865853542051485E10 ; 0.0
102 ; 9466796.790888071 ; 2.010553569870993E8 ; 9.59812356302022E8 ; 1.885958486266408E10 ; 0.0
103 ; 9455808.18344698 ; 2.010612753420807E8 ; 9.6927915309291E8 ; 1.906064021965118E10 ; 0.0
104 ; 9440968.971026827 ; 2.0106719668729156E8 ; 9.78734961276357E8 ; 1.926170149499326E10 ; 0.0
105 ; 9431440.444422394 ; 2.01073120508274E8 ; 9.881759302473838E8 ; 1.946276869168055E10 ; 0.0
106 ; 9418215.968218435 ; 2.0107904630257598E8 ; 9.976073706918062E8 ; 1.9663841812188824E10 ; 0.0
107 ; 9409723.562823236 ; 2.0108497357934636E8 ; 1.0070255866600246E9 ; 1.9864920858491398E10 ; 0.0
108 ; 9392541.962625526 ; 2.0109090185894477E8 ; 1.0164353102228479E9 ; 2.0066005832070744E10 ; 0.0
109 ; 9380767.700678816 ; 2.0109683067256573E8 ; 1.0258278521854734E9 ; 2.0267096733929688E10 ; 0.0
110 ; 9367826.939823505 ; 2.011027595618771E8 ; 1.0352086198861523E9 ; 2.0468193564602253E10 ; 0.0
111 ; 9354790.430447958 ; 2.011086880786715E8 ; 1.0445764468259758E9 ; 2.066929632416413E10 ; 0.0
112 ; 9342625.125264425 ; 2.011146157845308E8 ; 1.0539312372564237E9 ; 2.08704050122428E10 ; 0.0
113 ; 9324559.139384791 ; 2.011205422505033E8 ; 1.0632738623816881E9 ; 2.1071519628027332E10 ; 0.0
114 ; 9318403.559938515 ; 2.0112646705679247E8 ; 1.0725984215210729E9 ; 2.1272640170277836E10 ; 0.0
115 ; 9300158.381408751 ; 2.0113238979245773E8 ; 1.0819168250810113E9 ; 2.147376663733463E10 ; 0.0
116 ; 9285872.683785371 ; 2.0113831005512595E8 ; 1.09121698346242E9 ; 2.1674899027127087E10 ; 0.0
117 ; 9276897.141235694 ; 2.01144227450714E8 ; 1.1005028561462054E9 ; 2.1876037337182213E10 ; 0.0
118 ; 9262572.20697711 ; 2.0115014159316128E8 ; 1.109779753287441E9 ; 2.2077181564632927E10 ; 0.0
119 ; 9245539.472226877 ; 2.011560521041727E8 ; 1.1190423254944181E9 ; 2.227833170622609E10 ; 0.0
120 ; 9231757.60460908 ; 2.011619586129706E8 ; 1.128287864966645E9 ; 2.247948775833026E10 ; 0.0
121 ; 9217631.479893126 ; 2.0116786075605628E8 ; 1.137519622571254E9 ; 2.2680649716943233E10 ; 0.0
122 ; 9202703.27811004 ; 2.0117375817698032E8 ; 1.1467372540511472E9 ; 2.288181757769929E10 ; 0.0
123 ; 9182498.688676493 ; 2.0117965052612123E8 ; 1.1559399573292572E9 ; 2.308299133587627E10 ; 0.0
124 ; 9177387.17944032 ; 2.011855374604725E8 ; 1.1651224560179338E9 ; 2.3284170986402393E10 ; 0.0
125 ; 9158615.590622857 ; 2.0119141864343736E8 ; 1.174299843197374E9 ; 2.3485356523862865E10 ; 0.0
126 ; 9145179.673773326 ; 2.011972937446312E8 ; 1.183458458787997E9 ; 2.36865479425063E10 ; 0.0
127 ; 9126018.57460479 ; 2.012031624396912E8 ; 1.1926036384617703E9 ; 2.3887745236250935E10 ; 0.0
128 ; 9113734.677900938 ; 2.0120902441009298E8 ; 1.201729657036375E9 ; 2.4088948398690624E10 ; 0.0
129 ; 9095841.529350115 ; 2.0121487934297404E8 ; 1.210843391714276E9 ; 2.4290157423100716E10 ; 0.0
130 ; 9080653.972896328 ; 2.0122072693096358E8 ; 1.219939233243626E9 ; 2.449137230244369E10 ; 0.0
131 ; 9057807.548172653 ; 2.0122656687201846E8 ; 1.2290198872165225E9 ; 2.4692593029374657E10 ; 0.0
132 ; 9038252.783038937 ; 2.0123239886926547E8 ; 1.2380776947646952E9 ; 2.4893819596246674E10 ; 0.0
133 ; 9016154.290745484 ; 2.0123822263084888E8 ; 1.247115947547734E9 ; 2.509505199511594E10 ; 0.0
134 ; 8994698.696899464 ; 2.0124403786978394E8 ; 1.2561321018384795E9 ; 2.5296290217746788E10 ; 0.0
135 ; 8970146.44833761 ; 2.012498443038153E8 ; 1.265126800535379E9 ; 2.5497534255616573E10 ; 0.0
136 ; 8949577.182573907 ; 2.01255641655281E8 ; 1.2740969469837165E9 ; 2.5698784099920387E10 ; 0.0
137 ; 8931446.255928943 ; 2.0126142965098086E8 ; 1.2830465241662903E9 ; 2.590003974157567E10 ; 0.0
138 ; 8906572.918281592 ; 2.0126720802205005E8 ; 1.2919779704222193E9 ; 2.610130117122665E10 ; 0.0
139 ; 8884819.280683039 ; 2.012729765038368E8 ; 1.3008845433405008E9 ; 2.63025683792487E10 ; 0.0
140 ; 8860421.993813626 ; 2.0127873483578488E8 ; 1.3097693626211839E9 ; 2.6503841355752537E10 ; 0.0
141 ; 8838254.54213228 ; 2.0128448276131988E8 ; 1.3186297846149974E9 ; 2.670512009058832E10 ; 0.0
142 ; 8817097.481818695 ; 2.0129022002773976E8 ; 1.3274680391571298E9 ; 2.690640457334964E10 ; 0.0
143 ; 8794733.969376279 ; 2.012959463861094E8 ; 1.3362851366389484E9 ; 2.710769479337738E10 ; 0.0
144 ; 8768615.669435646 ; 2.0130166159115854E8 ; 1.3450798706083248E9 ; 2.730899073976349E10 ; 0.0
145 ; 8757114.010110674 ; 2.0130736540118346E8 ; 1.3538484862777605E9 ; 2.751029240135465E10 ; 0.0
146 ; 8743774.553755151 ; 2.013130575779524E8 ; 1.3626056002878711E9 ; 2.7711599766755833E10 ; 0.0
147 ; 8725051.779807271 ; 2.013187378866139E8 ; 1.3713493748416262E9 ; 2.7912912824333786E10 ; 0.0
148 ; 8705102.761911288 ; 2.0132440609560847E8 ; 1.3800744266214335E9 ; 2.81142315622204E10 ; 0.0
149 ; 8692901.680624409 ; 2.013300619765834E8 ; 1.388779529383345E9 ; 2.831555596831601E10 ; 0.0
150 ; 8675617.816260517 ; 2.0133570530431065E8 ; 1.3974724310639694E9 ; 2.851688603029259E10 ; 0.0
151 ; 8659141.129889024 ; 2.0134133585660723E8 ; 1.40614804888023E9 ; 2.87182217355969E10 ; 0.0
152 ; 8646401.7591995 ; 2.0134695341425872E8 ; 1.414807190010119E9 ; 2.8919563071453506E10 ; 0.0
153 ; 8628770.716676876 ; 2.013525577609451E8 ; 1.4234535917693186E9 ; 2.9120910024867764E10 ; 0.0
154 ; 8611973.829438642 ; 2.013581486831695E8 ; 1.4320823624859955E9 ; 2.9322262582628708E10 ; 0.0
155 ; 8597897.239399562 ; 2.0136372597018895E8 ; 1.4406943363154342E9 ; 2.952362073131188E10 ; 0.0
156 ; 8575554.695838263 ; 2.013692894139478E8 ; 1.449292233554834E9 ; 2.9724984457282066E10 ; 0.0
157 ; 8565422.216935167 ; 2.0137483880901343E8 ; 1.457867788250672E9 ; 2.9926353746696014E10 ; 0.0
158 ; 8545024.219532877 ; 2.0138037395251396E8 ; 1.4664332104676073E9 ; 3.0127728585505028E10 ; 0.0
159 ; 8530793.201212503 ; 2.0138589464407814E8 ; 1.4749782346871402E9 ; 3.0329108959457542E10 ; 0.0
160 ; 8514266.831784405 ; 2.0139140068577728E8 ; 1.4835090278883526E9 ; 3.053049485410162E10 ; 0.0
161 ; 8497644.919940094 ; 2.0139689188206926E8 ; 1.4920232947201371E9 ; 3.0731886254787395E10 ; 0.0
162 ; 8478054.647009442 ; 2.014023680397442E8 ; 1.500520939640077E9 ; 3.0933283146669464E10 ; 0.0
163 ; 8463516.470858928 ; 2.0140782896787208E8 ; 1.5089989942870865E9 ; 3.113468551470921E10 ; 0.0
164 ; 8446878.38451187 ; 2.0141327447775203E8 ; 1.5174625107579453E9 ; 3.1336093343677082E10 ; 0.0
165 ; 8426236.681868263 ; 2.0141870438286346E8 ; 1.5259093891424572E9 ; 3.1537506618154835E10 ; 0.0
166 ; 8413583.735321732 ; 2.0142411849881867E8 ; 1.5343356258243256E9 ; 3.1738925322537697E10 ; 0.0
167 ; 8392006.355469195 ; 2.0142951664331707E8 ; 1.5427492095596473E9 ; 3.1940349441036514E10 ; 0.0
168 ; 8381214.648147891 ; 2.0143489863610092E8 ; 1.5511412159151165E9 ; 3.2141778957679832E10 ; 0.0
169 ; 8362905.534448646 ; 2.0144026429891247E8 ; 1.5595224305632644E9 ; 3.2343213856315933E10 ; 0.0
170 ; 8343925.970823589 ; 2.0144561345545265E8 ; 1.567885336097713E9 ; 3.2544654120614845E10 ; 0.0
171 ; 8334000.58077969 ; 2.01450945931341E8 ; 1.5762292620685365E9 ; 3.2746099734070297E10 ; 0.0
172 ; 8313702.278861668 ; 2.0145626155407688E8 ; 1.5845632626493163E9 ; 3.2947550680001637E10 ; 0.0
173 ; 8295381.667608338 ; 2.01461560153002E8 ; 1.592876964928178E9 ; 3.3149006941555714E10 ; 0.0
174 ; 8283912.709696581 ; 2.014668415592642E8 ; 1.6011723465957863E9 ; 3.3350468501708717E10 ; 0.0
175 ; 8273459.943484723 ; 2.0147210560578242E8 ; 1.6094562593054829E9 ; 3.3551935343267982E10 ; 0.0
176 ; 8256528.961370707 ; 2.0147735212721258E8 ; 1.6177297192489676E9 ; 3.3753407448873764E10 ; 0.0
177 ; 8240104.654188953 ; 2.0148258095991486E8 ; 1.6259862482103384E9 ; 3.3954884801000977E10 ; 0.0
178 ; 8229989.127329597 ; 2.014877919419219E8 ; 1.6342263528645272E9 ; 3.415636738196089E10 ; 0.0
179 ; 8217336.555100657 ; 2.0149298491290784E8 ; 1.6424563419918568E9 ; 3.4357855173902813E10 ; 0.0
180 ; 8205828.565779278 ; 2.0149815971415883E8 ; 1.6506736785469575E9 ; 3.455934815881572E10 ; 0.0
181 ; 8191933.931961477 ; 2.015033161885439E8 ; 1.6588795071127367E9 ; 3.476084631852988E10 ; 0.0
182 ; 8174771.3772375425 ; 2.015084541804872E8 ; 1.6670714410446982E9 ; 3.496234963471842E10 ; 0.0
183 ; 8163824.349332431 ; 2.0151357353594086E8 ; 1.6752462124219358E9 ; 3.516385808889891E10 ; 0.0
184 ; 8148005.276933095 ; 2.0151867410235888E8 ; 1.6834100367712681E9 ; 3.536537166243485E10 ; 0.0
185 ; 8139434.502767128 ; 2.015237557286717E8 ; 1.6915580420482013E9 ; 3.556689033653721E10 ; 0.0
186 ; 8120312.517897667 ; 2.015288182652617E8 ; 1.6996974765509684E9 ; 3.576841409226588E10 ; 0.0
187 ; 8108944.344362718 ; 2.0153386156393945E8 ; 1.707817789068866E9 ; 3.5969942910531136E10 ; 0.0
188 ; 8094097.229753417 ; 2.0153888547792047E8 ; 1.7159267334132288E9 ; 3.617147677209508E10 ; 0.0
189 ; 8083629.5541306995 ; 2.0154388986180317E8 ; 1.7240208306429822E9 ; 3.6373015657573E10 ; 0.0
190 ; 8067636.291447329 ; 2.015488745715471E8 ; 1.732104460197113E9 ; 3.65745595474348E10 ; 0.0
191 ; 8050373.897985052 ; 2.0155383946445197E8 ; 1.7401720964885604E9 ; 3.677610842200635E10 ; 0.0
192 ; 8038249.076833981 ; 2.0155878439913738E8 ; 1.7482224703865454E9 ; 3.69776622614708E10 ; 0.0
193 ; 8027574.558782837 ; 2.0156370923552328E8 ; 1.7562607194633794E9 ; 3.717922104586994E10 ; 0.0
194 ; 8011196.871363481 ; 2.015686138348107E8 ; 1.7642882940221622E9 ; 3.738078475510547E10 ; 0.0
195 ; 7995925.037480512 ; 2.0157349805946344E8 ; 1.7722994908935256E9 ; 3.758235336894028E10 ; 0.0
196 ; 7983876.712944275 ; 2.0157836177319008E8 ; 1.7802954159310062E9 ; 3.778392686699974E10 ; 0.0
197 ; 7973946.124682992 ; 2.015832048409268E8 ; 1.7882792926439505E9 ; 3.7985505228772934E10 ; 0.0
198 ; 7961269.80908972 ; 2.0158802712882024E8 ; 1.7962532387686334E9 ; 3.818708843361386E10 ; 0.0
199 ; 7948515.010223322 ; 2.0159282850421163E8 ; 1.804214508577723E9 ; 3.838867646074268E10 ; 0.0
200 ; 7933121.431888939 ; 2.0159760883562064E8 ; 1.8121630235879464E9 ; 3.8590269289246895E10 ; 0.0
201 ; 7918622.190077 ; 1.865603003298296E8 ; 1.8200961450198355E9 ; 3.879186689808251E10 ; 0.0
