CSV File for the City 3 on Day 6
1 - Minute m 
2 - Power Consumed at minute m 
3 - Power Produced at minute m 
4 - Energy Consumed since the beginning of the day 
5 - Energy Produced since the beginning of the day 
6 - Energy Lost since the beginning of the day on lines starting from the city
 
0 ; 5950477.715619519 ; 7063587.042648991 ; 0.0 ; 0.0 ; 0.0
1 ; 5958017.496182766 ; 7063587.042648991 ; 5950477.715619519 ; 7063587.042648991 ; 0.0
2 ; 5965596.020693276 ; 7063587.042648991 ; 1.1908495211802285E7 ; 1.4127174085297981E7 ; 0.0
3 ; 5973796.395572183 ; 7063587.042648991 ; 1.787409123249556E7 ; 2.1190761127946973E7 ; 0.0
4 ; 5980494.878404351 ; 7063587.042648991 ; 2.3847887628067743E7 ; 2.8254348170595963E7 ; 0.0
5 ; 5993971.851943578 ; 7063587.042648991 ; 2.9828382506472096E7 ; 3.531793521324495E7 ; 0.0
6 ; 6004487.225148266 ; 7063587.042648991 ; 3.582235435841567E7 ; 4.2381522255893946E7 ; 0.0
7 ; 6024711.842783894 ; 7063587.042648991 ; 4.182684158356394E7 ; 4.944510929854294E7 ; 0.0
8 ; 6053912.180372262 ; 7063587.042648991 ; 4.785155342634784E7 ; 5.650869634119193E7 ; 0.0
9 ; 6096075.338459364 ; 7063587.042648991 ; 5.39054656067201E7 ; 6.3572283383840926E7 ; 0.0
10 ; 6160907.835264636 ; 7063587.042648991 ; 6.000154094517946E7 ; 7.063587042648992E7 ; 0.0
11 ; 6267250.527097811 ; 7063587.042648991 ; 6.61624487804441E7 ; 7.76994574691389E7 ; 0.0
12 ; 6431382.007839138 ; 7063587.042648991 ; 7.24296993075419E7 ; 8.476304451178789E7 ; 0.0
13 ; 6585070.535948642 ; 7063587.042648991 ; 7.886108131538105E7 ; 9.182663155443688E7 ; 0.0
14 ; 6602202.2852686 ; 7063587.042648991 ; 8.544615185132968E7 ; 9.889021859708586E7 ; 0.0
15 ; 6611438.755686364 ; 7063587.042648991 ; 9.204835413659829E7 ; 1.0595380563973485E8 ; 0.0
16 ; 6618222.117910169 ; 7063587.042648991 ; 9.865979289228465E7 ; 1.1301739268238384E8 ; 0.0
17 ; 6629748.6338485 ; 7063587.042648991 ; 1.0527801501019481E8 ; 1.2008097972503282E8 ; 0.0
18 ; 6637920.792933537 ; 7063587.042648991 ; 1.1190776364404331E8 ; 1.271445667676818E8 ; 0.0
19 ; 6641260.986655231 ; 7063587.042648991 ; 1.1854568443697685E8 ; 1.342081538103308E8 ; 0.0
20 ; 6648320.60002115 ; 7063587.042648991 ; 1.2518694542363209E8 ; 1.4127174085297978E8 ; 0.0
21 ; 6660748.490859396 ; 7063587.042648991 ; 1.3183526602365324E8 ; 1.4833532789562878E8 ; 0.0
22 ; 6666393.483316628 ; 7063587.042648991 ; 1.3849601451451263E8 ; 1.5539891493827778E8 ; 0.0
23 ; 6675745.822008037 ; 7063587.042648991 ; 1.4516240799782926E8 ; 1.6246250198092678E8 ; 0.0
24 ; 6686248.083235321 ; 7063587.042648991 ; 1.518381538198373E8 ; 1.6952608902357578E8 ; 0.0
25 ; 6690428.728183995 ; 7063587.042648991 ; 1.5852440190307263E8 ; 1.7658967606622478E8 ; 0.0
26 ; 6699717.469842773 ; 7063587.042648991 ; 1.652148306312566E8 ; 1.8365326310887378E8 ; 0.0
27 ; 6706904.6336615 ; 7063587.042648991 ; 1.7191454810109937E8 ; 1.907168501515228E8 ; 0.0
28 ; 6714979.378234722 ; 7063587.042648991 ; 1.7862145273476088E8 ; 1.977804371941718E8 ; 0.0
29 ; 6721238.021516049 ; 7063587.042648991 ; 1.853364321129956E8 ; 2.048440242368208E8 ; 0.0
30 ; 6729461.0080900835 ; 7063587.042648991 ; 1.9205767013451165E8 ; 2.119076112794698E8 ; 0.0
31 ; 6738370.744862912 ; 7063587.042648991 ; 1.9878713114260173E8 ; 2.189711983221188E8 ; 0.0
32 ; 6743274.838474298 ; 7063587.042648991 ; 2.0552550188746464E8 ; 2.260347853647678E8 ; 0.0
33 ; 6749954.859866763 ; 7063587.042648991 ; 2.1226877672593895E8 ; 2.330983724074168E8 ; 0.0
34 ; 6757452.565568558 ; 7063587.042648991 ; 2.190187315858057E8 ; 2.401619594500658E8 ; 0.0
35 ; 6765183.868552417 ; 7063587.042648991 ; 2.2577618415137428E8 ; 2.472255464927148E8 ; 0.0
36 ; 6770067.901896728 ; 7063587.042648991 ; 2.325413680199267E8 ; 2.542891335353638E8 ; 0.0
37 ; 6776581.857936105 ; 7063587.042648991 ; 2.393114359218234E8 ; 2.613527205780128E8 ; 0.0
38 ; 6782268.790986023 ; 7063587.042648991 ; 2.4608801777975953E8 ; 2.684163076206618E8 ; 0.0
39 ; 6785097.383374911 ; 7063587.042648991 ; 2.5287028657074556E8 ; 2.7547989466331077E8 ; 0.0
40 ; 6793293.849805714 ; 7063587.042648991 ; 2.5965538395412046E8 ; 2.8254348170595974E8 ; 0.0
41 ; 6796958.473261007 ; 7063587.042648991 ; 2.6644867780392617E8 ; 2.896070687486087E8 ; 0.0
42 ; 6801411.366873297 ; 7063587.042648991 ; 2.7324563627718717E8 ; 2.966706557912577E8 ; 0.0
43 ; 6806446.85115493 ; 7063587.042648991 ; 2.800470476440605E8 ; 3.0373424283390665E8 ; 0.0
44 ; 6811363.090198254 ; 7063587.042648991 ; 2.868534944952154E8 ; 3.107978298765556E8 ; 0.0
45 ; 6812626.033751098 ; 7063587.042648991 ; 2.936648575854137E8 ; 3.178614169192046E8 ; 0.0
46 ; 6817504.557894508 ; 7063587.042648991 ; 3.0047748361916476E8 ; 3.2492500396185356E8 ; 0.0
47 ; 6820645.224566283 ; 7063587.042648991 ; 3.072949881770593E8 ; 3.3198859100450253E8 ; 0.0
48 ; 6823549.995044025 ; 7063587.042648991 ; 3.141156334016256E8 ; 3.390521780471515E8 ; 0.0
49 ; 6827237.957995567 ; 7063587.042648991 ; 3.209391833966696E8 ; 3.461157650898005E8 ; 0.0
50 ; 6828538.371269568 ; 7063587.042648991 ; 3.277664213546652E8 ; 3.5317935213244945E8 ; 0.0
51 ; 6831304.820778655 ; 7063587.042648991 ; 3.345949597259348E8 ; 3.602429391750984E8 ; 0.0
52 ; 6833694.749879679 ; 7063587.042648991 ; 3.414262645467135E8 ; 3.673065262177474E8 ; 0.0
53 ; 6834601.37631909 ; 7063587.042648991 ; 3.482599592965931E8 ; 3.7437011326039636E8 ; 0.0
54 ; 6835126.620744131 ; 7063587.042648991 ; 3.5509456067291224E8 ; 3.8143370030304533E8 ; 0.0
55 ; 6838179.908683458 ; 7063587.042648991 ; 3.6192968729365635E8 ; 3.884972873456943E8 ; 0.0
56 ; 6840139.677583843 ; 7063587.042648991 ; 3.687678672023398E8 ; 3.955608743883433E8 ; 0.0
57 ; 6842181.16761597 ; 7063587.042648991 ; 3.7560800687992364E8 ; 4.0262446143099225E8 ; 0.0
58 ; 6842146.333622887 ; 7063587.042648991 ; 3.824501880475396E8 ; 4.096880484736412E8 ; 0.0
59 ; 6842981.359547834 ; 7063587.042648991 ; 3.8929233438116246E8 ; 4.167516355162902E8 ; 0.0
60 ; 6848685.524578819 ; 7063587.042648991 ; 3.961353157407103E8 ; 4.2381522255893916E8 ; 0.0
61 ; 6845474.740785528 ; 7063587.042648991 ; 4.029840012652891E8 ; 4.3087880960158813E8 ; 0.0
62 ; 6847008.014262273 ; 7063587.042648991 ; 4.0982947600607467E8 ; 4.379423966442371E8 ; 0.0
63 ; 6849027.01922007 ; 7063587.042648991 ; 4.166764840203369E8 ; 4.450059836868861E8 ; 0.0
64 ; 6849308.465446488 ; 7063587.042648991 ; 4.23525511039557E8 ; 4.5206957072953504E8 ; 0.0
65 ; 6853274.9917663615 ; 7063587.042648991 ; 4.3037481950500345E8 ; 4.59133157772184E8 ; 0.0
66 ; 6854298.055121248 ; 7063587.042648991 ; 4.372280944967698E8 ; 4.66196744814833E8 ; 0.0
67 ; 6854522.568226779 ; 7063587.042648991 ; 4.44082392551891E8 ; 4.7326033185748196E8 ; 0.0
68 ; 6856361.5760424305 ; 7063587.042648991 ; 4.509369151201178E8 ; 4.803239189001309E8 ; 0.0
69 ; 6855215.179762083 ; 7063587.042648991 ; 4.577932766961602E8 ; 4.873875059427799E8 ; 0.0
70 ; 6858566.616265581 ; 7063587.042648991 ; 4.6464849187592226E8 ; 4.9445109298542887E8 ; 0.0
71 ; 6856945.744421241 ; 7063587.042648991 ; 4.7150705849218786E8 ; 5.0151468002807784E8 ; 0.0
72 ; 6858743.228884815 ; 7063587.042648991 ; 4.783640042366091E8 ; 5.085782670707268E8 ; 0.0
73 ; 6857887.457459563 ; 7063587.042648991 ; 4.852227474654939E8 ; 5.156418541133758E8 ; 0.0
74 ; 6859534.058250322 ; 7063587.042648991 ; 4.920806349229535E8 ; 5.2270544115602475E8 ; 0.0
75 ; 6859056.759189313 ; 7063587.042648991 ; 4.989401689812038E8 ; 5.297690281986737E8 ; 0.0
76 ; 6859124.804559962 ; 7063587.042648991 ; 5.057992257403931E8 ; 5.368326152413227E8 ; 0.0
77 ; 6859573.558498505 ; 7063587.042648991 ; 5.1265835054495305E8 ; 5.438962022839717E8 ; 0.0
78 ; 6858740.152482418 ; 7063587.042648991 ; 5.1951792410345155E8 ; 5.509597893266207E8 ; 0.0
79 ; 6856890.841261981 ; 7063587.042648991 ; 5.2637666425593394E8 ; 5.580233763692697E8 ; 0.0
80 ; 6853806.64480522 ; 7063587.042648991 ; 5.332335550971959E8 ; 5.650869634119188E8 ; 0.0
81 ; 6854218.643327622 ; 7063587.042648991 ; 5.400873617420012E8 ; 5.721505504545678E8 ; 0.0
82 ; 6850335.046576251 ; 7063587.042648991 ; 5.469415803853288E8 ; 5.792141374972168E8 ; 0.0
83 ; 6846868.54988621 ; 7063587.042648991 ; 5.53791915431905E8 ; 5.862777245398659E8 ; 0.0
84 ; 6848025.544101865 ; 7063587.042648991 ; 5.606387839817913E8 ; 5.933413115825149E8 ; 0.0
85 ; 6843888.7391824415 ; 7063587.042648991 ; 5.674868095258931E8 ; 6.004048986251639E8 ; 0.0
86 ; 6841779.415072839 ; 7063587.042648991 ; 5.743306982650756E8 ; 6.07468485667813E8 ; 0.0
87 ; 6838001.900969691 ; 7063587.042648991 ; 5.811724776801484E8 ; 6.14532072710462E8 ; 0.0
88 ; 6835832.181699936 ; 7063587.042648991 ; 5.880104795811181E8 ; 6.21595659753111E8 ; 0.0
89 ; 6836435.752502384 ; 7063587.042648991 ; 5.948463117628181E8 ; 6.2865924679576E8 ; 0.0
90 ; 6834549.880064993 ; 7063587.042648991 ; 6.016827475153205E8 ; 6.357228338384091E8 ; 0.0
91 ; 6829640.384818116 ; 7063587.042648991 ; 6.085172973953855E8 ; 6.427864208810581E8 ; 0.0
92 ; 6824055.282869265 ; 7063587.042648991 ; 6.153469377802036E8 ; 6.498500079237071E8 ; 0.0
93 ; 6822277.883991233 ; 7063587.042648991 ; 6.221709930630728E8 ; 6.569135949663562E8 ; 0.0
94 ; 6822827.138052694 ; 7063587.042648991 ; 6.28993270947064E8 ; 6.639771820090052E8 ; 0.0
95 ; 6817799.644249723 ; 7063587.042648991 ; 6.358160980851167E8 ; 6.710407690516542E8 ; 0.0
96 ; 6814413.778482649 ; 7063587.042648991 ; 6.426338977293664E8 ; 6.781043560943033E8 ; 0.0
97 ; 6810777.050284667 ; 7063587.042648991 ; 6.494483115078491E8 ; 6.851679431369523E8 ; 0.0
98 ; 6807706.969068738 ; 7063587.042648991 ; 6.562590885581337E8 ; 6.922315301796013E8 ; 0.0
99 ; 6805759.379347893 ; 7063587.042648991 ; 6.630667955272025E8 ; 6.992951172222503E8 ; 0.0
100 ; 6801472.216501719 ; 7063587.042648991 ; 6.698725549065504E8 ; 7.063587042648994E8 ; 0.0
101 ; 6799491.894441188 ; 7063587.042648991 ; 6.766740271230521E8 ; 7.134222913075484E8 ; 0.0
102 ; 6794917.656992385 ; 7063587.042648991 ; 6.834735190174934E8 ; 7.204858783501974E8 ; 0.0
103 ; 6791452.564831217 ; 7063587.042648991 ; 6.902684366744858E8 ; 7.275494653928465E8 ; 0.0
104 ; 6788695.311061566 ; 7063587.042648991 ; 6.97059889239317E8 ; 7.346130524354955E8 ; 0.0
105 ; 6784894.4891252965 ; 7063587.042648991 ; 7.038485845503787E8 ; 7.416766394781445E8 ; 0.0
106 ; 6782085.808026396 ; 7063587.042648991 ; 7.106334790395039E8 ; 7.487402265207936E8 ; 0.0
107 ; 6778591.226520927 ; 7063587.042648991 ; 7.174155648475304E8 ; 7.558038135634426E8 ; 0.0
108 ; 6775009.38593193 ; 7063587.042648991 ; 7.241941560740513E8 ; 7.628674006060916E8 ; 0.0
109 ; 6769577.175592798 ; 7063587.042648991 ; 7.309691654599832E8 ; 7.699309876487406E8 ; 0.0
110 ; 6765191.533471191 ; 7063587.042648991 ; 7.37738742635576E8 ; 7.769945746913897E8 ; 0.0
111 ; 6762875.061507117 ; 7063587.042648991 ; 7.445039341690472E8 ; 7.840581617340387E8 ; 0.0
112 ; 6758845.350314511 ; 7063587.042648991 ; 7.512668092305543E8 ; 7.911217487766877E8 ; 0.0
113 ; 6755621.299460288 ; 7063587.042648991 ; 7.580256545808688E8 ; 7.981853358193368E8 ; 0.0
114 ; 6751756.221071123 ; 7063587.042648991 ; 7.647812758803291E8 ; 8.052489228619858E8 ; 0.0
115 ; 6746824.363268138 ; 7063587.042648991 ; 7.715330321014003E8 ; 8.123125099046348E8 ; 0.0
116 ; 6741665.204587753 ; 7063587.042648991 ; 7.782798564646684E8 ; 8.193760969472839E8 ; 0.0
117 ; 6737316.789231679 ; 7063587.042648991 ; 7.850215216692561E8 ; 8.264396839899329E8 ; 0.0
118 ; 6732900.475513628 ; 7063587.042648991 ; 7.917588384584877E8 ; 8.335032710325819E8 ; 0.0
119 ; 6727763.649054561 ; 7063587.042648991 ; 7.984917389340013E8 ; 8.40566858075231E8 ; 0.0
120 ; 6722735.891746421 ; 7063587.042648991 ; 8.052195025830559E8 ; 8.4763044511788E8 ; 0.0
121 ; 6718454.390845591 ; 7063587.042648991 ; 8.119422384748023E8 ; 8.54694032160529E8 ; 0.0
122 ; 6712385.329682619 ; 7063587.042648991 ; 8.186606928656478E8 ; 8.61757619203178E8 ; 0.0
123 ; 6710866.141370891 ; 7063587.042648991 ; 8.253730781953304E8 ; 8.688212062458271E8 ; 0.0
124 ; 6704690.677553235 ; 7063587.042648991 ; 8.320839443367013E8 ; 8.758847932884761E8 ; 0.0
125 ; 6699465.720901901 ; 7063587.042648991 ; 8.387886350142545E8 ; 8.829483803311251E8 ; 0.0
126 ; 6693265.538251742 ; 7063587.042648991 ; 8.454881007351563E8 ; 8.900119673737742E8 ; 0.0
127 ; 6690737.697837218 ; 7063587.042648991 ; 8.52181366273408E8 ; 8.970755544164232E8 ; 0.0
128 ; 6684914.795912945 ; 7063587.042648991 ; 8.588721039712453E8 ; 9.041391414590722E8 ; 0.0
129 ; 6678723.338971278 ; 7063587.042648991 ; 8.655570187671583E8 ; 9.112027285017213E8 ; 0.0
130 ; 6674356.80144846 ; 7063587.042648991 ; 8.722357421061295E8 ; 9.182663155443703E8 ; 0.0
131 ; 6664867.346246745 ; 7063587.042648991 ; 8.78910098907578E8 ; 9.253299025870193E8 ; 0.0
132 ; 6657083.54811224 ; 7063587.042648991 ; 8.855749662538247E8 ; 9.323934896296684E8 ; 0.0
133 ; 6651675.762584704 ; 7063587.042648991 ; 8.92232049801937E8 ; 9.394570766723174E8 ; 0.0
134 ; 6644169.99888564 ; 7063587.042648991 ; 8.988837255645217E8 ; 9.465206637149664E8 ; 0.0
135 ; 6637096.538589636 ; 7063587.042648991 ; 9.055278955634073E8 ; 9.535842507576154E8 ; 0.0
136 ; 6629380.1180049665 ; 7063587.042648991 ; 9.121649921019969E8 ; 9.606478378002645E8 ; 0.0
137 ; 6621336.905123228 ; 7063587.042648991 ; 9.187943722200018E8 ; 9.677114248429135E8 ; 0.0
138 ; 6613083.922553506 ; 7063587.042648991 ; 9.25415709125125E8 ; 9.747750118855625E8 ; 0.0
139 ; 6606330.890922807 ; 7063587.042648991 ; 9.320287930476786E8 ; 9.818385989282116E8 ; 0.0
140 ; 6600270.620821932 ; 7063587.042648991 ; 9.386351239386014E8 ; 9.889021859708606E8 ; 0.0
141 ; 6591318.658311064 ; 7063587.042648991 ; 9.452353945594233E8 ; 9.959657730135096E8 ; 0.0
142 ; 6580667.6025594715 ; 7063587.042648991 ; 9.518267132177343E8 ; 1.0030293600561587E9 ; 0.0
143 ; 6573780.508685628 ; 7063587.042648991 ; 9.584073808202938E8 ; 1.0100929470988077E9 ; 0.0
144 ; 6566686.349870565 ; 7063587.042648991 ; 9.649811613289794E8 ; 1.0171565341414567E9 ; 0.0
145 ; 6563657.565859851 ; 7063587.042648991 ; 9.715478476788499E8 ; 1.0242201211841058E9 ; 0.0
146 ; 6555077.398815985 ; 7063587.042648991 ; 9.781115052447097E8 ; 1.0312837082267548E9 ; 0.0
147 ; 6550625.008861163 ; 7063587.042648991 ; 9.846665826435257E8 ; 1.0383472952694038E9 ; 0.0
148 ; 6546138.202893798 ; 7063587.042648991 ; 9.912172076523869E8 ; 1.0454108823120528E9 ; 0.0
149 ; 6540843.274342719 ; 7063587.042648991 ; 9.977633458552808E8 ; 1.0524744693547019E9 ; 0.0
150 ; 6534113.964371334 ; 7063587.042648991 ; 1.0043041891296235E9 ; 1.0595380563973509E9 ; 0.0
151 ; 6530109.947784149 ; 7063587.042648991 ; 1.0108383030939949E9 ; 1.0666016434399999E9 ; 0.0
152 ; 6523440.999931035 ; 7063587.042648991 ; 1.017368413041779E9 ; 1.073665230482649E9 ; 0.0
153 ; 6517154.041143047 ; 7063587.042648991 ; 1.02389185404171E9 ; 1.0807288175252979E9 ; 0.0
154 ; 6511890.726829963 ; 7063587.042648991 ; 1.0304090080828531E9 ; 1.087792404567947E9 ; 0.0
155 ; 6504125.941011392 ; 7063587.042648991 ; 1.0369208988096831E9 ; 1.094855991610596E9 ; 0.0
156 ; 6501772.108165108 ; 7063587.042648991 ; 1.0434250247506945E9 ; 1.101919578653245E9 ; 0.0
157 ; 6496037.982981792 ; 7063587.042648991 ; 1.0499267968588597E9 ; 1.108983165695894E9 ; 0.0
158 ; 6490535.356676911 ; 7063587.042648991 ; 1.0564228348418415E9 ; 1.116046752738543E9 ; 0.0
159 ; 6483534.706448991 ; 7063587.042648991 ; 1.0629133701985184E9 ; 1.123110339781192E9 ; 0.0
160 ; 6476799.713421366 ; 7063587.042648991 ; 1.0693969049049674E9 ; 1.130173926823841E9 ; 0.0
161 ; 6471016.141186984 ; 7063587.042648991 ; 1.075873704618389E9 ; 1.1372375138664901E9 ; 0.0
162 ; 6467295.584538461 ; 7063587.042648991 ; 1.0823447207595758E9 ; 1.1443011009091392E9 ; 0.0
163 ; 6461537.703340028 ; 7063587.042648991 ; 1.0888120163441143E9 ; 1.1513646879517882E9 ; 0.0
164 ; 6452175.957967875 ; 7063587.042648991 ; 1.0952735540474544E9 ; 1.1584282749944372E9 ; 0.0
165 ; 6449487.152273995 ; 7063587.042648991 ; 1.101725730005422E9 ; 1.1654918620370862E9 ; 0.0
166 ; 6444153.939406042 ; 7063587.042648991 ; 1.108175217157696E9 ; 1.1725554490797353E9 ; 0.0
167 ; 6434754.404122482 ; 7063587.042648991 ; 1.1146193710971022E9 ; 1.1796190361223843E9 ; 0.0
168 ; 6432577.35029009 ; 7063587.042648991 ; 1.1210541255012248E9 ; 1.1866826231650333E9 ; 0.0
169 ; 6423720.2273304565 ; 7063587.042648991 ; 1.1274867028515148E9 ; 1.1937462102076824E9 ; 0.0
170 ; 6418976.904308837 ; 7063587.042648991 ; 1.1339104230788453E9 ; 1.2008097972503314E9 ; 0.0
171 ; 6413562.4507364575 ; 7063587.042648991 ; 1.140329399983154E9 ; 1.2078733842929804E9 ; 0.0
172 ; 6405715.63430016 ; 7063587.042648991 ; 1.1467429624338906E9 ; 1.2149369713356295E9 ; 0.0
173 ; 6402441.506856963 ; 7063587.042648991 ; 1.1531486780681908E9 ; 1.2220005583782785E9 ; 0.0
174 ; 6398193.00568111 ; 7063587.042648991 ; 1.1595511195750477E9 ; 1.2290641454209275E9 ; 0.0
175 ; 6394455.419780323 ; 7063587.042648991 ; 1.1659493125807288E9 ; 1.2361277324635766E9 ; 0.0
176 ; 6389981.026067146 ; 7063587.042648991 ; 1.172343768000509E9 ; 1.2431913195062256E9 ; 0.0
177 ; 6386137.238938831 ; 7063587.042648991 ; 1.1787337490265763E9 ; 1.2502549065488746E9 ; 0.0
178 ; 6383686.652242382 ; 7063587.042648991 ; 1.185119886265515E9 ; 1.2573184935915236E9 ; 0.0
179 ; 6378438.667023136 ; 7063587.042648991 ; 1.1915035729177575E9 ; 1.2643820806341727E9 ; 0.0
180 ; 6376779.45122529 ; 7063587.042648991 ; 1.1978820115847807E9 ; 1.2714456676768217E9 ; 0.0
181 ; 6372555.808535071 ; 7063587.042648991 ; 1.204258791036006E9 ; 1.2785092547194707E9 ; 0.0
182 ; 6369858.8574509835 ; 7063587.042648991 ; 1.210631346844541E9 ; 1.2855728417621198E9 ; 0.0
183 ; 6365768.687181778 ; 7063587.042648991 ; 1.217001205701992E9 ; 1.2926364288047688E9 ; 0.0
184 ; 6358933.9326862935 ; 7063587.042648991 ; 1.2233669743891737E9 ; 1.2997000158474178E9 ; 0.0
185 ; 6358363.941285664 ; 7063587.042648991 ; 1.22972590832186E9 ; 1.3067636028900669E9 ; 0.0
186 ; 6355293.242331231 ; 7063587.042648991 ; 1.2360842722631457E9 ; 1.313827189932716E9 ; 0.0
187 ; 6351303.810889836 ; 7063587.042648991 ; 1.242439565505477E9 ; 1.320890776975365E9 ; 0.0
188 ; 6347657.9483872065 ; 7063587.042648991 ; 1.2487908693163667E9 ; 1.327954364018014E9 ; 0.0
189 ; 6341293.358070264 ; 7063587.042648991 ; 1.2551385272647538E9 ; 1.335017951060663E9 ; 0.0
190 ; 6338965.51311369 ; 7063587.042648991 ; 1.2614798206228242E9 ; 1.342081538103312E9 ; 0.0
191 ; 6337061.294957551 ; 7063587.042648991 ; 1.267818786135938E9 ; 1.349145125145961E9 ; 0.0
192 ; 6335302.837349595 ; 7063587.042648991 ; 1.2741558474308956E9 ; 1.35620871218861E9 ; 0.0
193 ; 6328999.361978704 ; 7063587.042648991 ; 1.2804911502682452E9 ; 1.363272299231259E9 ; 0.0
194 ; 6325469.625965441 ; 7063587.042648991 ; 1.286820149630224E9 ; 1.3703358862739081E9 ; 0.0
195 ; 6321936.538811407 ; 7063587.042648991 ; 1.2931456192561893E9 ; 1.3773994733165572E9 ; 0.0
196 ; 6320737.516351843 ; 7063587.042648991 ; 1.2994675557950008E9 ; 1.3844630603592062E9 ; 0.0
197 ; 6316224.707725406 ; 7063587.042648991 ; 1.3057882933113527E9 ; 1.3915266474018552E9 ; 0.0
198 ; 6310394.613691677 ; 7063587.042648991 ; 1.3121045180190783E9 ; 1.3985902344445043E9 ; 0.0
199 ; 6307780.031390665 ; 7063587.042648991 ; 1.3184149126327698E9 ; 1.4056538214871533E9 ; 0.0
200 ; 6305385.967340906 ; 7063587.042648991 ; 1.3247226926641605E9 ; 1.4127174085298023E9 ; 0.0
201 ; 6303592.18377175 ; 7063587.042648991 ; 1.3310280786315014E9 ; 1.4197809955724514E9 ; 0.0
202 ; 6297963.979065087 ; 7063587.042648991 ; 1.3373316708152733E9 ; 1.4268445826151004E9 ; 0.0
203 ; 6291970.673908652 ; 7063587.042648991 ; 1.3436296347943385E9 ; 1.4339081696577494E9 ; 0.0
204 ; 6291516.360234486 ; 7063587.042648991 ; 1.3499216054682472E9 ; 1.4409717567003984E9 ; 0.0
205 ; 6286810.435703775 ; 7063587.042648991 ; 1.3562131218284817E9 ; 1.4480353437430475E9 ; 0.0
206 ; 6284326.021470021 ; 7063587.042648991 ; 1.3624999322641854E9 ; 1.4550989307856965E9 ; 0.0
207 ; 6281293.314600906 ; 7063587.042648991 ; 1.3687842582856555E9 ; 1.4621625178283455E9 ; 0.0
208 ; 6275390.974050967 ; 7063587.042648991 ; 1.3750655516002564E9 ; 1.4692261048709946E9 ; 0.0
