CSV File for the City 6 on Day 354
1 - Minute m 
2 - Power Consumed at minute m 
3 - Power Produced at minute m 
4 - Energy Consumed since the beginning of the day 
5 - Energy Produced since the beginning of the day 
6 - Energy Lost since the beginning of the day on lines starting from the city
 
0 ; 1.1156361872614441E7 ; 1.060425143601959E8 ; 0.0 ; 0.0 ; 0.0
1 ; 1.1170827523382166E7 ; 1.0619337186301184E8 ; 1.1156361872614441E7 ; 1.060425143601959E8 ; 0.0
2 ; 1.1182293052946553E7 ; 1.0665322358023712E8 ; 2.2327189395996608E7 ; 2.1223588622320774E8 ; 0.0
3 ; 1.1197610263524625E7 ; 1.0742207352097195E8 ; 3.350948244894316E7 ; 3.1888910980344486E8 ; 0.0
4 ; 1.1215781886506654E7 ; 1.0849992528244275E8 ; 4.470709271246779E7 ; 4.263111833244168E8 ; 0.0
5 ; 1.12319055874374E7 ; 1.0988678202860534E8 ; 5.5922874598974444E7 ; 5.3481110860685956E8 ; 0.0
6 ; 1.1254249319720564E7 ; 1.1158264647093692E8 ; 6.715478018641184E7 ; 6.446978906354649E8 ; 0.0
7 ; 1.1294880862368451E7 ; 1.1358752085168403E8 ; 7.840902950613241E7 ; 7.562805371064018E8 ; 0.0
8 ; 1.1348728981879199E7 ; 1.1590140692980558E8 ; 8.970391036850086E7 ; 8.698680579580858E8 ; 0.0
9 ; 1.1429157612160722E7 ; 1.185243059698168E8 ; 1.0105263935038006E8 ; 9.857694648878913E8 ; 0.0
10 ; 1.1552402026964307E7 ; 1.2145621873369783E8 ; 1.1248179696254079E8 ; 1.104293770857708E9 ; 0.0
11 ; 1.1754287842373323E7 ; 1.2469714547598967E8 ; 1.240341989895051E8 ; 1.2257499895914059E9 ; 0.0
12 ; 1.2067487474123634E7 ; 1.2824708594215128E8 ; 1.3578848683187842E8 ; 1.3504471350673954E9 ; 0.0
13 ; 1.2373016663243992E7 ; 1.3210603937020254E8 ; 1.4785597430600205E8 ; 1.4786942210095468E9 ; 0.0
14 ; 1.2409900796340467E7 ; 1.362740044956283E8 ; 1.6022899096924603E8 ; 1.6108002603797493E9 ; 0.0
15 ; 1.2422629228948653E7 ; 1.4075097955946952E8 ; 1.726388917655865E8 ; 1.7470742648753777E9 ; 0.0
16 ; 1.2436149729382979E7 ; 1.455369623194798E8 ; 1.8506152099453515E8 ; 1.887825244434847E9 ; 0.0
17 ; 1.2450694762829142E7 ; 1.5063195006418183E8 ; 1.9749767072391814E8 ; 2.0333622067543268E9 ; 0.0
18 ; 1.2465253869279254E7 ; 1.5603593962961984E8 ; 2.099483654867473E8 ; 2.1839941568185086E9 ; 0.0
19 ; 1.2481650045039607E7 ; 1.617489274185674E8 ; 2.2241361935602656E8 ; 2.3400300964481287E9 ; 0.0
20 ; 1.2494476123449301E7 ; 1.6777090942192426E8 ; 2.3489526940106615E8 ; 2.501779023866696E9 ; 0.0
21 ; 1.2508740646699607E7 ; 1.7410188124201253E8 ; 2.4738974552451545E8 ; 2.66954993328862E9 ; 0.0
22 ; 1.252443627910105E7 ; 1.8074183811746794E8 ; 2.5989848617121506E8 ; 2.8436518145306325E9 ; 0.0
23 ; 1.2540372604180885E7 ; 1.8769077494941443E8 ; 2.7242292245031613E8 ; 3.0243936526481004E9 ; 0.0
24 ; 1.2555490883576728E7 ; 1.949486863286069E8 ; 2.84963295054497E8 ; 3.2120844275975146E9 ; 0.0
25 ; 1.2567970419968544E7 ; 2.0120360746141696E8 ; 2.9751878593807375E8 ; 3.4070331139261217E9 ; 0.0
26 ; 1.2582905850890856E7 ; 2.0120908023489052E8 ; 3.100867563580423E8 ; 3.608236721387539E9 ; 0.0
27 ; 1.2599865982547782E7 ; 2.0121486776988763E8 ; 3.226696622089332E8 ; 3.8094458016224294E9 ; 0.0
28 ; 1.2609660170344176E7 ; 2.0122096369590083E8 ; 3.3526952819148093E8 ; 4.010660669392317E9 ; 0.0
29 ; 1.2625570305101406E7 ; 2.012273614719127E8 ; 3.478791883618251E8 ; 4.2118816330882177E9 ; 0.0
30 ; 1.2639082238017678E7 ; 2.0123405441335556E8 ; 3.605047586669265E8 ; 4.41310899456013E9 ; 0.0
31 ; 1.2650676987926846E7 ; 2.0124103571822676E8 ; 3.731438409049442E8 ; 4.614343048973486E9 ; 0.0
32 ; 1.2661101752972636E7 ; 2.012482984921947E8 ; 3.85794517892871E8 ; 4.815584084691712E9 ; 0.0
33 ; 1.267665927118449E7 ; 2.0125583577255768E8 ; 3.984556196458437E8 ; 5.0168323831839075E9 ; 0.0
34 ; 1.2688975362202235E7 ; 2.0126364055094472E8 ; 4.111322789170282E8 ; 5.218088218956465E9 ; 0.0
35 ; 1.2703761621131215E7 ; 2.012717057946742E8 ; 4.238212542792304E8 ; 5.419351859507409E9 ; 0.0
36 ; 1.2714558877512429E7 ; 2.0128002446670842E8 ; 4.3652501590036166E8 ; 5.620623565302083E9 ; 0.0
37 ; 1.2725354342392692E7 ; 2.012885895441673E8 ; 4.492395747778741E8 ; 5.821903589768791E9 ; 0.0
38 ; 1.273657286616998E7 ; 2.0129739403538278E8 ; 4.619649291202668E8 ; 6.023192179312959E9 ; 0.0
39 ; 1.2745030533358451E7 ; 2.013064309954952E8 ; 4.747015019864368E8 ; 6.224489573348342E9 ; 0.0
40 ; 1.275569823713177E7 ; 2.0131569354060885E8 ; 4.8744653251979524E8 ; 6.425796004343837E9 ; 0.0
41 ; 1.2764744323475115E7 ; 2.013251748605369E8 ; 5.00202230756927E8 ; 6.627111697884445E9 ; 0.0
42 ; 1.2771157428864686E7 ; 2.013348682301788E8 ; 5.1296697508040214E8 ; 6.828436872744982E9 ; 0.0
43 ; 1.277828321105982E7 ; 2.013447670195818E8 ; 5.257381325092668E8 ; 7.029771740975161E9 ; 0.0
44 ; 1.2789641378948336E7 ; 2.0135486470274645E8 ; 5.385164157203267E8 ; 7.231116507994742E9 ; 0.0
45 ; 1.2796115121428803E7 ; 2.0136515486524123E8 ; 5.51306057099275E8 ; 7.432471372697489E9 ; 0.0
46 ; 1.2800752351818347E7 ; 2.0137563121069577E8 ; 5.641021722207038E8 ; 7.63383652756273E9 ; 0.0
47 ; 1.2812001665362779E7 ; 2.0138628756624484E8 ; 5.769029245725222E8 ; 7.835212158773426E9 ; 0.0
48 ; 1.281394822951154E7 ; 2.0139711788699603E8 ; 5.89714926237885E8 ; 8.036598446339671E9 ; 0.0
49 ; 1.282041380309196E7 ; 2.0140811625959516E8 ; 6.025288744673965E8 ; 8.237995564226667E9 ; 0.0
50 ; 1.2825447195315033E7 ; 2.0141927690496176E8 ; 6.153492882704885E8 ; 8.439403680486262E9 ; 0.0
51 ; 1.2828334889707876E7 ; 2.0143059418026593E8 ; 6.281747354658035E8 ; 8.640822957391224E9 ; 0.0
52 ; 1.2831959691265356E7 ; 2.014420625802159E8 ; 6.410030703555114E8 ; 8.84225355157149E9 ; 0.0
53 ; 1.2835006001855265E7 ; 2.01453676737722E8 ; 6.538350300467768E8 ; 9.043695614151705E9 ; 0.0
54 ; 1.283902632064776E7 ; 2.0146543142400104E8 ; 6.66670036048632E8 ; 9.245149290889427E9 ; 0.0
55 ; 1.2844804471362567E7 ; 2.0147732154818034E8 ; 6.795090623692797E8 ; 9.446614722313429E9 ; 0.0
56 ; 1.2845246485044742E7 ; 2.014893421564585E8 ; 6.923538668406423E8 ; 9.648092043861609E9 ; 0.0
57 ; 1.2849749227450216E7 ; 2.0150148843087494E8 ; 7.05199113325687E8 ; 9.849581386018066E9 ; 0.0
58 ; 1.284948376877379E7 ; 2.01513755687738E8 ; 7.180488625531373E8 ; 1.0051082874448942E10 ; 0.0
59 ; 1.2859093742197696E7 ; 2.0152613937575647E8 ; 7.308983463219111E8 ; 1.025259663013668E10 ; 0.0
60 ; 1.2856497439411752E7 ; 2.0153863507391694E8 ; 7.437574400641088E8 ; 1.0454122769512438E10 ; 0.0
61 ; 1.2861526604784813E7 ; 2.0155123848914486E8 ; 7.566139375035206E8 ; 1.0655661404586355E10 ; 0.0
62 ; 1.2864081486162664E7 ; 2.015639454537849E8 ; 7.694754641083055E8 ; 1.08572126430755E10 ; 0.0
63 ; 1.2866987348579647E7 ; 2.0157675192293206E8 ; 7.823395455944681E8 ; 1.1058776588529285E10 ; 0.0
64 ; 1.2868745929603405E7 ; 2.0158965397164232E8 ; 7.952065329430478E8 ; 1.1260353340452217E10 ; 0.0
65 ; 1.2869881062203705E7 ; 2.016026477920493E8 ; 8.080752788726512E8 ; 1.1461942994423859E10 ; 0.0
66 ; 1.287317483431848E7 ; 2.0161572969040963E8 ; 8.20945159934855E8 ; 1.1663545642215908E10 ; 0.0
67 ; 1.2876178806981374E7 ; 2.016288960840981E8 ; 8.338183347691735E8 ; 1.1865161371906317E10 ; 0.0
68 ; 1.2878605770337377E7 ; 2.0164214349857104E8 ; 8.466945135761548E8 ; 1.2066790267990416E10 ; 0.0
69 ; 1.2881284144862182E7 ; 2.0165546856431442E8 ; 8.595731193464922E8 ; 1.2268432411488987E10 ; 0.0
70 ; 1.2879363566196984E7 ; 2.016688680137907E8 ; 8.724544034913543E8 ; 1.24700878800533E10 ; 0.0
71 ; 1.2880897224206729E7 ; 2.0168233867839727E8 ; 8.853337670575514E8 ; 1.2671756748067091E10 ; 0.0
72 ; 1.2884829833624117E7 ; 2.016958774854475E8 ; 8.982146642817581E8 ; 1.287343908674549E10 ; 0.0
73 ; 1.288730963296419E7 ; 2.0170948145518354E8 ; 9.110994941153822E8 ; 1.3075134964230936E10 ; 0.0
74 ; 1.2886547509312332E7 ; 2.017231476978292E8 ; 9.239868037483463E8 ; 1.327684444568612E10 ; 0.0
75 ; 1.2889915326448385E7 ; 2.017368734106897E8 ; 9.368733512576587E8 ; 1.3478567593383947E10 ; 0.0
76 ; 1.2886670207386957E7 ; 2.0175065587530428E8 ; 9.497632665841072E8 ; 1.3680304466794638E10 ; 0.0
77 ; 1.2890778288288413E7 ; 2.0176449245465568E8 ; 9.626499367914941E8 ; 1.3882055122669943E10 ; 0.0
78 ; 1.2883413641316181E7 ; 2.0177838059044164E8 ; 9.755407150797825E8 ; 1.40838196151246E10 ; 0.0
79 ; 1.2885551850348292E7 ; 2.0179231780041045E8 ; 9.884241287210987E8 ; 1.428559799571504E10 ; 0.0
80 ; 1.2881216326493751E7 ; 2.0180630167576346E8 ; 1.0013096805714469E9 ; 1.4487390313515451E10 ; 0.0
81 ; 1.2879686562013706E7 ; 2.0182032987862623E8 ; 1.0141908968979406E9 ; 1.4689196615191216E10 ; 0.0
82 ; 1.2874168463040227E7 ; 2.0183440013958976E8 ; 1.0270705834599544E9 ; 1.4891016945069841E10 ; 0.0
83 ; 1.2871144198004512E7 ; 2.018485102553222E8 ; 1.0399447519229946E9 ; 1.509285134520943E10 ; 0.0
84 ; 1.2865991800131526E7 ; 2.0186265808625177E8 ; 1.0528158961209991E9 ; 1.5294699855464752E10 ; 0.0
85 ; 1.286314215167797E7 ; 2.018768415543208E8 ; 1.0656818879211307E9 ; 1.5496562513551004E10 ; 0.0
86 ; 1.2860825191903321E7 ; 2.0189105864081037E8 ; 1.0785450300728087E9 ; 1.5698439355105326E10 ; 0.0
87 ; 1.2855798767268857E7 ; 2.0190530738423502E8 ; 1.091405855264712E9 ; 1.5900330413746136E10 ; 0.0
88 ; 1.285143886632884E7 ; 2.0191958587830725E8 ; 1.104261654031981E9 ; 1.6102235721130371E10 ; 0.0
89 ; 1.2851993502165403E7 ; 2.019338922699699E8 ; 1.11711309289831E9 ; 1.6304155307008678E10 ; 0.0
90 ; 1.2845831332766393E7 ; 2.019482247574959E8 ; 1.1299650864004753E9 ; 1.6506089199278648E10 ; 0.0
91 ; 1.284193852641437E7 ; 2.0196258158865374E8 ; 1.1428109177332416E9 ; 1.6708037424036144E10 ; 0.0
92 ; 1.2835894503403708E7 ; 2.0197696105893764E8 ; 1.155652856259656E9 ; 1.6910000005624798E10 ; 0.0
93 ; 1.2830464711814249E7 ; 2.019913615098603E8 ; 1.1684887507630596E9 ; 1.7111976966683735E10 ; 0.0
94 ; 1.2825668616906578E7 ; 2.020057813273073E8 ; 1.1813192154748738E9 ; 1.7313968328193596E10 ; 0.0
95 ; 1.2822076225629546E7 ; 2.0202021893995097E8 ; 1.1941448840917804E9 ; 1.7515974109520905E10 ; 0.0
96 ; 1.2821369252283718E7 ; 2.020346728177224E8 ; 1.20696696031741E9 ; 1.7717994328460857E10 ; 0.0
97 ; 1.2811830827396818E7 ; 2.0204914147033998E8 ; 1.2197883295696938E9 ; 1.792002900127858E10 ; 0.0
98 ; 1.280612414137491E7 ; 2.020636234458922E8 ; 1.2326001603970907E9 ; 1.812207814274892E10 ; 0.0
99 ; 1.280046910703975E7 ; 2.0207811732947388E8 ; 1.2454062845384655E9 ; 1.8324141766194813E10 ; 0.0
100 ; 1.279760171491963E7 ; 2.0209262174187306E8 ; 1.2582067536455052E9 ; 1.852621988352429E10 ; 0.0
101 ; 1.2791421187312787E7 ; 2.02107135338308E8 ; 1.2710043553604248E9 ; 1.8728312505266163E10 ; 0.0
102 ; 1.2788547791132698E7 ; 2.0212165680721182E8 ; 1.2837957765477376E9 ; 1.893041964060447E10 ; 0.0
103 ; 1.277761111201722E7 ; 2.0213618486906317E8 ; 1.2965843243388703E9 ; 1.9132541297411682E10 ; 0.0
104 ; 1.2777008525284493E7 ; 2.021507182752618E8 ; 1.3093619354508874E9 ; 1.9334677482280746E10 ; 0.0
105 ; 1.2767501309054755E7 ; 2.0216525580704707E8 ; 1.322138943976172E9 ; 1.9536828200556007E10 ; 0.0
106 ; 1.2762761535032006E7 ; 2.0217979627445793E8 ; 1.3349064452852268E9 ; 1.9738993456363056E10 ; 0.0
107 ; 1.2757664081036378E7 ; 2.0219433851533264E8 ; 1.3476692068202589E9 ; 1.9941173252637512E10 ; 0.0
108 ; 1.2748288891388675E7 ; 2.022088813943473E8 ; 1.3604268709012952E9 ; 2.0143367591152843E10 ; 0.0
109 ; 1.2742110234068967E7 ; 2.022234238020912E8 ; 1.3731751597926838E9 ; 2.034557647254719E10 ; 0.0
110 ; 1.2735755678947961E7 ; 2.0223796465417778E8 ; 1.3859172700267527E9 ; 2.054779989634928E10 ; 0.0
111 ; 1.2728865315574253E7 ; 2.0225250289039E8 ; 1.3986530257057006E9 ; 2.075003786100346E10 ; 0.0
112 ; 1.272400087529474E7 ; 2.0226703747385854E8 ; 1.4113818910212748E9 ; 2.095229036389385E10 ; 0.0
113 ; 1.2718090817335974E7 ; 2.0228156739027184E8 ; 1.4241058918965695E9 ; 2.1154557401367706E10 ; 0.0
114 ; 1.270733005258488E7 ; 2.0229609164711633E8 ; 1.4368239827139056E9 ; 2.1356838968757977E10 ; 0.0
115 ; 1.2700882400720736E7 ; 2.0231060927294636E8 ; 1.4495313127664905E9 ; 2.1559135060405094E10 ; 0.0
116 ; 1.26940875508276E7 ; 2.0232511931668168E8 ; 1.4622321951672113E9 ; 2.176144566967804E10 ; 0.0
117 ; 1.2689241186986785E7 ; 2.0233962084693262E8 ; 1.4749262827180388E9 ; 2.196377078899472E10 ; 0.0
118 ; 1.2683114410163576E7 ; 2.0235411295135048E8 ; 1.4876155239050255E9 ; 2.2166110409841652E10 ; 0.0
119 ; 1.2668523369370727E7 ; 2.0236859473600358E8 ; 1.5002986383151891E9 ; 2.2368464522793003E10 ; 0.0
120 ; 1.2663307058276787E7 ; 2.0238306532477653E8 ; 1.5129671616845598E9 ; 2.2570833117529007E10 ; 0.0
121 ; 1.265868847455262E7 ; 2.0239752385879308E8 ; 1.5256304687428367E9 ; 2.2773216182853783E10 ; 0.0
122 ; 1.2650181030770151E7 ; 2.024119694958607E8 ; 1.5382891572173893E9 ; 2.2975613706712574E10 ; 0.0
123 ; 1.2638037131611027E7 ; 2.0242640140993634E8 ; 1.5509393382481594E9 ; 2.3178025676208435E10 ; 0.0
124 ; 1.263321836405345E7 ; 2.024408187906128E8 ; 1.5635773753797705E9 ; 2.338045207761837E10 ; 0.0
125 ; 1.2623984975891149E7 ; 2.0245522084262416E8 ; 1.576210593743824E9 ; 2.358289289640898E10 ; 0.0
126 ; 1.261534362101494E7 ; 2.0246960678537044E8 ; 1.588834578719715E9 ; 2.3785348117251606E10 ; 0.0
127 ; 1.260654759012932E7 ; 2.0248397585245997E8 ; 1.60144992234073E9 ; 2.3987817724036976E10 ; 0.0
128 ; 1.25984902218647E7 ; 2.02498327291269E8 ; 1.6140564699308593E9 ; 2.4190301699889435E10 ; 0.0
129 ; 1.2587236087893968E7 ; 2.025126603625181E8 ; 1.626654960152724E9 ; 2.4392800027180702E10 ; 0.0
130 ; 1.2581097999352422E7 ; 2.0252697433986428E8 ; 1.639242196240618E9 ; 2.459531268754322E10 ; 0.0
131 ; 1.2567261584379267E7 ; 2.0254126850950843E8 ; 1.6518232942399704E9 ; 2.4797839661883083E10 ; 0.0
132 ; 1.2553075718016546E7 ; 2.0255554216981754E8 ; 1.6643905558243496E9 ; 2.5000380930392593E10 ; 0.0
133 ; 1.2540792734557535E7 ; 2.0256979463096082E8 ; 1.6769436315423663E9 ; 2.5202936472562412E10 ; 0.0
134 ; 1.2526937823039627E7 ; 2.0258402521455958E8 ; 1.689484424276924E9 ; 2.5405506267193375E10 ; 0.0
135 ; 1.2512734477739215E7 ; 2.0259823325334978E8 ; 1.7020113620999634E9 ; 2.5608090292407936E10 ; 0.0
136 ; 1.250201414829336E7 ; 2.0261241809085733E8 ; 1.7145240965777025E9 ; 2.5810688525661285E10 ; 0.0
137 ; 1.2485481359120058E7 ; 2.026265790810852E8 ; 1.7270261107259958E9 ; 2.6013300943752144E10 ; 0.0
138 ; 1.2474299814254684E7 ; 2.0264071558821213E8 ; 1.739511592085116E9 ; 2.621592752283323E10 ; 0.0
139 ; 1.2461619519867254E7 ; 2.026548269863022E8 ; 1.7519858918993707E9 ; 2.641856823842144E10 ; 0.0
140 ; 1.2445170236150434E7 ; 2.0266891265902534E8 ; 1.7644475114192379E9 ; 2.662122306540774E10 ; 0.0
141 ; 1.2434161085902318E7 ; 2.026829719993876E8 ; 1.7768926816553884E9 ; 2.682389197806677E10 ; 0.0
142 ; 1.2419851531288574E7 ; 2.026970044094715E8 ; 1.7893268427412906E9 ; 2.7026574950066154E10 ; 0.0
143 ; 1.2405483098978275E7 ; 2.0271100930018586E8 ; 1.8017466942725792E9 ; 2.7229271954475624E10 ; 0.0
144 ; 1.2390237882110238E7 ; 2.027249860910242E8 ; 1.8141521773715575E9 ; 2.743198296377581E10 ; 0.0
145 ; 1.2381166704972237E7 ; 2.0273893420983246E8 ; 1.8265424152536678E9 ; 2.7634707949866833E10 ; 0.0
146 ; 1.2370205307806725E7 ; 2.0275285309258452E8 ; 1.83892358195864E9 ; 2.7837446884076664E10 ; 0.0
147 ; 1.2360888244818432E7 ; 2.027667421831661E8 ; 1.8512937872664468E9 ; 2.8040199737169247E10 ; 0.0
148 ; 1.2347213205912754E7 ; 2.02780600933166E8 ; 1.8636546755112653E9 ; 2.8242966479352413E10 ; 0.0
149 ; 1.2341820269832514E7 ; 2.0279442880167532E8 ; 1.876001888717178E9 ; 2.844574708028558E10 ; 0.0
150 ; 1.2333644621971963E7 ; 2.0280822525509316E8 ; 1.8883437089870107E9 ; 2.8648541509087254E10 ; 0.0
151 ; 1.232025332332596E7 ; 2.028219897669396E8 ; 1.9006773536089826E9 ; 2.8851349734342346E10 ; 0.0
152 ; 1.2313071099019492E7 ; 2.0283572181767517E8 ; 1.9129976069323084E9 ; 2.9054171724109287E10 ; 0.0
153 ; 1.2302354066063445E7 ; 2.028494208945266E8 ; 1.925310678031328E9 ; 2.9257007445926964E10 ; 0.0
154 ; 1.229312407442878E7 ; 2.0286308649131855E8 ; 1.9376130320973914E9 ; 2.945985686682149E10 ; 0.0
155 ; 1.2283617671550123E7 ; 2.0287671810831162E8 ; 1.9499061561718202E9 ; 2.966271995331281E10 ; 0.0
156 ; 1.2271488647833746E7 ; 2.0289031525204554E8 ; 1.9621897738433702E9 ; 2.986559667142112E10 ; 0.0
157 ; 1.2262117726980086E7 ; 2.0290387743518797E8 ; 1.974461262491204E9 ; 3.0068486986673164E10 ; 0.0
158 ; 1.2254918626709167E7 ; 2.029174041763886E8 ; 1.986723380218184E9 ; 3.0271390864108353E10 ; 0.0
159 ; 1.2240871923509447E7 ; 2.0293089500013822E8 ; 1.9989782988448932E9 ; 3.047430826828474E10 ; 0.0
160 ; 1.2233281742872333E7 ; 2.029443494366326E8 ; 2.0112191707684026E9 ; 3.0677239163284878E10 ; 0.0
161 ; 1.2220537613066733E7 ; 2.0295776702164093E8 ; 2.0234524525112748E9 ; 3.088018351272151E10 ; 0.0
162 ; 1.2212998523601692E7 ; 2.0297114729637906E8 ; 2.0356729901243415E9 ; 3.1083141279743153E10 ; 0.0
163 ; 1.2204010531210441E7 ; 2.0298448980738673E8 ; 2.0478859886479433E9 ; 3.128611242703953E10 ; 0.0
164 ; 1.2191127126019496E7 ; 2.0299779410640913E8 ; 2.0600899991791537E9 ; 3.148909691684692E10 ; 0.0
165 ; 1.2177640986054514E7 ; 2.0301105975028247E8 ; 2.0722811263051732E9 ; 3.169209471095333E10 ; 0.0
166 ; 1.217086940223371E7 ; 2.030242863008232E8 ; 2.0844587672912276E9 ; 3.1895105770703613E10 ; 0.0
167 ; 1.216207741044748E7 ; 2.030374733247215E8 ; 2.0966296366934612E9 ; 3.2098130057004436E10 ; 0.0
168 ; 1.2149619080903675E7 ; 2.0305062039343745E8 ; 2.1087917141039088E9 ; 3.230116753032916E10 ; 0.0
169 ; 1.2140090869121745E7 ; 2.030637270831016E8 ; 2.1209413331848125E9 ; 3.2504218150722595E10 ; 0.0
170 ; 1.2129103546841873E7 ; 2.030767929744183E8 ; 2.1330814240539343E9 ; 3.27072818778057E10 ; 0.0
171 ; 1.212036538622363E7 ; 2.0308981765257233E8 ; 2.1452105276007762E9 ; 3.2910358670780117E10 ; 0.0
172 ; 1.21070426930431E7 ; 2.0310280070713878E8 ; 2.157330892987E9 ; 3.311344848843269E10 ; 0.0
173 ; 1.2097110674537743E7 ; 2.0311574173199567E8 ; 2.169437935680043E9 ; 3.3316551289139828E10 ; 0.0
174 ; 1.2090349704916492E7 ; 2.0312864032523972E8 ; 2.181535046354581E9 ; 3.3519667030871822E10 ; 0.0
175 ; 1.2081771261714026E7 ; 2.031414960891047E8 ; 2.1936253960594974E9 ; 3.3722795671197063E10 ; 0.0
176 ; 1.2077385373282773E7 ; 2.031543086298825E8 ; 2.2057071673212113E9 ; 3.3925937167286167E10 ; 0.0
177 ; 1.2072698149757108E7 ; 2.031670775578468E8 ; 2.2177845526944942E9 ; 3.412909147591605E10 ; 0.0
178 ; 1.2065240203112792E7 ; 2.0317980248717925E8 ; 2.229857250844251E9 ; 3.4332258553473896E10 ; 0.0
179 ; 1.2057651137516871E7 ; 2.0319248303589794E8 ; 2.2419224910473638E9 ; 3.4535438355961075E10 ; 0.0
180 ; 1.2048987762204383E7 ; 2.0320511882578835E8 ; 2.2539801421848807E9 ; 3.473863083899697E10 ; 0.0
181 ; 1.2043065839385951E7 ; 2.0321770948233646E8 ; 2.266029129947085E9 ; 3.494183595782276E10 ; 0.0
182 ; 1.2041748263590243E7 ; 2.0323025463466394E8 ; 2.278072195786471E9 ; 3.51450536673051E10 ; 0.0
183 ; 1.2027755653277922E7 ; 2.0324275391546553E8 ; 2.290113944050061E9 ; 3.5348283921939766E10 ; 0.0
184 ; 1.2023973902345827E7 ; 2.032552069609485E8 ; 2.302141699703339E9 ; 3.555152667585523E10 ; 0.0
185 ; 1.2021237165515326E7 ; 2.0326761341077375E8 ; 2.3141656736056848E9 ; 3.575478188281618E10 ; 0.0
186 ; 1.20124399959275E7 ; 2.0327997290799925E8 ; 2.3261869107712E9 ; 3.595804949622695E10 ; 0.0
187 ; 1.200558195898398E7 ; 2.0329228509902474E8 ; 2.3381993507671275E9 ; 3.616132946913495E10 ; 0.0
188 ; 1.199633568161644E7 ; 2.0330454963353875E8 ; 2.3502049327261114E9 ; 3.636462175423397E10 ; 0.0
189 ; 1.199142516851678E7 ; 2.0331676616446686E8 ; 2.3622012684077277E9 ; 3.656792630386751E10 ; 0.0
190 ; 1.1983722608197195E7 ; 2.0332893434792182E8 ; 2.3741926935762444E9 ; 3.6771243070031975E10 ; 0.0
191 ; 1.1975234153901476E7 ; 2.033410538431552E8 ; 2.3861764161844416E9 ; 3.69745720043799E10 ; 0.0
192 ; 1.1970056554105952E7 ; 2.0335312431251058E8 ; 2.398151650338343E9 ; 3.717791305822305E10 ; 0.0
193 ; 1.196603579190502E7 ; 2.0336514542137817E8 ; 2.410121706892449E9 ; 3.738126618253556E10 ; 0.0
194 ; 1.1957990965787714E7 ; 2.0337711683815086E8 ; 2.422087742684354E9 ; 3.758463132795694E10 ; 0.0
195 ; 1.1955217514649015E7 ; 2.0338903823418176E8 ; 2.4340457336501417E9 ; 3.778800844479509E10 ; 0.0
