CSV File for the City 4 on Day 344
1 - Minute m 
2 - Power Consumed at minute m 
3 - Power Produced at minute m 
4 - Energy Consumed since the beginning of the day 
5 - Energy Produced since the beginning of the day 
6 - Energy Lost since the beginning of the day on lines starting from the city
 
0 ; 6840226.341008561 ; 1.0640480344456765E8 ; 0.0 ; 0.0 ; 0.0
1 ; 6847740.112214286 ; 1.0655537489339346E8 ; 6840226.341008561 ; 1.0640480344456765E8 ; 0.0
2 ; 6854066.608623528 ; 1.0701497259680834E8 ; 1.3687966453222847E7 ; 2.129601783379611E8 ; 0.0
3 ; 6862136.362869035 ; 1.0778359995759171E8 ; 2.0542033061846375E7 ; 3.1997515093476945E8 ; 0.0
4 ; 6873056.259155383 ; 1.0886126001695842E8 ; 2.740416942471541E7 ; 4.2775875089236116E8 ; 0.0
5 ; 6883911.717612735 ; 1.1024795544053048E8 ; 3.427722568387079E7 ; 5.366200109093196E8 ; 0.0
6 ; 6900862.086765079 ; 1.1194368850584725E8 ; 4.116113740148353E7 ; 6.4686796634985E8 ; 0.0
7 ; 6922341.481048982 ; 1.1394846109155017E8 ; 4.806199948824861E7 ; 7.588116548556973E8 ; 0.0
8 ; 6956940.99900844 ; 1.162622746683613E8 ; 5.498434096929759E7 ; 8.727601159472475E8 ; 0.0
9 ; 7008988.719147247 ; 1.1888513029195791E8 ; 6.194128196830603E7 ; 9.890223906156088E8 ; 0.0
10 ; 7086573.675067585 ; 1.2181702859782279E8 ; 6.895027068745327E7 ; 1.1079075209075668E9 ; 0.0
11 ; 7208330.171592262 ; 1.2505796979813078E8 ; 7.603684436252086E7 ; 1.2297245495053897E9 ; 0.0
12 ; 7409433.859066999 ; 1.2860795368070701E8 ; 8.324517453411312E7 ; 1.3547825193035204E9 ; 0.0
13 ; 7600227.733136532 ; 1.3246697961006868E8 ; 9.065460839318012E7 ; 1.4833904729842274E9 ; 0.0
14 ; 7619726.445591389 ; 1.3663504653053862E8 ; 9.825483612631665E7 ; 1.615857452594296E9 ; 0.0
15 ; 7628774.994539103 ; 1.4111215297139466E8 ; 1.0587456257190804E8 ; 1.7524924991248345E9 ; 0.0
16 ; 7636571.933469996 ; 1.4589829705399546E8 ; 1.1350333756644714E8 ; 1.893604652096229E9 ; 0.0
17 ; 7648345.875112696 ; 1.509934765008016E8 ; 1.2113990949991713E8 ; 2.0395029491502244E9 ; 0.0
18 ; 7657586.4155447865 ; 1.5639768864619106E8 ; 1.2878825537502983E8 ; 2.1904964256510262E9 ; 0.0
19 ; 7665714.9961654935 ; 1.62110930448949E8 ; 1.364458417905746E8 ; 2.3468941142972174E9 ; 0.0
20 ; 7674318.54900527 ; 1.68133198506296E8 ; 1.441115567867401E8 ; 2.509005044746166E9 ; 0.0
21 ; 7681562.8855936285 ; 1.7446448906930652E8 ; 1.5178587533574536E8 ; 2.6771382432524624E9 ; 0.0
22 ; 7693373.887758936 ; 1.811047980595579E8 ; 1.59467438221339E8 ; 2.8516027323217688E9 ; 0.0
23 ; 7701220.527821199 ; 1.880541210868426E8 ; 1.6716081210909793E8 ; 3.0327075303813267E9 ; 0.0
24 ; 7707838.581106364 ; 1.9531245346777135E8 ; 1.7486203263691914E8 ; 3.220761651468169E9 ; 0.0
25 ; 7719194.058477355 ; 2.0156783114327788E8 ; 1.825698712180255E8 ; 3.4160741049359407E9 ; 0.0
26 ; 7730043.027322953 ; 2.015737967353795E8 ; 1.9028906527650285E8 ; 3.617641936079219E9 ; 0.0
27 ; 7736845.9566360405 ; 2.0158011409231898E8 ; 1.980191083038258E8 ; 3.8192157328145986E9 ; 0.0
28 ; 7745344.566031123 ; 2.0158677755578497E8 ; 2.0575595426046184E8 ; 4.0207958469069176E9 ; 0.0
29 ; 7754135.693399576 ; 2.015937812746569E8 ; 2.1350129882649297E8 ; 4.2223826244627028E9 ; 0.0
30 ; 7762301.253770505 ; 2.0160111922540894E8 ; 2.2125543451989254E8 ; 4.42397640573736E9 ; 0.0
31 ; 7771953.416740157 ; 2.0160878523228014E8 ; 2.2901773577366304E8 ; 4.625577524962769E9 ; 0.0
32 ; 7780394.3072644565 ; 2.0161677298708555E8 ; 2.367896891904032E8 ; 4.827186310195048E9 ; 0.0
33 ; 7783949.780745757 ; 2.0162507606855485E8 ; 2.4457008349766764E8 ; 5.028803083182134E9 ; 0.0
34 ; 7795397.69922751 ; 2.0163368796109802E8 ; 2.523540332784134E8 ; 5.230428159250689E9 ; 0.0
35 ; 7802107.497806649 ; 2.0164260207291174E8 ; 2.601494309776409E8 ; 5.432061847211786E9 ; 0.0
36 ; 7811664.937911922 ; 2.016518117533519E8 ; 2.6795153847544754E8 ; 5.6337044492846985E9 ; 0.0
37 ; 7816695.132280207 ; 2.016613103095119E8 ; 2.7576320341335946E8 ; 5.835356261038051E9 ; 0.0
38 ; 7823517.030899087 ; 2.016710910219581E8 ; 2.835798985456397E8 ; 6.037017571347563E9 ; 0.0
39 ; 7828453.099094651 ; 2.0168114715958628E8 ; 2.914034155765388E8 ; 6.238688662369521E9 ; 0.0
40 ; 7836759.30597468 ; 2.0169147199357325E8 ; 2.9923186867563343E8 ; 6.440369809529107E9 ; 0.0
41 ; 7843675.302957901 ; 2.017020588104093E8 ; 3.070686279816081E8 ; 6.64206128152268E9 ; 0.0
42 ; 7845462.928334801 ; 2.0171290092400566E8 ; 3.14912303284566E8 ; 6.84376334033309E9 ; 0.0
43 ; 7852516.403946525 ; 2.0172399168687984E8 ; 3.2275776621290076E8 ; 7.045476241257095E9 ; 0.0
44 ; 7857888.878444394 ; 2.0173532450043002E8 ; 3.306102826168473E8 ; 7.247200232943975E9 ; 0.0
45 ; 7862126.823236738 ; 2.0174689282431486E8 ; 3.3846817149529165E8 ; 7.448935557444406E9 ; 0.0
46 ; 7864666.63642547 ; 2.0175869018496242E8 ; 3.463302983185284E8 ; 7.650682450268721E9 ; 0.0
47 ; 7866840.376802506 ; 2.017707101832353E8 ; 3.541949649549539E8 ; 7.852441140453683E9 ; 0.0
48 ; 7874398.128513688 ; 2.017829465012835E8 ; 3.620618053317564E8 ; 8.054211850636918E9 ; 0.0
49 ; 7878771.343268652 ; 2.0179539290862054E8 ; 3.699362034602701E8 ; 8.255994797138202E9 ; 0.0
50 ; 7879726.409665985 ; 2.018080432674586E8 ; 3.7781497480353874E8 ; 8.457790190046823E9 ; 0.0
51 ; 7882002.015583862 ; 2.0182089153734285E8 ; 3.8569470121320474E8 ; 8.659598233314281E9 ; 0.0
52 ; 7885318.316830902 ; 2.0183393177912405E8 ; 3.935767032287886E8 ; 8.861419124851624E9 ; 0.0
53 ; 7884607.3376565045 ; 2.0184715815831032E8 ; 4.014620215456195E8 ; 9.063253056630747E9 ; 0.0
54 ; 7891022.957866169 ; 2.0186056494783863E8 ; 4.09346628883276E8 ; 9.265100214789057E9 ; 0.0
55 ; 7891589.309368228 ; 2.0187414653030652E8 ; 4.172376518411422E8 ; 9.466960779736895E9 ; 0.0
56 ; 7892459.370090958 ; 2.0188789739970365E8 ; 4.2512924115051043E8 ; 9.6688349262672E9 ; 0.0
57 ; 7895247.03121816 ; 2.01901812162682E8 ; 4.330217005206014E8 ; 9.870722823666904E9 ; 0.0
58 ; 7895583.855839449 ; 2.0191588553940237E8 ; 4.4091694755181956E8 ; 1.0072624635829586E10 ; 0.0
59 ; 7898212.122675735 ; 2.019301123639935E8 ; 4.48812531407659E8 ; 1.0274540521368988E10 ; 0.0
60 ; 7900595.675185688 ; 2.0194448758465856E8 ; 4.567107435303347E8 ; 1.047647063373298E10 ; 0.0
61 ; 7904644.775642785 ; 2.0195900626346204E8 ; 4.646113392055204E8 ; 1.0678415121317638E10 ; 0.0
62 ; 7903880.621224438 ; 2.019736635758284E8 ; 4.725159839811632E8 ; 1.08803741275811E10 ; 0.0
63 ; 7907609.892441567 ; 2.0198845480978277E8 ; 4.8041986460238767E8 ; 1.1082347791156929E10 ; 0.0
64 ; 7910509.130092839 ; 2.020033753649607E8 ; 4.8832747449482924E8 ; 1.1284336245966711E10 ; 0.0
65 ; 7909770.938083781 ; 2.0201842075141382E8 ; 4.962379836249221E8 ; 1.1486339621331673E10 ; 0.0
66 ; 7911184.511741136 ; 2.020335865882356E8 ; 5.0414775456300586E8 ; 1.1688358042083086E10 ; 0.0
67 ; 7911829.889083353 ; 2.0204886860202965E8 ; 5.12058939074747E8 ; 1.1890391628671322E10 ; 0.0
68 ; 7914236.9629314095 ; 2.0206426262524232E8 ; 5.1997076896383035E8 ; 1.2092440497273352E10 ; 0.0
69 ; 7915729.379447475 ; 2.0207976459437785E8 ; 5.2788500592676175E8 ; 1.2294504759898594E10 ; 0.0
70 ; 7917775.0226840535 ; 2.0209537054811513E8 ; 5.358007353062092E8 ; 1.2496584524492971E10 ; 0.0
71 ; 7918470.870520394 ; 2.0211107662534162E8 ; 5.437185103288933E8 ; 1.2698679895041086E10 ; 0.0
72 ; 7916193.334271895 ; 2.021268790631198E8 ; 5.516369811994137E8 ; 1.2900790971666428E10 ; 0.0
73 ; 7919089.922458334 ; 2.0214277419459957E8 ; 5.595531745336856E8 ; 1.3102917850729548E10 ; 0.0
74 ; 7920487.769945355 ; 2.0215875844688928E8 ; 5.674722644561439E8 ; 1.3305060624924147E10 ; 0.0
75 ; 7923104.471871947 ; 2.0217482833889621E8 ; 5.753927522260892E8 ; 1.3507219383371037E10 ; 0.0
76 ; 7923826.430502651 ; 2.021909804791469E8 ; 5.833158566979612E8 ; 1.3709394211709932E10 ; 0.0
77 ; 7921621.92967735 ; 2.0220721156359634E8 ; 5.912396831284639E8 ; 1.391158519218908E10 ; 0.0
78 ; 7920983.541028767 ; 2.02223518373434E8 ; 5.991613050581412E8 ; 1.4113792403752676E10 ; 0.0
79 ; 7921449.962525403 ; 2.0223989777289417E8 ; 6.0708228859917E8 ; 1.431601592212611E10 ; 0.0
80 ; 7918615.098430357 ; 2.0225634670707676E8 ; 6.150037385616953E8 ; 1.4518255819899004E10 ; 0.0
81 ; 7919324.5167009765 ; 2.0227286219978446E8 ; 6.229223536601257E8 ; 1.4720512166606081E10 ; 0.0
82 ; 7914698.078652115 ; 2.022894413513811E8 ; 6.308416781768267E8 ; 1.4922785028805866E10 ; 0.0
83 ; 7914897.038566608 ; 2.0230608133667558E8 ; 6.387563762554789E8 ; 1.5125074470157248E10 ; 0.0
84 ; 7910545.347526414 ; 2.023227794028351E8 ; 6.466712732940454E8 ; 1.5327380551493923E10 ; 0.0
85 ; 7911180.455522204 ; 2.023395328673309E8 ; 6.545818186415719E8 ; 1.5529703330896759E10 ; 0.0
86 ; 7908530.939462192 ; 2.0235633911591938E8 ; 6.62492999097094E8 ; 1.573204286376409E10 ; 0.0
87 ; 7907691.343594685 ; 2.0237319560066065E8 ; 6.704015300365562E8 ; 1.5934399202880009E10 ; 0.0
88 ; 7902718.332147598 ; 2.023900998379768E8 ; 6.783092213801509E8 ; 1.6136772398480669E10 ; 0.0
89 ; 7897731.355921491 ; 2.0240704940675092E8 ; 6.862119397122985E8 ; 1.6339162498318645E10 ; 0.0
90 ; 7900890.556761598 ; 2.0242404194646868E8 ; 6.9410967106822E8 ; 1.6541569547725397E10 ; 0.0
91 ; 7895030.448238798 ; 2.02441075155403E8 ; 7.020105616249816E8 ; 1.6743993589671865E10 ; 0.0
92 ; 7892502.704440725 ; 2.024581467888425E8 ; 7.099055920732205E8 ; 1.6946434664827269E10 ; 0.0
93 ; 7892780.241080346 ; 2.0247525465736464E8 ; 7.177980947776612E8 ; 1.7148892811616112E10 ; 0.0
94 ; 7888508.411494636 ; 2.0249239662515312E8 ; 7.256908750187416E8 ; 1.7351368066273476E10 ; 0.0
95 ; 7886645.045674954 ; 2.0250957060836017E8 ; 7.335793834302362E8 ; 1.755386046289863E10 ; 0.0
96 ; 7881267.511213304 ; 2.0252677457351327E8 ; 7.414660284759111E8 ; 1.775637003350699E10 ; 0.0
97 ; 7878941.169706236 ; 2.025440065359664E8 ; 7.493472959871244E8 ; 1.79588968080805E10 ; 0.0
98 ; 7878250.002047881 ; 2.0256126455839506E8 ; 7.572262371568307E8 ; 1.8161440814616467E10 ; 0.0
99 ; 7873121.153076329 ; 2.02578546749335E8 ; 7.651044871588786E8 ; 1.8364002079174862E10 ; 0.0
100 ; 7868410.088250178 ; 2.0259585126176384E8 ; 7.729776083119549E8 ; 1.85665806259242E10 ; 0.0
101 ; 7865845.08245111 ; 2.0261317629172507E8 ; 7.80846018400205E8 ; 1.8769176477185963E10 ; 0.0
102 ; 7863380.081906983 ; 2.0263052007699355E8 ; 7.887118634826561E8 ; 1.8971789653477688E10 ; 0.0
103 ; 7861070.1414928585 ; 2.0264788089578205E8 ; 7.965752435645632E8 ; 1.917442017355468E10 ; 0.0
104 ; 7854332.687835406 ; 2.0266525706548783E8 ; 8.04436313706056E8 ; 1.9377068054450462E10 ; 0.0
105 ; 7853709.586997892 ; 2.0268264694147837E8 ; 8.122906463938915E8 ; 1.957973331151595E10 ; 0.0
106 ; 7850011.41606655 ; 2.0270004891591546E8 ; 8.201443559808893E8 ; 1.9782415958457428E10 ; 0.0
107 ; 7847113.4455759395 ; 2.027174614166169E8 ; 8.279943673969558E8 ; 1.9985116007373344E10 ; 0.0
108 ; 7844502.856623827 ; 2.0273488290595442E8 ; 8.358414808425318E8 ; 2.0187833468789963E10 ; 0.0
109 ; 7840777.922533446 ; 2.0275231187978768E8 ; 8.436859836991556E8 ; 2.039056835169592E10 ; 0.0
110 ; 7834940.088127396 ; 2.0276974686643246E8 ; 8.51526761621689E8 ; 2.0593320663575706E10 ; 0.0
111 ; 7833439.836789897 ; 2.0278718642566288E8 ; 8.593617017098163E8 ; 2.079609041044214E10 ; 0.0
112 ; 7826738.860541436 ; 2.0280462914774632E8 ; 8.671951415466062E8 ; 2.09988775968678E10 ; 0.0
113 ; 7823138.8809567895 ; 2.0282207365251037E8 ; 8.750218804071476E8 ; 2.120168222601555E10 ; 0.0
114 ; 7819437.172633691 ; 2.0283951858844048E8 ; 8.828450192881044E8 ; 2.140450429966806E10 ; 0.0
115 ; 7816418.176778224 ; 2.0285696263180774E8 ; 8.906644564607381E8 ; 2.16073438182565E10 ; 0.0
116 ; 7812193.736442436 ; 2.028744044858259E8 ; 8.984808746375163E8 ; 2.181020078088831E10 ; 0.0
117 ; 7808012.987304992 ; 2.028918428798364E8 ; 9.062930683739587E8 ; 2.2013075185374134E10 ; 0.0
118 ; 7803140.36603323 ; 2.029092765685211E8 ; 9.141010813612638E8 ; 2.221596702825397E10 ; 0.0
119 ; 7801107.595038675 ; 2.0292670433114097E8 ; 9.21904221727297E8 ; 2.241887630482249E10 ; 0.0
120 ; 7796456.831372469 ; 2.0294412497080097E8 ; 9.297053293223356E8 ; 2.2621803009153633E10 ; 0.0
121 ; 7788987.778925923 ; 2.029615373137395E8 ; 9.375017861537081E8 ; 2.2824747134124435E10 ; 0.0
122 ; 7785257.953115307 ; 2.029789402086418E8 ; 9.45290773932634E8 ; 2.3027708671438175E10 ; 0.0
123 ; 7780915.070029628 ; 2.0299633252597678E8 ; 9.530760318857493E8 ; 2.3230687611646816E10 ; 0.0
124 ; 7775168.970250086 ; 2.0301371315735617E8 ; 9.60856946955779E8 ; 2.3433683944172794E10 ; 0.0
125 ; 7772152.549704773 ; 2.0303108101491544E8 ; 9.686321159260291E8 ; 2.363669765733015E10 ; 0.0
126 ; 7765553.2662576595 ; 2.0304843503071564E8 ; 9.764042684757339E8 ; 2.3839728738345066E10 ; 0.0
127 ; 7758929.421562514 ; 2.030657741561657E8 ; 9.841698217419915E8 ; 2.4042777173375782E10 ; 0.0
128 ; 7755436.674456417 ; 2.0308309736146405E8 ; 9.919287511635541E8 ; 2.4245842947531948E10 ; 0.0
129 ; 7753187.460440241 ; 2.0310040363505945E8 ; 9.996841878380104E8 ; 2.4448926044893414E10 ; 0.0
130 ; 7745564.431942209 ; 2.0311769198312986E8 ; 1.0074373752984507E9 ; 2.4652026448528473E10 ; 0.0
131 ; 7736091.326676003 ; 2.031349614290791E8 ; 1.0151829397303929E9 ; 2.4855144140511604E10 ; 0.0
132 ; 7726653.423133317 ; 2.0315221101305047E8 ; 1.022919031057069E9 ; 2.5058279101940685E10 ; 0.0
133 ; 7721188.444413378 ; 2.0316943979145703E8 ; 1.0306456844802023E9 ; 2.5261431312953735E10 ; 0.0
134 ; 7714184.840072731 ; 2.0318664683652738E8 ; 1.0383668729246157E9 ; 2.5464600752745193E10 ; 0.0
135 ; 7704498.858324518 ; 2.0320383123586705E8 ; 1.0460810577646885E9 ; 2.5667787399581722E10 ; 0.0
136 ; 7697294.0829006005 ; 2.032209920920348E8 ; 1.053785556623013E9 ; 2.587099123081759E10 ; 0.0
137 ; 7690294.7282884205 ; 2.0323812852213266E8 ; 1.0614828507059137E9 ; 2.6074212222909622E10 ; 0.0
138 ; 7682542.407687046 ; 2.032552396574105E8 ; 1.0691731454342021E9 ; 2.6277450351431755E10 ; 0.0
139 ; 7672462.934999931 ; 2.0327232464288327E8 ; 1.0768556878418891E9 ; 2.6480705591089165E10 ; 0.0
140 ; 7666858.774097954 ; 2.0328938263696137E8 ; 1.084528150776889E9 ; 2.6683977915732048E10 ; 0.0
141 ; 7656163.175177617 ; 2.033064128110934E8 ; 1.092195009550987E9 ; 2.688726729836901E10 ; 0.0
142 ; 7645752.347557047 ; 2.0332341434942067E8 ; 1.0998511727261646E9 ; 2.7090573711180103E10 ; 0.0
143 ; 7639731.959098468 ; 2.0334038644844356E8 ; 1.1074969250737216E9 ; 2.7293897125529526E10 ; 0.0
144 ; 7633086.578324208 ; 2.0335732831669867E8 ; 1.1151366570328202E9 ; 2.749723751197797E10 ; 0.0
145 ; 7627716.631357415 ; 2.033742391744469E8 ; 1.1227697436111445E9 ; 2.770059484029467E10 ; 0.0
146 ; 7621741.687033106 ; 2.0339111825337183E8 ; 1.130397460242502E9 ; 2.7903969079469116E10 ; 0.0
147 ; 7616245.737376792 ; 2.0340796479628816E8 ; 1.1380192019295352E9 ; 2.810736019772249E10 ; 0.0
148 ; 7609096.321672921 ; 2.034247780568596E8 ; 1.1456354476669118E9 ; 2.8310768162518776E10 ; 0.0
149 ; 7607340.3431596905 ; 2.0344155729932642E8 ; 1.1532445439885848E9 ; 2.8514192940575634E10 ; 0.0
150 ; 7598109.64623882 ; 2.0345830179824153E8 ; 1.1608518843317444E9 ; 2.871763449787496E10 ; 0.0
151 ; 7591989.551533055 ; 2.034750108382156E8 ; 1.1684499939779832E9 ; 2.8921092799673203E10 ; 0.0
152 ; 7586967.264307599 ; 2.034916837136704E8 ; 1.1760419835295162E9 ; 2.9124567810511417E10 ; 0.0
153 ; 7581838.232760489 ; 2.035083197286002E8 ; 1.1836289507938237E9 ; 2.9328059494225086E10 ; 0.0
154 ; 7577141.0665120585 ; 2.035249181963409E8 ; 1.1912107890265841E9 ; 2.9531567813953686E10 ; 0.0
155 ; 7569025.906350259 ; 2.0354147843934685E8 ; 1.1987879300930963E9 ; 2.973509273215003E10 ; 0.0
156 ; 7563935.0088579515 ; 2.0355799978897482E8 ; 1.2063569559994466E9 ; 2.9938634210589375E10 ; 0.0
157 ; 7557072.601773513 ; 2.0357448158527496E8 ; 1.2139208910083046E9 ; 3.014219221037835E10 ; 0.0
158 ; 7553520.909687014 ; 2.0359092317678854E8 ; 1.221477963610078E9 ; 3.0345766691963623E10 ; 0.0
159 ; 7543364.134758455 ; 2.0360732392035222E8 ; 1.2290314845197651E9 ; 3.054935761514041E10 ; 0.0
160 ; 7539371.018832373 ; 2.0362368318090877E8 ; 1.2365748486545236E9 ; 3.0752964939060764E10 ; 0.0
161 ; 7533983.889269851 ; 2.036400003313235E8 ; 1.244114219673356E9 ; 3.0956588622241673E10 ; 0.0
162 ; 7528948.13711222 ; 2.03656274752207E8 ; 1.251648203562626E9 ; 3.1160228622572994E10 ; 0.0
163 ; 7522002.787701503 ; 2.0367250583174333E8 ; 1.259177151699738E9 ; 3.1363884897325203E10 ; 0.0
164 ; 7518703.735726671 ; 2.0368869296552363E8 ; 1.2666991544874396E9 ; 3.1567557403156948E10 ; 0.0
165 ; 7511169.199435619 ; 2.0370483555638513E8 ; 1.2742178582231662E9 ; 3.177124609612247E10 ; 0.0
166 ; 7504032.615464277 ; 2.0372093301425543E8 ; 1.281729027422602E9 ; 3.1974950931678856E10 ; 0.0
167 ; 7497563.101444812 ; 2.037369847560013E8 ; 1.2892330600380661E9 ; 3.217867186469311E10 ; 0.0
168 ; 7492317.445907123 ; 2.037529902052826E8 ; 1.2967306231395109E9 ; 3.2382408849449112E10 ; 0.0
169 ; 7485268.4063838385 ; 2.0376894879241082E8 ; 1.304222940585418E9 ; 3.2586161839654396E10 ; 0.0
170 ; 7476875.807459988 ; 2.037848599542117E8 ; 1.3117082089918017E9 ; 3.2789930788446808E10 ; 0.0
171 ; 7473122.036212818 ; 2.038007231338927E8 ; 1.3191850847992618E9 ; 3.299371564840102E10 ; 0.0
172 ; 7466832.4121956155 ; 2.0381653778091404E8 ; 1.3266582068354747E9 ; 3.3197516371534912E10 ; 0.0
173 ; 7464492.031663057 ; 2.0383230335086432E8 ; 1.3341250392476704E9 ; 3.3401332909315826E10 ; 0.0
174 ; 7454995.595803241 ; 2.0384801930533957E8 ; 1.3415895312793334E9 ; 3.360516521266669E10 ; 0.0
175 ; 7450728.975404484 ; 2.0386368511182636E8 ; 1.3490445268751366E9 ; 3.380901323197203E10 ; 0.0
176 ; 7450005.188590396 ; 2.0387930024358833E8 ; 1.356495255850541E9 ; 3.401287691708386E10 ; 0.0
177 ; 7442496.069254101 ; 2.038948641795564E8 ; 1.3639452610391314E9 ; 3.4216756217327446E10 ; 0.0
178 ; 7442141.349836663 ; 2.039103764042222E8 ; 1.3713877571083856E9 ; 3.4420651081507E10 ; 0.0
179 ; 7437146.051897621 ; 2.0392583640753496E8 ; 1.3788298984582222E9 ; 3.4624561457911224E10 ; 0.0
180 ; 7433856.3625856405 ; 2.0394124368480137E8 ; 1.3862670445101197E9 ; 3.4828487294318756E10 ; 0.0
181 ; 7428490.668207195 ; 2.0395659773658878E8 ; 1.3937009008727052E9 ; 3.5032428538003555E10 ; 0.0
182 ; 7424487.468021902 ; 2.0397189806863102E8 ; 1.4011293915409124E9 ; 3.523638513574014E10 ; 0.0
183 ; 7419481.566501336 ; 2.0398714419173738E8 ; 1.4085538790089343E9 ; 3.544035703380878E10 ; 0.0
184 ; 7417285.834440094 ; 2.0400233562170425E8 ; 1.4159733605754356E9 ; 3.564434417800051E10 ; 0.0
185 ; 7414959.566627689 ; 2.0401747187922937E8 ; 1.4233906464098756E9 ; 3.5848346513622215E10 ; 0.0
186 ; 7410774.424188078 ; 2.0403255248982888E8 ; 1.4308056059765034E9 ; 3.605236398550144E10 ; 0.0
187 ; 7404196.263097322 ; 2.040475769837567E8 ; 1.4382163804006915E9 ; 3.625639653799127E10 ; 0.0
188 ; 7403871.231105241 ; 2.0406254489592633E8 ; 1.4456205766637888E9 ; 3.646044411497503E10 ; 0.0
189 ; 7396358.076073777 ; 2.0407745576583526E8 ; 1.4530244478948941E9 ; 3.666450665987096E10 ; 0.0
190 ; 7393920.478820905 ; 2.040923091374913E8 ; 1.460420805970968E9 ; 3.6868584115636795E10 ; 0.0
191 ; 7389837.889734723 ; 2.0410710455934134E8 ; 1.4678147264497888E9 ; 3.7072676424774284E10 ; 0.0
192 ; 7388637.565210769 ; 2.0412184158420235E8 ; 1.4752045643395236E9 ; 3.7276783529333626E10 ; 0.0
193 ; 7381038.856314391 ; 2.0413651976919404E8 ; 1.4825932019047344E9 ; 3.748090537091783E10 ; 0.0
194 ; 7379395.596912265 ; 2.0415113867567396E8 ; 1.4899742407610488E9 ; 3.768504189068703E10 ; 0.0
195 ; 7372410.815247365 ; 2.0416569786917427E8 ; 1.4973536363579612E9 ; 3.78891930293627E10 ; 0.0
196 ; 7369750.558004499 ; 2.041801969193405E8 ; 1.5047260471732085E9 ; 3.809335872723187E10 ; 0.0
197 ; 7364424.626059947 ; 2.041946353998721E8 ; 1.512095797731213E9 ; 3.8297538924151215E10 ; 0.0
198 ; 7363840.281341643 ; 2.0420901288846472E8 ; 1.519460222357273E9 ; 3.850173355955109E10 ; 0.0
199 ; 7360830.559409064 ; 2.0422332896675432E8 ; 1.5268240626386147E9 ; 3.870594257243955E10 ; 0.0
200 ; 7354944.718819441 ; 1.6229870173855674E8 ; 1.5341848931980238E9 ; 3.89101659014063E10 ; 0.0
201 ; 7350708.272534054 ; 1.5541178201948863E8 ; 1.5415398379168432E9 ; 3.907246460314486E10 ; 0.0
