CSV File for the City 2 on Day 202
1 - Minute m 
2 - Power Consumed at minute m 
3 - Power Produced at minute m 
4 - Energy Consumed since the beginning of the day 
5 - Energy Produced since the beginning of the day 
6 - Energy Lost since the beginning of the day on lines starting from the city
 
0 ; 154132.5408458099 ; 1.0521843079563156E8 ; 0.0 ; 0.0 ; 0.0
1 ; 157652.97704809502 ; 1.0537234293763614E8 ; 154132.5408458099 ; 1.0521843079563156E8 ; 0.0
2 ; 159064.5725952824 ; 1.0583493749078861E8 ; 311785.51789390494 ; 2.105907737332677E8 ; 0.0
3 ; 160647.0531461828 ; 1.0660621528167862E8 ; 470850.09048918734 ; 3.164257112240563E8 ; 0.0
4 ; 164110.2126432385 ; 1.076861770624826E8 ; 631497.1436353701 ; 4.230319265057349E8 ; 0.0
5 ; 167965.40712895364 ; 1.0907482350312519E8 ; 795607.3562786086 ; 5.307181035682175E8 ; 0.0
6 ; 173228.3870240774 ; 1.1077215518402562E8 ; 963572.7634075622 ; 6.397929270713427E8 ; 0.0
7 ; 180111.8003715182 ; 1.1277817258960533E8 ; 1136801.1504316395 ; 7.505650822553684E8 ; 0.0
8 ; 189574.39022960313 ; 1.1509287610272008E8 ; 1316912.9508031576 ; 8.633432548449737E8 ; 0.0
9 ; 202511.99351543037 ; 1.1771626600016218E8 ; 1506487.3410327607 ; 9.784361309476938E8 ; 0.0
10 ; 223712.7066751185 ; 1.206483424493556E8 ; 1708999.3345481912 ; 1.096152396947856E9 ; 0.0
11 ; 258003.61784084135 ; 1.2388910550633505E8 ; 1932712.0412233097 ; 1.2168007393972116E9 ; 0.0
12 ; 313048.9410267982 ; 1.2743855511506578E8 ; 2190715.659064151 ; 1.3406898449035466E9 ; 0.0
13 ; 365751.23753755307 ; 1.3129669110812384E8 ; 2503764.600090949 ; 1.4681284000186124E9 ; 0.0
14 ; 370149.4206658613 ; 1.35463513208717E8 ; 2869515.837628502 ; 1.5994250911267362E9 ; 0.0
15 ; 374018.0023335808 ; 1.3993902103398937E8 ; 3239665.258294363 ; 1.734888604335453E9 ; 0.0
16 ; 376385.0775183075 ; 1.4472321409951964E8 ; 3613683.260627944 ; 1.8748276253694425E9 ; 0.0
17 ; 379744.63100341044 ; 1.498160918248885E8 ; 3990068.3381462516 ; 2.0195508394689622E9 ; 0.0
18 ; 383733.06497705576 ; 1.5521765354017133E8 ; 4369812.969149662 ; 2.169366931293851E9 ; 0.0
19 ; 385111.7884975303 ; 1.609278984931917E8 ; 4753546.034126718 ; 2.324584584834022E9 ; 0.0
20 ; 387935.1183908994 ; 1.6694682585735992E8 ; 5138657.8226242475 ; 2.485512483327214E9 ; 0.0
21 ; 391152.14799736626 ; 1.7327443473992124E8 ; 5526592.941015147 ; 2.6524593091845737E9 ; 0.0
22 ; 393493.48063059046 ; 1.7991072419043642E8 ; 5917745.089012513 ; 2.8257337439244947E9 ; 0.0
23 ; 396708.1582989848 ; 1.8685569320933068E8 ; 6311238.5696431035 ; 3.005644468114931E9 ; 0.0
24 ; 399008.47506355285 ; 1.9410934075635755E8 ; 6707946.727942089 ; 3.1925001613242617E9 ; 0.0
25 ; 401568.59064423206 ; 2.003597066570282E8 ; 7106955.203005642 ; 3.3866095020806193E9 ; 0.0
26 ; 405069.0527118449 ; 2.0036033764741766E8 ; 7508523.793649874 ; 3.5869692087376475E9 ; 0.0
27 ; 408643.758394144 ; 2.0036100190655106E8 ; 7913592.846361719 ; 3.787329546385065E9 ; 0.0
28 ; 409962.9965694979 ; 2.0036169831015772E8 ; 8322236.604755864 ; 3.987690548291616E9 ; 0.0
29 ; 412793.18261529703 ; 2.003624257303441E8 ; 8732199.601325361 ; 4.1880522466017737E9 ; 0.0
30 ; 415491.4875043759 ; 2.0036318304143465E8 ; 9144992.783940658 ; 4.388414672332118E9 ; 0.0
31 ; 417759.8720709218 ; 2.00363969125209E8 ; 9560484.271445034 ; 4.588777855373552E9 ; 0.0
32 ; 420864.9989915795 ; 2.0036478287553406E8 ; 9978244.143515956 ; 4.789141824498761E9 ; 0.0
33 ; 423288.6069116848 ; 2.0036562320240209E8 ; 1.0399109142507534E7 ; 4.989506607374295E9 ; 0.0
34 ; 424864.1015569832 ; 2.003664890353962E8 ; 1.082239774941922E7 ; 5.189872230576697E9 ; 0.0
35 ; 428872.14923985663 ; 2.0036737932661185E8 ; 1.1247261850976203E7 ; 5.390238719612094E9 ; 0.0
36 ; 429521.58265027474 ; 2.0036829305306986E8 ; 1.167613400021606E7 ; 5.590606098938705E9 ; 0.0
37 ; 433492.3823274379 ; 2.003692292186589E8 ; 1.2105655582866333E7 ; 5.7909743919917755E9 ; 0.0
38 ; 435616.9300304123 ; 2.0037018685564902E8 ; 1.253914796519377E7 ; 5.991343621210434E9 ; 0.0
39 ; 435826.99120261444 ; 2.0037116502581766E8 ; 1.2974764895224184E7 ; 6.191713808066083E9 ; 0.0
40 ; 439070.0491282669 ; 2.0037216282122958E8 ; 1.3410591886426799E7 ; 6.392084973091901E9 ; 0.0
41 ; 442367.17087102344 ; 2.003731793647112E8 ; 1.3849661935555065E7 ; 6.592457135913131E9 ; 0.0
42 ; 443899.1960857238 ; 2.00374213810058E8 ; 1.4292029106426088E7 ; 6.792830315277842E9 ; 0.0
43 ; 444846.4719546384 ; 2.0037526534201062E8 ; 1.4735928302511811E7 ; 6.993204529087899E9 ; 0.0
44 ; 446907.3654455012 ; 2.0037633317603424E8 ; 1.518077477446645E7 ; 7.19357979442991E9 ; 0.0
45 ; 447973.50236594176 ; 2.003774165579309E8 ; 1.562768213991195E7 ; 7.393956127605944E9 ; 0.0
46 ; 449577.38645815314 ; 2.0037851476331386E8 ; 1.607565564227789E7 ; 7.594333544163875E9 ; 0.0
47 ; 450667.77676844306 ; 2.0037962709696847E8 ; 1.6525233028736044E7 ; 7.794712058927189E9 ; 0.0
48 ; 453562.11410381534 ; 2.0038075289212212E8 ; 1.6975900805504486E7 ; 7.995091686024158E9 ; 0.0
49 ; 455550.28420959675 ; 2.003818915096433E8 ; 1.7429462919608302E7 ; 8.19547243891628E9 ; 0.0
50 ; 455829.45694361103 ; 2.0038304233718657E8 ; 1.78850132038179E7 ; 8.395854330425923E9 ; 0.0
51 ; 457931.37198461255 ; 2.0038420478829944E8 ; 1.8340842660761513E7 ; 8.59623737276311E9 ; 0.0
52 ; 457525.52677226765 ; 2.0038537830150282E8 ; 1.8798774032746125E7 ; 8.796621577551409E9 ; 0.0
53 ; 458936.0564899105 ; 2.0038656233935753E8 ; 1.9256299559518393E7 ; 8.997006955852911E9 ; 0.0
54 ; 459910.43654216937 ; 2.00387756387525E8 ; 1.9715235616008304E7 ; 9.197393518192268E9 ; 0.0
55 ; 461598.14841015666 ; 2.0038895995383117E8 ; 2.0175146052550472E7 ; 9.397781274579794E9 ; 0.0
56 ; 461549.991643909 ; 2.00390172567339E8 ; 2.063674420096063E7 ; 9.598170234533625E9 ; 0.0
57 ; 463433.06638027733 ; 2.0039139377743584E8 ; 2.1098294192604538E7 ; 9.798560407100964E9 ; 0.0
58 ; 464851.9941711281 ; 2.0039262315293953E8 ; 2.1561727258984815E7 ; 9.998951800878399E9 ; 0.0
59 ; 465555.0884900458 ; 2.0039386028122655E8 ; 2.2026579253155943E7 ; 1.0199344424031338E10 ; 0.0
60 ; 468193.91949751816 ; 2.0039510476738518E8 ; 2.249213434164599E7 ; 1.0399738284312565E10 ; 0.0
61 ; 467094.57970195747 ; 2.0039635623339558E8 ; 2.296032826114351E7 ; 1.060013338907995E10 ; 0.0
62 ; 468449.2813195815 ; 2.003976143173377E8 ; 2.3427422840845466E7 ; 1.0800529745313347E10 ; 0.0
63 ; 468962.87073471537 ; 2.0039887867262876E8 ; 2.3895872122165047E7 ; 1.1000927359630684E10 ; 0.0
64 ; 471044.35468573327 ; 2.004001489672903E8 ; 2.436483499289976E7 ; 1.1201326238303312E10 ; 0.0
65 ; 470777.7230394632 ; 2.0040142488324502E8 ; 2.4835879347585496E7 ; 1.1401726387270603E10 ; 0.0
66 ; 472741.15503069735 ; 2.0040270611564347E8 ; 2.530665707062496E7 ; 1.1602127812153849E10 ; 0.0
67 ; 472972.70307972847 ; 2.0040399237222025E8 ; 2.5779398225655656E7 ; 1.1802530518269491E10 ; 0.0
68 ; 474025.34455675876 ; 2.0040528337267923E8 ; 2.6252370928735387E7 ; 1.2002934510641712E10 ; 0.0
69 ; 475908.1200747118 ; 2.004065788481072E8 ; 2.6726396273292147E7 ; 1.220333979401439E10 ; 0.0
70 ; 477815.3170408702 ; 2.004078785404149E8 ; 2.720230439336686E7 ; 1.2403746372862497E10 ; 0.0
71 ; 475729.01414910244 ; 2.0040918220180523E8 ; 2.768011971040773E7 ; 1.2604154251402912E10 ; 0.0
72 ; 477856.8134051245 ; 2.0041048959426692E8 ; 2.8155848724556834E7 ; 1.2804563433604717E10 ; 0.0
73 ; 478288.5280514454 ; 2.004118004890936E8 ; 2.863370553796196E7 ; 1.3004973923198984E10 ; 0.0
74 ; 478264.73122878966 ; 2.0041311466642645E8 ; 2.9111994066013407E7 ; 1.3205385723688078E10 ; 0.0
75 ; 479705.5030445725 ; 2.004144319148203E8 ; 2.95902587972422E7 ; 1.3405798838354504E10 ; 0.0
76 ; 483155.42353359016 ; 2.004157520308313E8 ; 3.006996430028677E7 ; 1.3606213270269323E10 ; 0.0
77 ; 482183.3168829219 ; 2.0041707481862608E8 ; 3.055311972382036E7 ; 1.3806629022300154E10 ; 0.0
78 ; 482595.94297473156 ; 2.0041840008961055E8 ; 3.103530304070328E7 ; 1.400704609711878E10 ; 0.0
79 ; 481740.98232582334 ; 2.0041972766207844E8 ; 3.1517898983678013E7 ; 1.4207464497208391E10 ; 0.0
80 ; 481746.71256656066 ; 2.0042105736087742E8 ; 3.1999639966003835E7 ; 1.440788422487047E10 ; 0.0
81 ; 481957.6170224905 ; 2.0042238901709303E8 ; 3.2481386678570397E7 ; 1.4608305282231348E10 ; 0.0
82 ; 481733.76289769716 ; 2.0042372246774882E8 ; 3.296334429559289E7 ; 1.4808727671248442E10 ; 0.0
83 ; 482703.17978730105 ; 2.004250575555222E8 ; 3.3445078058490586E7 ; 1.500915139371619E10 ; 0.0
84 ; 481214.3488722022 ; 2.0042639412847525E8 ; 3.392778123827789E7 ; 1.5209576451271713E10 ; 0.0
85 ; 483219.6666659866 ; 2.004277320397992E8 ; 3.440899558715009E7 ; 1.5410002845400188E10 ; 0.0
86 ; 482851.8608849045 ; 2.004290711475728E8 ; 3.4892215253816076E7 ; 1.5610430577439987E10 ; 0.0
87 ; 482945.13696153555 ; 2.0043041131453276E8 ; 3.537506711470098E7 ; 1.581085964858756E10 ; 0.0
88 ; 483800.77986182907 ; 2.0043175240785643E8 ; 3.5858012251662515E7 ; 1.6011290059902094E10 ; 0.0
89 ; 481113.6640294343 ; 2.0043309429895586E8 ; 3.6341813031524345E7 ; 1.621172181230995E10 ; 0.0
90 ; 483465.85883778316 ; 2.0043443686328223E8 ; 3.682292669555378E7 ; 1.6412154906608906E10 ; 0.0
91 ; 482122.1405556512 ; 2.004357799801408E8 ; 3.730639255439156E7 ; 1.6612589343472189E10 ; 0.0
92 ; 483569.7081996002 ; 2.0043712353251514E8 ; 3.778851469494721E7 ; 1.681302512345233E10 ; 0.0
93 ; 480713.9302580648 ; 2.0043846740690047E8 ; 3.827208440314681E7 ; 1.7013462246984844E10 ; 0.0
94 ; 482132.1369548626 ; 2.0043981149314582E8 ; 3.875279833340488E7 ; 1.7213900714391747E10 ; 0.0
95 ; 481858.8691369536 ; 2.004411556843039E8 ; 3.923493047035974E7 ; 1.741434052588489E10 ; 0.0
96 ; 482147.6385843838 ; 2.0044249987648886E8 ; 3.9716789339496695E7 ; 1.7614781681569195E10 ; 0.0
97 ; 480964.76037982036 ; 2.0044384396874136E8 ; 4.019893697808108E7 ; 1.7815224181445683E10 ; 0.0
98 ; 482369.5484789432 ; 2.004451878629002E8 ; 4.06799017384609E7 ; 1.8015668025414425E10 ; 0.0
99 ; 482304.38901030814 ; 2.0044653146348083E8 ; 4.1162271286939844E7 ; 1.8216113213277325E10 ; 0.0
100 ; 481622.83153703925 ; 2.0044787467755952E8 ; 4.1644575675950155E7 ; 1.8416559744740807E10 ; 0.0
101 ; 480928.2061964495 ; 2.004492174146638E8 ; 4.212619850748719E7 ; 1.8617007619418365E10 ; 0.0
102 ; 481465.0238043036 ; 2.0045055958666798E8 ; 4.260712671368364E7 ; 1.881745683683303E10 ; 0.0
103 ; 480679.80148900306 ; 2.0045190110769418E8 ; 4.308859173748795E7 ; 1.9017907396419697E10 ; 0.0
104 ; 481865.08464006736 ; 2.0045324189401788E8 ; 4.356927153897695E7 ; 1.921835929752739E10 ; 0.0
105 ; 480686.3438308354 ; 2.004545818639786E8 ; 4.405113662361702E7 ; 1.9418812539421406E10 ; 0.0
106 ; 480155.50321456016 ; 2.0045592093789455E8 ; 4.453182296744786E7 ; 1.9619267121285385E10 ; 0.0
107 ; 480105.619653541 ; 2.0045725903798163E8 ; 4.501197847066242E7 ; 1.9819723042223278E10 ; 0.0
108 ; 478694.5379357434 ; 2.0045859608827636E8 ; 4.549208409031596E7 ; 2.002018030126126E10 ; 0.0
109 ; 479763.1673988528 ; 2.004599320145625E8 ; 4.59707786282517E7 ; 2.0220638897349537E10 ; 0.0
110 ; 479024.8873116088 ; 2.0046126674430123E8 ; 4.645054179565056E7 ; 2.0421098829364098E10 ; 0.0
111 ; 478179.283759586 ; 2.0046260020656466E8 ; 4.6929566682962164E7 ; 2.06215600961084E10 ; 0.0
112 ; 478434.94096247456 ; 2.0046393233197242E8 ; 4.740774596672175E7 ; 2.0822022696314964E10 ; 0.0
113 ; 477658.19326843345 ; 2.0046526305263153E8 ; 4.788618090768422E7 ; 2.102248662864694E10 ; 0.0
114 ; 477644.9832934263 ; 2.0046659230207866E8 ; 4.8363839100952655E7 ; 2.122295189169957E10 ; 0.0
115 ; 476947.76057845453 ; 2.0046792001522565E8 ; 4.8841484084246084E7 ; 2.1423418484001648E10 ; 0.0
116 ; 477144.83906924847 ; 2.0046924612830698E8 ; 4.931843184482454E7 ; 2.1623886404016872E10 ; 0.0
117 ; 476098.4802560083 ; 2.004705705788303E8 ; 4.9795576683893785E7 ; 2.182435565014518E10 ; 0.0
118 ; 475963.07684522256 ; 2.0047189330552864E8 ; 5.027167516414979E7 ; 2.202482622072401E10 ; 0.0
119 ; 474500.78564107046 ; 2.0047321424831533E8 ; 5.074763824099501E7 ; 2.222529811402954E10 ; 0.0
120 ; 474566.9761669961 ; 2.004745333482406E8 ; 5.122213902663608E7 ; 2.2425771328277855E10 ; 0.0
121 ; 474539.0837713134 ; 2.0047585054745045E8 ; 5.169670600280307E7 ; 2.2626245861626095E10 ; 0.0
122 ; 474083.9404214598 ; 2.0047716578914723E8 ; 5.217124508657438E7 ; 2.2826721712173546E10 ; 0.0
123 ; 474009.8572635957 ; 2.0047847901755187E8 ; 5.2645329026995845E7 ; 2.3027198877962692E10 ; 0.0
124 ; 472947.0131179939 ; 2.004797901778682E8 ; 5.311933888425944E7 ; 2.3227677356980244E10 ; 0.0
125 ; 472903.2215547554 ; 2.004810992162484E8 ; 5.359228589737743E7 ; 2.342815714715811E10 ; 0.0
126 ; 472422.1424677499 ; 2.0048240607976037E8 ; 5.406518911893219E7 ; 2.362863824637436E10 ; 0.0
127 ; 470755.30750564137 ; 2.0048371071635625E8 ; 5.453761126139994E7 ; 2.382912065245412E10 ; 0.0
128 ; 470806.95136859984 ; 2.004850130748425E8 ; 5.5008366568905585E7 ; 2.4029604363170475E10 ; 0.0
129 ; 470646.45924599044 ; 2.0048631310485125E8 ; 5.5479173520274185E7 ; 2.423008937624532E10 ; 0.0
130 ; 470099.2147701789 ; 2.0048761075681275E8 ; 5.594981997952017E7 ; 2.443057568935017E10 ; 0.0
131 ; 467012.7402069314 ; 2.0048890598192942E8 ; 5.641991919429035E7 ; 2.4631063300106983E10 ; 0.0
132 ; 466298.60386239924 ; 2.004901987321504E8 ; 5.688693193449728E7 ; 2.4831552206088913E10 ; 0.0
133 ; 464960.30993614777 ; 2.0049148896014786E8 ; 5.735323053835968E7 ; 2.5032042404821064E10 ; 0.0
134 ; 463362.2620448808 ; 2.0049277661929375E8 ; 5.781819084829583E7 ; 2.523253389378121E10 ; 0.0
135 ; 462639.6892780424 ; 2.0049406166363785E8 ; 5.8281553110340714E7 ; 2.5433026670400505E10 ; 0.0
136 ; 461928.18752639386 ; 2.0049534404788676E8 ; 5.874419279961876E7 ; 2.5633520732064144E10 ; 0.0
137 ; 459055.902400999 ; 2.004966237273836E8 ; 5.9206120987145156E7 ; 2.583401607611203E10 ; 0.0
138 ; 458523.48984404467 ; 2.0049790065808874E8 ; 5.9665176889546156E7 ; 2.6034512699839413E10 ; 0.0
139 ; 456501.2518153277 ; 2.004991747965611E8 ; 6.01237003793902E7 ; 2.62350106004975E10 ; 0.0
140 ; 455639.30058855325 ; 2.005004460999405E8 ; 6.058020163120553E7 ; 2.6435509775294064E10 ; 0.0
141 ; 454824.61934647226 ; 2.0050171452593058E8 ; 6.1035840931794085E7 ; 2.6636010221394005E10 ; 0.0
142 ; 453727.50030535687 ; 2.005029800327824E8 ; 6.1490665551140554E7 ; 2.6836511935919937E10 ; 0.0
143 ; 451553.9266595106 ; 2.0050424257927886E8 ; 6.194439305144591E7 ; 2.703701491595272E10 ; 0.0
144 ; 451465.3976468195 ; 2.0050550212471953E8 ; 6.239594697810542E7 ; 2.7237519158531998E10 ; 0.0
145 ; 449181.7610464034 ; 2.005067586289063E8 ; 6.284741237575224E7 ; 2.7438024660656715E10 ; 0.0
146 ; 449225.67597722384 ; 2.0050801205212954E8 ; 6.329659413679864E7 ; 2.763853141928562E10 ; 0.0
147 ; 448754.1625881852 ; 2.005092623551547E8 ; 6.3745819812775865E7 ; 2.783903943133775E10 ; 0.0
148 ; 448091.0243086313 ; 2.0051050949920967E8 ; 6.419457397536405E7 ; 2.8039548693692905E10 ; 0.0
149 ; 448250.71632858884 ; 2.005117534459725E8 ; 6.464266499967268E7 ; 2.8240059203192116E10 ; 0.0
150 ; 447127.74758892757 ; 2.005129941575596E8 ; 6.509091571600127E7 ; 2.844057095663809E10 ; 0.0
151 ; 447206.15596386424 ; 2.0051423159651437E8 ; 6.55380434635902E7 ; 2.8641083950795647E10 ; 0.0
152 ; 446736.19759633706 ; 2.005154657257965E8 ; 6.5985249619554065E7 ; 2.8841598182392162E10 ; 0.0
153 ; 444084.8449611094 ; 2.005166965087714E8 ; 6.64319858171504E7 ; 2.9042113648117958E10 ; 0.0
154 ; 443886.5776667211 ; 2.0051792390920022E8 ; 6.6876070662111506E7 ; 2.9242630344626728E10 ; 0.0
155 ; 443502.62357269984 ; 2.005191478912303E8 ; 6.731995723977822E7 ; 2.9443148268535927E10 ; 0.0
156 ; 443861.3835823754 ; 2.0052036841938564E8 ; 6.776345986335093E7 ; 2.964366741642716E10 ; 0.0
157 ; 442517.0762086475 ; 2.0052158545855835E8 ; 6.82073212469333E7 ; 2.9844187784846542E10 ; 0.0
158 ; 441920.2305475863 ; 2.0052279897399983E8 ; 6.864983832314195E7 ; 3.00447093703051E10 ; 0.0
159 ; 441494.6716951103 ; 2.0052400893131256E8 ; 6.909175855368954E7 ; 3.02452321692791E10 ; 0.0
160 ; 440561.94285735727 ; 2.005252152964423E8 ; 6.953325322538465E7 ; 3.044575617821041E10 ; 0.0
161 ; 440834.3879516542 ; 2.0052641803567034E8 ; 6.997381516824201E7 ; 3.0646281393506855E10 ; 0.0
162 ; 440133.6115996231 ; 2.0052761711560625E8 ; 7.041464955619366E7 ; 3.0846807811542526E10 ; 0.0
163 ; 439194.25193552586 ; 2.005288125031807E8 ; 7.085478316779329E7 ; 3.104733542865813E10 ; 0.0
164 ; 437699.0841051403 ; 2.005300041656389E8 ; 7.129397741972882E7 ; 3.1247864241161312E10 ; 0.0
165 ; 439216.13602261443 ; 2.0053119207053372E8 ; 7.173167650383395E7 ; 3.144839424532695E10 ; 0.0
166 ; 436619.72743872687 ; 2.005323761857198E8 ; 7.217089263985656E7 ; 3.1648925437397484E10 ; 0.0
167 ; 436179.0415120769 ; 2.0053355647934705E8 ; 7.26075123672953E7 ; 3.1849457813583202E10 ; 0.0
168 ; 436274.65210844437 ; 2.0053473291985524E8 ; 7.304369140880737E7 ; 3.204999137006255E10 ; 0.0
169 ; 435297.28179303766 ; 2.005359054759681E8 ; 7.347996606091581E7 ; 3.2250526102982407E10 ; 0.0
170 ; 433235.1314587076 ; 2.0053707411668792E8 ; 7.391526334270886E7 ; 3.2451062008458374E10 ; 0.0
171 ; 433747.24167978764 ; 2.005382388112905E8 ; 7.434849847416757E7 ; 3.265159908257506E10 ; 0.0
172 ; 432186.6574135333 ; 2.0053939952932003E8 ; 7.478224571584736E7 ; 3.2852137321386353E10 ; 0.0
173 ; 433928.7674837818 ; 2.005405562405842E8 ; 7.521443237326089E7 ; 3.3052676720915672E10 ; 0.0
174 ; 432301.02035458526 ; 2.005417089151496E8 ; 7.564836114074467E7 ; 3.3253217277156258E10 ; 0.0
175 ; 430744.88595448056 ; 2.0054285752333722E8 ; 7.608066216109926E7 ; 3.3453758986071407E10 ; 0.0
176 ; 432313.24202013476 ; 2.0054400203571814E8 ; 7.651140704705374E7 ; 3.3654301843594746E10 ; 0.0
177 ; 430380.1803864601 ; 2.0054514242310932E8 ; 7.694372028907387E7 ; 3.3854845845630463E10 ; 0.0
178 ; 428706.8124116788 ; 2.0054627865656957E8 ; 7.737410046946032E7 ; 3.4055390988053574E10 ; 0.0
179 ; 429772.56313149276 ; 2.0054741070739567E8 ; 7.7802807281872E7 ; 3.4255937266710144E10 ; 0.0
180 ; 429123.6297683511 ; 2.0054853854711872E8 ; 7.82325798450035E7 ; 3.445648467741754E10 ; 0.0
181 ; 428009.1581896424 ; 2.0054966214750043E8 ; 7.866170347477186E7 ; 3.465703321596466E10 ; 0.0
182 ; 427695.0463536135 ; 2.005507814805296E8 ; 7.90897126329615E7 ; 3.485758287811216E10 ; 0.0
183 ; 428561.45330563094 ; 2.00551896518419E8 ; 7.95174076793151E7 ; 3.505813365959269E10 ; 0.0
184 ; 427149.97035037173 ; 2.0055300723360184E8 ; 7.994596913262074E7 ; 3.525868555611111E10 ; 0.0
185 ; 427267.2729292061 ; 2.0055411359872887E8 ; 8.03731191029711E7 ; 3.545923856334471E10 ; 0.0
186 ; 426596.27674203354 ; 2.005552155866653E8 ; 8.080038637590031E7 ; 3.565979267694344E10 ; 0.0
187 ; 425888.26088872494 ; 2.0055631317048785E8 ; 8.122698265264234E7 ; 3.5860347892530106E10 ; 0.0
188 ; 425587.94395115983 ; 2.0055740632348207E8 ; 8.165287091353106E7 ; 3.606090420570059E10 ; 0.0
189 ; 424693.4649594541 ; 2.005584950191395E8 ; 8.207845885748222E7 ; 3.626146161202407E10 ; 0.0
190 ; 425143.6465157711 ; 2.0055957923115516E8 ; 8.250315232244168E7 ; 3.646202010704321E10 ; 0.0
191 ; 424640.8022687263 ; 2.0056065893342507E8 ; 8.292829596895745E7 ; 3.666257968627437E10 ; 0.0
192 ; 422745.0406065656 ; 2.0056173410004365E8 ; 8.335293677122618E7 ; 3.6863140345207794E10 ; 0.0
193 ; 424111.4230679875 ; 2.0056280470530164E8 ; 8.377568181183274E7 ; 3.706370207930784E10 ; 0.0
194 ; 423035.8987890878 ; 2.005638707236836E8 ; 8.419979323490073E7 ; 3.726426488401314E10 ; 0.0
195 ; 422873.06660329277 ; 2.005649321298659E8 ; 8.462282913368982E7 ; 3.7464828754736824E10 ; 0.0
196 ; 422895.0819676654 ; 2.0056598889871454E8 ; 8.504570220029311E7 ; 3.766539368686669E10 ; 0.0
197 ; 420465.00089322584 ; 2.0056704100528312E8 ; 8.546859728226078E7 ; 3.78659596757654E10 ; 0.0
198 ; 422941.91473688063 ; 2.0056808842481092E8 ; 8.5889062283154E7 ; 3.806652671677068E10 ; 0.0
199 ; 421134.2239417949 ; 2.00569131132721E8 ; 8.631200419789088E7 ; 3.8267094805195496E10 ; 0.0
200 ; 420734.0658434937 ; 2.0057016910461843E8 ; 8.673313842183267E7 ; 3.846766393632822E10 ; 0.0
201 ; 419884.57727586216 ; 2.0057120231628838E8 ; 8.715387248767616E7 ; 3.866823410543284E10 ; 0.0
