CSV File for the City 1 on Day 79
1 - Minute m 
2 - Power Consumed at minute m 
3 - Power Produced at minute m 
4 - Energy Consumed since the beginning of the day 
5 - Energy Produced since the beginning of the day 
6 - Energy Lost since the beginning of the day on lines starting from the city
 
0 ; 1.6035237819949776E7 ; 1.0550888943325195E8 ; 0.0 ; 0.0 ; 0.0
1 ; 1.6056248909824345E7 ; 1.0566182123984915E8 ; 1.6035237819949776E7 ; 1.0550888943325195E8 ; 0.0
2 ; 1.6073385972387085E7 ; 1.0612353622295919E8 ; 3.209148672977412E7 ; 2.111707106731011E8 ; 0.0
3 ; 1.6089851900304396E7 ; 1.068940360157423E8 ; 4.816487270216121E7 ; 3.172942468960603E8 ; 0.0
4 ; 1.6118083081073666E7 ; 1.0797332208399695E8 ; 6.42547246024656E7 ; 4.241882829118026E8 ; 0.0
5 ; 1.6145186518000493E7 ; 1.093613957173003E8 ; 8.037280768353927E7 ; 5.3216160499579954E8 ; 0.0
6 ; 1.6184382488374881E7 ; 1.1105825802105E8 ; 9.651799420153977E7 ; 6.415230007130998E8 ; 0.0
7 ; 1.6237313349660717E7 ; 1.130639099095205E8 ; 1.1270237668991464E8 ; 7.525812587341498E8 ; 0.0
8 ; 1.631403473477068E7 ; 1.1537835210003334E8 ; 1.2893969003957537E8 ; 8.656451686436703E8 ; 0.0
9 ; 1.6434847767950648E7 ; 1.1800158510832894E8 ; 1.4525372477434605E8 ; 9.810235207437036E8 ; 0.0
10 ; 1.6615626707213927E7 ; 1.209336092452091E8 ; 1.616885725422967E8 ; 1.0990251058520327E9 ; 0.0
11 ; 1.6906227167936705E7 ; 1.241744246145018E8 ; 1.7830419924951065E8 ; 1.2199587150972419E9 ; 0.0
12 ; 1.7365848017032236E7 ; 1.2772403111237904E8 ; 1.9521042641744736E8 ; 1.3441331397117436E9 ; 0.0
13 ; 1.7808266377294883E7 ; 1.3158242842803901E8 ; 2.125762744344796E8 ; 1.4718571708241227E9 ; 0.0
14 ; 1.78634241147396E7 ; 1.3574961604574138E8 ; 2.303845408117745E8 ; 1.6034395992521617E9 ; 0.0
15 ; 1.788181425209502E7 ; 1.4022559324816447E8 ; 2.482479649265141E8 ; 1.739189215297903E9 ; 0.0
16 ; 1.7902812776521016E7 ; 1.45010359121034E8 ; 2.661297791786091E8 ; 1.8794148085460675E9 ; 0.0
17 ; 1.792905430263056E7 ; 1.5010391255895218E8 ; 2.840325919551301E8 ; 2.0244251676671014E9 ; 0.0
18 ; 1.794865342431512E7 ; 1.555062522723419E8 ; 3.0196164625776064E8 ; 2.1745290802260537E9 ; 0.0
19 ; 1.796772731241635E7 ; 1.612173767954047E8 ; 3.1991029968207574E8 ; 2.3300353324983954E9 ; 0.0
20 ; 1.7987032842696257E7 ; 1.672372844949803E8 ; 3.378780269944921E8 ; 2.4912527092938004E9 ; 0.0
21 ; 1.801080835504513E7 ; 1.7356597358018574E8 ; 3.5586505983718836E8 ; 2.6584899937887807E9 ; 0.0
22 ; 1.8028218412045605E7 ; 1.802034421127069E8 ; 3.738758681922335E8 ; 2.8320559673689666E9 ; 0.0
23 ; 1.805067907487453E7 ; 1.8714968801761097E8 ; 3.919040866042791E8 ; 3.0122594094816732E9 ; 0.0
24 ; 1.8069785413189117E7 ; 1.9440470909454846E8 ; 4.099547656791536E8 ; 3.1994090974992843E9 ; 0.0
25 ; 1.8095426835202884E7 ; 2.0065654392739996E8 ; 4.2802455109234273E8 ; 3.393813806593833E9 ; 0.0
26 ; 1.8109595870391246E7 ; 2.0065873793276972E8 ; 4.461199779275456E8 ; 3.594470350521233E9 ; 0.0
27 ; 1.8132582800999776E7 ; 2.006610578965046E8 ; 4.6422957379793686E8 ; 3.795129088454003E9 ; 0.0
28 ; 1.814954318236918E7 ; 2.0066350123198938E8 ; 4.823621565989366E8 ; 3.9957901463505073E9 ; 0.0
29 ; 1.8173874406002954E7 ; 2.0066606528472108E8 ; 5.005116997813058E8 ; 4.1964536475824966E9 ; 0.0
30 ; 1.81938682112286E7 ; 2.0066874734335548E8 ; 5.186855741873087E8 ; 4.397119712867218E9 ; 0.0
31 ; 1.8212922241623465E7 ; 2.0067154465039122E8 ; 5.368794423985373E8 ; 4.597788460210573E9 ; 0.0
32 ; 1.8229856240087897E7 ; 2.006744544124249E8 ; 5.550923646401608E8 ; 4.798460004860965E9 ; 0.0
33 ; 1.8250932316394147E7 ; 2.006774738099213E8 ; 5.733222208802487E8 ; 4.99913445927339E9 ; 0.0
34 ; 1.8270376798863757E7 ; 2.0068060000645417E8 ; 5.915731531966428E8 ; 5.199811933083311E9 ; 0.0
35 ; 1.8286009482384376E7 ; 2.0068383015738425E8 ; 6.098435299955065E8 ; 5.400492533089766E9 ; 0.0
36 ; 1.8301471810220987E7 ; 2.0068716141795063E8 ; 6.281295394778908E8 ; 5.601176363247149E9 ; 0.0
37 ; 1.831599881073605E7 ; 2.006905909507619E8 ; 6.464310112881118E8 ; 5.8018635246651E9 ; 0.0
38 ; 1.8337361508662093E7 ; 2.0069411593268096E8 ; 6.647470100988479E8 ; 6.002554115615862E9 ; 0.0
39 ; 1.83489138339453E7 ; 2.0069773356110552E8 ; 6.8308437160751E8 ; 6.203248231548543E9 ; 0.0
40 ; 1.8360015798403412E7 ; 2.0070144105965322E8 ; 7.014332854414552E8 ; 6.403945965109649E9 ; 0.0
41 ; 1.8376290958601113E7 ; 2.0070523568326494E8 ; 7.197933012398586E8 ; 6.604647406169302E9 ; 0.0
42 ; 1.8387700990593757E7 ; 2.0070911472274548E8 ; 7.381695921984597E8 ; 6.805352641852567E9 ; 0.0
43 ; 1.840028542088315E7 ; 2.0071307550876442E8 ; 7.565572931890535E8 ; 7.006061756575313E9 ; 0.0
44 ; 1.8411246512030926E7 ; 2.007171154153424E8 ; 7.749575786099367E8 ; 7.206774832084077E9 ; 0.0
45 ; 1.8425847902888816E7 ; 2.0072123186285096E8 ; 7.933688251219677E8 ; 7.407491947499419E9 ; 0.0
46 ; 1.8433191210051313E7 ; 2.007254223205557E8 ; 8.117946730248564E8 ; 7.60821317936227E9 ; 0.0
47 ; 1.8440578193599712E7 ; 2.0072968430873206E8 ; 8.302278642349077E8 ; 7.808938601682826E9 ; 0.0
48 ; 1.8449777272369336E7 ; 2.0073401540038612E8 ; 8.486684424285074E8 ; 8.009668285991558E9 ; 0.0
49 ; 1.845559697224859E7 ; 2.0073841322260937E8 ; 8.671182197008768E8 ; 8.210402301391944E9 ; 0.0
50 ; 1.846055568529926E7 ; 2.0074287545759913E8 ; 8.855738166731254E8 ; 8.411140714614553E9 ; 0.0
51 ; 1.8469859341936253E7 ; 2.0074739984337357E8 ; 9.040343723584247E8 ; 8.611883590072153E9 ; 0.0
52 ; 1.8472168670141313E7 ; 2.0075198417420962E8 ; 9.225042317003609E8 ; 8.812630989915527E9 ; 0.0
53 ; 1.8480048786659688E7 ; 2.0075662630083185E8 ; 9.409764003705022E8 ; 9.013382974089737E9 ; 0.0
54 ; 1.848188189891756E7 ; 2.0076132413037768E8 ; 9.59456449157162E8 ; 9.21413960039057E9 ; 0.0
55 ; 1.8486412877255127E7 ; 2.0076607562616375E8 ; 9.779383310560795E8 ; 9.414900924520947E9 ; 0.0
56 ; 1.849085982693072E7 ; 2.0077087880727664E8 ; 9.964247439333346E8 ; 9.61566700014711E9 ; 0.0
57 ; 1.849799410249565E7 ; 2.0077573174800903E8 ; 1.0149156037602654E9 ; 9.816437878954386E9 ; 0.0
58 ; 1.8505529969103042E7 ; 2.0078063257716185E8 ; 1.033413597862761E9 ; 1.0017213610702394E10 ; 0.0
59 ; 1.8505001689431585E7 ; 2.007855794772303E8 ; 1.0519191278318641E9 ; 1.0217994243279556E10 ; 0.0
60 ; 1.8511484320712507E7 ; 2.0079057068349117E8 ; 1.0704241295212957E9 ; 1.0418779822756786E10 ; 0.0
61 ; 1.851686383420682E7 ; 2.0079560448300642E8 ; 1.088935613842008E9 ; 1.0619570393440277E10 ; 0.0
62 ; 1.8520166729669195E7 ; 2.0080067921355775E8 ; 1.107452477676215E9 ; 1.0820365997923283E10 ; 0.0
63 ; 1.8519864808201686E7 ; 2.008057932625244E8 ; 1.125972644405884E9 ; 1.102116667713684E10 ; 0.0
64 ; 1.852752140174408E7 ; 2.0081094506571594E8 ; 1.1444925092140858E9 ; 1.1221972470399364E10 ; 0.0
65 ; 1.8526810971476905E7 ; 2.008161331061706E8 ; 1.16302003061583E9 ; 1.142278341546508E10 ; 0.0
66 ; 1.8528013736503128E7 ; 2.008213559129279E8 ; 1.1815468415873067E9 ; 1.162359954857125E10 ; 0.0
67 ; 1.853767088597898E7 ; 2.0082661205978456E8 ; 1.2000748553238099E9 ; 1.1824420904484179E10 ; 0.0
68 ; 1.853938614732436E7 ; 2.008319001640401E8 ; 1.2186125262097888E9 ; 1.2025247516543962E10 ; 0.0
69 ; 1.853747671117315E7 ; 2.008372188852394E8 ; 1.2371519123571131E9 ; 1.2226079416708002E10 ; 0.0
70 ; 1.8542903350330967E7 ; 2.008425669239174E8 ; 1.2556893890682862E9 ; 1.242691663559324E10 ; 0.0
71 ; 1.854321216726451E7 ; 2.00847943020351E8 ; 1.2742322924186172E9 ; 1.2627759202517159E10 ; 0.0
72 ; 1.8548015723654594E7 ; 2.0085334595332226E8 ; 1.2927755045858817E9 ; 1.282860714553751E10 ; 0.0
73 ; 1.85471438980902E7 ; 2.0085877453889683E8 ; 1.3113235203095362E9 ; 1.3029460491490831E10 ; 0.0
74 ; 1.854943085134388E7 ; 2.0086422762922055E8 ; 1.3298706642076263E9 ; 1.3230319266029728E10 ; 0.0
75 ; 1.855437074958157E7 ; 2.0086970411133674E8 ; 1.3484200950589702E9 ; 1.3431183493658949E10 ; 0.0
76 ; 1.8552410821510118E7 ; 2.008752029060267E8 ; 1.3669744658085518E9 ; 1.3632053197770287E10 ; 0.0
77 ; 1.8558681547075726E7 ; 2.0088072296667477E8 ; 1.3855268766300619E9 ; 1.3832928400676313E10 ; 0.0
78 ; 1.8553584100228727E7 ; 2.0088626327815995E8 ; 1.4040855581771376E9 ; 1.4033809123642988E10 ; 0.0
79 ; 1.855116363000919E7 ; 2.0089182285577446E8 ; 1.4226391422773664E9 ; 1.4234695386921148E10 ; 0.0
80 ; 1.8540636043885358E7 ; 2.0089740074417102E8 ; 1.4411903059073756E9 ; 1.4435587209776922E10 ; 0.0
81 ; 1.8538924711573467E7 ; 2.009029960163386E8 ; 1.459730941951261E9 ; 1.4636484610521093E10 ; 0.0
82 ; 1.853636320911427E7 ; 2.0090860777260756E8 ; 1.4782698666628344E9 ; 1.4837387606537432E10 ; 0.0
83 ; 1.8531615055347636E7 ; 2.0091423513968447E8 ; 1.4968062298719487E9 ; 1.503829621431004E10 ; 0.0
84 ; 1.8520146438126214E7 ; 2.0091987726971602E8 ; 1.5153378449272964E9 ; 1.5239210449449724E10 ; 0.0
85 ; 1.851631757096815E7 ; 2.009255333393828E8 ; 1.5338579913654227E9 ; 1.544013032671944E10 ; 0.0
86 ; 1.8510985801635507E7 ; 2.0093120254902202E8 ; 1.5523743089363909E9 ; 1.5641055860058823E10 ; 0.0
87 ; 1.8506949125759676E7 ; 2.0093688412177932E8 ; 1.5708852947380264E9 ; 1.5841987062607845E10 ; 0.0
88 ; 1.8501529424827233E7 ; 2.0094257730278918E8 ; 1.589392243863786E9 ; 1.6042923946729624E10 ; 0.0
89 ; 1.8492625115187164E7 ; 2.0094828135838303E8 ; 1.6078937732886133E9 ; 1.6243866524032413E10 ; 0.0
90 ; 1.8488822705566354E7 ; 2.0095399557532546E8 ; 1.6263863984038005E9 ; 1.6444814805390797E10 ; 0.0
91 ; 1.8482803438102175E7 ; 2.0095971926007676E8 ; 1.644875221109367E9 ; 1.6645768800966122E10 ; 0.0
92 ; 1.8476860097363167E7 ; 2.0096545173808238E8 ; 1.6633580245474691E9 ; 1.6846728520226198E10 ; 0.0
93 ; 1.8468674224288836E7 ; 2.0097119235308754E8 ; 1.6818348846448324E9 ; 1.7047693971964281E10 ; 0.0
94 ; 1.8462628345023215E7 ; 2.0097694046647727E8 ; 1.7003035588691213E9 ; 1.7248665164317368E10 ; 0.0
95 ; 1.8457475800546996E7 ; 2.009826954566405E8 ; 1.7187661872141445E9 ; 1.7449642104783844E10 ; 0.0
96 ; 1.8447615242332976E7 ; 2.0098845671835777E8 ; 1.7372236630146914E9 ; 1.7650624800240486E10 ; 0.0
97 ; 1.8443443257998552E7 ; 2.00994223662212E8 ; 1.7556712782570243E9 ; 1.7851613256958843E10 ; 0.0
98 ; 1.8431080681126386E7 ; 2.009999957140212E8 ; 1.7741147215150228E9 ; 1.8052607480621056E10 ; 0.0
99 ; 1.8427102699236855E7 ; 2.0100577231429276E8 ; 1.792545802196149E9 ; 1.8253607476335075E10 ; 0.0
100 ; 1.8423439465652555E7 ; 2.0101155291769856E8 ; 1.810972904895386E9 ; 1.845461324864937E10 ; 0.0
101 ; 1.8411756502824165E7 ; 2.0101733699256992E8 ; 1.8293963443610384E9 ; 1.8655624801567066E10 ; 0.0
102 ; 1.839952228245356E7 ; 2.010231240204121E8 ; 1.8478081008638625E9 ; 1.8856642138559635E10 ; 0.0
103 ; 1.8391871252756722E7 ; 2.010289134954373E8 ; 1.866207623146316E9 ; 1.9057665262580048E10 ; 0.0
104 ; 1.8382988494757976E7 ; 2.010347049241159E8 ; 1.884599494399073E9 ; 1.9258694176075485E10 ; 0.0
105 ; 1.8378081954972677E7 ; 2.0104049782474467E8 ; 1.9029824828938308E9 ; 1.94597288809996E10 ; 0.0
106 ; 1.8368773431031812E7 ; 2.0104629172703218E8 ; 1.9213605648488035E9 ; 1.9660769378824345E10 ; 0.0
107 ; 1.8360410712532386E7 ; 2.0105208617169976E8 ; 1.9397293382798352E9 ; 1.9861815670551376E10 ; 0.0
108 ; 1.834931736115733E7 ; 2.0105788071009848E8 ; 1.9580897489923675E9 ; 2.0062867756723076E10 ; 0.0
109 ; 1.833711667583878E7 ; 2.0106367490384045E8 ; 1.976439066353525E9 ; 2.0263925637433174E10 ; 0.0
110 ; 1.83267229291353E7 ; 2.0106946832444504E8 ; 1.9947761830293636E9 ; 2.0464989312337013E10 ; 0.0
111 ; 1.831866214748258E7 ; 2.0107526055299836E8 ; 2.013102905958499E9 ; 2.0666058780661457E10 ; 0.0
112 ; 1.8310848881936196E7 ; 2.0108105117982632E8 ; 2.0314215681059816E9 ; 2.0867134041214455E10 ; 0.0
113 ; 1.8298844613101114E7 ; 2.0108683980418015E8 ; 2.049732416987918E9 ; 2.106821509239428E10 ; 0.0
114 ; 1.8291231193518616E7 ; 2.0109262603393435E8 ; 2.068031261601019E9 ; 2.126930193219846E10 ; 0.0
115 ; 1.8275548942459505E7 ; 2.0109840948529625E8 ; 2.0863224927945375E9 ; 2.1470394558232395E10 ; 0.0
116 ; 1.826955523224195E7 ; 2.0110418978252676E8 ; 2.1045980417369971E9 ; 2.167149296771769E10 ; 0.0
117 ; 1.8252934354166802E7 ; 2.0110996655767223E8 ; 2.122867596969239E9 ; 2.1872597157500217E10 ; 0.0
118 ; 1.8241680297087416E7 ; 2.011157394503064E8 ; 2.1411205313234057E9 ; 2.2073707124057888E10 ; 0.0
119 ; 1.8235323134463135E7 ; 2.0112150810728234E8 ; 2.159362211620493E9 ; 2.2274822863508194E10 ; 0.0
120 ; 1.822792142722051E7 ; 2.0112727218249422E8 ; 2.1775975347549562E9 ; 2.2475944371615475E10 ; 0.0
121 ; 1.8211054745089978E7 ; 2.0113303133664802E8 ; 2.1958254561821766E9 ; 2.267707164379797E10 ; 0.0
122 ; 1.8201526850597057E7 ; 2.0113878523704103E8 ; 2.2140365109272666E9 ; 2.2878204675134617E10 ; 0.0
123 ; 1.8188673412866138E7 ; 2.0114453355735013E8 ; 2.2322380377778635E9 ; 2.307934346037166E10 ; 0.0
124 ; 1.8176632217989635E7 ; 2.011502759774277E8 ; 2.2504267111907296E9 ; 2.328048799392901E10 ; 0.0
125 ; 1.816469569645796E7 ; 2.0115601218310577E8 ; 2.268603343408719E9 ; 2.3481638269906437E10 ; 0.0
126 ; 1.815066400487544E7 ; 2.0116174186600745E8 ; 2.286768039105177E9 ; 2.3682794282089542E10 ; 0.0
127 ; 1.813595981750618E7 ; 2.011674647233655E8 ; 2.3049187031100526E9 ; 2.388395602395555E10 ; 0.0
128 ; 1.8127016246593956E7 ; 2.0117318045784774E8 ; 2.323054662927559E9 ; 2.4085123488678917E10 ; 0.0
129 ; 1.8112338773801163E7 ; 2.0117888877738944E8 ; 2.341181679174153E9 ; 2.4286296669136765E10 ; 0.0
130 ; 1.8097107395863943E7 ; 2.0118458939503145E8 ; 2.359294017947954E9 ; 2.4487475557914154E10 ; 0.0
131 ; 1.808211778330588E7 ; 2.0119028202876496E8 ; 2.377391125343818E9 ; 2.4688660147309185E10 ; 0.0
132 ; 1.806073330134988E7 ; 2.0119596640138176E8 ; 2.395473243127124E9 ; 2.488985042933795E10 ; 0.0
133 ; 1.8038991371841576E7 ; 2.0120164224033028E8 ; 2.4135339764284735E9 ; 2.5091046395739334E10 ; 0.0
134 ; 1.8027538558532503E7 ; 2.0120730927757695E8 ; 2.431572967800315E9 ; 2.5292248037979664E10 ; 0.0
135 ; 1.8004159200181905E7 ; 2.0121296724947265E8 ; 2.4496005063588476E9 ; 2.549345534725724E10 ; 0.0
136 ; 1.798158716903824E7 ; 2.012186158966243E8 ; 2.4676046655590296E9 ; 2.5694668314506714E10 ; 0.0
137 ; 1.7964327365307122E7 ; 2.0122425496377105E8 ; 2.485586252728068E9 ; 2.589588693040334E10 ; 0.0
138 ; 1.7946110189079113E7 ; 2.0122988419966504E8 ; 2.503550580093375E9 ; 2.609711118536711E10 ; 0.0
139 ; 1.7923844583702452E7 ; 2.0123550335695672E8 ; 2.5214966902824545E9 ; 2.6298341069566776E10 ; 0.0
140 ; 1.7905198886963382E7 ; 2.0124111219208422E8 ; 2.539420534866157E9 ; 2.6499576572923733E10 ; 0.0
141 ; 1.788357813507194E7 ; 2.0124671046516672E8 ; 2.5573257337531204E9 ; 2.6700817685115818E10 ; 0.0
142 ; 1.7860641648055077E7 ; 2.0125229793990192E8 ; 2.575209311888192E9 ; 2.6902064395580986E10 ; 0.0
143 ; 1.784154028484916E7 ; 2.01257874383467E8 ; 2.5930699535362473E9 ; 2.710331669352089E10 ; 0.0
144 ; 1.7821224167059466E7 ; 2.0126343956642345E8 ; 2.6109114938210964E9 ; 2.7304574567904358E10 ; 0.0
145 ; 1.7811093848208692E7 ; 2.0126899326262498E8 ; 2.628732717988156E9 ; 2.7505838007470783E10 ; 0.0
146 ; 1.7793868546107758E7 ; 2.0127453524912915E8 ; 2.6465438118363647E9 ; 2.770710700073341E10 ; 0.0
147 ; 1.777825553313262E7 ; 2.0128006530611175E8 ; 2.6643376803824725E9 ; 2.790838153598254E10 ; 0.0
148 ; 1.7763717496006697E7 ; 2.0128558321678463E8 ; 2.682115935915605E9 ; 2.810966160128865E10 ; 0.0
149 ; 1.7753713871139325E7 ; 2.0129108876731625E8 ; 2.6998796534116116E9 ; 2.8310947184505436E10 ; 0.0
150 ; 1.773286885334913E7 ; 2.0129658174675503E8 ; 2.717633367282751E9 ; 2.851223827327275E10 ; 0.0
151 ; 1.7721578152001943E7 ; 2.013020619469556E8 ; 2.7353662361361003E9 ; 2.8713534855019505E10 ; 0.0
152 ; 1.7707448247044854E7 ; 2.0130752916250744E8 ; 2.753087814288102E9 ; 2.891483691696646E10 ; 0.0
153 ; 1.769564359599796E7 ; 2.013129831906662E8 ; 2.770795262535147E9 ; 2.9116144446128967E10 ; 0.0
154 ; 1.768096518083789E7 ; 2.0131842383128738E8 ; 2.788490906131145E9 ; 2.9317457429319633E10 ; 0.0
155 ; 1.766936352212014E7 ; 2.0132385088676223E8 ; 2.806171871311983E9 ; 2.951877585315092E10 ; 0.0
156 ; 1.7651071634465538E7 ; 2.0132926416195613E8 ; 2.823841234834103E9 ; 2.972009970403768E10 ; 0.0
157 ; 1.76380240501591E7 ; 2.0133466346414876E8 ; 2.841492306468569E9 ; 2.992142896819964E10 ; 0.0
158 ; 1.7623582016185552E7 ; 2.0134004860297674E8 ; 2.859130330518728E9 ; 3.0122763631663788E10 ; 0.0
159 ; 1.760831250323231E7 ; 2.0134541939037797E8 ; 2.8767539125349135E9 ; 3.0324103680266766E10 ; 0.0
160 ; 1.759090992587174E7 ; 2.0135077564053798E8 ; 2.894362225038146E9 ; 3.0525449099657143E10 ; 0.0
161 ; 1.7579311514979094E7 ; 2.013561171698381E8 ; 2.911953134964018E9 ; 3.072679987529768E10 ; 0.0
162 ; 1.756386999413849E7 ; 2.013614437968055E8 ; 2.9295324464789968E9 ; 3.0928155992467518E10 ; 0.0
163 ; 1.7553653433003027E7 ; 2.013667553420648E8 ; 2.9470963164731355E9 ; 3.1129517436264324E10 ; 0.0
164 ; 1.753199902561797E7 ; 2.0137205162829134E8 ; 2.9646499699061384E9 ; 3.1330884191606388E10 ; 0.0
165 ; 1.7522407139806468E7 ; 2.0137733248016626E8 ; 2.9821819689317565E9 ; 3.153225624323468E10 ; 0.0
166 ; 1.7499987505673464E7 ; 2.013825977243327E8 ; 2.999704376071563E9 ; 3.1733633575714848E10 ; 0.0
167 ; 1.748695291102889E7 ; 2.013878471893539E8 ; 3.017204363577236E9 ; 3.193501617343918E10 ; 0.0
168 ; 1.747316588569544E7 ; 2.013930807056724E8 ; 3.034691316488265E9 ; 3.2136404020628532E10 ; 0.0
169 ; 1.7459121485312767E7 ; 2.0139829810557076E8 ; 3.0521644823739605E9 ; 3.2337797101334206E10 ; 0.0
170 ; 1.7442652782944743E7 ; 2.0140349922313347E8 ; 3.0696236038592734E9 ; 3.2539195399439777E10 ; 0.0
171 ; 1.7425512571576566E7 ; 2.014086838942104E8 ; 3.087066256642218E9 ; 3.274059889866291E10 ; 0.0
172 ; 1.7407845650410943E7 ; 2.0141385195638108E8 ; 3.1044917692137947E9 ; 3.294200758255712E10 ; 0.0
173 ; 1.7393329201052338E7 ; 2.0141900324892047E8 ; 3.121899614864206E9 ; 3.3143421434513504E10 ; 0.0
174 ; 1.7387038731084533E7 ; 2.0142413761276573E8 ; 3.139292944065258E9 ; 3.3344840437762424E10 ; 0.0
175 ; 1.737887122862182E7 ; 2.0142925489048415E8 ; 3.1566799827963424E9 ; 3.354626457537519E10 ; 0.0
176 ; 1.7369416333276063E7 ; 2.01434354926242E8 ; 3.1740588540249643E9 ; 3.3747693830265675E10 ; 0.0
177 ; 1.735584074994225E7 ; 2.014394375657746E8 ; 3.1914282703582406E9 ; 3.3949128185191917E10 ; 0.0
178 ; 1.7344966167715818E7 ; 2.0144450265635723E8 ; 3.208784111108183E9 ; 3.415056762275769E10 ; 0.0
179 ; 1.734022714820333E7 ; 2.0144955004677695E8 ; 3.226129077275899E9 ; 3.4352012125414047E10 ; 0.0
180 ; 1.732641900421741E7 ; 2.0145457958730558E8 ; 3.2434693044241023E9 ; 3.455346167546082E10 ; 0.0
181 ; 1.7314136383199435E7 ; 2.0145959112967324E8 ; 3.26079572342832E9 ; 3.475491625504813E10 ; 0.0
182 ; 1.73096126717301E7 ; 2.0146458452704293E8 ; 3.278109859811519E9 ; 3.49563758461778E10 ; 0.0
183 ; 1.7301778321364895E7 ; 2.0146955963398594E8 ; 3.295419472483249E9 ; 3.515784043070485E10 ; 0.0
184 ; 1.729269094813326E7 ; 2.01474516306458E8 ; 3.312721250804614E9 ; 3.535930999033884E10 ; 0.0
185 ; 1.728112874573987E7 ; 2.0147945440177616E8 ; 3.3300139417527475E9 ; 3.5560784506645294E10 ; 0.0
186 ; 1.726861025962308E7 ; 2.014843737785965E8 ; 3.3472950704984875E9 ; 3.576226396104707E10 ; 0.0
187 ; 1.7261447767777905E7 ; 2.0148927429689243E8 ; 3.3645636807581105E9 ; 3.596374833482567E10 ; 0.0
188 ; 1.7252204394962765E7 ; 2.0149415581793398E8 ; 3.3818251285258884E9 ; 3.616523760912256E10 ; 0.0
189 ; 1.7239389915071566E7 ; 2.0149901820426726E8 ; 3.399077332920851E9 ; 3.636673176494049E10 ; 0.0
190 ; 1.7233995467045143E7 ; 2.0150386131969503E8 ; 3.4163167228359227E9 ; 3.656823078314476E10 ; 0.0
191 ; 1.72214935153884E7 ; 2.0150868502925757E8 ; 3.433550718302968E9 ; 3.6769734644464455E10 ; 0.0
192 ; 1.7214621085504398E7 ; 2.0151348919921443E8 ; 3.4507722118183565E9 ; 3.697124332949371E10 ; 0.0
193 ; 1.7200271697825406E7 ; 2.0151827369702652E8 ; 3.467986832903861E9 ; 3.7172756818692924E10 ; 0.0
194 ; 1.719671892878189E7 ; 2.0152303839133886E8 ; 3.4851871046016865E9 ; 3.737427509238995E10 ; 0.0
195 ; 1.7180519222045127E7 ; 2.0152778315196395E8 ; 3.5023838235304685E9 ; 3.7575798130781296E10 ; 0.0
