CSV File for the City 4 on Day 86
1 - Minute m 
2 - Power Consumed at minute m 
3 - Power Produced at minute m 
4 - Energy Consumed since the beginning of the day 
5 - Energy Produced since the beginning of the day 
6 - Energy Lost since the beginning of the day on lines starting from the city
 
0 ; 6831428.763461857 ; 1.0616216080271783E8 ; 0.0 ; 0.0 ; 0.0
1 ; 6839661.134018085 ; 1.063126928444156E8 ; 6831428.763461857 ; 1.0616216080271783E8 ; 0.0
2 ; 6848450.674114414 ; 1.0677225267192599E8 ; 1.3671089897479942E7 ; 2.1247485364713344E8 ; 0.0
3 ; 6855455.5985464975 ; 1.0754084452187127E8 ; 2.0519540571594357E7 ; 3.1924710631905943E8 ; 0.0
4 ; 6864621.1652913205 ; 1.0861847219325691E8 ; 2.7374996170140855E7 ; 4.267879508409307E8 ; 0.0
5 ; 6877747.474736488 ; 1.1000513902566957E8 ; 3.423961733543217E7 ; 5.354064230341876E8 ; 0.0
6 ; 6893850.200869114 ; 1.1170084787973085E8 ; 4.111736481016866E7 ; 6.454115620598571E8 ; 0.0
7 ; 6916758.607668517 ; 1.1370560112006962E8 ; 4.8011215011037774E7 ; 7.57112409939588E8 ; 0.0
8 ; 6949042.513839001 ; 1.1601940060104728E8 ; 5.492797361870629E7 ; 8.708180110596576E8 ; 0.0
9 ; 6999380.924407902 ; 1.1864224765543735E8 ; 6.187701613254529E7 ; 9.868374116607049E8 ; 0.0
10 ; 7077442.204177586 ; 1.2157414308621997E8 ; 6.887639705695319E7 ; 1.105479659316142E9 ; 0.0
11 ; 7202712.49026405 ; 1.2481508716161022E8 ; 7.595383926113078E7 ; 1.227053802402362E9 ; 0.0
12 ; 7399908.4700952135 ; 1.2836507961339298E8 ; 8.315655175139482E7 ; 1.3518688895639722E9 ; 0.0
13 ; 7592522.592957445 ; 1.3222411963858813E8 ; 9.055646022149004E7 ; 1.4802339691773653E9 ; 0.0
14 ; 7613711.508048913 ; 1.3639220590442222E8 ; 9.814898281444749E7 ; 1.6124580888159535E9 ; 0.0
15 ; 7620919.283900974 ; 1.4086933655653375E8 ; 1.057626943224964E8 ; 1.7488502947203758E9 ; 0.0
16 ; 7628863.972899304 ; 1.4565550923029396E8 ; 1.1338361360639738E8 ; 1.8897196312769096E9 ; 0.0
17 ; 7635693.601801756 ; 1.5075072106508115E8 ; 1.2101247757929668E8 ; 2.0353751405072036E9 ; 0.0
18 ; 7648397.366293167 ; 1.561549687213087E8 ; 1.2864817118109843E8 ; 2.1861258615722847E9 ; 0.0
19 ; 7656649.148088596 ; 1.6186824839997116E8 ; 1.362965685473916E8 ; 2.3422808302935934E9 ; 0.0
20 ; 7664673.121656916 ; 1.678905558644462E8 ; 1.439532176954802E8 ; 2.5041490786935644E9 ; 0.0
21 ; 7676794.406957615 ; 1.742218864642683E8 ; 1.5161789081713712E8 ; 2.6720396345580106E9 ; 0.0
22 ; 7684014.680457943 ; 1.808622351605721E8 ; 1.5929468522409475E8 ; 2.846261521022279E9 ; 0.0
23 ; 7694403.893334344 ; 1.878115965528972E8 ; 1.669786999045527E8 ; 3.027123756182851E9 ; 0.0
24 ; 7700529.033119589 ; 1.950699649070409E8 ; 1.7467310379788703E8 ; 3.2149353527357483E9 ; 0.0
25 ; 7709634.5535888 ; 2.0132537508183426E8 ; 1.8237363283100662E8 ; 3.4100053176427894E9 ; 0.0
26 ; 7717981.350255946 ; 2.0133136859506837E8 ; 1.9008326738459542E8 ; 3.6113306927246237E9 ; 0.0
27 ; 7728803.465242325 ; 2.0133770817757946E8 ; 1.9780124873485136E8 ; 3.812662061319692E9 ; 0.0
28 ; 7736402.385299692 ; 2.0134438704908466E8 ; 2.055300522000937E8 ; 4.0139997694972715E9 ; 0.0
29 ; 7743196.5483363755 ; 2.0135139824012387E8 ; 2.1326645458539337E8 ; 4.215344156546356E9 ; 0.0
30 ; 7752649.853565079 ; 2.013587346201638E8 ; 2.2100965113372976E8 ; 4.41669555478648E9 ; 0.0
31 ; 7761251.683893043 ; 2.0136638892491025E8 ; 2.2876230098729482E8 ; 4.618054289406644E9 ; 0.0
32 ; 7771132.093816748 ; 2.013743537826545E8 ; 2.3652355267118788E8 ; 4.819420678331554E9 ; 0.0
33 ; 7779100.227485186 ; 2.0138262173950744E8 ; 2.4429468476500463E8 ; 5.020795032114209E9 ; 0.0
34 ; 7786495.783453799 ; 2.0139118528340065E8 ; 2.520737849924898E8 ; 5.222177653853717E9 ; 0.0
35 ; 7792715.436923378 ; 2.014000368667596E8 ; 2.598602807759436E8 ; 5.423568839137117E9 ; 0.0
36 ; 7797867.585862007 ; 2.0140916892777896E8 ; 2.67652996212867E8 ; 5.624968876003877E9 ; 0.0
37 ; 7805915.337678528 ; 2.0141857391025192E8 ; 2.75450863798729E8 ; 5.826378044931656E9 ; 0.0
38 ; 7813010.139786555 ; 2.0142824428192705E8 ; 2.8325677913640755E8 ; 6.0277966188419075E9 ; 0.0
39 ; 7819546.05382995 ; 2.0143817255138513E8 ; 2.910697892761941E8 ; 6.229224863123835E9 ; 0.0
40 ; 7824842.037756416 ; 2.0144835128344458E8 ; 2.9888933533002406E8 ; 6.43066303567522E9 ; 0.0
41 ; 7832446.172783336 ; 2.0145877311311978E8 ; 3.067141773677805E8 ; 6.632111386958664E9 ; 0.0
42 ; 7836693.16624943 ; 2.0146943075816807E8 ; 3.145466235405638E8 ; 6.833570160071784E9 ; 0.0
43 ; 7843486.315770092 ; 2.0148031703027213E8 ; 3.223833167068133E8 ; 7.035039590829952E9 ; 0.0
44 ; 7848587.271292034 ; 2.014914248449132E8 ; 3.3022680302258337E8 ; 7.236519907860225E9 ; 0.0
45 ; 7851870.287503234 ; 2.0150274722999632E8 ; 3.380753902938754E8 ; 7.438011332705138E9 ; 0.0
46 ; 7853679.654026666 ; 2.0151427733329472E8 ; 3.4592726058137864E8 ; 7.639514079935135E9 ; 0.0
47 ; 7858937.004067068 ; 2.0152600842878324E8 ; 3.537809402354053E8 ; 7.84102835726843E9 ; 0.0
48 ; 7862118.774862807 ; 2.0153793392193297E8 ; 3.616398772394724E8 ; 8.042554365697213E9 ; 0.0
49 ; 7866812.388138182 ; 2.0155004735404032E8 ; 3.695019960143352E8 ; 8.244092299619146E9 ; 0.0
50 ; 7867455.0270374585 ; 2.0156234240566313E8 ; 3.773688084024734E8 ; 8.4456423469731865E9 ; 0.0
51 ; 7871114.7194663435 ; 2.0157481289923602E8 ; 3.8523626342951083E8 ; 8.647204689378849E9 ; 0.0
52 ; 7875012.258177686 ; 2.0158745280093536E8 ; 3.9310737814897716E8 ; 8.848779502278086E9 ; 0.0
53 ; 7873799.5489861565 ; 2.0160025622186148E8 ; 4.0098239040715486E8 ; 9.050366955079021E9 ; 0.0
54 ; 7877743.819474659 ; 2.0161321741860366E8 ; 4.08856189956141E8 ; 9.251967211300882E9 ; 0.0
55 ; 7881714.422267978 ; 2.0162633079324993E8 ; 4.1673393377561563E8 ; 9.453580428719486E9 ; 0.0
56 ; 7881756.945332076 ; 2.016395908929009E8 ; 4.246156481978836E8 ; 9.655206759512735E9 ; 0.0
57 ; 7883167.91683276 ; 2.0165299240874273E8 ; 4.3249740514321566E8 ; 9.856846350405636E9 ; 0.0
58 ; 7885082.007922407 ; 2.016665301747311E8 ; 4.403805730600484E8 ; 1.0058499342814379E10 ; 0.0
59 ; 7888625.414835927 ; 2.016801991659351E8 ; 4.482656550679708E8 ; 1.0260165872989109E10 ; 0.0
60 ; 7890730.924420654 ; 2.0169399449658483E8 ; 4.5615428048280674E8 ; 1.0461846072155045E10 ; 0.0
61 ; 7894495.630157691 ; 2.0170791141786498E8 ; 4.640450114072274E8 ; 1.0663540066651628E10 ; 0.0
62 ; 7892225.401861664 ; 2.0172194531549156E8 ; 4.719395070373851E8 ; 1.0865247978069494E10 ; 0.0
63 ; 7894074.152103608 ; 2.0173609170710704E8 ; 4.798317324392468E8 ; 1.1066969923384985E10 ; 0.0
64 ; 7897250.394219842 ; 2.017503462395248E8 ; 4.877258065913504E8 ; 1.1268706015092093E10 ; 0.0
65 ; 7897928.51750267 ; 2.0176470468585217E8 ; 4.956230569855702E8 ; 1.1470456361331617E10 ; 0.0
66 ; 7897484.644759625 ; 2.0177916294251716E8 ; 5.0352098550307286E8 ; 1.167222106601747E10 ; 0.0
67 ; 7901595.132371645 ; 2.0179371702622285E8 ; 5.114184701478325E8 ; 1.1874000228959986E10 ; 0.0
68 ; 7902536.8196212975 ; 2.018083630708494E8 ; 5.193200652802042E8 ; 1.2075793945986208E10 ; 0.0
69 ; 7902892.150156537 ; 2.018230973243229E8 ; 5.272226020998255E8 ; 1.2277602309057056E10 ; 0.0
70 ; 7907117.3061017655 ; 2.0183791614546698E8 ; 5.3512549424998206E8 ; 1.247942540638138E10 ; 0.0
71 ; 7905599.196315032 ; 2.0185281600085178E8 ; 5.430326115560838E8 ; 1.2681263322526848E10 ; 0.0
72 ; 7908238.510633601 ; 2.0186779346165317E8 ; 5.509382107523988E8 ; 1.28831161385277E10 ; 0.0
73 ; 7907114.150357191 ; 2.0188284520053297E8 ; 5.588464492630324E8 ; 1.3084983931989353E10 ; 0.0
74 ; 7910914.248445755 ; 2.0189796798855016E8 ; 5.667535634133897E8 ; 1.3286866777189886E10 ; 0.0
75 ; 7909718.076842189 ; 2.019131586921109E8 ; 5.746644776618354E8 ; 1.3488764745178436E10 ; 0.0
76 ; 7908356.8341099685 ; 2.0192841426996493E8 ; 5.825741957386776E8 ; 1.3690677903870546E10 ; 0.0
77 ; 7911445.376010427 ; 2.0194373177025396E8 ; 5.904825525727876E8 ; 1.389260631814051E10 ; 0.0
78 ; 7908726.55497159 ; 2.019591083276168E8 ; 5.983939979487981E8 ; 1.4094550049910765E10 ; 0.0
79 ; 7905469.333158569 ; 2.019745411603562E8 ; 6.063027245037696E8 ; 1.4296509158238382E10 ; 0.0
80 ; 7906894.605943032 ; 2.019900275676695E8 ; 6.142081938369282E8 ; 1.4498483699398739E10 ; 0.0
81 ; 7904921.004363362 ; 2.0200556492694688E8 ; 6.221150884428713E8 ; 1.4700473726966408E10 ; 0.0
82 ; 7902281.078145013 ; 2.0202115069113806E8 ; 6.300200094472347E8 ; 1.4902479291893354E10 ; 0.0
83 ; 7899972.834447148 ; 2.0203678238618997E8 ; 6.379222905253798E8 ; 1.5104500442584492E10 ; 0.0
84 ; 7896817.492962278 ; 2.0205245760855517E8 ; 6.458222633598269E8 ; 1.5306537224970682E10 ; 0.0
85 ; 7893758.0738663105 ; 2.0206817402277267E8 ; 6.537190808527892E8 ; 1.5508589682579237E10 ; 0.0
86 ; 7895519.456160369 ; 2.020839293591204E8 ; 6.616128389266555E8 ; 1.5710657856602009E10 ; 0.0
87 ; 7889150.98878184 ; 2.0209972141133958E8 ; 6.69508358382816E8 ; 1.591274178596113E10 ; 0.0
88 ; 7890224.533784233 ; 2.0211554803443038E8 ; 6.773975093715978E8 ; 1.6114841507372469E10 ; 0.0
89 ; 7885062.566948384 ; 2.021314071425182E8 ; 6.85287733905382E8 ; 1.6316957055406898E10 ; 0.0
90 ; 7885331.222297673 ; 2.021472967067896E8 ; 6.931727964723305E8 ; 1.6519088462549417E10 ; 0.0
91 ; 7883044.945297908 ; 2.021632147534971E8 ; 7.010581276946281E8 ; 1.6721235759256207E10 ; 0.0
92 ; 7878877.173103118 ; 2.021791593620306E8 ; 7.089411726399261E8 ; 1.6923398974009703E10 ; 0.0
93 ; 7878542.655420422 ; 2.0219512866305587E8 ; 7.168200498130292E8 ; 1.7125578133371733E10 ; 0.0
94 ; 7873790.414097309 ; 2.0221112083671668E8 ; 7.246985924684496E8 ; 1.732777326203479E10 ; 0.0
95 ; 7868811.028535514 ; 2.0222713411090034E8 ; 7.325723828825469E8 ; 1.7529984382871506E10 ; 0.0
96 ; 7870999.478017789 ; 2.022431667595648E8 ; 7.404411939110824E8 ; 1.7732211516982407E10 ; 0.0
97 ; 7863207.255817661 ; 2.0225921710112506E8 ; 7.483121933891002E8 ; 1.793445468374197E10 ; 0.0
98 ; 7862103.87209823 ; 2.0227528349689838E8 ; 7.561754006449178E8 ; 1.8136713900843094E10 ; 0.0
99 ; 7858993.694746529 ; 2.0229136434960526E8 ; 7.64037504517016E8 ; 1.8338989184339993E10 ; 0.0
100 ; 7855129.494831572 ; 2.0230745810192564E8 ; 7.718964982117625E8 ; 1.8541280548689598E10 ; 0.0
101 ; 7850523.575943676 ; 2.0232356323510793E8 ; 7.797516277065941E8 ; 1.8743588006791523E10 ; 0.0
102 ; 7849896.196339761 ; 2.0233967826762944E8 ; 7.876021512825378E8 ; 1.894591157002663E10 ; 0.0
103 ; 7846034.331294851 ; 2.0235580175390652E8 ; 7.954520474788775E8 ; 1.914825124829426E10 ; 0.0
104 ; 7843542.978189714 ; 2.0237193228305274E8 ; 8.032980818101724E8 ; 1.9350607050048164E10 ; 0.0
105 ; 7840645.864988177 ; 2.0238806847768337E8 ; 8.111416247883621E8 ; 1.955297898233122E10 ; 0.0
106 ; 7836056.112565791 ; 2.024042089927649E8 ; 8.189822706533504E8 ; 1.9755367050808903E10 ; 0.0
107 ; 7831976.252054898 ; 2.024203525145074E8 ; 8.268183267659161E8 ; 1.9957771259801666E10 ; 0.0
108 ; 7828808.011586679 ; 2.0243649775929907E8 ; 8.34650303017971E8 ; 2.0160191612316174E10 ; 0.0
109 ; 7823879.109582525 ; 2.0245264347268054E8 ; 8.424791110295577E8 ; 2.0362628110075474E10 ; 0.0
110 ; 7818075.780339666 ; 2.0246878842835805E8 ; 8.503029901391402E8 ; 2.0565080753548153E10 ; 0.0
111 ; 7816872.272400048 ; 2.0248493142725408E8 ; 8.5812106591948E8 ; 2.076754954197651E10 ; 0.0
112 ; 7813792.31550746 ; 2.0250107129659376E8 ; 8.6593793819188E8 ; 2.0970034473403763E10 ; 0.0
113 ; 7806053.950479419 ; 2.0251720688902584E8 ; 8.737517305073874E8 ; 2.1172535544700356E10 ; 0.0
114 ; 7805270.355927182 ; 2.0253333708177695E8 ; 8.815577844578668E8 ; 2.1375052751589382E10 ; 0.0
115 ; 7798018.278730855 ; 2.0254946077583808E8 ; 8.89363054813794E8 ; 2.1577586088671158E10 ; 0.0
116 ; 7794968.323586083 ; 2.0256557689518145E8 ; 8.971610730925249E8 ; 2.1780135549446995E10 ; 0.0
117 ; 7790915.626383695 ; 2.0258168438600743E8 ; 9.04956041416111E8 ; 2.1982701126342175E10 ; 0.0
118 ; 7785511.9054225115 ; 2.0259778221601972E8 ; 9.127469570424947E8 ; 2.2185282810728184E10 ; 0.0
119 ; 7783096.239298545 ; 2.0261386937372783E8 ; 9.205324689479172E8 ; 2.2387880592944202E10 ; 0.0
120 ; 7777004.385640205 ; 2.0262994486777607E8 ; 9.283155651872158E8 ; 2.2590494462317932E10 ; 0.0
121 ; 7772579.2799924435 ; 2.0264600772629783E8 ; 9.360925695728561E8 ; 2.2793124407185707E10 ; 0.0
122 ; 7766262.543151763 ; 2.0266205699629387E8 ; 9.438651488528485E8 ; 2.2995770414912006E10 ; 0.0
123 ; 7765329.133001402 ; 2.026780917430344E8 ; 9.516314113960003E8 ; 2.31984324719083E10 ; 0.0
124 ; 7759514.740740434 ; 2.0269411104948333E8 ; 9.593967405290017E8 ; 2.3401110563651333E10 ; 0.0
125 ; 7756402.496481062 ; 2.027101140157441E8 ; 9.671562552697421E8 ; 2.3603804674700817E10 ; 0.0
126 ; 7752023.45427849 ; 2.0272609975852638E8 ; 9.749126577662232E8 ; 2.380651478871656E10 ; 0.0
127 ; 7742851.305863102 ; 2.027420674106325E8 ; 9.826646812205017E8 ; 2.4009240888475086E10 ; 0.0
128 ; 7738814.182310427 ; 2.0275801612046316E8 ; 9.904075325263648E8 ; 2.421198295588572E10 ; 0.0
129 ; 7733340.472432857 ; 2.0277394505154142E8 ; 9.981463467086753E8 ; 2.4414740972006184E10 ; 0.0
130 ; 7725956.094700805 ; 2.0278985338205436E8 ; 1.0058796871811081E9 ; 2.4617514917057724E10 ; 0.0
131 ; 7719648.366212363 ; 2.0280574030441165E8 ; 1.0136056432758089E9 ; 2.4820304770439777E10 ; 0.0
132 ; 7711393.904718652 ; 2.0282160502482066E8 ; 1.0213252916420213E9 ; 2.502311051074419E10 ; 0.0
133 ; 7706419.746264158 ; 2.0283744676287672E8 ; 1.0290366855467399E9 ; 2.5225932115769012E10 ; 0.0
134 ; 7697010.504746033 ; 2.028532647511691E8 ; 1.036743105293004E9 ; 2.542876956253189E10 ; 0.0
135 ; 7686501.618266964 ; 2.0286905823490068E8 ; 1.0444401157977501E9 ; 2.563162282728306E10 ; 0.0
136 ; 7681543.160763756 ; 2.0288482647152233E8 ; 1.052126617416017E9 ; 2.583449188551796E10 ; 0.0
137 ; 7675493.809256834 ; 2.0290056873037973E8 ; 1.0598081605767808E9 ; 2.6037376711989483E10 ; 0.0
138 ; 7665110.30753886 ; 2.0291628429237387E8 ; 1.0674836543860376E9 ; 2.6240277280719864E10 ; 0.0
139 ; 7654715.9224477615 ; 2.029319724496332E8 ; 1.0751487646935763E9 ; 2.6443193565012238E10 ; 0.0
140 ; 7644485.495523844 ; 2.029476325051981E8 ; 1.082803480616024E9 ; 2.6646125537461872E10 ; 0.0
141 ; 7638710.305163525 ; 2.0296326377271634E8 ; 1.090447966111548E9 ; 2.684907316996707E10 ; 0.0
142 ; 7629471.603404851 ; 2.0297886557614985E8 ; 1.0980866764167116E9 ; 2.7052036433739788E10 ; 0.0
143 ; 7622411.760145409 ; 2.0299443724949163E8 ; 1.1057161480201163E9 ; 2.7255015299315937E10 ; 0.0
144 ; 7611561.462064933 ; 2.0300997813649312E8 ; 1.1133385597802618E9 ; 2.745800973656543E10 ; 0.0
145 ; 7607653.497897951 ; 2.0302548759040108E8 ; 1.1209501212423267E9 ; 2.7661019714701923E10 ; 0.0
146 ; 7601315.504367396 ; 2.0304096497370377E8 ; 1.1285577747402246E9 ; 2.7864045202292324E10 ; 0.0
147 ; 7595283.095990837 ; 2.030564096578864E8 ; 1.136159090244592E9 ; 2.806708616726603E10 ; 0.0
148 ; 7590069.553589228 ; 2.0307182102319476E8 ; 1.1437543733405828E9 ; 2.8270142576923916E10 ; 0.0
149 ; 7584122.575822296 ; 2.0308719845840776E8 ; 1.1513444428941722E9 ; 2.847321439794711E10 ; 0.0
150 ; 7580704.919833776 ; 2.0310254136061743E8 ; 1.1589285654699945E9 ; 2.8676301596405518E10 ; 0.0
151 ; 7574858.406015711 ; 2.0311784913501677E8 ; 1.1665092703898282E9 ; 2.8879404137766136E10 ; 0.0
152 ; 7568102.682651163 ; 2.031331211946953E8 ; 1.1740841287958438E9 ; 2.9082521986901154E10 ; 0.0
153 ; 7561449.080499153 ; 2.031483569604412E8 ; 1.1816522314784951E9 ; 2.9285655108095848E10 ; 0.0
154 ; 7555293.281431014 ; 2.0316355586055088E8 ; 1.1892136805589943E9 ; 2.948880346505629E10 ; 0.0
155 ; 7550317.898582035 ; 2.031787173306445E8 ; 1.1967689738404253E9 ; 2.969196702091684E10 ; 0.0
156 ; 7545623.019701366 ; 2.031938408134885E8 ; 1.2043192917390072E9 ; 2.9895145738247482E10 ; 0.0
157 ; 7537922.528570574 ; 2.0320892575882384E8 ; 1.2118649147587087E9 ; 3.009833957906097E10 ; 0.0
158 ; 7531911.731072797 ; 2.0322397162320003E8 ; 1.2194028372872794E9 ; 3.0301548504819794E10 ; 0.0
159 ; 7525568.608841211 ; 2.0323897786981523E8 ; 1.2269347490183523E9 ; 3.0504772476442993E10 ; 0.0
160 ; 7520927.082280905 ; 2.0325394396836156E8 ; 1.2344603176271935E9 ; 3.070801145431281E10 ; 0.0
161 ; 7514134.354067996 ; 2.0326886939487547E8 ; 1.2419812447094743E9 ; 3.091126539828117E10 ; 0.0
162 ; 7508807.578190298 ; 2.032837536315936E8 ; 1.2494953790635424E9 ; 3.1114534267676044E10 ; 0.0
163 ; 7498895.792475817 ; 2.0329859616681325E8 ; 1.2570041866417327E9 ; 3.1317818021307636E10 ; 0.0
164 ; 7495658.563632696 ; 2.0331339649475747E8 ; 1.2645030824342084E9 ; 3.152111661747445E10 ; 0.0
165 ; 7487472.385600475 ; 2.033281541154449E8 ; 1.2719987409978411E9 ; 3.1724430013969208E10 ; 0.0
166 ; 7482137.174918252 ; 2.0334286853456378E8 ; 1.2794862133834417E9 ; 3.1927758168084652E10 ; 0.0
167 ; 7475955.413322662 ; 2.033575392633504E8 ; 1.2869683505583599E9 ; 3.2131101036619217E10 ; 0.0
168 ; 7469148.551399603 ; 2.033721658184712E8 ; 1.2944443059716825E9 ; 3.233445857588257E10 ; 0.0
169 ; 7461717.166374527 ; 2.0338674772190922E8 ; 1.3019134545230823E9 ; 3.253783074170104E10 ; 0.0
170 ; 7456746.466653111 ; 2.03401284500854E8 ; 1.3093751716894567E9 ; 3.2741217489422947E10 ; 0.0
171 ; 7453568.717310879 ; 2.0341577568759525E8 ; 1.3168319181561098E9 ; 3.29446187739238E10 ; 0.0
172 ; 7444651.152204952 ; 2.0343022081941992E8 ; 1.3242854868734207E9 ; 3.3148034549611397E10 ; 0.0
173 ; 7440483.076126957 ; 2.034446194385129E8 ; 1.3317301380256257E9 ; 3.3351464770430817E10 ; 0.0
174 ; 7434861.792671852 ; 2.0345897109186044E8 ; 1.3391706211017528E9 ; 3.355490938986933E10 ; 0.0
175 ; 7429993.919466658 ; 2.0347327533115748E8 ; 1.3466054828944247E9 ; 3.3758368360961193E10 ; 0.0
176 ; 7425048.331415047 ; 2.034875317127172E8 ; 1.3540354768138914E9 ; 3.396184163629235E10 ; 0.0
177 ; 7422751.681367901 ; 2.0350173979738414E8 ; 1.3614605251453063E9 ; 3.416532916800507E10 ; 0.0
178 ; 7418004.506149395 ; 2.0351589915044972E8 ; 1.3688832768266742E9 ; 3.436883090780245E10 ; 0.0
179 ; 7411806.155449443 ; 2.0353000934157076E8 ; 1.3763012813328235E9 ; 3.45723468069529E10 ; 0.0
180 ; 7410599.6499630995 ; 2.035440699446904E8 ; 1.383713087488273E9 ; 3.477587681629447E10 ; 0.0
181 ; 7406239.957647327 ; 2.0355808053796175E8 ; 1.391123687138236E9 ; 3.497942088623916E10 ; 0.0
182 ; 7404144.396891082 ; 2.0357204070367387E8 ; 1.3985299270958834E9 ; 3.518297896677712E10 ; 0.0
183 ; 7397100.633148678 ; 2.0358595002818012E8 ; 1.4059340714927745E9 ; 3.53865510074808E10 ; 0.0
184 ; 7395801.887744129 ; 2.0359980810182893E8 ; 1.4133311721259232E9 ; 3.559013695750898E10 ; 0.0
185 ; 7390778.057385448 ; 2.0361361451889655E8 ; 1.4207269740136673E9 ; 3.579373676561081E10 ; 0.0
186 ; 7388650.321722078 ; 2.036273688775221E8 ; 1.4281177520710528E9 ; 3.599735038012971E10 ; 0.0
187 ; 7380871.784708714 ; 2.0364107077964467E8 ; 1.4355064023927748E9 ; 3.620097774900723E10 ; 0.0
188 ; 7379274.924058964 ; 2.0365471983094227E8 ; 1.4428872741774836E9 ; 3.640461881978688E10 ; 0.0
189 ; 7372736.212591862 ; 2.0366831564077297E8 ; 1.4502665491015425E9 ; 3.660827353961782E10 ; 0.0
190 ; 7369058.079399867 ; 2.0368185782211754E8 ; 1.4576392853141344E9 ; 3.681194185525859E10 ; 0.0
191 ; 7368169.517352963 ; 2.036953459915242E8 ; 1.4650083433935342E9 ; 3.701562371308071E10 ; 0.0
192 ; 7362974.1392625 ; 2.037087797690549E8 ; 1.4723765129108872E9 ; 3.7219319059072235E10 ; 0.0
193 ; 7356226.818111769 ; 2.037221587782334E8 ; 1.4797394870501497E9 ; 3.742302783884129E10 ; 0.0
194 ; 7354534.033006329 ; 2.0373548264599496E8 ; 1.4870957138682613E9 ; 3.762674999761953E10 ; 0.0
195 ; 7354086.959659954 ; 2.037487510026375E8 ; 1.4944502479012678E9 ; 3.7830485480265526E10 ; 0.0
196 ; 7346549.573685597 ; 2.037619634817744E8 ; 1.5018043348609278E9 ; 3.8034234231268166E10 ; 0.0
197 ; 7343226.21762895 ; 2.0377511972028854E8 ; 1.5091508844346135E9 ; 3.823799619474994E10 ; 0.0
198 ; 7336713.037213442 ; 2.0378821935828823E8 ; 1.5164941106522424E9 ; 3.844177131447023E10 ; 0.0
199 ; 7333938.1361577995 ; 2.0380126203906393E8 ; 1.5238308236894557E9 ; 3.864555953382852E10 ; 0.0
200 ; 7329066.4844914945 ; 1.8039083474266183E8 ; 1.5311647618256135E9 ; 3.8849360795867584E10 ; 0.0
