CSV File for the City 4 on Day 177
1 - Minute m 
2 - Power Consumed at minute m 
3 - Power Produced at minute m 
4 - Energy Consumed since the beginning of the day 
5 - Energy Produced since the beginning of the day 
6 - Energy Lost since the beginning of the day on lines starting from the city
 
0 ; 1771252.1262933875 ; 1.0608128840650472E8 ; 0.0 ; 0.0 ; 0.0
1 ; 1779539.809050985 ; 1.0623175702213174E8 ; 1771252.1262933875 ; 1.0608128840650472E8 ; 0.0
2 ; 1787672.9952958582 ; 1.0669125854950354E8 ; 3550791.9353443724 ; 2.1231304542863646E8 ; 0.0
3 ; 1792309.717533667 ; 1.07459797716851E8 ; 5338464.930640231 ; 3.1900430397814E8 ; 0.0
4 ; 1802153.6441464082 ; 1.0853737877135742E8 ; 7130774.648173898 ; 4.26464101694991E8 ; 0.0
5 ; 1810122.5681155112 ; 1.0992400545232522E8 ; 8932928.292320307 ; 5.350014804663484E8 ; 0.0
6 ; 1827820.9529186669 ; 1.1161968096703014E8 ; 1.074305086043582E7 ; 6.449254859186736E8 ; 0.0
7 ; 1850845.7066531293 ; 1.13624407969621E8 ; 1.2570871813354487E7 ; 7.565451668857038E8 ; 0.0
8 ; 1883550.2498667627 ; 1.1593818854338372E8 ; 1.4421717520007616E7 ; 8.701695748553247E8 ; 0.0
9 ; 1931796.0968261517 ; 1.1856102418664622E8 ; 1.6305267769874379E7 ; 9.861077633987085E8 ; 0.0
10 ; 2011406.3370759587 ; 1.2149291580254501E8 ; 1.823706386670053E7 ; 1.1046687875853548E9 ; 0.0
11 ; 2127901.732907046 ; 1.2473386369281909E8 ; 2.024847020377649E7 ; 1.2261617033878999E9 ; 0.0
12 ; 2329245.489671007 ; 1.2828386755572942E8 ; 2.2376371936683536E7 ; 1.350895567080719E9 ; 0.0
13 ; 2518065.285455092 ; 1.3214292648813951E8 ; 2.4705617426354542E7 ; 1.4791794346364484E9 ; 0.0
14 ; 2542850.0847158358 ; 1.363110389917215E8 ; 2.7223682711809635E7 ; 1.611322361124588E9 ; 0.0
15 ; 2549064.355502945 ; 1.407882029831894E8 ; 2.976653279652547E7 ; 1.7476334001163096E9 ; 0.0
16 ; 2557939.202509857 ; 1.4557441580839446E8 ; 3.2315597152028415E7 ; 1.888421603099499E9 ; 0.0
17 ; 2564904.9927796554 ; 1.5066967426006088E8 ; 3.487353635453827E7 ; 2.0339960189078934E9 ; 0.0
18 ; 2574214.9711204916 ; 1.5607397459888625E8 ; 3.743844134731793E7 ; 2.1846656931679544E9 ; 0.0
19 ; 2581099.7214730373 ; 1.617873125776873E8 ; 4.001265631843842E7 ; 2.340739667766841E9 ; 0.0
20 ; 2588795.4527410003 ; 1.6780968346823308E8 ; 4.259375603991146E7 ; 2.502526980344528E9 ; 0.0
21 ; 2601338.9302212577 ; 1.741410820903829E8 ; 4.518255149265245E7 ; 2.6703366638127613E9 ; 0.0
22 ; 2607849.949726867 ; 1.8078150284312683E8 ; 4.778389042287371E7 ; 2.8444777459031444E9 ; 0.0
23 ; 2615364.434952077 ; 1.8773093973711795E8 ; 5.039174037260058E7 ; 3.025259248746271E9 ; 0.0
24 ; 2625698.703190853 ; 1.9498938642828763E8 ; 5.300710480755266E7 ; 3.212990188483389E9 ; 0.0
25 ; 2633141.5263111717 ; 2.0124487715032607E8 ; 5.563280351074351E7 ; 3.4079795749116764E9 ; 0.0
26 ; 2640297.5063838395 ; 2.0125095278617257E8 ; 5.826594503705469E7 ; 3.6092244520620027E9 ; 0.0
27 ; 2649986.088136311 ; 2.0125737542744857E8 ; 6.0906242543438524E7 ; 3.810475404848175E9 ; 0.0
28 ; 2656902.7223368613 ; 2.0126413765536183E8 ; 6.355622863157483E7 ; 4.011732780275624E9 ; 0.0
29 ; 2664953.1966447327 ; 2.0127123186738336E8 ; 6.621313135391169E7 ; 4.2129969179309855E9 ; 0.0
30 ; 2676218.1234396067 ; 2.0127865030971166E8 ; 6.887808455055642E7 ; 4.414268149798368E9 ; 0.0
31 ; 2681293.9497467335 ; 2.0128638510853896E8 ; 7.155430267399603E7 ; 4.61554680010808E9 ; 0.0
32 ; 2690371.977291477 ; 2.0129442829992545E8 ; 7.423559662374276E7 ; 4.816833185216619E9 ; 0.0
33 ; 2695061.024060855 ; 2.0130277185812432E8 ; 7.692596860103424E7 ; 5.018127613516544E9 ; 0.0
34 ; 2702048.6772322156 ; 2.0131140772223592E8 ; 7.96210296250951E7 ; 5.219430385374669E9 ; 0.0
35 ; 2712695.644940145 ; 2.0132032782110232E8 ; 8.232307830232732E7 ; 5.420741793096905E9 ; 0.0
36 ; 2719118.2253165785 ; 2.0132952409638572E8 ; 8.503577394726746E7 ; 5.622062120918007E9 ; 0.0
37 ; 2723401.8148388946 ; 2.0133898852380186E8 ; 8.775489217258404E7 ; 5.823391645014393E9 ; 0.0
38 ; 2730509.817310984 ; 2.0134871313250506E8 ; 9.047829398742294E7 ; 6.024730633538195E9 ; 0.0
39 ; 2738307.8066563704 ; 2.0135869002264422E8 ; 9.320880380473393E7 ; 6.2260793466707E9 ; 0.0
40 ; 2743859.920401615 ; 2.013689113811282E8 ; 9.594711161139031E7 ; 6.427438036693344E9 ; 0.0
41 ; 2747278.6255756104 ; 2.0137936949565423E8 ; 9.869097153179193E7 ; 6.628806948074472E9 ; 0.0
42 ; 2753120.366429916 ; 2.0139005676706785E8 ; 1.0143825015736754E8 ; 6.830186317570127E9 ; 0.0
43 ; 2757193.4011633387 ; 2.01400965720131E8 ; 1.0419137052379745E8 ; 7.031576374337194E9 ; 0.0
44 ; 2763811.3807648784 ; 2.0141208901278487E8 ; 1.0694856392496079E8 ; 7.232977340057325E9 ; 0.0
45 ; 2769745.031267382 ; 2.0142341944399747E8 ; 1.0971237530572566E8 ; 7.43438942907011E9 ; 0.0
46 ; 2771123.915191523 ; 2.014349499602915E8 ; 1.1248212033699304E8 ; 7.635812848514108E9 ; 0.0
47 ; 2774385.880958924 ; 2.0144667366104734E8 ; 1.1525324425218455E8 ; 7.8372477984744E9 ; 0.0
48 ; 2780742.4316527885 ; 2.014585838026781E8 ; 1.1802763013314348E8 ; 8.038694472135447E9 ; 0.0
49 ; 2780075.483126113 ; 2.0147067380177167E8 ; 1.2080837256479627E8 ; 8.240153055938125E9 ; 0.0
50 ; 2785059.173747683 ; 2.014829372372916E8 ; 1.2358844804792239E8 ; 8.441623729739897E9 ; 0.0
51 ; 2784048.1480280464 ; 2.0149536785192728E8 ; 1.2637350722167008E8 ; 8.643106666977188E9 ; 0.0
52 ; 2790304.1847541216 ; 2.0150795955267867E8 ; 1.2915755536969812E8 ; 8.844602034829115E9 ; 0.0
53 ; 2790937.158011497 ; 2.015207064107571E8 ; 1.3194785955445224E8 ; 9.046109994381794E9 ; 0.0
54 ; 2794533.9427145612 ; 2.01533602660879E8 ; 1.3473879671246374E8 ; 9.247630700792551E9 ; 0.0
55 ; 2795507.026876504 ; 2.0154664270002475E8 ; 1.375333306551783E8 ; 9.44916430345343E9 ; 0.0
56 ; 2799443.405840838 ; 2.0155982108572963E8 ; 1.4032883768205482E8 ; 9.650710946153456E9 ; 0.0
57 ; 2802223.708096445 ; 2.0157313253396887E8 ; 1.4312828108789566E8 ; 9.852270767239185E9 ; 0.0
58 ; 2803255.4156561904 ; 2.015865719166943E8 ; 1.459305047959921E8 ; 1.0053843899773153E10 ; 0.0
59 ; 2805314.2188235084 ; 2.0160013425907508E8 ; 1.487337602116483E8 ; 1.0255430471689848E10 ; 0.0
60 ; 2807517.0419422425 ; 2.0161381473648998E8 ; 1.515390744304718E8 ; 1.0457030605948923E10 ; 0.0
61 ; 2806937.891486952 ; 2.016276086713152E8 ; 1.5434659147241405E8 ; 1.0658644420685413E10 ; 0.0
62 ; 2810653.2656439426 ; 2.0164151152954644E8 ; 1.57153529363901E8 ; 1.0860272029356728E10 ; 0.0
63 ; 2810841.373824926 ; 2.016555189172912E8 ; 1.5996418262954494E8 ; 1.1061913540886274E10 ; 0.0
64 ; 2813042.9964898536 ; 2.016696265771619E8 ; 1.6277502400336987E8 ; 1.1263569059803566E10 ; 0.0
65 ; 2812227.893642279 ; 2.0168383038459918E8 ; 1.6558806699985972E8 ; 1.1465238686380728E10 ; 0.0
66 ; 2815583.319929162 ; 2.016981263441492E8 ; 1.68400294893502E8 ; 1.1666922516765327E10 ; 0.0
67 ; 2817358.7806419423 ; 2.0171251058571768E8 ; 1.7121587821343115E8 ; 1.1868620643109476E10 ; 0.0
68 ; 2822049.414871925 ; 2.0172697936081982E8 ; 1.740332369940731E8 ; 1.2070333153695194E10 ; 0.0
69 ; 2819788.1692140363 ; 2.017415290388426E8 ; 1.7685528640894502E8 ; 1.2272060133056015E10 ; 0.0
70 ; 2824478.550896048 ; 2.017561561033345E8 ; 1.7967507457815906E8 ; 1.2473801662094858E10 ; 0.0
71 ; 2823209.2557229744 ; 2.0177085714833483E8 ; 1.824995531290551E8 ; 1.2675557818198193E10 ; 0.0
72 ; 2825368.2450685734 ; 2.017856288747537E8 ; 1.8532276238477808E8 ; 1.2877328675346527E10 ; 0.0
73 ; 2827793.9521350423 ; 2.0180046808681113E8 ; 1.8814813062984666E8 ; 1.3079114304221281E10 ; 0.0
74 ; 2827729.8202787917 ; 2.0181537168854326E8 ; 1.9097592458198172E8 ; 1.3280914772308092E10 ; 0.0
75 ; 2830845.3207035395 ; 2.0183033668038216E8 ; 1.938036544022605E8 ; 1.3482730143996635E10 ; 0.0
76 ; 2825344.532494543 ; 2.0184536015581322E8 ; 1.9663449972296405E8 ; 1.3684560480677017E10 ; 0.0
77 ; 2832046.307104409 ; 2.0186043929811525E8 ; 1.994598442554586E8 ; 1.388640584083283E10 ; 0.0
78 ; 2826375.9087770283 ; 2.018755713771857E8 ; 2.02291890562563E8 ; 1.4088266280130945E10 ; 0.0
79 ; 2828715.0541296615 ; 2.018907537464532E8 ; 2.0511826647134003E8 ; 1.4290141851508131E10 ; 0.0
80 ; 2827504.2474716706 ; 2.0190598383987933E8 ; 2.079469815254697E8 ; 1.4492032605254583E10 ; 0.0
81 ; 2826901.9939707085 ; 2.0192125916905004E8 ; 2.1077448577294135E8 ; 1.4693938589094463E10 ; 0.0
82 ; 2824386.14434929 ; 2.0193657732035732E8 ; 2.1360138776691207E8 ; 1.4895859848263514E10 ; 0.0
83 ; 2822663.030914073 ; 2.0195193595227113E8 ; 2.1642577391126135E8 ; 1.509779642558387E10 ; 0.0
84 ; 2822063.7227192232 ; 2.0196733279270038E8 ; 2.1924843694217542E8 ; 1.529974836153614E10 ; 0.0
85 ; 2817838.953355854 ; 2.0198276563644302E8 ; 2.2207050066489464E8 ; 1.550171569432884E10 ; 0.0
86 ; 2819334.724647157 ; 2.0199823234272325E8 ; 2.248883396182505E8 ; 1.5703698459965282E10 ; 0.0
87 ; 2815730.7971257796 ; 2.0201373083281493E8 ; 2.2770767434289765E8 ; 1.5905696692308006E10 ; 0.0
88 ; 2813236.0633376706 ; 2.0202925908774927E8 ; 2.3052340514002344E8 ; 1.6107710423140821E10 ; 0.0
89 ; 2812992.7490839097 ; 2.0204481514610508E8 ; 2.3333664120336112E8 ; 1.630973968222857E10 ; 0.0
90 ; 2808683.608288473 ; 2.0206039710187995E8 ; 2.3614963395244503E8 ; 1.6511784497374676E10 ; 0.0
91 ; 2807538.356329861 ; 2.020760031024397E8 ; 2.389583175607335E8 ; 1.6713844894476555E10 ; 0.0
92 ; 2806535.169137148 ; 2.0209163134654456E8 ; 2.4176585591706336E8 ; 1.6915920897578995E10 ; 0.0
93 ; 2802624.835589813 ; 2.0210728008244973E8 ; 2.445723910862005E8 ; 1.7118012528925539E10 ; 0.0
94 ; 2802317.634183909 ; 2.0212294760607797E8 ; 2.4737501592179033E8 ; 1.7320119809007988E10 ; 0.0
95 ; 2800849.17736988 ; 2.0213863225926217E8 ; 2.5017733355597425E8 ; 1.7522242756614067E10 ; 0.0
96 ; 2798883.2932969807 ; 2.0215433242805558E8 ; 2.5297818273334414E8 ; 1.772438138887333E10 ; 0.0
97 ; 2795212.0502565247 ; 2.021700465411075E8 ; 2.5577706602664113E8 ; 1.7926535721301384E10 ; 0.0
98 ; 2793188.304500602 ; 2.021857730681021E8 ; 2.5857227807689765E8 ; 1.812870576784249E10 ; 0.0
99 ; 2788344.263307064 ; 2.022015105182584E8 ; 2.6136546638139826E8 ; 1.8330891540910595E10 ; 0.0
100 ; 2785377.3409775808 ; 2.0221725743888897E8 ; 2.6415381064470533E8 ; 1.8533093051428852E10 ; 0.0
101 ; 2786330.2610102477 ; 2.0223301241401553E8 ; 2.669391879856829E8 ; 1.873531030886774E10 ; 0.0
102 ; 2780180.4544188 ; 2.0224877406303903E8 ; 2.6972551824669313E8 ; 1.8937543321281757E10 ; 0.0
103 ; 2777188.8525254177 ; 2.0226454103946245E8 ; 2.725056987011119E8 ; 1.9139792095344795E10 ; 0.0
104 ; 2776690.3931322913 ; 2.0228031202966416E8 ; 2.752828875536373E8 ; 1.934205663638426E10 ; 0.0
105 ; 2770935.630562109 ; 2.0229608575171998E8 ; 2.780595779467696E8 ; 1.954433694841392E10 ; 0.0
106 ; 2770729.8065786795 ; 2.0231186095427212E8 ; 2.808305135773317E8 ; 1.974663303416564E10 ; 0.0
107 ; 2768307.3546153237 ; 2.02327636415443E8 ; 2.836012433839104E8 ; 1.9948944895119915E10 ; 0.0
108 ; 2761881.222530591 ; 2.0234341094179228E8 ; 2.8636955073852575E8 ; 2.015127253153536E10 ; 0.0
109 ; 2760280.4926337176 ; 2.0235918336731553E8 ; 2.8913143196105635E8 ; 2.035361594247715E10 ; 0.0
110 ; 2756936.1944381665 ; 2.023749525524825E8 ; 2.9189171245369005E8 ; 2.0555975125844467E10 ; 0.0
111 ; 2753584.15530842 ; 2.0239071738331386E8 ; 2.946486486481282E8 ; 2.075835007839695E10 ; 0.0
112 ; 2750805.849262212 ; 2.0240647677049458E8 ; 2.9740223280343664E8 ; 2.0960740795780262E10 ; 0.0
113 ; 2748353.3605635846 ; 2.0242222964852238E8 ; 3.001530386526989E8 ; 2.116314727255076E10 ; 0.0
114 ; 2744896.017158136 ; 2.024379749748902E8 ; 3.0290139201326245E8 ; 2.136556950219928E10 ; 0.0
115 ; 2742443.9545081966 ; 2.024537117293008E8 ; 3.056462880304206E8 ; 2.156800747717417E10 ; 0.0
116 ; 2738393.465442318 ; 2.024694389129128E8 ; 3.083887319849288E8 ; 2.1770461188903473E10 ; 0.0
117 ; 2733376.1286906637 ; 2.02485155547616E8 ; 3.111271254503711E8 ; 2.1972930627816387E10 ; 0.0
118 ; 2733613.2710361737 ; 2.025008606753359E8 ; 3.1386050157906175E8 ; 2.2175415783364002E10 ; 0.0
119 ; 2726930.335318495 ; 2.0251655335736507E8 ; 3.165941148500979E8 ; 2.2377916644039337E10 ; 0.0
120 ; 2724227.3396516955 ; 2.0253223267372102E8 ; 3.193210451854164E8 ; 2.25804331973967E10 ; 0.0
121 ; 2720467.0497079063 ; 2.025478977225294E8 ; 3.220452725250681E8 ; 2.2782965430070423E10 ; 0.0
122 ; 2717492.2831954905 ; 2.0256354761943102E8 ; 3.24765739574776E8 ; 2.2985513327792953E10 ; 0.0
123 ; 2715393.289567437 ; 2.0257918149701226E8 ; 3.274832318579715E8 ; 2.3188076875412384E10 ; 0.0
124 ; 2711611.5909805815 ; 2.025947985042575E8 ; 3.301986251475389E8 ; 2.3390656056909397E10 ; 0.0
125 ; 2705994.6079344973 ; 2.0261039780602303E8 ; 3.329102367385195E8 ; 2.3593250855413654E10 ; 0.0
126 ; 2701418.054972376 ; 2.0262597858253115E8 ; 3.3561623134645396E8 ; 2.3795861253219677E10 ; 0.0
127 ; 2699086.460211226 ; 2.026415400288839E8 ; 3.383176494014263E8 ; 2.3998487231802208E10 ; 0.0
128 ; 2695398.0080545074 ; 2.026570813545955E8 ; 3.4101673586163753E8 ; 2.4201128771831093E10 ; 0.0
129 ; 2690027.9376168256 ; 2.0267260178314295E8 ; 3.43712133869692E8 ; 2.4403785853185688E10 ; 0.0
130 ; 2686378.7607346415 ; 2.0268810055153343E8 ; 3.4640216180730885E8 ; 2.460645845496883E10 ; 0.0
131 ; 2679042.4617377673 ; 2.0270357690988868E8 ; 3.490885405680435E8 ; 2.4809146555520363E10 ; 0.0
132 ; 2673434.650913054 ; 2.0271903012104505E8 ; 3.517675830297812E8 ; 2.5011850132430252E10 ; 0.0
133 ; 2664274.9669565 ; 2.0273445946016863E8 ; 3.544410176806943E8 ; 2.5214569162551296E10 ; 0.0
134 ; 2657749.5857996866 ; 2.0274986421438506E8 ; 3.571052926476508E8 ; 2.5417303622011463E10 ; 0.0
135 ; 2650474.5277325017 ; 2.027652436824234E8 ; 3.597630422334505E8 ; 2.562005348622585E10 ; 0.0
136 ; 2644487.115006268 ; 2.0278059717427325E8 ; 3.6241351676118296E8 ; 2.582281872990827E10 ; 0.0
137 ; 2637063.85644831 ; 2.0279592401085478E8 ; 3.6505800387618923E8 ; 2.6025599327082546E10 ; 0.0
138 ; 2632536.726211514 ; 2.0281122352370116E8 ; 3.676950677326375E8 ; 2.6228395251093403E10 ; 0.0
139 ; 2624322.624541967 ; 2.0282649505465284E8 ; 3.70327604458849E8 ; 2.6431206474617104E10 ; 0.0
140 ; 2616538.473278961 ; 2.0284173795556298E8 ; 3.7295192708339095E8 ; 2.6634032969671757E10 ; 0.0
141 ; 2612314.689485415 ; 2.0285695158801413E8 ; 3.755684655566699E8 ; 2.683687470762732E10 ; 0.0
142 ; 2601645.0107138273 ; 2.0287213532304507E8 ; 3.781807802461553E8 ; 2.7039731659215332E10 ; 0.0
143 ; 2596064.0579300225 ; 2.0288728854088792E8 ; 3.8078242525686914E8 ; 2.7242603794538376E10 ; 0.0
144 ; 2591376.0517732017 ; 2.0290241063071465E8 ; 3.833784893147992E8 ; 2.7445491083079266E10 ; 0.0
145 ; 2582611.3462431626 ; 2.0291750099039322E8 ; 3.859698653665724E8 ; 2.764839349370998E10 ; 0.0
146 ; 2580087.1396462484 ; 2.0293255902625218E8 ; 3.885524767128155E8 ; 2.7851310994700375E10 ; 0.0
147 ; 2575433.4170976453 ; 2.0294758415285406E8 ; 3.9113256385246176E8 ; 2.8054243553726627E10 ; 0.0
148 ; 2569400.0235491027 ; 2.0296257579277706E8 ; 3.937079972695594E8 ; 2.8257191137879482E10 ; 0.0
149 ; 2567832.377227066 ; 2.0297753337640435E8 ; 3.9627739729310846E8 ; 2.846015371367226E10 ; 0.0
150 ; 2561814.401781146 ; 2.0299245634172112E8 ; 3.9884522967033553E8 ; 2.8663131247048664E10 ; 0.0
151 ; 2559403.472762173 ; 2.0300734413411883E8 ; 4.014070440721167E8 ; 2.8866123703390385E10 ; 0.0
152 ; 2553695.3996811025 ; 2.0302219620620653E8 ; 4.0396644754487884E8 ; 2.90691310475245E10 ; 0.0
153 ; 2545920.4155187095 ; 2.0303701201762885E8 ; 4.0652014294455993E8 ; 2.927215324373071E10 ; 0.0
154 ; 2546721.806458205 ; 2.0305179103489032E8 ; 4.0906606336007863E8 ; 2.9475190255748337E10 ; 0.0
155 ; 2541449.307862819 ; 2.0306653273118627E8 ; 4.116127851665368E8 ; 2.9678242046783226E10 ; 0.0
156 ; 2533253.483598627 ; 2.030812365862392E8 ; 4.141542344743996E8 ; 2.9881308579514412E10 ; 0.0
157 ; 2530381.446547572 ; 2.0309590208614123E8 ; 4.166874879579983E8 ; 3.008438981610065E10 ; 0.0
158 ; 2526771.405419669 ; 2.0311052872320208E8 ; 4.1921786940454584E8 ; 3.028748571818679E10 ; 0.0
159 ; 2521263.610380344 ; 2.031251159958022E8 ; 4.217446408099655E8 ; 3.0490596246909992E10 ; 0.0
160 ; 2516753.9256109195 ; 2.0313966340825096E8 ; 4.2426590442034584E8 ; 3.0693721362905796E10 ; 0.0
161 ; 2516208.312201629 ; 2.0315417047065005E8 ; 4.2678265834595674E8 ; 3.089686102631405E10 ; 0.0
162 ; 2508120.8611132912 ; 2.031686366987613E8 ; 4.2929886665815836E8 ; 3.11000151967847E10 ; 0.0
163 ; 2503075.8044345896 ; 2.0318306161387935E8 ; 4.318069875192717E8 ; 3.130318383348346E10 ; 0.0
164 ; 2497845.1193818348 ; 2.031974447427082E8 ; 4.3431006332370627E8 ; 3.150636689509734E10 ; 0.0
165 ; 2495936.913705501 ; 2.0321178561724266E8 ; 4.368079084430881E8 ; 3.170956433984005E10 ; 0.0
166 ; 2489774.658900988 ; 2.0322608377465332E8 ; 4.3930384535679364E8 ; 3.191277612545729E10 ; 0.0
167 ; 2486251.064956519 ; 2.0324033875717565E8 ; 4.417936200156946E8 ; 3.2116002209231945E10 ; 0.0
168 ; 2481048.8396741822 ; 2.0325455011200285E8 ; 4.4427987108065116E8 ; 3.231924254798912E10 ; 0.0
169 ; 2475984.671825304 ; 2.032687173911823E8 ; 4.4676091992032534E8 ; 3.2522497098101124E10 ; 0.0
170 ; 2473469.471038098 ; 2.0328284015151545E8 ; 4.492369045921506E8 ; 3.2725765815492306E10 ; 0.0
171 ; 2465684.4567789477 ; 2.032969179544613E8 ; 4.5171037406318873E8 ; 3.292904865564382E10 ; 0.0
172 ; 2462877.3879951 ; 2.0331095036604282E8 ; 4.541760585199677E8 ; 3.313234557359828E10 ; 0.0
173 ; 2458695.825725348 ; 2.0332493695675662E8 ; 4.566389359079628E8 ; 3.3335656523964325E10 ; 0.0
174 ; 2454840.770125428 ; 2.0333887730148578E8 ; 4.590976317336882E8 ; 3.353898146092108E10 ; 0.0
175 ; 2449766.6980353915 ; 2.0335277097941536E8 ; 4.615524725038136E8 ; 3.374232033822257E10 ; 0.0
176 ; 2447324.5252038245 ; 2.0336661757395083E8 ; 4.6400223920184904E8 ; 3.3945673109201984E10 ; 0.0
177 ; 2441166.9050891213 ; 2.0338041667263913E8 ; 4.6644956372705287E8 ; 3.4149039726775936E10 ; 0.0
178 ; 2439002.976287129 ; 2.0339416786709246E8 ; 4.68890730632142E8 ; 3.4352420143448574E10 ; 0.0
179 ; 2436715.921805881 ; 2.0340787075291446E8 ; 4.7132973360842913E8 ; 3.455581431131567E10 ; 0.0
180 ; 2433177.302099845 ; 2.0342152492962876E8 ; 4.73766449530235E8 ; 3.475922218206858E10 ; 0.0
181 ; 2428508.1910758987 ; 2.0343513000061008E8 ; 4.761996268323348E8 ; 3.496264370699821E10 ; 0.0
182 ; 2426584.7667975477 ; 2.0344868557301745E8 ; 4.7862813502341074E8 ; 3.516607883699882E10 ; 0.0
183 ; 2421941.241647611 ; 2.034621912577295E8 ; 4.810547197902083E8 ; 3.536952752257184E10 ; 0.0
184 ; 2420335.631557552 ; 2.0347564666928208E8 ; 4.834766610318559E8 ; 3.557298971382957E10 ; 0.0
185 ; 2415995.3626580266 ; 2.0348905142580765E8 ; 4.858969966634134E8 ; 3.577646536049885E10 ; 0.0
186 ; 2413278.518975293 ; 2.0350240514897704E8 ; 4.883129920260714E8 ; 3.597995441192465E10 ; 0.0
187 ; 2407473.5290336665 ; 2.035157074639424E8 ; 4.9072627054504675E8 ; 3.618345681707363E10 ; 0.0
188 ; 2405153.606674956 ; 2.0352895799928287E8 ; 4.931337440740804E8 ; 3.6386972524537575E10 ; 0.0
189 ; 2402503.6432981566 ; 2.035421563869511E8 ; 4.955388976807554E8 ; 3.659050148253686E10 ; 0.0
190 ; 2397457.1135990587 ; 2.0355530226222223E8 ; 4.979414013240535E8 ; 3.6794043638923805E10 ; 0.0
191 ; 2392137.9028224675 ; 2.0356839526364398E8 ; 5.003388584376526E8 ; 3.699759894118603E10 ; 0.0
192 ; 2389796.206205643 ; 2.0358143503298867E8 ; 5.027309963404751E8 ; 3.720116733644967E10 ; 0.0
193 ; 2387229.75889715 ; 2.0359442121520656E8 ; 5.0512079254668075E8 ; 3.740474877148266E10 ; 0.0
194 ; 2384067.4791148193 ; 2.0360735345838082E8 ; 5.075080223055779E8 ; 3.760834319269787E10 ; 0.0
195 ; 2380824.5255437344 ; 2.0362023141368374E8 ; 5.098920897846927E8 ; 3.781195054615625E10 ; 0.0
196 ; 2377504.833716815 ; 2.0363305473533452E8 ; 5.1227291431023645E8 ; 3.801557077756993E10 ; 0.0
197 ; 2372213.761826944 ; 2.036458230805584E8 ; 5.1465041914395326E8 ; 3.821920383230527E10 ; 0.0
198 ; 2370025.6698141284 ; 2.036585361095468E8 ; 5.170226329057802E8 ; 3.8422849655385826E10 ; 0.0
199 ; 2366869.117771158 ; 2.0367119348541918E8 ; 5.193926585755943E8 ; 3.862650819149538E10 ; 0.0
200 ; 2362667.106282608 ; 1.863778054013317E8 ; 5.2175952769336545E8 ; 3.88301793849808E10 ; 0.0
