CSV File for the City 4 on Day 216
1 - Minute m 
2 - Power Consumed at minute m 
3 - Power Produced at minute m 
4 - Energy Consumed since the beginning of the day 
5 - Energy Produced since the beginning of the day 
6 - Energy Lost since the beginning of the day on lines starting from the city
 
0 ; 437312.7107499278 ; 1.055483193945022E8 ; 0.0 ; 0.0 ; 0.0
1 ; 441588.72586776287 ; 1.056963273326636E8 ; 437312.7107499278 ; 1.055483193945022E8 ; 0.0
2 ; 451148.21548104583 ; 1.0615355036205158E8 ; 878901.4366176906 ; 2.112446467271658E8 ; 0.0
3 ; 461485.69532084046 ; 1.0692001561857843E8 ; 1330049.6520987365 ; 3.1739819708921736E8 ; 0.0
4 ; 472830.4857487604 ; 1.0799574884033406E8 ; 1791535.347419577 ; 4.243182127077958E8 ; 0.0
5 ; 483470.1966064363 ; 1.0938077383201694E8 ; 2264365.833168337 ; 5.3231396154812986E8 ; 0.0
6 ; 500655.8367044752 ; 1.1107511191983846E8 ; 2747836.0297747734 ; 6.416947353801467E8 ; 0.0
7 ; 525570.1016215015 ; 1.1307878142166156E8 ; 3248491.8664792487 ; 7.527698472999852E8 ; 0.0
8 ; 558917.5546891402 ; 1.1539179715996325E8 ; 3774061.9681007504 ; 8.658486287216468E8 ; 0.0
9 ; 609484.2633614003 ; 1.1801417004580444E8 ; 4332979.522789891 ; 9.8124042588161E8 ; 0.0
10 ; 688307.7466707883 ; 1.2094590675989836E8 ; 4942463.786151291 ; 1.0992545959274144E9 ; 0.0
11 ; 813818.2922002655 ; 1.241870095519773E8 ; 5630771.532822079 ; 1.2202005026873128E9 ; 0.0
12 ; 1012244.1712966362 ; 1.2773747617230895E8 ; 6444589.8250223445 ; 1.3443875122392902E9 ; 0.0
13 ; 1203490.2465777616 ; 1.3159729994018006E8 ; 7456833.996318981 ; 1.4721249884115992E9 ; 0.0
14 ; 1226540.2265000716 ; 1.3576646994452983E8 ; 8660324.242896743 ; 1.6037222883517792E9 ; 0.0
15 ; 1237948.918582282 ; 1.4024497136288112E8 ; 9886864.469396815 ; 1.739488758296309E9 ; 0.0
16 ; 1246288.1611854185 ; 1.450327858773711E8 ; 1.1124813387979098E7 ; 1.8797337296591902E9 ; 0.0
17 ; 1256748.0245869125 ; 1.501298921617883E8 ; 1.2371101549164517E7 ; 2.0247665155365613E9 ; 0.0
18 ; 1265360.4276342464 ; 1.555362664114343E8 ; 1.362784957375143E7 ; 2.1748964076983495E9 ; 0.0
19 ; 1277130.3849151963 ; 1.6125188288821915E8 ; 1.4893210001385676E7 ; 2.3304326741097836E9 ; 0.0
20 ; 1287442.5352393133 ; 1.6727671445623055E8 ; 1.6170340386300873E7 ; 2.491684556998003E9 ; 0.0
21 ; 1297128.7863733526 ; 1.7361073308738145E8 ; 1.7457782921540186E7 ; 2.6589612714542336E9 ; 0.0
22 ; 1307335.3485530107 ; 1.8025391032190728E8 ; 1.875491170791354E7 ; 2.832572004541615E9 ; 0.0
23 ; 1316751.716634258 ; 1.872062176737646E8 ; 2.006224705646655E7 ; 3.0128259148635225E9 ; 0.0
24 ; 1328839.80362788 ; 1.9446762697584677E8 ; 2.137899877310081E7 ; 3.200032132537287E9 ; 0.0
25 ; 1339972.5754997344 ; 2.0072615156222904E8 ; 2.2707838576728687E7 ; 3.394499759513134E9 ; 0.0
26 ; 1348561.4159032996 ; 2.0073531253018683E8 ; 2.4047811152228422E7 ; 3.595225911075363E9 ; 0.0
27 ; 1356610.0175561467 ; 2.0074485343575108E8 ; 2.5396372568131723E7 ; 3.79596122360555E9 ; 0.0
28 ; 1367251.3939303868 ; 2.007547496625262E8 ; 2.675298258568787E7 ; 3.996706077041301E9 ; 0.0
29 ; 1378019.3211241828 ; 2.0076497779492015E8 ; 2.8120233979618255E7 ; 4.197460826703827E9 ; 0.0
30 ; 1387082.4787761963 ; 2.0077551566274545E8 ; 2.9498253300742436E7 ; 4.398225804498747E9 ; 0.0
31 ; 1396676.8131729853 ; 2.007863423568481E8 ; 3.0885335779518634E7 ; 4.599001320161492E9 ; 0.0
32 ; 1404439.9209896664 ; 2.0079743822165862E8 ; 3.228201259269162E7 ; 4.79978766251834E9 ; 0.0
33 ; 1415525.9842420036 ; 2.008087848298992E8 ; 3.3686452513681285E7 ; 5.000585100739999E9 ; 0.0
34 ; 1424745.059011987 ; 2.0082036494396245E8 ; 3.510197849792329E7 ; 5.201393885569898E9 ; 0.0
35 ; 1433218.7330998096 ; 2.0083216246776578E8 ; 3.652672355693528E7 ; 5.40221425051386E9 ; 0.0
36 ; 1442104.130442645 ; 2.0084416239221117E8 ; 3.795994229003509E7 ; 5.603046412981626E9 ; 0.0
37 ; 1451189.8943939686 ; 2.008563507367756E8 ; 3.940204642047773E7 ; 5.8038905753738365E9 ; 0.0
38 ; 1458140.6670529877 ; 2.0086871448922554E8 ; 4.08532363148717E7 ; 6.004746926110612E9 ; 0.0
39 ; 1466879.742161843 ; 2.0088124154499432E8 ; 4.231137698192468E7 ; 6.205615640599837E9 ; 0.0
40 ; 1473918.2755404208 ; 2.0089392064738342E8 ; 4.377825672408652E7 ; 6.406496882144832E9 ; 0.0
41 ; 1482403.0293858591 ; 2.0090674132943544E8 ; 4.525217499962694E7 ; 6.607390802792215E9 ; 0.0
42 ; 1488961.28102205 ; 2.0091969385807654E8 ; 4.67345780290128E7 ; 6.808297544121651E9 ; 0.0
43 ; 1495611.7671710253 ; 2.0093276918092537E8 ; 4.822353931003485E7 ; 7.009217237979727E9 ; 0.0
44 ; 1500875.661891111 ; 2.0094595887600952E8 ; 4.9719151077205874E7 ; 7.210150007160652E9 ; 0.0
45 ; 1510182.5939194763 ; 2.0095925510451087E8 ; 5.1220026739096984E7 ; 7.411095966036662E9 ; 0.0
46 ; 1514968.8430472095 ; 2.0097265056656995E8 ; 5.273020933301646E7 ; 7.612055221141173E9 ; 0.0
47 ; 1518155.4466216234 ; 2.0098613846011323E8 ; 5.424517817606367E7 ; 7.813027871707744E9 ; 0.0
48 ; 1522916.9018303412 ; 2.0099971244261858E8 ; 5.57633336226853E7 ; 8.014014010167857E9 ; 0.0
49 ; 1530442.8479193011 ; 2.0101336659570184E8 ; 5.7286250524515636E7 ; 8.215013722610476E9 ; 0.0
50 ; 1533460.9510266457 ; 2.0102709539238495E8 ; 5.881669337243494E7 ; 8.416027089206178E9 ; 0.0
51 ; 1538986.613622312 ; 2.0104089366689378E8 ; 6.0350154323461585E7 ; 8.617054184598562E9 ; 0.0
52 ; 1542577.3538049166 ; 2.0105475658682767E8 ; 6.18891409370839E7 ; 8.818095078265455E9 ; 0.0
53 ; 1546994.9230562719 ; 2.010686796275408E8 ; 6.3431718290888816E7 ; 9.019149834852283E9 ; 0.0
54 ; 1551169.7163369793 ; 2.0108265854857877E8 ; 6.497871321394509E7 ; 9.220218514479824E9 ; 0.0
55 ; 1555019.033326437 ; 2.010966893720176E8 ; 6.652988293028207E7 ; 9.421301173028402E9 ; 0.0
56 ; 1558549.5452470505 ; 2.0111076836255965E8 ; 6.80849019636085E7 ; 9.62239786240042E9 ; 0.0
57 ; 1565304.5900469548 ; 2.011248920092483E8 ; 6.964345150885555E7 ; 9.82350863076298E9 ; 0.0
58 ; 1566141.3956107008 ; 2.0113905700867105E8 ; 7.120875609890251E7 ; 1.0024633522772228E10 ; 0.0
59 ; 1571273.3718461588 ; 2.011532602495302E8 ; 7.277489749451321E7 ; 1.02257725797809E10 ; 0.0
60 ; 1573185.0745897943 ; 2.0116749879846746E8 ; 7.434617086635937E7 ; 1.042692584003043E10 ; 0.0
61 ; 1579915.6909122923 ; 2.0118176988703853E8 ; 7.591935594094916E7 ; 1.0628093338828897E10 ; 0.0
62 ; 1584171.744030196 ; 2.0119607089974058E8 ; 7.749927163186145E7 ; 1.0829275108715937E10 ; 0.0
63 ; 1584681.906963751 ; 2.012103993630039E8 ; 7.908344337589164E7 ; 1.1030471179615677E10 ; 0.0
64 ; 1589292.9390616296 ; 2.0122475293506622E8 ; 8.066812528285539E7 ; 1.1231681578978682E10 ; 0.0
65 ; 1594204.2550208378 ; 2.012391293966544E8 ; 8.225741822191702E7 ; 1.1432906331913748E10 ; 0.0
66 ; 1596818.2909542988 ; 2.012535266424054E8 ; 8.385162247693786E7 ; 1.1634145461310402E10 ; 0.0
67 ; 1600567.646890742 ; 2.0126794267296338E8 ; 8.544844076789215E7 ; 1.1835398987952806E10 ; 0.0
68 ; 1604520.7312208707 ; 2.0128237558769593E8 ; 8.70490084147829E7 ; 1.203666693062577E10 ; 0.0
69 ; 1608679.5367610562 ; 2.0129682357797703E8 ; 8.865352914600377E7 ; 1.2237949306213467E10 ; 0.0
70 ; 1611614.5411751731 ; 2.0131128492098874E8 ; 9.026220868276483E7 ; 1.2439246129791443E10 ; 0.0
71 ; 1615480.817764363 ; 2.013257579739985E8 ; 9.187382322394E7 ; 1.2640557414712431E10 ; 0.0
72 ; 1619033.8669498526 ; 2.0134024116907173E8 ; 9.348930404170436E7 ; 1.284188317268643E10 ; 0.0
73 ; 1624027.007937433 ; 2.0135473300818428E8 ; 9.510833790865421E7 ; 1.3043223413855501E10 ; 0.0
74 ; 1622174.4506663145 ; 2.0136923205870047E8 ; 9.673236491659164E7 ; 1.3244578146863686E10 ; 0.0
75 ; 1629084.2410237496 ; 2.0138373694918793E8 ; 9.835453936725795E7 ; 1.3445947378922386E10 ; 0.0
76 ; 1631582.5645373352 ; 2.0139824636554062E8 ; 9.99836236082817E7 ; 1.3647331115871574E10 ; 0.0
77 ; 1633797.1007664157 ; 2.0141275904738545E8 ; 1.0161520617281903E8 ; 1.3848729362237116E10 ; 0.0
78 ; 1635274.3897309692 ; 2.0142727378474972E8 ; 1.0324900327358545E8 ; 1.4050142121284502E10 ; 0.0
79 ; 1635382.1975505424 ; 2.0144178941496775E8 ; 1.0488427766331643E8 ; 1.4251569395069252E10 ; 0.0
80 ; 1635773.4447081024 ; 2.014563048198085E8 ; 1.0651965986086696E8 ; 1.445301118448422E10 ; 0.0
81 ; 1636082.2144926372 ; 2.0147081892280608E8 ; 1.0815543330557507E8 ; 1.465446748930403E10 ; 0.0
82 ; 1636811.576590659 ; 2.014853306867772E8 ; 1.097915155200677E8 ; 1.4855938308226835E10 ; 0.0
83 ; 1637862.7882654094 ; 2.0149983911151147E8 ; 1.1142832709665836E8 ; 1.5057423638913612E10 ; 0.0
84 ; 1638192.8553692927 ; 2.0151434323162052E8 ; 1.1306618988492377E8 ; 1.5258923478025124E10 ; 0.0
85 ; 1637796.5574204416 ; 2.0152884211453408E8 ; 1.1470438274029307E8 ; 1.5460437821256744E10 ; 0.0
86 ; 1638262.9762815763 ; 2.0154333485863194E8 ; 1.1634217929771352E8 ; 1.5661966663371279E10 ; 0.0
87 ; 1635987.9536047615 ; 2.01557820591501E8 ; 1.179804422739951E8 ; 1.586350999822991E10 ; 0.0
88 ; 1637335.2105352487 ; 2.015722984683085E8 ; 1.1961643022759986E8 ; 1.6065067818821411E10 ; 0.0
89 ; 1640056.6788871328 ; 2.015867676702826E8 ; 1.212537654381351E8 ; 1.626664011728972E10 ; 0.0
90 ; 1640643.5563214931 ; 2.0160122740329215E8 ; 1.2289382211702223E8 ; 1.6468226884960003E10 ; 0.0
91 ; 1640314.5230380741 ; 2.0161567689651874E8 ; 1.2453446567334372E8 ; 1.6669828112363295E10 ; 0.0
92 ; 1640002.168709933 ; 2.0163011540121412E8 ; 1.2617478019638179E8 ; 1.6871443789259813E10 ; 0.0
93 ; 1640313.9468359442 ; 2.016445421895367E8 ; 1.2781478236509173E8 ; 1.7073073904661028E10 ; 0.0
94 ; 1640129.382877721 ; 2.016589565534617E8 ; 1.2945509631192768E8 ; 1.7274718446850563E10 ; 0.0
95 ; 1639334.253725713 ; 2.0167335780375966E8 ; 1.310952256948054E8 ; 1.7476377403404026E10 ; 0.0
96 ; 1639258.049625768 ; 2.016877452690383E8 ; 1.327345599485311E8 ; 1.7678050761207787E10 ; 0.0
97 ; 1639036.0199906647 ; 2.0170211829484352E8 ; 1.3437381799815688E8 ; 1.7879738506476826E10 ; 0.0
98 ; 1640213.62867265 ; 2.0171647624281538E8 ; 1.3601285401814753E8 ; 1.8081440624771667E10 ; 0.0
99 ; 1640982.5744923705 ; 2.0173081848989505E8 ; 1.376530676468202E8 ; 1.8283157101014484E10 ; 0.0
100 ; 1639231.9614824355 ; 2.0174514442757988E8 ; 1.3929405022131255E8 ; 1.848488791950438E10 ; 0.0
101 ; 1639290.3130004478 ; 2.0175945346122223E8 ; 1.40933282182795E8 ; 1.868663306393196E10 ; 0.0
102 ; 1639226.3596194417 ; 2.0177374500937054E8 ; 1.4257257249579543E8 ; 1.8888392517393185E10 ; 0.0
103 ; 1637543.1362476964 ; 2.0178801850314832E8 ; 1.4421179885541487E8 ; 1.9090166262402554E10 ; 0.0
104 ; 1637122.0417599992 ; 2.018022733856699E8 ; 1.4584934199166256E8 ; 1.92919542809057E10 ; 0.0
105 ; 1636060.3225988862 ; 2.0181650911148956E8 ; 1.4748646403342256E8 ; 1.949375655429137E10 ; 0.0
106 ; 1636284.374999597 ; 2.018307251460824E8 ; 1.4912252435602143E8 ; 1.969557306340286E10 ; 0.0
107 ; 1634252.887615395 ; 2.018449209653546E8 ; 1.5075880873102102E8 ; 1.9897403788548943E10 ; 0.0
108 ; 1635568.2597209257 ; 2.0185909605518135E8 ; 1.523930616186364E8 ; 2.0099248709514297E10 ; 0.0
109 ; 1632793.2386337384 ; 2.018732499109708E8 ; 1.5402862987835732E8 ; 2.0301107805569477E10 ; 0.0
110 ; 1633799.861830023 ; 2.01887382037252E8 ; 1.5566142311699107E8 ; 2.050298105548045E10 ; 0.0
111 ; 1633384.3546966107 ; 2.0190149194728574E8 ; 1.572952229788211E8 ; 2.07048684375177E10 ; 0.0
112 ; 1632161.1471944216 ; 2.019155791626965E8 ; 1.589286073335177E8 ; 2.0906769929464985E10 ; 0.0
113 ; 1630560.075256365 ; 2.0192964321312484E8 ; 1.6056076848071212E8 ; 2.110868550862768E10 ; 0.0
114 ; 1628301.3819176415 ; 2.0194368363589785E8 ; 1.621913285559685E8 ; 2.1310615151840805E10 ; 0.0
115 ; 1629007.7691877729 ; 2.0195769997571784E8 ; 1.6381962993788615E8 ; 2.1512558835476704E10 ; 0.0
116 ; 1627109.161460605 ; 2.019716917843675E8 ; 1.6544863770707393E8 ; 2.1714516535452423E10 ; 0.0
117 ; 1626174.2998100328 ; 2.0198565862043017E8 ; 1.6707574686853454E8 ; 2.191648822723679E10 ; 0.0
118 ; 1625342.0508596168 ; 2.0199960004902545E8 ; 1.6870192116834456E8 ; 2.211847388585722E10 ; 0.0
119 ; 1623123.3256351545 ; 2.0201351564155802E8 ; 1.703272632192042E8 ; 2.2320473485906246E10 ; 0.0
120 ; 1623338.3549254276 ; 2.0202740497547978E8 ; 1.7195038654483935E8 ; 2.2522487001547806E10 ; 0.0
121 ; 1621367.906565211 ; 2.020412676340641E8 ; 1.7357372489976478E8 ; 2.2724514406523285E10 ; 0.0
122 ; 1618607.6358353419 ; 2.0205510320619157E8 ; 1.7519509280633E8 ; 2.292655567415735E10 ; 0.0
123 ; 1616287.6011362057 ; 2.020689112861466E8 ; 1.7681370044216534E8 ; 2.312861077736354E10 ; 0.0
124 ; 1617336.692596415 ; 2.0208269147342443E8 ; 1.7842998804330155E8 ; 2.333067968864969E10 ; 0.0
125 ; 1614612.8930883605 ; 2.020964433725476E8 ; 1.8004732473589796E8 ; 2.353276238012311E10 ; 0.0
126 ; 1613794.3700099136 ; 2.021101665928916E8 ; 1.8166193762898633E8 ; 2.373485882349566E10 ; 0.0
127 ; 1610946.9072569062 ; 2.021238607485192E8 ; 1.8327573199899623E8 ; 2.393696899008855E10 ; 0.0
128 ; 1609252.0324594432 ; 2.02137525458023E8 ; 1.8488667890625313E8 ; 2.413909285083707E10 ; 0.0
129 ; 1609424.6271852604 ; 2.021511603443753E8 ; 1.8649593093871257E8 ; 2.4341230376295094E10 ; 0.0
130 ; 1605935.3758151107 ; 2.021647650347858E8 ; 1.8810535556589782E8 ; 2.454338153663947E10 ; 0.0
131 ; 1603273.4174725912 ; 2.021783391605657E8 ; 1.8971129094171295E8 ; 2.4745546301674255E10 ; 0.0
132 ; 1596371.0220015766 ; 2.021918823569986E8 ; 1.9131456435918555E8 ; 2.494772464083482E10 ; 0.0
133 ; 1594005.6935402453 ; 2.0220539426321745E8 ; 1.929109353811871E8 ; 2.514991652319182E10 ; 0.0
134 ; 1588604.7813827242 ; 2.0221887452208737E8 ; 1.9450494107472736E8 ; 2.5352121917455036E10 ; 0.0
135 ; 1585483.2896984683 ; 2.0223232278009403E8 ; 1.9609354585611007E8 ; 2.5554340791977123E10 ; 0.0
136 ; 1578834.3432565357 ; 2.0224573868723717E8 ; 1.9767902914580855E8 ; 2.5756573114757217E10 ; 0.0
137 ; 1575542.5791538039 ; 2.0225912189692926E8 ; 1.9925786348906508E8 ; 2.5958818853444454E10 ; 0.0
138 ; 1572995.9663581296 ; 2.022724720658987E8 ; 2.008334060682189E8 ; 2.6161077975341385E10 ; 0.0
139 ; 1567144.2010609899 ; 2.0228578885409757E8 ; 2.02406402034577E8 ; 2.6363350447407284E10 ; 0.0
140 ; 1562213.8950876286 ; 2.0229907192461377E8 ; 2.03973546235638E8 ; 2.6565636236261383E10 ; 0.0
141 ; 1557164.0298306274 ; 2.023123209435869E8 ; 2.0553576013072562E8 ; 2.6767935308185997E10 ; 0.0
142 ; 1554041.0783762839 ; 2.0232553558012813E8 ; 2.0709292416055626E8 ; 2.6970247629129585E10 ; 0.0
143 ; 1548448.3104313395 ; 2.0233871550624385E8 ; 2.0864696523893255E8 ; 2.7172573164709713E10 ; 0.0
144 ; 1544060.2161911083 ; 2.0235186039676246E8 ; 2.1019541354936388E8 ; 2.7374911880215958E10 ; 0.0
145 ; 1543542.4936356253 ; 2.0236496992926466E8 ; 2.11739473765555E8 ; 2.757726374061272E10 ; 0.0
146 ; 1538456.2386593672 ; 2.0237804378401694E8 ; 2.1328301625919062E8 ; 2.7779628710541985E10 ; 0.0
147 ; 1538771.3850610747 ; 2.0239108164390773E8 ; 2.1482147249785E8 ; 2.7982006754326E10 ; 0.0
148 ; 1537651.1603648644 ; 2.0240408319438672E8 ; 2.163602438829111E8 ; 2.818439783596991E10 ; 0.0
149 ; 1534899.8050157973 ; 2.024170481234067E8 ; 2.1789789504327595E8 ; 2.8386801919164295E10 ; 0.0
150 ; 1532158.2974217073 ; 2.0242997612136802E8 ; 2.1943279484829175E8 ; 2.85892189672877E10 ; 0.0
151 ; 1528550.5872686163 ; 2.024428668810654E8 ; 2.2096495314571345E8 ; 2.879164894340907E10 ; 0.0
152 ; 1528029.252496059 ; 2.024557200976372E8 ; 2.2249350373298207E8 ; 2.8994091810290134E10 ; 0.0
153 ; 1525599.3185280208 ; 2.0246853546851683E8 ; 2.2402153298547813E8 ; 2.919654753038777E10 ; 0.0
154 ; 1525381.4118571163 ; 2.024813126933863E8 ; 2.2554713230400616E8 ; 2.939901606585629E10 ; 0.0
155 ; 1523278.8476682408 ; 2.0249405147413176E8 ; 2.270725137158633E8 ; 2.9601497378549675E10 ; 0.0
156 ; 1521080.0697037464 ; 2.025067515148011E8 ; 2.2859579256353152E8 ; 2.9803991430023808E10 ; 0.0
157 ; 1520066.4731326324 ; 2.025194125215631E8 ; 2.3011687263323528E8 ; 3.000649818153861E10 ; 0.0
158 ; 1517444.7736203086 ; 2.0253203420266864E8 ; 2.3163693910636792E8 ; 3.0209017594060173E10 ; 0.0
159 ; 1516089.3846734306 ; 2.0254461626841336E8 ; 2.3315438387998822E8 ; 3.041154962826284E10 ; 0.0
160 ; 1511034.4862618633 ; 2.025571584311021E8 ; 2.3467047326466164E8 ; 3.0614094244531254E10 ; 0.0
161 ; 1512756.0928879196 ; 2.0256966040501472E8 ; 2.361815077509235E8 ; 3.0816651402962357E10 ; 0.0
162 ; 1510709.516766333 ; 2.0258212190637344E8 ; 2.3769426384381142E8 ; 3.101922106336737E10 ; 0.0
163 ; 1504921.4590577667 ; 2.0259454265331158E8 ; 2.3920497336057776E8 ; 3.1221803185273743E10 ; 0.0
164 ; 1505339.5082166726 ; 2.026069223658436E8 ; 2.4070989481963554E8 ; 3.1424397727927055E10 ; 0.0
165 ; 1501090.1747348388 ; 2.0261926076583642E8 ; 2.4221523432785222E8 ; 3.16270046502929E10 ; 0.0
166 ; 1501326.8183191274 ; 2.0263155757698205E8 ; 2.4371632450258705E8 ; 3.1829623911058735E10 ; 0.0
167 ; 1496584.0567470095 ; 2.0264381252477124E8 ; 2.452176513209062E8 ; 3.2032255468635715E10 ; 0.0
168 ; 1498921.4579445424 ; 2.0265602533646825E8 ; 2.467142353776532E8 ; 3.223489928116049E10 ; 0.0
169 ; 1495064.714346141 ; 2.026681957410869E8 ; 2.4821315683559775E8 ; 3.2437555306496956E10 ; 0.0
170 ; 1492727.3489660933 ; 2.0268032346936736E8 ; 2.497082215499439E8 ; 3.264022350223804E10 ; 0.0
171 ; 1489437.332173828 ; 2.0269240825375414E8 ; 2.5120094889891E8 ; 3.284290382570741E10 ; 0.0
172 ; 1487846.3378407124 ; 2.027044498283748E8 ; 2.526903862310838E8 ; 3.3045596233961163E10 ; 0.0
173 ; 1485786.9511425602 ; 2.0271644792901987E8 ; 2.5417823256892452E8 ; 3.3248300683789536E10 ; 0.0
174 ; 1487002.9283094686 ; 2.0272840229312325E8 ; 2.5566401952006707E8 ; 3.3451017131718555E10 ; 0.0
175 ; 1486078.7669096834 ; 2.0274031265974367E8 ; 2.5715102244837654E8 ; 3.365374553401168E10 ; 0.0
176 ; 1483250.4821222725 ; 2.0275217876954705E8 ; 2.5863710121528623E8 ; 3.3856485846671425E10 ; 0.0
177 ; 1481640.7212630657 ; 2.0276400036478916E8 ; 2.601203516974085E8 ; 3.405923802544097E10 ; 0.0
178 ; 1480973.5731628726 ; 2.0277577718929964E8 ; 2.6160199241867155E8 ; 3.426200202580576E10 ; 0.0
179 ; 1480193.4461363396 ; 2.027875089884661E8 ; 2.6308296599183443E8 ; 3.4464777802995056E10 ; 0.0
180 ; 1477586.2124934848 ; 2.0279919550921935E8 ; 2.6456315943797076E8 ; 3.466756531198352E10 ; 0.0
181 ; 1475413.957386835 ; 2.02810836500019E8 ; 2.6604074565046424E8 ; 3.487036450749274E10 ; 0.0
182 ; 1474194.8407698676 ; 2.0282243171083978E8 ; 2.6751615960785106E8 ; 3.507317534399275E10 ; 0.0
183 ; 1474099.020455782 ; 2.0283398089315838E8 ; 2.689903544486209E8 ; 3.527599777570359E10 ; 0.0
184 ; 1472483.802396712 ; 2.028454837999411E8 ; 2.704644534690767E8 ; 3.547883175659675E10 ; 0.0
185 ; 1471200.6671536488 ; 2.028569401856315E8 ; 2.719369372714734E8 ; 3.568167724039669E10 ; 0.0
186 ; 1466287.7805670148 ; 2.0286834980613935E8 ; 2.7340813793862706E8 ; 3.588453418058232E10 ; 0.0
187 ; 1469441.5747384962 ; 2.028797124188293E8 ; 2.7487442571919405E8 ; 3.608740253038846E10 ; 0.0
188 ; 1466241.4532300786 ; 2.028910277825105E8 ; 2.7634386729393256E8 ; 3.629028224280729E10 ; 0.0
189 ; 1465709.6694540486 ; 2.0290229565742666E8 ; 2.7781010874716264E8 ; 3.64931732705898E10 ; 0.0
190 ; 1463203.8776999814 ; 2.0291351580524626E8 ; 2.792758184166167E8 ; 3.669607556624722E10 ; 0.0
191 ; 1460643.8093152116 ; 2.0292468798905367E8 ; 2.8073902229431665E8 ; 3.689898908205247E10 ; 0.0
192 ; 1460734.0487336316 ; 2.0293581197334006E8 ; 2.8219966610363185E8 ; 3.710191377004152E10 ; 0.0
193 ; 1459543.5041274596 ; 2.029468875239953E8 ; 2.836604001523655E8 ; 3.730484958201486E10 ; 0.0
194 ; 1457620.7591750796 ; 2.0295791440829986E8 ; 2.8511994365649295E8 ; 3.750779646953886E10 ; 0.0
195 ; 1456280.5902168783 ; 2.029688923949172E8 ; 2.86577564415668E8 ; 3.771075438394716E10 ; 0.0
196 ; 1455413.4861672353 ; 2.0297982125388646E8 ; 2.880338450058849E8 ; 3.791372327634208E10 ; 0.0
197 ; 1453908.6695180105 ; 2.0299070075661573E8 ; 2.8948925849205214E8 ; 3.811670309759596E10 ; 0.0
198 ; 1454017.262864492 ; 2.030015306758751E8 ; 2.9094316716157013E8 ; 3.831969379835258E10 ; 0.0
199 ; 1451665.4957541898 ; 2.0301231078579068E8 ; 2.923971844244346E8 ; 3.852269532902845E10 ; 0.0
