CSV File for the City 6 on Day 68
1 - Minute m 
2 - Power Consumed at minute m 
3 - Power Produced at minute m 
4 - Energy Consumed since the beginning of the day 
5 - Energy Produced since the beginning of the day 
6 - Energy Lost since the beginning of the day on lines starting from the city
 
0 ; 1.1135676977872526E7 ; 1.0594519714548442E8 ; 0.0 ; 0.0 ; 0.0
1 ; 1.1146665585970933E7 ; 1.0609595464961427E8 ; 1.1135676977872526E7 ; 1.0594519714548442E8 ; 0.0
2 ; 1.1159600766927816E7 ; 1.0655571464785257E8 ; 2.228234256384346E7 ; 2.120411517950987E8 ; 0.0
3 ; 1.1171538981619531E7 ; 1.0732448185977238E8 ; 3.3441943330771275E7 ; 3.1859686644295126E8 ; 0.0
4 ; 1.1185591697052501E7 ; 1.0840226053135258E8 ; 4.4613482312390804E7 ; 4.2592134830272365E8 ; 0.0
5 ; 1.1209530574022923E7 ; 1.0978905440597862E8 ; 5.5799074009443305E7 ; 5.343236088340762E8 ; 0.0
6 ; 1.1233999518468887E7 ; 1.1148486669826224E8 ; 6.700860458346623E7 ; 6.441126632400548E8 ; 0.0
7 ; 1.1269176483569186E7 ; 1.1348970007109797E8 ; 7.824260410193512E7 ; 7.555975299383171E8 ; 0.0
8 ; 1.1321473210124E7 ; 1.1580355661633241E8 ; 8.951178058550431E7 ; 8.69087230009415E8 ; 0.0
9 ; 1.1403236949949678E7 ; 1.1842643783937198E8 ; 1.0083325379562831E8 ; 9.848907866257474E8 ; 0.0
10 ; 1.1527074989208866E7 ; 1.2135834464799237E8 ; 1.1223649074557799E8 ; 1.1033172244651194E9 ; 0.0
11 ; 1.1723949461634586E7 ; 1.2459927734554484E8 ; 1.2376356573478685E8 ; 1.2246755691131117E9 ; 0.0
12 ; 1.2042313620945165E7 ; 1.2814923562867811E8 ; 1.3548751519642144E8 ; 1.3492748464586565E9 ; 0.0
13 ; 1.2345002514494235E7 ; 1.3200821858961648E8 ; 1.475298288173666E8 ; 1.4774240820873346E9 ; 0.0
14 ; 1.2377997143080758E7 ; 1.3617622472295362E8 ; 1.5987483133186084E8 ; 1.6094323006769512E9 ; 0.0
15 ; 1.2397693358483562E7 ; 1.406532519368428E8 ; 1.722528284749416E8 ; 1.7456085253999047E9 ; 0.0
16 ; 1.2408928661792368E7 ; 1.4543929756838962E8 ; 1.8465052183342516E8 ; 1.8862617773367476E9 ; 0.0
17 ; 1.2421952776376665E7 ; 1.5053435840298226E8 ; 1.9705945049521753E8 ; 2.0317010749051373E9 ; 0.0
18 ; 1.2439222813974412E7 ; 1.559384306972353E8 ; 2.094814032715942E8 ; 2.18223543330812E9 ; 0.0
19 ; 1.2451252732922694E7 ; 1.6165151020516983E8 ; 2.219206260855686E8 ; 2.338173864005355E9 ; 0.0
20 ; 1.2462540360377284E7 ; 1.6767359220721278E8 ; 2.343718788184913E8 ; 2.4998253742105246E9 ; 0.0
21 ; 1.2480165713060893E7 ; 1.7400467154156914E8 ; 2.468344191788686E8 ; 2.6674989664177375E9 ; 0.0
22 ; 1.24966718353047E7 ; 1.8064474263750297E8 ; 2.5931458489192948E8 ; 2.8415036379593067E9 ; 0.0
23 ; 1.2506084784083148E7 ; 1.8759379955005765E8 ; 2.718112567272342E8 ; 3.02214838059681E9 ; 0.0
24 ; 1.2522807631005691E7 ; 1.9485183599575108E8 ; 2.843173415113173E8 ; 3.2097421801468678E9 ; 0.0
25 ; 1.2538836513766522E7 ; 2.0110688628697962E8 ; 2.96840149142323E8 ; 3.4045940161426187E9 ; 0.0
26 ; 1.2550155321872491E7 ; 2.0111249140523264E8 ; 3.0937898565608954E8 ; 3.6057009024295983E9 ; 0.0
27 ; 1.2567803654346708E7 ; 2.0111841356201893E8 ; 3.21929140977962E8 ; 3.8068133938348308E9 ; 0.0
28 ; 1.2579409453618849E7 ; 2.0112464548100647E8 ; 3.344969446323087E8 ; 4.0079318073968496E9 ; 0.0
29 ; 1.259308628779957E7 ; 2.011311797256609E8 ; 3.4707635408592755E8 ; 4.2090564528778563E9 ; 0.0
30 ; 1.2604077025611114E7 ; 2.011380087323892E8 ; 3.5966944037372714E8 ; 4.410187632603518E9 ; 0.0
31 ; 1.2619109121606514E7 ; 2.0114512484220183E8 ; 3.7227351739933825E8 ; 4.611325641335907E9 ; 0.0
32 ; 1.2636844269960668E7 ; 2.0115252033070502E8 ; 3.848926265209448E8 ; 4.812470766178109E9 ; 0.0
33 ; 1.2648091104065187E7 ; 2.011601874362785E8 ; 3.975294707909054E8 ; 5.013623286508814E9 ; 0.0
34 ; 1.265671123233443E7 ; 2.011681183863328E8 ; 4.101775618949706E8 ; 5.214783473945092E9 ; 0.0
35 ; 1.267265107710593E7 ; 2.0117630542157936E8 ; 4.2283427312730503E8 ; 5.415951592331425E9 ; 0.0
36 ; 1.2681576441775173E7 ; 2.0118474081827873E8 ; 4.35506924204411E8 ; 5.617127897753004E9 ; 0.0
37 ; 1.2692895275921073E7 ; 2.0119341690846512E8 ; 4.481885006461861E8 ; 5.818312638571282E9 ; 0.0
38 ; 1.2701733164132008E7 ; 2.0120232609816924E8 ; 4.6088139592210716E8 ; 6.019506055479748E9 ; 0.0
39 ; 1.2713515299993675E7 ; 2.0121146088368616E8 ; 4.7358312908623916E8 ; 6.220708381577917E9 ; 0.0
40 ; 1.272238144990129E7 ; 2.0122081386595207E8 ; 4.8629664438623285E8 ; 6.421919842461603E9 ; 0.0
41 ; 1.2733284815092172E7 ; 2.0123037776311004E8 ; 4.9901902583613414E8 ; 6.623140656327556E9 ; 0.0
42 ; 1.2738312745983021E7 ; 2.0124014542135555E8 ; 5.117523106512263E8 ; 6.824371034090666E9 ; 0.0
43 ; 1.274553766541431E7 ; 2.0125010982416174E8 ; 5.244906233972093E8 ; 7.025611179512021E9 ; 0.0
44 ; 1.2752677881897861E7 ; 2.0126026409999016E8 ; 5.372361610626236E8 ; 7.226861289336183E9 ; 0.0
45 ; 1.2761052042273952E7 ; 2.0127060152859527E8 ; 5.499888389445214E8 ; 7.4281215534361725E9 ; 0.0
46 ; 1.2766847667485448E7 ; 2.0128111554603317E8 ; 5.627498909867954E8 ; 7.629392154964767E9 ; 0.0
47 ; 1.2775197895156678E7 ; 2.0129179974848375E8 ; 5.755167386542809E8 ; 7.8306732705108E9 ; 0.0
48 ; 1.2778121186635936E7 ; 2.013026478949937E8 ; 5.882919365494375E8 ; 8.031965070259284E9 ; 0.0
49 ; 1.2783684699938208E7 ; 2.0131365390924463E8 ; 6.010700577360735E8 ; 8.233267718154278E9 ; 0.0
50 ; 1.2790309981401384E7 ; 2.0132481188044572E8 ; 6.138537424360117E8 ; 8.434581372063522E9 ; 0.0
51 ; 1.279168643500725E7 ; 2.0133611606344655E8 ; 6.26644052417413E8 ; 8.635906183943968E9 ; 0.0
52 ; 1.2794684638100311E7 ; 2.0134756087815928E8 ; 6.394357388524202E8 ; 8.837242300007414E9 ; 0.0
53 ; 1.2800807747052813E7 ; 2.0135914090837455E8 ; 6.522304234905205E8 ; 9.038589860885572E9 ; 0.0
54 ; 1.280491298544092E7 ; 2.013708509000486E8 ; 6.650312312375733E8 ; 9.239949001793947E9 ; 0.0
55 ; 1.2804101654345147E7 ; 2.0138268575913477E8 ; 6.778361442230142E8 ; 9.441319852693996E9 ; 0.0
56 ; 1.2810342747420322E7 ; 2.0139464054902452E8 ; 6.906402458773594E8 ; 9.64270253845313E9 ; 0.0
57 ; 1.2813022726038137E7 ; 2.014067104876596E8 ; 7.034505886247797E8 ; 9.844097179002155E9 ; 0.0
58 ; 1.2814308117652187E7 ; 2.0141889094436988E8 ; 7.162636113508178E8 ; 1.0045503889489815E10 ; 0.0
59 ; 1.2821091690569976E7 ; 2.0143117743648684E8 ; 7.2907791946847E8 ; 1.0246922780434185E10 ; 0.0
60 ; 1.2821398004323758E7 ; 2.0144356562577754E8 ; 7.4189901115904E8 ; 1.0448353957870672E10 ; 0.0
61 ; 1.282480806633633E7 ; 2.0145605131473902E8 ; 7.547204091633637E8 ; 1.064979752349645E10 ; 0.0
62 ; 1.282686602436906E7 ; 2.0146863044278917E8 ; 7.675452172297E8 ; 1.085125357481119E10 ; 0.0
63 ; 1.282954851246141E7 ; 2.0148129908238518E8 ; 7.80372083254069E8 ; 1.1052722205253979E10 ; 0.0
64 ; 1.2830511745329836E7 ; 2.0149405343509793E8 ; 7.932016317665304E8 ; 1.1254203504336365E10 ; 0.0
65 ; 1.2830706607980166E7 ; 2.015068898276665E8 ; 8.060321435118603E8 ; 1.1455697557771463E10 ; 0.0
66 ; 1.2833412838549234E7 ; 2.0151980470805398E8 ; 8.188628501198404E8 ; 1.165720444759913E10 ; 0.0
67 ; 1.2837180445699437E7 ; 2.0153279464152327E8 ; 8.316962629583896E8 ; 1.1858724252307184E10 ; 0.0
68 ; 1.283832341680037E7 ; 2.015458563067482E8 ; 8.445334434040891E8 ; 1.2060257046948708E10 ; 0.0
69 ; 1.28351355019208E7 ; 2.01558986491974E8 ; 8.573717668208895E8 ; 1.2261802903255455E10 ; 0.0
70 ; 1.284166857848708E7 ; 2.0157218209123778E8 ; 8.702069023228103E8 ; 1.2463361889747429E10 ; 0.0
71 ; 1.284091726448849E7 ; 2.0158544010065916E8 ; 8.830485709012973E8 ; 1.2664934071838667E10 ; 0.0
72 ; 1.2843113304229405E7 ; 2.015987576148082E8 ; 8.958894881657858E8 ; 1.2866519511939325E10 ; 0.0
73 ; 1.284339233818091E7 ; 2.016121318231576E8 ; 9.087326014700152E8 ; 1.3068118269554134E10 ; 0.0
74 ; 1.2843970454390699E7 ; 2.0162556000662342E8 ; 9.215759938081961E8 ; 1.3269730401377293E10 ; 0.0
75 ; 1.2848330413460264E7 ; 2.0163903953419858E8 ; 9.344199642625867E8 ; 1.3471355961383917E10 ; 0.0
76 ; 1.2847405838295631E7 ; 2.0165256785968202E8 ; 9.47268294676047E8 ; 1.3672995000918116E10 ; 0.0
77 ; 1.2846621998086998E7 ; 2.01666142518505E8 ; 9.601157005143425E8 ; 1.3874647568777798E10 ; 0.0
78 ; 1.284406981550492E7 ; 2.016797611246561E8 ; 9.729623225124296E8 ; 1.4076313711296303E10 ; 0.0
79 ; 1.2843255333887212E7 ; 2.0169342136770502E8 ; 9.858063923279345E8 ; 1.427799347242096E10 ; 0.0
80 ; 1.283871570677321E7 ; 2.0170712100992554E8 ; 9.986496476618217E8 ; 1.4479686893788664E10 ; 0.0
81 ; 1.2837826734243296E7 ; 2.0172085788351652E8 ; 1.0114883633685949E9 ; 1.468139401479859E10 ; 0.0
82 ; 1.2831600187611448E7 ; 2.0173462988792023E8 ; 1.0243261901028382E9 ; 1.4883114872682106E10 ; 0.0
83 ; 1.2828695221638227E7 ; 2.0174843498723683E8 ; 1.0371577902904496E9 ; 1.5084849502570026E10 ; 0.0
84 ; 1.2823198793552218E7 ; 2.0176227120773277E8 ; 1.0499864855120878E9 ; 1.5286597937557262E10 ; 0.0
85 ; 1.2819474539247867E7 ; 2.0177613663544178E8 ; 1.06280968430564E9 ; 1.5488360208764996E10 ; 0.0
86 ; 1.2815320973191826E7 ; 2.0179002941385624E8 ; 1.0756291588448877E9 ; 1.5690136345400436E10 ; 0.0
87 ; 1.2811974545668146E7 ; 2.0180394774170637E8 ; 1.0884444798180795E9 ; 1.5891926374814293E10 ; 0.0
88 ; 1.2806577671017567E7 ; 2.018178898708254E8 ; 1.1012564543637476E9 ; 1.6093730322556E10 ; 0.0
89 ; 1.2797851568606373E7 ; 2.018318541040978E8 ; 1.1140630320347652E9 ; 1.6295548212426825E10 ; 0.0
90 ; 1.2794106917634074E7 ; 2.0184583879348856E8 ; 1.1268608836033716E9 ; 1.6497380066530922E10 ; 0.0
91 ; 1.2791171321702393E7 ; 2.0185984233815026E8 ; 1.1396549905210056E9 ; 1.6699225905324411E10 ; 0.0
92 ; 1.2788520975385092E7 ; 2.0187386318260634E8 ; 1.152446161842708E9 ; 1.6901085747662561E10 ; 0.0
93 ; 1.2785507252356093E7 ; 2.0188789981500706E8 ; 1.1652346828180933E9 ; 1.7102959610845167E10 ; 0.0
94 ; 1.2779888377619736E7 ; 2.0190195076545626E8 ; 1.1780201900704494E9 ; 1.7304847510660175E10 ; 0.0
95 ; 1.2773480452740982E7 ; 2.0191601460440603E8 ; 1.190800078448069E9 ; 1.7506749461425632E10 ; 0.0
96 ; 1.2770011511536267E7 ; 2.0193008994111702E8 ; 1.20357355890081E9 ; 1.7708665476030037E10 ; 0.0
97 ; 1.276140874907567E7 ; 2.0194417542218167E8 ; 1.2163435704123464E9 ; 1.7910595565971153E10 ; 0.0
98 ; 1.2755066772717113E7 ; 2.019582697301083E8 ; 1.229104979161422E9 ; 1.8112539741393333E10 ; 0.0
99 ; 1.2751603422172118E7 ; 2.019723715819634E8 ; 1.241860045934139E9 ; 1.8314498011123444E10 ; 0.0
100 ; 1.2748131354335554E7 ; 2.0198647972807E8 ; 1.254611649356311E9 ; 1.8516470382705406E10 ; 0.0
101 ; 1.2739014575781312E7 ; 2.0200059295075992E8 ; 1.2673597807106466E9 ; 1.8718456862433475E10 ; 0.0
102 ; 1.273300134753106E7 ; 2.0201471006317753E8 ; 1.280098795286428E9 ; 1.8920457455384235E10 ; 0.0
103 ; 1.2724309258538023E7 ; 2.0202882990813312E8 ; 1.292831796633959E9 ; 1.9122472165447414E10 ; 0.0
104 ; 1.2720174534741322E7 ; 2.020429513570039E8 ; 1.305556105892497E9 ; 1.932450099535555E10 ; 0.0
105 ; 1.2712081578930162E7 ; 2.020570733086803E8 ; 1.3182762804272385E9 ; 1.952654394671255E10 ; 0.0
106 ; 1.2706648384318914E7 ; 2.020711946885561E8 ; 1.3309883620061686E9 ; 1.9728601020021233E10 ; 0.0
107 ; 1.2702417689216316E7 ; 2.0208531444756052E8 ; 1.3436950103904874E9 ; 1.993067221470979E10 ; 0.0
108 ; 1.2698897710774168E7 ; 2.0209943156123E8 ; 1.3563974280797038E9 ; 2.013275752915735E10 ; 0.0
109 ; 1.2688658334504748E7 ; 2.0211354502881873E8 ; 1.369096325790478E9 ; 2.033485696071858E10 ; 0.0
110 ; 1.2680929995450918E7 ; 2.021276538724457E8 ; 1.3817849841249828E9 ; 2.05369705057474E10 ; 0.0
111 ; 1.2674605775721911E7 ; 2.0214175713627717E8 ; 1.3944659141204338E9 ; 2.0739098159619843E10 ; 0.0
112 ; 1.2669134783092184E7 ; 2.0215585388574246E8 ; 1.4071405198961558E9 ; 2.094123991675612E10 ; 0.0
113 ; 1.2660680134547073E7 ; 2.021699432067823E8 ; 1.419809654679248E9 ; 2.114339577064186E10 ; 0.0
114 ; 1.2655030017596506E7 ; 2.0218402420512792E8 ; 1.432470334813795E9 ; 2.1345565713848644E10 ; 0.0
115 ; 1.2644878349455312E7 ; 2.021980960056097E8 ; 1.4451253648313916E9 ; 2.1547749738053772E10 ; 0.0
116 ; 1.2638093895555038E7 ; 2.0221215775149396E8 ; 1.457770243180847E9 ; 2.1749947834059383E10 ; 0.0
117 ; 1.2629909956432093E7 ; 2.0222620860384697E8 ; 1.470408337076402E9 ; 2.195215999181088E10 ; 0.0
118 ; 1.2620120337573458E7 ; 2.0224024774092475E8 ; 1.483038247032834E9 ; 2.2154386200414726E10 ; 0.0
119 ; 1.2614017251812767E7 ; 2.0225427435758764E8 ; 1.4956583673704076E9 ; 2.235662644815565E10 ; 0.0
120 ; 1.260627563334004E7 ; 2.022682876647385E8 ; 1.5082723846222203E9 ; 2.2558880722513237E10 ; 0.0
121 ; 1.25954861909427E7 ; 2.022822868887838E8 ; 1.5208786602555604E9 ; 2.2761149010177975E10 ; 0.0
122 ; 1.2587266180431273E7 ; 2.0229627127111614E8 ; 1.5334741464465032E9 ; 2.2963431297066757E10 ; 0.0
123 ; 1.25796587240633E7 ; 2.0231024006761765E8 ; 1.5460614126269345E9 ; 2.316572756833787E10 ; 0.0
124 ; 1.2574167525831252E7 ; 2.023241925481834E8 ; 1.558641071350998E9 ; 2.336803780840549E10 ; 0.0
125 ; 1.2562337455911182E7 ; 2.0233812799626362E8 ; 1.5712152388768291E9 ; 2.3570362000953674E10 ; 0.0
126 ; 1.2554862510141036E7 ; 2.0235204570842415E8 ; 1.5837775763327403E9 ; 2.377270012894994E10 ; 0.0
127 ; 1.254478028829014E7 ; 2.023659449939246E8 ; 1.5963324388428814E9 ; 2.3975052174658363E10 ; 0.0
128 ; 1.2535493147012757E7 ; 2.0237982517431268E8 ; 1.6088772191311715E9 ; 2.4177418119652287E10 ; 0.0
129 ; 1.2524926518175684E7 ; 2.0239368558303505E8 ; 1.6214127122781842E9 ; 2.43797979448266E10 ; 0.0
130 ; 1.2512725567925295E7 ; 2.0240752556506306E8 ; 1.6339376387963598E9 ; 2.4582191630409634E10 ; 0.0
131 ; 1.2501595686775703E7 ; 2.024213444765333E8 ; 1.646450364364285E9 ; 2.4784599155974697E10 ; 0.0
132 ; 1.248818549355037E7 ; 2.024351416844022E8 ; 1.6589519600510607E9 ; 2.498702050045123E10 ; 0.0
133 ; 1.2476007204270188E7 ; 2.0244891656611395E8 ; 1.671440145544611E9 ; 2.518945564213563E10 ; 0.0
134 ; 1.246118185928644E7 ; 2.0246266850928134E8 ; 1.683916152748881E9 ; 2.5391904558701744E10 ; 0.0
135 ; 1.2450018612491418E7 ; 2.0247639691137895E8 ; 1.6963773346081676E9 ; 2.5594367227211025E10 ; 0.0
136 ; 1.2433051182300955E7 ; 2.0249010117944816E8 ; 1.708827353220659E9 ; 2.5796843624122406E10 ; 0.0
137 ; 1.2422691050870895E7 ; 2.0250378072981328E8 ; 1.72126040440296E9 ; 2.5999333725301853E10 ; 0.0
138 ; 1.240571858732754E7 ; 2.0251743498780882E8 ; 1.733683095453831E9 ; 2.6201837506031666E10 ; 0.0
139 ; 1.2392026787932228E7 ; 2.0253106338751686E8 ; 1.7460888140411584E9 ; 2.6404354941019474E10 ; 0.0
140 ; 1.2379686777888233E7 ; 2.0254466537151462E8 ; 1.7584808408290906E9 ; 2.660688600440699E10 ; 0.0
141 ; 1.2364223471069919E7 ; 2.0255824039063138E8 ; 1.770860527606979E9 ; 2.6809430669778503E10 ; 0.0
142 ; 1.234514363282939E7 ; 2.0257178790371472E8 ; 1.7832247510780487E9 ; 2.7011988910169136E10 ; 0.0
143 ; 1.2330554427259348E7 ; 2.0258530737740538E8 ; 1.7955698947108781E9 ; 2.721456069807285E10 ; 0.0
144 ; 1.2321154233782705E7 ; 2.0259879828592053E8 ; 1.8079004491381376E9 ; 2.7417146005450256E10 ; 0.0
145 ; 1.2309252759385515E7 ; 2.0261226011084545E8 ; 1.8202216033719203E9 ; 2.7619744803736176E10 ; 0.0
146 ; 1.2297308243214663E7 ; 2.0262569234093243E8 ; 1.832530856131306E9 ; 2.782235706384702E10 ; 0.0
147 ; 1.2288633863650335E7 ; 2.0263909447190747E8 ; 1.8448281643745205E9 ; 2.802498275618795E10 ; 0.0
148 ; 1.2280329506097527E7 ; 2.02652466006284E8 ; 1.8571167982381709E9 ; 2.822762185065986E10 ; 0.0
149 ; 1.2268893900039487E7 ; 2.0266580645318347E8 ; 1.8693971277442684E9 ; 2.843027431666614E10 ; 0.0
150 ; 1.2260202745568365E7 ; 2.0267911532816246E8 ; 1.8816660216443079E9 ; 2.8632940123119324E10 ; 0.0
151 ; 1.224963920734575E7 ; 2.0269239215304607E8 ; 1.8939262243898761E9 ; 2.8835619238447487E10 ; 0.0
152 ; 1.2238378357160395E7 ; 2.0270563645576748E8 ; 1.9061758635972219E9 ; 2.9038311630600533E10 ; 0.0
153 ; 1.2227265605654616E7 ; 2.0271884777021328E8 ; 1.9184142419543822E9 ; 2.92410172670563E10 ; 0.0
154 ; 1.2217892004292695E7 ; 2.0273202563607427E8 ; 1.930641507560037E9 ; 2.9443736114826515E10 ; 0.0
155 ; 1.2205599202081865E7 ; 2.0274516959870178E8 ; 1.9428593995643296E9 ; 2.964646814046259E10 ; 0.0
156 ; 1.2196901000966078E7 ; 2.0275827920896906E8 ; 1.9550649987664115E9 ; 2.984921331006129E10 ; 0.0
157 ; 1.2188817536526611E7 ; 2.0277135402313763E8 ; 1.9672618997673776E9 ; 3.005197158927026E10 ; 0.0
158 ; 1.2175439325792786E7 ; 2.0278439360272843E8 ; 1.9794507173039043E9 ; 3.0254742943293396E10 ; 0.0
159 ; 1.2165637953860419E7 ; 2.0279739751439744E8 ; 1.991626156629697E9 ; 3.0457527336896126E10 ; 0.0
160 ; 1.2153035707527874E7 ; 2.0281036532981583E8 ; 2.0037917945835576E9 ; 3.0660324734410522E10 ; 0.0
161 ; 1.2143785488611575E7 ; 2.0282329662555432E8 ; 2.0159448302910855E9 ; 3.0863135099740337E10 ; 0.0
162 ; 1.2133564778576037E7 ; 2.0283619098297134E8 ; 2.028088615779697E9 ; 3.106595839636589E10 ; 0.0
163 ; 1.2121420457999663E7 ; 2.028490479881056E8 ; 2.040222180558273E9 ; 3.126879458734886E10 ; 0.0
164 ; 1.211083291282512E7 ; 2.0286186723157188E8 ; 2.0523436010162728E9 ; 3.1471643635336967E10 ; 0.0
165 ; 1.2102355251087466E7 ; 2.0287464830846092E8 ; 2.064454433929098E9 ; 3.167450550256854E10 ; 0.0
166 ; 1.2085963478765693E7 ; 2.0288739081824237E8 ; 2.0765567891801853E9 ; 3.1877380150877E10 ; 0.0
167 ; 1.2076907775962185E7 ; 2.0290009436467135E8 ; 2.088642752658951E9 ; 3.208026754169524E10 ; 0.0
168 ; 1.2069731836390357E7 ; 2.0291275855569825E8 ; 2.1007196604349132E9 ; 3.228316763605991E10 ; 0.0
169 ; 1.2057438700464526E7 ; 2.0292538300338134E8 ; 2.1127893922713034E9 ; 3.248608039461561E10 ; 0.0
170 ; 1.2043944347507916E7 ; 2.029379673238028E8 ; 2.124846830971768E9 ; 3.2689005777618988E10 ; 0.0
171 ; 1.2033156958815575E7 ; 2.0295051113698724E8 ; 2.1368907753192759E9 ; 3.289194374494279E10 ; 0.0
172 ; 1.2025104830289662E7 ; 2.029630140668232E8 ; 2.1489239322780914E9 ; 3.3094894256079777E10 ; 0.0
173 ; 1.2007546091448538E7 ; 2.029754757409873E8 ; 2.1609490371083813E9 ; 3.32978572701466E10 ; 0.0
174 ; 1.2007499617430376E7 ; 2.029878957908708E8 ; 2.1729565831998296E9 ; 3.3500832745887585E10 ; 0.0
175 ; 1.1998926966830615E7 ; 2.030002738515089E8 ; 2.18496408281726E9 ; 3.3703820641678455E10 ; 0.0
176 ; 1.1989268728932852E7 ; 2.0301260956151217E8 ; 2.1969630097840905E9 ; 3.3906820915529964E10 ; 0.0
177 ; 1.1984237430977972E7 ; 2.0302490256300053E8 ; 2.2089522785130234E9 ; 3.4109833525091476E10 ; 0.0
178 ; 1.1979545743113738E7 ; 2.0303715250153908E8 ; 2.220936515944001E9 ; 3.4312858427654476E10 ; 0.0
179 ; 1.1974660207690304E7 ; 2.0304935902607659E8 ; 2.2329160616871147E9 ; 3.451589558015601E10 ; 0.0
180 ; 1.195900888008096E7 ; 2.030615217888854E8 ; 2.244890721894805E9 ; 3.471894493918209E10 ; 0.0
181 ; 1.1956520687425733E7 ; 2.03073640445504E8 ; 2.256849730774886E9 ; 3.492200646097098E10 ; 0.0
182 ; 1.195001193282698E7 ; 2.0308571465468094E8 ; 2.2688062514623117E9 ; 3.512508010141648E10 ; 0.0
183 ; 1.1941593203559073E7 ; 2.030977440783209E8 ; 2.2807562633951387E9 ; 3.532816581607116E10 ; 0.0
184 ; 1.1936074878207473E7 ; 2.0310972838143247E8 ; 2.2926978565986977E9 ; 3.553126356014948E10 ; 0.0
185 ; 1.19286992481886E7 ; 2.031216672320777E8 ; 2.3046339314769053E9 ; 3.5734373288530914E10 ; 0.0
186 ; 1.1924308240082195E7 ; 2.0313356030132306E8 ; 2.316562630725094E9 ; 3.593749495576299E10 ; 0.0
187 ; 1.191435712866325E7 ; 2.0314540726319245E8 ; 2.328486938965176E9 ; 3.6140628516064316E10 ; 0.0
188 ; 1.1911466712567087E7 ; 2.0315720779462132E8 ; 2.340401296093839E9 ; 3.634377392332751E10 ; 0.0
189 ; 1.1898954349351445E7 ; 2.0316896157541248E8 ; 2.352312762806406E9 ; 3.654693113112213E10 ; 0.0
190 ; 1.1897612511680743E7 ; 2.0318066828819335E8 ; 2.3642117171557574E9 ; 3.675010009269754E10 ; 0.0
191 ; 1.1890090542314127E7 ; 2.031923276183746E8 ; 2.376109329667438E9 ; 3.695328076098573E10 ; 0.0
192 ; 1.1880446529152742E7 ; 2.0320393925410998E8 ; 2.387999420209752E9 ; 3.715647308860411E10 ; 0.0
193 ; 1.1876032992774853E7 ; 2.0321550288625774E8 ; 2.399879866738905E9 ; 3.735967702785822E10 ; 0.0
194 ; 1.1864511887270391E7 ; 2.0322701820834303E8 ; 2.41175589973168E9 ; 3.7562892530744484E10 ; 0.0
195 ; 1.1860417634851513E7 ; 2.0323848491652155E8 ; 2.4236204116189504E9 ; 3.776611954895283E10 ; 0.0
