CSV File for the City 4 on Day 176
1 - Minute m 
2 - Power Consumed at minute m 
3 - Power Produced at minute m 
4 - Energy Consumed since the beginning of the day 
5 - Energy Produced since the beginning of the day 
6 - Energy Lost since the beginning of the day on lines starting from the city
 
0 ; 1840261.1652235966 ; 1.0608943795852682E8 ; 0.0 ; 0.0 ; 0.0
1 ; 1849928.2900522286 ; 1.0623991449377334E8 ; 1840261.1652235966 ; 1.0608943795852682E8 ; 0.0
2 ; 1855110.69508482 ; 1.0669942328713289E8 ; 3690189.455275825 ; 2.1232935245230016E8 ; 0.0
3 ; 1861590.3380991567 ; 1.074679690098592E8 ; 5545300.150360646 ; 3.1902877573943305E8 ; 0.0
4 ; 1869692.6242658454 ; 1.0854555585713506E8 ; 7406890.488459802 ; 4.2649674474929225E8 ; 0.0
5 ; 1884584.8678488666 ; 1.0993218752183998E8 ; 9276583.112725647 ; 5.350423006064273E8 ; 0.0
6 ; 1896726.409069208 ; 1.1162786717095539E8 ; 1.1161167980574515E7 ; 6.449744881282673E8 ; 0.0
7 ; 1919512.9276679452 ; 1.1363259742495322E8 ; 1.3057894389643723E7 ; 7.566023552992227E8 ; 0.0
8 ; 1956164.8752652889 ; 1.159463803404758E8 ; 1.4977407317311669E7 ; 8.702349527241759E8 ; 0.0
9 ; 1999422.557440557 ; 1.1856921739657426E8 ; 1.6933572192576956E7 ; 9.861813330646517E8 ; 0.0
10 ; 2078269.7356881544 ; 1.2150110948472017E8 ; 1.8932994750017513E7 ; 1.104750550461226E9 ; 0.0
11 ; 2203451.329870336 ; 1.2474205690274712E8 ; 2.1011264485705666E7 ; 1.2262516599459462E9 ; 0.0
12 ; 2400165.609517275 ; 1.282920593528215E8 ; 2.3214715815576002E7 ; 1.3509937168486934E9 ; 0.0
13 ; 2587434.8261668608 ; 1.3215111594347173E8 ; 2.561488142509328E7 ; 1.479285776201515E9 ; 0.0
14 ; 2611005.656437041 ; 1.3631922519564676E8 ; 2.820231625126014E7 ; 1.6114368921449866E9 ; 0.0
15 ; 2618063.029465611 ; 1.4079638505270416E8 ; 3.081332190769718E7 ; 1.7477561173406334E9 ; 0.0
16 ; 2625212.712927537 ; 1.455825928941721E8 ; 3.343138493716279E7 ; 1.8885525023933375E9 ; 0.0
17 ; 2633252.9715107894 ; 1.5067784555306908E8 ; 3.605659765009033E7 ; 2.0341350952875097E9 ; 0.0
18 ; 2642053.1447706176 ; 1.560821393365156E8 ; 3.868985062160112E7 ; 2.1848129408405786E9 ; 0.0
19 ; 2653190.2629814767 ; 1.617954700493289E8 ; 4.1331903766371734E7 ; 2.340895080177094E9 ; 0.0
20 ; 2659533.0371548715 ; 1.6781783302025518E8 ; 4.398509402935321E7 ; 2.502690550226423E9 ; 0.0
21 ; 2668132.3803843455 ; 1.7414922313046804E8 ; 4.664462706650808E7 ; 2.670508383246678E9 ; 0.0
22 ; 2675464.5559048126 ; 1.8078963484394324E8 ; 4.9312759446892425E7 ; 2.844657606377146E9 ; 0.0
23 ; 2681292.805577931 ; 1.877390622393129E8 ; 5.198822400279724E7 ; 3.025447241221089E9 ; 0.0
24 ; 2691987.1882628673 ; 1.949974990428002E8 ; 5.466951680837517E7 ; 3.2131863034604015E9 ; 0.0
25 ; 2699029.640344141 ; 2.0125297956002882E8 ; 5.736150399663804E7 ; 3.4081838025032015E9 ; 0.0
26 ; 2710384.403896746 ; 2.0125904474686196E8 ; 6.006053363698218E7 ; 3.6094367820632305E9 ; 0.0
27 ; 2717662.1321443547 ; 2.012654567682121E8 ; 6.277091804087893E7 ; 3.8106958268100924E9 ; 0.0
28 ; 2724243.023844229 ; 2.0127220827835768E8 ; 6.548858017302328E7 ; 4.011961283578305E9 ; 0.0
29 ; 2732520.3932766602 ; 2.0127929174707434E8 ; 6.821282319686751E7 ; 4.2132334918566623E9 ; 0.0
30 ; 2740276.7950454797 ; 2.0128669949160022E8 ; 7.094534359014417E7 ; 4.414512783603737E9 ; 0.0
31 ; 2747479.4753608857 ; 2.0129442370745283E8 ; 7.368562038518965E7 ; 4.615799483095337E9 ; 0.0
32 ; 2756871.456716884 ; 2.0130245649790618E8 ; 7.643309986055054E7 ; 4.81709390680279E9 ; 0.0
33 ; 2763046.7327260994 ; 2.01310789901971E8 ; 7.918997131726742E7 ; 5.018396363300695E9 ; 0.0
34 ; 2771388.7392135803 ; 2.013194159207569E8 ; 8.195301804999352E7 ; 5.219707153202666E9 ; 0.0
35 ; 2775920.132766762 ; 2.0132832654212594E8 ; 8.47244067892071E7 ; 5.421026569123424E9 ; 0.0
36 ; 2782866.5268182647 ; 2.0133751376357958E8 ; 8.750032692197387E7 ; 5.622354895665549E9 ; 0.0
37 ; 2790440.3599479445 ; 2.013469696133471E8 ; 9.028319344879213E7 ; 5.823692409429129E9 ; 0.0
38 ; 2798295.639154599 ; 2.0135668616966933E8 ; 9.307363380874008E7 ; 6.025039379042476E9 ; 0.0
39 ; 2804581.2531017344 ; 2.013666555782935E8 ; 9.587192944789468E7 ; 6.226396065212145E9 ; 0.0
40 ; 2810612.6088881856 ; 2.013768700682136E8 ; 9.867651070099641E7 ; 6.427762720790439E9 ; 0.0
41 ; 2815916.843821391 ; 2.0138732196570712E8 ; 1.014871233098846E8 ; 6.629139590858652E9 ; 0.0
42 ; 2820853.2450355426 ; 2.01398003706731E8 ; 1.0430304015370598E8 ; 6.830526912824359E9 ; 0.0
43 ; 2824959.0545134842 ; 2.0140890784775186E8 ; 1.0712389339874153E8 ; 7.03192491653109E9 ; 0.0
44 ; 2827327.951561816 ; 2.0142002707509163E8 ; 1.0994885245325501E8 ; 7.233333824378841E9 ; 0.0
45 ; 2833569.5034211124 ; 2.014313542128762E8 ; 1.1277618040481684E8 ; 7.434753851453933E9 ; 0.0
46 ; 2836789.499640513 ; 2.0144288222967866E8 ; 1.1560974990823795E8 ; 7.636185205666809E9 ; 0.0
47 ; 2843010.8782817004 ; 2.0145460424394974E8 ; 1.1844653940787846E8 ; 7.837628087896488E9 ; 0.0
48 ; 2843163.5115476763 ; 2.014665135283289E8 ; 1.2128955028616016E8 ; 8.039082692140438E9 ; 0.0
49 ; 2846010.5152702434 ; 2.0147860351292866E8 ; 1.2413271379770783E8 ; 8.240549205668767E9 ; 0.0
50 ; 2848828.085259243 ; 2.0149086778768256E8 ; 1.2697872431297807E8 ; 8.442027809181696E9 ; 0.0
51 ; 2850057.310464245 ; 2.0150330010384396E8 ; 1.2982755239823732E8 ; 8.64351867696938E9 ; 0.0
52 ; 2853304.994659466 ; 2.0151589437472042E8 ; 1.3267760970870157E8 ; 8.845021977073223E9 ; 0.0
53 ; 2855907.8930153702 ; 2.015286446757228E8 ; 1.3553091470336103E8 ; 9.046537871447943E9 ; 0.0
54 ; 2859184.786121 ; 2.0154154524380565E8 ; 1.3838682259637642E8 ; 9.248066516123665E9 ; 0.0
55 ; 2859601.3211686295 ; 2.01554590476369E8 ; 1.4124600738249743E8 ; 9.44960806136747E9 ; 0.0
56 ; 2861630.8068950423 ; 2.0156777492968848E8 ; 1.4410560870366606E8 ; 9.65116265184384E9 ; 0.0
57 ; 2864141.0017442377 ; 2.0158109331693485E8 ; 1.469672395105611E8 ; 9.85273042677353E9 ; 0.0
58 ; 2866206.6261946354 ; 2.0159454050583977E8 ; 1.4983138051230535E8 ; 1.0054311520090464E10 ; 0.0
59 ; 2866509.64317274 ; 2.0160811151606008E8 ; 1.5269758713849998E8 ; 1.0255906060596304E10 ; 0.0
60 ; 2871363.7330744695 ; 2.0162180151628777E8 ; 1.5556409678167272E8 ; 1.0457514172112364E10 ; 0.0
61 ; 2873258.8345422465 ; 2.0163560582114938E8 ; 1.5843546051474717E8 ; 1.065913597362865E10 ; 0.0
62 ; 2872114.48790911 ; 2.0164951988793376E8 ; 1.6130871934928942E8 ; 1.08607715794498E10 ; 0.0
63 ; 2875050.2750685634 ; 2.0166353931318322E8 ; 1.6418083383719853E8 ; 1.1062421099337734E10 ; 0.0
64 ; 2876510.685109879 ; 2.0167765982918048E8 ; 1.6705588411226708E8 ; 1.1264084638650917E10 ; 0.0
65 ; 2878060.1141508264 ; 2.0169187730035874E8 ; 1.6993239479737696E8 ; 1.1465762298480097E10 ; 0.0
66 ; 2881044.2634353456 ; 2.0170618771966064E8 ; 1.7281045491152778E8 ; 1.1667454175780455E10 ; 0.0
67 ; 2878679.8615626455 ; 2.0172058720486814E8 ; 1.7569149917496312E8 ; 1.1869160363500114E10 ; 0.0
68 ; 2882018.0310907415 ; 2.0173507199492246E8 ; 1.7857017903652576E8 ; 1.2070880950704983E10 ; 0.0
69 ; 2884640.296541455 ; 2.0174963844625184E8 ; 1.814521970676165E8 ; 1.2272616022699905E10 ; 0.0
70 ; 2885074.5176233747 ; 2.0176428302912104E8 ; 1.8433683736415794E8 ; 1.2474365661146156E10 ; 0.0
71 ; 2886269.7798343226 ; 2.017790023240162E8 ; 1.872219118817813E8 ; 1.2676129944175278E10 ; 0.0
72 ; 2888037.519411945 ; 2.0179379301807553E8 ; 1.9010818166161564E8 ; 1.2877908946499294E10 ; 0.0
73 ; 2888217.8770887456 ; 2.0180865190157503E8 ; 1.929962191810276E8 ; 1.307970273951737E10 ; 0.0
74 ; 2888831.3498360994 ; 2.018235758644776E8 ; 1.9588443705811635E8 ; 1.3281511391418945E10 ; 0.0
75 ; 2890793.2724818666 ; 2.0183856189305118E8 ; 1.9877326840795246E8 ; 1.3483334967283422E10 ; 0.0
76 ; 2891823.5071722134 ; 2.0185360706656182E8 ; 2.0166406168043432E8 ; 1.3685173529176474E10 ; 0.0
77 ; 2893635.11883094 ; 2.0186870855404586E8 ; 2.0455588518760654E8 ; 1.3887027136243036E10 ; 0.0
78 ; 2892656.236129372 ; 2.018838636111638E8 ; 2.074495203064375E8 ; 1.4088895844797083E10 ; 0.0
79 ; 2890930.2617964833 ; 2.0189906957713935E8 ; 2.1034217654256687E8 ; 1.4290779708408247E10 ; 0.0
80 ; 2884913.5418187343 ; 2.0191432387178442E8 ; 2.1323310680436334E8 ; 1.4492678777985386E10 ; 0.0
81 ; 2888328.7284175563 ; 2.0192962399261174E8 ; 2.1611802034618208E8 ; 1.469459310185717E10 ; 0.0
82 ; 2885177.4159588385 ; 2.0194496751203528E8 ; 2.1900634907459962E8 ; 1.4896522725849781E10 ; 0.0
83 ; 2884511.5108088874 ; 2.0196035207465866E8 ; 2.2189152649055848E8 ; 1.5098467693361816E10 ; 0.0
84 ; 2881963.6236521825 ; 2.019757753946513E8 ; 2.2477603800136736E8 ; 1.5300428045436476E10 ; 0.0
85 ; 2879127.5354615045 ; 2.0199123525321108E8 ; 2.2765800162501955E8 ; 1.5502403820831127E10 ; 0.0
86 ; 2878969.1673499686 ; 2.0200672949611324E8 ; 2.3053712916048107E8 ; 1.570439505608434E10 ; 0.0
87 ; 2874010.826439832 ; 2.0202225603134343E8 ; 2.3341609832783103E8 ; 1.5906401785580452E10 ; 0.0
88 ; 2872875.7596631516 ; 2.02037812826814E8 ; 2.3629010915427086E8 ; 1.6108424041611795E10 ; 0.0
89 ; 2872431.760763947 ; 2.0205339790816155E8 ; 2.3916298491393402E8 ; 1.631046185443861E10 ; 0.0
90 ; 2867726.097688295 ; 2.0206900935662413E8 ; 2.4203541667469797E8 ; 1.6512515252346771E10 ; 0.0
91 ; 2869530.0326422215 ; 2.0208464530699584E8 ; 2.4490314277238625E8 ; 1.6714584261703396E10 ; 0.0
92 ; 2865784.701719772 ; 2.0210030394565713E8 ; 2.4777267280502847E8 ; 1.6916668907010391E10 ; 0.0
93 ; 2864003.9933254914 ; 2.021159835086787E8 ; 2.5063845750674823E8 ; 1.7118769210956049E10 ; 0.0
94 ; 2859803.3560743285 ; 2.021316822799965E8 ; 2.5350246150007373E8 ; 1.732088519446473E10 ; 0.0
95 ; 2860807.4725610553 ; 2.021473985896562E8 ; 2.5636226485614806E8 ; 1.7523016876744724E10 ; 0.0
96 ; 2855085.0404689694 ; 2.0216313081212452E8 ; 2.5922307232870913E8 ; 1.772516427533438E10 ; 0.0
97 ; 2852278.524883532 ; 2.0217887736466563E8 ; 2.620781573691781E8 ; 1.7927327406146507E10 ; 0.0
98 ; 2852514.456702867 ; 2.0219463670577994E8 ; 2.6493043589406163E8 ; 1.8129506283511173E10 ; 0.0
99 ; 2850379.829569981 ; 2.0221040733370394E8 ; 2.6778295035076448E8 ; 1.8331700920216953E10 ; 0.0
100 ; 2846209.1092798123 ; 2.0222618778496787E8 ; 2.7063333018033445E8 ; 1.8533911327550655E10 ; 0.0
101 ; 2841846.221868502 ; 2.0224197663301045E8 ; 2.7347953928961426E8 ; 1.8736137515335625E10 ; 0.0
102 ; 2841100.1819651937 ; 2.022577724868473E8 ; 2.763213855114828E8 ; 1.8938379491968636E10 ; 0.0
103 ; 2837971.088437546 ; 2.0227357398979214E8 ; 2.7916248569344795E8 ; 1.9140637264455482E10 ; 0.0
104 ; 2834003.4344452443 ; 2.0228937981822816E8 ; 2.820004567818855E8 ; 1.9342910838445274E10 ; 0.0
105 ; 2832868.6480853073 ; 2.023051886804278E8 ; 2.8483446021633077E8 ; 1.9545200218263504E10 ; 0.0
106 ; 2826856.8180916733 ; 2.0232099931541947E8 ; 2.8766732886441606E8 ; 1.974750540694393E10 ; 0.0
107 ; 2827126.488726325 ; 2.0233681049189857E8 ; 2.9049418568250775E8 ; 1.994982640625935E10 ; 0.0
108 ; 2821967.747487117 ; 2.0235262100718212E8 ; 2.933213121712341E8 ; 2.0152163216751247E10 ; 0.0
109 ; 2817870.6801031013 ; 2.0236842968620437E8 ; 2.961432799187212E8 ; 2.035451583775843E10 ; 0.0
110 ; 2817602.752810016 ; 2.0238423538055235E8 ; 2.989611505988243E8 ; 2.0556884267444633E10 ; 0.0
111 ; 2813478.3558983062 ; 2.024000369675395E8 ; 3.017787533516343E8 ; 2.0759268502825188E10 ; 0.0
112 ; 2812557.8572142944 ; 2.02415833349316E8 ; 3.0459223170753264E8 ; 2.096166853979273E10 ; 0.0
113 ; 2806286.3909562733 ; 2.0243162345201424E8 ; 3.074047895647469E8 ; 2.1164084373142044E10 ; 0.0
114 ; 2805119.2513252962 ; 2.02447406224928E8 ; 3.102110759557032E8 ; 2.136651599659406E10 ; 0.0
115 ; 2800483.7226888603 ; 2.0246318063972402E8 ; 3.130161952070285E8 ; 2.156896340281899E10 ; 0.0
116 ; 2794895.9618078168 ; 2.0247894568968463E8 ; 3.1581667892971736E8 ; 2.1771426583458714E10 ; 0.0
117 ; 2795403.5060618417 ; 2.024947003889802E8 ; 3.1861157489152515E8 ; 2.19739055291484E10 ; 0.0
118 ; 2791100.003435752 ; 2.025104437719702E8 ; 3.21406978397587E8 ; 2.217640022953738E10 ; 0.0
119 ; 2787185.6889907154 ; 2.0252617489253154E8 ; 3.2419807840102273E8 ; 2.237891067330935E10 ; 0.0
120 ; 2782658.2593708374 ; 2.025418928234132E8 ; 3.2698526409001344E8 ; 2.258143684820188E10 ; 0.0
121 ; 2777669.270170297 ; 2.0255759665561628E8 ; 3.297679223493843E8 ; 2.2783978741025295E10 ; 0.0
122 ; 2772565.818133118 ; 2.0257328549779803E8 ; 3.325455916195546E8 ; 2.2986536337680912E10 ; 0.0
123 ; 2770985.4966001846 ; 2.0258895847569895E8 ; 3.353181574376877E8 ; 2.318910962317871E10 ; 0.0
124 ; 2765562.001258116 ; 2.0260461473159254E8 ; 3.380891429342879E8 ; 2.339169858165441E10 ; 0.0
125 ; 2762787.0923440685 ; 2.0262025342375574E8 ; 3.4085470493554604E8 ; 2.3594303196386005E10 ; 0.0
126 ; 2755787.624098634 ; 2.0263587372596043E8 ; 3.436174920278901E8 ; 2.379692344980976E10 ; 0.0
127 ; 2754635.3290516357 ; 2.0265147482698405E8 ; 3.4637327965198874E8 ; 2.399955932353572E10 ; 0.0
128 ; 2750474.4075288167 ; 2.0266705593013924E8 ; 3.4912791498104036E8 ; 2.4202210798362705E10 ; 0.0
129 ; 2745505.8688480286 ; 2.0268261625282156E8 ; 3.518783893885692E8 ; 2.4404877854292843E10 ; 0.0
130 ; 2741232.5699490197 ; 2.0269815502607417E8 ; 3.546238952574172E8 ; 2.4607560470545666E10 ; 0.0
131 ; 2734221.4457958224 ; 2.027136714941695E8 ; 3.5736512782736623E8 ; 2.481025862557174E10 ; 0.0
132 ; 2728793.4378938028 ; 2.0272916491420648E8 ; 3.6009934927316207E8 ; 2.501297229706591E10 ; 0.0
133 ; 2722204.4141569966 ; 2.0274463455572325E8 ; 3.628281427110559E8 ; 2.5215701461980118E10 ; 0.0
134 ; 2712421.6591238864 ; 2.0276007970032427E8 ; 3.6555034712521285E8 ; 2.5418446096535843E10 ; 0.0
135 ; 2708284.153097349 ; 2.027754996413217E8 ; 3.6826276878433675E8 ; 2.5621206176236168E10 ; 0.0
136 ; 2700708.54378302 ; 2.0279089368339005E8 ; 3.709710529374341E8 ; 2.582398167587749E10 ; 0.0
137 ; 2694684.8199034105 ; 2.0280626114223388E8 ; 3.736717614812171E8 ; 2.6026772569560883E10 ; 0.0
138 ; 2685476.9923727987 ; 2.0282160134426785E8 ; 3.763664463011205E8 ; 2.6229578830703117E10 ; 0.0
139 ; 2677276.9975932776 ; 2.0283691362630847E8 ; 3.7905192329349333E8 ; 2.6432400432047386E10 ; 0.0
140 ; 2670653.669612107 ; 2.0285219733527774E8 ; 3.817292002910866E8 ; 2.6635237345673695E10 ; 0.0
141 ; 2663130.948375383 ; 2.028674518279172E8 ; 3.843998539606987E8 ; 2.6838089543008972E10 ; 0.0
142 ; 2657170.3274990586 ; 2.028826764705129E8 ; 3.870629849090741E8 ; 2.704095699483689E10 ; 0.0
143 ; 2650574.4609699557 ; 2.028978706386302E8 ; 3.8972015523657316E8 ; 2.7243839671307404E10 ; 0.0
144 ; 2643567.9073060243 ; 2.0291303371685857E8 ; 3.9237072969754314E8 ; 2.7446737541946033E10 ; 0.0
145 ; 2637662.2418305264 ; 2.0292816509856528E8 ; 3.9501429760484916E8 ; 2.764965057566289E10 ; 0.0
146 ; 2633515.20096372 ; 2.0294326418565845E8 ; 3.976519598466797E8 ; 2.7852578740761456E10 ; 0.0
147 ; 2630379.2504036063 ; 2.0295833038835847E8 ; 4.002854750476434E8 ; 2.8055522004947113E10 ; 0.0
148 ; 2624663.0396002023 ; 2.0297336312497762E8 ; 4.02915854298047E8 ; 2.8258480335335472E10 ; 0.0
149 ; 2620685.9151408533 ; 2.0298836182170781E8 ; 4.055405173376472E8 ; 2.846145369846045E10 ; 0.0
150 ; 2614163.723595622 ; 2.0300332591241577E8 ; 4.0816120325278807E8 ; 2.8664442060282158E10 ; 0.0
151 ; 2612760.0499517596 ; 2.030182548384457E8 ; 4.107753669763837E8 ; 2.8867445386194572E10 ; 0.0
152 ; 2608462.8012149013 ; 2.030331480484287E8 ; 4.133881270263354E8 ; 2.907046364103302E10 ; 0.0
153 ; 2598158.3190458305 ; 2.030480049980994E8 ; 4.159965898275503E8 ; 2.9273496789081448E10 ; 0.0
154 ; 2597432.235808014 ; 2.0306282515011853E8 ; 4.1859474814659613E8 ; 2.9476544794079548E10 ; 0.0
155 ; 2592278.2631682483 ; 2.030776079739023E8 ; 4.2119218038240415E8 ; 2.9679607619229668E10 ; 0.0
156 ; 2588106.173004059 ; 2.0309235294545734E8 ; 4.237844586455724E8 ; 2.988268522720357E10 ; 0.0
157 ; 2582927.0446043415 ; 2.0310705954722175E8 ; 4.2637256481857646E8 ; 3.008577758014903E10 ; 0.0
158 ; 2579860.849186897 ; 2.0312172726791143E8 ; 4.289554918631808E8 ; 3.028888463969625E10 ; 0.0
159 ; 2575186.9249920184 ; 2.0313635560237193E8 ; 4.315353527123677E8 ; 3.049200636696416E10 ; 0.0
160 ; 2571883.0967413867 ; 2.0315094405143553E8 ; 4.3411053963735974E8 ; 3.0695142722566532E10 ; 0.0
161 ; 2565281.393886637 ; 2.0316549212178296E8 ; 4.366824227341011E8 ; 3.089829366661797E10 ; 0.0
162 ; 2564000.1783233103 ; 2.0317999932581016E8 ; 4.3924770412798774E8 ; 3.1101459158739754E10 ; 0.0
163 ; 2554257.710179451 ; 2.031944651814996E8 ; 4.418117043063111E8 ; 3.1304639158065563E10 ; 0.0
164 ; 2553211.6023701658 ; 2.0320888921229586E8 ; 4.443659620164905E8 ; 3.1507833623247063E10 ; 0.0
165 ; 2547405.9327666075 ; 2.0322327094698554E8 ; 4.4691917361886066E8 ; 3.171104251245936E10 ; 0.0
166 ; 2544621.912995107 ; 2.0323760991958135E8 ; 4.494665795516273E8 ; 3.1914265783406345E10 ; 0.0
167 ; 2539302.3330562953 ; 2.0325190566921005E8 ; 4.520112014646224E8 ; 3.2117503393325928E10 ; 0.0
168 ; 2533175.497433436 ; 2.0326615774000412E8 ; 4.5455050379767865E8 ; 3.2320755298995136E10 ; 0.0
169 ; 2526990.934036572 ; 2.0328036568099725E8 ; 4.570836792951121E8 ; 3.252402145673514E10 ; 0.0
170 ; 2522776.987337424 ; 2.0329452904602325E8 ; 4.596106702291486E8 ; 3.2727301822416138E10 ; 0.0
171 ; 2517414.8296763976 ; 2.0330864739361832E8 ; 4.6213344721648604E8 ; 3.2930596351462162E10 ; 0.0
172 ; 2511628.1327820765 ; 2.033227202869267E8 ; 4.646508620461624E8 ; 3.313390499885578E10 ; 0.0
173 ; 2508666.3840682344 ; 2.0333674729360938E8 ; 4.671624901789445E8 ; 3.3337227719142708E10 ; 0.0
174 ; 2504767.8438604483 ; 2.033507279857559E8 ; 4.696711565630128E8 ; 3.3540564466436317E10 ; 0.0
175 ; 2500358.0950302957 ; 2.03364661939799E8 ; 4.721759244068732E8 ; 3.3743915194422073E10 ; 0.0
176 ; 2496631.039347228 ; 2.0337854873643225E8 ; 4.7467628250190353E8 ; 3.3947279856361874E10 ; 0.0
177 ; 2494583.30497895 ; 2.0339238796053025E8 ; 4.7717291354125077E8 ; 3.4150658405098305E10 ; 0.0
178 ; 2491145.3012123187 ; 2.034061792010715E8 ; 4.7966749684622973E8 ; 3.4354050793058834E10 ; 0.0
179 ; 2488655.0930591603 ; 2.0341992205106375E8 ; 4.8215864214744204E8 ; 3.45574569722599E10 ; 0.0
180 ; 2483333.417129445 ; 2.0343361610747206E8 ; 4.846472972405012E8 ; 3.476087689431097E10 ; 0.0
181 ; 2476805.6154147726 ; 2.0344726097114876E8 ; 4.871306306576307E8 ; 3.496431051041844E10 ; 0.0
182 ; 2475229.4039497254 ; 2.0346085624676615E8 ; 4.896074362730455E8 ; 3.516775777138959E10 ; 0.0
183 ; 2473134.1053508515 ; 2.0347440154275104E8 ; 4.920826656769952E8 ; 3.537121862763635E10 ; 0.0
184 ; 2466755.159128292 ; 2.0348789647122166E8 ; 4.9455579978234607E8 ; 3.55746930291791E10 ; 0.0
185 ; 2466187.82860122 ; 2.0350134064792633E8 ; 4.970225549414744E8 ; 3.577818092565032E10 ; 0.0
186 ; 2460775.725592331 ; 2.0351473369218454E8 ; 4.994887427700756E8 ; 3.598168226629825E10 ; 0.0
187 ; 2454256.0346631347 ; 2.035280752268294E8 ; 5.0194951849566793E8 ; 3.618519699999043E10 ; 0.0
188 ; 2454078.8468457083 ; 2.0354136487815246E8 ; 5.044037745303311E8 ; 3.638872507521726E10 ; 0.0
189 ; 2449476.3446608298 ; 2.0355460227584982E8 ; 5.0685785337717676E8 ; 3.659226644009541E10 ; 0.0
190 ; 2445980.8542997437 ; 2.0356778705297035E8 ; 5.093073297218376E8 ; 3.679582104237126E10 ; 0.0
191 ; 2444900.2945033987 ; 2.0358091884586537E8 ; 5.117533105761373E8 ; 3.699938882942423E10 ; 0.0
192 ; 2439266.3760749158 ; 2.0359399729413992E8 ; 5.141982108706407E8 ; 3.7202969748270096E10 ; 0.0
193 ; 2435431.438728535 ; 2.0360702204060566E8 ; 5.166374772467156E8 ; 3.740656374556424E10 ; 0.0
194 ; 2431213.664737182 ; 2.0361999273123527E8 ; 5.190729086854441E8 ; 3.761017076760484E10 ; 0.0
195 ; 2428459.5439878 ; 2.0363290901511818E8 ; 5.215041223501813E8 ; 3.7813790760336075E10 ; 0.0
196 ; 2426874.7896067863 ; 2.0364577054441783E8 ; 5.239325818941691E8 ; 3.80174236693512E10 ; 0.0
197 ; 2420602.4969864255 ; 2.0365857697433022E8 ; 5.263594566837759E8 ; 3.8221069439895615E10 ; 0.0
198 ; 2418445.317390831 ; 2.0367132796304375E8 ; 5.2878005918076235E8 ; 3.842472801686994E10 ; 0.0
199 ; 2414349.650827943 ; 2.036840231717004E8 ; 5.311985044981532E8 ; 3.8628399344832985E10 ; 0.0
