CSV File for the City 1 on Day 22
1 - Minute m 
2 - Power Consumed at minute m 
3 - Power Produced at minute m 
4 - Energy Consumed since the beginning of the day 
5 - Energy Produced since the beginning of the day 
6 - Energy Lost since the beginning of the day on lines starting from the city
 
0 ; 1.1842657985795053E7 ; 1.4053559696692247E7 ; 0.0 ; 0.0 ; 0.0
1 ; 1.1858069056658542E7 ; 1.4053559696692247E7 ; 1.1842657985795053E7 ; 1.4053559696692247E7 ; 0.0
2 ; 1.1868628300089952E7 ; 1.4053559696692247E7 ; 2.3700727042453595E7 ; 2.8107119393384494E7 ; 0.0
3 ; 1.1881458282982469E7 ; 1.4053559696692247E7 ; 3.556935534254354E7 ; 4.2160679090076745E7 ; 0.0
4 ; 1.1900358563670255E7 ; 1.4053559696692247E7 ; 4.745081362552601E7 ; 5.621423878676899E7 ; 0.0
5 ; 1.1921166927496307E7 ; 1.4053559696692247E7 ; 5.9351172189196266E7 ; 7.026779848346123E7 ; 0.0
6 ; 1.1952927212936886E7 ; 1.4053559696692247E7 ; 7.127233911669257E7 ; 8.432135818015347E7 ; 0.0
7 ; 1.1995082176842554E7 ; 1.4053559696692247E7 ; 8.322526632962945E7 ; 9.837491787684572E7 ; 0.0
8 ; 1.2049159273466518E7 ; 1.4053559696692247E7 ; 9.5220348506472E7 ; 1.1242847757353796E8 ; 0.0
9 ; 1.2137144631931817E7 ; 1.4053559696692247E7 ; 1.0726950777993852E8 ; 1.264820372702302E8 ; 0.0
10 ; 1.227430057487145E7 ; 1.4053559696692247E7 ; 1.1940665241187033E8 ; 1.4053559696692246E8 ; 0.0
11 ; 1.2491353748452878E7 ; 1.4053559696692247E7 ; 1.3168095298674178E8 ; 1.5458915666361472E8 ; 0.0
12 ; 1.2834389364434784E7 ; 1.4053559696692247E7 ; 1.4417230673519465E8 ; 1.6864271636030698E8 ; 0.0
13 ; 1.3165936771682672E7 ; 1.4053559696692247E7 ; 1.5700669609962943E8 ; 1.8269627605699924E8 ; 0.0
14 ; 1.3205867882281223E7 ; 1.4053559696692247E7 ; 1.701726328713121E8 ; 1.967498357536915E8 ; 0.0
15 ; 1.3222838259711979E7 ; 1.4053559696692247E7 ; 1.8337850075359333E8 ; 2.1080339545038375E8 ; 0.0
16 ; 1.3238746319601279E7 ; 1.4053559696692247E7 ; 1.966013390133053E8 ; 2.24856955147076E8 ; 0.0
17 ; 1.3256024889089033E7 ; 1.4053559696692247E7 ; 2.0984008533290657E8 ; 2.3891051484376827E8 ; 0.0
18 ; 1.326927964963041E7 ; 1.4053559696692247E7 ; 2.230961102219956E8 ; 2.5296407454046053E8 ; 0.0
19 ; 1.3284672440012315E7 ; 1.4053559696692247E7 ; 2.36365389871626E8 ; 2.6701763423715279E8 ; 0.0
20 ; 1.3303163518597508E7 ; 1.4053559696692247E7 ; 2.496500623116383E8 ; 2.8107119393384504E8 ; 0.0
21 ; 1.331655645537529E7 ; 1.4053559696692247E7 ; 2.629532258302358E8 ; 2.951247536305373E8 ; 0.0
22 ; 1.333318881638224E7 ; 1.4053559696692247E7 ; 2.762697822856111E8 ; 3.091783133272295E8 ; 0.0
23 ; 1.3345426802892936E7 ; 1.4053559696692247E7 ; 2.896029711019933E8 ; 3.232318730239217E8 ; 0.0
24 ; 1.336245605179426E7 ; 1.4053559696692247E7 ; 3.0294839790488625E8 ; 3.3728543272061396E8 ; 0.0
25 ; 1.3379262013182268E7 ; 1.4053559696692247E7 ; 3.1631085395668054E8 ; 3.513389924173062E8 ; 0.0
26 ; 1.3394863986983905E7 ; 1.4053559696692247E7 ; 3.296901159698628E8 ; 3.653925521139984E8 ; 0.0
27 ; 1.3408863093286429E7 ; 1.4053559696692247E7 ; 3.430849799568467E8 ; 3.7944611181069064E8 ; 0.0
28 ; 1.3422229918488793E7 ; 1.4053559696692247E7 ; 3.5649384305013317E8 ; 3.9349967150738287E8 ; 0.0
29 ; 1.3439469974159654E7 ; 1.4053559696692247E7 ; 3.6991607296862197E8 ; 4.075532312040751E8 ; 0.0
30 ; 1.3451241762180202E7 ; 1.4053559696692247E7 ; 3.833555429427816E8 ; 4.216067909007673E8 ; 0.0
31 ; 1.3468318079626761E7 ; 1.4053559696692247E7 ; 3.9680678470496184E8 ; 4.3566035059745955E8 ; 0.0
32 ; 1.348156962094133E7 ; 1.4053559696692247E7 ; 4.102751027845886E8 ; 4.497139102941518E8 ; 0.0
33 ; 1.349720857635773E7 ; 1.4053559696692247E7 ; 4.237566724055299E8 ; 4.63767469990844E8 ; 0.0
34 ; 1.3509247701282196E7 ; 1.4053559696692247E7 ; 4.3725388098188764E8 ; 4.7782102968753624E8 ; 0.0
35 ; 1.3521353722840417E7 ; 1.4053559696692247E7 ; 4.5076312868316984E8 ; 4.9187458938422847E8 ; 0.0
36 ; 1.3533913156929087E7 ; 1.4053559696692247E7 ; 4.6428448240601027E8 ; 5.059281490809207E8 ; 0.0
37 ; 1.3542751013938798E7 ; 1.4053559696692247E7 ; 4.7781839556293935E8 ; 5.199817087776129E8 ; 0.0
38 ; 1.3555043537711758E7 ; 1.4053559696692247E7 ; 4.9136114657687813E8 ; 5.3403526847430515E8 ; 0.0
39 ; 1.3565404051238544E7 ; 1.4053559696692247E7 ; 5.0491619011458987E8 ; 5.480888281709974E8 ; 0.0
40 ; 1.3575070073430214E7 ; 1.4053559696692247E7 ; 5.184815941658284E8 ; 5.621423878676896E8 ; 0.0
41 ; 1.3585661770118954E7 ; 1.4053559696692247E7 ; 5.3205666423925865E8 ; 5.761959475643818E8 ; 0.0
42 ; 1.3596989669413442E7 ; 1.4053559696692247E7 ; 5.456423260093776E8 ; 5.902495072610741E8 ; 0.0
43 ; 1.3606130062437473E7 ; 1.4053559696692247E7 ; 5.59239315678791E8 ; 6.043030669577663E8 ; 0.0
44 ; 1.3613161116548616E7 ; 1.4053559696692247E7 ; 5.728454457412285E8 ; 6.183566266544585E8 ; 0.0
45 ; 1.3622373746643655E7 ; 1.4053559696692247E7 ; 5.864586068577771E8 ; 6.324101863511508E8 ; 0.0
46 ; 1.362517956532127E7 ; 1.4053559696692247E7 ; 6.000809806044208E8 ; 6.46463746047843E8 ; 0.0
47 ; 1.3633130466707371E7 ; 1.4053559696692247E7 ; 6.137061601697421E8 ; 6.605173057445352E8 ; 0.0
48 ; 1.3639136447358549E7 ; 1.4053559696692247E7 ; 6.273392906364495E8 ; 6.745708654412274E8 ; 0.0
49 ; 1.3644676120923674E7 ; 1.4053559696692247E7 ; 6.40978427083808E8 ; 6.886244251379197E8 ; 0.0
50 ; 1.3650037308732532E7 ; 1.4053559696692247E7 ; 6.546231032047316E8 ; 7.026779848346119E8 ; 0.0
51 ; 1.3651481067225628E7 ; 1.4053559696692247E7 ; 6.682731405134641E8 ; 7.167315445313041E8 ; 0.0
52 ; 1.3658123387070967E7 ; 1.4053559696692247E7 ; 6.819246215806897E8 ; 7.307851042279963E8 ; 0.0
53 ; 1.3661171028557032E7 ; 1.4053559696692247E7 ; 6.955827449677607E8 ; 7.448386639246886E8 ; 0.0
54 ; 1.3661363275802668E7 ; 1.4053559696692247E7 ; 7.092439159963177E8 ; 7.588922236213808E8 ; 0.0
55 ; 1.3666932640134424E7 ; 1.4053559696692247E7 ; 7.229052792721204E8 ; 7.72945783318073E8 ; 0.0
56 ; 1.3669205963017276E7 ; 1.4053559696692247E7 ; 7.365722119122548E8 ; 7.869993430147653E8 ; 0.0
57 ; 1.3670946353675682E7 ; 1.4053559696692247E7 ; 7.50241417875272E8 ; 8.010529027114575E8 ; 0.0
58 ; 1.367586797127862E7 ; 1.4053559696692247E7 ; 7.639123642289478E8 ; 8.151064624081497E8 ; 0.0
59 ; 1.3679175459164098E7 ; 1.4053559696692247E7 ; 7.775882322002264E8 ; 8.29160022104842E8 ; 0.0
60 ; 1.3682962019454943E7 ; 1.4053559696692247E7 ; 7.912674076593906E8 ; 8.432135818015342E8 ; 0.0
61 ; 1.3684375290673597E7 ; 1.4053559696692247E7 ; 8.049503696788455E8 ; 8.572671414982264E8 ; 0.0
62 ; 1.3685860922013994E7 ; 1.4053559696692247E7 ; 8.186347449695191E8 ; 8.713207011949186E8 ; 0.0
63 ; 1.3688470412699822E7 ; 1.4053559696692247E7 ; 8.323206058915331E8 ; 8.853742608916109E8 ; 0.0
64 ; 1.3686650406590173E7 ; 1.4053559696692247E7 ; 8.46009076304233E8 ; 8.994278205883031E8 ; 0.0
65 ; 1.3694151357830897E7 ; 1.4053559696692247E7 ; 8.596957267108232E8 ; 9.134813802849953E8 ; 0.0
66 ; 1.369481593007984E7 ; 1.4053559696692247E7 ; 8.733898780686541E8 ; 9.275349399816875E8 ; 0.0
67 ; 1.369592385156132E7 ; 1.4053559696692247E7 ; 8.870846939987339E8 ; 9.415884996783798E8 ; 0.0
68 ; 1.3696835219087679E7 ; 1.4053559696692247E7 ; 9.007806178502952E8 ; 9.55642059375072E8 ; 0.0
69 ; 1.3699878819272608E7 ; 1.4053559696692247E7 ; 9.144774530693829E8 ; 9.696956190717642E8 ; 0.0
70 ; 1.3701008007972544E7 ; 1.4053559696692247E7 ; 9.281773318886555E8 ; 9.837491787684565E8 ; 0.0
71 ; 1.3702308981672902E7 ; 1.4053559696692247E7 ; 9.418783398966281E8 ; 9.978027384651487E8 ; 0.0
72 ; 1.3704415926872315E7 ; 1.4053559696692247E7 ; 9.55580648878301E8 ; 1.0118562981618409E9 ; 0.0
73 ; 1.3704083995673371E7 ; 1.4053559696692247E7 ; 9.692850648051734E8 ; 1.0259098578585331E9 ; 0.0
74 ; 1.3702818526362084E7 ; 1.4053559696692247E7 ; 9.829891488008468E8 ; 1.0399634175552254E9 ; 0.0
75 ; 1.3703962886209562E7 ; 1.4053559696692247E7 ; 9.966919673272089E8 ; 1.0540169772519176E9 ; 0.0
76 ; 1.370685708213642E7 ; 1.4053559696692247E7 ; 1.0103959302134185E9 ; 1.0680705369486098E9 ; 0.0
77 ; 1.370727431608298E7 ; 1.4053559696692247E7 ; 1.0241027872955549E9 ; 1.082124096645302E9 ; 0.0
78 ; 1.3704898892824879E7 ; 1.4053559696692247E7 ; 1.0378100616116378E9 ; 1.0961776563419943E9 ; 0.0
79 ; 1.3698275850912042E7 ; 1.4053559696692247E7 ; 1.0515149605044627E9 ; 1.1102312160386865E9 ; 0.0
80 ; 1.3692871999151269E7 ; 1.4053559696692247E7 ; 1.0652132363553748E9 ; 1.1242847757353787E9 ; 0.0
81 ; 1.3688733604916224E7 ; 1.4053559696692247E7 ; 1.078906108354526E9 ; 1.138338335432071E9 ; 0.0
82 ; 1.3687114133701202E7 ; 1.4053559696692247E7 ; 1.0925948419594424E9 ; 1.1523918951287632E9 ; 0.0
83 ; 1.3678055195136918E7 ; 1.4053559696692247E7 ; 1.1062819560931435E9 ; 1.1664454548254554E9 ; 0.0
84 ; 1.3676432818860043E7 ; 1.4053559696692247E7 ; 1.1199600112882805E9 ; 1.1804990145221477E9 ; 0.0
85 ; 1.367115914778405E7 ; 1.4053559696692247E7 ; 1.1336364441071405E9 ; 1.19455257421884E9 ; 0.0
86 ; 1.3666289333647206E7 ; 1.4053559696692247E7 ; 1.1473076032549245E9 ; 1.208606133915532E9 ; 0.0
87 ; 1.3663936169451457E7 ; 1.4053559696692247E7 ; 1.1609738925885718E9 ; 1.2226596936122243E9 ; 0.0
88 ; 1.3652297900801716E7 ; 1.4053559696692247E7 ; 1.1746378287580233E9 ; 1.2367132533089166E9 ; 0.0
89 ; 1.3653950279748678E7 ; 1.4053559696692247E7 ; 1.188290126658825E9 ; 1.2507668130056088E9 ; 0.0
90 ; 1.3643334287481602E7 ; 1.4053559696692247E7 ; 1.2019440769385736E9 ; 1.264820372702301E9 ; 0.0
91 ; 1.3641145696574125E7 ; 1.4053559696692247E7 ; 1.2155874112260551E9 ; 1.2788739323989933E9 ; 0.0
92 ; 1.3632861735088771E7 ; 1.4053559696692247E7 ; 1.2292285569226294E9 ; 1.2929274920956855E9 ; 0.0
93 ; 1.3628716905390266E7 ; 1.4053559696692247E7 ; 1.2428614186577182E9 ; 1.3069810517923777E9 ; 0.0
94 ; 1.3621700794240505E7 ; 1.4053559696692247E7 ; 1.2564901355631084E9 ; 1.32103461148907E9 ; 0.0
95 ; 1.3618100818382483E7 ; 1.4053559696692247E7 ; 1.270111836357349E9 ; 1.3350881711857622E9 ; 0.0
96 ; 1.3609254865847526E7 ; 1.4053559696692247E7 ; 1.2837299371757314E9 ; 1.3491417308824544E9 ; 0.0
97 ; 1.360422083890795E7 ; 1.4053559696692247E7 ; 1.297339192041579E9 ; 1.3631952905791466E9 ; 0.0
98 ; 1.359863544810575E7 ; 1.4053559696692247E7 ; 1.310943412880487E9 ; 1.3772488502758389E9 ; 0.0
99 ; 1.358931016973617E7 ; 1.4053559696692247E7 ; 1.3245420483285928E9 ; 1.391302409972531E9 ; 0.0
100 ; 1.3584605950901438E7 ; 1.4053559696692247E7 ; 1.338131358498329E9 ; 1.4053559696692233E9 ; 0.0
101 ; 1.3575013287721643E7 ; 1.4053559696692247E7 ; 1.3517159644492304E9 ; 1.4194095293659155E9 ; 0.0
102 ; 1.357132302145726E7 ; 1.4053559696692247E7 ; 1.365290977736952E9 ; 1.4334630890626078E9 ; 0.0
103 ; 1.356335121098584E7 ; 1.4053559696692247E7 ; 1.3788623007584093E9 ; 1.4475166487593E9 ; 0.0
104 ; 1.3552419571423404E7 ; 1.4053559696692247E7 ; 1.3924256519693952E9 ; 1.4615702084559922E9 ; 0.0
105 ; 1.3548978661266431E7 ; 1.4053559696692247E7 ; 1.4059780715408185E9 ; 1.4756237681526845E9 ; 0.0
106 ; 1.3537905030944932E7 ; 1.4053559696692247E7 ; 1.4195270502020848E9 ; 1.4896773278493767E9 ; 0.0
107 ; 1.353361651986241E7 ; 1.4053559696692247E7 ; 1.4330649552330296E9 ; 1.503730887546069E9 ; 0.0
108 ; 1.352489471667313E7 ; 1.4053559696692247E7 ; 1.446598571752892E9 ; 1.5177844472427611E9 ; 0.0
109 ; 1.3518353369606977E7 ; 1.4053559696692247E7 ; 1.4601234664695652E9 ; 1.5318380069394534E9 ; 0.0
110 ; 1.3511531617917428E7 ; 1.4053559696692247E7 ; 1.4736418198391721E9 ; 1.5458915666361456E9 ; 0.0
111 ; 1.3502067372398473E7 ; 1.4053559696692247E7 ; 1.4871533514570897E9 ; 1.5599451263328378E9 ; 0.0
112 ; 1.3491927592440369E7 ; 1.4053559696692247E7 ; 1.500655418829488E9 ; 1.57399868602953E9 ; 0.0
113 ; 1.3483977667684516E7 ; 1.4053559696692247E7 ; 1.5141473464219284E9 ; 1.5880522457262223E9 ; 0.0
114 ; 1.3476018985918995E7 ; 1.4053559696692247E7 ; 1.527631324089613E9 ; 1.6021058054229145E9 ; 0.0
115 ; 1.3465621007800153E7 ; 1.4053559696692247E7 ; 1.541107343075532E9 ; 1.6161593651196067E9 ; 0.0
116 ; 1.3455054879051229E7 ; 1.4053559696692247E7 ; 1.554572964083332E9 ; 1.630212924816299E9 ; 0.0
117 ; 1.345016201797537E7 ; 1.4053559696692247E7 ; 1.5680280189623833E9 ; 1.6442664845129912E9 ; 0.0
118 ; 1.3437114501295194E7 ; 1.4053559696692247E7 ; 1.5814781809803586E9 ; 1.6583200442096834E9 ; 0.0
119 ; 1.342690560094787E7 ; 1.4053559696692247E7 ; 1.5949152954816537E9 ; 1.6723736039063756E9 ; 0.0
120 ; 1.342087595000062E7 ; 1.4053559696692247E7 ; 1.6083422010826015E9 ; 1.6864271636030679E9 ; 0.0
121 ; 1.3405594391060075E7 ; 1.4053559696692247E7 ; 1.621763077032602E9 ; 1.70048072329976E9 ; 0.0
122 ; 1.3398573688498758E7 ; 1.4053559696692247E7 ; 1.6351686714236622E9 ; 1.7145342829964523E9 ; 0.0
123 ; 1.3387524123274453E7 ; 1.4053559696692247E7 ; 1.648567245112161E9 ; 1.7285878426931446E9 ; 0.0
124 ; 1.3380665538514681E7 ; 1.4053559696692247E7 ; 1.6619547692354355E9 ; 1.7426414023898368E9 ; 0.0
125 ; 1.3368997170258654E7 ; 1.4053559696692247E7 ; 1.67533543477395E9 ; 1.756694962086529E9 ; 0.0
126 ; 1.3359027157083297E7 ; 1.4053559696692247E7 ; 1.6887044319442089E9 ; 1.7707485217832212E9 ; 0.0
127 ; 1.3346868819770146E7 ; 1.4053559696692247E7 ; 1.7020634591012921E9 ; 1.7848020814799135E9 ; 0.0
128 ; 1.3337121828988316E7 ; 1.4053559696692247E7 ; 1.7154103279210622E9 ; 1.7988556411766057E9 ; 0.0
129 ; 1.3322638108069064E7 ; 1.4053559696692247E7 ; 1.7287474497500505E9 ; 1.812909200873298E9 ; 0.0
130 ; 1.331468762234756E7 ; 1.4053559696692247E7 ; 1.7420700878581197E9 ; 1.8269627605699902E9 ; 0.0
131 ; 1.3296249942381527E7 ; 1.4053559696692247E7 ; 1.7553847754804673E9 ; 1.8410163202666824E9 ; 0.0
132 ; 1.328350465351298E7 ; 1.4053559696692247E7 ; 1.768681025422849E9 ; 1.8550698799633746E9 ; 0.0
133 ; 1.3266118215916747E7 ; 1.4053559696692247E7 ; 1.781964530076362E9 ; 1.8691234396600668E9 ; 0.0
134 ; 1.3252590233459262E7 ; 1.4053559696692247E7 ; 1.7952306482922785E9 ; 1.883176999356759E9 ; 0.0
135 ; 1.3237163601849422E7 ; 1.4053559696692247E7 ; 1.8084832385257378E9 ; 1.8972305590534513E9 ; 0.0
136 ; 1.3217481590109518E7 ; 1.4053559696692247E7 ; 1.821720402127587E9 ; 1.9112841187501435E9 ; 0.0
137 ; 1.320312446930313E7 ; 1.4053559696692247E7 ; 1.8349378837176967E9 ; 1.9253376784468358E9 ; 0.0
138 ; 1.318620939618573E7 ; 1.4053559696692247E7 ; 1.8481410081869998E9 ; 1.939391238143528E9 ; 0.0
139 ; 1.3171074228679623E7 ; 1.4053559696692247E7 ; 1.8613272175831854E9 ; 1.9534447978402202E9 ; 0.0
140 ; 1.314895152282254E7 ; 1.4053559696692247E7 ; 1.874498291811865E9 ; 1.9674983575369124E9 ; 0.0
141 ; 1.3135751698262645E7 ; 1.4053559696692247E7 ; 1.8876472433346877E9 ; 1.9815519172336047E9 ; 0.0
142 ; 1.3123503131418955E7 ; 1.4053559696692247E7 ; 1.9007829950329504E9 ; 1.995605476930297E9 ; 0.0
143 ; 1.3102226188725889E7 ; 1.4053559696692247E7 ; 1.9139064981643693E9 ; 2.0096590366269891E9 ; 0.0
144 ; 1.3084967335280284E7 ; 1.4053559696692247E7 ; 1.9270087243530953E9 ; 2.0237125963236814E9 ; 0.0
145 ; 1.307581224601272E7 ; 1.4053559696692247E7 ; 1.9400936916883755E9 ; 2.0377661560203736E9 ; 0.0
146 ; 1.306371544371996E7 ; 1.4053559696692247E7 ; 1.9531695039343882E9 ; 2.0518197157170658E9 ; 0.0
147 ; 1.3051217617475279E7 ; 1.4053559696692247E7 ; 1.966233219378108E9 ; 2.065873275413758E9 ; 0.0
148 ; 1.3042292202655554E7 ; 1.4053559696692247E7 ; 1.9792844369955833E9 ; 2.0799268351104503E9 ; 0.0
149 ; 1.3029086867719963E7 ; 1.4053559696692247E7 ; 1.9923267291982388E9 ; 2.0939803948071425E9 ; 0.0
150 ; 1.3016520120250095E7 ; 1.4053559696692247E7 ; 2.0053558160659587E9 ; 2.1080339545038347E9 ; 0.0
151 ; 1.3003121823882246E7 ; 1.4053559696692247E7 ; 2.0183723361862087E9 ; 2.122087514200527E9 ; 0.0
152 ; 1.2990060172550557E7 ; 1.4053559696692247E7 ; 2.031375458010091E9 ; 2.1361410738972192E9 ; 0.0
153 ; 1.2981064563083727E7 ; 1.4053559696692247E7 ; 2.0443655181826415E9 ; 2.1501946335939116E9 ; 0.0
154 ; 1.2965394136605876E7 ; 1.4053559696692247E7 ; 2.0573465827457252E9 ; 2.164248193290604E9 ; 0.0
155 ; 1.2957424439603401E7 ; 1.4053559696692247E7 ; 2.0703119768823311E9 ; 2.1783017529872966E9 ; 0.0
156 ; 1.294241719483204E7 ; 1.4053559696692247E7 ; 2.0832694013219345E9 ; 2.192355312683989E9 ; 0.0
157 ; 1.2931725463988485E7 ; 1.4053559696692247E7 ; 2.0962118185167665E9 ; 2.2064088723806815E9 ; 0.0
158 ; 1.2917320049935443E7 ; 1.4053559696692247E7 ; 2.109143543980755E9 ; 2.220462432077374E9 ; 0.0
159 ; 1.2907427823165135E7 ; 1.4053559696692247E7 ; 2.1220608640306904E9 ; 2.2345159917740664E9 ; 0.0
160 ; 1.289713048441844E7 ; 1.4053559696692247E7 ; 2.1349682918538556E9 ; 2.248569551470759E9 ; 0.0
161 ; 1.287983917988142E7 ; 1.4053559696692247E7 ; 2.147865422338274E9 ; 2.2626231111674514E9 ; 0.0
162 ; 1.2866864684663698E7 ; 1.4053559696692247E7 ; 2.1607452615181556E9 ; 2.276676670864144E9 ; 0.0
163 ; 1.2856802251190843E7 ; 1.4053559696692247E7 ; 2.1736121262028193E9 ; 2.2907302305608363E9 ; 0.0
164 ; 1.2844855600846402E7 ; 1.4053559696692247E7 ; 2.18646892845401E9 ; 2.304783790257529E9 ; 0.0
165 ; 1.2832123460007254E7 ; 1.4053559696692247E7 ; 2.1993137840548563E9 ; 2.3188373499542212E9 ; 0.0
166 ; 1.2816927424655242E7 ; 1.4053559696692247E7 ; 2.2121459075148635E9 ; 2.3328909096509137E9 ; 0.0
167 ; 1.2804806911816338E7 ; 1.4053559696692247E7 ; 2.224962834939519E9 ; 2.346944469347606E9 ; 0.0
168 ; 1.2793069262624037E7 ; 1.4053559696692247E7 ; 2.237767641851335E9 ; 2.3609980290442986E9 ; 0.0
169 ; 1.2779414237371627E7 ; 1.4053559696692247E7 ; 2.2505607111139593E9 ; 2.375051588740991E9 ; 0.0
170 ; 1.2764171914028307E7 ; 1.4053559696692247E7 ; 2.2633401253513308E9 ; 2.3891051484376836E9 ; 0.0
171 ; 1.2755198116861138E7 ; 1.4053559696692247E7 ; 2.276104297265359E9 ; 2.403158708134376E9 ; 0.0
172 ; 1.2739090550484065E7 ; 1.4053559696692247E7 ; 2.2888594953822203E9 ; 2.4172122678310685E9 ; 0.0
173 ; 1.2725241095213307E7 ; 1.4053559696692247E7 ; 2.3015985859327044E9 ; 2.431265827527761E9 ; 0.0
174 ; 1.2715070735090565E7 ; 1.4053559696692247E7 ; 2.314323827027918E9 ; 2.4453193872244534E9 ; 0.0
175 ; 1.2710370173861017E7 ; 1.4053559696692247E7 ; 2.3270388977630086E9 ; 2.459372946921146E9 ; 0.0
176 ; 1.2704478914942516E7 ; 1.4053559696692247E7 ; 2.3397492679368696E9 ; 2.4734265066178384E9 ; 0.0
177 ; 1.2694976219582774E7 ; 1.4053559696692247E7 ; 2.3524537468518124E9 ; 2.487480066314531E9 ; 0.0
178 ; 1.2688724318792896E7 ; 1.4053559696692247E7 ; 2.365148723071395E9 ; 2.5015336260112233E9 ; 0.0
179 ; 1.2681915470505595E7 ; 1.4053559696692247E7 ; 2.3778374473901877E9 ; 2.515587185707916E9 ; 0.0
180 ; 1.2671979952252898E7 ; 1.4053559696692247E7 ; 2.3905193628606935E9 ; 2.5296407454046082E9 ; 0.0
181 ; 1.2665146232282154E7 ; 1.4053559696692247E7 ; 2.4031913428129463E9 ; 2.5436943051013007E9 ; 0.0
182 ; 1.2654848523134079E7 ; 1.4053559696692247E7 ; 2.4158564890452285E9 ; 2.557747864797993E9 ; 0.0
183 ; 1.2648647060956413E7 ; 1.4053559696692247E7 ; 2.4285113375683627E9 ; 2.5718014244946856E9 ; 0.0
184 ; 1.2640766285319423E7 ; 1.4053559696692247E7 ; 2.441159984629319E9 ; 2.585854984191378E9 ; 0.0
185 ; 1.2627467085450433E7 ; 1.4053559696692247E7 ; 2.4538007509146385E9 ; 2.5999085438880706E9 ; 0.0
186 ; 1.262517019116709E7 ; 1.4053559696692247E7 ; 2.466428218000089E9 ; 2.613962103584763E9 ; 0.0
187 ; 1.2616666031650245E7 ; 1.4053559696692247E7 ; 2.479053388191256E9 ; 2.6280156632814555E9 ; 0.0
188 ; 1.2610137689521646E7 ; 1.4053559696692247E7 ; 2.491670054222906E9 ; 2.642069222978148E9 ; 0.0
189 ; 1.2599334177445194E7 ; 1.4053559696692247E7 ; 2.504280191912428E9 ; 2.6561227826748405E9 ; 0.0
190 ; 1.2587259455292333E7 ; 1.4053559696692247E7 ; 2.5168795260898733E9 ; 2.670176342371533E9 ; 0.0
191 ; 1.2585463123294486E7 ; 1.4053559696692247E7 ; 2.5294667855451655E9 ; 2.6842299020682254E9 ; 0.0
192 ; 1.257936921620363E7 ; 1.4053559696692247E7 ; 2.54205224866846E9 ; 2.698283461764918E9 ; 0.0
193 ; 1.2567487331824185E7 ; 1.4053559696692247E7 ; 2.5546316178846636E9 ; 2.7123370214616103E9 ; 0.0
194 ; 1.2562782321011925E7 ; 1.4053559696692247E7 ; 2.567199105216488E9 ; 2.726390581158303E9 ; 0.0
195 ; 1.2553392144273078E7 ; 1.4053559696692247E7 ; 2.5797618875375E9 ; 2.7404441408549953E9 ; 0.0
