CSV File for the City 3 on Day 185
1 - Minute m 
2 - Power Consumed at minute m 
3 - Power Produced at minute m 
4 - Energy Consumed since the beginning of the day 
5 - Energy Produced since the beginning of the day 
6 - Energy Lost since the beginning of the day on lines starting from the city
 
0 ; 440729.0726031723 ; 1.0546886132346764E8 ; 0.0 ; 0.0 ; 0.0
1 ; 444589.0323751509 ; 1.0562174840604669E8 ; 440729.0726031723 ; 1.0546886132346764E8 ; 0.0
2 ; 445786.13071475667 ; 1.0608342238816515E8 ; 885318.1049783232 ; 2.1109060972951433E8 ; 0.0
3 ; 448525.7464857296 ; 1.0685388521413118E8 ; 1331104.23569308 ; 3.171740321176795E8 ; 0.0
4 ; 451515.67152055603 ; 1.0793313863403153E8 ; 1779629.9821788096 ; 4.2402791733181065E8 ; 0.0
5 ; 456725.19966574805 ; 1.0932118419148886E8 ; 2231145.6536993654 ; 5.319610559658422E8 ; 0.0
6 ; 463173.73539641045 ; 1.1101802321259728E8 ; 2687870.8533651135 ; 6.41282240157331E8 ; 0.0
7 ; 471253.361494206 ; 1.130236567962169E8 ; 3151044.588761524 ; 7.523002633699282E8 ; 0.0
8 ; 482506.6390802945 ; 1.1533808580579019E8 ; 3622297.9502557297 ; 8.653239201661451E8 ; 0.0
9 ; 499712.7637666512 ; 1.179613108628217E8 ; 4104804.589336024 ; 9.806620059719353E8 ; 0.0
10 ; 526388.3788669263 ; 1.2089333234213537E8 ; 4604517.353102676 ; 1.0986233168347569E9 ; 0.0
11 ; 565881.9149340566 ; 1.2413415036899456E8 ; 5130905.731969602 ; 1.2195166491768923E9 ; 0.0
12 ; 632894.1709113324 ; 1.2768376481813589E8 ; 5696787.646903659 ; 1.3436507995458868E9 ; 0.0
13 ; 694820.3813541598 ; 1.3154217531473541E8 ; 6329681.817814992 ; 1.4713345643640227E9 ; 0.0
14 ; 701620.9199318038 ; 1.3570938123728865E8 ; 7024502.1991691515 ; 1.6028767396787581E9 ; 0.0
15 ; 705640.6283154804 ; 1.4018538172235304E8 ; 7726123.119100955 ; 1.7385861209160469E9 ; 0.0
16 ; 710271.5739184979 ; 1.4497017567106858E8 ; 8431763.747416437 ; 1.8787715026383998E9 ; 0.0
17 ; 711550.4673261984 ; 1.5006376175734106E8 ; 9142035.321334934 ; 2.0237416783094685E9 ; 0.0
18 ; 714682.5001111066 ; 1.5546613843754786E8 ; 9853585.788661132 ; 2.1738054400668097E9 ; 0.0
19 ; 720104.6018770693 ; 1.6117730396160224E8 ; 1.0568268288772238E7 ; 2.3292715785043573E9 ; 0.0
20 ; 721303.9330858551 ; 1.67197256385196E8 ; 1.1288372890649308E7 ; 2.4904488824659595E9 ; 0.0
21 ; 724142.6986032827 ; 1.7352599358302793E8 ; 1.2009676823735163E7 ; 2.6576461388511558E9 ; 0.0
22 ; 727868.2099498191 ; 1.8016351326281768E8 ; 1.2733819522338446E7 ; 2.8311721324341836E9 ; 0.0
23 ; 731009.1877449297 ; 1.8710981297990406E8 ; 1.3461687732288266E7 ; 3.0113356456970015E9 ; 0.0
24 ; 734170.7918590928 ; 1.9436489015222794E8 ; 1.4192696920033196E7 ; 3.1984454586769056E9 ; 0.0
25 ; 738157.7216073872 ; 2.0061678297369254E8 ; 1.4926867711892288E7 ; 3.3928103488291335E9 ; 0.0
26 ; 740173.8771182785 ; 2.0061903646624747E8 ; 1.5665025433499675E7 ; 3.593427131802826E9 ; 0.0
27 ; 742232.7091863863 ; 2.0062141701982573E8 ; 1.6405199310617954E7 ; 3.7940461682690735E9 ; 0.0
28 ; 746029.4805337837 ; 2.0062392165384343E8 ; 1.714743201980434E7 ; 3.9946675852888994E9 ; 0.0
29 ; 751152.8047159698 ; 2.006265473247331E8 ; 1.7893461500338122E7 ; 4.195291506942743E9 ; 0.0
30 ; 752363.0602352248 ; 2.006292909396783E8 ; 1.864461430505409E7 ; 4.395918054267476E9 ; 0.0
31 ; 754543.3507222495 ; 2.0063214936969897E8 ; 1.9396977365289316E7 ; 4.596547345207154E9 ; 0.0
32 ; 758715.8203528959 ; 2.0063511946201214E8 ; 2.0151520716011565E7 ; 4.797179494576853E9 ; 0.0
33 ; 761769.0629728504 ; 2.006381980516093E8 ; 2.0910236536364462E7 ; 4.997814614038865E9 ; 0.0
34 ; 765903.0551674471 ; 2.0064138197201017E8 ; 2.1672005599337313E7 ; 5.198452812090474E9 ; 0.0
35 ; 766222.3942772816 ; 2.0064466806516793E8 ; 2.243790865450476E7 ; 5.399094194062485E9 ; 0.0
36 ; 768676.772071655 ; 2.0064805319051605E8 ; 2.3204131048782043E7 ; 5.599738862127653E9 ; 0.0
37 ; 771779.5914550205 ; 2.0065153423315808E8 ; 2.39728078208537E7 ; 5.80038691531817E9 ; 0.0
38 ; 774496.3697231364 ; 2.006551081112147E8 ; 2.474458741230872E7 ; 6.001038449551328E9 ; 0.0
39 ; 776776.349863812 ; 2.0065877178235006E8 ; 2.5519083782031856E7 ; 6.201693557662542E9 ; 0.0
40 ; 778461.4925716256 ; 2.0066252224950764E8 ; 2.629586013189567E7 ; 6.402352329444893E9 ; 0.0
41 ; 780348.9217008703 ; 2.0066635656589192E8 ; 2.7074321624467295E7 ; 6.603014851694401E9 ; 0.0
42 ; 782109.0498544871 ; 2.0067027183923656E8 ; 2.7854670546168163E7 ; 6.803681208260293E9 ; 0.0
43 ; 784429.6256136036 ; 2.006742652354027E8 ; 2.863677959602265E7 ; 7.004351480099529E9 ; 0.0
44 ; 785260.600185058 ; 2.006783339813542E8 ; 2.9421209221636254E7 ; 7.205025745334932E9 ; 0.0
45 ; 787743.8692061828 ; 2.006824753675559E8 ; 3.0206469821821313E7 ; 7.405704079316286E9 ; 0.0
46 ; 791134.2719976989 ; 2.006866867498429E8 ; 3.0994213691027496E7 ; 7.606386554683842E9 ; 0.0
47 ; 792476.297620753 ; 2.0069096555080748E8 ; 3.1785347963025194E7 ; 7.807073241433684E9 ; 0.0
48 ; 792724.6219494595 ; 2.0069530926074845E8 ; 3.257782426064595E7 ; 8.007764206984491E9 ; 0.0
49 ; 794318.6434406922 ; 2.0069971543822804E8 ; 3.337054888259541E7 ; 8.20845951624524E9 ; 0.0
50 ; 796079.4246260811 ; 2.0070418171027735E8 ; 3.41648675260361E7 ; 8.409159231683468E9 ; 0.0
51 ; 796750.0402920073 ; 2.0070870577229044E8 ; 3.496094695066218E7 ; 8.609863413393745E9 ; 0.0
52 ; 797826.5910780657 ; 2.0071328538764426E8 ; 3.575769699095419E7 ; 8.810572119166037E9 ; 0.0
53 ; 798587.8012334172 ; 2.0071791838707948E8 ; 3.6555523582032256E7 ; 9.01128540455368E9 ; 0.0
54 ; 800406.5803272809 ; 2.0072260266787377E8 ; 3.7354111383265674E7 ; 9.21200332294076E9 ; 0.0
55 ; 800795.3248056975 ; 2.007273361928379E8 ; 3.8154517963592954E7 ; 9.412725925608633E9 ; 0.0
56 ; 802389.9144064437 ; 2.0073211698916128E8 ; 3.895531328839865E7 ; 9.613453261801472E9 ; 0.0
57 ; 805208.1849702019 ; 2.007369431471319E8 ; 3.9757703202805094E7 ; 9.814185378790632E9 ; 0.0
58 ; 802091.8174174825 ; 2.0074181281875256E8 ; 4.0562911387775294E7 ; 1.0014922321937763E10 ; 0.0
59 ; 805685.8819851729 ; 2.0074672421627423E8 ; 4.1365003205192775E7 ; 1.0215664134756516E10 ; 0.0
60 ; 805794.1437794613 ; 2.0075167561066368E8 ; 4.217068908717795E7 ; 1.041641085897279E10 ; 0.0
61 ; 806623.3960341607 ; 2.0075666533002204E8 ; 4.297648323095741E7 ; 1.0617162534583454E10 ; 0.0
62 ; 806737.1840590368 ; 2.007616917579682E8 ; 4.378310662699157E7 ; 1.0817919199913477E10 ; 0.0
63 ; 808630.7956693791 ; 2.0076675333199963E8 ; 4.458984381105061E7 ; 1.1018680891671446E10 ; 0.0
64 ; 808969.6730899557 ; 2.0077184854184172E8 ; 4.5398474606719986E7 ; 1.1219447645003445E10 ; 0.0
65 ; 811246.8496833069 ; 2.0077697592779472E8 ; 4.6207444279809944E7 ; 1.1420219493545286E10 ; 0.0
66 ; 810234.64507719 ; 2.007821340790874E8 ; 4.701869112949325E7 ; 1.1620996469473082E10 ; 0.0
67 ; 812979.5627293626 ; 2.007873216322436E8 ; 4.782892577457044E7 ; 1.182177860355217E10 ; 0.0
68 ; 811326.5789973296 ; 2.0079253726946828E8 ; 4.864190533729981E7 ; 1.2022565925184414E10 ; 0.0
69 ; 813944.5407798074 ; 2.0079777971705815E8 ; 4.945323191629714E7 ; 1.2223358462453882E10 ; 0.0
70 ; 815763.0892133376 ; 2.008030477438408E8 ; 5.0267176457076944E7 ; 1.242415624217094E10 ; 0.0
71 ; 814865.4883845801 ; 2.0080834015964624E8 ; 5.108293954629028E7 ; 1.2624959289914782E10 ; 0.0
72 ; 815039.8740731378 ; 2.0081365581381336E8 ; 5.189780503467486E7 ; 1.2825767630074429E10 ; 0.0
73 ; 817469.1931189657 ; 2.0081899359373397E8 ; 5.2712844908748E7 ; 1.3026581285888243E10 ; 0.0
74 ; 815600.9607973164 ; 2.008243524234355E8 ; 5.353031410186697E7 ; 1.3227400279481977E10 ; 0.0
75 ; 815585.6317378224 ; 2.0082973126220444E8 ; 5.4345915062664285E7 ; 1.3428224631905413E10 ; 0.0
76 ; 816953.8009916185 ; 2.008351291032506E8 ; 5.5161500694402106E7 ; 1.3629054363167618E10 ; 0.0
77 ; 818097.7872790186 ; 2.0084054497241354E8 ; 5.597845449539372E7 ; 1.3829889492270868E10 ; 0.0
78 ; 818879.3828245047 ; 2.008459779269106E8 ; 5.679655228267274E7 ; 1.4030730037243282E10 ; 0.0
79 ; 818697.1444078966 ; 2.008514270541272E8 ; 5.761543166549724E7 ; 1.4231576015170193E10 ; 0.0
80 ; 817845.2500112887 ; 2.0085689147044864E8 ; 5.843412880990514E7 ; 1.443242744222432E10 ; 0.0
81 ; 817821.2674968992 ; 2.0086237032013345E8 ; 5.925197405991643E7 ; 1.4633284333694769E10 ; 0.0
82 ; 818510.7391091093 ; 2.0086786277422735E8 ; 6.006979532741333E7 ; 1.4834146704014902E10 ; 0.0
83 ; 817607.3063546466 ; 2.008733680295173E8 ; 6.0888306066522434E7 ; 1.503501456678913E10 ; 0.0
84 ; 817239.5748245774 ; 2.008788853075248E8 ; 6.170591337287708E7 ; 1.5235887934818647E10 ; 0.0
85 ; 816977.5308842353 ; 2.008844138535375E8 ; 6.252315294770166E7 ; 1.5436766820126173E10 ; 0.0
86 ; 815269.4707515952 ; 2.0088995293567845E8 ; 6.33401304785859E7 ; 1.563765123397971E10 ; 0.0
87 ; 814343.2072538332 ; 2.0089550184401128E8 ; 6.41553999493375E7 ; 1.5838541186915388E10 ; 0.0
88 ; 815993.9623109258 ; 2.0090105988968122E8 ; 6.496974315659133E7 ; 1.60394366887594E10 ; 0.0
89 ; 814453.2912104529 ; 2.0090662640409E8 ; 6.578573711890226E7 ; 1.624033774864908E10 ; 0.0
90 ; 813121.3148348716 ; 2.0091220073810413E8 ; 6.660019041011271E7 ; 1.6441244375053171E10 ; 0.0
91 ; 814482.8573737415 ; 2.0091778226129526E8 ; 6.741331172494759E7 ; 1.6642156575791275E10 ; 0.0
92 ; 815254.080879842 ; 2.009233703612113E8 ; 6.822779458232133E7 ; 1.684307435805257E10 ; 0.0
93 ; 813452.0882363416 ; 2.0092896444267774E8 ; 6.904304866320117E7 ; 1.7043997728413782E10 ; 0.0
94 ; 812631.3778171767 ; 2.0093456392712736E8 ; 6.985650075143752E7 ; 1.724492669285646E10 ; 0.0
95 ; 812835.5328071933 ; 2.009401682519581E8 ; 7.06691321292547E7 ; 1.744586125678359E10 ; 0.0
96 ; 811354.9876165967 ; 2.0094577686991712E8 ; 7.148196766206188E7 ; 1.7646801425035545E10 ; 0.0
97 ; 810327.5784613373 ; 2.0095138924851096E8 ; 7.229332264967848E7 ; 1.7847747201905464E10 ; 0.0
98 ; 810586.2837812051 ; 2.0095700486943993E8 ; 7.310365022813982E7 ; 1.8048698591153976E10 ; 0.0
99 ; 808947.3685538006 ; 2.009626232280564E8 ; 7.391423651192102E7 ; 1.8249655596023415E10 ; 0.0
100 ; 809697.2172181571 ; 2.0096824383284557E8 ; 7.472318388047482E7 ; 1.8450618219251472E10 ; 0.0
101 ; 809368.2964038226 ; 2.0097386620492834E8 ; 7.553288109769298E7 ; 1.8651586463084316E10 ; 0.0
102 ; 806767.1762289393 ; 2.0097948987758458E8 ; 7.63422493940968E7 ; 1.8852560329289246E10 ; 0.0
103 ; 807125.6103814779 ; 2.009851143957968E8 ; 7.714901657032575E7 ; 1.9053539819166832E10 ; 0.0
104 ; 805505.608060799 ; 2.0099073931581277E8 ; 7.795614218070723E7 ; 1.925452493356263E10 ; 0.0
105 ; 804578.3137938218 ; 2.0099636420472652E8 ; 7.876164778876802E7 ; 1.945551567287844E10 ; 0.0
106 ; 806042.5752059297 ; 2.0100198864007697E8 ; 7.956622610256185E7 ; 1.9656512037083168E10 ; 0.0
107 ; 805033.5190702208 ; 2.010076122094634E8 ; 8.037226867776778E7 ; 1.9857514025723244E10 ; 0.0
108 ; 804377.7367830558 ; 2.010132345101768E8 ; 8.1177302196838E7 ; 2.005852163793271E10 ; 0.0
109 ; 803349.6561258505 ; 2.0101885514884707E8 ; 8.198167993362106E7 ; 2.0259534872442886E10 ; 0.0
110 ; 801745.0052771892 ; 2.0102447374110442E8 ; 8.27850295897469E7 ; 2.0460553727591732E10 ; 0.0
111 ; 801071.6936422995 ; 2.010300899112553E8 ; 8.35867745950241E7 ; 2.0661578201332836E10 ; 0.0
112 ; 801457.8415787109 ; 2.0103570329197165E8 ; 8.43878462886664E7 ; 2.086260829124409E10 ; 0.0
113 ; 799438.9449354683 ; 2.0104131352399307E8 ; 8.51893041302451E7 ; 2.1063643994536064E10 ; 0.0
114 ; 796783.908094997 ; 2.010469202558413E8 ; 8.598874307518058E7 ; 2.126468530806006E10 ; 0.0
115 ; 796191.5373630326 ; 2.0105252314354673E8 ; 8.678552698327558E7 ; 2.14657322283159E10 ; 0.0
116 ; 796198.8046068721 ; 2.0105812185038573E8 ; 8.758171852063861E7 ; 2.1666784751459446E10 ; 0.0
117 ; 795900.5433361708 ; 2.010637160466293E8 ; 8.837791732524548E7 ; 2.1867842873309834E10 ; 0.0
118 ; 794300.641397796 ; 2.0106930540930182E8 ; 8.917381786858165E7 ; 2.2068906589356464E10 ; 0.0
119 ; 792380.7390773209 ; 2.0107488962194946E8 ; 8.996811850997944E7 ; 2.2269975894765766E10 ; 0.0
120 ; 792863.1476917256 ; 2.010804683744185E8 ; 9.076049924905676E7 ; 2.2471050784387714E10 ; 0.0
121 ; 789619.4679822956 ; 2.0108604136264232E8 ; 9.155336239674848E7 ; 2.2672131252762135E10 ; 0.0
122 ; 789504.3406594483 ; 2.0109160828843716E8 ; 9.234298186473078E7 ; 2.287321729412478E10 ; 0.0
123 ; 789558.9740430058 ; 2.0109716885930616E8 ; 9.313248620539023E7 ; 2.3074308902413216E10 ; 0.0
124 ; 788537.0613916079 ; 2.011027227882512E8 ; 9.392204517943324E7 ; 2.3275406071272522E10 ; 0.0
125 ; 787142.5108616521 ; 2.0110826979359248E8 ; 9.471058224082485E7 ; 2.3476508794060772E10 ; 0.0
126 ; 785802.0805852093 ; 2.011138095987952E8 ; 9.54977247516865E7 ; 2.3677617063854366E10 ; 0.0
127 ; 784862.5513348093 ; 2.011193419323032E8 ; 9.628352683227171E7 ; 2.3878730873453163E10 ; 0.0
128 ; 784446.245209279 ; 2.0112486652737918E8 ; 9.706838938360652E7 ; 2.4079850215385468E10 ; 0.0
129 ; 781861.3778610742 ; 2.0113038312195137E8 ; 9.78528356288158E7 ; 2.4280975081912846E10 ; 0.0
130 ; 781897.4115646916 ; 2.011358914584662E8 ; 9.863469700667687E7 ; 2.4482105465034798E10 ; 0.0
131 ; 780158.3010861287 ; 2.011413912837467E8 ; 9.941659441824156E7 ; 2.4683241356493263E10 ; 0.0
132 ; 777051.207713477 ; 2.0114688234885657E8 ; 1.0019675271932769E8 ; 2.4884382747777008E10 ; 0.0
133 ; 776786.2058293414 ; 2.011523644089696E8 ; 1.0097380392704116E8 ; 2.5085529630125866E10 ; 0.0
134 ; 774207.6654449175 ; 2.0115783722324404E8 ; 1.017505901328705E8 ; 2.5286681994534836E10 ; 0.0
135 ; 772868.1760640377 ; 2.0116330055470192E8 ; 1.025247977983154E8 ; 2.548783983175808E10 ; 0.0
136 ; 768974.0917743628 ; 2.0116875417011312E8 ; 1.0329766597437945E8 ; 2.5689003132312782E10 ; 0.0
137 ; 766929.8430786656 ; 2.0117419783988377E8 ; 1.0406664006615381E8 ; 2.5890171886482895E10 ; 0.0
138 ; 766558.4392632702 ; 2.0117963133794907E8 ; 1.0483356990923248E8 ; 2.6091346084322777E10 ; 0.0
139 ; 763500.4125557315 ; 2.0118505444167012E8 ; 1.0560012834849575E8 ; 2.6292525715660725E10 ; 0.0
140 ; 761956.1951051635 ; 2.011904669317347E8 ; 1.0636362876105148E8 ; 2.6493710770102394E10 ; 0.0
141 ; 757320.4954537711 ; 2.0119586859206194E8 ; 1.0712558495615664E8 ; 2.669490123703413E10 ; 0.0
142 ; 757584.3600554661 ; 2.0120125920971045E8 ; 1.0788290545161042E8 ; 2.689609710562619E10 ; 0.0
143 ; 754767.6530971031 ; 2.012066385747899E8 ; 1.0864048981166588E8 ; 2.70972983648359E10 ; 0.0
144 ; 752355.1468548981 ; 2.0121200648037618E8 ; 1.0939525746476299E8 ; 2.729850500341069E10 ; 0.0
145 ; 751547.1958938115 ; 2.0121736272242934E8 ; 1.1014761261161788E8 ; 2.7499717009891068E10 ; 0.0
146 ; 750735.015342966 ; 2.0122270709971505E8 ; 1.1089915980751169E8 ; 2.77009343726135E10 ; 0.0
147 ; 748549.9818454335 ; 2.0122803941372854E8 ; 1.1164989482285465E8 ; 2.7902157079713215E10 ; 0.0
148 ; 749621.8721513171 ; 2.0123335946862164E8 ; 1.1239844480470009E8 ; 2.810338511912694E10 ; 0.0
149 ; 747578.5226062484 ; 2.0123866707113254E8 ; 1.131480666768514E8 ; 2.8304618478595562E10 ; 0.0
150 ; 745910.7375316367 ; 2.0124396203051782E8 ; 1.1389564519945766E8 ; 2.8505857145666695E10 ; 0.0
151 ; 744301.5150946171 ; 2.0124924415848738E8 ; 1.1464155593698929E8 ; 2.8707101107697212E10 ; 0.0
152 ; 743510.0992473711 ; 2.0125451326914147E8 ; 1.1538585745208392E8 ; 2.89083503518557E10 ; 0.0
153 ; 740275.470143603 ; 2.0125976917891005E8 ; 1.1612936755133128E8 ; 2.9109604865124844E10 ; 0.0
154 ; 738861.623723826 ; 2.0126501170649448E8 ; 1.1686964302147488E8 ; 2.9310864634303753E10 ; 0.0
155 ; 739572.4567590737 ; 2.0127024067281124E8 ; 1.176085046451987E8 ; 2.9512129646010246E10 ; 0.0
156 ; 738813.3645907458 ; 2.0127545590093756E8 ; 1.1834807710195778E8 ; 2.9713399886683056E10 ; 0.0
157 ; 737065.1107063036 ; 2.012806572160592E8 ; 1.1908689046654853E8 ; 2.9914675342583992E10 ; 0.0
158 ; 736297.8959145684 ; 2.0128584444542003E8 ; 1.1982395557725483E8 ; 3.0115955999800053E10 ; 0.0
159 ; 734595.6880860771 ; 2.012910174182733E8 ; 1.205602534731694E8 ; 3.0317241844245472E10 ; 0.0
160 ; 734036.8048254561 ; 2.012961759658348E8 ; 1.2129484916125548E8 ; 3.0518532861663746E10 ; 0.0
161 ; 731660.1276546073 ; 2.0130131992123756E8 ; 1.2202888596608093E8 ; 3.071982903762958E10 ; 0.0
162 ; 731287.5523007252 ; 2.013064491194883E8 ; 1.2276054609373555E8 ; 3.092113035755082E10 ; 0.0
163 ; 730716.511630728 ; 2.0131156339742514E8 ; 1.2349183364603627E8 ; 3.1122436806670307E10 ; 0.0
164 ; 728711.291416983 ; 2.0131666259367713E8 ; 1.24222550157667E8 ; 3.1323748370067734E10 ; 0.0
165 ; 728476.5371630613 ; 2.013217465486249E8 ; 1.2495126144908398E8 ; 3.152506503266141E10 ; 0.0
166 ; 727535.8603373598 ; 2.0132681510436288E8 ; 1.2567973798624705E8 ; 3.1726386779210037E10 ; 0.0
167 ; 725114.5251512466 ; 2.0133186810466272E8 ; 1.2640727384658441E8 ; 3.19277135943144E10 ; 0.0
168 ; 722694.9678668231 ; 2.0133690539493808E8 ; 1.2713238837173566E8 ; 3.2129045462419064E10 ; 0.0
169 ; 723500.8430337618 ; 2.0134192682221052E8 ; 1.2785508333960249E8 ; 3.2330382367814003E10 ; 0.0
170 ; 720078.29513915 ; 2.0134693223507658E8 ; 1.2857858418263625E8 ; 3.2531724294636215E10 ; 0.0
171 ; 720744.479656076 ; 2.013519214836761E8 ; 1.292986624777754E8 ; 3.2733071226871292E10 ; 0.0
172 ; 718754.6580733542 ; 2.013568944196615E8 ; 1.3001940695743147E8 ; 3.293442314835497E10 ; 0.0
173 ; 718589.6029738901 ; 2.013618508961682E8 ; 1.3073816161550482E8 ; 3.313578004277463E10 ; 0.0
174 ; 716246.2589044193 ; 2.0136679076778597E8 ; 1.3145675121847871E8 ; 3.33371418936708E10 ; 0.0
175 ; 714982.0482387992 ; 2.013717138905312E8 ; 1.3217299747738312E8 ; 3.3538508684438583E10 ; 0.0
176 ; 714093.3606298057 ; 2.0137662012182045E8 ; 1.3288797952562192E8 ; 3.3739880398329113E10 ; 0.0
177 ; 712306.3879472228 ; 2.0138150932044432E8 ; 1.3360207288625173E8 ; 3.3941257018450935E10 ; 0.0
178 ; 714122.8031397023 ; 2.0138638134654266E8 ; 1.3431437927419895E8 ; 3.414263852777138E10 ; 0.0
179 ; 711342.5047315799 ; 2.013912360615805E8 ; 1.3502850207733867E8 ; 3.4344024909117924E10 ; 0.0
180 ; 712080.6167763165 ; 2.0139607332832476E8 ; 1.3573984458207023E8 ; 3.4545416145179504E10 ; 0.0
181 ; 709354.2643818245 ; 2.0140089301082152E8 ; 1.3645192519884655E8 ; 3.474681221850783E10 ; 0.0
182 ; 709525.2643730035 ; 2.0140569497437453E8 ; 1.3716127946322837E8 ; 3.494821311151865E10 ; 0.0
183 ; 709325.1194685446 ; 2.01410479085524E8 ; 1.3787080472760138E8 ; 3.514961880649302E10 ; 0.0
184 ; 706639.0347123867 ; 2.0141524521202618E8 ; 1.3858012984706992E8 ; 3.5351029285578545E10 ; 0.0
185 ; 705586.1454516725 ; 2.014199932228339E8 ; 1.392867688817823E8 ; 3.555244453079057E10 ; 0.0
186 ; 704948.9214621136 ; 2.0142472298807737E8 ; 1.3999235502723396E8 ; 3.5753864524013405E10 ; 0.0
187 ; 704120.2970283692 ; 2.014294343790458E8 ; 1.4069730394869608E8 ; 3.595528924700148E10 ; 0.0
188 ; 705866.5418895321 ; 2.0143412726816964E8 ; 1.4140142424572444E8 ; 3.615671868138052E10 ; 0.0
189 ; 705185.1882566145 ; 2.0143880152900332E8 ; 1.4210729078761396E8 ; 3.63581528086487E10 ; 0.0
190 ; 701769.3409126069 ; 2.014434570362086E8 ; 1.4281247597587058E8 ; 3.6559591610177704E10 ; 0.0
191 ; 700913.4782361621 ; 2.014480936655385E8 ; 1.435142453167832E8 ; 3.676103506721391E10 ; 0.0
192 ; 701467.0725207969 ; 2.0145271129382163E8 ; 1.4421515879501936E8 ; 3.696248316087945E10 ; 0.0
193 ; 699513.8516967606 ; 2.0145730979894724E8 ; 1.4491662586754015E8 ; 3.716393587217327E10 ; 0.0
194 ; 698634.2101119992 ; 2.0146188905985045E8 ; 1.456161397192369E8 ; 3.736539318197222E10 ; 0.0
195 ; 698224.8288612481 ; 2.0146644895649832E8 ; 1.4631477392934892E8 ; 3.7566855071032074E10 ; 0.0
196 ; 696951.4446906408 ; 2.01470989369876E8 ; 1.4701299875821015E8 ; 3.776832151998857E10 ; 0.0
197 ; 696137.2721493208 ; 2.0147551018197367E8 ; 1.477099502029008E8 ; 3.7969792509358444E10 ; 0.0
198 ; 694624.3281427226 ; 2.0148001127577358E8 ; 1.4840608747505012E8 ; 3.817126801954042E10 ; 0.0
199 ; 694483.8797094522 ; 2.0148449253523785E8 ; 1.4910071180319285E8 ; 3.837274803081619E10 ; 0.0
200 ; 693809.0375952404 ; 2.0148895384529635E8 ; 1.497951956829023E8 ; 3.857423252335143E10 ; 0.0
201 ; 692161.4022808021 ; 1.9173488136112633E8 ; 1.5048900472049755E8 ; 3.877572147719673E10 ; 0.0
