CSV File for the City 4 on Day 168
1 - Minute m 
2 - Power Consumed at minute m 
3 - Power Produced at minute m 
4 - Energy Consumed since the beginning of the day 
5 - Energy Produced since the beginning of the day 
6 - Energy Lost since the beginning of the day on lines starting from the city
 
0 ; 2451943.108554883 ; 1.0614638499739054E8 ; 0.0 ; 0.0 ; 0.0
1 ; 2459905.4645007234 ; 1.0629690716069198E8 ; 2451943.108554883 ; 1.0614638499739054E8 ; 0.0
2 ; 2460895.5958914496 ; 1.0675645788473418E8 ; 4911848.573055606 ; 2.1244329215808252E8 ; 0.0
3 ; 2470176.0212927544 ; 1.075250414902665E8 ; 7372744.168947056 ; 3.191997500428167E8 ; 0.0
4 ; 2475866.6839628373 ; 1.0860266185291088E8 ; 9842920.19023981 ; 4.267247915330832E8 ; 0.0
5 ; 2489913.0383027513 ; 1.0998932238052362E8 ; 1.2318786874202646E7 ; 5.353274533859941E8 ; 0.0
6 ; 2505718.642158068 ; 1.1168502599288669E8 ; 1.4808699912505398E7 ; 6.453167757665176E8 ; 0.0
7 ; 2522310.642603055 ; 1.1368977510400605E8 ; 1.7314418554663464E7 ; 7.570018017594043E8 ; 0.0
8 ; 2552507.8652115255 ; 1.1600357160726482E8 ; 1.983672919726652E7 ; 8.706915768634104E8 ; 0.0
9 ; 2604371.919884711 ; 1.1862641686364514E8 ; 2.2389237062478043E7 ; 9.866951484706752E8 ; 0.0
10 ; 2679808.5317256474 ; 1.2155831169318795E8 ; 2.4993608982362755E7 ; 1.1053215653343203E9 ; 0.0
11 ; 2800156.7170854695 ; 1.24799256369818E8 ; 2.7673417514088403E7 ; 1.2268798770275083E9 ; 0.0
12 ; 2997505.987835127 ; 1.2834925061961052E8 ; 3.0473574231173873E7 ; 1.3516791333973262E9 ; 0.0
13 ; 3189873.5083628367 ; 1.3220829362252456E8 ; 3.3471080219009E7 ; 1.4800283840169368E9 ; 0.0
14 ; 3206912.8592881756 ; 1.3637638401757807E8 ; 3.6660953727371834E7 ; 1.6122366776394613E9 ; 0.0
15 ; 3217271.946155051 ; 1.408535199113878E8 ; 3.986786658666001E7 ; 1.7486130616570394E9 ; 0.0
16 ; 3223820.761184671 ; 1.4563969888994792E8 ; 4.308513853281506E7 ; 1.889466581568427E9 ; 0.0
17 ; 3228607.7982473364 ; 1.5073491803347638E8 ; 4.630895929399973E7 ; 2.035106280458375E9 ; 0.0
18 ; 3234913.4714947212 ; 1.561391739341169E8 ; 4.953756709224707E7 ; 2.1858411984918513E9 ; 0.0
19 ; 3243733.574090889 ; 1.6185246271624747E8 ; 5.277248056374179E7 ; 2.341980372425968E9 ; 0.0
20 ; 3252877.9351234874 ; 1.678747800591189E8 ; 5.601621413783268E7 ; 2.5038328351422157E9 ; 0.0
21 ; 3261299.1920261844 ; 1.742061212215211E8 ; 5.926909207295617E7 ; 2.6717076152013345E9 ; 0.0
22 ; 3268159.572724527 ; 1.808464810681619E8 ; 6.253039126498235E7 ; 2.8459137364228554E9 ; 0.0
23 ; 3275819.044501096 ; 1.8779585409743124E8 ; 6.579855083770688E7 ; 3.0267602174910173E9 ; 0.0
24 ; 3281188.4941059 ; 1.950542344702224E8 ; 6.907436988220797E7 ; 3.2145560715884485E9 ; 0.0
25 ; 3290499.603779534 ; 2.0130965693767107E8 ; 7.235555837631388E7 ; 3.409610306058671E9 ; 0.0
26 ; 3295475.2961857505 ; 2.013156629080238E8 ; 7.564605798009342E7 ; 3.610919962996342E9 ; 0.0
27 ; 3306258.7661630698 ; 2.0132201500163397E8 ; 7.894153327627917E7 ; 3.812235625904366E9 ; 0.0
28 ; 3312168.1249464727 ; 2.0132870632766426E8 ; 8.224779204244223E7 ; 4.013557640906E9 ; 0.0
29 ; 3320259.2361222627 ; 2.013357298068432E8 ; 8.55599601673887E7 ; 4.2148863472336645E9 ; 0.0
30 ; 3326280.139207828 ; 2.013430782003238E8 ; 8.888021940351097E7 ; 4.416222077040507E9 ; 0.0
31 ; 3334108.374742482 ; 2.013507441376851E8 ; 9.22064995427188E7 ; 4.617565155240831E9 ; 0.0
32 ; 3338847.553352251 ; 2.0135872014389816E8 ; 9.554060791746128E7 ; 4.818915899378516E9 ; 0.0
33 ; 3345846.9639804526 ; 2.0136699866510817E8 ; 9.887945547081353E7 ; 5.020274619522414E9 ; 0.0
34 ; 3354256.8394376445 ; 2.0137557209311095E8 ; 1.0222530243479398E8 ; 5.221641618187522E9 ; 0.0
35 ; 3358758.308574279 ; 2.0138443278842956E8 ; 1.0557955927423163E8 ; 5.423017190280633E9 ; 0.0
36 ; 3363130.712028131 ; 2.013935731019227E8 ; 1.089383175828059E8 ; 5.624401623069062E9 ; 0.0
37 ; 3369132.5398626737 ; 2.014029853948793E8 ; 1.1230144829483403E8 ; 5.825795196170985E9 ; 0.0
38 ; 3374644.990403972 ; 2.014126620575768E8 ; 1.1567058083469671E8 ; 6.027198181565865E9 ; 0.0
39 ; 3382194.924627426 ; 2.0142259552629885E8 ; 1.1904522582510068E8 ; 6.228610843623442E9 ; 0.0
40 ; 3383272.6062065954 ; 2.0143277829882658E8 ; 1.224274207497281E8 ; 6.43003343914974E9 ; 0.0
41 ; 3391049.964504451 ; 2.0144320294843182E8 ; 1.258106933559347E8 ; 6.631466217448566E9 ; 0.0
42 ; 3393104.6866004094 ; 2.014538621364133E8 ; 1.2920174332043914E8 ; 6.832909420396998E9 ; 0.0
43 ; 3400854.1088995384 ; 2.0146474862322807E8 ; 1.3259484800703955E8 ; 7.034363282533412E9 ; 0.0
44 ; 3402418.0737948664 ; 2.014758552782777E8 ; 1.3599570211593908E8 ; 7.23582803115664E9 ; 0.0
45 ; 3406172.5439023413 ; 2.0148717508841637E8 ; 1.3939812018973395E8 ; 7.437303886434917E9 ; 0.0
46 ; 3408038.619420178 ; 2.014987011652519E8 ; 1.428042927336363E8 ; 7.638791061523334E9 ; 0.0
47 ; 3410642.786185628 ; 2.015104267513143E8 ; 1.4621233135305646E8 ; 7.840289762688585E9 ; 0.0
48 ; 3415956.4021209395 ; 2.0152234522516835E8 ; 1.4962297413924208E8 ; 8.041800189439899E9 ; 0.0
49 ; 3414093.2324282536 ; 2.0153445010554644E8 ; 1.5303893054136303E8 ; 8.243322534665068E9 ; 0.0
50 ; 3414891.4392456906 ; 2.0154673505457914E8 ; 1.5645302377379128E8 ; 8.444856984770614E9 ; 0.0
51 ; 3419409.5583346337 ; 2.0155919388019735E8 ; 1.5986791521303698E8 ; 8.646403719825193E9 ; 0.0
52 ; 3420811.7157263216 ; 2.0157182053777987E8 ; 1.632873247713716E8 ; 8.84796291370539E9 ; 0.0
53 ; 3420468.9113922133 ; 2.0158460913111678E8 ; 1.6670813648709792E8 ; 9.049534734243172E9 ; 0.0
54 ; 3423008.494830871 ; 2.0159755391275546E8 ; 1.7012860539849013E8 ; 9.251119343374289E9 ; 0.0
55 ; 3424434.4242001777 ; 2.0161064928379405E8 ; 1.73551613893321E8 ; 9.452716897287045E9 ; 0.0
56 ; 3424215.8342120517 ; 2.0162388979318222E8 ; 1.7697604831752118E8 ; 9.654327546570839E9 ; 0.0
57 ; 3425507.2648897106 ; 2.0163727013658637E8 ; 1.8040026415173325E8 ; 9.855951436364021E9 ; 0.0
58 ; 3427748.910059554 ; 2.0165078515487176E8 ; 1.8382577141662297E8 ; 1.0057588706500608E10 ; 0.0
59 ; 3428730.8004539884 ; 2.0166442983225152E8 ; 1.872535203266825E8 ; 1.025923949165548E10 ; 0.0
60 ; 3427269.4229897773 ; 2.0167819929414704E8 ; 1.906822511271365E8 ; 1.046090392148773E10 ; 0.0
61 ; 3429835.4800426224 ; 2.016920888048021E8 ; 1.9410952055012628E8 ; 1.0662582120781878E10 ; 0.0
62 ; 3431518.7051322395 ; 2.017060937646889E8 ; 1.9753935603016892E8 ; 1.086427420958668E10 ; 0.0
63 ; 3431601.7300791354 ; 2.01720209707741E8 ; 2.0097087473530117E8 ; 1.1065980303351368E10 ; 0.0
64 ; 3432893.7738576825 ; 2.017344322984439E8 ; 2.044024764653803E8 ; 1.1267700513059109E10 ; 0.0
65 ; 3432170.835061113 ; 2.0174875732881358E8 ; 2.07835370239238E8 ; 1.1469434945357553E10 ; 0.0
66 ; 3434679.012051726 ; 2.0176318071528685E8 ; 2.112675410742991E8 ; 1.1671183702686367E10 ; 0.0
67 ; 3432831.030436741 ; 2.0177769849554792E8 ; 2.1470222008635083E8 ; 1.1872946883401653E10 ; 0.0
68 ; 3437181.730236814 ; 2.0179230682531124E8 ; 2.1813505111678758E8 ; 1.2074724581897202E10 ; 0.0
69 ; 3436103.2516211546 ; 2.0180700197507867E8 ; 2.215722328470244E8 ; 1.2276516888722513E10 ; 0.0
70 ; 3433584.3645798736 ; 2.018217803268875E8 ; 2.2500833609864557E8 ; 1.2478323890697592E10 ; 0.0
71 ; 3436060.209116738 ; 2.0183663837106344E8 ; 2.2844192046322545E8 ; 1.2680145671024479E10 ; 0.0
72 ; 3435331.769019015 ; 2.018515727029906E8 ; 2.3187798067234218E8 ; 1.2881982309395542E10 ; 0.0
73 ; 3435187.212260537 ; 2.0186658001990974E8 ; 2.353133124413612E8 ; 1.3083833882098534E10 ; 0.0
74 ; 3437379.7495086924 ; 2.0188165711775357E8 ; 2.3874849965362173E8 ; 1.3285700462118443E10 ; 0.0
75 ; 3433854.4895597617 ; 2.0189680088802734E8 ; 2.421858794031304E8 ; 1.3487582119236197E10 ; 0.0
76 ; 3437753.9502243614 ; 2.0191200831474143E8 ; 2.4561973389269018E8 ; 1.3689478920124224E10 ; 0.0
77 ; 3433789.162527215 ; 2.019272764714013E8 ; 2.4905748784291455E8 ; 1.3891390928438965E10 ; 0.0
78 ; 3432728.200945522 ; 2.0194260251805964E8 ; 2.5249127700544176E8 ; 1.4093318204910366E10 ; 0.0
79 ; 3430563.581126734 ; 2.0195798369843465E8 ; 2.5592400520638728E8 ; 1.4295260807428425E10 ; 0.0
80 ; 3428764.7816931633 ; 2.0197341733709705E8 ; 2.59354568787514E8 ; 1.449721879112686E10 ; 0.0
81 ; 3424792.9234920037 ; 2.019889008367283E8 ; 2.6278333356920716E8 ; 1.4699192208463957E10 ; 0.0
82 ; 3426765.500826596 ; 2.020044316754519E8 ; 2.6620812649269918E8 ; 1.4901181109300686E10 ; 0.0
83 ; 3420145.857079925 ; 2.020200074042386E8 ; 2.6963489199352574E8 ; 1.5103185540976137E10 ; 0.0
84 ; 3417550.326982175 ; 2.0203562564438638E8 ; 2.7305503785060567E8 ; 1.5305205548380375E10 ; 0.0
85 ; 3415686.1693751863 ; 2.0205128408507538E8 ; 2.7647258817758787E8 ; 1.5507241174024761E10 ; 0.0
86 ; 3414039.3320560963 ; 2.0206698048099777E8 ; 2.7988827434696305E8 ; 1.5709292458109837E10 ; 0.0
87 ; 3408808.63776608 ; 2.02082712650062E8 ; 2.8330231367901915E8 ; 1.5911359438590834E10 ; 0.0
88 ; 3406276.167828526 ; 2.0209847847117078E8 ; 2.867111223167852E8 ; 1.6113442151240896E10 ; 0.0
89 ; 3402904.5577376895 ; 2.0211427588207224E8 ; 2.901173984846137E8 ; 1.6315540629712067E10 ; 0.0
90 ; 3401731.0080953287 ; 2.021301028772824E8 ; 2.935203030423514E8 ; 1.651765490559414E10 ; 0.0
91 ; 3401225.3066516374 ; 2.021459575060785E8 ; 2.9692203405044675E8 ; 1.6719785008471422E10 ; 0.0
92 ; 3395144.112667088 ; 2.0216183787056127E8 ; 3.003232593570984E8 ; 1.69219309659775E10 ; 0.0
93 ; 3391710.62995592 ; 2.0217774212378487E8 ; 3.037184034697655E8 ; 1.7124092803848063E10 ; 0.0
94 ; 3390229.687413712 ; 2.021936684679528E8 ; 3.0711011409972143E8 ; 1.7326270545971848E10 ; 0.0
95 ; 3387196.0174501357 ; 2.0220961515267816E8 ; 3.105003437871351E8 ; 1.75284642144398E10 ; 0.0
96 ; 3385434.8239950533 ; 2.0222558047330663E8 ; 3.138875398045853E8 ; 1.773067382959248E10 ; 0.0
97 ; 3377624.1320650703 ; 2.022415627693002E8 ; 3.1727297462858033E8 ; 1.7932899410065784E10 ; 0.0
98 ; 3376551.760878125 ; 2.022575604226801E8 ; 3.206505987606454E8 ; 1.8135140972835083E10 ; 0.0
99 ; 3371971.782641223 ; 2.0227357185652715E8 ; 3.2402715052152354E8 ; 1.8337398533257763E10 ; 0.0
100 ; 3366257.817807863 ; 2.022895955335374E8 ; 3.2739912230416477E8 ; 1.853967210511429E10 ; 0.0
101 ; 3365240.9357140623 ; 2.023056299546319E8 ; 3.307653801219726E8 ; 1.8741961700647827E10 ; 0.0
102 ; 3360167.883181848 ; 2.0232167365761825E8 ; 3.341306210576867E8 ; 1.894426733060246E10 ; 0.0
103 ; 3356800.7647584355 ; 2.0233772521590245E8 ; 3.3749078894086856E8 ; 1.914658900426008E10 ; 0.0
104 ; 3352902.5725231143 ; 2.0235378323724934E8 ; 3.4084758970562696E8 ; 1.9348926729475983E10 ; 0.0
105 ; 3350541.27216698 ; 2.0236984636258996E8 ; 3.442004922781501E8 ; 1.955128051271323E10 ; 0.0
106 ; 3342929.895919985 ; 2.0238591326487392E8 ; 3.4755103355031705E8 ; 1.975365035907582E10 ; 0.0
107 ; 3341049.6226252825 ; 2.0240198264796564E8 ; 3.50893963446237E8 ; 1.9956036272340694E10 ; 0.0
108 ; 3338041.761004986 ; 2.0241805324558243E8 ; 3.542350130688623E8 ; 2.015843825498866E10 ; 0.0
109 ; 3336113.521401906 ; 2.0243412382027298E8 ; 3.575730548298673E8 ; 2.036085630823424E10 ; 0.0
110 ; 3327796.6790449633 ; 2.0245019316243497E8 ; 3.609091683512692E8 ; 2.0563290432054516E10 ; 0.0
111 ; 3325038.797176596 ; 2.0246626008937E8 ; 3.6423696503031415E8 ; 2.076574062521695E10 ; 0.0
112 ; 3323169.9070312264 ; 2.02482323444375E8 ; 3.6756200382749075E8 ; 2.096820688530632E10 ; 0.0
113 ; 3318303.3319633654 ; 2.0249838209586778E8 ; 3.70885173734522E8 ; 2.1170689208750694E10 ; 0.0
114 ; 3311872.7403217624 ; 2.0251443493654642E8 ; 3.7420347706648535E8 ; 2.137318759084656E10 ; 0.0
115 ; 3307683.6504393355 ; 2.0253048088258067E8 ; 3.775153498068071E8 ; 2.1575702025783108E10 ; 0.0
116 ; 3301930.041898172 ; 2.0254651887283418E8 ; 3.808230334572464E8 ; 2.1778232506665688E10 ; 0.0
117 ; 3298570.376255804 ; 2.025625478681164E8 ; 3.841249634991446E8 ; 2.198077902553852E10 ; 0.0
118 ; 3295655.139389168 ; 2.02578566850463E8 ; 3.874235338754004E8 ; 2.218334157340664E10 ; 0.0
119 ; 3288281.405645581 ; 2.025945748224437E8 ; 3.907191890147896E8 ; 2.2385920140257103E10 ; 0.0
120 ; 3286617.2242597328 ; 2.026105708064964E8 ; 3.940074704204352E8 ; 2.2588514715079548E10 ; 0.0
121 ; 3281469.5782875232 ; 2.0262655384428677E8 ; 3.972940876446949E8 ; 2.2791125285886044E10 ; 0.0
122 ; 3276213.1224523988 ; 2.0264252299609175E8 ; 4.0057555722298247E8 ; 2.299375183973033E10 ; 0.0
123 ; 3271772.8648387208 ; 2.0265847734020683E8 ; 4.0385177034543484E8 ; 2.319639436272642E10 ; 0.0
124 ; 3268514.0630969102 ; 2.0267441597237542E8 ; 4.0712354321027356E8 ; 2.3399052840066628E10 ; 0.0
125 ; 3262577.1828722158 ; 2.026903380052399E8 ; 4.1039205727337044E8 ; 2.3601727256039E10 ; 0.0
126 ; 3254169.6239289115 ; 2.027062425678133E8 ; 4.136546344562427E8 ; 2.3804417594044243E10 ; 0.0
127 ; 3251049.9129278907 ; 2.0272212880497077E8 ; 4.169088040801716E8 ; 2.4007123836612057E10 ; 0.0
128 ; 3242266.6673159692 ; 2.0273799587696025E8 ; 4.2015985399309945E8 ; 2.4209845965417027E10 ; 0.0
129 ; 3240307.5644268785 ; 2.0275384295893133E8 ; 4.234021206604154E8 ; 2.4412583961293987E10 ; 0.0
130 ; 3235442.4317783476 ; 2.0276966924048173E8 ; 4.266424282248423E8 ; 2.461533780425292E10 ; 0.0
131 ; 3227918.420461335 ; 2.0278547392522073E8 ; 4.298778706566207E8 ; 2.48181074734934E10 ; 0.0
132 ; 3219500.011902235 ; 2.028012562303486E8 ; 4.3310578907708204E8 ; 2.502089294741862E10 ; 0.0
133 ; 3210429.2072288315 ; 2.0281701538625193E8 ; 4.3632528908898425E8 ; 2.522369420364897E10 ; 0.0
134 ; 3202625.448914638 ; 2.0283275063611364E8 ; 4.395357182962131E8 ; 2.5426511219035225E10 ; 0.0
135 ; 3194302.043691952 ; 2.0284846123553753E8 ; 4.4273834374512774E8 ; 2.5629343969671337E10 ; 0.0
136 ; 3188333.848335027 ; 2.028641464521865E8 ; 4.459326457888197E8 ; 2.5832192430906876E10 ; 0.0
137 ; 3178999.6756105386 ; 2.028798055654341E8 ; 4.491209796371547E8 ; 2.6035056577359062E10 ; 0.0
138 ; 3172252.125503121 ; 2.0289543786602885E8 ; 4.5229997931276524E8 ; 2.6237936382924496E10 ; 0.0
139 ; 3161108.31151044 ; 2.0291104265577066E8 ; 4.5547223143826836E8 ; 2.6440831820790524E10 ; 0.0
140 ; 3154021.426313478 ; 2.0292661924719927E8 ; 4.586333397497788E8 ; 2.6643742863446293E10 ; 0.0
141 ; 3147509.780904144 ; 2.0294216696329352E8 ; 4.6178736117609227E8 ; 2.6846669482693493E10 ; 0.0
142 ; 3136340.7702033473 ; 2.029576851371821E8 ; 4.6493487095699644E8 ; 2.7049611649656788E10 ; 0.0
143 ; 3128347.274663039 ; 2.029731731118641E8 ; 4.680712117271998E8 ; 2.725256933479397E10 ; 0.0
144 ; 3121363.4319968745 ; 2.0298863023994005E8 ; 4.711995590018628E8 ; 2.745554250790583E10 ; 0.0
145 ; 3117280.1275229217 ; 2.030040558833524E8 ; 4.743209224338597E8 ; 2.765853113814577E10 ; 0.0
146 ; 3110693.987009132 ; 2.0301944941313517E8 ; 4.7743820256138265E8 ; 2.7861535194029125E10 ; 0.0
147 ; 3106857.8138313047 ; 2.0303481020917284E8 ; 4.8054889654839176E8 ; 2.806455464344226E10 ; 0.0
148 ; 3101683.3763657263 ; 2.0305013765996736E8 ; 4.836557543622231E8 ; 2.8267589453651432E10 ; 0.0
149 ; 3096062.1042139786 ; 2.0306543116241378E8 ; 4.867574377385888E8 ; 2.8470639591311398E10 ; 0.0
150 ; 3088557.346989341 ; 2.0308069012158346E8 ; 4.8985349984280276E8 ; 2.8673705022473812E10 ; 0.0
151 ; 3083486.4716002475 ; 2.0309591395051533E8 ; 4.929420571897921E8 ; 2.8876785712595394E10 ; 0.0
152 ; 3076293.2652476705 ; 2.031111020700139E8 ; 4.9602554366139233E8 ; 2.907988162654591E10 ; 0.0
153 ; 3072389.10878894 ; 2.0312625390845498E8 ; 4.9910183692664E8 ; 2.9282992728615925E10 ; 0.0
154 ; 3064408.4835665114 ; 2.0314136890159747E8 ; 5.0217422603542894E8 ; 2.948611898252438E10 ; 0.0
155 ; 3059045.336790803 ; 2.0315644649240232E8 ; 5.0523863451899546E8 ; 2.9689260351425976E10 ; 0.0
156 ; 3057030.8634991357 ; 2.0317148613085726E8 ; 5.0829767985578626E8 ; 2.9892416797918377E10 ; 0.0
157 ; 3052020.5761941765 ; 2.03186487273808E8 ; 5.113547107192854E8 ; 3.0095588284049232E10 ; 0.0
158 ; 3044223.63558126 ; 2.032014493847949E8 ; 5.144067312954796E8 ; 3.029877477132304E10 ; 0.0
159 ; 3036970.1620274875 ; 2.0321637193389535E8 ; 5.1745095493106085E8 ; 3.0501976220707836E10 ; 0.0
160 ; 3033701.943438668 ; 2.0323125439757174E8 ; 5.204879250930883E8 ; 3.070519259264173E10 ; 0.0
161 ; 3027807.435702999 ; 2.032460962585242E8 ; 5.23521627036527E8 ; 3.0908423847039303E10 ; 0.0
162 ; 3019283.94424404 ; 2.032608970055488E8 ; 5.2654943447222996E8 ; 3.111166994329783E10 ; 0.0
163 ; 3017037.6400575605 ; 2.032756561334002E8 ; 5.29568718416474E8 ; 3.131493084030338E10 ; 0.0
164 ; 3009626.5082125156 ; 2.032903731426591E8 ; 5.3258575605653155E8 ; 3.151820649643678E10 ; 0.0
165 ; 3004159.7124765133 ; 2.0330504753960425E8 ; 5.3559538256474406E8 ; 3.1721496869579437E10 ; 0.0
166 ; 2998215.151771342 ; 2.0331967883608848E8 ; 5.385995422772206E8 ; 3.192480191711904E10 ; 0.0
167 ; 2992385.1324268244 ; 2.0333426654941922E8 ; 5.415977574289919E8 ; 3.212812159595513E10 ; 0.0
168 ; 2987858.1379716657 ; 2.0334881020224264E8 ; 5.445901425614188E8 ; 3.233145586250455E10 ; 0.0
169 ; 2982811.0823274725 ; 2.0336330932243207E8 ; 5.475780006993904E8 ; 3.2534804672706795E10 ; 0.0
170 ; 2975439.459924243 ; 2.033777634429797E8 ; 5.505608117817179E8 ; 3.273816798202923E10 ; 0.0
171 ; 2970654.345315034 ; 2.0339217210189223E8 ; 5.535362512416421E8 ; 3.2941545745472206E10 ; 0.0
172 ; 2964678.978122217 ; 2.0340653484208965E8 ; 5.565069055869571E8 ; 3.3144937917574097E10 ; 0.0
173 ; 2956918.787500666 ; 2.034208512113077E8 ; 5.594715845650793E8 ; 3.3348344452416187E10 ; 0.0
174 ; 2950842.2533776015 ; 2.0343512076200312E8 ; 5.6242850335258E8 ; 3.3551765303627495E10 ; 0.0
175 ; 2948366.31306106 ; 2.0344934305126238E8 ; 5.653793456059575E8 ; 3.37552004243895E10 ; 0.0
176 ; 2944239.2484327266 ; 2.034635176407132E8 ; 5.683277119190186E8 ; 3.395864976744076E10 ; 0.0
177 ; 2939794.018406743 ; 2.0347764409643894E8 ; 5.712719511674514E8 ; 3.4162113285081474E10 ; 0.0
178 ; 2933258.9781951155 ; 2.0349172198889586E8 ; 5.742117451858581E8 ; 3.436559092917791E10 ; 0.0
179 ; 2928224.44052688 ; 2.03505750892833E8 ; 5.771450041640532E8 ; 3.456908265116681E10 ; 0.0
180 ; 2925739.254446119 ; 2.0351973038721466E8 ; 5.8007322860458E8 ; 3.477258840205964E10 ; 0.0
181 ; 2923132.2168001593 ; 2.0353366005514547E8 ; 5.829989678590262E8 ; 3.497610813244685E10 ; 0.0
182 ; 2916688.5651545464 ; 2.0354753948379758E8 ; 5.859221000758264E8 ; 3.5179641792502E10 ; 0.0
183 ; 2908829.4656599625 ; 2.035613682643407E8 ; 5.88838788640981E8 ; 3.5383189331985794E10 ; 0.0
184 ; 2906997.2759703826 ; 2.0357514599187374E8 ; 5.917476181066409E8 ; 3.558675070025014E10 ; 0.0
185 ; 2904173.435333869 ; 2.0358887226535925E8 ; 5.946546153826113E8 ; 3.579032584624201E10 ; 0.0
186 ; 2898894.8614282645 ; 2.0360254668755946E8 ; 5.975587888179451E8 ; 3.599391471850737E10 ; 0.0
187 ; 2893675.2272789404 ; 2.0361616886497468E8 ; 6.004576836793734E8 ; 3.619751726519493E10 ; 0.0
188 ; 2892359.2300712895 ; 2.0362973840778345E8 ; 6.033513589066523E8 ; 3.6401133434059906E10 ; 0.0
189 ; 2886458.051567741 ; 2.036432549297847E8 ; 6.062437181367236E8 ; 3.660476317246769E10 ; 0.0
190 ; 2880783.8295907555 ; 2.0365671804834175E8 ; 6.091301761882914E8 ; 3.680840642739748E10 ; 0.0
191 ; 2876208.997500207 ; 2.0367012738432786E8 ; 6.120109600178822E8 ; 3.7012063145445816E10 ; 0.0
192 ; 2869836.909960981 ; 2.036834825620739E8 ; 6.148871690153824E8 ; 3.721573327283015E10 ; 0.0
193 ; 2869265.2416177318 ; 2.0369678320931715E8 ; 6.177570059253434E8 ; 3.741941675539222E10 ; 0.0
194 ; 2860998.882734462 ; 2.037100289571522E8 ; 6.206262711669611E8 ; 3.762311353860154E10 ; 0.0
195 ; 2861363.9851710154 ; 2.0372321943998292E8 ; 6.234872700496955E8 ; 3.782682356755869E10 ; 0.0
196 ; 2854234.4136681682 ; 2.0373635429547647E8 ; 6.263486340348665E8 ; 3.803054678699867E10 ; 0.0
197 ; 2848935.7655170914 ; 2.0374943316451815E8 ; 6.292028684485346E8 ; 3.823428314129415E10 ; 0.0
198 ; 2847125.5116996174 ; 2.0376245569116804E8 ; 6.320518042140517E8 ; 3.843803257445867E10 ; 0.0
199 ; 2838749.1275543827 ; 2.0377542152261895E8 ; 6.348989297257514E8 ; 3.864179503014984E10 ; 0.0
200 ; 2832774.703832215 ; 1.8156390138909128E8 ; 6.377376788533058E8 ; 3.884557045167246E10 ; 0.0
