CSV File for the City 1 on Day 187
1 - Minute m 
2 - Power Consumed at minute m 
3 - Power Produced at minute m 
4 - Energy Consumed since the beginning of the day 
5 - Energy Produced since the beginning of the day 
6 - Energy Lost since the beginning of the day on lines starting from the city
 
0 ; 2727175.336054313 ; 1.054611414434258E8 ; 0.0 ; 0.0 ; 0.0
1 ; 2738780.299080456 ; 1.0561401654431927E8 ; 2727175.336054313 ; 1.054611414434258E8 ; 0.0
2 ; 2759223.923598769 ; 1.060756795559527E8 ; 5465955.63513477 ; 2.1107515798774508E8 ; 0.0
3 ; 2778367.3668812714 ; 1.0684613250129622E8 ; 8225179.558733539 ; 3.171508375436978E8 ; 0.0
4 ; 2805140.4283618964 ; 1.0792537720250368E8 ; 1.100354692561481E7 ; 4.23996970044994E8 ; 0.0
5 ; 2829066.6806614357 ; 1.0931341526775295E8 ; 1.3808687353976706E7 ; 5.319223472474977E8 ; 0.0
6 ; 2869688.1701431684 ; 1.1101024807933596E8 ; 1.6637754034638142E7 ; 6.412357625152507E8 ; 0.0
7 ; 2922895.806248445 ; 1.1301587678319776E8 ; 1.950744220478131E7 ; 7.522460105945866E8 ; 0.0
8 ; 3001337.490675802 ; 1.153303022801063E8 ; 2.2430338011029754E7 ; 8.652618873777844E8 ; 0.0
9 ; 3120382.1995460154 ; 1.1795352521861172E8 ; 2.5431675501705557E7 ; 9.805921896578907E8 ; 0.0
10 ; 3302772.3935117447 ; 1.2088554598992097E8 ; 2.8552057701251574E7 ; 1.0985457148765025E9 ; 0.0
11 ; 3587252.8767945073 ; 1.2412636472478458E8 ; 3.185483009476332E7 ; 1.2194312608664236E9 ; 0.0
12 ; 4050347.9092373922 ; 1.2767598129245201E8 ; 3.5442082971557826E7 ; 1.3435576255912082E9 ; 0.0
13 ; 4498664.912193637 ; 1.3153439530171627E8 ; 3.949243088079522E7 ; 1.4712336068836603E9 ; 0.0
14 ; 4550590.7324862825 ; 1.3570160610402733E8 ; 4.399109579298885E7 ; 1.6027680021853766E9 ; 0.0
15 ; 4572522.278331017 ; 1.4017761279861712E8 ; 4.854168652547514E7 ; 1.738469608289404E9 ; 0.0
16 ; 4594638.637173929 ; 1.4496241423954073E8 ; 5.3114208803806156E7 ; 1.878647221088021E9 ; 0.0
17 ; 4616170.249758574 ; 1.500560090445061E8 ; 5.7708847440980084E7 ; 2.0236096353275619E9 ; 0.0
18 ; 4639383.053628354 ; 1.554583956053354E8 ; 6.2325017690738656E7 ; 2.173665644372068E9 ; 0.0
19 ; 4656885.938779828 ; 1.6116957209987482E8 ; 6.696440074436701E7 ; 2.329124039977403E9 ; 0.0
20 ; 4678133.261134916 ; 1.6718953650515416E8 ; 7.162128668314683E7 ; 2.490293612077278E9 ; 0.0
21 ; 4702794.335807242 ; 1.7351828661158177E8 ; 7.629941994428176E7 ; 2.6574831485824323E9 ; 0.0
22 ; 4726438.533334841 ; 1.8015582003795403E8 ; 8.1002214280089E7 ; 2.831001435194014E9 ; 0.0
23 ; 4743286.748105523 ; 1.8710213424705857E8 ; 8.572865281342384E7 ; 3.011157255231968E9 ; 0.0
24 ; 4767143.5265097255 ; 1.9435722656165278E8 ; 9.047193956152937E7 ; 3.1982593894790263E9 ; 0.0
25 ; 4788439.181883613 ; 2.0060913507879177E8 ; 9.52390830880391E7 ; 3.392616616040679E9 ; 0.0
26 ; 4810928.662932946 ; 2.006114047228394E8 ; 1.0002752226992272E8 ; 3.5932257511194706E9 ; 0.0
27 ; 4828290.144935407 ; 2.0061380178627646E8 ; 1.0483845093285567E8 ; 3.79383715584231E9 ; 0.0
28 ; 4855774.686356203 ; 2.006163231920074E8 ; 1.0966674107779106E8 ; 3.9944509576285863E9 ; 0.0
29 ; 4873488.768700554 ; 2.0061896580162722E8 ; 1.1452251576414727E8 ; 4.195067280820594E9 ; 0.0
30 ; 4898239.671232275 ; 2.0062172642981178E8 ; 1.1939600453284782E8 ; 4.395686246622221E9 ; 0.0
31 ; 4921092.333025256 ; 2.0062460185797778E8 ; 1.2429424420408009E8 ; 4.596307973052032E9 ; 0.0
32 ; 4939661.263210379 ; 2.0062758884713542E8 ; 1.2921533653710535E8 ; 4.79693257491001E9 ; 0.0
33 ; 4957036.344617017 ; 2.006306841498769E8 ; 1.3415499780031574E8 ; 4.997560163757146E9 ; 0.0
34 ; 4975089.335132022 ; 2.006338845214619E8 ; 1.3911203414493275E8 ; 5.198190847907022E9 ; 0.0
35 ; 4995662.897850347 ; 2.006371867299798E8 ; 1.4408712348006478E8 ; 5.398824732428484E9 ; 0.0
36 ; 5015059.573806035 ; 2.006405875655825E8 ; 1.490827863779151E8 ; 5.5994619191584635E9 ; 0.0
37 ; 5029430.30956478 ; 2.0064408384879577E8 ; 1.5409784595172116E8 ; 5.800102506724046E9 ; 0.0
38 ; 5044368.452732475 ; 2.0064767243792826E8 ; 1.5912727626128593E8 ; 6.000746590572842E9 ; 0.0
39 ; 5063119.007630065 ; 2.006513502356075E8 ; 1.641716447140184E8 ; 6.20139426301077E9 ; 0.0
40 ; 5080190.266720381 ; 2.0065511419447875E8 ; 1.6923476372164845E8 ; 6.402045613246377E9 ; 0.0
41 ; 5091594.450089299 ; 2.0065896132210934E8 ; 1.7431495398836884E8 ; 6.602700727440856E9 ; 0.0
42 ; 5108120.242044606 ; 2.0066288868514565E8 ; 1.7940654843845814E8 ; 6.803359688762965E9 ; 0.0
43 ; 5120933.885132138 ; 2.006668934127718E8 ; 1.8451466868050274E8 ; 7.004022577448111E9 ; 0.0
44 ; 5136761.517792963 ; 2.006709726995219E8 ; 1.8963560256563488E8 ; 7.204689470860883E9 ; 0.0
45 ; 5148239.05549906 ; 2.00675123807498E8 ; 1.9477236408342785E8 ; 7.405360443560405E9 ; 0.0
46 ; 5162951.018318006 ; 2.006793440680448E8 ; 1.999206031389269E8 ; 7.606035567367903E9 ; 0.0
47 ; 5171573.303212692 ; 2.0068363088293272E8 ; 2.050835541572449E8 ; 7.806714911435947E9 ; 0.0
48 ; 5180545.884246344 ; 2.006879817250976E8 ; 2.102551274604576E8 ; 8.00739854231888E9 ; 0.0
49 ; 5189893.889470359 ; 2.0069239413898474E8 ; 2.1543567334470394E8 ; 8.208086524043978E9 ; 0.0
50 ; 5196754.349522164 ; 2.006968657405416E8 ; 2.206255672341743E8 ; 8.408778918182962E9 ; 0.0
51 ; 5203614.118514271 ; 2.0070139421690074E8 ; 2.2582232158369648E8 ; 8.609475783923504E9 ; 0.0
52 ; 5210212.850159721 ; 2.0070597732579297E8 ; 2.3102593570221075E8 ; 8.810177178140404E9 ; 0.0
53 ; 5221239.681146412 ; 2.0071061289472637E8 ; 2.362361485523705E8 ; 9.010883155466196E9 ; 0.0
54 ; 5230610.949044964 ; 2.007152988199649E8 ; 2.414573882335169E8 ; 9.211593768360922E9 ; 0.0
55 ; 5232629.636594845 ; 2.0072003306533685E8 ; 2.4668799918256187E8 ; 9.412309067180887E9 ; 0.0
56 ; 5243975.706364459 ; 2.0072481366090152E8 ; 2.519206288191567E8 ; 9.613029100246223E9 ; 0.0
57 ; 5249101.410753521 ; 2.0072963870149863E8 ; 2.5716460452552116E8 ; 9.813753913907125E9 ; 0.0
58 ; 5259584.174211009 ; 2.0073450634520364E8 ; 2.6241370593627468E8 ; 1.0014483552608624E10 ; 0.0
59 ; 5260296.149197294 ; 2.007394148117088E8 ; 2.6767329011048567E8 ; 1.0215218058953827E10 ; 0.0
60 ; 5269203.705697315 ; 2.0074436238064826E8 ; 2.7293358625968295E8 ; 1.0415957473765535E10 ; 0.0
61 ; 5277030.358025971 ; 2.0074934738988298E8 ; 2.7820278996538025E8 ; 1.0616701836146183E10 ; 0.0
62 ; 5279713.0577191375 ; 2.0075436823375958E8 ; 2.834798203234062E8 ; 1.0817451183536066E10 ; 0.0
63 ; 5288452.402476437 ; 2.0075942336135545E8 ; 2.8875953338112533E8 ; 1.1018205551769825E10 ; 0.0
64 ; 5295155.400057588 ; 2.007645112747206E8 ; 2.9404798578360176E8 ; 1.121896497513118E10 ; 0.0
65 ; 5300680.165692019 ; 2.0076963052712575E8 ; 2.993431411836594E8 ; 1.1419729486405901E10 ; 0.0
66 ; 5305061.175082705 ; 2.0077477972132415E8 ; 3.046438213493514E8 ; 1.1620499116933027E10 ; 0.0
67 ; 5316045.04732765 ; 2.007799575078344E8 ; 3.099488825244341E8 ; 1.1821273896654352E10 ; 0.0
68 ; 5318353.087753764 ; 2.0078516258324957E8 ; 3.152649275717617E8 ; 1.2022053854162186E10 ; 0.0
69 ; 5324753.765435864 ; 2.007903936885771E8 ; 3.205832806595155E8 ; 1.2222839016745436E10 ; 0.0
70 ; 5327952.274098529 ; 2.0079564960761392E8 ; 3.259080344249514E8 ; 1.2423629410434013E10 ; 0.0
71 ; 5331418.363977831 ; 2.0080092916535968E8 ; 3.312359866990499E8 ; 1.2624425060041628E10 ; 0.0
72 ; 5339648.824590651 ; 2.0080623122646993E8 ; 3.3656740506302774E8 ; 1.2825225989206987E10 ; 0.0
73 ; 5340745.795541458 ; 2.0081155469375247E8 ; 3.4190705388761836E8 ; 1.3026032220433456E10 ; 0.0
74 ; 5352080.408641283 ; 2.0081689850670668E8 ; 3.472477996831598E8 ; 1.3226843775127209E10 ; 0.0
75 ; 5351955.101155426 ; 2.0082226164010808E8 ; 3.525998800918011E8 ; 1.3427660673633915E10 ; 0.0
76 ; 5355188.3416400105 ; 2.0082764310263777E8 ; 3.579518351929565E8 ; 1.3628482935274023E10 ; 0.0
77 ; 5362540.809082081 ; 2.008330419355576E8 ; 3.633070235345965E8 ; 1.3829310578376661E10 ; 0.0
78 ; 5360567.867308497 ; 2.008384572114305E8 ; 3.686695643436786E8 ; 1.403014362031222E10 ; 0.0
79 ; 5360048.953154523 ; 2.008438880328861E8 ; 3.740301322109871E8 ; 1.423098207752365E10 ; 0.0
80 ; 5355884.933355107 ; 2.0084933353143087E8 ; 3.793901811641416E8 ; 1.4431825965556536E10 ; 0.0
81 ; 5357183.074587856 ; 2.008547928663023E8 ; 3.847460660974967E8 ; 1.4632675299087967E10 ; 0.0
82 ; 5356547.146205398 ; 2.008602652233662E8 ; 3.9010324917208457E8 ; 1.483353009195427E10 ; 0.0
83 ; 5354788.223365096 ; 2.0086574981405622E8 ; 3.9545979631829E8 ; 1.5034390357177635E10 ; 0.0
84 ; 5350421.787048857 ; 2.0087124587435472E8 ; 4.0081458454165506E8 ; 1.5235256106991692E10 ; 0.0
85 ; 5354013.367018767 ; 2.0087675266381365E8 ; 4.0616500632870394E8 ; 1.5436127352866047E10 ; 0.0
86 ; 5346823.323401391 ; 2.0088226946461475E8 ; 4.115190196957227E8 ; 1.5637004105529861E10 ; 0.0
87 ; 5344105.6573003875 ; 2.0088779558066735E8 ; 4.168658430191241E8 ; 1.5837886374994476E10 ; 0.0
88 ; 5344015.2886272175 ; 2.0089333033674306E8 ; 4.222099486764245E8 ; 1.6038774170575144E10 ; 0.0
89 ; 5345603.664459021 ; 2.0089887307764584E8 ; 4.275539639650517E8 ; 1.6239667500911886E10 ; 0.0
90 ; 5337976.460809456 ; 2.0090442316741642E8 ; 4.3289956762951076E8 ; 1.6440566373989532E10 ; 0.0
91 ; 5337511.260986761 ; 2.0090997998856974E8 ; 4.382375440903202E8 ; 1.6641470797156948E10 ; 0.0
92 ; 5337978.558785772 ; 2.009155429413643E8 ; 4.43575055351307E8 ; 1.6842380777145517E10 ; 0.0
93 ; 5331904.074751014 ; 2.0092111144310197E8 ; 4.489130339100928E8 ; 1.7043296320086882E10 ; 0.0
94 ; 5325961.0815243395 ; 2.009266849274577E8 ; 4.542449379848438E8 ; 1.7244217431529984E10 ; 0.0
95 ; 5323862.169006585 ; 2.0093226284383717E8 ; 4.595708990663681E8 ; 1.744514411645744E10 ; 0.0
96 ; 5318494.852972334 ; 2.0093784465676185E8 ; 4.648947612353747E8 ; 1.7646076379301277E10 ; 0.0
97 ; 5317237.641008411 ; 2.009434298452803E8 ; 4.70213256088347E8 ; 1.784701422395804E10 ; 0.0
98 ; 5310344.352556549 ; 2.009490179024041E8 ; 4.7553049372935545E8 ; 1.8047957653803318E10 ; 0.0
99 ; 5312481.272039142 ; 2.009546083345685E8 ; 4.80840838081912E8 ; 1.8248906671705723E10 ; 0.0
100 ; 5302268.48844091 ; 2.009602006611154E8 ; 4.861533193539511E8 ; 1.844986128004029E10 ; 0.0
101 ; 5303374.903601709 ; 2.009657944137988E8 ; 4.91455587842392E8 ; 1.8650821480701405E10 ; 0.0
102 ; 5298749.337543809 ; 2.0097138913631123E8 ; 4.9675896274599373E8 ; 1.8851787275115204E10 ; 0.0
103 ; 5293005.373687958 ; 2.009769843838304E8 ; 5.020577120835375E8 ; 1.9052758664251514E10 ; 0.0
104 ; 5292847.652065555 ; 2.0098257972258523E8 ; 5.073507174572255E8 ; 1.9253735648635345E10 ; 0.0
105 ; 5285313.230006687 ; 2.009881747294403E8 ; 5.126435651092911E8 ; 1.945471822835793E10 ; 0.0
106 ; 5279044.001624298 ; 2.0099376899149814E8 ; 5.179288783392978E8 ; 1.9655706403087368E10 ; 0.0
107 ; 5276992.9632751485 ; 2.0099936210571826E8 ; 5.2320792234092206E8 ; 1.9856700172078865E10 ; 0.0
108 ; 5269302.0740852 ; 2.0100495367855248E8 ; 5.284849153041972E8 ; 2.005769953418458E10 ; 0.0
109 ; 5266771.676832999 ; 2.0101054332559586E8 ; 5.3375421737828237E8 ; 2.0258704487863132E10 ; 0.0
110 ; 5263732.421562514 ; 2.0101613067125195E8 ; 5.390209890551153E8 ; 2.045971503118873E10 ; 0.0
111 ; 5254346.276656679 ; 2.010217153484128E8 ; 5.442847214766779E8 ; 2.066073116185998E10 ; 0.0
112 ; 5250607.267463168 ; 2.0102729699815205E8 ; 5.495390677533345E8 ; 2.0861752877208393E10 ; 0.0
113 ; 5246193.813040311 ; 2.0103287526943097E8 ; 5.547896750207977E8 ; 2.1062780174206547E10 ; 0.0
114 ; 5240142.562269504 ; 2.0103844981881702E8 ; 5.60035868833838E8 ; 2.126381304947598E10 ; 0.0
115 ; 5232740.303551411 ; 2.01044020310214E8 ; 5.652760113961074E8 ; 2.1464851499294796E10 ; 0.0
116 ; 5226230.405012021 ; 2.010495864146037E8 ; 5.705087516996589E8 ; 2.166589551960501E10 ; 0.0
117 ; 5220680.498331611 ; 2.0105514780979803E8 ; 5.757349821046709E8 ; 2.1866945106019615E10 ; 0.0
118 ; 5218677.067162781 ; 2.010607041802016E8 ; 5.809556626030025E8 ; 2.2068000253829414E10 ; 0.0
119 ; 5207964.7979735825 ; 2.0106625521658415E8 ; 5.861743396701653E8 ; 2.2269060958009617E10 ; 0.0
120 ; 5208915.936956 ; 2.010718006158623E8 ; 5.913823044681389E8 ; 2.24701272132262E10 ; 0.0
121 ; 5195428.08297527 ; 2.0107734008089045E8 ; 5.96591220405095E8 ; 2.2671199013842064E10 ; 0.0
122 ; 5189934.731384503 ; 2.010828733202599E8 ; 6.017866484880702E8 ; 2.2872276353922955E10 ; 0.0
123 ; 5184414.149649149 ; 2.010884000481065E8 ; 6.069765832194548E8 ; 2.3073359227243214E10 ; 0.0
124 ; 5175197.731050665 ; 2.0109391998392618E8 ; 6.121609973691039E8 ; 2.327444762729132E10 ; 0.0
125 ; 5170556.881943208 ; 2.0109943285239762E8 ; 6.173361951001545E8 ; 2.3475541547275246E10 ; 0.0
126 ; 5162277.721772152 ; 2.0110493838321248E8 ; 6.225067519820977E8 ; 2.3676640980127644E10 ; 0.0
127 ; 5155998.17953126 ; 2.0111043631091222E8 ; 6.276690297038699E8 ; 2.3877745918510857E10 ; 0.0
128 ; 5151921.863852634 ; 2.0111592637473163E8 ; 6.328250278834012E8 ; 2.407885635482177E10 ; 0.0
129 ; 5141584.051664515 ; 2.0112140831844854E8 ; 6.379769497472538E8 ; 2.4279972281196503E10 ; 0.0
130 ; 5128462.147683862 ; 2.011268818902395E8 ; 6.431185337989182E8 ; 2.448109368951495E10 ; 0.0
131 ; 5120131.542157454 ; 2.0113234684254146E8 ; 6.482469959466021E8 ; 2.468222057140519E10 ; 0.0
132 ; 5104347.186650082 ; 2.0113780293191844E8 ; 6.533671274887595E8 ; 2.488335291824773E10 ; 0.0
133 ; 5089939.199188417 ; 2.0114324991893396E8 ; 6.584714746754096E8 ; 2.508449072117965E10 ; 0.0
134 ; 5074457.288515758 ; 2.011486875680282E8 ; 6.63561413874598E8 ; 2.5285633971098583E10 ; 0.0
135 ; 5063959.4320236 ; 2.0115411564740008E8 ; 6.686358711631138E8 ; 2.548678265866661E10 ; 0.0
136 ; 5047654.439353629 ; 2.0115953392889383E8 ; 6.736998305951375E8 ; 2.568793677431401E10 ; 0.0
137 ; 5037307.150156633 ; 2.0116494218789023E8 ; 6.787474850344911E8 ; 2.5889096308242905E10 ; 0.0
138 ; 5020532.63902583 ; 2.0117034020320162E8 ; 6.837847921846477E8 ; 2.6090261250430794E10 ; 0.0
139 ; 5008645.722600053 ; 2.0117572775697154E8 ; 6.888053248236735E8 ; 2.6291431590633995E10 ; 0.0
140 ; 4990482.002850413 ; 2.0118110463457763E8 ; 6.938139705462736E8 ; 2.649260731839097E10 ; 0.0
141 ; 4974890.302318688 ; 2.0118647062453884E8 ; 6.98804452549124E8 ; 2.6693788423025547E10 ; 0.0
142 ; 4964495.947555444 ; 2.0119182551842555E8 ; 7.037793428514427E8 ; 2.6894974893650085E10 ; 0.0
143 ; 4948285.497364275 ; 2.0119716911077374E8 ; 7.087438387989981E8 ; 2.709616671916851E10 ; 0.0
144 ; 4938622.338057642 ; 2.012025011990019E8 ; 7.136921242963624E8 ; 2.7297363888279285E10 ; 0.0
145 ; 4923782.977262784 ; 2.0120782158333147E8 ; 7.1863074663442E8 ; 2.7498566389478287E10 ; 0.0
146 ; 4921016.867834466 ; 2.0121313006670988E8 ; 7.235545296116828E8 ; 2.769977421106162E10 ; 0.0
147 ; 4912148.796831655 ; 2.012184264547369E8 ; 7.284755464795172E8 ; 2.790098734112833E10 ; 0.0
148 ; 4905307.898776646 ; 2.0122371055559334E8 ; 7.333876952763488E8 ; 2.810220576758307E10 ; 0.0
149 ; 4893712.179376718 ; 2.0122898217997274E8 ; 7.382930031751255E8 ; 2.830342947813866E10 ; 0.0
150 ; 4887204.448933477 ; 2.0123424114101526E8 ; 7.431867153545022E8 ; 2.8504658460318634E10 ; 0.0
151 ; 4879797.454288331 ; 2.012394872542444E8 ; 7.480739198034357E8 ; 2.870589270145965E10 ; 0.0
152 ; 4871377.13671011 ; 2.0124472033750558E8 ; 7.52953717257724E8 ; 2.8907132188713894E10 ; 0.0
153 ; 4859794.573297979 ; 2.012499402109075E8 ; 7.578250943944342E8 ; 2.91083769090514E10 ; 0.0
154 ; 4853660.89151169 ; 2.0125514669676512E8 ; 7.626848889677322E8 ; 2.9309626849262306E10 ; 0.0
155 ; 4846817.624643159 ; 2.012603396195451E8 ; 7.675385498592439E8 ; 2.9510881995959072E10 ; 0.0
156 ; 4837675.707671827 ; 2.0126551880581307E8 ; 7.723853674838871E8 ; 2.9712142335578617E10 ; 0.0
157 ; 4826556.582048539 ; 2.0127068408418274E8 ; 7.77223043191559E8 ; 2.991340785438443E10 ; 0.0
158 ; 4821789.13409752 ; 2.0127583528526694E8 ; 7.820495997736075E8 ; 3.0114678538468613E10 ; 0.0
159 ; 4813604.749517721 ; 2.012809722416305E8 ; 7.868713889077051E8 ; 3.031595437375388E10 ; 0.0
160 ; 4807393.579505676 ; 2.012860947877445E8 ; 7.916849936572227E8 ; 3.051723534599551E10 ; 0.0
161 ; 4798318.361899014 ; 2.0129120275994256E8 ; 7.964923872367284E8 ; 3.0718521440783253E10 ; 0.0
162 ; 4789948.132083684 ; 2.0129629599637833E8 ; 8.012907055986274E8 ; 3.0919812643543194E10 ; 0.0
163 ; 4780654.109389502 ; 2.0130137433698478E8 ; 8.060806537307111E8 ; 3.1121108939539574E10 ; 0.0
164 ; 4775964.431557999 ; 2.013064376234346E8 ; 8.108613078401006E8 ; 3.132241031387656E10 ; 0.0
165 ; 4769354.172863719 ; 2.0131148569910234E8 ; 8.156372722716587E8 ; 3.1523716751499996E10 ; 0.0
166 ; 4759787.912869048 ; 2.0131651840902758E8 ; 8.204066264445224E8 ; 3.1725028237199097E10 ; 0.0
167 ; 4749159.698507065 ; 2.013215355998796E8 ; 8.251664143573915E8 ; 3.1926344755608124E10 ; 0.0
168 ; 4737584.087117192 ; 2.0132653711992314E8 ; 8.299155740558985E8 ; 3.2127666291208004E10 ; 0.0
169 ; 4730351.608037643 ; 2.0133152281898552E8 ; 8.346531581430157E8 ; 3.2328992828327927E10 ; 0.0
170 ; 4722486.3278447995 ; 2.013364925484246E8 ; 8.393835097510533E8 ; 3.253032435114691E10 ; 0.0
171 ; 4713201.662769813 ; 2.0134144616109818E8 ; 8.441059960788982E8 ; 3.2731660843695335E10 ; 0.0
172 ; 4704582.165073338 ; 2.0134638351133424E8 ; 8.48819197741668E8 ; 3.2933002289856434E10 ; 0.0
173 ; 4694813.172650596 ; 2.0135130445490223E8 ; 8.535237799067414E8 ; 3.3134348673367767E10 ; 0.0
174 ; 4685982.984933842 ; 2.013562088489855E8 ; 8.58218593079392E8 ; 3.333569997782267E10 ; 0.0
175 ; 4689621.017757477 ; 2.013610965521544E8 ; 8.629045760643258E8 ; 3.3537056186671654E10 ; 0.0
176 ; 4674973.4064341495 ; 2.013659674243405E8 ; 8.675941970820833E8 ; 3.373841728322381E10 ; 0.0
177 ; 4675961.02520828 ; 2.013708213268116E8 ; 8.722691704885175E8 ; 3.3939783250648148E10 ; 0.0
178 ; 4671847.8630994335 ; 2.0137565812214777E8 ; 8.769451315137258E8 ; 3.414115407197496E10 ; 0.0
179 ; 4661560.025202148 ; 2.0138047767421773E8 ; 8.816169793768252E8 ; 3.4342529730097107E10 ; 0.0
180 ; 4656782.887579275 ; 2.0138527984815663E8 ; 8.862785394020274E8 ; 3.4543910207771324E10 ; 0.0
181 ; 4644518.5772954775 ; 2.0139006451034412E8 ; 8.909353222896067E8 ; 3.4745295487619484E10 ; 0.0
182 ; 4641482.894791996 ; 2.0139483152838328E8 ; 8.955798408669021E8 ; 3.494668555212983E10 ; 0.0
183 ; 4636404.671760653 ; 2.013995807710805E8 ; 9.002213237616941E8 ; 3.514808038365821E10 ; 0.0
184 ; 4627678.554390977 ; 2.014043121084255E8 ; 9.048577284334548E8 ; 3.534947996442929E10 ; 0.0
185 ; 4622601.2664171895 ; 2.0140902541157264E8 ; 9.094854069878458E8 ; 3.555088427653772E10 ; 0.0
186 ; 4621214.046561828 ; 2.0141372055282232E8 ; 9.141080082542629E8 ; 3.5752293301949295E10 ; 0.0
187 ; 4610535.108487872 ; 2.0141839740560332E8 ; 9.187292223008248E8 ; 3.595370702250212E10 ; 0.0
188 ; 4607285.140729996 ; 2.0142305584445563E8 ; 9.233397574093126E8 ; 3.615512541990772E10 ; 0.0
189 ; 4597772.871686855 ; 2.0142769574501374E8 ; 9.279470425500426E8 ; 3.6356548475752174E10 ; 0.0
190 ; 4595026.757135056 ; 2.014323169839907E8 ; 9.325448154217294E8 ; 3.6557976171497185E10 ; 0.0
191 ; 4583049.592198992 ; 2.0143691943916246E8 ; 9.371398421788645E8 ; 3.675940848848118E10 ; 0.0
192 ; 4585610.150898846 ; 2.0144150298935294E8 ; 9.417228917710634E8 ; 3.696084540792034E10 ; 0.0
193 ; 4574445.235886126 ; 2.0144606751441938E8 ; 9.463085019219623E8 ; 3.716228691090969E10 ; 0.0
194 ; 4567507.909258841 ; 2.0145061289523837E8 ; 9.508829471578484E8 ; 3.736373297842411E10 ; 0.0
195 ; 4565822.854178059 ; 2.014551390136922E8 ; 9.554504550671072E8 ; 3.756518359131935E10 ; 0.0
196 ; 4558320.792633668 ; 2.014596457526557E8 ; 9.600162779212853E8 ; 3.7766638730333046E10 ; 0.0
197 ; 4551732.609355671 ; 2.0146413299598357E8 ; 9.645745987139189E8 ; 3.79680983760857E10 ; 0.0
198 ; 4546130.067599311 ; 2.0146860062849784E8 ; 9.691263313232746E8 ; 3.816956250908169E10 ; 0.0
199 ; 4540853.264901043 ; 2.0147304853597617E8 ; 9.736724613908739E8 ; 3.837103110971018E10 ; 0.0
200 ; 4527564.235179738 ; 2.014774766051403E8 ; 9.78213314655775E8 ; 3.8572504158246155E10 ; 0.0
201 ; 4524535.867948626 ; 1.923097879239881E8 ; 9.827408788909547E8 ; 3.8773981634851295E10 ; 0.0
