CSV File for the City 4 on Day 321
1 - Minute m 
2 - Power Consumed at minute m 
3 - Power Produced at minute m 
4 - Energy Consumed since the beginning of the day 
5 - Energy Produced since the beginning of the day 
6 - Energy Lost since the beginning of the day on lines starting from the city
 
0 ; 6885612.329949279 ; 1.0684689789578411E8 ; 0.0 ; 0.0 ; 0.0
1 ; 6892170.55194759 ; 1.069972241589669E8 ; 6885612.329949279 ; 1.0684689789578411E8 ; 0.0
2 ; 6900898.426734841 ; 1.0745660401383367E8 ; 1.3777782881896868E7 ; 2.13844122054751E8 ; 0.0
3 ; 6907747.399294512 ; 1.082250403759138E8 ; 2.067868130863171E7 ; 3.213007260685847E8 ; 0.0
4 ; 6919815.108016119 ; 1.093025358437674E8 ; 2.758642870792622E7 ; 4.295257664444985E8 ; 0.0
5 ; 6933389.44737884 ; 1.1068909268949044E8 ; 3.450624381594234E7 ; 5.38828302288266E8 ; 0.0
6 ; 6947963.3956054915 ; 1.1238471285031E8 ; 4.1439633263321176E7 ; 6.495173949777564E8 ; 0.0
7 ; 6971791.792843585 ; 1.1438939792134196E8 ; 4.8387596658926666E7 ; 7.619021078280663E8 ; 0.0
8 ; 7004072.318187918 ; 1.1670314914957559E8 ; 5.535938845177025E7 ; 8.762915057494082E8 ; 0.0
9 ; 7056551.694839 ; 1.1932596742913759E8 ; 6.236346076995817E7 ; 9.929946548989838E8 ; 0.0
10 ; 7133765.0628589345 ; 1.222578532978782E8 ; 6.942001246479717E7 ; 1.1123206223281214E9 ; 0.0
11 ; 7257565.808616278 ; 1.2549880693531045E8 ; 7.655377752765611E7 ; 1.2345784756259997E9 ; 0.0
12 ; 7457989.164511554 ; 1.2904882816192129E8 ; 8.381134333627239E7 ; 1.36007728256131E9 ; 0.0
13 ; 7650230.459557795 ; 1.3290791643986046E8 ; 9.126933250078395E7 ; 1.4891261107232313E9 ; 0.0
14 ; 7666822.486781189 ; 1.3707607087500137E8 ; 9.891956296034175E7 ; 1.6220340271630917E9 ; 0.0
15 ; 7678391.308458583 ; 1.4155329022035462E8 ; 1.0658638544712295E8 ; 1.759110098038093E9 ; 0.0
16 ; 7686240.589025956 ; 1.4633957288080445E8 ; 1.1426477675558153E8 ; 1.9006633882584476E9 ; 0.0
17 ; 7695223.274326242 ; 1.5143491691912368E8 ; 1.2195101734460749E8 ; 2.0470029611392522E9 ; 0.0
18 ; 7704282.701891508 ; 1.568393200632164E8 ; 1.2964624061893372E8 ; 2.198437878058376E9 ; 0.0
19 ; 7715245.475755214 ; 1.6255277971452245E8 ; 1.3735052332082522E8 ; 2.355277198121592E9 ; 0.0
20 ; 7726059.866663968 ; 1.6857529295751247E8 ; 1.4506576879658043E8 ; 2.5178299778361144E9 ; 0.0
21 ; 7734189.9554584585 ; 1.749068565701923E8 ; 1.527918286632444E8 ; 2.686405270793627E9 ; 0.0
22 ; 7743294.587313331 ; 1.8154746703552997E8 ; 1.6052601861870286E8 ; 2.861312127363819E9 ; 0.0
23 ; 7752752.216757787 ; 1.8849712055371153E8 ; 1.6826931320601618E8 ; 3.042859594399349E9 ; 0.0
24 ; 7763851.9354866985 ; 1.9575581305512887E8 ; 1.7602206542277396E8 ; 3.2313567149530606E9 ; 0.0
25 ; 7772755.601945644 ; 2.0201158111218414E8 ; 1.8378591735826066E8 ; 3.4271125280081897E9 ; 0.0
26 ; 7781200.098967427 ; 2.020179679903355E8 ; 1.915586729602063E8 ; 3.6291241091203737E9 ; 0.0
27 ; 7789182.317497074 ; 2.0202473818758038E8 ; 1.9933987305917373E8 ; 3.831142077110709E9 ; 0.0
28 ; 7799849.832796191 ; 2.020318866961347E8 ; 2.071290553766708E8 ; 4.03316681529829E9 ; 0.0
29 ; 7807575.235941647 ; 2.0203940831081375E8 ; 2.14928905209467E8 ; 4.2351987019944243E9 ; 0.0
30 ; 7818225.699154197 ; 2.020472976443007E8 ; 2.2273648044540864E8 ; 4.437238110305238E9 ; 0.0
31 ; 7823176.440359662 ; 2.0205554914245555E8 ; 2.3055470614456284E8 ; 4.639285407949538E9 ; 0.0
32 ; 7833242.489291885 ; 2.0206415709957752E8 ; 2.383778825849225E8 ; 4.841340957091993E9 ; 0.0
33 ; 7843818.729643945 ; 2.020731156735386E8 ; 2.4621112507421437E8 ; 5.043405114191571E9 ; 0.0
34 ; 7849560.5936049 ; 2.0208241890071273E8 ; 2.540549438038583E8 ; 5.245478229865109E9 ; 0.0
35 ; 7856136.987991711 ; 2.0209206071063045E8 ; 2.619045043974632E8 ; 5.447560648765822E9 ; 0.0
36 ; 7863284.598490474 ; 2.021020349402963E8 ; 2.697606413854549E8 ; 5.649652709476453E9 ; 0.0
37 ; 7873247.982171227 ; 2.0211233534811267E8 ; 2.7762392598394537E8 ; 5.851754744416749E9 ; 0.0
38 ; 7879873.825556151 ; 2.0212295562736055E8 ; 2.854971739661166E8 ; 6.053867079764862E9 ; 0.0
39 ; 7887550.8131210795 ; 2.02133889419195E8 ; 2.9337704779167277E8 ; 6.255990035392222E9 ; 0.0
40 ; 7893511.175449164 ; 2.021451303251191E8 ; 3.0126459860479385E8 ; 6.458123924811418E9 ; 0.0
41 ; 7900075.442754094 ; 2.0215667191890737E8 ; 3.0915810978024304E8 ; 6.660269055136537E9 ; 0.0
42 ; 7906360.265649543 ; 2.0216850775795537E8 ; 3.170581852229971E8 ; 6.862425727055444E9 ; 0.0
43 ; 7911249.477589239 ; 2.0218063139403844E8 ; 3.249645454886467E8 ; 7.064594234813399E9 ; 0.0
44 ; 7920196.751924447 ; 2.021930363834677E8 ; 3.3287579496623594E8 ; 7.2667748662074375E9 ; 0.0
45 ; 7921764.249466498 ; 2.022057162966375E8 ; 3.407959917181604E8 ; 7.468967902590905E9 ; 0.0
46 ; 7926000.671320522 ; 2.0221866472696143E8 ; 3.4871775596762687E8 ; 7.671173618887543E9 ; 0.0
47 ; 7929080.213931001 ; 2.0223187529920074E8 ; 3.5664375663894737E8 ; 7.873392283614504E9 ; 0.0
48 ; 7935849.920960506 ; 2.0224534167719063E8 ; 3.645728368528784E8 ; 8.075624158913705E9 ; 0.0
49 ; 7937656.333807971 ; 2.022590575709748E8 ; 3.725086867738389E8 ; 8.277869500590896E9 ; 0.0
50 ; 7939971.378516456 ; 2.022730167433606E8 ; 3.804463431076468E8 ; 8.48012855816187E9 ; 0.0
51 ; 7943552.57213001 ; 2.022872130159109E8 ; 3.8838631448616326E8 ; 8.682401574905231E9 ; 0.0
52 ; 7948355.89384739 ; 2.0230164027438954E8 ; 3.963298670582933E8 ; 8.884688787921143E9 ; 0.0
53 ; 7951449.890711808 ; 2.023162924736801E8 ; 4.042782229521407E8 ; 9.086990428195532E9 ; 0.0
54 ; 7951445.487377295 ; 2.023311636421992E8 ; 4.122296728428525E8 ; 9.289306720669212E9 ; 0.0
55 ; 7955071.451400563 ; 2.023462478858253E8 ; 4.2018111833022976E8 ; 9.49163788431141E9 ; 0.0
56 ; 7958404.520786225 ; 2.0236153939136708E8 ; 4.2813618978163034E8 ; 9.693984132197237E9 ; 0.0
57 ; 7962025.624532887 ; 2.023770324295938E8 ; 4.3609459430241656E8 ; 9.896345671588604E9 ; 0.0
58 ; 7965272.254410776 ; 2.0239272135785183E8 ; 4.4405661992694944E8 ; 1.0098722704018198E10 ; 0.0
59 ; 7964700.488096906 ; 2.0240860062229073E8 ; 4.5202189218136024E8 ; 1.0301115425376049E10 ; 0.0
60 ; 7967672.344282497 ; 2.0242466475972316E8 ; 4.5998659266945714E8 ; 1.050352402599834E10 ; 0.0
61 ; 7970524.75071121 ; 2.0244090839914128E8 ; 4.6795426501373965E8 ; 1.0705948690758064E10 ; 0.0
62 ; 7973108.144113919 ; 2.024573262629132E8 ; 4.7592478976445085E8 ; 1.0908389599157206E10 ; 0.0
63 ; 7975156.43576118 ; 2.0247391316768172E8 ; 4.8389789790856475E8 ; 1.1110846925420118E10 ; 0.0
64 ; 7977736.777450985 ; 2.0249066402498716E8 ; 4.918730543443259E8 ; 1.1313320838587801E10 ; 0.0
65 ; 7979219.563254907 ; 2.025075738416355E8 ; 4.998507911217769E8 ; 1.1515811502612787E10 ; 0.0
66 ; 7979675.343339005 ; 2.0252463771983194E8 ; 5.078300106850318E8 ; 1.1718319076454422E10 ; 0.0
67 ; 7985049.039477521 ; 2.0254185085709956E8 ; 5.158096860283708E8 ; 1.1920843714174253E10 ; 0.0
68 ; 7984004.666451647 ; 2.0255920854600167E8 ; 5.237947350678483E8 ; 1.2123385565031353E10 ; 0.0
69 ; 7985987.39778158 ; 2.0257670617368537E8 ; 5.3177873973429996E8 ; 1.2325944773577354E10 ; 0.0
70 ; 7987275.467343959 ; 2.025943392212633E8 ; 5.397647271320815E8 ; 1.252852147975104E10 ; 0.0
71 ; 7991388.982720191 ; 2.026121032630494E8 ; 5.477520025994254E8 ; 1.2731115818972303E10 ; 0.0
72 ; 7993798.003847501 ; 2.0262999396566358E8 ; 5.557433915821456E8 ; 1.2933727922235353E10 ; 0.0
73 ; 7993780.137624314 ; 2.0264800708701965E8 ; 5.63737189585993E8 ; 1.3136357916201017E10 ; 0.0
74 ; 7993931.893419945 ; 2.0266613847520897E8 ; 5.717309697236173E8 ; 1.3339005923288036E10 ; 0.0
75 ; 7997219.999175846 ; 2.0268438406729323E8 ; 5.797249016170373E8 ; 1.3541672061763245E10 ; 0.0
76 ; 7999963.250706294 ; 2.0270273988801676E8 ; 5.877221216162131E8 ; 1.3744356445830538E10 ; 0.0
77 ; 7998727.136257115 ; 2.027212020484498E8 ; 5.957220848669194E8 ; 1.3947059185718555E10 ; 0.0
78 ; 8001767.2555885855 ; 2.0273976674457222E8 ; 6.037208120031766E8 ; 1.4149780387767006E10 ; 0.0
79 ; 7997681.532057178 ; 2.0275843025580692E8 ; 6.117225792587651E8 ; 1.4352520154511578E10 ; 0.0
80 ; 7996632.06593576 ; 2.0277718894351158E8 ; 6.197202607908223E8 ; 1.4555278584767384E10 ; 0.0
81 ; 7996675.828056689 ; 2.0279603924943608E8 ; 6.27716892856758E8 ; 1.4758055773710896E10 ; 0.0
82 ; 7995190.412947078 ; 2.028149776941531E8 ; 6.357135686848147E8 ; 1.4960851812960331E10 ; 0.0
83 ; 7994350.358409822 ; 2.028340008754683E8 ; 6.437087590977618E8 ; 1.5163666790654484E10 ; 0.0
84 ; 7991760.521739933 ; 2.0285310546681604E8 ; 6.517031094561715E8 ; 1.5366500791529953E10 ; 0.0
85 ; 7991084.834857648 ; 2.0287228821564573E8 ; 6.596948699779115E8 ; 1.5569353896996769E10 ; 0.0
86 ; 7988998.986551883 ; 2.0289154594180438E8 ; 6.676859548127692E8 ; 1.5772226185212414E10 ; 0.0
87 ; 7985042.62115854 ; 2.0291087553591925E8 ; 6.75674953799321E8 ; 1.5975117731154219E10 ; 0.0
88 ; 7982083.1658955 ; 2.0293027395778462E8 ; 6.836599964204795E8 ; 1.6178028606690138E10 ; 0.0
89 ; 7984610.90454099 ; 2.0294973823475674E8 ; 6.91642079586375E8 ; 1.6380958880647923E10 ; 0.0
90 ; 7980531.341036617 ; 2.029692654601594E8 ; 6.99626690490916E8 ; 1.6583908618882679E10 ; 0.0
91 ; 7980665.750108504 ; 2.0298885279170385E8 ; 7.076072218319526E8 ; 1.6786877884342838E10 ; 0.0
92 ; 7977306.5707860915 ; 2.030084974499249E8 ; 7.15587887582061E8 ; 1.6989866737134542E10 ; 0.0
93 ; 7975196.54936776 ; 2.0302819671663558E8 ; 7.235651941528472E8 ; 1.719287523458447E10 ; 0.0
94 ; 7973730.668026387 ; 2.0304794793340296E8 ; 7.31540390702215E8 ; 1.7395903431301105E10 ; 0.0
95 ; 7969622.77784236 ; 2.030677485000455E8 ; 7.395141213702413E8 ; 1.759895137923451E10 ; 0.0
96 ; 7969746.295312823 ; 2.03087595873155E8 ; 7.474837441480837E8 ; 1.7802019127734554E10 ; 0.0
97 ; 7967063.784690618 ; 2.0310748756464285E8 ; 7.554534904433966E8 ; 1.8005106723607708E10 ; 0.0
98 ; 7962757.609659151 ; 2.0312742114031282E8 ; 7.634205542280872E8 ; 1.820821421117235E10 ; 0.0
99 ; 7961416.592288707 ; 2.031473942184607E8 ; 7.713833118377464E8 ; 1.8411341632312664E10 ; 0.0
100 ; 7956882.460052811 ; 2.031674044685015E8 ; 7.793447284300351E8 ; 1.8614489026531124E10 ; 0.0
101 ; 7957078.897429949 ; 2.031874496096249E8 ; 7.87301610890088E8 ; 1.8817656430999626E10 ; 0.0
102 ; 7953192.642898027 ; 2.032075274094793E8 ; 7.952586897875179E8 ; 1.9020843880609253E10 ; 0.0
103 ; 7949582.69648998 ; 2.0322763568288493E8 ; 8.03211882430416E8 ; 1.9224051408018734E10 ; 0.0
104 ; 7949439.42384408 ; 2.0324777229057598E8 ; 8.111614651269059E8 ; 1.942727904370162E10 ; 0.0
105 ; 7945663.70659138 ; 2.0326793513797188E8 ; 8.1911090455075E8 ; 1.9630526815992195E10 ; 0.0
106 ; 7943510.223769011 ; 2.0328812217397803E8 ; 8.270565682573414E8 ; 1.9833794751130165E10 ; 0.0
107 ; 7942131.078075386 ; 2.0330833138981542E8 ; 8.350000784811105E8 ; 2.0037082873304142E10 ; 0.0
108 ; 7938505.327080528 ; 2.033285608178795E8 ; 8.429422095591859E8 ; 2.024039120469396E10 ; 0.0
109 ; 7935687.310125201 ; 2.033488085306276E8 ; 8.508807148862664E8 ; 2.0443719765511837E10 ; 0.0
110 ; 7930179.475716603 ; 2.0336907263949516E8 ; 8.588164021963916E8 ; 2.0647068574042465E10 ; 0.0
111 ; 7928825.8225976145 ; 2.0338935129383984E8 ; 8.667465816721082E8 ; 2.085043764668196E10 ; 0.0
112 ; 7925770.549726149 ; 2.034096426799139E8 ; 8.746754074947058E8 ; 2.10538269979758E10 ; 0.0
113 ; 7921354.840392005 ; 2.0342994501986378E8 ; 8.826011780444319E8 ; 2.1257236640655712E10 ; 0.0
114 ; 7917503.984207299 ; 2.0345025657075667E8 ; 8.905225328848239E8 ; 2.1460666585675575E10 ; 0.0
115 ; 7915154.135635067 ; 2.034705756236341E8 ; 8.984400368690312E8 ; 2.166411684224633E10 ; 0.0
116 ; 7910723.4129301235 ; 2.0349090050259122E8 ; 9.063551910046662E8 ; 2.1867587417869965E10 ; 0.0
117 ; 7907795.285970761 ; 2.0351122956388187E8 ; 9.142659144175963E8 ; 2.2071078318372555E10 ; 0.0
118 ; 7904866.043018882 ; 2.03531561195049E8 ; 9.221737097035671E8 ; 2.2274589547936436E10 ; 0.0
119 ; 7900203.469794149 ; 2.0355189381407937E8 ; 9.300785757465861E8 ; 2.2478121109131485E10 ; 0.0
120 ; 7897295.736088142 ; 2.0357222586858258E8 ; 9.379787792163802E8 ; 2.2681673002945564E10 ; 0.0
121 ; 7892543.96539573 ; 2.0359255583499354E8 ; 9.458760749524684E8 ; 2.2885245228814148E10 ; 0.0
122 ; 7887032.477768282 ; 2.0361288221779805E8 ; 9.537686189178641E8 ; 2.3088837784649143E10 ; 0.0
123 ; 7887298.48418637 ; 2.036332035487808E8 ; 9.616556513956324E8 ; 2.329245066686694E10 ; 0.0
124 ; 7881920.138336545 ; 2.0365351838629523E8 ; 9.695429498798188E8 ; 2.349608387041572E10 ; 0.0
125 ; 7877411.771461184 ; 2.0367382531455487E8 ; 9.774248700181553E8 ; 2.3699737388802017E10 ; 0.0
126 ; 7871418.954328779 ; 2.036941229429456E8 ; 9.853022817896165E8 ; 2.3903411214116573E10 ; 0.0
127 ; 7870616.595612006 ; 2.03714409905358E8 ; 9.931737007439452E8 ; 2.410710533705952E10 ; 0.0
128 ; 7862862.259559853 ; 2.0373468485953966E8 ; 1.0010443173395573E9 ; 2.4310819746964878E10 ; 0.0
129 ; 7859292.835788261 ; 2.0375494648646668E8 ; 1.0089071795991172E9 ; 2.4514554431824417E10 ; 0.0
130 ; 7857061.317280024 ; 2.0377519348973387E8 ; 1.0167664724349054E9 ; 2.4718309378310883E10 ; 0.0
131 ; 7847068.482088917 ; 2.0379542459496334E8 ; 1.0246235337521855E9 ; 2.4922084571800617E10 ; 0.0
132 ; 7840854.640166922 ; 2.0381563854923046E8 ; 1.0324706022342744E9 ; 2.512587999639558E10 ; 0.0
133 ; 7833972.793556086 ; 2.0383583412050733E8 ; 1.0403114568744413E9 ; 2.532969563494481E10 ; 0.0
134 ; 7827209.142711565 ; 2.0385601009712297E8 ; 1.0481454296679974E9 ; 2.5533531469065315E10 ; 0.0
135 ; 7821981.789173713 ; 2.038761652872396E8 ; 1.0559726388107089E9 ; 2.5737387479162437E10 ; 0.0
136 ; 7813170.136771768 ; 2.038962985183448E8 ; 1.0637946205998826E9 ; 2.5941263644449677E10 ; 0.0
137 ; 7804739.218117987 ; 2.0391640863675895E8 ; 1.0716077907366544E9 ; 2.614515994296802E10 ; 0.0
138 ; 7798588.327864151 ; 2.039364945071577E8 ; 1.0794125299547725E9 ; 2.6349076351604782E10 ; 0.0
139 ; 7791637.177722451 ; 2.0395655501210865E8 ; 1.0872111182826366E9 ; 2.655301284611194E10 ; 0.0
140 ; 7784717.892297116 ; 2.0397658905162206E8 ; 1.095002755460359E9 ; 2.6756969401124046E10 ; 0.0
141 ; 7775147.183302998 ; 2.039965955427155E8 ; 1.1027874733526561E9 ; 2.6960945990175667E10 ; 0.0
142 ; 7765793.177904708 ; 2.0401657341899115E8 ; 1.110562620535959E9 ; 2.7164942585718384E10 ; 0.0
143 ; 7761164.738177123 ; 2.0403652163022628E8 ; 1.1183284137138636E9 ; 2.7368959159137375E10 ; 0.0
144 ; 7756004.013312159 ; 2.0405643914197606E8 ; 1.1260895784520407E9 ; 2.75729956807676E10 ; 0.0
145 ; 7746044.882265391 ; 2.0407632493518817E8 ; 1.1338455824653528E9 ; 2.7777052119909576E10 ; 0.0
146 ; 7743446.98475977 ; 2.0409617800582942E8 ; 1.141591627347618E9 ; 2.7981128444844765E10 ; 0.0
147 ; 7737832.618964315 ; 2.0411599736452338E8 ; 1.149335074332378E9 ; 2.8185224622850594E10 ; 0.0
148 ; 7733273.941435811 ; 2.0413578203619906E8 ; 1.1570729069513423E9 ; 2.838934062021512E10 ; 0.0
149 ; 7731634.122806252 ; 2.0415553105975032E8 ; 1.1648061808927782E9 ; 2.8593476402251316E10 ; 0.0
150 ; 7722696.958780143 ; 2.041752434877053E8 ; 1.1725378150155845E9 ; 2.8797631933311066E10 ; 0.0
151 ; 7719092.482921677 ; 2.041949183859062E8 ; 1.1802605119743645E9 ; 2.900180717679877E10 ; 0.0
152 ; 7711231.0973346345 ; 2.042145548331983E8 ; 1.1879796044572861E9 ; 2.9206002095184677E10 ; 0.0
153 ; 7709780.23574482 ; 2.0423415192112872E8 ; 1.1956908355546207E9 ; 2.9410216650017876E10 ; 0.0
154 ; 7702949.450512317 ; 2.0425370875365397E8 ; 1.2034006157903655E9 ; 2.9614450801939003E10 ; 0.0
155 ; 7699600.07159064 ; 2.0427322444685653E8 ; 1.2111035652408779E9 ; 2.9818704510692657E10 ; 0.0
156 ; 7691836.861408874 ; 2.0429269812866968E8 ; 1.2188031653124685E9 ; 3.0022977735139515E10 ; 0.0
157 ; 7679483.040245014 ; 2.0431212893861088E8 ; 1.2264950021738775E9 ; 3.0227270433268185E10 ; 0.0
158 ; 7665666.588457683 ; 2.0433151602752283E8 ; 1.2341744852141225E9 ; 3.0431582562206795E10 ; 0.0
159 ; 7650066.183017086 ; 2.043508585573226E8 ; 1.24184015180258E9 ; 3.0635914078234318E10 ; 0.0
160 ; 7634035.433579581 ; 2.04370155700758E8 ; 1.2494902179855971E9 ; 3.084026493679164E10 ; 0.0
161 ; 7620138.399375748 ; 2.0438940664117146E8 ; 1.2571242534191768E9 ; 3.10446350924924E10 ; 0.0
162 ; 7605472.388021124 ; 2.044086105722705E8 ; 1.2647443918185525E9 ; 3.124902449913357E10 ; 0.0
163 ; 7588898.584389343 ; 2.0442776669790578E8 ; 1.2723498642065737E9 ; 3.145343310970584E10 ; 0.0
164 ; 7572639.001338118 ; 2.04446874231855E8 ; 1.2799387627909632E9 ; 3.1657860876403748E10 ; 0.0
165 ; 7557029.1802882 ; 2.044659323976136E8 ; 1.2875114017923012E9 ; 3.18623077506356E10 ; 0.0
166 ; 7540974.471081981 ; 2.0448494042819175E8 ; 1.2950684309725895E9 ; 3.2066773683033215E10 ; 0.0
167 ; 7527643.032933644 ; 2.045038975659169E8 ; 1.3026094054436715E9 ; 3.2271258623461407E10 ; 0.0
168 ; 7510351.632990323 ; 2.0452280306224275E8 ; 1.3101370484766052E9 ; 3.2475762521027325E10 ; 0.0
169 ; 7492914.723469137 ; 2.0454165617756334E8 ; 1.3176474001095955E9 ; 3.268028532408957E10 ; 0.0
170 ; 7481756.929046284 ; 2.0456045618103305E8 ; 1.3251403148330646E9 ; 3.288482698026713E10 ; 0.0
171 ; 7462512.153969589 ; 2.045792023503914E8 ; 1.332622071762111E9 ; 3.3089387436448166E10 ; 0.0
172 ; 7446882.151737768 ; 2.0459789397179356E8 ; 1.3400845839160805E9 ; 3.3293966638798557E10 ; 0.0
173 ; 7430291.23015649 ; 2.0461653033964536E8 ; 1.3475314660678182E9 ; 3.349856453277035E10 ; 0.0
174 ; 7421380.179197342 ; 2.0463511075644332E8 ; 1.3549617572979746E9 ; 3.3703181063109997E10 ; 0.0
175 ; 7403361.277601113 ; 2.046536345326194E8 ; 1.362383137477172E9 ; 3.390781617386644E10 ; 0.0
176 ; 7390771.647107191 ; 2.046721009863901E8 ; 1.369786498754773E9 ; 3.411246980839906E10 ; 0.0
177 ; 7377926.685458624 ; 2.0469050944361034E8 ; 1.37717727040188E9 ; 3.431714190938545E10 ; 0.0
178 ; 7364058.713912789 ; 2.047E8 ; 1.3845551970873387E9 ; 3.4521832418829056E10 ; 0.0
179 ; 7350600.002918825 ; 2.047E8 ; 1.3919192558012514E9 ; 3.4726532418829056E10 ; 0.0
180 ; 7334822.360251555 ; 2.047E8 ; 1.3992698558041701E9 ; 3.4931232418829056E10 ; 0.0
181 ; 7320897.640890404 ; 2.047E8 ; 1.4066046781644218E9 ; 3.5135932418829056E10 ; 0.0
182 ; 7306923.442894686 ; 2.047E8 ; 1.4139255758053122E9 ; 3.5340632418829056E10 ; 0.0
183 ; 7294173.806997886 ; 2.047E8 ; 1.4212324992482069E9 ; 3.5545332418829056E10 ; 0.0
184 ; 7280900.606710532 ; 2.047E8 ; 1.4285266730552046E9 ; 3.5750032418829056E10 ; 0.0
185 ; 7268857.855026855 ; 2.047E8 ; 1.435807573661915E9 ; 3.5954732418829056E10 ; 0.0
186 ; 7254609.677724728 ; 2.047E8 ; 1.443076431516942E9 ; 3.6159432418829056E10 ; 0.0
187 ; 7239558.961017703 ; 2.047E8 ; 1.4503310411946669E9 ; 3.6364132418829056E10 ; 0.0
188 ; 7228307.8841495 ; 2.047E8 ; 1.4575706001556845E9 ; 3.6568832418829056E10 ; 0.0
189 ; 7213569.9109617425 ; 2.047E8 ; 1.464798908039834E9 ; 3.6773532418829056E10 ; 0.0
190 ; 7200053.836546073 ; 2.047E8 ; 1.4720124779507957E9 ; 3.6978232418829056E10 ; 0.0
191 ; 7189604.027479722 ; 2.047E8 ; 1.4792125317873418E9 ; 3.7182932418829056E10 ; 0.0
192 ; 7173226.364190348 ; 2.047E8 ; 1.4864021358148215E9 ; 3.7387632418829056E10 ; 0.0
193 ; 7158543.4206115035 ; 2.047E8 ; 1.4935753621790118E9 ; 3.7592332418829056E10 ; 0.0
194 ; 7143768.828828916 ; 2.047E8 ; 1.5007339055996234E9 ; 3.7797032418829056E10 ; 0.0
195 ; 7131801.8399432665 ; 2.047E8 ; 1.5078776744284523E9 ; 3.8001732418829056E10 ; 0.0
196 ; 7119199.710233553 ; 2.047E8 ; 1.5150094762683954E9 ; 3.8206432418829056E10 ; 0.0
197 ; 7105321.969592897 ; 2.047E8 ; 1.5221286759786289E9 ; 3.8411132418829056E10 ; 0.0
198 ; 7091990.847324549 ; 2.047E8 ; 1.5292339979482217E9 ; 3.8615832418829056E10 ; 0.0
199 ; 7076159.075834425 ; 1.7702743955837998E8 ; 1.5363259887955463E9 ; 3.8820532418829056E10 ; 0.0
200 ; 7064785.017350726 ; 1.5620807492166224E8 ; 1.5434021478713808E9 ; 3.8997559858387436E10 ; 0.0
201 ; 7050368.015380286 ; 1.5586000678114402E8 ; 1.5504669328887315E9 ; 3.91537679333091E10 ; 0.0
202 ; 7037948.321065802 ; 1.555127382774142E8 ; 1.5575173009041119E9 ; 3.930962794009024E10 ; 0.0
203 ; 7022609.7756719 ; 1.5516626757342157E8 ; 1.5645552492251778E9 ; 3.946514067836765E10 ; 0.0
