CSV File for the City 1 on Day 232
1 - Minute m 
2 - Power Consumed at minute m 
3 - Power Produced at minute m 
4 - Energy Consumed since the beginning of the day 
5 - Energy Produced since the beginning of the day 
6 - Energy Lost since the beginning of the day on lines starting from the city
 
0 ; 1540675.2184658437 ; 1.052311954273546E8 ; 0.0 ; 0.0 ; 0.0
1 ; 1554376.89580122 ; 1.0538113356461102E8 ; 1540675.2184658437 ; 1.052311954273546E8 ; 0.0
2 ; 1576739.8997345623 ; 1.0583990892105481E8 ; 3095052.114267064 ; 2.1061232899196562E8 ; 0.0
3 ; 1593966.2659354012 ; 1.0660756464661866E8 ; 4671792.0140016265 ; 3.1645223791302043E8 ; 0.0
4 ; 1619438.9084978043 ; 1.0768415371914399E8 ; 6265758.279937028 ; 4.230598025596391E8 ; 0.0
5 ; 1650457.7586837616 ; 1.0906973995938414E8 ; 7885197.188434832 ; 5.307439562787831E8 ; 0.0
6 ; 1691582.9407229745 ; 1.1076439778944954E8 ; 9535654.947118593 ; 6.398136962381673E8 ; 0.0
7 ; 1744576.4079570442 ; 1.12768209554115E8 ; 1.1227237887841567E7 ; 7.505780940276169E8 ; 0.0
8 ; 1822922.1952078198 ; 1.1508125913220692E8 ; 1.297181429579861E7 ; 8.633463035817318E8 ; 0.0
9 ; 1940393.3009840352 ; 1.1770362136218071E8 ; 1.479473649100643E7 ; 9.784275627139387E8 ; 0.0
10 ; 2123468.6760481447 ; 1.2063534891242975E8 ; 1.6735129791990466E7 ; 1.0961311840761194E9 ; 0.0
11 ; 2418755.4320352133 ; 1.2387646086835358E8 ; 1.885859846803861E7 ; 1.2167665329885492E9 ; 0.0
12 ; 2883636.0014390596 ; 1.2742693814455262E8 ; 2.1277353900073826E7 ; 1.3406429938569028E9 ; 0.0
13 ; 3325757.9650832782 ; 1.312867280726335E8 ; 2.4160989901512887E7 ; 1.4680699320014555E9 ; 0.0
14 ; 3382157.934932769 ; 1.3545575581414092E8 ; 2.7486747866596166E7 ; 1.599356660074089E9 ; 0.0
15 ; 3403370.469471793 ; 1.3993393749024832E8 ; 3.0868905801528934E7 ; 1.7348124158882298E9 ; 0.0
16 ; 3429485.010257328 ; 1.4472119075618103E8 ; 3.427227627100073E7 ; 1.874746353378478E9 ; 0.0
17 ; 3451475.402467364 ; 1.4981744118982854E8 ; 3.7701761281258054E7 ; 2.019467544134659E9 ; 0.0
18 ; 3474648.7420149804 ; 1.5522262497043753E8 ; 4.115323668372542E7 ; 2.1692849853244877E9 ; 0.0
19 ; 3498128.509589687 ; 1.6093668912016657E8 ; 4.46278854257404E7 ; 2.324507610294925E9 ; 0.0
20 ; 3517160.783526959 ; 1.6695959048908296E8 ; 4.8126013935330085E7 ; 2.485444299415092E9 ; 0.0
21 ; 3547995.7545202384 ; 1.7329129427530447E8 ; 5.164317471885704E7 ; 2.652403889904175E9 ; 0.0
22 ; 3568685.557566334 ; 1.799317725125537E8 ; 5.519117047337728E7 ; 2.825695184179479E9 ; 0.0
23 ; 3594085.088293233 ; 1.868810027183203E8 ; 5.875985603094362E7 ; 3.005626956692033E9 ; 0.0
24 ; 3617796.1626352714 ; 1.9413896676322228E8 ; 6.235394111923685E7 ; 3.192507959410353E9 ; 0.0
25 ; 3638528.6902279803 ; 2.003936908569322E8 ; 6.597173728187212E7 ; 3.3866469261735754E9 ; 0.0
26 ; 3664378.7768540545 ; 2.0039871086330512E8 ; 6.961026597210011E7 ; 3.5870406170305076E9 ; 0.0
27 ; 3681416.8983844505 ; 2.004037862599232E8 ; 7.327464474895416E7 ; 3.7874393278938127E9 ; 0.0
28 ; 3707958.499285694 ; 2.0040890894384074E8 ; 7.695606164733861E7 ; 3.9878431141537356E9 ; 0.0
29 ; 3732053.8617381407 ; 2.004140721809138E8 ; 8.066402014662431E7 ; 4.188252023097576E9 ; 0.0
30 ; 3755430.091319165 ; 2.0041927033705968E8 ; 8.439607400836246E7 ; 4.38866609527849E9 ; 0.0
31 ; 3774926.0020125406 ; 2.0042449866750014E8 ; 8.815150409968162E7 ; 4.58908536561555E9 ; 0.0
32 ; 3798665.8494824287 ; 2.0042975315071654E8 ; 9.192643010169415E7 ; 4.789509864283051E9 ; 0.0
33 ; 3818693.5518900133 ; 2.0043503035695115E8 ; 9.572509595117658E7 ; 4.989939617433767E9 ; 0.0
34 ; 3839827.126552934 ; 2.0044032734348887E8 ; 9.95437895030666E7 ; 5.190374647790718E9 ; 0.0
35 ; 3861371.1026579426 ; 2.0044564157079038E8 ; 1.0338361662961954E8 ; 5.390814975134207E9 ; 0.0
36 ; 3878831.593703682 ; 2.004509708349383E8 ; 1.0724498773227748E8 ; 5.591260616704997E9 ; 0.0
37 ; 3900395.1899503428 ; 2.0045631321291324E8 ; 1.1112381932598117E8 ; 5.791711587539935E9 ; 0.0
38 ; 3917181.6231023916 ; 2.0046166701801512E8 ; 1.1502421451593152E8 ; 5.992167900752849E9 ; 0.0
39 ; 3935680.2413984803 ; 2.0046703076334977E8 ; 1.1894139613903391E8 ; 6.192629567770864E9 ; 0.0
40 ; 3955503.6048560254 ; 2.0047240313176396E8 ; 1.228770763804324E8 ; 6.393096598534213E9 ; 0.0
41 ; 3969941.553285271 ; 2.004777829509623E8 ; 1.2683257998528843E8 ; 6.5935690016659775E9 ; 0.0
42 ; 3986530.166229017 ; 2.004831691728119E8 ; 1.308025215385737E8 ; 6.79404678461694E9 ; 0.0
43 ; 4000506.532916521 ; 2.0048856085604724E8 ; 1.3478905170480272E8 ; 6.994529953789751E9 ; 0.0
44 ; 4014930.223291167 ; 2.0049395715175125E8 ; 1.3878955823771924E8 ; 7.195018514645799E9 ; 0.0
45 ; 4029337.9900105465 ; 2.0049935729111278E8 ; 1.428044884610104E8 ; 7.39551247179755E9 ; 0.0
46 ; 4043461.3084061323 ; 2.005047605750606E8 ; 1.4683382645102096E8 ; 7.596011829088663E9 ; 0.0
47 ; 4059231.3752670214 ; 2.0051016636545035E8 ; 1.508772877594271E8 ; 7.796516589663724E9 ; 0.0
48 ; 4065611.4081308264 ; 2.0051557407754287E8 ; 1.5493651913469413E8 ; 7.997026756029174E9 ; 0.0
49 ; 4079759.1937645557 ; 2.005209831735609E8 ; 1.5900213054282495E8 ; 8.197542330106717E9 ; 0.0
50 ; 4090091.52838144 ; 2.0052639315714943E8 ; 1.6308188973658952E8 ; 8.398063313280278E9 ; 0.0
51 ; 4099884.574623422 ; 2.0053180356859747E8 ; 1.6717198126497096E8 ; 8.598589706437428E9 ; 0.0
52 ; 4106033.2138452646 ; 2.0053721398070174E8 ; 1.712718658395944E8 ; 8.799121510006025E9 ; 0.0
53 ; 4117763.4957884755 ; 2.0054262399517617E8 ; 1.7537789905343965E8 ; 8.999658723986727E9 ; 0.0
54 ; 4122668.275184849 ; 2.0054803323952442E8 ; 1.7949566254922813E8 ; 9.200201347981903E9 ; 0.0
55 ; 4134770.361699488 ; 2.0055344136430892E8 ; 1.8361833082441297E8 ; 9.400749381221428E9 ; 0.0
56 ; 4142481.1045176964 ; 2.0055884804075834E8 ; 1.8775310118611246E8 ; 9.601302822585737E9 ; 0.0
57 ; 4151751.0071966653 ; 2.0056425295866707E8 ; 1.9189558229063016E8 ; 9.801861670626495E9 ; 0.0
58 ; 4165746.7109869053 ; 2.005696558245452E8 ; 1.9604733329782683E8 ; 1.0002425923585163E10 ; 0.0
59 ; 4171586.566721482 ; 2.0057505635998583E8 ; 2.0021308000881374E8 ; 1.0202995579409708E10 ; 0.0
60 ; 4174248.660445213 ; 2.0058045430022046E8 ; 2.043846665755352E8 ; 1.0403570635769693E10 ; 0.0
61 ; 4181918.383530791 ; 2.0058584939283752E8 ; 2.0855891523598042E8 ; 1.0604151090069914E10 ; 0.0
62 ; 4193104.5702066515 ; 2.005912413966438E8 ; 2.1274083361951122E8 ; 1.0804736939462751E10 ; 0.0
63 ; 4205734.394814245 ; 2.0059663008064982E8 ; 2.1693393818971786E8 ; 1.1005328180859396E10 ; 0.0
64 ; 4210263.953578151 ; 2.006020152231646E8 ; 2.211396725845321E8 ; 1.1205924810940046E10 ; 0.0
65 ; 4219382.016908423 ; 2.0060739661098558E8 ; 2.2534993653811026E8 ; 1.1406526826163212E10 ; 0.0
66 ; 4223478.679780214 ; 2.0061277403867313E8 ; 2.295693185550187E8 ; 1.1607134222774197E10 ; 0.0
67 ; 4235324.278982344 ; 2.0061814730789888E8 ; 2.337927972347989E8 ; 1.180774699681287E10 ; 0.0
68 ; 4239867.637135096 ; 2.0062351622685987E8 ; 2.3802812151378125E8 ; 1.200836514412077E10 ; 0.0
69 ; 4244252.809739508 ; 2.0062888060975036E8 ; 2.4226798915091634E8 ; 1.220898866034763E10 ; 0.0
70 ; 4253068.060545692 ; 2.0063424027628568E8 ; 2.4651224196065584E8 ; 1.240961754095738E10 ; 0.0
71 ; 4257120.286049935 ; 2.0063959505127123E8 ; 2.5076531002120152E8 ; 1.2610251781233665E10 ; 0.0
72 ; 4267631.067942711 ; 2.0064494476421267E8 ; 2.5502243030725145E8 ; 1.2810891376284937E10 ; 0.0
73 ; 4274909.213858858 ; 2.0065028924896228E8 ; 2.5929006137519416E8 ; 1.301153632104915E10 ; 0.0
74 ; 4278043.093012022 ; 2.0065562834339786E8 ; 2.6356497058905303E8 ; 1.3212186610298113E10 ; 0.0
75 ; 4290582.843325781 ; 2.006609618891307E8 ; 2.6784301368206507E8 ; 1.341284223864151E10 ; 0.0
76 ; 4291294.42449161 ; 2.0066628973123983E8 ; 2.7213359652539086E8 ; 1.3613503200530642E10 ; 0.0
77 ; 4299691.6375961155 ; 2.0067161171802926E8 ; 2.7642489094988245E8 ; 1.381416949026188E10 ; 0.0
78 ; 4299195.530050328 ; 2.0067692770080686E8 ; 2.807245825874786E8 ; 1.401484110197991E10 ; 0.0
79 ; 4304614.989002205 ; 2.0068223753368187E8 ; 2.850237781175289E8 ; 1.4215518029680717E10 ; 0.0
80 ; 4298519.249183234 ; 2.006875410733797E8 ; 2.8932839310653114E8 ; 1.44162002672144E10 ; 0.0
81 ; 4304347.577002239 ; 2.0069283817907214E8 ; 2.936269123557144E8 ; 1.4616887808287779E10 ; 0.0
82 ; 4303730.848903078 ; 2.0069812871222168E8 ; 2.979312599327166E8 ; 1.481758064646685E10 ; 0.0
83 ; 4300284.126603438 ; 2.0070341253643852E8 ; 3.0223499078161967E8 ; 1.5018278775179071E10 ; 0.0
84 ; 4304175.004711643 ; 2.0070868951734906E8 ; 3.065352749082231E8 ; 1.521898218771551E10 ; 0.0
85 ; 4300565.17703158 ; 2.007139595224749E8 ; 3.108394499129347E8 ; 1.5419690877232859E10 ; 0.0
86 ; 4303792.291360686 ; 2.007192224211214E8 ; 3.151400150899663E8 ; 1.5620404836755333E10 ; 0.0
87 ; 4304583.443660882 ; 2.007244780842748E8 ; 3.19443807381327E8 ; 1.5821124059176455E10 ; 0.0
88 ; 4299065.0452921325 ; 2.007297263845075E8 ; 3.237483908249878E8 ; 1.6021848537260729E10 ; 0.0
89 ; 4305799.188144517 ; 2.0073496719589037E8 ; 3.2804745587027997E8 ; 1.6222578263645237E10 ; 0.0
90 ; 4299611.960844374 ; 2.0074020039391154E8 ; 3.323532550584245E8 ; 1.6423313230841127E10 ; 0.0
91 ; 4297429.741685832 ; 2.0074542585540166E8 ; 3.366528670192689E8 ; 1.6624053431235039E10 ; 0.0
92 ; 4299306.875139959 ; 2.0075064345846432E8 ; 3.409502967609547E8 ; 1.682479885709044E10 ; 0.0
93 ; 4296682.449640464 ; 2.0075585308241168E8 ; 3.452496036360946E8 ; 1.7025549500548904E10 ; 0.0
94 ; 4302558.515494898 ; 2.007610546077048E8 ; 3.495462860857351E8 ; 1.7226305353631317E10 ; 0.0
95 ; 4295888.420704034 ; 2.0076624791589814E8 ; 3.5384884460122997E8 ; 1.742706640823902E10 ; 0.0
96 ; 4293224.694020432 ; 2.0077143288958824E8 ; 3.58144733021934E8 ; 1.762783265615492E10 ; 0.0
97 ; 4290683.104885391 ; 2.0077660941236567E8 ; 3.624379577159544E8 ; 1.7828604089044506E10 ; 0.0
98 ; 4292402.331103338 ; 2.0078177736877066E8 ; 3.667286408208398E8 ; 1.802938069845687E10 ; 0.0
99 ; 4290495.758951963 ; 2.0078693664425159E8 ; 3.7102104315194315E8 ; 1.823016247582564E10 ; 0.0
100 ; 4289612.011208019 ; 2.0079208712512648E8 ; 3.753115389108951E8 ; 1.8430949412469894E10 ; 0.0
101 ; 4284596.727443798 ; 2.00797228698547E8 ; 3.796011509221031E8 ; 1.863174149959502E10 ; 0.0
102 ; 4286204.488305117 ; 2.0080236125246495E8 ; 3.838857476495469E8 ; 1.8832538728293568E10 ; 0.0
103 ; 4286850.435683198 ; 2.0080748467560107E8 ; 3.88171952137852E8 ; 1.9033341089546032E10 ; 0.0
104 ; 4278032.547257766 ; 2.0081259885741577E8 ; 3.924588025735352E8 ; 1.9234148574221634E10 ; 0.0
105 ; 4280400.426035084 ; 2.0081770368808195E8 ; 3.96736835120793E8 ; 1.943496117307905E10 ; 0.0
106 ; 4277718.011510178 ; 2.008227990584596E8 ; 4.010172355468281E8 ; 1.963577887676713E10 ; 0.0
107 ; 4270347.314539059 ; 2.0082788486007196E8 ; 4.052949535583383E8 ; 1.9836601675825592E10 ; 0.0
108 ; 4269782.027729022 ; 2.0083296098508322E8 ; 4.0956530087287736E8 ; 2.0037429560685665E10 ; 0.0
109 ; 4263034.497606492 ; 2.0083802732627797E8 ; 4.138350829006064E8 ; 2.023826252167075E10 ; 0.0
110 ; 4261555.300518422 ; 2.0084308377704155E8 ; 4.180981173982129E8 ; 2.043910054899703E10 ; 0.0
111 ; 4264457.838733823 ; 2.0084813023134187E8 ; 4.223596726987313E8 ; 2.063994363277407E10 ; 0.0
112 ; 4260343.9343398195 ; 2.0085316658371252E8 ; 4.2662413053746516E8 ; 2.0840791763005413E10 ; 0.0
113 ; 4253114.611346033 ; 2.0085819272923666E8 ; 4.30884474471805E8 ; 2.1041644929589127E10 ; 0.0
114 ; 4248152.364065119 ; 2.008632085635322E8 ; 4.35137589083151E8 ; 2.1242503122318363E10 ; 0.0
115 ; 4246861.126798736 ; 2.0086821398273775E8 ; 4.393857414472161E8 ; 2.1443366330881897E10 ; 0.0
116 ; 4246708.40399423 ; 2.008732088834995E8 ; 4.4363260257401484E8 ; 2.1644234544864635E10 ; 0.0
117 ; 4236459.82187583 ; 2.00878193162959E8 ; 4.4787931097800905E8 ; 2.1845107753748135E10 ; 0.0
118 ; 4232900.288231543 ; 2.008831667187417E8 ; 4.5211577079988486E8 ; 2.2045985946911095E10 ; 0.0
119 ; 4232055.004551927 ; 2.0088812944894597E8 ; 4.563486710881164E8 ; 2.2246869113629837E10 ; 0.0
120 ; 4223708.2435636725 ; 2.0089308125213316E8 ; 4.6058072609266835E8 ; 2.244775724307878E10 ; 0.0
121 ; 4220926.9356711125 ; 2.0089802202731812E8 ; 4.64804434336232E8 ; 2.2648650324330914E10 ; 0.0
122 ; 4214803.356602231 ; 2.0090295167396027E8 ; 4.690253612719031E8 ; 2.284954834635823E10 ; 0.0
123 ; 4211172.761009241 ; 2.0090787009195527E8 ; 4.7324016462850535E8 ; 2.3050451298032192E10 ; 0.0
124 ; 4209433.462909584 ; 2.009127771816273E8 ; 4.7745133738951457E8 ; 2.325135916812415E10 ; 0.0
125 ; 4202141.882286695 ; 2.0091767284372172E8 ; 4.8166077085242414E8 ; 2.345227194530578E10 ; 0.0
126 ; 4193896.3745529624 ; 2.0092255697939813E8 ; 4.858629127347108E8 ; 2.36531896181495E10 ; 0.0
127 ; 4189196.3712811847 ; 2.0092742949022418E8 ; 4.900568091092638E8 ; 2.38541121751289E10 ; 0.0
128 ; 4183088.819699092 ; 2.0093229027816936E8 ; 4.94246005480545E8 ; 2.405503960461912E10 ; 0.0
129 ; 4186138.780302751 ; 2.0093713924559963E8 ; 4.984290943002441E8 ; 2.425597189489729E10 ; 0.0
130 ; 4171006.046398443 ; 2.009419762952718E8 ; 5.0261523308054686E8 ; 2.4456909034142887E10 ; 0.0
131 ; 4162469.298408765 ; 2.0094680133032906E8 ; 5.067862391269453E8 ; 2.465785101043816E10 ; 0.0
132 ; 4148054.6149982275 ; 2.0095161425429606E8 ; 5.1094870842535406E8 ; 2.485879781176849E10 ; 0.0
133 ; 4138001.3279716885 ; 2.0095641497107476E8 ; 5.150967630403523E8 ; 2.5059749426022785E10 ; 0.0
134 ; 4128375.7015075395 ; 2.0096120338494048E8 ; 5.19234764368324E8 ; 2.526070584099386E10 ; 0.0
135 ; 4115002.7516614124 ; 2.0096597940053803E8 ; 5.2336314006983155E8 ; 2.54616670443788E10 ; 0.0
136 ; 4104106.3861955716 ; 2.0097074292287838E8 ; 5.2747814282149297E8 ; 2.566263302377934E10 ; 0.0
137 ; 4089603.999813717 ; 2.0097549385733536E8 ; 5.3158224920768857E8 ; 2.5863603766702217E10 ; 0.0
138 ; 4079976.273831125 ; 2.009802321096426E8 ; 5.356718532075023E8 ; 2.606457926055955E10 ; 0.0
139 ; 4068487.4595580576 ; 2.0098495758589086E8 ; 5.397518294813334E8 ; 2.6265559492669193E10 ; 0.0
140 ; 4055552.1977240155 ; 2.0098967019252536E8 ; 5.438203169408914E8 ; 2.6466544450255085E10 ; 0.0
141 ; 4042762.2838181183 ; 2.0099436983634338E8 ; 5.478758691386154E8 ; 2.666753412044761E10 ; 0.0
142 ; 4033143.2017576694 ; 2.0099905642449206E8 ; 5.519186314224335E8 ; 2.686852849028395E10 ; 0.0
143 ; 4018060.595342791 ; 2.010037298644664E8 ; 5.559517746241912E8 ; 2.7069527546708443E10 ; 0.0
144 ; 4000228.9493315867 ; 2.0100839006410727E8 ; 5.599698352195339E8 ; 2.727053127657291E10 ; 0.0
145 ; 4000483.9223314123 ; 2.0101303693159977E8 ; 5.639700641688656E8 ; 2.7471539666637016E10 ; 0.0
146 ; 3996651.1114531555 ; 2.0101767037547168E8 ; 5.67970548091197E8 ; 2.7672552703568615E10 ; 0.0
147 ; 3995114.1104990104 ; 2.0102229030459183E8 ; 5.719671992026502E8 ; 2.7873570373944088E10 ; 0.0
148 ; 3983074.6061622784 ; 2.0102689662816906E8 ; 5.759623133131492E8 ; 2.807459266424868E10 ; 0.0
149 ; 3975392.873668549 ; 2.0103148925575072E8 ; 5.799453879193115E8 ; 2.827561956087685E10 ; 0.0
150 ; 3975395.499824829 ; 2.0103606809722188E8 ; 5.839207807929801E8 ; 2.8476651050132603E10 ; 0.0
151 ; 3963967.5277306684 ; 2.0104063306280416E8 ; 5.87896176292805E8 ; 2.8677687118229824E10 ; 0.0
152 ; 3961492.83371446 ; 2.0104518406305504E8 ; 5.918601438205357E8 ; 2.887872775129263E10 ; 0.0
153 ; 3955784.8591945 ; 2.010497210088669E8 ; 5.958216366542501E8 ; 2.9079772935355682E10 ; 0.0
154 ; 3951470.5884532286 ; 2.0105424381146654E8 ; 5.997774215134447E8 ; 2.9280822656364548E10 ; 0.0
155 ; 3944119.7270385656 ; 2.010587523824146E8 ; 6.037288921018978E8 ; 2.9481876900176014E10 ; 0.0
156 ; 3940360.7664715503 ; 2.010632466336049E8 ; 6.076730118289365E8 ; 2.968293565255843E10 ; 0.0
157 ; 3933057.2018475076 ; 2.0106772647726423E8 ; 6.11613372595408E8 ; 2.9883998899192036E10 ; 0.0
158 ; 3928000.4028507443 ; 2.010721918259519E8 ; 6.155464297972555E8 ; 3.00850666256693E10 ; 0.0
159 ; 3920764.1495030783 ; 2.0107664259255958E8 ; 6.194744302001063E8 ; 3.028613881749525E10 ; 0.0
160 ; 3915435.9756581415 ; 2.01081078690311E8 ; 6.233951943496094E8 ; 3.048721546008781E10 ; 0.0
161 ; 3906006.2684615715 ; 2.01085500032762E8 ; 6.273106303252676E8 ; 3.0688296538778122E10 ; 0.0
162 ; 3897664.1836682246 ; 2.0108990653380018E8 ; 6.312166365937291E8 ; 3.0889382038810883E10 ; 0.0
163 ; 3892020.995784871 ; 2.0109429810764533E8 ; 6.351143007773974E8 ; 3.1090471945344685E10 ; 0.0
164 ; 3888328.146260712 ; 2.0109867466884905E8 ; 6.390063217731823E8 ; 3.129156624345233E10 ; 0.0
165 ; 3883295.338086181 ; 2.0110303613229522E8 ; 6.42894649919443E8 ; 3.149266491812118E10 ; 0.0
166 ; 3878962.2047052076 ; 2.0110738241319993E8 ; 6.467779452575291E8 ; 3.1693767954253475E10 ; 0.0
167 ; 3871787.3401083495 ; 2.011117134271118E8 ; 6.506569074622344E8 ; 3.1894875336666676E10 ; 0.0
168 ; 3870640.0678509143 ; 2.0111602908991224E8 ; 6.545286948023428E8 ; 3.209598705009379E10 ; 0.0
169 ; 3861186.4160756515 ; 2.011203293178157E8 ; 6.583993348701937E8 ; 3.22971030791837E10 ; 0.0
170 ; 3851586.6596113355 ; 2.0112461402737004E8 ; 6.622605212862694E8 ; 3.2498223408501514E10 ; 0.0
171 ; 3843545.322891875 ; 2.0112888313545698E8 ; 6.661121079458808E8 ; 3.2699348022528885E10 ; 0.0
172 ; 3838328.745877426 ; 2.0113313655929247E8 ; 6.699556532687726E8 ; 3.290047690566434E10 ; 0.0
173 ; 3835026.5775371487 ; 2.011373742164271E8 ; 6.7379398201465E8 ; 3.3101610042223633E10 ; 0.0
174 ; 3829786.4371734946 ; 2.0114159602474663E8 ; 6.776290085921872E8 ; 3.330274741644006E10 ; 0.0
175 ; 3827719.38060032 ; 2.0114580190247265E8 ; 6.814587950293607E8 ; 3.3503889012464806E10 ; 0.0
176 ; 3820259.8832903625 ; 2.0114999176816288E8 ; 6.85286514409961E8 ; 3.370503481436728E10 ; 0.0
177 ; 3817890.6363410503 ; 2.0115416554071194E8 ; 6.891067742932514E8 ; 3.390618480613544E10 ; 0.0
178 ; 3813841.293120591 ; 2.01158323139352E8 ; 6.929246649295925E8 ; 3.410733897167615E10 ; 0.0
179 ; 3813580.4504996804 ; 2.011624644836532E8 ; 6.967385062227131E8 ; 3.4308497294815502E10 ; 0.0
180 ; 3804797.601023398 ; 2.0116658949352452E8 ; 7.005520866732128E8 ; 3.450965975929916E10 ; 0.0
181 ; 3800646.2253726176 ; 2.0117069808921438E8 ; 7.043568842742362E8 ; 3.471082634879268E10 ; 0.0
182 ; 3798144.8198396396 ; 2.0117479019131142E8 ; 7.081575304996089E8 ; 3.49119970468819E10 ; 0.0
183 ; 3793296.3618906913 ; 2.0117886572074515E8 ; 7.119556753194485E8 ; 3.511317183707321E10 ; 0.0
184 ; 3786294.16008843 ; 2.0118292459878668E8 ; 7.157489716813391E8 ; 3.531435070279396E10 ; 0.0
185 ; 3786678.232093052 ; 2.0118696674704963E8 ; 7.195352658414276E8 ; 3.5515533627392746E10 ; 0.0
186 ; 3781681.496922826 ; 2.011909920874908E8 ; 7.233219440735207E8 ; 3.571672059413979E10 ; 0.0
187 ; 3778060.4142651986 ; 2.01195000542411E8 ; 7.271036255704435E8 ; 3.591791158622729E10 ; 0.0
188 ; 3769933.561550803 ; 2.0119899203445587E8 ; 7.308816859847087E8 ; 3.61191065867697E10 ; 0.0
189 ; 3771809.897106187 ; 2.012029664866168E8 ; 7.346516195462595E8 ; 3.632030557880415E10 ; 0.0
190 ; 3761514.1188974157 ; 2.0120692382223162E8 ; 7.384234294433657E8 ; 3.652150854529077E10 ; 0.0
191 ; 3761457.5399973756 ; 2.0121086396498564E8 ; 7.421849435622631E8 ; 3.672271546911301E10 ; 0.0
192 ; 3754309.8988628713 ; 2.012147868389124E8 ; 7.459464011022605E8 ; 3.6923926333077995E10 ; 0.0
193 ; 3746927.7832737607 ; 2.0121869236839458E8 ; 7.497007110011233E8 ; 3.712514111991691E10 ; 0.0
194 ; 3745919.723363206 ; 2.0122258047816503E8 ; 7.534476387843971E8 ; 3.73263598122853E10 ; 0.0
195 ; 3742919.0689057526 ; 2.0122645109330747E8 ; 7.571935585077603E8 ; 3.7527582392763466E10 ; 0.0
196 ; 3736686.111463035 ; 2.0123030413925758E8 ; 7.60936477576666E8 ; 3.772880884385677E10 ; 0.0
197 ; 3731526.834379337 ; 2.0123413954180387E8 ; 7.646731636881291E8 ; 3.793003914799603E10 ; 0.0
198 ; 3729639.355913529 ; 2.012379572270886E8 ; 7.684046905225084E8 ; 3.8131273287537834E10 ; 0.0
199 ; 3725373.3160359883 ; 2.0124175712160876E8 ; 7.721343298784219E8 ; 3.833251124476492E10 ; 0.0
200 ; 3724087.284690809 ; 2.0124553915221706E8 ; 7.758597031944579E8 ; 3.8533753001886536E10 ; 0.0
