CSV File for the City 6 on Day 7
1 - Minute m 
2 - Power Consumed at minute m 
3 - Power Produced at minute m 
4 - Energy Consumed since the beginning of the day 
5 - Energy Produced since the beginning of the day 
6 - Energy Lost since the beginning of the day on lines starting from the city
 
0 ; 8676400.599711789 ; 1.0315321346300473E7 ; 0.0 ; 0.0 ; 0.0
1 ; 8680183.01546431 ; 1.0315321346300473E7 ; 8676400.599711789 ; 1.0315321346300473E7 ; 0.0
2 ; 8693213.539278856 ; 1.0315321346300473E7 ; 1.7356583615176097E7 ; 2.0630642692600947E7 ; 0.0
3 ; 8702163.198899752 ; 1.0315321346300473E7 ; 2.6049797154454954E7 ; 3.094596403890142E7 ; 0.0
4 ; 8714693.396397663 ; 1.0315321346300473E7 ; 3.475196035335471E7 ; 4.1261285385201894E7 ; 0.0
5 ; 8731809.48068658 ; 1.0315321346300473E7 ; 4.346665374975237E7 ; 5.157660673150237E7 ; 0.0
6 ; 8753783.739417018 ; 1.0315321346300473E7 ; 5.2198463230438955E7 ; 6.1891928077802844E7 ; 0.0
7 ; 8782503.035967095 ; 1.0315321346300473E7 ; 6.095224696985597E7 ; 7.220724942410332E7 ; 0.0
8 ; 8825023.673602173 ; 1.0315321346300473E7 ; 6.973475000582306E7 ; 8.252257077040379E7 ; 0.0
9 ; 8885494.425145991 ; 1.0315321346300473E7 ; 7.855977367942524E7 ; 9.283789211670426E7 ; 0.0
10 ; 8985103.007680036 ; 1.0315321346300473E7 ; 8.744526810457122E7 ; 1.0315321346300472E8 ; 0.0
11 ; 9141280.001617981 ; 1.0315321346300473E7 ; 9.643037111225125E7 ; 1.1346853480930519E8 ; 0.0
12 ; 9390401.520176034 ; 1.0315321346300473E7 ; 1.0557165111386923E8 ; 1.2378385615560566E8 ; 0.0
13 ; 9625747.167757053 ; 1.0315321346300473E7 ; 1.1496205263404527E8 ; 1.3409917750190613E8 ; 0.0
14 ; 9654918.284382481 ; 1.0315321346300473E7 ; 1.2458779980180232E8 ; 1.444144988482066E8 ; 0.0
15 ; 9660498.277179452 ; 1.0315321346300473E7 ; 1.342427180861848E8 ; 1.547298201945071E8 ; 0.0
16 ; 9675510.029563615 ; 1.0315321346300473E7 ; 1.4390321636336425E8 ; 1.6504514154080757E8 ; 0.0
17 ; 9687567.892017942 ; 1.0315321346300473E7 ; 1.5357872639292786E8 ; 1.7536046288710806E8 ; 0.0
18 ; 9699014.193609836 ; 1.0315321346300473E7 ; 1.632662942849458E8 ; 1.8567578423340854E8 ; 0.0
19 ; 9705117.22037948 ; 1.0315321346300473E7 ; 1.7296530847855562E8 ; 1.9599110557970902E8 ; 0.0
20 ; 9721695.530716766 ; 1.0315321346300473E7 ; 1.826704256989351E8 ; 2.063064269260095E8 ; 0.0
21 ; 9733298.41869818 ; 1.0315321346300473E7 ; 1.9239212122965187E8 ; 2.1662174827231E8 ; 0.0
22 ; 9744874.77572926 ; 1.0315321346300473E7 ; 2.0212541964835006E8 ; 2.2693706961861047E8 ; 0.0
23 ; 9755746.511670822 ; 1.0315321346300473E7 ; 2.1187029442407933E8 ; 2.3725239096491095E8 ; 0.0
24 ; 9766860.33050555 ; 1.0315321346300473E7 ; 2.2162604093575016E8 ; 2.4756771231121144E8 ; 0.0
25 ; 9777951.328164486 ; 1.0315321346300473E7 ; 2.313929012662557E8 ; 2.5788303365751192E8 ; 0.0
26 ; 9786893.037009032 ; 1.0315321346300473E7 ; 2.411708525944202E8 ; 2.681983550038124E8 ; 0.0
27 ; 9800952.473839168 ; 1.0315321346300473E7 ; 2.5095774563142923E8 ; 2.7851367635011286E8 ; 0.0
28 ; 9810849.649093784 ; 1.0315321346300473E7 ; 2.607586981052684E8 ; 2.8882899769641334E8 ; 0.0
29 ; 9824658.332761401 ; 1.0315321346300473E7 ; 2.7056954775436217E8 ; 2.991443190427138E8 ; 0.0
30 ; 9831604.248495528 ; 1.0315321346300473E7 ; 2.803942060871236E8 ; 3.094596403890143E8 ; 0.0
31 ; 9842502.145209832 ; 1.0315321346300473E7 ; 2.902258103356191E8 ; 3.197749617353148E8 ; 0.0
32 ; 9850829.547754047 ; 1.0315321346300473E7 ; 3.0006831248082894E8 ; 3.3009028308161527E8 ; 0.0
33 ; 9861801.054653889 ; 1.0315321346300473E7 ; 3.09919142028583E8 ; 3.4040560442791575E8 ; 0.0
34 ; 9874519.499630949 ; 1.0315321346300473E7 ; 3.197809430832369E8 ; 3.5072092577421623E8 ; 0.0
35 ; 9882764.783488976 ; 1.0315321346300473E7 ; 3.296554625828678E8 ; 3.610362471205167E8 ; 0.0
36 ; 9892765.850751758 ; 1.0315321346300473E7 ; 3.395382273663568E8 ; 3.713515684668172E8 ; 0.0
37 ; 9900131.341113636 ; 1.0315321346300473E7 ; 3.4943099321710855E8 ; 3.816668898131177E8 ; 0.0
38 ; 9907330.177110363 ; 1.0315321346300473E7 ; 3.593311245582222E8 ; 3.9198221115941817E8 ; 0.0
39 ; 9916672.36574564 ; 1.0315321346300473E7 ; 3.6923845473533255E8 ; 4.0229753250571865E8 ; 0.0
40 ; 9921557.110494034 ; 1.0315321346300473E7 ; 3.791551271010782E8 ; 4.1261285385201913E8 ; 0.0
41 ; 9932257.690250253 ; 1.0315321346300473E7 ; 3.8907668421157223E8 ; 4.229281751983196E8 ; 0.0
42 ; 9938166.624027008 ; 1.0315321346300473E7 ; 3.990089419018225E8 ; 4.332434965446201E8 ; 0.0
43 ; 9945056.30219802 ; 1.0315321346300473E7 ; 4.089471085258495E8 ; 4.435588178909206E8 ; 0.0
44 ; 9946541.759630071 ; 1.0315321346300473E7 ; 4.188921648280475E8 ; 4.5387413923722106E8 ; 0.0
45 ; 9956358.97095873 ; 1.0315321346300473E7 ; 4.288387065876776E8 ; 4.6418946058352154E8 ; 0.0
46 ; 9961756.303751359 ; 1.0315321346300473E7 ; 4.387950655586363E8 ; 4.74504781929822E8 ; 0.0
47 ; 9966692.572446825 ; 1.0315321346300473E7 ; 4.4875682186238766E8 ; 4.848201032761225E8 ; 0.0
48 ; 9971438.762201142 ; 1.0315321346300473E7 ; 4.587235144348345E8 ; 4.95135424622423E8 ; 0.0
49 ; 9975190.036945494 ; 1.0315321346300473E7 ; 4.686949531970356E8 ; 5.054507459687235E8 ; 0.0
50 ; 9976153.499319533 ; 1.0315321346300473E7 ; 4.7867014323398113E8 ; 5.1576606731502396E8 ; 0.0
51 ; 9978566.3978871 ; 1.0315321346300473E7 ; 4.886462967333007E8 ; 5.2608138866132444E8 ; 0.0
52 ; 9980780.078932576 ; 1.0315321346300473E7 ; 4.986248631311878E8 ; 5.363967100076249E8 ; 0.0
53 ; 9982971.843023514 ; 1.0315321346300473E7 ; 5.086056432101204E8 ; 5.467120313539253E8 ; 0.0
54 ; 9988682.238809895 ; 1.0315321346300473E7 ; 5.185886150531439E8 ; 5.570273527002258E8 ; 0.0
55 ; 9990595.687177714 ; 1.0315321346300473E7 ; 5.285772972919538E8 ; 5.673426740465263E8 ; 0.0
56 ; 9991934.019948294 ; 1.0315321346300473E7 ; 5.385678929791315E8 ; 5.776579953928268E8 ; 0.0
57 ; 9992970.140963065 ; 1.0315321346300473E7 ; 5.485598269990797E8 ; 5.879733167391273E8 ; 0.0
58 ; 9996286.714939997 ; 1.0315321346300473E7 ; 5.585527971400428E8 ; 5.982886380854278E8 ; 0.0
59 ; 1.0001096441134464E7 ; 1.0315321346300473E7 ; 5.685490838549827E8 ; 6.086039594317282E8 ; 0.0
60 ; 1.0002361014616922E7 ; 1.0315321346300473E7 ; 5.785501802961172E8 ; 6.189192807780287E8 ; 0.0
61 ; 1.0005182865385981E7 ; 1.0315321346300473E7 ; 5.885525413107342E8 ; 6.292346021243292E8 ; 0.0
62 ; 1.0002373159984512E7 ; 1.0315321346300473E7 ; 5.985577241761202E8 ; 6.395499234706297E8 ; 0.0
63 ; 1.000593509469404E7 ; 1.0315321346300473E7 ; 6.085600973361046E8 ; 6.498652448169302E8 ; 0.0
64 ; 1.000820157243543E7 ; 1.0315321346300473E7 ; 6.185660324307986E8 ; 6.601805661632307E8 ; 0.0
65 ; 1.0010134839407433E7 ; 1.0315321346300473E7 ; 6.28574234003234E8 ; 6.704958875095311E8 ; 0.0
66 ; 1.0008753607490577E7 ; 1.0315321346300473E7 ; 6.385843688426415E8 ; 6.808112088558316E8 ; 0.0
67 ; 1.0015580685191534E7 ; 1.0315321346300473E7 ; 6.48593122450132E8 ; 6.911265302021321E8 ; 0.0
68 ; 1.0014868423574727E7 ; 1.0315321346300473E7 ; 6.586087031353235E8 ; 7.014418515484326E8 ; 0.0
69 ; 1.0011854103110189E7 ; 1.0315321346300473E7 ; 6.686235715588982E8 ; 7.117571728947331E8 ; 0.0
70 ; 1.0015243127128359E7 ; 1.0315321346300473E7 ; 6.786354256620084E8 ; 7.220724942410336E8 ; 0.0
71 ; 1.0014359754544735E7 ; 1.0315321346300473E7 ; 6.886506687891368E8 ; 7.32387815587334E8 ; 0.0
72 ; 1.001730612210761E7 ; 1.0315321346300473E7 ; 6.986650285436815E8 ; 7.427031369336345E8 ; 0.0
73 ; 1.0020675922407677E7 ; 1.0315321346300473E7 ; 7.086823346657891E8 ; 7.53018458279935E8 ; 0.0
74 ; 1.0021144597936187E7 ; 1.0315321346300473E7 ; 7.187030105881968E8 ; 7.633337796262355E8 ; 0.0
75 ; 1.0021214768237822E7 ; 1.0315321346300473E7 ; 7.287241551861329E8 ; 7.73649100972536E8 ; 0.0
76 ; 1.0018809468635565E7 ; 1.0315321346300473E7 ; 7.387453699543707E8 ; 7.839644223188365E8 ; 0.0
77 ; 1.002213319821054E7 ; 1.0315321346300473E7 ; 7.487641794230063E8 ; 7.942797436651369E8 ; 0.0
78 ; 1.001849922515632E7 ; 1.0315321346300473E7 ; 7.587863126212169E8 ; 8.045950650114374E8 ; 0.0
79 ; 1.0015789248130208E7 ; 1.0315321346300473E7 ; 7.688048118463732E8 ; 8.149103863577379E8 ; 0.0
80 ; 1.0011877507099867E7 ; 1.0315321346300473E7 ; 7.788206010945034E8 ; 8.252257077040384E8 ; 0.0
81 ; 1.0008870185715698E7 ; 1.0315321346300473E7 ; 7.888324786016033E8 ; 8.355410290503389E8 ; 0.0
82 ; 1.0004441472261632E7 ; 1.0315321346300473E7 ; 7.98841348787319E8 ; 8.458563503966393E8 ; 0.0
83 ; 1.000163636737254E7 ; 1.0315321346300473E7 ; 8.088457902595806E8 ; 8.561716717429398E8 ; 0.0
84 ; 9999492.979025466 ; 1.0315321346300473E7 ; 8.188474266269531E8 ; 8.664869930892403E8 ; 0.0
85 ; 9998283.973924655 ; 1.0315321346300473E7 ; 8.288469196059786E8 ; 8.768023144355408E8 ; 0.0
86 ; 9995005.911797855 ; 1.0315321346300473E7 ; 8.388452035799032E8 ; 8.871176357818413E8 ; 0.0
87 ; 9990620.417384138 ; 1.0315321346300473E7 ; 8.488402094917011E8 ; 8.974329571281418E8 ; 0.0
88 ; 9985021.057096014 ; 1.0315321346300473E7 ; 8.588308299090853E8 ; 9.077482784744422E8 ; 0.0
89 ; 9984190.649527416 ; 1.0315321346300473E7 ; 8.688158509661813E8 ; 9.180635998207427E8 ; 0.0
90 ; 9978514.987201737 ; 1.0315321346300473E7 ; 8.788000416157087E8 ; 9.283789211670432E8 ; 0.0
91 ; 9975504.674706819 ; 1.0315321346300473E7 ; 8.887785566029104E8 ; 9.386942425133437E8 ; 0.0
92 ; 9973080.54932027 ; 1.0315321346300473E7 ; 8.987540612776172E8 ; 9.490095638596442E8 ; 0.0
93 ; 9966219.380711889 ; 1.0315321346300473E7 ; 9.087271418269374E8 ; 9.593248852059447E8 ; 0.0
94 ; 9959934.699999712 ; 1.0315321346300473E7 ; 9.186933612076494E8 ; 9.696402065522451E8 ; 0.0
95 ; 9960109.388040122 ; 1.0315321346300473E7 ; 9.28653295907649E8 ; 9.799555278985456E8 ; 0.0
96 ; 9956541.63535661 ; 1.0315321346300473E7 ; 9.386134052956891E8 ; 9.902708492448461E8 ; 0.0
97 ; 9948888.470979026 ; 1.0315321346300473E7 ; 9.485699469310458E8 ; 1.0005861705911466E9 ; 0.0
98 ; 9948372.578762805 ; 1.0315321346300473E7 ; 9.585188354020247E8 ; 1.0109014919374471E9 ; 0.0
99 ; 9936768.74171327 ; 1.0315321346300473E7 ; 9.684672079807875E8 ; 1.0212168132837476E9 ; 0.0
100 ; 9939076.68496418 ; 1.0315321346300473E7 ; 9.784039767225008E8 ; 1.031532134630048E9 ; 0.0
101 ; 9931398.335959993 ; 1.0315321346300473E7 ; 9.88343053407465E8 ; 1.0418474559763485E9 ; 0.0
102 ; 9926319.167921806 ; 1.0315321346300473E7 ; 9.98274451743425E8 ; 1.052162777322649E9 ; 0.0
103 ; 9917842.710483855 ; 1.0315321346300473E7 ; 1.0082007709113468E9 ; 1.0624780986689495E9 ; 0.0
104 ; 9917702.249523513 ; 1.0315321346300473E7 ; 1.0181186136218307E9 ; 1.07279342001525E9 ; 0.0
105 ; 9910954.007699715 ; 1.0315321346300473E7 ; 1.0280363158713542E9 ; 1.0831087413615503E9 ; 0.0
106 ; 9904907.303825974 ; 1.0315321346300473E7 ; 1.037947269879054E9 ; 1.0934240627078507E9 ; 0.0
107 ; 9898820.85555354 ; 1.0315321346300473E7 ; 1.0478521771828799E9 ; 1.103739384054151E9 ; 0.0
108 ; 9894474.366428224 ; 1.0315321346300473E7 ; 1.0577509980384334E9 ; 1.1140547054004514E9 ; 0.0
109 ; 9886040.361815438 ; 1.0315321346300473E7 ; 1.0676454724048617E9 ; 1.1243700267467518E9 ; 0.0
110 ; 9881170.288774973 ; 1.0315321346300473E7 ; 1.0775315127666771E9 ; 1.1346853480930521E9 ; 0.0
111 ; 9875026.538058484 ; 1.0315321346300473E7 ; 1.087412683055452E9 ; 1.1450006694393525E9 ; 0.0
112 ; 9872277.154100403 ; 1.0315321346300473E7 ; 1.0972877095935106E9 ; 1.1553159907856529E9 ; 0.0
113 ; 9863879.837919077 ; 1.0315321346300473E7 ; 1.107159986747611E9 ; 1.1656313121319532E9 ; 0.0
114 ; 9857332.080016362 ; 1.0315321346300473E7 ; 1.11702386658553E9 ; 1.1759466334782536E9 ; 0.0
115 ; 9855953.904915584 ; 1.0315321346300473E7 ; 1.1268811986655464E9 ; 1.186261954824554E9 ; 0.0
116 ; 9845616.048210613 ; 1.0315321346300473E7 ; 1.136737152570462E9 ; 1.1965772761708543E9 ; 0.0
117 ; 9838346.4538701 ; 1.0315321346300473E7 ; 1.1465827686186726E9 ; 1.2068925975171547E9 ; 0.0
118 ; 9835185.154754637 ; 1.0315321346300473E7 ; 1.1564211150725427E9 ; 1.217207918863455E9 ; 0.0
119 ; 9824475.711740596 ; 1.0315321346300473E7 ; 1.1662563002272973E9 ; 1.2275232402097554E9 ; 0.0
120 ; 9819741.45594801 ; 1.0315321346300473E7 ; 1.1760807759390378E9 ; 1.2378385615560558E9 ; 0.0
121 ; 9812807.651025092 ; 1.0315321346300473E7 ; 1.185900517394986E9 ; 1.2481538829023561E9 ; 0.0
122 ; 9806671.11442911 ; 1.0315321346300473E7 ; 1.195713325046011E9 ; 1.2584692042486565E9 ; 0.0
123 ; 9799279.238625454 ; 1.0315321346300473E7 ; 1.20551999616044E9 ; 1.2687845255949569E9 ; 0.0
124 ; 9793296.273517203 ; 1.0315321346300473E7 ; 1.2153192753990655E9 ; 1.2790998469412572E9 ; 0.0
125 ; 9783164.062003747 ; 1.0315321346300473E7 ; 1.2251125716725826E9 ; 1.2894151682875576E9 ; 0.0
126 ; 9777466.95164923 ; 1.0315321346300473E7 ; 1.2348957357345865E9 ; 1.299730489633858E9 ; 0.0
127 ; 9770018.823692 ; 1.0315321346300473E7 ; 1.2446732026862357E9 ; 1.3100458109801583E9 ; 0.0
128 ; 9764221.41300105 ; 1.0315321346300473E7 ; 1.2544432215099277E9 ; 1.3203611323264587E9 ; 0.0
129 ; 9753591.754339082 ; 1.0315321346300473E7 ; 1.2642074429229288E9 ; 1.330676453672759E9 ; 0.0
130 ; 9743048.38420004 ; 1.0315321346300473E7 ; 1.2739610346772678E9 ; 1.3409917750190594E9 ; 0.0
131 ; 9731930.64747052 ; 1.0315321346300473E7 ; 1.283704083061468E9 ; 1.3513070963653598E9 ; 0.0
132 ; 9724478.608206457 ; 1.0315321346300473E7 ; 1.2934360137089384E9 ; 1.3616224177116601E9 ; 0.0
133 ; 9714107.308161473 ; 1.0315321346300473E7 ; 1.3031604923171449E9 ; 1.3719377390579605E9 ; 0.0
134 ; 9704224.07042927 ; 1.0315321346300473E7 ; 1.3128745996253064E9 ; 1.3822530604042609E9 ; 0.0
135 ; 9694289.213433176 ; 1.0315321346300473E7 ; 1.3225788236957357E9 ; 1.3925683817505612E9 ; 0.0
136 ; 9676986.412265826 ; 1.0315321346300473E7 ; 1.332273112909169E9 ; 1.4028837030968616E9 ; 0.0
137 ; 9668455.499725128 ; 1.0315321346300473E7 ; 1.3419500993214347E9 ; 1.413199024443162E9 ; 0.0
138 ; 9658502.14865956 ; 1.0315321346300473E7 ; 1.3516185548211598E9 ; 1.4235143457894623E9 ; 0.0
139 ; 9646559.742409764 ; 1.0315321346300473E7 ; 1.3612770569698193E9 ; 1.4338296671357627E9 ; 0.0
140 ; 9634848.665449183 ; 1.0315321346300473E7 ; 1.370923616712229E9 ; 1.444144988482063E9 ; 0.0
141 ; 9623298.25002374 ; 1.0315321346300473E7 ; 1.3805584653776782E9 ; 1.4544603098283634E9 ; 0.0
142 ; 9612627.391545517 ; 1.0315321346300473E7 ; 1.390181763627702E9 ; 1.4647756311746638E9 ; 0.0
143 ; 9600674.448217196 ; 1.0315321346300473E7 ; 1.3997943910192475E9 ; 1.4750909525209641E9 ; 0.0
144 ; 9586401.788912911 ; 1.0315321346300473E7 ; 1.4093950654674647E9 ; 1.4854062738672645E9 ; 0.0
145 ; 9578074.065944072 ; 1.0315321346300473E7 ; 1.4189814672563777E9 ; 1.4957215952135649E9 ; 0.0
146 ; 9571584.848053759 ; 1.0315321346300473E7 ; 1.4285595413223217E9 ; 1.5060369165598652E9 ; 0.0
147 ; 9564587.290947223 ; 1.0315321346300473E7 ; 1.4381311261703753E9 ; 1.5163522379061656E9 ; 0.0
148 ; 9556135.47305545 ; 1.0315321346300473E7 ; 1.4476957134613225E9 ; 1.526667559252466E9 ; 0.0
149 ; 9547378.312522199 ; 1.0315321346300473E7 ; 1.457251848934378E9 ; 1.5369828805987663E9 ; 0.0
150 ; 9537627.65356597 ; 1.0315321346300473E7 ; 1.4667992272469E9 ; 1.5472982019450667E9 ; 0.0
151 ; 9530932.589702604 ; 1.0315321346300473E7 ; 1.476336854900466E9 ; 1.557613523291367E9 ; 0.0
152 ; 9521224.880464884 ; 1.0315321346300473E7 ; 1.4858677874901686E9 ; 1.5679288446376674E9 ; 0.0
153 ; 9515241.233593699 ; 1.0315321346300473E7 ; 1.4953890123706334E9 ; 1.5782441659839678E9 ; 0.0
154 ; 9507416.668234067 ; 1.0315321346300473E7 ; 1.504904253604227E9 ; 1.5885594873302681E9 ; 0.0
155 ; 9497529.147838065 ; 1.0315321346300473E7 ; 1.5144116702724612E9 ; 1.5988748086765685E9 ; 0.0
156 ; 9485558.427522369 ; 1.0315321346300473E7 ; 1.5239091994202993E9 ; 1.6091901300228689E9 ; 0.0
157 ; 9477024.205247499 ; 1.0315321346300473E7 ; 1.5333947578478217E9 ; 1.6195054513691692E9 ; 0.0
158 ; 9472788.710816426 ; 1.0315321346300473E7 ; 1.542871782053069E9 ; 1.6298207727154696E9 ; 0.0
159 ; 9463534.5981549 ; 1.0315321346300473E7 ; 1.5523445707638855E9 ; 1.64013609406177E9 ; 0.0
160 ; 9454785.40470885 ; 1.0315321346300473E7 ; 1.5618081053620403E9 ; 1.6504514154080703E9 ; 0.0
161 ; 9446244.650044914 ; 1.0315321346300473E7 ; 1.5712628907667491E9 ; 1.6607667367543707E9 ; 0.0
162 ; 9438050.809883468 ; 1.0315321346300473E7 ; 1.580709135416794E9 ; 1.671082058100671E9 ; 0.0
163 ; 9428646.500557667 ; 1.0315321346300473E7 ; 1.5901471862266774E9 ; 1.6813973794469714E9 ; 0.0
164 ; 9420454.377431342 ; 1.0315321346300473E7 ; 1.599575832727235E9 ; 1.6917127007932718E9 ; 0.0
165 ; 9409459.832253298 ; 1.0315321346300473E7 ; 1.6089962871046665E9 ; 1.7020280221395721E9 ; 0.0
166 ; 9402580.28457718 ; 1.0315321346300473E7 ; 1.6184057469369197E9 ; 1.7123433434858725E9 ; 0.0
167 ; 9395890.717581252 ; 1.0315321346300473E7 ; 1.6278083272214968E9 ; 1.7226586648321729E9 ; 0.0
168 ; 9384208.384896418 ; 1.0315321346300473E7 ; 1.637204217939078E9 ; 1.7329739861784732E9 ; 0.0
169 ; 9377981.867863957 ; 1.0315321346300473E7 ; 1.6465884263239746E9 ; 1.7432893075247736E9 ; 0.0
170 ; 9367756.710803393 ; 1.0315321346300473E7 ; 1.6559664081918385E9 ; 1.753604628871074E9 ; 0.0
171 ; 9358571.54007653 ; 1.0315321346300473E7 ; 1.665334164902642E9 ; 1.7639199502173743E9 ; 0.0
172 ; 9347751.705068197 ; 1.0315321346300473E7 ; 1.6746927364427185E9 ; 1.7742352715636747E9 ; 0.0
173 ; 9339254.142372252 ; 1.0315321346300473E7 ; 1.6840404881477866E9 ; 1.784550592909975E9 ; 0.0
174 ; 9337531.868279379 ; 1.0315321346300473E7 ; 1.693379742290159E9 ; 1.7948659142562754E9 ; 0.0
175 ; 9329392.486082606 ; 1.0315321346300473E7 ; 1.7027172741584384E9 ; 1.8051812356025758E9 ; 0.0
176 ; 9322728.524748823 ; 1.0315321346300473E7 ; 1.712046666644521E9 ; 1.8154965569488761E9 ; 0.0
177 ; 9319291.053340092 ; 1.0315321346300473E7 ; 1.7213693951692698E9 ; 1.8258118782951765E9 ; 0.0
178 ; 9313505.61911408 ; 1.0315321346300473E7 ; 1.73068868622261E9 ; 1.8361271996414769E9 ; 0.0
179 ; 9309343.97445352 ; 1.0315321346300473E7 ; 1.7400021918417242E9 ; 1.8464425209877772E9 ; 0.0
180 ; 9303338.361252287 ; 1.0315321346300473E7 ; 1.7493115358161776E9 ; 1.8567578423340776E9 ; 0.0
181 ; 9295634.95004706 ; 1.0315321346300473E7 ; 1.75861487417743E9 ; 1.867073163680378E9 ; 0.0
182 ; 9291032.29586519 ; 1.0315321346300473E7 ; 1.767910509127477E9 ; 1.8773884850266783E9 ; 0.0
183 ; 9287576.238317024 ; 1.0315321346300473E7 ; 1.7772015414233422E9 ; 1.8877038063729787E9 ; 0.0
184 ; 9281094.1350894 ; 1.0315321346300473E7 ; 1.7864891176616592E9 ; 1.898019127719279E9 ; 0.0
185 ; 9272415.09638435 ; 1.0315321346300473E7 ; 1.7957702117967486E9 ; 1.9083344490655794E9 ; 0.0
186 ; 9266489.535218125 ; 1.0315321346300473E7 ; 1.805042626893133E9 ; 1.9186497704118798E9 ; 0.0
187 ; 9262781.331758099 ; 1.0315321346300473E7 ; 1.8143091164283512E9 ; 1.9289650917581801E9 ; 0.0
188 ; 9258389.656093506 ; 1.0315321346300473E7 ; 1.8235718977601092E9 ; 1.9392804131044805E9 ; 0.0
189 ; 9248459.260055138 ; 1.0315321346300473E7 ; 1.8328302874162028E9 ; 1.9495957344507809E9 ; 0.0
190 ; 9246785.493814072 ; 1.0315321346300473E7 ; 1.8420787466762578E9 ; 1.9599110557970812E9 ; 0.0
191 ; 9243567.460042493 ; 1.0315321346300473E7 ; 1.8513255321700718E9 ; 1.9702263771433816E9 ; 0.0
192 ; 9234438.660618126 ; 1.0315321346300473E7 ; 1.8605690996301143E9 ; 1.980541698489682E9 ; 0.0
193 ; 9229585.21209125 ; 1.0315321346300473E7 ; 1.8698035382907324E9 ; 1.9908570198359823E9 ; 0.0
194 ; 9225518.143116813 ; 1.0315321346300473E7 ; 1.8790331235028236E9 ; 2.0011723411822827E9 ; 0.0
195 ; 9220892.70632182 ; 1.0315321346300473E7 ; 1.8882586416459403E9 ; 2.011487662528583E9 ; 0.0
196 ; 9212001.001232337 ; 1.0315321346300473E7 ; 1.897479534352262E9 ; 2.0218029838748834E9 ; 0.0
197 ; 9207489.425240606 ; 1.0315321346300473E7 ; 1.9066915353534944E9 ; 2.0321183052211838E9 ; 0.0
198 ; 9206683.841108505 ; 1.0315321346300473E7 ; 1.915899024778735E9 ; 2.0424336265674841E9 ; 0.0
199 ; 9197558.812136006 ; 1.0315321346300473E7 ; 1.9251057086198435E9 ; 2.0527489479137845E9 ; 0.0
200 ; 9192220.31871015 ; 1.0315321346300473E7 ; 1.9343032674319794E9 ; 2.0630642692600849E9 ; 0.0
201 ; 9185492.318508286 ; 1.0315321346300473E7 ; 1.9434954877506895E9 ; 2.0733795906063852E9 ; 0.0
