CSV File for the City 6 on Day 186
1 - Minute m 
2 - Power Consumed at minute m 
3 - Power Produced at minute m 
4 - Energy Consumed since the beginning of the day 
5 - Energy Produced since the beginning of the day 
6 - Energy Lost since the beginning of the day on lines starting from the city
 
0 ; 1984272.5074561725 ; 1.059206168462052E8 ; 0.0 ; 0.0 ; 0.0
1 ; 1995427.0572603752 ; 1.0607133867812341E8 ; 1984272.5074561725 ; 1.059206168462052E8 ; 0.0
2 ; 2004159.3933422328 ; 1.065310660100092E8 ; 3979699.5647165477 ; 2.1199195552432862E8 ; 0.0
3 ; 2019025.5677376408 ; 1.0729980379736537E8 ; 5983858.95805878 ; 3.185230215343378E8 ; 0.0
4 ; 2037124.4015939648 ; 1.083775565021745E8 ; 8002884.525796421 ; 4.258228253317032E8 ; 0.0
5 ; 2055803.875591403 ; 1.0976432806119579E8 ; 1.0040008927390385E7 ; 5.342003818338777E8 ; 0.0
6 ; 2079513.7312665507 ; 1.114601218572928E8 ; 1.2095812802981788E7 ; 6.439647098950734E8 ; 0.0
7 ; 2121813.6037874743 ; 1.134649406942671E8 ; 1.4175326534248339E7 ; 7.554248317523662E8 ; 0.0
8 ; 2171048.785474725 ; 1.1577878677562767E8 ; 1.6297140138035813E7 ; 8.688897724466333E8 ; 0.0
9 ; 2254429.7973646084 ; 1.1840166168766797E8 ; 1.8468188923510537E7 ; 9.84668559222261E8 ; 0.0
10 ; 2378728.262067219 ; 1.2133356638715303E8 ; 2.0722618720875144E7 ; 1.1030702209099288E9 ; 0.0
11 ; 2577246.2090755193 ; 1.2457450119384083E8 ; 2.310134698294236E7 ; 1.224403787297082E9 ; 0.0
12 ; 2888294.497977261 ; 1.2812446578797337E8 ; 2.567859319201788E7 ; 1.3489782884909227E9 ; 0.0
13 ; 3198903.7287243805 ; 1.319834592127856E8 ; 2.856688768999514E7 ; 1.477102754278896E9 ; 0.0
14 ; 3236089.5373479216 ; 1.3615147988198417E8 ; 3.176579141871952E7 ; 1.6090862134916816E9 ; 0.0
15 ; 3249299.459180866 ; 1.4062852559205997E8 ; 3.500188095606744E7 ; 1.7452376933736658E9 ; 0.0
16 ; 3264782.083513375 ; 1.4541459353921154E8 ; 3.825118041524831E7 ; 1.885866218965726E9 ; 0.0
17 ; 3275587.890112293 ; 1.5050968034057525E8 ; 4.151596249876168E7 ; 2.0312808125049374E9 ; 0.0
18 ; 3291954.9565269407 ; 1.5591378205939192E8 ; 4.479155038887398E7 ; 2.181790492845513E9 ; 0.0
19 ; 3302716.78006313 ; 1.6162689423367897E8 ; 4.808350534540092E7 ; 2.337704274904905E9 ; 0.0
20 ; 3323918.3824088373 ; 1.6764901190793356E8 ; 5.138622212546405E7 ; 2.4993311691385837E9 ; 0.0
21 ; 3335510.3584231474 ; 1.739801296673598E8 ; 5.471014050787289E7 ; 2.6669801810465174E9 ; 0.0
22 ; 3354404.5675595826 ; 1.8062024167409635E8 ; 5.804565086629604E7 ; 2.840960310713877E9 ; 0.0
23 ; 3364465.9366337443 ; 1.8756934170491636E8 ; 6.140005543385562E7 ; 3.021580552387974E9 ; 0.0
24 ; 3378200.8927420443 ; 1.9482742318987894E8 ; 6.476452137048937E7 ; 3.2091498940928903E9 ; 0.0
25 ; 3396613.476619752 ; 2.0108252014961684E8 ; 6.814272226323141E7 ; 3.403977317282769E9 ; 0.0
26 ; 3412729.3462230903 ; 2.0108817327131712E8 ; 7.153933573985116E7 ; 3.605059837432386E9 ; 0.0
27 ; 3428237.7431219146 ; 2.010941444722575E8 ; 7.495206508607425E7 ; 3.806148010703703E9 ; 0.0
28 ; 3441601.9770529945 ; 2.0110042618436936E8 ; 7.838030282919616E7 ; 4.0072421551759605E9 ; 0.0
29 ; 3453870.491651287 ; 2.011070106840892E8 ; 8.182190480624916E7 ; 4.20834258136033E9 ; 0.0
30 ; 3468040.6093722885 ; 2.0111389012748772E8 ; 8.527577529790044E7 ; 4.409449592044419E9 ; 0.0
31 ; 3483622.774597002 ; 2.0112105658367965E8 ; 8.874381590727273E7 ; 4.610563482171907E9 ; 0.0
32 ; 3497865.9318269007 ; 2.011285020663231E8 ; 9.222743868186973E7 ; 4.811684538755587E9 ; 0.0
33 ; 3508154.1698088916 ; 2.0113621856306362E8 ; 9.572530461369663E7 ; 5.01281304082191E9 ; 0.0
34 ; 3523938.881170645 ; 2.0114419806282476E8 ; 9.923345878350553E7 ; 5.213949259384974E9 ; 0.0
35 ; 3536478.6984805637 ; 2.011524325808871E8 ; 1.0275739766467617E8 ; 5.415093457447799E9 ; 0.0
36 ; 3550457.579603775 ; 2.0116091418173575E8 ; 1.0629387636315674E8 ; 5.616245890028686E9 ; 0.0
37 ; 3559942.7491463115 ; 2.0116963499968803E8 ; 1.0984433394276051E8 ; 5.817406804210422E9 ; 0.0
38 ; 3571064.8824572735 ; 2.011785872573425E8 ; 1.1340427669190682E8 ; 6.01857643921011E9 ; 0.0
39 ; 3584953.2906897757 ; 2.0118776328191212E8 ; 1.169753415743641E8 ; 6.219755026467452E9 ; 0.0
40 ; 3597882.355118512 ; 2.0119715551952547E8 ; 1.2056029486505388E8 ; 6.420942789749364E9 ; 0.0
41 ; 3604398.529373568 ; 2.012067565475931E8 ; 1.2415817722017239E8 ; 6.622139945268889E9 ; 0.0
42 ; 3617314.55775009 ; 2.0121655908534858E8 ; 1.2776257574954596E8 ; 6.823346701816483E9 ; 0.0
43 ; 3629204.4317289595 ; 2.0122655600268084E8 ; 1.3137989030729605E8 ; 7.024563260901831E9 ; 0.0
44 ; 3632851.2832487845 ; 2.0123674032737938E8 ; 1.3500909473902503E8 ; 7.225789816904511E9 ; 0.0
45 ; 3640661.8424700005 ; 2.012471052509158E8 ; 1.386419460222738E8 ; 7.427026557231891E9 ; 0.0
46 ; 3650145.6079518283 ; 2.012576441328856E8 ; 1.422826078647438E8 ; 7.628273662482806E9 ; 0.0
47 ; 3653896.4215828464 ; 2.0126835050423145E8 ; 1.4593275347269562E8 ; 7.829531306615692E9 ; 0.0
48 ; 3662247.5943625076 ; 2.012792180693661E8 ; 1.4958664989427847E8 ; 8.030799657119924E9 ; 0.0
49 ; 3668816.10319198 ; 2.0129024070730907E8 ; 1.5324889748864096E8 ; 8.23207887518929E9 ; 0.0
50 ; 3672630.373711115 ; 2.0130141247194427E8 ; 1.5691771359183294E8 ; 8.433369115896599E9 ; 0.0
51 ; 3681567.4398705456 ; 2.013127275915017E8 ; 1.6059034396554404E8 ; 8.634670528368544E9 ; 0.0
52 ; 3686632.988877072 ; 2.0132418046735778E8 ; 1.6427191140541458E8 ; 8.835983255960045E9 ; 0.0
53 ; 3690446.118041315 ; 2.0133576567224374E8 ; 1.6795854439429164E8 ; 9.037307436427402E9 ; 0.0
54 ; 3693088.983830885 ; 2.0134747794794366E8 ; 1.7164899051233295E8 ; 9.238643202099646E9 ; 0.0
55 ; 3698537.099551962 ; 2.01359312202558E8 ; 1.7534207949616385E8 ; 9.439990680047588E9 ; 0.0
56 ; 3704869.7917418163 ; 2.0137126350740057E8 ; 1.7904061659571582E8 ; 9.641349992250147E9 ; 0.0
57 ; 3709634.767719007 ; 2.0138332709359163E8 ; 1.8274548638745764E8 ; 9.842721255757547E9 ; 0.0
58 ; 3713029.2668991424 ; 2.013954983484034E8 ; 1.8645512115517664E8 ; 1.004410458285114E10 ; 0.0
59 ; 3723089.0413883165 ; 2.014077728114082E8 ; 1.9016815042207578E8 ; 1.0245500081199543E10 ; 0.0
60 ; 3729576.25828358 ; 2.014201461704745E8 ; 1.9389123946346408E8 ; 1.0446907854010952E10 ; 0.0
61 ; 3729943.151591154 ; 2.014326142576505E8 ; 1.9762081572174767E8 ; 1.0648328000181427E10 ; 0.0
62 ; 3731036.4931460987 ; 2.0144517304497105E8 ; 2.0135075887333882E8 ; 1.0849760614439077E10 ; 0.0
63 ; 3736823.012190631 ; 2.0145781864021853E8 ; 2.050817953664849E8 ; 1.1051205787484049E10 ; 0.0
64 ; 3743370.797825955 ; 2.01470547282665E8 ; 2.0881861837867555E8 ; 1.1252663606124268E10 ; 0.0
65 ; 3744896.777499015 ; 2.0148335533881906E8 ; 2.125619891765015E8 ; 1.1454134153406933E10 ; 0.0
66 ; 3752493.9518541587 ; 2.0149623929819757E8 ; 2.1630688595400053E8 ; 1.1655617508745752E10 ; 0.0
67 ; 3752627.5556208612 ; 2.0150919576913965E8 ; 2.200593799058547E8 ; 1.185711374804395E10 ; 0.0
68 ; 3758831.480099645 ; 2.0152222147467747E8 ; 2.2381200746147555E8 ; 1.205862294381309E10 ; 0.0
69 ; 3759903.534912433 ; 2.0153531324847642E8 ; 2.275708389415752E8 ; 1.2260145165287767E10 ; 0.0
70 ; 3762777.604453031 ; 2.0154846803085434E8 ; 2.3133074247648764E8 ; 1.2461680478536243E10 ; 0.0
71 ; 3769068.057600395 ; 2.015616828648885E8 ; 2.3509352008094066E8 ; 1.2663228946567099E10 ; 0.0
72 ; 3772705.1603947137 ; 2.015749548926169E8 ; 2.3886258813854107E8 ; 1.2864790629431988E10 ; 0.0
73 ; 3774005.193982091 ; 2.0158828135133895E8 ; 2.426352932989358E8 ; 1.3066365584324604E10 ; 0.0
74 ; 3779089.119529944 ; 2.016016595700196E8 ; 2.464092984929179E8 ; 1.3267953865675943E10 ; 0.0
75 ; 3776992.85187869 ; 2.016150869657994E8 ; 2.5018838761244783E8 ; 1.3469555525245962E10 ; 0.0
76 ; 3781908.1002284307 ; 2.0162856104061267E8 ; 2.5396538046432653E8 ; 1.3671170612211761E10 ; 0.0
77 ; 3783904.314847617 ; 2.016420793779146E8 ; 2.5774728856455496E8 ; 1.3872799173252375E10 ; 0.0
78 ; 3786462.0372276315 ; 2.016556396395174E8 ; 2.6153119287940258E8 ; 1.407444125263029E10 ; 0.0
79 ; 3783268.0018096394 ; 2.0166923956253517E8 ; 2.653176549166302E8 ; 1.4276096892269806E10 ; 0.0
80 ; 3785956.577630817 ; 2.0168287695643693E8 ; 2.6910092291843987E8 ; 1.447776613183234E10 ; 0.0
81 ; 3778968.9654847495 ; 2.0169654970020586E8 ; 2.728868794960707E8 ; 1.4679449008788776E10 ; 0.0
82 ; 3782005.027799403 ; 2.017102557396036E8 ; 2.766658484615554E8 ; 1.4881145558488983E10 ; 0.0
83 ; 3780284.224489761 ; 2.0172399308453736E8 ; 2.8044785348935485E8 ; 1.5082855814228586E10 ; 0.0
84 ; 3780935.2746978896 ; 2.0173775980652747E8 ; 2.842281377138446E8 ; 1.5284579807313124E10 ; 0.0
85 ; 3777330.6961067957 ; 2.0175155403627324E8 ; 2.880090729885425E8 ; 1.5486317567119652E10 ; 0.0
86 ; 3774052.833847077 ; 2.017653739613143E8 ; 2.917864036846493E8 ; 1.5688069121155926E10 ; 0.0
87 ; 3773068.9276064727 ; 2.0177921782378474E8 ; 2.955604565184964E8 ; 1.588983449511724E10 ; 0.0
88 ; 3772026.4332031873 ; 2.0179308391825715E8 ; 2.9933352544610286E8 ; 1.6091613712941025E10 ; 0.0
89 ; 3773915.428224291 ; 2.018069705896742E8 ; 3.03105551879306E8 ; 1.6293406796859282E10 ; 0.0
90 ; 3771881.5130099445 ; 2.0182087623136398E8 ; 3.068794673075303E8 ; 1.6495213767448956E10 ; 0.0
91 ; 3769615.494426236 ; 2.0183479928313726E8 ; 3.1065134882054025E8 ; 1.6697034643680319E10 ; 0.0
92 ; 3766451.874613341 ; 2.0184873822946292E8 ; 3.144209643149665E8 ; 1.6898869442963455E10 ; 0.0
93 ; 3765455.2822107486 ; 2.0186269159771913E8 ; 3.1818741618957984E8 ; 1.7100718181192919E10 ; 0.0
94 ; 3763608.034973876 ; 2.018766579565176E8 ; 3.219528714717906E8 ; 1.7302580872790638E10 ; 0.0
95 ; 3761180.7685760986 ; 2.0189063591409746E8 ; 3.257164795067645E8 ; 1.7504457530747154E10 ; 0.0
96 ; 3753371.9966888563 ; 2.019046241167869E8 ; 3.2947766027534056E8 ; 1.770634816666125E10 ; 0.0
97 ; 3756734.88945708 ; 2.0191862124752936E8 ; 3.332310322720294E8 ; 1.7908252790778038E10 ; 0.0
98 ; 3753818.1284928992 ; 2.0193262602447176E8 ; 3.369877671614865E8 ; 1.8110171412025566E10 ; 0.0
99 ; 3748155.1654382083 ; 2.0194663719961238E8 ; 3.407415852899794E8 ; 1.8312104038050037E10 ; 0.0
100 ; 3748528.7768443245 ; 2.0196065355750588E8 ; 3.4448974045541763E8 ; 1.851405067524965E10 ; 0.0
101 ; 3743826.4113083147 ; 2.0197467391402316E8 ; 3.4823826923226196E8 ; 1.8716011328807156E10 ; 0.0
102 ; 3743455.5210267752 ; 2.0198869711516345E8 ; 3.5198209564357024E8 ; 1.891798600272118E10 ; 0.0
103 ; 3743558.9700172553 ; 2.02002722035917E8 ; 3.5572555116459703E8 ; 1.911997469983634E10 ; 0.0
104 ; 3733289.6404555463 ; 2.0201674757917568E8 ; 3.594691101346143E8 ; 1.9321977421872257E10 ; 0.0
105 ; 3731700.321990808 ; 2.020307726746897E8 ; 3.6320239977506983E8 ; 1.952399416945143E10 ; 0.0
106 ; 3731541.2278948394 ; 2.0204479627806842E8 ; 3.669341000970606E8 ; 1.972602494212612E10 ; 0.0
107 ; 3726282.8788987827 ; 2.0205881736982337E8 ; 3.7066564132495546E8 ; 1.992806973840419E10 ; 0.0
108 ; 3721684.3560734694 ; 2.0207283495445165E8 ; 3.7439192420385426E8 ; 2.0130128555774014E10 ; 0.0
109 ; 3724139.43246728 ; 2.0208684805955783E8 ; 3.7811360855992776E8 ; 2.0332201390728466E10 ; 0.0
110 ; 3716244.033407475 ; 2.021008557350129E8 ; 3.8183774799239504E8 ; 2.0534288238788025E10 ; 0.0
111 ; 3711996.718580279 ; 2.0211485705214837E8 ; 3.855539920258025E8 ; 2.0736389094523037E10 ; 0.0
112 ; 3706454.1849159757 ; 2.021288511029844E8 ; 3.892659887443828E8 ; 2.0938503951575184E10 ; 0.0
113 ; 3704598.206651436 ; 2.0214283699948975E8 ; 3.9297244292929876E8 ; 2.114063280267817E10 ; 0.0
114 ; 3698348.2054622197 ; 2.021568138728731E8 ; 3.966770411359502E8 ; 2.1342775639677658E10 ; 0.0
115 ; 3698803.802693827 ; 2.021707808729035E8 ; 4.003753893414124E8 ; 2.154493245355053E10 ; 0.0
116 ; 3690511.4893687223 ; 2.021847371672591E8 ; 4.0407419314410627E8 ; 2.174710323442343E10 ; 0.0
117 ; 3690318.1518420507 ; 2.0219868194090304E8 ; 4.07764704633475E8 ; 2.194928797159069E10 ; 0.0
118 ; 3684811.7843230297 ; 2.0221261439548483E8 ; 4.1145502278531706E8 ; 2.2151486653531593E10 ; 0.0
119 ; 3680616.568381362 ; 2.0222653374876648E8 ; 4.151398345696401E8 ; 2.235369926792708E10 ; 0.0
120 ; 3673811.88048829 ; 2.022404392340723E8 ; 4.1882045113802147E8 ; 2.2555925801675846E10 ; 0.0
121 ; 3667691.9550659633 ; 2.0225433009976107E8 ; 4.2249426301850975E8 ; 2.275816624090992E10 ; 0.0
122 ; 3666424.4963277527 ; 2.0226820560871977E8 ; 4.261619549735757E8 ; 2.296042057100968E10 ; 0.0
123 ; 3663293.9819175587 ; 2.0228206503787795E8 ; 4.2982837946990347E8 ; 2.31626887766184E10 ; 0.0
124 ; 3655906.7754956405 ; 2.0229590767774186E8 ; 4.33491673451821E8 ; 2.3364970841656277E10 ; 0.0
125 ; 3651995.078997964 ; 2.023097328319471E8 ; 4.371475802273167E8 ; 2.356726674933402E10 ; 0.0
126 ; 3649506.4551620553 ; 2.0232353981682968E8 ; 4.4079957530631465E8 ; 2.3769576482165966E10 ; 0.0
127 ; 3644446.6927880696 ; 2.023373279610141E8 ; 4.444490817614767E8 ; 2.3971900021982796E10 ; 0.0
128 ; 3638476.9234355483 ; 2.0235109660501784E8 ; 4.4809352845426476E8 ; 2.417423734994381E10 ; 0.0
129 ; 3634336.7332800617 ; 2.0236484510087177E8 ; 4.517320053777003E8 ; 2.437658844654883E10 ; 0.0
130 ; 3625070.193319733 ; 2.0237857281175554E8 ; 4.553663421109804E8 ; 2.45789532916497E10 ; 0.0
131 ; 3617793.6451028283 ; 2.0239227911164743E8 ; 4.589914123043001E8 ; 2.4781331864461456E10 ; 0.0
132 ; 3604244.3482061145 ; 2.0240596338498804E8 ; 4.626092059494029E8 ; 2.4983724143573105E10 ; 0.0
133 ; 3597340.490814315 ; 2.0241962502635714E8 ; 4.6621345029760903E8 ; 2.518613010695809E10 ; 0.0
134 ; 3585831.3492891695 ; 2.0243326344016328E8 ; 4.6981079078842336E8 ; 2.5388549731984447E10 ; 0.0
135 ; 3578611.520398706 ; 2.0244687804034528E8 ; 4.7339662213771254E8 ; 2.559098299542461E10 ; 0.0
136 ; 3567662.5117583177 ; 2.0246046825008565E8 ; 4.769752336581112E8 ; 2.5793429873464954E10 ; 0.0
137 ; 3560536.190934209 ; 2.0247403350153485E8 ; 4.8054289616986954E8 ; 2.599589034171504E10 ; 0.0
138 ; 3547299.525191065 ; 2.0248757323554626E8 ; 4.841034323608037E8 ; 2.619836437521657E10 ; 0.0
139 ; 3541674.707634151 ; 2.0250108690142146E8 ; 4.876507318859948E8 ; 2.6400851948452118E10 ; 0.0
140 ; 3527929.77616384 ; 2.0251457395666504E8 ; 4.9119240659362894E8 ; 2.660335303535354E10 ; 0.0
141 ; 3518846.297307818 ; 2.0252803386674905E8 ; 4.9472033636979276E8 ; 2.6805867609310204E10 ; 0.0
142 ; 3508823.428114863 ; 2.0254146610488608E8 ; 4.9823918266710055E8 ; 2.7008395643176952E10 ; 0.0
143 ; 3498694.479143184 ; 2.025548701518112E8 ; 5.0174800609521544E8 ; 2.7210937109281837E10 ; 0.0
144 ; 3486777.4136920827 ; 2.0256824549557215E8 ; 5.0524670057435864E8 ; 2.7413491979433647E10 ; 0.0
145 ; 3483601.9221464577 ; 2.02581591631327E8 ; 5.087334779880507E8 ; 2.761606022492922E10 ; 0.0
146 ; 3477999.9769630814 ; 2.0259490806115E8 ; 5.1221707991019714E8 ; 2.7818641816560547E10 ; 0.0
147 ; 3475189.291578125 ; 2.0260819429384428E8 ; 5.1569507988716024E8 ; 2.8021236724621696E10 ; 0.0
148 ; 3465154.990067048 ; 2.0262144984476155E8 ; 5.1917026917873836E8 ; 2.8223844918915543E10 ; 0.0
149 ; 3461923.8736426337 ; 2.026346742356286E8 ; 5.226354241688054E8 ; 2.8426466368760303E10 ; 0.0
150 ; 3456315.701500871 ; 2.0264786699438015E8 ; 5.2609734804244804E8 ; 2.8629101042995934E10 ; 0.0
151 ; 3450640.719996427 ; 2.0266102765499786E8 ; 5.2955366374394894E8 ; 2.8831748909990314E10 ; 0.0
152 ; 3446280.400146902 ; 2.0267415575735515E8 ; 5.330043044639454E8 ; 2.9034409937645313E10 ; 0.0
153 ; 3437755.0433573974 ; 2.026872508470679E8 ; 5.364505848640923E8 ; 2.9237084093402668E10 ; 0.0
154 ; 3434026.672977049 ; 2.027003124753503E8 ; 5.398883399074497E8 ; 2.9439771344249737E10 ; 0.0
155 ; 3426599.333752665 ; 2.027133401988762E8 ; 5.433223665804268E8 ; 2.9642471656725086E10 ; 0.0
156 ; 3421593.9801090737 ; 2.0272633357964537E8 ; 5.467489659141794E8 ; 2.984518499692396E10 ; 0.0
157 ; 3416885.474934155 ; 2.0273929218485436E8 ; 5.501705598942885E8 ; 3.004791133050361E10 ; 0.0
158 ; 3413926.6816712683 ; 2.0275221558677247E8 ; 5.535874453692226E8 ; 3.025065062268846E10 ; 0.0
159 ; 3405440.827360439 ; 2.027651033626216E8 ; 5.570013720508939E8 ; 3.0453402838275234E10 ; 0.0
160 ; 3399210.0719024735 ; 2.0277795509446087E8 ; 5.604068128782543E8 ; 3.0656167941637856E10 ; 0.0
161 ; 3396706.7918578926 ; 2.0279077036907506E8 ; 5.638060229501568E8 ; 3.0858945896732315E10 ; 0.0
162 ; 3389772.148844497 ; 2.0280354877786696E8 ; 5.672027297420146E8 ; 3.106173666710139E10 ; 0.0
163 ; 3379337.4736796063 ; 2.0281628991675383E8 ; 5.705925018908591E8 ; 3.1264540215879257E10 ; 0.0
164 ; 3375971.3578028018 ; 2.0282899338606712E8 ; 5.739718393645388E8 ; 3.1467356505796013E10 ; 0.0
165 ; 3373222.0779182664 ; 2.02841658790456E8 ; 5.773478107223415E8 ; 3.167018549918208E10 ; 0.0
166 ; 3366201.3342530522 ; 2.0285428573879403E8 ; 5.807210328002598E8 ; 3.1873027157972534E10 ; 0.0
167 ; 3359502.391232193 ; 2.028668738440893E8 ; 5.840872341345129E8 ; 3.2075881443711327E10 ; 0.0
168 ; 3353353.2284765826 ; 2.0287942272339755E8 ; 5.874467365257452E8 ; 3.2278748317555416E10 ; 0.0
169 ; 3349722.6651823623 ; 2.0289193199773833E8 ; 5.908000897542217E8 ; 3.2481627740278812E10 ; 0.0
170 ; 3341972.865166506 ; 2.02904401292014E8 ; 5.94149812419404E8 ; 3.268451967227655E10 ; 0.0
171 ; 3336426.863821907 ; 2.0291683023493165E8 ; 5.974917852845706E8 ; 3.2887424073568565E10 ; 0.0
172 ; 3329916.177870546 ; 2.029292184589276E8 ; 6.008282121483924E8 ; 3.3090340903803497E10 ; 0.0
173 ; 3325970.8270479497 ; 2.029415656000945E8 ; 6.04158128326263E8 ; 3.3293270122262424E10 ; 0.0
174 ; 3322404.482411594 ; 2.029538712981109E8 ; 6.074840991533109E8 ; 3.349621168786252E10 ; 0.0
175 ; 3313609.065022927 ; 2.0296613519617325E8 ; 6.108065036357225E8 ; 3.369916555916063E10 ; 0.0
176 ; 3311607.977025495 ; 2.029783569409302E8 ; 6.141201127007455E8 ; 3.3902131694356804E10 ; 0.0
177 ; 3307496.5177977043 ; 2.0299053618241903E8 ; 6.17431720677771E8 ; 3.4105110051297733E10 ; 0.0
178 ; 3306141.3738472047 ; 2.030026725740045E8 ; 6.207392171955687E8 ; 3.4308100587480152E10 ; 0.0
179 ; 3301450.591451049 ; 2.0301476577231935E8 ; 6.240453585694159E8 ; 3.451110326005415E10 ; 0.0
180 ; 3295576.7659043106 ; 2.030268154372071E8 ; 6.27346809160867E8 ; 3.471411802582647E10 ; 0.0
181 ; 3295524.1834652424 ; 2.0303882123166668E8 ; 6.306423859267713E8 ; 3.491714484126368E10 ; 0.0
182 ; 3288027.6392339454 ; 2.030507828217989E8 ; 6.339379101102365E8 ; 3.5120183662495346E10 ; 0.0
183 ; 3281309.1808862635 ; 2.0306269987675467E8 ; 6.372259377494705E8 ; 3.532323444531715E10 ; 0.0
184 ; 3281674.962955962 ; 2.0307457206868502E8 ; 6.405072469303567E8 ; 3.55262971451939E10 ; 0.0
185 ; 3272337.8757407423 ; 2.030863990726927E8 ; 6.437889218933127E8 ; 3.572937171726259E10 ; 0.0
186 ; 3269991.010825343 ; 2.0309818056678534E8 ; 6.470612597690535E8 ; 3.593245811633528E10 ; 0.0
187 ; 3266096.9267823957 ; 2.0310991623183042E8 ; 6.503312507798789E8 ; 3.613555629690207E10 ; 0.0
188 ; 3262567.6957131526 ; 2.0312160575151128E8 ; 6.535973477066612E8 ; 3.6338666213133896E10 ; 0.0
189 ; 3260283.3857320817 ; 2.0313324881228507E8 ; 6.568599154023744E8 ; 3.654178781888541E10 ; 0.0
190 ; 3251533.2021716177 ; 2.0314484510334158E8 ; 6.601201987881064E8 ; 3.674492106769769E10 ; 0.0
191 ; 3246592.962552776 ; 2.0315639431656387E8 ; 6.63371731990278E8 ; 3.694806591280103E10 ; 0.0
192 ; 3244466.642526899 ; 2.031678961464899E8 ; 6.666183249528308E8 ; 3.71512223071176E10 ; 0.0
193 ; 3241708.593398862 ; 2.0317935029027542E8 ; 6.698627915953577E8 ; 3.735439020326409E10 ; 0.0
194 ; 3238544.095511196 ; 2.031907564476583E8 ; 6.731045001887565E8 ; 3.755756955355437E10 ; 0.0
195 ; 3230865.887106909 ; 2.032021143209237E8 ; 6.763430442842677E8 ; 3.776076031000202E10 ; 0.0
196 ; 3226819.5685152975 ; 2.0321342361487064E8 ; 6.795739101713746E8 ; 3.7963962424322945E10 ; 0.0
197 ; 3219960.777401732 ; 2.032246840367795E8 ; 6.828007297398899E8 ; 3.816717584793781E10 ; 0.0
198 ; 3221393.3310778546 ; 2.032358952963805E8 ; 6.860206905172915E8 ; 3.8370400531974594E10 ; 0.0
199 ; 3216756.7505846866 ; 2.0324705710582352E8 ; 6.892420838483694E8 ; 3.857363642727097E10 ; 0.0
200 ; 3212729.4522876074 ; 1.9934204817205036E8 ; 6.924588405989541E8 ; 3.87768834843768E10 ; 0.0
