CSV File for the City 6 on Day 76
1 - Minute m 
2 - Power Consumed at minute m 
3 - Power Produced at minute m 
4 - Energy Consumed since the beginning of the day 
5 - Energy Produced since the beginning of the day 
6 - Energy Lost since the beginning of the day on lines starting from the city
 
0 ; 1.114992337403126E7 ; 1.0600967324203357E8 ; 0.0 ; 0.0 ; 0.0
1 ; 1.1160870164528832E7 ; 1.0616050358213222E8 ; 1.114992337403126E7 ; 1.0600967324203357E8 ; 0.0
2 ; 1.1171930413504967E7 ; 1.0662033034554878E8 ; 2.2310793538560092E7 ; 2.121701768241658E8 ; 0.0
3 ; 1.1185968328517774E7 ; 1.073891577475127E8 ; 3.3482723952065058E7 ; 3.1879050716971457E8 ; 0.0
4 ; 1.1204077544207217E7 ; 1.0846698957320762E8 ; 4.466869228058283E7 ; 4.2617966491722727E8 ; 0.0
5 ; 1.1221026949524809E7 ; 1.0985382915425289E8 ; 5.5872769824790046E7 ; 5.346466544904349E8 ; 0.0
6 ; 1.1245557704900695E7 ; 1.1154967934755495E8 ; 6.709379677431485E7 ; 6.445004836446878E8 ; 0.0
7 ; 1.128456245388435E7 ; 1.1355454251683652E8 ; 7.833935447921555E7 ; 7.560501629922427E8 ; 0.0
8 ; 1.1338756411289217E7 ; 1.1586842051711851E8 ; 8.96239169330999E7 ; 8.696047055090792E8 ; 0.0
9 ; 1.142070332312126E7 ; 1.18491314682392E8 ; 1.0096267334438911E8 ; 9.854731260261977E8 ; 0.0
10 ; 1.1547316618038373E7 ; 1.2142322581667054E8 ; 1.1238337666751038E8 ; 1.1039644407085896E9 ; 0.0
11 ; 1.1740965253879216E7 ; 1.2466415418856487E8 ; 1.2393069328554875E8 ; 1.22538766652526E9 ; 0.0
12 ; 1.2059885558850091E7 ; 1.2821409952946422E8 ; 1.3567165853942797E8 ; 1.3500518207138247E9 ; 0.0
13 ; 1.2362202205727106E7 ; 1.3207306103535503E8 ; 1.4773154409827805E8 ; 1.478265920243289E9 ; 0.0
14 ; 1.2399748108830638E7 ; 1.3624103737224633E8 ; 1.6009374630400515E8 ; 1.610338981278644E9 ; 0.0
15 ; 1.241425941699724E7 ; 1.4071802668511707E8 ; 1.7249349441283578E8 ; 1.7465800186508904E9 ; 0.0
16 ; 1.2425455513310535E7 ; 1.4550402661024466E8 ; 1.8490775382983303E8 ; 1.8872980453360074E9 ; 0.0
17 ; 1.243869744008944E7 ; 1.5059903429072258E8 ; 1.9733320934314355E8 ; 2.032802071946252E9 ; 0.0
18 ; 1.2457034380487723E7 ; 1.560030463949315E8 ; 2.09771906783233E8 ; 2.1834011062369747E9 ; 0.0
19 ; 1.2471431457586143E7 ; 1.6171605913768777E8 ; 2.222289411637207E8 ; 2.339404152631906E9 ; 0.0
20 ; 1.2484336554928947E7 ; 1.6773806830376193E8 ; 2.3470037262130684E8 ; 2.5011202117695937E9 ; 0.0
21 ; 1.2498076156884177E7 ; 1.7406906927343658E8 ; 2.471847091762358E8 ; 2.6688582800733557E9 ; 0.0
22 ; 1.2515248337579252E7 ; 1.8070905704975545E8 ; 2.5968278533311996E8 ; 2.842927349346792E9 ; 0.0
23 ; 1.2528451660041928E7 ; 1.876580262871098E8 ; 2.7219803367069924E8 ; 3.023636406396548E9 ; 0.0
24 ; 1.2542877032913974E7 ; 1.9491597132080597E8 ; 2.8472648533074117E8 ; 3.2112944326836576E9 ; 0.0
25 ; 1.2557650710280308E7 ; 2.011709270954498E8 ; 2.9726936236365515E8 ; 3.4062104040044637E9 ; 0.0
26 ; 1.2572109311458375E7 ; 2.0117643523234197E8 ; 3.0982701307393545E8 ; 3.6073813310999136E9 ; 0.0
27 ; 1.258462197835275E7 ; 2.0118225858486262E8 ; 3.223991223853938E8 ; 3.8085577663322554E9 ; 0.0
28 ; 1.259595235685293E7 ; 2.0118839051541507E8 ; 3.349837443637465E8 ; 4.009740024917118E9 ; 0.0
29 ; 1.2613721601822525E7 ; 2.011948242182669E8 ; 3.475796967205995E8 ; 4.2109284154325333E9 ; 0.0
30 ; 1.2627558138736166E7 ; 2.0120155274833357E8 ; 3.60193418322422E8 ; 4.4121232396508E9 ; 0.0
31 ; 1.2639607476243366E7 ; 2.012085690489456E8 ; 3.728209764611582E8 ; 4.613324792399134E9 ; 0.0
32 ; 1.2651245030851994E7 ; 2.0121586597842577E8 ; 3.854605839374016E8 ; 4.814533361448079E9 ; 0.0
33 ; 1.266254915308907E7 ; 2.0122343633533457E8 ; 3.981118289682536E8 ; 5.015749227426505E9 ; 0.0
34 ; 1.267347639855416E7 ; 2.0123127288227308E8 ; 4.1077437812134266E8 ; 5.21697266376184E9 ; 0.0
35 ; 1.2688748118530823E7 ; 2.0123936836816087E8 ; 4.234478545198968E8 ; 5.418203936644113E9 ; 0.0
36 ; 1.2701752815212494E7 ; 2.0124771554893497E8 ; 4.361366026384276E8 ; 5.619443305012274E9 ; 0.0
37 ; 1.271054458369901E7 ; 2.0125630720663914E8 ; 4.488383554536401E8 ; 5.820691020561209E9 ; 0.0
38 ; 1.2719622648596695E7 ; 2.0126513616689694E8 ; 4.615489000373391E8 ; 6.021947327767848E9 ; 0.0
39 ; 1.2732337026474165E7 ; 2.0127419531478038E8 ; 4.742685226859358E8 ; 6.223212463934745E9 ; 0.0
40 ; 1.2741985904889503E7 ; 2.0128347760910395E8 ; 4.8700085971241E8 ; 6.424486659249525E9 ; 0.0
41 ; 1.2749242589903085E7 ; 2.0129297609518743E8 ; 4.997428456172995E8 ; 6.625770136858629E9 ; 0.0
42 ; 1.2759879247532435E7 ; 2.01302683916144E8 ; 5.1249208820720255E8 ; 6.827063112953816E9 ; 0.0
43 ; 1.2765609038805863E7 ; 2.0131259432275793E8 ; 5.25251967454735E8 ; 7.028365796869961E9 ; 0.0
44 ; 1.2776081948787302E7 ; 2.01322700682025E8 ; 5.380175764935409E8 ; 7.2296783911927185E9 ; 0.0
45 ; 1.277972746784378E7 ; 2.0133299648443308E8 ; 5.507936584423282E8 ; 7.431001091874743E9 ; 0.0
46 ; 1.2788619403623376E7 ; 2.01343475350064E8 ; 5.63573385910172E8 ; 7.632334088359177E9 ; 0.0
47 ; 1.2797354963414393E7 ; 2.0135413103359932E8 ; 5.763620053137953E8 ; 7.833677563709241E9 ; 0.0
48 ; 1.2799043573340977E7 ; 2.01364957428314E8 ; 5.891593602772098E8 ; 8.03503169474284E9 ; 0.0
49 ; 1.280441627286537E7 ; 2.0137594856913996E8 ; 6.019584038505508E8 ; 8.236396652171154E9 ; 0.0
50 ; 1.2810616964914886E7 ; 2.0138709863488093E8 ; 6.147628201234162E8 ; 8.4377726007402935E9 ; 0.0
51 ; 1.2814592895105673E7 ; 2.0139840194965687E8 ; 6.275734370883311E8 ; 8.639159699375174E9 ; 0.0
52 ; 1.2815402845971715E7 ; 2.014098529836536E8 ; 6.403880299834368E8 ; 8.840558101324831E9 ; 0.0
53 ; 1.2820000494568445E7 ; 2.014214463532494E8 ; 6.532034328294085E8 ; 9.041967954308485E9 ; 0.0
54 ; 1.2821842040109366E7 ; 2.0143317682058686E8 ; 6.66023433323977E8 ; 9.243389400661734E9 ; 0.0
55 ; 1.2824025591192566E7 ; 2.0144503929265353E8 ; 6.788452753640864E8 ; 9.44482257748232E9 ; 0.0
56 ; 1.2833208842583269E7 ; 2.0145702881993172E8 ; 6.91669300955279E8 ; 9.646267616774975E9 ; 0.0
57 ; 1.2833827156403536E7 ; 2.014691405946723E8 ; 7.045025097978623E8 ; 9.847724645594906E9 ; 0.0
58 ; 1.2836886617055757E7 ; 2.0148136994884443E8 ; 7.173363369542658E8 ; 1.0049193786189579E10 ; 0.0
59 ; 1.2837997403206544E7 ; 2.014937123518077E8 ; 7.301732235713216E8 ; 1.0250675156138424E10 ; 0.0
60 ; 1.2844571998632463E7 ; 2.0150616340775037E8 ; 7.430112209745282E8 ; 1.0452168868490232E10 ; 0.0
61 ; 1.2845557726709826E7 ; 2.015187188529324E8 ; 7.558557929731606E8 ; 1.0653675031897984E10 ; 0.0
62 ; 1.2845698420164896E7 ; 2.0153137455276936E8 ; 7.687013506998705E8 ; 1.0855193750750916E10 ; 0.0
63 ; 1.2850791250869453E7 ; 2.0154412649878904E8 ; 7.815470491200354E8 ; 1.1056725125303684E10 ; 0.0
64 ; 1.2857271934924133E7 ; 2.0155697080548918E8 ; 7.943978403709049E8 ; 1.1258269251802473E10 ; 0.0
65 ; 1.2856259221611006E7 ; 2.0156990370712292E8 ; 8.07255112305829E8 ; 1.1459826222607962E10 ; 0.0
66 ; 1.2856958682246951E7 ; 2.0158292155443415E8 ; 8.201113715274401E8 ; 1.1661396126315084E10 ; 0.0
67 ; 1.2858005316383637E7 ; 2.0159602081136298E8 ; 8.32968330209687E8 ; 1.1862979047869518E10 ; 0.0
68 ; 1.2861531544553913E7 ; 2.0160919805174002E8 ; 8.458263355260706E8 ; 1.2064575068680882E10 ; 0.0
69 ; 1.2863781533283774E7 ; 2.016224499559839E8 ; 8.586878670706245E8 ; 1.2266184266732622E10 ; 0.0
70 ; 1.2862802244029518E7 ; 2.0163577330781657E8 ; 8.715516486039083E8 ; 1.2467806716688606E10 ; 0.0
71 ; 1.2864898246624878E7 ; 2.0164916499100772E8 ; 8.844144508479378E8 ; 1.2669442489996424E10 ; 0.0
72 ; 1.2867709598332524E7 ; 2.0166262198615828E8 ; 8.972793490945626E8 ; 1.287109165498743E10 ; 0.0
73 ; 1.2867678524163654E7 ; 2.0167614136753207E8 ; 9.101470586928952E8 ; 1.3072754276973589E10 ; 0.0
74 ; 1.2873280958610417E7 ; 2.016897202999422E8 ; 9.230147372170588E8 ; 1.3274430418341122E10 ; 0.0
75 ; 1.2869058116628643E7 ; 2.0170335603569877E8 ; 9.358880181756692E8 ; 1.3476120138641064E10 ; 0.0
76 ; 1.2872913167174505E7 ; 2.0171704591162223E8 ; 9.487570762922978E8 ; 1.3677823494676762E10 ; 0.0
77 ; 1.287432306858094E7 ; 2.0173078734612706E8 ; 9.616299894594723E8 ; 1.3879540540588385E10 ; 0.0
78 ; 1.2870623320658596E7 ; 2.0174457783637813E8 ; 9.745043125280533E8 ; 1.4081271327934511E10 ; 0.0
79 ; 1.2870171816659484E7 ; 2.0175841495552254E8 ; 9.873749358487118E8 ; 1.428301590577089E10 ; 0.0
80 ; 1.28645102776619E7 ; 2.017722963499984E8 ; 1.0002451076653713E9 ; 1.4484774320726412E10 ; 0.0
81 ; 1.285852523576156E7 ; 2.0178621973692197E8 ; 1.0131096179430332E9 ; 1.468654661707641E10 ; 0.0
82 ; 1.2856255956758255E7 ; 2.018001829015529E8 ; 1.0259681431787947E9 ; 1.4888332836813332E10 ; 0.0
83 ; 1.2849457875803052E7 ; 2.0181418369483894E8 ; 1.038824399135553E9 ; 1.5090133019714884E10 ; 0.0
84 ; 1.285139001143049E7 ; 2.0182822003103873E8 ; 1.051673857011356E9 ; 1.5291947203409723E10 ; 0.0
85 ; 1.2846122359951304E7 ; 2.0184228988542268E8 ; 1.0645252470227865E9 ; 1.5493775423440762E10 ; 0.0
86 ; 1.284085273861528E7 ; 2.0185639129205102E8 ; 1.0773713693827379E9 ; 1.5695617713326183E10 ; 0.0
87 ; 1.2838918740060162E7 ; 2.018705223416277E8 ; 1.0902122221213531E9 ; 1.5897474104618235E10 ; 0.0
88 ; 1.2833806958559422E7 ; 2.018846811794292E8 ; 1.1030511408614132E9 ; 1.6099344626959862E10 ; 0.0
89 ; 1.2831506452218503E7 ; 2.018988660033065E8 ; 1.1158849478199728E9 ; 1.6301229308139292E10 ; 0.0
90 ; 1.282593980725836E7 ; 2.0191307506175858E8 ; 1.1287164542721913E9 ; 1.65031281741426E10 ; 0.0
91 ; 1.282168418636817E7 ; 2.0192730665207607E8 ; 1.1415423940794497E9 ; 1.6705041249204357E10 ; 0.0
92 ; 1.2814790545895478E7 ; 2.0194155911855295E8 ; 1.1543640782658179E9 ; 1.6906968555856434E10 ; 0.0
93 ; 1.2813357275826162E7 ; 2.0195583085076475E8 ; 1.1671788688117135E9 ; 1.7108910114974987E10 ; 0.0
94 ; 1.2805642734623747E7 ; 2.01970120281911E8 ; 1.1799922260875397E9 ; 1.7310865945825752E10 ; 0.0
95 ; 1.2802937871830156E7 ; 2.0198442588722017E8 ; 1.1927978688221633E9 ; 1.7512836066107662E10 ; 0.0
96 ; 1.2794537272252569E7 ; 2.019987461824156E8 ; 1.2056008066939936E9 ; 1.771482049199488E10 ; 0.0
97 ; 1.2790434426072137E7 ; 2.0201307972223952E8 ; 1.2183953439662461E9 ; 1.7916819238177296E10 ; 0.0
98 ; 1.2789797389297167E7 ; 2.0202742509903422E8 ; 1.2311857783923182E9 ; 1.8118832317899536E10 ; 0.0
99 ; 1.2781291991221841E7 ; 2.020417809413778E8 ; 1.2439755757816155E9 ; 1.832085974299857E10 ; 0.0
100 ; 1.2774944303705249E7 ; 2.020561459127729E8 ; 1.2567568677728374E9 ; 1.852290152393995E10 ; 0.0
101 ; 1.2770670934702711E7 ; 2.020705187103865E8 ; 1.2695318120765426E9 ; 1.8724957669852722E10 ; 0.0
102 ; 1.2766163821772493E7 ; 2.02084898063839E8 ; 1.2823024830112453E9 ; 1.892702818856311E10 ; 0.0
103 ; 1.2759456649765156E7 ; 2.0209928273404023E8 ; 1.2950686468330178E9 ; 1.912911308662695E10 ; 0.0
104 ; 1.2755325209518531E7 ; 2.0211367151207194E8 ; 1.307828103482783E9 ; 1.933121236936099E10 ; 0.0
105 ; 1.274544525456941E7 ; 2.0212806321811345E8 ; 1.3205834286923015E9 ; 1.9533326040873062E10 ; 0.0
106 ; 1.2739841497421263E7 ; 2.0214245670041E8 ; 1.3333288739468708E9 ; 1.9735454104091175E10 ; 0.0
107 ; 1.2732821555681255E7 ; 2.0215685083428165E8 ; 1.346068715444292E9 ; 1.9937596560791584E10 ; 0.0
108 ; 1.2731326419888517E7 ; 2.0217124452117124E8 ; 1.3588015369999733E9 ; 2.0139753411625866E10 ; 0.0
109 ; 1.2719694395292748E7 ; 2.0218563668772978E8 ; 1.3715328634198618E9 ; 2.0341924656147038E10 ; 0.0
110 ; 1.2713461190862492E7 ; 2.022000262849382E8 ; 1.3842525578151546E9 ; 2.0544110292834766E10 ; 0.0
111 ; 1.2708600012166316E7 ; 2.0221441228726342E8 ; 1.396966019006017E9 ; 2.0746310319119705E10 ; 0.0
112 ; 1.2700606558308322E7 ; 2.0222879369184807E8 ; 1.4096746190181832E9 ; 2.0948524731406967E10 ; 0.0
113 ; 1.2693755060217923E7 ; 2.0224316951773158E8 ; 1.4223752255764916E9 ; 2.1150753525098816E10 ; 0.0
114 ; 1.2689127258108305E7 ; 2.0225753880510256E8 ; 1.4350689806367095E9 ; 2.1352996694616547E10 ; 0.0
115 ; 1.2679565216829205E7 ; 2.0227190061458012E8 ; 1.4477581078948178E9 ; 2.155525423342165E10 ; 0.0
116 ; 1.2670436273033604E7 ; 2.022862540265237E8 ; 1.4604376731116471E9 ; 2.175752613403623E10 ; 0.0
117 ; 1.2665459863317054E7 ; 2.0230059814036983E8 ; 1.4731081093846807E9 ; 2.195981238806275E10 ; 0.0
118 ; 1.2656787794071637E7 ; 2.023149320739948E8 ; 1.4857735692479978E9 ; 2.216211298620312E10 ; 0.0
119 ; 1.2650221557463283E7 ; 2.0232925496310252E8 ; 1.4984303570420694E9 ; 2.2364427918277115E10 ; 0.0
120 ; 1.2638562569549888E7 ; 2.023435659606361E8 ; 1.5110805785995326E9 ; 2.256675717324022E10 ; 0.0
121 ; 1.2631568093903981E7 ; 2.0235786423621222E8 ; 1.5237191411690824E9 ; 2.2769100739200855E10 ; 0.0
122 ; 1.2626168402942216E7 ; 2.0237214897557783E8 ; 1.5363507092629864E9 ; 2.297145860343707E10 ; 0.0
123 ; 1.2617096939303413E7 ; 2.0238641938008758E8 ; 1.5489768776659286E9 ; 2.3173830752412647E10 ; 0.0
124 ; 1.260926793729993E7 ; 2.024006746662018E8 ; 1.561593974605232E9 ; 2.3376217171792736E10 ; 0.0
125 ; 1.2600342040256036E7 ; 2.0241491406500354E8 ; 1.574203242542532E9 ; 2.357861784645894E10 ; 0.0
126 ; 1.259257591220809E7 ; 2.0242913682173452E8 ; 1.586803584582788E9 ; 2.378103276052394E10 ; 0.0
127 ; 1.2585786172002535E7 ; 2.0244334219534865E8 ; 1.599396160494996E9 ; 2.3983461897345676E10 ; 0.0
128 ; 1.2573868752028039E7 ; 2.0245752945808288E8 ; 1.6119819466669986E9 ; 2.4185905239541023E10 ; 0.0
129 ; 1.2565095584261172E7 ; 2.0247169789504433E8 ; 1.6245558154190266E9 ; 2.4388362768999107E10 ; 0.0
130 ; 1.2553805248398252E7 ; 2.0248584680381316E8 ; 1.6371209110032878E9 ; 2.459083446689415E10 ; 0.0
131 ; 1.2543512669422973E7 ; 2.0249997549406052E8 ; 1.649674716251686E9 ; 2.4793320313697964E10 ; 0.0
132 ; 1.2527971821343722E7 ; 2.0251408328718117E8 ; 1.662218228921109E9 ; 2.4995820289192024E10 ; 0.0
133 ; 1.2512565634008653E7 ; 2.0252816951593965E8 ; 1.6747462007424526E9 ; 2.5198334372479206E10 ; 0.0
134 ; 1.2499699967882035E7 ; 2.0254223352413017E8 ; 1.6872587663764613E9 ; 2.5400862541995144E10 ; 0.0
135 ; 1.2488349886157332E7 ; 2.025562746662488E8 ; 1.6997584663443432E9 ; 2.5603404775519276E10 ; 0.0
136 ; 1.2477734801878382E7 ; 2.025702923071785E8 ; 1.7122468162305005E9 ; 2.5805961050185524E10 ; 0.0
137 ; 1.2460101834236573E7 ; 2.0258428582188547E8 ; 1.724724551032379E9 ; 2.6008531342492702E10 ; 0.0
138 ; 1.244728663332389E7 ; 2.0259825459512696E8 ; 1.7371846528666155E9 ; 2.6211115628314587E10 ; 0.0
139 ; 1.243062373093301E7 ; 2.0261219802116996E8 ; 1.7496319394999394E9 ; 2.6413713882909714E10 ; 0.0
140 ; 1.2420235987160657E7 ; 2.026261155035202E8 ; 1.7620625632308724E9 ; 2.6616326080930885E10 ; 0.0
141 ; 1.240420901551427E7 ; 2.0264000645466125E8 ; 1.774482799218033E9 ; 2.6818952196434406E10 ; 0.0
142 ; 1.2389558317684775E7 ; 2.026538702958032E8 ; 1.7868870082335474E9 ; 2.702159220288907E10 ; 0.0
143 ; 1.2378711683181593E7 ; 2.026677064566403E8 ; 1.7992765665512323E9 ; 2.722424607318487E10 ; 0.0
144 ; 1.2362337636127567E7 ; 2.026815143751179E8 ; 1.8116552782344139E9 ; 2.7426913779641514E10 ; 0.0
145 ; 1.2357259396075461E7 ; 2.0269529349720746E8 ; 1.8240176158705413E9 ; 2.7629595294016632E10 ; 0.0
146 ; 1.2342316591674656E7 ; 2.0270904327669E8 ; 1.8363748752666168E9 ; 2.783229058751384E10 ; 0.0
147 ; 1.2332875080513773E7 ; 2.027227631749471E8 ; 1.8487171918582914E9 ; 2.803499963079053E10 ; 0.0
148 ; 1.23230180909771E7 ; 2.0273645266075987E8 ; 1.861050066938805E9 ; 2.8237722393965477E10 ; 0.0
149 ; 1.2313687184908219E7 ; 2.0275011121011457E8 ; 1.8733730850297823E9 ; 2.8440458846626236E10 ; 0.0
150 ; 1.2308207491909016E7 ; 2.027637383060157E8 ; 1.8856867722146904E9 ; 2.864320895783635E10 ; 0.0
151 ; 1.2293938129298119E7 ; 2.0277733343830553E8 ; 1.8979949797065995E9 ; 2.8845972696142365E10 ; 0.0
152 ; 1.2285480885500478E7 ; 2.0279089610349E8 ; 1.9102889178358977E9 ; 2.904875002958067E10 ; 0.0
153 ; 1.22758087038634E7 ; 2.0280442580457094E8 ; 1.922574398721398E9 ; 2.925154092568416E10 ; 0.0
154 ; 1.2262764381259179E7 ; 2.0281792205088416E8 ; 1.9348502074252615E9 ; 2.9454345351488728E10 ; 0.0
155 ; 1.225473449564586E7 ; 2.0283138435794315E8 ; 1.9471129718065207E9 ; 2.965716327353961E10 ; 0.0
156 ; 1.2242698687375454E7 ; 2.028448122472884E8 ; 1.9593677063021665E9 ; 2.9859994657897556E10 ; 0.0
157 ; 1.2232351663948357E7 ; 2.0285820524634203E8 ; 1.971610404989542E9 ; 3.0062839470144844E10 ; 0.0
158 ; 1.2223374590385878E7 ; 2.0287156288826728E8 ; 1.9838427566534903E9 ; 3.0265697675391186E10 ; 0.0
159 ; 1.2213255836825049E7 ; 2.0288488471183312E8 ; 1.9960661312438762E9 ; 3.0468569238279453E10 ; 0.0
160 ; 1.2204944376064265E7 ; 2.0289817026128334E8 ; 2.0082793870807014E9 ; 3.0671454122991287E10 ; 0.0
161 ; 1.2194467072473995E7 ; 2.0291141908621043E8 ; 2.0204843314567657E9 ; 3.087435229325257E10 ; 0.0
162 ; 1.2181504995467799E7 ; 2.029246307414335E8 ; 2.0326787985292397E9 ; 3.1077263712338783E10 ; 0.0
163 ; 1.2174473885958547E7 ; 2.0293780478688067E8 ; 2.0448603035247076E9 ; 3.1280188343080215E10 ; 0.0
164 ; 1.2164647991779918E7 ; 2.0295094078747526E8 ; 2.057034777410666E9 ; 3.1483126147867096E10 ; 0.0
165 ; 1.2149588160209227E7 ; 2.029640383130261E8 ; 2.0691994254024458E9 ; 3.168607708865457E10 ; 0.0
166 ; 1.2141135271077536E7 ; 2.0297709693812123E8 ; 2.081349013562655E9 ; 3.1889041126967598E10 ; 0.0
167 ; 1.2130323630917545E7 ; 2.029901162420256E8 ; 2.0934901488337326E9 ; 3.209201822390572E10 ; 0.0
168 ; 1.2119564744901584E7 ; 2.030030958085821E8 ; 2.1056204724646502E9 ; 3.2295008340147747E10 ; 0.0
169 ; 1.2107448581017958E7 ; 2.0301603522611555E8 ; 2.1177400372095518E9 ; 3.249801143595633E10 ; 0.0
170 ; 1.2098647510558149E7 ; 2.0302893408734065E8 ; 2.1298474857905698E9 ; 3.2701027471182446E10 ; 0.0
171 ; 1.20855313700376E7 ; 2.0304179198927233E8 ; 2.141946133301128E9 ; 3.2904056405269787E10 ; 0.0
172 ; 1.2074803496897405E7 ; 2.030546085331395E8 ; 2.1540316646711655E9 ; 3.310709819725906E10 ; 0.0
173 ; 1.2067359882841792E7 ; 2.0306738332430148E8 ; 2.1661064681680627E9 ; 3.33101528057922E10 ; 0.0
174 ; 1.2059848466860343E7 ; 2.030801159721674E8 ; 2.1781738280509043E9 ; 3.35132201891165E10 ; 0.0
175 ; 1.2053878631351173E7 ; 2.0309280609011808E8 ; 2.1902336765177646E9 ; 3.371630030508867E10 ; 0.0
176 ; 1.2046857303847587E7 ; 2.0310545329543048E8 ; 2.2022875551491156E9 ; 3.3919393111178787E10 ; 0.0
177 ; 1.204042142280294E7 ; 2.031180572092049E8 ; 2.2143344124529634E9 ; 3.4122498564474216E10 ; 0.0
178 ; 1.2033031523560371E7 ; 2.0313061745629436E8 ; 2.2263748338757663E9 ; 3.4325616621683422E10 ; 0.0
179 ; 1.2026240256567812E7 ; 2.0314313366523615E8 ; 2.238407865399327E9 ; 3.452874723913972E10 ; 0.0
180 ; 1.2017653664732907E7 ; 2.0315560546818614E8 ; 2.2504341056558948E9 ; 3.4731890372804955E10 ; 0.0
181 ; 1.2013537108259408E7 ; 2.031680325008546E8 ; 2.2624517593206277E9 ; 3.493504597827314E10 ; 0.0
182 ; 1.2006688837922571E7 ; 2.031804144024446E8 ; 2.274465296428887E9 ; 3.5138214010773994E10 ; 0.0
183 ; 1.199959933810888E7 ; 2.0319275081559214E8 ; 2.2864719852668095E9 ; 3.534139442517644E10 ; 0.0
184 ; 1.1990225980850186E7 ; 2.032050413863083E8 ; 2.2984715846049185E9 ; 3.554458717599203E10 ; 0.0
185 ; 1.198559331468833E7 ; 2.0321728576392332E8 ; 2.3104618105857687E9 ; 3.5747792217378334E10 ; 0.0
186 ; 1.1978849218583671E7 ; 2.0322948360103235E8 ; 2.322447403900457E9 ; 3.595100950314226E10 ; 0.0
187 ; 1.1971225586464226E7 ; 2.0324163455344307E8 ; 2.3344262531190405E9 ; 3.615423898674329E10 ; 0.0
188 ; 1.1966727512807809E7 ; 2.032537382801249E8 ; 2.346397478705505E9 ; 3.635748062129674E10 ; 0.0
189 ; 1.195663875185577E7 ; 2.032657944431599E8 ; 2.3583642062183127E9 ; 3.6560734359576866E10 ; 0.0
190 ; 1.1950420208494963E7 ; 2.0327780270769528E8 ; 2.3703208449701686E9 ; 3.676400015402003E10 ; 0.0
191 ; 1.1943116106111651E7 ; 2.0328976274189714E8 ; 2.3822712651786637E9 ; 3.696727795672772E10 ; 0.0
192 ; 1.1939285522874277E7 ; 2.0330167421690616E8 ; 2.3942143812847753E9 ; 3.717056771946962E10 ; 0.0
193 ; 1.1931060147563975E7 ; 2.0331353680679435E8 ; 2.4061536668076496E9 ; 3.737386939368652E10 ; 0.0
194 ; 1.192614376446658E7 ; 2.0332535018852314E8 ; 2.4180847269552135E9 ; 3.757718293049332E10 ; 0.0
195 ; 1.1920172996726982E7 ; 2.0333711404190308E8 ; 2.4300108707196803E9 ; 3.778050828068184E10 ; 0.0
