CSV File for the City 6 on Day 21
1 - Minute m 
2 - Power Consumed at minute m 
3 - Power Produced at minute m 
4 - Energy Consumed since the beginning of the day 
5 - Energy Produced since the beginning of the day 
6 - Energy Lost since the beginning of the day on lines starting from the city
 
0 ; 1.111471388751765E7 ; 1.0533113559083542E8 ; 0.0 ; 0.0 ; 0.0
1 ; 1.112558270117911E7 ; 1.054741820154267E8 ; 1.111471388751765E7 ; 1.0533113559083542E8 ; 0.0
2 ; 1.113924960191389E7 ; 1.059263269465259E8 ; 2.224029658869676E7 ; 2.1080531760626212E8 ; 0.0
3 ; 1.115385447069262E7 ; 1.0668767914025551E8 ; 3.3379546190610647E7 ; 3.16731644552788E8 ; 0.0
4 ; 1.1168135491346562E7 ; 1.0775837548654085E8 ; 4.453340066130327E7 ; 4.2341932369304353E8 ; 0.0
5 ; 1.1187315299047465E7 ; 1.0913858566837865E8 ; 5.570153615264983E7 ; 5.311776991795844E8 ; 0.0
6 ; 1.1215368025355268E7 ; 1.1082851397785082E8 ; 6.688885145169729E7 ; 6.403162848479631E8 ; 0.0
7 ; 1.1254075708814735E7 ; 1.1282839434715122E8 ; 7.810421947705255E7 ; 7.511447988258139E8 ; 0.0
8 ; 1.1305262389996577E7 ; 1.1513847345880443E8 ; 8.93582951858673E7 ; 8.63973193172965E8 ; 0.0
9 ; 1.1388792248944806E7 ; 1.1775897848252505E8 ; 1.0066355757586387E8 ; 9.791116666317694E8 ; 0.0
10 ; 1.151000227514422E7 ; 1.206900732655304E8 ; 1.1205234982480867E8 ; 1.0968706451142945E9 ; 0.0
11 ; 1.1711277122164533E7 ; 1.2393181798869792E8 ; 1.2356235209995289E8 ; 1.2175607183798249E9 ; 0.0
12 ; 1.2024102768183216E7 ; 1.2748415247115013E8 ; 1.3527362922211742E8 ; 1.341492536368523E9 ; 0.0
13 ; 1.2328942954555782E7 ; 1.3134691286566973E8 ; 1.4729773199030066E8 ; 1.468976688839673E9 ; 0.0
14 ; 1.2364523862328866E7 ; 1.355198720025422E8 ; 1.5962667494485644E8 ; 1.6003236017053428E9 ; 0.0
15 ; 1.2376557603797298E7 ; 1.4000278319924283E8 ; 1.719911988071853E8 ; 1.735843473707885E9 ; 0.0
16 ; 1.2392082799839884E7 ; 1.447954125235779E8 ; 1.8436775641098258E8 ; 1.8758462569071279E9 ; 0.0
17 ; 1.2407957659135316E7 ; 1.498975556834654E8 ; 1.9675983921082246E8 ; 2.0206416694307058E9 ; 0.0
18 ; 1.242202384032782E7 ; 1.5530904299590862E8 ; 2.0916779686995777E8 ; 2.170539225114171E9 ; 0.0
19 ; 1.243909806063638E7 ; 1.6102973757098225E8 ; 2.215898207102856E8 ; 2.32584826811008E9 ; 0.0
20 ; 1.2449391311194709E7 ; 1.6705953065256378E8 ; 2.3402891877092198E8 ; 2.486878005681062E9 ; 0.0
21 ; 1.2464828682398269E7 ; 1.733983363780336E8 ; 2.464783100821167E8 ; 2.653937536333626E9 ; 0.0
22 ; 1.247756110748842E7 ; 1.8004608699205822E8 ; 2.5894313876451495E8 ; 2.8273358727116594E9 ; 0.0
23 ; 1.2494770014847768E7 ; 1.8700272885811108E8 ; 2.714206998720034E8 ; 3.0073819597037177E9 ; 0.0
24 ; 1.2510965715564875E7 ; 1.9426821928594136E8 ; 2.8391546988685113E8 ; 3.1943846885618286E9 ; 0.0
25 ; 1.2525469536578901E7 ; 2.0053056496657553E8 ; 2.96426435602416E8 ; 3.3886529078477697E9 ; 0.0
26 ; 1.2533561639482656E7 ; 2.005432861191044E8 ; 3.089519051389949E8 ; 3.5891834728143454E9 ; 0.0
27 ; 1.2550332615688127E7 ; 2.0055612957153776E8 ; 3.2148546677847755E8 ; 3.7897267589334497E9 ; 0.0
28 ; 1.256421110369315E7 ; 2.0056907690414807E8 ; 3.340357993941657E8 ; 3.9902828885049877E9 ; 0.0
29 ; 1.2578302221131751E7 ; 2.0058211289706454E8 ; 3.466000104978588E8 ; 4.190851965409136E9 ; 0.0
30 ; 1.2592115808328448E7 ; 2.0059522487913445E8 ; 3.5917831271899056E8 ; 4.3914340783062E9 ; 0.0
31 ; 1.2604721928202424E7 ; 2.0060840222367433E8 ; 3.71770428527319E8 ; 4.592029303185334E9 ; 0.0
32 ; 1.2616261803412033E7 ; 2.006216359554975E8 ; 3.8437515045552146E8 ; 4.792637705409009E9 ; 0.0
33 ; 1.2633352242551122E7 ; 2.0063491844262764E8 ; 3.969914122589335E8 ; 4.993259341364507E9 ; 0.0
34 ; 1.2642064417540656E7 ; 2.0064824315281716E8 ; 4.0962476450148463E8 ; 5.193894259807135E9 ; 0.0
35 ; 1.2651238275442027E7 ; 2.006616044599575E8 ; 4.222668289190253E8 ; 5.394542502959951E9 ; 0.0
36 ; 1.2664112086207705E7 ; 2.0067499748914188E8 ; 4.349180671944673E8 ; 5.595204107419909E9 ; 0.0
37 ; 1.2674913948971128E7 ; 2.0068841799186638E8 ; 4.47582179280675E8 ; 5.79587910490905E9 ; 0.0
38 ; 1.26856117747418E7 ; 2.007018622448815E8 ; 4.6025709322964615E8 ; 5.996567522900916E9 ; 0.0
39 ; 1.2698037807754228E7 ; 2.0071532696772018E8 ; 4.72942705004388E8 ; 6.197269385145798E9 ; 0.0
40 ; 1.270734235294322E7 ; 2.0072880925506634E8 ; 4.856407428121422E8 ; 6.397984712113518E9 ; 0.0
41 ; 1.271324246306167E7 ; 2.0074230652098665E8 ; 4.9834808516508543E8 ; 6.598713521368584E9 ; 0.0
42 ; 1.2720658387160162E7 ; 2.0075581645270103E8 ; 5.110613276281471E8 ; 6.79945582788957E9 ; 0.0
43 ; 1.2732204039766401E7 ; 2.0076933697206637E8 ; 5.237819860153073E8 ; 7.000211644342271E9 ; 0.0
44 ; 1.273962043335573E7 ; 2.0078286620333052E8 ; 5.3651419005507374E8 ; 7.200980981314337E9 ; 0.0
45 ; 1.2742421119804548E7 ; 2.0079640244601133E8 ; 5.492538104884294E8 ; 7.401763847517668E9 ; 0.0
46 ; 1.2752440502420463E7 ; 2.0080994415198475E8 ; 5.619962316082339E8 ; 7.602560249963679E9 ; 0.0
47 ; 1.2757891472729046E7 ; 2.0082348990604666E8 ; 5.747486721106544E8 ; 7.8033701941156645E9 ; 0.0
48 ; 1.2765459440770049E7 ; 2.008370384093554E8 ; 5.875065635833834E8 ; 8.004193684021711E9 ; 0.0
49 ; 1.2769501445634529E7 ; 2.008505884652732E8 ; 6.002720230241535E8 ; 8.2050307224310665E9 ; 0.0
50 ; 1.2770075258981308E7 ; 2.0086413896721375E8 ; 6.13041524469788E8 ; 8.405881310896339E9 ; 0.0
51 ; 1.2774776528832966E7 ; 2.0087768888817528E8 ; 6.258115997287693E8 ; 8.606745449863554E9 ; 0.0
52 ; 1.277666789737799E7 ; 2.0089123727169418E8 ; 6.385863762576022E8 ; 8.80762313875173E9 ; 0.0
53 ; 1.2780111344644593E7 ; 2.0090478322400108E8 ; 6.513630441549802E8 ; 9.008514376023424E9 ; 0.0
54 ; 1.2783130832784332E7 ; 2.0091832590719828E8 ; 6.641431554996247E8 ; 9.209419159247425E9 ; 0.0
55 ; 1.2789489446344813E7 ; 2.009318645333078E8 ; 6.76926286332409E8 ; 9.410337485154623E9 ; 0.0
56 ; 1.2792209307645418E7 ; 2.0094539835906392E8 ; 6.897157757787539E8 ; 9.611269349687931E9 ; 0.0
57 ; 1.279580075257502E7 ; 2.0095892668134463E8 ; 7.025079850863993E8 ; 9.812214748046995E9 ; 0.0
58 ; 1.279584722054911E7 ; 2.0097244883315268E8 ; 7.153037858389744E8 ; 1.001317367472834E10 ; 0.0
59 ; 1.2799135616675904E7 ; 2.009859641800716E8 ; 7.280996330595235E8 ; 1.0214146123561493E10 ; 0.0
60 ; 1.2803118434669208E7 ; 2.0099947211713213E8 ; 7.408987686761993E8 ; 1.0415132087741564E10 ; 0.0
61 ; 1.2804730963943271E7 ; 2.0101297206603587E8 ; 7.537018871108686E8 ; 1.0616131559858696E10 ; 0.0
62 ; 1.2805143110947585E7 ; 2.0102646347268912E8 ; 7.665066180748118E8 ; 1.0817144531924732E10 ; 0.0
63 ; 1.281017433138274E7 ; 2.0103994580500773E8 ; 7.793117611857594E8 ; 1.101817099539742E10 ; 0.0
64 ; 1.2809514820420472E7 ; 2.0105341855095917E8 ; 7.921219355171422E8 ; 1.1219210941202429E10 ; 0.0
65 ; 1.2812280986734657E7 ; 2.0106688121681243E8 ; 8.049314503375627E8 ; 1.1420264359753387E10 ; 0.0
66 ; 1.2814148925115524E7 ; 2.0108033332557073E8 ; 8.177437313242973E8 ; 1.16213312409702E10 ; 0.0
67 ; 1.2817502672189074E7 ; 2.0109377441556513E8 ; 8.305578802494128E8 ; 1.182241157429577E10 ; 0.0
68 ; 1.2816424411910098E7 ; 2.0110720403919065E8 ; 8.433753829216019E8 ; 1.2023505348711336E10 ; 0.0
69 ; 1.2821950689399436E7 ; 2.0112062176176772E8 ; 8.56191807333512E8 ; 1.2224612552750526E10 ; 0.0
70 ; 1.282099021504691E7 ; 2.0113402716051567E8 ; 8.690137580229114E8 ; 1.2425733174512295E10 ; 0.0
71 ; 1.281786911360923E7 ; 2.011474198236249E8 ; 8.818347482379583E8 ; 1.262686720167281E10 ; 0.0
72 ; 1.2820227313852154E7 ; 2.0116079934941754E8 ; 8.946526173515675E8 ; 1.2828014621496435E10 ; 0.0
73 ; 1.2823166298686126E7 ; 2.011741653455864E8 ; 9.074728446654197E8 ; 1.3029175420845852E10 ; 0.0
74 ; 1.2827073121190071E7 ; 2.0118751742850468E8 ; 9.202960109641058E8 ; 1.3230349586191439E10 ; 0.0
75 ; 1.2822978085503718E7 ; 2.01200855222598E8 ; 9.331230840852959E8 ; 1.3431537103619944E10 ; 0.0
76 ; 1.2823079340548307E7 ; 2.0121417835977316E8 ; 9.459460621707996E8 ; 1.363273795884254E10 ; 0.0
77 ; 1.2826303360030582E7 ; 2.0122748647889742E8 ; 9.587691415113479E8 ; 1.3833952137202314E10 ; 0.0
78 ; 1.2821795564052766E7 ; 2.0124077922532314E8 ; 9.715954448713784E8 ; 1.4035179623681211E10 ; 0.0
79 ; 1.281918993792455E7 ; 2.0125405625045347E8 ; 9.844172404354312E8 ; 1.4236420402906534E10 ; 0.0
80 ; 1.2813730556799969E7 ; 2.0126731721134514E8 ; 9.972364303733557E8 ; 1.4437674459156988E10 ; 0.0
81 ; 1.2810150958272992E7 ; 2.0128056177034444E8 ; 1.0100501609301558E9 ; 1.4638941776368334E10 ; 0.0
82 ; 1.2804293290516065E7 ; 2.0129378959475353E8 ; 1.0228603118884287E9 ; 1.4840222338138678E10 ; 0.0
83 ; 1.2801278863222905E7 ; 2.0130700035652417E8 ; 1.0356646051789447E9 ; 1.504151612773343E10 ; 0.0
84 ; 1.2796503932766901E7 ; 2.0132019373197603E8 ; 1.0484658840421677E9 ; 1.5242823128089954E10 ; 0.0
85 ; 1.2791384635239152E7 ; 2.0133336940153784E8 ; 1.0612623879749346E9 ; 1.544414332182193E10 ; 0.0
86 ; 1.279159374690457E7 ; 2.0134652704950884E8 ; 1.0740537726101737E9 ; 1.5645476691223467E10 ; 0.0
87 ; 1.2784152508811915E7 ; 2.01359666363839E8 ; 1.0868453663570783E9 ; 1.5846823218272976E10 ; 0.0
88 ; 1.2777811858234921E7 ; 2.013727870359263E8 ; 1.0996295188658903E9 ; 1.6048182884636814E10 ; 0.0
89 ; 1.2776148039293047E7 ; 2.013858887604294E8 ; 1.1124073307241251E9 ; 1.624955567167274E10 ; 0.0
90 ; 1.2768151560623866E7 ; 2.0139897123509467E8 ; 1.1251834787634182E9 ; 1.645094156043317E10 ; 0.0
91 ; 1.2761588872201681E7 ; 2.0141203416059604E8 ; 1.137951630324042E9 ; 1.6652340531668264E10 ; 0.0
92 ; 1.2759574374511182E7 ; 2.01425077240387E8 ; 1.1507132191962438E9 ; 1.6853752565828861E10 ; 0.0
93 ; 1.2754410218879063E7 ; 2.014381001805632E8 ; 1.163472793570755E9 ; 1.7055177643069248E10 ; 0.0
94 ; 1.2748929859876847E7 ; 2.0145110268973538E8 ; 1.176227203789634E9 ; 1.7256615743249813E10 ; 0.0
95 ; 1.27448311278642E7 ; 2.014640844789111E8 ; 1.1889761336495109E9 ; 1.745806684593955E10 ; 0.0
96 ; 1.2735640330040041E7 ; 2.0147704526138547E8 ; 1.201720964777375E9 ; 1.765953093041846E10 ; 0.0
97 ; 1.273213688645813E7 ; 2.0148998475263903E8 ; 1.214456605107415E9 ; 1.7861007975679848E10 ; 0.0
98 ; 1.272637516868606E7 ; 2.0150290267024338E8 ; 1.2271887419938731E9 ; 1.8062497960432487E10 ; 0.0
99 ; 1.2723223777988434E7 ; 2.0151579873377305E8 ; 1.2399151171625593E9 ; 1.826400086310273E10 ; 0.0
100 ; 1.271451456399037E7 ; 2.0152867266472366E8 ; 1.2526383409405477E9 ; 1.8465516661836502E10 ; 0.0
101 ; 1.2705946586929165E7 ; 2.015415241864356E8 ; 1.265352855504538E9 ; 1.8667045334501225E10 ; 0.0
102 ; 1.2703471715986844E7 ; 2.015543530240231E8 ; 1.2780588020914671E9 ; 1.886858685868766E10 ; 0.0
103 ; 1.269647675766461E7 ; 2.0156715890430778E8 ; 1.2907622738074539E9 ; 1.9070141211711685E10 ; 0.0
104 ; 1.2688011414138682E7 ; 2.015799415557573E8 ; 1.3034587505651186E9 ; 1.9271708370615993E10 ; 0.0
105 ; 1.268082509672699E7 ; 2.0159270070842746E8 ; 1.3161467619792573E9 ; 1.947328831217175E10 ; 0.0
106 ; 1.2674619534625242E7 ; 2.0160543609390843E8 ; 1.3288275870759842E9 ; 1.9674881012880177E10 ; 0.0
107 ; 1.2667916737071369E7 ; 2.016181474452748E8 ; 1.3415022066106095E9 ; 1.9876486448974087E10 ; 0.0
108 ; 1.26618181340142E7 ; 2.0163083449703857E8 ; 1.3541701233476808E9 ; 2.007810459641936E10 ; 0.0
109 ; 1.2651118853184354E7 ; 2.016434969851054E8 ; 1.366831941481695E9 ; 2.02797354309164E10 ; 0.0
110 ; 1.2645386994656887E7 ; 2.0165613464673367E8 ; 1.3794830603348794E9 ; 2.0481378927901505E10 ; 0.0
111 ; 1.2637887000347571E7 ; 2.0166874722049636E8 ; 1.3921284473295362E9 ; 2.0683035062548237E10 ; 0.0
112 ; 1.262649529441942E7 ; 2.016813344462451E8 ; 1.4047663343298838E9 ; 2.0884703809768734E10 ; 0.0
113 ; 1.2621504554122524E7 ; 2.01693896065077E8 ; 1.4173928296243033E9 ; 2.1086385144214977E10 ; 0.0
114 ; 1.2614292184886964E7 ; 2.0170643181930318E8 ; 1.4300143341784258E9 ; 2.1288079040280056E10 ; 0.0
115 ; 1.2604393130560502E7 ; 2.0171894145241967E8 ; 1.4426286263633127E9 ; 2.1489785472099358E10 ; 0.0
116 ; 1.2597311871204948E7 ; 2.0173142470907992E8 ; 1.4552330194938731E9 ; 2.1691504413551777E10 ; 0.0
117 ; 1.2585797717024501E7 ; 2.017438813350694E8 ; 1.467830331365078E9 ; 2.1893235838260857E10 ; 0.0
118 ; 1.2581818016080042E7 ; 2.0175631107728153E8 ; 1.4804161290821025E9 ; 2.2094979719595924E10 ; 0.0
119 ; 1.2573082683587065E7 ; 2.017687136836954E8 ; 1.4929979470981827E9 ; 2.2296736030673206E10 ; 0.0
120 ; 1.2562743069176842E7 ; 2.0178108890335476E8 ; 1.5055710297817698E9 ; 2.2498504744356903E10 ; 0.0
121 ; 1.2553674560697602E7 ; 2.017934364863484E8 ; 1.5181337728509467E9 ; 2.2700285833260258E10 ; 0.0
122 ; 1.2543774324996617E7 ; 2.0180575618379197E8 ; 1.5306874474116442E9 ; 2.2902079269746605E10 ; 0.0
123 ; 1.2534399571607437E7 ; 2.0181804774781078E8 ; 1.543231221736641E9 ; 2.3103885025930397E10 ; 0.0
124 ; 1.2525294169853922E7 ; 2.018303109315238E8 ; 1.5557656213082483E9 ; 2.3305703073678207E10 ; 0.0
125 ; 1.2518468130860902E7 ; 2.0184254548902878E8 ; 1.5682909154781022E9 ; 2.350753338460973E10 ; 0.0
126 ; 1.250785266569973E7 ; 2.018547511753882E8 ; 1.580809383608963E9 ; 2.370937593009876E10 ; 0.0
127 ; 1.2500438198869381E7 ; 2.0186692774661627E8 ; 1.5933172362746627E9 ; 2.3911230681274147E10 ; 0.0
128 ; 1.2483243920980616E7 ; 2.0187907495966685E8 ; 1.6058176744735322E9 ; 2.4113097609020763E10 ; 0.0
129 ; 1.2478645906663073E7 ; 2.0189119257242197E8 ; 1.618300918394513E9 ; 2.431497668398043E10 ; 0.0
130 ; 1.2467502625408389E7 ; 2.0190328034368142E8 ; 1.630779564301176E9 ; 2.4516867876552853E10 ; 0.0
131 ; 1.2452293510595193E7 ; 2.0191533803315282E8 ; 1.6432470669265845E9 ; 2.4718771156896534E10 ; 0.0
132 ; 1.2439974693278791E7 ; 2.019273654014424E8 ; 1.6556993604371796E9 ; 2.4920686494929688E10 ; 0.0
133 ; 1.2425947814966705E7 ; 2.0193936221004668E8 ; 1.6681393351304584E9 ; 2.512261386033113E10 ; 0.0
134 ; 1.2408492374210803E7 ; 2.019513282213444E8 ; 1.680565282945425E9 ; 2.5324553222541176E10 ; 0.0
135 ; 1.2397638044446558E7 ; 2.0196326319858932E8 ; 1.6929737753196359E9 ; 2.552650455076252E10 ; 0.0
136 ; 1.2381016872039925E7 ; 2.0197516690590334E8 ; 1.7053714133640823E9 ; 2.572846781396111E10 ; 0.0
137 ; 1.23673530608768E7 ; 2.0198703910827032E8 ; 1.7177524302361224E9 ; 2.5930442980867012E10 ; 0.0
138 ; 1.2353678644328928E7 ; 2.0199887957153016E8 ; 1.7301197832969992E9 ; 2.613243001997528E10 ; 0.0
139 ; 1.2338205476439252E7 ; 2.0201068806237367E8 ; 1.742473461941328E9 ; 2.633442889954681E10 ; 0.0
140 ; 1.2323783073589072E7 ; 2.020224643483375E8 ; 1.7548116674177673E9 ; 2.6536439587609184E10 ; 0.0
141 ; 1.2310069954022365E7 ; 2.0203420819779965E8 ; 1.7671354504913564E9 ; 2.6738462051957523E10 ; 0.0
142 ; 1.2291827823966468E7 ; 2.0204591937997556E8 ; 1.7794455204453788E9 ; 2.6940496260155323E10 ; 0.0
143 ; 1.2276162431987869E7 ; 2.020575976649141E8 ; 1.7917373482693453E9 ; 2.7142542179535297E10 ; 0.0
144 ; 1.226292949851836E7 ; 2.0206924282349437E8 ; 1.804013510701333E9 ; 2.734459977720021E10 ; 0.0
145 ; 1.2251178059755761E7 ; 2.0208085462742254E8 ; 1.8162764401998515E9 ; 2.7546669020023705E10 ; 0.0
146 ; 1.224157033309557E7 ; 2.0209243284922907E8 ; 1.8285276182596073E9 ; 2.7748749874651127E10 ; 0.0
147 ; 1.2231137823158998E7 ; 2.0210397726226637E8 ; 1.8407691885927029E9 ; 2.7950842307500355E10 ; 0.0
148 ; 1.2217032189756813E7 ; 2.021154876407064E8 ; 1.8530003264158618E9 ; 2.8152946284762623E10 ; 0.0
149 ; 1.2208915822577491E7 ; 2.0212696375953898E8 ; 1.8652173586056187E9 ; 2.8355061772403328E10 ; 0.0
150 ; 1.2197835223734617E7 ; 2.0213840539456987E8 ; 1.8774262744281962E9 ; 2.855718873616287E10 ; 0.0
151 ; 1.2188085316182915E7 ; 2.0214981232241952E8 ; 1.8896241096519308E9 ; 2.8759327141557438E10 ; 0.0
152 ; 1.2174781359418014E7 ; 2.0216118432052174E8 ; 1.9018121949681137E9 ; 2.8961476953879856E10 ; 0.0
153 ; 1.2163498128624765E7 ; 2.0217252116712275E8 ; 1.9139869763275316E9 ; 2.916363813820038E10 ; 0.0
154 ; 1.2155195652355196E7 ; 2.021838226412803E8 ; 1.9261504744561563E9 ; 2.93658106593675E10 ; 0.0
155 ; 1.2140103015139984E7 ; 2.021950885228631E8 ; 1.9383056701085114E9 ; 2.956799448200878E10 ; 0.0
156 ; 1.2129079884990526E7 ; 2.022063185925504E8 ; 1.9504457731236515E9 ; 2.9770189570531643E10 ; 0.0
157 ; 1.2116772837313836E7 ; 2.0221751263183168E8 ; 1.962574853008642E9 ; 2.9972395889124195E10 ; 0.0
158 ; 1.21073514784723E7 ; 2.022286704230066E8 ; 1.9746916258459558E9 ; 3.0174613401756027E10 ; 0.0
159 ; 1.2092184516791405E7 ; 2.0223979174918497E8 ; 1.986798977324428E9 ; 3.0376842072179035E10 ; 0.0
160 ; 1.2083701687296787E7 ; 2.0225087639428705E8 ; 1.9988911618412194E9 ; 3.057908186392822E10 ; 0.0
161 ; 1.207328779229802E7 ; 2.0226192414304382E8 ; 2.0109748635285163E9 ; 3.0781332740322506E10 ; 0.0
162 ; 1.2060280633080894E7 ; 2.0227293478099743E8 ; 2.0230481513208144E9 ; 3.098359466446555E10 ; 0.0
163 ; 1.2049015736871243E7 ; 2.022839080945019E8 ; 2.0351084319538953E9 ; 3.1185867599246548E10 ; 0.0
164 ; 1.2038730488853937E7 ; 2.0229484387072372E8 ; 2.0471574476907666E9 ; 3.138815150734105E10 ; 0.0
165 ; 1.2023649178692853E7 ; 2.023057418976427E8 ; 2.0591961781796205E9 ; 3.1590446351211773E10 ; 0.0
166 ; 1.2013333220248062E7 ; 2.0231660196405303E8 ; 2.0712198273583133E9 ; 3.1792752093109417E10 ; 0.0
167 ; 1.2001330879285397E7 ; 2.023274238595641E8 ; 2.0832331605785613E9 ; 3.199506869507347E10 ; 0.0
168 ; 1.1987876888511704E7 ; 2.0233820737460184E8 ; 2.0952344914578466E9 ; 3.2197396118933037E10 ; 0.0
169 ; 1.197775571587327E7 ; 2.0234895230040976E8 ; 2.1072223683463583E9 ; 3.239973432630764E10 ; 0.0
170 ; 1.196482026389944E7 ; 2.0235965842905045E8 ; 2.1192001240622315E9 ; 3.260208327860805E10 ; 0.0
171 ; 1.1952755960860115E7 ; 2.0237032555340683E8 ; 2.1311649443261309E9 ; 3.28044429370371E10 ; 0.0
172 ; 1.1939571291531777E7 ; 2.023809534671837E8 ; 2.143117700286991E9 ; 3.3006813262590508E10 ; 0.0
173 ; 1.1928049956747727E7 ; 2.0239154196490926E8 ; 2.1550572715785227E9 ; 3.320919421605769E10 ; 0.0
174 ; 1.19229993338574E7 ; 2.0240209084193668E8 ; 2.16698532153527E9 ; 3.34115857580226E10 ; 0.0
175 ; 1.19145725325104E7 ; 2.0241259989444587E8 ; 2.1789083208691278E9 ; 3.3613987848864536E10 ; 0.0
176 ; 1.1907869843393007E7 ; 2.0242306891944522E8 ; 2.190822893401638E9 ; 3.3816400448758984E10 ; 0.0
177 ; 1.1895734248677189E7 ; 2.0243349771477336E8 ; 2.202730763245031E9 ; 3.401882351767843E10 ; 0.0
178 ; 1.189275707602835E7 ; 2.02443886079101E8 ; 2.214626497493708E9 ; 3.4221257015393204E10 ; 0.0
179 ; 1.1888459578870302E7 ; 2.02454233811933E8 ; 2.2265192545697365E9 ; 3.4423700901472305E10 ; 0.0
180 ; 1.1876494723057637E7 ; 2.0246454071361014E8 ; 2.238407714148607E9 ; 3.462615513528424E10 ; 0.0
181 ; 1.1870744858506579E7 ; 2.0247480658531126E8 ; 2.2502842088716645E9 ; 3.482861967599785E10 ; 0.0
182 ; 1.1867472999204323E7 ; 2.0248503122905532E8 ; 2.262154953730171E9 ; 3.503109448258316E10 ; 0.0
183 ; 1.1857024741230534E7 ; 2.0249521444770348E8 ; 2.2740224267293754E9 ; 3.523357951381222E10 ; 0.0
184 ; 1.1850056419000518E7 ; 2.025053560449612E8 ; 2.285879451470606E9 ; 3.543607472825992E10 ; 0.0
185 ; 1.1842074731109055E7 ; 2.025154558253806E8 ; 2.2977295078896065E9 ; 3.563858008430488E10 ; 0.0
186 ; 1.1835740833711497E7 ; 2.025255135943624E8 ; 2.3095715826207156E9 ; 3.584109554013026E10 ; 0.0
187 ; 1.1826057411352364E7 ; 2.0253552915815845E8 ; 2.3214073234544272E9 ; 3.604362105372462E10 ; 0.0
188 ; 1.1820265754183307E7 ; 2.025455023238739E8 ; 2.3332333808657794E9 ; 3.6246156582882774E10 ; 0.0
189 ; 1.181472565790087E7 ; 2.025554328994695E8 ; 2.3450536466199627E9 ; 3.644870208520665E10 ; 0.0
190 ; 1.1806765830530843E7 ; 2.0256532069376394E8 ; 2.3568683722778635E9 ; 3.665125751810612E10 ; 0.0
191 ; 1.1799804052635886E7 ; 2.0257516551643628E8 ; 2.368675138108394E9 ; 3.685382283879988E10 ; 0.0
192 ; 1.1792379147035103E7 ; 2.025849671780284E8 ; 2.38047494216103E9 ; 3.7056398004316315E10 ; 0.0
193 ; 1.1786103171772253E7 ; 2.0259472548994723E8 ; 2.392267321308065E9 ; 3.725898297149435E10 ; 0.0
194 ; 1.1775229324569378E7 ; 2.0260444026446736E8 ; 2.4040534244798374E9 ; 3.746157769698429E10 ; 0.0
195 ; 1.1770891325144853E7 ; 2.0261411131473345E8 ; 2.4158286538044066E9 ; 3.766418213724876E10 ; 0.0
