CSV File for the City 1 on Day 4
1 - Minute m 
2 - Power Consumed at minute m 
3 - Power Produced at minute m 
4 - Energy Consumed since the beginning of the day 
5 - Energy Produced since the beginning of the day 
6 - Energy Lost since the beginning of the day on lines starting from the city
 
0 ; 1.185622627114693E7 ; 1.4131881407207556E7 ; 0.0 ; 0.0 ; 0.0
1 ; 1.1873509676333651E7 ; 1.4131881407207556E7 ; 1.185622627114693E7 ; 1.4131881407207556E7 ; 0.0
2 ; 1.188127392032448E7 ; 1.4131881407207556E7 ; 2.372973594748058E7 ; 2.8263762814415112E7 ; 0.0
3 ; 1.1896904354591798E7 ; 1.4131881407207556E7 ; 3.561100986780506E7 ; 4.239564422162267E7 ; 0.0
4 ; 1.1916310090687793E7 ; 1.4131881407207556E7 ; 4.7507914222396865E7 ; 5.6527525628830224E7 ; 0.0
5 ; 1.1938185629199546E7 ; 1.4131881407207556E7 ; 5.942422431308466E7 ; 7.065940703603777E7 ; 0.0
6 ; 1.196819392654286E7 ; 1.4131881407207556E7 ; 7.136240994228421E7 ; 8.479128844324532E7 ; 0.0
7 ; 1.200711882469026E7 ; 1.4131881407207556E7 ; 8.333060386882707E7 ; 9.892316985045287E7 ; 0.0
8 ; 1.2063523890104637E7 ; 1.4131881407207556E7 ; 9.533772269351733E7 ; 1.1305505125766042E8 ; 0.0
9 ; 1.215200663298379E7 ; 1.4131881407207556E7 ; 1.0740124658362196E8 ; 1.2718693266486797E8 ; 0.0
10 ; 1.228676239392207E7 ; 1.4131881407207556E7 ; 1.1955325321660575E8 ; 1.4131881407207552E8 ; 0.0
11 ; 1.2502395788111549E7 ; 1.4131881407207556E7 ; 1.3184001561052783E8 ; 1.5545069547928306E8 ; 0.0
12 ; 1.2850247200051822E7 ; 1.4131881407207556E7 ; 1.4434241139863938E8 ; 1.695825768864906E8 ; 0.0
13 ; 1.3181230928013995E7 ; 1.4131881407207556E7 ; 1.571926585986912E8 ; 1.8371445829369816E8 ; 0.0
14 ; 1.3217607276297074E7 ; 1.4131881407207556E7 ; 1.703738895267052E8 ; 1.978463397009057E8 ; 0.0
15 ; 1.3232683692105941E7 ; 1.4131881407207556E7 ; 1.8359149680300227E8 ; 2.1197822110811326E8 ; 0.0
16 ; 1.3250783917853933E7 ; 1.4131881407207556E7 ; 1.9682418049510822E8 ; 2.261101025153208E8 ; 0.0
17 ; 1.3263688057788663E7 ; 1.4131881407207556E7 ; 2.1007496441296214E8 ; 2.4024198392252836E8 ; 0.0
18 ; 1.3282686218088701E7 ; 1.4131881407207556E7 ; 2.233386524707508E8 ; 2.543738653297359E8 ; 0.0
19 ; 1.3292905910072412E7 ; 1.4131881407207556E7 ; 2.366213386888395E8 ; 2.685057467369435E8 ; 0.0
20 ; 1.331428395601867E7 ; 1.4131881407207556E7 ; 2.499142445989119E8 ; 2.8263762814415103E8 ; 0.0
21 ; 1.3329241859513532E7 ; 1.4131881407207556E7 ; 2.6322852855493057E8 ; 2.967695095513586E8 ; 0.0
22 ; 1.3343391362777906E7 ; 1.4131881407207556E7 ; 2.765577704144441E8 ; 3.109013909585661E8 ; 0.0
23 ; 1.3357824342620207E7 ; 1.4131881407207556E7 ; 2.89901161777222E8 ; 3.250332723657737E8 ; 0.0
24 ; 1.3376242256008629E7 ; 1.4131881407207556E7 ; 3.032589861198422E8 ; 3.391651537729812E8 ; 0.0
25 ; 1.3385947945997763E7 ; 1.4131881407207556E7 ; 3.166352283758508E8 ; 3.532970351801888E8 ; 0.0
26 ; 1.3406076183523986E7 ; 1.4131881407207556E7 ; 3.300211763218486E8 ; 3.674289165873963E8 ; 0.0
27 ; 1.3418570560380606E7 ; 1.4131881407207556E7 ; 3.434272525053726E8 ; 3.815607979946039E8 ; 0.0
28 ; 1.3437206732559761E7 ; 1.4131881407207556E7 ; 3.5684582306575316E8 ; 3.956926794018114E8 ; 0.0
29 ; 1.3452180929744195E7 ; 1.4131881407207556E7 ; 3.702830297983129E8 ; 4.0982456080901897E8 ; 0.0
30 ; 1.346495231203264E7 ; 1.4131881407207556E7 ; 3.837352107280571E8 ; 4.239564422162265E8 ; 0.0
31 ; 1.3479434489914741E7 ; 1.4131881407207556E7 ; 3.972001630400897E8 ; 4.3808832362343407E8 ; 0.0
32 ; 1.3492007435957715E7 ; 1.4131881407207556E7 ; 4.1067959753000444E8 ; 4.522202050306416E8 ; 0.0
33 ; 1.3506658757357968E7 ; 1.4131881407207556E7 ; 4.241716049659622E8 ; 4.6635208643784916E8 ; 0.0
34 ; 1.351993453280613E7 ; 1.4131881407207556E7 ; 4.376782637233201E8 ; 4.804839678450567E8 ; 0.0
35 ; 1.3531004511883073E7 ; 1.4131881407207556E7 ; 4.511981982561263E8 ; 4.9461584925226426E8 ; 0.0
36 ; 1.3545937295385912E7 ; 1.4131881407207556E7 ; 4.6472920276800936E8 ; 5.087477306594718E8 ; 0.0
37 ; 1.3555401660030942E7 ; 1.4131881407207556E7 ; 4.7827514006339526E8 ; 5.2287961206667936E8 ; 0.0
38 ; 1.3567221639546594E7 ; 1.4131881407207556E7 ; 4.918305417234262E8 ; 5.37011493473887E8 ; 0.0
39 ; 1.3581987412843782E7 ; 1.4131881407207556E7 ; 5.053977633629728E8 ; 5.511433748810946E8 ; 0.0
40 ; 1.3588730269810341E7 ; 1.4131881407207556E7 ; 5.1897975077581656E8 ; 5.652752562883022E8 ; 0.0
41 ; 1.3599001007414168E7 ; 1.4131881407207556E7 ; 5.325684810456269E8 ; 5.794071376955098E8 ; 0.0
42 ; 1.360577181656101E7 ; 1.4131881407207556E7 ; 5.461674820530411E8 ; 5.935390191027174E8 ; 0.0
43 ; 1.361528272004845E7 ; 1.4131881407207556E7 ; 5.597732538696021E8 ; 6.07670900509925E8 ; 0.0
44 ; 1.3624971774170348E7 ; 1.4131881407207556E7 ; 5.733885365896505E8 ; 6.218027819171326E8 ; 0.0
45 ; 1.3632641977704354E7 ; 1.4131881407207556E7 ; 5.870135083638209E8 ; 6.359346633243402E8 ; 0.0
46 ; 1.3640332061572444E7 ; 1.4131881407207556E7 ; 6.006461503415253E8 ; 6.500665447315478E8 ; 0.0
47 ; 1.3648094377195539E7 ; 1.4131881407207556E7 ; 6.142864824030977E8 ; 6.641984261387554E8 ; 0.0
48 ; 1.3650381069602385E7 ; 1.4131881407207556E7 ; 6.279345767802933E8 ; 6.78330307545963E8 ; 0.0
49 ; 1.365959446208009E7 ; 1.4131881407207556E7 ; 6.415849578498957E8 ; 6.924621889531707E8 ; 0.0
50 ; 1.36661642590187E7 ; 1.4131881407207556E7 ; 6.552445523119758E8 ; 7.065940703603783E8 ; 0.0
51 ; 1.3668823895603715E7 ; 1.4131881407207556E7 ; 6.689107165709945E8 ; 7.207259517675859E8 ; 0.0
52 ; 1.3671536436447665E7 ; 1.4131881407207556E7 ; 6.825795404665982E8 ; 7.348578331747935E8 ; 0.0
53 ; 1.3674257192178212E7 ; 1.4131881407207556E7 ; 6.962510769030458E8 ; 7.489897145820011E8 ; 0.0
54 ; 1.367903045535408E7 ; 1.4131881407207556E7 ; 7.09925334095224E8 ; 7.631215959892087E8 ; 0.0
55 ; 1.3681255095682578E7 ; 1.4131881407207556E7 ; 7.236043645505781E8 ; 7.772534773964163E8 ; 0.0
56 ; 1.3681593985136447E7 ; 1.4131881407207556E7 ; 7.372856196462607E8 ; 7.913853588036239E8 ; 0.0
57 ; 1.3689609583323391E7 ; 1.4131881407207556E7 ; 7.509672136313971E8 ; 8.055172402108315E8 ; 0.0
58 ; 1.3686826299994513E7 ; 1.4131881407207556E7 ; 7.646568232147205E8 ; 8.196491216180391E8 ; 0.0
59 ; 1.3695733992378978E7 ; 1.4131881407207556E7 ; 7.78343649514715E8 ; 8.337810030252467E8 ; 0.0
60 ; 1.3694919816894252E7 ; 1.4131881407207556E7 ; 7.920393835070939E8 ; 8.479128844324543E8 ; 0.0
61 ; 1.3700475133052824E7 ; 1.4131881407207556E7 ; 8.057343033239882E8 ; 8.62044765839662E8 ; 0.0
62 ; 1.3702445263526088E7 ; 1.4131881407207556E7 ; 8.19434778457041E8 ; 8.761766472468696E8 ; 0.0
63 ; 1.3704175150919987E7 ; 1.4131881407207556E7 ; 8.331372237205671E8 ; 8.903085286540772E8 ; 0.0
64 ; 1.3707347628244828E7 ; 1.4131881407207556E7 ; 8.468413988714871E8 ; 9.044404100612848E8 ; 0.0
65 ; 1.3708516850815868E7 ; 1.4131881407207556E7 ; 8.60548746499732E8 ; 9.185722914684924E8 ; 0.0
66 ; 1.3711596968607621E7 ; 1.4131881407207556E7 ; 8.742572633505479E8 ; 9.327041728757E8 ; 0.0
67 ; 1.3711381198357742E7 ; 1.4131881407207556E7 ; 8.879688603191556E8 ; 9.468360542829076E8 ; 0.0
68 ; 1.3715335965265399E7 ; 1.4131881407207556E7 ; 9.016802415175133E8 ; 9.609679356901152E8 ; 0.0
69 ; 1.3716209123222813E7 ; 1.4131881407207556E7 ; 9.153955774827787E8 ; 9.750998170973228E8 ; 0.0
70 ; 1.3719258102324637E7 ; 1.4131881407207556E7 ; 9.291117866060015E8 ; 9.892316985045304E8 ; 0.0
71 ; 1.372056862620325E7 ; 1.4131881407207556E7 ; 9.428310447083261E8 ; 1.003363579911738E9 ; 0.0
72 ; 1.3719248978951817E7 ; 1.4131881407207556E7 ; 9.565516133345294E8 ; 1.0174954613189456E9 ; 0.0
73 ; 1.3721517558762968E7 ; 1.4131881407207556E7 ; 9.702708623134812E8 ; 1.0316273427261533E9 ; 0.0
74 ; 1.3723140705084994E7 ; 1.4131881407207556E7 ; 9.839923798722441E8 ; 1.0457592241333609E9 ; 0.0
75 ; 1.3724483691433592E7 ; 1.4131881407207556E7 ; 9.977155205773292E8 ; 1.0598911055405685E9 ; 0.0
76 ; 1.3722863252813108E7 ; 1.4131881407207556E7 ; 1.0114400042687627E9 ; 1.074022986947776E9 ; 0.0
77 ; 1.372170354371189E7 ; 1.4131881407207556E7 ; 1.0251628675215758E9 ; 1.0881548683549836E9 ; 0.0
78 ; 1.3717904646572514E7 ; 1.4131881407207556E7 ; 1.0388845710652877E9 ; 1.102286749762191E9 ; 0.0
79 ; 1.3715699073011663E7 ; 1.4131881407207556E7 ; 1.0526024757118602E9 ; 1.1164186311693985E9 ; 0.0
80 ; 1.3713235841178583E7 ; 1.4131881407207556E7 ; 1.0663181747848718E9 ; 1.130550512576606E9 ; 0.0
81 ; 1.3711210719813652E7 ; 1.4131881407207556E7 ; 1.0800314106260505E9 ; 1.1446823939838135E9 ; 0.0
82 ; 1.370613387828446E7 ; 1.4131881407207556E7 ; 1.093742621345864E9 ; 1.158814275391021E9 ; 0.0
83 ; 1.3699107476346418E7 ; 1.4131881407207556E7 ; 1.1074487552241485E9 ; 1.1729461567982285E9 ; 0.0
84 ; 1.3697621202303156E7 ; 1.4131881407207556E7 ; 1.121147862700495E9 ; 1.187078038205436E9 ; 0.0
85 ; 1.3694695277712092E7 ; 1.4131881407207556E7 ; 1.1348454839027982E9 ; 1.2012099196126435E9 ; 0.0
86 ; 1.3687822587436698E7 ; 1.4131881407207556E7 ; 1.1485401791805103E9 ; 1.215341801019851E9 ; 0.0
87 ; 1.368691903912245E7 ; 1.4131881407207556E7 ; 1.162228001767947E9 ; 1.2294736824270585E9 ; 0.0
88 ; 1.3680868568580126E7 ; 1.4131881407207556E7 ; 1.1759149208070693E9 ; 1.243605563834266E9 ; 0.0
89 ; 1.3674078090319889E7 ; 1.4131881407207556E7 ; 1.1895957893756495E9 ; 1.2577374452414734E9 ; 0.0
90 ; 1.3670414636489518E7 ; 1.4131881407207556E7 ; 1.2032698674659693E9 ; 1.271869326648681E9 ; 0.0
91 ; 1.3662851766796496E7 ; 1.4131881407207556E7 ; 1.216940282102459E9 ; 1.2860012080558884E9 ; 0.0
92 ; 1.3657836432030572E7 ; 1.4131881407207556E7 ; 1.2306031338692555E9 ; 1.300133089463096E9 ; 0.0
93 ; 1.3653357763184264E7 ; 1.4131881407207556E7 ; 1.2442609703012862E9 ; 1.3142649708703034E9 ; 0.0
94 ; 1.3649253620861046E7 ; 1.4131881407207556E7 ; 1.2579143280644705E9 ; 1.328396852277511E9 ; 0.0
95 ; 1.3642339037271313E7 ; 1.4131881407207556E7 ; 1.2715635816853316E9 ; 1.3425287336847184E9 ; 0.0
96 ; 1.3637159274472345E7 ; 1.4131881407207556E7 ; 1.2852059207226028E9 ; 1.3566606150919259E9 ; 0.0
97 ; 1.3630266635214342E7 ; 1.4131881407207556E7 ; 1.298843079997075E9 ; 1.3707924964991333E9 ; 0.0
98 ; 1.3624132079311369E7 ; 1.4131881407207556E7 ; 1.3124733466322894E9 ; 1.3849243779063408E9 ; 0.0
99 ; 1.361847604916694E7 ; 1.4131881407207556E7 ; 1.3260974787116008E9 ; 1.3990562593135483E9 ; 0.0
100 ; 1.3608437905082926E7 ; 1.4131881407207556E7 ; 1.3397159547607677E9 ; 1.4131881407207558E9 ; 0.0
101 ; 1.3602063202096332E7 ; 1.4131881407207556E7 ; 1.3533243926658506E9 ; 1.4273200221279633E9 ; 0.0
102 ; 1.3596981629415404E7 ; 1.4131881407207556E7 ; 1.3669264558679469E9 ; 1.4414519035351708E9 ; 0.0
103 ; 1.358750316720534E7 ; 1.4131881407207556E7 ; 1.3805234374973624E9 ; 1.4555837849423783E9 ; 0.0
104 ; 1.3582181271561196E7 ; 1.4131881407207556E7 ; 1.3941109406645677E9 ; 1.4697156663495858E9 ; 0.0
105 ; 1.3578796406569142E7 ; 1.4131881407207556E7 ; 1.4076931219361289E9 ; 1.4838475477567933E9 ; 0.0
106 ; 1.3567994657426007E7 ; 1.4131881407207556E7 ; 1.421271918342698E9 ; 1.4979794291640007E9 ; 0.0
107 ; 1.356215094478975E7 ; 1.4131881407207556E7 ; 1.4348399130001242E9 ; 1.5121113105712082E9 ; 0.0
108 ; 1.3554221950383013E7 ; 1.4131881407207556E7 ; 1.4484020639449139E9 ; 1.5262431919784157E9 ; 0.0
109 ; 1.3544132168443503E7 ; 1.4131881407207556E7 ; 1.4619562858952968E9 ; 1.5403750733856232E9 ; 0.0
110 ; 1.3538687419236207E7 ; 1.4131881407207556E7 ; 1.4755004180637403E9 ; 1.5545069547928307E9 ; 0.0
111 ; 1.353166817463602E7 ; 1.4131881407207556E7 ; 1.4890391054829764E9 ; 1.5686388362000382E9 ; 0.0
112 ; 1.3520123012385497E7 ; 1.4131881407207556E7 ; 1.5025707736576126E9 ; 1.5827707176072457E9 ; 0.0
113 ; 1.3516152990931233E7 ; 1.4131881407207556E7 ; 1.5160908966699982E9 ; 1.5969025990144532E9 ; 0.0
114 ; 1.3506743405898957E7 ; 1.4131881407207556E7 ; 1.5296070496609294E9 ; 1.6110344804216607E9 ; 0.0
115 ; 1.3495987922471931E7 ; 1.4131881407207556E7 ; 1.5431137930668285E9 ; 1.6251663618288682E9 ; 0.0
116 ; 1.3490727723305069E7 ; 1.4131881407207556E7 ; 1.5566097809893005E9 ; 1.6392982432360756E9 ; 0.0
117 ; 1.3480920472446976E7 ; 1.4131881407207556E7 ; 1.5701005087126055E9 ; 1.6534301246432831E9 ; 0.0
118 ; 1.3472920610990038E7 ; 1.4131881407207556E7 ; 1.5835814291850524E9 ; 1.6675620060504906E9 ; 0.0
119 ; 1.3464675128236264E7 ; 1.4131881407207556E7 ; 1.5970543497960424E9 ; 1.681693887457698E9 ; 0.0
120 ; 1.3454814587697309E7 ; 1.4131881407207556E7 ; 1.6105190249242787E9 ; 1.6958257688649056E9 ; 0.0
121 ; 1.3443724077738235E7 ; 1.4131881407207556E7 ; 1.623973839511976E9 ; 1.709957650272113E9 ; 0.0
122 ; 1.343771190101224E7 ; 1.4131881407207556E7 ; 1.6374175635897143E9 ; 1.7240895316793206E9 ; 0.0
123 ; 1.3422659030730776E7 ; 1.4131881407207556E7 ; 1.6508552754907265E9 ; 1.738221413086528E9 ; 0.0
124 ; 1.3417015574995792E7 ; 1.4131881407207556E7 ; 1.6642779345214572E9 ; 1.7523532944937356E9 ; 0.0
125 ; 1.3404809576590301E7 ; 1.4131881407207556E7 ; 1.677694950096453E9 ; 1.766485175900943E9 ; 0.0
126 ; 1.3398489032274574E7 ; 1.4131881407207556E7 ; 1.6910997596730433E9 ; 1.7806170573081505E9 ; 0.0
127 ; 1.3384432361951943E7 ; 1.4131881407207556E7 ; 1.7044982487053177E9 ; 1.794748938715358E9 ; 0.0
128 ; 1.337741697485498E7 ; 1.4131881407207556E7 ; 1.7178826810672696E9 ; 1.8088808201225655E9 ; 0.0
129 ; 1.336480914704892E7 ; 1.4131881407207556E7 ; 1.7312600980421245E9 ; 1.823012701529773E9 ; 0.0
130 ; 1.3349479415839136E7 ; 1.4131881407207556E7 ; 1.7446249071891735E9 ; 1.8371445829369805E9 ; 0.0
131 ; 1.3335129274557851E7 ; 1.4131881407207556E7 ; 1.7579743866050127E9 ; 1.851276464344188E9 ; 0.0
132 ; 1.332401736462812E7 ; 1.4131881407207556E7 ; 1.7713095158795705E9 ; 1.8654083457513955E9 ; 0.0
133 ; 1.3310119257280428E7 ; 1.4131881407207556E7 ; 1.7846335332441986E9 ; 1.879540227158603E9 ; 0.0
134 ; 1.3294883065329572E7 ; 1.4131881407207556E7 ; 1.797943652501479E9 ; 1.8936721085658104E9 ; 0.0
135 ; 1.32762781508191E7 ; 1.4131881407207556E7 ; 1.8112385355668085E9 ; 1.907803989973018E9 ; 0.0
136 ; 1.3262351771996647E7 ; 1.4131881407207556E7 ; 1.8245148137176275E9 ; 1.9219358713802254E9 ; 0.0
137 ; 1.3246021518439164E7 ; 1.4131881407207556E7 ; 1.8377771654896243E9 ; 1.936067752787433E9 ; 0.0
138 ; 1.3233699279727159E7 ; 1.4131881407207556E7 ; 1.8510231870080633E9 ; 1.9501996341946404E9 ; 0.0
139 ; 1.3216385661916083E7 ; 1.4131881407207556E7 ; 1.8642568862877905E9 ; 1.964331515601848E9 ; 0.0
140 ; 1.3201970001259206E7 ; 1.4131881407207556E7 ; 1.8774732719497066E9 ; 1.9784633970090554E9 ; 0.0
141 ; 1.3183592309341127E7 ; 1.4131881407207556E7 ; 1.8906752419509656E9 ; 1.9925952784162629E9 ; 0.0
142 ; 1.3165916513025077E7 ; 1.4131881407207556E7 ; 1.9038588342603068E9 ; 2.0067271598234704E9 ; 0.0
143 ; 1.315003669521251E7 ; 1.4131881407207556E7 ; 1.9170247507733319E9 ; 2.0208590412306778E9 ; 0.0
144 ; 1.3136509252042912E7 ; 1.4131881407207556E7 ; 1.9301747874685445E9 ; 2.0349909226378853E9 ; 0.0
145 ; 1.3125757677822696E7 ; 1.4131881407207556E7 ; 1.9433112967205875E9 ; 2.0491228040450928E9 ; 0.0
146 ; 1.3113258029268527E7 ; 1.4131881407207556E7 ; 1.95643705439841E9 ; 2.0632546854523003E9 ; 0.0
147 ; 1.3102534769551162E7 ; 1.4131881407207556E7 ; 1.9695503124276786E9 ; 2.0773865668595078E9 ; 0.0
148 ; 1.3091260927466298E7 ; 1.4131881407207556E7 ; 1.9826528471972299E9 ; 2.0915184482667153E9 ; 0.0
149 ; 1.3079205464847358E7 ; 1.4131881407207556E7 ; 1.9957441081246963E9 ; 2.1056503296739228E9 ; 0.0
150 ; 1.3070780206800088E7 ; 1.4131881407207556E7 ; 2.0088233135895436E9 ; 2.1197822110811303E9 ; 0.0
151 ; 1.3057517287899327E7 ; 1.4131881407207556E7 ; 2.0218940937963436E9 ; 2.1339140924883378E9 ; 0.0
152 ; 1.3045839860393636E7 ; 1.4131881407207556E7 ; 2.0349516110842428E9 ; 2.1480459738955455E9 ; 0.0
153 ; 1.3035676907005934E7 ; 1.4131881407207556E7 ; 2.0479974509446363E9 ; 2.162177855302753E9 ; 0.0
154 ; 1.3025439460050803E7 ; 1.4131881407207556E7 ; 2.0610331278516424E9 ; 2.1763097367099605E9 ; 0.0
155 ; 1.3011969199199133E7 ; 1.4131881407207556E7 ; 2.0740585673116932E9 ; 2.190441618117168E9 ; 0.0
156 ; 1.299716435328336E7 ; 1.4131881407207556E7 ; 2.0870705365108924E9 ; 2.2045734995243754E9 ; 0.0
157 ; 1.2988375946934795E7 ; 1.4131881407207556E7 ; 2.1000677008641758E9 ; 2.218705380931583E9 ; 0.0
158 ; 1.2977249565369304E7 ; 1.4131881407207556E7 ; 2.1130560768111105E9 ; 2.2328372623387904E9 ; 0.0
159 ; 1.2963863836166771E7 ; 1.4131881407207556E7 ; 2.1260333263764799E9 ; 2.246969143745998E9 ; 0.0
160 ; 1.2952382463508014E7 ; 1.4131881407207556E7 ; 2.1389971902126467E9 ; 2.2611010251532054E9 ; 0.0
161 ; 1.2942228642273782E7 ; 1.4131881407207556E7 ; 2.1519495726761546E9 ; 2.275232906560413E9 ; 0.0
162 ; 1.2933495552801196E7 ; 1.4131881407207556E7 ; 2.1648918013184285E9 ; 2.2893647879676204E9 ; 0.0
163 ; 1.291764388108407E7 ; 1.4131881407207556E7 ; 2.1778252968712296E9 ; 2.303496669374828E9 ; 0.0
164 ; 1.2908669612158794E7 ; 1.4131881407207556E7 ; 2.1907429407523136E9 ; 2.3176285507820354E9 ; 0.0
165 ; 1.289258788268983E7 ; 1.4131881407207556E7 ; 2.2036516103644724E9 ; 2.331760432189243E9 ; 0.0
166 ; 1.288137861799703E7 ; 1.4131881407207556E7 ; 2.2165441982471623E9 ; 2.3458923135964503E9 ; 0.0
167 ; 1.286975897433358E7 ; 1.4131881407207556E7 ; 2.2294255768651595E9 ; 2.360024195003658E9 ; 0.0
168 ; 1.286068374739731E7 ; 1.4131881407207556E7 ; 2.2422953358394933E9 ; 2.3741560764108653E9 ; 0.0
169 ; 1.2843145887799354E7 ; 1.4131881407207556E7 ; 2.2551560195868907E9 ; 2.388287957818073E9 ; 0.0
170 ; 1.2832522869710037E7 ; 1.4131881407207556E7 ; 2.26799916547469E9 ; 2.4024198392252803E9 ; 0.0
171 ; 1.2821646424885713E7 ; 1.4131881407207556E7 ; 2.2808316883444E9 ; 2.416551720632488E9 ; 0.0
172 ; 1.281002978576642E7 ; 1.4131881407207556E7 ; 2.2936533347692857E9 ; 2.4306836020396953E9 ; 0.0
173 ; 1.2798357376429774E7 ; 1.4131881407207556E7 ; 2.3064633645550523E9 ; 2.4448154834469028E9 ; 0.0
174 ; 1.2787906030528184E7 ; 1.4131881407207556E7 ; 2.319261721931482E9 ; 2.4589473648541102E9 ; 0.0
175 ; 1.2781024459173901E7 ; 1.4131881407207556E7 ; 2.33204962796201E9 ; 2.4730792462613177E9 ; 0.0
176 ; 1.2771722013888253E7 ; 1.4131881407207556E7 ; 2.3448306524211836E9 ; 2.487211127668525E9 ; 0.0
177 ; 1.2765774568546332E7 ; 1.4131881407207556E7 ; 2.357602374435072E9 ; 2.5013430090757327E9 ; 0.0
178 ; 1.275797344421992E7 ; 1.4131881407207556E7 ; 2.3703681490036182E9 ; 2.51547489048294E9 ; 0.0
179 ; 1.2752350191835588E7 ; 1.4131881407207556E7 ; 2.3831261224478383E9 ; 2.5296067718901477E9 ; 0.0
180 ; 1.2743591423974533E7 ; 1.4131881407207556E7 ; 2.3958784726396737E9 ; 2.543738653297355E9 ; 0.0
181 ; 1.2736553106109029E7 ; 1.4131881407207556E7 ; 2.408622064063648E9 ; 2.5578705347045627E9 ; 0.0
182 ; 1.2728506303014785E7 ; 1.4131881407207556E7 ; 2.4213586171697574E9 ; 2.57200241611177E9 ; 0.0
183 ; 1.2719791307452379E7 ; 1.4131881407207556E7 ; 2.434087123472772E9 ; 2.5861342975189776E9 ; 0.0
184 ; 1.2713189126289196E7 ; 1.4131881407207556E7 ; 2.4468069147802243E9 ; 2.600266178926185E9 ; 0.0
185 ; 1.2708247054158257E7 ; 1.4131881407207556E7 ; 2.4595201039065137E9 ; 2.6143980603333926E9 ; 0.0
186 ; 1.2697534186587278E7 ; 1.4131881407207556E7 ; 2.472228350960672E9 ; 2.6285299417406E9 ; 0.0
187 ; 1.2693383203146342E7 ; 1.4131881407207556E7 ; 2.484925885147259E9 ; 2.6426618231478076E9 ; 0.0
188 ; 1.268198330824948E7 ; 1.4131881407207556E7 ; 2.4976192683504057E9 ; 2.656793704555015E9 ; 0.0
189 ; 1.2675551845984776E7 ; 1.4131881407207556E7 ; 2.510301251658655E9 ; 2.6709255859622226E9 ; 0.0
190 ; 1.2666378453393074E7 ; 1.4131881407207556E7 ; 2.52297680350464E9 ; 2.68505746736943E9 ; 0.0
191 ; 1.2660588189104168E7 ; 1.4131881407207556E7 ; 2.535643181958033E9 ; 2.6991893487766376E9 ; 0.0
192 ; 1.2649752590733942E7 ; 1.4131881407207556E7 ; 2.548303770147137E9 ; 2.713321230183845E9 ; 0.0
193 ; 1.2644221533941614E7 ; 1.4131881407207556E7 ; 2.560953522737871E9 ; 2.7274531115910525E9 ; 0.0
194 ; 1.2634779878629109E7 ; 1.4131881407207556E7 ; 2.573597744271813E9 ; 2.74158499299826E9 ; 0.0
195 ; 1.2626686054312494E7 ; 1.4131881407207556E7 ; 2.586232524150442E9 ; 2.7557168744054675E9 ; 0.0
196 ; 1.2620520220690789E7 ; 1.4131881407207556E7 ; 2.598859210204755E9 ; 2.769848755812675E9 ; 0.0
