CSV File for the City 1 on Day 2
1 - Minute m 
2 - Power Consumed at minute m 
3 - Power Produced at minute m 
4 - Energy Consumed since the beginning of the day 
5 - Energy Produced since the beginning of the day 
6 - Energy Lost since the beginning of the day on lines starting from the city
 
0 ; 1.1862630918190233E7 ; 1.4051899904028734E7 ; 0.0 ; 0.0 ; 0.0
1 ; 1.1872851896846978E7 ; 1.4051899904028734E7 ; 1.1862630918190233E7 ; 1.4051899904028734E7 ; 0.0
2 ; 1.1888831266575105E7 ; 1.4051899904028734E7 ; 2.3735482815037213E7 ; 2.810379980805747E7 ; 0.0
3 ; 1.1900817314373745E7 ; 1.4051899904028734E7 ; 3.562431408161232E7 ; 4.21556997120862E7 ; 0.0
4 ; 1.1915905032696601E7 ; 1.4051899904028734E7 ; 4.7525131395986065E7 ; 5.620759961611494E7 ; 0.0
5 ; 1.1939254001200289E7 ; 1.4051899904028734E7 ; 5.944103642868267E7 ; 7.025949952014367E7 ; 0.0
6 ; 1.1974447076348836E7 ; 1.4051899904028734E7 ; 7.138029042988296E7 ; 8.43113994241724E7 ; 0.0
7 ; 1.2008786102020541E7 ; 1.4051899904028734E7 ; 8.33547375062318E7 ; 9.836329932820113E7 ; 0.0
8 ; 1.2065699035636922E7 ; 1.4051899904028734E7 ; 9.536352360825235E7 ; 1.1241519923222986E8 ; 0.0
9 ; 1.2155946481917927E7 ; 1.4051899904028734E7 ; 1.0742922264388926E8 ; 1.2646709913625859E8 ; 0.0
10 ; 1.2291167295527538E7 ; 1.4051899904028734E7 ; 1.195851691258072E8 ; 1.4051899904028732E8 ; 0.0
11 ; 1.2505019407912266E7 ; 1.4051899904028734E7 ; 1.3187633642133473E8 ; 1.5457089894431606E8 ; 0.0
12 ; 1.2852582757654818E7 ; 1.4051899904028734E7 ; 1.44381355829247E8 ; 1.686227988483448E8 ; 0.0
13 ; 1.3186265440204643E7 ; 1.4051899904028734E7 ; 1.572339385869018E8 ; 1.8267469875237355E8 ; 0.0
14 ; 1.3223202232908767E7 ; 1.4051899904028734E7 ; 1.7042020402710646E8 ; 1.967265986564023E8 ; 0.0
15 ; 1.323619758972249E7 ; 1.4051899904028734E7 ; 1.8364340626001522E8 ; 2.1077849856043103E8 ; 0.0
16 ; 1.3251884339725329E7 ; 1.4051899904028734E7 ; 1.968796038497377E8 ; 2.2483039846445978E8 ; 0.0
17 ; 1.3269874884293014E7 ; 1.4051899904028734E7 ; 2.1013148818946302E8 ; 2.3888229836848852E8 ; 0.0
18 ; 1.3285888065208958E7 ; 1.4051899904028734E7 ; 2.2340136307375604E8 ; 2.5293419827251726E8 ; 0.0
19 ; 1.3301074561641064E7 ; 1.4051899904028734E7 ; 2.36687251138965E8 ; 2.66986098176546E8 ; 0.0
20 ; 1.331692876347922E7 ; 1.4051899904028734E7 ; 2.4998832570060608E8 ; 2.8103799808057475E8 ; 0.0
21 ; 1.3333991389315614E7 ; 1.4051899904028734E7 ; 2.633052544640853E8 ; 2.9508989798460346E8 ; 0.0
22 ; 1.3347250509033425E7 ; 1.4051899904028734E7 ; 2.7663924585340095E8 ; 3.091417978886322E8 ; 0.0
23 ; 1.3363211385780381E7 ; 1.4051899904028734E7 ; 2.899864963624344E8 ; 3.231936977926609E8 ; 0.0
24 ; 1.3376863740531757E7 ; 1.4051899904028734E7 ; 3.033497077482148E8 ; 3.372455976966896E8 ; 0.0
25 ; 1.3390016073010141E7 ; 1.4051899904028734E7 ; 3.167265714887465E8 ; 3.512974976007183E8 ; 0.0
26 ; 1.3409911149019295E7 ; 1.4051899904028734E7 ; 3.301165875617567E8 ; 3.6534939750474703E8 ; 0.0
27 ; 1.342437593554852E7 ; 1.4051899904028734E7 ; 3.43526498710776E8 ; 3.7940129740877575E8 ; 0.0
28 ; 1.3438425237060092E7 ; 1.4051899904028734E7 ; 3.569508746463245E8 ; 3.9345319731280446E8 ; 0.0
29 ; 1.3453375379334953E7 ; 1.4051899904028734E7 ; 3.703892998833846E8 ; 4.075050972168332E8 ; 0.0
30 ; 1.3470075406572416E7 ; 1.4051899904028734E7 ; 3.838426752627195E8 ; 4.215569971208619E8 ; 0.0
31 ; 1.3484577723933697E7 ; 1.4051899904028734E7 ; 3.973127506692919E8 ; 4.356088970248906E8 ; 0.0
32 ; 1.3496205890274718E7 ; 1.4051899904028734E7 ; 4.107973283932256E8 ; 4.496607969289193E8 ; 0.0
33 ; 1.350971387787737E7 ; 1.4051899904028734E7 ; 4.242935342835003E8 ; 4.63712696832948E8 ; 0.0
34 ; 1.3523050605742352E7 ; 1.4051899904028734E7 ; 4.3780324816137767E8 ; 4.7776459673697674E8 ; 0.0
35 ; 1.3538875030652488E7 ; 1.4051899904028734E7 ; 4.5132629876712E8 ; 4.9181649664100546E8 ; 0.0
36 ; 1.3551614933569465E7 ; 1.4051899904028734E7 ; 4.6486517379777247E8 ; 5.0586839654503417E8 ; 0.0
37 ; 1.3561968486143816E7 ; 1.4051899904028734E7 ; 4.7841678873134196E8 ; 5.199202964490629E8 ; 0.0
38 ; 1.3573154268161029E7 ; 1.4051899904028734E7 ; 4.919787572174858E8 ; 5.339721963530916E8 ; 0.0
39 ; 1.3581295830323579E7 ; 1.4051899904028734E7 ; 5.0555191148564684E8 ; 5.480240962571204E8 ; 0.0
40 ; 1.3593333546932498E7 ; 1.4051899904028734E7 ; 5.191332073159704E8 ; 5.620759961611491E8 ; 0.0
41 ; 1.360489856859665E7 ; 1.4051899904028734E7 ; 5.3272654086290294E8 ; 5.761278960651779E8 ; 0.0
42 ; 1.3612515385247398E7 ; 1.4051899904028734E7 ; 5.463314394314996E8 ; 5.901797959692067E8 ; 0.0
43 ; 1.3619124540981447E7 ; 1.4051899904028734E7 ; 5.59943954816747E8 ; 6.042316958732355E8 ; 0.0
44 ; 1.3634551095124474E7 ; 1.4051899904028734E7 ; 5.735630793577284E8 ; 6.182835957772642E8 ; 0.0
45 ; 1.3638469314465094E7 ; 1.4051899904028734E7 ; 5.871976304528528E8 ; 6.32335495681293E8 ; 0.0
46 ; 1.3641717394143665E7 ; 1.4051899904028734E7 ; 6.008360997673179E8 ; 6.463873955853218E8 ; 0.0
47 ; 1.3651474639752993E7 ; 1.4051899904028734E7 ; 6.144778171614616E8 ; 6.604392954893506E8 ; 0.0
48 ; 1.3656878023132471E7 ; 1.4051899904028734E7 ; 6.281292918012146E8 ; 6.744911953933793E8 ; 0.0
49 ; 1.366254653012864E7 ; 1.4051899904028734E7 ; 6.41786169824347E8 ; 6.885430952974081E8 ; 0.0
50 ; 1.3667832563698547E7 ; 1.4051899904028734E7 ; 6.554487163544756E8 ; 7.025949952014369E8 ; 0.0
51 ; 1.3667013316648029E7 ; 1.4051899904028734E7 ; 6.691165489181741E8 ; 7.166468951054657E8 ; 0.0
52 ; 1.3674294907026187E7 ; 1.4051899904028734E7 ; 6.827835622348222E8 ; 7.306987950094944E8 ; 0.0
53 ; 1.3676997430901518E7 ; 1.4051899904028734E7 ; 6.964578571418483E8 ; 7.447506949135232E8 ; 0.0
54 ; 1.3683331058124503E7 ; 1.4051899904028734E7 ; 7.101348545727499E8 ; 7.58802594817552E8 ; 0.0
55 ; 1.3685066764534447E7 ; 1.4051899904028734E7 ; 7.238181856308744E8 ; 7.728544947215807E8 ; 0.0
56 ; 1.3689139765069349E7 ; 1.4051899904028734E7 ; 7.375032523954089E8 ; 7.869063946256095E8 ; 0.0
57 ; 1.3692483036511425E7 ; 1.4051899904028734E7 ; 7.511923921604782E8 ; 8.009582945296383E8 ; 0.0
58 ; 1.3698586304877661E7 ; 1.4051899904028734E7 ; 7.648848751969897E8 ; 8.150101944336671E8 ; 0.0
59 ; 1.369989120526428E7 ; 1.4051899904028734E7 ; 7.785834615018673E8 ; 8.290620943376958E8 ; 0.0
60 ; 1.3701767101099085E7 ; 1.4051899904028734E7 ; 7.922833527071316E8 ; 8.431139942417246E8 ; 0.0
61 ; 1.3705769334424369E7 ; 1.4051899904028734E7 ; 8.059851198082308E8 ; 8.571658941457534E8 ; 0.0
62 ; 1.370874338310017E7 ; 1.4051899904028734E7 ; 8.196908891426551E8 ; 8.712177940497822E8 ; 0.0
63 ; 1.3708170888816494E7 ; 1.4051899904028734E7 ; 8.333996325257553E8 ; 8.852696939538109E8 ; 0.0
64 ; 1.3708908370298885E7 ; 1.4051899904028734E7 ; 8.471078034145718E8 ; 8.993215938578397E8 ; 0.0
65 ; 1.3715229299859295E7 ; 1.4051899904028734E7 ; 8.608167117848706E8 ; 9.133734937618685E8 ; 0.0
66 ; 1.371428085442292E7 ; 1.4051899904028734E7 ; 8.745319410847299E8 ; 9.274253936658973E8 ; 0.0
67 ; 1.3720868945345588E7 ; 1.4051899904028734E7 ; 8.882462219391528E8 ; 9.41477293569926E8 ; 0.0
68 ; 1.3720121903308127E7 ; 1.4051899904028734E7 ; 9.019670908844985E8 ; 9.555291934739548E8 ; 0.0
69 ; 1.3719709611150268E7 ; 1.4051899904028734E7 ; 9.156872127878066E8 ; 9.695810933779836E8 ; 0.0
70 ; 1.3723017688092172E7 ; 1.4051899904028734E7 ; 9.294069223989569E8 ; 9.836329932820123E8 ; 0.0
71 ; 1.3723949116599228E7 ; 1.4051899904028734E7 ; 9.43129940087049E8 ; 9.976848931860411E8 ; 0.0
72 ; 1.3726859572639508E7 ; 1.4051899904028734E7 ; 9.568538892036482E8 ; 1.0117367930900699E9 ; 0.0
73 ; 1.3725199988284932E7 ; 1.4051899904028734E7 ; 9.705807487762877E8 ; 1.0257886929940987E9 ; 0.0
74 ; 1.3732182536579553E7 ; 1.4051899904028734E7 ; 9.843059487645726E8 ; 1.0398405928981274E9 ; 0.0
75 ; 1.3723686899577089E7 ; 1.4051899904028734E7 ; 9.980381313011522E8 ; 1.0538924928021562E9 ; 0.0
76 ; 1.3728932432229826E7 ; 1.4051899904028734E7 ; 1.0117618182007294E9 ; 1.067944392706185E9 ; 0.0
77 ; 1.3728899484404085E7 ; 1.4051899904028734E7 ; 1.0254907506329592E9 ; 1.0819962926102138E9 ; 0.0
78 ; 1.3726923370130118E7 ; 1.4051899904028734E7 ; 1.0392196501173633E9 ; 1.0960481925142424E9 ; 0.0
79 ; 1.372347344714597E7 ; 1.4051899904028734E7 ; 1.0529465734874934E9 ; 1.110100092418271E9 ; 0.0
80 ; 1.3717817665560596E7 ; 1.4051899904028734E7 ; 1.0666700469346393E9 ; 1.1241519923222997E9 ; 0.0
81 ; 1.3715423286929373E7 ; 1.4051899904028734E7 ; 1.0803878646002E9 ; 1.1382038922263284E9 ; 0.0
82 ; 1.3711365624399526E7 ; 1.4051899904028734E7 ; 1.0941032878871293E9 ; 1.152255792130357E9 ; 0.0
83 ; 1.3706857562031867E7 ; 1.4051899904028734E7 ; 1.1078146535115287E9 ; 1.1663076920343857E9 ; 0.0
84 ; 1.3702054262273861E7 ; 1.4051899904028734E7 ; 1.1215215110735607E9 ; 1.1803595919384143E9 ; 0.0
85 ; 1.3697969899449602E7 ; 1.4051899904028734E7 ; 1.1352235653358345E9 ; 1.194411491842443E9 ; 0.0
86 ; 1.3694793120520309E7 ; 1.4051899904028734E7 ; 1.148921535235284E9 ; 1.2084633917464716E9 ; 0.0
87 ; 1.369535307221729E7 ; 1.4051899904028734E7 ; 1.1626163283558044E9 ; 1.2225152916505003E9 ; 0.0
88 ; 1.368497221648984E7 ; 1.4051899904028734E7 ; 1.1763116814280217E9 ; 1.236567191554529E9 ; 0.0
89 ; 1.3680745419787535E7 ; 1.4051899904028734E7 ; 1.1899966536445115E9 ; 1.2506190914585576E9 ; 0.0
90 ; 1.3677197900666157E7 ; 1.4051899904028734E7 ; 1.203677399064299E9 ; 1.2646709913625863E9 ; 0.0
91 ; 1.3669282862894017E7 ; 1.4051899904028734E7 ; 1.2173545969649653E9 ; 1.278722891266615E9 ; 0.0
92 ; 1.366620768494041E7 ; 1.4051899904028734E7 ; 1.2310238798278594E9 ; 1.2927747911706436E9 ; 0.0
93 ; 1.3659309007835548E7 ; 1.4051899904028734E7 ; 1.2446900875127997E9 ; 1.3068266910746722E9 ; 0.0
94 ; 1.3656078788225299E7 ; 1.4051899904028734E7 ; 1.2583493965206354E9 ; 1.3208785909787009E9 ; 0.0
95 ; 1.3647440862316098E7 ; 1.4051899904028734E7 ; 1.2720054753088608E9 ; 1.3349304908827295E9 ; 0.0
96 ; 1.3641937482244954E7 ; 1.4051899904028734E7 ; 1.285652916171177E9 ; 1.3489823907867582E9 ; 0.0
97 ; 1.363809254494426E7 ; 1.4051899904028734E7 ; 1.2992948536534219E9 ; 1.3630342906907868E9 ; 0.0
98 ; 1.3630122931572948E7 ; 1.4051899904028734E7 ; 1.3129329461983662E9 ; 1.3770861905948155E9 ; 0.0
99 ; 1.3622333318646306E7 ; 1.4051899904028734E7 ; 1.326563069129939E9 ; 1.3911380904988441E9 ; 0.0
100 ; 1.3616275495682076E7 ; 1.4051899904028734E7 ; 1.3401854024485853E9 ; 1.4051899904028728E9 ; 0.0
101 ; 1.3610497926055754E7 ; 1.4051899904028734E7 ; 1.3538016779442673E9 ; 1.4192418903069015E9 ; 0.0
102 ; 1.360730581540428E7 ; 1.4051899904028734E7 ; 1.367412175870323E9 ; 1.43329379021093E9 ; 0.0
103 ; 1.3595250795296768E7 ; 1.4051899904028734E7 ; 1.3810194816857271E9 ; 1.4473456901149588E9 ; 0.0
104 ; 1.3587375103298482E7 ; 1.4051899904028734E7 ; 1.3946147324810238E9 ; 1.4613975900189874E9 ; 0.0
105 ; 1.3582456397505436E7 ; 1.4051899904028734E7 ; 1.4082021075843222E9 ; 1.475449489923016E9 ; 0.0
106 ; 1.3577046092627702E7 ; 1.4051899904028734E7 ; 1.4217845639818277E9 ; 1.4895013898270447E9 ; 0.0
107 ; 1.3567023130818427E7 ; 1.4051899904028734E7 ; 1.4353616100744555E9 ; 1.5035532897310734E9 ; 0.0
108 ; 1.356101302068547E7 ; 1.4051899904028734E7 ; 1.4489286332052739E9 ; 1.517605189635102E9 ; 0.0
109 ; 1.355268528111587E7 ; 1.4051899904028734E7 ; 1.4624896462259593E9 ; 1.5316570895391307E9 ; 0.0
110 ; 1.3544927810859658E7 ; 1.4051899904028734E7 ; 1.476042331507075E9 ; 1.5457089894431593E9 ; 0.0
111 ; 1.3540389184397409E7 ; 1.4051899904028734E7 ; 1.4895872593179348E9 ; 1.559760889347188E9 ; 0.0
112 ; 1.3529630489795735E7 ; 1.4051899904028734E7 ; 1.5031276485023322E9 ; 1.5738127892512167E9 ; 0.0
113 ; 1.352155589227784E7 ; 1.4051899904028734E7 ; 1.516657278992128E9 ; 1.5878646891552453E9 ; 0.0
114 ; 1.3512890604875714E7 ; 1.4051899904028734E7 ; 1.5301788348844059E9 ; 1.601916589059274E9 ; 0.0
115 ; 1.3505675788515115E7 ; 1.4051899904028734E7 ; 1.5436917254892817E9 ; 1.6159684889633026E9 ; 0.0
116 ; 1.3497768490497015E7 ; 1.4051899904028734E7 ; 1.5571974012777967E9 ; 1.6300203888673313E9 ; 0.0
117 ; 1.3491038447536224E7 ; 1.4051899904028734E7 ; 1.5706951697682939E9 ; 1.64407228877136E9 ; 0.0
118 ; 1.3476648212998426E7 ; 1.4051899904028734E7 ; 1.58418620821583E9 ; 1.6581241886753886E9 ; 0.0
119 ; 1.3468449965052059E7 ; 1.4051899904028734E7 ; 1.5976628564288285E9 ; 1.6721760885794172E9 ; 0.0
120 ; 1.3463015700127555E7 ; 1.4051899904028734E7 ; 1.6111313063938806E9 ; 1.686227988483446E9 ; 0.0
121 ; 1.345187828491639E7 ; 1.4051899904028734E7 ; 1.6245943220940082E9 ; 1.7002798883874745E9 ; 0.0
122 ; 1.3442930234212356E7 ; 1.4051899904028734E7 ; 1.6380462003789246E9 ; 1.7143317882915032E9 ; 0.0
123 ; 1.3433220127096662E7 ; 1.4051899904028734E7 ; 1.651489130613137E9 ; 1.7283836881955318E9 ; 0.0
124 ; 1.3424009259612372E7 ; 1.4051899904028734E7 ; 1.6649223507402337E9 ; 1.7424355880995605E9 ; 0.0
125 ; 1.3411387775683774E7 ; 1.4051899904028734E7 ; 1.678346359999846E9 ; 1.7564874880035892E9 ; 0.0
126 ; 1.3403197392436009E7 ; 1.4051899904028734E7 ; 1.6917577477755299E9 ; 1.7705393879076178E9 ; 0.0
127 ; 1.3393481682358636E7 ; 1.4051899904028734E7 ; 1.705160945167966E9 ; 1.7845912878116465E9 ; 0.0
128 ; 1.3384330010494608E7 ; 1.4051899904028734E7 ; 1.7185544268503246E9 ; 1.798643187715675E9 ; 0.0
129 ; 1.337855888966597E7 ; 1.4051899904028734E7 ; 1.7319387568608193E9 ; 1.8126950876197038E9 ; 0.0
130 ; 1.3362350124317609E7 ; 1.4051899904028734E7 ; 1.7453173157504854E9 ; 1.8267469875237324E9 ; 0.0
131 ; 1.3347558470311547E7 ; 1.4051899904028734E7 ; 1.758679665874803E9 ; 1.840798887427761E9 ; 0.0
132 ; 1.3332826907255592E7 ; 1.4051899904028734E7 ; 1.7720272243451147E9 ; 1.8548507873317897E9 ; 0.0
133 ; 1.331515550205231E7 ; 1.4051899904028734E7 ; 1.7853600512523704E9 ; 1.8689026872358184E9 ; 0.0
134 ; 1.3303497646720009E7 ; 1.4051899904028734E7 ; 1.7986752067544227E9 ; 1.882954587139847E9 ; 0.0
135 ; 1.3286141650476785E7 ; 1.4051899904028734E7 ; 1.8119787044011426E9 ; 1.8970064870438757E9 ; 0.0
136 ; 1.3273258904293418E7 ; 1.4051899904028734E7 ; 1.8252648460516193E9 ; 1.9110583869479043E9 ; 0.0
137 ; 1.3258156596466245E7 ; 1.4051899904028734E7 ; 1.8385381049559126E9 ; 1.925110286851933E9 ; 0.0
138 ; 1.3239857773361066E7 ; 1.4051899904028734E7 ; 1.851796261552379E9 ; 1.9391621867559617E9 ; 0.0
139 ; 1.3225223878671112E7 ; 1.4051899904028734E7 ; 1.8650361193257399E9 ; 1.9532140866599903E9 ; 0.0
140 ; 1.3210047504911203E7 ; 1.4051899904028734E7 ; 1.878261343204411E9 ; 1.967265986564019E9 ; 0.0
141 ; 1.3194109140610531E7 ; 1.4051899904028734E7 ; 1.8914713907093222E9 ; 1.9813178864680476E9 ; 0.0
142 ; 1.3177946651668783E7 ; 1.4051899904028734E7 ; 1.9046654998499327E9 ; 1.9953697863720763E9 ; 0.0
143 ; 1.3163678857905306E7 ; 1.4051899904028734E7 ; 1.9178434465016015E9 ; 2.009421686276105E9 ; 0.0
144 ; 1.314808232173535E7 ; 1.4051899904028734E7 ; 1.9310071253595068E9 ; 2.0234735861801336E9 ; 0.0
145 ; 1.3136094102530098E7 ; 1.4051899904028734E7 ; 1.9441552076812422E9 ; 2.0375254860841622E9 ; 0.0
146 ; 1.3126960737892143E7 ; 1.4051899904028734E7 ; 1.9572913017837722E9 ; 2.051577385988191E9 ; 0.0
147 ; 1.3109684354285548E7 ; 1.4051899904028734E7 ; 1.9704182625216644E9 ; 2.0656292858922195E9 ; 0.0
148 ; 1.3102454762364082E7 ; 1.4051899904028734E7 ; 1.9835279468759499E9 ; 2.0796811857962482E9 ; 0.0
149 ; 1.3091266525518836E7 ; 1.4051899904028734E7 ; 1.996630401638314E9 ; 2.0937330857002769E9 ; 0.0
150 ; 1.3079738591533773E7 ; 1.4051899904028734E7 ; 2.009721668163833E9 ; 2.1077849856043055E9 ; 0.0
151 ; 1.306790749281205E7 ; 1.4051899904028734E7 ; 2.0228014067553666E9 ; 2.1218368855083342E9 ; 0.0
152 ; 1.3053823288392708E7 ; 1.4051899904028734E7 ; 2.0358693142481787E9 ; 2.1358887854123628E9 ; 0.0
153 ; 1.3045588885181371E7 ; 1.4051899904028734E7 ; 2.0489231375365715E9 ; 2.1499406853163915E9 ; 0.0
154 ; 1.3034472176841239E7 ; 1.4051899904028734E7 ; 2.061968726421753E9 ; 2.1639925852204204E9 ; 0.0
155 ; 1.3018704375759644E7 ; 1.4051899904028734E7 ; 2.0750031985985942E9 ; 2.1780444851244493E9 ; 0.0
156 ; 1.3011055862690423E7 ; 1.4051899904028734E7 ; 2.0880219029743538E9 ; 2.192096385028478E9 ; 0.0
157 ; 1.2997687926278643E7 ; 1.4051899904028734E7 ; 2.1010329588370442E9 ; 2.206148284932507E9 ; 0.0
158 ; 1.2990595177903252E7 ; 1.4051899904028734E7 ; 2.1140306467633228E9 ; 2.220200184836536E9 ; 0.0
159 ; 1.2979972260751775E7 ; 1.4051899904028734E7 ; 2.127021241941226E9 ; 2.234252084740565E9 ; 0.0
160 ; 1.2966593233879996E7 ; 1.4051899904028734E7 ; 2.1400012142019777E9 ; 2.2483039846445937E9 ; 0.0
161 ; 1.2953160340278583E7 ; 1.4051899904028734E7 ; 2.152967807435858E9 ; 2.2623558845486226E9 ; 0.0
162 ; 1.2939347205200523E7 ; 1.4051899904028734E7 ; 2.1659209677761364E9 ; 2.2764077844526515E9 ; 0.0
163 ; 1.2930262714591904E7 ; 1.4051899904028734E7 ; 2.178860314981337E9 ; 2.2904596843566804E9 ; 0.0
164 ; 1.2915829356756138E7 ; 1.4051899904028734E7 ; 2.191790577695929E9 ; 2.3045115842607093E9 ; 0.0
165 ; 1.2909106459873645E7 ; 1.4051899904028734E7 ; 2.2047064070526853E9 ; 2.318563484164738E9 ; 0.0
166 ; 1.2889005070082672E7 ; 1.4051899904028734E7 ; 2.217615513512559E9 ; 2.332615384068767E9 ; 0.0
167 ; 1.287784973133361E7 ; 1.4051899904028734E7 ; 2.2305045185826416E9 ; 2.346667283972796E9 ; 0.0
168 ; 1.2869371396781126E7 ; 1.4051899904028734E7 ; 2.2433823683139753E9 ; 2.360719183876825E9 ; 0.0
169 ; 1.2861266413993474E7 ; 1.4051899904028734E7 ; 2.2562517397107563E9 ; 2.3747710837808537E9 ; 0.0
170 ; 1.2844043657347174E7 ; 1.4051899904028734E7 ; 2.2691130061247497E9 ; 2.3888229836848826E9 ; 0.0
171 ; 1.2831824739423223E7 ; 1.4051899904028734E7 ; 2.281957049782097E9 ; 2.4028748835889115E9 ; 0.0
172 ; 1.2820763262424458E7 ; 1.4051899904028734E7 ; 2.29478887452152E9 ; 2.4169267834929404E9 ; 0.0
173 ; 1.2806269708368843E7 ; 1.4051899904028734E7 ; 2.3076096377839446E9 ; 2.4309786833969693E9 ; 0.0
174 ; 1.2802476539451566E7 ; 1.4051899904028734E7 ; 2.3204159074923134E9 ; 2.445030583300998E9 ; 0.0
175 ; 1.279195533054025E7 ; 1.4051899904028734E7 ; 2.333218384031765E9 ; 2.459082483205027E9 ; 0.0
176 ; 1.2787013543467576E7 ; 1.4051899904028734E7 ; 2.346010339362305E9 ; 2.473134383109056E9 ; 0.0
177 ; 1.2777734068481524E7 ; 1.4051899904028734E7 ; 2.3587973529057727E9 ; 2.487186283013085E9 ; 0.0
178 ; 1.2771275646602236E7 ; 1.4051899904028734E7 ; 2.371575086974254E9 ; 2.501238182917114E9 ; 0.0
179 ; 1.2762282580079295E7 ; 1.4051899904028734E7 ; 2.3843463626208563E9 ; 2.5152900828211427E9 ; 0.0
180 ; 1.2756288666238444E7 ; 1.4051899904028734E7 ; 2.3971086452009354E9 ; 2.5293419827251716E9 ; 0.0
181 ; 1.2750865310293484E7 ; 1.4051899904028734E7 ; 2.4098649338671737E9 ; 2.5433938826292005E9 ; 0.0
182 ; 1.273928870550568E7 ; 1.4051899904028734E7 ; 2.4226157991774673E9 ; 2.5574457825332294E9 ; 0.0
183 ; 1.2734278283863533E7 ; 1.4051899904028734E7 ; 2.435355087882973E9 ; 2.5714976824372582E9 ; 0.0
184 ; 1.272531971148773E7 ; 1.4051899904028734E7 ; 2.4480893661668367E9 ; 2.585549582341287E9 ; 0.0
185 ; 1.2713259320303584E7 ; 1.4051899904028734E7 ; 2.4608146858783245E9 ; 2.599601482245316E9 ; 0.0
186 ; 1.2708000426621007E7 ; 1.4051899904028734E7 ; 2.473527945198628E9 ; 2.613653382149345E9 ; 0.0
187 ; 1.2702649157694126E7 ; 1.4051899904028734E7 ; 2.486235945625249E9 ; 2.627705282053374E9 ; 0.0
188 ; 1.2698040498086723E7 ; 1.4051899904028734E7 ; 2.4989385947829432E9 ; 2.6417571819574027E9 ; 0.0
189 ; 1.2686199189279703E7 ; 1.4051899904028734E7 ; 2.51163663528103E9 ; 2.6558090818614316E9 ; 0.0
190 ; 1.2678294717281574E7 ; 1.4051899904028734E7 ; 2.5243228344703097E9 ; 2.6698609817654605E9 ; 0.0
191 ; 1.267101530842032E7 ; 1.4051899904028734E7 ; 2.537001129187591E9 ; 2.6839128816694894E9 ; 0.0
192 ; 1.2664268897406965E7 ; 1.4051899904028734E7 ; 2.5496721444960113E9 ; 2.6979647815735183E9 ; 0.0
193 ; 1.2656754536466716E7 ; 1.4051899904028734E7 ; 2.5623364133934183E9 ; 2.712016681477547E9 ; 0.0
194 ; 1.2649169127064167E7 ; 1.4051899904028734E7 ; 2.574993167929885E9 ; 2.726068581381576E9 ; 0.0
195 ; 1.2640421668027405E7 ; 1.4051899904028734E7 ; 2.587642337056949E9 ; 2.740120481285605E9 ; 0.0
