CSV File for the City 3 on Day 316
1 - Minute m 
2 - Power Consumed at minute m 
3 - Power Produced at minute m 
4 - Energy Consumed since the beginning of the day 
5 - Energy Produced since the beginning of the day 
6 - Energy Lost since the beginning of the day on lines starting from the city
 
0 ; 2406546.0548442877 ; 1.0579040117416748E8 ; 0.0 ; 0.0 ; 0.0
1 ; 2409287.9599363487 ; 1.0594325584227157E8 ; 2406546.0548442877 ; 1.0579040117416748E8 ; 0.0
2 ; 2412749.804387751 ; 1.0640490362416676E8 ; 4815834.014780637 ; 2.1173365701643905E8 ; 0.0
3 ; 2417066.6004958525 ; 1.071753455742439E8 ; 7228583.819168388 ; 3.181385606406058E8 ; 0.0
4 ; 2419580.205264431 ; 1.0825458263210672E8 ; 9645650.419664241 ; 4.253139062148497E8 ; 0.0
5 ; 2422922.806498371 ; 1.0964261561919367E8 ; 1.2065230624928672E7 ; 5.3356848884695643E8 ; 0.0
6 ; 2429441.294600108 ; 1.1133944523578808E8 ; 1.4488153431427043E7 ; 6.4321110446615E8 ; 0.0
7 ; 2437723.4817950907 ; 1.1334507205844355E8 ; 1.691759472602715E7 ; 7.545505497019382E8 ; 0.0
8 ; 2449154.179268754 ; 1.1565949653784478E8 ; 1.935531820782224E7 ; 8.678956217603817E8 ; 0.0
9 ; 2466791.3258630103 ; 1.1828271899712503E8 ; 2.1804472387090996E7 ; 9.835551182982265E8 ; 0.0
10 ; 2491682.6958209877 ; 1.2121473963065243E8 ; 2.4271263712954007E7 ; 1.1018378372953515E9 ; 0.0
11 ; 2533740.1542560006 ; 1.244555585032979E8 ; 2.6762946408774994E7 ; 1.223052576926004E9 ; 0.0
12 ; 2600709.783956547 ; 1.2800517555019048E8 ; 2.9296686563030995E7 ; 1.3475081354293017E9 ; 0.0
13 ; 2663635.6427794225 ; 1.3186359057696205E8 ; 3.189739634698754E7 ; 1.4755133109794922E9 ; 0.0
14 ; 2671268.777752623 ; 1.3603080326047945E8 ; 3.456103198976696E7 ; 1.6073769015564542E9 ; 0.0
15 ; 2674867.480313566 ; 1.4050681315005785E8 ; 3.7232300767519586E7 ; 1.7434077048169336E9 ; 0.0
16 ; 2677277.544029805 ; 1.4529161966914377E8 ; 3.9907168247833155E7 ; 1.8839145179669914E9 ; 0.0
17 ; 2682083.545473154 ; 1.5038522211745378E8 ; 4.258444579186296E7 ; 2.029206137636135E9 ; 0.0
18 ; 2683580.804361976 ; 1.5578761967354947E8 ; 4.526652933733611E7 ; 2.1795913597535887E9 ; 0.0
19 ; 2686599.9996569054 ; 1.6149881139782712E8 ; 4.7950110141698085E7 ; 2.3353789794271383E9 ; 0.0
20 ; 2690304.056860641 ; 1.6751879623589584E8 ; 5.063671014135499E7 ; 2.4968777908249655E9 ; 0.0
21 ; 2692747.022319721 ; 1.7384757302231684E8 ; 5.332701419821563E7 ; 2.664396587060861E9 ; 0.0
22 ; 2696917.3172412394 ; 1.804851404846725E8 ; 5.601976122053535E7 ; 2.838244160083178E9 ; 0.0
23 ; 2701527.372838832 ; 1.8743149724793297E8 ; 5.871667853777659E7 ; 3.0187293005678506E9 ; 0.0
24 ; 2703676.5054095145 ; 1.9468664183908612E8 ; 6.141820591061542E7 ; 3.2061607978157835E9 ; 0.0
25 ; 2705053.9396105884 ; 2.0093861359017903E8 ; 6.412188241602494E7 ; 3.4008474396548696E9 ; 0.0
26 ; 2710146.158449088 ; 2.0094095868026438E8 ; 6.6826936355635524E7 ; 3.6017860532450485E9 ; 0.0
27 ; 2714271.6411234695 ; 2.0094344466551065E8 ; 6.95370825140846E7 ; 3.802727011925313E9 ; 0.0
28 ; 2717090.48100761 ; 2.0094606973130226E8 ; 7.225135415520808E7 ; 4.0036704565908237E9 ; 0.0
29 ; 2718916.1886789245 ; 2.0094883199089858E8 ; 7.496844463621569E7 ; 4.204616526322126E9 ; 0.0
30 ; 2721538.935070185 ; 2.0095172949089947E8 ; 7.76873608248946E7 ; 4.4055653583130245E9 ; 0.0
31 ; 2724648.499916369 ; 2.0095476021673018E8 ; 8.04088997599648E7 ; 4.606517087803924E9 ; 0.0
32 ; 2728244.8180598915 ; 2.0095792209811416E8 ; 8.313354825988117E7 ; 4.807471848020654E9 ; 0.0
33 ; 2731045.959203095 ; 2.009612130145053E8 ; 8.586179307794106E7 ; 5.008429770118768E9 ; 0.0
34 ; 2734919.4369898397 ; 2.0096463080045155E8 ; 8.859283903714415E7 ; 5.209390983133273E9 ; 0.0
35 ; 2735934.4642897667 ; 2.0096817325086576E8 ; 9.1327758474134E7 ; 5.410355613933724E9 ; 0.0
36 ; 2739200.493926721 ; 2.0097183812618056E8 ; 9.406369293842377E7 ; 5.61132378718459E9 ; 0.0
37 ; 2742142.335684171 ; 2.0097562315736732E8 ; 9.680289343235049E7 ; 5.812295625310771E9 ; 0.0
38 ; 2744348.698734428 ; 2.009795260508012E8 ; 9.954503576803465E7 ; 6.013271248468139E9 ; 0.0
39 ; 2746936.0850813994 ; 2.0098354449295643E8 ; 1.0228938446676908E8 ; 6.21425077451894E9 ; 0.0
40 ; 2749384.0415308094 ; 2.0098767615491968E8 ; 1.0503632055185048E8 ; 6.415234319011896E9 ; 0.0
41 ; 2751785.9886582266 ; 2.0099191869670933E8 ; 1.0778570459338129E8 ; 6.616221995166816E9 ; 0.0
42 ; 2753598.8222241784 ; 2.0099626977139306E8 ; 1.105374905820395E8 ; 6.817213913863525E9 ; 0.0
43 ; 2755961.96923156 ; 2.010007270289968E8 ; 1.1329108940426369E8 ; 7.018210183634918E9 ; 0.0
44 ; 2759505.7603021613 ; 2.010052881202003E8 ; 1.1604705137349525E8 ; 7.219210910663915E9 ; 0.0
45 ; 2760098.890676909 ; 2.0100995069981712E8 ; 1.188065571337974E8 ; 7.420216198784115E9 ; 0.0
46 ; 2761845.2093177373 ; 2.0101471243005723E8 ; 1.2156665602447432E8 ; 7.621226149483932E9 ; 0.0
47 ; 2762343.774807887 ; 2.010195709835734E8 ; 1.2432850123379207E8 ; 7.822240861913989E9 ; 0.0
48 ; 2765703.682912446 ; 2.0102452404629302E8 ; 1.2709084500859995E8 ; 8.023260432897562E9 ; 0.0
49 ; 2766578.2851295564 ; 2.0102956932003823E8 ; 1.2985654869151239E8 ; 8.224284956943855E9 ; 0.0
50 ; 2765770.162904166 ; 2.0103470452493906E8 ; 1.3262312697664195E8 ; 8.425314526263893E9 ; 0.0
51 ; 2766756.3501015007 ; 2.0103992740164435E8 ; 1.3538889713954613E8 ; 8.626349230788832E9 ; 0.0
52 ; 2768730.7496792926 ; 2.0104523571333653E8 ; 1.3815565348964763E8 ; 8.827389158190475E9 ; 0.0
53 ; 2769220.350701083 ; 2.010506272475571E8 ; 1.4092438423932692E8 ; 9.028434393903812E9 ; 0.0
54 ; 2770443.9906155337 ; 2.010560998178497E8 ; 1.4369360459002802E8 ; 9.22948502115137E9 ; 0.0
55 ; 2771388.7340413933 ; 2.0106165126522842E8 ; 1.4646404858064356E8 ; 9.43054112096922E9 ; 0.0
56 ; 2773127.296137625 ; 2.010672794594797E8 ; 1.4923543731468496E8 ; 9.631602772234447E9 ; 0.0
57 ; 2774628.0602160594 ; 2.010729823003054E8 ; 1.520085646108226E8 ; 9.832670051693928E9 ; 0.0
58 ; 2773668.8051454653 ; 2.0107875771831578E8 ; 1.5478319267103866E8 ; 1.0033743033994234E10 ; 0.0
59 ; 2775366.124036986 ; 2.0108460367588064E8 ; 1.5755686147618413E8 ; 1.023482179171255E10 ; 0.0
60 ; 2775793.971404389 ; 2.0109051816784692E8 ; 1.6033222760022113E8 ; 1.043590639538843E10 ; 0.0
61 ; 2776808.64536658 ; 2.0109649922213104E8 ; 1.6310802157162553E8 ; 1.0636996913556276E10 ; 0.0
62 ; 2779389.0494067385 ; 2.0110254490019432E8 ; 1.658848302169921E8 ; 1.0838093412778408E10 ; 0.0
63 ; 2780060.786088791 ; 2.0110865329740933E8 ; 1.6866421926639885E8 ; 1.1039195957678602E10 ; 0.0
64 ; 2779309.0925276554 ; 2.011148225433249E8 ; 1.7144428005248764E8 ; 1.1240304610976011E10 ; 0.0
65 ; 2779795.0708713937 ; 2.011210508018374E8 ; 1.742235891450153E8 ; 1.1441419433519337E10 ; 0.0
66 ; 2780694.8194356873 ; 2.0112733627127597E8 ; 1.7700338421588668E8 ; 1.1642540484321175E10 ; 0.0
67 ; 2782165.352735692 ; 2.011336771844075E8 ; 1.7978407903532237E8 ; 1.1843667820592451E10 ; 0.0
68 ; 2782316.1393887848 ; 2.0114007180836976E8 ; 1.8256624438805807E8 ; 1.204480149777686E10 ; 0.0
69 ; 2781504.5097660497 ; 2.0114651844453758E8 ; 1.8534856052744687E8 ; 1.224594156958523E10 ; 0.0
70 ; 2782565.2985603358 ; 2.0115301542832902E8 ; 1.881300650372129E8 ; 1.2447088088029768E10 ; 0.0
71 ; 2784612.487498524 ; 2.011595611289568E8 ; 1.9091263033577323E8 ; 1.2648241103458097E10 ; 0.0
72 ; 2785563.6409263927 ; 2.0116615394913077E8 ; 1.9369724282327175E8 ; 1.2849400664587055E10 ; 0.0
73 ; 2784503.848342012 ; 2.011727923247163E8 ; 1.9648280646419814E8 ; 1.3050566818536186E10 ; 0.0
74 ; 2785087.600363128 ; 2.0117947472435352E8 ; 1.9926731031254014E8 ; 1.3251739610860903E10 ; 0.0
75 ; 2785704.2394028986 ; 2.0118619964904165E8 ; 2.0205239791290328E8 ; 1.3452919085585257E10 ; 0.0
76 ; 2788393.56745186 ; 2.0119296563169315E8 ; 2.0483810215230617E8 ; 1.3654105285234299E10 ; 0.0
77 ; 2788456.0784943835 ; 2.011997712366609E8 ; 2.0762649571975803E8 ; 1.3855298250865992E10 ; 0.0
78 ; 2786982.122224647 ; 2.0120661505924267E8 ; 2.104149517982524E8 ; 1.4056498022102652E10 ; 0.0
79 ; 2786374.540145115 ; 2.0121349572516575E8 ; 2.1320193392047706E8 ; 1.4257704637161894E10 ; 0.0
80 ; 2786950.294614717 ; 2.0122041189005533E8 ; 2.159883084606222E8 ; 1.445891813288706E10 ; 0.0
81 ; 2787028.734985731 ; 2.0122736223888892E8 ; 2.187752587552369E8 ; 1.4660138544777115E10 ; 0.0
82 ; 2785201.1114173774 ; 2.012343454854401E8 ; 2.2156228749022263E8 ; 1.4861365907016005E10 ; 0.0
83 ; 2783711.2572484305 ; 2.012413603717134E8 ; 2.2434748860164002E8 ; 1.5062600252501444E10 ; 0.0
84 ; 2784808.8991949647 ; 2.012484056673729E8 ; 2.2713119985888845E8 ; 1.5263841612873158E10 ; 0.0
85 ; 2785080.341333594 ; 2.0125548016916665E8 ; 2.299160087580834E8 ; 1.5465090018540531E10 ; 0.0
86 ; 2783635.4333906434 ; 2.0126258270034814E8 ; 2.32701089099417E8 ; 1.5666345498709698E10 ; 0.0
87 ; 2782866.3613586905 ; 2.012697121100974E8 ; 2.3548472453280765E8 ; 1.5867608081410046E10 ; 0.0
88 ; 2784139.925652237 ; 2.0127686727294236E8 ; 2.3826759089416635E8 ; 1.6068877793520144E10 ; 0.0
89 ; 2782198.815566444 ; 2.012840470881824E8 ; 2.410517308198186E8 ; 1.6270154660793085E10 ; 0.0
90 ; 2783230.503797877 ; 2.0129125047931492E8 ; 2.4383392963538504E8 ; 1.6471438707881268E10 ; 0.0
91 ; 2781419.100339907 ; 2.0129847639346662E8 ; 2.4661716013918293E8 ; 1.6672729958360582E10 ; 0.0
92 ; 2778299.8339530164 ; 2.0130572380082944E8 ; 2.4939857923952284E8 ; 1.687402843475405E10 ; 0.0
93 ; 2778378.966701924 ; 2.0131299169410297E8 ; 2.5217687907347587E8 ; 1.7075334158554878E10 ; 0.0
94 ; 2779531.0128011485 ; 2.0132027908794388E8 ; 2.549552580401778E8 ; 1.727664715024898E10 ; 0.0
95 ; 2777911.5948077613 ; 2.0132758501842242E8 ; 2.5773478905297893E8 ; 1.7477967429336926E10 ; 0.0
96 ; 2778066.09169582 ; 2.013349085424873E8 ; 2.605127006477867E8 ; 1.7679295014355347E10 ; 0.0
97 ; 2775909.5764261545 ; 2.0134224873743916E8 ; 2.6329076673948252E8 ; 1.7880629922897835E10 ; 0.0
98 ; 2776066.4144358058 ; 2.01349604700413E8 ; 2.6606667631590867E8 ; 1.8081972171635273E10 ; 0.0
99 ; 2775263.9781449153 ; 2.013569755478698E8 ; 2.688427427303445E8 ; 1.8283321776335686E10 ; 0.0
100 ; 2774114.319317725 ; 2.0136436041509813E8 ; 2.716180067084894E8 ; 1.8484678751883556E10 ; 0.0
101 ; 2772894.1151966895 ; 2.0137175845572516E8 ; 2.743921210278071E8 ; 1.8686043112298653E10 ; 0.0
102 ; 2773080.1947445557 ; 2.0137916884123823E8 ; 2.771650151430038E8 ; 1.888741487075438E10 ; 0.0
103 ; 2772940.100505806 ; 2.0138659076051626E8 ; 2.7993809533774835E8 ; 1.908879403959562E10 ; 0.0
104 ; 2770304.0264530047 ; 2.0139402341937155E8 ; 2.827110354382542E8 ; 1.9290180630356136E10 ; 0.0
105 ; 2769646.878947283 ; 2.0140146604010206E8 ; 2.854813394647072E8 ; 1.949157465377551E10 ; 0.0
106 ; 2769483.655593328 ; 2.0140891786105385E8 ; 2.8825098634365445E8 ; 1.9692976119815613E10 ; 0.0
107 ; 2767136.901128293 ; 2.01416378136194E8 ; 2.910204699992478E8 ; 1.9894385037676666E10 ; 0.0
108 ; 2768156.297318483 ; 2.0142384613469398E8 ; 2.937876069003761E8 ; 2.009580141581286E10 ; 0.0
109 ; 2766425.265701117 ; 2.0143132114052308E8 ; 2.9655576319769454E8 ; 2.029722526194755E10 ; 0.0
110 ; 2764654.9495373126 ; 2.014388024520522E8 ; 2.9932218846339566E8 ; 2.0498656583088074E10 ; 0.0
111 ; 2759111.1399348234 ; 2.014462893816677E8 ; 3.02086843412933E8 ; 2.0700095385540127E10 ; 0.0
112 ; 2754374.333776433 ; 2.0145378125539532E8 ; 3.048459545528678E8 ; 2.0901541674921795E10 ; 0.0
113 ; 2749466.795415774 ; 2.0146127741253388E8 ; 3.0760032888664424E8 ; 2.110299545617719E10 ; 0.0
114 ; 2746106.011684935 ; 2.0146877720529863E8 ; 3.1034979568206E8 ; 2.130445673358972E10 ; 0.0
115 ; 2741345.3417544225 ; 2.0147627999847457E8 ; 3.1309590169374496E8 ; 2.150592551079502E10 ; 0.0
116 ; 2736127.5535828997 ; 2.0148378516907862E8 ; 3.158372470354994E8 ; 2.1707401790793495E10 ; 0.0
117 ; 2732579.27320066 ; 2.0149129210603163E8 ; 3.185733745890823E8 ; 2.1908885575962574E10 ; 0.0
118 ; 2727767.6371977744 ; 2.0149880020983893E8 ; 3.2130595386228293E8 ; 2.2110376868068607E10 ; 0.0
119 ; 2722160.591487109 ; 2.0150630889228025E8 ; 3.240337214994807E8 ; 2.2311875668278446E10 ; 0.0
120 ; 2717288.28273814 ; 2.0151381757610807E8 ; 3.2675588209096783E8 ; 2.2513381977170727E10 ; 0.0
121 ; 2714006.764380603 ; 2.015213256947546E8 ; 3.29473170373706E8 ; 2.2714895794746834E10 ; 0.0
122 ; 2706801.6584335 ; 2.0152883269204712E8 ; 3.3218717713808656E8 ; 2.291641712044159E10 ; 0.0
123 ; 2704467.345469858 ; 2.0153633802193138E8 ; 3.3489397879652005E8 ; 2.3117945953133636E10 ; 0.0
124 ; 2697907.8060629033 ; 2.015438411482032E8 ; 3.375984461419899E8 ; 2.3319482291155567E10 ; 0.0
125 ; 2696543.351036953 ; 2.0155134154424745E8 ; 3.4029635394805276E8 ; 2.3521026132303772E10 ; 0.0
126 ; 2688948.515619744 ; 2.01558838692785E8 ; 3.429928972990897E8 ; 2.372257747384802E10 ; 0.0
127 ; 2685687.160908993 ; 2.0156633208562693E8 ; 3.456818458147095E8 ; 2.3924136312540802E10 ; 0.0
128 ; 2680426.04810662 ; 2.0157382122343576E8 ; 3.483675329756185E8 ; 2.412570264462643E10 ; 0.0
129 ; 2675385.290398917 ; 2.0158130561549404E8 ; 3.510479590237251E8 ; 2.4327276465849865E10 ; 0.0
130 ; 2670141.0990283797 ; 2.0158878477947935E8 ; 3.53723344314124E8 ; 2.452885777146536E10 ; 0.0
131 ; 2664618.4387752106 ; 2.0159625824124646E8 ; 3.563934854131524E8 ; 2.473044655624484E10 ; 0.0
132 ; 2659223.331342484 ; 2.0160372553461537E8 ; 3.590581038519276E8 ; 2.4932042814486084E10 ; 0.0
133 ; 2653564.7324327864 ; 2.0161118620116624E8 ; 3.6171732718327004E8 ; 2.51336465400207E10 ; 0.0
134 ; 2646614.161695026 ; 2.016186397900399E8 ; 3.643708919157028E8 ; 2.5335257726221867E10 ; 0.0
135 ; 2642140.6612669756 ; 2.0162608585774463E8 ; 3.670175060773978E8 ; 2.5536876366011906E10 ; 0.0
136 ; 2635082.3897225084 ; 2.0163352396796867E8 ; 3.696596467386648E8 ; 2.573850245186965E10 ; 0.0
137 ; 2630732.599518989 ; 2.0164095369139823E8 ; 3.7229472912838733E8 ; 2.594013597583762E10 ; 0.0
138 ; 2623544.443800737 ; 2.0164837460554096E8 ; 3.7492546172790635E8 ; 2.614177692952902E10 ; 0.0
139 ; 2619658.079049804 ; 2.016557862945549E8 ; 3.775490061717071E8 ; 2.634342530413456E10 ; 0.0
140 ; 2611953.291692872 ; 2.0166318834908223E8 ; 3.801686642507569E8 ; 2.6545081090429115E10 ; 0.0
141 ; 2605702.088127816 ; 2.0167058036608842E8 ; 3.827806175424498E8 ; 2.67467442787782E10 ; 0.0
142 ; 2600806.8477887716 ; 2.0167796194870582E8 ; 3.8538631963057756E8 ; 2.6948414859144287E10 ; 0.0
143 ; 2595654.8593733874 ; 2.0168533270608214E8 ; 3.879871264783663E8 ; 2.7150092821092995E10 ; 0.0
144 ; 2589129.2182380967 ; 2.0169269225323346E8 ; 3.905827813377397E8 ; 2.7351778153799076E10 ; 0.0
145 ; 2585795.6113228276 ; 2.0170004021090177E8 ; 3.931719105559778E8 ; 2.755347084605231E10 ; 0.0
146 ; 2579021.282591959 ; 2.0170737620541647E8 ; 3.9575770616730064E8 ; 2.7755170886263214E10 ; 0.0
147 ; 2574624.756816775 ; 2.017146998685603E8 ; 3.983367274498926E8 ; 2.795687826246863E10 ; 0.0
148 ; 2567836.7115294295 ; 2.0172201083743942E8 ; 4.009113522067094E8 ; 2.8158592962337193E10 ; 0.0
149 ; 2564975.4658069634 ; 2.0172930875435686E8 ; 4.034791889182388E8 ; 2.8360314973174633E10 ; 0.0
150 ; 2559550.099055085 ; 2.0173659326669028E8 ; 4.060441643840458E8 ; 2.856204428192899E10 ; 0.0
151 ; 2555739.555739605 ; 2.0174386402677327E8 ; 4.086037144831009E8 ; 2.876378087519568E10 ; 0.0
152 ; 2549284.1345256013 ; 2.0175112069178003E8 ; 4.111594540388405E8 ; 2.896552473922245E10 ; 0.0
153 ; 2545642.487355379 ; 2.017583629236137E8 ; 4.1370873817336607E8 ; 2.916727585991423E10 ; 0.0
154 ; 2539092.233399507 ; 2.0176559038879782E8 ; 4.162543806607214E8 ; 2.9369034222837845E10 ; 0.0
155 ; 2535616.3070107414 ; 2.0177280275837135E8 ; 4.1879347289412093E8 ; 2.9570799813226643E10 ; 0.0
156 ; 2529315.779070148 ; 2.0177999970778653E8 ; 4.213290892011317E8 ; 2.9772572615985016E10 ; 0.0
157 ; 2524738.19108196 ; 2.0178718091680992E8 ; 4.2385840498020184E8 ; 2.9974352615692802E10 ; 0.0
158 ; 2519911.3977102553 ; 2.017943460694263E8 ; 4.263831431712838E8 ; 3.017613979660961E10 ; 0.0
159 ; 2515428.0351833235 ; 2.018014948537456E8 ; 4.2890305456899405E8 ; 3.037793414267904E10 ; 0.0
160 ; 2509286.8984369934 ; 2.0180862696191242E8 ; 4.3141848260417736E8 ; 3.0579735637532784E10 ; 0.0
161 ; 2505358.838249936 ; 2.0181574209001833E8 ; 4.339277695026144E8 ; 3.0781544264494698E10 ; 0.0
162 ; 2499559.0017586327 ; 2.0182283993801665E8 ; 4.364331283408643E8 ; 3.0983360006584717E10 ; 0.0
163 ; 2494240.64596978 ; 2.0182992020964003E8 ; 4.3893268734262294E8 ; 3.118518284652273E10 ; 0.0
164 ; 2490939.702233538 ; 2.0183698261232013E8 ; 4.4142692798859274E8 ; 3.1387012766732372E10 ; 0.0
165 ; 2485854.6049447153 ; 2.0184402685710984E8 ; 4.439178676908263E8 ; 3.1588849749344692E10 ; 0.0
166 ; 2479312.5928501696 ; 2.0185105265860787E8 ; 4.46403722295771E8 ; 3.17906937762018E10 ; 0.0
167 ; 2473822.6201779726 ; 2.0185805973488536E8 ; 4.4888303488862115E8 ; 3.199254482886041E10 ; 0.0
168 ; 2469694.359395693 ; 2.018650478074148E8 ; 4.5135685750879914E8 ; 3.2194402888595295E10 ; 0.0
169 ; 2464247.4566512275 ; 2.0187201660100102E8 ; 4.538265518681948E8 ; 3.239626793640271E10 ; 0.0
170 ; 2460478.149752717 ; 2.018789658437141E8 ; 4.56290799324846E8 ; 3.259813995300371E10 ; 0.0
171 ; 2454846.456491741 ; 2.0188589526682433E8 ; 4.5875127747459877E8 ; 3.2800018918847427E10 ; 0.0
172 ; 2449198.9611092047 ; 2.0189280460473913E8 ; 4.6120612393109053E8 ; 3.300190481411425E10 ; 0.0
173 ; 2444923.6626105052 ; 2.0189969359494168E8 ; 4.6365532289219975E8 ; 3.320379761871899E10 ; 0.0
174 ; 2438781.808389415 ; 2.019E8 ; 4.661002465548103E8 ; 3.340569731231393E10 ; 0.0
175 ; 2434939.3679840085 ; 2.019E8 ; 4.685390283631997E8 ; 3.360759731231393E10 ; 0.0
176 ; 2429654.6264684484 ; 2.019E8 ; 4.709739677311837E8 ; 3.380949731231393E10 ; 0.0
177 ; 2426893.6673236326 ; 2.019E8 ; 4.734036223576521E8 ; 3.401139731231393E10 ; 0.0
178 ; 2422284.09710228 ; 2.019E8 ; 4.758305160249758E8 ; 3.421329731231393E10 ; 0.0
179 ; 2418469.897062996 ; 2.019E8 ; 4.7825280012207806E8 ; 3.4415197312313934E10 ; 0.0
180 ; 2413258.701344908 ; 2.019E8 ; 4.806712700191411E8 ; 3.4617097312313934E10 ; 0.0
181 ; 2407607.815714363 ; 2.019E8 ; 4.83084528720486E8 ; 3.4818997312313934E10 ; 0.0
182 ; 2405016.95157902 ; 2.019E8 ; 4.8549213653620034E8 ; 3.5020897312313934E10 ; 0.0
183 ; 2399600.387108851 ; 2.019E8 ; 4.878971534877794E8 ; 3.5222797312313934E10 ; 0.0
184 ; 2397146.013558608 ; 2.019E8 ; 4.9029675387488824E8 ; 3.5424697312313934E10 ; 0.0
185 ; 2390818.9252004386 ; 2.019E8 ; 4.9269389988844687E8 ; 3.5626597312313934E10 ; 0.0
186 ; 2386284.5060938327 ; 2.019E8 ; 4.9508471881364733E8 ; 3.5828497312313934E10 ; 0.0
187 ; 2383016.427988605 ; 2.019E8 ; 4.974710033197412E8 ; 3.6030397312313934E10 ; 0.0
188 ; 2378243.0158114424 ; 2.019E8 ; 4.998540197477298E8 ; 3.6232297312313934E10 ; 0.0
189 ; 2374502.630476298 ; 2.019E8 ; 5.022322627635412E8 ; 3.6434197312313934E10 ; 0.0
190 ; 2368474.034432782 ; 2.019E8 ; 5.046067653940175E8 ; 3.6636097312313934E10 ; 0.0
191 ; 2364788.739813798 ; 2.019E8 ; 5.069752394284503E8 ; 3.6837997312313934E10 ; 0.0
192 ; 2360647.477489918 ; 2.019E8 ; 5.093400281682641E8 ; 3.7039897312313934E10 ; 0.0
193 ; 2355902.345503364 ; 2.019E8 ; 5.11700675645754E8 ; 3.7241797312313934E10 ; 0.0
194 ; 2350463.018875552 ; 2.019E8 ; 5.1405657799125737E8 ; 3.7443697312313934E10 ; 0.0
195 ; 2347743.3340069302 ; 2.019E8 ; 5.164070410101329E8 ; 3.7645597312313934E10 ; 0.0
196 ; 2343165.6251346543 ; 2.019E8 ; 5.187547843441398E8 ; 3.7847497312313934E10 ; 0.0
197 ; 2337911.3326211344 ; 2.019E8 ; 5.2109794996927446E8 ; 3.8049397312313934E10 ; 0.0
198 ; 2334870.927192089 ; 2.019E8 ; 5.234358613018956E8 ; 3.8251297312313934E10 ; 0.0
199 ; 2329970.156860691 ; 2.019E8 ; 5.257707322290877E8 ; 3.8453197312313934E10 ; 0.0
200 ; 2325390.5622599227 ; 2.019E8 ; 5.281007023859484E8 ; 3.8655097312313934E10 ; 0.0
201 ; 2320172.6820800556 ; 1.6652623007058683E8 ; 5.3042609294820833E8 ; 3.8856997312313934E10 ; 0.0
202 ; 2315963.076407886 ; 1.527127382774142E8 ; 5.3274626563028836E8 ; 3.902352354238452E10 ; 0.0
203 ; 2311675.5851162574 ; 1.5236626757342157E8 ; 5.350622287066963E8 ; 3.9176236280661934E10 ; 0.0
