CSV File for the City 1 on Day 5
1 - Minute m 
2 - Power Consumed at minute m 
3 - Power Produced at minute m 
4 - Energy Consumed since the beginning of the day 
5 - Energy Produced since the beginning of the day 
6 - Energy Lost since the beginning of the day on lines starting from the city
 
0 ; 1.5998236376712019E7 ; 1.0533931238493517E8 ; 0.0 ; 0.0 ; 0.0
1 ; 1.6013920355472973E7 ; 1.0549171607255852E8 ; 1.5998236376712019E7 ; 1.0533931238493517E8 ; 0.0
2 ; 1.603003126941653E7 ; 1.0595294528422186E8 ; 3.201215673218499E7 ; 2.108310284574937E8 ; 0.0
3 ; 1.6052284484170489E7 ; 1.0672300567948186E8 ; 4.804218800160152E7 ; 3.1678397374171555E8 ; 0.0
4 ; 1.607580636725753E7 ; 1.0780190249181384E8 ; 6.4094472485772006E7 ; 4.235069794211974E8 ; 0.0
5 ; 1.6103152550212117E7 ; 1.0918964045038497E8 ; 8.017027885302953E7 ; 5.3130888191301125E8 ; 0.0
6 ; 1.6142655079271387E7 ; 1.1088622370504454E8 ; 9.627343140324165E7 ; 6.404985223633962E8 ; 0.0
7 ; 1.6196293750302594E7 ; 1.128916557570759E8 ; 1.1241608648251304E8 ; 7.513847460684407E8 ; 0.0
8 ; 1.627348888479856E7 ; 1.152059393982476E8 ; 1.2861238023281564E8 ; 8.642764018255166E8 ; 0.0
9 ; 1.639288168755298E7 ; 1.1782907666054541E8 ; 1.448858691176142E8 ; 9.794823412237642E8 ; 0.0
10 ; 1.6573215410547988E7 ; 1.2076106877864444E8 ; 1.612787508051672E8 ; 1.0973114178843095E9 ; 0.0
11 ; 1.6860370094645806E7 ; 1.2400191616671827E8 ; 1.778519662157152E8 ; 1.2180724866629539E9 ; 0.0
12 ; 1.7321314134963877E7 ; 1.275516184105933E8 ; 1.94712336310361E8 ; 1.342074402829672E9 ; 0.0
13 ; 1.776761275780202E7 ; 1.3141017427559441E8 ; 2.1203365044532487E8 ; 1.4696260212402654E9 ; 0.0
14 ; 1.782150142749001E7 ; 1.355775817297359E8 ; 2.2980126320312688E8 ; 1.6010361955158598E9 ; 0.0
15 ; 1.7845444585550904E7 ; 1.4005383798124915E8 ; 2.476227646306169E8 ; 1.7366137772455957E9 ; 0.0
16 ; 1.7862358790901475E7 ; 1.4483893952885088E8 ; 2.654682092161678E8 ; 1.8766676152268448E9 ; 0.0
17 ; 1.7878627258565202E7 ; 1.4993288222269174E8 ; 2.833305680070693E8 ; 2.0215065547556956E9 ; 0.0
18 ; 1.7902414088723175E7 ; 1.5533566133360457E8 ; 3.012091952656345E8 ; 2.1714394369783874E9 ; 0.0
19 ; 1.792272342993331E7 ; 1.6104727162811407E8 ; 3.1911160935435766E8 ; 2.3267750983119917E9 ; 0.0
20 ; 1.7938706829224635E7 ; 1.6706770744666353E8 ; 3.3703433278429097E8 ; 2.487822369940106E9 ; 0.0
21 ; 1.796851737293579E7 ; 1.7339696278265002E8 ; 3.549730396135156E8 ; 2.6548900773867693E9 ; 0.0
22 ; 1.798102196728189E7 ; 1.800350313601026E8 ; 3.729415569864514E8 ; 2.8282870401694193E9 ; 0.0
23 ; 1.8008815431582883E7 ; 1.8698190670815998E8 ; 3.9092257895373327E8 ; 3.008322071529522E9 ; 0.0
24 ; 1.8028074704532575E7 ; 1.9423758223087144E8 ; 4.0893139438531613E8 ; 3.195303978237682E9 ; 0.0
25 ; 1.8048026258708835E7 ; 2.0049009216940823E8 ; 4.269594690898487E8 ; 3.3895415604685535E9 ; 0.0
26 ; 1.8068141106787074E7 ; 2.0049297769648373E8 ; 4.4500749534855753E8 ; 3.590031652637962E9 ; 0.0
27 ; 1.809424529856849E7 ; 2.0049600149188477E8 ; 4.630756364553446E8 ; 3.7905246303344455E9 ; 0.0
28 ; 1.810770725347987E7 ; 2.0049915703286925E8 ; 4.811698817539131E8 ; 3.99102063182633E9 ; 0.0
29 ; 1.8128542143833034E7 ; 2.0050243792416844E8 ; 4.99277589007393E8 ; 4.1915197888591995E9 ; 0.0
30 ; 1.8152913916796252E7 ; 2.0050583792819244E8 ; 5.1740613115122604E8 ; 4.392022226783368E9 ; 0.0
31 ; 1.816292106446508E7 ; 2.0050935098913518E8 ; 5.355590450680223E8 ; 4.59252806471156E9 ; 0.0
32 ; 1.818679098163235E7 ; 2.005129712515171E8 ; 5.537219661324874E8 ; 4.793037415700695E9 ; 0.0
33 ; 1.820866019184439E7 ; 2.005166930737523E8 ; 5.719087571141198E8 ; 4.993550386952212E9 ; 0.0
34 ; 1.8221254116086785E7 ; 2.005205110373429E8 ; 5.901174173059641E8 ; 5.194067080025965E9 ; 0.0
35 ; 1.8238459975088716E7 ; 2.005244199522946E8 ; 6.08338671422051E8 ; 5.394587591063308E9 ; 0.0
36 ; 1.8253486886873316E7 ; 2.0052841485932222E8 ; 6.265771313971397E8 ; 5.595112011015602E9 ; 0.0
37 ; 1.8271806580349967E7 ; 2.0053249102937332E8 ; 6.44830618284013E8 ; 5.795640425874925E9 ; 0.0
38 ; 1.8285572424770724E7 ; 2.0053664396095163E8 ; 6.63102424864363E8 ; 5.996172916904298E9 ; 0.0
39 ; 1.8302253553521954E7 ; 2.0054086937567312E8 ; 6.813879972891337E8 ; 6.19670956086525E9 ; 0.0
40 ; 1.8317187201236613E7 ; 2.0054516321243376E8 ; 6.996902508426557E8 ; 6.397250430240923E9 ; 0.0
41 ; 1.832847992680663E7 ; 2.0054952162052023E8 ; 7.180074380438923E8 ; 6.597795593453357E9 ; 0.0
42 ; 1.8338458597219147E7 ; 2.0055394095194566E8 ; 7.363359179706988E8 ; 6.798345115073877E9 ; 0.0
43 ; 1.8354096497362167E7 ; 2.0055841775325045E8 ; 7.54674376567918E8 ; 6.998899056025823E9 ; 0.0
44 ; 1.8366031282995764E7 ; 2.0056294875696716E8 ; 7.730284730652801E8 ; 7.199457473779073E9 ; 0.0
45 ; 1.837724443515052E7 ; 2.005675308729146E8 ; 7.913945043482759E8 ; 7.40002042253604E9 ; 0.0
46 ; 1.8384207060087208E7 ; 2.005721611794543E8 ; 8.097717487834264E8 ; 7.600587953408955E9 ; 0.0
47 ; 1.8388926083099257E7 ; 2.005768369148166E8 ; 8.281559558435136E8 ; 7.801160114588408E9 ; 0.0
48 ; 1.8397982146054056E7 ; 2.0058155546858013E8 ; 8.465448819266129E8 ; 8.001736951503225E9 ; 0.0
49 ; 1.840465634599799E7 ; 2.0058631437336963E8 ; 8.649428640726669E8 ; 8.202318506971806E9 ; 0.0
50 ; 1.8412762772104733E7 ; 2.0059111129681963E8 ; 8.833475204186649E8 ; 8.402904821345175E9 ; 0.0
51 ; 1.8420568417894248E7 ; 2.005959440338395E8 ; 9.017602831907697E8 ; 8.603495932641994E9 ; 0.0
52 ; 1.841972721075748E7 ; 2.0060081049920282E8 ; 9.201808516086639E8 ; 8.804091876675835E9 ; 0.0
53 ; 1.842903329460656E7 ; 2.00605708720476E8 ; 9.386005788194214E8 ; 9.004692687175037E9 ; 0.0
54 ; 1.8430748982019227E7 ; 2.0061063683129266E8 ; 9.57029612114028E8 ; 9.205298395895514E9 ; 0.0
55 ; 1.8436714679974567E7 ; 2.006155930649758E8 ; 9.754603610960472E8 ; 9.405909032726807E9 ; 0.0
56 ; 1.8441435771865584E7 ; 2.0062057574850413E8 ; 9.938970757760217E8 ; 9.606524625791782E9 ; 0.0
57 ; 1.8445160235583846E7 ; 2.0062558329681563E8 ; 1.0123385115478873E9 ; 9.807145201540287E9 ; 0.0
58 ; 1.8446314790222187E7 ; 2.006306142074396E8 ; 1.0307836717834712E9 ; 1.0007770784837103E10 ; 0.0
59 ; 1.8452974348780412E7 ; 2.0063566705544505E8 ; 1.0492299865736934E9 ; 1.0208401399044542E10 ; 0.0
60 ; 1.8455501082664505E7 ; 2.006407404886934E8 ; 1.0676829609224738E9 ; 1.0409037066099987E10 ; 0.0
61 ; 1.8458921448732473E7 ; 2.006458332233818E8 ; 1.0861384620051384E9 ; 1.060967780658868E10 ; 0.0
62 ; 1.846717500791434E7 ; 2.0065094403986266E8 ; 1.1045973834538708E9 ; 1.0810323639812061E10 ; 0.0
63 ; 1.846780601413136E7 ; 2.006560717787257E8 ; 1.123064558461785E9 ; 1.1010974583851925E10 ; 0.0
64 ; 1.846809171338914E7 ; 2.0066121533712766E8 ; 1.1415323644759164E9 ; 1.1211630655630651E10 ; 0.0
65 ; 1.847452487983899E7 ; 2.006663736653561E8 ; 1.1600004561893055E9 ; 1.141229187096778E10 ; 0.0
66 ; 1.8479647338892523E7 ; 2.006715457636136E8 ; 1.1784749810691445E9 ; 1.1612958244633135E10 ; 0.0
67 ; 1.847713166994116E7 ; 2.006767306790085E8 ; 1.196954628408037E9 ; 1.1813629790396748E10 ; 0.0
68 ; 1.8479211767546445E7 ; 2.006819275027404E8 ; 1.2154317600779781E9 ; 1.2014306521075756E10 ; 0.0
69 ; 1.8482606942789238E7 ; 2.0068713536746708E8 ; 1.2339109718455245E9 ; 1.2214988448578497E10 ; 0.0
70 ; 1.848483149821103E7 ; 2.0069235344484234E8 ; 1.2523935787883139E9 ; 1.2415675583945965E10 ; 0.0
71 ; 1.8486173769216314E7 ; 2.0069758094321296E8 ; 1.270878410286525E9 ; 1.2616367937390808E10 ; 0.0
72 ; 1.8484712970569354E7 ; 2.007028171054646E8 ; 1.2893645840557413E9 ; 1.281706551833402E10 ; 0.0
73 ; 1.849077482041774E7 ; 2.0070806120700708E8 ; 1.3078492970263107E9 ; 1.3017768335439486E10 ; 0.0
74 ; 1.849336940906359E7 ; 2.0071331255388921E8 ; 1.3263400718467283E9 ; 1.3218476396646492E10 ; 0.0
75 ; 1.8494877919529345E7 ; 2.0071857048103514E8 ; 1.344833441255792E9 ; 1.341918970920038E10 ; 0.0
76 ; 1.8494984113710042E7 ; 2.0072383435059378E8 ; 1.3633283191753213E9 ; 1.3619908279681416E10 ; 0.0
77 ; 1.8490470054190356E7 ; 2.0072910355039358E8 ; 1.3818233032890313E9 ; 1.382063211403201E10 ; 0.0
78 ; 1.8487199756187554E7 ; 2.0073437749249592E8 ; 1.4003137733432217E9 ; 1.4021361217582403E10 ; 0.0
79 ; 1.8487076891026694E7 ; 2.0073965561183995E8 ; 1.418800973099409E9 ; 1.42220955950749E10 ; 0.0
80 ; 1.8476505250699718E7 ; 2.0074493736497337E8 ; 1.4372880499904358E9 ; 1.4422835250686739E10 ; 0.0
81 ; 1.8474165416120134E7 ; 2.007502222288626E8 ; 1.4557645552411356E9 ; 1.4623580188051712E10 ; 0.0
82 ; 1.8468347406658676E7 ; 2.0075550969977772E8 ; 1.4742387206572556E9 ; 1.4824330410280575E10 ; 0.0
83 ; 1.846456539135596E7 ; 2.0076079929224655E8 ; 1.4927070680639143E9 ; 1.5025085919980352E10 ; 0.0
84 ; 1.845717695912837E7 ; 2.0076609053807354E8 ; 1.5111716334552703E9 ; 1.5225846719272598E10 ; 0.0
85 ; 1.8453095447227594E7 ; 2.007713829854192E8 ; 1.5296288104143987E9 ; 1.5426612809810673E10 ; 0.0
86 ; 1.8445218265680805E7 ; 2.0077667619793564E8 ; 1.5480819058616261E9 ; 1.5627384192796091E10 ; 0.0
87 ; 1.843589652047088E7 ; 2.007819697539548E8 ; 1.566527124127307E9 ; 1.5828160868994026E10 ; 0.0
88 ; 1.843798790336463E7 ; 2.0078726324572602E8 ; 1.5849630206477778E9 ; 1.602894283874798E10 ; 0.0
89 ; 1.842629466265996E7 ; 2.00792556278699E8 ; 1.6034010085511425E9 ; 1.6229730101993706E10 ; 0.0
90 ; 1.8421799707978487E7 ; 2.007978484708502E8 ; 1.6218273032138023E9 ; 1.6430522658272406E10 ; 0.0
91 ; 1.841296688629806E7 ; 2.0080313945204866E8 ; 1.6402491029217808E9 ; 1.6631320506743256E10 ; 0.0
92 ; 1.8405411475220356E7 ; 2.008084288634596E8 ; 1.6586620698080788E9 ; 1.6832123646195305E10 ; 0.0
93 ; 1.8400423686578523E7 ; 2.0081371635698304E8 ; 1.6770674812832992E9 ; 1.7032932075058765E10 ; 0.0
94 ; 1.8389752901243247E7 ; 2.008190015947249E8 ; 1.6954679049698777E9 ; 1.723374579141575E10 ; 0.0
95 ; 1.838345344471477E7 ; 2.0082428424849883E8 ; 1.713857657871121E9 ; 1.7434564793010475E10 ; 0.0
96 ; 1.837508802537043E7 ; 2.0082956399935675E8 ; 1.7322411113158357E9 ; 1.7635389077258972E10 ; 0.0
97 ; 1.8365602498689346E7 ; 2.0083484053714612E8 ; 1.750616199341206E9 ; 1.7836218641258327E10 ; 0.0
98 ; 1.8360662167895127E7 ; 2.0084011356009245E8 ; 1.7689818018398955E9 ; 1.8037053481795475E10 ; 0.0
99 ; 1.834766686840656E7 ; 2.0084538277440518E8 ; 1.7873424640077906E9 ; 1.8237893595355568E10 ; 0.0
100 ; 1.8340150125052392E7 ; 2.0085064789390582E8 ; 1.805690130876197E9 ; 1.8438738978129974E10 ; 0.0
101 ; 1.8332846650101054E7 ; 2.0085590863967675E8 ; 1.8240302810012496E9 ; 1.863958962602388E10 ; 0.0
102 ; 1.832539989831608E7 ; 2.0086116473972923E8 ; 1.8423631276513505E9 ; 1.8840445534663555E10 ; 0.0
103 ; 1.8317801954437662E7 ; 2.0086641592868993E8 ; 1.8606885275496666E9 ; 1.9041306699403286E10 ; 0.0
104 ; 1.8306252137735475E7 ; 2.0087166194750434E8 ; 1.8790063295041044E9 ; 1.9242173115331974E10 ; 0.0
105 ; 1.829865006280174E7 ; 2.0087690254315645E8 ; 1.8973125816418397E9 ; 1.944304477727948E10 ; 0.0
106 ; 1.8286238638291188E7 ; 2.0088213746840322E8 ; 1.9156112317046416E9 ; 1.9643921679822636E10 ; 0.0
107 ; 1.8275368645249255E7 ; 2.0088736648152357E8 ; 1.9338974703429327E9 ; 1.984480381729104E10 ; 0.0
108 ; 1.8263186944950122E7 ; 2.0089258934608045E8 ; 1.952172838988182E9 ; 2.0045691183772564E10 ; 0.0
109 ; 1.825739541262097E7 ; 2.008978058306957E8 ; 1.9704360259331322E9 ; 2.0246583773118645E10 ; 0.0
110 ; 1.8244858410837412E7 ; 2.0090301570883635E8 ; 1.9886934213457532E9 ; 2.044748157894934E10 ; 0.0
111 ; 1.8238572316255625E7 ; 2.0090821875861257E8 ; 2.0069382797565906E9 ; 2.0648384594658176E10 ; 0.0
112 ; 1.8223656886148226E7 ; 2.0091341476258555E8 ; 2.0251768520728462E9 ; 2.084929281341679E10 ; 0.0
113 ; 1.8210117257919334E7 ; 2.009186035075855E8 ; 2.0434005089589944E9 ; 2.1050206228179375E10 ; 0.0
114 ; 1.820096574656741E7 ; 2.0092378478453904E8 ; 2.0616106262169137E9 ; 2.125112483168696E10 ; 0.0
115 ; 1.819044847499661E7 ; 2.0092895838830513E8 ; 2.0798115919634812E9 ; 2.1452048616471497E10 ; 0.0
116 ; 1.8180621843813904E7 ; 2.009341241175194E8 ; 2.0980020404384778E9 ; 2.1652977574859802E10 ; 0.0
117 ; 1.8164953141215354E7 ; 2.0093928177444628E8 ; 2.1161826622822917E9 ; 2.185391169897732E10 ; 0.0
118 ; 1.815765947546256E7 ; 2.0094443116483837E8 ; 2.134347615423507E9 ; 2.2054850980751766E10 ; 0.0
119 ; 1.8146545911641873E7 ; 2.0094957209780297E8 ; 2.1525052748989697E9 ; 2.2255795411916603E10 ; 0.0
120 ; 1.813476993454017E7 ; 2.009547043856749E8 ; 2.1706518208106117E9 ; 2.2456744984014404E10 ; 0.0
121 ; 1.8122205868166223E7 ; 2.0095982784389588E8 ; 2.188786590745152E9 ; 2.2657699688400078E10 ; 0.0
122 ; 1.8112087061623145E7 ; 2.009649422908994E8 ; 2.2069087966133184E9 ; 2.2858659516243973E10 ; 0.0
123 ; 1.809931064434773E7 ; 2.0097004754800144E8 ; 2.2250208836749415E9 ; 2.3059624458534874E10 ; 0.0
124 ; 1.8079869449974082E7 ; 2.009751434392962E8 ; 2.243120194319289E9 ; 2.3260594506082874E10 ; 0.0
125 ; 1.807137804555992E7 ; 2.0098022979155698E8 ; 2.2612000637692633E9 ; 2.346156964952217E10 ; 0.0
126 ; 1.8059382152717493E7 ; 2.009853064341417E8 ; 2.279271441814823E9 ; 2.366254987931373E10 ; 0.0
127 ; 1.804111570526905E7 ; 2.009903731989028E8 ; 2.2973308239675407E9 ; 2.386353518574787E10 ; 0.0
128 ; 1.8031977534405515E7 ; 2.0099542992010143E8 ; 2.3153719396728096E9 ; 2.4064525558946774E10 ; 0.0
129 ; 1.8017421746189486E7 ; 2.0100047643432572E8 ; 2.3334039172072153E9 ; 2.4265520988866875E10 ; 0.0
130 ; 1.7998152058068726E7 ; 2.0100551258041263E8 ; 2.351421338953405E9 ; 2.44665214653012E10 ; 0.0
131 ; 1.7979269936254773E7 ; 2.0101053819937345E8 ; 2.3694194910114737E9 ; 2.4667526977881615E10 ; 0.0
132 ; 1.796048358044111E7 ; 2.0101555313432297E8 ; 2.3873987609477286E9 ; 2.486853751608099E10 ; 0.0
133 ; 1.7938119862679977E7 ; 2.0102055723041153E8 ; 2.4053592445281696E9 ; 2.5069553069215313E10 ; 0.0
134 ; 1.792392206988114E7 ; 2.010255503347603E8 ; 2.4232973643908496E9 ; 2.5270573626445724E10 ; 0.0
135 ; 1.790061447361676E7 ; 2.010305322963995E8 ; 2.4412212864607306E9 ; 2.5471599176780483E10 ; 0.0
136 ; 1.7876261478597663E7 ; 2.010355029662093E8 ; 2.459121900934347E9 ; 2.567262970907688E10 ; 0.0
137 ; 1.785923731001667E7 ; 2.010404621968635E8 ; 2.476998162412945E9 ; 2.587366521204309E10 ; 0.0
138 ; 1.783538889932925E7 ; 2.0104540984277552E8 ; 2.4948573997229614E9 ; 2.6074705674239956E10 ; 0.0
139 ; 1.7819938537167374E7 ; 2.0105034576004693E8 ; 2.5126927886222906E9 ; 2.6275751084082733E10 ; 0.0
140 ; 1.7796038667565603E7 ; 2.010552698064181E8 ; 2.530512727159458E9 ; 2.647680142984278E10 ; 0.0
141 ; 1.7775124739210434E7 ; 2.0106018184122112E8 ; 2.548308765827024E9 ; 2.66778566996492E10 ; 0.0
142 ; 1.775619401080302E7 ; 2.010650817253348E8 ; 2.5660838905662346E9 ; 2.687891688149042E10 ; 0.0
143 ; 1.7733217465925187E7 ; 2.010699693211414E8 ; 2.583840084577038E9 ; 2.7079981963215755E10 ; 0.0
144 ; 1.770782639467153E7 ; 2.0107484449248537E8 ; 2.601573302042963E9 ; 2.7281051932536896E10 ; 0.0
145 ; 1.7693695909566104E7 ; 2.0107970710463402E8 ; 2.6192811284376345E9 ; 2.748212677702938E10 ; 0.0
146 ; 1.7681704585462123E7 ; 2.0108455702423954E8 ; 2.6369748243472004E9 ; 2.7683206484134014E10 ; 0.0
147 ; 1.76658013089856E7 ; 2.0108939411930278E8 ; 2.6546565289326625E9 ; 2.7884291041158253E10 ; 0.0
148 ; 1.7649709833077755E7 ; 2.0109421825913867E8 ; 2.672322330241648E9 ; 2.8085380435277557E10 ; 0.0
149 ; 1.7633978361048043E7 ; 2.0109902931434286E8 ; 2.689972040074726E9 ; 2.8286474653536697E10 ; 0.0
150 ; 1.7623634946931835E7 ; 2.0110382715676007E8 ; 2.7076060184357743E9 ; 2.848757368285104E10 ; 0.0
151 ; 1.7608542828995597E7 ; 2.011086116594534E8 ; 2.725229653382706E9 ; 2.86886775100078E10 ; 0.0
152 ; 1.758919403113701E7 ; 2.0111338269667515E8 ; 2.742838196211702E9 ; 2.8889786121667255E10 ; 0.0
153 ; 1.757431293479991E7 ; 2.0111814014383888E8 ; 2.760427390242839E9 ; 2.909089950436393E10 ; 0.0
154 ; 1.755591098682741E7 ; 2.0112288387749243E8 ; 2.778001703177639E9 ; 2.9292017644507767E10 ; 0.0
155 ; 1.753913200669901E7 ; 2.0112761377529216E8 ; 2.7955576141644664E9 ; 2.9493140528385258E10 ; 0.0
156 ; 1.7528285666620273E7 ; 2.0113232971597832E8 ; 2.8130967461711655E9 ; 2.969426814216055E10 ; 0.0
157 ; 1.751369827637531E7 ; 2.0113703157935125E8 ; 2.8306250318377857E9 ; 2.9895400471876526E10 ; 0.0
158 ; 1.7497919764984194E7 ; 2.011417192462486E8 ; 2.848138730114161E9 ; 3.0096537503455875E10 ; 0.0
159 ; 1.748370077468126E7 ; 2.011463925985237E8 ; 2.865636649879145E9 ; 3.0297679222702126E10 ; 0.0
160 ; 1.7461880659538887E7 ; 2.011510515190244E8 ; 2.883120350653826E9 ; 3.0498825615300648E10 ; 0.0
161 ; 1.7451245812792595E7 ; 2.0115569589157304E8 ; 2.900582231313365E9 ; 3.069997666681967E10 ; 0.0
162 ; 1.7434404253405593E7 ; 2.011603256009472E8 ; 2.9180334771261578E9 ; 3.0901132362711246E10 ; 0.0
163 ; 1.7422604614048563E7 ; 2.0116494053286114E8 ; 2.9354678813795633E9 ; 3.1102292688312195E10 ; 0.0
164 ; 1.7398392900523424E7 ; 2.0116954057394794E8 ; 2.952890485993612E9 ; 3.1303457628845055E10 ; 0.0
165 ; 1.7382386957022775E7 ; 2.0117412561174256E8 ; 2.9702888788941355E9 ; 3.1504627169419003E10 ; 0.0
166 ; 1.7365352919748895E7 ; 2.0117869553466535E8 ; 2.987671265851158E9 ; 3.1705801295030746E10 ; 0.0
167 ; 1.734920973668723E7 ; 2.0118325023200622E8 ; 3.005036618770907E9 ; 3.190697999056541E10 ; 0.0
168 ; 1.7336221187637374E7 ; 2.0118778959390974E8 ; 3.022385828507594E9 ; 3.2108163240797417E10 ; 0.0
169 ; 1.732157773773458E7 ; 2.0119231351136026E8 ; 3.0397220496952314E9 ; 3.2309351030391327E10 ; 0.0
170 ; 1.7298756177396294E7 ; 2.0119682187616825E8 ; 3.057043627432966E9 ; 3.2510543343902687E10 ; 0.0
171 ; 1.7282929573886115E7 ; 2.0120131458095673E8 ; 3.0743423836103625E9 ; 3.2711740165778854E10 ; 0.0
172 ; 1.726926442330718E7 ; 2.0120579151914835E8 ; 3.0916253131842484E9 ; 3.291294148035981E10 ; 0.0
173 ; 1.7251700714301813E7 ; 2.01210252584953E8 ; 3.1088945776075554E9 ; 3.311414727187896E10 ; 0.0
174 ; 1.7244827999212902E7 ; 2.0121469767335606E8 ; 3.126146278321857E9 ; 3.3315357524463913E10 ; 0.0
175 ; 1.7232151508645203E7 ; 2.0121912668010667E8 ; 3.1433911063210697E9 ; 3.3516572222137268E10 ; 0.0
176 ; 1.7221297113176264E7 ; 2.0122353950170696E8 ; 3.160623257829715E9 ; 3.3717791348817375E10 ; 0.0
177 ; 1.7215736966036305E7 ; 2.0122793603540128E8 ; 3.177844554942891E9 ; 3.391901488831908E10 ; 0.0
178 ; 1.720431402923305E7 ; 2.0123231617916626E8 ; 3.1950602919089274E9 ; 3.412024282435448E10 ; 0.0
179 ; 1.719236412151329E7 ; 2.0123667983170077E8 ; 3.2122646059381604E9 ; 3.4321475140533646E10 ; 0.0
180 ; 1.7181034528040074E7 ; 2.012410268924167E8 ; 3.229456970059674E9 ; 3.452271182036535E10 ; 0.0
181 ; 1.7172577317220215E7 ; 2.0124535726142982E8 ; 3.2466380045877137E9 ; 3.472395284725777E10 ; 0.0
182 ; 1.7159249928718958E7 ; 2.0124967083955124E8 ; 3.263810581904934E9 ; 3.4925198204519196E10 ; 0.0
183 ; 1.7149816335490037E7 ; 2.012539675282788E8 ; 3.280969831833653E9 ; 3.512644787535875E10 ; 0.0
184 ; 1.714168090710861E7 ; 2.012582472297893E8 ; 3.298119648169143E9 ; 3.532770184288703E10 ; 0.0
185 ; 1.713215879017844E7 ; 2.012625098469306E8 ; 3.315261329076252E9 ; 3.552896009011682E10 ; 0.0
186 ; 1.7120285962123513E7 ; 2.0126675528321424E8 ; 3.3323934878664303E9 ; 3.573022259996375E10 ; 0.0
187 ; 1.7107954245795242E7 ; 2.0127098344280836E8 ; 3.3495137738285537E9 ; 3.593148935524696E10 ; 0.0
188 ; 1.7103927797436055E7 ; 2.0127519423053074E8 ; 3.366621728074349E9 ; 3.613276033868977E10 ; 0.0
189 ; 1.7089553221818913E7 ; 2.0127938755184227E8 ; 3.383725655871785E9 ; 3.63340355329203E10 ; 0.0
190 ; 1.7079347883998398E7 ; 2.0128356331284052E8 ; 3.400815209093604E9 ; 3.6535314920472145E10 ; 0.0
191 ; 1.7070879519413732E7 ; 2.0128772142025375E8 ; 3.4178945569776025E9 ; 3.673659848378499E10 ; 0.0
192 ; 1.706237120443834E7 ; 2.012918617814349E8 ; 3.4349654364970164E9 ; 3.6937886205205246E10 ; 0.0
193 ; 1.704745520389907E7 ; 2.012959843043561E8 ; 3.4520278077014546E9 ; 3.713917806698668E10 ; 0.0
194 ; 1.704010793292516E7 ; 2.0130008889760312E8 ; 3.4690752629053535E9 ; 3.734047405129104E10 ; 0.0
195 ; 1.702738146038383E7 ; 2.0130417547037026E8 ; 3.486115370838279E9 ; 3.7541774140188644E10 ; 0.0
