CSV File for the City 4 on Day 210
1 - Minute m 
2 - Power Consumed at minute m 
3 - Power Produced at minute m 
4 - Energy Consumed since the beginning of the day 
5 - Energy Produced since the beginning of the day 
6 - Energy Lost since the beginning of the day on lines starting from the city
 
0 ; 449772.65330188605 ; 1.0565725350769398E8 ; 0.0 ; 0.0 ; 0.0
1 ; 458461.13317884004 ; 1.0580635084644008E8 ; 449772.65330188605 ; 1.0565725350769398E8 ; 0.0
2 ; 468099.8168799256 ; 1.0626459134174702E8 ; 908233.7864807261 ; 2.1146360435413405E8 ; 0.0
3 ; 476456.57738079916 ; 1.070319900969423E8 ; 1376333.6033606518 ; 3.1772819569588107E8 ; 0.0
4 ; 486767.88205955015 ; 1.081085610632497E8 ; 1852790.180741451 ; 4.247601857928234E8 ; 0.0
5 ; 501046.6952096989 ; 1.094943168352158E8 ; 2339558.062801001 ; 5.328687468560731E8 ; 0.0
6 ; 517137.95236870245 ; 1.111892684550285E8 ; 2840604.7580107 ; 6.42363063691289E8 ; 0.0
7 ; 540940.5109138441 ; 1.1319342523224592E8 ; 3357742.710379402 ; 7.535523321463175E8 ; 0.0
8 ; 574486.1420575946 ; 1.1550679458541363E8 ; 3898683.2212932464 ; 8.667457573785634E8 ; 0.0
9 ; 625375.7792888628 ; 1.1812938191162169E8 ; 4473169.363350841 ; 9.822525519639771E8 ; 0.0
10 ; 704864.1882630793 ; 1.2106119048922932E8 ; 5098545.142639704 ; 1.100381933875599E9 ; 0.0
11 ; 828454.4601551796 ; 1.2430222141779456E8 ; 5803409.330902783 ; 1.221443124364828E9 ; 0.0
12 ; 1030203.9318475478 ; 1.2785247359775934E8 ; 6631863.791057963 ; 1.3457453457826226E9 ; 0.0
13 ; 1221683.5692485261 ; 1.3171194375076443E8 ; 7662067.722905511 ; 1.4735978193803818E9 ; 0.0
14 ; 1243277.5593854387 ; 1.3588062647971988E8 ; 8883751.292154036 ; 1.6053097631311462E9 ; 0.0
15 ; 1251942.4239140402 ; 1.4035851436608E8 ; 1.0127028851539476E7 ; 1.741190389610866E9 ; 0.0
16 ; 1263991.0087971461 ; 1.4514559810028675E8 ; 1.1378971275453515E7 ; 1.881548903976946E9 ; 0.0
17 ; 1272745.2486888417 ; 1.502418666401522E8 ; 1.2642962284250662E7 ; 2.0266945020772328E9 ; 0.0
18 ; 1281883.0241802463 ; 1.5564730739112973E8 ; 1.3915707532939503E7 ; 2.176936368717385E9 ; 0.0
19 ; 1290718.1727039514 ; 1.6136190640199563E8 ; 1.519759055711975E7 ; 2.332583676108515E9 ; 0.0
20 ; 1302031.342699104 ; 1.6738564856942233E8 ; 1.6488308729823701E7 ; 2.4939455825105104E9 ; 0.0
21 ; 1310655.2020852317 ; 1.7371851784523883E8 ; 1.7790340072522804E7 ; 2.6613312310799327E9 ; 0.0
22 ; 1322846.3462384946 ; 1.8036049744076276E8 ; 1.9100995274608035E7 ; 2.8350497489251714E9 ; 0.0
23 ; 1334669.540829675 ; 1.873115700233881E8 ; 2.042384162084653E7 ; 3.0154102463659344E9 ; 0.0
24 ; 1343994.4988610535 ; 1.9457171790152627E8 ; 2.1758511161676202E7 ; 3.2027218163893223E9 ; 0.0
25 ; 1354007.5166261091 ; 2.0082896409314367E8 ; 2.3102505660537254E7 ; 3.3972935342908487E9 ; 0.0
26 ; 1365088.319297686 ; 2.0083683851641744E8 ; 2.4456513177163363E7 ; 3.598122498383992E9 ; 0.0
27 ; 1374324.4807895243 ; 2.0084509265066132E8 ; 2.582160149646105E7 ; 3.7989593369004097E9 ; 0.0
28 ; 1385296.4954919044 ; 2.0085370890099177E8 ; 2.7195925977250572E7 ; 3.999804429551071E9 ; 0.0
29 ; 1392872.3225003826 ; 2.0086266999157262E8 ; 2.8581222472742476E7 ; 4.200658138452063E9 ; 0.0
30 ; 1404513.873966968 ; 2.0087195904844686E8 ; 2.9974094795242857E7 ; 4.401520808443636E9 ; 0.0
31 ; 1415260.3012354863 ; 2.0088155966628996E8 ; 3.1378608669209827E7 ; 4.602392767492083E9 ; 0.0
32 ; 1424022.719177961 ; 2.0089145596041974E8 ; 3.2793868970445313E7 ; 4.803274327158373E9 ; 0.0
33 ; 1431815.7876427027 ; 2.009016326055407E8 ; 3.4217891689623274E7 ; 5.004165783118793E9 ; 0.0
34 ; 1439752.3836244743 ; 2.0091207486276057E8 ; 3.564970747726598E7 ; 5.205067415724333E9 ; 0.0
35 ; 1449429.5154426547 ; 2.0092276859641019E8 ; 3.708945986089045E7 ; 5.405979490587093E9 ; 0.0
36 ; 1458985.561573429 ; 2.0093370028214073E8 ; 3.85388893763331E7 ; 5.606902259183503E9 ; 0.0
37 ; 1468304.566039013 ; 2.0094485700768226E8 ; 3.999787493790653E7 ; 5.807835959465644E9 ; 0.0
38 ; 1474959.6248703448 ; 2.0095622646753377E8 ; 4.1466179503945544E7 ; 6.008780816473326E9 ; 0.0
39 ; 1482186.0670009726 ; 2.0096779695272967E8 ; 4.294113912881589E7 ; 6.20973704294086E9 ; 0.0
40 ; 1490526.0895812355 ; 2.0097955733669803E8 ; 4.442332519581686E7 ; 6.410704839893589E9 ; 0.0
41 ; 1499853.9886670373 ; 2.0099149705809805E8 ; 4.5913851285398096E7 ; 6.611684397230287E9 ; 0.0
42 ; 1505774.8966868047 ; 2.0100360610140195E8 ; 4.741370527406514E7 ; 6.812675894288384E9 ; 0.0
43 ; 1511182.9109601304 ; 2.010158749758724E8 ; 4.8919480170751944E7 ; 7.013679500389787E9 ; 0.0
44 ; 1518715.6488660348 ; 2.0102829469348353E8 ; 5.0430663081712075E7 ; 7.214695375365659E9 ; 0.0
45 ; 1525448.1360197624 ; 2.0104085674623936E8 ; 5.194937873057811E7 ; 7.415723670059142E9 ; 0.0
46 ; 1530249.178262667 ; 2.0105355308326256E8 ; 5.347482686659787E7 ; 7.616764526805382E9 ; 0.0
47 ; 1536058.0244258698 ; 2.0106637608795342E8 ; 5.5005076044860534E7 ; 7.817818079888644E9 ; 0.0
48 ; 1542129.9128114663 ; 2.010793185554584E8 ; 5.6541134069286406E7 ; 8.018884455976598E9 ; 0.0
49 ; 1547534.6794970785 ; 2.0109237367063364E8 ; 5.808326398209787E7 ; 8.219963774532056E9 ; 0.0
50 ; 1550523.6877856448 ; 2.01105534986645E8 ; 5.963079866159495E7 ; 8.421056148202689E9 ; 0.0
51 ; 1554113.9076060923 ; 2.0111879640430874E8 ; 6.11813223493806E7 ; 8.622161683189335E9 ; 0.0
52 ; 1559775.0743000535 ; 2.0113215215224552E8 ; 6.273543625698669E7 ; 8.823280479593643E9 ; 0.0
53 ; 1565598.9913969468 ; 2.0114559676789623E8 ; 6.429521133128674E7 ; 9.024412631745888E9 ; 0.0
54 ; 1567945.5301093112 ; 2.0115912507942602E8 ; 6.586081032268369E7 ; 9.225558228513784E9 ; 0.0
55 ; 1573722.8984985303 ; 2.011727321885277E8 ; 6.742875585279301E7 ; 9.42671735359321E9 ; 0.0
56 ; 1575561.8593794068 ; 2.011864134541216E8 ; 6.900247875129154E7 ; 9.627890085781738E9 ; 0.0
57 ; 1579006.18886089 ; 2.0120016447693968E8 ; 7.057804061067095E7 ; 9.829076499235859E9 ; 0.0
58 ; 1584032.1798995459 ; 2.0121398108497286E8 ; 7.215704679953185E7 ; 1.00302766637128E10 ; 0.0
59 ; 1585751.349184211 ; 2.0122785931975573E8 ; 7.374107897943139E7 ; 1.0231490644797771E10 ; 0.0
60 ; 1590790.268194924 ; 2.0124179542345753E8 ; 7.53268303286156E7 ; 1.0432718504117527E10 ; 0.0
61 ; 1595474.5603491566 ; 2.012557858267465E8 ; 7.691762059681053E7 ; 1.0633960299540985E10 ; 0.0
62 ; 1600071.9349645004 ; 2.01269827137392E8 ; 7.851309515715969E7 ; 1.0835216085367731E10 ; 0.0
63 ; 1602487.9042201717 ; 2.0128391612956834E8 ; 8.01131670921242E7 ; 1.1036485912505123E10 ; 0.0
64 ; 1607338.087443817 ; 2.0129804973382366E8 ; 8.171565499634437E7 ; 1.1237769828634691E10 ; 0.0
65 ; 1611177.5793050157 ; 2.0131222502767786E8 ; 8.332299308378819E7 ; 1.1439067878368515E10 ; 0.0
66 ; 1612759.3506111016 ; 2.0132643922681376E8 ; 8.493417066309321E7 ; 1.1640380103396193E10 ; 0.0
67 ; 1619272.2067008424 ; 2.013406896768268E8 ; 8.654693001370431E7 ; 1.1841706542623007E10 ; 0.0
68 ; 1621773.7886519374 ; 2.0135497384549996E8 ; 8.816620222040516E7 ; 1.2043047232299833E10 ; 0.0
69 ; 1622739.9774083623 ; 2.013692893155716E8 ; 8.97879760090571E7 ; 1.2244402206145332E10 ; 0.0
70 ; 1626293.1742011546 ; 2.013836337779655E8 ; 9.141071598646547E7 ; 1.2445771495460903E10 ; 0.0
71 ; 1631743.1612199552 ; 2.0139800502545372E8 ; 9.303700916066663E7 ; 1.2647155129238869E10 ; 0.0
72 ; 1633987.7296978505 ; 2.01412400946725E8 ; 9.466875232188658E7 ; 1.2848553134264322E10 ; 0.0
73 ; 1635158.5448276817 ; 2.014268195208318E8 ; 9.630274005158444E7 ; 1.3049965535211048E10 ; 0.0
74 ; 1641007.31437042 ; 2.014412588119916E8 ; 9.793789859641212E7 ; 1.325139235473188E10 ; 0.0
75 ; 1642284.9043797536 ; 2.014557169647195E8 ; 9.957890591078255E7 ; 1.345283361354387E10 ; 0.0
76 ; 1646588.8508510988 ; 2.014701921992696E8 ; 1.012211908151623E8 ; 1.365428933050859E10 ; 0.0
77 ; 1651240.8301751292 ; 2.0148468280736518E8 ; 1.028677796660134E8 ; 1.385575952270786E10 ; 0.0
78 ; 1650474.4299952392 ; 2.0149918714819834E8 ; 1.0451902049618854E8 ; 1.4057244205515226E10 ; 0.0
79 ; 1650447.6952890547 ; 2.0151370364468116E8 ; 1.0616949492618378E8 ; 1.4258743392663425E10 ; 0.0
80 ; 1654118.4077291777 ; 2.0152823077993143E8 ; 1.0781994262147284E8 ; 1.4460257096308107E10 ; 0.0
81 ; 1651538.5013392835 ; 2.015427670939777E8 ; 1.0947406102920201E8 ; 1.466178532708804E10 ; 0.0
82 ; 1654098.770778592 ; 2.015573111806687E8 ; 1.111255995305413E8 ; 1.4863328094182016E10 ; 0.0
83 ; 1653605.5212758926 ; 2.0157186168477368E8 ; 1.127796983013199E8 ; 1.5064885405362684E10 ; 0.0
84 ; 1653164.9714428773 ; 2.0158641729926074E8 ; 1.1443330382259579E8 ; 1.5266457267047459E10 ; 0.0
85 ; 1654428.7616728141 ; 2.016009767627418E8 ; 1.1608646879403867E8 ; 1.546804368434672E10 ; 0.0
86 ; 1654940.9018863672 ; 2.0161553885707265E8 ; 1.1774089755571148E8 ; 1.566964466110946E10 ; 0.0
87 ; 1655892.4732572301 ; 2.0163010240509826E8 ; 1.1939583845759785E8 ; 1.5871260199966534E10 ; 0.0
88 ; 1655992.9525157283 ; 2.016446662685335E8 ; 1.2105173093085508E8 ; 1.6072890302371632E10 ; 0.0
89 ; 1655303.7819884724 ; 2.0165922934597048E8 ; 1.227077238833708E8 ; 1.6274534968640165E10 ; 0.0
90 ; 1656591.6773207216 ; 2.0167379057100445E8 ; 1.2436302766535927E8 ; 1.6476194197986135E10 ; 0.0
91 ; 1655561.3300522517 ; 2.016883489104701E8 ; 1.2601961934267999E8 ; 1.667786798855714E10 ; 0.0
92 ; 1655820.7980635853 ; 2.017029033627815E8 ; 1.2767518067273225E8 ; 1.6879556337467611E10 ; 0.0
93 ; 1656333.2769440864 ; 2.0171745295636886E8 ; 1.2933100147079584E8 ; 1.7081259240830393E10 ; 0.0
94 ; 1655217.7449157077 ; 2.017319967482058E8 ; 1.3098733474773993E8 ; 1.7282976693786762E10 ; 0.0
95 ; 1655757.23268883 ; 2.0174653382242155E8 ; 1.3264255249265563E8 ; 1.748470869053497E10 ; 0.0
96 ; 1656423.543528226 ; 2.017610632889923E8 ; 1.3429830972534448E8 ; 1.768645522435739E10 ; 0.0
97 ; 1654063.999194679 ; 2.0177558428250733E8 ; 1.359547332688727E8 ; 1.7888216287646385E10 ; 0.0
98 ; 1656822.8352626502 ; 2.017900959610045E8 ; 1.376087972680674E8 ; 1.8089991871928894E10 ; 0.0
99 ; 1653932.4366581226 ; 2.0180459750487122E8 ; 1.3926562010333005E8 ; 1.82917819678899E10 ; 0.0
100 ; 1655351.0386589891 ; 2.0181908811580667E8 ; 1.4091955253998816E8 ; 1.849358656539477E10 ; 0.0
101 ; 1652778.5902824975 ; 2.0183356701584157E8 ; 1.4257490357864714E8 ; 1.869540565351058E10 ; 0.0
102 ; 1653210.470415123 ; 2.0184803344641176E8 ; 1.4422768216892964E8 ; 1.889723922052642E10 ; 0.0
103 ; 1654318.212050376 ; 2.0186248666748253E8 ; 1.4588089263934475E8 ; 1.909908725397283E10 ; 0.0
104 ; 1652098.0630502903 ; 2.0187692595672032E8 ; 1.4753521085139513E8 ; 1.9300949740640316E10 ; 0.0
105 ; 1648867.085586108 ; 2.0189135060870948E8 ; 1.4918730891444543E8 ; 1.9502826666597034E10 ; 0.0
106 ; 1651282.0219162155 ; 2.0190575993421054E8 ; 1.5083617600003153E8 ; 1.9704718017205746E10 ; 0.0
107 ; 1649985.6869651084 ; 2.0192015325945833E8 ; 1.5248745802194774E8 ; 1.9906623777139957E10 ; 0.0
108 ; 1649546.8409756895 ; 2.0193452992549706E8 ; 1.5413744370891285E8 ; 2.0108543930399414E10 ; 0.0
109 ; 1648456.387525933 ; 2.0194888928755036E8 ; 1.5578699054988855E8 ; 2.0310478460324913E10 ; 0.0
110 ; 1649755.2153931647 ; 2.019632307144243E8 ; 1.574354469374145E8 ; 2.0512427349612465E10 ; 0.0
111 ; 1646571.467402999 ; 2.019775535879412E8 ; 1.5908520215280765E8 ; 2.071439058032689E10 ; 0.0
112 ; 1645675.679283089 ; 2.0199185730240285E8 ; 1.6073177362021065E8 ; 2.091636813391483E10 ; 0.0
113 ; 1643384.8903998935 ; 2.02006141264081E8 ; 1.6237744929949373E8 ; 2.111835999121723E10 ; 0.0
114 ; 1644479.3349717902 ; 2.020204048907339E8 ; 1.6402083418989363E8 ; 2.132036613248131E10 ; 0.0
115 ; 1644712.96819049 ; 2.0203464761114725E8 ; 1.6566531352486542E8 ; 2.1522386537372047E10 ; 0.0
116 ; 1642154.7861782876 ; 2.0204886886469826E8 ; 1.673100264930559E8 ; 2.1724421184983196E10 ; 0.0
117 ; 1638660.49477974 ; 2.020630681009413E8 ; 1.689521812792342E8 ; 2.1926470053847893E10 ; 0.0
118 ; 1640993.6455959661 ; 2.0207724477921435E8 ; 1.7059084177401394E8 ; 2.2128533121948833E10 ; 0.0
119 ; 1636927.7527493364 ; 2.0209139836826462E8 ; 1.722318354196099E8 ; 2.2330610366728046E10 ; 0.0
120 ; 1638046.9590192495 ; 2.0210552834589276E8 ; 1.7386876317235923E8 ; 2.253270176509631E10 ; 0.0
121 ; 1635548.8463438354 ; 2.0211963419861403E8 ; 1.7550681013137847E8 ; 2.2734807293442204E10 ; 0.0
122 ; 1633851.7035000757 ; 2.0213371542133635E8 ; 1.7714235897772232E8 ; 2.2936926927640816E10 ; 0.0
123 ; 1632122.187257491 ; 2.0214777151705334E8 ; 1.7877621068122238E8 ; 2.3139060643062153E10 ; 0.0
124 ; 1630632.842064211 ; 2.021618019965524E8 ; 1.8040833286847988E8 ; 2.3341208414579205E10 ; 0.0
125 ; 1629263.0108251087 ; 2.0217580637813658E8 ; 1.8203896571054408E8 ; 2.3543370216575756E10 ; 0.0
126 ; 1627642.9969261652 ; 2.0218978418735933E8 ; 1.8366822872136918E8 ; 2.374554602295389E10 ; 0.0
127 ; 1626705.4250604333 ; 2.0220373495677224E8 ; 1.8529587171829534E8 ; 2.394773580714125E10 ; 0.0
128 ; 1624166.8947168763 ; 2.0221765822568396E8 ; 1.8692257714335576E8 ; 2.4149939542098022E10 ; 0.0
129 ; 1623517.4214273558 ; 2.0223155353993073E8 ; 1.8854674403807265E8 ; 2.4352157200323708E10 ; 0.0
130 ; 1619451.0165576607 ; 2.0224542045165744E8 ; 1.901702614595E8 ; 2.455438875386364E10 ; 0.0
131 ; 1613738.6672607202 ; 2.022592585191085E8 ; 1.9178971247605768E8 ; 2.4756634174315296E10 ; 0.0
132 ; 1611769.3341226904 ; 2.0227306730642858E8 ; 1.9340345114331838E8 ; 2.4958893432834404E10 ; 0.0
133 ; 1606965.968804896 ; 2.022868463834722E8 ; 1.9501522047744107E8 ; 2.516116650014083E10 ; 0.0
134 ; 1601471.9855904363 ; 2.0230059532562196E8 ; 1.9662218644624597E8 ; 2.5363453346524303E10 ; 0.0
135 ; 1595741.9490398094 ; 2.0231431371361497E8 ; 1.982236584318364E8 ; 2.5565753941849926E10 ; 0.0
136 ; 1592950.8351050157 ; 2.023280011333769E8 ; 1.998194003808762E8 ; 2.576806825556354E10 ; 0.0
137 ; 1590574.3332310873 ; 2.0234165717586365E8 ; 2.0141235121598122E8 ; 2.597039625669692E10 ; 0.0
138 ; 1584697.5892670604 ; 2.0235528143690985E8 ; 2.030029255492123E8 ; 2.6172737913872784E10 ; 0.0
139 ; 1579404.8186679392 ; 2.0236887351708394E8 ; 2.0458762313847938E8 ; 2.6375093195309692E10 ; 0.0
140 ; 1574581.4641627711 ; 2.0238243302154985E8 ; 2.0616702795714733E8 ; 2.6577462068826775E10 ; 0.0
141 ; 1570303.9230407714 ; 2.023959595599344E8 ; 2.077416094213101E8 ; 2.6779844501848324E10 ; 0.0
142 ; 1564314.5123993778 ; 2.0240945274620077E8 ; 2.0931191334435087E8 ; 2.6982240461408257E10 ; 0.0
143 ; 1563065.9339514677 ; 2.0242291219852713E8 ; 2.1087622785675025E8 ; 2.7184649914154457E10 ; 0.0
144 ; 1554671.9985554232 ; 2.0243633753919062E8 ; 2.1243929379070172E8 ; 2.7387072826352985E10 ; 0.0
145 ; 1555086.5175330602 ; 2.0244972839445633E8 ; 2.1399396578925714E8 ; 2.7589509163892178E10 ; 0.0
146 ; 1552031.2056635567 ; 2.024630843944709E8 ; 2.155490523067902E8 ; 2.7791958892286633E10 ; 0.0
147 ; 1551011.582814127 ; 2.0247640517316064E8 ; 2.1710108351245376E8 ; 2.7994421976681103E10 ; 0.0
148 ; 1549434.9760129424 ; 2.0248969036813402E8 ; 2.186520950952679E8 ; 2.8196898381854263E10 ; 0.0
149 ; 1546297.7384200066 ; 2.0250293962058818E8 ; 2.2020153007128084E8 ; 2.8399388072222397E10 ; 0.0
150 ; 1545925.4266060237 ; 2.025161525752193E8 ; 2.2174782780970085E8 ; 2.8601891011842983E10 ; 0.0
151 ; 1541353.3465210802 ; 2.0252932888013685E8 ; 2.2329375323630688E8 ; 2.88044071644182E10 ; 0.0
152 ; 1540762.703364809 ; 2.0254246818678123E8 ; 2.2483510658282796E8 ; 2.900693649329834E10 ; 0.0
153 ; 1537631.2609136452 ; 2.0255557014984494E8 ; 2.2637586928619277E8 ; 2.9209478961485123E10 ; 0.0
154 ; 1537108.3488123815 ; 2.0256863442719686E8 ; 2.2791350054710642E8 ; 2.9412034531634968E10 ; 0.0
155 ; 1533077.449717207 ; 2.0258166067980978E8 ; 2.294506088959188E8 ; 2.9614603166062164E10 ; 0.0
156 ; 1532232.3416761362 ; 2.025946485716907E8 ; 2.3098368634563598E8 ; 2.9817184826741974E10 ; 0.0
157 ; 1530966.3825119345 ; 2.0260759776981422E8 ; 2.3251591868731213E8 ; 3.0019779475313663E10 ; 0.0
158 ; 1529133.0568929752 ; 2.026205079440583E8 ; 2.3404688506982407E8 ; 3.0222387073083477E10 ; 0.0
159 ; 1526416.6616987563 ; 2.0263337876714286E8 ; 2.3557601812671703E8 ; 3.0425007581027534E10 ; 0.0
160 ; 1524076.6332158258 ; 2.026462099145708E8 ; 2.371024347884158E8 ; 3.0627640959794678E10 ; 0.0
161 ; 1523327.5138055822 ; 2.0265900106457138E8 ; 2.386265114216316E8 ; 3.0830287169709248E10 ; 0.0
162 ; 1519971.2320939722 ; 2.0267175189804572E8 ; 2.4014983893543717E8 ; 3.103294617077382E10 ; 0.0
163 ; 1517674.4818690117 ; 2.0268446209851468E8 ; 2.4166981016753113E8 ; 3.1235617922671864E10 ; 0.0
164 ; 1514724.898596171 ; 2.0269713135206866E8 ; 2.4318748464940014E8 ; 3.143830238477038E10 ; 0.0
165 ; 1513155.790374421 ; 2.027097593473196E8 ; 2.447022095479963E8 ; 3.1640999516122448E10 ; 0.0
166 ; 1513084.147374675 ; 2.027223457753545E8 ; 2.4621536533837074E8 ; 3.184370927546977E10 ; 0.0
167 ; 1509908.540257788 ; 2.027348903296911E8 ; 2.4772844948574543E8 ; 3.2046431621245125E10 ; 0.0
168 ; 1507829.9473039317 ; 2.0274739270623523E8 ; 2.492383580260032E8 ; 3.2249166511574818E10 ; 0.0
169 ; 1505596.1764875413 ; 2.0275985260323972E8 ; 2.5074618797330713E8 ; 3.245191390428105E10 ; 0.0
170 ; 1503818.387488062 ; 2.0277226972126502E8 ; 2.5225178414979467E8 ; 3.2654673756884293E10 ; 0.0
171 ; 1500926.7183749804 ; 2.0278464376314127E8 ; 2.5375560253728274E8 ; 3.2857446026605556E10 ; 0.0
172 ; 1499296.5995038883 ; 2.0279697443393207E8 ; 2.552565292556577E8 ; 3.30602306703687E10 ; 0.0
173 ; 1498263.5006418834 ; 2.0280926144089922E8 ; 2.5675582585516158E8 ; 3.326302764480263E10 ; 0.0
174 ; 1497475.7985185003 ; 2.0282150449346933E8 ; 2.5825408935580346E8 ; 3.346583690624353E10 ; 0.0
175 ; 1495832.5698955518 ; 2.0283370330320138E8 ; 2.5975156515432197E8 ; 3.3668658410737E10 ; 0.0
176 ; 1492583.408396841 ; 2.0284585758375558E8 ; 2.6124739772421753E8 ; 3.38714921140402E10 ; 0.0
177 ; 1493307.5867739443 ; 2.0285796705086365E8 ; 2.6273998113261437E8 ; 3.4074337971623955E10 ; 0.0
178 ; 1489208.3303729605 ; 2.0287003142229992E8 ; 2.642332887193883E8 ; 3.427719593867482E10 ; 0.0
179 ; 1485655.1181197711 ; 2.0288205041785383E8 ; 2.6572249704976127E8 ; 3.448006597009712E10 ; 0.0
180 ; 1485984.5982597843 ; 2.0289402375930327E8 ; 2.6720815216788104E8 ; 3.468294802051498E10 ; 0.0
181 ; 1486568.9309658383 ; 2.0290595117038915E8 ; 2.686941367661408E8 ; 3.488584204427428E10 ; 0.0
182 ; 1483060.9222203314 ; 2.029178323767906E8 ; 2.7018070569710666E8 ; 3.5088747995444664E10 ; 0.0
183 ; 1483541.8100879877 ; 2.0292966710610172E8 ; 2.71663766619327E8 ; 3.529166582782146E10 ; 0.0
184 ; 1481061.0503292424 ; 2.029414550878085E8 ; 2.73147308429415E8 ; 3.549459549492756E10 ; 0.0
185 ; 1479260.198337624 ; 2.0295319605326715E8 ; 2.7462836947974426E8 ; 3.5697536950015366E10 ; 0.0
186 ; 1480061.1800821263 ; 2.0296488973568305E8 ; 2.7610762967808187E8 ; 3.5900490146068634E10 ; 0.0
187 ; 1476379.8087149987 ; 2.0297653587009057E8 ; 2.77587690858164E8 ; 3.610345503580431E10 ; 0.0
188 ; 1474443.0710759405 ; 2.0298813419333366E8 ; 2.79064070666879E8 ; 3.630643157167441E10 ; 0.0
189 ; 1474248.0096109246 ; 2.0299968444404697E8 ; 2.805385137379549E8 ; 3.6509419705867744E10 ; 0.0
190 ; 1472284.3919861598 ; 2.030111863626382E8 ; 2.8201276174756587E8 ; 3.671241939031179E10 ; 0.0
191 ; 1471203.4685440245 ; 2.0302263969127047E8 ; 2.83485046139552E8 ; 3.691543057667443E10 ; 0.0
192 ; 1471462.9911404154 ; 2.0303404417384598E8 ; 2.84956249608096E8 ; 3.71184532163657E10 ; 0.0
193 ; 1471708.054103019 ; 2.030453995559898E8 ; 2.864277125992364E8 ; 3.732148726053954E10 ; 0.0
194 ; 1467880.3183393865 ; 2.0305670558503476E8 ; 2.8789942065333945E8 ; 3.7524532660095535E10 ; 0.0
195 ; 1467423.4087215369 ; 2.0306796201000634E8 ; 2.8936730097167885E8 ; 3.772758936568057E10 ; 0.0
196 ; 1461983.9867776593 ; 2.0307916858160877E8 ; 2.908347243804004E8 ; 3.793065732769058E10 ; 0.0
197 ; 1462266.9763665248 ; 2.0309032505221117E8 ; 2.922967083671781E8 ; 3.8133736496272194E10 ; 0.0
198 ; 1459801.2425681467 ; 2.031014311758345E8 ; 2.937589753435446E8 ; 3.83368268213244E10 ; 0.0
199 ; 1459366.2548443484 ; 2.0311248670813894E8 ; 2.9521877658611274E8 ; 3.853992825250024E10 ; 0.0
