CSV File for the City 6 on Day 271
1 - Minute m 
2 - Power Consumed at minute m 
3 - Power Produced at minute m 
4 - Energy Consumed since the beginning of the day 
5 - Energy Produced since the beginning of the day 
6 - Energy Lost since the beginning of the day on lines starting from the city
 
0 ; 5154128.6230673315 ; 1.0624310372187439E8 ; 0.0 ; 0.0 ; 0.0
1 ; 5161063.083786451 ; 1.0639402179663056E8 ; 5154128.6230673315 ; 1.0624310372187439E8 ; 0.0
2 ; 5166418.422277876 ; 1.0685393022086367E8 ; 1.0315191706853783E7 ; 2.1263712551850495E8 ; 0.0
3 ; 5176579.119277618 ; 1.0762283220439547E8 ; 1.548161012913166E7 ; 3.194910557393686E8 ; 0.0
4 ; 5192634.599238818 ; 1.0870073061758816E8 ; 2.065818924840928E7 ; 4.271138879437641E8 ; 0.0
5 ; 5206496.15206369 ; 1.1008762797755378E8 ; 2.5850823847648095E7 ; 5.3581461856135225E8 ; 0.0
6 ; 5230433.7578465585 ; 1.1178352643586096E8 ; 3.1057319999711785E7 ; 6.459022465389061E8 ; 0.0
7 ; 5256652.185340052 ; 1.137884277678796E8 ; 3.6287753757558346E7 ; 7.576857729747671E8 ; 0.0
8 ; 5309056.627099916 ; 1.1610233336388505E8 ; 4.15444059428984E7 ; 8.714742007426467E8 ; 0.0
9 ; 5387896.753571794 ; 1.1872524422202724E8 ; 4.685346256999832E7 ; 9.875765341065317E8 ; 0.0
10 ; 5507869.945222445 ; 1.2165716094324672E8 ; 5.224135932357011E7 ; 1.106301778328559E9 ; 0.0
11 ; 5701177.3595841965 ; 1.2489808372820011E8 ; 5.7749229268792555E7 ; 1.2279589392718058E9 ; 0.0
12 ; 6012746.035790308 ; 1.2844801237623075E8 ; 6.345040662837675E7 ; 1.352857023000006E9 ; 0.0
13 ; 6312514.221119379 ; 1.3230694628639811E8 ; 6.946315266416706E7 ; 1.4813050353762367E9 ; 0.0
14 ; 6341171.016385088 ; 1.3647488446055233E8 ; 7.577566688528644E7 ; 1.6136119816626348E9 ; 0.0
15 ; 6355945.874317413 ; 1.4095182550841796E8 ; 8.211683790167153E7 ; 1.750086866123187E9 ; 0.0
16 ; 6365142.002635744 ; 1.457377676546252E8 ; 8.847278377598894E7 ; 1.8910386916316051E9 ; 0.0
17 ; 6374798.04061017 ; 1.5083270874760535E8 ; 9.483792577862468E7 ; 2.0367764592862303E9 ; 0.0
18 ; 6383798.347798981 ; 1.562366462702464E8 ; 1.0121272381923485E8 ; 2.187609168033836E9 ; 0.0
19 ; 6397812.576091633 ; 1.619495773521861E8 ; 1.0759652216703382E8 ; 2.3438458143040824E9 ; 0.0
20 ; 6407929.183678568 ; 1.6797149878360274E8 ; 1.1399433474312545E8 ; 2.5057953916562686E9 ; 0.0
21 ; 6419371.355502918 ; 1.7430240703035292E8 ; 1.2040226392680402E8 ; 2.6737668904398713E9 ; 0.0
22 ; 6429382.834774934 ; 1.809422982502923E8 ; 1.2682163528230694E8 ; 2.8480692974702244E9 ; 0.0
23 ; 6439081.432127409 ; 1.8789116831061065E8 ; 1.3325101811708188E8 ; 3.0290115957205167E9 ; 0.0
24 ; 6452463.132846798 ; 1.9514901280600554E8 ; 1.396900995492093E8 ; 3.2169027640311275E9 ; 0.0
25 ; 6461302.551785364 ; 2.014038679757045E8 ; 1.461425626820561E8 ; 3.412051776837133E9 ; 0.0
26 ; 6473513.86743591 ; 2.0140927675968757E8 ; 1.5260386523384145E8 ; 3.6134556448128376E9 ; 0.0
27 ; 6485432.194449048 ; 2.014150033432376E8 ; 1.5907737910127735E8 ; 3.814864921572525E9 ; 0.0
28 ; 6491771.811602155 ; 2.0142104242351404E8 ; 1.655628112957264E8 ; 4.0162799249157624E9 ; 0.0
29 ; 6504693.639085013 ; 2.0142738852259925E8 ; 1.7205458310732853E8 ; 4.2177009673392763E9 ; 0.0
30 ; 6515160.117356552 ; 2.0143403600715333E8 ; 1.7855927674641356E8 ; 4.419128355861876E9 ; 0.0
31 ; 6520164.912352989 ; 2.0144097910778797E8 ; 1.850744368637701E8 ; 4.620562391869029E9 ; 0.0
32 ; 6532744.255917624 ; 2.0144821193803805E8 ; 1.9159460177612308E8 ; 4.822003370976817E9 ; 0.0
33 ; 6539799.9243592555 ; 2.0145572851282158E8 ; 1.9812734603204072E8 ; 5.023451582914855E9 ; 0.0
34 ; 6550329.349008443 ; 2.0146352276629326E8 ; 2.0466714595639998E8 ; 5.224907311427676E9 ; 0.0
35 ; 6557758.500775707 ; 2.014715885690097E8 ; 2.1121747530540842E8 ; 5.42637083419397E9 ; 0.0
36 ; 6563688.053473407 ; 2.0147991974433833E8 ; 2.177752338061841E8 ; 5.6278424227629795E9 ; 0.0
37 ; 6574849.519916125 ; 2.0148851008405527E8 ; 2.2433892185965753E8 ; 5.829322342507318E9 ; 0.0
38 ; 6579283.793804038 ; 2.0149735336308944E8 ; 2.3091377137957364E8 ; 6.0308108525913725E9 ; 0.0
39 ; 6590256.486332946 ; 2.0150644335338274E8 ; 2.374930551733777E8 ; 6.232308205954462E9 ; 0.0
40 ; 6591879.343088226 ; 2.015157738368468E8 ; 2.4408331165971065E8 ; 6.433814649307845E9 ; 0.0
41 ; 6598704.912870913 ; 2.015253386174069E8 ; 2.506751910027989E8 ; 6.635330423144691E9 ; 0.0
42 ; 6604370.617626092 ; 2.015351315321331E8 ; 2.572738959156698E8 ; 6.836855761762098E9 ; 0.0
43 ; 6610281.029003943 ; 2.015451464614666E8 ; 2.638782665332959E8 ; 7.038390893294231E9 ; 0.0
44 ; 6614780.2280814275 ; 2.0155537733855647E8 ; 2.7048854756229985E8 ; 7.239936039755698E9 ; 0.0
45 ; 6620676.021771447 ; 2.0156581815772805E8 ; 2.7710332779038125E8 ; 7.4414914170942545E9 ; 0.0
46 ; 6623980.318985203 ; 2.0157646298210984E8 ; 2.837240038121527E8 ; 7.643057235251983E9 ; 0.0
47 ; 6624245.115018754 ; 2.015873059504496E8 ; 2.903479841311379E8 ; 7.844633698234093E9 ; 0.0
48 ; 6625596.589539451 ; 2.015983412831537E8 ; 2.9697222924615663E8 ; 8.046221004184543E9 ; 0.0
49 ; 6627832.866888199 ; 2.016095632875875E8 ; 3.035978258356961E8 ; 8.247819345467696E9 ; 0.0
50 ; 6627315.016129462 ; 2.016209663626744E8 ; 3.102256587025843E8 ; 8.449428908755283E9 ; 0.0
51 ; 6629794.049711821 ; 2.0163254500283507E8 ; 3.1685297371871376E8 ; 8.651049875117958E9 ; 0.0
52 ; 6629828.30477923 ; 2.0164429380130684E8 ; 3.234827677684256E8 ; 8.852682420120792E9 ; 0.0
53 ; 6633968.214937481 ; 2.0165620745288438E8 ; 3.301125960732048E8 ; 9.0543267139221E9 ; 0.0
54 ; 6633294.410390101 ; 2.0166828075612298E8 ; 3.367465642881423E8 ; 9.255982921374985E9 ; 0.0
55 ; 6634829.255905113 ; 2.016805086150442E8 ; 3.433798586985324E8 ; 9.457651202131107E9 ; 0.0
56 ; 6633367.854206294 ; 2.0169288604038304E8 ; 3.500146879544375E8 ; 9.659331710746151E9 ; 0.0
57 ; 6634431.240223252 ; 2.017054081504153E8 ; 3.566480558086438E8 ; 9.861024596786533E9 ; 0.0
58 ; 6633012.534466029 ; 2.0171807017140102E8 ; 3.6328248704886705E8 ; 1.0062730004936949E10 ; 0.0
59 ; 6635769.1270699585 ; 2.0173086743767965E8 ; 3.699154995833331E8 ; 1.0264448075108349E10 ; 0.0
60 ; 6633041.068486082 ; 2.0174379539145026E8 ; 3.76551268710403E8 ; 1.0466178942546028E10 ; 0.0
61 ; 6633159.972452434 ; 2.0175684958226842E8 ; 3.831843097788891E8 ; 1.0667922737937479E10 ; 0.0
62 ; 6636211.726401339 ; 2.0177002566628945E8 ; 3.898174697513416E8 ; 1.0869679587519747E10 ; 0.0
63 ; 6632790.936119735 ; 2.017833194052867E8 ; 3.964536814777429E8 ; 1.1071449613186037E10 ; 0.0
64 ; 6631357.025798854 ; 2.0179672666547018E8 ; 4.0308647241386265E8 ; 1.1273232932591324E10 ; 0.0
65 ; 6632405.544219477 ; 2.01810243416131E8 ; 4.097178294396615E8 ; 1.1475029659256794E10 ; 0.0
66 ; 6634404.9464845415 ; 2.018238657281333E8 ; 4.16350234983881E8 ; 1.1676839902672924E10 ; 0.0
67 ; 6630079.229624861 ; 2.0183758977227548E8 ; 4.2298463993036556E8 ; 1.1878663768401058E10 ; 0.0
68 ; 6631918.457266328 ; 2.0185141181753945E8 ; 4.2961471915999043E8 ; 1.2080501358173334E10 ; 0.0
69 ; 6631176.153543222 ; 2.018653282292458E8 ; 4.3624663761725676E8 ; 1.2282352769990873E10 ; 0.0
70 ; 6626335.547507868 ; 2.018793354671313E8 ; 4.428778137708E8 ; 1.248421809822012E10 ; 0.0
71 ; 6626571.507133101 ; 2.01893430083363E8 ; 4.495041493183079E8 ; 1.268609743368725E10 ; 0.0
72 ; 6624614.736571897 ; 2.0190760872050315E8 ; 4.56130720825441E8 ; 1.2887990863770613E10 ; 0.0
73 ; 6625686.416357772 ; 2.019218681094361E8 ; 4.627553355620129E8 ; 1.3089898472491116E10 ; 0.0
74 ; 6623575.4206563905 ; 2.01936205067269E8 ; 4.6938102197837067E8 ; 1.3291820340600552E10 ; 0.0
75 ; 6620402.694822598 ; 2.0195061649521556E8 ; 4.7600459739902705E8 ; 1.349375654566782E10 ; 0.0
76 ; 6623083.824292728 ; 2.0196509937647223E8 ; 4.8262500009384966E8 ; 1.3695707162163036E10 ; 0.0
77 ; 6621800.6724164 ; 2.019796507740938E8 ; 4.892480839181424E8 ; 1.3897672261539509E10 ; 0.0
78 ; 6617159.631411445 ; 2.0199426782887647E8 ; 4.9586988459055877E8 ; 1.4099651912313602E10 ; 0.0
79 ; 6606884.5840668 ; 2.0200894775725362E8 ; 5.024870442219702E8 ; 1.4301646180142479E10 ; 0.0
80 ; 6602217.90235378 ; 2.0202368784921017E8 ; 5.09093928806037E8 ; 1.4503655127899733E10 ; 0.0
81 ; 6596940.071366086 ; 2.0203848546622005E8 ; 5.156961467083908E8 ; 1.4705678815748943E10 ; 0.0
82 ; 6591293.628841667 ; 2.0205333803921103E8 ; 5.2229308677975684E8 ; 1.4907717301215164E10 ; 0.0
83 ; 6585973.005060688 ; 2.0206824306656003E8 ; 5.288843804085985E8 ; 1.5109770639254375E10 ; 0.0
84 ; 6583213.480260011 ; 2.0208319811212263E8 ; 5.3547035341365916E8 ; 1.5311838882320936E10 ; 0.0
85 ; 6573178.067309789 ; 2.0209820080329835E8 ; 5.420535668939191E8 ; 1.551392208043306E10 ; 0.0
86 ; 6567102.483284644 ; 2.021132488291346E8 ; 5.486267449612288E8 ; 1.5716020281236359E10 ; 0.0
87 ; 6558970.762885808 ; 2.021283399384707E8 ; 5.551938474445134E8 ; 1.5918133530065493E10 ; 0.0
88 ; 6552173.702167475 ; 2.02143471938123E8 ; 5.617528182073992E8 ; 1.6120261870003963E10 ; 0.0
89 ; 6547947.910605627 ; 2.0215864269111288E8 ; 5.683049919095668E8 ; 1.6322405341942087E10 ; 0.0
90 ; 6540864.387103751 ; 2.0217385011493775E8 ; 5.748529398201724E8 ; 1.65245639846332E10 ; 0.0
91 ; 6532600.272979928 ; 2.0218909217988592E8 ; 5.813938042072762E8 ; 1.6726737834748137E10 ; 0.0
92 ; 6526955.44889554 ; 2.0220436690739545E8 ; 5.879264044802562E8 ; 1.6928926926928022E10 ; 0.0
93 ; 6522082.83932181 ; 2.022196723684573E8 ; 5.944533599291518E8 ; 1.7131131293835419E10 ; 0.0
94 ; 6515825.840214768 ; 2.022350066820626E8 ; 6.009754427684736E8 ; 1.7333350966203876E10 ; 0.0
95 ; 6505471.405225316 ; 2.022503680136938E8 ; 6.074912686086884E8 ; 1.753558597288594E10 ; 0.0
96 ; 6498832.583171448 ; 2.022657545738595E8 ; 6.139967400139136E8 ; 1.7737836340899635E10 ; 0.0
97 ; 6495516.946248187 ; 2.0228116461667228E8 ; 6.204955725970851E8 ; 1.7940102095473495E10 ; 0.0
98 ; 6486020.531809362 ; 2.0229659643846935E8 ; 6.269910895433333E8 ; 1.8142383260090168E10 ; 0.0
99 ; 6480065.266754376 ; 2.0231204837647495E8 ; 6.334771100751426E8 ; 1.8344679856528637E10 ; 0.0
100 ; 6467175.365993857 ; 2.0232751880750412E8 ; 6.39957175341897E8 ; 1.8546991904905113E10 ; 0.0
101 ; 6466005.12346938 ; 2.0234300614670703E8 ; 6.464243507078909E8 ; 1.8749319423712616E10 ; 0.0
102 ; 6455131.929997302 ; 2.023585088463528E8 ; 6.528903558313602E8 ; 1.895166242985932E10 ; 0.0
103 ; 6450192.536683013 ; 2.0237402539465237E8 ; 6.593454877613575E8 ; 1.9154020938705673E10 ; 0.0
104 ; 6440205.64093042 ; 2.0238955431461924E8 ; 6.657956802980405E8 ; 1.9356394964100327E10 ; 0.0
105 ; 6433217.071893239 ; 2.0240509416296732E8 ; 6.722358859389709E8 ; 1.9558784518414948E10 ; 0.0
106 ; 6425844.850949303 ; 2.0242064352904466E8 ; 6.786691030108641E8 ; 1.9761189612577915E10 ; 0.0
107 ; 6415242.218577787 ; 2.0243620103380272E8 ; 6.850949478618134E8 ; 1.996361025610696E10 ; 0.0
108 ; 6409301.440822395 ; 2.0245176532879972E8 ; 6.915101900803912E8 ; 2.0166046457140762E10 ; 0.0
109 ; 6400226.531726525 ; 2.024673350952372E8 ; 6.979194915212135E8 ; 2.0368498222469563E10 ; 0.0
110 ; 6392111.51981554 ; 2.0248290904302898E8 ; 7.0431971805294E8 ; 2.05709655575648E10 ; 0.0
111 ; 6380560.295153236 ; 2.024984859099017E8 ; 7.107118295727556E8 ; 2.077344846660783E10 ; 0.0
112 ; 6373734.488903812 ; 2.0251406446052557E8 ; 7.170923898679088E8 ; 2.097594695251773E10 ; 0.0
113 ; 6367304.215097797 ; 2.0252964348567477E8 ; 7.234661243568126E8 ; 2.1178461016978256E10 ; 0.0
114 ; 6356574.280288845 ; 2.0254522180141655E8 ; 7.298334285719104E8 ; 2.1380990660463932E10 ; 0.0
115 ; 6348083.050982884 ; 2.0256079824832797E8 ; 7.361900028521992E8 ; 2.158353588226535E10 ; 0.0
116 ; 6337508.787879281 ; 2.0257637169073957E8 ; 7.42538085903182E8 ; 2.178609668051368E10 ; 0.0
117 ; 6328428.40267266 ; 2.02591941016005E8 ; 7.488755946910613E8 ; 2.198867305220442E10 ; 0.0
118 ; 6322027.161885245 ; 2.026075051337957E8 ; 7.552040230937339E8 ; 2.2191264993220425E10 ; 0.0
119 ; 6312916.763177689 ; 2.0262306297542003E8 ; 7.615260502556192E8 ; 2.239387249835422E10 ; 0.0
120 ; 6301551.122272018 ; 2.0263861349316585E8 ; 7.678389670187968E8 ; 2.2596495561329643E10 ; 0.0
121 ; 6290286.805258958 ; 2.0265415565966582E8 ; 7.741405181410688E8 ; 2.2799134174822807E10 ; 0.0
122 ; 6282203.971251954 ; 2.0266968846728453E8 ; 7.804308049463278E8 ; 2.300178833048247E10 ; 0.0
123 ; 6270714.049101995 ; 2.0268521092752713E8 ; 7.867130089175798E8 ; 2.3204458018949757E10 ; 0.0
124 ; 6267869.833724942 ; 2.0270072207046795E8 ; 7.929837229666817E8 ; 2.3407143229877285E10 ; 0.0
125 ; 6251724.084417748 ; 2.027162209441994E8 ; 7.992515928004067E8 ; 2.3609843951947754E10 ; 0.0
126 ; 6245561.438794286 ; 2.0273170661429965E8 ; 8.055033168848244E8 ; 2.3812560172891953E10 ; 0.0
127 ; 6232152.408638329 ; 2.0274717816331863E8 ; 8.117488783236187E8 ; 2.4015291879506252E10 ; 0.0
128 ; 6224723.675141543 ; 2.027626346902821E8 ; 8.17981030732257E8 ; 2.421803905766957E10 ; 0.0
129 ; 6216117.376129346 ; 2.0277807531021273E8 ; 8.242057544073986E8 ; 2.442080169235985E10 ; 0.0
130 ; 6202836.081421662 ; 2.027934991536675E8 ; 8.30421871783528E8 ; 2.4623579767670063E10 ; 0.0
131 ; 6186571.973827263 ; 2.0280890536629146E8 ; 8.366247078649496E8 ; 2.482637326682373E10 ; 0.0
132 ; 6173706.177189597 ; 2.0282429310838652E8 ; 8.428112798387768E8 ; 2.502918217219002E10 ; 0.0
133 ; 6158470.269394286 ; 2.028396615544953E8 ; 8.489849860159664E8 ; 2.523200646529841E10 ; 0.0
134 ; 6141947.970262952 ; 2.0285500989299917E8 ; 8.551434562853607E8 ; 2.5434846126852905E10 ; 0.0
135 ; 6126235.893628711 ; 2.0287033732573023E8 ; 8.612854042556237E8 ; 2.5637701136745903E10 ; 0.0
136 ; 6116107.079629992 ; 2.0288564306759638E8 ; 8.674116401492524E8 ; 2.5840571474071632E10 ; 0.0
137 ; 6100120.807873674 ; 2.0290092634621936E8 ; 8.735277472288824E8 ; 2.604345711713923E10 ; 0.0
138 ; 6084511.539467801 ; 2.0291618640158528E8 ; 8.796278680367562E8 ; 2.6246358043485447E10 ; 0.0
139 ; 6071221.855863984 ; 2.0293142248570687E8 ; 8.85712379576224E8 ; 2.644927422988703E10 ; 0.0
140 ; 6056562.394464852 ; 2.0294663386229724E8 ; 8.917836014320879E8 ; 2.6652205652372738E10 ; 0.0
141 ; 6042810.365926808 ; 2.0296181980645496E8 ; 8.978401638265527E8 ; 2.6855152286235035E10 ; 0.0
142 ; 6025836.91441143 ; 2.0297697960435957E8 ; 9.038829741924796E8 ; 2.705811410604149E10 ; 0.0
143 ; 6008362.9776428975 ; 2.029921125529775E8 ; 9.09908811106891E8 ; 2.7261091085645847E10 ; 0.0
144 ; 5995585.592781585 ; 2.030072179597781E8 ; 9.159171740845339E8 ; 2.7464083198198826E10 ; 0.0
145 ; 5986183.036579991 ; 2.0302229514245883E8 ; 9.219127596773155E8 ; 2.7667090416158604E10 ; 0.0
146 ; 5972797.558586957 ; 2.0303734342868018E8 ; 9.278989427138954E8 ; 2.7870112711301064E10 ; 0.0
147 ; 5963173.290800659 ; 2.0305236215580925E8 ; 9.338717402724824E8 ; 2.8073150054729744E10 ; 0.0
148 ; 5951893.732517823 ; 2.030673506706718E8 ; 9.398349135632831E8 ; 2.827620241688555E10 ; 0.0
149 ; 5943821.070924232 ; 2.030823083293129E8 ; 9.457868072958009E8 ; 2.8479269767556225E10 ; 0.0
150 ; 5931215.432814068 ; 2.030972344967654E8 ; 9.517306283667252E8 ; 2.8682352075885536E10 ; 0.0
151 ; 5922057.382621588 ; 2.0311212854682598E8 ; 9.576618437995393E8 ; 2.88854493103823E10 ; 0.0
152 ; 5906026.550438367 ; 2.0312698986183897E8 ; 9.63583901182161E8 ; 2.9088561438929127E10 ; 0.0
153 ; 5897301.613831169 ; 2.0314181783248693E8 ; 9.694899277325994E8 ; 2.9291688428790966E10 ; 0.0
154 ; 5891430.523825741 ; 2.0315661185758856E8 ; 9.753872293464305E8 ; 2.949483024662345E10 ; 0.0
155 ; 5875139.306545519 ; 2.0317137134390292E8 ; 9.812786598702563E8 ; 2.969798685848104E10 ; 0.0
156 ; 5865585.43100076 ; 2.0318609570594034E8 ; 9.871537991768018E8 ; 2.9901158229824944E10 ; 0.0
157 ; 5856320.757944194 ; 2.0320078436577937E8 ; 9.930193846078025E8 ; 3.0104344325530884E10 ; 0.0
158 ; 5847554.82601036 ; 2.032154367528898E8 ; 9.988757053657467E8 ; 3.0307545109896664E10 ; 0.0
159 ; 5834841.630584038 ; 2.0323005230396158E8 ; 1.0047232601917571E9 ; 3.0510760546649555E10 ; 0.0
160 ; 5823719.874009835 ; 2.0324463046273893E8 ; 1.0105581018223411E9 ; 3.0713990598953518E10 ; 0.0
161 ; 5813251.021848443 ; 2.0325917067986032E8 ; 1.0163818216963509E9 ; 3.0917235229416256E10 ; 0.0
162 ; 5803751.376744523 ; 2.032736724127033E8 ; 1.0221950727181994E9 ; 3.1120494400096115E10 ; 0.0
163 ; 5790614.99506465 ; 2.032881351252345E8 ; 1.0279988240949439E9 ; 3.132376807250882E10 ; 0.0
164 ; 5779493.767927615 ; 2.0330255828786442E8 ; 1.0337894390900085E9 ; 3.1527056207634052E10 ; 0.0
165 ; 5770346.5283203265 ; 2.033169413773068E8 ; 1.0395689328579361E9 ; 3.1730358765921917E10 ; 0.0
166 ; 5755706.77911473 ; 2.0333128387644273E8 ; 1.0453392793862565E9 ; 3.1933675707299225E10 ; 0.0
167 ; 5749655.726768654 ; 2.033455852741889E8 ; 1.0510949861653712E9 ; 3.2137006991175667E10 ; 0.0
168 ; 5731546.477210782 ; 2.0335984506537017E8 ; 1.0568446418921398E9 ; 3.2340352576449856E10 ; 0.0
169 ; 5728270.2638776805 ; 2.033740627505961E8 ; 1.0625761883693506E9 ; 3.2543712421515224E10 ; 0.0
170 ; 5712527.85137752 ; 2.0338823783614165E8 ; 1.0683044586332282E9 ; 3.274708648426582E10 ; 0.0
171 ; 5701309.55132123 ; 2.034023698338311E8 ; 1.0740169864846058E9 ; 3.2950474722101963E10 ; 0.0
172 ; 5691886.225564248 ; 2.0341645826092649E8 ; 1.079718296035927E9 ; 3.3153877091935795E10 ; 0.0
173 ; 5681123.113504527 ; 2.0343050264001867E8 ; 1.0854101822614913E9 ; 3.335729355019672E10 ; 0.0
174 ; 5669671.909448412 ; 2.0344450249892256E8 ; 1.0910913053749957E9 ; 3.356072405283674E10 ; 0.0
175 ; 5661577.720972348 ; 2.034584573705751E8 ; 1.096760977284444E9 ; 3.3764168555335663E10 ; 0.0
176 ; 5653174.285478136 ; 2.0347236679293677E8 ; 1.1024225550054164E9 ; 3.3967627012706238E10 ; 0.0
177 ; 5644873.698303263 ; 2.0348623030889606E8 ; 1.1080757292908945E9 ; 3.4171099379499176E10 ; 0.0
178 ; 5634786.003091695 ; 2.035000474661768E8 ; 1.1137206029891977E9 ; 3.4374585609808075E10 ; 0.0
179 ; 5629271.8518164 ; 2.035138178172487E8 ; 1.1193553889922895E9 ; 3.4578085657274254E10 ; 0.0
180 ; 5617050.816995842 ; 2.035275409192402E8 ; 1.124984660844106E9 ; 3.47815994750915E10 ; 0.0
181 ; 5605832.72125715 ; 2.035412163338545E8 ; 1.1306017116611018E9 ; 3.498512701601074E10 ; 0.0
182 ; 5601929.710960842 ; 2.0355484362728778E8 ; 1.136207544382359E9 ; 3.51886682323446E10 ; 0.0
183 ; 5590982.837920713 ; 2.0356842237015015E8 ; 1.14180947409332E9 ; 3.5392223075971886E10 ; 0.0
184 ; 5580347.74288629 ; 2.0358195213738912E8 ; 1.1474004569312406E9 ; 3.559579149834203E10 ; 0.0
185 ; 5570551.126830306 ; 2.0359543250821513E8 ; 1.1529808046741269E9 ; 3.579937345047942E10 ; 0.0
186 ; 5563105.281946238 ; 2.0360886306602952E8 ; 1.1585513558009572E9 ; 3.600296888298764E10 ; 0.0
187 ; 5551524.179247317 ; 2.036222433983548E8 ; 1.1641144610829034E9 ; 3.620657774605367E10 ; 0.0
188 ; 5544472.494890757 ; 2.036355730967669E8 ; 1.1696659852621508E9 ; 3.641019998945203E10 ; 0.0
189 ; 5535429.249204506 ; 2.036488517568294E8 ; 1.1752104577570415E9 ; 3.661383556254879E10 ; 0.0
190 ; 5529316.594109936 ; 2.036620789780301E8 ; 1.1807458870062459E9 ; 3.681748441430562E10 ; 0.0
191 ; 5523540.979596138 ; 2.0367525436371902E8 ; 1.1862752036003559E9 ; 3.7021146493283646E10 ; 0.0
192 ; 5507164.555322944 ; 2.0368837752104875E8 ; 1.191798744579952E9 ; 3.722482174764736E10 ; 0.0
193 ; 5501802.210661609 ; 2.0370144806091633E8 ; 1.197305909135275E9 ; 3.742851012516841E10 ; 0.0
194 ; 5492859.262406195 ; 2.0371446559790683E8 ; 1.2028077113459365E9 ; 3.7632211573229324E10 ; 0.0
195 ; 5484522.942984071 ; 2.0372742975023887E8 ; 1.2083005706083426E9 ; 3.783592603882723E10 ; 0.0
196 ; 5473911.946309865 ; 2.0374034013971156E8 ; 1.2137850935513268E9 ; 3.803965346857747E10 ; 0.0
197 ; 5465914.964283191 ; 2.0375319639165303E8 ; 1.2192590054976366E9 ; 3.824339380871718E10 ; 0.0
198 ; 5456336.274100781 ; 2.037659981348708E8 ; 1.2247249204619198E9 ; 3.844714700510883E10 ; 0.0
199 ; 5445574.610980657 ; 2.0377874500160307E8 ; 1.2301812567360206E9 ; 3.8650913003243706E10 ; 0.0
200 ; 5438427.025663529 ; 1.753387656685962E8 ; 1.2356268313470013E9 ; 3.885469174824531E10 ; 0.0
201 ; 5430884.147611811 ; 1.5496407943258238E8 ; 1.241065258372665E9 ; 3.90300305139139E10 ; 0.0
