CSV File for the City 3 on Day 225
1 - Minute m 
2 - Power Consumed at minute m 
3 - Power Produced at minute m 
4 - Energy Consumed since the beginning of the day 
5 - Energy Produced since the beginning of the day 
6 - Energy Lost since the beginning of the day on lines starting from the city
 
0 ; 170161.09140551262 ; 1.0524486731969091E8 ; 0.0 ; 0.0 ; 0.0
1 ; 172906.07538588354 ; 1.0539551703960222E8 ; 170161.09140551262 ; 1.0524486731969091E8 ; 0.0
2 ; 175810.9102274593 ; 1.058550450281376E8 ; 343067.16679139616 ; 2.1064038435929313E8 ; 0.0
3 ; 177561.93292208304 ; 1.0662348481223762E8 ; 518878.0770188555 ; 3.164954293874307E8 ; 0.0
4 ; 181477.3765835907 ; 1.0770087305306888E8 ; 696440.0099409386 ; 4.2311891419966835E8 ; 0.0
5 ; 186470.53087802985 ; 1.0908724871202832E8 ; 877917.3865245292 ; 5.308197872527372E8 ; 0.0
6 ; 192888.8791712379 ; 1.1078265161251464E8 ; 1064387.917402559 ; 6.399070359647655E8 ; 0.0
7 ; 200942.48635029947 ; 1.1278712033478051E8 ; 1257276.7965737968 ; 7.506896875772802E8 ; 0.0
8 ; 211796.9640107931 ; 1.151006895240376E8 ; 1458219.2829240963 ; 8.634768079120607E8 ; 0.0
9 ; 229641.22508115272 ; 1.1772338689767575E8 ; 1670016.2469348894 ; 9.785774974360983E8 ; 0.0
10 ; 255999.95272582787 ; 1.206552304437195E8 ; 1899657.472016042 ; 1.096300884333774E9 ; 0.0
11 ; 297637.58849663904 ; 1.2389622640384862E8 ; 2155657.42474187 ; 1.2169561147774935E9 ; 0.0
12 ; 363463.6974071484 ; 1.274463685363833E8 ; 2453295.0132385087 ; 1.3408523411813421E9 ; 0.0
13 ; 426865.8385530757 ; 1.3130563885329902E8 ; 2816758.710645657 ; 1.4682987097177255E9 ; 0.0
14 ; 435521.0707274013 ; 1.3547400963720602E8 ; 3243624.5491987327 ; 1.5996043485710244E9 ; 0.0
15 ; 439012.64774232183 ; 1.399514462428925E8 ; 3679145.619926134 ; 1.7350783582082305E9 ; 0.0
16 ; 442479.79353697464 ; 1.4473791009010592E8 ; 4118158.267668456 ; 1.875029804451123E9 ; 0.0
17 ; 444808.4462542532 ; 1.498333613554475E8 ; 4560638.061205431 ; 2.019767714541229E9 ; 0.0
18 ; 449145.4940611159 ; 1.552377610775203E8 ; 5005446.507459684 ; 2.1696010758966765E9 ; 0.0
19 ; 451915.4705662952 ; 1.6095107259515777E8 ; 5454592.0015208 ; 2.324838836974197E9 ; 0.0
20 ; 457188.4986273858 ; 1.6697326238141927E8 ; 5906507.4720870955 ; 2.4857899095693545E9 ; 0.0
21 ; 459264.99712196976 ; 1.733043004044393E8 ; 6363695.970714482 ; 2.6527631719507737E9 ; 0.0
22 ; 463026.75846981496 ; 1.7994416015829855E8 ; 6822960.967836452 ; 2.826067472355213E9 ; 0.0
23 ; 465918.3161318998 ; 1.8689281848814005E8 ; 7285987.726306267 ; 3.0060116325135117E9 ; 0.0
24 ; 470635.83586727356 ; 1.941502553037439E8 ; 7751906.042438167 ; 3.192904451001652E9 ; 0.0
25 ; 473585.4252948875 ; 2.0040449414451876E8 ; 8222541.878305441 ; 3.3870547063053956E9 ; 0.0
26 ; 476944.05859739555 ; 2.004090678772983E8 ; 8696127.303600328 ; 3.5874592004499145E9 ; 0.0
27 ; 481606.2745422021 ; 2.0041373289971042E8 ; 9173071.362197723 ; 3.787868268327213E9 ; 0.0
28 ; 484135.90473259083 ; 2.004184780947735E8 ; 9654677.636739925 ; 3.988282001226923E9 ; 0.0
29 ; 488860.8550675928 ; 2.0042329386578125E8 ; 1.0138813541472515E7 ; 4.1887004793216963E9 ; 0.0
30 ; 489174.59014192765 ; 2.004281719119135E8 ; 1.0627674396540107E7 ; 4.389123773187477E9 ; 0.0
31 ; 493829.32403919206 ; 2.004331050356635E8 ; 1.1116848986682035E7 ; 4.589551945099391E9 ; 0.0
32 ; 497353.2456817056 ; 2.004380869788572E8 ; 1.1610678310721228E7 ; 4.789985050135055E9 ; 0.0
33 ; 501436.8285691583 ; 2.0044311228370643E8 ; 1.2108031556402933E7 ; 4.990423137113912E9 ; 0.0
34 ; 503929.1474922211 ; 2.0044817617540717E8 ; 1.2609468384972092E7 ; 5.190866249397618E9 ; 0.0
35 ; 507333.87894301873 ; 2.0045327446307456E8 ; 1.3113397532464312E7 ; 5.391314425573026E9 ; 0.0
36 ; 509199.4986405677 ; 2.0045840345616695E8 ; 1.3620731411407331E7 ; 5.5917677000361E9 ; 0.0
37 ; 513670.1896637203 ; 2.00463559893934E8 ; 1.4129930910047898E7 ; 5.792226103492268E9 ; 0.0
38 ; 515599.09560898313 ; 2.0046874088578516E8 ; 1.464360109971162E7 ; 5.992689663386202E9 ; 0.0
39 ; 518208.19316791615 ; 2.0047394386080307E8 ; 1.5159200195320603E7 ; 6.193158404271987E9 ; 0.0
40 ; 520565.99794627057 ; 2.00479166524913E8 ; 1.5677408388488518E7 ; 6.39363234813279E9 ; 0.0
41 ; 522029.69400539936 ; 2.0048440682446522E8 ; 1.6197974386434788E7 ; 6.594111514657702E9 ; 0.0
42 ; 526739.2951657721 ; 2.0048966291519424E8 ; 1.6720004080440188E7 ; 6.794595921482167E9 ; 0.0
43 ; 527373.430860377 ; 2.0049493313569483E8 ; 1.724674337560596E7 ; 6.995085584397362E9 ; 0.0
44 ; 530294.4672171291 ; 2.0050021598469684E8 ; 1.7774116806466337E7 ; 7.195580517533056E9 ; 0.0
45 ; 532524.236408971 ; 2.005055101015441E8 ; 1.8304411273683466E7 ; 7.396080733517753E9 ; 0.0
46 ; 533930.7310794307 ; 2.005108142493806E8 ; 1.8836935510092437E7 ; 7.596586243619297E9 ; 0.0
47 ; 536643.3104276834 ; 2.0051612730062935E8 ; 1.9370866241171867E7 ; 7.797097057868677E9 ; 0.0
48 ; 538510.546250181 ; 2.0052144822441915E8 ; 1.990750955159955E7 ; 7.997613185169307E9 ; 0.0
49 ; 540361.3646308021 ; 2.0052677607566842E8 ; 2.044602009784973E7 ; 8.198134633393726E9 ; 0.0
50 ; 540903.8712816811 ; 2.005321099855842E8 ; 2.0986381462480534E7 ; 8.398661409469395E9 ; 0.0
51 ; 542539.0201293566 ; 2.0053744915337148E8 ; 2.1527285333762214E7 ; 8.599193519454979E9 ; 0.0
52 ; 543219.6613825606 ; 2.0054279283898094E8 ; 2.206982435389157E7 ; 8.79973096860835E9 ; 0.0
53 ; 545416.834276262 ; 2.005481403567497E8 ; 2.261304401527413E7 ; 9.000273761447332E9 ; 0.0
54 ; 547147.739679833 ; 2.005534910698119E8 ; 2.3158460849550392E7 ; 9.200821901804083E9 ; 0.0
55 ; 549718.9813653596 ; 2.005588443851747E8 ; 2.3705608589230224E7 ; 9.401375392873896E9 ; 0.0
56 ; 550780.0842179548 ; 2.0056419974937037E8 ; 2.4255327570595585E7 ; 9.60193423725907E9 ; 0.0
57 ; 551734.8754862228 ; 2.0056955664460945E8 ; 2.480610765481354E7 ; 9.80249843700844E9 ; 0.0
58 ; 554004.85892898 ; 2.0057491458536914E8 ; 2.535784253029976E7 ; 1.000306799365305E10 ; 0.0
59 ; 554313.7327361569 ; 2.0058027311536184E8 ; 2.591184738922874E7 ; 1.0203642908238419E10 ; 0.0
60 ; 556188.6138650845 ; 2.005856318048361E8 ; 2.6466161121964894E7 ; 1.040422318135378E10 ; 0.0
61 ; 557768.3118009935 ; 2.005909902481687E8 ; 2.702234973582998E7 ; 1.0604808813158617E10 ; 0.0
62 ; 557049.6425679242 ; 2.005963480617125E8 ; 2.7580118047630973E7 ; 1.0805399803406786E10 ; 0.0
63 ; 559117.3667514739 ; 2.00601704881869E8 ; 2.81371676901989E7 ; 1.1005996151468498E10 ; 0.0
64 ; 560283.9099726363 ; 2.006070603633595E8 ; 2.869628505695037E7 ; 1.1206597856350367E10 ; 0.0
65 ; 560563.3932201121 ; 2.0061241417767167E8 ; 2.925656896692301E7 ; 1.1407204916713726E10 ; 0.0
66 ; 563528.579200622 ; 2.0061776601166055E8 ; 2.981713236014312E7 ; 1.1607817330891397E10 ; 0.0
67 ; 563570.8547542243 ; 2.0062311556628802E8 ; 3.0380660939343743E7 ; 1.1808435096903057E10 ; 0.0
68 ; 564157.2874574797 ; 2.0062846255548367E8 ; 3.0944231794097967E7 ; 1.2009058212469345E10 ; 0.0
69 ; 566898.2913896485 ; 2.00633806705115E8 ; 3.150838908155545E7 ; 1.2209686675024828E10 ; 0.0
70 ; 566289.5445871587 ; 2.0063914775205418E8 ; 3.2075287372945096E7 ; 1.2410320481729942E10 ; 0.0
71 ; 569591.873853488 ; 2.006444854433317E8 ; 3.2641576917532254E7 ; 1.2610959629481997E10 ; 0.0
72 ; 569667.3558209016 ; 2.0064981953536734E8 ; 3.3211168791385744E7 ; 1.2811604114925327E10 ; 0.0
73 ; 569843.4979695869 ; 2.0065514979327053E8 ; 3.378083614720664E7 ; 1.3012253934460695E10 ; 0.0
74 ; 572884.1254087929 ; 2.0066047599020305E8 ; 3.435067964517623E7 ; 1.3212909084253965E10 ; 0.0
75 ; 573858.5097113466 ; 2.0066579790679774E8 ; 3.492356377058502E7 ; 1.341356956024417E10 ; 0.0
76 ; 574000.5708283528 ; 2.0067111533062744E8 ; 3.549742228029637E7 ; 1.3614235358150967E10 ; 0.0
77 ; 574800.3250203856 ; 2.006764280557195E8 ; 3.6071422851124726E7 ; 1.3814906473481594E10 ; 0.0
78 ; 574710.3364042967 ; 2.0068173588211122E8 ; 3.6646223176145114E7 ; 1.4015582901537313E10 ; 0.0
79 ; 575307.2241619161 ; 2.006870386154423E8 ; 3.722093351254941E7 ; 1.4216264637419424E10 ; 0.0
80 ; 575999.1124275568 ; 2.0069233606658098E8 ; 3.779624073671132E7 ; 1.4416951676034866E10 ; 0.0
81 ; 575155.9124301394 ; 2.0069762805128035E8 ; 3.837223984913888E7 ; 1.4617644012101448E10 ; 0.0
82 ; 575957.0598600868 ; 2.0070291438986242E8 ; 3.8947395761569016E7 ; 1.4818341640152729E10 ; 0.0
83 ; 576364.8872401122 ; 2.0070819490692726E8 ; 3.95233528214291E7 ; 1.5019044554542591E10 ; 0.0
84 ; 575692.0247267971 ; 2.007134694310848E8 ; 4.0099717708669215E7 ; 1.5219752749449518E10 ; 0.0
85 ; 575857.5158928232 ; 2.0071873779470757E8 ; 4.0675409733396016E7 ; 1.5420466218880604E10 ; 0.0
86 ; 577186.4216956504 ; 2.0072399983370218E8 ; 4.125126724928884E7 ; 1.5621184956675312E10 ; 0.0
87 ; 576570.2134997195 ; 2.0072925538729826E8 ; 4.182845367098449E7 ; 1.5821908956509014E10 ; 0.0
88 ; 576583.1796299556 ; 2.007345042978532E8 ; 4.240502388448421E7 ; 1.6022638211896313E10 ; 0.0
89 ; 576842.0575413469 ; 2.0073974641067123E8 ; 4.298160706411417E7 ; 1.6223372716194166E10 ; 0.0
90 ; 576055.8385481336 ; 2.0074498157383582E8 ; 4.355844912165552E7 ; 1.6424112462604837E10 ; 0.0
91 ; 576873.2779428154 ; 2.007502096380542E8 ; 4.413450496020365E7 ; 1.6624857444178673E10 ; 0.0
92 ; 575813.2093361586 ; 2.00755430456513E8 ; 4.471137823814646E7 ; 1.6825607653816727E10 ; 0.0
93 ; 577313.9113315732 ; 2.0076064388474423E8 ; 4.528719144748262E7 ; 1.702636308427324E10 ; 0.0
94 ; 576724.9200997689 ; 2.007658497805005E8 ; 4.5864505358814195E7 ; 1.722712372815798E10 ; 0.0
95 ; 576786.1195694177 ; 2.007710480036391E8 ; 4.644123027891397E7 ; 1.7427889577938484E10 ; 0.0
96 ; 577626.6005415785 ; 2.0077623841601396E8 ; 4.701801639848339E7 ; 1.7628660625942123E10 ; 0.0
97 ; 576638.4459578767 ; 2.007814208813748E8 ; 4.7595642999024965E7 ; 1.782943686435814E10 ; 0.0
98 ; 575365.442178039 ; 2.0078659526527357E8 ; 4.817228144498284E7 ; 1.8030218285239513E10 ; 0.0
99 ; 576442.0843120111 ; 2.0079176143497652E8 ; 4.874764688716088E7 ; 1.8231004880504787E10 ; 0.0
100 ; 575684.2722119814 ; 2.007969192593827E8 ; 4.93240889714729E7 ; 1.8431796641939762E10 ; 0.0
101 ; 574623.7915697714 ; 2.0080206860894728E8 ; 4.989977324368488E7 ; 1.8632593561199146E10 ; 0.0
102 ; 575540.3236740272 ; 2.0080720935561025E8 ; 5.047439703525465E7 ; 1.8833395629808094E10 ; 0.0
103 ; 575705.6978168465 ; 2.008123413727296E8 ; 5.104993735892868E7 ; 1.9034202839163704E10 ; 0.0
104 ; 575224.2394856489 ; 2.0081746453501865E8 ; 5.162564305674553E7 ; 1.9235015180536434E10 ; 0.0
105 ; 575747.6776912499 ; 2.0082257871848747E8 ; 5.220086729623118E7 ; 1.9435832645071453E10 ; 0.0
106 ; 574970.983750808 ; 2.0082768380038804E8 ; 5.277661497392243E7 ; 1.963665522378994E10 ; 0.0
107 ; 574232.2766601229 ; 2.008327796591627E8 ; 5.335158595767324E7 ; 1.983748290759033E10 ; 0.0
108 ; 572854.052556491 ; 2.0083786617439595E8 ; 5.392581823433336E7 ; 2.0038315687249493E10 ; 0.0
109 ; 573756.5329297567 ; 2.00842943226769E8 ; 5.449867228688985E7 ; 2.023915355342389E10 ; 0.0
110 ; 574034.4373741029 ; 2.008480106980173E8 ; 5.507242881981961E7 ; 2.0439996496650658E10 ; 0.0
111 ; 572502.9180907514 ; 2.0085306847089052E8 ; 5.564646325719371E7 ; 2.0640844507348675E10 ; 0.0
112 ; 572404.4263393129 ; 2.0085811642911503E8 ; 5.621896617528446E7 ; 2.0841697575819565E10 ; 0.0
113 ; 571136.1738701161 ; 2.008631544573585E8 ; 5.679137060162377E7 ; 2.104255569224868E10 ; 0.0
114 ; 572246.940232174 ; 2.008681824411968E8 ; 5.736250677549389E7 ; 2.124341884670604E10 ; 0.0
115 ; 570115.3127854341 ; 2.0087320026708254E8 ; 5.793475371572606E7 ; 2.1444287029147236E10 ; 0.0
116 ; 571085.5079490267 ; 2.0087820782231578E8 ; 5.8504869028511494E7 ; 2.1645160229414318E10 ; 0.0
117 ; 569704.2532063557 ; 2.008832049950163E8 ; 5.907595453646052E7 ; 2.1846038437236633E10 ; 0.0
118 ; 569277.7357193731 ; 2.0088819167409745E8 ; 5.9645658789666876E7 ; 2.204692164223165E10 ; 0.0
119 ; 568630.5267284521 ; 2.008931677492416E8 ; 6.021493652538625E7 ; 2.224780983390575E10 ; 0.0
120 ; 569611.9091009933 ; 2.008981331108768E8 ; 6.07835670521147E7 ; 2.244870300165499E10 ; 0.0
121 ; 566572.0763775728 ; 2.009030876501552E8 ; 6.13531789612157E7 ; 2.264960113476587E10 ; 0.0
122 ; 568022.5574412603 ; 2.0090803125893205E8 ; 6.191975103759327E7 ; 2.2850504222416023E10 ; 0.0
123 ; 567383.7518621504 ; 2.009129638297466E8 ; 6.2487773595034525E7 ; 2.3051412253674953E10 ; 0.0
124 ; 566439.8694258081 ; 2.009178852558035E8 ; 6.305515734689668E7 ; 2.32523252175047E10 ; 0.0
125 ; 566736.2178204395 ; 2.009227954309556E8 ; 6.362159721632249E7 ; 2.34532431027605E10 ; 0.0
126 ; 566688.0967893677 ; 2.0092769424968746E8 ; 6.418833343414293E7 ; 2.3654165898191456E10 ; 0.0
127 ; 564098.050317589 ; 2.0093258160710007E8 ; 6.47550215309323E7 ; 2.3855093592441143E10 ; 0.0
128 ; 563753.8532409003 ; 2.009374573988961E8 ; 6.5319119581249885E7 ; 2.4056026174048244E10 ; 0.0
129 ; 564807.7099767302 ; 2.009423215213662E8 ; 6.5882873434490785E7 ; 2.425696363144714E10 ; 0.0
130 ; 562724.6876194758 ; 2.0094717387137604E8 ; 6.644768114446752E7 ; 2.4457905952968506E10 ; 0.0
131 ; 561920.2556786876 ; 2.0095201434635383E8 ; 6.7010405832086995E7 ; 2.465885312683988E10 ; 0.0
132 ; 557640.8174884797 ; 2.0095684284427884E8 ; 6.757232608776568E7 ; 2.4859805141186237E10 ; 0.0
133 ; 557475.741682066 ; 2.009616592636704E8 ; 6.812996690525416E7 ; 2.5060761984030518E10 ; 0.0
134 ; 556805.9652895234 ; 2.0096646350357753E8 ; 6.868744264693622E7 ; 2.526172364329419E10 ; 0.0
135 ; 555431.0013960721 ; 2.0097125546356902E8 ; 6.924424861222574E7 ; 2.5462690106797768E10 ; 0.0
136 ; 554408.8397376057 ; 2.0097603504372424E8 ; 6.979967961362182E7 ; 2.5663661362261337E10 ; 0.0
137 ; 552688.689820977 ; 2.0098080214462447E8 ; 7.035408845335943E7 ; 2.586463739730506E10 ; 0.0
138 ; 550054.7760867713 ; 2.0098555666734448E8 ; 7.09067771431804E7 ; 2.6065618199449684E10 ; 0.0
139 ; 548422.0542170898 ; 2.009902985134447E8 ; 7.145683191926718E7 ; 2.6266603756117027E10 ; 0.0
140 ; 547838.1567915326 ; 2.0099502758496392E8 ; 7.200525397348426E7 ; 2.646759405463047E10 ; 0.0
141 ; 545349.1158934777 ; 2.0099974378441226E8 ; 7.25530921302758E7 ; 2.6668589082215435E10 ; 0.0
142 ; 543093.2078500224 ; 2.0100444701476458E8 ; 7.309844124616928E7 ; 2.6869588825999847E10 ; 0.0
143 ; 541977.7347283578 ; 2.0100913717945424E8 ; 7.364153445401931E7 ; 2.707059327301461E10 ; 0.0
144 ; 539048.975383104 ; 2.0101381418236715E8 ; 7.418351218874766E7 ; 2.7271602410194065E10 ; 0.0
145 ; 540323.23397305 ; 2.0101847792783636E8 ; 7.472256116413076E7 ; 2.747261622437643E10 ; 0.0
146 ; 539815.2774770382 ; 2.010231283206367E8 ; 7.526288439810382E7 ; 2.7673634702304268E10 ; 0.0
147 ; 539761.6560817433 ; 2.0102776526597977E8 ; 7.580269967558086E7 ; 2.7874657830624905E10 ; 0.0
148 ; 537970.6692781874 ; 2.0103238866950947E8 ; 7.63424613316626E7 ; 2.8075685595890884E10 ; 0.0
149 ; 537038.2693507336 ; 2.010369984372975E8 ; 7.688043200094078E7 ; 2.8276717984560394E10 ; 0.0
150 ; 537713.1580318694 ; 2.0104159447583905E8 ; 7.741747027029152E7 ; 2.8477754982997692E10 ; 0.0
151 ; 535621.1162403548 ; 2.0104617669204918E8 ; 7.795518342832339E7 ; 2.867879657747353E10 ; 0.0
152 ; 536116.5751327787 ; 2.0105074499325895E8 ; 7.849080454456374E7 ; 2.887984275416558E10 ; 0.0
153 ; 534915.7182851243 ; 2.0105529928721198E8 ; 7.902692111969651E7 ; 2.908089349915884E10 ; 0.0
154 ; 534022.2086832838 ; 2.010598394820613E8 ; 7.956183683798164E7 ; 2.9281948798446053E10 ; 0.0
155 ; 533690.3868930768 ; 2.0106436548636606E8 ; 8.009585904666492E7 ; 2.9483008637928112E10 ; 0.0
156 ; 532091.0426549851 ; 2.0106887720908892E8 ; 8.0629549433558E7 ; 2.968407300341448E10 ; 0.0
157 ; 531373.2270088586 ; 2.0107337455959326E8 ; 8.1161640476213E7 ; 2.9885141880623566E10 ; 0.0
158 ; 530266.1638786325 ; 2.010778574476405E8 ; 8.169301370322186E7 ; 3.008621525518316E10 ; 0.0
159 ; 531595.9464098207 ; 2.0108232578338802E8 ; 8.222327986710049E7 ; 3.02872931126308E10 ; 0.0
160 ; 530504.8859854722 ; 2.0108677947738662E8 ; 8.275487581351031E7 ; 3.0488375438414185E10 ; 0.0
161 ; 528851.8882221641 ; 2.0109121844057882E8 ; 8.328538069949579E7 ; 3.068946221789157E10 ; 0.0
162 ; 527562.9724491794 ; 2.0109564258429658E8 ; 8.381423258771795E7 ; 3.089055343633215E10 ; 0.0
163 ; 527516.4117192288 ; 2.0110005182025975E8 ; 8.434179556016713E7 ; 3.1091649078916447E10 ; 0.0
164 ; 527789.5550745735 ; 2.0110444606057426E8 ; 8.486931197188637E7 ; 3.1292749130736706E10 ; 0.0
165 ; 526763.5645473258 ; 2.0110882521773067E8 ; 8.539710152696094E7 ; 3.149385357679728E10 ; 0.0
166 ; 525501.2251586295 ; 2.011131892046027E8 ; 8.592386509150827E7 ; 3.169496240201501E10 ; 0.0
167 ; 525030.6107626817 ; 2.011175379344458E8 ; 8.64493663166669E7 ; 3.1896075591219612E10 ; 0.0
168 ; 525429.579446492 ; 2.0112187132089615E8 ; 8.697439692742959E7 ; 3.2097193129154057E10 ; 0.0
169 ; 524326.5527783363 ; 2.0112618927796933E8 ; 8.749982650687608E7 ; 3.2298315000474953E10 ; 0.0
170 ; 524116.8295373842 ; 2.0113049172005945E8 ; 8.802415305965441E7 ; 3.2499441189752922E10 ; 0.0
171 ; 521829.66859362664 ; 2.0113477856193808E8 ; 8.85482698891918E7 ; 3.270057168147298E10 ; 0.0
172 ; 521260.62288051395 ; 2.0113904971875352E8 ; 8.907009955778544E7 ; 3.290170646003492E10 ; 0.0
173 ; 520517.4793141412 ; 2.011433051060299E8 ; 8.959136018066595E7 ; 3.3102845509753674E10 ; 0.0
174 ; 520178.37486011174 ; 2.011475446396667E8 ; 9.01118776599801E7 ; 3.3303988814859703E10 ; 0.0
175 ; 520974.4309916321 ; 2.0115176823593786E8 ; 9.063205603484021E7 ; 3.350513635949937E10 ; 0.0
176 ; 518911.3134436772 ; 2.0115597581149152E8 ; 9.115303046583185E7 ; 3.370628812773531E10 ; 0.0
177 ; 518789.5026209561 ; 2.0116016728334934E8 ; 9.167194177927552E7 ; 3.3907444103546803E10 ; 0.0
178 ; 517780.5092434552 ; 2.0116434256890616E8 ; 9.219073128189647E7 ; 3.410860427083015E10 ; 0.0
179 ; 517435.3386620403 ; 2.0116850158592972E8 ; 9.270851179113993E7 ; 3.4309768613399055E10 ; 0.0
180 ; 518575.1232197832 ; 2.011726442525603E8 ; 9.322594712980197E7 ; 3.4510937114984985E10 ; 0.0
181 ; 517359.1809039685 ; 2.0117677048731044E8 ; 9.374452225302176E7 ; 3.471210975923755E10 ; 0.0
182 ; 516346.1591166823 ; 2.0118088020906496E8 ; 9.426188143392573E7 ; 3.491328652972486E10 ; 0.0
183 ; 516390.0192414614 ; 2.0118497333708063E8 ; 9.477822759304242E7 ; 3.511446740993393E10 ; 0.0
184 ; 514357.2451268094 ; 2.0118904979098618E8 ; 9.529461761228389E7 ; 3.531565238327101E10 ; 0.0
185 ; 515246.5820664077 ; 2.0119310949078232E8 ; 9.58089748574107E7 ; 3.5516841433062E10 ; 0.0
186 ; 514824.19040654955 ; 2.0119715235684168E8 ; 9.63242214394771E7 ; 3.571803454255278E10 ; 0.0
187 ; 514951.3210877027 ; 2.0120117830990896E8 ; 9.683904562988365E7 ; 3.591923169490962E10 ; 0.0
188 ; 513769.2158164183 ; 2.0120518727110088E8 ; 9.735399695097135E7 ; 3.612043287321953E10 ; 0.0
189 ; 513795.9753464061 ; 2.0120917916190657E8 ; 9.786776616678777E7 ; 3.632163806049063E10 ; 0.0
190 ; 512258.4161183392 ; 2.0121315390418747E8 ; 9.838156214213417E7 ; 3.6522847239652534E10 ; 0.0
191 ; 512520.79182981106 ; 2.012171114201778E8 ; 9.889382055825251E7 ; 3.6724060393556725E10 ; 0.0
192 ; 511157.19528657576 ; 2.012210516324846E8 ; 9.940634135008232E7 ; 3.6925277504976906E10 ; 0.0
193 ; 510826.4357199445 ; 2.0122497446408823E8 ; 9.99174985453689E7 ; 3.712649855660939E10 ; 0.0
194 ; 511044.4343337982 ; 2.0122887983834243E8 ; 1.0042832498108883E8 ; 3.732772353107348E10 ; 0.0
195 ; 510073.62265051185 ; 2.0123276767897487E8 ; 1.0093936941542263E8 ; 3.752895241091182E10 ; 0.0
196 ; 510341.7426190536 ; 2.012366379100875E8 ; 1.0144944303807315E8 ; 3.77301851785908E10 ; 0.0
197 ; 509921.7258279607 ; 2.012404904561568E8 ; 1.019597847806922E8 ; 3.7931421816500885E10 ; 0.0
198 ; 508634.57867151266 ; 2.0124432524203438E8 ; 1.0246970650652017E8 ; 3.813266230695704E10 ; 0.0
199 ; 508813.3105198064 ; 2.0124814219294736E8 ; 1.0297834108519168E8 ; 3.833390663219907E10 ; 0.0
200 ; 508660.42589292116 ; 2.0125194123449883E8 ; 1.0348715439571148E8 ; 3.853515477439202E10 ; 0.0
201 ; 507921.5903258203 ; 2.012557222926683E8 ; 1.039958148216044E8 ; 3.873640671562652E10 ; 0.0
202 ; 507097.0972428575 ; 1.5746084554648003E8 ; 1.0450373641193022E8 ; 3.893766243791919E10 ; 0.0
