CSV File for the City 1 on Day 121
1 - Minute m 
2 - Power Consumed at minute m 
3 - Power Produced at minute m 
4 - Energy Consumed since the beginning of the day 
5 - Energy Produced since the beginning of the day 
6 - Energy Lost since the beginning of the day on lines starting from the city
 
0 ; 1.6230147924152553E7 ; 1.0556221845695063E8 ; 0.0 ; 0.0 ; 0.0
1 ; 1.6245164470042957E7 ; 1.0571517599794126E8 ; 1.6230147924152553E7 ; 1.0556221845695063E8 ; 0.0
2 ; 1.6263489009394985E7 ; 1.0617691479844812E8 ; 3.2475312394195512E7 ; 2.112773944548919E8 ; 0.0
3 ; 1.6287076620730883E7 ; 1.0694743623989183E8 ; 4.87388014035905E7 ; 3.1745430925334E8 ; 0.0
4 ; 1.6313080137409367E7 ; 1.0802674155895358E8 ; 6.5025878024321385E7 ; 4.2440174549323183E8 ; 0.0
5 ; 1.6335228920088394E7 ; 1.0941483184117013E8 ; 8.133895816173075E7 ; 5.324284870521854E8 ; 0.0
6 ; 1.637711366594034E7 ; 1.1111170801521173E8 ; 9.767418708181915E7 ; 6.418433188933556E8 ; 0.0
7 ; 1.643464432907986E7 ; 1.131173708479119E8 ; 1.1405130074775949E8 ; 7.529550269085673E8 ; 0.0
8 ; 1.6514808132315213E7 ; 1.1543182094011146E8 ; 1.3048594507683936E8 ; 8.660723977564793E8 ; 0.0
9 ; 1.6629640747759596E7 ; 1.1805505872336942E8 ; 1.4700075320915458E8 ; 9.815042186965907E8 ; 0.0
10 ; 1.681296206857335E7 ; 1.2098708445758206E8 ; 1.636303939569142E8 ; 1.09955927741996E9 ; 0.0
11 ; 1.710342075113169E7 ; 1.2422789822954229E8 ; 1.8044335602548754E8 ; 1.220546361877542E9 ; 0.0
12 ; 1.7562857841945894E7 ; 1.2777749995245716E8 ; 1.9754677677661923E8 ; 1.3447742601070843E9 ; 0.0
13 ; 1.8014204073229074E7 ; 1.316358893664304E8 ; 2.151096346185651E8 ; 1.4725517600595415E9 ; 0.0
14 ; 1.806489453521965E7 ; 1.358030660399031E8 ; 2.331238386917942E8 ; 1.604187649425972E9 ; 0.0
15 ; 1.8086344734511103E7 ; 1.402790293720343E8 ; 2.5118873322701383E8 ; 1.7399907154658751E9 ; 0.0
16 ; 1.8107803570392158E7 ; 1.4506377859599063E8 ; 2.692750779615249E8 ; 1.8802697448379095E9 ; 0.0
17 ; 1.813274489848421E7 ; 1.501573127831017E8 ; 2.8738288153191704E8 ; 2.0253335234339E9 ; 0.0
18 ; 1.815077922922384E7 ; 1.5555963084783083E8 ; 3.0551562643040127E8 ; 2.175490836217002E9 ; 0.0
19 ; 1.8178099293471675E7 ; 1.612707315534968E8 ; 3.236664056596251E8 ; 2.3310504670648327E9 ; 0.0
20 ; 1.8196379736663137E7 ; 1.67290613518679E8 ; 3.418445049530968E8 ; 2.4923211986183295E9 ; 0.0
21 ; 1.822067912032801E7 ; 1.736192752242293E8 ; 3.6004088468975997E8 ; 2.6596118121370087E9 ; 0.0
22 ; 1.8245155025351465E7 ; 1.8025671502081007E8 ; 3.78261563810088E8 ; 2.833231087361238E9 ; 0.0
23 ; 1.8262330982549015E7 ; 1.8720293113687414E8 ; 3.9650671883543944E8 ; 3.013487802382048E9 ; 0.0
24 ; 1.8289354767555933E7 ; 1.944579216870017E8 ; 4.1476904981798846E8 ; 3.2006907335189223E9 ; 0.0
25 ; 1.8305441197369568E7 ; 2.0070972557869223E8 ; 4.330584045855444E8 ; 3.395148655205924E9 ; 0.0
26 ; 1.8330430167304695E7 ; 2.0071188855805513E8 ; 4.51363845782914E8 ; 3.5958583807846165E9 ; 0.0
27 ; 1.835240709768805E7 ; 2.0071417774361405E8 ; 4.696942759502187E8 ; 3.7965702693426714E9 ; 0.0
28 ; 1.8377635256065574E7 ; 2.007165908820074E8 ; 4.8804668304790676E8 ; 3.9972844470862856E9 ; 0.0
29 ; 1.8396886335083794E7 ; 2.0071912565011695E8 ; 5.064243183039723E8 ; 4.198001037968293E9 ; 0.0
30 ; 1.841938129343928E7 ; 2.0072177966383842E8 ; 5.248212046390561E8 ; 4.39872016361841E9 ; 0.0
31 ; 1.8439822513759762E7 ; 2.0072455048667794E8 ; 5.432405859324954E8 ; 4.5994419432822485E9 ; 0.0
32 ; 1.845904951482092E7 ; 2.0072743563812026E8 ; 5.616804084462551E8 ; 4.800166493768927E9 ; 0.0
33 ; 1.8479071346472465E7 ; 2.0073043260172012E8 ; 5.80139457961076E8 ; 5.000893929407047E9 ; 0.0
34 ; 1.849790893446219E7 ; 2.0073353883287624E8 ; 5.986185293075485E8 ; 5.201624362008767E9 ; 0.0
35 ; 1.851337604153463E7 ; 2.0073675176625395E8 ; 6.171164382420107E8 ; 5.402357900841643E9 ; 0.0
36 ; 1.85341537034697E7 ; 2.007400688228288E8 ; 6.356298142835454E8 ; 5.603094652607897E9 ; 0.0
37 ; 1.8552399506001104E7 ; 2.007434874165305E8 ; 6.541639679870151E8 ; 5.803834721430726E9 ; 0.0
38 ; 1.8567950836253475E7 ; 2.0074700496047196E8 ; 6.727163674930162E8 ; 6.004578208847257E9 ; 0.0
39 ; 1.858683069075331E7 ; 2.0075061887275457E8 ; 6.912843183292698E8 ; 6.205325213807729E9 ; 0.0
40 ; 1.8601588107613336E7 ; 2.0075432658184505E8 ; 7.098711490200231E8 ; 6.406075832680483E9 ; 0.0
41 ; 1.861864761614686E7 ; 2.0075812553152442E8 ; 7.284727371276364E8 ; 6.606830159262328E9 ; 0.0
42 ; 1.8633792950012967E7 ; 2.0076201318541414E8 ; 7.470913847437832E8 ; 6.807588284793853E9 ; 0.0
43 ; 1.8633785240189426E7 ; 2.0076598703108647E8 ; 7.657251776937962E8 ; 7.008350297979267E9 ; 0.0
44 ; 1.8622278033900585E7 ; 2.0077004458377102E8 ; 7.843589629339856E8 ; 7.209116285010354E9 ; 0.0
45 ; 1.8614563741309803E7 ; 2.0077418338967037E8 ; 8.029812409678862E8 ; 7.409886329594125E9 ; 0.0
46 ; 1.860622747102467E7 ; 2.0077840102890125E8 ; 8.21595804709196E8 ; 7.610660512983795E9 ; 0.0
47 ; 1.859910794243496E7 ; 2.0078269511807737E8 ; 8.402020321802206E8 ; 7.811438914012696E9 ; 0.0
48 ; 1.858832763406047E7 ; 2.0078706331255352E8 ; 8.588011401226555E8 ; 8.012221609130774E9 ; 0.0
49 ; 1.8580456134766944E7 ; 2.0079150330834958E8 ; 8.77389467756716E8 ; 8.213008672443327E9 ; 0.0
50 ; 1.8560905915329166E7 ; 2.0079601284377408E8 ; 8.95969923891483E8 ; 8.413800175751677E9 ; 0.0
51 ; 1.854854458114901E7 ; 2.0080058970076802E8 ; 9.145308298068122E8 ; 8.614596188595451E9 ; 0.0
52 ; 1.8535133740586497E7 ; 2.0080523170598832E8 ; 9.330793743879611E8 ; 8.815396778296219E9 ; 0.0
53 ; 1.8520377916780796E7 ; 2.0080993673165095E8 ; 9.516145081285477E8 ; 9.016202010002207E9 ; 0.0
54 ; 1.850860923381499E7 ; 2.008147026961529E8 ; 9.701348860453285E8 ; 9.217011946733858E9 ; 0.0
55 ; 1.8490770964892164E7 ; 2.0081952756449208E8 ; 9.886434952791435E8 ; 9.417826649430012E9 ; 0.0
56 ; 1.847851714467365E7 ; 2.0082440934850287E8 ; 1.0071342662440356E9 ; 9.618646176994503E9 ; 0.0
57 ; 1.846495806167664E7 ; 2.008293461069247E8 ; 1.0256127833887093E9 ; 9.819470586343006E9 ; 0.0
58 ; 1.8450135611651063E7 ; 2.0083433594532073E8 ; 1.0440777414503859E9 ; 1.002029993244993E10 ; 0.0
59 ; 1.8440058770101555E7 ; 2.0083937701586094E8 ; 1.062527877062037E9 ; 1.022113426839525E10 ; 0.0
60 ; 1.8421466674501125E7 ; 2.0084446751698604E8 ; 1.0809679358321385E9 ; 1.0421973645411112E10 ; 0.0
61 ; 1.840838293060486E7 ; 2.0084960569296432E8 ; 1.0993894025066397E9 ; 1.0622818112928099E10 ; 0.0
62 ; 1.8396748992610786E7 ; 2.008547898333554E8 ; 1.1177977854372447E9 ; 1.0823667718621063E10 ; 0.0
63 ; 1.8376356275934126E7 ; 2.008600182723922E8 ; 1.1361945344298553E9 ; 1.1024522508454418E10 ; 0.0
64 ; 1.836036799948549E7 ; 2.008652893882926E8 ; 1.1545708907057896E9 ; 1.122538252672681E10 ; 0.0
65 ; 1.834954085227169E7 ; 2.0087060160251033E8 ; 1.172931258705275E9 ; 1.1426247816115103E10 ; 0.0
66 ; 1.833339812218481E7 ; 2.0087595337893507E8 ; 1.1912807995575469E9 ; 1.1627118417717613E10 ; 0.0
67 ; 1.831631482213593E7 ; 2.0088134322304997E8 ; 1.2096141976797316E9 ; 1.1827994371096548E10 ; 0.0
68 ; 1.830465698180216E7 ; 2.0088676968105423E8 ; 1.2279305125018675E9 ; 1.2028875714319597E10 ; 0.0
69 ; 1.828288960154237E7 ; 2.0089223133895805E8 ; 1.2462351694836698E9 ; 1.2229762484000652E10 ; 0.0
70 ; 1.8268757140623916E7 ; 2.008977268216562E8 ; 1.2645180590852122E9 ; 1.2430654715339611E10 ; 0.0
71 ; 1.825238449329178E7 ; 2.0090325479198572E8 ; 1.282786816225836E9 ; 1.2631552442161266E10 ; 0.0
72 ; 1.8239971353881713E7 ; 2.009088139497735E8 ; 1.301039200719128E9 ; 1.2832455696953253E10 ; 0.0
73 ; 1.8217722855094567E7 ; 2.009144030308774E8 ; 1.3192791720730095E9 ; 1.3033364510903027E10 ; 0.0
74 ; 1.820795204495847E7 ; 2.0092002080622625E8 ; 1.3374968949281042E9 ; 1.3234278913933905E10 ; 0.0
75 ; 1.818843556470408E7 ; 2.0092566608086067E8 ; 1.3557048469730625E9 ; 1.3435198934740131E10 ; 0.0
76 ; 1.8168801897200946E7 ; 2.0093133769297978E8 ; 1.3738932825377667E9 ; 1.3636124600820992E10 ; 0.0
77 ; 1.8151919879509218E7 ; 2.0093703451299506E8 ; 1.3920620844349678E9 ; 1.3837055938513971E10 ; 0.0
78 ; 1.8127884390972126E7 ; 2.009427554425945E8 ; 1.410214004314477E9 ; 1.4037992973026966E10 ; 0.0
79 ; 1.810635444280117E7 ; 2.0094849941381913E8 ; 1.428341888705449E9 ; 1.423893572846956E10 ; 0.0
80 ; 1.808176250973102E7 ; 2.0095426538815343E8 ; 1.4464482431482503E9 ; 1.4439884227883379E10 ; 0.0
81 ; 1.8061197702326946E7 ; 2.0096005235563144E8 ; 1.4645300056579814E9 ; 1.4640838493271532E10 ; 0.0
82 ; 1.803848106092887E7 ; 2.0096585933395958E8 ; 1.4825912033603084E9 ; 1.4841798545627163E10 ; 0.0
83 ; 1.801400834748577E7 ; 2.0097168536765748E8 ; 1.5006296844212372E9 ; 1.5042764404961123E10 ; 0.0
84 ; 1.798763446484833E7 ; 2.009775295272176E8 ; 1.518643692768723E9 ; 1.524373609032878E10 ; 0.0
85 ; 1.7962659122464128E7 ; 2.0098339090828407E8 ; 1.5366313272335713E9 ; 1.5444713619855997E10 ; 0.0
86 ; 1.7946279532304358E7 ; 2.0098926863085175E8 ; 1.5545939863560355E9 ; 1.564569701076428E10 ; 0.0
87 ; 1.7919939925205447E7 ; 2.0099516183848548E8 ; 1.5725402658883398E9 ; 1.5846686279395132E10 ; 0.0
88 ; 1.790089972206879E7 ; 2.0100106969755995E8 ; 1.5904602058135452E9 ; 1.6047681441233618E10 ; 0.0
89 ; 1.7871203922704425E7 ; 2.0100699139652023E8 ; 1.608361105535614E9 ; 1.6248682510931177E10 ; 0.0
90 ; 1.7848015852693494E7 ; 2.010129261451633E8 ; 1.6262323094583185E9 ; 1.6449689502327698E10 ; 0.0
91 ; 1.7823638311017014E7 ; 2.0101887317393997E8 ; 1.644080325311012E9 ; 1.665070242847286E10 ; 0.0
92 ; 1.77962643736928E7 ; 2.0102483173327783E8 ; 1.661903963622029E9 ; 1.6851721301646801E10 ; 0.0
93 ; 1.7774152566981964E7 ; 2.0103080109292418E8 ; 1.6797002279957218E9 ; 1.705274613338008E10 ; 0.0
94 ; 1.774794744750178E7 ; 2.010367805413097E8 ; 1.6974743805627038E9 ; 1.7253776934473003E10 ; 0.0
95 ; 1.7722763904838964E7 ; 2.0104276938493153E8 ; 1.7152223280102057E9 ; 1.7454813715014313E10 ; 0.0
96 ; 1.7697652188006278E7 ; 2.0104876694775632E8 ; 1.7329450919150448E9 ; 1.7655856484399242E10 ; 0.0
97 ; 1.7673769481101945E7 ; 2.0105477257064238E8 ; 1.750642744103051E9 ; 1.7856905251347E10 ; 0.0
98 ; 1.7646615965572968E7 ; 2.0106078561078072E8 ; 1.768316513584153E9 ; 1.805796002391764E10 ; 0.0
99 ; 1.7620166279585548E7 ; 2.010668054411545E8 ; 1.785963129549726E9 ; 1.825902080952842E10 ; 0.0
100 ; 1.7589430740053073E7 ; 2.010728314500167E8 ; 1.8035832958293116E9 ; 1.8460087614969574E10 ; 0.0
101 ; 1.7565999748803332E7 ; 2.0107886304038507E8 ; 1.8211727265693648E9 ; 1.866116044641959E10 ; 0.0
102 ; 1.7544200608600568E7 ; 2.0108489962955448E8 ; 1.8387387263181682E9 ; 1.8862239309459976E10 ; 0.0
103 ; 1.7512061189660087E7 ; 2.01090940648626E8 ; 1.8562829269267688E9 ; 1.906332420908953E10 ; 0.0
104 ; 1.7489379813581873E7 ; 2.0109698554205182E8 ; 1.8737949881164289E9 ; 1.9264415149738155E10 ; 0.0
105 ; 1.7460674686597843E7 ; 2.011030337671965E8 ; 1.8912843679300108E9 ; 1.946551213528021E10 ; 0.0
106 ; 1.7433533203887362E7 ; 2.0110908479391307E8 ; 1.9087450426166086E9 ; 1.9666615169047405E10 ; 0.0
107 ; 1.7406424471254986E7 ; 2.0111513810413405E8 ; 1.926178575820496E9 ; 1.986772425384132E10 ; 0.0
108 ; 1.738369688459678E7 ; 2.0112119319147715E8 ; 1.9435850002917511E9 ; 2.0068839391945454E10 ; 0.0
109 ; 1.735369101780724E7 ; 2.0112724956086448E8 ; 1.960968697176348E9 ; 2.0269960585136932E10 ; 0.0
110 ; 1.7322547549373727E7 ; 2.0113330672815552E8 ; 1.9783223881941552E9 ; 2.0471087834697796E10 ; 0.0
111 ; 1.7299302710596167E7 ; 2.0113936421979305E8 ; 1.9956449357435288E9 ; 2.0672221141425953E10 ; 0.0
112 ; 1.7272327716827106E7 ; 2.0114542157246166E8 ; 2.012944238454125E9 ; 2.0873360505645744E10 ; 0.0
113 ; 1.7243236523701083E7 ; 2.0115147833275852E8 ; 2.030216566170952E9 ; 2.1074505927218204E10 ; 0.0
114 ; 1.721944597436615E7 ; 2.0115753405687588E8 ; 2.0474598026946533E9 ; 2.1275657405550964E10 ; 0.0
115 ; 1.71821170391417E7 ; 2.0116358831029493E8 ; 2.0646792486690195E9 ; 2.147681493960784E10 ; 0.0
116 ; 1.7159303969831683E7 ; 2.011696406674906E8 ; 2.081861365708161E9 ; 2.1677978527918137E10 ; 0.0
117 ; 1.712668212147955E7 ; 2.0117569071164715E8 ; 2.0990206696779928E9 ; 2.187914816858563E10 ; 0.0
118 ; 1.7096681637559533E7 ; 2.0118173803438368E8 ; 2.1161473517994723E9 ; 2.2080323859297276E10 ; 0.0
119 ; 1.7071309319995508E7 ; 2.0118778223548976E8 ; 2.1332440334370317E9 ; 2.2281505597331657E10 ; 0.0
120 ; 1.7041891245248303E7 ; 2.0119382292267033E8 ; 2.150315342757027E9 ; 2.2482693379567146E10 ; 0.0
121 ; 1.701253229030518E7 ; 2.0119985971130008E8 ; 2.1673572340022755E9 ; 2.2683887202489815E10 ; 0.0
122 ; 1.6983675811095737E7 ; 2.012058922241862E8 ; 2.1843697662925806E9 ; 2.2885087062201115E10 ; 0.0
123 ; 1.69525442807985E7 ; 2.0121192009134018E8 ; 2.2013534421036763E9 ; 2.30862929544253E10 ; 0.0
124 ; 1.6925855189965613E7 ; 2.0121794294975734E8 ; 2.2183059863844748E9 ; 2.328750487451664E10 ; 0.0
125 ; 1.6893283645047702E7 ; 2.0122396044320452E8 ; 2.2352318415744405E9 ; 2.3488722817466396E10 ; 0.0
126 ; 1.6866828294007625E7 ; 2.0122997222201535E8 ; 2.252125125219488E9 ; 2.36899467779096E10 ; 0.0
127 ; 1.68373348638439E7 ; 2.012359779428927E8 ; 2.268991953513496E9 ; 2.3891176750131615E10 ; 0.0
128 ; 1.680309910586734E7 ; 2.0124197726871848E8 ; 2.28582928837734E9 ; 2.409241272807451E10 ; 0.0
129 ; 1.677753024645833E7 ; 2.012479698683699E8 ; 2.302632387483207E9 ; 2.4293654705343227E10 ; 0.0
130 ; 1.6744608134775707E7 ; 2.0125395541654247E8 ; 2.3194099177296658E9 ; 2.4494902675211597E10 ; 0.0
131 ; 1.6704050176734405E7 ; 2.0125993359357932E8 ; 2.3361545258644414E9 ; 2.469615663062814E10 ; 0.0
132 ; 1.6668665020194272E7 ; 2.012659040853065E8 ; 2.352858576041176E9 ; 2.4897416564221718E10 ; 0.0
133 ; 1.6631672926400669E7 ; 2.0127186658287412E8 ; 2.36952724106137E9 ; 2.5098682468307026E10 ; 0.0
134 ; 1.6594213048952209E7 ; 2.0127782078260323E8 ; 2.3861589139877706E9 ; 2.52999543348899E10 ; 0.0
135 ; 1.6559414945952076E7 ; 2.01283766385838E8 ; 2.4027531270367227E9 ; 2.5501232155672504E10 ; 0.0
136 ; 1.6517628319151696E7 ; 2.0128970309880304E8 ; 2.4193125419826746E9 ; 2.5702515922058342E10 ; 0.0
137 ; 1.648433750843403E7 ; 2.0129563063246614E8 ; 2.4358301703018265E9 ; 2.5903805625157146E10 ; 0.0
138 ; 1.6446149269852225E7 ; 2.0130154870240518E8 ; 2.4523145078102603E9 ; 2.610510125578961E10 ; 0.0
139 ; 1.6409680302742712E7 ; 2.0130745702868038E8 ; 2.4687606570801125E9 ; 2.6306402804492016E10 ; 0.0
140 ; 1.6369003861113446E7 ; 2.0131335533571053E8 ; 2.485170337382855E9 ; 2.6507710261520695E10 ; 0.0
141 ; 1.6333908303430075E7 ; 2.013192433521538E8 ; 2.5015393412439685E9 ; 2.6709023616856407E10 ; 0.0
142 ; 1.6292312085521985E7 ; 2.0132512081079257E8 ; 2.5178732495473986E9 ; 2.691034286020856E10 ; 0.0
143 ; 1.6256821065980831E7 ; 2.0133098744842234E8 ; 2.5341655616329207E9 ; 2.7111667981019352E10 ; 0.0
144 ; 1.6219050948195906E7 ; 2.0133684300574452E8 ; 2.5504223826989017E9 ; 2.7312998968467773E10 ; 0.0
145 ; 1.6189751748750763E7 ; 2.013426872272627E8 ; 2.5666414336470976E9 ; 2.751433581147352E10 ; 0.0
146 ; 1.6158741262877028E7 ; 2.0134851986118284E8 ; 2.5828311853958483E9 ; 2.7715678498700783E10 ; 0.0
147 ; 1.612770604746682E7 ; 2.0135434065931657E8 ; 2.5989899266587253E9 ; 2.7917027018561966E10 ; 0.0
148 ; 1.6093260768521499E7 ; 2.013601493769881E8 ; 2.615117632706192E9 ; 2.8118381359221283E10 ; 0.0
149 ; 1.6063150547672387E7 ; 2.0136594577294406E8 ; 2.6312108934747133E9 ; 2.831974150859827E10 ; 0.0
150 ; 1.60330906586793E7 ; 2.013717296092665E8 ; 2.6472740440223856E9 ; 2.8521107454371216E10 ; 0.0
151 ; 1.6000813456607576E7 ; 2.0137750065128896E8 ; 2.663307134681065E9 ; 2.8722479183980484E10 ; 0.0
152 ; 1.5969258259209998E7 ; 2.0138325866751528E8 ; 2.6793079481376724E9 ; 2.892385668463177E10 ; 0.0
153 ; 1.5936492579021167E7 ; 2.0138900342954117E8 ; 2.6952772063968825E9 ; 2.9125239943299286E10 ; 0.0
154 ; 1.590699702467355E7 ; 2.0139473471197844E8 ; 2.7112136989759035E9 ; 2.932662894672883E10 ; 0.0
155 ; 1.5875737711209185E7 ; 2.0140045229238176E8 ; 2.727120696000577E9 ; 2.9528023681440807E10 ; 0.0
156 ; 1.5843615323971199E7 ; 2.0140615595117795E8 ; 2.7429964337117863E9 ; 2.972942413373319E10 ; 0.0
157 ; 1.5814655429029617E7 ; 2.014118454715976E8 ; 2.7588400490357575E9 ; 2.993083028968437E10 ; 0.0
158 ; 1.5781091651353251E7 ; 2.014175206396089E8 ; 2.774654704464787E9 ; 3.0132242135155964E10 ; 0.0
159 ; 1.5746786601815391E7 ; 2.0142318124385375E8 ; 2.7904357961161404E9 ; 3.0333659655795574E10 ; 0.0
160 ; 1.571363143517391E7 ; 2.0142882707558608E8 ; 2.8061825827179556E9 ; 3.053508283703943E10 ; 0.0
161 ; 1.568660075525835E7 ; 2.0143445792861193E8 ; 2.8218962141531296E9 ; 3.0736511664115013E10 ; 0.0
162 ; 1.565170428588997E7 ; 2.0144007359923193E8 ; 2.837582814908388E9 ; 3.0937946122043625E10 ; 0.0
163 ; 1.561648166137841E7 ; 2.0144567388618526E8 ; 2.8532345191942782E9 ; 3.1139386195642857E10 ; 0.0
164 ; 1.5591566840102313E7 ; 2.0145125859059566E8 ; 2.8688510008556566E9 ; 3.134083186952904E10 ; 0.0
165 ; 1.5554920955438871E7 ; 2.0145682751591924E8 ; 2.884442567695759E9 ; 3.1542283128119637E10 ; 0.0
166 ; 1.5524873491538791E7 ; 2.0146238046789393E8 ; 2.899997488651198E9 ; 3.1743739955635555E10 ; 0.0
167 ; 1.5492744682044357E7 ; 2.014679172544905E8 ; 2.915522362142737E9 ; 3.194520233610345E10 ; 0.0
168 ; 1.5461216437821297E7 ; 2.0147343768586543E8 ; 2.9310151068247814E9 ; 3.214667025335794E10 ; 0.0
169 ; 1.5429727056274643E7 ; 2.0147894157431492E8 ; 2.946476323262603E9 ; 3.2348143691043808E10 ; 0.0
170 ; 1.5395814942223467E7 ; 2.0148442873423082E8 ; 2.961906050318877E9 ; 3.2549622632618122E10 ; 0.0
171 ; 1.5359970319049574E7 ; 2.014898989820575E8 ; 2.977301865261101E9 ; 3.2751107061352352E10 ; 0.0
172 ; 1.5331014342494918E7 ; 2.0149535213625073E8 ; 2.99266183558015E9 ; 3.2952596960334408E10 ; 0.0
173 ; 1.5293853252302622E7 ; 2.0150078801723722E8 ; 3.007992849922645E9 ; 3.3154092312470657E10 ; 0.0
174 ; 1.527106445388955E7 ; 2.015062064473758E8 ; 3.0232867031749477E9 ; 3.3355593100487896E10 ; 0.0
175 ; 1.524239673957265E7 ; 2.0151160725092E8 ; 3.038557767628837E9 ; 3.3557099306935272E10 ; 0.0
176 ; 1.5215876299388967E7 ; 2.0151699025398135E8 ; 3.0538001643684096E9 ; 3.375861091418619E10 ; 0.0
177 ; 1.5184602743532939E7 ; 2.0152235528449437E8 ; 3.0690160406677985E9 ; 3.3960127904440174E10 ; 0.0
178 ; 1.5159673902594557E7 ; 2.0152770217218217E8 ; 3.0842006434113317E9 ; 3.4161650259724667E10 ; 0.0
179 ; 1.5127693868989794E7 ; 2.0153303074852356E8 ; 3.099360317313926E9 ; 3.436317796189685E10 ; 0.0
180 ; 1.5103022575354045E7 ; 2.015383408467209E8 ; 3.114488011182916E9 ; 3.456471099264537E10 ; 0.0
181 ; 1.5076515602477612E7 ; 2.0154363230166924E8 ; 3.1295910337582703E9 ; 3.476624933349209E10 ; 0.0
182 ; 1.5044130269471053E7 ; 2.0154890494992605E8 ; 3.144667549360748E9 ; 3.4967792965793755E10 ; 0.0
183 ; 1.5015132774727805E7 ; 2.0155415862968224E8 ; 3.159711679630219E9 ; 3.516934187074368E10 ; 0.0
184 ; 1.4989381221888067E7 ; 2.01559393180734E8 ; 3.174726812404947E9 ; 3.537089602937337E10 ; 0.0
185 ; 1.495791757968823E7 ; 2.0156460844445542E8 ; 3.189716193626835E9 ; 3.55724554225541E10 ; 0.0
186 ; 1.4931439979594227E7 ; 2.0156980426377195E8 ; 3.204674111206523E9 ; 3.577402003099856E10 ; 0.0
187 ; 1.4906356761902008E7 ; 2.015749804831349E8 ; 3.219605551186117E9 ; 3.597558983526233E10 ; 0.0
188 ; 1.4879822600152928E7 ; 2.0158013694849646E8 ; 3.234511907948019E9 ; 3.617716481574546E10 ; 0.0
189 ; 1.4850420648807451E7 ; 2.0158527350728568E8 ; 3.249391730548172E9 ; 3.6378744952693954E10 ; 0.0
190 ; 1.4825387782207608E7 ; 2.0159039000838512E8 ; 3.2642421511969795E9 ; 3.658033022620124E10 ; 0.0
191 ; 1.4796678285477048E7 ; 2.0159548630210814E8 ; 3.279067538979187E9 ; 3.6781920616209625E10 ; 0.0
192 ; 1.4771151816703448E7 ; 2.0160056224017707E8 ; 3.293864217264664E9 ; 3.6983516102511734E10 ; 0.0
193 ; 1.4739077076504339E7 ; 2.0160561767570195E8 ; 3.3086353690813675E9 ; 3.718511666475191E10 ; 0.0
194 ; 1.4710301850290313E7 ; 2.016106524631598E8 ; 3.3233744461578717E9 ; 3.738672228242761E10 ; 0.0
195 ; 1.4686002407043213E7 ; 2.0161566645837474E8 ; 3.338084748008162E9 ; 3.758833293489077E10 ; 0.0
