CSV File for the City 1 on Day 250
1 - Minute m 
2 - Power Consumed at minute m 
3 - Power Produced at minute m 
4 - Energy Consumed since the beginning of the day 
5 - Energy Produced since the beginning of the day 
6 - Energy Lost since the beginning of the day on lines starting from the city
 
0 ; 3548496.0918039167 ; 1.0537638852836218E8 ; 0.0 ; 0.0 ; 0.0
1 ; 3563256.0618842025 ; 1.0552901634038818E8 ; 3548496.0918039167 ; 1.0537638852836218E8 ; 0.0
2 ; 3581436.8136193957 ; 1.0599045253494021E8 ; 7111752.15368812 ; 2.1090540486875036E8 ; 0.0
3 ; 3599849.860974286 ; 1.0676070085088861E8 ; 1.0693188967307515E7 ; 3.168958574036906E8 ; 0.0
4 ; 3622017.236538367 ; 1.0783976470121014E8 ; 1.4293038828281801E7 ; 4.236565582545792E8 ; 0.0
5 ; 3654108.3970765956 ; 1.0922764713423282E8 ; 1.7915056064820167E7 ; 5.314963229557893E8 ; 0.0
6 ; 3692240.1978095905 ; 1.1092435079753163E8 ; 2.1569164461896762E7 ; 6.407239700900221E8 ; 0.0
7 ; 3739022.821069095 ; 1.1292987790541768E8 ; 2.5261404659706354E7 ; 7.516483208875537E8 ; 0.0
8 ; 3818563.714509968 ; 1.1524423021091712E8 ; 2.900042748077545E7 ; 8.645781987929714E8 ; 0.0
9 ; 3932411.16913709 ; 1.1786740898304772E8 ; 3.2818991195285417E7 ; 9.798224290038885E8 ; 0.0
10 ; 4115873.121573522 ; 1.2079941499006921E8 ; 3.675140236442251E7 ; 1.097689837986936E9 ; 0.0
11 ; 4404284.638218386 ; 1.2404024848922059E8 ; 4.086727548599603E7 ; 1.2184892529770052E9 ; 0.0
12 ; 4862168.871748655 ; 1.2758990922326282E8 ; 4.527156012421442E7 ; 1.3425295014662259E9 ; 0.0
13 ; 5309571.43717255 ; 1.3144839642393619E8 ; 5.0133728995963074E7 ; 1.4701194106894886E9 ; 0.0
14 ; 5360999.596712153 ; 1.35615708822223E8 ; 5.544330043313562E7 ; 1.6015678071134248E9 ; 0.0
15 ; 5382097.977843863 ; 1.40091844665097E8 ; 6.080430002984777E7 ; 1.7371835159356477E9 ; 0.0
16 ; 5402306.587580343 ; 1.448768017382472E8 ; 6.618639800769164E7 ; 1.8772753606007447E9 ; 0.0
17 ; 5426397.520883154 ; 1.499705773940985E8 ; 7.158870459527197E7 ; 2.0221521623389919E9 ; 0.0
18 ; 5439992.788312719 ; 1.5537316858432293E8 ; 7.701510211615513E7 ; 2.1721227397330904E9 ; 0.0
19 ; 5465151.8877303535 ; 1.6108457189594373E8 ; 8.245509490446785E7 ; 2.3274959083174133E9 ; 0.0
20 ; 5485960.577831665 ; 1.6710478359009054E8 ; 8.792024679219821E7 ; 2.488580480213357E9 ; 0.0
21 ; 5507723.711017527 ; 1.734337996424571E8 ; 9.340620737002988E7 ; 2.6556852638034477E9 ; 0.0
22 ; 5526235.111324885 ; 1.800716157845428E8 ; 9.891393108104742E7 ; 2.8291190634459047E9 ; 0.0
23 ; 5548571.748944989 ; 1.870182275448274E8 ; 1.044401661923723E8 ; 3.009190679230448E9 ; 0.0
24 ; 5567856.352826281 ; 1.9427363028911197E8 ; 1.0998873794131729E8 ; 3.196208906775275E9 ; 0.0
25 ; 5590289.9237735355 ; 2.0052586015755233E8 ; 1.1555659429414357E8 ; 3.3904825370643873E9 ; 0.0
26 ; 5610508.2787493635 ; 2.0052846013837016E8 ; 1.2114688421791711E8 ; 3.5910083972219396E9 ; 0.0
27 ; 5629796.750141655 ; 2.0053119462711364E8 ; 1.2675739249666648E8 ; 3.7915368573603096E9 ; 0.0
28 ; 5649004.71993604 ; 2.0053405870502177E8 ; 1.3238718924680813E8 ; 3.9920680519874234E9 ; 0.0
29 ; 5670275.132261084 ; 2.0053704746089804E8 ; 1.3803619396674415E8 ; 4.1926021106924453E9 ; 0.0
30 ; 5692792.950516705 ; 2.0054015601667485E8 ; 1.4370646909900525E8 ; 4.393139158153343E9 ; 0.0
31 ; 5710066.66843167 ; 2.0054337954990008E8 ; 1.4939926204952195E8 ; 4.593679314170018E9 ; 0.0
32 ; 5727531.355256317 ; 2.0054671331320179E8 ; 1.5510932871795362E8 ; 4.794222693719918E9 ; 0.0
33 ; 5746462.970725637 ; 2.0055015265084577E8 ; 1.6083686007320994E8 ; 4.99476940703312E9 ; 0.0
34 ; 5768497.101832902 ; 2.0055369301254365E8 ; 1.6658332304393557E8 ; 5.195319559683966E9 ; 0.0
35 ; 5782140.964251169 ; 2.005573299647009E8 ; 1.7235182014576846E8 ; 5.395873252696509E9 ; 0.0
36 ; 5805648.956765399 ; 2.0056105919931433E8 ; 1.7813396111001962E8 ; 5.59643058266121E9 ; 0.0
37 ; 5818023.104359042 ; 2.005648765407397E8 ; 1.8393961006678504E8 ; 5.796991641860524E9 ; 0.0
38 ; 5835796.174515557 ; 2.0056877795055288E8 ; 1.8975763317114407E8 ; 5.997556518401264E9 ; 0.0
39 ; 5851007.220711004 ; 2.0057275953072518E8 ; 1.955934293456596E8 ; 6.198125296351817E9 ; 0.0
40 ; 5865554.6433635475 ; 2.0057681752532533E8 ; 2.014444365663706E8 ; 6.398698055882543E9 ; 0.0
41 ; 5882839.608583177 ; 2.005809483209488E8 ; 2.0730999120973414E8 ; 6.599274873407868E9 ; 0.0
42 ; 5895116.313492445 ; 2.0058514844606233E8 ; 2.1319283081831732E8 ; 6.799855821728817E9 ; 0.0
43 ; 5908818.720353506 ; 2.0058941456943518E8 ; 2.1908794713180977E8 ; 7.000440970174879E9 ; 0.0
44 ; 5915064.912078783 ; 2.0059374349781334E8 ; 2.2499676585216329E8 ; 7.201030384744314E9 ; 0.0
45 ; 5929289.611906343 ; 2.0059813217297703E8 ; 2.3091183076424205E8 ; 7.401624128242127E9 ; 0.0
46 ; 5934241.329654804 ; 2.0060257766830513E8 ; 2.368411203761484E8 ; 7.602222260415105E9 ; 0.0
47 ; 5945997.26149334 ; 2.0060707718495718E8 ; 2.4277536170580322E8 ; 7.80282483808341E9 ; 0.0
48 ; 5954733.062365913 ; 2.0061162804776704E8 ; 2.4872135896729654E8 ; 8.003431915268368E9 ; 0.0
49 ; 5965890.156723419 ; 2.0061622770093167E8 ; 2.5467609202966246E8 ; 8.204043543316134E9 ; 0.0
50 ; 5970069.1296816105 ; 2.0062087370356464E8 ; 2.6064198218638587E8 ; 8.404659771017066E9 ; 0.0
51 ; 5979411.828346604 ; 2.0062556372517505E8 ; 2.666120513160675E8 ; 8.60528064472063E9 ; 0.0
52 ; 5985412.290545698 ; 2.0063029554112113E8 ; 2.7259146314441407E8 ; 8.805906208445807E9 ; 0.0
53 ; 5993169.165341924 ; 2.006350670280808E8 ; 2.7857687543495977E8 ; 9.006536503986927E9 ; 0.0
54 ; 5994808.657639095 ; 2.00639876159573E8 ; 2.845700446003017E8 ; 9.207171571015007E9 ; 0.0
55 ; 6006985.764966827 ; 2.0064472100155774E8 ; 2.9056485325794077E8 ; 9.40781144717458E9 ; 0.0
56 ; 6011732.505933422 ; 2.0064959970813635E8 ; 2.965718390229076E8 ; 9.608456168176138E9 ; 0.0
57 ; 6016316.2649443075 ; 2.0065451051736954E8 ; 3.02583571528841E8 ; 9.809105767884274E9 ; 0.0
58 ; 6023146.261425163 ; 2.0065945174722573E8 ; 3.0859988779378533E8 ; 1.0009760278401644E10 ; 0.0
59 ; 6026658.888632415 ; 2.0066442179166934E8 ; 3.146230340552105E8 ; 1.0210419730148869E10 ; 0.0
60 ; 6032424.478742546 ; 2.0066941911689526E8 ; 3.206496929438429E8 ; 1.0411084151940538E10 ; 0.0
61 ; 6040341.165412213 ; 2.006744422577134E8 ; 3.266821174225854E8 ; 1.0611753571057434E10 ; 0.0
62 ; 6041172.692798344 ; 2.006794898140853E8 ; 3.327224585879976E8 ; 1.0812428013315147E10 ; 0.0
63 ; 6048127.660155731 ; 2.0068456044781283E8 ; 3.3876363128079593E8 ; 1.1013107503129232E10 ; 0.0
64 ; 6053237.136108915 ; 2.006896528793775E8 ; 3.4481175894095165E8 ; 1.1213792063577045E10 ; 0.0
65 ; 6059705.819120279 ; 2.0069476588492888E8 ; 3.508649960770606E8 ; 1.1414481716456423E10 ; 0.0
66 ; 6066018.590286413 ; 2.0069989829341757E8 ; 3.5692470189618087E8 ; 1.1615176482341352E10 ; 0.0
67 ; 6070506.056432245 ; 2.007050489838702E8 ; 3.629907204864673E8 ; 1.181587638063477E10 ; 0.0
68 ; 6072657.100940018 ; 2.007102168828012E8 ; 3.6906122654289955E8 ; 1.2016581429618639E10 ; 0.0
69 ; 6080103.436632637 ; 2.007154009617568E8 ; 3.7513388364383954E8 ; 1.221729164650144E10 ; 0.0
70 ; 6081506.155997462 ; 2.0072060023498625E8 ; 3.812139870804722E8 ; 1.2418007047463198E10 ; 0.0
71 ; 6081133.295825692 ; 2.007258137572354E8 ; 3.872954932364696E8 ; 1.2618727647698183E10 ; 0.0
72 ; 6086293.340905512 ; 2.0073104062165657E8 ; 3.9337662653229535E8 ; 1.2819453461455418E10 ; 0.0
73 ; 6091543.46384689 ; 2.0073627995783046E8 ; 3.9946291987320083E8 ; 1.3020184502077074E10 ; 0.0
74 ; 6094998.807953039 ; 2.0074153092989406E8 ; 4.055544633370477E8 ; 1.3220920782034904E10 ; 0.0
75 ; 6097988.353305855 ; 2.0074679273476985E8 ; 4.1164946214500076E8 ; 1.3421662312964798E10 ; 0.0
76 ; 6103385.934432581 ; 2.0075206460049117E8 ; 4.1774745049830663E8 ; 1.3622409105699568E10 ; 0.0
77 ; 6104916.546758177 ; 2.0075734578461874E8 ; 4.238508364327392E8 ; 1.3823161170300058E10 ; 0.0
78 ; 6106476.38969328 ; 2.0076263557274374E8 ; 4.299557529794974E8 ; 1.4023918516084677E10 ; 0.0
79 ; 6099350.1425900785 ; 2.0076793327707285E8 ; 4.3606222936919063E8 ; 1.4224681151657421E10 ; 0.0
80 ; 6100250.930298728 ; 2.0077323823509076E8 ; 4.4216157951178074E8 ; 1.4425449084934494E10 ; 0.0
81 ; 6100780.260752433 ; 2.0077854980829602E8 ; 4.482618304420795E8 ; 1.4626222323169584E10 ; 0.0
82 ; 6093506.722544538 ; 2.007838673810063E8 ; 4.543626107028319E8 ; 1.482700087297788E10 ; 0.0
83 ; 6089290.514660318 ; 2.00789190359229E8 ; 4.604561174253765E8 ; 1.5027784740358887E10 ; 0.0
84 ; 6089043.938520893 ; 2.007945181695937E8 ; 4.665454079400368E8 ; 1.5228573930718115E10 ; 0.0
85 ; 6084957.231311182 ; 2.0079985025834304E8 ; 4.726344518785577E8 ; 1.5429368448887709E10 ; 0.0
86 ; 6083787.650325483 ; 2.0080518609037867E8 ; 4.787194091098689E8 ; 1.5630168299146051E10 ; 0.0
87 ; 6081648.908119662 ; 2.00810525148359E8 ; 4.8480319676019436E8 ; 1.583097348523643E10 ; 0.0
88 ; 6075674.397974054 ; 2.0081586693184608E8 ; 4.9088484566831404E8 ; 1.6031784010384789E10 ; 0.0
89 ; 6074998.035734804 ; 2.0082121095649874E8 ; 4.969605200662881E8 ; 1.6232599877316635E10 ; 0.0
90 ; 6074115.237702088 ; 2.0082655675330904E8 ; 5.0303551810202295E8 ; 1.6433421088273134E10 ; 0.0
91 ; 6062640.567378429 ; 2.0083190386788023E8 ; 5.09109633339725E8 ; 1.6634247645026443E10 ; 0.0
92 ; 6057166.443079391 ; 2.0083725185974288E8 ; 5.151722739071034E8 ; 1.6835079548894323E10 ; 0.0
93 ; 6055575.936773551 ; 2.008426003017081E8 ; 5.2122944035018283E8 ; 1.7035916800754066E10 ; 0.0
94 ; 6053370.463297604 ; 2.0084794877925482E8 ; 5.2728501628695637E8 ; 1.7236759401055775E10 ; 0.0
95 ; 6047142.745970696 ; 2.008532968899497E8 ; 5.33338386750254E8 ; 1.743760734983503E10 ; 0.0
96 ; 6046578.913190757 ; 2.0085864424289757E8 ; 5.393855294962246E8 ; 1.763846064672498E10 ; 0.0
97 ; 6035553.077103686 ; 2.008639904582208E8 ; 5.454321084094154E8 ; 1.7839319290967876E10 ; 0.0
98 ; 6036738.572644595 ; 2.0086933516656598E8 ; 5.514676614865191E8 ; 1.8040183281426098E10 ; 0.0
99 ; 6030607.204772121 ; 2.0087467800863606E8 ; 5.575044000591637E8 ; 1.8241052616592663E10 ; 0.0
100 ; 6026619.3338167835 ; 2.0088001863474703E8 ; 5.635350072639358E8 ; 1.84419272946013E10 ; 0.0
101 ; 6021588.232838623 ; 2.008853567044072E8 ; 5.695616265977526E8 ; 1.8642807313236046E10 ; 0.0
102 ; 6015250.247716593 ; 2.0089069188591826E8 ; 5.755832148305912E8 ; 1.8843692669940453E10 ; 0.0
103 ; 6012716.628539277 ; 2.008960238559967E8 ; 5.815984650783077E8 ; 1.904458336182637E10 ; 0.0
104 ; 6003088.637733456 ; 2.0090135229941422E8 ; 5.876111817068471E8 ; 1.9245479385682365E10 ; 0.0
105 ; 5997957.620582978 ; 2.0090667690865672E8 ; 5.936142703445805E8 ; 1.944638073798178E10 ; 0.0
106 ; 5991362.313057779 ; 2.0091199738360015E8 ; 5.996122279651635E8 ; 1.9647287414890438E10 ; 0.0
107 ; 5985097.147975629 ; 2.009173134312026E8 ; 6.056035902782212E8 ; 1.9848199412274036E10 ; 0.0
108 ; 5982141.275023511 ; 2.0092262476521185E8 ; 6.115886874261969E8 ; 2.004911672570524E10 ; 0.0
109 ; 5975082.242885632 ; 2.0092793110588732E8 ; 6.175708287012204E8 ; 2.025003935047045E10 ; 0.0
110 ; 5969541.71903066 ; 2.009332321797357E8 ; 6.23545910944106E8 ; 2.045096728157634E10 ; 0.0
111 ; 5964676.989080037 ; 2.009385277192595E8 ; 6.295154526631366E8 ; 2.0651900513756077E10 ; 0.0
112 ; 5955882.324507506 ; 2.0094381746271792E8 ; 6.354801296522167E8 ; 2.0852839041475338E10 ; 0.0
113 ; 5948808.182725075 ; 2.0094910115389934E8 ; 6.414360119767241E8 ; 2.1053782858938057E10 ; 0.0
114 ; 5943674.706758202 ; 2.0095437854190466E8 ; 6.473848201594492E8 ; 2.1254731960091957E10 ; 0.0
115 ; 5936697.513783996 ; 2.0095964938094103E8 ; 6.533284948662075E8 ; 2.145568633863386E10 ; 0.0
116 ; 5925365.844637838 ; 2.0096491343012556E8 ; 6.592651923799915E8 ; 2.16566459880148E10 ; 0.0
117 ; 5920172.063449661 ; 2.009701704532982E8 ; 6.651905582246294E8 ; 2.1857610901444927E10 ; 0.0
118 ; 5916967.385661041 ; 2.0097542021884346E8 ; 6.71110730288079E8 ; 2.2058581071898224E10 ; 0.0
119 ; 5904434.557378816 ; 2.009806624995206E8 ; 6.7702769767374E8 ; 2.2259556492117065E10 ; 0.0
120 ; 5898163.978749268 ; 2.009858970723015E8 ; 6.829321322311188E8 ; 2.2460537154616585E10 ; 0.0
121 ; 5893075.6212055795 ; 2.0099112371821645E8 ; 6.888302962098681E8 ; 2.2661523051688885E10 ; 0.0
122 ; 5880196.4364725305 ; 2.009963422222066E8 ; 6.947233718310736E8 ; 2.28625141754071E10 ; 0.0
123 ; 5875543.021039865 ; 2.0100155237298352E8 ; 7.006035682675462E8 ; 2.3063510517629307E10 ; 0.0
124 ; 5866284.263157651 ; 2.0100675396289504E8 ; 7.06479111288586E8 ; 2.326451207000229E10 ; 0.0
125 ; 5857741.964009729 ; 2.0101194678779718E8 ; 7.123453955517436E8 ; 2.3465518823965183E10 ; 0.0
126 ; 5854933.290087992 ; 2.010171306469319E8 ; 7.182031375157534E8 ; 2.366653077075298E10 ; 0.0
127 ; 5845632.138532833 ; 2.0102230534281027E8 ; 7.240580708058413E8 ; 2.386754790139991E10 ; 0.0
128 ; 5835324.178969945 ; 2.0102747068110105E8 ; 7.299037029443742E8 ; 2.406857020674272E10 ; 0.0
129 ; 5824150.6272522295 ; 2.0103262647052398E8 ; 7.357390271233442E8 ; 2.4269597677423824E10 ; 0.0
130 ; 5811945.926393694 ; 2.0103777252274793E8 ; 7.415631777505964E8 ; 2.447063030389435E10 ; 0.0
131 ; 5797833.695925024 ; 2.0104290865229353E8 ; 7.473751236769902E8 ; 2.4671668076417095E10 ; 0.0
132 ; 5785646.233894882 ; 2.0104803467644E8 ; 7.531729573729151E8 ; 2.487271098506939E10 ; 0.0
133 ; 5765172.980798001 ; 2.0105315041513616E8 ; 7.5895860360681E8 ; 2.507375901974583E10 ; 0.0
134 ; 5754830.385968952 ; 2.0105825569091505E8 ; 7.64723776587608E8 ; 2.5274812170160965E10 ; 0.0
135 ; 5738697.757686267 ; 2.0106335032881263E8 ; 7.704786069735769E8 ; 2.547587042585188E10 ; 0.0
136 ; 5722011.766481059 ; 2.010684341562895E8 ; 7.762173047312632E8 ; 2.567693377618069E10 ; 0.0
137 ; 5713585.8870720435 ; 2.010735070031563E8 ; 7.819393164977442E8 ; 2.587800221033698E10 ; 0.0
138 ; 5697564.1996763805 ; 2.010785687015023E8 ; 7.876529023848163E8 ; 2.6079075717340134E10 ; 0.0
139 ; 5681734.126590465 ; 2.010836190856266E8 ; 7.933504665844927E8 ; 2.6280154286041637E10 ; 0.0
140 ; 5661949.220948094 ; 2.010886579919727E8 ; 7.990322007110832E8 ; 2.6481237905127266E10 ; 0.0
141 ; 5644608.7680935385 ; 2.010936852590657E8 ; 8.046941499320313E8 ; 2.668232656311924E10 ; 0.0
142 ; 5632797.194634456 ; 2.0109870072745165E8 ; 8.103387587001249E8 ; 2.6883420248378307E10 ; 0.0
143 ; 5614736.8491960885 ; 2.0110370423964033E8 ; 8.159715558947593E8 ; 2.708451894910576E10 ; 0.0
144 ; 5595501.859679321 ; 2.0110869564004943E8 ; 8.215862927439554E8 ; 2.7285622653345398E10 ; 0.0
145 ; 5591636.469622702 ; 2.0111367477495167E8 ; 8.271817946036347E8 ; 2.7486731348985447E10 ; 0.0
146 ; 5581114.838802147 ; 2.0111864149242374E8 ; 8.327734310732574E8 ; 2.76878450237604E10 ; 0.0
147 ; 5571322.1927786665 ; 2.0112359564229766E8 ; 8.383545459120595E8 ; 2.7888963665252823E10 ; 0.0
148 ; 5561528.862449179 ; 2.011285370761136E8 ; 8.439258681048383E8 ; 2.809008726089512E10 ; 0.0
149 ; 5549775.554788762 ; 2.0113346564707518E8 ; 8.494873969672874E8 ; 2.8291215797971233E10 ; 0.0
150 ; 5541139.139984384 ; 2.011383812100061E8 ; 8.550371725220761E8 ; 2.849234926361831E10 ; 0.0
151 ; 5535711.817173408 ; 2.0114328362130877E8 ; 8.605783116620605E8 ; 2.8693487644828316E10 ; 0.0
152 ; 5526014.845194411 ; 2.011481727389246E8 ; 8.661140234792339E8 ; 2.8894630928449623E10 ; 0.0
153 ; 5511759.319548315 ; 2.011530484222956E8 ; 8.716400383244283E8 ; 2.909577910118855E10 ; 0.0
154 ; 5504850.561586352 ; 2.0115791053232783E8 ; 8.771517976439767E8 ; 2.9296932149610844E10 ; 0.0
155 ; 5496076.848632611 ; 2.0116275893135607E8 ; 8.826566482055631E8 ; 2.9498090060143173E10 ; 0.0
156 ; 5488707.570772062 ; 2.0116759348310995E8 ; 8.881527250541956E8 ; 2.9699252819074528E10 ; 0.0
157 ; 5477227.155654452 ; 2.0117241405268142E8 ; 8.936414326249677E8 ; 2.9900420412557636E10 ; 0.0
158 ; 5471203.812729082 ; 2.0117722050649348E8 ; 8.991186597806221E8 ; 3.0101592826610317E10 ; 0.0
159 ; 5460242.949312437 ; 2.0118201271227002E8 ; 9.045898635933512E8 ; 3.030277004711681E10 ; 0.0
160 ; 5452406.468315145 ; 2.0118679053900704E8 ; 9.100501065426637E8 ; 3.050395205982908E10 ; 0.0
161 ; 5438720.9945973875 ; 2.011915538569447E8 ; 9.155025130109788E8 ; 3.0705138850368084E10 ; 0.0
162 ; 5431253.911271645 ; 2.0119630253754076E8 ; 9.209412340055763E8 ; 3.090633040422503E10 ; 0.0
163 ; 5421291.134696741 ; 2.012010364534447E8 ; 9.26372487916848E8 ; 3.110752670676257E10 ; 0.0
164 ; 5411623.512709997 ; 2.0120575547847307E8 ; 9.317937790515447E8 ; 3.1308727743216015E10 ; 0.0
165 ; 5404635.578638742 ; 2.0121045948758578E8 ; 9.372054025642546E8 ; 3.150993349869449E10 ; 0.0
166 ; 5394042.3938158285 ; 2.0121514835686302E8 ; 9.426100381428934E8 ; 3.1711143958182076E10 ; 0.0
167 ; 5380386.928479976 ; 2.0121982196348342E8 ; 9.480040805367093E8 ; 3.191235910653894E10 ; 0.0
168 ; 5374943.620991514 ; 2.012244801857027E8 ; 9.533844674651893E8 ; 3.2113578928502422E10 ; 0.0
169 ; 5362073.497937774 ; 2.012291229028334E8 ; 9.587594110861808E8 ; 3.2314803408688126E10 ; 0.0
170 ; 5356383.631346712 ; 2.012337499952251E8 ; 9.641214845841186E8 ; 3.2516032531590958E10 ; 0.0
171 ; 5342034.192475317 ; 2.0123836134424564E8 ; 9.694778682154653E8 ; 3.271726628158618E10 ; 0.0
172 ; 5335954.4151141 ; 2.0124295683226284E8 ; 9.748199024079406E8 ; 3.2918504642930428E10 ; 0.0
173 ; 5321650.04281772 ; 2.0124753634262696E8 ; 9.801558568230547E8 ; 3.311974759976269E10 ; 0.0
174 ; 5318473.294846632 ; 2.0125209975965387E8 ; 9.854775068658724E8 ; 3.332099513610532E10 ; 0.0
175 ; 5307539.540641664 ; 2.0125664696860874E8 ; 9.90795980160719E8 ; 3.3522247235864975E10 ; 0.0
176 ; 5302958.254510661 ; 2.0126117785569045E8 ; 9.961035197013607E8 ; 3.3723503882833584E10 ; 0.0
177 ; 5295995.193839124 ; 2.0126569230801636E8 ; 1.0014064779558713E9 ; 3.3924765060689274E10 ; 0.0
178 ; 5290343.431389933 ; 2.0127019021360797E8 ; 1.0067024731497104E9 ; 3.412603075299729E10 ; 0.0
179 ; 5283332.855271105 ; 2.0127467146137676E8 ; 1.0119928165811003E9 ; 3.43273009432109E10 ; 0.0
180 ; 5276278.793621592 ; 2.0127913594111073E8 ; 1.0172761494363714E9 ; 3.452857561467228E10 ; 0.0
181 ; 5268218.595145557 ; 2.0128358354346153E8 ; 1.022552428229993E9 ; 3.472985475061339E10 ; 0.0
182 ; 5262486.134123619 ; 2.012880141599317E8 ; 1.0278206468251386E9 ; 3.493113833415685E10 ; 0.0
183 ; 5253965.021964414 ; 2.012924276828628E8 ; 1.0330831329592621E9 ; 3.513242634831679E10 ; 0.0
184 ; 5245919.59184201 ; 2.012968240054237E8 ; 1.0383370979812266E9 ; 3.533371877599965E10 ; 0.0
185 ; 5239135.645945494 ; 2.0130120302159926E8 ; 1.0435830175730686E9 ; 3.553501560000507E10 ; 0.0
186 ; 5232477.128808398 ; 2.013055646261798E8 ; 1.0488221532190142E9 ; 3.573631680302667E10 ; 0.0
187 ; 5222707.433593962 ; 2.0130990871475035E8 ; 1.0540546303478225E9 ; 3.5937622367652855E10 ; 0.0
188 ; 5214714.337649308 ; 2.013142351836808E8 ; 1.0592773377814165E9 ; 3.613893227636761E10 ; 0.0
189 ; 5211446.431746569 ; 2.0131854393011618E8 ; 1.0644920521190659E9 ; 3.6340246511551285E10 ; 0.0
190 ; 5202898.4546092395 ; 2.013228348519673E8 ; 1.0697034985508125E9 ; 3.65415650554814E10 ; 0.0
191 ; 5196259.514455722 ; 2.0132710784790176E8 ; 1.0749063970054216E9 ; 3.674288789033337E10 ; 0.0
192 ; 5190706.915801516 ; 2.0133136281733534E8 ; 1.0801026565198774E9 ; 3.694421499818127E10 ; 0.0
193 ; 5179153.7076052055 ; 2.013355996604235E8 ; 1.085293363435679E9 ; 3.7145546360998604E10 ; 0.0
194 ; 5173455.274672366 ; 2.013398182780533E8 ; 1.090472517143284E9 ; 3.734688196065903E10 ; 0.0
195 ; 5170727.3020173535 ; 2.0134401857183596E8 ; 1.0956459724179564E9 ; 3.754822177893708E10 ; 0.0
196 ; 5163329.283101449 ; 2.0134820044409883E8 ; 1.1008166997199738E9 ; 3.774956579750892E10 ; 0.0
197 ; 5154349.744711484 ; 2.013523637978786E8 ; 1.1059800290030754E9 ; 3.795091399795302E10 ; 0.0
198 ; 5143741.639397257 ; 2.013565085369141E8 ; 1.1111343787477868E9 ; 3.81522663617509E10 ; 0.0
199 ; 5140060.650518432 ; 2.0136063456563964E8 ; 1.116278120387184E9 ; 3.835362287028781E10 ; 0.0
200 ; 5128942.46536375 ; 2.0136474178917852E8 ; 1.1214181810377023E9 ; 3.8554983504853455E10 ; 0.0
201 ; 5124954.772910878 ; 1.9842183754122218E8 ; 1.126547123503066E9 ; 3.875634824664263E10 ; 0.0
