CSV File for the City 1 on Day 199
1 - Minute m 
2 - Power Consumed at minute m 
3 - Power Produced at minute m 
4 - Energy Consumed since the beginning of the day 
5 - Energy Produced since the beginning of the day 
6 - Energy Lost since the beginning of the day on lines starting from the city
 
0 ; 1531651.6532214284 ; 1.0540595657394376E8 ; 0.0 ; 0.0 ; 0.0
1 ; 1552279.2860326173 ; 1.0555870101061618E8 ; 1531651.6532214284 ; 1.0540595657394376E8 ; 0.0
2 ; 1566658.0076081848 ; 1.0602024433044723E8 ; 3083930.9392540455 ; 2.1096465758455995E8 ; 0.0
3 ; 1589122.359692421 ; 1.067905894227103E8 ; 4650588.94686223 ; 3.169849019150072E8 ; 0.0
4 ; 1611683.6891776593 ; 1.0786973890832138E8 ; 6239711.306554651 ; 4.237754913377175E8 ; 0.0
5 ; 1647415.8905339497 ; 1.0925769511503601E8 ; 7851394.99573231 ; 5.3164523024603885E8 ; 0.0
6 ; 1686091.878261431 ; 1.1095446005465743E8 ; 9498810.88626626 ; 6.409029253610749E8 ; 0.0
7 ; 1740139.7775065107 ; 1.129600354027549E8 ; 1.118490276452769E7 ; 7.518573854157324E8 ; 0.0
8 ; 1822798.9945247767 ; 1.1527442248135495E8 ; 1.2925042542034201E7 ; 8.648174208184873E8 ; 0.0
9 ; 1938609.0889187942 ; 1.1789762224501681E8 ; 1.4747841536558978E7 ; 9.800918432998422E8 ; 0.0
10 ; 2120463.226884375 ; 1.208296352706303E8 ; 1.6686450625477772E7 ; 1.097989465544859E9 ; 0.0
11 ; 2410234.594725133 ; 1.2407046175118968E8 ; 1.880691385236215E7 ; 1.2188191008154893E9 ; 0.0
12 ; 2876654.7026933003 ; 1.2762010149370065E8 ; 2.121714844708728E7 ; 1.342889562566679E9 ; 0.0
13 ; 3325319.468950658 ; 1.3147855392127341E8 ; 2.409380314978058E7 ; 1.4705096640603797E9 ; 0.0
14 ; 3378268.457472087 ; 1.356458180793488E8 ; 2.7419122618731238E7 ; 1.6019882179816532E9 ; 0.0
15 ; 3405013.53309568 ; 1.401218926459002E8 ; 3.0797391076203324E7 ; 1.737634036061002E9 ; 0.0
16 ; 3426330.030708656 ; 1.4490677594535843E8 ; 3.4202404609299004E7 ; 1.8777559287069023E9 ; 0.0
17 ; 3447745.3963949196 ; 1.5000046596592018E8 ; 3.762873464000766E7 ; 2.0226627046522608E9 ; 0.0
18 ; 3476322.679949216 ; 1.5540296037982994E8 ; 4.107648003640258E7 ; 2.1726631706181808E9 ; 0.0
19 ; 3490063.3671351937 ; 1.6111425656617174E8 ; 4.45528027163518E7 ; 2.3280661309980106E9 ; 0.0
20 ; 3518223.2935429662 ; 1.6713435163567212E8 ; 4.8042866083487E7 ; 2.4891803875641823E9 ; 0.0
21 ; 3537048.896279923 ; 1.7346324245699725E8 ; 5.156108937702996E7 ; 2.6563147391998544E9 ; 0.0
22 ; 3564085.167143475 ; 1.8010092568402988E8 ; 5.509813827330989E7 ; 2.829777981656852E9 ; 0.0
23 ; 3586197.254174662 ; 1.8704739778362787E8 ; 5.866222344045336E7 ; 3.009878907340882E9 ; 0.0
24 ; 3612380.487050742 ; 1.943026550633971E8 ; 6.224842069462802E7 ; 3.19692630512451E9 ; 0.0
25 ; 3633049.6768166614 ; 2.005547345972388E8 ; 6.5860801181678765E7 ; 3.3912289601879067E9 ; 0.0
26 ; 3660580.11397065 ; 2.0055718028882414E8 ; 6.949385085849543E7 ; 3.5917836947851458E9 ; 0.0
27 ; 3680895.0843188367 ; 2.0055975742197374E8 ; 7.315443097246608E7 ; 3.79234087507397E9 ; 0.0
28 ; 3704236.5249422966 ; 2.005624619315429E8 ; 7.683532605678491E7 ; 3.9929006324959435E9 ; 0.0
29 ; 3729138.904423561 ; 2.005652897192134E8 ; 8.05395625817272E7 ; 4.1934630944274864E9 ; 0.0
30 ; 3748605.294993746 ; 2.0056823667432696E8 ; 8.426870148615077E7 ; 4.3940283841467E9 ; 0.0
31 ; 3768352.786063578 ; 2.0057129869291088E8 ; 8.801730678114451E7 ; 4.594596620821027E9 ; 0.0
32 ; 3793316.9627813622 ; 2.0057447169484755E8 ; 9.17856595672081E7 ; 4.795167919513938E9 ; 0.0
33 ; 3809062.179518841 ; 2.0057775163918152E8 ; 9.557897652998945E7 ; 4.995742391208785E9 ; 0.0
34 ; 3834777.0691284174 ; 2.0058113453759214E8 ; 9.93880387095083E7 ; 5.196320142847966E9 ; 0.0
35 ; 3852541.5318480623 ; 2.005846164660893E8 ; 1.0322281577863672E8 ; 5.396901277385558E9 ; 0.0
36 ; 3873660.5843767975 ; 2.00588193575012E8 ; 1.0707535731048478E8 ; 5.597485893851647E9 ; 0.0
37 ; 3895296.366134989 ; 2.0059186209742734E8 ; 1.1094901789486158E8 ; 5.79807408742666E9 ; 0.0
38 ; 3910506.541872969 ; 2.00595618356039E8 ; 1.1484431426099657E8 ; 5.998665949524087E9 ; 0.0
39 ; 3928704.810080192 ; 2.0059945876872253E8 ; 1.1875482080286953E8 ; 6.199261567880126E9 ; 0.0
40 ; 3944749.1369298357 ; 2.0060337985280818E8 ; 1.2268352561294971E8 ; 6.399861026648849E9 ; 0.0
41 ; 3969159.320906696 ; 2.0060737822823262E8 ; 1.2662827474987955E8 ; 6.600464406501657E9 ; 0.0
42 ; 3981610.676618384 ; 2.0061145061967918E8 ; 1.3059743407078625E8 ; 6.801071784729889E9 ; 0.0
43 ; 3998957.831734139 ; 2.0061559385782185E8 ; 1.3457904474740463E8 ; 7.001683235349568E9 ; 0.0
44 ; 4008410.88843774 ; 2.0061980487978312E8 ; 1.385780025791388E8 ; 7.20229882920739E9 ; 0.0
45 ; 4021616.3292450216 ; 2.0062408072890863E8 ; 1.4258641346757653E8 ; 7.4029186340871725E9 ; 0.0
46 ; 4038361.2411778094 ; 2.0062841855395487E8 ; 1.4660802979682156E8 ; 7.603542714816081E9 ; 0.0
47 ; 4052061.806410726 ; 2.00632815607778E8 ; 1.5064639103799936E8 ; 7.804171133370036E9 ; 0.0
48 ; 4061722.039123697 ; 2.0063726924560422E8 ; 1.546984528444101E8 ; 8.004803948977814E9 ; 0.0
49 ; 4071686.51096605 ; 2.006417769229542E8 ; 1.5876017488353378E8 ; 8.205441218223418E9 ; 0.0
50 ; 4081808.317634549 ; 2.0064633619328687E8 ; 1.6283186139449984E8 ; 8.406082995146373E9 ; 0.0
51 ; 4091023.8804211775 ; 2.0065094470542035E8 ; 1.669136697121344E8 ; 8.606729331339659E9 ; 0.0
52 ; 4103628.0532458844 ; 2.0065560020078105E8 ; 1.7100469359255558E8 ; 8.807380276045078E9 ; 0.0
53 ; 4108531.134785239 ; 2.006603005105257E8 ; 1.7510832164580145E8 ; 9.00803587624586E9 ; 0.0
54 ; 4123473.169999561 ; 2.0066504355257544E8 ; 1.792168527805867E8 ; 9.208696176756386E9 ; 0.0
55 ; 4126166.315410822 ; 2.006698273285953E8 ; 1.8334032595058626E8 ; 9.409361220308962E9 ; 0.0
56 ; 4138713.5834464356 ; 2.0067464992094824E8 ; 1.8746649226599708E8 ; 9.610031047637558E9 ; 0.0
57 ; 4145568.4005979425 ; 2.0067950948964763E8 ; 1.9160520584944353E8 ; 9.810705697558506E9 ; 0.0
58 ; 4157058.864853218 ; 2.0068440426932937E8 ; 1.9575077425004146E8 ; 1.0011385207048153E10 ; 0.0
59 ; 4159863.02619951 ; 2.006893325662604E8 ; 1.999078331148947E8 ; 1.0212069611317482E10 ; 0.0
60 ; 4165766.9604223776 ; 2.0069429275539768E8 ; 2.040676961410942E8 ; 1.0412758943883743E10 ; 0.0
61 ; 4179682.939606963 ; 2.006992832775091E8 ; 2.0823346310151657E8 ; 1.0613453236639141E10 ; 0.0
62 ; 4187453.1071501523 ; 2.0070430263636565E8 ; 2.1241314604112354E8 ; 1.081415251991665E10 ; 0.0
63 ; 4192875.021143177 ; 2.0070934939601144E8 ; 2.166005991482737E8 ; 1.1014856822553017E10 ; 0.0
64 ; 4204007.185411703 ; 2.0071442217811728E8 ; 2.2079347416941687E8 ; 1.1215566171949028E10 ; 0.0
65 ; 4208782.563328977 ; 2.0071951965942127E8 ; 2.2499748135482857E8 ; 1.1416280594127146E10 ; 0.0
66 ; 4217284.12256973 ; 2.007246405692595E8 ; 2.2920626391815755E8 ; 1.1617000113786568E10 ; 0.0
67 ; 4225545.573028171 ; 2.0072978368718764E8 ; 2.334235480407273E8 ; 1.1817724754355827E10 ; 0.0
68 ; 4236977.386481494 ; 2.0073494784069434E8 ; 2.3764909361375546E8 ; 1.2018454538043015E10 ; 0.0
69 ; 4236668.392729496 ; 2.0074013190300643E8 ; 2.4188607100023696E8 ; 1.2219189485883709E10 ; 0.0
70 ; 4241773.04674772 ; 2.0074533479098445E8 ; 2.4612273939296645E8 ; 1.2419929617786715E10 ; 0.0
71 ; 4253167.199036219 ; 2.0075055546310782E8 ; 2.5036451243971416E8 ; 1.26206749525777E10 ; 0.0
72 ; 4263088.221260648 ; 2.0075579291754752E8 ; 2.5461767963875037E8 ; 1.2821425508040808E10 ; 0.0
73 ; 4266935.276969562 ; 2.0076104619032416E8 ; 2.58880767860011E8 ; 1.3022181300958355E10 ; 0.0
74 ; 4273769.091552608 ; 2.0076631435354936E8 ; 2.6314770313698056E8 ; 1.322294234714868E10 ; 0.0
75 ; 4280588.066833751 ; 2.007715965137477E8 ; 2.6742147222853318E8 ; 1.342370866150223E10 ; 0.0
76 ; 4288584.602127192 ; 2.0077689181025648E8 ; 2.7170206029536694E8 ; 1.3624480258015978E10 ; 0.0
77 ; 4290013.08088095 ; 2.0078219941370088E8 ; 2.7599064489749414E8 ; 1.3825257149826235E10 ; 0.0
78 ; 4296576.312845589 ; 2.007875185245412E8 ; 2.802806579783751E8 ; 1.4026039349239935E10 ; 0.0
79 ; 4294139.134160307 ; 2.007928483716898E8 ; 2.8457723429122066E8 ; 1.4226826867764477E10 ; 0.0
80 ; 4297291.837738127 ; 2.007981882111945E8 ; 2.8887137342538095E8 ; 1.4427619716136166E10 ; 0.0
81 ; 4302077.926055058 ; 2.0080353732498598E8 ; 2.931686652631191E8 ; 1.462841790434736E10 ; 0.0
82 ; 4296504.759489548 ; 2.00808895019686E8 ; 2.974707431891742E8 ; 1.4829221441672346E10 ; 0.0
83 ; 4298243.351031529 ; 2.0081426062547413E8 ; 3.017672479486637E8 ; 1.5030030336692032E10 ; 0.0
84 ; 4293140.69334366 ; 2.0081963349500987E8 ; 3.0606549129969525E8 ; 1.5230844597317507E10 ; 0.0
85 ; 4297114.064080508 ; 2.0082501300240803E8 ; 3.103586319930389E8 ; 1.5431664230812517E10 ; 0.0
86 ; 4293633.891106363 ; 2.0083039854226455E8 ; 3.146557460571194E8 ; 1.5632489243814926E10 ; 0.0
87 ; 4294547.687644026 ; 2.0083578952873042E8 ; 3.189493799482258E8 ; 1.5833319642357191E10 ; 0.0
88 ; 4293615.936209567 ; 2.008411853946313E8 ; 3.232439276358698E8 ; 1.6034155431885921E10 ; 0.0
89 ; 4293592.577396562 ; 2.0084658559063083E8 ; 3.2753754357207936E8 ; 1.6234996617280552E10 ; 0.0
90 ; 4294974.423555855 ; 2.008519895844352E8 ; 3.3183113614947593E8 ; 1.6435843202871183E10 ; 0.0
91 ; 4289674.588075246 ; 2.00857396860037E8 ; 3.361261105730318E8 ; 1.6636695192455618E10 ; 0.0
92 ; 4293870.652424577 ; 2.008628069169965E8 ; 3.40415785161107E8 ; 1.6837552589315655E10 ; 0.0
93 ; 4293620.51454882 ; 2.0086821926975825E8 ; 3.447096558135316E8 ; 1.703841539623265E10 ; 0.0
94 ; 4289118.180812206 ; 2.0087363344700134E8 ; 3.490032763280804E8 ; 1.723928361550241E10 ; 0.0
95 ; 4289461.690671301 ; 2.0087904899102175E8 ; 3.532923945088926E8 ; 1.7440157248949413E10 ; 0.0
96 ; 4285079.996739828 ; 2.0088446545714483E8 ; 3.575818561995639E8 ; 1.7641036297940434E10 ; 0.0
97 ; 4284314.390465841 ; 2.0088988241316652E8 ; 3.618669361963037E8 ; 1.784192076339758E10 ; 0.0
98 ; 4284189.113177665 ; 2.008952994388219E8 ; 3.661512505867696E8 ; 1.8042810645810745E10 ; 0.0
99 ; 4283541.311311922 ; 2.0090071612527966E8 ; 3.7043543969994724E8 ; 1.824370594524957E10 ; 0.0
100 ; 4276203.073977259 ; 2.0090613207466093E8 ; 3.7471898101125914E8 ; 1.8444606661374847E10 ; 0.0
101 ; 4281739.208804435 ; 2.0091154689958155E8 ; 3.789951840852364E8 ; 1.864551279344951E10 ; 0.0
102 ; 4274098.378742422 ; 2.0091696022271633E8 ; 3.832769232940408E8 ; 1.884642434034909E10 ; 0.0
103 ; 4276838.236867132 ; 2.0092237167638424E8 ; 3.875510216727832E8 ; 1.9047341300571808E10 ; 0.0
104 ; 4271142.334752523 ; 2.0092778090215352E8 ; 3.918278599096503E8 ; 1.924826367224819E10 ; 0.0
105 ; 4267936.300302527 ; 2.0093318755046555E8 ; 3.960990022444028E8 ; 1.9449191453150345E10 ; 0.0
106 ; 4264199.703158072 ; 2.009385912802766E8 ; 4.0036693854470533E8 ; 1.965012464070081E10 ; 0.0
107 ; 4266523.699008278 ; 2.009439917587166E8 ; 4.046311382478634E8 ; 1.9851063231981087E10 ; 0.0
108 ; 4261765.500398457 ; 2.0094938866076404E8 ; 4.088976619468717E8 ; 2.0052007223739803E10 ; 0.0
109 ; 4257746.022321073 ; 2.0095478166893584E8 ; 4.1315942744727015E8 ; 2.0252956612400566E10 ; 0.0
110 ; 4252400.997187559 ; 2.0096017047299212E8 ; 4.174171734695912E8 ; 2.0453911394069504E10 ; 0.0
111 ; 4247190.978921568 ; 2.0096555476965445E8 ; 4.2166957446677876E8 ; 2.0654871564542496E10 ; 0.0
112 ; 4248010.752269986 ; 2.0097093426233733E8 ; 4.2591676544570035E8 ; 2.085583711931215E10 ; 0.0
113 ; 4239872.03093983 ; 2.0097630866089177E8 ; 4.3016477619797033E8 ; 2.1056808053574486E10 ; 0.0
114 ; 4240065.13129405 ; 2.0098167768136105E8 ; 4.3440464822891015E8 ; 2.125778436223538E10 ; 0.0
115 ; 4240122.087171648 ; 2.0098704104574737E8 ; 4.386447133602042E8 ; 2.145876603991674E10 ; 0.0
116 ; 4233646.28460907 ; 2.0099239848178923E8 ; 4.428848354473759E8 ; 2.1659753080962486E10 ; 0.0
117 ; 4231648.397459285 ; 2.0099774972274882E8 ; 4.47118481731985E8 ; 2.1860745479444275E10 ; 0.0
118 ; 4220073.838281691 ; 2.010030945072092E8 ; 4.5135013012944424E8 ; 2.2061743229167023E10 ; 0.0
119 ; 4220073.352172742 ; 2.010084325788803E8 ; 4.5557020396772593E8 ; 2.2262746323674232E10 ; 0.0
120 ; 4216675.357159671 ; 2.010137636864139E8 ; 4.5979027731989866E8 ; 2.2463754756253113E10 ; 0.0
121 ; 4209653.322919853 ; 2.0101908758322656E8 ; 4.6400695267705834E8 ; 2.2664768519939526E10 ; 0.0
122 ; 4207649.951911628 ; 2.010244040273306E8 ; 4.682166059999782E8 ; 2.286578760752275E10 ; 0.0
123 ; 4199263.557750349 ; 2.0102971278117242E8 ; 4.724242559518898E8 ; 2.3066812011550083E10 ; 0.0
124 ; 4194843.660565574 ; 2.0103501361147803E8 ; 4.7662351950964016E8 ; 2.3267841724331257E10 ; 0.0
125 ; 4190823.576365568 ; 2.0104030628910512E8 ; 4.808183631702057E8 ; 2.3468876737942734E10 ; 0.0
126 ; 4184430.5700592226 ; 2.010455905889018E8 ; 4.850091867465713E8 ; 2.366991704423184E10 ; 0.0
127 ; 4178384.476347916 ; 2.0105086628957126E8 ; 4.8919361731663054E8 ; 2.387096263482074E10 ; 0.0
128 ; 4176401.1545312502 ; 2.010561331735424E8 ; 4.9337200179297847E8 ; 2.407201350111031E10 ; 0.0
129 ; 4168400.0750298793 ; 2.010613910268459E8 ; 4.975484029475097E8 ; 2.427306963428385E10 ; 0.0
130 ; 4164163.282613715 ; 2.0106663963899565E8 ; 5.0171680302253956E8 ; 2.4474131025310696E10 ; 0.0
131 ; 4150886.25828786 ; 2.010718788028751E8 ; 5.0588096630515325E8 ; 2.467519766494969E10 ; 0.0
132 ; 4140176.5314299427 ; 2.0107710831462863E8 ; 5.100318525634411E8 ; 2.4876269543752567E10 ; 0.0
133 ; 4127559.21199606 ; 2.010823279735572E8 ; 5.1417202909487104E8 ; 2.5077346652067196E10 ; 0.0
134 ; 4117381.2980992715 ; 2.010875375820187E8 ; 5.182995883068671E8 ; 2.5278428980040752E10 ; 0.0
135 ; 4106675.1578408363 ; 2.010927369453321E8 ; 5.224169696049664E8 ; 2.5479516517622772E10 ; 0.0
136 ; 4096574.114451361 ; 2.010979258716859E8 ; 5.2652364476280725E8 ; 2.5680609254568104E10 ; 0.0
137 ; 4081567.6401371653 ; 2.0110310417205003E8 ; 5.306202188772586E8 ; 2.588170718043979E10 ; 0.0
138 ; 4069007.162592233 ; 2.011082716600918E8 ; 5.3470178651739573E8 ; 2.608281028461184E10 ; 0.0
139 ; 4057350.5062080277 ; 2.0111342815209484E8 ; 5.38770793679988E8 ; 2.628391855627193E10 ; 0.0
140 ; 4043902.3065990903 ; 2.0111857346688163E8 ; 5.428281441861961E8 ; 2.6485031984424026E10 ; 0.0
141 ; 4030553.220993646 ; 2.011237074257391E8 ; 5.468720464927952E8 ; 2.6686150557890907E10 ; 0.0
142 ; 4017265.7779250434 ; 2.0112882985234717E8 ; 5.509025997137889E8 ; 2.6887274265316647E10 ; 0.0
143 ; 4002187.6698955516 ; 2.0113394057271025E8 ; 5.549198654917139E8 ; 2.7088403095168995E10 ; 0.0
144 ; 3993025.674307209 ; 2.0113903941509145E8 ; 5.589220531616094E8 ; 2.7289537035741707E10 ; 0.0
145 ; 3985469.832808268 ; 2.011441262099494E8 ; 5.629150788359166E8 ; 2.74906760751568E10 ; 0.0
146 ; 3979161.8698688713 ; 2.0114920078987756E8 ; 5.669005486687249E8 ; 2.769182020136675E10 ; 0.0
147 ; 3978246.6020534383 ; 2.0115426298954597E8 ; 5.708797105385938E8 ; 2.7892969402156628E10 ; 0.0
148 ; 3971184.482018122 ; 2.0115931264564526E8 ; 5.748579571406472E8 ; 2.8094123665146175E10 ; 0.0
149 ; 3966385.7266612365 ; 2.0116434959683296E8 ; 5.788291416226653E8 ; 2.829528297779182E10 ; 0.0
150 ; 3959390.662548911 ; 2.011693736836816E8 ; 5.827955273493265E8 ; 2.8496447327388653E10 ; 0.0
151 ; 3952435.639216075 ; 2.011743847486293E8 ; 5.867549180118754E8 ; 2.8697616701072334E10 ; 0.0
152 ; 3950283.327205153 ; 2.011793826359318E8 ; 5.907073536510915E8 ; 2.8898791085820965E10 ; 0.0
153 ; 3941780.5243131947 ; 2.0118436719161662E8 ; 5.946576369782966E8 ; 2.9099970468456898E10 ; 0.0
154 ; 3937169.7185067493 ; 2.0118933826343897E8 ; 5.985994175026098E8 ; 2.9301154835648514E10 ; 0.0
155 ; 3931637.9301957143 ; 2.0119429570083913E8 ; 6.025365872211165E8 ; 2.9502344173911953E10 ; 0.0
156 ; 3922785.0175281353 ; 2.0119923935490185E8 ; 6.064682251513122E8 ; 2.9703538469612793E10 ; 0.0
157 ; 3918329.0407692026 ; 2.0120416907831675E8 ; 6.103910101688404E8 ; 2.9904737708967693E10 ; 0.0
158 ; 3914692.0401602997 ; 2.0120908472534072E8 ; 6.143093392096096E8 ; 3.010594187804601E10 ; 0.0
159 ; 3905376.0204578745 ; 2.012139861517615E8 ; 6.182240312497699E8 ; 3.030715096277135E10 ; 0.0
160 ; 3901275.419853866 ; 2.012188732148626E8 ; 6.221294072702278E8 ; 3.050836494892311E10 ; 0.0
161 ; 3894105.968555224 ; 2.0122374577338964E8 ; 6.260306826900816E8 ; 3.0709583822137974E10 ; 0.0
162 ; 3887091.8248480647 ; 2.012286036875178E8 ; 6.299247886586368E8 ; 3.091080756791136E10 ; 0.0
163 ; 3884469.523726618 ; 2.0123344681882071E8 ; 6.338118804834849E8 ; 3.111203617159888E10 ; 0.0
164 ; 3878755.7045475147 ; 2.0123827503024027E8 ; 6.376963500072114E8 ; 3.13132696184177E10 ; 0.0
165 ; 3870631.225011757 ; 2.012430881860576E8 ; 6.41575105711759E8 ; 3.151450789344794E10 ; 0.0
166 ; 3862810.4903491125 ; 2.0124788615186527E8 ; 6.454457369367707E8 ; 3.1715750981634E10 ; 0.0
167 ; 3858285.4017413678 ; 2.012526687945403E8 ; 6.493085474271197E8 ; 3.1916998867785866E10 ; 0.0
168 ; 3850488.7559199184 ; 2.0125743598221818E8 ; 6.531668328288611E8 ; 3.2118251536580406E10 ; 0.0
169 ; 3843926.7057715915 ; 2.012621875842681E8 ; 6.57017321584781E8 ; 3.2319508972562626E10 ; 0.0
170 ; 3837484.4202139643 ; 2.0126692347126868E8 ; 6.608612482905526E8 ; 3.2520771160146893E10 ; 0.0
171 ; 3833108.865690912 ; 2.0127164351498485E8 ; 6.646987327107666E8 ; 3.272203808361816E10 ; 0.0
172 ; 3825290.966221365 ; 2.012763475883455E8 ; 6.685318415764575E8 ; 3.2923309727133144E10 ; 0.0
173 ; 3821883.8559651887 ; 2.012810355654219E8 ; 6.723571325426788E8 ; 3.312458607472149E10 ; 0.0
174 ; 3812150.4950247314 ; 2.0128570732140696E8 ; 6.76179016398644E8 ; 3.332586711028691E10 ; 0.0
175 ; 3812417.2185839037 ; 2.012903627325951E8 ; 6.799911668936687E8 ; 3.352715281760832E10 ; 0.0
176 ; 3809540.8336497135 ; 2.0129500167636296E8 ; 6.838035841122526E8 ; 3.372844318034091E10 ; 0.0
177 ; 3802608.083333888 ; 2.0129962403115088E8 ; 6.876131249459023E8 ; 3.3929738182017273E10 ; 0.0
178 ; 3802124.335693677 ; 2.0130422967644468E8 ; 6.914157330292362E8 ; 3.4131037806048424E10 ; 0.0
179 ; 3794594.524483312 ; 2.0130881849275857E8 ; 6.952178573649299E8 ; 3.433234203572487E10 ; 0.0
180 ; 3792881.0420476976 ; 2.0131339036161822E8 ; 6.990124518894132E8 ; 3.453365085421763E10 ; 0.0
181 ; 3783040.431896355 ; 2.0131794516554475E8 ; 7.02805332931461E8 ; 3.473496424457925E10 ; 0.0
182 ; 3782457.5529106315 ; 2.013224827880391E8 ; 7.065883733633573E8 ; 3.493628218974479E10 ; 0.0
183 ; 3781709.1685658214 ; 2.0132700311356696E8 ; 7.10370830916268E8 ; 3.513760467253283E10 ; 0.0
184 ; 3775094.0125762895 ; 2.0133150602754447E8 ; 7.141525400848339E8 ; 3.533893167564639E10 ; 0.0
185 ; 3768163.2646414414 ; 2.0133599141632387E8 ; 7.179276340974102E8 ; 3.5540263181673935E10 ; 0.0
186 ; 3762508.238214736 ; 2.0134045916718036E8 ; 7.216957973620516E8 ; 3.5741599173090256E10 ; 0.0
187 ; 3762974.0374434344 ; 2.0134490916829884E8 ; 7.254583056002663E8 ; 3.594293963225744E10 ; 0.0
188 ; 3758436.93003324 ; 2.0134934130876133E8 ; 7.292212796377097E8 ; 3.6144284541425735E10 ; 0.0
189 ; 3753003.6135985204 ; 2.01353755478535E8 ; 7.32979716567743E8 ; 3.63456338827345E10 ; 0.0
190 ; 3749877.028849568 ; 2.013581515684602E8 ; 7.367327201813414E8 ; 3.6546987638213036E10 ; 0.0
191 ; 3742255.848958145 ; 2.013625294702393E8 ; 7.40482597210191E8 ; 3.6748345789781494E10 ; 0.0
192 ; 3738654.7477757595 ; 2.0136688907642576E8 ; 7.442248530591491E8 ; 3.694970831925173E10 ; 0.0
193 ; 3735943.619755238 ; 2.0137123028041342E8 ; 7.479635078069249E8 ; 3.7151075208328156E10 ; 0.0
194 ; 3733140.3758859523 ; 2.013755529764265E8 ; 7.516994514266802E8 ; 3.735244643860857E10 ; 0.0
195 ; 3728269.774040913 ; 2.0137985705950963E8 ; 7.554325918025662E8 ; 3.755382199158499E10 ; 0.0
196 ; 3723319.9094538847 ; 2.0138414242551845E8 ; 7.591608615766071E8 ; 3.77552018486445E10 ; 0.0
197 ; 3719218.1112951883 ; 2.0138840897111025E8 ; 7.62884181486061E8 ; 3.795658599107002E10 ; 0.0
198 ; 3714465.8218682394 ; 2.0139265659373537E8 ; 7.666033995973562E8 ; 3.815797440004113E10 ; 0.0
199 ; 3710717.386908551 ; 2.013968851916284E8 ; 7.703178654192244E8 ; 3.8359367056634865E10 ; 0.0
200 ; 3708607.781459598 ; 2.014010946638E8 ; 7.740285828061329E8 ; 3.856076394182649E10 ; 0.0
