CSV File for the City 1 on Day 311
1 - Minute m 
2 - Power Consumed at minute m 
3 - Power Produced at minute m 
4 - Energy Consumed since the beginning of the day 
5 - Energy Produced since the beginning of the day 
6 - Energy Lost since the beginning of the day on lines starting from the city
 
0 ; 1.6236756035728669E7 ; 1.0579855413375106E8 ; 0.0 ; 0.0 ; 0.0
1 ; 1.6251398700378617E7 ; 1.0595140164733064E8 ; 1.6236756035728669E7 ; 1.0579855413375106E8 ; 0.0
2 ; 1.6275852091382729E7 ; 1.0641304303558245E8 ; 3.2488154736107286E7 ; 2.117499557810817E8 ; 0.0
3 ; 1.6293029108862448E7 ; 1.071834793504721E8 ; 4.876400682749002E7 ; 3.1816299881666416E8 ; 0.0
4 ; 1.6319373688023236E7 ; 1.0826271152936786E8 ; 6.505703593635246E7 ; 4.2534647816713625E8 ; 0.0
5 ; 1.6346842705863807E7 ; 1.0965074039169645E8 ; 8.13764096243757E7 ; 5.336091896965041E8 ; 0.0
6 ; 1.638525092546496E7 ; 1.1134756663598427E8 ; 9.77232523302395E7 ; 6.432599300882006E8 ; 0.0
7 ; 1.6446513318314055E7 ; 1.1335319083730912E8 ; 1.1410850325570446E8 ; 7.546074967241849E8 ; 0.0
8 ; 1.6523062992409347E7 ; 1.1566761344518399E8 ; 1.3055501657401852E8 ; 8.67960687561494E8 ; 0.0
9 ; 1.6640730318656871E7 ; 1.1829083478189212E8 ; 1.4707807956642786E8 ; 9.83628301006678E8 ; 0.0
10 ; 1.6826925086928893E7 ; 1.2122285504128629E8 ; 1.6371880988508472E8 ; 1.1019191357885702E9 ; 0.0
11 ; 1.71147719532094E7 ; 1.2446367428806499E8 ; 1.8054573497201362E8 ; 1.2231419908298564E9 ; 0.0
12 ; 1.757896273329619E7 ; 1.280132924575297E8 ; 1.9766050692522302E8 ; 1.3476056651179214E9 ; 0.0
13 ; 1.8028609721653506E7 ; 1.3187170935582763E8 ; 2.152394696585192E8 ; 1.4756189575754511E9 ; 0.0
14 ; 1.8076581474024706E7 ; 1.3603892466067564E8 ; 2.3326807938017273E8 ; 1.6074906669312787E9 ; 0.0
15 ; 1.810231110768565E7 ; 1.4051493792256063E8 ; 2.5134466085419744E8 ; 1.7435295915919542E9 ; 0.0
16 ; 1.812397164229253E7 ; 1.452997485664049E8 ; 2.6944697196188307E8 ; 1.884044529514515E9 ; 0.0
17 ; 1.8142659397707183E7 ; 1.5039335589368197E8 ; 2.8757094360417557E8 ; 2.0293442780809197E9 ; 0.0
18 ; 1.816462747992349E7 ; 1.5579575908496517E8 ; 3.0571360300188273E8 ; 2.1797376339746017E9 ; 0.0
19 ; 1.8187655227828685E7 ; 1.615069572028862E8 ; 3.238782304818062E8 ; 2.335533393059567E9 ; 0.0
20 ; 1.8211930366437767E7 ; 1.6752694919547942E8 ; 3.420658857096349E8 ; 2.497040350262453E9 ; 0.0
21 ; 1.8230269155211437E7 ; 1.7385573389988384E8 ; 3.602778160760727E8 ; 2.6645672994579325E9 ; 0.0
22 ; 1.8257299915581234E7 ; 1.804933100463729E8 ; 3.7850808523128414E8 ; 2.838423033357816E9 ; 0.0
23 ; 1.8279141676256374E7 ; 1.874396762626794E8 ; 3.9676538514686537E8 ; 3.018916343404189E9 ; 0.0
24 ; 1.830033343620893E7 ; 1.9469483107858282E8 ; 4.150445268231217E8 ; 3.2063560196668687E9 ; 0.0
25 ; 1.832798784118792E7 ; 2.009468138289075E8 ; 4.3334486025933063E8 ; 3.4010508507454515E9 ; 0.0
26 ; 1.834589334419455E7 ; 2.0094917069542503E8 ; 4.516728481005185E8 ; 3.601997664574359E9 ; 0.0
27 ; 1.8367211944698405E7 ; 2.0095166923692137E8 ; 4.7001874144471306E8 ; 3.802946835269784E9 ; 0.0
28 ; 1.8389569949443653E7 ; 2.0095430764125416E8 ; 4.8838595338941145E8 ; 4.0038985045067053E9 ; 0.0
29 ; 1.8409033897452477E7 ; 2.0095708402397057E8 ; 5.067755233388551E8 ; 4.204852812147959E9 ; 0.0
30 ; 1.8430473395767447E7 ; 2.009599964337331E8 ; 5.2518455723630756E8 ; 4.405809896171929E9 ; 0.0
31 ; 1.8453409093770426E7 ; 2.00963042857767E8 ; 5.43615030632075E8 ; 4.606769892605662E9 ; 0.0
32 ; 1.847507907060641E7 ; 2.00966221227298E8 ; 5.620684397258453E8 ; 4.807732935463429E9 ; 0.0
33 ; 1.848840298172012E7 ; 2.0096952942295194E8 ; 5.805435187964518E8 ; 5.008699156690727E9 ; 0.0
34 ; 1.8511801075118944E7 ; 2.0097296528008908E8 ; 5.990319217781719E8 ; 5.209668686113679E9 ; 0.0
35 ; 1.853090377080121E7 ; 2.0097652659404832E8 ; 6.175437228532908E8 ; 5.410641651393768E9 ; 0.0
36 ; 1.8554912352163028E7 ; 2.0098021112527898E8 ; 6.36074626624092E8 ; 5.611618177987817E9 ; 0.0
37 ; 1.8561516931099217E7 ; 2.009840166043398E8 ; 6.54629538976255E8 ; 5.812598389113096E9 ; 0.0
38 ; 1.8584794495204326E7 ; 2.0098794073674738E8 ; 6.731910559073542E8 ; 6.013582405717436E9 ; 0.0
39 ; 1.8597710392916285E7 ; 2.0099198120765847E8 ; 6.917758504025586E8 ; 6.214570346454184E9 ; 0.0
40 ; 1.861681678548857E7 ; 2.0099613568637282E8 ; 7.103735607954749E8 ; 6.415562327661842E9 ; 0.0
41 ; 1.863307873648516E7 ; 2.0100040183064616E8 ; 7.289903775809635E8 ; 6.616558463348215E9 ; 0.0
42 ; 1.8644583455388334E7 ; 2.0100477729080388E8 ; 7.476234563174486E8 ; 6.817558865178862E9 ; 0.0
43 ; 1.8660660592145696E7 ; 2.0100925971364903E8 ; 7.662680397728369E8 ; 7.018563642469666E9 ; 0.0
44 ; 1.8674932880841687E7 ; 2.0101384674616024E8 ; 7.849287003649826E8 ; 7.219572902183314E9 ; 0.0
45 ; 1.8686819965231586E7 ; 2.010185360389758E8 ; 8.036036332458243E8 ; 7.420586748929475E9 ; 0.0
46 ; 1.8695809373493664E7 ; 2.0102332524966353E8 ; 8.222904532110559E8 ; 7.621605284968451E9 ; 0.0
47 ; 1.8705200079126675E7 ; 2.010282120457763E8 ; 8.409862625845495E8 ; 7.822628610218114E9 ; 0.0
48 ; 1.8719921435070224E7 ; 2.010331941076948E8 ; 8.596914626636763E8 ; 8.02365682226389E9 ; 0.0
49 ; 1.8726887514346607E7 ; 2.0103826913126075E8 ; 8.784113840987465E8 ; 8.224690016371585E9 ; 0.0
50 ; 1.873659192688516E7 ; 2.0104343483020434E8 ; 8.971382716130931E8 ; 8.425728285502846E9 ; 0.0
51 ; 1.8741925346136615E7 ; 2.0104868893837112E8 ; 9.158748635399783E8 ; 8.62677172033305E9 ; 0.0
52 ; 1.8753701674297135E7 ; 2.0105402921175367E8 ; 9.346167888861148E8 ; 8.827820409271421E9 ; 0.0
53 ; 1.87564062612254E7 ; 2.0105945343033496E8 ; 9.533704905604119E8 ; 9.028874438483175E9 ; 0.0
54 ; 1.8766267818947773E7 ; 2.0106495939975014E8 ; 9.721268968216373E8 ; 9.22993389191351E9 ; 0.0
55 ; 1.8761768546029013E7 ; 2.010705449527743E8 ; 9.908931646405851E8 ; 9.43099885131326E9 ; 0.0
56 ; 1.874680863630365E7 ; 2.0107620795064372E8 ; 1.009654933186614E9 ; 9.632069396266033E9 ; 0.0
57 ; 1.873246878787587E7 ; 2.010819462842194E8 ; 1.0284017418229177E9 ; 9.833145604216677E9 ; 0.0
58 ; 1.871810911505735E7 ; 2.0108775787499982E8 ; 1.0471342106107936E9 ; 1.0034227550500896E10 ; 0.0
59 ; 1.870610419133719E7 ; 2.0109364067599237E8 ; 1.0658523197258509E9 ; 1.0235315308375896E10 ; 0.0
60 ; 1.8690578720739964E7 ; 2.0109959267245093E8 ; 1.0845584239171882E9 ; 1.043640894905189E10 ; 0.0
61 ; 1.8669477814996272E7 ; 2.0110561188248804E8 ; 1.1032490026379282E9 ; 1.063750854172434E10 ; 0.0
62 ; 1.8658238425855804E7 ; 2.0111169635756993E8 ; 1.1219184804529245E9 ; 1.0838614153606829E10 ; 0.0
63 ; 1.8643221312271163E7 ; 2.0111784418290177E8 ; 1.1405767188787804E9 ; 1.10397258499644E10 ; 0.0
64 ; 1.863013185750751E7 ; 2.011240534777115E8 ; 1.1592199401910515E9 ; 1.12408436941473E10 ; 0.0
65 ; 1.861321481497272E7 ; 2.0113032239543927E8 ; 1.177850072048559E9 ; 1.1441967747625011E10 ; 0.0
66 ; 1.860052112930568E7 ; 2.0113664912383988E8 ; 1.1964632868635316E9 ; 1.164309807002045E10 ; 0.0
67 ; 1.8581157940057762E7 ; 2.0114303188500533E8 ; 1.2150638079928372E9 ; 1.184423471914429E10 ; 0.0
68 ; 1.8564841736664485E7 ; 2.011494689353136E8 ; 1.233644965932895E9 ; 1.2045377751029297E10 ; 0.0
69 ; 1.855063985142679E7 ; 2.011559585653109E8 ; 1.2522098076695595E9 ; 1.2246527219964611E10 ; 0.0
70 ; 1.8533082445763122E7 ; 2.0116249909953249E8 ; 1.2707604475209863E9 ; 1.2447683178529922E10 ; 0.0
71 ; 1.851942152784016E7 ; 2.011690888962685E8 ; 1.2892935299667494E9 ; 1.2648845677629456E10 ; 0.0
72 ; 1.8501075535210118E7 ; 2.0117572634727976E8 ; 1.3078129514945896E9 ; 1.2850014766525724E10 ; 0.0
73 ; 1.8484944928977363E7 ; 2.0118240987746915E8 ; 1.3263140270297997E9 ; 1.3051190492873005E10 ; 0.0
74 ; 1.84654014347191E7 ; 2.0118913794451272E8 ; 1.344798971958777E9 ; 1.3252372902750475E10 ; 0.0
75 ; 1.8450884301247623E7 ; 2.0119590903845564E8 ; 1.363264373393496E9 ; 1.3453562040694988E10 ; 0.0
76 ; 1.84335823206056E7 ; 2.0120272168127674E8 ; 1.3817152576947436E9 ; 1.3654757949733444E10 ; 0.0
77 ; 1.8415419674069256E7 ; 2.0120957442642593E8 ; 1.4001488400153491E9 ; 1.385596067141472E10 ; 0.0
78 ; 1.8392140405111548E7 ; 2.0121646585833788E8 ; 1.4185642596894183E9 ; 1.4057170245841146E10 ; 0.0
79 ; 1.8370646892491553E7 ; 2.012233945919254E8 ; 1.4369564000945299E9 ; 1.4258386711699484E10 ; 0.0
80 ; 1.8351841704677004E7 ; 2.012303592720558E8 ; 1.4553270469870214E9 ; 1.4459610106291409E10 ; 0.0
81 ; 1.8324514329001408E7 ; 2.0123735857301286E8 ; 1.4736788886916986E9 ; 1.4660840465563465E10 ; 0.0
82 ; 1.8298786850372974E7 ; 2.0124439119794732E8 ; 1.4920034030207E9 ; 1.4862077824136478E10 ; 0.0
83 ; 1.8275801213275705E7 ; 2.0125145587831825E8 ; 1.510302189871073E9 ; 1.5063322215334425E10 ; 0.0
84 ; 1.825209387146272E7 ; 2.0125855137332729E8 ; 1.5285779910843487E9 ; 1.5264573671212744E10 ; 0.0
85 ; 1.8231937368327465E7 ; 2.0126567646934822E8 ; 1.5468300849558115E9 ; 1.5465832222586071E10 ; 0.0
86 ; 1.820524642313735E7 ; 2.0127282997935358E8 ; 1.5650620223241389E9 ; 1.566709789905542E10 ; 0.0
87 ; 1.818320195388136E7 ; 2.0128001074233955E8 ; 1.5832672687472763E9 ; 1.5868370729034773E10 ; 0.0
88 ; 1.8159224173796546E7 ; 2.0128721762275162E8 ; 1.6014504707011576E9 ; 1.6069650739777113E10 ; 0.0
89 ; 1.8132695555939715E7 ; 2.012944495099113E8 ; 1.6196096948749542E9 ; 1.6270937957399864E10 ; 0.0
90 ; 1.8107767731006302E7 ; 2.0130170531744593E8 ; 1.637742390430894E9 ; 1.6472232406909775E10 ; 0.0
91 ; 1.8082944933703065E7 ; 2.0130898398272234E8 ; 1.6558501581619003E9 ; 1.667353411222722E10 ; 0.0
92 ; 1.805842220656457E7 ; 2.0131628446628544E8 ; 1.6739331030956035E9 ; 1.6874843096209944E10 ; 0.0
93 ; 1.8028474674822293E7 ; 2.0132360575130245E8 ; 1.6919915253021681E9 ; 1.707615938067623E10 ; 0.0
94 ; 1.8008347159029406E7 ; 2.01330946843014E8 ; 1.7100199999769905E9 ; 1.7277482986427532E10 ; 0.0
95 ; 1.79815877700706E7 ; 2.0133830676819202E8 ; 1.72802834713602E9 ; 1.7478813933270546E10 ; 0.0
96 ; 1.795744564737251E7 ; 2.0134568457460585E8 ; 1.7460099349060905E9 ; 1.768015224003874E10 ; 0.0
97 ; 1.7933707484324597E7 ; 2.0135307933049646E8 ; 1.763967380553463E9 ; 1.7881497924613342E10 ; 0.0
98 ; 1.7904042502648488E7 ; 2.0136049012405947E8 ; 1.7819010880377877E9 ; 1.808285100394384E10 ; 0.0
99 ; 1.7882354984936588E7 ; 2.0136791606293735E8 ; 1.7998051305404363E9 ; 1.8284211494067898E10 ; 0.0
100 ; 1.785151018346248E7 ; 2.013753562737211E8 ; 1.8176874855253727E9 ; 1.8485579410130836E10 ; 0.0
101 ; 1.7828195689452477E7 ; 2.0138280990146133E8 ; 1.8355389957088351E9 ; 1.8686954766404556E10 ; 0.0
102 ; 1.7797463933655094E7 ; 2.0139027610918978E8 ; 1.8533671913982875E9 ; 1.888833757630602E10 ; 0.0
103 ; 1.7775175722444303E7 ; 2.013977540774502E8 ; 1.8711646553319426E9 ; 1.9089727852415207E10 ; 0.0
104 ; 1.774774053575106E7 ; 2.014052430038399E8 ; 1.8889398310543869E9 ; 1.9291125606492657E10 ; 0.0
105 ; 1.7718805837067652E7 ; 2.0141274210256138E8 ; 1.906687571590138E9 ; 1.94925308494965E10 ; 0.0
106 ; 1.76882981390583E7 ; 2.0142025060398406E8 ; 1.9244063774272056E9 ; 1.969394359159906E10 ; 0.0
107 ; 1.7664949573268984E7 ; 2.0142776775421643E8 ; 1.942094675566264E9 ; 1.9895363842203045E10 ; 0.0
108 ; 1.7637143220678993E7 ; 2.0143529281468835E8 ; 1.9597596251395328E9 ; 2.009679160995726E10 ; 0.0
109 ; 1.76107948147326E7 ; 2.0144282506174368E8 ; 1.9773967683602118E9 ; 2.029822690277195E10 ; 0.0
110 ; 1.758301823675613E7 ; 2.014503637862429E8 ; 1.9950075631749444E9 ; 2.0499669727833694E10 ; 0.0
111 ; 1.7554009580743928E7 ; 2.0145790829317573E8 ; 2.0125905814117005E9 ; 2.0701120091619938E10 ; 0.0
112 ; 1.7528217405358072E7 ; 2.0146545790128392E8 ; 2.0301445909924445E9 ; 2.0902577999913113E10 ; 0.0
113 ; 1.7498126281494245E7 ; 2.0147301194269353E8 ; 2.0476728083978026E9 ; 2.1104043457814396E10 ; 0.0
114 ; 1.7470726993072607E7 ; 2.014805697625572E8 ; 2.0651709346792967E9 ; 2.1305516469757088E10 ; 0.0
115 ; 1.7434760496498864E7 ; 2.014881307187058E8 ; 2.0826416616723692E9 ; 2.1506997039519646E10 ; 0.0
116 ; 1.741145458682999E7 ; 2.0149569418130937E8 ; 2.100076422168868E9 ; 2.170848517023835E10 ; 0.0
117 ; 1.7382958935208302E7 ; 2.0150325953254753E8 ; 2.117487876755698E9 ; 2.190998086441966E10 ; 0.0
118 ; 1.7352435938521735E7 ; 2.0151082616628873E8 ; 2.1348708356909063E9 ; 2.2111484123952206E10 ; 0.0
119 ; 1.7328005747330718E7 ; 2.0151839348777857E8 ; 2.152223271629428E9 ; 2.2312994950118496E10 ; 0.0
120 ; 1.7293718849971622E7 ; 2.0152596091333655E8 ; 2.1695512773767586E9 ; 2.2514513343606274E10 ; 0.0
121 ; 1.7268973988324165E7 ; 2.0153352787006164E8 ; 2.1868449962267303E9 ; 2.271603930451961E10 ; 0.0
122 ; 1.7235686212690074E7 ; 2.01541093795546E8 ; 2.2041139702150545E9 ; 2.291757283238967E10 ; 0.0
123 ; 1.721018137572498E7 ; 2.0154865813759688E8 ; 2.2213496564277444E9 ; 2.311911392618522E10 ; 0.0
124 ; 1.717775914712941E7 ; 2.0155622035396656E8 ; 2.238559837803469E9 ; 2.3320662584322815E10 ; 0.0
125 ; 1.714895860710782E7 ; 2.015637799120899E8 ; 2.2557375969505987E9 ; 2.352221880467678E10 ; 0.0
126 ; 1.7117327354581885E7 ; 2.0157133628882974E8 ; 2.2728865555577064E9 ; 2.372378258458887E10 ; 0.0
127 ; 1.7083848427524485E7 ; 2.0157888897022924E8 ; 2.290003882912288E9 ; 2.39253539208777E10 ; 0.0
128 ; 1.7058279382005095E7 ; 2.01586437451272E8 ; 2.3070877313398128E9 ; 2.412693280984793E10 ; 0.0
129 ; 1.7022052355585415E7 ; 2.0159398123564884E8 ; 2.324146010721818E9 ; 2.4328519247299202E10 ; 0.0
130 ; 1.698831780157361E7 ; 2.0160151983553138E8 ; 2.3411680630774035E9 ; 2.453011322853485E10 ; 0.0
131 ; 1.6958191870501217E7 ; 2.0160905277135256E8 ; 2.3581563808789773E9 ; 2.4731714748370384E10 ; 0.0
132 ; 1.6921303076212756E7 ; 2.0161657957159334E8 ; 2.3751145727494783E9 ; 2.4933323801141735E10 ; 0.0
133 ; 1.688165787602638E7 ; 2.016240997725759E8 ; 2.392035875825691E9 ; 2.513494038071333E10 ; 0.0
134 ; 1.6844267556079607E7 ; 2.01631612918263E8 ; 2.4089175337017174E9 ; 2.5336564480485905E10 ; 0.0
135 ; 1.6807999151887204E7 ; 2.0163911856006294E8 ; 2.425761801257797E9 ; 2.5538196093404167E10 ; 0.0
136 ; 1.67681280516748E7 ; 2.0164661625664094E8 ; 2.442569800409684E9 ; 2.573983521196423E10 ; 0.0
137 ; 1.6735121136957144E7 ; 2.0165410557373548E8 ; 2.459337928461359E9 ; 2.594148182822087E10 ; 0.0
138 ; 1.6703991340569785E7 ; 2.016615860839806E8 ; 2.476073049598316E9 ; 2.6143135933794605E10 ; 0.0
139 ; 1.6660338927224519E7 ; 2.0166905736673313E8 ; 2.492777040938886E9 ; 2.6344797519878586E10 ; 0.0
140 ; 1.6622565872045346E7 ; 2.0167651900790557E8 ; 2.509437379866111E9 ; 2.654646657724532E10 ; 0.0
141 ; 1.6583536587275345E7 ; 2.0168397059980333E8 ; 2.5260599457381563E9 ; 2.6748143096253223E10 ; 0.0
142 ; 1.6546596569930855E7 ; 2.016914117409674E8 ; 2.542643482325432E9 ; 2.6949827066853027E10 ; 0.0
143 ; 1.6506382326105012E7 ; 2.0169884203602138E8 ; 2.559190078895363E9 ; 2.7151518478593994E10 ; 0.0
144 ; 1.6468156749660999E7 ; 2.017062610955233E8 ; 2.575696461221468E9 ; 2.7353217320630016E10 ; 0.0
145 ; 1.6439845530652419E7 ; 2.017136685358217E8 ; 2.592164617971129E9 ; 2.755492358172554E10 ; 0.0
146 ; 1.6406426918707324E7 ; 2.017210639789161E8 ; 2.6086044635017815E9 ; 2.775663725026136E10 ; 0.0
147 ; 1.6374708986876199E7 ; 2.0172844705232173E8 ; 2.625010890420489E9 ; 2.7958358314240276E10 ; 0.0
148 ; 1.6341720361648375E7 ; 2.0173581738893813E8 ; 2.641385599407365E9 ; 2.81600867612926E10 ; 0.0
149 ; 1.6314237036432942E7 ; 2.017431746269218E8 ; 2.6577273197690134E9 ; 2.8361822578681538E10 ; 0.0
150 ; 1.6277685864704315E7 ; 2.017505184095626E8 ; 2.674041556805446E9 ; 2.856356575330846E10 ; 0.0
151 ; 1.624628313671904E7 ; 2.017578483851639E8 ; 2.6903192426701503E9 ; 2.876531627171802E10 ; 0.0
152 ; 1.6220237847075338E7 ; 2.0176516420692635E8 ; 2.7065655258068695E9 ; 2.8967074120103184E10 ; 0.0
153 ; 1.6184159107060399E7 ; 2.0177246553283486E8 ; 2.722785763653945E9 ; 2.9168839284310112E10 ; 0.0
154 ; 1.6156613792265702E7 ; 2.0177975202554932E8 ; 2.7389699227610054E9 ; 2.9370611749842945E10 ; 0.0
155 ; 1.6125582730399955E7 ; 2.0178702335229832E8 ; 2.7551265365532713E9 ; 2.9572391501868496E10 ; 0.0
156 ; 1.6091335754505914E7 ; 2.01794279184776E8 ; 2.7712521192836714E9 ; 2.9774178525220795E10 ; 0.0
157 ; 1.6054193906559546E7 ; 2.0180151919904232E8 ; 2.7873434550381775E9 ; 2.997597280440557E10 ; 0.0
158 ; 1.6023520376517653E7 ; 2.0180874307542577E8 ; 2.803397648944737E9 ; 3.0177774323604614E10 ; 0.0
159 ; 1.5989184794838475E7 ; 2.0181595049842942E8 ; 2.8194211693212547E9 ; 3.037958306668004E10 ; 0.0
160 ; 1.5957676292688282E7 ; 2.018231411566395E8 ; 2.835410354116093E9 ; 3.0581399017178467E10 ; 0.0
161 ; 1.5924475716212865E7 ; 2.018303147426368E8 ; 2.8513680304087815E9 ; 3.0783222158335106E10 ; 0.0
162 ; 1.589347426572732E7 ; 2.018374709529106E8 ; 2.8672925061249943E9 ; 3.0985052473077744E10 ; 0.0
163 ; 1.586817653790433E7 ; 2.0184460948777527E8 ; 2.883185980390722E9 ; 3.1186889944030655E10 ; 0.0
164 ; 1.5830865934717515E7 ; 2.0185173005128908E8 ; 2.899054156928626E9 ; 3.138873455351843E10 ; 0.0
165 ; 1.5795821038710993E7 ; 2.018588323511758E8 ; 2.9148850228633437E9 ; 3.1590586283569717E10 ; 0.0
166 ; 1.5765300304032812E7 ; 2.0186591609874824E8 ; 2.930680843902055E9 ; 3.1792445115920895E10 ; 0.0
167 ; 1.573551036293693E7 ; 2.0187298100883415E8 ; 2.9464461442060876E9 ; 3.199431103201964E10 ; 0.0
168 ; 1.5701860768362567E7 ; 2.0188002679970434E8 ; 2.9621816545690246E9 ; 3.2196184013028477E10 ; 0.0
169 ; 1.5670949224206857E7 ; 2.0188705319300297E8 ; 2.977883515337387E9 ; 3.2398064039828182E10 ; 0.0
170 ; 1.5634208367455022E7 ; 2.0189405991367957E8 ; 2.993554464561594E9 ; 3.2599951093021187E10 ; 0.0
171 ; 1.5605111434725452E7 ; 2.019E8 ; 3.009188672929049E9 ; 3.2801845152934868E10 ; 0.0
172 ; 1.5572566438983971E7 ; 2.019E8 ; 3.0247937843637743E9 ; 3.3003745152934868E10 ; 0.0
173 ; 1.553779034536873E7 ; 2.019E8 ; 3.040366350802758E9 ; 3.3205645152934868E10 ; 0.0
174 ; 1.551169090025988E7 ; 2.019E8 ; 3.055904141148127E9 ; 3.3407545152934868E10 ; 0.0
175 ; 1.5485086214848468E7 ; 2.019E8 ; 3.071415832048387E9 ; 3.3609445152934868E10 ; 0.0
176 ; 1.5453500680123704E7 ; 2.019E8 ; 3.0869009182632356E9 ; 3.3811345152934868E10 ; 0.0
177 ; 1.5428534928499727E7 ; 2.019E8 ; 3.1023544189433594E9 ; 3.4013245152934868E10 ; 0.0
178 ; 1.5399012007641764E7 ; 2.019E8 ; 3.117782953871859E9 ; 3.4215145152934868E10 ; 0.0
179 ; 1.5373421815742554E7 ; 2.019E8 ; 3.133181965879501E9 ; 3.441704515293487E10 ; 0.0
180 ; 1.5342555781017132E7 ; 2.019E8 ; 3.1485553876952434E9 ; 3.461894515293487E10 ; 0.0
181 ; 1.5317540581969317E7 ; 2.019E8 ; 3.1638979434762607E9 ; 3.482084515293487E10 ; 0.0
182 ; 1.5285395778200537E7 ; 2.019E8 ; 3.17921548405823E9 ; 3.502274515293487E10 ; 0.0
183 ; 1.5258245174944041E7 ; 2.019E8 ; 3.1945008798364305E9 ; 3.522464515293487E10 ; 0.0
184 ; 1.5228874278698072E7 ; 2.019E8 ; 3.2097591250113745E9 ; 3.542654515293487E10 ; 0.0
185 ; 1.5204069457231196E7 ; 2.019E8 ; 3.2249879992900724E9 ; 3.562844515293487E10 ; 0.0
186 ; 1.5175183742680214E7 ; 2.019E8 ; 3.2401920687473035E9 ; 3.583034515293487E10 ; 0.0
187 ; 1.514002419654589E7 ; 2.019E8 ; 3.2553672524899836E9 ; 3.603224515293487E10 ; 0.0
188 ; 1.511941130471605E7 ; 2.019E8 ; 3.2705072766865296E9 ; 3.623414515293487E10 ; 0.0
189 ; 1.508755717691916E7 ; 2.019E8 ; 3.2856266879912457E9 ; 3.643604515293487E10 ; 0.0
190 ; 1.5062885794142563E7 ; 2.019E8 ; 3.3007142451681647E9 ; 3.663794515293487E10 ; 0.0
191 ; 1.5034664202552143E7 ; 2.019E8 ; 3.3157771309623075E9 ; 3.683984515293487E10 ; 0.0
192 ; 1.5009153529065704E7 ; 2.019E8 ; 3.33081179516486E9 ; 3.704174515293487E10 ; 0.0
193 ; 1.4978829950681934E7 ; 2.019E8 ; 3.3458209486939254E9 ; 3.724364515293487E10 ; 0.0
194 ; 1.4950161039450642E7 ; 2.019E8 ; 3.3607997786446075E9 ; 3.744554515293487E10 ; 0.0
195 ; 1.491909789701771E7 ; 2.019E8 ; 3.375749939684058E9 ; 3.764744515293487E10 ; 0.0
196 ; 1.4893728397647623E7 ; 2.019E8 ; 3.3906690375810757E9 ; 3.784934515293487E10 ; 0.0
197 ; 1.486427531803913E7 ; 2.019E8 ; 3.4055627659787235E9 ; 3.805124515293487E10 ; 0.0
198 ; 1.4839702931539644E7 ; 2.019E8 ; 3.4204270412967625E9 ; 3.825314515293487E10 ; 0.0
199 ; 1.4813745959708773E7 ; 2.019E8 ; 3.435266744228302E9 ; 3.845504515293487E10 ; 0.0
