CSV File for the City 2 on Day 18
1 - Minute m 
2 - Power Consumed at minute m 
3 - Power Produced at minute m 
4 - Energy Consumed since the beginning of the day 
5 - Energy Produced since the beginning of the day 
6 - Energy Lost since the beginning of the day on lines starting from the city
 
0 ; 1.028317452484987E7 ; 1.2211027620196246E7 ; 0.0 ; 0.0 ; 0.0
1 ; 1.0293373312754773E7 ; 1.2211027620196246E7 ; 1.028317452484987E7 ; 1.2211027620196246E7 ; 0.0
2 ; 1.0307795253145203E7 ; 1.2211027620196246E7 ; 2.0576547837604642E7 ; 2.442205524039249E7 ; 0.0
3 ; 1.0318841549201192E7 ; 1.2211027620196246E7 ; 3.0884343090749845E7 ; 3.663308286058874E7 ; 0.0
4 ; 1.0331166538850278E7 ; 1.2211027620196246E7 ; 4.1203184639951035E7 ; 4.884411048078498E7 ; 0.0
5 ; 1.0352839958467906E7 ; 1.2211027620196246E7 ; 5.153435117880131E7 ; 6.105513810098123E7 ; 0.0
6 ; 1.0375933894115373E7 ; 1.2211027620196246E7 ; 6.188719113726922E7 ; 7.326616572117747E7 ; 0.0
7 ; 1.0415380009785574E7 ; 1.2211027620196246E7 ; 7.226312503138459E7 ; 8.547719334137371E7 ; 0.0
8 ; 1.0461598758638402E7 ; 1.2211027620196246E7 ; 8.267850504117016E7 ; 9.768822096156996E7 ; 0.0
9 ; 1.0535853438363327E7 ; 1.2211027620196246E7 ; 9.314010379980856E7 ; 1.0989924858176622E8 ; 0.0
10 ; 1.0655487547839047E7 ; 1.2211027620196246E7 ; 1.0367595723817189E8 ; 1.2211027620196247E8 ; 0.0
11 ; 1.0842709892410299E7 ; 1.2211027620196246E7 ; 1.1433144478601094E8 ; 1.3432130382215872E8 ; 0.0
12 ; 1.1140457437749865E7 ; 1.2211027620196246E7 ; 1.2517415467842123E8 ; 1.4653233144235498E8 ; 0.0
13 ; 1.1432326329019235E7 ; 1.2211027620196246E7 ; 1.363146121161711E8 ; 1.5874335906255123E8 ; 0.0
14 ; 1.1463955482579693E7 ; 1.2211027620196246E7 ; 1.4774693844519034E8 ; 1.7095438668274748E8 ; 0.0
15 ; 1.1476169763280913E7 ; 1.2211027620196246E7 ; 1.5921089392777002E8 ; 1.8316541430294374E8 ; 0.0
16 ; 1.1492821880298104E7 ; 1.2211027620196246E7 ; 1.7068706369105095E8 ; 1.9537644192314E8 ; 0.0
17 ; 1.1502413506764472E7 ; 1.2211027620196246E7 ; 1.8217988557134905E8 ; 2.0758746954333624E8 ; 0.0
18 ; 1.1517374169038484E7 ; 1.2211027620196246E7 ; 1.9368229907811353E8 ; 2.197984971635325E8 ; 0.0
19 ; 1.1531414941878567E7 ; 1.2211027620196246E7 ; 2.05199673247152E8 ; 2.3200952478372875E8 ; 0.0
20 ; 1.1546115593779342E7 ; 1.2211027620196246E7 ; 2.1673108818903056E8 ; 2.44220552403925E8 ; 0.0
21 ; 1.1562072447316675E7 ; 1.2211027620196246E7 ; 2.282772037828099E8 ; 2.5643158002412125E8 ; 0.0
22 ; 1.1570639019609967E7 ; 1.2211027620196246E7 ; 2.398392762301266E8 ; 2.686426076443175E8 ; 0.0
23 ; 1.1585225452685647E7 ; 1.2211027620196246E7 ; 2.5140991524973655E8 ; 2.8085363526451373E8 ; 0.0
24 ; 1.1599928131484881E7 ; 1.2211027620196246E7 ; 2.629951407024222E8 ; 2.9306466288470995E8 ; 0.0
25 ; 1.1610872217413593E7 ; 1.2211027620196246E7 ; 2.7459506883390707E8 ; 3.052756905049062E8 ; 0.0
26 ; 1.1623923730534825E7 ; 1.2211027620196246E7 ; 2.862059410513207E8 ; 3.174867181251024E8 ; 0.0
27 ; 1.1640305791553523E7 ; 1.2211027620196246E7 ; 2.978298647818555E8 ; 3.296977457452986E8 ; 0.0
28 ; 1.1650034333509464E7 ; 1.2211027620196246E7 ; 3.09470170573409E8 ; 3.4190877336549485E8 ; 0.0
29 ; 1.166474177652842E7 ; 1.2211027620196246E7 ; 3.2112020490691847E8 ; 3.541198009856911E8 ; 0.0
30 ; 1.1678103834096115E7 ; 1.2211027620196246E7 ; 3.327849466834469E8 ; 3.663308286058873E8 ; 0.0
31 ; 1.1687795957188297E7 ; 1.2211027620196246E7 ; 3.44463050517543E8 ; 3.785418562260835E8 ; 0.0
32 ; 1.1704160219774885E7 ; 1.2211027620196246E7 ; 3.561508464747313E8 ; 3.9075288384627974E8 ; 0.0
33 ; 1.1711821881935457E7 ; 1.2211027620196246E7 ; 3.678550066945062E8 ; 4.0296391146647596E8 ; 0.0
34 ; 1.1723785399376068E7 ; 1.2211027620196246E7 ; 3.795668285764417E8 ; 4.151749390866722E8 ; 0.0
35 ; 1.1734356453520603E7 ; 1.2211027620196246E7 ; 3.912906139758178E8 ; 4.273859667068684E8 ; 0.0
36 ; 1.174563863616482E7 ; 1.2211027620196246E7 ; 4.030249704293384E8 ; 4.3959699432706463E8 ; 0.0
37 ; 1.175469293187555E7 ; 1.2211027620196246E7 ; 4.1477060906550324E8 ; 4.5180802194726086E8 ; 0.0
38 ; 1.1765440098258117E7 ; 1.2211027620196246E7 ; 4.2652530199737877E8 ; 4.640190495674571E8 ; 0.0
39 ; 1.1774272548558997E7 ; 1.2211027620196246E7 ; 4.382907420956369E8 ; 4.762300771876533E8 ; 0.0
40 ; 1.1784784129076926E7 ; 1.2211027620196246E7 ; 4.500650146441959E8 ; 4.884411048078495E8 ; 0.0
41 ; 1.1794850897859301E7 ; 1.2211027620196246E7 ; 4.618497987732728E8 ; 5.0065213242804575E8 ; 0.0
42 ; 1.1799920265530473E7 ; 1.2211027620196246E7 ; 4.736446496711321E8 ; 5.12863160048242E8 ; 0.0
43 ; 1.1804968462245159E7 ; 1.2211027620196246E7 ; 4.8544456993666255E8 ; 5.250741876684382E8 ; 0.0
44 ; 1.1812074470770987E7 ; 1.2211027620196246E7 ; 4.972495383989077E8 ; 5.372852152886344E8 ; 0.0
45 ; 1.1818976509413948E7 ; 1.2211027620196246E7 ; 5.0906161286967874E8 ; 5.494962429088306E8 ; 0.0
46 ; 1.1825716366137305E7 ; 1.2211027620196246E7 ; 5.208805893790927E8 ; 5.617072705290269E8 ; 0.0
47 ; 1.1830469583468055E7 ; 1.2211027620196246E7 ; 5.3270630574523E8 ; 5.739182981492231E8 ; 0.0
48 ; 1.1833070976693638E7 ; 1.2211027620196246E7 ; 5.44536775328698E8 ; 5.861293257694193E8 ; 0.0
49 ; 1.1839226946841143E7 ; 1.2211027620196246E7 ; 5.563698463053917E8 ; 5.983403533896155E8 ; 0.0
50 ; 1.1842019682176106E7 ; 1.2211027620196246E7 ; 5.682090732522328E8 ; 6.105513810098118E8 ; 0.0
51 ; 1.1847751032864114E7 ; 1.2211027620196246E7 ; 5.800510929344089E8 ; 6.22762408630008E8 ; 0.0
52 ; 1.184997893749831E7 ; 1.2211027620196246E7 ; 5.91898843967273E8 ; 6.349734362502042E8 ; 0.0
53 ; 1.1851362646736555E7 ; 1.2211027620196246E7 ; 6.037488229047713E8 ; 6.471844638704004E8 ; 0.0
54 ; 1.1854371306762757E7 ; 1.2211027620196246E7 ; 6.156001855515078E8 ; 6.593954914905967E8 ; 0.0
55 ; 1.1858495531911815E7 ; 1.2211027620196246E7 ; 6.274545568582706E8 ; 6.716065191107929E8 ; 0.0
56 ; 1.1863338055750847E7 ; 1.2211027620196246E7 ; 6.393130523901825E8 ; 6.838175467309891E8 ; 0.0
57 ; 1.1865429019238584E7 ; 1.2211027620196246E7 ; 6.511763904459333E8 ; 6.960285743511853E8 ; 0.0
58 ; 1.1867765616497105E7 ; 1.2211027620196246E7 ; 6.630418194651719E8 ; 7.082396019713815E8 ; 0.0
59 ; 1.1866893139484543E7 ; 1.2211027620196246E7 ; 6.749095850816691E8 ; 7.204506295915778E8 ; 0.0
60 ; 1.187005028682307E7 ; 1.2211027620196246E7 ; 6.867764782211536E8 ; 7.32661657211774E8 ; 0.0
61 ; 1.1874275210085317E7 ; 1.2211027620196246E7 ; 6.986465285079767E8 ; 7.448726848319702E8 ; 0.0
62 ; 1.1877132863839883E7 ; 1.2211027620196246E7 ; 7.105208037180619E8 ; 7.570837124521664E8 ; 0.0
63 ; 1.1876746413413795E7 ; 1.2211027620196246E7 ; 7.223979365819018E8 ; 7.692947400723627E8 ; 0.0
64 ; 1.1877850891976647E7 ; 1.2211027620196246E7 ; 7.342746829953156E8 ; 7.815057676925589E8 ; 0.0
65 ; 1.1880804446560523E7 ; 1.2211027620196246E7 ; 7.461525338872921E8 ; 7.937167953127551E8 ; 0.0
66 ; 1.1881619766559092E7 ; 1.2211027620196246E7 ; 7.580333383338526E8 ; 8.059278229329513E8 ; 0.0
67 ; 1.1884682108277641E7 ; 1.2211027620196246E7 ; 7.699149581004118E8 ; 8.181388505531476E8 ; 0.0
68 ; 1.188338657519096E7 ; 1.2211027620196246E7 ; 7.817996402086895E8 ; 8.303498781733438E8 ; 0.0
69 ; 1.188317717866554E7 ; 1.2211027620196246E7 ; 7.936830267838804E8 ; 8.4256090579354E8 ; 0.0
70 ; 1.1887783510481551E7 ; 1.2211027620196246E7 ; 8.055662039625459E8 ; 8.547719334137362E8 ; 0.0
71 ; 1.1889564632228926E7 ; 1.2211027620196246E7 ; 8.174539874730275E8 ; 8.669829610339324E8 ; 0.0
72 ; 1.1890800594669998E7 ; 1.2211027620196246E7 ; 8.293435521052564E8 ; 8.791939886541287E8 ; 0.0
73 ; 1.1890415712556252E7 ; 1.2211027620196246E7 ; 8.412343526999264E8 ; 8.914050162743249E8 ; 0.0
74 ; 1.1891432628503768E7 ; 1.2211027620196246E7 ; 8.531247684124826E8 ; 9.036160438945211E8 ; 0.0
75 ; 1.189010423040402E7 ; 1.2211027620196246E7 ; 8.650162010409864E8 ; 9.158270715147173E8 ; 0.0
76 ; 1.188931739493241E7 ; 1.2211027620196246E7 ; 8.769063052713904E8 ; 9.280380991349136E8 ; 0.0
77 ; 1.189133147762178E7 ; 1.2211027620196246E7 ; 8.887956226663228E8 ; 9.402491267551098E8 ; 0.0
78 ; 1.1891385325577496E7 ; 1.2211027620196246E7 ; 9.006869541439446E8 ; 9.52460154375306E8 ; 0.0
79 ; 1.1883953912222993E7 ; 1.2211027620196246E7 ; 9.125783394695221E8 ; 9.646711819955022E8 ; 0.0
80 ; 1.1883358873709831E7 ; 1.2211027620196246E7 ; 9.244622933817451E8 ; 9.768822096156985E8 ; 0.0
81 ; 1.1878224354011107E7 ; 1.2211027620196246E7 ; 9.363456522554549E8 ; 9.890932372358947E8 ; 0.0
82 ; 1.1874340106898725E7 ; 1.2211027620196246E7 ; 9.48223876609466E8 ; 1.0013042648560909E9 ; 0.0
83 ; 1.187046273567154E7 ; 1.2211027620196246E7 ; 9.600982167163646E8 ; 1.0135152924762871E9 ; 0.0
84 ; 1.1868818184964921E7 ; 1.2211027620196246E7 ; 9.719686794520361E8 ; 1.0257263200964833E9 ; 0.0
85 ; 1.1864036119547538E7 ; 1.2211027620196246E7 ; 9.83837497637001E8 ; 1.0379373477166796E9 ; 0.0
86 ; 1.1858534034109274E7 ; 1.2211027620196246E7 ; 9.957015337565485E8 ; 1.0501483753368758E9 ; 0.0
87 ; 1.185708739526997E7 ; 1.2211027620196246E7 ; 1.0075600677906578E9 ; 1.062359402957072E9 ; 0.0
88 ; 1.1847752513339235E7 ; 1.2211027620196246E7 ; 1.0194171551859277E9 ; 1.0745704305772684E9 ; 0.0
89 ; 1.1845454183810674E7 ; 1.2211027620196246E7 ; 1.031264907699267E9 ; 1.0867814581974647E9 ; 0.0
90 ; 1.1841381924469365E7 ; 1.2211027620196246E7 ; 1.0431103618830777E9 ; 1.098992485817661E9 ; 0.0
91 ; 1.1837159811543718E7 ; 1.2211027620196246E7 ; 1.0549517438075471E9 ; 1.1112035134378574E9 ; 0.0
92 ; 1.1830258809422527E7 ; 1.2211027620196246E7 ; 1.0667889036190908E9 ; 1.1234145410580537E9 ; 0.0
93 ; 1.182373410399651E7 ; 1.2211027620196246E7 ; 1.0786191624285133E9 ; 1.13562556867825E9 ; 0.0
94 ; 1.1821733758449258E7 ; 1.2211027620196246E7 ; 1.0904428965325098E9 ; 1.1478365962984464E9 ; 0.0
95 ; 1.1818535601873847E7 ; 1.2211027620196246E7 ; 1.1022646302909591E9 ; 1.1600476239186428E9 ; 0.0
96 ; 1.1810977380142996E7 ; 1.2211027620196246E7 ; 1.114083165892833E9 ; 1.172258651538839E9 ; 0.0
97 ; 1.1805849040888768E7 ; 1.2211027620196246E7 ; 1.125894143272976E9 ; 1.1844696791590354E9 ; 0.0
98 ; 1.1798633732559687E7 ; 1.2211027620196246E7 ; 1.1376999923138647E9 ; 1.1966807067792318E9 ; 0.0
99 ; 1.1794286217717284E7 ; 1.2211027620196246E7 ; 1.1494986260464244E9 ; 1.2088917343994281E9 ; 0.0
100 ; 1.1787702676329274E7 ; 1.2211027620196246E7 ; 1.1612929122641416E9 ; 1.2211027620196245E9 ; 0.0
101 ; 1.178045581171578E7 ; 1.2211027620196246E7 ; 1.173080614940471E9 ; 1.2333137896398208E9 ; 0.0
102 ; 1.1776525943673434E7 ; 1.2211027620196246E7 ; 1.1848610707521868E9 ; 1.2455248172600172E9 ; 0.0
103 ; 1.1768678095723566E7 ; 1.2211027620196246E7 ; 1.1966375966958601E9 ; 1.2577358448802135E9 ; 0.0
104 ; 1.176565651119998E7 ; 1.2211027620196246E7 ; 1.2084062747915838E9 ; 1.2699468725004098E9 ; 0.0
105 ; 1.1757825713285632E7 ; 1.2211027620196246E7 ; 1.2201719313027837E9 ; 1.2821579001206062E9 ; 0.0
106 ; 1.1751851558106536E7 ; 1.2211027620196246E7 ; 1.2319297570160694E9 ; 1.2943689277408025E9 ; 0.0
107 ; 1.1742978668046765E7 ; 1.2211027620196246E7 ; 1.2436816085741758E9 ; 1.3065799553609989E9 ; 0.0
108 ; 1.1739196230785819E7 ; 1.2211027620196246E7 ; 1.2554245872422225E9 ; 1.3187909829811952E9 ; 0.0
109 ; 1.1731529954634717E7 ; 1.2211027620196246E7 ; 1.2671637834730084E9 ; 1.3310020106013916E9 ; 0.0
110 ; 1.1722130648112368E7 ; 1.2211027620196246E7 ; 1.278895313427643E9 ; 1.343213038221588E9 ; 0.0
111 ; 1.1717857349670788E7 ; 1.2211027620196246E7 ; 1.2906174440757554E9 ; 1.3554240658417842E9 ; 0.0
112 ; 1.1711025528228385E7 ; 1.2211027620196246E7 ; 1.3023353014254262E9 ; 1.3676350934619806E9 ; 0.0
113 ; 1.1703042917797487E7 ; 1.2211027620196246E7 ; 1.3140463269536545E9 ; 1.379846121082177E9 ; 0.0
114 ; 1.1697439232570384E7 ; 1.2211027620196246E7 ; 1.325749369871452E9 ; 1.3920571487023733E9 ; 0.0
115 ; 1.1687924014959008E7 ; 1.2211027620196246E7 ; 1.3374468091040225E9 ; 1.4042681763225696E9 ; 0.0
116 ; 1.168287769434078E7 ; 1.2211027620196246E7 ; 1.3491347331189816E9 ; 1.416479203942766E9 ; 0.0
117 ; 1.167152161404742E7 ; 1.2211027620196246E7 ; 1.3608176108133223E9 ; 1.4286902315629623E9 ; 0.0
118 ; 1.1665512469355833E7 ; 1.2211027620196246E7 ; 1.3724891324273698E9 ; 1.4409012591831586E9 ; 0.0
119 ; 1.1654415607962638E7 ; 1.2211027620196246E7 ; 1.3841546448967257E9 ; 1.453112286803355E9 ; 0.0
120 ; 1.1650010940804172E7 ; 1.2211027620196246E7 ; 1.3958090605046883E9 ; 1.4653233144235513E9 ; 0.0
121 ; 1.164099631520358E7 ; 1.2211027620196246E7 ; 1.4074590714454925E9 ; 1.4775343420437477E9 ; 0.0
122 ; 1.1634262980854109E7 ; 1.2211027620196246E7 ; 1.4191000677606962E9 ; 1.489745369663944E9 ; 0.0
123 ; 1.1620673114125801E7 ; 1.2211027620196246E7 ; 1.4307343307415502E9 ; 1.5019563972841403E9 ; 0.0
124 ; 1.1616381296435043E7 ; 1.2211027620196246E7 ; 1.442355003855676E9 ; 1.5141674249043367E9 ; 0.0
125 ; 1.1606501639646916E7 ; 1.2211027620196246E7 ; 1.453971385152111E9 ; 1.526378452524533E9 ; 0.0
126 ; 1.159562028542528E7 ; 1.2211027620196246E7 ; 1.465577886791758E9 ; 1.5385894801447294E9 ; 0.0
127 ; 1.1591073754827147E7 ; 1.2211027620196246E7 ; 1.4771735070771832E9 ; 1.5508005077649257E9 ; 0.0
128 ; 1.15789378200455E7 ; 1.2211027620196246E7 ; 1.4887645808320105E9 ; 1.563011535385122E9 ; 0.0
129 ; 1.157069069963758E7 ; 1.2211027620196246E7 ; 1.500343518652056E9 ; 1.5752225630053184E9 ; 0.0
130 ; 1.155912960361618E7 ; 1.2211027620196246E7 ; 1.5119142093516936E9 ; 1.5874335906255147E9 ; 0.0
131 ; 1.1545765723302778E7 ; 1.2211027620196246E7 ; 1.5234733389553099E9 ; 1.599644618245711E9 ; 0.0
132 ; 1.1534522417111447E7 ; 1.2211027620196246E7 ; 1.5350191046786127E9 ; 1.6118556458659074E9 ; 0.0
133 ; 1.1519904462202607E7 ; 1.2211027620196246E7 ; 1.546553627095724E9 ; 1.6240666734861038E9 ; 0.0
134 ; 1.1505945955260156E7 ; 1.2211027620196246E7 ; 1.5580735315579267E9 ; 1.6362777011063E9 ; 0.0
135 ; 1.1493789282018615E7 ; 1.2211027620196246E7 ; 1.5695794775131867E9 ; 1.6484887287264965E9 ; 0.0
136 ; 1.1478304917308634E7 ; 1.2211027620196246E7 ; 1.5810732667952054E9 ; 1.6606997563466928E9 ; 0.0
137 ; 1.1465326993184704E7 ; 1.2211027620196246E7 ; 1.592551571712514E9 ; 1.6729107839668891E9 ; 0.0
138 ; 1.145247815241908E7 ; 1.2211027620196246E7 ; 1.6040168987056987E9 ; 1.6851218115870855E9 ; 0.0
139 ; 1.1440193281840177E7 ; 1.2211027620196246E7 ; 1.6154693768581178E9 ; 1.6973328392072818E9 ; 0.0
140 ; 1.1423646616902333E7 ; 1.2211027620196246E7 ; 1.626909570139958E9 ; 1.7095438668274782E9 ; 0.0
141 ; 1.1413017885451145E7 ; 1.2211027620196246E7 ; 1.6383332167568603E9 ; 1.7217548944476745E9 ; 0.0
142 ; 1.1395901157521766E7 ; 1.2211027620196246E7 ; 1.6497462346423113E9 ; 1.7339659220678709E9 ; 0.0
143 ; 1.1381643494432231E7 ; 1.2211027620196246E7 ; 1.661142135799833E9 ; 1.7461769496880672E9 ; 0.0
144 ; 1.1367319070613407E7 ; 1.2211027620196246E7 ; 1.6725237792942653E9 ; 1.7583879773082635E9 ; 0.0
145 ; 1.1355572122528085E7 ; 1.2211027620196246E7 ; 1.6838910983648787E9 ; 1.77059900492846E9 ; 0.0
146 ; 1.1349110769559592E7 ; 1.2211027620196246E7 ; 1.6952466704874067E9 ; 1.7828100325486562E9 ; 0.0
147 ; 1.1335834168487083E7 ; 1.2211027620196246E7 ; 1.7065957812569664E9 ; 1.7950210601688526E9 ; 0.0
148 ; 1.132843411018573E7 ; 1.2211027620196246E7 ; 1.7179316154254534E9 ; 1.807232087789049E9 ; 0.0
149 ; 1.1320172094091492E7 ; 1.2211027620196246E7 ; 1.729260049535639E9 ; 1.8194431154092453E9 ; 0.0
150 ; 1.1307905427814132E7 ; 1.2211027620196246E7 ; 1.7405802216297305E9 ; 1.8316541430294416E9 ; 0.0
151 ; 1.1297240928159075E7 ; 1.2211027620196246E7 ; 1.7518881270575447E9 ; 1.843865170649638E9 ; 0.0
152 ; 1.1290356742177738E7 ; 1.2211027620196246E7 ; 1.7631853679857037E9 ; 1.8560761982698343E9 ; 0.0
153 ; 1.1278909546946881E7 ; 1.2211027620196246E7 ; 1.7744757247278814E9 ; 1.8682872258900306E9 ; 0.0
154 ; 1.1264184529393112E7 ; 1.2211027620196246E7 ; 1.7857546342748282E9 ; 1.880498253510227E9 ; 0.0
155 ; 1.1257142902294362E7 ; 1.2211027620196246E7 ; 1.7970188188042214E9 ; 1.8927092811304233E9 ; 0.0
156 ; 1.124730834374916E7 ; 1.2211027620196246E7 ; 1.8082759617065158E9 ; 1.9049203087506196E9 ; 0.0
157 ; 1.1238460818019124E7 ; 1.2211027620196246E7 ; 1.8195232700502648E9 ; 1.917131336370816E9 ; 0.0
158 ; 1.122408262137318E7 ; 1.2211027620196246E7 ; 1.830761730868284E9 ; 1.9293423639910123E9 ; 0.0
159 ; 1.1216032951631883E7 ; 1.2211027620196246E7 ; 1.8419858134896572E9 ; 1.9415533916112087E9 ; 0.0
160 ; 1.1205194894955736E7 ; 1.2211027620196246E7 ; 1.853201846441289E9 ; 1.953764419231405E9 ; 0.0
161 ; 1.119457805036967E7 ; 1.2211027620196246E7 ; 1.8644070413362446E9 ; 1.9659754468516014E9 ; 0.0
162 ; 1.1183002191477984E7 ; 1.2211027620196246E7 ; 1.8756016193866143E9 ; 1.9781864744717977E9 ; 0.0
163 ; 1.116949625421563E7 ; 1.2211027620196246E7 ; 1.8867846215780923E9 ; 1.990397502091994E9 ; 0.0
164 ; 1.115812299778371E7 ; 1.2211027620196246E7 ; 1.897954117832308E9 ; 2.0026085297121904E9 ; 0.0
165 ; 1.1150309107524699E7 ; 1.2211027620196246E7 ; 1.9091122408300917E9 ; 2.0148195573323867E9 ; 0.0
166 ; 1.1142267550873779E7 ; 1.2211027620196246E7 ; 1.9202625499376163E9 ; 2.027030584952583E9 ; 0.0
167 ; 1.1127139091119904E7 ; 1.2211027620196246E7 ; 1.93140481748849E9 ; 2.0392416125727794E9 ; 0.0
168 ; 1.1115056649392456E7 ; 1.2211027620196246E7 ; 1.94253195657961E9 ; 2.0514526401929758E9 ; 0.0
169 ; 1.11012690050268E7 ; 1.2211027620196246E7 ; 1.9536470132290025E9 ; 2.063663667813172E9 ; 0.0
170 ; 1.1092651998461122E7 ; 1.2211027620196246E7 ; 1.9647482822340293E9 ; 2.0758746954333684E9 ; 0.0
171 ; 1.1082051640746647E7 ; 1.2211027620196246E7 ; 1.9758409342324903E9 ; 2.0880857230535648E9 ; 0.0
172 ; 1.1069947939686017E7 ; 1.2211027620196246E7 ; 1.986922985873237E9 ; 2.1002967506737611E9 ; 0.0
173 ; 1.1059909303176774E7 ; 1.2211027620196246E7 ; 1.997992933812923E9 ; 2.1125077782939575E9 ; 0.0
174 ; 1.1053441879548525E7 ; 1.2211027620196246E7 ; 2.0090528431160998E9 ; 2.1247188059141538E9 ; 0.0
175 ; 1.1048393750429988E7 ; 1.2211027620196246E7 ; 2.0201062849956484E9 ; 2.1369298335343502E9 ; 0.0
176 ; 1.1040266578835418E7 ; 1.2211027620196246E7 ; 2.0311546787460785E9 ; 2.1491408611545463E9 ; 0.0
177 ; 1.1032903019437976E7 ; 1.2211027620196246E7 ; 2.042194945324914E9 ; 2.1613518887747426E9 ; 0.0
178 ; 1.1028121613895072E7 ; 1.2211027620196246E7 ; 2.053227848344352E9 ; 2.173562916394939E9 ; 0.0
179 ; 1.1020483213957474E7 ; 1.2211027620196246E7 ; 2.0642559699582472E9 ; 2.1857739440151353E9 ; 0.0
180 ; 1.1013165886062084E7 ; 1.2211027620196246E7 ; 2.0752764531722047E9 ; 2.1979849716353316E9 ; 0.0
181 ; 1.1005402810214851E7 ; 1.2211027620196246E7 ; 2.0862896190582669E9 ; 2.210195999255528E9 ; 0.0
182 ; 1.0999126151017388E7 ; 1.2211027620196246E7 ; 2.0972950218684816E9 ; 2.2224070268757243E9 ; 0.0
183 ; 1.0993531379635975E7 ; 1.2211027620196246E7 ; 2.108294148019499E9 ; 2.2346180544959207E9 ; 0.0
184 ; 1.0986215717045078E7 ; 1.2211027620196246E7 ; 2.119287679399135E9 ; 2.246829082116117E9 ; 0.0
185 ; 1.0976558289234273E7 ; 1.2211027620196246E7 ; 2.1302738951161802E9 ; 2.2590401097363133E9 ; 0.0
186 ; 1.0970423548490606E7 ; 1.2211027620196246E7 ; 2.1412504534054143E9 ; 2.2712511373565097E9 ; 0.0
187 ; 1.0964165294276537E7 ; 1.2211027620196246E7 ; 2.152220876953905E9 ; 2.283462164976706E9 ; 0.0
188 ; 1.0958238360950012E7 ; 1.2211027620196246E7 ; 2.163185042248182E9 ; 2.2956731925969024E9 ; 0.0
189 ; 1.095107219319853E7 ; 1.2211027620196246E7 ; 2.174143280609132E9 ; 2.3078842202170987E9 ; 0.0
190 ; 1.0945814046744756E7 ; 1.2211027620196246E7 ; 2.1850943528023305E9 ; 2.320095247837295E9 ; 0.0
191 ; 1.0936139847636022E7 ; 1.2211027620196246E7 ; 2.1960401668490753E9 ; 2.3323062754574914E9 ; 0.0
192 ; 1.0929309047610797E7 ; 1.2211027620196246E7 ; 2.2069763066967115E9 ; 2.3445173030776877E9 ; 0.0
193 ; 1.0923862329656614E7 ; 1.2211027620196246E7 ; 2.2179056157443223E9 ; 2.356728330697884E9 ; 0.0
194 ; 1.0918762086257609E7 ; 1.2211027620196246E7 ; 2.228829478073979E9 ; 2.3689393583180804E9 ; 0.0
195 ; 1.0910316603420842E7 ; 1.2211027620196246E7 ; 2.2397482401602364E9 ; 2.381150385938277E9 ; 0.0
196 ; 1.0903635575599309E7 ; 1.2211027620196246E7 ; 2.250658556763657E9 ; 2.393361413558473E9 ; 0.0
