CSV File for the City 4 on Day 205
1 - Minute m 
2 - Power Consumed at minute m 
3 - Power Produced at minute m 
4 - Energy Consumed since the beginning of the day 
5 - Energy Produced since the beginning of the day 
6 - Energy Lost since the beginning of the day on lines starting from the city
 
0 ; 503591.2495477547 ; 1.057419113793877E8 ; 0.0 ; 0.0 ; 0.0
1 ; 513964.0636787298 ; 1.0589152390323317E8 ; 503591.2495477547 ; 1.057419113793877E8 ; 0.0
2 ; 524812.5424000265 ; 1.0635024018176869E8 ; 1017555.3132264845 ; 2.1163343528262088E8 ; 0.0
3 ; 528166.819281334 ; 1.0711807090232968E8 ; 1542367.855626511 ; 3.1798367546438956E8 ; 0.0
4 ; 537613.0842528841 ; 1.0819502583091325E8 ; 2070534.674907845 ; 4.2510174636671925E8 ; 0.0
5 ; 553672.638621432 ; 1.0958111369829756E8 ; 2608147.759160729 ; 5.332967721976325E8 ; 0.0
6 ; 570668.8219509122 ; 1.112763420937061E8 ; 3161820.397782161 ; 6.4287788589593E8 ; 0.0
7 ; 596063.201494444 ; 1.1328071736886549E8 ; 3732489.2197330734 ; 7.541542279896362E8 ; 0.0
8 ; 628817.9340006664 ; 1.1559424455517614E8 ; 4328552.421227518 ; 8.674349453585017E8 ; 0.0
9 ; 678306.6104290987 ; 1.182169272964499E8 ; 4957370.355228184 ; 9.830291899136778E8 ; 0.0
10 ; 757039.5114428592 ; 1.2114876779928225E8 ; 5635676.965657283 ; 1.1012461172101278E9 ; 0.0
11 ; 881739.0437820527 ; 1.2438976680262277E8 ; 6392716.477100141 ; 1.2223948850094101E9 ; 0.0
12 ; 1081371.3893921275 ; 1.2793992356752184E8 ; 7274455.520882194 ; 1.346784651812033E9 ; 0.0
13 ; 1274286.9581145195 ; 1.31799235887384E8 ; 8355826.910274321 ; 1.4747245753795547E9 ; 0.0
14 ; 1297195.2260368657 ; 1.3596770011839747E8 ; 9630113.86838884 ; 1.6065238112669387E9 ; 0.0
15 ; 1307323.9444761663 ; 1.4044531122916174E8 ; 1.0927309094425706E7 ; 1.7424915113853362E9 ; 0.0
16 ; 1314537.4513597481 ; 1.452320628679503E8 ; 1.2234633038901873E7 ; 1.882936822614498E9 ; 0.0
17 ; 1325681.1177009433 ; 1.5032794744553956E8 ; 1.3549170490261622E7 ; 2.028168885482448E9 ; 0.0
18 ; 1336635.0476705956 ; 1.557329562311514E8 ; 1.4874851607962565E7 ; 2.1784968329279876E9 ; 0.0
19 ; 1346379.2865907985 ; 1.6144707945878872E8 ; 1.621148665563316E7 ; 2.334229789159139E9 ; 0.0
20 ; 1356336.9549558572 ; 1.6747030644111606E8 ; 1.755786594222396E7 ; 2.495676868617928E9 ; 0.0
21 ; 1366177.2329432627 ; 1.7380262568803176E8 ; 1.8914202897179816E7 ; 2.663147175059044E9 ; 0.0
22 ; 1373798.6183655276 ; 1.8044402502718955E8 ; 2.028038013012308E7 ; 2.8369498007470756E9 ; 0.0
23 ; 1388277.8613286759 ; 1.873944917239349E8 ; 2.1654178748488605E7 ; 3.0173938257742653E9 ; 0.0
24 ; 1394132.136277942 ; 1.946540125984013E8 ; 2.304245660981728E7 ; 3.2047883174982004E9 ; 0.0
25 ; 1407665.197867349 ; 2.0091061503602976E8 ; 2.4436588746095225E7 ; 3.3994423300966015E9 ; 0.0
26 ; 1415801.2171362897 ; 2.0091783313047335E8 ; 2.5844253943962574E7 ; 3.6003529451326313E9 ; 0.0
27 ; 1427036.6353429693 ; 2.0092542230698493E8 ; 2.7260055161098864E7 ; 3.8012707782631044E9 ; 0.0
28 ; 1435722.1239704017 ; 2.0093336865930015E8 ; 2.8687091796441834E7 ; 4.0021962005700893E9 ; 0.0
29 ; 1445467.2203868967 ; 2.009416583241E8 ; 3.0122813920412235E7 ; 4.2031295692293897E9 ; 0.0
30 ; 1455570.3654981381 ; 2.0095027755310473E8 ; 3.156828114079913E7 ; 4.40407122755349E9 ; 0.0
31 ; 1466450.9762206867 ; 2.0095921277606556E8 ; 3.3023851506297268E7 ; 4.605021505106594E9 ; 0.0
32 ; 1474210.1852447994 ; 2.0096845065488064E8 ; 3.449030248251796E7 ; 4.80598071788266E9 ; 0.0
33 ; 1483850.4250828454 ; 2.009779781292248E8 ; 3.596451266776276E7 ; 5.00694916853754E9 ; 0.0
34 ; 1490596.7979437374 ; 2.0098778245420456E8 ; 3.7448363092845604E7 ; 5.207927146666765E9 ; 0.0
35 ; 1501242.4204749225 ; 2.0099785123063302E8 ; 3.8938959890789345E7 ; 5.40891492912097E9 ; 0.0
36 ; 1512723.3758096357 ; 2.010081724285717E8 ; 4.044020231126427E7 ; 5.609912780351603E9 ; 0.0
37 ; 1521660.820581971 ; 2.0101873440481E8 ; 4.19529256870739E7 ; 5.810920952780174E9 ; 0.0
38 ; 1529434.4549152737 ; 2.0102952591495422E8 ; 4.3474586507655874E7 ; 6.011939687184984E9 ; 0.0
39 ; 1535059.5875419024 ; 2.010405361207822E8 ; 4.5004020962571144E7 ; 6.212969213099938E9 ; 0.0
40 ; 1542807.9335963184 ; 2.010517545934912E8 ; 4.6539080550113045E7 ; 6.41400974922072E9 ; 0.0
41 ; 1550089.5221803598 ; 2.010631713134263E8 ; 4.8081888483709365E7 ; 6.615061503814212E9 ; 0.0
42 ; 1556214.2178106552 ; 2.0107477666683373E8 ; 4.963197800588973E7 ; 6.816124675127638E9 ; 0.0
43 ; 1563221.559001492 ; 2.010865614401353E8 ; 5.118819222370038E7 ; 7.017199451794472E9 ; 0.0
44 ; 1570485.2594451823 ; 2.010985168121696E8 ; 5.275141378270187E7 ; 7.218286013234607E9 ; 0.0
45 ; 1577241.121260153 ; 2.0111063434479937E8 ; 5.4321899042147055E7 ; 7.419384530046777E9 ; 0.0
46 ; 1583237.3870393548 ; 2.0112290597223508E8 ; 5.589914016340721E7 ; 7.620495164391576E9 ; 0.0
47 ; 1585496.5196628293 ; 2.0113532398938227E8 ; 5.748237755044656E7 ; 7.821618070363811E9 ; 0.0
48 ; 1588957.7643831277 ; 2.0114788103947738E8 ; 5.906787407010939E7 ; 8.022753394353193E9 ; 0.0
49 ; 1597101.6601933427 ; 2.0116057010124004E8 ; 6.065683183449252E7 ; 8.223901275392671E9 ; 0.0
50 ; 1600714.038997804 ; 2.011733844757346E8 ; 6.225393349468586E7 ; 8.425061845493911E9 ; 0.0
51 ; 1606838.9606971592 ; 2.0118631777310324E8 ; 6.3854647533683665E7 ; 8.626235229969645E9 ; 0.0
52 ; 1610837.489021762 ; 2.0119936389930585E8 ; 6.5461486494380824E7 ; 8.827421547742748E9 ; 0.0
53 ; 1614252.7995897743 ; 2.0121251704297727E8 ; 6.707232398340259E7 ; 9.028620911642054E9 ; 0.0
54 ; 1617888.6264523945 ; 2.0122577166249195E8 ; 6.868657678299236E7 ; 9.22983342868503E9 ; 0.0
55 ; 1622095.1089183849 ; 2.0123912247330716E8 ; 7.030446540944476E7 ; 9.431059200347523E9 ; 0.0
56 ; 1625770.2592902083 ; 2.012525644356414E8 ; 7.192656051836315E7 ; 9.63229832282083E9 ; 0.0
57 ; 1630896.4428231672 ; 2.0126609274252963E8 ; 7.355233077765335E7 ; 9.833550887256472E9 ; 0.0
58 ; 1633620.3113732645 ; 2.0127970280828705E8 ; 7.518322722047652E7 ; 1.0034816979999E10 ; 0.0
59 ; 1639202.0467561204 ; 2.0129339025740263E8 ; 7.681684753184979E7 ; 1.0236096682807287E10 ; 0.0
60 ; 1642070.6685748692 ; 2.0130715091387597E8 ; 7.84560495786059E7 ; 1.043739007306469E10 ; 0.0
61 ; 1646389.1818745937 ; 2.0132098079100448E8 ; 8.009812024718077E7 ; 1.0638697223978565E10 ; 0.0
62 ; 1648911.0457307326 ; 2.0133487608162212E8 ; 8.174450942905536E7 ; 1.084001820476957E10 ; 0.0
63 ; 1652416.2314650747 ; 2.0134883314878705E8 ; 8.33934204747861E7 ; 1.1041353080851192E10 ; 0.0
64 ; 1654633.3942935679 ; 2.0136284851691124E8 ; 8.504583670625117E7 ; 1.1242701913999979E10 ; 0.0
65 ; 1660377.5006709094 ; 2.0137691886332327E8 ; 8.670047010054474E7 ; 1.144406476251689E10 ; 0.0
66 ; 1663111.182527332 ; 2.0139104101025248E8 ; 8.836084760121565E7 ; 1.1645441681380213E10 ; 0.0
67 ; 1665033.7021559228 ; 2.0140521191722146E8 ; 9.002395878374298E7 ; 1.1846832722390465E10 ; 0.0
68 ; 1671359.9372772812 ; 2.0141942867383286E8 ; 9.16889924858989E7 ; 1.2048237934307686E10 ; 0.0
69 ; 1671916.4945305735 ; 2.014336884929352E8 ; 9.336035242317618E7 ; 1.2249657362981518E10 ; 0.0
70 ; 1678055.2450379853 ; 2.0144798870415205E8 ; 9.503226891770676E7 ; 1.2451091051474453E10 ; 0.0
71 ; 1678508.1294155517 ; 2.0146232674775913E8 ; 9.671032416274475E7 ; 1.2652539040178604E10 ; 0.0
72 ; 1683598.7558830956 ; 2.0147670016889295E8 ; 9.83888322921603E7 ; 1.2854001366926363E10 ; 0.0
73 ; 1686364.7427789515 ; 2.0149110661207575E8 ; 1.000724310480434E8 ; 1.3055478067095257E10 ; 0.0
74 ; 1684299.3451649693 ; 2.0150554381604064E8 ; 1.0175879579082236E8 ; 1.3256969173707333E10 ; 0.0
75 ; 1693388.503531365 ; 2.015200096088423E8 ; 1.0344309513598733E8 ; 1.3458474717523373E10 ; 0.0
76 ; 1695439.940961488 ; 2.0153450190323827E8 ; 1.051364836395187E8 ; 1.3659994727132215E10 ; 0.0
77 ; 1697529.7572648327 ; 2.015490186923261E8 ; 1.0683192358048019E8 ; 1.3861529229035454E10 ; 0.0
78 ; 1698703.3257427805 ; 2.0156355804542366E8 ; 1.0852945333774503E8 ; 1.406307824772778E10 ; 0.0
79 ; 1699405.9480553875 ; 2.0157811810417816E8 ; 1.102281566634878E8 ; 1.4264641805773203E10 ; 0.0
80 ; 1700554.762152216 ; 2.0159269707889226E8 ; 1.119275626115432E8 ; 1.446621992387738E10 ; 0.0
81 ; 1699961.1476441708 ; 2.0160729324505448E8 ; 1.136281173736954E8 ; 1.4667812620956272E10 ; 0.0
82 ; 1700340.192117446 ; 2.0162190494006273E8 ; 1.1532807852133958E8 ; 1.4869419914201326E10 ; 0.0
83 ; 1702318.5379989378 ; 2.0163653056013012E8 ; 1.1702841871345703E8 ; 1.507104181914139E10 ; 0.0
84 ; 1700713.600736025 ; 2.0165116855736223E8 ; 1.1873073725145598E8 ; 1.5272678349701519E10 ; 0.0
85 ; 1701029.3080703032 ; 2.016658174369966E8 ; 1.20431450852192E8 ; 1.547432951825888E10 ; 0.0
86 ; 1703596.9725053294 ; 2.0168047575479457E8 ; 1.221324801602623E8 ; 1.5675995335695877E10 ; 0.0
87 ; 1702109.1560382054 ; 2.0169514211457685E8 ; 1.2383607713276763E8 ; 1.5877675811450672E10 ; 0.0
88 ; 1704946.8869659354 ; 2.0170981516589493E8 ; 1.2553818628880584E8 ; 1.6079370953565248E10 ; 0.0
89 ; 1705113.9460527003 ; 2.017244936018295E8 ; 1.2724313317577177E8 ; 1.6281080768731144E10 ; 0.0
90 ; 1703573.5754624647 ; 2.017391761569097E8 ; 1.2894824712182447E8 ; 1.6482805262332973E10 ; 0.0
91 ; 1702373.6769302967 ; 2.017538616051451E8 ; 1.3065182069728693E8 ; 1.6684544438489883E10 ; 0.0
92 ; 1700380.6150302528 ; 2.0176854875816455E8 ; 1.3235419437421723E8 ; 1.6886298300095028E10 ; 0.0
93 ; 1703431.8764292817 ; 2.0178323646345556E8 ; 1.3405457498924749E8 ; 1.7088066848853193E10 ; 0.0
94 ; 1702966.7490896 ; 2.0179792360269812E8 ; 1.3575800686567676E8 ; 1.728985008531665E10 ; 0.0
95 ; 1700997.256986038 ; 2.018126090901879E8 ; 1.3746097361476636E8 ; 1.749164800891935E10 ; 0.0
96 ; 1698058.167440195 ; 2.0182729187134343E8 ; 1.391619708717524E8 ; 1.7693460618009537E10 ; 0.0
97 ; 1703380.6398281937 ; 2.0184197092129222E8 ; 1.4086002903919262E8 ; 1.789528790988088E10 ; 0.0
98 ; 1700979.130713351 ; 2.0185664524353182E8 ; 1.4256340967902082E8 ; 1.809712988080217E10 ; 0.0
99 ; 1700358.207808599 ; 2.0187131386866105E8 ; 1.4426438880973417E8 ; 1.82989865260457E10 ; 0.0
100 ; 1700680.104663878 ; 2.0188597585317755E8 ; 1.4596474701754278E8 ; 1.850085783991436E10 ; 0.0
101 ; 1698663.5555257648 ; 2.0190063027833796E8 ; 1.4766542712220666E8 ; 1.8702743815767536E10 ; 0.0
102 ; 1696785.3324407188 ; 2.0191527624907693E8 ; 1.493640906777324E8 ; 1.8904644446045876E10 ; 0.0
103 ; 1698821.7655992208 ; 2.0192991289298195E8 ; 1.510608760101731E8 ; 1.9106559722294952E10 ; 0.0
104 ; 1698283.621113895 ; 2.019445393593205E8 ; 1.5275969777577233E8 ; 1.9308489635187935E10 ; 0.0
105 ; 1696715.5847912359 ; 2.0195915481811684E8 ; 1.5445798139688623E8 ; 1.9510434174547256E10 ; 0.0
106 ; 1695117.794203223 ; 2.019737584592757E8 ; 1.5615469698167747E8 ; 1.971239332936537E10 ; 0.0
107 ; 1696212.5669449652 ; 2.019883494917498E8 ; 1.578498147758807E8 ; 1.9914367087824646E10 ; 0.0
108 ; 1692637.8515195188 ; 2.020029271427495E8 ; 1.5954602734282565E8 ; 2.0116355437316395E10 ; 0.0
109 ; 1694055.164068208 ; 2.0201749065699145E8 ; 1.6123866519434518E8 ; 2.0318358364459145E10 ; 0.0
110 ; 1691584.7580814732 ; 2.0203203929598492E8 ; 1.629327203584134E8 ; 2.0520375855116135E10 ; 0.0
111 ; 1690820.2176258934 ; 2.020465723373529E8 ; 1.6462430511649486E8 ; 2.072240789441212E10 ; 0.0
112 ; 1692101.0310749994 ; 2.020610890741867E8 ; 1.6631512533412075E8 ; 2.0924454466749474E10 ; 0.0
113 ; 1689034.9139270412 ; 2.020755888144322E8 ; 1.6800722636519575E8 ; 2.112651555582366E10 ; 0.0
114 ; 1686225.7868685909 ; 2.0209007088030535E8 ; 1.696962612791228E8 ; 2.1328591144638096E10 ; 0.0
115 ; 1688276.7679072886 ; 2.0210453460773644E8 ; 1.713824870659914E8 ; 2.1530681215518402E10 ; 0.0
116 ; 1686628.0338100053 ; 2.0211897934584057E8 ; 1.730707638338987E8 ; 2.1732785750126137E10 ; 0.0
117 ; 1684566.9676623654 ; 2.021334044564138E8 ; 1.747573918677087E8 ; 2.1934904729471977E10 ; 0.0
118 ; 1680593.1739445173 ; 2.0214780931345272E8 ; 1.7644195883537108E8 ; 2.213703813392839E10 ; 0.0
119 ; 1683910.4168570193 ; 2.0216219330269706E8 ; 1.7812255200931558E8 ; 2.2339185943241844E10 ; 0.0
120 ; 1679017.5576067695 ; 2.0217655582119367E8 ; 1.798064624261726E8 ; 2.254134813654454E10 ; 0.0
121 ; 1677886.9891899128 ; 2.021908962768807E8 ; 1.8148547998377937E8 ; 2.2743524692365734E10 ; 0.0
122 ; 1678653.46909743 ; 2.0220521408819127E8 ; 1.831633669729693E8 ; 2.2945715588642616E10 ; 0.0
123 ; 1676140.3841086728 ; 2.0221950868367526E8 ; 1.8484202044206673E8 ; 2.314792080273081E10 ; 0.0
124 ; 1672931.1188174346 ; 2.0223377950163865E8 ; 1.865181608261754E8 ; 2.3350140311414482E10 ; 0.0
125 ; 1673439.2792980187 ; 2.0224802598979908E8 ; 1.8819109194499284E8 ; 2.3552374090916122E10 ; 0.0
126 ; 1668285.758069897 ; 2.0226224760495725E8 ; 1.8986453122429085E8 ; 2.3754622116905922E10 ; 0.0
127 ; 1668537.6023574106 ; 2.022764438126832E8 ; 1.9153281698236075E8 ; 2.395688436451088E10 ; 0.0
128 ; 1664527.8669692872 ; 2.0229061408701637E8 ; 1.9320135458471817E8 ; 2.4159160808323563E10 ; 0.0
129 ; 1665245.6388412004 ; 2.023047579101794E8 ; 1.9486588245168746E8 ; 2.436145142241058E10 ; 0.0
130 ; 1662367.922213182 ; 2.023188747723045E8 ; 1.9653112809052867E8 ; 2.456375618032076E10 ; 0.0
131 ; 1655183.427917558 ; 2.02332964171172E8 ; 1.9819349601274186E8 ; 2.4766075055093063E10 ; 0.0
132 ; 1654419.5975829584 ; 2.023470256119601E8 ; 1.9984867944065943E8 ; 2.4968408019264236E10 ; 0.0
133 ; 1646218.6517913358 ; 2.023610586070062E8 ; 2.015030990382424E8 ; 2.5170755044876198E10 ; 0.0
134 ; 1645933.5125508157 ; 2.0237506267557785E8 ; 2.0314931769003373E8 ; 2.5373116103483204E10 ; 0.0
135 ; 1640609.823699366 ; 2.0238903734365425E8 ; 2.0479525120258453E8 ; 2.5575491166158783E10 ; 0.0
136 ; 1635790.3932326117 ; 2.0240298214371678E8 ; 2.064358610262839E8 ; 2.5777880203502438E10 ; 0.0
137 ; 1628737.8341903053 ; 2.024168966145488E8 ; 2.080716514195165E8 ; 2.5980283185646152E10 ; 0.0
138 ; 1625800.9088513977 ; 2.0243078030104366E8 ; 2.097003892537068E8 ; 2.61827000822607E10 ; 0.0
139 ; 1618500.0408291977 ; 2.0244463275402114E8 ; 2.113261901625582E8 ; 2.6385130862561745E10 ; 0.0
140 ; 1616575.328732199 ; 2.024584535300516E8 ; 2.129446902033874E8 ; 2.6587575495315765E10 ; 0.0
141 ; 1611211.5692450702 ; 2.0247224219128734E8 ; 2.145612655321196E8 ; 2.6790033948845818E10 ; 0.0
142 ; 1607523.0784908498 ; 2.0248599830530134E8 ; 2.1617247710136467E8 ; 2.6992506191037106E10 ; 0.0
143 ; 1599251.0754765295 ; 2.024997214449323E8 ; 2.1778000017985553E8 ; 2.7194992189342407E10 ; 0.0
144 ; 1596272.1990849865 ; 2.0251341118813655E8 ; 2.1937925125533205E8 ; 2.739749191078734E10 ; 0.0
145 ; 1594168.424222451 ; 2.025270671178457E8 ; 2.2097552345441705E8 ; 2.7600005321975475E10 ; 0.0
146 ; 1594274.3923371017 ; 2.0254068882183042E8 ; 2.225696918786395E8 ; 2.7802532389093323E10 ; 0.0
147 ; 1590467.523578356 ; 2.025542758925695E8 ; 2.241639662709766E8 ; 2.8005073077915154E10 ; 0.0
148 ; 1585410.984528899 ; 2.0256782792712462E8 ; 2.2575443379455495E8 ; 2.8207627353807724E10 ; 0.0
149 ; 1583508.9886115082 ; 2.0258134452701974E8 ; 2.2733984477908385E8 ; 2.8410195181734848E10 ; 0.0
150 ; 1580663.0515400965 ; 2.0259482529812586E8 ; 2.2892335376769537E8 ; 2.8612776526261868E10 ; 0.0
151 ; 1581333.8859139038 ; 2.0260826985054988E8 ; 2.3050401681923547E8 ; 2.8815371351559994E10 ; 0.0
152 ; 1577537.5990456035 ; 2.0262167779852843E8 ; 2.3208535070514938E8 ; 2.9017979621410545E10 ; 0.0
153 ; 1576775.5585159073 ; 2.0263504876032552E8 ; 2.33662888304195E8 ; 2.9220601299209072E10 ; 0.0
154 ; 1574677.436591216 ; 2.0264838235813445E8 ; 2.352396638627109E8 ; 2.94232363479694E10 ; 0.0
155 ; 1572580.2607504572 ; 2.0266167821798357E8 ; 2.368143412993021E8 ; 2.9625884730327534E10 ; 0.0
156 ; 1571074.873957495 ; 2.0267493596964577E8 ; 2.3838692156005254E8 ; 2.9828546408545517E10 ; 0.0
157 ; 1566748.9532782477 ; 2.0268815524655145E8 ; 2.3995799643401003E8 ; 3.0031221344515163E10 ; 0.0
158 ; 1565949.9250821746 ; 2.0270133568570498E8 ; 2.4152474538728827E8 ; 3.0233909499761715E10 ; 0.0
159 ; 1563130.4960031898 ; 2.027144769276043E8 ; 2.4309069531237045E8 ; 3.043661083544742E10 ; 0.0
160 ; 1562694.553076152 ; 2.0272757861616373E8 ; 2.4465382580837363E8 ; 3.0639325312375023E10 ; 0.0
161 ; 1558626.3452860666 ; 2.0274064039863983E8 ; 2.4621652036144978E8 ; 3.0842052890991188E10 ; 0.0
162 ; 1555592.0770937046 ; 2.0275366192555988E8 ; 2.4777514670673585E8 ; 3.1044793531389828E10 ; 0.0
163 ; 1554217.9871181478 ; 2.0276664285065338E8 ; 2.4933073878382954E8 ; 3.1247547193315388E10 ; 0.0
164 ; 1552940.3724149182 ; 2.027795828307859E8 ; 2.508849567709477E8 ; 3.1450313836166042E10 ; 0.0
165 ; 1548622.4924184924 ; 2.0279248152589574E8 ; 2.524378971433626E8 ; 3.165309341899683E10 ; 0.0
166 ; 1547882.9577472399 ; 2.028053385989328E8 ; 2.539865196357811E8 ; 3.1855885900522724E10 ; 0.0
167 ; 1545933.957752902 ; 2.028181537157997E8 ; 2.5553440259352836E8 ; 3.205869123912166E10 ; 0.0
168 ; 1544014.2325037562 ; 2.0283092654529542E8 ; 2.5708033655128127E8 ; 3.226150939283746E10 ; 0.0
169 ; 1540471.6488829742 ; 2.028436567590608E8 ; 2.5862435078378502E8 ; 3.2464340319382755E10 ; 0.0
170 ; 1540065.4808955186 ; 2.0285634403152612E8 ; 2.60164822432668E8 ; 3.2667183976141815E10 ; 0.0
171 ; 1538259.6234952984 ; 2.028689880398608E8 ; 2.6170488791356352E8 ; 3.287004032017334E10 ; 0.0
172 ; 1533990.1373426246 ; 2.0288158846392483E8 ; 2.6324314753705883E8 ; 3.30729093082132E10 ; 0.0
173 ; 1532355.4638875045 ; 2.0289414498622194E8 ; 2.6477713767440146E8 ; 3.3275790896677124E10 ; 0.0
174 ; 1529895.8829124114 ; 2.0290665729185483E8 ; 2.6630949313828897E8 ; 3.3478685041663345E10 ; 0.0
175 ; 1527234.628859485 ; 2.0291912506848165E8 ; 2.6783938902120137E8 ; 3.36815916989552E10 ; 0.0
176 ; 1527747.125874458 ; 2.0293154800627443E8 ; 2.6936662365006083E8 ; 3.388451082402368E10 ; 0.0
177 ; 1526895.00827315 ; 2.0294392579787883E8 ; 2.708943707759353E8 ; 3.4087442372029957E10 ; 0.0
178 ; 1521683.29877068 ; 2.0295625813837543E8 ; 2.724212657842084E8 ; 3.4290386297827835E10 ; 0.0
179 ; 1522674.6793952775 ; 2.0296854472524256E8 ; 2.739429490829791E8 ; 3.449334255596621E10 ; 0.0
180 ; 1523397.3944474228 ; 2.029807852583202E8 ; 2.7546562376237434E8 ; 3.469631110069145E10 ; 0.0
181 ; 1520342.1704983374 ; 2.029929794397757E8 ; 2.769890211568218E8 ; 3.4899291885949776E10 ; 0.0
182 ; 1518850.5456727261 ; 2.0300512697407E8 ; 2.785093633273201E8 ; 3.510228486538955E10 ; 0.0
183 ; 1516818.4833761298 ; 2.03017227567926E8 ; 2.800282138729928E8 ; 3.530528999236362E10 ; 0.0
184 ; 1514120.7979574215 ; 2.030292809302972E8 ; 2.8154503235636896E8 ; 3.550830721993154E10 ; 0.0
185 ; 1512865.6388330585 ; 2.0304128677233818E8 ; 2.830591531543264E8 ; 3.571133650086184E10 ; 0.0
186 ; 1512005.0275667938 ; 2.0305324480737573E8 ; 2.845720187931594E8 ; 3.591437778763418E10 ; 0.0
187 ; 1510033.3689142922 ; 2.0306515475088108E8 ; 2.860840238207262E8 ; 3.611743103244155E10 ; 0.0
188 ; 1508534.6429457848 ; 2.030770163204434E8 ; 2.875940571896405E8 ; 3.632049618719243E10 ; 0.0
189 ; 1506688.2824232318 ; 2.0308882923574388E8 ; 2.891025918325863E8 ; 3.652357320351287E10 ; 0.0
190 ; 1507196.8494529077 ; 2.031005932185311E8 ; 2.9060928011500955E8 ; 3.672666203274861E10 ; 0.0
191 ; 1505099.2010790412 ; 2.03112307992597E8 ; 2.9211647696446246E8 ; 3.692976262596714E10 ; 0.0
192 ; 1504238.3380297427 ; 2.0312397328375393E8 ; 2.936215761655415E8 ; 3.713287493395974E10 ; 0.0
193 ; 1500239.0481050569 ; 2.0313558881981233E8 ; 2.951258145035713E8 ; 3.733599890724349E10 ; 0.0
194 ; 1497998.6111164489 ; 2.0314715433055946E8 ; 2.9662605355167633E8 ; 3.75391344960633E10 ; 0.0
195 ; 1501434.6306003504 ; 2.031586695477387E8 ; 2.981240521627928E8 ; 3.774228165039386E10 ; 0.0
196 ; 1495850.856242243 ; 2.031701342050296E8 ; 2.9962548679339314E8 ; 3.79454403199416E10 ; 0.0
197 ; 1495223.9370070754 ; 2.0318154803802884E8 ; 3.011213376496354E8 ; 3.814861045414663E10 ; 0.0
198 ; 1494922.9686124758 ; 2.0319291078423163E8 ; 3.0261656158664244E8 ; 3.835179200218466E10 ; 0.0
199 ; 1491891.4581622088 ; 2.0320422218301395E8 ; 3.0411148455525494E8 ; 3.8554984912968895E10 ; 0.0
