CSV File for the City 6 on Day 171
1 - Minute m 
2 - Power Consumed at minute m 
3 - Power Produced at minute m 
4 - Energy Consumed since the beginning of the day 
5 - Energy Produced since the beginning of the day 
6 - Energy Lost since the beginning of the day on lines starting from the city
 
0 ; 3617351.65105674 ; 1.060389292853044E8 ; 0.0 ; 0.0 ; 0.0
1 ; 3627517.940813974 ; 1.0618978411401671E8 ; 3617351.65105674 ; 1.060389292853044E8 ; 0.0
2 ; 3636147.342241589 ; 1.066496333720999E8 ; 7244869.591870714 ; 2.122287133993211E8 ; 0.0
3 ; 3643403.1506484696 ; 1.0741848108975679E8 ; 1.0881016934112303E7 ; 3.18878346771421E8 ; 0.0
4 ; 3658805.3655626806 ; 1.0849633088344586E8 ; 1.4524420084760772E7 ; 4.262968278611778E8 ; 0.0
5 ; 3677166.5778336553 ; 1.0988318593427086E8 ; 1.818322545032345E7 ; 5.3479315874462366E8 ; 0.0
6 ; 3701676.3053816007 ; 1.1157904896857682E8 ; 2.1860392028157108E7 ; 6.446763446788945E8 ; 0.0
7 ; 3738916.8516004276 ; 1.1358392224102533E8 ; 2.5562068333538707E7 ; 7.562553936474713E8 ; 0.0
8 ; 3786451.747453754 ; 1.1589780752039039E8 ; 2.9300985185139135E7 ; 8.698393158884966E8 ; 0.0
9 ; 3866746.5978250103 ; 1.1852070607828438E8 ; 3.3087436932592887E7 ; 9.85737123408887E8 ; 0.0
10 ; 3988229.920954547 ; 1.2145261868098068E8 ; 3.69541835304179E7 ; 1.1042578294871714E9 ; 0.0
11 ; 4185617.20668909 ; 1.2469354558445725E8 ; 4.0942413451372445E7 ; 1.225710448168152E9 ; 0.0
12 ; 4500113.746560634 ; 1.282434865327361E8 ; 4.5128030658061534E7 ; 1.3504039937526093E9 ; 0.0
13 ; 4803057.471586965 ; 1.3210244075954384E8 ; 4.962814440462217E7 ; 1.4786474802853453E9 ; 0.0
14 ; 4836973.599421277 ; 1.362704069932682E8 ; 5.443120187620913E7 ; 1.6107499210448892E9 ; 0.0
15 ; 4847325.563962711 ; 1.4074738346513504E8 ; 5.926817547563041E7 ; 1.7470203280381575E9 ; 0.0
16 ; 4861184.136671261 ; 1.455333679204829E8 ; 6.411550103959312E7 ; 1.8877677115032926E9 ; 0.0
17 ; 4870154.785078648 ; 1.5062835763296667E8 ; 6.897668517626439E7 ; 2.0333010794237754E9 ; 0.0
18 ; 4883855.3704892825 ; 1.5603234942148262E8 ; 7.384683996134304E7 ; 2.183929437056742E9 ; 0.0
19 ; 4896160.70769432 ; 1.6174533966957226E8 ; 7.873069533183232E7 ; 2.3399617864782248E9 ; 0.0
20 ; 4912648.547752921 ; 1.6776732434703276E8 ; 8.362685603952664E7 ; 2.501707126147797E9 ; 0.0
21 ; 4922975.8011594815 ; 1.7409829903344217E8 ; 8.853950458727956E7 ; 2.6694744504948297E9 ; 0.0
22 ; 4939126.480829414 ; 1.8073825894328874E8 ; 9.346248038843904E7 ; 2.8435727495282717E9 ; 0.0
23 ; 4949473.310691166 ; 1.8768719895239002E8 ; 9.840160686926846E7 ; 3.0243110084715605E9 ; 0.0
24 ; 4956344.726283927 ; 1.949451136252815E8 ; 1.0335108017995963E8 ; 3.2119982074239507E9 ; 0.0
25 ; 4977100.481709282 ; 2.0120003814144653E8 ; 1.0830742490624355E8 ; 3.406943321049232E9 ; 0.0
26 ; 4987662.33056073 ; 2.0120551436061174E8 ; 1.1328452538795283E8 ; 3.6081433591906786E9 ; 0.0
27 ; 4998702.211562301 ; 2.012113053761163E8 ; 1.1827218771851356E8 ; 3.8093488735512905E9 ; 0.0
28 ; 5013854.991469926 ; 2.012174047899478E8 ; 1.2327088993007587E8 ; 4.010560178927407E9 ; 0.0
29 ; 5022421.737971681 ; 2.0122380603380328E8 ; 1.2828474492154579E8 ; 4.211777583717355E9 ; 0.0
30 ; 5031825.57755121 ; 2.0123050239623678E8 ; 1.3330716665951747E8 ; 4.413001389751158E9 ; 0.0
31 ; 5046489.858061775 ; 2.012374870489455E8 ; 1.3833899223706868E8 ; 4.614231892147394E9 ; 0.0
32 ; 5058589.8787713405 ; 2.0124475307202807E8 ; 1.4338548209513044E8 ; 4.81546937919634E9 ; 0.0
33 ; 5072676.448392034 ; 2.012522934780778E8 ; 1.4844407197390178E8 ; 5.016714132268368E9 ; 0.0
34 ; 5083585.497284165 ; 2.012601012349989E8 ; 1.535167484222938E8 ; 5.217966425746446E9 ; 0.0
35 ; 5090224.6067615235 ; 2.01268169287462E8 ; 1.58600333919578E8 ; 5.419226526981444E9 ; 0.0
36 ; 5104717.276701261 ; 2.0127649057693815E8 ; 1.636905585263395E8 ; 5.620494696268907E9 ; 0.0
37 ; 5111891.688538896 ; 2.012850580602744E8 ; 1.6879527580304077E8 ; 5.821771186845844E9 ; 0.0
38 ; 5115943.292583456 ; 2.0129386472679418E8 ; 1.7390716749157968E8 ; 6.023056244906118E9 ; 0.0
39 ; 5130321.410553673 ; 2.013029036139249E8 ; 1.7902311078416315E8 ; 6.224350109632913E9 ; 0.0
40 ; 5134656.427899765 ; 2.013121678213702E8 ; 1.841534321947168E8 ; 6.425653013246838E9 ; 0.0
41 ; 5145110.310524878 ; 2.0132165052385995E8 ; 1.892880886226166E8 ; 6.626965181068208E9 ; 0.0
42 ; 5153025.042310313 ; 2.013313449825208E8 ; 1.9443319893314147E8 ; 6.828286831592068E9 ; 0.0
43 ; 5163889.394476044 ; 2.0134124455492154E8 ; 1.995862239754518E8 ; 7.029618176574589E9 ; 0.0
44 ; 5167090.340356095 ; 2.013513427038535E8 ; 2.0475011336992785E8 ; 7.23095942112951E9 ; 0.0
45 ; 5175095.200701329 ; 2.0136163300491288E8 ; 2.0991720371028394E8 ; 7.432310763833364E9 ; 0.0
46 ; 5177926.278314751 ; 2.0137210915295568E8 ; 2.1509229891098526E8 ; 7.633672396838277E9 ; 0.0
47 ; 5185236.623320629 ; 2.0138276496749812E8 ; 2.202702251893E8 ; 7.835044505991233E9 ; 0.0
48 ; 5184593.252206453 ; 2.0139359439713693E8 ; 2.2545546181262064E8 ; 8.036427270958731E9 ; 0.0
49 ; 5189772.250619035 ; 2.0140459152306432E8 ; 2.3064005506482708E8 ; 8.237820865355867E9 ; 0.0
50 ; 5196557.311168701 ; 2.014157505617507E8 ; 2.358298273154461E8 ; 8.439225456878932E9 ; 0.0
51 ; 5198265.5969535075 ; 2.0142706586686766E8 ; 2.410263846266148E8 ; 8.640641207440683E9 ; 0.0
52 ; 5200860.811982703 ; 2.0143853193052033E8 ; 2.4622465022356832E8 ; 8.84206827330755E9 ; 0.0
53 ; 5202040.306454202 ; 2.0145014338385668E8 ; 2.51425511035551E8 ; 9.043506805238071E9 ; 0.0
54 ; 5208920.2411143705 ; 2.0146189499711704E8 ; 2.5662755134200522E8 ; 9.244956948621927E9 ; 0.0
55 ; 5210721.883328819 ; 2.014737816791843E8 ; 2.618364715831196E8 ; 9.446418843619045E9 ; 0.0
56 ; 5212496.610939531 ; 2.0148579847669187E8 ; 2.6704719346644843E8 ; 9.64789262529823E9 ; 0.0
57 ; 5212195.046683309 ; 2.01497940572742E8 ; 2.722596900773879E8 ; 9.849378423774921E9 ; 0.0
58 ; 5215472.92628517 ; 2.0151020328528404E8 ; 2.7747188512407124E8 ; 1.0050876364347664E10 ; 0.0
59 ; 5216129.045766035 ; 2.015225820651985E8 ; 2.826873580503564E8 ; 1.0252386567632948E10 ; 0.0
60 ; 5218265.480495115 ; 2.015350724941283E8 ; 2.8790348709612244E8 ; 1.0453909149698147E10 ; 0.0
61 ; 5225793.463339755 ; 2.0154767028209636E8 ; 2.9312175257661754E8 ; 1.0655444222192276E10 ; 0.0
62 ; 5226724.49959785 ; 2.015603712649445E8 ; 2.983475460399573E8 ; 1.0856991892474373E10 ; 0.0
63 ; 5222546.271233258 ; 2.0157317140162498E8 ; 3.0357427053955513E8 ; 1.1058552263739317E10 ; 0.0
64 ; 5228996.216643962 ; 2.0158606677137452E8 ; 3.087968168107884E8 ; 1.1260125435140942E10 ; 0.0
65 ; 5227203.866377146 ; 2.0159905357079566E8 ; 3.140258130274324E8 ; 1.1461711501912315E10 ; 0.0
66 ; 5229764.71040171 ; 2.0161212811086965E8 ; 3.1925301689380956E8 ; 1.166331055548311E10 ; 0.0
67 ; 5234254.536284206 ; 2.0162528681392094E8 ; 3.244827816042113E8 ; 1.186492268359398E10 ; 0.0
68 ; 5232817.746614766 ; 2.0163852621055213E8 ; 3.297170361404955E8 ; 1.2066547970407902E10 ; 0.0
69 ; 5233020.234219654 ; 2.016518429365653E8 ; 3.3494985388711023E8 ; 1.2268186496618454E10 ; 0.0
70 ; 5236058.358212397 ; 2.0166523372988454E8 ; 3.401828741213299E8 ; 1.246983833955502E10 ; 0.0
71 ; 5237919.515566036 ; 2.0167869542749137E8 ; 3.454189324795423E8 ; 1.2671503573284904E10 ; 0.0
72 ; 5240811.471591406 ; 2.0169222496238485E8 ; 3.5065685199510837E8 ; 1.2873182268712397E10 ; 0.0
73 ; 5239342.488423552 ; 2.0170581936057502E8 ; 3.558976634666998E8 ; 1.3074874493674782E10 ; 0.0
74 ; 5239581.8948545605 ; 2.0171947573811793E8 ; 3.611370059551233E8 ; 1.3276580313035357E10 ; 0.0
75 ; 5241014.149255347 ; 2.0173319129819915E8 ; 3.6637658784997785E8 ; 1.3478299788773474E10 ; 0.0
76 ; 5242406.810628967 ; 2.0174696332827124E8 ; 3.716176019992332E8 ; 1.3680032980071672E10 ; 0.0
77 ; 5243133.166135876 ; 2.0176078919724998E8 ; 3.7686000880986214E8 ; 1.3881779943399944E10 ; 0.0
78 ; 5237008.467280579 ; 2.0177466635277325E8 ; 3.82103141975998E8 ; 1.4083540732597195E10 ; 0.0
79 ; 5233702.445493524 ; 2.0178859231852543E8 ; 3.8734015044327855E8 ; 1.4285315398949968E10 ; 0.0
80 ; 5230694.338741568 ; 2.018025646916298E8 ; 3.925738528887721E8 ; 1.4487103991268494E10 ; 0.0
81 ; 5231213.219777261 ; 2.0181658114011046E8 ; 3.978045472275136E8 ; 1.4688906555960123E10 ; 0.0
82 ; 5223619.640357105 ; 2.0183063940042543E8 ; 4.030357604472909E8 ; 1.4890723137100233E10 ; 0.0
83 ; 5221647.695150125 ; 2.0184473727507102E8 ; 4.08259380087648E8 ; 1.5092553776500658E10 ; 0.0
84 ; 5212563.954866523 ; 2.018588726302581E8 ; 4.134810277827981E8 ; 1.5294398513775728E10 ; 0.0
85 ; 5211697.481201604 ; 2.0187304339366034E8 ; 4.1869359173766464E8 ; 1.5496257386405987E10 ; 0.0
86 ; 5209549.410348261 ; 2.0188724755223373E8 ; 4.239052892188662E8 ; 1.5698130429799646E10 ; 0.0
87 ; 5204027.53194876 ; 2.019014831501069E8 ; 4.2911483862921447E8 ; 1.5900017677351881E10 ; 0.0
88 ; 5202257.468322336 ; 2.019157482865415E8 ; 4.343188661611632E8 ; 1.6101919160501987E10 ; 0.0
89 ; 5194841.283477689 ; 2.0193004111396116E8 ; 4.3952112362948555E8 ; 1.6303834908788528E10 ; 0.0
90 ; 5196115.901152298 ; 2.0194435983604848E8 ; 4.447159649129632E8 ; 1.6505764949902489E10 ; 0.0
91 ; 5189178.181164363 ; 2.019587027059079E8 ; 4.499120808141155E8 ; 1.6707709309738537E10 ; 0.0
92 ; 5183071.850483096 ; 2.0197306802429387E8 ; 4.551012589952799E8 ; 1.6909668012444445E10 ; 0.0
93 ; 5178585.850167722 ; 2.0198745413790178E8 ; 4.60284330845763E8 ; 1.7111641080468739E10 ; 0.0
94 ; 5179705.319204395 ; 2.02001859437721E8 ; 4.654629166959308E8 ; 1.731362853460664E10 ; 0.0
95 ; 5172284.811889736 ; 2.020162823574479E8 ; 4.7064262201513517E8 ; 1.751563039404436E10 ; 0.0
96 ; 5170079.159908615 ; 2.0203072137195677E8 ; 4.758149068270249E8 ; 1.771764667640181E10 ; 0.0
97 ; 5159851.333473156 ; 2.0204517499582797E8 ; 4.8098498598693347E8 ; 1.7919677397773766E10 ; 0.0
98 ; 5156824.3374703005 ; 2.020596417819305E8 ; 4.861448373204066E8 ; 1.8121722572769592E10 ; 0.0
99 ; 5149902.130527465 ; 2.0207412032005787E8 ; 4.913016616578769E8 ; 1.832378221455152E10 ; 0.0
100 ; 5144598.821220478 ; 2.020886092356154E8 ; 4.9645156378840435E8 ; 1.852585633487158E10 ; 0.0
101 ; 5140129.810347492 ; 2.0210310718835717E8 ; 5.015961626096248E8 ; 1.8727944944107193E10 ; 0.0
102 ; 5134641.07421279 ; 2.0211761287117115E8 ; 5.067362924199723E8 ; 1.893004805129555E10 ; 0.0
103 ; 5129636.234805497 ; 2.0213212500891042E8 ; 5.118709334941851E8 ; 1.913216566416672E10 ; 0.0
104 ; 5125793.513932109 ; 2.0214664235726938E8 ; 5.170005697289906E8 ; 1.9334297789175632E10 ; 0.0
105 ; 5117640.128553948 ; 2.0216116370170295E8 ; 5.221263632429227E8 ; 1.95364444315329E10 ; 0.0
106 ; 5110850.095147849 ; 2.0217568785638735E8 ; 5.2724400337147665E8 ; 1.9738605595234604E10 ; 0.0
107 ; 5107555.997457927 ; 2.021902136632208E8 ; 5.323548534666245E8 ; 1.9940781283090992E10 ; 0.0
108 ; 5102597.980887732 ; 2.0220473999086297E8 ; 5.374624094640825E8 ; 2.014297149675421E10 ; 0.0
109 ; 5095043.6680829255 ; 2.022192657338114E8 ; 5.425650074449703E8 ; 2.0345176236745075E10 ; 0.0
110 ; 5088419.108241548 ; 2.022337898115135E8 ; 5.476600511130532E8 ; 2.0547395502478886E10 ; 0.0
111 ; 5082554.875465692 ; 2.0224831116751313E8 ; 5.527484702212948E8 ; 2.0749629292290398E10 ; 0.0
112 ; 5077076.883597635 ; 2.0226282876862985E8 ; 5.578310250967605E8 ; 2.0951877603457912E10 ; 0.0
113 ; 5070853.400942235 ; 2.0227734160417014E8 ; 5.629081019803581E8 ; 2.1154140432226543E10 ; 0.0
114 ; 5062899.663134615 ; 2.0229184868516907E8 ; 5.679789553813003E8 ; 2.1356417773830715E10 ; 0.0
115 ; 5056141.31207737 ; 2.0230634904366112E8 ; 5.730418550444349E8 ; 2.1558709622515884E10 ; 0.0
116 ; 5047212.555253777 ; 2.0232084173197925E8 ; 5.780979963565123E8 ; 2.1761015971559547E10 ; 0.0
117 ; 5040130.121326798 ; 2.0233532582208103E8 ; 5.83145208911766E8 ; 2.1963336813291527E10 ; 0.0
118 ; 5034996.220327711 ; 2.0234980040490058E8 ; 5.881853390330929E8 ; 2.216567213911361E10 ; 0.0
119 ; 5028730.840680311 ; 2.0236426458972555E8 ; 5.932203352534206E8 ; 2.236802193951851E10 ; 0.0
120 ; 5020632.133901111 ; 2.02378717503598E8 ; 5.98249066094101E8 ; 2.2570386204108234E10 ; 0.0
121 ; 5016077.352065952 ; 2.0239315829073828E8 ; 6.032696982280021E8 ; 2.277276492161183E10 ; 0.0
122 ; 5010378.41473569 ; 2.0240758611199093E8 ; 6.08285775580068E8 ; 2.297515807990257E10 ; 0.0
123 ; 5000825.584575462 ; 2.0242200014429164E8 ; 6.132961539948037E8 ; 2.317756566601456E10 ; 0.0
124 ; 4994087.089640617 ; 2.0243639958015493E8 ; 6.182969795793791E8 ; 2.337998766615885E10 ; 0.0
125 ; 4985799.2260165475 ; 2.0245078362718073E8 ; 6.232910666690197E8 ; 2.3582424065739006E10 ; 0.0
126 ; 4977979.19927034 ; 2.024651515075803E8 ; 6.282768658950362E8 ; 2.3784874849366188E10 ; 0.0
127 ; 4970030.097499598 ; 2.024795024577197E8 ; 6.332548450943066E8 ; 2.3987340000873768E10 ; 0.0
128 ; 4960255.608459511 ; 2.0249383572768077E8 ; 6.382248751918062E8 ; 2.4189819503331486E10 ; 0.0
129 ; 4956055.596106854 ; 2.025081505808384E8 ; 6.431851308002657E8 ; 2.4392313339059166E10 ; 0.0
130 ; 4943746.684743305 ; 2.0252244629345396E8 ; 6.481411863963726E8 ; 2.4594821489640003E10 ; 0.0
131 ; 4931187.96209724 ; 2.0253672215428397E8 ; 6.530849330811158E8 ; 2.4797343935933456E10 ; 0.0
132 ; 4922513.924379658 ; 2.0255097746420312E8 ; 6.580161210432131E8 ; 2.499988065808774E10 ; 0.0
133 ; 4910400.728312958 ; 2.0256521153584176E8 ; 6.629386349675928E8 ; 2.5202431635551945E10 ; 0.0
134 ; 4897500.024523567 ; 2.0257942369323668E8 ; 6.678490356959058E8 ; 2.5404996847087788E10 ; 0.0
135 ; 4883931.982778974 ; 2.0259361327149472E8 ; 6.727465357204294E8 ; 2.5607576270781025E10 ; 0.0
136 ; 4872811.806798865 ; 2.0260777961646917E8 ; 6.776304677032084E8 ; 2.581016988405252E10 ; 0.0
137 ; 4863540.055675954 ; 2.026219220844478E8 ; 6.825032795100073E8 ; 2.601277766366899E10 ; 0.0
138 ; 4844690.632497888 ; 2.026360400418525E8 ; 6.873668195656832E8 ; 2.6215399585753437E10 ; 0.0
139 ; 4834943.87924827 ; 2.0265013286495E8 ; 6.922115101981812E8 ; 2.6418035625795288E10 ; 0.0
140 ; 4827357.425821632 ; 2.0266419993957308E8 ; 6.970464540774294E8 ; 2.6620685758660236E10 ; 0.0
141 ; 4811928.746572056 ; 2.0267824066085196E8 ; 7.018738115032511E8 ; 2.6823349958599808E10 ; 0.0
142 ; 4797060.3716173805 ; 2.026922544329554E8 ; 7.066857402498231E8 ; 2.702602819926066E10 ; 0.0
143 ; 4783715.118903722 ; 2.0270624066884148E8 ; 7.114828006214405E8 ; 2.7228720453693615E10 ; 0.0
144 ; 4776119.746078441 ; 2.0272019879001683E8 ; 7.162665157403443E8 ; 2.7431426694362457E10 ; 0.0
145 ; 4763199.636670729 ; 2.027341282263052E8 ; 7.210426354864228E8 ; 2.7634146893152473E10 ; 0.0
146 ; 4752177.666863077 ; 2.0274802841562375E8 ; 7.258058351230935E8 ; 2.783688102137878E10 ; 0.0
147 ; 4748655.521904587 ; 2.027618988037678E8 ; 7.305580127899566E8 ; 2.8039629049794403E10 ; 0.0
148 ; 4740572.919680811 ; 2.0277573884420294E8 ; 7.353066683118612E8 ; 2.824239094859817E10 ; 0.0
149 ; 4733256.964625827 ; 2.0278954799786466E8 ; 7.40047241231542E8 ; 2.8445166687442375E10 ; 0.0
150 ; 4723854.89409673 ; 2.0280332573296523E8 ; 7.447804981961678E8 ; 2.864795623544024E10 ; 0.0
151 ; 4715322.603601129 ; 2.0281707152480713E8 ; 7.495043530902646E8 ; 2.8850759561173203E10 ; 0.0
152 ; 4705004.360133745 ; 2.0283078485560328E8 ; 7.542196756938657E8 ; 2.905357663269801E10 ; 0.0
153 ; 4695952.066528573 ; 2.0284446521430337E8 ; 7.589246800539994E8 ; 2.925640741755361E10 ; 0.0
154 ; 4685363.056538394 ; 2.0285811209642667E8 ; 7.63620632120528E8 ; 2.9459251882767914E10 ; 0.0
155 ; 4681361.1766101215 ; 2.028717250039001E8 ; 7.683059951770663E8 ; 2.966210999486434E10 ; 0.0
156 ; 4673393.064335331 ; 2.0288530344490248E8 ; 7.729873563536764E8 ; 2.986498171986824E10 ; 0.0
157 ; 4664343.955460009 ; 2.028988469337138E8 ; 7.776607494180118E8 ; 3.0067867023313145E10 ; 0.0
158 ; 4655884.989820045 ; 2.0291235499056995E8 ; 7.823250933734717E8 ; 3.0270765870246857E10 ; 0.0
159 ; 4647792.486022442 ; 2.0292582714152232E8 ; 7.869809783632917E8 ; 3.0473678225237427E10 ; 0.0
160 ; 4639593.463053105 ; 2.029392629183023E8 ; 7.916287708493142E8 ; 3.067660405237895E10 ; 0.0
161 ; 4633536.799755753 ; 2.029526618581904E8 ; 7.962683643123673E8 ; 3.087954331529725E10 ; 0.0
162 ; 4622785.851847 ; 2.0296602350388968E8 ; 8.009019011121231E8 ; 3.1082495977155437E10 ; 0.0
163 ; 4612147.655773258 ; 2.0297934740340397E8 ; 8.055246869639702E8 ; 3.128546200065933E10 ; 0.0
164 ; 4603528.760418436 ; 2.0299263310991955E8 ; 8.101368346197435E8 ; 3.1488441348062733E10 ; 0.0
165 ; 4595585.479435584 ; 2.0300588018169144E8 ; 8.147403633801619E8 ; 3.1691433981172653E10 ; 0.0
166 ; 4589815.488384819 ; 2.030190881819331E8 ; 8.193359488595974E8 ; 3.1894439861354343E10 ; 0.0
167 ; 4579042.399411923 ; 2.030322566787102E8 ; 8.239257643479823E8 ; 3.2097458949536278E10 ; 0.0
168 ; 4569574.428270244 ; 2.0304538524483755E8 ; 8.285048067473942E8 ; 3.230049120621499E10 ; 0.0
169 ; 4564465.51229759 ; 2.030584734577799E8 ; 8.330743811756644E8 ; 3.2503536591459827E10 ; 0.0
170 ; 4550637.468587231 ; 2.0307152089955583E8 ; 8.37638846687962E8 ; 3.2706595064917606E10 ; 0.0
171 ; 4542037.443279351 ; 2.030845271566446E8 ; 8.421894841565493E8 ; 3.290966658581716E10 ; 0.0
172 ; 4534461.994548768 ; 2.0309749181989682E8 ; 8.467315215998287E8 ; 3.3112751112973804E10 ; 0.0
173 ; 4524315.528415338 ; 2.031104144844471E8 ; 8.512659835943775E8 ; 3.33158486047937E10 ; 0.0
174 ; 4519446.236553276 ; 2.0312329474963042E8 ; 8.557902991227928E8 ; 3.351895901927815E10 ; 0.0
175 ; 4516260.51170929 ; 2.0313613221890083E8 ; 8.603097453593462E8 ; 3.372208231402778E10 ; 0.0
176 ; 4507411.902547657 ; 2.0314892649975285E8 ; 8.648260058710555E8 ; 3.392521844624668E10 ; 0.0
177 ; 4498664.394027017 ; 2.0316167720364556E8 ; 8.693334177736031E8 ; 3.4128367372746433E10 ; 0.0
178 ; 4490426.395133626 ; 2.0317438394592905E8 ; 8.738320821676301E8 ; 3.4331529049950077E10 ; 0.0
179 ; 4488517.626576509 ; 2.0318704634577337E8 ; 8.783225085627637E8 ; 3.4534703433896E10 ; 0.0
180 ; 4478587.649376071 ; 2.031996640260997E8 ; 8.828110261893402E8 ; 3.4737890480241776E10 ; 0.0
181 ; 4472758.330003288 ; 2.0321223661351383E8 ; 8.872896138387163E8 ; 3.4941090144267876E10 ; 0.0
182 ; 4465744.744523523 ; 2.0322476373824164E8 ; 8.917623721687195E8 ; 3.5144302380881386E10 ; 0.0
183 ; 4460493.639695624 ; 2.032372450340669E8 ; 8.96228116913243E8 ; 3.534752714461963E10 ; 0.0
184 ; 4452103.81859083 ; 2.0324968013827074E8 ; 9.006886105529387E8 ; 3.5550764389653694E10 ; 0.0
185 ; 4444195.002096509 ; 2.0326206869157356E8 ; 9.051407143715296E8 ; 3.575401406979196E10 ; 0.0
186 ; 4439364.529052594 ; 2.032744103380781E8 ; 9.095849093736261E8 ; 3.5957276138483536E10 ; 0.0
187 ; 4433446.119980069 ; 2.032867047252151E8 ; 9.140242739026787E8 ; 3.616055054882162E10 ; 0.0
188 ; 4426166.886865569 ; 2.0329895150369E8 ; 9.184577200226588E8 ; 3.636383725354683E10 ; 0.0
189 ; 4417520.576678912 ; 2.0331115032743186E8 ; 9.228838869095244E8 ; 3.656713620505052E10 ; 0.0
190 ; 4413132.690505297 ; 2.0332330085354352E8 ; 9.273014074862033E8 ; 3.677044735537795E10 ; 0.0
191 ; 4403397.840861519 ; 2.0333540274225366E8 ; 9.317145401767086E8 ; 3.69737706562315E10 ; 0.0
192 ; 4398128.524396771 ; 2.033474556568701E8 ; 9.361179380175701E8 ; 3.7177106058973755E10 ; 0.0
193 ; 4390198.533593196 ; 2.0335945926373467E8 ; 9.405160665419669E8 ; 3.738045351463062E10 ; 0.0
194 ; 4386165.906980607 ; 2.0337141323217964E8 ; 9.449062650755601E8 ; 3.7583812973894356E10 ; 0.0
195 ; 4377310.704430038 ; 2.0338331723448527E8 ; 9.492924309825407E8 ; 3.778718438712653E10 ; 0.0
196 ; 4373198.253171383 ; 2.0339517094583887E8 ; 9.536697416869707E8 ; 3.7990567704361015E10 ; 0.0
197 ; 4367329.751934912 ; 2.034069740442951E8 ; 9.58042939940142E8 ; 3.8193962875306854E10 ; 0.0
198 ; 4358329.797378774 ; 2.0341872621073747E8 ; 9.624102696920769E8 ; 3.839736984935115E10 ; 0.0
199 ; 4353324.364634461 ; 2.0343042712884098E8 ; 9.667685994894557E8 ; 3.860078857556189E10 ; 0.0
200 ; 4343931.001602664 ; 1.906635876175242E8 ; 9.711219238540902E8 ; 3.880421900269073E10 ; 0.0
201 ; 4337166.9426128175 ; 1.5461368074961805E8 ; 9.754658548556929E8 ; 3.899488259030825E10 ; 0.0
