CSV File for the City 1 on Day 165
1 - Minute m 
2 - Power Consumed at minute m 
3 - Power Produced at minute m 
4 - Energy Consumed since the beginning of the day 
5 - Energy Produced since the beginning of the day 
6 - Energy Lost since the beginning of the day on lines starting from the city
 
0 ; 6351831.92921456 ; 1.0552602565352294E8 ; 0.0 ; 0.0 ; 0.0
1 ; 6365010.715606887 ; 1.0567896928228605E8 ; 6351831.92921456 ; 1.0552602565352294E8 ; 0.0
2 ; 6377961.915293114 ; 1.0614069514696947E8 ; 1.2716842644821446E7 ; 2.11204994935809E8 ; 0.0
3 ; 6391610.24664432 ; 1.0691120478429967E8 ; 1.9094804560114563E7 ; 3.1734569008277845E8 ; 0.0
4 ; 6408275.105765894 ; 1.0799049957221562E8 ; 2.548641480675888E7 ; 4.242568948670781E8 ; 0.0
5 ; 6431452.276644182 ; 1.0937858072197872E8 ; 3.1894689912524775E7 ; 5.3224739443929374E8 ; 0.0
6 ; 6469604.607179227 ; 1.1107544927109984E8 ; 3.832614218916896E7 ; 6.416259751612725E8 ; 0.0
7 ; 6518971.472855606 ; 1.1308110607717824E8 ; 4.4795746796348184E7 ; 7.527014244323723E8 ; 0.0
8 ; 6585749.702181675 ; 1.1539555181273681E8 ; 5.131471826920379E7 ; 8.657825305095506E8 ; 0.0
9 ; 6701849.829616297 ; 1.1801878696112627E8 ; 5.7900467971385464E7 ; 9.811780823222873E8 ; 0.0
10 ; 6877274.927797178 ; 1.2095081181355679E8 ; 6.460231780100176E7 ; 1.0991968692834136E9 ; 0.0
11 ; 7161562.973547935 ; 1.2419162646729913E8 ; 7.147959272879894E7 ; 1.2201476810969706E9 ; 0.0
12 ; 7620032.569590689 ; 1.2774123082508251E8 ; 7.864115570234688E7 ; 1.3443393075642698E9 ; 0.0
13 ; 8064449.246169229 ; 1.3159962459569675E8 ; 8.626118827193756E7 ; 1.4720805383893523E9 ; 0.0
14 ; 8112286.999796476 ; 1.357668072957912E8 ; 9.432563751810679E7 ; 1.603680162985049E9 ; 0.0
15 ; 8127484.875587252 ; 1.402427782528429E8 ; 1.0243792451790327E8 ; 1.7394469702808402E9 ; 0.0
16 ; 8139297.575521009 ; 1.4502753660925266E8 ; 1.1056540939349052E8 ; 1.879689748533683E9 ; 0.0
17 ; 8160260.681916365 ; 1.5012108132750955E8 ; 1.1870470696901153E8 ; 2.0247172851429358E9 ; 0.0
18 ; 8175624.425136636 ; 1.5552341119635218E8 ; 1.268649676509279E8 ; 2.174838366470445E9 ; 0.0
19 ; 8191866.717629991 ; 1.612345248378416E8 ; 1.3504059207606453E8 ; 2.330361777666797E9 ; 0.0
20 ; 8207149.791633407 ; 1.672544207152513E8 ; 1.4323245879369453E8 ; 2.4915963025046387E9 ; 0.0
21 ; 8222931.168573529 ; 1.7358309714167133E8 ; 1.5143960858532792E8 ; 2.65885072321989E9 ; 0.0
22 ; 8244036.886680355 ; 1.8022055228921753E8 ; 1.5966253975390145E8 ; 2.8324338203615613E9 ; 0.0
23 ; 8261227.47579595 ; 1.8716678419873524E8 ; 1.6790657664058182E8 ; 3.012654372650779E9 ; 0.0
24 ; 8278496.994847199 ; 1.9442179078988308E8 ; 1.7616780411637777E8 ; 3.199821156849514E9 ; 0.0
25 ; 8296076.6851965 ; 2.0067361076966968E8 ; 1.8444630111122498E8 ; 3.394242947639397E9 ; 0.0
26 ; 8309456.852331133 ; 2.006757896798628E8 ; 1.9274237779642147E8 ; 3.5949165584090667E9 ; 0.0
27 ; 8329891.063649401 ; 2.0067809443246236E8 ; 2.010518346487526E8 ; 3.7955923480889297E9 ; 0.0
28 ; 8344081.016768758 ; 2.0068052256700173E8 ; 2.09381725712402E8 ; 3.996270442521392E9 ; 0.0
29 ; 8362918.775284585 ; 2.0068307155419025E8 ; 2.1772580672917074E8 ; 4.1969509650883937E9 ; 0.0
30 ; 8376740.305041142 ; 2.006857388060984E8 ; 2.2608872550445533E8 ; 4.397634036642584E9 ; 0.0
31 ; 8388455.633922551 ; 2.0068852168605766E8 ; 2.3446546580949646E8 ; 4.598319775448682E9 ; 0.0
32 ; 8407501.585767198 ; 2.0069141751821244E8 ; 2.42853921443419E8 ; 4.79900829713474E9 ; 0.0
33 ; 8418163.286436457 ; 2.0069442359667063E8 ; 2.5126142302918622E8 ; 4.999699714652952E9 ; 0.0
34 ; 8434914.306168703 ; 2.006975371942094E8 ; 2.596795863156227E8 ; 5.200394138249622E9 ; 0.0
35 ; 8447102.735669699 ; 2.0070075557050097E8 ; 2.681145006217914E8 ; 5.401091675443831E9 ; 0.0
36 ; 8463711.616772646 ; 2.0070407597983384E8 ; 2.765616033574611E8 ; 5.601792431014333E9 ; 0.0
37 ; 8475222.579157233 ; 2.0070749567831063E8 ; 2.8502531497423375E8 ; 5.802496506994166E9 ; 0.0
38 ; 8489221.024729943 ; 2.0071101193051413E8 ; 2.93500537553391E8 ; 6.003204002672477E9 ; 0.0
39 ; 8498317.247718826 ; 2.0071462201563725E8 ; 3.0198975857812095E8 ; 6.203915014602991E9 ; 0.0
40 ; 8506893.311555354 ; 2.0071832323308107E8 ; 3.1048807582583976E8 ; 6.4046296366186285E9 ; 0.0
41 ; 8518259.459548097 ; 2.0072211290752852E8 ; 3.189949691373951E8 ; 6.605347959851709E9 ; 0.0
42 ; 8524686.357794702 ; 2.0072598839350736E8 ; 3.275132285969432E8 ; 6.806070072759238E9 ; 0.0
43 ; 8533972.006669909 ; 2.0072994707945845E8 ; 3.360379149547379E8 ; 7.006796061152745E9 ; 0.0
44 ; 8544305.322406609 ; 2.007339863913299E8 ; 3.445718869614078E8 ; 7.2075260082322035E9 ; 0.0
45 ; 8551307.345058486 ; 2.0073810379571882E8 ; 3.531161922838144E8 ; 7.408259994623533E9 ; 0.0
46 ; 8559789.849543184 ; 2.007422968025845E8 ; 3.616674996288729E8 ; 7.608998098419252E9 ; 0.0
47 ; 8564681.62083332 ; 2.0074656296755922E8 ; 3.702272894784161E8 ; 7.809740395221837E9 ; 0.0
48 ; 8566712.089244913 ; 2.007508998938817E8 ; 3.787919710992494E8 ; 8.010486958189396E9 ; 0.0
49 ; 8570558.129325356 ; 2.0075530523398024E8 ; 3.873586831884943E8 ; 8.211237858083278E9 ; 0.0
50 ; 8573156.973326935 ; 2.0075977669073147E8 ; 3.9592924131781965E8 ; 8.411993163317258E9 ; 0.0
51 ; 8573760.71366602 ; 2.007643120184214E8 ; 4.045023982911466E8 ; 8.61275294000799E9 ; 0.0
52 ; 8578101.99281987 ; 2.007689090234334E8 ; 4.130761590048126E8 ; 8.813517252026411E9 ; 0.0
53 ; 8582836.385916308 ; 2.00773565564688E8 ; 4.2165426099763244E8 ; 9.014286161049845E9 ; 0.0
54 ; 8580234.391069382 ; 2.0077827955385867E8 ; 4.3023709738354874E8 ; 9.215059726614532E9 ; 0.0
55 ; 8584153.12831976 ; 2.0078304895538518E8 ; 4.3881733177461815E8 ; 9.41583800616839E9 ; 0.0
56 ; 8588360.07690265 ; 2.0078787178630668E8 ; 4.474014849029379E8 ; 9.616621055123775E9 ; 0.0
57 ; 8586155.677613696 ; 2.0079274611593422E8 ; 4.559898449798405E8 ; 9.817408926910082E9 ; 0.0
58 ; 8592464.920753611 ; 2.007976700653815E8 ; 4.645760006574542E8 ; 1.0018201673026016E10 ; 0.0
59 ; 8594756.667657495 ; 2.0080264180697158E8 ; 4.731684655782078E8 ; 1.0218999343091398E10 ; 0.0
60 ; 8593495.887629263 ; 2.0080765956353572E8 ; 4.817632222458653E8 ; 1.041980198489837E10 ; 0.0
61 ; 8595866.919990724 ; 2.0081272160761935E8 ; 4.9035671813349456E8 ; 1.0620609644461906E10 ; 0.0
62 ; 8594650.496511959 ; 2.008178262606087E8 ; 4.989525850534853E8 ; 1.0821422366069527E10 ; 0.0
63 ; 8596692.861417122 ; 2.008229718917913E8 ; 5.075472355499972E8 ; 1.1022240192330135E10 ; 0.0
64 ; 8595441.448817603 ; 2.0082815691736093E8 ; 5.161439284114143E8 ; 1.1223063164221926E10 ; 0.0
65 ; 8597126.536307193 ; 2.0083337979937822E8 ; 5.2473936986023194E8 ; 1.1423891321139286E10 ; 0.0
66 ; 8600631.283929795 ; 2.00838639044696E8 ; 5.3333649639653915E8 ; 1.1624724700938663E10 ; 0.0
67 ; 8600261.047296064 ; 2.0084393320385748E8 ; 5.419371276804689E8 ; 1.182556333998336E10 ; 0.0
68 ; 8599815.908117875 ; 2.0084926086997554E8 ; 5.50537388727765E8 ; 1.2026407273187218E10 ; 0.0
69 ; 8598269.237530818 ; 2.0085462067759916E8 ; 5.591372046358829E8 ; 1.2227256534057194E10 ; 0.0
70 ; 8598359.238561137 ; 2.0086001130157346E8 ; 5.677354738734137E8 ; 1.2428111154734793E10 ; 0.0
71 ; 8597770.79229604 ; 2.0086543145589843E8 ; 5.763338331119748E8 ; 1.2628971166036366E10 ; 0.0
72 ; 8600671.419927849 ; 2.0087087989259085E8 ; 5.849316039042709E8 ; 1.2829836597492264E10 ; 0.0
73 ; 8598806.538118947 ; 2.0087635540055388E8 ; 5.935322753241987E8 ; 1.3030707477384855E10 ; 0.0
74 ; 8599214.705233712 ; 2.0088185680445725E8 ; 6.021310818623177E8 ; 1.323158383278541E10 ; 0.0
75 ; 8601133.729668232 ; 2.0088738296363148E8 ; 6.107302965675514E8 ; 1.3432465689589867E10 ; 0.0
76 ; 8599128.213945627 ; 2.0089293277097878E8 ; 6.193314302972196E8 ; 1.3633353072553497E10 ; 0.0
77 ; 8593188.293715263 ; 2.0089850515190226E8 ; 6.279305585111653E8 ; 1.3834246005324476E10 ; 0.0
78 ; 8590908.711543603 ; 2.00904099063256E8 ; 6.365237468048805E8 ; 1.403514451047638E10 ; 0.0
79 ; 8583658.06625546 ; 2.0090971349231684E8 ; 6.451146555164241E8 ; 1.4236048609539635E10 ; 0.0
80 ; 8575087.026124345 ; 2.0091534745577973E8 ; 6.536983135826795E8 ; 1.4436958323031952E10 ; 0.0
81 ; 8564978.544063263 ; 2.009209999987768E8 ; 6.622734006088039E8 ; 1.4637873670487732E10 ; 0.0
82 ; 8562170.062260034 ; 2.0092667019392177E8 ; 6.708383791528671E8 ; 1.483879467048651E10 ; 0.0
83 ; 8553720.548336446 ; 2.009323571403795E8 ; 6.794005492151271E8 ; 1.5039721340680431E10 ; 0.0
84 ; 8549792.96912958 ; 2.0093805996296147E8 ; 6.879542697634635E8 ; 1.524065369782081E10 ; 0.0
85 ; 8538490.047434784 ; 2.009437778112473E8 ; 6.96504062732593E8 ; 1.5441591757783772E10 ; 0.0
86 ; 8532344.95195719 ; 2.0094950985873204E8 ; 7.050425527800279E8 ; 1.5642535535595018E10 ; 0.0
87 ; 8524941.597469736 ; 2.0095525530199984E8 ; 7.135748977319851E8 ; 1.584348504545375E10 ; 0.0
88 ; 8512980.487527352 ; 2.0096101335992295E8 ; 7.220998393294548E8 ; 1.604444030075575E10 ; 0.0
89 ; 8506601.9007328 ; 2.0096678327288678E8 ; 7.306128198169822E8 ; 1.6245401314115673E10 ; 0.0
90 ; 8501771.581278296 ; 2.009725643020399E8 ; 7.391194217177149E8 ; 1.644636809738856E10 ; 0.0
91 ; 8497226.672130955 ; 2.009783557285689E8 ; 7.476211932989932E8 ; 1.66473406616906E10 ; 0.0
92 ; 8486051.263791343 ; 2.0098415685299787E8 ; 7.561184199711242E8 ; 1.6848319017419168E10 ; 0.0
93 ; 8477155.559524527 ; 2.009899669945116E8 ; 7.646044712349155E8 ; 1.7049303174272167E10 ; 0.0
94 ; 8463715.184694309 ; 2.009957854903022E8 ; 7.7308162679444E8 ; 1.7250293141266678E10 ; 0.0
95 ; 8461114.649201391 ; 2.0100161169493872E8 ; 7.815453419791343E8 ; 1.745128892675698E10 ; 0.0
96 ; 8444243.813667616 ; 2.010074449797589E8 ; 7.900064566283357E8 ; 1.765229053845192E10 ; 0.0
97 ; 8439720.387770655 ; 2.010132847322827E8 ; 7.984507004420034E8 ; 1.785329798343168E10 ; 0.0
98 ; 8432380.957905665 ; 2.0101913035564688E8 ; 8.06890420829774E8 ; 1.8054311268163963E10 ; 0.0
99 ; 8420581.17185672 ; 2.0102498126806006E8 ; 8.153228017876797E8 ; 1.825533039851961E10 ; 0.0
100 ; 8413275.0464684 ; 2.0103083690227765E8 ; 8.237433829595364E8 ; 1.845635537978767E10 ; 0.0
101 ; 8401062.600644419 ; 2.010366967050961E8 ; 8.321566580060048E8 ; 1.865738621668995E10 ; 0.0
102 ; 8392866.608539393 ; 2.0104256013686565E8 ; 8.405577206066493E8 ; 1.8858422913395046E10 ; 0.0
103 ; 8383606.468908575 ; 2.0104842667102125E8 ; 8.489505872151886E8 ; 1.9059465473531914E10 ; 0.0
104 ; 8376976.252595741 ; 2.0105429579363096E8 ; 8.573341936840972E8 ; 1.9260513900202934E10 ; 0.0
105 ; 8360921.094868409 ; 2.01060167002961E8 ; 8.65711169936693E8 ; 1.9461568195996567E10 ; 0.0
106 ; 8351392.074804409 ; 2.0106603980905724E8 ; 8.740720910315614E8 ; 1.9662628362999527E10 ; 0.0
107 ; 8341892.963758064 ; 2.0107191373334238E8 ; 8.824234831063658E8 ; 1.9863694402808586E10 ; 0.0
108 ; 8332721.112626285 ; 2.0107778830822822E8 ; 8.907653760701239E8 ; 2.0064766316541927E10 ; 0.0
109 ; 8316288.917733188 ; 2.010836630767425E8 ; 8.990980971827502E8 ; 2.0265844104850155E10 ; 0.0
110 ; 8307600.220151316 ; 2.0108953759216997E8 ; 9.074143861004834E8 ; 2.04669277679269E10 ; 0.0
111 ; 8299951.082257677 ; 2.0109541141770685E8 ; 9.157219863206347E8 ; 2.066801730551907E10 ; 0.0
112 ; 8288149.536702471 ; 2.0110128412612838E8 ; 9.240219374028924E8 ; 2.0869112716936775E10 ; 0.0
113 ; 8279066.285422207 ; 2.0110715529946902E8 ; 9.323100869395949E8 ; 2.1070214001062904E10 ; 0.0
114 ; 8267818.728464701 ; 2.0111302452871472E8 ; 9.405891532250171E8 ; 2.1271321156362373E10 ; 0.0
115 ; 8251057.150109895 ; 2.0111889141350666E8 ; 9.488569719534818E8 ; 2.1472434180891087E10 ; 0.0
116 ; 8242509.017447659 ; 2.0112475556185648E8 ; 9.571080291035917E8 ; 2.1673553072304592E10 ; 0.0
117 ; 8234993.130443063 ; 2.0113061658987206E8 ; 9.653505381210394E8 ; 2.1874677827866447E10 ; 0.0
118 ; 8218017.0028439015 ; 2.0113647412149367E8 ; 9.735855312514825E8 ; 2.2075808444456318E10 ; 0.0
119 ; 8205735.173135121 ; 2.011423277882402E8 ; 9.818035482543263E8 ; 2.2276944918577812E10 ; 0.0
120 ; 8195195.705144736 ; 2.011481772289648E8 ; 9.900092834274615E8 ; 2.247808724636605E10 ; 0.0
121 ; 8185452.13001327 ; 2.0115402208961993E8 ; 9.982044791326063E8 ; 2.2679235423595016E10 ; 0.0
122 ; 8167474.600086508 ; 2.01159862023031E8 ; 1.0063899312626195E9 ; 2.2880389445684635E10 ; 0.0
123 ; 8161554.589277335 ; 2.011656966886786E8 ; 1.014557405862706E9 ; 2.3081549307707664E10 ; 0.0
124 ; 8142919.601160242 ; 2.0117152575248903E8 ; 1.0227189604519833E9 ; 2.3282715004396343E10 ; 0.0
125 ; 8128899.048394612 ; 2.0117734888663253E8 ; 1.0308618800531436E9 ; 2.348388653014883E10 ; 0.0
126 ; 8115285.621564217 ; 2.0118316576932907E8 ; 1.0389907791015382E9 ; 2.368506387903546E10 ; 0.0
127 ; 8104184.794855219 ; 2.0118897608466136E8 ; 1.0471060647231025E9 ; 2.388624704480479E10 ; 0.0
128 ; 8092373.103589676 ; 2.011947795223949E8 ; 1.0552102495179577E9 ; 2.408743602088945E10 ; 0.0
129 ; 8078249.011088709 ; 2.0120057577780464E8 ; 1.0633026226215473E9 ; 2.4288630800411846E10 ; 0.0
130 ; 8060812.524814028 ; 2.0120636455150813E8 ; 1.0713808716326361E9 ; 2.448983137618965E10 ; 0.0
131 ; 8041401.355482012 ; 2.012121455493047E8 ; 1.0794416841574502E9 ; 2.469103774074116E10 ; 0.0
132 ; 8022252.639260081 ; 2.012179184820208E8 ; 1.0874830855129323E9 ; 2.4892249886290466E10 ; 0.0
133 ; 8003739.022921267 ; 2.0122368306536075E8 ; 1.0955053381521924E9 ; 2.5093467804772488E10 ; 0.0
134 ; 7984821.020970787 ; 2.0122943901976332E8 ; 1.1035090771751137E9 ; 2.529469148783785E10 ; 0.0
135 ; 7963171.340435836 ; 2.012351860702631E8 ; 1.1114938981960845E9 ; 2.5495920926857613E10 ; 0.0
136 ; 7947505.266995586 ; 2.012409239463574E8 ; 1.1194570695365202E9 ; 2.5697156112927876E10 ; 0.0
137 ; 7924032.637750531 ; 2.012466523818777E8 ; 1.127404574803516E9 ; 2.5898397036874233E10 ; 0.0
138 ; 7905736.07890169 ; 2.0125237111486587E8 ; 1.1353286074412665E9 ; 2.609964368925611E10 ; 0.0
139 ; 7883701.137924375 ; 2.0125807988745487E8 ; 1.1432343435201683E9 ; 2.6300896060370975E10 ; 0.0
140 ; 7867267.947770721 ; 2.0126377844575372E8 ; 1.1511180446580927E9 ; 2.650215414025843E10 ; 0.0
141 ; 7843502.196676132 ; 2.012694665397367E8 ; 1.1589853126058636E9 ; 2.6703417918704185E10 ; 0.0
142 ; 7826411.569650581 ; 2.0127514392313635E8 ; 1.1668288148025396E9 ; 2.6904687385243923E10 ; 0.0
143 ; 7802323.446865901 ; 2.012808103533406E8 ; 1.1746552263721902E9 ; 2.710596252916706E10 ; 0.0
144 ; 7788293.643320016 ; 2.0128646559129322E8 ; 1.182457549819056E9 ; 2.73072433395204E10 ; 0.0
145 ; 7770488.527654949 ; 2.0129210940139818E8 ; 1.190245843462376E9 ; 2.7508529805111694E10 ; 0.0
146 ; 7759853.032776262 ; 2.01297741551427E8 ; 1.198016331990031E9 ; 2.7709821914513092E10 ; 0.0
147 ; 7740155.50555974 ; 2.0130336181242985E8 ; 1.2057761850228074E9 ; 2.7911119656064518E10 ; 0.0
148 ; 7727359.6375689125 ; 2.0130896995864925E8 ; 1.213516340528367E9 ; 2.811242301787695E10 ; 0.0
149 ; 7714026.500576335 ; 2.0131456576743734E8 ; 1.221243700165936E9 ; 2.8313731987835598E10 ; 0.0
150 ; 7700406.146058255 ; 2.0132014901917565E8 ; 1.2289577266665123E9 ; 2.8515046553603035E10 ; 0.0
151 ; 7684858.160245485 ; 2.0132571949719793E8 ; 1.2366581328125706E9 ; 2.871636670262221E10 ; 0.0
152 ; 7673860.809173065 ; 2.0133127698771545E8 ; 1.244342990972816E9 ; 2.8917692422119408E10 ; 0.0
153 ; 7656067.7347580185 ; 2.0133682127974516E8 ; 1.252016851781989E9 ; 2.9119023699107124E10 ; 0.0
154 ; 7645068.188790887 ; 2.013423521650401E8 ; 1.259672919516747E9 ; 2.932036052038687E10 ; 0.0
155 ; 7630371.616326527 ; 2.0134786943802235E8 ; 1.2673179877055378E9 ; 2.952170287255191E10 ; 0.0
156 ; 7612194.572890606 ; 2.013533728957182E8 ; 1.2749483593218644E9 ; 2.9723050741989933E10 ; 0.0
157 ; 7600572.34402161 ; 2.0135886233769566E8 ; 1.282560553894755E9 ; 2.992440411488565E10 ; 0.0
158 ; 7589024.4205488395 ; 2.0136433756600407E8 ; 1.2901611262387764E9 ; 3.0125762977223347E10 ; 0.0
159 ; 7571130.347049246 ; 2.0136979838511565E8 ; 1.2977501506593254E9 ; 3.0327127314789352E10 ; 0.0
160 ; 7559913.301335193 ; 2.0137524460186926E8 ; 1.3053212810063746E9 ; 3.052849711317447E10 ; 0.0
161 ; 7543333.961227341 ; 2.0138067602541587E8 ; 1.3128811943077097E9 ; 3.0729872357776337E10 ; 0.0
162 ; 7526428.096119757 ; 2.0138609246716592E8 ; 1.320424528268937E9 ; 3.0931253033801754E10 ; 0.0
163 ; 7517473.54558877 ; 2.0139149374073863E8 ; 1.3279509563650568E9 ; 3.113263912626892E10 ; 0.0
164 ; 7498959.224738716 ; 2.0139687966191277E8 ; 1.3354684299106455E9 ; 3.133403062000966E10 ; 0.0
165 ; 7486135.543117525 ; 2.0140225004857922E8 ; 1.342967389135384E9 ; 3.153542749967157E10 ; 0.0
166 ; 7469841.563041177 ; 2.0140760472069496E8 ; 1.3504535246785016E9 ; 3.173682974972015E10 ; 0.0
167 ; 7459153.592423039 ; 2.0141294350023904E8 ; 1.3579233662415428E9 ; 3.1938237354440845E10 ; 0.0
168 ; 7439611.660038249 ; 2.014182662111693E8 ; 1.3653825198339658E9 ; 3.2139650297941086E10 ; 0.0
169 ; 7427032.906544311 ; 2.0142357267938125E8 ; 1.372822131494004E9 ; 3.2341068564152256E10 ; 0.0
170 ; 7413132.216957175 ; 2.0142886273266768E8 ; 1.3802491644005482E9 ; 3.254249213683164E10 ; 0.0
171 ; 7397605.008237313 ; 2.0143413620068023E8 ; 1.3876622966175053E9 ; 3.2743920999564304E10 ; 0.0
172 ; 7383425.365046691 ; 2.0143939291489154E8 ; 1.3950599016257427E9 ; 3.2945355135764984E10 ; 0.0
173 ; 7370337.795422312 ; 2.0144463270855927E8 ; 1.4024433269907894E9 ; 3.3146794528679874E10 ; 0.0
174 ; 7356502.241244677 ; 2.0144985541669095E8 ; 1.4098136647862117E9 ; 3.3348239161388435E10 ; 0.0
175 ; 7347529.694002679 ; 2.014550608760099E8 ; 1.4171701670274565E9 ; 3.3549689016805126E10 ; 0.0
176 ; 7335971.709570501 ; 2.0146024892492262E8 ; 1.4245176967214592E9 ; 3.3751144077681137E10 ; 0.0
177 ; 7323272.908083541 ; 2.014654194034869E8 ; 1.4318536684310296E9 ; 3.395260432660606E10 ; 0.0
178 ; 7309392.17908305 ; 2.014705721533811E8 ; 1.439176941339113E9 ; 3.415406974600955E10 ; 0.0
179 ; 7298867.224771974 ; 2.0147570701787445E8 ; 1.446486333518196E9 ; 3.435554031816293E10 ; 0.0
180 ; 7284171.013435853 ; 2.0148082384179822E8 ; 1.453785200742968E9 ; 3.45570160251808E10 ; 0.0
181 ; 7275619.254171911 ; 2.0148592247151783E8 ; 1.461069371756404E9 ; 3.47584968490226E10 ; 0.0
182 ; 7263296.610314663 ; 2.01491002754906E8 ; 1.4683449910105758E9 ; 3.495998277149412E10 ; 0.0
183 ; 7252679.674633019 ; 2.0149606454131648E8 ; 1.4756082876208904E9 ; 3.516147377424902E10 ; 0.0
184 ; 7241122.304113893 ; 2.01501107681559E8 ; 1.4828609672955234E9 ; 3.536296983879034E10 ; 0.0
185 ; 7230123.025304834 ; 2.015061320278745E8 ; 1.4901020895996373E9 ; 3.556447094647189E10 ; 0.0
186 ; 7214261.341330173 ; 2.015111374339117E8 ; 1.497332212624942E9 ; 3.576597707849977E10 ; 0.0
187 ; 7206081.401889136 ; 2.0151612375470403E8 ; 1.5045464739662724E9 ; 3.5967488215933685E10 ; 0.0
188 ; 7191814.504212425 ; 2.0152109084664744E8 ; 1.5117525553681614E9 ; 3.616900433968839E10 ; 0.0
189 ; 7178810.82245813 ; 2.0152603856747884E8 ; 1.5189443698723738E9 ; 3.637052543053504E10 ; 0.0
190 ; 7173188.431524902 ; 2.015309667762553E8 ; 1.5261231806948318E9 ; 3.657205146910252E10 ; 0.0
191 ; 7158733.52562807 ; 2.0153587533333394E8 ; 1.5332963691263568E9 ; 3.677358243587878E10 ; 0.0
192 ; 7149638.378760156 ; 2.0154076410035214E8 ; 1.540455102651985E9 ; 3.697511831121211E10 ; 0.0
193 ; 7141095.079979275 ; 2.0154563294020885E8 ; 1.547604741030745E9 ; 3.717665907531246E10 ; 0.0
194 ; 7127131.3963931 ; 2.015504817170461E8 ; 1.5547458361107242E9 ; 3.737820470825267E10 ; 0.0
195 ; 7114194.284369505 ; 2.0155531029623124E8 ; 1.5618729675071173E9 ; 3.757975518996972E10 ; 0.0
196 ; 7097366.402289929 ; 2.015601185443397E8 ; 1.5689871617914867E9 ; 3.778131050026595E10 ; 0.0
197 ; 7093083.372116581 ; 2.015649063291383E8 ; 1.5760845281937766E9 ; 3.7982870618810295E10 ; 0.0
198 ; 7076641.859177282 ; 2.0156967351956916E8 ; 1.5831776115658932E9 ; 3.8184435525139435E10 ; 0.0
199 ; 7063731.75705407 ; 2.0157441998573384E8 ; 1.5902542534250705E9 ; 3.8386005198659004E10 ; 0.0
200 ; 7054976.123021103 ; 2.015791455988783E8 ; 1.5973179851821246E9 ; 3.858757961864474E10 ; 0.0
201 ; 7043390.339317946 ; 1.8741086326756364E8 ; 1.6043729613051457E9 ; 3.8789158764243614E10 ; 0.0
