CSV File for the City 4 on Day 43
1 - Minute m 
2 - Power Consumed at minute m 
3 - Power Produced at minute m 
4 - Energy Consumed since the beginning of the day 
5 - Energy Produced since the beginning of the day 
6 - Energy Lost since the beginning of the day on lines starting from the city
 
0 ; 6793944.965794245 ; 1.0568570428708753E8 ; 0.0 ; 0.0 ; 0.0
1 ; 6804113.159658913 ; 1.0583499848117411E8 ; 6793944.965794245 ; 1.0568570428708753E8 ; 0.0
2 ; 6810744.449728164 ; 1.0629342113977501E8 ; 1.3598058125453157E7 ; 2.1152070276826164E8 ; 0.0
3 ; 6819966.713258782 ; 1.070609855868892E8 ; 2.040880257518132E7 ; 3.1781412390803665E8 ; 0.0
4 ; 6828807.924072568 ; 1.0813770407804453E8 ; 2.72287692884401E7 ; 4.2487510949492586E8 ; 0.0
5 ; 6841176.40827672 ; 1.0952358763462073E8 ; 3.405757721251267E7 ; 5.330128135729704E8 ; 0.0
6 ; 6854477.221338005 ; 1.1121864588687858E8 ; 4.0898753620789394E7 ; 6.42536401207591E8 ; 0.0
7 ; 6879883.7383790845 ; 1.1322288693053883E8 ; 4.77532308421274E7 ; 7.537550470944697E8 ; 0.0
8 ; 6911552.636956541 ; 1.1553631720164579E8 ; 5.463311458050648E7 ; 8.669779340250084E8 ; 0.0
9 ; 6962674.713888871 ; 1.1815894137408084E8 ; 6.1544667217463024E7 ; 9.825142512266543E8 ; 0.0
10 ; 7040193.697375666 ; 1.2109076228345692E8 ; 6.85073419313519E7 ; 1.1006731926007352E9 ; 0.0
11 ; 7165450.369080737 ; 1.243317808802537E8 ; 7.554753562872757E7 ; 1.221763954884192E9 ; 0.0
12 ; 7360346.181838698 ; 1.278819962139915E8 ; 8.27129859978083E7 ; 1.3460957357644458E9 ; 0.0
13 ; 7553608.446443822 ; 1.3174140544905734E8 ; 9.0073332179647E7 ; 1.4739777319784372E9 ; 0.0
14 ; 7570987.339402943 ; 1.3591000391156995E8 ; 9.762694062609082E7 ; 1.6057191374274945E9 ; 0.0
15 ; 7584337.767330506 ; 1.403877851654849E8 ; 1.0519792796549377E8 ; 1.7416291413390646E9 ; 0.0
16 ; 7588990.949573303 ; 1.4517474111508158E8 ; 1.1278226573282428E8 ; 1.8820169265045495E9 ; 0.0
17 ; 7601133.664537687 ; 1.502708621300991E8 ; 1.2037125668239759E8 ; 2.027191667619631E9 ; 0.0
18 ; 7608334.0980459815 ; 1.5567613718915772E8 ; 1.2797239034693527E8 ; 2.17746252974973E9 ; 0.0
19 ; 7615736.976249702 ; 1.613905540367296E8 ; 1.3558072444498125E8 ; 2.3331386669388876E9 ; 0.0
20 ; 7630564.790618229 ; 1.674140993488159E8 ; 1.4319646142123094E8 ; 2.4945292209756174E9 ; 0.0
21 ; 7637987.244841085 ; 1.737467589026247E8 ; 1.5082702621184918E8 ; 2.6619433203244333E9 ; 0.0
22 ; 7643741.476191125 ; 1.8038851774588716E8 ; 1.5846501345669028E8 ; 2.835690079227058E9 ; 0.0
23 ; 7655052.916813498 ; 1.8733936036195028E8 ; 1.661087549328814E8 ; 3.016078596972945E9 ; 0.0
24 ; 7661988.285853935 ; 1.9459927082739604E8 ; 1.737638078496949E8 ; 3.2034179573348956E9 ; 0.0
25 ; 7671483.744771664 ; 2.0085627385778132E8 ; 1.8142579613554883E8 ; 3.3980172281622915E9 ; 0.0
26 ; 7678268.094780868 ; 2.0086390098011258E8 ; 1.890972798803205E8 ; 3.598873502020073E9 ; 0.0
27 ; 7688995.328901086 ; 2.0087190518007815E8 ; 1.9677554797510135E8 ; 3.7997374030001855E9 ; 0.0
28 ; 7698565.507703163 ; 2.0088027025721142E8 ; 2.0446454330400243E8 ; 4.0006093081802635E9 ; 0.0
29 ; 7705270.393564513 ; 2.008889802124096E8 ; 2.121631088117056E8 ; 4.2014895784374747E9 ; 0.0
30 ; 7713674.612689964 ; 2.0089801932833117E8 ; 2.198683792052701E8 ; 4.402378558649884E9 ; 0.0
31 ; 7721073.41076051 ; 2.0090737223649073E8 ; 2.2758205381796008E8 ; 4.603276577978215E9 ; 0.0
32 ; 7727642.718047811 ; 2.009170239718713E8 ; 2.353031272287206E8 ; 4.804183950214706E9 ; 0.0
33 ; 7739684.596007121 ; 2.0092696001604396E8 ; 2.430307699467684E8 ; 5.005100974186578E9 ; 0.0
34 ; 7745485.413827506 ; 2.0093716632988468E8 ; 2.507704545427755E8 ; 5.206027934202621E9 ; 0.0
35 ; 7751446.208046685 ; 2.0094762937702343E8 ; 2.5851593995660302E8 ; 5.406965100532506E9 ; 0.0
36 ; 7757430.4639889505 ; 2.009583361391613E8 ; 2.662673861646497E8 ; 5.60791272990953E9 ; 0.0
37 ; 7764520.3053017 ; 2.009692741243549E8 ; 2.740248166286386E8 ; 5.808871066048691E9 ; 0.0
38 ; 7771717.032196762 ; 2.0098043136930913E8 ; 2.8178933693394035E8 ; 6.009840340173046E9 ; 0.0
39 ; 7779243.142024814 ; 2.009917964366429E8 ; 2.895610539661371E8 ; 6.210820771542356E9 ; 0.0
40 ; 7784382.7167248195 ; 2.010033584080054E8 ; 2.973402971081619E8 ; 6.411812567978998E9 ; 0.0
41 ; 7789552.013849797 ; 2.0101510687383202E8 ; 3.0512467982488674E8 ; 6.612815926387004E9 ; 0.0
42 ; 7793879.782599659 ; 2.0102703192043626E8 ; 3.1291423183873653E8 ; 6.813831033260836E9 ; 0.0
43 ; 7796375.95660486 ; 2.0103912411504734E8 ; 3.207081116213362E8 ; 7.014858065181272E9 ; 0.0
44 ; 7801718.45957636 ; 2.0105137448931956E8 ; 3.2850448757794106E8 ; 7.215897189296319E9 ; 0.0
45 ; 7809347.918384601 ; 2.0106377452176297E8 ; 3.363062060375174E8 ; 7.416948563785639E9 ; 0.0
46 ; 7810659.8246313 ; 2.0107631611947417E8 ; 3.4411555395590204E8 ; 7.618012338307402E9 ; 0.0
47 ; 7815633.750828471 ; 2.010889915994843E8 ; 3.519262137805333E8 ; 7.819088654426876E9 ; 0.0
48 ; 7817176.813014012 ; 2.0110179366998455E8 ; 3.5974184753136176E8 ; 8.0201776460263605E9 ; 0.0
49 ; 7820578.295166803 ; 2.0111471541164204E8 ; 3.675590243443758E8 ; 8.221279439696345E9 ; 0.0
50 ; 7824610.744442168 ; 2.011277502591757E8 ; 3.753796026395426E8 ; 8.422394155107987E9 ; 0.0
51 ; 7823085.491769912 ; 2.011408919833261E8 ; 3.8320421338398474E8 ; 8.623521905367163E9 ; 0.0
52 ; 7827581.755041778 ; 2.0115413467332226E8 ; 3.9102729887575465E8 ; 8.824662797350489E9 ; 0.0
53 ; 7827781.762364651 ; 2.011674727199221E8 ; 3.9885488063079643E8 ; 9.025816932023811E9 ; 0.0
54 ; 7833215.019154593 ; 2.0118090079908183E8 ; 4.0668266239316106E8 ; 9.226984404743734E9 ; 0.0
55 ; 7832090.621215769 ; 2.0119441385629147E8 ; 4.1451587741231567E8 ; 9.428165305542816E9 ; 0.0
56 ; 7836168.191051396 ; 2.0120800709159815E8 ; 4.223479680335314E8 ; 9.629359719399107E9 ; 0.0
57 ; 7836111.4411220355 ; 2.0122167594532815E8 ; 4.3018413622458285E8 ; 9.830567726490705E9 ; 0.0
58 ; 7837805.295467152 ; 2.012354160845073E8 ; 4.380202476657049E8 ; 1.0031789402436033E10 ; 0.0
59 ; 7839766.274126603 ; 2.012492233899731E8 ; 4.4585805296117204E8 ; 1.023302481852054E10 ; 0.0
60 ; 7841382.214339583 ; 2.0126309394416514E8 ; 4.5369781923529863E8 ; 1.0434274041910513E10 ; 0.0
61 ; 7843535.273483257 ; 2.0127702401957557E8 ; 4.615392014496382E8 ; 1.0635537135854677E10 ; 0.0
62 ; 7843766.369346562 ; 2.0129101006783906E8 ; 4.6938273672312146E8 ; 1.0836814159874252E10 ; 0.0
63 ; 7846775.375500837 ; 2.0130504870943806E8 ; 4.77226503092468E8 ; 1.1038105169942091E10 ; 0.0
64 ; 7844969.139345812 ; 2.0131913672399807E8 ; 4.850732784679689E8 ; 1.123941021865153E10 ; 0.0
65 ; 7846659.894417017 ; 2.013332710411467E8 ; 4.929182476073147E8 ; 1.1440729355375526E10 ; 0.0
66 ; 7849417.336701768 ; 2.0134744873190957E8 ; 5.007649075017317E8 ; 1.1642062626416674E10 ; 0.0
67 ; 7849079.942339154 ; 2.0136166700061604E8 ; 5.0861432483843344E8 ; 1.1843410075148582E10 ; 0.0
68 ; 7849266.635473699 ; 2.0137592317728844E8 ; 5.164634047807726E8 ; 1.2044771742149199E10 ; 0.0
69 ; 7850933.039845005 ; 2.01390214710488E8 ; 5.2431267141624635E8 ; 1.2246147665326487E10 ; 0.0
70 ; 7853208.355730541 ; 2.0140453916059265E8 ; 5.3216360445609134E8 ; 1.2447537880036974E10 ; 0.0
71 ; 7852574.0647857245 ; 2.0141889419348165E8 ; 5.400168128118219E8 ; 1.2648942419197567E10 ; 0.0
72 ; 7852357.037121154 ; 2.0143327757460347E8 ; 5.478693868766077E8 ; 1.2850361313391048E10 ; 0.0
73 ; 7854387.729645995 ; 2.0144768716340408E8 ; 5.557217439137288E8 ; 1.3051794590965652E10 ; 0.0
74 ; 7854065.75274816 ; 2.0146212090809414E8 ; 5.635761316433748E8 ; 1.3253242278129057E10 ; 0.0
75 ; 7858162.688265884 ; 2.0147657684073448E8 ; 5.714301973961229E8 ; 1.3454704399037151E10 ; 0.0
76 ; 7856125.361856175 ; 2.0149105307261997E8 ; 5.792883600843889E8 ; 1.3656180975877886E10 ; 0.0
77 ; 7854827.637622261 ; 2.0150554778994396E8 ; 5.871444854462451E8 ; 1.3857672028950506E10 ; 0.0
78 ; 7854326.375397797 ; 2.0152005924972492E8 ; 5.949993130838673E8 ; 1.405917757674045E10 ; 0.0
79 ; 7851130.799142008 ; 2.0153458577597976E8 ; 6.028536394592651E8 ; 1.4260697635990175E10 ; 0.0
80 ; 7847077.204042831 ; 2.015491257561276E8 ; 6.107047702584071E8 ; 1.4462232221766155E10 ; 0.0
81 ; 7846100.655510852 ; 2.015636776376098E8 ; 6.185518474624499E8 ; 1.4663781347522284E10 ; 0.0
82 ; 7846749.12311517 ; 2.015782399247125E8 ; 6.263979481179608E8 ; 1.4865345025159893E10 ; 0.0
83 ; 7840854.70495828 ; 2.0159281117557874E8 ; 6.34244697241076E8 ; 1.5066923265084606E10 ; 0.0
84 ; 7839585.540441947 ; 2.0160738999939826E8 ; 6.420855519460343E8 ; 1.5268516076260185E10 ; 0.0
85 ; 7835626.583165884 ; 2.016219750537637E8 ; 6.499251374864763E8 ; 1.5470123466259584E10 ; 0.0
86 ; 7832466.961070525 ; 2.0163656504218248E8 ; 6.577607640696422E8 ; 1.5671745441313349E10 ; 0.0
87 ; 7830869.705113544 ; 2.0165115871173495E8 ; 6.655932310307127E8 ; 1.5873382006355532E10 ; 0.0
88 ; 7826925.545018072 ; 2.0166575485086885E8 ; 6.734241007358263E8 ; 1.6075033165067266E10 ; 0.0
89 ; 7823562.687659334 ; 2.0168035228732228E8 ; 6.812510262808443E8 ; 1.6276698919918135E10 ; 0.0
90 ; 7823665.471578343 ; 2.016949498861665E8 ; 6.890745889685037E8 ; 1.6478379272205458E10 ; 0.0
91 ; 7818331.054447949 ; 2.017095465479612E8 ; 6.968982544400821E8 ; 1.6680074222091623E10 ; 0.0
92 ; 7816225.928928305 ; 2.0172414120701545E8 ; 7.0471658549453E8 ; 1.6881783768639584E10 ; 0.0
93 ; 7810287.259185599 ; 2.0173873282974738E8 ; 7.125328114234582E8 ; 1.70835079098466E10 ; 0.0
94 ; 7806706.66593055 ; 2.0175332041313663E8 ; 7.203430986826438E8 ; 1.7285246642676346E10 ; 0.0
95 ; 7805814.820361106 ; 2.0176790298326382E8 ; 7.281498053485743E8 ; 1.748699996308948E10 ; 0.0
96 ; 7800571.213650943 ; 2.017824795939317E8 ; 7.359556201689354E8 ; 1.7688767866072746E10 ; 0.0
97 ; 7797326.565942526 ; 2.017970493253629E8 ; 7.437561913825864E8 ; 1.789055034566668E10 ; 0.0
98 ; 7793944.801228306 ; 2.018116112829695E8 ; 7.515535179485289E8 ; 1.8092347394992043E10 ; 0.0
99 ; 7789523.603374594 ; 2.0182616459619042E8 ; 7.593474627497572E8 ; 1.8294159006275013E10 ; 0.0
100 ; 7786411.71512763 ; 2.0184070841739193E8 ; 7.671369863531318E8 ; 1.8495985170871204E10 ; 0.0
101 ; 7780829.766471523 ; 2.0185524192082816E8 ; 7.749233980682594E8 ; 1.8697825879288597E10 ; 0.0
102 ; 7775559.893703542 ; 2.0186976430165744E8 ; 7.827042278347309E8 ; 1.8899681121209427E10 ; 0.0
103 ; 7776437.510811842 ; 2.018842747750114E8 ; 7.904797877284344E8 ; 1.9101550885511086E10 ; 0.0
104 ; 7770868.120381437 ; 2.0189877257511356E8 ; 7.982562252392462E8 ; 1.93034351602861E10 ; 0.0
105 ; 7763658.89736171 ; 2.0191325695444497E8 ; 8.060270933596277E8 ; 1.9505333932861214E10 ; 0.0
106 ; 7761051.57636916 ; 2.019277271829532E8 ; 8.137907522569895E8 ; 1.970724718981566E10 ; 0.0
107 ; 7754709.192205125 ; 2.0194218254730305E8 ; 8.215518038333586E8 ; 1.990917491699861E10 ; 0.0
108 ; 7749698.724091696 ; 2.0195662235016605E8 ; 8.293065130255637E8 ; 2.0111117099545914E10 ; 0.0
109 ; 7747101.569007736 ; 2.0197104590954685E8 ; 8.370562117496554E8 ; 2.031307372189608E10 ; 0.0
110 ; 7744035.654692395 ; 2.0198545255814385E8 ; 8.448033133186631E8 ; 2.0515044767805626E10 ; 0.0
111 ; 7738607.136328803 ; 2.0199984164274272E8 ; 8.525473489733555E8 ; 2.071703022036377E10 ; 0.0
112 ; 7730980.710154266 ; 2.020142125236406E8 ; 8.602859561096843E8 ; 2.091903006200651E10 ; 0.0
113 ; 7728394.065020868 ; 2.0202856457409924E8 ; 8.680169368198386E8 ; 2.112104427453015E10 ; 0.0
114 ; 7723833.799486514 ; 2.0204289717982554E8 ; 8.757453308848596E8 ; 2.132307283910425E10 ; 0.0
115 ; 7720208.07098522 ; 2.020572097384781E8 ; 8.834691646843461E8 ; 2.1525115736284077E10 ; 0.0
116 ; 7714843.755769121 ; 2.0207150165919793E8 ; 8.911893727553313E8 ; 2.1727172946022556E10 ; 0.0
117 ; 7708058.577913066 ; 2.020857723621624E8 ; 8.989042165111004E8 ; 2.1929244447681755E10 ; 0.0
118 ; 7702719.496248539 ; 2.0210002127816105E8 ; 9.066122750890135E8 ; 2.213133022004392E10 ; 0.0
119 ; 7698336.5859545395 ; 2.021142478481917E8 ; 9.14314994585262E8 ; 2.233343024132208E10 ; 0.0
120 ; 7694250.784614671 ; 2.0212845152307647E8 ; 9.220133311712165E8 ; 2.253554448917027E10 ; 0.0
121 ; 7687261.311480505 ; 2.0214263176309597E8 ; 9.297075819558312E8 ; 2.2737672940693344E10 ; 0.0
122 ; 7681583.991375836 ; 2.0215678803764096E8 ; 9.373948432673117E8 ; 2.293981557245644E10 ; 0.0
123 ; 7674223.121671159 ; 2.0217091982488066E8 ; 9.450764272586875E8 ; 2.314197236049408E10 ; 0.0
124 ; 7669461.967413633 ; 2.021850266114466E8 ; 9.527506503803587E8 ; 2.3344143280318962E10 ; 0.0
125 ; 7666098.313546596 ; 2.0219910789213127E8 ; 9.604201123477724E8 ; 2.354632830693041E10 ; 0.0
126 ; 7659453.317907439 ; 2.02213163169601E8 ; 9.680862106613189E8 ; 2.374852741482254E10 ; 0.0
127 ; 7653280.115384666 ; 2.0222719195412198E8 ; 9.757456639792264E8 ; 2.395074057799214E10 ; 0.0
128 ; 7648340.580280137 ; 2.0224119376329884E8 ; 9.83398944094611E8 ; 2.4152967769946262E10 ; 0.0
129 ; 7643248.688513312 ; 2.022551681218255E8 ; 9.910472846748912E8 ; 2.435520896370956E10 ; 0.0
130 ; 7633556.614804007 ; 2.0226911456124705E8 ; 9.986905333634045E8 ; 2.4557464131831387E10 ; 0.0
131 ; 7625401.248015447 ; 2.0228303261973274E8 ; 1.0063240899782085E9 ; 2.4759733246392635E10 ; 0.0
132 ; 7616698.119044689 ; 2.022969218418589E8 ; 1.013949491226224E9 ; 2.4962016279012367E10 ; 0.0
133 ; 7609031.047963234 ; 2.0231078177840176E8 ; 1.0215661893452686E9 ; 2.5164313200854225E10 ; 0.0
134 ; 7599665.746902721 ; 2.0232461198613957E8 ; 1.0291752203932319E9 ; 2.5366623982632626E10 ; 0.0
135 ; 7589904.681032764 ; 2.0233841202766332E8 ; 1.0367748861401346E9 ; 2.5568948594618767E10 ; 0.0
136 ; 7581643.111685975 ; 2.02352181471196E8 ; 1.0443647908211673E9 ; 2.577128700664643E10 ; 0.0
137 ; 7574642.983129197 ; 2.023659198904195E8 ; 1.0519464339328533E9 ; 2.5973639188117626E10 ; 0.0
138 ; 7563088.303058788 ; 2.023796268643096E8 ; 1.0595210769159825E9 ; 2.6176005108008045E10 ; 0.0
139 ; 7557419.629136569 ; 2.0239330197697753E8 ; 1.0670841652190412E9 ; 2.6378384734872356E10 ; 0.0
140 ; 7544922.99952109 ; 2.0240694481751868E8 ; 1.074641584848178E9 ; 2.6580778036849335E10 ; 0.0
141 ; 7536501.974009371 ; 2.0242055497986794E8 ; 1.082186507847699E9 ; 2.6783184981666855E10 ; 0.0
142 ; 7525066.866895115 ; 2.02434132062661E8 ; 1.0897230098217082E9 ; 2.698560553664672E10 ; 0.0
143 ; 7516814.635036657 ; 2.0244767566910157E8 ; 1.0972480766886034E9 ; 2.718803966870938E10 ; 0.0
144 ; 7506105.858869518 ; 2.0246118540683442E8 ; 1.10476489132364E9 ; 2.7390487344378483E10 ; 0.0
145 ; 7501190.183544682 ; 2.0247466088782364E8 ; 1.1122709971825097E9 ; 2.7592948529785316E10 ; 0.0
146 ; 7494154.679865797 ; 2.0248810172823602E8 ; 1.1197721873660543E9 ; 2.779542319067314E10 ; 0.0
147 ; 7488223.72666254 ; 2.0250150754832926E8 ; 1.1272663420459201E9 ; 2.799791129240138E10 ; 0.0
148 ; 7481371.92822396 ; 2.0251487797234502E8 ; 1.1347545657725828E9 ; 2.8200412799949707E10 ; 0.0
149 ; 7476980.476290958 ; 2.0252821262840626E8 ; 1.1422359377008066E9 ; 2.840292767792205E10 ; 0.0
150 ; 7468731.912561083 ; 2.0254151114841872E8 ; 1.1497129181770976E9 ; 2.8605455890550457E10 ; 0.0
151 ; 7460814.331704446 ; 2.0255477316797674E8 ; 1.1571816500896587E9 ; 2.8807997401698875E10 ; 0.0
152 ; 7452794.180609588 ; 2.0256799832627264E8 ; 1.164642464421363E9 ; 2.901055217486685E10 ; 0.0
153 ; 7448300.997138489 ; 2.0258118626600996E8 ; 1.1720952586019728E9 ; 2.9213120173193123E10 ; 0.0
154 ; 7440408.1836415855 ; 2.0259433663332024E8 ; 1.1795435595991113E9 ; 2.9415701359459133E10 ; 0.0
155 ; 7433458.5430054255 ; 2.0260744907768297E8 ; 1.186983967782753E9 ; 2.9618295696092453E10 ; 0.0
156 ; 7425383.283264134 ; 2.02620523251849E8 ; 1.1944174263257585E9 ; 2.9820903145170135E10 ; 0.0
157 ; 7420370.982393375 ; 2.0263355881176692E8 ; 1.2018428096090226E9 ; 3.0023523668421986E10 ; 0.0
158 ; 7410843.171546016 ; 2.0264655541651228E8 ; 1.209263180591416E9 ; 3.0226157227233753E10 ; 0.0
159 ; 7403758.6593011515 ; 2.0265951272821993E8 ; 1.2166740237629619E9 ; 3.0428803782650265E10 ; 0.0
160 ; 7397885.29215276 ; 2.0267243041201863E8 ; 1.224077782422263E9 ; 3.0631463295378483E10 ; 0.0
161 ; 7391150.479818879 ; 2.0268530813596863E8 ; 1.2314756677144156E9 ; 3.08341357257905E10 ; 0.0
162 ; 7381955.171241872 ; 2.0269814557100144E8 ; 1.2388668181942344E9 ; 3.1036821033926468E10 ; 0.0
163 ; 7377101.7114059245 ; 2.027109423908622E8 ; 1.2462487733654761E9 ; 3.123951917949747E10 ; 0.0
164 ; 7367428.574023114 ; 2.0272369827205402E8 ; 1.2536258750768821E9 ; 3.1442230121888332E10 ; 0.0
165 ; 7360878.856871698 ; 2.027364128937848E8 ; 1.2609933036509051E9 ; 3.1644953820160385E10 ; 0.0
166 ; 7355757.365720322 ; 2.0274908593791586E8 ; 1.2683541825077767E9 ; 3.184769023305417E10 ; 0.0
167 ; 7346318.640962849 ; 2.0276171708891279E8 ; 1.275709939873497E9 ; 3.2050439318992085E10 ; 0.0
168 ; 7339028.327890337 ; 2.02774306033798E8 ; 1.2830562585144598E9 ; 3.2253201036080997E10 ; 0.0
169 ; 7330757.158133481 ; 2.0278685246210527E8 ; 1.2903952868423502E9 ; 3.2455975342114796E10 ; 0.0
170 ; 7325106.773582538 ; 2.0279935606583592E8 ; 1.2977260440004838E9 ; 3.26587621945769E10 ; 0.0
171 ; 7315801.330926765 ; 2.0281181653941676E8 ; 1.3050511507740662E9 ; 3.2861561550642735E10 ; 0.0
172 ; 7308433.22908138 ; 2.0282423357965955E8 ; 1.3123669521049929E9 ; 3.306437336718215E10 ; 0.0
173 ; 7302111.374210127 ; 2.028366068857222E8 ; 1.3196753853340743E9 ; 3.326719760076181E10 ; 0.0
174 ; 7296687.150805404 ; 2.028489361590711E8 ; 1.3269774967082844E9 ; 3.3470034207647533E10 ; 0.0
175 ; 7292070.7758485135 ; 2.0286122110344538E8 ; 1.3342741838590899E9 ; 3.3672883143806606E10 ; 0.0
176 ; 7288530.908419783 ; 2.028734614248221E8 ; 1.3415662546349385E9 ; 3.3875744364910053E10 ; 0.0
177 ; 7281470.93592265 ; 2.028856568313828E8 ; 1.3488547855433583E9 ; 3.4078617826334877E10 ; 0.0
178 ; 7278572.772309741 ; 2.0289780703348175E8 ; 1.356136256479281E9 ; 3.428150348316626E10 ; 0.0
179 ; 7275209.127213082 ; 2.0290991174361476E8 ; 1.3634148292515907E9 ; 3.4484401290199745E10 ; 0.0
180 ; 7271669.156588295 ; 2.0292197067638972E8 ; 1.3706900383788037E9 ; 3.468731120194336E10 ; 0.0
181 ; 7264359.814989184 ; 2.0293398354849786E8 ; 1.377961707535392E9 ; 3.489023317261975E10 ; 0.0
182 ; 7259856.856933883 ; 2.0294595007868636E8 ; 1.3852260673503811E9 ; 3.509316715616825E10 ; 0.0
183 ; 7256654.689131145 ; 2.0295786998773184E8 ; 1.392485924207315E9 ; 3.529611310624694E10 ; 0.0
184 ; 7252111.035253074 ; 2.029697429984149E8 ; 1.3997425788964462E9 ; 3.549907097623467E10 ; 0.0
185 ; 7245767.271081102 ; 2.0298156883549556E8 ; 1.4069946899316993E9 ; 3.5702040719233086E10 ; 0.0
186 ; 7243372.556269621 ; 2.0299334722568977E8 ; 1.4142404572027805E9 ; 3.590502228806858E10 ; 0.0
187 ; 7239157.2371434085 ; 2.0300507789764658E8 ; 1.4214838297590501E9 ; 3.610801563529427E10 ; 0.0
188 ; 7231567.7337615555 ; 2.0301676058192635E8 ; 1.4287229869961936E9 ; 3.631102071319192E10 ; 0.0
189 ; 7228183.366124485 ; 2.0302839501097968E8 ; 1.4359545547299552E9 ; 3.651403747377384E10 ; 0.0
190 ; 7222072.693441709 ; 2.0303998091912723E8 ; 1.4431827380960796E9 ; 3.671706586878482E10 ; 0.0
191 ; 7220712.443900662 ; 2.0305151804254013E8 ; 1.4504048107895212E9 ; 3.692010584970395E10 ; 0.0
192 ; 7215215.36615116 ; 2.0306300611922124E8 ; 1.4576255232334218E9 ; 3.712315736774649E10 ; 0.0
193 ; 7210330.0734621 ; 2.0307444488898712E8 ; 1.464840738599573E9 ; 3.7326220373865715E10 ; 0.0
194 ; 7203698.946916334 ; 2.0308583409345064E8 ; 1.472051068673035E9 ; 3.75292948187547E10 ; 0.0
195 ; 7200705.063315199 ; 2.0309717347600424E8 ; 1.4792547676199512E9 ; 3.773238065284815E10 ; 0.0
196 ; 7198524.534434973 ; 2.0310846278180385E8 ; 1.4864554726832664E9 ; 3.793547782632416E10 ; 0.0
197 ; 7191686.238836585 ; 2.0311970175775328E8 ; 1.4936539972177014E9 ; 3.8138586289105965E10 ; 0.0
198 ; 7186478.66183231 ; 2.0313089015248954E8 ; 1.500845683456538E9 ; 3.8341705990863716E10 ; 0.0
199 ; 7182847.661061458 ; 2.0314202771636826E8 ; 1.5080321621183703E9 ; 3.8544836881016205E10 ; 0.0
200 ; 7176135.612121127 ; 2.031531142014499E8 ; 1.5152150097794318E9 ; 3.8747978908732574E10 ; 0.0
201 ; 7172678.73911359 ; 1.654166013475522E8 ; 1.522391145391553E9 ; 3.895113202293402E10 ; 0.0
