CSV File for the City 1 on Day 338
1 - Minute m 
2 - Power Consumed at minute m 
3 - Power Produced at minute m 
4 - Energy Consumed since the beginning of the day 
5 - Energy Produced since the beginning of the day 
6 - Energy Lost since the beginning of the day on lines starting from the city
 
0 ; 1.6109694187839445E7 ; 1.0566680911001077E8 ; 0.0 ; 0.0 ; 0.0
1 ; 1.6121089792087013E7 ; 1.0581974893296307E8 ; 1.6109694187839445E7 ; 1.0566680911001077E8 ; 0.0
2 ; 1.6143809403677002E7 ; 1.062814726177766E8 ; 3.223078397992646E7 ; 2.1148655804297385E8 ; 0.0
3 ; 1.6161309513174573E7 ; 1.0705198131049174E8 ; 4.837459338360346E7 ; 3.1776803066075045E8 ; 0.0
4 ; 1.6186799105971338E7 ; 1.0813127603413618E8 ; 6.453590289677803E7 ; 4.248200119712422E8 ; 0.0
5 ; 1.6211085785190031E7 ; 1.0951935768443424E8 ; 8.072270200274937E7 ; 5.3295128800537837E8 ; 0.0
6 ; 1.625376394431796E7 ; 1.112162270259963E8 ; 9.69337877879394E7 ; 6.424706456898127E8 ; 0.0
7 ; 1.6305344034952736E7 ; 1.1322188468902677E8 ; 1.1318755173225737E8 ; 7.53686872715809E8 ; 0.0
8 ; 1.6389170914785802E7 ; 1.1553633116658258E8 ; 1.294928957672101E8 ; 8.669087574048357E8 ; 0.0
9 ; 1.6503267905980526E7 ; 1.1815956681241143E8 ; 1.458820666819959E8 ; 9.824450885714183E8 ; 0.0
10 ; 1.6689992699262885E7 ; 1.2109159183939058E8 ; 1.6238533458797643E8 ; 1.1006046553838296E9 ; 0.0
11 ; 1.697502955438995E7 ; 1.243324063185843E8 ; 1.790753272872393E8 ; 1.22169624722322E9 ; 0.0
12 ; 1.7440001458245967E7 ; 1.2788201017892829E8 ; 1.9605035684162927E8 ; 1.3460286535418043E9 ; 0.0
13 ; 1.7883397011665735E7 ; 1.3174040320754528E8 ; 2.1349035829987523E8 ; 1.4739106637207327E9 ; 0.0
14 ; 1.7934171844577774E7 ; 1.3590758505068767E8 ; 2.3137375531154096E8 ; 1.605651066928278E9 ; 0.0
15 ; 1.796099620650732E7 ; 1.403835552152984E8 ; 2.4930792715611875E8 ; 1.7415586519789658E9 ; 0.0
16 ; 1.7977340038008954E7 ; 1.4516831307117322E8 ; 2.6726892336262608E8 ; 1.8819422071942642E9 ; 0.0
17 ; 1.7995867043946546E7 ; 1.5026185785370162E8 ; 2.85246263400635E8 ; 2.0271105202654374E9 ; 0.0
18 ; 1.802293467375476E7 ; 1.5566418866715932E8 ; 3.0324213044458157E8 ; 2.177372378119139E9 ; 0.0
19 ; 1.804816610256578E7 ; 1.6137530448851863E8 ; 3.212650651183363E8 ; 2.3330365667862988E9 ; 0.0
20 ; 1.806113386694118E7 ; 1.6739520417173913E8 ; 3.393132312209021E8 ; 2.4944118712748175E9 ; 0.0
21 ; 1.808452305118552E7 ; 1.7372388645249745E8 ; 3.5737436508784324E8 ; 2.6618070754465566E9 ; 0.0
22 ; 1.8110444901654232E7 ; 1.8036134995331013E8 ; 3.754588881390288E8 ; 2.835530961899054E9 ; 0.0
23 ; 1.8131221284879632E7 ; 1.8730759318900448E8 ; 3.9356933304068303E8 ; 3.015892311852364E9 ; 0.0
24 ; 1.8149597147304215E7 ; 1.9456261457248616E8 ; 4.1170055432556266E8 ; 3.2031999050413685E9 ; 0.0
25 ; 1.8170161861139074E7 ; 2.0081445331893906E8 ; 4.298501514728669E8 ; 3.3977625196138544E9 ; 0.0
26 ; 1.819125886952839E7 ; 2.0081665548893464E8 ; 4.4802031333400595E8 ; 3.5985769729327936E9 ; 0.0
27 ; 1.8211015386053037E7 ; 2.008189885196973E8 ; 4.6621157220353436E8 ; 3.799393628421728E9 ; 0.0
28 ; 1.8235100473584577E7 ; 2.0082145047833824E8 ; 4.844225875895874E8 ; 4.0002126169414253E9 ; 0.0
29 ; 1.8256111518317387E7 ; 2.0082403936161467E8 ; 5.02657688063172E8 ; 4.2010340674197636E9 ; 0.0
30 ; 1.8271177368727226E7 ; 2.0082675310245183E8 ; 5.209137995814894E8 ; 4.401858106781378E9 ; 0.0
31 ; 1.8292003729945235E7 ; 2.008295895764305E8 ; 5.391849769502167E8 ; 4.60268485988383E9 ; 0.0
32 ; 1.831694599465785E7 ; 2.0083254660820076E8 ; 5.574769806801618E8 ; 4.80351444946026E9 ; 0.0
33 ; 1.8335422284929328E7 ; 2.0083562197778627E8 ; 5.757939266748197E8 ; 5.004346996068461E9 ; 0.0
34 ; 1.8353802406377036E7 ; 2.0083881342674625E8 ; 5.94129348959749E8 ; 5.2051826180462475E9 ; 0.0
35 ; 1.83703279172602E7 ; 2.0084211866416597E8 ; 6.124831513661261E8 ; 5.406021431472994E9 ; 0.0
36 ; 1.8386080409425322E7 ; 2.008455353724509E8 ; 6.308534792833862E8 ; 5.606863550137159E9 ; 0.0
37 ; 1.8404226863710478E7 ; 2.0084906121290195E8 ; 6.492395596928116E8 ; 5.80770908550961E9 ; 0.0
38 ; 1.842159653420429E7 ; 2.008526938310544E8 ; 6.676437865565221E8 ; 6.008558146722512E9 ; 0.0
39 ; 1.8434619994803533E7 ; 2.0085643086176506E8 ; 6.860653830907264E8 ; 6.209410840553567E9 ; 0.0
40 ; 1.8446361022947587E7 ; 2.0086026993403652E8 ; 7.045000030855299E8 ; 6.410267271415332E9 ; 0.0
41 ; 1.8464194146912627E7 ; 2.008642086755703E8 ; 7.229463641084775E8 ; 6.611127541349368E9 ; 0.0
42 ; 1.8481883611504667E7 ; 2.0086824471704298E8 ; 7.4141055825539E8 ; 6.811991750024939E9 ; 0.0
43 ; 1.8493629058370695E7 ; 2.008723756961032E8 ; 7.598924418668947E8 ; 7.0128599947419815E9 ; 0.0
44 ; 1.850030873676228E7 ; 2.0087659926108867E8 ; 7.783860709252654E8 ; 7.213732370438085E9 ; 0.0
45 ; 1.8510862810090553E7 ; 2.0088091307446572E8 ; 7.968863796620277E8 ; 7.414608969699173E9 ; 0.0
46 ; 1.8522158200661663E7 ; 2.008853148159945E8 ; 8.153972424721183E8 ; 7.615489882773639E9 ; 0.0
47 ; 1.852947445874136E7 ; 2.008898021856263E8 ; 8.339194006727799E8 ; 7.816375197589633E9 ; 0.0
48 ; 1.8543945446818404E7 ; 2.0089437290613928E8 ; 8.524488751315212E8 ; 8.017264999775259E9 ; 0.0
49 ; 1.855206876512676E7 ; 2.0089902472552142E8 ; 8.709928205783396E8 ; 8.218159372681398E9 ; 0.0
50 ; 1.8556699900238343E7 ; 2.009037554191096E8 ; 8.895448893434663E8 ; 8.4190583974069195E9 ; 0.0
51 ; 1.8567144284138504E7 ; 2.009085627914955E8 ; 9.081015892437047E8 ; 8.619962152826029E9 ; 0.0
52 ; 1.856834261238142E7 ; 2.0091344467820823E8 ; 9.266687335278432E8 ; 8.820870715617525E9 ; 0.0
53 ; 1.8573067424481776E7 ; 2.009183989471858E8 ; 9.452370761402247E8 ; 9.021784160295732E9 ; 0.0
54 ; 1.8582222224902574E7 ; 2.0092342350004637E8 ; 9.638101435647064E8 ; 9.222702559242918E9 ; 0.0
55 ; 1.858407383270805E7 ; 2.00928516273171E8 ; 9.823923657896091E8 ; 9.423625982742964E9 ; 0.0
56 ; 1.8593007613420703E7 ; 2.0093367523860988E8 ; 1.0009764396223171E9 ; 9.624554499016134E9 ; 0.0
57 ; 1.8597818591285933E7 ; 2.0093889840482342E8 ; 1.0195694472357378E9 ; 9.825488174254744E9 ; 0.0
58 ; 1.8606070503140453E7 ; 2.0094418381726977E8 ; 1.0381672658270237E9 ; 1.0026427072659567E10 ; 0.0
59 ; 1.860395657413227E7 ; 2.009495295588499E8 ; 1.0567733363301642E9 ; 1.0227371256476837E10 ; 0.0
60 ; 1.8612309063391805E7 ; 2.0095493375022146E8 ; 1.0753772929042964E9 ; 1.0428320786035686E10 ; 0.0
61 ; 1.861404973354602E7 ; 2.0096039454999143E8 ; 1.093989601967688E9 ; 1.0629275719785908E10 ; 0.0
62 ; 1.8621522569635607E7 ; 2.0096591015479845E8 ; 1.112603651701234E9 ; 1.08302361143359E10 ; 0.0
63 ; 1.8625915778774094E7 ; 2.0097147879929385E8 ; 1.1312251742708697E9 ; 1.1031202024490698E10 ; 0.0
64 ; 1.8627321461721502E7 ; 2.009770987560312E8 ; 1.1498510900496438E9 ; 1.1232173503289991E10 ; 0.0
65 ; 1.8633440931406386E7 ; 2.0098276833527273E8 ; 1.1684784115113652E9 ; 1.1433150602046022E10 ; 0.0
66 ; 1.863855465912829E7 ; 2.009884858847215E8 ; 1.1871118524427717E9 ; 1.1634133370381294E10 ; 0.0
67 ; 1.8643075523086794E7 ; 2.0099424978918627E8 ; 1.2057504071018999E9 ; 1.1835121856266016E10 ; 0.0
68 ; 1.864840984114539E7 ; 2.010000584701876E8 ; 1.2243934826249866E9 ; 1.2036116106055202E10 ; 0.0
69 ; 1.8651014635848E7 ; 2.01005910385511E8 ; 1.243041892466132E9 ; 1.223711616452539E10 ; 0.0
70 ; 1.8654849777778883E7 ; 2.010118040287139E8 ; 1.26169290710198E9 ; 1.2438122074910902E10 ; 0.0
71 ; 1.865569728365964E7 ; 2.0101773792859283E8 ; 1.2803477568797588E9 ; 1.2639133878939615E10 ; 0.0
72 ; 1.8658337838905547E7 ; 2.010237106486155E8 ; 1.2990034541634185E9 ; 1.2840151616868208E10 ; 0.0
73 ; 1.8658206407323193E7 ; 2.0102972078632367E8 ; 1.317661792002324E9 ; 1.3041175327516823E10 ; 0.0
74 ; 1.866633689748119E7 ; 2.0103576697271088E8 ; 1.3363199984096472E9 ; 1.3242205048303146E10 ; 0.0
75 ; 1.8666407121686228E7 ; 2.0104184787157977E8 ; 1.3549863353071284E9 ; 1.3443240815275858E10 ; 0.0
76 ; 1.8667720761134066E7 ; 2.010479621788827E8 ; 1.3736527424288146E9 ; 1.3644282663147438E10 ; 0.0
77 ; 1.867207072123275E7 ; 2.0105410862204936E8 ; 1.3923204631899488E9 ; 1.384533062532632E10 ; 0.0
78 ; 1.8664923112457328E7 ; 2.0106028595930457E8 ; 1.4109925339111814E9 ; 1.404638473394837E10 ; 0.0
79 ; 1.8661637393260796E7 ; 2.0106649297897932E8 ; 1.4296574570236387E9 ; 1.4247445019907675E10 ; 0.0
80 ; 1.8663147183067728E7 ; 2.0107272849881762E8 ; 1.4483190944168994E9 ; 1.4448511512886654E10 ; 0.0
81 ; 1.8657115680186443E7 ; 2.0107899136528176E8 ; 1.4669822415999672E9 ; 1.4649584241385471E10 ; 0.0
82 ; 1.865243011257494E7 ; 2.01085280452858E8 ; 1.4856393572801538E9 ; 1.4850663232750753E10 ; 0.0
83 ; 1.8650037201587528E7 ; 2.010915946633644E8 ; 1.5042917873927288E9 ; 1.5051748513203611E10 ; 0.0
84 ; 1.863991427968378E7 ; 2.0109793292526323E8 ; 1.5229418245943162E9 ; 1.5252840107866976E10 ; 0.0
85 ; 1.8639629323862284E7 ; 2.0110429419297856E8 ; 1.541581738874E9 ; 1.5453938040792238E10 ; 0.0
86 ; 1.863467167949731E7 ; 2.0111067744622105E8 ; 1.5602213681978624E9 ; 1.5655042334985216E10 ; 0.0
87 ; 1.8626677486599382E7 ; 2.0111708168932095E8 ; 1.5788560398773596E9 ; 1.5856153012431437E10 ; 0.0
88 ; 1.862540539817142E7 ; 2.0112350595057005E8 ; 1.597482717363959E9 ; 1.6057270094120758E10 ; 0.0
89 ; 1.8615832986232795E7 ; 2.011299492815739E8 ; 1.6161081227621305E9 ; 1.6258393600071327E10 ; 0.0
90 ; 1.8611707434519663E7 ; 2.0113641075661469E8 ; 1.6347239557483633E9 ; 1.6459523549352901E10 ; 0.0
91 ; 1.8606640732297257E7 ; 2.0114288947202572E8 ; 1.653335663182883E9 ; 1.6660659960109516E10 ; 0.0
92 ; 1.859851135778188E7 ; 2.0114938454557773E8 ; 1.6719423039151802E9 ; 1.6861802849581541E10 ; 0.0
93 ; 1.859713881649041E7 ; 2.0115589511587763E8 ; 1.690540815272962E9 ; 1.706295223412712E10 ; 0.0
94 ; 1.8593647737299748E7 ; 2.0116242034178007E8 ; 1.7091379540894525E9 ; 1.7264108129242996E10 ; 0.0
95 ; 1.8582959768118627E7 ; 2.0116895940181202E8 ; 1.7277316018267522E9 ; 1.7465270549584778E10 ; 0.0
96 ; 1.8581136579885E7 ; 2.011755114936105E8 ; 1.7463145615948708E9 ; 1.766643950898659E10 ; 0.0
97 ; 1.8568773150293104E7 ; 2.0118207583337387E8 ; 1.7648956981747558E9 ; 1.78676150204802E10 ; 0.0
98 ; 1.8561146467382103E7 ; 2.011886516553263E8 ; 1.783464471325049E9 ; 1.8068797096313576E10 ; 0.0
99 ; 1.855761604250708E7 ; 2.0119523821119583E8 ; 1.802025617792431E9 ; 1.8269985747968903E10 ; 0.0
100 ; 1.8549709443552356E7 ; 2.0120183476970595E8 ; 1.8205832338349383E9 ; 1.84711809861801E10 ; 0.0
101 ; 1.854299689989103E7 ; 2.0120844061608055E8 ; 1.8391329432784905E9 ; 1.8672382820949806E10 ; 0.0
102 ; 1.853680740261055E7 ; 2.0121505505156204E8 ; 1.8576759401783817E9 ; 1.8873591261565887E10 ; 0.0
103 ; 1.852958104806697E7 ; 2.0122167739294285E8 ; 1.8762127475809922E9 ; 1.907480631661745E10 ; 0.0
104 ; 1.8516245194897387E7 ; 2.012283069721098E8 ; 1.894742328629059E9 ; 1.9276027994010395E10 ; 0.0
105 ; 1.8510746509844773E7 ; 2.0123494313560146E8 ; 1.9132585738239565E9 ; 1.9477256300982506E10 ; 0.0
106 ; 1.8509878482737083E7 ; 2.012415852441781E8 ; 1.9317693203338013E9 ; 1.9678491244118107E10 ; 0.0
107 ; 1.8499007152492292E7 ; 2.0124823267240417E8 ; 1.9502791988165383E9 ; 1.9879732829362286E10 ; 0.0
108 ; 1.848738062087271E7 ; 2.0125488480824295E8 ; 1.9687782059690306E9 ; 2.008098106203469E10 ; 0.0
109 ; 1.8482462035669293E7 ; 2.0126154105266318E8 ; 1.9872655865899034E9 ; 2.0282235946842934E10 ; 0.0
110 ; 1.8472175256517004E7 ; 2.0126820081925768E8 ; 2.0057480486255727E9 ; 2.0483497487895596E10 ; 0.0
111 ; 1.8462813918308165E7 ; 2.0127486353387314E8 ; 2.0242202238820896E9 ; 2.068476568871485E10 ; 0.0
112 ; 1.8456066666148823E7 ; 2.0128152863425136E8 ; 2.0426830378003979E9 ; 2.0886040552248726E10 ; 0.0
113 ; 1.8440042812266212E7 ; 2.0128819556968153E8 ; 2.0611391044665468E9 ; 2.1087322080882977E10 ; 0.0
114 ; 1.84358549822039E7 ; 2.0129486380066305E8 ; 2.079579147278813E9 ; 2.128861027645266E10 ; 0.0
115 ; 1.8424479236850128E7 ; 2.0130153279857895E8 ; 2.0980150022610168E9 ; 2.1489905140253323E10 ; 0.0
116 ; 1.841267879063665E7 ; 2.0130820204537934E8 ; 2.1164394814978669E9 ; 2.1691206673051903E10 ; 0.0
117 ; 1.8405628992220048E7 ; 2.013148710332751E8 ; 2.1348521602885034E9 ; 2.1892514875097282E10 ; 0.0
118 ; 1.839650717267712E7 ; 2.0132153926444066E8 ; 2.1532577892807236E9 ; 2.2093829746130558E10 ; 0.0
119 ; 1.838631424595768E7 ; 2.013282062507268E8 ; 2.1716542964534006E9 ; 2.2295151285395E10 ; 0.0
120 ; 1.8373642144885316E7 ; 2.0133487151338205E8 ; 2.1900406106993585E9 ; 2.249647949164573E10 ; 0.0
121 ; 1.8367263965831704E7 ; 2.0134153458278322E8 ; 2.208414252844244E9 ; 2.269781436315911E10 ; 0.0
122 ; 1.8353619863630332E7 ; 2.0134819499817452E8 ; 2.2267815168100758E9 ; 2.2899155897741894E10 ; 0.0
123 ; 1.8339591051928516E7 ; 2.013548523074149E8 ; 2.245135136673706E9 ; 2.3100504092740067E10 ; 0.0
124 ; 1.833032357633936E7 ; 2.013615060667335E8 ; 2.2634747277256346E9 ; 2.330185894504748E10 ; 0.0
125 ; 1.8316772296432167E7 ; 2.0136815584049314E8 ; 2.281805051301974E9 ; 2.3503220451114216E10 ; 0.0
126 ; 1.8310445513198547E7 ; 2.0137480120096123E8 ; 2.300121823598406E9 ; 2.370458860695471E10 ; 0.0
127 ; 1.8299379735653214E7 ; 2.013814417280881E8 ; 2.318432269111604E9 ; 2.390596340815567E10 ; 0.0
128 ; 1.8287191068105217E7 ; 2.0138807700929257E8 ; 2.3367316488472576E9 ; 2.410734484988376E10 ; 0.0
129 ; 1.827412934575708E7 ; 2.0139470663925427E8 ; 2.355018839915363E9 ; 2.430873292689305E10 ; 0.0
130 ; 1.826023824469066E7 ; 2.0140133021971285E8 ; 2.37329296926112E9 ; 2.4510127633532307E10 ; 0.0
131 ; 1.8240715987113222E7 ; 2.0140794735927364E8 ; 2.3915532075058107E9 ; 2.4711528963752018E10 ; 0.0
132 ; 1.823005146049987E7 ; 2.0141455767321953E8 ; 2.4097939234929237E9 ; 2.491293691111129E10 ; 0.0
133 ; 1.8203957204895232E7 ; 2.0142116078332892E8 ; 2.4280239749534235E9 ; 2.5114351468784508E10 ; 0.0
134 ; 1.819261708462297E7 ; 2.0142775631769973E8 ; 2.4462279321583185E9 ; 2.5315772629567837E10 ; 0.0
135 ; 1.817080498191087E7 ; 2.014343439105789E8 ; 2.4644205492429414E9 ; 2.5517200385885536E10 ; 0.0
136 ; 1.8158470208974894E7 ; 2.0144092320219752E8 ; 2.482591354224852E9 ; 2.5718634729796116E10 ; 0.0
137 ; 1.813468489492284E7 ; 2.0144749383861127E8 ; 2.500749824433827E9 ; 2.5920075652998314E10 ; 0.0
138 ; 1.811371396350449E7 ; 2.0145405547154593E8 ; 2.5188845093287497E9 ; 2.6121523146836926E10 ; 0.0
139 ; 1.8098304789929997E7 ; 2.0146060775824815E8 ; 2.536998223292254E9 ; 2.632297720230847E10 ; 0.0
140 ; 1.808027148891209E7 ; 2.0146715036134064E8 ; 2.555096528082184E9 ; 2.652443781006672E10 ; 0.0
141 ; 1.8060784056347463E7 ; 2.014736829486823E8 ; 2.573176799571096E9 ; 2.672590496042806E10 ; 0.0
142 ; 1.8040370501599904E7 ; 2.014802051932329E8 ; 2.5912375836274433E9 ; 2.692737864337674E10 ; 0.0
143 ; 1.802187869226078E7 ; 2.0148671677292177E8 ; 2.609277954129043E9 ; 2.7128858848569973E10 ; 0.0
144 ; 1.8000935178689536E7 ; 2.0149321737052125E8 ; 2.627299832821304E9 ; 2.7330345565342896E10 ; 0.0
145 ; 1.7987332577131756E7 ; 2.0149970667352358E8 ; 2.6453007679999933E9 ; 2.7531838782713417E10 ; 0.0
146 ; 1.7976032305672474E7 ; 2.0150618437402228E8 ; 2.663288100577125E9 ; 2.773333848938694E10 ; 0.0
147 ; 1.796161189140091E7 ; 2.0151265016859698E8 ; 2.6812641328827977E9 ; 2.7934844673760963E10 ; 0.0
148 ; 1.795127823065613E7 ; 2.015191037582022E8 ; 2.6992257447741985E9 ; 2.813635732392956E10 ; 0.0
149 ; 1.7940012856546365E7 ; 2.0152554484805936E8 ; 2.7171770230048547E9 ; 2.8337876427687763E10 ; 0.0
150 ; 1.7925221350093067E7 ; 2.0153197314755246E8 ; 2.735117035861401E9 ; 2.8539401972535824E10 ; 0.0
151 ; 1.7913056405250076E7 ; 2.0153838837012714E8 ; 2.753042257211494E9 ; 2.8740933945683376E10 ; 0.0
152 ; 1.789462102691747E7 ; 2.0154479023319268E8 ; 2.770955313616744E9 ; 2.8942472334053505E10 ; 0.0
153 ; 1.7885036058062743E7 ; 2.0155117845802742E8 ; 2.7888499346436615E9 ; 2.9144017124286697E10 ; 0.0
154 ; 1.7872571473651875E7 ; 2.0155755276968685E8 ; 2.806734970701724E9 ; 2.9345568302744724E10 ; 0.0
155 ; 1.7860466909433585E7 ; 2.0156391289691487E8 ; 2.824607542175376E9 ; 2.9547125855514412E10 ; 0.0
156 ; 1.7849242053331524E7 ; 2.0157025857205784E8 ; 2.8424680090848093E9 ; 2.9748689768411327E10 ; 0.0
157 ; 1.7830452039903216E7 ; 2.0157658953098103E8 ; 2.8603172511381407E9 ; 2.9950260026983387E10 ; 0.0
158 ; 1.781950740717859E7 ; 2.0158290551298812E8 ; 2.878147703178044E9 ; 3.0151836616514366E10 ; 0.0
159 ; 1.780434368812192E7 ; 2.0158920626074293E8 ; 2.8959672105852222E9 ; 3.0353419522027355E10 ; 0.0
160 ; 1.7788735071009304E7 ; 2.0159549152019364E8 ; 2.913771554273344E9 ; 3.0555008728288097E10 ; 0.0
161 ; 1.7772432758709896E7 ; 2.0160176104049963E8 ; 2.931560289344353E9 ; 3.0756604219808292E10 ; 0.0
162 ; 1.7765888294460822E7 ; 2.016080145739601E8 ; 2.949332722103063E9 ; 3.0958205980848793E10 ; 0.0
163 ; 1.7753609506429464E7 ; 2.016142518759455E8 ; 2.967098610397524E9 ; 3.1159813995422752E10 ; 0.0
164 ; 1.7738869901657376E7 ; 2.0162047270483068E8 ; 2.9848522199039536E9 ; 3.13614282472987E10 ; 0.0
165 ; 1.772441495521425E7 ; 2.0162667682193014E8 ; 3.002591089805611E9 ; 3.156304872000353E10 ; 0.0
166 ; 1.7710660145037048E7 ; 2.0163286399143556E8 ; 3.020315504760825E9 ; 3.176467539682546E10 ; 0.0
167 ; 1.7693818056135297E7 ; 2.01639033980355E8 ; 3.0380261649058623E9 ; 3.1966308260816895E10 ; 0.0
168 ; 1.7684954542871624E7 ; 2.0164518655845392E8 ; 3.0557199829619975E9 ; 3.216794729479725E10 ; 0.0
169 ; 1.7668880125197724E7 ; 2.016513214981984E8 ; 3.073404937504869E9 ; 3.23695924813557E10 ; 0.0
170 ; 1.7652241736532424E7 ; 2.0165743857469958E8 ; 3.091073817630067E9 ; 3.25712438028539E10 ; 0.0
171 ; 1.763778437510459E7 ; 2.0166353756566027E8 ; 3.108726059366599E9 ; 3.27729012414286E10 ; 0.0
172 ; 1.762592202725285E7 ; 2.0166961825132284E8 ; 3.1263638437417035E9 ; 3.297456477899426E10 ; 0.0
173 ; 1.761149419622088E7 ; 2.0167568041441894E8 ; 3.143989765768956E9 ; 3.3176234397245583E10 ; 0.0
174 ; 1.7603283889346827E7 ; 2.0168172384012055E8 ; 3.161601259965177E9 ; 3.337791007766E10 ; 0.0
175 ; 1.7593094591931753E7 ; 2.0168774831599274E8 ; 3.1792045438545237E9 ; 3.3579591801500122E10 ; 0.0
176 ; 1.758705299786777E7 ; 2.0169375363194758E8 ; 3.1967976384464555E9 ; 3.3781279549816116E10 ; 0.0
177 ; 1.7574862812455684E7 ; 2.0169973958019978E8 ; 3.214384691444323E9 ; 3.3982973303448063E10 ; 0.0
178 ; 1.756820590258864E7 ; 2.0170570595522332E8 ; 3.2319595542567787E9 ; 3.4184673043028263E10 ; 0.0
179 ; 1.7555686206084624E7 ; 2.0171165255370972E8 ; 3.2495277601593676E9 ; 3.438637874898349E10 ; 0.0
180 ; 1.754787093392107E7 ; 2.0171757917452717E8 ; 3.2670834463654523E9 ; 3.45880904015372E10 ; 0.0
181 ; 1.75437379046589E7 ; 2.017234856186814E8 ; 3.284631317299373E9 ; 3.478980798071173E10 ; 0.0
182 ; 1.7529116193060957E7 ; 2.017293716892771E8 ; 3.302175055204032E9 ; 3.4991531466330414E10 ; 0.0
183 ; 1.7522548273804333E7 ; 2.017352371914812E8 ; 3.319704171397093E9 ; 3.519326083801969E10 ; 0.0
184 ; 1.751531995574147E7 ; 2.0174108193248647E8 ; 3.337226719670897E9 ; 3.5394996075211174E10 ; 0.0
185 ; 1.7506914269443844E7 ; 2.017469057214769E8 ; 3.3547420396266384E9 ; 3.559673715714366E10 ; 0.0
186 ; 1.749600510572196E7 ; 2.0175270836959368E8 ; 3.3722489538960824E9 ; 3.5798484062865135E10 ; 0.0
187 ; 1.7486036460901137E7 ; 2.0175848968990228E8 ; 3.3897449590018044E9 ; 3.6000236771234726E10 ; 0.0
188 ; 1.7478249671474498E7 ; 2.0176424949736065E8 ; 3.4072309954627056E9 ; 3.620199526092463E10 ; 0.0
189 ; 1.747092091099025E7 ; 2.0176998760878807E8 ; 3.42470924513418E9 ; 3.640375951042199E10 ; 0.0
190 ; 1.7463213042397916E7 ; 2.017757038428353E8 ; 3.4421801660451703E9 ; 3.660552949803078E10 ; 0.0
191 ; 1.7454405092483595E7 ; 2.0178139801995525E8 ; 3.4596433790875683E9 ; 3.680730520187361E10 ; 0.0
192 ; 1.7441695038464434E7 ; 2.0178706996237466E8 ; 3.477097784180052E9 ; 3.700908659989357E10 ; 0.0
193 ; 1.7432650374564774E7 ; 2.0179271949406666E8 ; 3.4945394792185163E9 ; 3.721087366985594E10 ; 0.0
194 ; 1.7429656747875698E7 ; 2.0179834644072402E8 ; 3.511972129593081E9 ; 3.7412666389350006E10 ; 0.0
195 ; 1.741454843019859E7 ; 2.0180395062973332E8 ; 3.5294017863409567E9 ; 3.761446473579073E10 ; 0.0
