CSV File for the City 6 on Day 335
1 - Minute m 
2 - Power Consumed at minute m 
3 - Power Produced at minute m 
4 - Energy Consumed since the beginning of the day 
5 - Energy Produced since the beginning of the day 
6 - Energy Lost since the beginning of the day on lines starting from the city
 
0 ; 1.1213927563708477E7 ; 1.0648526126850137E8 ; 0.0 ; 0.0 ; 0.0
1 ; 1.1225142492698811E7 ; 1.066360981570664E8 ; 1.1213927563708477E7 ; 1.0648526126850137E8 ; 0.0
2 ; 1.1239575260989059E7 ; 1.0709593524201801E8 ; 2.2439070056407288E7 ; 2.1312135942556778E8 ; 0.0
3 ; 1.1253137602286147E7 ; 1.0786477531765068E8 ; 3.367864531739634E7 ; 3.202172946675858E8 ; 0.0
4 ; 1.127140841554365E7 ; 1.08942620877253E8 ; 4.493178291968249E7 ; 4.2808206998523647E8 ; 0.0
5 ; 1.1289731116373966E7 ; 1.1032947410302413E8 ; 5.620319133522613E7 ; 5.370246908624895E8 ; 0.0
6 ; 1.1314370124462456E7 ; 1.120253368571268E8 ; 6.74929224516001E7 ; 6.473541649655136E8 ; 0.0
7 ; 1.1354013752828734E7 ; 1.1403021067396307E8 ; 7.880729257606256E7 ; 7.593795018226404E8 ; 0.0
8 ; 1.14095378257175E7 ; 1.1634409675374675E8 ; 9.016130632889129E7 ; 8.734097124966035E8 ; 0.0
9 ; 1.1487911570394432E7 ; 1.1896699595743686E8 ; 1.0157084415460879E8 ; 9.897538092503502E8 ; 0.0
10 ; 1.160938134429995E7 ; 1.2189890880308151E8 ; 1.1305875572500321E8 ; 1.108720805207787E9 ; 0.0
11 ; 1.180855637910881E7 ; 1.2513983546360973E8 ; 1.2466813706930315E8 ; 1.2306197140108685E9 ; 0.0
12 ; 1.2127188875576096E7 ; 1.2868977576609245E8 ; 1.3647669344841197E8 ; 1.3557595494744782E9 ; 0.0
13 ; 1.2425943926345235E7 ; 1.3254872919248158E8 ; 1.4860388232398808E8 ; 1.4844493252405708E9 ; 0.0
14 ; 1.2467127734886331E7 ; 1.3671669488181818E8 ; 1.610298262503333E8 ; 1.6169980544330523E9 ; 0.0
15 ; 1.2479462118760884E7 ; 1.411936716338883E8 ; 1.7349695398521963E8 ; 1.7537147493148704E9 ; 0.0
16 ; 1.2494873398486923E7 ; 1.4597965791429004E8 ; 1.859764161039805E8 ; 1.8949084209487586E9 ; 0.0
17 ; 1.2511641595368568E7 ; 1.5107465186086056E8 ; 1.9847128950246742E8 ; 2.0408880788630486E9 ; 0.0
18 ; 1.252663127826763E7 ; 1.5647865129140073E8 ; 2.10982931097836E8 ; 2.191962730723909E9 ; 0.0
19 ; 1.2540205061844457E7 ; 1.6219165371262196E8 ; 2.235095623761036E8 ; 2.34844138201531E9 ; 0.0
20 ; 1.2556516736081142E7 ; 1.6821365633022973E8 ; 2.3604976743794808E8 ; 2.510633035727932E9 ; 0.0
21 ; 1.2571703154565103E7 ; 1.7454465606005034E8 ; 2.4860628417402923E8 ; 2.6788466920581617E9 ; 0.0
22 ; 1.2585002268688422E7 ; 1.8118464954009736E8 ; 2.6117798732859433E8 ; 2.853391348118212E9 ; 0.0
23 ; 1.260172549961352E7 ; 1.8813363314347237E8 ; 2.7376298959728277E8 ; 3.0345759976583095E9 ; 0.0
24 ; 1.2612387929997623E7 ; 1.9539160299198592E8 ; 2.863647150968963E8 ; 3.2227096308017817E9 ; 0.0
25 ; 1.2628495555265557E7 ; 2.0164659586856997E8 ; 2.989771030268939E8 ; 3.4181012337937675E9 ; 0.0
26 ; 1.2643810959961817E7 ; 2.0165215526889405E8 ; 3.1160559858215946E8 ; 3.6197478296623373E9 ; 0.0
27 ; 1.2659461113305839E7 ; 2.0165804594136605E8 ; 3.242494095421213E8 ; 3.8213999849312315E9 ; 0.0
28 ; 1.2672419474834172E7 ; 2.016642631492673E8 ; 3.3690887065542716E8 ; 4.0230580308725977E9 ; 0.0
29 ; 1.26857418379317E7 ; 2.016708019795161E8 ; 3.495812901302613E8 ; 4.224722294021865E9 ; 0.0
30 ; 1.2702030119467206E7 ; 2.016776573582371E8 ; 3.62267031968193E8 ; 4.426393096001381E9 ; 0.0
31 ; 1.271774778136741E7 ; 2.0168482406628305E8 ; 3.749690620876602E8 ; 4.628070753359618E9 ; 0.0
32 ; 1.2729846650908941E7 ; 2.0169229675461608E8 ; 3.876868098690276E8 ; 4.829755577425901E9 ; 0.0
33 ; 1.274287743622381E7 ; 2.0170006995946288E8 ; 4.0041665651993656E8 ; 5.031447874180517E9 ; 0.0
34 ; 1.2750472777867494E7 ; 2.0170813811716607E8 ; 4.1315953395616037E8 ; 5.23314794413998E9 ; 0.0
35 ; 1.2768170488644192E7 ; 2.017164955786617E8 ; 4.2591000673402786E8 ; 5.434856082257147E9 ; 0.0
36 ; 1.2779853588671435E7 ; 2.017251366235207E8 ; 4.3867817722267205E8 ; 5.636572577835809E9 ; 0.0
37 ; 1.2790725111847943E7 ; 2.0173405547350106E8 ; 4.514580308113435E8 ; 5.83829771445933E9 ; 0.0
38 ; 1.2799808214919709E7 ; 2.0174324630556455E8 ; 4.642487559231914E8 ; 6.040031769932831E9 ; 0.0
39 ; 1.2811600960887337E7 ; 2.0175270326432082E8 ; 4.770485641381111E8 ; 6.241775016238396E9 ; 0.0
40 ; 1.2822975277802685E7 ; 2.017624204738685E8 ; 4.898601650989984E8 ; 6.443527719502716E9 ; 0.0
41 ; 1.2833043248723047E7 ; 2.0177239204901043E8 ; 5.0268314037680113E8 ; 6.645290139976584E9 ; 0.0
42 ; 1.284118920900369E7 ; 2.017826121058274E8 ; 5.1551618362552416E8 ; 6.847062532025595E9 ; 0.0
43 ; 1.285153562175118E7 ; 2.0179307477160046E8 ; 5.2835737283452785E8 ; 7.048845144131422E9 ; 0.0
44 ; 1.2857416910871154E7 ; 2.0180377419407806E8 ; 5.41208908456279E8 ; 7.250638218903023E9 ; 0.0
45 ; 1.2867219429885617E7 ; 2.0181470455008957E8 ; 5.540663253671502E8 ; 7.452441993097101E9 ; 0.0
46 ; 1.2874814889743999E7 ; 2.0182586005351153E8 ; 5.669335447970358E8 ; 7.654256697647191E9 ; 0.0
47 ; 1.2878592266835095E7 ; 2.0183723496259692E8 ; 5.798083596867799E8 ; 7.856082557700703E9 ; 0.0
48 ; 1.2890903050607571E7 ; 2.0184882358668146E8 ; 5.92686951953615E8 ; 8.0579197926633E9 ; 0.0
49 ; 1.2893627926654294E7 ; 2.0186062029228422E8 ; 6.055778550042225E8 ; 8.259768616249981E9 ; 0.0
50 ; 1.2896471652665552E7 ; 2.0187261950862283E8 ; 6.184714829308769E8 ; 8.461629236542265E9 ; 0.0
51 ; 1.2901682086308869E7 ; 2.0188481573256418E8 ; 6.313679545835423E8 ; 8.663501856050888E9 ; 0.0
52 ; 1.290515612285908E7 ; 2.0189720353303567E8 ; 6.442696366698512E8 ; 8.865386671783453E9 ; 0.0
53 ; 1.2912187956989318E7 ; 2.0190977755492094E8 ; 6.571747927927103E8 ; 9.067283875316488E9 ; 0.0
54 ; 1.2917917419501154E7 ; 2.0192253252246645E8 ; 6.700869807496996E8 ; 9.269193652871408E9 ; 0.0
55 ; 1.2918729538181221E7 ; 2.019354632422257E8 ; 6.830048981692008E8 ; 9.471116185393875E9 ; 0.0
56 ; 1.2918483719927803E7 ; 2.019485646055674E8 ; 6.95923627707382E8 ; 9.6730516486361E9 ; 0.0
57 ; 1.292762125932607E7 ; 2.0196183159077483E8 ; 7.088421114273098E8 ; 9.875000213241669E9 ; 0.0
58 ; 1.2930377857663881E7 ; 2.0197525926476294E8 ; 7.217697326866359E8 ; 1.0076962044832443E10 ; 0.0
59 ; 1.2936167324481899E7 ; 2.0198884278443944E8 ; 7.347001105442997E8 ; 1.0278937304097206E10 ; 0.0
60 ; 1.2937691966703583E7 ; 2.0200257739773583E8 ; 7.476362778687816E8 ; 1.0480926146881645E10 ; 0.0
61 ; 1.294238824783439E7 ; 2.0201645844433296E8 ; 7.605739698354851E8 ; 1.068292872427938E10 ; 0.0
62 ; 1.2943344495939776E7 ; 2.020304813561055E8 ; 7.735163580833195E8 ; 1.0884945182723713E10 ; 0.0
63 ; 1.2946182969475558E7 ; 2.02044641657309E8 ; 7.864597025792593E8 ; 1.1086975664079819E10 ; 0.0
64 ; 1.2949569458724853E7 ; 2.0205893496453094E8 ; 7.994058855487348E8 ; 1.1289020305737127E10 ; 0.0
65 ; 1.295016526616045E7 ; 2.0207335698642805E8 ; 8.123554550074596E8 ; 1.1491079240701658E10 ; 0.0
66 ; 1.2955537355339698E7 ; 2.0208790352326906E8 ; 8.253056202736201E8 ; 1.1693152597688086E10 ; 0.0
67 ; 1.2959057929729342E7 ; 2.021025704663031E8 ; 8.382611576289598E8 ; 1.1895240501211355E10 ; 0.0
68 ; 1.2958882629373033E7 ; 2.0211735379697067E8 ; 8.512202155586891E8 ; 1.2097343071677658E10 ; 0.0
69 ; 1.2964239351523748E7 ; 2.0213224958597493E8 ; 8.641790981880622E8 ; 1.2299460425474628E10 ; 0.0
70 ; 1.2966295705240007E7 ; 2.0214725399222875E8 ; 8.77143337539586E8 ; 1.2501592675060604E10 ; 0.0
71 ; 1.2969344537212899E7 ; 2.0216236326169243E8 ; 8.90109633244826E8 ; 1.2703739929052834E10 ; 0.0
72 ; 1.2971285124243973E7 ; 2.0217757372611588E8 ; 9.030789777820388E8 ; 1.2905902292314526E10 ; 0.0
73 ; 1.297157468693653E7 ; 2.021928818016979E8 ; 9.160502629062828E8 ; 1.3108079866040642E10 ; 0.0
74 ; 1.2971639367197046E7 ; 2.0220828398767483E8 ; 9.290218375932193E8 ; 1.331027274784234E10 ; 0.0
75 ; 1.2978351783034397E7 ; 2.022237768648487E8 ; 9.419934769604163E8 ; 1.3512481031830015E10 ; 0.0
76 ; 1.2979111051333956E7 ; 2.0223935709406587E8 ; 9.549718287434508E8 ; 1.3714704808694864E10 ; 0.0
77 ; 1.298227580270003E7 ; 2.0225502141465437E8 ; 9.679509397947847E8 ; 1.391694416578893E10 ; 0.0
78 ; 1.2976083180005893E7 ; 2.022707666428294E8 ; 9.809332155974847E8 ; 1.4119199187203585E10 ; 0.0
79 ; 1.2974416611898629E7 ; 2.022865896700737E8 ; 9.939092987774906E8 ; 1.4321469953846415E10 ; 0.0
80 ; 1.2971130344100868E7 ; 2.0230248746150035E8 ; 1.0068837153893893E9 ; 1.4523756543516489E10 ; 0.0
81 ; 1.2969437855270466E7 ; 2.023184570542045E8 ; 1.0198548457334901E9 ; 1.472605903097799E10 ; 0.0
82 ; 1.2964926210797792E7 ; 2.0233449555560872E8 ; 1.0328242835887606E9 ; 1.4928377488032194E10 ; 0.0
83 ; 1.2966775000854902E7 ; 2.0235060014180863E8 ; 1.0457892097995584E9 ; 1.5130711983587803E10 ; 0.0
84 ; 1.296191751646567E7 ; 2.0236676805592206E8 ; 1.0587559848004133E9 ; 1.5333062583729612E10 ; 0.0
85 ; 1.2957439112210395E7 ; 2.023829966064465E8 ; 1.0717179023168789E9 ; 1.5535429351785534E10 ; 0.0
86 ; 1.295678366591873E7 ; 2.0239928316562876E8 ; 1.0846753414290893E9 ; 1.5737812348391981E10 ; 0.0
87 ; 1.2953004345413977E7 ; 2.024156251678491E8 ; 1.0976321250950081E9 ; 1.594021163155761E10 ; 0.0
88 ; 1.294810904310823E7 ; 2.0243202010802403E8 ; 1.110585129440422E9 ; 1.6142627256725458E10 ; 0.0
89 ; 1.2944552729633136E7 ; 2.0244846554002887E8 ; 1.1235332384835303E9 ; 1.6345059276833483E10 ; 0.0
90 ; 1.2943406237129329E7 ; 2.0246495907514352E8 ; 1.1364777912131634E9 ; 1.6547507742373512E10 ; 0.0
91 ; 1.2938383592509825E7 ; 2.0248149838052213E8 ; 1.1494211974502926E9 ; 1.6749972701448656E10 ; 0.0
92 ; 1.2935250453805763E7 ; 2.0249808117768928E8 ; 1.1623595810428023E9 ; 1.6952454199829178E10 ; 0.0
93 ; 1.29289550282131E7 ; 2.025147052410633E8 ; 1.175294831496608E9 ; 1.7154952281006866E10 ; 0.0
94 ; 1.292788180382352E7 ; 2.025313683965082E8 ; 1.188223786524821E9 ; 1.735746698624793E10 ; 0.0
95 ; 1.2925605129328618E7 ; 2.0254806851991484E8 ; 1.2011516683286445E9 ; 1.7559998354644436E10 ; 0.0
96 ; 1.2916853995096289E7 ; 2.0256480353581253E8 ; 1.2140772734579732E9 ; 1.7762546423164352E10 ; 0.0
97 ; 1.2910370739401408E7 ; 2.0258157141601098E8 ; 1.2269941274530694E9 ; 1.7965111226700165E10 ; 0.0
98 ; 1.2910453003967592E7 ; 2.0259837017827347E8 ; 1.2399044981924708E9 ; 1.8167692798116177E10 ; 0.0
99 ; 1.2905508657016791E7 ; 2.0261519788502136E8 ; 1.2528149511964383E9 ; 1.837029116829445E10 ; 0.0
100 ; 1.2901194383687025E7 ; 2.0263205264206997E8 ; 1.265720459853455E9 ; 1.857290636617947E10 ; 0.0
101 ; 1.2894674128429627E7 ; 2.0264893259739596E8 ; 1.278621654237142E9 ; 1.877553841882154E10 ; 0.0
102 ; 1.2891672184613949E7 ; 2.0266583593993634E8 ; 1.2915163283655717E9 ; 1.8978187351418938E10 ; 0.0
103 ; 1.288482216424171E7 ; 2.0268276089841837E8 ; 1.3044080005501857E9 ; 1.9180853187358875E10 ; 0.0
104 ; 1.288159574995303E7 ; 2.0269970574022081E8 ; 1.3172928227144275E9 ; 1.9383535948257294E10 ; 0.0
105 ; 1.2875798477030968E7 ; 2.0271666877026582E8 ; 1.3301744184643805E9 ; 1.9586235653997513E10 ; 0.0
106 ; 1.2870891503800256E7 ; 2.0273364832994106E8 ; 1.3430502169414115E9 ; 1.978895232276778E10 ; 0.0
107 ; 1.2865331363960693E7 ; 2.027506427960521E8 ; 1.3559211084452116E9 ; 1.999168597109772E10 ; 0.0
108 ; 1.2859740926068392E7 ; 2.0276765057980403E8 ; 1.3687864398091724E9 ; 2.0194436613893772E10 ; 0.0
109 ; 1.2851659585721485E7 ; 2.027846701258124E8 ; 1.3816461807352407E9 ; 2.0397204264473576E10 ; 0.0
110 ; 1.2847629195588946E7 ; 2.0280169991114244E8 ; 1.3944978403209622E9 ; 2.059998893459939E10 ; 0.0
111 ; 1.2841081580266345E7 ; 2.028187384443764E8 ; 1.407345469516551E9 ; 2.0802790634510532E10 ; 0.0
112 ; 1.2837075049988288E7 ; 2.028357842647083E8 ; 1.4201865510968173E9 ; 2.100560937295491E10 ; 0.0
113 ; 1.283295327348551E7 ; 2.0285283594106543E8 ; 1.4330236261468055E9 ; 2.120844515721962E10 ; 0.0
114 ; 1.2825775656886071E7 ; 2.0286989207125622E8 ; 1.445856579420291E9 ; 2.1411297993160686E10 ; 0.0
115 ; 1.2816563350556172E7 ; 2.028869512811436E8 ; 1.458682355077177E9 ; 2.161416788523194E10 ; 0.0
116 ; 1.2808758179308495E7 ; 2.029040122238436E8 ; 1.4714989184277332E9 ; 2.1817054836513084E10 ; 0.0
117 ; 1.280274733939098E7 ; 2.0292107357894814E8 ; 1.4843076766070416E9 ; 2.2019958848736927E10 ; 0.0
118 ; 1.279598106226796E7 ; 2.0293813405177164E8 ; 1.4971104239464326E9 ; 2.2222879922315876E10 ; 0.0
119 ; 1.2789967941035906E7 ; 2.02955192372621E8 ; 1.5099064050087006E9 ; 2.242581805636765E10 ; 0.0
120 ; 1.2781888240431057E7 ; 2.0297224729608798E8 ; 1.5226963729497366E9 ; 2.262877324874027E10 ; 0.0
121 ; 1.2776398086518385E7 ; 2.0298929760036352E8 ; 1.5354782611901677E9 ; 2.2831745496036358E10 ; 0.0
122 ; 1.27659966759155E7 ; 2.0300634208657345E8 ; 1.548254659276686E9 ; 2.3034734793636723E10 ; 0.0
123 ; 1.2765802567384657E7 ; 2.030233795781351E8 ; 1.5610206559526014E9 ; 2.3237741135723297E10 ; 0.0
124 ; 1.275649017329027E7 ; 2.0304040892013368E8 ; 1.5737864585199862E9 ; 2.3440764515301434E10 ; 0.0
125 ; 1.2748650299785934E7 ; 2.0305742897871876E8 ; 1.5865429486932764E9 ; 2.364380492422157E10 ; 0.0
126 ; 1.2740946890809925E7 ; 2.030744386405192E8 ; 1.5992915989930623E9 ; 2.3846862353200287E10 ; 0.0
127 ; 1.2734071356537592E7 ; 2.030914368120771E8 ; 1.6120325458838723E9 ; 2.4049936791840805E10 ; 0.0
128 ; 1.2725821574470095E7 ; 2.0310842241929913E8 ; 1.6247666172404099E9 ; 2.425302822865288E10 ; 0.0
129 ; 1.271840052633489E7 ; 2.0312539440692547E8 ; 1.63749243881488E9 ; 2.445613665107218E10 ; 0.0
130 ; 1.2708803154068287E7 ; 2.0314235173801565E8 ; 1.650210839341215E9 ; 2.4659262045479107E10 ; 0.0
131 ; 1.2692443562379679E7 ; 2.0315929339345044E8 ; 1.6629196424952831E9 ; 2.486240439721712E10 ; 0.0
132 ; 1.2684353777380269E7 ; 2.0317621837144983E8 ; 1.6756120860576627E9 ; 2.5065563690610573E10 ; 0.0
133 ; 1.2672768605088802E7 ; 2.0319312568710607E8 ; 1.688296439835043E9 ; 2.526873990898202E10 ; 0.0
134 ; 1.2660365471834198E7 ; 2.0321001437193176E8 ; 1.7009692084401317E9 ; 2.547193303466913E10 ; 0.0
135 ; 1.264638396374061E7 ; 2.0322688347342208E8 ; 1.7136295739119658E9 ; 2.567514304904106E10 ; 0.0
136 ; 1.2632304417530997E7 ; 2.032437320546312E8 ; 1.7262759578757064E9 ; 2.5878369932514484E10 ; 0.0
137 ; 1.262471351897527E7 ; 2.0326055919376197E8 ; 1.7389082622932374E9 ; 2.6081613664569115E10 ; 0.0
138 ; 1.2605515125478903E7 ; 2.0327736398376855E8 ; 1.7515329758122127E9 ; 2.628487422376288E10 ; 0.0
139 ; 1.259570444673755E7 ; 2.0329414553197205E8 ; 1.7641384909376917E9 ; 2.6488151587746647E10 ; 0.0
140 ; 1.258436255167852E7 ; 2.0331090295968795E8 ; 1.7767341953844292E9 ; 2.6691445733278618E10 ; 0.0
141 ; 1.2569014915155156E7 ; 2.0332763540186563E8 ; 1.7893185579361076E9 ; 2.6894756636238304E10 ; 0.0
142 ; 1.255869757873205E7 ; 2.0334434200673914E8 ; 1.8018875728512628E9 ; 2.709808427164017E10 ; 0.0
143 ; 1.2544461501704432E7 ; 2.0336102193548927E8 ; 1.8144462704299948E9 ; 2.730142861364691E10 ; 0.0
144 ; 1.253054832279868E7 ; 2.0337767436191607E8 ; 1.8269907319316993E9 ; 2.75047896355824E10 ; 0.0
145 ; 1.2523234437640656E7 ; 2.0339429847212183E8 ; 1.839521280254498E9 ; 2.7708167309944317E10 ; 0.0
146 ; 1.2513965876816101E7 ; 2.0341089346420425E8 ; 1.8520445146921387E9 ; 2.791156160841644E10 ; 0.0
147 ; 1.2504664362488784E7 ; 2.0342745854795897E8 ; 1.8645584805689547E9 ; 2.8114972501880642E10 ; 0.0
148 ; 1.2500164487651858E7 ; 2.0344399294459176E8 ; 1.8770631449314435E9 ; 2.83183999604286E10 ; 0.0
149 ; 1.2490390905236121E7 ; 2.0346049588643962E8 ; 1.8895633094190953E9 ; 2.852184395337319E10 ; 0.0
150 ; 1.2483345228577321E7 ; 2.0347696661670074E8 ; 1.9020537003243313E9 ; 2.8725304449259632E10 ; 0.0
151 ; 1.2473609848109253E7 ; 2.0349340438917285E8 ; 1.9145370455529087E9 ; 2.892878141587633E10 ; 0.0
152 ; 1.2465161330783289E7 ; 2.0350980846799988E8 ; 1.927010655401018E9 ; 2.9132274820265503E10 ; 0.0
153 ; 1.2451234084479082E7 ; 2.0352617812742645E8 ; 1.9394758167318013E9 ; 2.93357846287335E10 ; 0.0
154 ; 1.2442653130921012E7 ; 2.0354251265156013E8 ; 1.9519270508162804E9 ; 2.9539310806860928E10 ; 0.0
155 ; 1.2437738521027151E7 ; 2.0355881133414108E8 ; 1.9643697039472015E9 ; 2.974285331951249E10 ; 0.0
156 ; 1.2431195376659486E7 ; 2.0357507347831887E8 ; 1.9768074424682286E9 ; 2.994641213084663E10 ; 0.0
157 ; 1.2421106576498639E7 ; 2.0359129839643615E8 ; 1.989238637844888E9 ; 3.0149987204324947E10 ; 0.0
158 ; 1.240937461625649E7 ; 2.036074854098193E8 ; 2.0016597444213867E9 ; 3.0353578502721382E10 ; 0.0
159 ; 1.240076652953357E7 ; 2.036236338485753E8 ; 2.0140691190376432E9 ; 3.0557185988131203E10 ; 0.0
160 ; 1.239079402343049E7 ; 2.036397430513949E8 ; 2.0264698855671768E9 ; 3.076080962197978E10 ; 0.0
161 ; 1.2381814426929336E7 ; 2.0365581236536223E8 ; 2.0388606795906074E9 ; 3.0964449365031174E10 ; 0.0
162 ; 1.236702972833015E7 ; 2.036718411457697E8 ; 2.0512424940175366E9 ; 3.1168105177396538E10 ; 0.0
163 ; 1.2364980007512547E7 ; 2.036878287559391E8 ; 2.0636095237458668E9 ; 3.137177701854231E10 ; 0.0
164 ; 1.2353923902968332E7 ; 2.0370377456704795E8 ; 2.0759745037533793E9 ; 3.157546484729825E10 ; 0.0
165 ; 1.234552222944298E7 ; 2.037196779579613E8 ; 2.0883284276563478E9 ; 3.1779168621865295E10 ; 0.0
166 ; 1.2334877155168466E7 ; 2.0373553831506842E8 ; 2.1006739498857908E9 ; 3.1982888299823257E10 ; 0.0
167 ; 1.2322342075721659E7 ; 2.0375135503212485E8 ; 2.1130088270409594E9 ; 3.2186623838138325E10 ; 0.0
168 ; 1.2316932477878066E7 ; 2.03767127510099E8 ; 2.125331169116681E9 ; 3.239037519317045E10 ; 0.0
169 ; 1.2308993611043774E7 ; 2.0378285515702346E8 ; 2.1376481015945592E9 ; 3.2594142320680546E10 ; 0.0
170 ; 1.2296663160669142E7 ; 2.0379853738785097E8 ; 2.149957095205603E9 ; 3.279792517583757E10 ; 0.0
171 ; 1.229035399081751E7 ; 2.038141736243145E8 ; 2.1622537583662724E9 ; 3.300172371322542E10 ; 0.0
172 ; 1.227575385591238E7 ; 2.0382976329479176E8 ; 2.17454411235709E9 ; 3.3205537886849735E10 ; 0.0
173 ; 1.2271590496772049E7 ; 2.0384530583417383E8 ; 2.186819866213002E9 ; 3.3409367650144527E10 ; 0.0
174 ; 1.2262647528674752E7 ; 2.038608006837375E8 ; 2.199091456709774E9 ; 3.3613212955978703E10 ; 0.0
175 ; 1.2257064866771784E7 ; 2.038762472910217E8 ; 2.2113541042384486E9 ; 3.381707375666244E10 ; 0.0
176 ; 1.2252359763672592E7 ; 2.0389164510970753E8 ; 2.2236111691052203E9 ; 3.4020950003953465E10 ; 0.0
177 ; 1.2246853876788227E7 ; 2.0390699359950194E8 ; 2.235863528868893E9 ; 3.422484164906317E10 ; 0.0
178 ; 1.2238624195437074E7 ; 2.0392229222602466E8 ; 2.2481103827456813E9 ; 3.4428748642662674E10 ; 0.0
179 ; 1.2234112826786034E7 ; 2.039375404606989E8 ; 2.2603490069411182E9 ; 3.46326709348887E10 ; 0.0
180 ; 1.2228331817442562E7 ; 2.0395273778064498E8 ; 2.2725831197679043E9 ; 3.48366084753494E10 ; 0.0
181 ; 1.2222171749739252E7 ; 2.0396788366857713E8 ; 2.2848114515853467E9 ; 3.504056121313005E10 ; 0.0
182 ; 1.2216167371739145E7 ; 2.0398297761270362E8 ; 2.297033623335086E9 ; 3.524452909679863E10 ; 0.0
183 ; 1.220704253357156E7 ; 2.0399801910662952E8 ; 2.309249790706825E9 ; 3.544851207441133E10 ; 0.0
184 ; 1.2205912611608148E7 ; 2.0401300764926255E8 ; 2.3214568332403965E9 ; 3.565251009351796E10 ; 0.0
185 ; 1.2200677055151863E7 ; 2.040279427447216E8 ; 2.3336627458520045E9 ; 3.585652310116722E10 ; 0.0
186 ; 1.2195034962063016E7 ; 2.040428239022479E8 ; 2.3458634229071565E9 ; 3.606055104391194E10 ; 0.0
187 ; 1.2191281750455862E7 ; 2.0405765063611898E8 ; 2.3580584578692193E9 ; 3.6264593867814186E10 ; 0.0
188 ; 1.218373785444242E7 ; 2.04072422465565E8 ; 2.370249739619675E9 ; 3.64686515184503E10 ; 0.0
189 ; 1.2175907364733197E7 ; 2.0408713891468742E8 ; 2.3824334774741178E9 ; 3.667272394091587E10 ; 0.0
190 ; 1.2166083353053022E7 ; 2.0410179951238045E8 ; 2.394609384838851E9 ; 3.687681107983056E10 ; 0.0
191 ; 1.2160553958781468E7 ; 2.0411640379225427E8 ; 2.406775468191904E9 ; 3.708091287934294E10 ; 0.0
192 ; 1.2154034573998941E7 ; 2.041309512925608E8 ; 2.4189360221506853E9 ; 3.728502928313519E10 ; 0.0
193 ; 1.2151923786891434E7 ; 2.0414544155612165E8 ; 2.4310900567246842E9 ; 3.748916023442776E10 ; 0.0
194 ; 1.2145713335141148E7 ; 2.0415987413025793E8 ; 2.4432419805115757E9 ; 3.769330567598388E10 ; 0.0
195 ; 1.2139034570970051E7 ; 2.0417424856672236E8 ; 2.455387693846717E9 ; 3.7897465550114136E10 ; 0.0
