CSV File for the City 1 on Day 211
1 - Minute m 
2 - Power Consumed at minute m 
3 - Power Produced at minute m 
4 - Energy Consumed since the beginning of the day 
5 - Energy Produced since the beginning of the day 
6 - Energy Lost since the beginning of the day on lines starting from the city
 
0 ; 1041548.3443558959 ; 1.0533523915778998E8 ; 0.0 ; 0.0 ; 0.0
1 ; 1059797.2029924465 ; 1.0548761075447226E8 ; 1041548.3443558959 ; 1.0533523915778998E8 ; 0.0
2 ; 1078079.8944846634 ; 1.0594881019404355E8 ; 2101345.5473483424 ; 2.1082284991226223E8 ; 0.0
3 ; 1096549.0679573282 ; 1.06718843444839E8 ; 3179425.4418330058 ; 3.167716601063058E8 ; 0.0
4 ; 1127348.4944040577 ; 1.0779771603674197E8 ; 4275974.509790334 ; 4.234905035511448E8 ; 0.0
5 ; 1155116.0854435354 ; 1.091854329756993E8 ; 5403323.004194392 ; 5.3128821958788675E8 ; 0.0
6 ; 1195642.4452394014 ; 1.1088199866138473E8 ; 6558439.089637928 ; 6.40473652563586E8 ; 0.0
7 ; 1254431.4154636431 ; 1.1288741681089187E8 ; 7754081.534877329 ; 7.513556512249707E8 ; 0.0
8 ; 1334469.2881602703 ; 1.1520169039135319E8 ; 9008512.950340971 ; 8.642430680358626E8 ; 0.0
9 ; 1454962.4901574538 ; 1.1782482156422096E8 ; 1.0342982238501241E7 ; 9.794447584272158E8 ; 0.0
10 ; 1635845.238697079 ; 1.2075681164358747E8 ; 1.1797944728658695E7 ; 1.0972695799914367E9 ; 0.0
11 ; 1924842.042281166 ; 1.2399766107039383E8 ; 1.3433789967355773E7 ; 1.218026391635024E9 ; 0.0
12 ; 2389227.6170561784 ; 1.2754736940369889E8 ; 1.5358632009636939E7 ; 1.3420240527054179E9 ; 0.0
13 ; 2837489.595755996 ; 1.3140593532941037E8 ; 1.774785962669312E7 ; 1.4695714221091168E9 ; 0.0
14 ; 2892502.8180418084 ; 1.355733566860761E8 ; 2.0585349222449116E7 ; 1.600977357438527E9 ; 0.0
15 ; 2918790.3864391954 ; 1.4004963050656348E8 ; 2.3477852040490925E7 ; 1.7365507141246033E9 ; 0.0
16 ; 2939812.6942921197 ; 1.4483475307377902E8 ; 2.6396642426930122E7 ; 1.8766003446311667E9 ; 0.0
17 ; 2965281.0774222617 ; 1.4992871998804888E8 ; 2.9336455121222243E7 ; 2.0214350977049458E9 ; 0.0
18 ; 2988809.6346194525 ; 1.5533152624342626E8 ; 3.2301736198644504E7 ; 2.1713638176929946E9 ; 0.0
19 ; 3011650.6825580914 ; 1.610431663100278E8 ; 3.5290545833263956E7 ; 2.326695343936421E9 ; 0.0
20 ; 3036241.1334205493 ; 1.6706363421951833E8 ; 3.8302196515822046E7 ; 2.4877385102464485E9 ; 0.0
21 ; 3061214.3634148887 ; 1.7339292365104184E8 ; 4.1338437649242595E7 ; 2.6548021444659667E9 ; 0.0
22 ; 3084947.358004353 ; 1.800310280151981E8 ; 4.4399652012657486E7 ; 2.8281950681170087E9 ; 0.0
23 ; 3108187.308644963 ; 1.8697794053405523E8 ; 4.748459937066184E7 ; 3.008226096132207E9 ; 0.0
24 ; 3135900.0693653612 ; 1.9423365431561643E8 ; 5.0592786679306805E7 ; 3.195204036666262E9 ; 0.0
25 ; 3156389.975490088 ; 2.004862033197891E8 ; 5.3728686748672165E7 ; 3.3894376909818788E9 ; 0.0
26 ; 3182624.93654986 ; 2.004891284556641E8 ; 5.688507672416225E7 ; 3.5899238943016677E9 ; 0.0
27 ; 3204510.0380243855 ; 2.0049219215905696E8 ; 6.006770166071211E7 ; 3.790413022757332E9 ; 0.0
28 ; 3228802.7663014336 ; 2.00495387684148E8 ; 6.3272211698736496E7 ; 3.990905214916389E9 ; 0.0
29 ; 3251867.398396158 ; 2.0049870843405595E8 ; 6.650101446503793E7 ; 4.191400602600537E9 ; 0.0
30 ; 3275811.0092308344 ; 2.0050214799104998E8 ; 6.975288186343409E7 ; 4.391899311034593E9 ; 0.0
31 ; 3295246.6095134495 ; 2.005057001402038E8 ; 7.302869287266493E7 ; 4.592401459025642E9 ; 0.0
32 ; 3317065.9768823027 ; 2.0050935888713163E8 ; 7.632393948217838E7 ; 4.792907159165846E9 ; 0.0
33 ; 3343088.9273564494 ; 2.0051311847048524E8 ; 7.964100545906068E7 ; 4.993416518052978E9 ; 0.0
34 ; 3360740.7820968116 ; 2.005169733698974E8 ; 8.298409438641714E7 ; 5.193929636523463E9 ; 0.0
35 ; 3386684.3883934557 ; 2.005209183100353E8 ; 8.634483516851395E7 ; 5.394446609893361E9 ; 0.0
36 ; 3402218.088051733 ; 2.0052494826138943E8 ; 8.973151955690742E7 ; 5.594967528203397E9 ; 0.0
37 ; 3420447.402534145 ; 2.0052905843837243E8 ; 9.313373764495915E7 ; 5.795492476464787E9 ; 0.0
38 ; 3443285.6164644035 ; 2.0053324429524547E8 ; 9.65541850474933E7 ; 5.996021534903159E9 ; 0.0
39 ; 3463159.460791453 ; 2.0053750152032998E8 ; 9.99974706639577E7 ; 6.196554779198404E9 ; 0.0
40 ; 3479376.112669405 ; 2.0054182602890375E8 ; 1.0346063012474915E8 ; 6.397092280718735E9 ; 0.0
41 ; 3496784.778970214 ; 2.005462139551233E8 ; 1.0694000623741856E8 ; 6.597634106747639E9 ; 0.0
42 ; 3515148.892460649 ; 2.005506616432626E8 ; 1.1043679101638877E8 ; 6.798180320702762E9 ; 0.0
43 ; 3530960.213008093 ; 2.0055516563850996E8 ; 1.1395193990884942E8 ; 6.9987309823460245E9 ; 0.0
44 ; 3544062.425896527 ; 2.0055972267752293E8 ; 1.1748290012185751E8 ; 7.199286147984534E9 ; 0.0
45 ; 3562204.770654154 ; 2.0056432967890248E8 ; 1.2102696254775403E8 ; 7.399845870662057E9 ; 0.0
46 ; 3575278.2603479973 ; 2.005689837337167E8 ; 1.2458916731840819E8 ; 7.60041020034096E9 ; 0.0
47 ; 3589068.298892444 ; 2.0057368209617528E8 ; 1.2816444557875618E8 ; 7.8009791840746765E9 ; 0.0
48 ; 3597075.011969271 ; 2.0057842217453328E8 ; 1.3175351387764862E8 ; 8.001552866170852E9 ; 0.0
49 ; 3609909.806836659 ; 2.005832015222823E8 ; 1.353505888896179E8 ; 8.202131288345385E9 ; 0.0
50 ; 3618620.9436580236 ; 2.0058801782967126E8 ; 1.3896049869645455E8 ; 8.402714489867667E9 ; 0.0
51 ; 3630162.6290246085 ; 2.0059286891558573E8 ; 1.4257911964011258E8 ; 8.603302507697338E9 ; 0.0
52 ; 3642579.4328428665 ; 2.0059775271980295E8 ; 1.4620928226913717E8 ; 8.803895376612925E9 ; 0.0
53 ; 3650119.340713019 ; 2.0060266729563218E8 ; 1.4985186170198005E8 ; 9.004493129332727E9 ; 0.0
54 ; 3660651.0274008913 ; 2.0060761080294177E8 ; 1.5350198104269308E8 ; 9.205095796628359E9 ; 0.0
55 ; 3672580.5449555055 ; 2.0061258150157025E8 ; 1.5716263207009396E8 ; 9.405703407431301E9 ; 0.0
56 ; 3681744.295044936 ; 2.0061757774511337E8 ; 1.6083521261504945E8 ; 9.60631598893287E9 ; 0.0
57 ; 3687946.38756238 ; 2.006225979750766E8 ; 1.6451695691009438E8 ; 9.806933566677984E9 ; 0.0
58 ; 3701609.978871113 ; 2.0062764071538055E8 ; 1.6820490329765677E8 ; 1.000755616465306E10 ; 0.0
59 ; 3708831.2162967026 ; 2.0063270456720424E8 ; 1.7190651327652788E8 ; 1.020818380536844E10 ; 0.0
60 ; 3719993.781833388 ; 2.0063778820415127E8 ; 1.7561534449282458E8 ; 1.0408816509935644E10 ; 0.0
61 ; 3727978.2749575665 ; 2.0064289036772266E8 ; 1.7933533827465796E8 ; 1.0609454298139795E10 ; 0.0
62 ; 3736642.355261314 ; 2.0064800986308E8 ; 1.8306331654961553E8 ; 1.0810097188507519E10 ; 0.0
63 ; 3745030.459806426 ; 2.006531455550829E8 ; 1.8679995890487686E8 ; 1.1010745198370598E10 ; 0.0
64 ; 3756945.486464971 ; 2.0065829636458474E8 ; 1.9054498936468327E8 ; 1.121139834392568E10 ; 0.0
65 ; 3762857.764512035 ; 2.0066346126497126E8 ; 1.9430193485114825E8 ; 1.1412056640290264E10 ; 0.0
66 ; 3771686.5157204396 ; 2.0066863927892655E8 ; 1.9806479261566028E8 ; 1.1612720101555235E10 ; 0.0
67 ; 3776382.204814456 ; 2.0067382947541285E8 ; 2.018364791313807E8 ; 1.1813388740834162E10 ; 0.0
68 ; 3788303.1582220243 ; 2.0067903096684965E8 ; 2.0561286133619517E8 ; 1.2014062570309574E10 ; 0.0
69 ; 3795929.7880257266 ; 2.006842429064794E8 ; 2.094011644944172E8 ; 1.2214741601276424E10 ; 0.0
70 ; 3803613.2731390097 ; 2.0068946448590747E8 ; 2.1319709428244293E8 ; 1.2415425844182903E10 ; 0.0
71 ; 3812305.45096864 ; 2.006946949328045E8 ; 2.1700070755558193E8 ; 1.261611530866881E10 ; 0.0
72 ; 3818418.7128685107 ; 2.0069993350876045E8 ; 2.2081301300655058E8 ; 1.2816810003601614E10 ; 0.0
73 ; 3824890.1148020937 ; 2.0070517950727984E8 ; 2.246314317194191E8 ; 1.3017509937110374E10 ; 0.0
74 ; 3832618.63076687 ; 2.0071043225190848E8 ; 2.2845632183422118E8 ; 1.3218215116617655E10 ; 0.0
75 ; 3839197.6539736977 ; 2.007156910944829E8 ; 2.3228894046498805E8 ; 1.3418925548869564E10 ; 0.0
76 ; 3848512.750661902 ; 2.007209554134939E8 ; 2.3612813811896175E8 ; 1.3619641239964046E10 ; 0.0
77 ; 3851657.2794647585 ; 2.0072622461255634E8 ; 2.3997665086962366E8 ; 1.382036219537754E10 ; 0.0
78 ; 3856480.894085867 ; 2.0073149811897796E8 ; 2.438283081490884E8 ; 1.4021088419990097E10 ; 0.0
79 ; 3857500.564889887 ; 2.0073677538242015E8 ; 2.4768478904317427E8 ; 1.4221819918109076E10 ; 0.0
80 ; 3860886.6910130903 ; 2.007420558736447E8 ; 2.5154228960806414E8 ; 1.4422556693491495E10 ; 0.0
81 ; 3860462.1335971802 ; 2.0074733908334035E8 ; 2.5540317629907724E8 ; 1.4623298749365139E10 ; 0.0
82 ; 3861176.368743244 ; 2.0075262452102366E8 ; 2.592636384326744E8 ; 1.4824046088448479E10 ; 0.0
83 ; 3859373.9831247786 ; 2.0075791171400926E8 ; 2.6312481480141765E8 ; 1.5024798712969501E10 ; 0.0
84 ; 3863562.64288146 ; 2.007632002064445E8 ; 2.6698418878454244E8 ; 1.522555662468351E10 ; 0.0
85 ; 3863065.7251485214 ; 2.0076848955840456E8 ; 2.708477514274239E8 ; 1.5426319824889954E10 ; 0.0
86 ; 3865153.9080310734 ; 2.0077377934504312E8 ; 2.747108171525724E8 ; 1.5627088314448359E10 ; 0.0
87 ; 3867753.051810702 ; 2.007790691557959E8 ; 2.7857597106060344E8 ; 1.5827862093793402E10 ; 0.0
88 ; 3867681.0155836986 ; 2.0078435859363234E8 ; 2.824437241124141E8 ; 1.6028641162949198E10 ; 0.0
89 ; 3867507.973727571 ; 2.0078964727435324E8 ; 2.863114051279978E8 ; 1.622942552154283E10 ; 0.0
90 ; 3864684.871669292 ; 2.007949348259305E8 ; 2.901789131017254E8 ; 1.6430215168817183E10 ; 0.0
91 ; 3867761.52326675 ; 2.0080022088788673E8 ; 2.940435979733947E8 ; 1.6631010103643112E10 ; 0.0
92 ; 3866048.424898325 ; 2.008055051107116E8 ; 2.979113594966614E8 ; 1.6831810324530998E10 ; 0.0
93 ; 3867812.406041555 ; 2.0081078715531296E8 ; 3.0177740792155975E8 ; 1.703261582964171E10 ; 0.0
94 ; 3867583.454357302 ; 2.0081606669250008E8 ; 3.056452203276013E8 ; 1.7233426616797024E10 ; 0.0
95 ; 3865208.450545665 ; 2.0082134340249717E8 ; 3.0951280378195864E8 ; 1.7434242683489525E10 ; 0.0
96 ; 3863715.5991194188 ; 2.0082661697448525E8 ; 3.133780122325043E8 ; 1.763506402689202E10 ; 0.0
97 ; 3865121.366641013 ; 2.0083188710617006E8 ; 3.1724172783162373E8 ; 1.7835890643866505E10 ; 0.0
98 ; 3865424.584653095 ; 2.008371535033752E8 ; 3.211068491982647E8 ; 1.8036722530972675E10 ; 0.0
99 ; 3863024.9008067097 ; 2.0084241587965798E8 ; 3.249722737829178E8 ; 1.823755968447605E10 ; 0.0
100 ; 3864060.78500255 ; 2.0084767395594716E8 ; 3.288352986837245E8 ; 1.843840210035571E10 ; 0.0
101 ; 3861205.859012857 ; 2.0085292746020108E8 ; 3.3269935946872705E8 ; 1.8639249774311657E10 ; 0.0
102 ; 3862228.030166752 ; 2.0085817612708458E8 ; 3.365605653277399E8 ; 1.884010270177186E10 ; 0.0
103 ; 3859505.2579727904 ; 2.008634196976641E8 ; 3.4042279335790664E8 ; 1.904096087789894E10 ; 0.0
104 ; 3859053.195101165 ; 2.008686579191193E8 ; 3.442822986158794E8 ; 1.9241824297596603E10 ; 0.0
105 ; 3857583.3233084884 ; 2.008738905444705E8 ; 3.4814135181098056E8 ; 1.9442692955515724E10 ; 0.0
106 ; 3856965.003377284 ; 2.008791173323209E8 ; 3.51998935134289E8 ; 1.9643566846060196E10 ; 0.0
107 ; 3853999.056048929 ; 2.0088433804661277E8 ; 3.558559001376663E8 ; 1.9844445963392517E10 ; 0.0
108 ; 3850732.545469813 ; 2.0088955245639643E8 ; 3.597098991937152E8 ; 2.004533030143913E10 ; 0.0
109 ; 3849964.568317852 ; 2.0089476033561176E8 ; 3.6356063173918504E8 ; 2.0246219853895527E10 ; 0.0
110 ; 3845383.5716444217 ; 2.0089996146288112E8 ; 3.6741059630750287E8 ; 2.044711461423114E10 ; 0.0
111 ; 3842875.469865681 ; 2.0090515562131307E8 ; 3.712559798791473E8 ; 2.0648014575694023E10 ; 0.0
112 ; 3840915.76399711 ; 2.0091034259831643E8 ; 3.75098855349013E8 ; 2.0848919731315334E10 ; 0.0
113 ; 3840614.4152031965 ; 2.009155221854239E8 ; 3.789397711130101E8 ; 2.104983007391365E10 ; 0.0
114 ; 3839290.9014902804 ; 2.0092069417812473E8 ; 3.827803855282133E8 ; 2.1250745596099075E10 ; 0.0
115 ; 3833574.4930344853 ; 2.0092585837570587E8 ; 3.866196764297036E8 ; 2.14516662902772E10 ; 0.0
116 ; 3831518.051927737 ; 2.009310145811014E8 ; 3.904532509227381E8 ; 2.1652592148652905E10 ; 0.0
117 ; 3829043.0405607857 ; 2.0093616260074922E8 ; 3.942847689746658E8 ; 2.1853523163234005E10 ; 0.0
118 ; 3826394.883924939 ; 2.0094130224445528E8 ; 3.981138120152266E8 ; 2.2054459325834755E10 ; 0.0
119 ; 3820950.822454123 ; 2.0094643332526413E8 ; 4.0194020689915156E8 ; 2.225540062807921E10 ; 0.0
120 ; 3816089.5234103156 ; 2.0095155565933633E8 ; 4.0576115772160566E8 ; 2.2456347061404472E10 ; 0.0
121 ; 3816614.43550945 ; 2.0095666906583157E8 ; 4.09577247245016E8 ; 2.265729861706381E10 ; 0.0
122 ; 3813260.572721075 ; 2.0096177336679754E8 ; 4.133938616805254E8 ; 2.285825528612964E10 ; 0.0
123 ; 3807483.6528759305 ; 2.0096686838706434E8 ; 4.172071222532465E8 ; 2.3059217059496437E10 ; 0.0
124 ; 3802453.10963305 ; 2.0097195395414382E8 ; 4.2101460590612245E8 ; 2.3260183927883503E10 ; 0.0
125 ; 3799535.4030040037 ; 2.0097702989813378E8 ; 4.248170590157555E8 ; 2.3461155881837646E10 ; 0.0
126 ; 3798494.398447298 ; 2.0098209605162686E8 ; 4.2861659441875947E8 ; 2.366213291173578E10 ; 0.0
127 ; 3792378.744434294 ; 2.0098715224962348E8 ; 4.3241508881720674E8 ; 2.3863115007787407E10 ; 0.0
128 ; 3785339.7000330314 ; 2.009921983294492E8 ; 4.3620746756164104E8 ; 2.406410216003703E10 ; 0.0
129 ; 3783211.355160335 ; 2.0099723413067573E8 ; 4.3999280726167405E8 ; 2.4265094358366478E10 ; 0.0
130 ; 3773311.9147689226 ; 2.0100225949504563E8 ; 4.437760186168344E8 ; 2.4466091592497154E10 ; 0.0
131 ; 3765764.4098683763 ; 2.0100727426640067E8 ; 4.4754933053160334E8 ; 2.46670938519922E10 ; 0.0
132 ; 3753419.1115846266 ; 2.0101227829061314E8 ; 4.513150949414717E8 ; 2.48681011262586E10 ; 0.0
133 ; 3747466.317302783 ; 2.0101727141552082E8 ; 4.550685140530563E8 ; 2.506911340454921E10 ; 0.0
134 ; 3731607.815152948 ; 2.0102225349086425E8 ; 4.5881598037035906E8 ; 2.527013067596473E10 ; 0.0
135 ; 3723560.3560059294 ; 2.0102722436822754E8 ; 4.62547588185512E8 ; 2.5471152929455593E10 ; 0.0
136 ; 3713951.9114779597 ; 2.010321839009813E8 ; 4.662711485415179E8 ; 2.5672180153823822E10 ; 0.0
137 ; 3702795.782449631 ; 2.0103713194422835E8 ; 4.699851004529959E8 ; 2.5873212337724804E10 ; 0.0
138 ; 3690186.071921556 ; 2.0104206835475188E8 ; 4.736878962354455E8 ; 2.6074249469669033E10 ; 0.0
139 ; 3678830.5284718233 ; 2.0104699299096584E8 ; 4.77378082307367E8 ; 2.6275291538023785E10 ; 0.0
140 ; 3670586.3096593907 ; 2.0105190571286756E8 ; 4.8105691283583885E8 ; 2.647633853101475E10 ; 0.0
141 ; 3658587.037655148 ; 2.0105680638199228E8 ; 4.847274991454982E8 ; 2.667739043672762E10 ; 0.0
142 ; 3647465.6998691787 ; 2.0106169486137E8 ; 4.883860861831534E8 ; 2.687844724310961E10 ; 0.0
143 ; 3634917.916881884 ; 2.010665710154839E8 ; 4.9203355188302255E8 ; 2.707950893797098E10 ; 0.0
144 ; 3624651.7050414104 ; 2.0107143471023065E8 ; 4.956684697999044E8 ; 2.7280575508986465E10 ; 0.0
145 ; 3616528.8304090374 ; 2.0107628581288254E8 ; 4.992931215049458E8 ; 2.7481646943696697E10 ; 0.0
146 ; 3613216.838752288 ; 2.0108112419205102E8 ; 5.0290965033535486E8 ; 2.768272322950958E10 ; 0.0
147 ; 3611688.6458030194 ; 2.0108594971765205E8 ; 5.0652286717410713E8 ; 2.788380435370163E10 ; 0.0
148 ; 3605103.909172475 ; 2.010907622608727E8 ; 5.1013455581991017E8 ; 2.808489030341928E10 ; 0.0
149 ; 3597135.4081507795 ; 2.0109556169413915E8 ; 5.1373965972908264E8 ; 2.8285981065680153E10 ; 0.0
150 ; 3595221.339421773 ; 2.0110034789108643E8 ; 5.1733679513723344E8 ; 2.848707662737429E10 ; 0.0
151 ; 3591111.838772737 ; 2.011051207265288E8 ; 5.209320164766552E8 ; 2.8688176975265377E10 ; 0.0
152 ; 3587929.9260262875 ; 2.011098800764319E8 ; 5.245231283154279E8 ; 2.8889282095991905E10 ; 0.0
153 ; 3580974.4668172062 ; 2.0111462581788582E8 ; 5.281110582414542E8 ; 2.9090391976068336E10 ; 0.0
154 ; 3576219.0308383256 ; 2.011193578290793E8 ; 5.316920327082714E8 ; 2.9291506601886223E10 ; 0.0
155 ; 3571930.8130875486 ; 2.0112407598927504E8 ; 5.352682517391097E8 ; 2.94926259597153E10 ; 0.0
156 ; 3568263.277971035 ; 2.0112878017878592E8 ; 5.388401825521972E8 ; 2.969375003570458E10 ; 0.0
157 ; 3565400.748706047 ; 2.0113347027895248E8 ; 5.424084458301682E8 ; 2.9894878815883366E10 ; 0.0
158 ; 3556559.7382862368 ; 2.0113814617212084E8 ; 5.459738465788743E8 ; 3.009601228616232E10 ; 0.0
159 ; 3555677.243051459 ; 2.0114280774162203E8 ; 5.495304063171606E8 ; 3.029715043233444E10 ; 0.0
160 ; 3548825.8871235773 ; 2.0114745487175184E8 ; 5.53086083560212E8 ; 3.049829324007606E10 ; 0.0
161 ; 3545429.281652717 ; 2.0115208744775155E8 ; 5.566349094473356E8 ; 3.0699440694947815E10 ; 0.0
162 ; 3541667.6827048277 ; 2.011567053557894E8 ; 5.601803387289883E8 ; 3.0900592782395565E10 ; 0.0
163 ; 3534145.6385749904 ; 2.0116130848294303E8 ; 5.637220064116931E8 ; 3.1101749487751354E10 ; 0.0
164 ; 3529036.3153482378 ; 2.011658967171823E8 ; 5.67256152050268E8 ; 3.13029107962343E10 ; 0.0
165 ; 3524860.741078497 ; 2.01170469947353E8 ; 5.707851883656163E8 ; 3.150407669295148E10 ; 0.0
166 ; 3522365.1320205396 ; 2.011750280631612E8 ; 5.743100491066948E8 ; 3.1705247162898834E10 ; 0.0
167 ; 3515411.694565461 ; 2.0117957095515803E8 ; 5.778324142387154E8 ; 3.1906422190961994E10 ; 0.0
168 ; 3511999.290887209 ; 2.0118409851472542E8 ; 5.813478259332808E8 ; 3.2107601761917152E10 ; 0.0
169 ; 3505285.34087138 ; 2.0118861063406208E8 ; 5.848598252241681E8 ; 3.2308785860431877E10 ; 0.0
170 ; 3501606.86879261 ; 2.0119310720617017E8 ; 5.883651105650394E8 ; 3.250997447106594E10 ; 0.0
171 ; 3495649.378124893 ; 2.0119758812484246E8 ; 5.91866717433832E8 ; 3.271116757827211E10 ; 0.0
172 ; 3488621.1397976186 ; 2.0120205328465006E8 ; 5.95362366811957E8 ; 3.2912365166396954E10 ; 0.0
173 ; 3486487.9963188707 ; 2.0120650258093053E8 ; 5.988509879517546E8 ; 3.3113567219681602E10 ; 0.0
174 ; 3481138.484883628 ; 2.012109359097765E8 ; 6.023374759480734E8 ; 3.331477372226253E10 ; 0.0
175 ; 3480861.148794617 ; 2.012153531680249E8 ; 6.05818614432957E8 ; 3.3515984658172306E10 ; 0.0
176 ; 3472847.166941245 ; 2.012197542532462E8 ; 6.092994755817517E8 ; 3.3717200011340332E10 ; 0.0
177 ; 3473818.075969475 ; 2.0122413906373447E8 ; 6.12772322748693E8 ; 3.391841976559358E10 ; 0.0
178 ; 3471442.9681831067 ; 2.0122850749849775E8 ; 6.162461408246624E8 ; 3.4119643904657314E10 ; 0.0
179 ; 3467604.0594024244 ; 2.012328594572486E8 ; 6.197175837928456E8 ; 3.432087241215581E10 ; 0.0
180 ; 3463199.828893258 ; 2.0123719484039518E8 ; 6.231851878522481E8 ; 3.452210527161306E10 ; 0.0
181 ; 3463657.29057026 ; 2.012415135490327E8 ; 6.266483876811414E8 ; 3.472334246645345E10 ; 0.0
182 ; 3456768.373883858 ; 2.0124581548493502E8 ; 6.301120449717116E8 ; 3.492458398000249E10 ; 0.0
183 ; 3454088.5356061817 ; 2.0125010055054682E8 ; 6.335688133455955E8 ; 3.512582979548742E10 ; 0.0
184 ; 3450079.6425882727 ; 2.0125436864897597E8 ; 6.370229018812016E8 ; 3.5327079896037964E10 ; 0.0
185 ; 3446880.112176735 ; 2.0125861968398604E8 ; 6.404729815237899E8 ; 3.552833426468694E10 ; 0.0
186 ; 3440484.868522508 ; 2.0126285355998936E8 ; 6.439198616359667E8 ; 3.5729592884370926E10 ; 0.0
187 ; 3441929.8387693507 ; 2.012670701820402E8 ; 6.473603465044892E8 ; 3.5930855737930916E10 ; 0.0
188 ; 3436750.7898790995 ; 2.0127126945582825E8 ; 6.508022763432585E8 ; 3.613212280811295E10 ; 0.0
189 ; 3434504.5951710586 ; 2.0127545128767234E8 ; 6.542390271331376E8 ; 3.633339407756878E10 ; 0.0
190 ; 3429443.4241136773 ; 2.0127961558451435E8 ; 6.576735317283087E8 ; 3.653466952885645E10 ; 0.0
191 ; 3425850.9387539146 ; 2.012837622539136E8 ; 6.611029751524223E8 ; 3.673594914444096E10 ; 0.0
192 ; 3420569.776854681 ; 2.0128789120404115E8 ; 6.645288260911763E8 ; 3.693723290669488E10 ; 0.0
193 ; 3418739.893250025 ; 2.012920023436744E8 ; 6.679493958680309E8 ; 3.713852079789892E10 ; 0.0
194 ; 3420165.2360955384 ; 2.012960955821921E8 ; 6.713681357612809E8 ; 3.733981280024259E10 ; 0.0
195 ; 3411772.4617585153 ; 2.0130017082956928E8 ; 6.747883009973764E8 ; 3.754110889582478E10 ; 0.0
196 ; 3408738.797915522 ; 2.013042279963726E8 ; 6.782000734591349E8 ; 3.774240906665435E10 ; 0.0
197 ; 3406124.992517847 ; 2.0130826699375582E8 ; 6.816088122570505E8 ; 3.794371329465073E10 ; 0.0
198 ; 3402256.5908970973 ; 2.0131228773345524E8 ; 6.850149372495683E8 ; 3.8145021561644485E10 ; 0.0
199 ; 3401539.103352754 ; 2.013162901277857E8 ; 6.884171938404654E8 ; 3.834633384937794E10 ; 0.0
200 ; 3395656.4828962777 ; 2.0132027408963642E8 ; 6.918187329438182E8 ; 3.854765013950572E10 ; 0.0
