CSV File for the City 1 on Day 183
1 - Minute m 
2 - Power Consumed at minute m 
3 - Power Produced at minute m 
4 - Energy Consumed since the beginning of the day 
5 - Energy Produced since the beginning of the day 
6 - Energy Lost since the beginning of the day on lines starting from the city
 
0 ; 3252379.297656278 ; 1.0547618287518433E8 ; 0.0 ; 0.0 ; 0.0
1 ; 3267139.7821384957 ; 1.0562908021375763E8 ; 3252379.297656278 ; 1.0547618287518433E8 ; 0.0
2 ; 3286759.7483786084 ; 1.0609076358852556E8 ; 6519519.079794774 ; 2.1110526308894196E8 ; 0.0
3 ; 3304826.507149415 ; 1.068612348756572E8 ; 9806278.828173382 ; 3.171960266774675E8 ; 0.0
4 ; 3327278.172406357 ; 1.0794049576287645E8 ; 1.3111105335322797E7 ; 4.240572615531247E8 ; 0.0
5 ; 3355860.0310374387 ; 1.0932854773799396E8 ; 1.6438383507729154E7 ; 5.319977573160012E8 ; 0.0
6 ; 3395591.5347592146 ; 1.110253920785552E8 ; 1.9794243538766593E7 ; 6.413263050539951E8 ; 0.0
7 ; 3444672.246845076 ; 1.1303102984277105E8 ; 2.318983507352581E7 ; 7.523516971325504E8 ; 0.0
8 ; 3525151.6488040024 ; 1.1534546186187696E8 ; 2.6634507320370883E7 ; 8.653827269753214E8 ; 0.0
9 ; 3640013.3243391667 ; 1.179686887340504E8 ; 3.0159658969174884E7 ; 9.807281888371984E8 ; 0.0
10 ; 3823102.814172106 ; 1.2090071081998837E8 ; 3.379967229351405E7 ; 1.0986968775712488E9 ; 0.0
11 ; 4111420.1394616077 ; 1.2414152824022326E8 ; 3.7622775107686155E7 ; 1.2195975883912373E9 ; 0.0
12 ; 4573456.107086144 ; 1.2769114087422267E8 ; 4.173419524714776E7 ; 1.3437391166314604E9 ; 0.0
13 ; 5016611.511546067 ; 1.3154954836128956E8 ; 4.6307651354233906E7 ; 1.4714302575056832E9 ; 0.0
14 ; 5070151.48947525 ; 1.3571675010324657E8 ; 5.132426286577997E7 ; 1.6029798058669727E9 ; 0.0
15 ; 5088773.585621804 ; 1.4019274526885813E8 ; 5.6394414355255224E7 ; 1.7386965559702191E9 ; 0.0
16 ; 5110108.124137956 ; 1.449775327999135E8 ; 6.148318794087703E7 ; 1.8788893012390773E9 ; 0.0
17 ; 5129824.954575095 ; 1.5007111141886708E8 ; 6.659329606501498E7 ; 2.0238668340389907E9 ; 0.0
18 ; 5151196.701917982 ; 1.5547347963790828E8 ; 7.172312101959008E7 ; 2.1739379454578576E9 ; 0.0
19 ; 5172026.506521383 ; 1.611846357693132E8 ; 7.687431772150806E7 ; 2.329411425095766E9 ; 0.0
20 ; 5193713.263113851 ; 1.672045779369127E8 ; 8.204634422802944E7 ; 2.4905960608650794E9 ; 0.0
21 ; 5215242.591459109 ; 1.7353330408850297E8 ; 8.72400574911433E7 ; 2.657800638801992E9 ; 0.0
22 ; 5238806.741876488 ; 1.8017081200901413E8 ; 9.245530008260241E7 ; 2.831333942890495E9 ; 0.0
23 ; 5261096.961636579 ; 1.8711709933425337E8 ; 9.76941068244789E7 ; 3.011504754899509E9 ; 0.0
24 ; 5281762.836727859 ; 1.9437216356503808E8 ; 1.0295520378611547E8 ; 3.1986218542337623E9 ; 0.0
25 ; 5302768.305983219 ; 2.006240429797264E8 ; 1.0823696662284333E8 ; 3.3929940177988005E9 ; 0.0
26 ; 5320629.51630494 ; 2.0062628268550447E8 ; 1.1353973492882654E8 ; 3.593618060778527E9 ; 0.0
27 ; 5339695.142271402 ; 2.006286491575701E8 ; 1.1886036444513148E8 ; 3.794244343464031E9 ; 0.0
28 ; 5362378.939009258 ; 2.006311394999322E8 ; 1.2420005958740288E8 ; 3.994872992621601E9 ; 0.0
29 ; 5381012.589537981 ; 2.006337507523033E8 ; 1.2956243852641214E8 ; 4.1955041321215334E9 ; 0.0
30 ; 5407546.5395290665 ; 2.00636479903258E8 ; 1.3494345111595014E8 ; 4.3961378828738365E9 ; 0.0
31 ; 5423649.371712053 ; 2.0063932390280992E8 ; 1.403509976554792E8 ; 4.596774362777095E9 ; 0.0
32 ; 5441867.199939003 ; 2.0064227967433268E8 ; 1.4577464702719125E8 ; 4.797413686679905E9 ; 0.0
33 ; 5464436.425987661 ; 2.006453441257665E8 ; 1.5121651422713026E8 ; 4.998055966354238E9 ; 0.0
34 ; 5482075.325025796 ; 2.00648514160068E8 ; 1.5668095065311792E8 ; 5.198701310480004E9 ; 0.0
35 ; 5500337.338090894 ; 2.006517866848761E8 ; 1.6216302597814372E8 ; 5.399349824640072E9 ; 0.0
36 ; 5509259.267631918 ; 2.0065515862137967E8 ; 1.6766336331623462E8 ; 5.600001611324948E9 ; 0.0
37 ; 5534200.6731812125 ; 2.00658626912385E8 ; 1.7317262258386654E8 ; 5.800656769946328E9 ; 0.0
38 ; 5549984.607076087 ; 2.006621885295917E8 ; 1.7870682325704774E8 ; 6.001315396858713E9 ; 0.0
39 ; 5564389.15004291 ; 2.0066584048009473E8 ; 1.8425680786412382E8 ; 6.201977585388305E9 ; 0.0
40 ; 5580782.926629739 ; 2.006695798121366E8 ; 1.8982119701416674E8 ; 6.4026434258684E9 ; 0.0
41 ; 5592426.613064411 ; 2.0067340362014186E8 ; 1.954019799407965E8 ; 6.603313005680536E9 ; 0.0
42 ; 5605240.815778108 ; 2.006773090490688E8 ; 2.009944065538609E8 ; 6.803986409300678E9 ; 0.0
43 ; 5622324.309972599 ; 2.0068129329811746E8 ; 2.06599647369639E8 ; 7.004663718349747E9 ; 0.0
44 ; 5637184.1520873215 ; 2.0068535362383556E8 ; 2.1222197167961162E8 ; 7.205345011647864E9 ; 0.0
45 ; 5647932.105784102 ; 2.0068948734266526E8 ; 2.1785915583169895E8 ; 7.4060303652717E9 ; 0.0
46 ; 5654873.309426058 ; 2.006936918329735E8 ; 2.2350708793748304E8 ; 7.606719852614366E9 ; 0.0
47 ; 5665819.762340824 ; 2.0069796453661013E8 ; 2.291619612469091E8 ; 7.807413544447339E9 ; 0.0
48 ; 5677068.756386501 ; 2.007023029600348E8 ; 2.3482778100924993E8 ; 8.00811150898395E9 ; 0.0
49 ; 5681958.229911696 ; 2.0070670467505524E8 ; 2.405048497656364E8 ; 8.208813811943984E9 ; 0.0
50 ; 5691735.724760226 ; 2.0071116731921557E8 ; 2.461868079955481E8 ; 8.40952051661904E9 ; 0.0
51 ; 5695733.437389363 ; 2.0071568859587225E8 ; 2.5187854372030833E8 ; 8.610231683938255E9 ; 0.0
52 ; 5705233.319119451 ; 2.0072026627399394E8 ; 2.575742771576977E8 ; 8.810947372534128E9 ; 0.0
53 ; 5711334.978653338 ; 2.0072489818771794E8 ; 2.6327951047681716E8 ; 9.011667638808123E9 ; 0.0
54 ; 5721469.857390277 ; 2.007295822356944E8 ; 2.689908454554705E8 ; 9.21239253699584E9 ; 0.0
55 ; 5723803.49193662 ; 2.0073431638024718E8 ; 2.747123153128608E8 ; 9.413122119231535E9 ; 0.0
56 ; 5726806.6976637505 ; 2.007390986463777E8 ; 2.804361188047974E8 ; 9.613856435611782E9 ; 0.0
57 ; 5737263.190979992 ; 2.007439271206359E8 ; 2.8616292550246114E8 ; 9.81459553425816E9 ; 0.0
58 ; 5744148.098257934 ; 2.007487999498799E8 ; 2.9190018869344115E8 ; 1.0015339461378796E10 ; 0.0
59 ; 5747862.991273802 ; 2.0075371533994535E8 ; 2.976443367916991E8 ; 1.0216088261328676E10 ; 0.0
60 ; 5758088.716932153 ; 2.0075867155424076E8 ; 3.0339219978297293E8 ; 1.0416841976668621E10 ; 0.0
61 ; 5758926.597009986 ; 2.0076366691228655E8 ; 3.091502884999051E8 ; 1.0617600648222862E10 ; 0.0
62 ; 5765269.510025014 ; 2.0076869978821057E8 ; 3.1490921509691507E8 ; 1.0818364315135149E10 ; 0.0
63 ; 5769323.200436852 ; 2.00773768609214E8 ; 3.206744846069401E8 ; 1.1019133014923359E10 ; 0.0
64 ; 5775499.600148133 ; 2.0077887185401794E8 ; 3.264438078073769E8 ; 1.1219906783532574E10 ; 0.0
65 ; 5779985.13073984 ; 2.0078400805130103E8 ; 3.3221930740752506E8 ; 1.1420685655386591E10 ; 0.0
66 ; 5787301.00136392 ; 2.0078917577813646E8 ; 3.3799929253826493E8 ; 1.1621469663437893E10 ; 0.0
67 ; 5793091.9388771765 ; 2.0079437365843564E8 ; 3.4378659353962886E8 ; 1.182225883921603E10 ; 0.0
68 ; 5796959.726257102 ; 2.0079960036140516E8 ; 3.49579685478506E8 ; 1.2023053212874466E10 ; 0.0
69 ; 5800688.268709443 ; 2.008048546000223E8 ; 3.553766452047631E8 ; 1.222385281323587E10 ; 0.0
70 ; 5804544.683238947 ; 2.008101351295337E8 ; 3.6117733347347254E8 ; 1.2424657667835892E10 ; 0.0
71 ; 5808986.700217962 ; 2.0081544074598116E8 ; 3.6698187815671146E8 ; 1.2625467802965425E10 ; 0.0
72 ; 5815522.82256229 ; 2.0082077028475755E8 ; 3.727908648569294E8 ; 1.2826283243711407E10 ; 0.0
73 ; 5821589.924907364 ; 2.0082612261919543E8 ; 3.786063876794917E8 ; 1.3027104013996164E10 ; 0.0
74 ; 5825145.303216773 ; 2.0083149665919065E8 ; 3.844279776043991E8 ; 1.322793013661536E10 ; 0.0
75 ; 5826080.780841851 ; 2.0083689134986228E8 ; 3.9025312290761584E8 ; 1.3428761633274551E10 ; 0.0
76 ; 5829638.5922863 ; 2.0084230567024988E8 ; 3.9607920368845767E8 ; 1.3629598524624414E10 ; 0.0
77 ; 5837370.1136181345 ; 2.0084773863204947E8 ; 4.0190884228074396E8 ; 1.3830440830294664E10 ; 0.0
78 ; 5830400.208197597 ; 2.0085318927838817E8 ; 4.077462123943621E8 ; 1.4031288568926714E10 ; 0.0
79 ; 5829370.3486974 ; 2.008586566826379E8 ; 4.135766126025597E8 ; 1.4232141758205103E10 ; 0.0
80 ; 5828215.498231952 ; 2.0086413994726828E8 ; 4.194059829512571E8 ; 1.4433000414887741E10 ; 0.0
81 ; 5823970.080386343 ; 2.0086963820273837E8 ; 4.2523419844948906E8 ; 1.4633864554835009E10 ; 0.0
82 ; 5826749.236646213 ; 2.0087515060642695E8 ; 4.310581685298754E8 ; 1.4834734193037746E10 ; 0.0
83 ; 5824162.406923239 ; 2.0088067634160075E8 ; 4.3688491776652163E8 ; 1.5035609343644173E10 ; 0.0
84 ; 5818977.827005267 ; 2.0088621461642006E8 ; 4.4270908017344487E8 ; 1.5236490019985773E10 ; 0.0
85 ; 5817976.213154759 ; 2.0089176466298115E8 ; 4.4852805800045013E8 ; 1.5437376234602194E10 ; 0.0
86 ; 5816580.058285741 ; 2.0089732573639435E8 ; 4.5434603421360487E8 ; 1.5638267999265175E10 ; 0.0
87 ; 5810622.040601406 ; 2.0090289711389717E8 ; 4.601626142718906E8 ; 1.583916532500157E10 ; 0.0
88 ; 5805489.227507621 ; 2.0090847809400153E8 ; 4.65973236312492E8 ; 1.6040068222115467E10 ; 0.0
89 ; 5806349.549240668 ; 2.0091406799567407E8 ; 4.717787255399996E8 ; 1.6240976700209469E10 ; 0.0
90 ; 5801984.740012495 ; 2.009196661575485E8 ; 4.7758507508924025E8 ; 1.6441890768205143E10 ; 0.0
91 ; 5795327.169711835 ; 2.009252719371692E8 ; 4.833870598292527E8 ; 1.6642810434362692E10 ; 0.0
92 ; 5792998.633235439 ; 2.0093088471026495E8 ; 4.8918238699896455E8 ; 1.6843735706299862E10 ; 0.0
93 ; 5786882.111337012 ; 2.0093650387005156E8 ; 4.949753856322E8 ; 1.7044666591010126E10 ; 0.0
94 ; 5784890.745182696 ; 2.0094212882656288E8 ; 5.00762267743537E8 ; 1.7245603094880177E10 ; 0.0
95 ; 5780829.277796367 ; 2.009477590060087E8 ; 5.065471584887197E8 ; 1.744654522370674E10 ; 0.0
96 ; 5778501.857648286 ; 2.0095339385015887E8 ; 5.123279877665161E8 ; 1.764749298271275E10 ; 0.0
97 ; 5769340.6279339325 ; 2.009590328157525E8 ; 5.181064896241644E8 ; 1.784844637656291E10 ; 0.0
98 ; 5770672.149854694 ; 2.009646753739315E8 ; 5.238758302520983E8 ; 1.8049405409378662E10 ; 0.0
99 ; 5764208.235203388 ; 2.0097032100969717E8 ; 5.2964650240195304E8 ; 1.8250370084752594E10 ; 0.0
100 ; 5764547.181934177 ; 2.009759692213893E8 ; 5.354107106371564E8 ; 1.845134040576229E10 ; 0.0
101 ; 5756354.420888556 ; 2.009816195201867E8 ; 5.411752578190906E8 ; 1.865231637498368E10 ; 0.0
102 ; 5748092.597708102 ; 2.009872714296283E8 ; 5.469316122399791E8 ; 1.885329799450387E10 ; 0.0
103 ; 5741818.387740013 ; 2.0099292448515415E8 ; 5.526797048376873E8 ; 1.9054285265933495E10 ; 0.0
104 ; 5743492.947429676 ; 2.009985782336652E8 ; 5.584215232254273E8 ; 1.9255278190418648E10 ; 0.0
105 ; 5728607.377438283 ; 2.010042322331014E8 ; 5.641650161728569E8 ; 1.9456276768652313E10 ; 0.0
106 ; 5725251.8337727785 ; 2.0100988605203733E8 ; 5.698936235502952E8 ; 1.9657281000885414E10 ; 0.0
107 ; 5727215.409683914 ; 2.010155392692943E8 ; 5.75618875384068E8 ; 1.985829088693745E10 ; 0.0
108 ; 5720598.789661495 ; 2.010211914735686E8 ; 5.81346090793752E8 ; 2.0059306426206745E10 ; 0.0
109 ; 5711459.680420676 ; 2.010268422630752E8 ; 5.870666895834135E8 ; 2.0260327617680313E10 ; 0.0
110 ; 5706748.42357133 ; 2.0103249124520588E8 ; 5.927781492638341E8 ; 2.046135445994339E10 ; 0.0
111 ; 5704170.994662491 ; 2.0103813803620163E8 ; 5.984848976874055E8 ; 2.0662386951188595E10 ; 0.0
112 ; 5697178.8747347975 ; 2.0104378226083842E8 ; 6.04189068682068E8 ; 2.0863425089224796E10 ; 0.0
113 ; 5686213.626234022 ; 2.0104942355212596E8 ; 6.098862475568027E8 ; 2.1064468871485634E10 ; 0.0
114 ; 5684067.176960348 ; 2.0105506155101866E8 ; 6.155724611830368E8 ; 2.126551829503776E10 ; 0.0
115 ; 5680296.452120235 ; 2.0106069590613848E8 ; 6.212565283599972E8 ; 2.146657335658878E10 ; 0.0
116 ; 5666451.8637670055 ; 2.0106632627350914E8 ; 6.269368248121173E8 ; 2.166763405249492E10 ; 0.0
117 ; 5664350.436834525 ; 2.0107195231630108E8 ; 6.326032766758844E8 ; 2.186870037876843E10 ; 0.0
118 ; 5653751.879083875 ; 2.0107757370458674E8 ; 6.382676271127189E8 ; 2.206977233108473E10 ; 0.0
119 ; 5647256.670737028 ; 2.010831901151058E8 ; 6.439213789918028E8 ; 2.2270849904789314E10 ; 0.0
120 ; 5640279.363374368 ; 2.0108880123104003E8 ; 6.495686356625398E8 ; 2.247193309490442E10 ; 0.0
121 ; 5634177.434862695 ; 2.010944067417969E8 ; 6.552089150259142E8 ; 2.267302189613546E10 ; 0.0
122 ; 5626320.155415174 ; 2.0110000634280226E8 ; 6.608430924607769E8 ; 2.287411630287726E10 ; 0.0
123 ; 5618162.713157345 ; 2.01105599735301E8 ; 6.664694126161921E8 ; 2.3075216309220062E10 ; 0.0
124 ; 5608172.304889421 ; 2.0111118662616587E8 ; 6.720875753293494E8 ; 2.3276321908955364E10 ; 0.0
125 ; 5599448.34041604 ; 2.011167667277139E8 ; 6.776957476342388E8 ; 2.347743309558153E10 ; 0.0
126 ; 5595456.68925585 ; 2.0112233975753006E8 ; 6.832951959746549E8 ; 2.3678549862309246E10 ; 0.0
127 ; 5584905.512164011 ; 2.0112790543829784E8 ; 6.888906526639107E8 ; 2.3879672202066776E10 ; 0.0
128 ; 5577646.031459747 ; 2.0113346349763665E8 ; 6.944755581760747E8 ; 2.4080800107505074E10 ; 0.0
129 ; 5568221.726849106 ; 2.0113901366794556E8 ; 7.000532042075344E8 ; 2.428193357100271E10 ; 0.0
130 ; 5554903.5526825385 ; 2.0114455568625316E8 ; 7.056214259343835E8 ; 2.4483072584670654E10 ; 0.0
131 ; 5542965.756154105 ; 2.0115008929407328E8 ; 7.11176329487066E8 ; 2.4684217140356907E10 ; 0.0
132 ; 5529833.876833426 ; 2.0115561423726636E8 ; 7.167192952432201E8 ; 2.488536722965098E10 ; 0.0
133 ; 5517435.869988402 ; 2.011611302659061E8 ; 7.222491291200535E8 ; 2.508652284388825E10 ; 0.0
134 ; 5499824.114031637 ; 2.011666371341515E8 ; 7.27766564990042E8 ; 2.5287683974154156E10 ; 0.0
135 ; 5484950.067724865 ; 2.0117213460012352E8 ; 7.332663891040736E8 ; 2.5488850611288307E10 ; 0.0
136 ; 5473381.665337708 ; 2.0117762242578676E8 ; 7.387513391717985E8 ; 2.569002274588843E10 ; 0.0
137 ; 5454660.322405056 ; 2.0118310037683553E8 ; 7.442247208371361E8 ; 2.5891200368314217E10 ; 0.0
138 ; 5443149.837144783 ; 2.0118856822258416E8 ; 7.496793811595412E8 ; 2.609238346869105E10 ; 0.0
139 ; 5421146.011758275 ; 2.011940257358618E8 ; 7.55122530996686E8 ; 2.6293572036913635E10 ; 0.0
140 ; 5411079.876066058 ; 2.0119947269291097E8 ; 7.605436770084443E8 ; 2.6494766062649498E10 ; 0.0
141 ; 5392355.547914611 ; 2.012049088732898E8 ; 7.659547568845104E8 ; 2.6695965535342407E10 ; 0.0
142 ; 5382820.305821238 ; 2.0121033405977833E8 ; 7.71347112432425E8 ; 2.68971704442157E10 ; 0.0
143 ; 5365303.295186801 ; 2.0121574803828812E8 ; 7.767299327382462E8 ; 2.709838077827548E10 ; 0.0
144 ; 5351739.180227512 ; 2.0122115059777507E8 ; 7.82095236033433E8 ; 2.7299596526313766E10 ; 0.0
145 ; 5342078.934246781 ; 2.0122654153015584E8 ; 7.874469752136605E8 ; 2.750081767691154E10 ; 0.0
146 ; 5330800.249484906 ; 2.01231920630227E8 ; 7.927890541479073E8 ; 2.7702044218441696E10 ; 0.0
147 ; 5322928.392209769 ; 2.0123728769558755E8 ; 7.981198543973922E8 ; 2.7903276139071922E10 ; 0.0
148 ; 5314681.793375295 ; 2.012426425265639E8 ; 8.034427827896019E8 ; 2.810451342676751E10 ; 0.0
149 ; 5305931.497844454 ; 2.0124798492613795E8 ; 8.087574645829772E8 ; 2.8305756069294075E10 ; 0.0
150 ; 5296011.950492339 ; 2.0125331469987756E8 ; 8.140633960808216E8 ; 2.8507004054220215E10 ; 0.0
151 ; 5288247.872657063 ; 2.0125863165586957E8 ; 8.19359408031314E8 ; 2.8708257368920094E10 ; 0.0
152 ; 5278224.914933759 ; 2.0126393560465553E8 ; 8.246476559039711E8 ; 2.8909516000575962E10 ; 0.0
153 ; 5271760.0013598725 ; 2.012692263591693E8 ; 8.299258808189049E8 ; 2.911077993618062E10 ; 0.0
154 ; 5257823.618332024 ; 2.0127450373467737E8 ; 8.351976408202647E8 ; 2.9312049162539787E10 ; 0.0
155 ; 5253008.442709721 ; 2.0127976754872087E8 ; 8.404554644385967E8 ; 2.9513323666274464E10 ; 0.0
156 ; 5244576.024365244 ; 2.012850176210601E8 ; 8.457084728813064E8 ; 2.9714603433823185E10 ; 0.0
157 ; 5234924.288535445 ; 2.012902537736207E8 ; 8.509530489056716E8 ; 2.9915888451444244E10 ; 0.0
158 ; 5228618.450249322 ; 2.0129547583044183E8 ; 8.561879731942071E8 ; 3.0117178705217865E10 ; 0.0
159 ; 5215609.849865453 ; 2.0130068361762637E8 ; 8.614165916444564E8 ; 3.0318474181048306E10 ; 0.0
160 ; 5208869.386661665 ; 2.0130587696329254E8 ; 8.666322014943218E8 ; 3.051977486466593E10 ; 0.0
161 ; 5198640.502513489 ; 2.013110556975276E8 ; 8.718410708809835E8 ; 3.0721080741629223E10 ; 0.0
162 ; 5189124.397017871 ; 2.0131621965234274E8 ; 8.77039711383497E8 ; 3.092239179732675E10 ; 0.0
163 ; 5180722.206865181 ; 2.0132136866163006E8 ; 8.822288357805148E8 ; 3.1123708016979095E10 ; 0.0
164 ; 5173428.817685946 ; 2.013265025611206E8 ; 8.8740955798738E8 ; 3.1325029385640724E10 ; 0.0
165 ; 5159429.609485078 ; 2.0133162118834406E8 ; 8.92582986805066E8 ; 3.1526355888201843E10 ; 0.0
166 ; 5150941.874437087 ; 2.0133672438258988E8 ; 8.97742416414551E8 ; 3.1727687509390186E10 ; 0.0
167 ; 5144506.8792976765 ; 2.0134181198486966E8 ; 9.028933582889881E8 ; 3.1929024233772778E10 ; 0.0
168 ; 5130666.101840439 ; 2.013468838378808E8 ; 9.080378651682858E8 ; 3.213036604575765E10 ; 0.0
169 ; 5127835.599162739 ; 2.0135193978597155E8 ; 9.131685312701263E8 ; 3.2331712929595528E10 ; 0.0
170 ; 5108880.495457738 ; 2.0135697967510703E8 ; 9.18296366869289E8 ; 3.25330648693815E10 ; 0.0
171 ; 5108642.578999071 ; 2.0136200335283673E8 ; 9.234052473647468E8 ; 3.2734421849056606E10 ; 0.0
172 ; 5098768.908666617 ; 2.013670106682627E8 ; 9.285138899437459E8 ; 3.2935783852409443E10 ; 0.0
173 ; 5085243.54584704 ; 2.0137200147200918E8 ; 9.336126588524125E8 ; 3.3137150863077705E10 ; 0.0
174 ; 5078065.117050025 ; 2.0137697561619312E8 ; 9.386979023982595E8 ; 3.3338522864549713E10 ; 0.0
175 ; 5072647.8554591965 ; 2.013819329543956E8 ; 9.437759675153096E8 ; 3.3539899840165905E10 ; 0.0
176 ; 5064925.342748183 ; 2.0138687334163442E8 ; 9.488486153707688E8 ; 3.37412817731203E10 ; 0.0
177 ; 5056547.271062698 ; 2.0139179663433746E8 ; 9.53913540713517E8 ; 3.3942668646461933E10 ; 0.0
178 ; 5052314.890811527 ; 2.013967026903169E8 ; 9.589700879845797E8 ; 3.414406044309627E10 ; 0.0
179 ; 5046275.519442952 ; 2.0140159136874437E8 ; 9.640224028753912E8 ; 3.4345457145786587E10 ; 0.0
180 ; 5038729.179340068 ; 2.0140646253012705E8 ; 9.690686783948342E8 ; 3.4546858737155334E10 ; 0.0
181 ; 5030122.064948047 ; 2.0141131603628436E8 ; 9.741074075741743E8 ; 3.474826519968546E10 ; 0.0
182 ; 5021714.600692498 ; 2.0141615175032538E8 ; 9.791375296391224E8 ; 3.494967651572175E10 ; 0.0
183 ; 5018706.90664889 ; 2.0142096953662735E8 ; 9.841592442398149E8 ; 3.515109266747208E10 ; 0.0
184 ; 5007347.371960334 ; 2.014257692608145E8 ; 9.891779511464638E8 ; 3.5352513637008705E10 ; 0.0
185 ; 5003480.3017691085 ; 2.0143055078973776E8 ; 9.94185298518424E8 ; 3.5553939406269516E10 ; 0.0
186 ; 4993379.254080573 ; 2.014353139914552E8 ; 9.991887788201932E8 ; 3.575536995705926E10 ; 0.0
187 ; 4988306.217036434 ; 2.0144005873521295E8 ; 1.0041821580742737E9 ; 3.595680527105071E10 ; 0.0
188 ; 4981101.248038744 ; 2.014447848914268E8 ; 1.0091704642913102E9 ; 3.615824532978593E10 ; 0.0
189 ; 4973870.22226349 ; 2.0144949233166447E8 ; 1.014151565539349E9 ; 3.635969011467735E10 ; 0.0
190 ; 4967519.956980042 ; 2.0145418092862833E8 ; 1.0191254357616124E9 ; 3.656113960700902E10 ; 0.0
191 ; 4963519.138850647 ; 2.0145885055613884E8 ; 1.0240929557185924E9 ; 3.6762593787937645E10 ; 0.0
192 ; 4954741.462730207 ; 2.014635010891184E8 ; 1.0290564748574431E9 ; 3.696405263849378E10 ; 0.0
193 ; 4948230.563725825 ; 2.0146813240357563E8 ; 1.0340112163201733E9 ; 3.71655161395829E10 ; 0.0
194 ; 4941718.098570208 ; 2.0147274437659058E8 ; 1.0389594468838991E9 ; 3.736698427198647E10 ; 0.0
195 ; 4934843.278891647 ; 2.014773368862998E8 ; 1.0439011649824693E9 ; 3.756845701636306E10 ; 0.0
196 ; 4927484.647875063 ; 2.0148190981188244E8 ; 1.048836008261361E9 ; 3.776993435324936E10 ; 0.0
197 ; 4916777.970440042 ; 2.0148646303354645E8 ; 1.0537634929092361E9 ; 3.797141626306124E10 ; 0.0
198 ; 4918509.222071365 ; 2.0149099643251538E8 ; 1.0586802708796761E9 ; 3.817290272609479E10 ; 0.0
199 ; 4906098.877810507 ; 2.0149550989101553E8 ; 1.0635987801017475E9 ; 3.8374393722527306E10 ; 0.0
200 ; 4897116.258418639 ; 2.0150000329226366E8 ; 1.068504878979558E9 ; 3.857588923241832E10 ; 0.0
201 ; 4893745.347882977 ; 1.911874311063143E8 ; 1.0734019952379767E9 ; 3.877738923571059E10 ; 0.0
