CSV File for the City 1 on Day 169
1 - Minute m 
2 - Power Consumed at minute m 
3 - Power Produced at minute m 
4 - Energy Consumed since the beginning of the day 
5 - Energy Produced since the beginning of the day 
6 - Energy Lost since the beginning of the day on lines starting from the city
 
0 ; 5569703.554121622 ; 1.0551722884350774E8 ; 0.0 ; 0.0 ; 0.0
1 ; 5581038.604091552 ; 1.0567016687702519E8 ; 5569703.554121622 ; 1.0551722884350774E8 ; 0.0
2 ; 5597319.57906523 ; 1.0613188758645293E8 ; 1.1150742158213174E7 ; 2.1118739572053292E8 ; 0.0
3 ; 5612798.913861068 ; 1.0690239255582654E8 ; 1.6748061737278404E7 ; 3.1731928330698586E8 ; 0.0
4 ; 5629168.9174449295 ; 1.07981683206173E8 ; 2.236086065113947E7 ; 4.242216758628124E8 ; 0.0
5 ; 5660247.328300697 ; 1.0936976078714973E8 ; 2.79900295685844E7 ; 5.322033590689854E8 ; 0.0
6 ; 5691727.801192399 ; 1.1106662636954203E8 ; 3.36502768968851E7 ; 6.415731198561351E8 ; 0.0
7 ; 5738693.942591645 ; 1.1307228083872217E8 ; 3.93420046980775E7 ; 7.526397462256771E8 ; 0.0
8 ; 5814937.551967286 ; 1.1538672488916212E8 ; 4.5080698640669145E7 ; 8.657120270643992E8 ; 0.0
9 ; 5930520.922412178 ; 1.1800995902007997E8 ; 5.089563619263643E7 ; 9.810987519535613E8 ; 0.0
10 ; 6112008.225440601 ; 1.2094198353228271E8 ; 5.682615711504861E7 ; 1.0991087109736414E9 ; 0.0
11 ; 6396466.401505188 ; 1.2418279852625284E8 ; 6.293816534048921E7 ; 1.2200506945059242E9 ; 0.0
12 ; 6849683.331359335 ; 1.2773240390150782E8 ; 6.93346317419944E7 ; 1.344233493032177E9 ; 0.0
13 ; 7293079.3557510385 ; 1.3159079935724068E8 ; 7.618431507335374E7 ; 1.4719658969336848E9 ; 0.0
14 ; 7340754.187193629 ; 1.357579843942334E8 ; 8.347739442910478E7 ; 1.6035566962909255E9 ; 0.0
15 ; 7358979.250554014 ; 1.402339583180139E8 ; 9.08181486162984E7 ; 1.739314680685159E9 ; 0.0
16 ; 7377603.89103144 ; 1.4501872024321005E8 ; 9.817712786685242E7 ; 1.8795486390031729E9 ; 0.0
17 ; 7393861.374412272 ; 1.5011226909903643E8 ; 1.0555473175788386E8 ; 2.024567359246383E9 ; 0.0
18 ; 7411956.565836024 ; 1.5551460363583565E8 ; 1.1294859313229613E8 ; 2.1746796283454194E9 ; 0.0
19 ; 7429748.810588474 ; 1.6122572243258074E8 ; 1.2036054969813216E8 ; 2.330194231981255E9 ; 0.0
20 ; 7448408.243577459 ; 1.672456239052361E8 ; 1.2779029850872064E8 ; 2.491419954413836E9 ; 0.0
21 ; 7464302.752162544 ; 1.735743063158649E8 ; 1.352387067522981E8 ; 2.6586655783190722E9 ; 0.0
22 ; 7485312.825234096 ; 1.8021176778236502E8 ; 1.4270300950446063E8 ; 2.8322398846349373E9 ; 0.0
23 ; 7501940.935953071 ; 1.871580062887128E8 ; 1.5018832232969472E8 ; 3.012451652417302E9 ; 0.0
24 ; 7520939.919637686 ; 1.9441301969559222E8 ; 1.576902632656478E8 ; 3.199609658706015E9 ; 0.0
25 ; 7541025.302488925 ; 2.006648466494735E8 ; 1.6521120318528548E8 ; 3.3940226784016075E9 ; 0.0
26 ; 7556752.4017795315 ; 2.0066703263055262E8 ; 1.727522284877744E8 ; 3.594687525051081E9 ; 0.0
27 ; 7577507.008736131 ; 2.0066934448873654E8 ; 1.8030898088955393E8 ; 3.795354557681634E9 ; 0.0
28 ; 7597442.18153702 ; 2.006717797014319E8 ; 1.8788648789829007E8 ; 3.9960239021703706E9 ; 0.0
29 ; 7610110.337118521 ; 2.0067433567764565E8 ; 1.954839300798271E8 ; 4.1966956818718023E9 ; 0.0
30 ; 7626262.163756956 ; 2.0067700976859424E8 ; 2.0309404041694564E8 ; 4.397370017549448E9 ; 0.0
31 ; 7641681.628166062 ; 2.0067979927799064E8 ; 2.107203025807026E8 ; 4.598047027318042E9 ; 0.0
32 ; 7660045.919652167 ; 2.006827014719441E8 ; 2.1836198420886865E8 ; 4.798726826596032E9 ; 0.0
33 ; 7669917.7398716565 ; 2.0068571358841836E8 ; 2.2602203012852082E8 ; 4.999409528067976E9 ; 0.0
34 ; 7690722.190661674 ; 2.006888328462039E8 ; 2.3369194786839247E8 ; 5.200095241656394E9 ; 0.0
35 ; 7705308.824687898 ; 2.0069205645336992E8 ; 2.4138267005905414E8 ; 5.400784074502598E9 ; 0.0
36 ; 7716025.531399798 ; 2.0069538161517182E8 ; 2.4908797888374203E8 ; 5.601476130955968E9 ; 0.0
37 ; 7733527.101158558 ; 2.0069880554139766E8 ; 2.5680400441514182E8 ; 5.802171512571139E9 ; 0.0
38 ; 7746497.349952574 ; 2.007023254531462E8 ; 2.6453753151630038E8 ; 6.002870318112537E9 ; 0.0
39 ; 7756728.308527997 ; 2.0070593858903557E8 ; 2.7228402886625296E8 ; 6.203572643565683E9 ; 0.0
40 ; 7770207.487145867 ; 2.0070964221084854E8 ; 2.8004075717478096E8 ; 6.404278582154719E9 ; 0.0
41 ; 7779908.256762611 ; 2.007134336086251E8 ; 2.878109646619268E8 ; 6.604988224365568E9 ; 0.0
42 ; 7793009.63873168 ; 2.0071731010521853E8 ; 2.955908729186894E8 ; 6.805701657974194E9 ; 0.0
43 ; 7801863.269936876 ; 2.0072126906033435E8 ; 3.033838825574211E8 ; 7.006418968079412E9 ; 0.0
44 ; 7807890.1837799605 ; 2.0072530787407506E8 ; 3.1118574582735795E8 ; 7.207140237139747E9 ; 0.0
45 ; 7820130.837732692 ; 2.0072942399001506E8 ; 3.189936360111379E8 ; 7.407865545013822E9 ; 0.0
46 ; 7824116.844308978 ; 2.0073361489783332E8 ; 3.268137668488706E8 ; 7.608594969003837E9 ; 0.0
47 ; 7833001.811928247 ; 2.0073787813553044E8 ; 3.3463788369317955E8 ; 7.8093285839016695E9 ; 0.0
48 ; 7836639.533958912 ; 2.007422112912598E8 ; 3.424708855051078E8 ; 8.0100664620372E9 ; 0.0
49 ; 7845108.387951251 ; 2.0074661200479987E8 ; 3.5030752503906673E8 ; 8.21080867332846E9 ; 0.0
50 ; 7841855.42823814 ; 2.0075107796869743E8 ; 3.58152633427018E8 ; 8.41155528533326E9 ; 0.0
51 ; 7850616.854305902 ; 2.0075560692910817E8 ; 3.6599448885525614E8 ; 8.612306363301956E9 ; 0.0
52 ; 7851022.283404475 ; 2.007601966863627E8 ; 3.7384510570956206E8 ; 8.813061970231064E9 ; 0.0
53 ; 7860883.785995129 ; 2.007648450952833E8 ; 3.8169612799296653E8 ; 9.013822166917427E9 ; 0.0
54 ; 7863600.095665013 ; 2.0076955006527627E8 ; 3.8955701177896166E8 ; 9.21458701201271E9 ; 0.0
55 ; 7864487.636755892 ; 2.0077430956022403E8 ; 3.974206118746267E8 ; 9.415356562077988E9 ; 0.0
56 ; 7865739.1482478995 ; 2.0077912159819835E8 ; 4.052850995113826E8 ; 9.616130871638212E9 ; 0.0
57 ; 7866661.828819655 ; 2.0078398425101626E8 ; 4.131508386596305E8 ; 9.81690999323641E9 ; 0.0
58 ; 7871427.620548362 ; 2.007888956436574E8 ; 4.210175004884501E8 ; 1.0017693977487427E10 ; 0.0
59 ; 7873834.983032706 ; 2.0079385395356146E8 ; 4.288889281089985E8 ; 1.0218482873131084E10 ; 0.0
60 ; 7875696.66745756 ; 2.00798857409822E8 ; 4.367627630920312E8 ; 1.0419276727084646E10 ; 0.0
61 ; 7879683.022029191 ; 2.0080390429229155E8 ; 4.4463845975948876E8 ; 1.0620075584494469E10 ; 0.0
62 ; 7884823.05838779 ; 2.0080899293061283E8 ; 4.52518142781518E8 ; 1.082087948878676E10 ; 0.0
63 ; 7883005.4201275995 ; 2.0081412170318794E8 ; 4.604029658399058E8 ; 1.1021688481717373E10 ; 0.0
64 ; 7881983.130546776 ; 2.0081928903609747E8 ; 4.6828597126003337E8 ; 1.122250260342056E10 ; 0.0
65 ; 7889156.406444577 ; 2.008244934019798E8 ; 4.761679543905801E8 ; 1.1423321892456657E10 ; 0.0
66 ; 7889531.351502512 ; 2.008297333188802E8 ; 4.8405711079702467E8 ; 1.1624146385858637E10 ; 0.0
67 ; 7892230.024580823 ; 2.0083500734907743E8 ; 4.919466421485272E8 ; 1.1824976119177517E10 ; 0.0
68 ; 7890552.461648023 ; 2.0084031409789616E8 ; 4.9983887217310804E8 ; 1.2025811126526594E10 ; 0.0
69 ; 7893813.347934731 ; 2.00845652212511E8 ; 5.077294246347561E8 ; 1.222665144062449E10 ; 0.0
70 ; 7895606.457884013 ; 2.0085102038074866E8 ; 5.156232379826908E8 ; 1.2427497092837002E10 ; 0.0
71 ; 7896718.621844261 ; 2.0085641732989264E8 ; 5.235188444405748E8 ; 1.262834811321775E10 ; 0.0
72 ; 7899397.966312709 ; 2.0086184182549554E8 ; 5.3141556306241906E8 ; 1.2829204530547644E10 ; 0.0
73 ; 7896870.496336265 ; 2.0086729267020258E8 ; 5.393149610287318E8 ; 1.3030066372373138E10 ; 0.0
74 ; 7898567.445707697 ; 2.008727687025895E8 ; 5.47211831525068E8 ; 1.323093366504334E10 ; 0.0
75 ; 7897027.004762349 ; 2.0087826879601794E8 ; 5.551103989707757E8 ; 1.343180643374593E10 ; 0.0
76 ; 7899948.238528151 ; 2.0088379185751042E8 ; 5.63007425975538E8 ; 1.3632684702541948E10 ; 0.0
77 ; 7897119.292755698 ; 2.0088933682664734E8 ; 5.709073742140661E8 ; 1.3833568494399458E10 ; 0.0
78 ; 7890543.051359024 ; 2.0089490267448705E8 ; 5.788044935068219E8 ; 1.4034457831226105E10 ; 0.0
79 ; 7889153.021769925 ; 2.0090048840251076E8 ; 5.866950365581809E8 ; 1.423535273390059E10 ; 0.0
80 ; 7882085.7421480715 ; 2.0090609304159325E8 ; 5.945841895799508E8 ; 1.4436253222303102E10 ; 0.0
81 ; 7875818.401862133 ; 2.0091171565099996E8 ; 6.024662753220989E8 ; 1.4637159315344696E10 ; 0.0
82 ; 7869096.649613598 ; 2.0091735531741133E8 ; 6.10342093723961E8 ; 1.4838071030995695E10 ; 0.0
83 ; 7866032.913917502 ; 2.0092301115397444E8 ; 6.182111903735746E8 ; 1.5038988386313107E10 ; 0.0
84 ; 7858563.493814993 ; 2.0092868229938248E8 ; 6.260772232874922E8 ; 1.5239911397467081E10 ; 0.0
85 ; 7852416.54902634 ; 2.0093436791698188E8 ; 6.339357867813071E8 ; 1.5440840079766464E10 ; 0.0
86 ; 7844503.199111006 ; 2.0094006719390702E8 ; 6.417882033303335E8 ; 1.5641774447683447E10 ; 0.0
87 ; 7837698.209661771 ; 2.009457793402427E8 ; 6.496327065294445E8 ; 1.5842714514877354E10 ; 0.0
88 ; 7833725.832061925 ; 2.0095150358821335E8 ; 6.574704047391062E8 ; 1.6043660294217596E10 ; 0.0
89 ; 7824408.252606413 ; 2.0095723919139946E8 ; 6.653041305711681E8 ; 1.6244611797805809E10 ; 0.0
90 ; 7821027.490500072 ; 2.0096298542398027E8 ; 6.731285388237745E8 ; 1.6445569036997208E10 ; 0.0
91 ; 7816732.823256872 ; 2.0096874158000234E8 ; 6.809495663142745E8 ; 1.6646532022421188E10 ; 0.0
92 ; 7807197.484217627 ; 2.009745069726736E8 ; 6.887662991375314E8 ; 1.684750076400119E10 ; 0.0
93 ; 7798819.8547505615 ; 2.0098028093368223E8 ; 6.96573496621749E8 ; 1.7048475270973864E10 ; 0.0
94 ; 7789511.94999975 ; 2.0098606281253952E8 ; 7.043723164764996E8 ; 1.7249455551907547E10 ; 0.0
95 ; 7785303.746626805 ; 2.0099185197594672E8 ; 7.121618284264994E8 ; 1.7450441614720085E10 ; 0.0
96 ; 7775441.013590838 ; 2.009976478071845E8 ; 7.199471321731262E8 ; 1.7651433466696033E10 ; 0.0
97 ; 7766168.079779745 ; 2.010034497055249E8 ; 7.27722573186717E8 ; 1.785243111450322E10 ; 0.0
98 ; 7759617.329900074 ; 2.0100925708566487E8 ; 7.354887412664968E8 ; 1.8053434564208744E10 ; 0.0
99 ; 7746182.876015311 ; 2.0101506937718076E8 ; 7.432483585963968E8 ; 1.825444382129441E10 ; 0.0
100 ; 7741620.264786948 ; 2.0102088602400318E8 ; 7.509945414724121E8 ; 1.8455458890671593E10 ; 0.0
101 ; 7736264.072574413 ; 2.010267064839116E8 ; 7.587361617371991E8 ; 1.8656479776695595E10 ; 0.0
102 ; 7728384.853016923 ; 2.0103253022804767E8 ; 7.664724258097734E8 ; 1.885750648317951E10 ; 0.0
103 ; 7717236.0682125455 ; 2.0103835674044725E8 ; 7.742008106627904E8 ; 1.9058539013407555E10 ; 0.0
104 ; 7710906.6150601255 ; 2.0104418551759002E8 ; 7.819180467310029E8 ; 1.9259577370148003E10 ; 0.0
105 ; 7699716.508356587 ; 2.010500160679661E8 ; 7.89628953346063E8 ; 1.9460621555665592E10 ; 0.0
106 ; 7691355.201088767 ; 2.010558479116594E8 ; 7.973286698544196E8 ; 1.966167157173356E10 ; 0.0
107 ; 7681454.343866642 ; 2.010616805799466E8 ; 8.050200250555084E8 ; 1.9862727419645218E10 ; 0.0
108 ; 7674015.968905365 ; 2.0106751361491176E8 ; 8.12701479399375E8 ; 2.0063789100225166E10 ; 0.0
109 ; 7661868.616197915 ; 2.0107334656907538E8 ; 8.203754953682803E8 ; 2.0264856613840076E10 ; 0.0
110 ; 7653809.99575737 ; 2.010791790050378E8 ; 8.280373639844782E8 ; 2.0465929960409153E10 ; 0.0
111 ; 7644314.235010348 ; 2.0108501049513647E8 ; 8.356911739802356E8 ; 2.0667009139414192E10 ; 0.0
112 ; 7634439.647409133 ; 2.0109084062111583E8 ; 8.43335488215246E8 ; 2.086809414990933E10 ; 0.0
113 ; 7623218.12390319 ; 2.010966689738105E8 ; 8.50969927862655E8 ; 2.1069184990530445E10 ; 0.0
114 ; 7617382.844186254 ; 2.0110249515284014E8 ; 8.585931459865582E8 ; 2.1270281659504257E10 ; 0.0
115 ; 7607740.7668257 ; 2.0110831876631618E8 ; 8.662105288307445E8 ; 2.1471384154657097E10 ; 0.0
116 ; 7594651.2012944445 ; 2.0111413943055975E8 ; 8.738182695975702E8 ; 2.1672492473423412E10 ; 0.0
117 ; 7581633.193161519 ; 2.011199567698306E8 ; 8.814129207988646E8 ; 2.1873606612853973E10 ; 0.0
118 ; 7575383.593646532 ; 2.01125770416066E8 ; 8.889945539920261E8 ; 2.2074726569623802E10 ; 0.0
119 ; 7563509.455642653 ; 2.011315800086299E8 ; 8.965699375856726E8 ; 2.2275852340039867E10 ; 0.0
120 ; 7555655.699186744 ; 2.0113738519407165E8 ; 9.041334470413153E8 ; 2.2476983920048496E10 ; 0.0
121 ; 7538184.396219265 ; 2.0114318562589383E8 ; 9.116891027405021E8 ; 2.267812130524257E10 ; 0.0
122 ; 7526058.171232704 ; 2.011489809643289E8 ; 9.192272871367214E8 ; 2.287926449086846E10 ; 0.0
123 ; 7516164.010602853 ; 2.0115477087612444E8 ; 9.267533453079541E8 ; 2.308041347183279E10 ; 0.0
124 ; 7505190.229758553 ; 2.0116055503433636E8 ; 9.342695093185569E8 ; 2.3281568242708916E10 ; 0.0
125 ; 7493562.655710273 ; 2.0116633311813012E8 ; 9.417746995483154E8 ; 2.348272879774325E10 ; 0.0
126 ; 7479966.274323478 ; 2.011721048125893E8 ; 9.492682622040256E8 ; 2.368389513086138E10 ; 0.0
127 ; 7473315.129957308 ; 2.0117786980853152E8 ; 9.567482284783491E8 ; 2.388506723567397E10 ; 0.0
128 ; 7459830.197775352 ; 2.011836278023312E8 ; 9.642215436083064E8 ; 2.4086245105482502E10 ; 0.0
129 ; 7444994.862307634 ; 2.0118937849574894E8 ; 9.716813738060818E8 ; 2.4287428733284832E10 ; 0.0
130 ; 7427057.218520326 ; 2.0119512159576726E8 ; 9.791263686683894E8 ; 2.4488618111780582E10 ; 0.0
131 ; 7408511.901686569 ; 2.012008568144327E8 ; 9.865534258869097E8 ; 2.468981323337635E10 ; 0.0
132 ; 7394739.490165871 ; 2.0120658386870357E8 ; 9.939619377885963E8 ; 2.4891014090190784E10 ; 0.0
133 ; 7375264.575260847 ; 2.012123024803033E8 ; 1.0013566772787621E9 ; 2.5092220674059486E10 ; 0.0
134 ; 7358998.4522946505 ; 2.0121801237557945E8 ; 1.008731941854023E9 ; 2.529343297653979E10 ; 0.0
135 ; 7340019.836838433 ; 2.0122371328536782E8 ; 1.0160909403063177E9 ; 2.549465098891537E10 ; 0.0
136 ; 7318095.740315136 ; 2.012294049448615E8 ; 1.0234309601431562E9 ; 2.5695874702200737E10 ; 0.0
137 ; 7306531.806407305 ; 2.0123508709348488E8 ; 1.0307490558834713E9 ; 2.58971041071456E10 ; 0.0
138 ; 7284314.6038477775 ; 2.0124075947477204E8 ; 1.0380555876898786E9 ; 2.6098339194239082E10 ; 0.0
139 ; 7263152.487917265 ; 2.0124642183624983E8 ; 1.0453399022937263E9 ; 2.6299579953713856E10 ; 0.0
140 ; 7242929.733322392 ; 2.0125207392932516E8 ; 1.0526030547816436E9 ; 2.6500826375550106E10 ; 0.0
141 ; 7229359.4003208075 ; 2.0125771550917616E8 ; 1.059845984514966E9 ; 2.670207844947943E10 ; 0.0
142 ; 7207166.436484808 ; 2.0126334633464757E8 ; 1.0670753439152868E9 ; 2.6903336164988605E10 ; 0.0
143 ; 7188230.94453716 ; 2.0126896616814974E8 ; 1.0742825103517716E9 ; 2.7104599511323254E10 ; 0.0
144 ; 7172920.452518989 ; 2.0127457477556133E8 ; 1.0814707412963088E9 ; 2.73058684774914E10 ; 0.0
145 ; 7156500.99467782 ; 2.0128017192613545E8 ; 1.0886436617488277E9 ; 2.7507143052266964E10 ; 0.0
146 ; 7144574.037390202 ; 2.012857573924092E8 ; 1.0958001627435055E9 ; 2.77084232241931E10 ; 0.0
147 ; 7130862.854125285 ; 2.012913309501164E8 ; 1.1029447367808957E9 ; 2.790970898158551E10 ; 0.0
148 ; 7118445.509693784 ; 2.012968923781035E8 ; 1.110075599635021E9 ; 2.8111000312535625E10 ; 0.0
149 ; 7106610.050685058 ; 2.013024414582483E8 ; 1.1171940451447148E9 ; 2.831229720491373E10 ; 0.0
150 ; 7092365.667740313 ; 2.0130797797538173E8 ; 1.1243006551954E9 ; 2.851359964637198E10 ; 0.0
151 ; 7081638.17104047 ; 2.0131350171721238E8 ; 1.1313930208631403E9 ; 2.871490762434736E10 ; 0.0
152 ; 7068986.028206077 ; 2.0131901247425345E8 ; 1.1384746590341809E9 ; 2.891622112606457E10 ; 0.0
153 ; 7058478.343577179 ; 2.0132451003975248E8 ; 1.145543645062387E9 ; 2.9117540138538826E10 ; 0.0
154 ; 7043347.4042487955 ; 2.0132999420962355E8 ; 1.1526021234059641E9 ; 2.931886464857858E10 ; 0.0
155 ; 7029315.067388304 ; 2.013354647823816E8 ; 1.1596454708102129E9 ; 2.9520194642788204E10 ; 0.0
156 ; 7020297.043410069 ; 2.013409215590793E8 ; 1.1666747858776011E9 ; 2.9721530107570587E10 ; 0.0
157 ; 6999699.891480806 ; 2.0134636434324592E8 ; 1.1736950829210112E9 ; 2.9922871029129665E10 ; 0.0
158 ; 6989645.340281175 ; 2.0135179294082847E8 ; 1.1806947828124921E9 ; 3.012421739347291E10 ; 0.0
159 ; 6977180.0738812545 ; 2.0135720716013464E8 ; 1.1876844281527734E9 ; 3.0325569186413742E10 ; 0.0
160 ; 6966680.571390315 ; 2.0136260681177783E8 ; 1.1946616082266545E9 ; 3.0526926393573875E10 ; 0.0
161 ; 6946944.659532648 ; 2.0136799170862418E8 ; 1.201628288798045E9 ; 3.0728289000385654E10 ; 0.0
162 ; 6938381.911744864 ; 2.0137336166574115E8 ; 1.2085752334575775E9 ; 3.092965699209428E10 ; 0.0
163 ; 6925415.431589538 ; 2.013787165003479E8 ; 1.2155136153693223E9 ; 3.113103035376002E10 ; 0.0
164 ; 6912592.691891089 ; 2.0138405603176764E8 ; 1.222439030800912E9 ; 3.133240907026037E10 ; 0.0
165 ; 6892939.633178853 ; 2.0138938008138114E8 ; 1.229351623492803E9 ; 3.1533793126292137E10 ; 0.0
166 ; 6883100.634766086 ; 2.0139468847258216E8 ; 1.236244563125982E9 ; 3.173518250637352E10 ; 0.0
167 ; 6872824.719131907 ; 2.0139998103073415E8 ; 1.2431276637607481E9 ; 3.1936577194846104E10 ; 0.0
168 ; 6862372.837817519 ; 2.014052575831286E8 ; 1.25000048847988E9 ; 3.213797717587684E10 ; 0.0
169 ; 6843899.303914079 ; 2.014105179589445E8 ; 1.2568628613176975E9 ; 3.233938243345997E10 ; 0.0
170 ; 6831267.876782225 ; 2.0141576198920953E8 ; 1.2637067606216116E9 ; 3.2540792951418915E10 ; 0.0
171 ; 6819738.820930042 ; 2.0142098950676215E8 ; 1.2705380284983938E9 ; 3.2742208713408123E10 ; 0.0
172 ; 6805424.430998871 ; 2.0142620034621522E8 ; 1.2773577673193238E9 ; 3.2943629702914886E10 ; 0.0
173 ; 6791615.6784289535 ; 2.014313943439206E8 ; 1.2841631917503226E9 ; 3.31450559032611E10 ; 0.0
174 ; 6787996.780302786 ; 2.014365713379352E8 ; 1.2909548074287515E9 ; 3.3346487297605022E10 ; 0.0
175 ; 6770994.567049578 ; 2.0144173116798785E8 ; 1.2977428042090542E9 ; 3.354792386894296E10 ; 0.0
176 ; 6762866.877995823 ; 2.014468736754474E8 ; 1.3045137987761037E9 ; 3.3749365600110947E10 ; 0.0
177 ; 6748913.3040904915 ; 2.0145199870329186E8 ; 1.3112766656540995E9 ; 3.3950812473786392E10 ; 0.0
178 ; 6740802.195346515 ; 2.014571060960785E8 ; 1.31802557895819E9 ; 3.4152264472489685E10 ; 0.0
179 ; 6730432.651437403 ; 2.01462195699915E8 ; 1.3247663811535366E9 ; 3.4353721578585762E10 ; 0.0
180 ; 6716825.432121082 ; 2.0146726736243135E8 ; 1.331496813804974E9 ; 3.4555183774285675E10 ; 0.0
181 ; 6709967.927247241 ; 2.01472320932753E8 ; 1.338213639237095E9 ; 3.475665104164811E10 ; 0.0
182 ; 6695301.896926561 ; 2.0147735626147437E8 ; 1.3449236071643424E9 ; 3.4958123362580864E10 ; 0.0
183 ; 6689013.84235273 ; 2.014823732006338E8 ; 1.351618909061269E9 ; 3.515960071884234E10 ; 0.0
184 ; 6679804.024062761 ; 2.0148737160368878E8 ; 1.3583079229036217E9 ; 3.536108309204297E10 ; 0.0
185 ; 6666018.443657643 ; 2.014923513254923E8 ; 1.3649877269276845E9 ; 3.556257046364666E10 ; 0.0
186 ; 6655915.062009778 ; 2.014973122222698E8 ; 1.3716537453713422E9 ; 3.576406281497215E10 ; 0.0
187 ; 6647664.54161578 ; 2.01502254151597E8 ; 1.378309660433352E9 ; 3.596556012719442E10 ; 0.0
188 ; 6634842.719255938 ; 2.0150717697237816E8 ; 1.3849573249749677E9 ; 3.6167062381346016E10 ; 0.0
189 ; 6627073.079089447 ; 2.015120805448254E8 ; 1.3915921676942236E9 ; 3.63685695583184E10 ; 0.0
190 ; 6615179.156341795 ; 2.0151696473043835E8 ; 1.398219240773313E9 ; 3.657008163886322E10 ; 0.0
191 ; 6605416.749200471 ; 2.0152182939198464E8 ; 1.4048344199296548E9 ; 3.677159860359366E10 ; 0.0
192 ; 6593196.74119397 ; 2.015266743934809E8 ; 1.4114398366788554E9 ; 3.697312043298564E10 ; 0.0
193 ; 6581941.8295225995 ; 2.0153149960017437E8 ; 1.4180330334200494E9 ; 3.717464710737912E10 ; 0.0
194 ; 6576174.720750724 ; 2.0153630487852517E8 ; 1.424614975249572E9 ; 3.7376178606979294E10 ; 0.0
195 ; 6560504.032831687 ; 2.0154109009618908E8 ; 1.4311911499703228E9 ; 3.757771491185782E10 ; 0.0
196 ; 6551701.169049306 ; 2.015458551220007E8 ; 1.4377516540031545E9 ; 3.777925600195401E10 ; 0.0
197 ; 6543903.121400075 ; 2.0155059982595745E8 ; 1.4443033551722038E9 ; 3.798080185707601E10 ; 0.0
198 ; 6528453.686946207 ; 2.015553240792038E8 ; 1.450847258293604E9 ; 3.818235245690197E10 ; 0.0
199 ; 6523915.86972097 ; 2.0156002775401616E8 ; 1.45737571198055E9 ; 3.838390778098117E10 ; 0.0
200 ; 6512127.760130582 ; 2.01564710723788E8 ; 1.463899627850271E9 ; 3.858546780873518E10 ; 0.0
201 ; 6498343.524245772 ; 1.8808306514947698E8 ; 1.4704117556104016E9 ; 3.878703251945897E10 ; 0.0
