CSV File for the City 2 on Day 312
1 - Minute m 
2 - Power Consumed at minute m 
3 - Power Produced at minute m 
4 - Energy Consumed since the beginning of the day 
5 - Energy Produced since the beginning of the day 
6 - Energy Lost since the beginning of the day on lines starting from the city
 
0 ; 1807874.7729312293 ; 1.0532040009532037E8 ; 0.0 ; 0.0 ; 0.0
1 ; 1808179.2407224684 ; 1.0547435293127424E8 ; 1807874.7729312293 ; 1.0532040009532037E8 ; 0.0
2 ; 1810602.958725991 ; 1.0593698569433454E8 ; 3616054.0136536974 ; 2.107947530265946E8 ; 0.0
3 ; 1813195.6555726328 ; 1.0670829864756125E8 ; 5426656.972379688 ; 3.1673173872092915E8 ; 0.0
4 ; 1816701.4959738925 ; 1.0778829202535957E8 ; 7239852.6279523205 ; 4.234400373684904E8 ; 0.0
5 ; 1819306.9909196603 ; 1.0917696603264332E8 ; 9056554.123926213 ; 5.3122832939384997E8 ; 0.0
6 ; 1824362.5707923025 ; 1.1087432084409383E8 ; 1.0875861114845874E7 ; 6.404052954264933E8 ; 0.0
7 ; 1831015.0736753952 ; 1.1288035660352248E8 ; 1.2700223685638176E7 ; 7.512796162705871E8 ; 0.0
8 ; 1837910.619026993 ; 1.151950734233408E8 ; 1.4531238759313572E7 ; 8.641599728741095E8 ; 0.0
9 ; 1853983.5227222992 ; 1.1781847138414377E8 ; 1.6369149378340565E7 ; 9.793550462974503E8 ; 0.0
10 ; 1874431.6883700876 ; 1.2075055053440922E8 ; 1.8223132901062865E7 ; 1.0971735176815941E9 ; 0.0
11 ; 1909143.0798122822 ; 1.2399131089031664E8 ; 2.009756458943295E7 ; 1.2179240682160034E9 ; 0.0
12 ; 1964248.0209887854 ; 1.275407524356865E8 ; 2.2006707669245232E7 ; 1.3419153791063201E9 ; 0.0
13 ; 2016209.0902480376 ; 1.3139887512204099E8 ; 2.3970955690234017E7 ; 1.4694561315420067E9 ; 0.0
14 ; 2023046.0407888512 ; 1.355656788687852E8 ; 2.5987164780482054E7 ; 1.6008550066640477E9 ; 0.0
15 ; 2025462.7292297727 ; 1.400411635635075E8 ; 2.8010210821270905E7 ; 1.7364206855328329E9 ; 0.0
16 ; 2026885.607924991 ; 1.4482532906239662E8 ; 3.003567355050068E7 ; 1.8764618490963404E9 ; 0.0
17 ; 2030075.2895255906 ; 1.4991817519077113E8 ; 3.206255915842567E7 ; 2.021287178158737E9 ; 0.0
18 ; 2032681.1348653135 ; 1.5531970174371725E8 ; 3.409263444795126E7 ; 2.1712053533495083E9 ; 0.0
19 ; 2034927.761344816 ; 1.610299084868298E8 ; 3.612531558281657E7 ; 2.3265250550932255E9 ; 0.0
20 ; 2037642.4654744398 ; 1.6704879515704873E8 ; 3.8160243344161384E7 ; 2.487554963580055E9 ; 0.0
21 ; 2040925.8222310268 ; 1.7337636146358606E8 ; 4.0197885809635825E7 ; 2.654603758737104E9 ; 0.0
22 ; 2043299.680383467 ; 1.8001260708893436E8 ; 4.223881163186685E7 ; 2.82798012020069E9 ; 0.0
23 ; 2045275.1463716193 ; 1.8695753168994933E8 ; 4.4282111312250316E7 ; 3.007992727289624E9 ; 0.0
24 ; 2049245.2212319046 ; 1.9421113489899755E8 ; 4.6327386458621934E7 ; 3.1949502589795737E9 ; 0.0
25 ; 2051219.7152490518 ; 2.004614572233452E8 ; 4.837663167985384E7 ; 3.3891613938785715E9 ; 0.0
26 ; 2054130.4406151087 ; 2.0046204608330673E8 ; 5.0427851395102896E7 ; 3.589622851101917E9 ; 0.0
27 ; 2055742.848389098 ; 2.004626703384402E8 ; 5.2481981835718006E7 ; 3.7900848971852236E9 ; 0.0
28 ; 2058693.0079833576 ; 2.0046332953564218E8 ; 5.45377246841071E7 ; 3.990547567523664E9 ; 0.0
29 ; 2061467.273156012 ; 2.0046402320373726E8 ; 5.659641769209046E7 ; 4.191010897059306E9 ; 0.0
30 ; 2063665.0931448974 ; 2.0046475085483578E8 ; 5.865788496524647E7 ; 4.391474920263043E9 ; 0.0
31 ; 2065968.1648585575 ; 2.0046551198569664E8 ; 6.072155005839136E7 ; 4.591939671117879E9 ; 0.0
32 ; 2069265.479755058 ; 2.004663060790878E8 ; 6.278751822324992E7 ; 4.792405183103576E9 ; 0.0
33 ; 2070245.0297174745 ; 2.004671326051371E8 ; 6.485678370300498E7 ; 4.992871489182664E9 ; 0.0
34 ; 2073590.8448370534 ; 2.0046799102266687E8 ; 6.6927028732722454E7 ; 5.193338621787801E9 ; 0.0
35 ; 2076609.054122931 ; 2.0046888078050548E8 ; 6.90006195775595E7 ; 5.393806612810468E9 ; 0.0
36 ; 2077062.2318876476 ; 2.0046980131877112E8 ; 7.107722863168243E7 ; 5.594275493590973E9 ; 0.0
37 ; 2080248.342960111 ; 2.004707520701222E8 ; 7.315429086357008E7 ; 5.794745294909744E9 ; 0.0
38 ; 2081558.858452341 ; 2.0047173246096975E8 ; 7.523453920653018E7 ; 5.995216046979866E9 ; 0.0
39 ; 2084242.2972689816 ; 2.0047274191264847E8 ; 7.731609806498252E7 ; 6.195687779440836E9 ; 0.0
40 ; 2086072.1887303384 ; 2.0047377984254277E8 ; 7.94003403622515E7 ; 6.396160521353484E9 ; 0.0
41 ; 2088180.9758453951 ; 2.0047484566516513E8 ; 8.148641255098185E7 ; 6.596634301196027E9 ; 0.0
42 ; 2089664.7821588505 ; 2.0047593879318464E8 ; 8.357459352682725E7 ; 6.797109146861192E9 ; 0.0
43 ; 2091677.1262007535 ; 2.0047705863840407E8 ; 8.56642583089861E7 ; 6.997585085654376E9 ; 0.0
44 ; 2092158.6553072138 ; 2.0047820461268425E8 ; 8.775593543518685E7 ; 7.19806214429278E9 ; 0.0
45 ; 2094274.8986429146 ; 2.004793761288149E8 ; 8.984809409049407E7 ; 7.398540348905464E9 ; 0.0
46 ; 2095142.3775451088 ; 2.0048057260133198E8 ; 9.194236898913698E7 ; 7.599019725034279E9 ; 0.0
47 ; 2095666.0487404244 ; 2.0048179344728118E8 ; 9.403751136668208E7 ; 7.799500297635611E9 ; 0.0
48 ; 2097926.222335881 ; 2.0048303808692837E8 ; 9.613317741542251E7 ; 7.999982091082891E9 ; 0.0
49 ; 2098663.431231084 ; 2.0048430594441757E8 ; 9.823110363775839E7 ; 8.20046512916982E9 ; 0.0
50 ; 2099962.520253688 ; 2.0048559644837713E8 ; 1.0032976706898947E8 ; 8.400949435114238E9 ; 0.0
51 ; 2100460.834411618 ; 2.0048690903247634E8 ; 1.0242972958924316E8 ; 8.601435031562614E9 ; 0.0
52 ; 2101685.872027619 ; 2.0048824313593253E8 ; 1.0453019042365478E8 ; 8.80192194059509E9 ; 0.0
53 ; 2102004.4356207387 ; 2.004895982039715E8 ; 1.066318762956824E8 ; 9.002410183731024E9 ; 0.0
54 ; 2102035.5902614994 ; 2.0049097368824247E8 ; 1.0873388073130314E8 ; 9.202899781934996E9 ; 0.0
55 ; 2103883.654062659 ; 2.0049236904718935E8 ; 1.1083591632156464E8 ; 9.403390755623238E9 ; 0.0
56 ; 2104835.42421417 ; 2.0049378374638054E8 ; 1.129397999756273E8 ; 9.603883124670427E9 ; 0.0
57 ; 2104815.3571398784 ; 2.0049521725879908E8 ; 1.1504463539984147E8 ; 9.804376908416807E9 ; 0.0
58 ; 2105941.444162964 ; 2.004966690650955E8 ; 1.1714945075698136E8 ; 1.0004872125675606E10 ; 0.0
59 ; 2106310.616229624 ; 2.0049813865380484E8 ; 1.1925539220114432E8 ; 1.0205368794740702E10 ; 0.0
60 ; 2107954.777222919 ; 2.0049962552153048E8 ; 1.2136170281737395E8 ; 1.0405866933394506E10 ; 0.0
61 ; 2108488.851663882 ; 2.005011291730968E8 ; 1.2346965759459686E8 ; 1.0606366558916037E10 ; 0.0
62 ; 2108082.256142111 ; 2.005026491216721E8 ; 1.2557814644626075E8 ; 1.0806867688089134E10 ; 0.0
63 ; 2110224.551075745 ; 2.0050418488886443E8 ; 1.2768622870240286E8 ; 1.1007370337210806E10 ; 0.0
64 ; 2109061.9085572986 ; 2.0050573600479215E8 ; 1.297964532534786E8 ; 1.120787452209967E10 ; 0.0
65 ; 2111756.2311753863 ; 2.005073020081305E8 ; 1.319055151620359E8 ; 1.1408380258104462E10 ; 0.0
66 ; 2112327.780849039 ; 2.005088824461369E8 ; 1.3401727139321129E8 ; 1.1608887560112593E10 ; 0.0
67 ; 2110199.0950006424 ; 2.005104768746559E8 ; 1.361295991740603E8 ; 1.180939644255873E10 ; 0.0
68 ; 2109225.3053240315 ; 2.0051208485810614E8 ; 1.3823979826906097E8 ; 1.2009906919433386E10 ; 0.0
69 ; 2106136.0835312274 ; 2.0051370596945015E8 ; 1.40349023574385E8 ; 1.2210419004291492E10 ; 0.0
70 ; 2104127.737546542 ; 2.005153397901493E8 ; 1.4245515965791622E8 ; 1.2410932710260942E10 ; 0.0
71 ; 2102772.5856485516 ; 2.0051698591010487E8 ; 1.4455928739546275E8 ; 1.2611448050051092E10 ; 0.0
72 ; 2101604.946616346 ; 2.005186439275865E8 ; 1.466620599811113E8 ; 1.2811965035961197E10 ; 0.0
73 ; 2098939.313642791 ; 2.005203134491496E8 ; 1.4876366492772764E8 ; 1.3012483679888783E10 ; 0.0
74 ; 2097797.3552437173 ; 2.00521994089543E8 ; 1.5086260424137044E8 ; 1.3213003993337933E10 ; 0.0
75 ; 2095987.84087508 ; 2.0052368547160733E8 ; 1.5296040159661415E8 ; 1.3413525987427475E10 ; 0.0
76 ; 2093748.6663615222 ; 2.00525387226166E8 ; 1.5505638943748924E8 ; 1.3614049672899082E10 ; 0.0
77 ; 2090981.1632487448 ; 2.0052709899190927E8 ; 1.5715013810385075E8 ; 1.3814575060125248E10 ; 0.0
78 ; 2089907.5548475925 ; 2.0052882041527227E8 ; 1.592411192670995E8 ; 1.4015102159117157E10 ; 0.0
79 ; 2086311.7855762057 ; 2.0053055115030822E8 ; 1.613310268219471E8 ; 1.4215630979532429E10 ; 0.0
80 ; 2083860.9426450056 ; 2.0053229085855725E8 ; 1.634173386075233E8 ; 1.4416161530682737E10 ; 0.0
81 ; 2081856.8036194968 ; 2.0053403920891157E8 ; 1.655011995501683E8 ; 1.4616693821541294E10 ; 0.0
82 ; 2078266.1333388914 ; 2.00535795877478E8 ; 1.675830563537878E8 ; 1.4817227860750206E10 ; 0.0
83 ; 2075746.9930230617 ; 2.0053756054743809E8 ; 1.696613224871267E8 ; 1.5017763656627684E10 ; 0.0
84 ; 2073327.724768113 ; 2.0053933290890655E8 ; 1.7173706948014978E8 ; 1.5218301217175121E10 ; 0.0
85 ; 2072266.1281911149 ; 2.005411126587884E8 ; 1.7381039720491788E8 ; 1.5418840550084028E10 ; 0.0
86 ; 2068497.807182215 ; 2.0054289950063556E8 ; 1.75882663333109E8 ; 1.5619381662742817E10 ; 0.0
87 ; 2064545.6213605136 ; 2.0054469314450294E8 ; 1.779511611402912E8 ; 1.5819924562243452E10 ; 0.0
88 ; 2063877.8462684066 ; 2.0054649330680463E8 ; 1.8001570676165172E8 ; 1.6020469255387955E10 ; 0.0
89 ; 2059550.8286700773 ; 2.0054829971017063E8 ; 1.8207958460792014E8 ; 1.622101574869476E10 ; 0.0
90 ; 2057805.9552920607 ; 2.0055011208330417E8 ; 1.8413913543659022E8 ; 1.642156404840493E10 ; 0.0
91 ; 2053044.5011288228 ; 2.0055193016084E8 ; 1.8619694139188227E8 ; 1.6622114160488234E10 ; 0.0
92 ; 2052599.839114968 ; 2.00553753683204E8 ; 1.882499858930111E8 ; 1.6822666090649073E10 ; 0.0
93 ; 2048286.097877592 ; 2.0055558239647412E8 ; 1.9030258573212606E8 ; 1.7023219844332277E10 ; 0.0
94 ; 2044699.1507759793 ; 2.005574160522433E8 ; 1.9235087183000365E8 ; 1.7223775426728752E10 ; 0.0
95 ; 2042548.0094812154 ; 2.0055925440748355E8 ; 1.9439557098077962E8 ; 1.7424332842780994E10 ; 0.0
96 ; 2038883.7031458246 ; 2.0056109722441286E8 ; 1.9643811899026084E8 ; 1.7624892097188477E10 ; 0.0
97 ; 2038294.9008607685 ; 2.0056294427036342E8 ; 1.9847700269340667E8 ; 1.7825453194412888E10 ; 0.0
98 ; 2035107.0290243786 ; 2.0056479531765246E8 ; 2.0051529759426743E8 ; 1.802601613868325E10 ; 0.0
99 ; 2031573.851621004 ; 2.005666501434554E8 ; 2.0255040462329182E8 ; 1.8226580934000904E10 ; 0.0
100 ; 2028737.043945741 ; 2.0056850852968097E8 ; 2.0458197847491282E8 ; 1.842714758414436E10 ; 0.0
101 ; 2024658.9888363301 ; 2.0057037026284933E8 ; 2.0661071551885855E8 ; 1.862771609267404E10 ; 0.0
102 ; 2021156.6469035952 ; 2.005722351339722E8 ; 2.0863537450769487E8 ; 1.882828646293689E10 ; 0.0
103 ; 2017894.8552009691 ; 2.0057410293843573E8 ; 2.1065653115459847E8 ; 1.902885869807086E10 ; 0.0
104 ; 2014516.3528528803 ; 2.0057597347588584E8 ; 2.1267442600979945E8 ; 1.9229432801009296E10 ; 0.0
105 ; 2011967.5656989655 ; 2.0057784655011612E8 ; 2.1468894236265233E8 ; 1.9430008774485184E10 ; 0.0
106 ; 2008524.5989848278 ; 2.0057972196895838E8 ; 2.1670090992835128E8 ; 1.96305866210353E10 ; 0.0
107 ; 2005828.366073784 ; 2.0058159954417562E8 ; 2.1870943452733612E8 ; 1.983116634300426E10 ; 0.0
108 ; 2003790.0606176085 ; 2.0058347909135768E8 ; 2.207152628934099E8 ; 2.0031747942548435E10 ; 0.0
109 ; 1999783.752342029 ; 2.0058536042981938E8 ; 2.227190529540275E8 ; 2.0232331421639793E10 ; 0.0
110 ; 1996766.7647651345 ; 2.005872433825013E8 ; 2.2471883670636952E8 ; 2.0432916782069614E10 ; 0.0
111 ; 1993532.8196910976 ; 2.005891277758729E8 ; 2.2671560347113466E8 ; 2.0633504025452114E10 ; 0.0
112 ; 1990786.3571630688 ; 2.005910134398382E8 ; 2.2870913629082575E8 ; 2.0834093153227985E10 ; 0.0
113 ; 1987091.7250681804 ; 2.0059290020764405E8 ; 2.3069992264798883E8 ; 2.1034684166667824E10 ; 0.0
114 ; 1984688.6712452774 ; 2.005947879157906E8 ; 2.32687014373057E8 ; 2.123527706687547E10 ; 0.0
115 ; 1980665.546177201 ; 2.0059667640394428E8 ; 2.3467170304430228E8 ; 2.143587185479126E10 ; 0.0
116 ; 1976196.6276839587 ; 2.0059856551485312E8 ; 2.366523685904795E8 ; 2.1636468531195206E10 ; 0.0
117 ; 1974477.6429139131 ; 2.006004550942644E8 ; 2.3862856521816346E8 ; 2.183706709671006E10 ; 0.0
118 ; 1971198.0633282724 ; 2.0060234499084443E8 ; 2.4060304286107737E8 ; 2.2037667551804325E10 ; 0.0
119 ; 1968689.8514735857 ; 2.006042350561007E8 ; 2.4257424092440563E8 ; 2.223826989679517E10 ; 0.0
120 ; 1964252.7166632249 ; 2.0060612514430624E8 ; 2.4454293077587923E8 ; 2.243887413185127E10 ; 0.0
121 ; 1960519.2098483401 ; 2.006080151124259E8 ; 2.4650718349254245E8 ; 2.2639480256995575E10 ; 0.0
122 ; 1958554.3859700114 ; 2.0060990482004482E8 ; 2.484677027023908E8 ; 2.2840088272108E10 ; 0.0
123 ; 1954036.9014673727 ; 2.006117941292991E8 ; 2.504262570883608E8 ; 2.3040698176928047E10 ; 0.0
124 ; 1950447.0880894125 ; 2.0061368290480828E8 ; 2.5238029398982817E8 ; 2.3241309971057346E10 ; 0.0
125 ; 1946793.9539173453 ; 2.0061557101360962E8 ; 2.5433074107791758E8 ; 2.3441923653962154E10 ; 0.0
126 ; 1944325.4887833016 ; 2.0061745832509467E8 ; 2.5627753503183493E8 ; 2.3642539224975765E10 ; 0.0
127 ; 1939317.9202595602 ; 2.006193447109474E8 ; 2.5822186052061823E8 ; 2.384315668330086E10 ; 0.0
128 ; 1937873.3128761344 ; 2.0062123004508415E8 ; 2.601611784408778E8 ; 2.404377602801181E10 ; 0.0
129 ; 1933324.0388882307 ; 2.0062311420359552E8 ; 2.6209905175375393E8 ; 2.4244397258056896E10 ; 0.0
130 ; 1930073.6893913203 ; 2.0062499706468967E8 ; 2.6403237579264215E8 ; 2.444502037226049E10 ; 0.0
131 ; 1925212.841157971 ; 2.006268785086376E8 ; 2.6596244948203346E8 ; 2.464564536932518E10 ; 0.0
132 ; 1920397.7418997788 ; 2.0062875841771987E8 ; 2.6788766232319143E8 ; 2.4846272247833817E10 ; 0.0
133 ; 1916009.6590139838 ; 2.0063063667617482E8 ; 2.698080600650912E8 ; 2.5046901006251537E10 ; 0.0
134 ; 1912011.6550494768 ; 2.006325131701486E8 ; 2.717240697241052E8 ; 2.524753164292771E10 ; 0.0
135 ; 1908058.247393477 ; 2.006343877876464E8 ; 2.736360813791547E8 ; 2.544816415609786E10 ; 0.0
136 ; 1904375.2992570077 ; 2.0063626041848534E8 ; 2.755441396265482E8 ; 2.5648798543885506E10 ; 0.0
137 ; 1900141.515827306 ; 2.0063813095424855E8 ; 2.7744851492580515E8 ; 2.584943480430399E10 ; 0.0
138 ; 1895499.3849291734 ; 2.0063999928824088E8 ; 2.7934865644163245E8 ; 2.605007293525824E10 ; 0.0
139 ; 1891844.638511763 ; 2.0064186531544566E8 ; 2.812441558265616E8 ; 2.6250712934546482E10 ; 0.0
140 ; 1886074.9027220977 ; 2.00643728932483E8 ; 2.831360004650734E8 ; 2.6451354799861927E10 ; 0.0
141 ; 1882160.824475442 ; 2.006455900375692E8 ; 2.850220753677955E8 ; 2.665199852879441E10 ; 0.0
142 ; 1877944.9005402087 ; 2.0064744853047734E8 ; 2.86904236192271E8 ; 2.685264411883198E10 ; 0.0
143 ; 1872801.7565334223 ; 2.0064930431249914E8 ; 2.887821810928112E8 ; 2.7053291567362457E10 ; 0.0
144 ; 1869112.0925434197 ; 2.0065115728640798E8 ; 2.906549828493447E8 ; 2.7253940871674957E10 ; 0.0
145 ; 1866924.2424268639 ; 2.006530073564229E8 ; 2.925240949418881E8 ; 2.7454592028961365E10 ; 0.0
146 ; 1863552.9499016497 ; 2.0065485442817378E8 ; 2.9439101918431497E8 ; 2.7655245036317787E10 ; 0.0
147 ; 1858331.0444333144 ; 2.0065669840866756E8 ; 2.962545721342166E8 ; 2.785589989074596E10 ; 0.0
148 ; 1855542.30692819 ; 2.0065853920625544E8 ; 2.981129031786499E8 ; 2.805655658915463E10 ; 0.0
149 ; 1851845.399769804 ; 2.00660376730601E8 ; 2.999684454855781E8 ; 2.8257215128360886E10 ; 0.0
150 ; 1845736.5676563864 ; 2.0066221089264956E8 ; 3.018202908853479E8 ; 2.8457875505091488E10 ; 0.0
151 ; 1844141.911311204 ; 2.0066404160459787E8 ; 3.036660274530043E8 ; 2.865853771598414E10 ; 0.0
152 ; 1840486.7366240495 ; 2.0066586877986544E8 ; 3.055101693643155E8 ; 2.8859201757588737E10 ; 0.0
153 ; 1836127.8269023984 ; 2.006676923330662E8 ; 3.073506561009396E8 ; 2.9059867626368603E10 ; 0.0
154 ; 1832841.6099587574 ; 2.0066951217998108E8 ; 3.0918678392784196E8 ; 2.9260535318701668E10 ; 0.0
155 ; 1830479.4592409509 ; 2.0067132823753166E8 ; 3.110196255378007E8 ; 2.946120483088165E10 ; 0.0
156 ; 1825754.9057391959 ; 2.0067314042375433E8 ; 3.128501049970417E8 ; 2.966187615911918E10 ; 0.0
157 ; 1821529.2381915415 ; 2.006749486577754E8 ; 3.146758599027809E8 ; 2.9862549299542934E10 ; 0.0
158 ; 1818996.8849168364 ; 2.0067675285978678E8 ; 3.1649738914097244E8 ; 3.006322424820071E10 ; 0.0
159 ; 1815083.5515908292 ; 2.0067855295102257E8 ; 3.183163860258893E8 ; 3.0263901001060497E10 ; 0.0
160 ; 1810799.1847207511 ; 2.0068034885373616E8 ; 3.201314695774801E8 ; 3.046457955401152E10 ; 0.0
161 ; 1806431.9090193294 ; 2.0068214049117818E8 ; 3.2194226876220083E8 ; 3.0665259902865257E10 ; 0.0
162 ; 1803895.6059343459 ; 2.00683927787575E8 ; 3.237487006712202E8 ; 3.0865942043356434E10 ; 0.0
163 ; 1800804.152020481 ; 2.0068571066810787E8 ; 3.255525962771545E8 ; 3.106662597114401E10 ; 0.0
164 ; 1796718.3246595203 ; 2.0068748905889264E8 ; 3.2735340042917496E8 ; 3.1267311681812115E10 ; 0.0
165 ; 1793896.6698869413 ; 2.0068926288696024E8 ; 3.291501187538345E8 ; 3.1467999170871006E10 ; 0.0
166 ; 1789796.0499202467 ; 2.006910320802376E8 ; 3.3094401542372143E8 ; 3.1668688433757965E10 ; 0.0
167 ; 1785593.8450670603 ; 2.00692796567529E8 ; 3.327338114736417E8 ; 3.1869379465838203E10 ; 0.0
168 ; 1782150.3754004454 ; 2.0069455627849835E8 ; 3.345194053187088E8 ; 3.207007226240573E10 ; 0.0
169 ; 1777445.9833898975 ; 2.0069631114365157E8 ; 3.363015556941092E8 ; 3.227076681868423E10 ; 0.0
170 ; 1775777.0890854467 ; 2.0069806109431985E8 ; 3.380790016774991E8 ; 3.247146312982788E10 ; 0.0
171 ; 1770139.2628495507 ; 2.0069980606264296E8 ; 3.398547787665846E8 ; 3.26721611909222E10 ; 0.0
172 ; 1766624.37029702 ; 2.007E8 ; 3.4162491802943414E8 ; 3.287286099698484E10 ; 0.0
173 ; 1761883.3783330119 ; 2.007E8 ; 3.4339154239973116E8 ; 3.307356099698484E10 ; 0.0
174 ; 1760353.3352297605 ; 2.007E8 ; 3.451534257780642E8 ; 3.327426099698484E10 ; 0.0
175 ; 1755908.9701095356 ; 2.007E8 ; 3.4691377911329395E8 ; 3.347496099698484E10 ; 0.0
176 ; 1754438.239851319 ; 2.007E8 ; 3.4866968808340347E8 ; 3.367566099698484E10 ; 0.0
177 ; 1749573.7990292253 ; 2.007E8 ; 3.5042412632325476E8 ; 3.387636099698484E10 ; 0.0
178 ; 1745873.682482861 ; 2.007E8 ; 3.52173700122284E8 ; 3.407706099698484E10 ; 0.0
179 ; 1744333.506835867 ; 2.007E8 ; 3.5391957380476683E8 ; 3.427776099698484E10 ; 0.0
180 ; 1741084.0066577105 ; 2.007E8 ; 3.556639073116027E8 ; 3.447846099698484E10 ; 0.0
181 ; 1738021.4588055261 ; 2.007E8 ; 3.5740499131826043E8 ; 3.467916099698484E10 ; 0.0
182 ; 1734121.706732132 ; 2.007E8 ; 3.5914301277706593E8 ; 3.487986099698484E10 ; 0.0
183 ; 1731371.5925710413 ; 2.007E8 ; 3.608771344837981E8 ; 3.508056099698484E10 ; 0.0
184 ; 1727658.2327574396 ; 2.007E8 ; 3.626085060763691E8 ; 3.528126099698484E10 ; 0.0
185 ; 1724351.9789389682 ; 2.007E8 ; 3.6433616430912656E8 ; 3.548196099698484E10 ; 0.0
186 ; 1721486.1124390995 ; 2.007E8 ; 3.6606051628806555E8 ; 3.568266099698484E10 ; 0.0
187 ; 1718139.4511740278 ; 2.007E8 ; 3.6778200240050465E8 ; 3.588336099698484E10 ; 0.0
188 ; 1714100.5598450575 ; 2.007E8 ; 3.6950014185167867E8 ; 3.608406099698484E10 ; 0.0
189 ; 1712724.7287392698 ; 2.007E8 ; 3.712142424115237E8 ; 3.628476099698484E10 ; 0.0
190 ; 1708080.1528993698 ; 2.007E8 ; 3.7292696714026296E8 ; 3.648546099698484E10 ; 0.0
191 ; 1703770.8696738973 ; 2.007E8 ; 3.7463504729316235E8 ; 3.668616099698484E10 ; 0.0
192 ; 1701761.0660978162 ; 2.007E8 ; 3.7633881816283625E8 ; 3.688686099698484E10 ; 0.0
193 ; 1699295.3750539361 ; 2.007E8 ; 3.7804057922893405E8 ; 3.708756099698484E10 ; 0.0
194 ; 1697094.8484761645 ; 2.007E8 ; 3.79739874603988E8 ; 3.728826099698484E10 ; 0.0
195 ; 1692548.315289944 ; 2.007E8 ; 3.8143696945246416E8 ; 3.748896099698484E10 ; 0.0
196 ; 1687981.7017362583 ; 2.007E8 ; 3.831295177677541E8 ; 3.768966099698484E10 ; 0.0
197 ; 1686481.6950942467 ; 2.007E8 ; 3.8481749946949035E8 ; 3.789036099698484E10 ; 0.0
198 ; 1683272.2468386868 ; 2.007E8 ; 3.865039811645846E8 ; 3.809106099698484E10 ; 0.0
199 ; 1679837.8972880496 ; 2.007E8 ; 3.8818725341142327E8 ; 3.829176099698484E10 ; 0.0
200 ; 1677573.2295310546 ; 2.007E8 ; 3.898670913087113E8 ; 3.849246099698484E10 ; 0.0
201 ; 1674383.1858674223 ; 2.007E8 ; 3.9154466453824234E8 ; 3.869316099698484E10 ; 0.0
202 ; 1670751.6160556206 ; 1.574384479975893E8 ; 3.9321904772410977E8 ; 3.889386099698484E10 ; 0.0
203 ; 1667730.3873636436 ; 1.5116626757342157E8 ; 3.948897993401654E8 ; 3.905129944498243E10 ; 0.0
