CSV File for the City 2 on Day 2
1 - Minute m 
2 - Power Consumed at minute m 
3 - Power Produced at minute m 
4 - Energy Consumed since the beginning of the day 
5 - Energy Produced since the beginning of the day 
6 - Energy Lost since the beginning of the day on lines starting from the city
 
0 ; 1780063.335934909 ; 1.0521345632493898E8 ; 0.0 ; 0.0 ; 0.0
1 ; 1781303.152523605 ; 1.0536734592276639E8 ; 1780063.335934909 ; 1.0521345632493898E8 ; 0.0
2 ; 1783749.339403449 ; 1.0582991974088499E8 ; 3561366.488458514 ; 2.1058080224770537E8 ; 0.0
3 ; 1786849.7062621864 ; 1.06601178777264E8 ; 5345115.827861963 ; 3.1641072198859036E8 ; 0.0
4 ; 1788205.3601826031 ; 1.0768112394451642E8 ; 7131965.534124149 ; 4.2301190076585436E8 ; 0.0
5 ; 1791582.0330576329 ; 1.0906975605906045E8 ; 8920170.894306753 ; 5.306930247103708E8 ; 0.0
6 ; 1796609.2765114505 ; 1.1076707583098277E8 ; 1.0711752927364387E7 ; 6.397627807694312E8 ; 0.0
7 ; 1803451.1475079039 ; 1.1277308385487938E8 ; 1.2508362203875838E7 ; 7.50529856600414E8 ; 0.0
8 ; 1811367.141352312 ; 1.1508778060193902E8 ; 1.4311813351383742E7 ; 8.633029404552934E8 ; 0.0
9 ; 1825703.538419469 ; 1.1771116641350842E8 ; 1.6123180492736055E7 ; 9.783907210572324E8 ; 0.0
10 ; 1846872.87793755 ; 1.2064324149634075E8 ; 1.7948884031155523E7 ; 1.0961018874707408E9 ; 0.0
11 ; 1880026.4217875262 ; 1.2388400591968128E8 ; 1.9795756909093075E7 ; 1.2167451289670815E9 ; 0.0
12 ; 1934362.227700586 ; 1.2743345961428472E8 ; 2.16757833308806E7 ; 1.3406291348867629E9 ; 0.0
13 ; 1986263.9624998213 ; 1.3129160237339789E8 ; 2.361014555858119E7 ; 1.4680625945010476E9 ; 0.0
14 ; 1992967.900948592 ; 1.3545843385567415E8 ; 2.5596409521081008E7 ; 1.5993541968744454E9 ; 0.0
15 ; 1996136.395648149 ; 1.3993395358992463E8 ; 2.75893774220296E7 ; 1.7348126307301197E9 ; 0.0
16 ; 1997565.8444511783 ; 1.4471816098155347E8 ; 2.9585513817677747E7 ; 1.8747465843200443E9 ; 0.0
17 ; 2000640.506956549 ; 1.4981105532047388E8 ; 3.1583079662128925E7 ; 2.0194647453015978E9 ; 0.0
18 ; 2001938.781635708 ; 1.552126357902677E8 ; 3.358372016908547E7 ; 2.1692758006220717E9 ; 0.0
19 ; 2004822.6126324376 ; 1.6092290147832194E8 ; 3.558565895072118E7 ; 2.324488436412339E9 ; 0.0
20 ; 2007364.2650857987 ; 1.6694185138666734E8 ; 3.759048156335362E7 ; 2.4854113378906612E9 ; 0.0
21 ; 2010062.1614330097 ; 1.7326948444324246E8 ; 3.959784582843942E7 ; 2.6523531892773285E9 ; 0.0
22 ; 2013027.3913293246 ; 1.7990579951331902E8 ; 4.160790798987243E7 ; 2.825622673720571E9 ; 0.0
23 ; 2014686.0519138833 ; 1.8685079541084617E8 ; 4.362093538120176E7 ; 3.00552847323389E9 ; 0.0
24 ; 2016476.0662655921 ; 1.9410447090949798E8 ; 4.563562143311564E7 ; 3.1923792686447363E9 ; 0.0
25 ; 2019035.7994103986 ; 2.0035486565142673E8 ; 4.765209749938123E7 ; 3.3864837395542345E9 ; 0.0
26 ; 2022143.1689894283 ; 2.003555261941033E8 ; 4.9671133298791625E7 ; 3.5868386052056613E9 ; 0.0
27 ; 2025297.6071546986 ; 2.003562205444295E8 ; 5.169327646778105E7 ; 3.7871941313997645E9 ; 0.0
28 ; 2026509.2736929192 ; 2.003569474139066E8 ; 5.371857407493575E7 ; 3.987550351944194E9 ; 0.0
29 ; 2029306.9198358157 ; 2.0035770551941893E8 ; 5.574508334862867E7 ; 4.1879072993581004E9 ; 0.0
30 ; 2031356.5073167318 ; 2.0035849358989668E8 ; 5.777439026846448E7 ; 4.38826500487752E9 ; 0.0
31 ; 2033074.0004710418 ; 2.0035931037210968E8 ; 5.9805746775781214E7 ; 4.588623498467417E9 ; 0.0
32 ; 2035555.6418398402 ; 2.0036015463561714E8 ; 6.1838820776252255E7 ; 4.788982808839526E9 ; 0.0
33 ; 2036382.3020227249 ; 2.003610251769145E8 ; 6.3874376418092094E7 ; 4.989342963475143E9 ; 0.0
34 ; 2039590.4598937503 ; 2.0036192082282898E8 ; 6.591075872011482E7 ; 5.189703988652058E9 ; 0.0
35 ; 2040848.8648437038 ; 2.0036284043322235E8 ; 6.795034918000858E7 ; 5.390065909474887E9 ; 0.0
36 ; 2045484.1265730672 ; 2.0036378290306538E8 ; 6.999119804485229E7 ; 5.59042874990811E9 ; 0.0
37 ; 2046053.2480121863 ; 2.0036474716394824E8 ; 7.203668217142536E7 ; 5.790792532811175E9 ; 0.0
38 ; 2048001.562744883 ; 2.0036573218509224E8 ; 7.408273541943754E7 ; 5.991157279975123E9 ; 0.0
39 ; 2049940.0129474376 ; 2.003667369739257E8 ; 7.613073698218243E7 ; 6.191523012160215E9 ; 0.0
40 ; 2051819.4214808901 ; 2.003677605762835E8 ; 7.818067699512987E7 ; 6.391889749134141E9 ; 0.0
41 ; 2052772.8493806522 ; 2.0036880207628614E8 ; 8.023249641661076E7 ; 6.592257509710424E9 ; 0.0
42 ; 2054218.2970639765 ; 2.003698605959495E8 ; 8.228526926599142E7 ; 6.792626311786711E9 ; 0.0
43 ; 2055133.5389355046 ; 2.0037093529457214E8 ; 8.43394875630554E7 ; 6.99299617238266E9 ; 0.0
44 ; 2056310.3010301634 ; 2.003720253679411E8 ; 8.63946211019909E7 ; 7.193367107677232E9 ; 0.0
45 ; 2058517.042058228 ; 2.0037313004739386E8 ; 8.845093140302105E7 ; 7.393739133045173E9 ; 0.0
46 ; 2059981.418432364 ; 2.003742485987684E8 ; 9.050944844507928E7 ; 7.5941122630925665E9 ; 0.0
47 ; 2058641.5654125488 ; 2.003753803212701E8 ; 9.256942986351165E7 ; 7.794486511691335E9 ; 0.0
48 ; 2061232.9616839432 ; 2.003765245462788E8 ; 9.46280714289242E7 ; 7.994861892012605E9 ; 0.0
49 ; 2060349.2028152298 ; 2.00377680636118E8 ; 9.668930439060815E7 ; 8.195238416558884E9 ; 0.0
50 ; 2062301.6077551236 ; 2.003788479828024E8 ; 9.874965359342338E7 ; 8.395616097195002E9 ; 0.0
51 ; 2062697.1002433558 ; 2.0038002600677922E8 ; 1.008119552011785E8 ; 8.595994945177803E9 ; 0.0
52 ; 2063421.1251287723 ; 2.0038121415567505E8 ; 1.0287465230142187E8 ; 8.796374971184582E9 ; 0.0
53 ; 2065059.8194550532 ; 2.003824119030577E8 ; 1.0493807342655064E8 ; 8.996756185340258E9 ; 0.0
54 ; 2065140.6790304107 ; 2.0038361874722174E8 ; 1.070031332460057E8 ; 9.197138597243315E9 ; 0.0
55 ; 2065284.9153757016 ; 2.003848342100031E8 ; 1.090682739250361E8 ; 9.397522215990536E9 ; 0.0
56 ; 2065896.7553156228 ; 2.003860578356279E8 ; 1.111335588404118E8 ; 9.597907050200539E9 ; 0.0
57 ; 2066252.390868364 ; 2.0038728918959925E8 ; 1.1319945559572741E8 ; 9.798293108036167E9 ; 0.0
58 ; 2066477.4632144424 ; 2.0038852785762396E8 ; 1.1526570798659578E8 ; 9.998680397225767E9 ; 0.0
59 ; 2068346.6718861852 ; 2.003897734445815E8 ; 1.1733218544981022E8 ; 1.0199068925083391E10 ; 0.0
60 ; 2068128.7762785759 ; 2.0039102557353583E8 ; 1.1940053212169641E8 ; 1.0399458698527973E10 ; 0.0
61 ; 2067601.2193375833 ; 2.0039228388479024E8 ; 1.2146866089797498E8 ; 1.059984972410151E10 ; 0.0
62 ; 2069535.623027183 ; 2.0039354803498584E8 ; 1.2353626211731257E8 ; 1.08002420079863E10 ; 0.0
63 ; 2069820.16065387 ; 2.003948176962423E8 ; 1.2560579774033976E8 ; 1.1000635556021286E10 ; 0.0
64 ; 2069466.1771874046 ; 2.0039609255534083E8 ; 1.2767561790099363E8 ; 1.1201030373717527E10 ; 0.0
65 ; 2070053.923383572 ; 2.0039737231294772E8 ; 1.2974508407818103E8 ; 1.140142646627287E10 ; 0.0
66 ; 2070291.6796474291 ; 2.00398656682878E8 ; 1.318151380015646E8 ; 1.1601823838585817E10 ; 0.0
67 ; 2071365.1304765863 ; 2.003999453913969E8 ; 1.3388542968121204E8 ; 1.1802222495268696E10 ; 0.0
68 ; 2070851.0570765943 ; 2.004012381765587E8 ; 1.3595679481168863E8 ; 1.2002622440660093E10 ; 0.0
69 ; 2070916.5802976964 ; 2.004025347875806E8 ; 1.3802764586876523E8 ; 1.2203023678836653E10 ; 0.0
70 ; 2071242.105109733 ; 2.0040383498425066E8 ; 1.4009856244906294E8 ; 1.2403426213624233E10 ; 0.0
71 ; 2071402.9780538983 ; 2.004051385363682E8 ; 1.4216980455417266E8 ; 1.2603830048608484E10 ; 0.0
72 ; 2070334.4345779319 ; 2.0040644522321463E8 ; 1.4424120753222656E8 ; 1.2804235187144852E10 ; 0.0
73 ; 2073005.9449421174 ; 2.0040775483305395E8 ; 1.463115419668045E8 ; 1.3004641632368067E10 ; 0.0
74 ; 2073337.8489036863 ; 2.0040906716266093E8 ; 1.4838454791174662E8 ; 1.320504938720112E10 ; 0.0
75 ; 2073828.1857952874 ; 2.0041038201687545E8 ; 1.504578857606503E8 ; 1.3405458454363781E10 ; 0.0
76 ; 2072639.186795391 ; 2.0041169920818225E8 ; 1.5253171394644558E8 ; 1.3605868836380657E10 ; 0.0
77 ; 2072253.7901184927 ; 2.0041301855631375E8 ; 1.5460435313324097E8 ; 1.3806280535588839E10 ; 0.0
78 ; 2071386.5387955126 ; 2.0041433988787574E8 ; 1.5667660692335945E8 ; 1.4006693554145153E10 ; 0.0
79 ; 2071028.4476318627 ; 2.004156630359937E8 ; 1.5874799346215495E8 ; 1.420710789403303E10 ; 0.0
80 ; 2071392.484515166 ; 2.0041698783997932E8 ; 1.6081902190978682E8 ; 1.4407523557069023E10 ; 0.0
81 ; 2071080.6207959966 ; 2.0041831414501563E8 ; 1.6289041439430198E8 ; 1.4607940544909002E10 ; 0.0
82 ; 2069278.7145556386 ; 2.004196418018598E8 ; 1.6496149501509798E8 ; 1.4808358859054018E10 ; 0.0
83 ; 2068418.9147015864 ; 2.004209706665628E8 ; 1.6703077372965363E8 ; 1.5008778500855877E10 ; 0.0
84 ; 2068702.9494604708 ; 2.0042230060020456E8 ; 1.690991926443552E8 ; 1.520919947152244E10 ; 0.0
85 ; 2068455.2510210075 ; 2.0042363146864408E8 ; 1.7116789559381568E8 ; 1.5409621772122644E10 ; 0.0
86 ; 2066454.0634850068 ; 2.0042496314228335E8 ; 1.7323635084483668E8 ; 1.5610045403591288E10 ; 0.0
87 ; 2066656.9789798162 ; 2.0042629549584445E8 ; 1.7530280490832168E8 ; 1.581047036673357E10 ; 0.0
88 ; 2066336.1198470755 ; 2.0042762840815908E8 ; 1.773694618873015E8 ; 1.6010896662229414E10 ; 0.0
89 ; 2065195.4653308452 ; 2.004289617619696E8 ; 1.794357980071486E8 ; 1.6211324290637573E10 ; 0.0
90 ; 2062434.734200921 ; 2.0043029544374093E8 ; 1.8150099347247943E8 ; 1.6411753252399544E10 ; 0.0
91 ; 2063367.4968432167 ; 2.004316293434831E8 ; 1.8356342820668036E8 ; 1.6612183547843285E10 ; 0.0
92 ; 2062950.6677002534 ; 2.004329633545831E8 ; 1.8562679570352358E8 ; 1.6812615177186768E10 ; 0.0
93 ; 2061777.2207427863 ; 2.0043429737364614E8 ; 1.8768974637122384E8 ; 1.7013048140541351E10 ; 0.0
94 ; 2060575.4168895201 ; 2.004356313003453E8 ; 1.8975152359196663E8 ; 1.7213482437914997E10 ; 0.0
95 ; 2059446.3380507173 ; 2.0043696503727943E8 ; 1.9181209900885615E8 ; 1.7413918069215343E10 ; 0.0
96 ; 2058501.1734964643 ; 2.0043829848983866E8 ; 1.9387154534690687E8 ; 1.7614355034252625E10 ; 0.0
97 ; 2057092.5812432645 ; 2.0043963156607696E8 ; 1.9593004652040333E8 ; 1.7814793332742462E10 ; 0.0
98 ; 2056853.98597193 ; 2.004409641765916E8 ; 1.979871391016466E8 ; 1.801523296430854E10 ; 0.0
99 ; 2057084.6317312021 ; 2.0044229623440894E8 ; 2.0004399308761853E8 ; 1.821567392848513E10 ; 0.0
100 ; 2054765.1209538977 ; 2.0044362765487617E8 ; 2.0210107771934974E8 ; 1.841611622471954E10 ; 0.0
101 ; 2053765.8091129123 ; 2.004449583555588E8 ; 2.0415584284030363E8 ; 1.8616559852374416E10 ; 0.0
102 ; 2053681.110394343 ; 2.0044628825614342E8 ; 2.0620960864941654E8 ; 1.8817004810729977E10 ; 0.0
103 ; 2052101.0634471264 ; 2.004476172783455E8 ; 2.0826328975981086E8 ; 1.901745109898612E10 ; 0.0
104 ; 2050106.1349492823 ; 2.00448945345822E8 ; 2.1031539082325798E8 ; 1.9217898716264465E10 ; 0.0
105 ; 2050319.7730433117 ; 2.004502723840883E8 ; 2.1236549695820728E8 ; 1.9418347661610287E10 ; 0.0
106 ; 2048730.347880464 ; 2.004515983204396E8 ; 2.1441581673125058E8 ; 1.9618797933994373E10 ; 0.0
107 ; 2048699.063579495 ; 2.0045292308387604E8 ; 2.1646454707913104E8 ; 1.981924953231481E10 ; 0.0
108 ; 2047077.3453934798 ; 2.004542466050318E8 ; 2.1851324614271054E8 ; 2.001970245539869E10 ; 0.0
109 ; 2044767.0677453093 ; 2.0045556881610754E8 ; 2.2056032348810402E8 ; 2.022015670200372E10 ; 0.0
110 ; 2043352.8462059733 ; 2.0045688965080652E8 ; 2.226050905558493E8 ; 2.0420612270819828E10 ; 0.0
111 ; 2042817.7098936327 ; 2.0045820904427353E8 ; 2.246484434020553E8 ; 2.0621069160470634E10 ; 0.0
112 ; 2040933.1179315753 ; 2.0045952693303707E8 ; 2.2669126111194894E8 ; 2.0821527369514908E10 ; 0.0
113 ; 2039780.9720335628 ; 2.0046084325495428E8 ; 2.287321942298805E8 ; 2.1021986896447945E10 ; 0.0
114 ; 2038666.8869132358 ; 2.0046215794915846E8 ; 2.3077197520191407E8 ; 2.12224477397029E10 ; 0.0
115 ; 2037460.652895841 ; 2.0046347095600936E8 ; 2.328106420888273E8 ; 2.1422909897652058E10 ; 0.0
116 ; 2037252.253487107 ; 2.0046478221704563E8 ; 2.3484810274172315E8 ; 2.1623373368608067E10 ; 0.0
117 ; 2034105.6098251974 ; 2.0046609167493978E8 ; 2.3688535499521026E8 ; 2.182383815082511E10 ; 0.0
118 ; 2035078.113156186 ; 2.0046739927345493E8 ; 2.3891946060503545E8 ; 2.202430424250005E10 ; 0.0
119 ; 2031577.3564756531 ; 2.0046870495740405E8 ; 2.4095453871819165E8 ; 2.2224771641773506E10 ; 0.0
120 ; 2030919.1161461843 ; 2.004700086726108E8 ; 2.429861160746673E8 ; 2.242524034673091E10 ; 0.0
121 ; 2029358.4100548595 ; 2.004713103658722E8 ; 2.4501703519081348E8 ; 2.2625710355403522E10 ; 0.0
122 ; 2027604.395658559 ; 2.0047260998492345E8 ; 2.4704639360086834E8 ; 2.2826181665769394E10 ; 0.0
123 ; 2027450.4306343382 ; 2.0047390747840372E8 ; 2.490739979965269E8 ; 2.302665427575432E10 ; 0.0
124 ; 2023398.0101031412 ; 2.0047520279582405E8 ; 2.5110144842716125E8 ; 2.3227128183232723E10 ; 0.0
125 ; 2023629.1974457034 ; 2.0047649588753656E8 ; 2.5312484643726438E8 ; 2.342760338602855E10 ; 0.0
126 ; 2021673.8982208108 ; 2.0047778670470494E8 ; 2.5514847563471007E8 ; 2.3628079881916084E10 ; 0.0
127 ; 2020538.8170349963 ; 2.0047907519927648E8 ; 2.5717014953293088E8 ; 2.382855766862079E10 ; 0.0
128 ; 2019417.4842162167 ; 2.0048036132395512E8 ; 2.5919068834996587E8 ; 2.4029036743820065E10 ; 0.0
129 ; 2015046.9801788873 ; 2.0048164503217602E8 ; 2.6121010583418208E8 ; 2.422951710514402E10 ; 0.0
130 ; 2014279.7281111814 ; 2.0048292627808094E8 ; 2.6322515281436098E8 ; 2.4429998750176197E10 ; 0.0
131 ; 2013016.2168296028 ; 2.00484205016495E8 ; 2.6523943254247215E8 ; 2.4630481676454277E10 ; 0.0
132 ; 2009857.6744201863 ; 2.0048548120290413E8 ; 2.6725244875930175E8 ; 2.483096588147077E10 ; 0.0
133 ; 2007410.7344815915 ; 2.0048675479343396E8 ; 2.6926230643372196E8 ; 2.5031451362673676E10 ; 0.0
134 ; 2005577.8812145991 ; 2.0048802574482924E8 ; 2.7126971716820353E8 ; 2.523193811746711E10 ; 0.0
135 ; 2004489.8470331265 ; 2.004892940144342E8 ; 2.7327529504941815E8 ; 2.543242614321194E10 ; 0.0
136 ; 2001020.867772482 ; 2.0049055956017405E8 ; 2.752797848964513E8 ; 2.5632915437226376E10 ; 0.0
137 ; 1997870.9352261485 ; 2.0049182234053695E8 ; 2.7728080576422375E8 ; 2.583340599678655E10 ; 0.0
138 ; 1995444.0150989972 ; 2.00493082314557E8 ; 2.792786766994499E8 ; 2.6033897819127087E10 ; 0.0
139 ; 1994576.8114079894 ; 2.004943394417976E8 ; 2.812741207145489E8 ; 2.6234390901441643E10 ; 0.0
140 ; 1991850.0452294317 ; 2.004955936823361E8 ; 2.8326869752595687E8 ; 2.6434885240883442E10 ; 0.0
141 ; 1989758.5304737159 ; 2.0049684499674833E8 ; 2.852605475711863E8 ; 2.6635380834565777E10 ; 0.0
142 ; 1985525.9055250022 ; 2.0049809334609464E8 ; 2.8725030610166E8 ; 2.6835877679562527E10 ; 0.0
143 ; 1983127.070905657 ; 2.004993386919057E8 ; 2.8923583200718504E8 ; 2.7036375772908623E10 ; 0.0
144 ; 1981695.234177168 ; 2.005005809961695E8 ; 2.912189590780907E8 ; 2.723687511160053E10 ; 0.0
145 ; 1979846.0022862803 ; 2.0050182022131857E8 ; 2.932006543122679E8 ; 2.74373756925967E10 ; 0.0
146 ; 1977592.1449659169 ; 2.005030563302178E8 ; 2.9518050031455415E8 ; 2.7637877512818016E10 ; 0.0
147 ; 1976272.33434598 ; 2.005042892861529E8 ; 2.971580924595201E8 ; 2.7838380569148235E10 ; 0.0
148 ; 1975062.35950495 ; 2.0050551905281904E8 ; 2.991343647938661E8 ; 2.8038884858434387E10 ; 0.0
149 ; 1973086.4430177899 ; 2.0050674559431016E8 ; 3.0110942715337104E8 ; 2.8239390377487206E10 ; 0.0
150 ; 1971534.1717086537 ; 2.0050796887510878E8 ; 3.030825135963888E8 ; 2.8439897123081516E10 ; 0.0
151 ; 1969392.7962346857 ; 2.0050918886007598E8 ; 3.0505404776809746E8 ; 2.8640405091956627E10 ; 0.0
152 ; 1967889.7750893577 ; 2.00510405514442E8 ; 3.070234405643321E8 ; 2.8840914280816704E10 ; 0.0
153 ; 1965771.693198063 ; 2.0051161880379704E8 ; 3.089913303394215E8 ; 2.9041424686331146E10 ; 0.0
154 ; 1962842.0020953761 ; 2.0051282869408262E8 ; 3.109571020326196E8 ; 2.9241936305134945E10 ; 0.0
155 ; 1962150.6239763969 ; 2.0051403515158308E8 ; 3.12919944034715E8 ; 2.944244913382903E10 ; 0.0
156 ; 1959880.8732791848 ; 2.005152381429176E8 ; 3.148820946586914E8 ; 2.9642963168980614E10 ; 0.0
157 ; 1958229.7495822045 ; 2.005164376350324E8 ; 3.168419755319706E8 ; 2.984347840712353E10 ; 0.0
158 ; 1957042.5335001105 ; 2.005176335951932E8 ; 3.1880020528155285E8 ; 3.0043994844758564E10 ; 0.0
159 ; 1953921.3265819915 ; 2.0051882599097833E8 ; 3.20757247815053E8 ; 3.0244512478353756E10 ; 0.0
160 ; 1953141.2279164533 ; 2.0052001479027158E8 ; 3.22711169141635E8 ; 3.0445031304344734E10 ; 0.0
161 ; 1950823.4305482823 ; 2.005211999612557E8 ; 3.246643103695515E8 ; 3.0645551319135006E10 ; 0.0
162 ; 1948809.3977314283 ; 2.0052238147240603E8 ; 3.266151338000998E8 ; 3.084607251909626E10 ; 0.0
163 ; 1947869.182803551 ; 2.005235592924844E8 ; 3.285639431978312E8 ; 3.1046594900568665E10 ; 0.0
164 ; 1945902.6103028618 ; 2.0052473339053333E8 ; 3.305118123806348E8 ; 3.124711845986115E10 ; 0.0
165 ; 1944062.0724546686 ; 2.0052590373587012E8 ; 3.3245771499093765E8 ; 3.1447643193251682E10 ; 0.0
166 ; 1940673.4951756152 ; 2.0052707029808173E8 ; 3.3440177706339234E8 ; 3.1648169096987553E10 ; 0.0
167 ; 1939126.8897064496 ; 2.0052823304701933E8 ; 3.3634245055856794E8 ; 3.1848696167285633E10 ; 0.0
168 ; 1937579.490786204 ; 2.0052939195279342E8 ; 3.382815774482744E8 ; 3.2049224400332653E10 ; 0.0
169 ; 1935921.9730253522 ; 2.0053054698576885E8 ; 3.4021915693906057E8 ; 3.2249753792285446E10 ; 0.0
170 ; 1933612.1294457323 ; 2.0053169811656025E8 ; 3.4215507891208595E8 ; 3.2450284339271214E10 ; 0.0
171 ; 1932196.4067181852 ; 2.0053284531602746E8 ; 3.440886910415317E8 ; 3.2650816037387775E10 ; 0.0
172 ; 1930527.6578911468 ; 2.005339885552714E8 ; 3.460208874482499E8 ; 3.2851348882703804E10 ; 0.0
173 ; 1927815.7521565766 ; 2.005351278056296E8 ; 3.4795141510614103E8 ; 3.3051882871259075E10 ; 0.0
174 ; 1927151.1195866857 ; 2.005362630386726E8 ; 3.498792308582976E8 ; 3.3252417999064705E10 ; 0.0
175 ; 1926827.4508877173 ; 2.0053739422619972E8 ; 3.518063819778843E8 ; 3.345295426210338E10 ; 0.0
176 ; 1925176.1113937106 ; 2.0053852134023556E8 ; 3.5373320942877203E8 ; 3.365349165632958E10 ; 0.0
177 ; 1925118.6700853736 ; 2.0053964435302642E8 ; 3.556583855401657E8 ; 3.3854030177669815E10 ; 0.0
178 ; 1923192.7942809148 ; 2.005407632370368E8 ; 3.575835042102511E8 ; 3.4054569822022842E10 ; 0.0
179 ; 1920681.95996871 ; 2.005418779649461E8 ; 3.59506697004532E8 ; 3.425511058525988E10 ; 0.0
180 ; 1919887.257185395 ; 2.005429885096454E8 ; 3.6142737896450067E8 ; 3.445565246322482E10 ; 0.0
181 ; 1918574.2568001363 ; 2.005440948442346E8 ; 3.6334726622168607E8 ; 3.465619545173447E10 ; 0.0
182 ; 1917986.7721159495 ; 2.0054519694201902E8 ; 3.652658404784862E8 ; 3.4856739546578705E10 ; 0.0
183 ; 1917763.4982357635 ; 2.0054629477650705E8 ; 3.671838272506021E8 ; 3.505728474352072E10 ; 0.0
184 ; 1915470.7181080854 ; 2.0054738832140705E8 ; 3.691015907488379E8 ; 3.5257831038297226E10 ; 0.0
185 ; 1915190.982195283 ; 2.005484775506248E8 ; 3.7101706146694595E8 ; 3.545837842661863E10 ; 0.0
186 ; 1912429.7298736512 ; 2.0054956243826103E8 ; 3.729322524491412E8 ; 3.565892690416925E10 ; 0.0
187 ; 1912340.179542004 ; 2.0055064295860887E8 ; 3.7484468217901486E8 ; 3.585947646660751E10 ; 0.0
188 ; 1911264.3602547597 ; 2.0055171908615145E8 ; 3.7675702235855687E8 ; 3.6060027109566124E10 ; 0.0
189 ; 1909289.9366467902 ; 2.005527907955598E8 ; 3.7866828671881163E8 ; 3.6260578828652275E10 ; 0.0
190 ; 1909132.3636069472 ; 2.005538580616904E8 ; 3.8057757665545845E8 ; 3.646113161944784E10 ; 0.0
191 ; 1908479.0676215028 ; 2.0055492085958323E8 ; 3.824867090190654E8 ; 3.666168547750953E10 ; 0.0
192 ; 1905948.5187564509 ; 2.0055597916445968E8 ; 3.843951880866869E8 ; 3.686224039836911E10 ; 0.0
193 ; 1905664.9817430365 ; 2.005570329517206E8 ; 3.8630113660544336E8 ; 3.706279637753357E10 ; 0.0
194 ; 1902510.8188105645 ; 2.0055808219694433E8 ; 3.882068015871864E8 ; 3.726335341048529E10 ; 0.0
195 ; 1903047.69510399 ; 2.0055912687588498E8 ; 3.90109312405997E8 ; 3.7463911492682236E10 ; 0.0
196 ; 1900163.7273757127 ; 2.0056016696447054E8 ; 3.92012360101101E8 ; 3.766447061955812E10 ; 0.0
197 ; 1900475.577482915 ; 2.005612024388013E8 ; 3.9391252382847667E8 ; 3.786503078652259E10 ; 0.0
198 ; 1899725.6395186065 ; 2.0056223327514815E8 ; 3.958129994059596E8 ; 3.8065591988961395E10 ; 0.0
199 ; 1896164.465695523 ; 2.00563259449951E8 ; 3.977127250454782E8 ; 3.826615422223654E10 ; 0.0
