CSV File for the City 3 on Day 67
1 - Minute m 
2 - Power Consumed at minute m 
3 - Power Produced at minute m 
4 - Energy Consumed since the beginning of the day 
5 - Energy Produced since the beginning of the day 
6 - Energy Lost since the beginning of the day on lines starting from the city
 
0 ; 2375877.563996375 ; 1.0547123681322715E8 ; 0.0 ; 0.0 ; 0.0
1 ; 2378830.500022154 ; 1.0562412733766258E8 ; 2375877.563996375 ; 1.0547123681322715E8 ; 0.0
2 ; 2380330.261801182 ; 1.0608580447160926E8 ; 4754708.064018529 ; 2.1109536415088972E8 ; 0.0
3 ; 2386096.254270965 ; 1.0685627013661242E8 ; 7135038.32581971 ; 3.17181168622499E8 ; 0.0
4 ; 2387434.87577658 ; 1.0793552606191874E8 ; 9521134.580090676 ; 4.240374387591114E8 ; 0.0
5 ; 2390767.088171742 ; 1.0932357377249491E8 ; 1.1908569455867255E7 ; 5.3197296482103014E8 ; 0.0
6 ; 2398224.713325043 ; 1.1102041457820293E8 ; 1.4299336544038996E7 ; 6.41296538593525E8 ; 0.0
7 ; 2405775.957481137 ; 1.1302604956430924E8 ; 1.6697561257364038E7 ; 7.52316953171728E8 ; 0.0
8 ; 2416227.399061103 ; 1.1534047958348393E8 ; 1.9103337214845177E7 ; 8.653430027360373E8 ; 0.0
9 ; 2434737.6948098824 ; 1.1796370524942845E8 ; 2.151956461390628E7 ; 9.806834823195212E8 ; 0.0
10 ; 2459365.1123934817 ; 1.2089572693224072E8 ; 2.3954302308716163E7 ; 1.0986471875689497E9 ; 0.0
11 ; 2500783.357231627 ; 1.2413654475560132E8 ; 2.6413667421109647E7 ; 1.2195429145011904E9 ; 0.0
12 ; 2566421.7773094885 ; 1.2768615859582964E8 ; 2.8914450778341275E7 ; 1.3436794592567918E9 ; 0.0
13 ; 2630639.330808458 ; 1.3154456808282775E8 ; 3.1480872555650763E7 ; 1.4713656178526216E9 ; 0.0
14 ; 2637113.994033555 ; 1.357117726028943E8 ; 3.4111511886459224E7 ; 1.6029101859354494E9 ; 0.0
15 ; 2640475.2282211697 ; 1.401877713033591E8 ; 3.674862588049278E7 ; 1.7386219585383437E9 ; 0.0
16 ; 2643874.156046118 ; 1.4497256309895578E8 ; 3.938910110871395E7 ; 1.8788097298417027E9 ; 0.0
17 ; 2646460.786421948 ; 1.500661466798223E8 ; 4.203297526476006E7 ; 2.0237822929406586E9 ; 0.0
18 ; 2648984.4146163 ; 1.5546852052099198E8 ; 4.467943605118201E7 ; 2.173848439620481E9 ; 0.0
19 ; 2653221.481882427 ; 1.6117968289321813E8 ; 4.732842046579831E7 ; 2.329316960141473E9 ; 0.0
20 ; 2656460.859100922 ; 1.671996318749555E8 ; 4.998164194768074E7 ; 2.490496643034691E9 ; 0.0
21 ; 2658892.338689454 ; 1.735283653653138E8 ; 5.2638102806781664E7 ; 2.6576962749096465E9 ; 0.0
22 ; 2661101.230446898 ; 1.8016588109778732E8 ; 5.529699514547112E7 ; 2.8312246402749605E9 ; 0.0
23 ; 2664861.8229900766 ; 1.8711217665456563E8 ; 5.7958096375918016E7 ; 3.011390521372748E9 ; 0.0
24 ; 2667777.976268235 ; 1.9436724948123187E8 ; 6.062295819890809E7 ; 3.1985026980273137E9 ; 0.0
25 ; 2672505.646184287 ; 2.0061913779984444E8 ; 6.329073617517632E7 ; 3.3928699475085454E9 ; 0.0
26 ; 2674242.5783865047 ; 2.006213866607544E8 ; 6.596324182136061E7 ; 3.5934890853083897E9 ; 0.0
27 ; 2677697.1698150346 ; 2.0062376248229071E8 ; 6.863748439974712E7 ; 3.794110471969144E9 ; 0.0
28 ; 2679600.8730714787 ; 2.0062626231202593E8 ; 7.131518156956215E7 ; 3.9947342344514346E9 ; 0.0
29 ; 2681991.4988583145 ; 2.0062888313409618E8 ; 7.399478244263363E7 ; 4.1953604967634606E9 ; 0.0
30 ; 2686297.2878726404 ; 2.0063162188274392E8 ; 7.667677394149195E7 ; 4.395989379897557E9 ; 0.0
31 ; 2688696.2064175447 ; 2.0063447545523474E8 ; 7.936307122936459E7 ; 4.596621001780301E9 ; 0.0
32 ; 2690184.177747041 ; 2.006374407240724E8 ; 8.205176743578213E7 ; 4.797255477235536E9 ; 0.0
33 ; 2694370.096309346 ; 2.0064051454845396E8 ; 8.474195161352918E7 ; 4.997892917959608E9 ; 0.0
34 ; 2695813.7936394187 ; 2.006436937849236E8 ; 8.743632170983852E7 ; 5.198533432508062E9 ; 0.0
35 ; 2698314.0717959167 ; 2.0064697529719996E8 ; 9.013213550347795E7 ; 5.399177126292986E9 ; 0.0
36 ; 2700514.885542776 ; 2.006503559651645E8 ; 9.283044957527386E7 ; 5.599824101590186E9 ; 0.0
37 ; 2703331.8389842105 ; 2.006538326930126E8 ; 9.553096446081664E7 ; 5.80047445755535E9 ; 0.0
38 ; 2705405.3482770654 ; 2.0065740241657853E8 ; 9.823429629980084E7 ; 6.001128290248363E9 ; 0.0
39 ; 2708254.2511908635 ; 2.0066106210985535E8 ; 1.009397016480779E8 ; 6.201785692664941E9 ; 0.0
40 ; 2710926.549330188 ; 2.0066480879073796E8 ; 1.0364795589926878E8 ; 6.4024467547747965E9 ; 0.0
41 ; 2712567.9200159335 ; 2.0066863952602386E8 ; 1.0635888244859897E8 ; 6.603111563565535E9 ; 0.0
42 ; 2715143.292317172 ; 2.006725514357105E8 ; 1.090714503686149E8 ; 6.803780203091558E9 ; 0.0
43 ; 2715260.66511414 ; 2.0067654169663164E8 ; 1.1178659366093206E8 ; 7.004452754527269E9 ; 0.0
44 ; 2715068.686666132 ; 2.0068060754547715E8 ; 1.145018543260462E8 ; 7.205129296223901E9 ; 0.0
45 ; 2718650.868965395 ; 2.006847462812419E8 ; 1.1721692301271233E8 ; 7.405809903769378E9 ; 0.0
46 ; 2721321.27105864 ; 2.006889552671496E8 ; 1.1993557388167772E8 ; 7.606494650050619E9 ; 0.0
47 ; 2721891.385997624 ; 2.0069323193209732E8 ; 1.2265689515273635E8 ; 7.807183605317769E9 ; 0.0
48 ; 2723280.518291379 ; 2.006975737716649E8 ; 1.2537878653873397E8 ; 8.0078768372498665E9 ; 0.0
49 ; 2723097.215985225 ; 2.007019783487326E8 ; 1.2810206705702536E8 ; 8.208574411021531E9 ; 0.0
50 ; 2725089.0638712063 ; 2.0070644329374775E8 ; 1.3082516427301058E8 ; 8.409276389370264E9 ; 0.0
51 ; 2725435.9916987503 ; 2.007109663046799E8 ; 1.3355025333688179E8 ; 8.609982832664011E9 ; 0.0
52 ; 2724352.663258288 ; 2.0071554514670065E8 ; 1.3627568932858053E8 ; 8.81069379896869E9 ; 0.0
53 ; 2727147.266166004 ; 2.007201776516231E8 ; 1.390000419918388E8 ; 9.01140934411539E9 ; 0.0
54 ; 2726725.2844903697 ; 2.0072486171713206E8 ; 1.417271892580048E8 ; 9.212129521767014E9 ; 0.0
55 ; 2727358.6026489944 ; 2.0072959530583495E8 ; 1.444539145424952E8 ; 9.412854383484146E9 ; 0.0
56 ; 2728676.5228675692 ; 2.007343764441598E8 ; 1.471812731451442E8 ; 9.613583978789982E9 ; 0.0
57 ; 2728152.152910279 ; 2.0073920322112533E8 ; 1.4990994966801175E8 ; 9.814318355234142E9 ; 0.0
58 ; 2729091.9114574622 ; 2.007440737870049E8 ; 1.5263810182092205E8 ; 1.0015057558455267E10 ; 0.0
59 ; 2731082.095322801 ; 2.0074898635190445E8 ; 1.553671937323795E8 ; 1.0215801632242271E10 ; 0.0
60 ; 2731601.2763960836 ; 2.007539391842727E8 ; 1.5809827582770228E8 ; 1.0416550618594175E10 ; 0.0
61 ; 2731702.779185469 ; 2.0075893060935932E8 ; 1.6082987710409838E8 ; 1.0617304557778448E10 ; 0.0
62 ; 2730005.6950343503 ; 2.0076395900763533E8 ; 1.6356157988328385E8 ; 1.0818063488387808E10 ; 0.0
63 ; 2732359.3722335915 ; 2.0076902281318864E8 ; 1.662915855783182E8 ; 1.1018827447395443E10 ; 0.0
64 ; 2733138.238624334 ; 2.0077412051210514E8 ; 1.690239449505518E8 ; 1.1219596470208632E10 ; 0.0
65 ; 2734066.6662106207 ; 2.0077925064084587E8 ; 1.7175708318917614E8 ; 1.1420370590720737E10 ; 0.0
66 ; 2733341.8276149826 ; 2.0078441178462762E8 ; 1.7449114985538676E8 ; 1.1621149841361584E10 ; 0.0
67 ; 2733831.387425361 ; 2.0078960257581505E8 ; 1.7722449168300176E8 ; 1.1821934253146212E10 ; 0.0
68 ; 2734837.2060167473 ; 2.0079482169232997E8 ; 1.7995832307042712E8 ; 1.2022723855722027E10 ; 0.0
69 ; 2734373.6320901336 ; 2.008000678560831E8 ; 1.8269316027644387E8 ; 1.2223518677414356E10 ; 0.0
70 ; 2735806.793602314 ; 2.0080533983143276E8 ; 1.85427533908534E8 ; 1.242431874527044E10 ; 0.0
71 ; 2735301.2905234057 ; 2.0081063642367414E8 ; 1.881633407021363E8 ; 1.2625124085101871E10 ; 0.0
72 ; 2735573.6371364333 ; 2.008159564775619E8 ; 1.9089864199265972E8 ; 1.2825934721525545E10 ; 0.0
73 ; 2737170.783406484 ; 2.008212988758687E8 ; 1.9363421562979615E8 ; 1.3026750678003107E10 ; 0.0
74 ; 2736895.073232118 ; 2.0082666253798136E8 ; 1.9637138641320264E8 ; 1.3227571976878975E10 ; 0.0
75 ; 2736306.6920258095 ; 2.0083204641853595E8 ; 1.9910828148643476E8 ; 1.3428398639416956E10 ; 0.0
76 ; 2737168.359902556 ; 2.0083744950609303E8 ; 2.0184458817846057E8 ; 1.3629230685835491E10 ; 0.0
77 ; 2737217.3475053227 ; 2.0084287082185343E8 ; 2.0458175653836313E8 ; 1.3830068135341583E10 ; 0.0
78 ; 2736115.3393693496 ; 2.0084830941841513E8 ; 2.0731897388586846E8 ; 1.4030911006163437E10 ; 0.0
79 ; 2735401.924240796 ; 2.0085376437857094E8 ; 2.1005508922523782E8 ; 1.4231759315581852E10 ; 0.0
80 ; 2735584.1684676106 ; 2.0085923481414726E8 ; 2.127904911494786E8 ; 1.4432613079960423E10 ; 0.0
81 ; 2734341.678063446 ; 2.0086471986488327E8 ; 2.1552607531794623E8 ; 1.463347231477457E10 ; 0.0
82 ; 2732547.8955586986 ; 2.0087021869735023E8 ; 2.1826041699600968E8 ; 1.4834337034639454E10 ; 0.0
83 ; 2732862.633554648 ; 2.0087573050390998E8 ; 2.2099296489156836E8 ; 1.5035207253336803E10 ; 0.0
84 ; 2730720.8661978906 ; 2.0088125450171226E8 ; 2.23725827525123E8 ; 1.5236082983840714E10 ; 0.0
85 ; 2732840.0659708153 ; 2.0088678993172982E8 ; 2.2645654839132088E8 ; 1.5436964238342426E10 ; 0.0
86 ; 2730585.8912131707 ; 2.0089233605783036E8 ; 2.291893884572917E8 ; 1.5637851028274157E10 ; 0.0
87 ; 2728488.6826666193 ; 2.0089789216588435E8 ; 2.3191997434850487E8 ; 1.5838743364331987E10 ; 0.0
88 ; 2726850.1921968386 ; 2.0090345756290787E8 ; 2.346484630311715E8 ; 1.6039641256497871E10 ; 0.0
89 ; 2727190.481325266 ; 2.0090903157623944E8 ; 2.3737531322336835E8 ; 1.624054471406078E10 ; 0.0
90 ; 2726625.3247726313 ; 2.0091461355274928E8 ; 2.4010250370469362E8 ; 1.6441453745637018E10 ; 0.0
91 ; 2725605.1792938416 ; 2.009202028580809E8 ; 2.4282912902946624E8 ; 1.6642368359189768E10 ; 0.0
92 ; 2723189.6362379314 ; 2.009257988759229E8 ; 2.4555473420876008E8 ; 1.684328856204785E10 ; 0.0
93 ; 2724130.0474974792 ; 2.0093140100731063E8 ; 2.48277923844998E8 ; 1.7044214360923773E10 ; 0.0
94 ; 2722067.0067936066 ; 2.0093700866995642E8 ; 2.5100205389249548E8 ; 1.7245145761931084E10 ; 0.0
95 ; 2720762.4663472907 ; 2.009426212976072E8 ; 2.537241208992891E8 ; 1.744608277060104E10 ; 0.0
96 ; 2719402.4042828707 ; 2.0094823833942875E8 ; 2.5644488336563638E8 ; 1.7647025391898647E10 ; 0.0
97 ; 2718793.9152426734 ; 2.009538592594153E8 ; 2.5916428576991925E8 ; 1.7847973630238075E10 ; 0.0
98 ; 2717401.505359866 ; 2.0095948353582373E8 ; 2.6188307968516192E8 ; 1.804892748949749E10 ; 0.0
99 ; 2715397.118781831 ; 2.0096511066063118E8 ; 2.6460048119052178E8 ; 1.8249886973033314E10 ; 0.0
100 ; 2714658.738807886 ; 2.0097074013901535E8 ; 2.673158783093036E8 ; 1.8450852083693947E10 ; 0.0
101 ; 2714772.255782132 ; 2.009763714888564E8 ; 2.700305370481115E8 ; 1.8651822823832962E10 ; 0.0
102 ; 2711848.6335680117 ; 2.0098200424025965E8 ; 2.727453093038936E8 ; 1.885279919532182E10 ; 0.0
103 ; 2710585.3894261536 ; 2.0098763793509814E8 ; 2.754571579374616E8 ; 1.905378119956208E10 ; 0.0
104 ; 2711043.4297460495 ; 2.0099327212657452E8 ; 2.781677433268878E8 ; 1.9254768837497177E10 ; 0.0
105 ; 2708393.3341039023 ; 2.0099890637880096E8 ; 2.808787867566338E8 ; 1.9455762109623753E10 ; 0.0
106 ; 2707203.2618440366 ; 2.0100454026639667E8 ; 2.835871800907377E8 ; 1.9656761016002552E10 ; 0.0
107 ; 2705458.128268011 ; 2.0101017337410244E8 ; 2.8629438335258174E8 ; 1.9857765556268948E10 ; 0.0
108 ; 2702724.6705312068 ; 2.0101580529641086E8 ; 2.8899984148084974E8 ; 2.005877572964305E10 ; 0.0
109 ; 2701883.049418849 ; 2.0102143563721228E8 ; 2.9170256615138096E8 ; 2.025979153493946E10 ; 0.0
110 ; 2701593.1523612803 ; 2.0102706400945523E8 ; 2.944044492007998E8 ; 2.046081297057667E10 ; 0.0
111 ; 2700431.9735169904 ; 2.0103269003482118E8 ; 2.971060423531611E8 ; 2.066184003458613E10 ; 0.0
112 ; 2699164.417957096 ; 2.0103831334341255E8 ; 2.998064743266781E8 ; 2.086287272462095E10 ; 0.0
113 ; 2696350.9464176823 ; 2.0104393357345378E8 ; 3.0250563874463516E8 ; 2.1063911037964363E10 ; 0.0
114 ; 2695127.110194815 ; 2.010495503710047E8 ; 3.0520198969105285E8 ; 2.1264954971537815E10 ; 0.0
115 ; 2691489.569214828 ; 2.010551633896857E8 ; 3.0789711680124766E8 ; 2.146600452190882E10 ; 0.0
116 ; 2691914.11000634 ; 2.010607722904142E8 ; 3.105886063704625E8 ; 2.1667059685298508E10 ; 0.0
117 ; 2688674.503189725 ; 2.01066376741152E8 ; 3.132805204804688E8 ; 2.186812045758892E10 ; 0.0
118 ; 2688038.034439698 ; 2.0107197641666272E8 ; 3.1596919498365855E8 ; 2.2069186834330074E10 ; 0.0
119 ; 2687277.7128840275 ; 2.0107757099827954E8 ; 3.1865723301809824E8 ; 2.227025881074674E10 ; 0.0
120 ; 2685602.9759224886 ; 2.0108316017368197E8 ; 3.2134451073098224E8 ; 2.2471336381745018E10 ; 0.0
121 ; 2682042.4914540383 ; 2.0108874363668203E8 ; 3.240301137069047E8 ; 2.26724195419187E10 ; 0.0
122 ; 2680189.4263003585 ; 2.010943210870188E8 ; 3.267121561983588E8 ; 2.287350828555538E10 ; 0.0
123 ; 2678829.6690691975 ; 2.0109989223016143E8 ; 3.293923456246591E8 ; 2.30746026066424E10 ; 0.0
124 ; 2677221.239618438 ; 2.0110545677712002E8 ; 3.320711752937283E8 ; 2.327570249887256E10 ; 0.0
125 ; 2677489.3835134106 ; 2.011110144442641E8 ; 3.347483965333467E8 ; 2.3476807955649677E10 ; 0.0
126 ; 2673204.57373404 ; 2.0111656495314834E8 ; 3.374258859168601E8 ; 2.367791897009394E10 ; 0.0
127 ; 2671255.4075555974 ; 2.011221080303451E8 ; 3.4009909049059415E8 ; 2.387903553504709E10 ; 0.0
128 ; 2670371.2762273164 ; 2.0112764340728393E8 ; 3.427703458981497E8 ; 2.4080157643077435E10 ; 0.0
129 ; 2667929.1441788077 ; 2.011331708200971E8 ; 3.45440717174377E8 ; 2.428128528648472E10 ; 0.0
130 ; 2665400.2673169095 ; 2.011386900094713E8 ; 3.4810864631855583E8 ; 2.4482418457304817E10 ; 0.0
131 ; 2661304.089341293 ; 2.0114420072050542E8 ; 3.5077404658587277E8 ; 2.468355714731429E10 ; 0.0
132 ; 2660215.651260727 ; 2.0114970270257348E8 ; 3.5343535067521405E8 ; 2.4884701348034794E10 ; 0.0
133 ; 2657366.3004920697 ; 2.0115519570919326E8 ; 3.560955663264748E8 ; 2.5085851050737366E10 ; 0.0
134 ; 2652601.225133366 ; 2.0116067949789983E8 ; 3.5875293262696683E8 ; 2.528700624644656E10 ; 0.0
135 ; 2648837.3075885777 ; 2.011661538301241E8 ; 3.614055338521002E8 ; 2.5488166925944458E10 ; 0.0
136 ; 2648038.3888844396 ; 2.0117161847107604E8 ; 3.640543711596888E8 ; 2.5689333079774582E10 ; 0.0
137 ; 2645743.206210732 ; 2.0117707318963233E8 ; 3.667024095485732E8 ; 2.589050469824566E10 ; 0.0
138 ; 2643279.4141935 ; 2.0118251775822833E8 ; 3.693481527547839E8 ; 2.609168177143529E10 ; 0.0
139 ; 2638480.9590286072 ; 2.0118795195275435E8 ; 3.7199143216897744E8 ; 2.629286428919352E10 ; 0.0
140 ; 2635259.9212072943 ; 2.011933755524555E8 ; 3.7462991312800604E8 ; 2.6494052241146275E10 ; 0.0
141 ; 2633626.632190567 ; 2.0119878833983585E8 ; 3.7726517304921335E8 ; 2.669524561669873E10 ; 0.0
142 ; 2629386.1543403007 ; 2.0120419010056564E8 ; 3.7989879968140393E8 ; 2.6896444405038567E10 ; 0.0
143 ; 2628069.1794986036 ; 2.0120958062339246E8 ; 3.8252818583574426E8 ; 2.7097648595139133E10 ; 0.0
144 ; 2622416.9596129875 ; 2.0121495970005554E8 ; 3.851562550152429E8 ; 2.7298858175762527E10 ; 0.0
145 ; 2622442.6753943725 ; 2.0122032712520322E8 ; 3.8777867197485584E8 ; 2.750007313546258E10 ; 0.0
146 ; 2619104.6707909866 ; 2.0122568269631362E8 ; 3.904011146502502E8 ; 2.7701293462587784E10 ; 0.0
147 ; 2617036.3264717767 ; 2.0123102621361816E8 ; 3.9302021932104117E8 ; 2.7902519145284096E10 ; 0.0
148 ; 2615670.702568724 ; 2.0123635748002797E8 ; 3.95637255647513E8 ; 2.8103750171497715E10 ; 0.0
149 ; 2612601.939613995 ; 2.012416763010629E8 ; 3.982529263500817E8 ; 2.830498652897774E10 ; 0.0
150 ; 2610868.5623184214 ; 2.012469824847833E8 ; 4.008655282896957E8 ; 2.8506228205278805E10 ; 0.0
151 ; 2608787.681050946 ; 2.0125227584172416E8 ; 4.034763968520141E8 ; 2.8707475187763588E10 ; 0.0
152 ; 2607904.414703983 ; 2.0125755618483174E8 ; 4.060851845330651E8 ; 2.8908727463605312E10 ; 0.0
153 ; 2603709.4250637153 ; 2.0126282332940245E8 ; 4.0869308894776905E8 ; 2.9109985019790146E10 ; 0.0
154 ; 2602005.3513805964 ; 2.0126807709302393E8 ; 4.112967983728328E8 ; 2.931124784311955E10 ; 0.0
155 ; 2600599.8116865135 ; 2.0127331729551837E8 ; 4.1389880372421336E8 ; 2.9512515920212574E10 ; 0.0
156 ; 2597526.614086615 ; 2.0127854375888768E8 ; 4.164994035358999E8 ; 2.971378923750809E10 ; 0.0
157 ; 2595471.295424242 ; 2.0128375630726078E8 ; 4.190969301499865E8 ; 2.991506778126698E10 ; 0.0
158 ; 2593978.999913279 ; 2.012889547668427E8 ; 4.216924014454107E8 ; 3.011635153757424E10 ; 0.0
159 ; 2591053.699961267 ; 2.0129413896586555E8 ; 4.24286380445324E8 ; 3.0317640492341084E10 ; 0.0
160 ; 2589429.43871884 ; 2.0129930873454115E8 ; 4.2687743414528525E8 ; 3.051893463130695E10 ; 0.0
161 ; 2587314.134722113 ; 2.0130446390501535E8 ; 4.294668635840041E8 ; 3.0720233940041492E10 ; 0.0
162 ; 2584524.122760933 ; 2.0130960431132412E8 ; 4.320541777187262E8 ; 3.0921538403946507E10 ; 0.0
163 ; 2582017.278344565 ; 2.013147297893508E8 ; 4.3463870184148717E8 ; 3.112284800825783E10 ; 0.0
164 ; 2579928.0274331393 ; 2.0131984017678538E8 ; 4.3722071911983174E8 ; 3.1324162738047184E10 ; 0.0
165 ; 2577189.542229171 ; 2.0132493531308466E8 ; 4.398006471472649E8 ; 3.152548257822397E10 ; 0.0
166 ; 2575381.232784235 ; 2.013300150394342E8 ; 4.423778366894941E8 ; 3.1726807513537052E10 ; 0.0
167 ; 2572114.389084909 ; 2.0133507919871137E8 ; 4.449532179222783E8 ; 3.1928137528576485E10 ; 0.0
168 ; 2569692.258670088 ; 2.0134012763544977E8 ; 4.475253323113632E8 ; 3.2129472607775196E10 ; 0.0
169 ; 2569509.8411192507 ; 2.013451601958049E8 ; 4.500950245700333E8 ; 3.2330812735410645E10 ; 0.0
170 ; 2564788.399579034 ; 2.013501767275208E8 ; 4.5266453441115254E8 ; 3.253215789560645E10 ; 0.0
171 ; 2564602.047964707 ; 2.0135517707989815E8 ; 4.552293228107316E8 ; 3.273350807233397E10 ; 0.0
172 ; 2560863.5944354795 ; 2.0136016110376328E8 ; 4.577939248586963E8 ; 3.2934863249413868E10 ; 0.0
173 ; 2559737.421847662 ; 2.0136512865143818E8 ; 4.6035478845313174E8 ; 3.313622341051763E10 ; 0.0
174 ; 2558554.638906697 ; 2.013700795767116E8 ; 4.629145258749794E8 ; 3.333758853916907E10 ; 0.0
175 ; 2556466.233921331 ; 2.0137501373481122E8 ; 4.654730805138861E8 ; 3.353895861874578E10 ; 0.0
176 ; 2555247.7354167383 ; 2.0137993098237666E8 ; 4.6802954674780744E8 ; 3.374033363248059E10 ; 0.0
177 ; 2554699.1829173844 ; 2.0138483117743328E8 ; 4.7058479448322415E8 ; 3.3941713563462967E10 ; 0.0
178 ; 2552124.38467487 ; 2.0138971417936718E8 ; 4.731394936661415E8 ; 3.41430983946404E10 ; 0.0
179 ; 2550096.7130193566 ; 2.013945798489007E8 ; 4.7569161805081636E8 ; 3.4344488108819767E10 ; 0.0
180 ; 2548835.481171471 ; 2.0139942804806894E8 ; 4.782417147638357E8 ; 3.454588268866867E10 ; 0.0
181 ; 2546274.8774648397 ; 2.0140425864019698E8 ; 4.807905502450072E8 ; 3.4747282116716736E10 ; 0.0
182 ; 2546544.0879782466 ; 2.0140907148987794E8 ; 4.8333682512247205E8 ; 3.494868637535693E10 ; 0.0
183 ; 2545313.474942382 ; 2.0141386646295166E8 ; 4.858833692104503E8 ; 3.515009544684681E10 ; 0.0
184 ; 2544090.684169097 ; 2.014186434264841E8 ; 4.884286826853927E8 ; 3.535150931330976E10 ; 0.0
185 ; 2542134.9269370288 ; 2.014234022487476E8 ; 4.909727733695618E8 ; 3.5552927956736244E10 ; 0.0
186 ; 2541875.967550624 ; 2.014281427992014E8 ; 4.9351490829649884E8 ; 3.575435135898499E10 ; 0.0
187 ; 2539510.847477136 ; 2.014328649484734E8 ; 4.960567842640495E8 ; 3.5955779501784195E10 ; 0.0
188 ; 2536904.4383886675 ; 2.0143756856834173E8 ; 4.985962951115266E8 ; 3.6157212366732666E10 ; 0.0
189 ; 2537384.8054775195 ; 2.0144225353171775E8 ; 5.0113319954991525E8 ; 3.635864993530101E10 ; 0.0
190 ; 2535044.373982598 ; 2.0144691971262893E8 ; 5.0367058435539275E8 ; 3.6560092188832726E10 ; 0.0
191 ; 2531998.1568053216 ; 2.0145156698620272E8 ; 5.0620562872937536E8 ; 3.676153910854536E10 ; 0.0
192 ; 2529333.3034886844 ; 2.014561952286507E8 ; 5.087376268861807E8 ; 3.696299067553156E10 ; 0.0
193 ; 2530742.8912822944 ; 2.0146080431725338E8 ; 5.112669601896694E8 ; 3.7164446870760216E10 ; 0.0
194 ; 2529512.567915434 ; 2.014653941303455E8 ; 5.137977030809517E8 ; 3.736590767507747E10 ; 0.0
195 ; 2527660.405983023 ; 2.014699645473016E8 ; 5.1632721564886713E8 ; 3.756737306920782E10 ; 0.0
196 ; 2526679.937113313 ; 2.0147451544852233E8 ; 5.1885487605485016E8 ; 3.776884303375512E10 ; 0.0
197 ; 2524306.0363427307 ; 2.014790467154211E8 ; 5.2138155599196345E8 ; 3.797031754920364E10 ; 0.0
198 ; 2523399.0955227073 ; 2.01483558230411E8 ; 5.239058620283062E8 ; 3.817179659591907E10 ; 0.0
199 ; 2521038.445185898 ; 2.014880498768924E8 ; 5.264292611238289E8 ; 3.8373280154149475E10 ; 0.0
200 ; 2520602.73041288 ; 2.014925215392407E8 ; 5.289502995690148E8 ; 3.857476820402637E10 ; 0.0
