CSV File for the City 1 on Day 314
1 - Minute m 
2 - Power Consumed at minute m 
3 - Power Produced at minute m 
4 - Energy Consumed since the beginning of the day 
5 - Energy Produced since the beginning of the day 
6 - Energy Lost since the beginning of the day on lines starting from the city
 
0 ; 1.6222340792648327E7 ; 1.0579463619130686E8 ; 0.0 ; 0.0 ; 0.0
1 ; 1.6234185980053045E7 ; 1.0594748716197133E8 ; 1.6222340792648327E7 ; 1.0579463619130686E8 ; 0.0
2 ; 1.6255777847849654E7 ; 1.064091316397948E8 ; 3.245652677270137E7 ; 2.117421233532782E8 ; 0.0
3 ; 1.6280673437276855E7 ; 1.0717957067786759E8 ; 4.871230462055103E7 ; 3.18151254993073E8 ; 0.0
4 ; 1.630359800311272E7 ; 1.0825880521459574E8 ; 6.499297805782788E7 ; 4.253308256709406E8 ; 0.0
5 ; 1.6334911742828598E7 ; 1.0964683607034028E8 ; 8.129657606094061E7 ; 5.335896308855363E8 ; 0.0
6 ; 1.6377394284809357E7 ; 1.1134366394444415E8 ; 9.76314878037692E7 ; 6.432364669558766E8 ; 0.0
7 ; 1.6428901534870395E7 ; 1.1334928941267133E8 ; 1.1400888208857855E8 ; 7.545801309003208E8 ; 0.0
8 ; 1.6508729565258436E7 ; 1.1566371292507976E8 ; 1.3043778362344895E8 ; 8.679294203129921E8 ; 0.0
9 ; 1.6624573981373334E7 ; 1.1828693480434805E8 ; 1.4694651318870738E8 ; 9.835931332380719E8 ; 0.0
10 ; 1.6808020727649584E7 ; 1.2121895524456888E8 ; 1.6357108717008072E8 ; 1.10188006804242E9 ; 0.0
11 ; 1.7095599412468616E7 ; 1.2445977431052092E8 ; 1.803791078977303E8 ; 1.2230990232869887E9 ; 0.0
12 ; 1.7559266303869475E7 ; 1.2800939193742546E8 ; 1.974747073101989E8 ; 1.3475587975975096E9 ; 0.0
13 ; 1.800760676865467E7 ; 1.3186780793118984E8 ; 2.150339736140684E8 ; 1.475568189534935E9 ; 0.0
14 ; 1.805959395330292E7 ; 1.3603502196913552E8 ; 2.3304158038272306E8 ; 1.6074359974661248E9 ; 0.0
15 ; 1.8082381332999393E7 ; 1.4051103360120445E8 ; 2.5110117433602598E8 ; 1.7434710194352603E9 ; 0.0
16 ; 1.8101745936068907E7 ; 1.4529584225163278E8 ; 2.6918355566902536E8 ; 1.8839820530364647E9 ; 0.0
17 ; 1.8129339644722212E7 ; 1.5038944722107747E8 ; 2.8728530160509425E8 ; 2.0292778952880974E9 ; 0.0
18 ; 1.8149223403468017E7 ; 1.557918476891775E8 ; 3.054146412498165E8 ; 2.179667342509175E9 ; 0.0
19 ; 1.817163680715083E7 ; 1.6150304271752688E8 ; 3.235638646532845E8 ; 2.3354591901983523E9 ; 0.0
20 ; 1.819004722503413E7 ; 1.6752303125303522E8 ; 3.4173550146043533E8 ; 2.4969622329158792E9 ; 0.0
21 ; 1.821747362511736E7 ; 1.7385181213164708E8 ; 3.5992554868546945E8 ; 2.6644852641689143E9 ; 0.0
22 ; 1.823498588201412E7 ; 1.804893840823905E8 ; 3.781430223105868E8 ; 2.8383370763005614E9 ; 0.0
23 ; 1.8256700077660568E7 ; 1.8743574573172158E8 ; 3.963780081926009E8 ; 3.0188264603829517E9 ; 0.0
24 ; 1.8279438510774158E7 ; 1.9469089560813183E8 ; 4.1463470827026147E8 ; 3.206262206114673E9 ; 0.0
25 ; 1.830666245649359E7 ; 2.0094287304516703E8 ; 4.329141467810356E8 ; 3.400953101722805E9 ; 0.0
26 ; 1.8331043711287264E7 ; 2.009452242233502E8 ; 4.512208092375292E8 ; 3.601895974767972E9 ; 0.0
27 ; 1.83504751887853E7 ; 2.0094771670026916E8 ; 4.695518529488165E8 ; 3.802841198991322E9 ; 0.0
28 ; 1.8369900912872326E7 ; 2.0095034866265413E8 ; 4.879023281376018E8 ; 4.0037889156915913E9 ; 0.0
29 ; 1.839308536896253E7 ; 2.009531182250149E8 ; 5.062722290504741E8 ; 4.204739264354245E9 ; 0.0
30 ; 1.8415620917375565E7 ; 2.0095602343508548E8 ; 5.2466531441943663E8 ; 4.40569238257926E9 ; 0.0
31 ; 1.8436453864020266E7 ; 2.009590622792892E8 ; 5.430809353368123E8 ; 4.606648406014345E9 ; 0.0
32 ; 1.845610265018284E7 ; 2.0096223268819296E8 ; 5.615173892008325E8 ; 4.807607468293634E9 ; 0.0
33 ; 1.847441392460238E7 ; 2.0096553254192236E8 ; 5.799734918510153E8 ; 5.008569700981828E9 ; 0.0
34 ; 1.8491026932127327E7 ; 2.0096895967550966E8 ; 5.984479057756177E8 ; 5.20953523352375E9 ; 0.0
35 ; 1.8511991365865473E7 ; 2.0097251188415065E8 ; 6.169389327077451E8 ; 5.41050419319926E9 ; 0.0
36 ; 1.8528474487467233E7 ; 2.0097618692834735E8 ; 6.354509240736105E8 ; 5.61147670508341E9 ; 0.0
37 ; 1.8549661052485537E7 ; 2.0097998253891635E8 ; 6.539793985610778E8 ; 5.812452892011758E9 ; 0.0
38 ; 1.8567219374661542E7 ; 2.00983896421845E8 ; 6.725290596135634E8 ; 6.013432874550674E9 ; 0.0
39 ; 1.857978787625364E7 ; 2.0098792626297987E8 ; 6.91096278988225E8 ; 6.21441677097252E9 ; 0.0
40 ; 1.8601118477368042E7 ; 2.009920697325345E8 ; 7.096760668644786E8 ; 6.415404697235499E9 ; 0.0
41 ; 1.86165510154247E7 ; 2.009963244894053E8 ; 7.282771853418466E8 ; 6.616396766968034E9 ; 0.0
42 ; 1.8628980715278715E7 ; 2.0100068818528697E8 ; 7.468937363572713E8 ; 6.817393091457439E9 ; 0.0
43 ; 1.8635956682936225E7 ; 2.010051584685809E8 ; 7.6552271707255E8 ; 7.018393779642726E9 ; 0.0
44 ; 1.8652657804336615E7 ; 2.0100973298809198E8 ; 7.841586737554862E8 ; 7.219398938111307E9 ; 0.0
45 ; 1.866696606209543E7 ; 2.0101440939651045E8 ; 8.028113315598229E8 ; 7.4204086710994E9 ; 0.0
46 ; 1.867768396238029E7 ; 2.0101918535367864E8 ; 8.214782976219183E8 ; 7.62142308049591E9 ; 0.0
47 ; 1.868713177825349E7 ; 2.010240585296417E8 ; 8.401559815842986E8 ; 7.822442265849588E9 ; 0.0
48 ; 1.869681614423462E7 ; 2.010290266074853E8 ; 8.58843113362552E8 ; 8.0234663243792305E9 ; 0.0
49 ; 1.8706117218787502E7 ; 2.0103408728596255E8 ; 8.775399295067867E8 ; 8.224495350986715E9 ; 0.0
50 ; 1.8716162612843353E7 ; 2.0103923828191462E8 ; 8.962460467255743E8 ; 8.425529438272677E9 ; 0.0
51 ; 1.8723002985529467E7 ; 2.0104447733248994E8 ; 9.149622093384176E8 ; 8.626568676554592E9 ; 0.0
52 ; 1.872821624177175E7 ; 2.010498021971678E8 ; 9.336852123239471E8 ; 8.827613153887081E9 ; 0.0
53 ; 1.873569760910005E7 ; 2.010552106595932E8 ; 9.524134285657188E8 ; 9.02866295608425E9 ; 0.0
54 ; 1.8744351412920874E7 ; 2.0106070052922958E8 ; 9.711491261748189E8 ; 9.229718166743843E9 ; 0.0
55 ; 1.874969175717411E7 ; 2.0106626964283752E8 ; 9.898934775877397E8 ; 9.430778867273073E9 ; 0.0
56 ; 1.8753375253783815E7 ; 2.0107191586578655E8 ; 1.0086431693449138E9 ; 9.63184513691591E9 ; 0.0
57 ; 1.876554255298044E7 ; 2.01077637093209E8 ; 1.0273965445986977E9 ; 9.832917052781696E9 ; 0.0
58 ; 1.8768728337077186E7 ; 2.0108343125100327E8 ; 1.0461620871516781E9 ; 1.0033994689874905E10 ; 0.0
59 ; 1.8776777588597618E7 ; 2.0108929629669568E8 ; 1.0649308154887552E9 ; 1.0235078121125908E10 ; 0.0
60 ; 1.8780172974389847E7 ; 2.0109523022016835E8 ; 1.0837075930773528E9 ; 1.0436167417422604E10 ; 0.0
61 ; 1.8785675641900904E7 ; 2.0110123104426214E8 ; 1.1024877660517426E9 ; 1.0637262647642773E10 ; 0.0
62 ; 1.8793578502229504E7 ; 2.011072968252621E8 ; 1.1212734416936436E9 ; 1.0838363878687035E10 ; 0.0
63 ; 1.879768565696235E7 ; 2.0111342565327382E8 ; 1.140067020195873E9 ; 1.1039471175512297E10 ; 0.0
64 ; 1.8804059252210766E7 ; 2.011196156524983E8 ; 1.1588647058528354E9 ; 1.1240584601165571E10 ; 0.0
65 ; 1.8810662517039247E7 ; 2.0112586498141268E8 ; 1.1776687651050463E9 ; 1.144170421681807E10 ; 0.0
66 ; 1.8814244357157506E7 ; 2.0113217183286446E8 ; 1.1964794276220856E9 ; 1.1642830081799482E10 ; 0.0
67 ; 1.8819444837061647E7 ; 2.011385344340857E8 ; 1.215293671979243E9 ; 1.1843962253632347E10 ; 0.0
68 ; 1.882461219995738E7 ; 2.0114495104663438E8 ; 1.2341131168163047E9 ; 1.2045100788066433E10 ; 0.0
69 ; 1.8834162925974995E7 ; 2.0115141996626893E8 ; 1.252937729016262E9 ; 1.2246245739113068E10 ; 0.0
70 ; 1.8831457365557868E7 ; 2.01157939522762E8 ; 1.2717718919422371E9 ; 1.2447397159079336E10 ; 0.0
71 ; 1.8840769740004145E7 ; 2.0116450807965958E8 ; 1.290603349307795E9 ; 1.2648555098602098E10 ; 0.0
72 ; 1.8844868558667213E7 ; 2.011711240339904E8 ; 1.309444119047799E9 ; 1.2849719606681759E10 ; 0.0
73 ; 1.8844963660951223E7 ; 2.01177785815931E8 ; 1.3282889876064663E9 ; 1.305089073071575E10 ; 0.0
74 ; 1.8848372460826024E7 ; 2.0118449188843125E8 ; 1.3471339512674174E9 ; 1.3252068516531681E10 ; 0.0
75 ; 1.885254321450234E7 ; 2.0119124074680486E8 ; 1.3659823237282434E9 ; 1.3453253008420113E10 ; 0.0
76 ; 1.8861262727472745E7 ; 2.011980309182888E8 ; 1.3848348669427457E9 ; 1.3654444249166918E10 ; 0.0
77 ; 1.8858415909814533E7 ; 2.0120486096157598E8 ; 1.4036961296702185E9 ; 1.3855642280085207E10 ; 0.0
78 ; 1.8860166354045946E7 ; 2.0121172946632445E8 ; 1.422554545580033E9 ; 1.4056847141046783E10 ; 0.0
79 ; 1.8857830686394017E7 ; 2.0121863505264664E8 ; 1.441414711934079E9 ; 1.4258058870513107E10 ; 0.0
80 ; 1.8856683932930075E7 ; 2.0122557637058187E8 ; 1.460272542620473E9 ; 1.4459277505565754E10 ; 0.0
81 ; 1.8850403289778385E7 ; 2.012325520995549E8 ; 1.479129226553403E9 ; 1.4660503081936337E10 ; 0.0
82 ; 1.8847193983081046E7 ; 2.0123956094782293E8 ; 1.4979796298431814E9 ; 1.486173563403589E10 ; 0.0
83 ; 1.8848681987205233E7 ; 2.0124660165191412E8 ; 1.5168268238262625E9 ; 1.5062975194983713E10 ; 0.0
84 ; 1.8843796677079175E7 ; 2.0125367297605902E8 ; 1.5356755058134677E9 ; 1.5264221796635628E10 ; 0.0
85 ; 1.8842123697429843E7 ; 2.012607737116177E8 ; 1.554519302490547E9 ; 1.5465475469611687E10 ; 0.0
86 ; 1.8836196749195296E7 ; 2.01267902676504E8 ; 1.5733614261879768E9 ; 1.5666736243323305E10 ; 0.0
87 ; 1.8832208005569704E7 ; 2.012750587146085E8 ; 1.5921976229371722E9 ; 1.586800414599981E10 ; 0.0
88 ; 1.8833991909030486E7 ; 2.0128224069522214E8 ; 1.6110298309427419E9 ; 1.6069279204714418E10 ; 0.0
89 ; 1.8814805898600616E7 ; 2.0128944751246154E8 ; 1.6298638228517723E9 ; 1.6270561445409641E10 ; 0.0
90 ; 1.878892744917841E7 ; 2.0129667808469728E8 ; 1.648678628750373E9 ; 1.6471850892922102E10 ; 0.0
91 ; 1.876640802519525E7 ; 2.0130393135398614E8 ; 1.6674675561995513E9 ; 1.66731475710068E10 ; 0.0
92 ; 1.874319549090979E7 ; 2.0131120628550884E8 ; 1.6862339642247467E9 ; 1.6874451502360786E10 ; 0.0
93 ; 1.8714178989615746E7 ; 2.013185018670132E8 ; 1.7049771597156565E9 ; 1.7075762708646296E10 ; 0.0
94 ; 1.8687978095156815E7 ; 2.013258171082643E8 ; 1.7236913387052722E9 ; 1.727708121051331E10 ; 0.0
95 ; 1.8657719801314987E7 ; 2.01333151040502E8 ; 1.742379316800429E9 ; 1.7478407027621574E10 ; 0.0
96 ; 1.86347549210907E7 ; 2.0134050271590638E8 ; 1.7610370366017442E9 ; 1.7679740178662075E10 ; 0.0
97 ; 1.8606260383235678E7 ; 2.013478712070715E8 ; 1.7796717915228348E9 ; 1.7881080681377983E10 ; 0.0
98 ; 1.858081237125269E7 ; 2.0135525560648823E8 ; 1.7982780519060705E9 ; 1.8082428552585056E10 ; 0.0
99 ; 1.8551664814831752E7 ; 2.0136265502603617E8 ; 1.8168588642773232E9 ; 1.8283783808191544E10 ; 0.0
100 ; 1.8525622817144763E7 ; 2.0137006859648526E8 ; 1.835410529092155E9 ; 1.848514646321758E10 ; 0.0
101 ; 1.849689325955436E7 ; 2.0137749546700698E8 ; 1.8539361519092999E9 ; 1.8686516531814064E10 ; 0.0
102 ; 1.846987764900655E7 ; 2.0138493480469567E8 ; 1.8724330451688542E9 ; 1.888789402728107E10 ; 0.0
103 ; 1.843895203154466E7 ; 2.013923857940998E8 ; 1.8909029228178608E9 ; 1.9089278962085766E10 ; 0.0
104 ; 1.8415285569444906E7 ; 2.013998476367638E8 ; 1.9093418748494055E9 ; 1.9290671347879868E10 ; 0.0
105 ; 1.838664993466301E7 ; 2.0140731955077964E8 ; 1.9277571604188504E9 ; 1.9492071195516632E10 ; 0.0
106 ; 1.8360014801611274E7 ; 2.0141480077034914E8 ; 1.9461438103535135E9 ; 1.9693478515067413E10 ; 0.0
107 ; 1.832750141757674E7 ; 2.014222905453566E8 ; 1.9645038251551247E9 ; 1.989489331583776E10 ; 0.0
108 ; 1.830616942566221E7 ; 2.0142978814095134E8 ; 1.9828313265727015E9 ; 2.0096315606383118E10 ; 0.0
109 ; 1.8268219967981875E7 ; 2.014372928371409E8 ; 2.0011374959983637E9 ; 2.029774539452407E10 ; 0.0
110 ; 1.824035566135143E7 ; 2.0144480392839414E8 ; 2.0194057159663455E9 ; 2.049918268736121E10 ; 0.0
111 ; 1.8212990123128325E7 ; 2.0145232072325462E8 ; 2.037646071627697E9 ; 2.0700627491289604E10 ; 0.0
112 ; 1.8180712287243795E7 ; 2.0145984254396364E8 ; 2.0558590617508254E9 ; 2.090207981201286E10 ; 0.0
113 ; 1.8155555136160754E7 ; 2.0146736872609347E8 ; 2.0740397740380692E9 ; 2.1103539654556824E10 ; 0.0
114 ; 1.8125427455185045E7 ; 2.0147489861819008E8 ; 2.09219532917423E9 ; 2.1305007023282917E10 ; 0.0
115 ; 1.809864472624112E7 ; 2.014824315814254E8 ; 2.110320756629415E9 ; 2.1506481921901108E10 ; 0.0
116 ; 1.8064999292500988E7 ; 2.014899669892592E8 ; 2.1284194013556561E9 ; 2.1707964353482533E10 ; 0.0
117 ; 1.8033719996697627E7 ; 2.0149750422710994E8 ; 2.1464844006481571E9 ; 2.190945432047179E10 ; 0.0
118 ; 1.8005224950077184E7 ; 2.0150504269203487E8 ; 2.1645181206448545E9 ; 2.2110951824698902E10 ; 0.0
119 ; 1.79731059470429E7 ; 2.0151258179241896E8 ; 2.1825233455949316E9 ; 2.2312456867390938E10 ; 0.0
120 ; 1.79394442006672E7 ; 2.0152012094767255E8 ; 2.2004964515419745E9 ; 2.2513969449183357E10 ; 0.0
121 ; 1.7914906485525146E7 ; 2.015276595879375E8 ; 2.218435895742642E9 ; 2.271548957013103E10 ; 0.0
122 ; 1.788457152154375E7 ; 2.0153519715380177E8 ; 2.236350802228167E9 ; 2.2917017229718967E10 ; 0.0
123 ; 1.7851944289185148E7 ; 2.0154273309602198E8 ; 2.254235373749711E9 ; 2.311855242687277E10 ; 0.0
124 ; 1.7820127525697026E7 ; 2.0155026687525412E8 ; 2.272087318038896E9 ; 2.3320095159968792E10 ; 0.0
125 ; 1.7789761621861998E7 ; 2.0155779796179196E8 ; 2.2899074455645933E9 ; 2.3521645426844048E10 ; 0.0
126 ; 1.775473399279437E7 ; 2.0156532583531296E8 ; 2.3076972071864552E9 ; 2.372320322480584E10 ; 0.0
127 ; 1.772155352593011E7 ; 2.0157284998463166E8 ; 2.32545194117925E9 ; 2.392476855064115E10 ; 0.0
128 ; 1.7691966960014194E7 ; 2.0158036990746033E8 ; 2.3431734947051797E9 ; 2.4126341400625782E10 ; 0.0
129 ; 1.7661825933735315E7 ; 2.0158788511017644E8 ; 2.360865461665194E9 ; 2.432792177053324E10 ; 0.0
130 ; 1.7629067893139265E7 ; 2.015953951075973E8 ; 2.3785272875989294E9 ; 2.4529509655643417E10 ; 0.0
131 ; 1.759419881255788E7 ; 2.016028994227609E8 ; 2.396156355492069E9 ; 2.4731105050751015E10 ; 0.0
132 ; 1.7554300876652025E7 ; 2.0161039758671364E8 ; 2.4137505543046265E9 ; 2.4932707950173775E10 ; 0.0
133 ; 1.7515414654503126E7 ; 2.016178891383041E8 ; 2.4313048551812787E9 ; 2.5134318347760487E10 ; 0.0
134 ; 1.7473198725287836E7 ; 2.016253736239832E8 ; 2.448820269835782E9 ; 2.5335936236898792E10 ; 0.0
135 ; 1.744248747628879E7 ; 2.0163285059760976E8 ; 2.46629346856107E9 ; 2.5537561610522774E10 ; 0.0
136 ; 1.7398201599558853E7 ; 2.0164031962026262E8 ; 2.4837359560373588E9 ; 2.5739194461120384E10 ; 0.0
137 ; 1.736046909360783E7 ; 2.016477802600577E8 ; 2.5011341576369176E9 ; 2.5940834780740646E10 ; 0.0
138 ; 1.7326262945914436E7 ; 2.0165523209197083E8 ; 2.5184946267305255E9 ; 2.6142482561000706E10 ; 0.0
139 ; 1.7283849211830106E7 ; 2.0166267469766605E8 ; 2.53582088967644E9 ; 2.6344137793092678E10 ; 0.0
140 ; 1.724503169107685E7 ; 2.0167010766532847E8 ; 2.55310473888827E9 ; 2.6545800467790344E10 ; 0.0
141 ; 1.7203866838605903E7 ; 2.016775305895028E8 ; 2.5703497705793467E9 ; 2.6747470575455673E10 ; 0.0
142 ; 1.7164652621461544E7 ; 2.0168494307093635E8 ; 2.5875536374179525E9 ; 2.6949148106045177E10 ; 0.0
143 ; 1.7126004494775288E7 ; 2.016923447164267E8 ; 2.604718290039414E9 ; 2.7150833049116116E10 ; 0.0
144 ; 1.708431472479409E7 ; 2.016997351386741E8 ; 2.621844294534189E9 ; 2.7352525393832542E10 ; 0.0
145 ; 1.705502167433665E7 ; 2.0170711395613837E8 ; 2.638928609258983E9 ; 2.755422512897122E10 ; 0.0
146 ; 1.702043141910335E7 ; 2.017144807928997E8 ; 2.6559836309333196E9 ; 2.7755932242927357E10 ; 0.0
147 ; 1.699230013795243E7 ; 2.017218352785241E8 ; 2.6730040623524227E9 ; 2.7957646723720257E10 ; 0.0
148 ; 1.6957793992343888E7 ; 2.0172917704793257E8 ; 2.689996362490375E9 ; 2.815936855899878E10 ; 0.0
149 ; 1.6926569355462346E7 ; 2.0173650574127424E8 ; 2.706954156482719E9 ; 2.836109773604671E10 ; 0.0
150 ; 1.6892289448332667E7 ; 2.0174382100380343E8 ; 2.7238807258381815E9 ; 2.8562834241787987E10 ; 0.0
151 ; 1.68523062150476E7 ; 2.017511224857603E8 ; 2.7407730152865143E9 ; 2.876457806279179E10 ; 0.0
152 ; 1.6825924674676258E7 ; 2.01758409842255E8 ; 2.757625321501562E9 ; 2.896632918527755E10 ; 0.0
153 ; 1.6793471021207437E7 ; 2.0176568273315546E8 ; 2.7744512461762385E9 ; 2.9168087595119804E10 ; 0.0
154 ; 1.675680891575056E7 ; 2.0177294082297835E8 ; 2.791244717197446E9 ; 2.936985327785296E10 ; 0.0
155 ; 1.6727645557151457E7 ; 2.017801837807834E8 ; 2.8080015261131964E9 ; 2.9571626218675938E10 ; 0.0
156 ; 1.6694335755206222E7 ; 2.017874112800709E8 ; 2.8247291716703477E9 ; 2.9773406402456722E10 ; 0.0
157 ; 1.666101138080481E7 ; 2.0179462299868202E8 ; 2.841423507425554E9 ; 2.9975193813736794E10 ; 0.0
158 ; 1.6627991953304123E7 ; 2.0180181861870253E8 ; 2.858084518806359E9 ; 3.0176988436735474E10 ; 0.0
159 ; 1.6593666418593623E7 ; 2.018089978263689E8 ; 2.874712510759663E9 ; 3.0378790255354176E10 ; 0.0
160 ; 1.655955578475663E7 ; 2.0181616031197748E8 ; 2.8913061771782565E9 ; 3.0580599253180546E10 ; 0.0
161 ; 1.6525016900301732E7 ; 2.0182330576979634E8 ; 2.907865732963013E9 ; 3.0782415413492523E10 ; 0.0
162 ; 1.6494361513005426E7 ; 2.0183043389797965E8 ; 2.924390749863315E9 ; 3.0984238719262318E10 ; 0.0
163 ; 1.645801856020236E7 ; 2.018375443984845E8 ; 2.9408851113763204E9 ; 3.1186069153160297E10 ; 0.0
164 ; 1.6423674557090934E7 ; 2.0184463697699058E8 ; 2.9573431299365225E9 ; 3.138790669755878E10 ; 0.0
165 ; 1.6390697239671841E7 ; 2.0185171134282163E8 ; 2.9737668044936132E9 ; 3.158975133453577E10 ; 0.0
166 ; 1.6356734709000416E7 ; 2.018587672088697E8 ; 2.990157501733285E9 ; 3.1791603045878593E10 ; 0.0
167 ; 1.6322457843978811E7 ; 2.0186580429152137E8 ; 3.0065142364422855E9 ; 3.1993461813087463E10 ; 0.0
168 ; 1.6289956345821824E7 ; 2.0187282231058633E8 ; 3.0228366942862644E9 ; 3.2195327617378986E10 ; 0.0
169 ; 1.6254473376725163E7 ; 2.0187982098922777E8 ; 3.0391266506320863E9 ; 3.239720043968957E10 ; 0.0
170 ; 1.6224010059406623E7 ; 2.0188680005389512E8 ; 3.0553811240088115E9 ; 3.25990802606788E10 ; 0.0
171 ; 1.6187706173333842E7 ; 2.018937592342585E8 ; 3.071605134068218E9 ; 3.2800967060732693E10 ; 0.0
172 ; 1.61560780558172E7 ; 2.019E8 ; 3.087792840241552E9 ; 3.300286081996695E10 ; 0.0
173 ; 1.6123654560840005E7 ; 2.019E8 ; 3.103948918297369E9 ; 3.320476081996695E10 ; 0.0
174 ; 1.6092505585660985E7 ; 2.019E8 ; 3.120072572858209E9 ; 3.340666081996695E10 ; 0.0
175 ; 1.6066566192728223E7 ; 2.019E8 ; 3.13616507844387E9 ; 3.360856081996695E10 ; 0.0
176 ; 1.6031654059276108E7 ; 2.019E8 ; 3.152231644636598E9 ; 3.381046081996695E10 ; 0.0
177 ; 1.6005851288617434E7 ; 2.019E8 ; 3.168263298695874E9 ; 3.401236081996695E10 ; 0.0
178 ; 1.5971357287439907E7 ; 2.019E8 ; 3.184269149984492E9 ; 3.421426081996695E10 ; 0.0
179 ; 1.5944405859928252E7 ; 2.019E8 ; 3.2002405072719316E9 ; 3.441616081996695E10 ; 0.0
180 ; 1.5913985466902854E7 ; 2.019E8 ; 3.21618491313186E9 ; 3.461806081996695E10 ; 0.0
181 ; 1.5888324302445536E7 ; 2.019E8 ; 3.2320988985987625E9 ; 3.481996081996695E10 ; 0.0
182 ; 1.5859281925100034E7 ; 2.019E8 ; 3.247987222901208E9 ; 3.502186081996695E10 ; 0.0
183 ; 1.5827689372417789E7 ; 2.019E8 ; 3.263846504826308E9 ; 3.522376081996695E10 ; 0.0
184 ; 1.5799432742752962E7 ; 2.019E8 ; 3.2796741941987257E9 ; 3.542566081996695E10 ; 0.0
185 ; 1.576937408287965E7 ; 2.019E8 ; 3.2954736269414787E9 ; 3.562756081996695E10 ; 0.0
186 ; 1.5740713361656466E7 ; 2.019E8 ; 3.3112430010243583E9 ; 3.582946081996695E10 ; 0.0
187 ; 1.571272502461189E7 ; 2.019E8 ; 3.326983714386015E9 ; 3.603136081996695E10 ; 0.0
188 ; 1.5681561881954905E7 ; 2.019E8 ; 3.342696439410627E9 ; 3.623326081996695E10 ; 0.0
189 ; 1.565379303216091E7 ; 2.019E8 ; 3.3583780012925816E9 ; 3.643516081996695E10 ; 0.0
190 ; 1.5620784431643507E7 ; 2.019E8 ; 3.3740317943247423E9 ; 3.663706081996695E10 ; 0.0
191 ; 1.5596249978667E7 ; 2.019E8 ; 3.389652578756386E9 ; 3.683896081996695E10 ; 0.0
192 ; 1.556455064567863E7 ; 2.019E8 ; 3.4052488287350526E9 ; 3.704086081996695E10 ; 0.0
193 ; 1.5531604575799247E7 ; 2.019E8 ; 3.420813379380731E9 ; 3.724276081996695E10 ; 0.0
194 ; 1.5505560961710291E7 ; 2.019E8 ; 3.4363449839565306E9 ; 3.744466081996695E10 ; 0.0
195 ; 1.5479852487729145E7 ; 2.019E8 ; 3.451850544918241E9 ; 3.764656081996695E10 ; 0.0
196 ; 1.5445076606306655E7 ; 2.019E8 ; 3.46733039740597E9 ; 3.784846081996695E10 ; 0.0
197 ; 1.5420040550590392E7 ; 2.019E8 ; 3.4827754740122766E9 ; 3.805036081996695E10 ; 0.0
198 ; 1.5387609038801733E7 ; 2.019E8 ; 3.498195514562867E9 ; 3.825226081996695E10 ; 0.0
199 ; 1.535691691311661E7 ; 2.019E8 ; 3.513583123601669E9 ; 3.845416081996695E10 ; 0.0
