CSV File for the City 6 on Day 220
1 - Minute m 
2 - Power Consumed at minute m 
3 - Power Produced at minute m 
4 - Energy Consumed since the beginning of the day 
5 - Energy Produced since the beginning of the day 
6 - Energy Lost since the beginning of the day on lines starting from the city
 
0 ; 724281.7675874784 ; 1.0544597045117202E8 ; 0.0 ; 0.0 ; 0.0
1 ; 739743.9979736161 ; 1.0559341275923753E8 ; 724281.7675874784 ; 1.0544597045117202E8 ; 0.0
2 ; 752962.9312424022 ; 1.0605007194331655E8 ; 1464025.7655610945 ; 2.1103938321040955E8 ; 0.0
3 ; 765287.7333345246 ; 1.0681598941247934E8 ; 2216988.6968034967 ; 3.170894551537261E8 ; 0.0
4 ; 787260.2757261384 ; 1.0789120594824702E8 ; 2982276.4301380212 ; 4.2390544456620544E8 ; 0.0
5 ; 805999.5523686042 ; 1.0927576062273264E8 ; 3769536.7058641594 ; 5.3179665051445246E8 ; 0.0
6 ; 834468.6209784065 ; 1.1096968958404514E8 ; 4575536.258232764 ; 6.410724111371851E8 ; 0.0
7 ; 870650.8682989585 ; 1.1297302477194834E8 ; 5410004.879211171 ; 7.520421007212303E8 ; 0.0
8 ; 926978.4682156417 ; 1.1528579265076816E8 ; 6280655.74751013 ; 8.650151254931786E8 ; 0.0
9 ; 1008897.8134245928 ; 1.1790801306324512E8 ; 7207634.215725771 ; 9.803009181439468E8 ; 0.0
10 ; 1135219.4112441835 ; 1.2083969831286246E8 ; 8216532.029150364 ; 1.098208931207192E9 ; 0.0
11 ; 1333899.9329326083 ; 1.2408085256941798E8 ; 9351751.440394547 ; 1.2190486295200543E9 ; 0.0
12 ; 1650606.5438905999 ; 1.2763147166311386E8 ; 1.0685651373327155E7 ; 1.3431294820894723E9 ; 0.0
13 ; 1958533.7086705319 ; 1.3149154329046685E8 ; 1.2336257917217754E7 ; 1.4707609537525861E9 ; 0.0
14 ; 1997444.1566934667 ; 1.3566104760873646E8 ; 1.4294791625888286E7 ; 1.602252497043053E9 ; 0.0
15 ; 2013089.0394023575 ; 1.4013995815359682E8 ; 1.6292235782581752E7 ; 1.7379135446517894E9 ; 0.0
16 ; 2029989.080899044 ; 1.4492824298528406E8 ; 1.830532482198411E7 ; 1.8780535028053863E9 ; 0.0
17 ; 2043431.3181769433 ; 1.5002586595568922E8 ; 2.0335313902883153E7 ; 2.0229817457906704E9 ; 0.0
18 ; 2061899.5721376778 ; 1.5543278799269927E8 ; 2.2378745221060097E7 ; 2.17300761174636E9 ; 0.0
19 ; 2076338.1573543076 ; 1.6114896831479308E8 ; 2.4440644793197773E7 ; 2.328440399739059E9 ; 0.0
20 ; 2093818.5633426434 ; 1.6717436551290038E8 ; 2.651698295055208E7 ; 2.489589368053852E9 ; 0.0
21 ; 2110255.460861112 ; 1.7350893846224216E8 ; 2.8610801513894722E7 ; 2.6567637335667524E9 ; 0.0
22 ; 2126138.9654135513 ; 1.8015264705000037E8 ; 3.0721056974755835E7 ; 2.8302726720289946E9 ; 0.0
23 ; 2144664.8262397135 ; 1.8710545272274834E8 ; 3.2847195940169387E7 ; 3.0104253190789948E9 ; 0.0
24 ; 2159955.4420283223 ; 1.9436731886982256E8 ; 3.49918607664091E7 ; 3.197530771801743E9 ; 0.0
25 ; 2175916.817982249 ; 2.0062625196385908E8 ; 3.715181620843742E7 ; 3.3918980906715655E9 ; 0.0
26 ; 2194551.3552072146 ; 2.006357677246022E8 ; 3.932773302641967E7 ; 3.5925243426354246E9 ; 0.0
27 ; 2208446.0321416534 ; 2.0064560568037146E8 ; 4.152228438162688E7 ; 3.793160110360027E9 ; 0.0
28 ; 2225883.551547265 ; 2.0065573838378716E8 ; 4.373073041376854E7 ; 3.993805716040398E9 ; 0.0
29 ; 2239380.220768836 ; 2.006661406258251E8 ; 4.5956613965315804E7 ; 4.1944614544241853E9 ; 0.0
30 ; 2259526.583403296 ; 2.0067678932441583E8 ; 4.819599418608464E7 ; 4.395127595050011E9 ; 0.0
31 ; 2272116.7979439213 ; 2.006876633933847E8 ; 5.045552076948794E7 ; 4.595804384374427E9 ; 0.0
32 ; 2288994.2370825466 ; 2.006987436012839E8 ; 5.272763756743186E7 ; 4.796492047767812E9 ; 0.0
33 ; 2302708.2157917228 ; 2.007100124271359E8 ; 5.501663180451441E7 ; 4.997190791369096E9 ; 0.0
34 ; 2317378.749363161 ; 2.0072145391805953E8 ; 5.731934002030613E7 ; 5.197900803796231E9 ; 0.0
35 ; 2332848.290081058 ; 2.0073305355214137E8 ; 5.9636718769669294E7 ; 5.398622257714291E9 ; 0.0
36 ; 2346498.0030325023 ; 2.007447981086901E8 ; 6.1969567059750356E7 ; 5.599355311266432E9 ; 0.0
37 ; 2362633.071025001 ; 2.007566755471E8 ; 6.431606506278286E7 ; 5.800100109375122E9 ; 0.0
38 ; 2371255.100247436 ; 2.0076867489489198E8 ; 6.667869813380786E7 ; 6.000856784922222E9 ; 0.0
39 ; 2382701.175285859 ; 2.0078078614503834E8 ; 6.90499532340553E7 ; 6.201625459817114E9 ; 0.0
40 ; 2399924.432397226 ; 2.0079300016236302E8 ; 7.143265440934116E7 ; 6.4024062459621525E9 ; 0.0
41 ; 2415606.341264822 ; 2.0080530859860805E8 ; 7.383257884173839E7 ; 6.603199246124516E9 ; 0.0
42 ; 2422815.4241405656 ; 2.0081770381563482E8 ; 7.624818518300322E7 ; 6.804004554723124E9 ; 0.0
43 ; 2434772.068374335 ; 2.0083017881616545E8 ; 7.867100060714379E7 ; 7.004822258538758E9 ; 0.0
44 ; 2445740.9335186724 ; 2.0084272718144703E8 ; 8.110577267551813E7 ; 7.205652437354923E9 ; 0.0
45 ; 2455161.286041789 ; 2.0085534301522514E8 ; 8.35515136090368E7 ; 7.40649516453637E9 ; 0.0
46 ; 2464399.1062865956 ; 2.0086802089343554E8 ; 8.60066748950786E7 ; 7.607350507551596E9 ; 0.0
47 ; 2473689.9627758563 ; 2.0088075581905627E8 ; 8.84710740013652E7 ; 7.808218528445031E9 ; 0.0
48 ; 2478653.166208991 ; 2.0089354318160096E8 ; 9.094476396414106E7 ; 8.009099284264088E9 ; 0.0
49 ; 2487408.0498993383 ; 2.009063787207763E8 ; 9.342341713035005E7 ; 8.209992827445688E9 ; 0.0
50 ; 2497426.6956240237 ; 2.0091925849386895E8 ; 9.59108251802494E7 ; 8.410899206166465E9 ; 0.0
51 ; 2503124.758587865 ; 2.0093217884646744E8 ; 9.840825187587342E7 ; 8.611818464660334E9 ; 0.0
52 ; 2511727.466715169 ; 2.0094513638616475E8 ; 1.0091137663446128E8 ; 8.812750643506802E9 ; 0.0
53 ; 2518661.7800476025 ; 2.0095812795892212E8 ; 1.0342310410117646E8 ; 9.013695779892967E9 ; 0.0
54 ; 2523736.584947902 ; 2.0097115062780938E8 ; 1.0594176588122405E8 ; 9.214653907851889E9 ; 0.0
55 ; 2532296.626665094 ; 2.009842016538672E8 ; 1.0846550246617195E8 ; 9.415625058479698E9 ; 0.0
56 ; 2539259.300103987 ; 2.009972784788634E8 ; 1.1099779909283705E8 ; 9.616609260133566E9 ; 0.0
57 ; 2546261.734884058 ; 2.010103787097423E8 ; 1.1353705839294104E8 ; 9.817606538612429E9 ; 0.0
58 ; 2549030.9896877175 ; 2.010235001045862E8 ; 1.160833201278251E8 ; 1.001861691732217E10 ; 0.0
59 ; 2559817.5213094447 ; 2.0103664055992934E8 ; 1.186323511175128E8 ; 1.0219640417426756E10 ; 0.0
60 ; 2562729.119144319 ; 2.0104979809928256E8 ; 1.2119216863882226E8 ; 1.0420677057986685E10 ; 0.0
61 ; 2570321.8730772575 ; 2.0106297086274153E8 ; 1.2375489775796658E8 ; 1.0621726856085968E10 ; 0.0
62 ; 2573592.123885016 ; 2.0107615709756643E8 ; 1.2632521963104384E8 ; 1.082278982694871E10 ; 0.0
63 ; 2585002.717894701 ; 2.0108935514963317E8 ; 1.2889881175492886E8 ; 1.1023865984046276E10 ; 0.0
64 ; 2590244.2000287245 ; 2.0110256345566702E8 ; 1.3148381447282356E8 ; 1.122495533919591E10 ; 0.0
65 ; 2596666.784241925 ; 2.0111578053617936E8 ; 1.3407405867285228E8 ; 1.1426057902651577E10 ; 0.0
66 ; 2602468.2127837874 ; 2.01129004989037E8 ; 1.366707254570942E8 ; 1.1627173683187756E10 ; 0.0
67 ; 2609110.2380891927 ; 2.011422354836014E8 ; 1.3927319366987798E8 ; 1.1828302688176792E10 ; 0.0
68 ; 2609857.7357188524 ; 2.0115547075538102E8 ; 1.4188230390796718E8 ; 1.2029444923660393E10 ; 0.0
69 ; 2619440.5313900956 ; 2.0116870960114735E8 ; 1.4449216164368603E8 ; 1.2230600394415773E10 ; 0.0
70 ; 2622614.6365559283 ; 2.0118195087446934E8 ; 1.4711160217507613E8 ; 1.243176910401692E10 ; 0.0
71 ; 2628693.989710355 ; 2.0119519348162633E8 ; 1.4973421681163207E8 ; 1.263295105489139E10 ; 0.0
72 ; 2634830.2243550117 ; 2.0120843637786338E8 ; 1.5236291080134243E8 ; 1.2834146248373016E10 ; 0.0
73 ; 2637060.8249192396 ; 2.0122167856395724E8 ; 1.5499774102569744E8 ; 1.303535468475088E10 ; 0.0
74 ; 2644243.634372154 ; 2.0123491908306366E8 ; 1.576348018506167E8 ; 1.3236576363314837E10 ; 0.0
75 ; 2650375.364283427 ; 2.0124815701782024E8 ; 1.6027904548498884E8 ; 1.34378112823979E10 ; 0.0
76 ; 2655438.3586044344 ; 2.0126139148768196E8 ; 1.6292942084927225E8 ; 1.363905943941572E10 ; 0.0
77 ; 2660204.3025394366 ; 2.0127462164646745E8 ; 1.6558485920787668E8 ; 1.3840320830903402E10 ; 0.0
78 ; 2660772.8621202903 ; 2.012878466800985E8 ; 1.6824506351041612E8 ; 1.404159545254987E10 ; 0.0
79 ; 2664208.620148164 ; 2.0130106580451435E8 ; 1.7090583637253642E8 ; 1.4242883299229967E10 ; 0.0
80 ; 2662892.3530280422 ; 2.0131427826374644E8 ; 1.7357004499268457E8 ; 1.4444184365034481E10 ; 0.0
81 ; 2664058.6161566465 ; 2.0132748332813945E8 ; 1.762329373457126E8 ; 1.4645498643298227E10 ; 0.0
82 ; 2666146.588780568 ; 2.0134068029270583E8 ; 1.7889699596186924E8 ; 1.4846826126626368E10 ; 0.0
83 ; 2666921.475564032 ; 2.013538684756029E8 ; 1.8156314255064982E8 ; 1.5048166806919073E10 ; 0.0
84 ; 2665065.006167235 ; 2.0136704721672177E8 ; 1.8423006402621385E8 ; 1.5249520675394676E10 ; 0.0
85 ; 2668785.0680326805 ; 2.0138021587637925E8 ; 1.868951290323811E8 ; 1.5450887722611399E10 ; 0.0
86 ; 2667104.021282008 ; 2.013933738341039E8 ; 1.8956391410041377E8 ; 1.5652267938487778E10 ; 0.0
87 ; 2666489.2245065384 ; 2.0140652048750886E8 ; 1.922310181216958E8 ; 1.5853661312321882E10 ; 0.0
88 ; 2667915.9421673706 ; 2.0141965525124383E8 ; 1.948975073462023E8 ; 1.6055067832809391E10 ; 0.0
89 ; 2674399.38161585 ; 2.0143277755602098E8 ; 1.975654232883697E8 ; 1.6256487488060635E10 ; 0.0
90 ; 2669132.6563701346 ; 2.0144588684770763E8 ; 2.0023982266998553E8 ; 1.6457920265616655E10 ; 0.0
91 ; 2670507.0734236604 ; 2.0145898258648157E8 ; 2.0290895532635567E8 ; 1.6659366152464363E10 ; 0.0
92 ; 2670761.293870256 ; 2.0147206424604347E8 ; 2.0557946239977932E8 ; 1.6860825135050844E10 ; 0.0
93 ; 2671651.642825299 ; 2.0148513131288218E8 ; 2.082502236936496E8 ; 1.7062297199296888E10 ; 0.0
94 ; 2670755.83757531 ; 2.0149818328558916E8 ; 2.109218753364749E8 ; 1.726378233060977E10 ; 0.0
95 ; 2670901.6192947673 ; 2.0151121967421788E8 ; 2.135926311740502E8 ; 1.746528051389536E10 ; 0.0
96 ; 2671002.4434817606 ; 2.0152423999968505E8 ; 2.1626353279334497E8 ; 1.7666791733569576E10 ; 0.0
97 ; 2671393.622309691 ; 2.015372437932109E8 ; 2.1893453523682675E8 ; 1.786831597356926E10 ; 0.0
98 ; 2668998.3174793134 ; 2.015502305957949E8 ; 2.2160592885913643E8 ; 1.806985321736247E10 ; 0.0
99 ; 2668844.8460136354 ; 2.015631999577251E8 ; 2.2427492717661574E8 ; 1.8271403447958263E10 ; 0.0
100 ; 2671764.3408257808 ; 2.0157615143811825E8 ; 2.2694377202262938E8 ; 1.847296664791599E10 ; 0.0
101 ; 2669576.397637164 ; 2.0158908460448858E8 ; 2.2961553636345515E8 ; 1.8674542799354107E10 ; 0.0
102 ; 2666383.621674773 ; 2.016019990323433E8 ; 2.322851127610923E8 ; 1.8876131883958595E10 ; 0.0
103 ; 2666303.2012623604 ; 2.0161489430480286E8 ; 2.3495149638276708E8 ; 1.907773388299094E10 ; 0.0
104 ; 2666653.910010198 ; 2.0162777001224434E8 ; 2.3761779958402944E8 ; 1.9279348777295742E10 ; 0.0
105 ; 2665770.8480715775 ; 2.016406257519663E8 ; 2.4028445349403962E8 ; 1.9480976547307987E10 ; 0.0
106 ; 2662128.987542593 ; 2.0165346112787357E8 ; 2.429502243421112E8 ; 1.968261717305995E10 ; 0.0
107 ; 2661271.7487683655 ; 2.0166627575018084E8 ; 2.456123533296538E8 ; 1.9884270634187824E10 ; 0.0
108 ; 2661672.2763865357 ; 2.0167906923513377E8 ; 2.4827362507842216E8 ; 2.0085936909938004E10 ; 0.0
109 ; 2662249.070765524 ; 2.0169184120474595E8 ; 2.509352973548087E8 ; 2.0287615979173138E10 ; 0.0
110 ; 2660564.2438391503 ; 2.0170459128655156E8 ; 2.535975464255742E8 ; 2.0489307820377884E10 ; 0.0
111 ; 2657967.5677545755 ; 2.01717319113372E8 ; 2.5625811066941336E8 ; 2.0691012411664436E10 ; 0.0
112 ; 2655881.1183340442 ; 2.0173002432309568E8 ; 2.5891607823716792E8 ; 2.089272973077781E10 ; 0.0
113 ; 2652997.5920290095 ; 2.0174270655847052E8 ; 2.6157195935550198E8 ; 2.1094459755100906E10 ; 0.0
114 ; 2653928.1893526125 ; 2.017553654669079E8 ; 2.6422495694753098E8 ; 2.1296202461659378E10 ; 0.0
115 ; 2649632.9434524155 ; 2.017680007002976E8 ; 2.668788851368836E8 ; 2.1497957827126286E10 ; 0.0
116 ; 2649308.203396383 ; 2.01780611914833E8 ; 2.69528518080336E8 ; 2.1699725827826584E10 ; 0.0
117 ; 2646237.853319776 ; 2.017931987708458E8 ; 2.7217782628373235E8 ; 2.1901506439741417E10 ; 0.0
118 ; 2645110.6568605155 ; 2.0180576093264964E8 ; 2.748240641370521E8 ; 2.2103299638512264E10 ; 0.0
119 ; 2643840.560870002 ; 2.0181829806839252E8 ; 2.7746917479391265E8 ; 2.2305105399444916E10 ; 0.0
120 ; 2642156.386061925 ; 2.0183080984991685E8 ; 2.8011301535478264E8 ; 2.250692369751331E10 ; 0.0
121 ; 2637226.297843872 ; 2.0184329595262703E8 ; 2.8275517174084455E8 ; 2.2708754507363228E10 ; 0.0
122 ; 2633311.522317693 ; 2.0185575605536416E8 ; 2.853923980386884E8 ; 2.2910597803315853E10 ; 0.0
123 ; 2635268.464445994 ; 2.0186818984028727E8 ; 2.880257095610061E8 ; 2.3112453559371216E10 ; 0.0
124 ; 2631761.7731080274 ; 2.018805969927607E8 ; 2.9066097802545214E8 ; 2.3314321749211502E10 ; 0.0
125 ; 2630038.8363410616 ; 2.0189297720124748E8 ; 2.9329273979856014E8 ; 2.351620234620426E10 ; 0.0
126 ; 2625514.7618271867 ; 2.019053301572083E8 ; 2.959227786349012E8 ; 2.371809532340551E10 ; 0.0
127 ; 2622420.6899283403 ; 2.019176555550053E8 ; 2.985482933967284E8 ; 2.3920000653562717E10 ; 0.0
128 ; 2622753.9230721407 ; 2.019299530918112E8 ; 3.0117071408665675E8 ; 2.412191830911772E10 ; 0.0
129 ; 2618077.7352447994 ; 2.019422224675228E8 ; 3.037934680097289E8 ; 2.4323848262209534E10 ; 0.0
130 ; 2611125.061737152 ; 2.0195446338467896E8 ; 3.064115457449737E8 ; 2.4525790484677055E10 ; 0.0
131 ; 2604541.897882285 ; 2.019666755483827E8 ; 3.090226708067109E8 ; 2.4727744948061733E10 ; 0.0
132 ; 2596194.388200447 ; 2.0197885866622713E8 ; 3.116272127045932E8 ; 2.4929711623610115E10 ; 0.0
133 ; 2592196.9147696253 ; 2.0199101244822508E8 ; 3.1422340709279364E8 ; 2.513169048227634E10 ; 0.0
134 ; 2586261.5711245313 ; 2.020031366067424E8 ; 3.168156040075633E8 ; 2.5333681494724567E10 ; 0.0
135 ; 2577694.8430569577 ; 2.0201523085643423E8 ; 3.1940186557868785E8 ; 2.553568463133131E10 ; 0.0
136 ; 2572813.128127433 ; 2.0202729491418466E8 ; 3.219795604217448E8 ; 2.5737699862187744E10 ; 0.0
137 ; 2565543.9657928264 ; 2.020393284990492E8 ; 3.245523735498723E8 ; 2.593972715710193E10 ; 0.0
138 ; 2558060.992460408 ; 2.0205133133220014E8 ; 3.271179175156651E8 ; 2.614176648560098E10 ; 0.0
139 ; 2548683.4609461245 ; 2.020633031368745E8 ; 3.2967597850812554E8 ; 2.6343817816933178E10 ; 0.0
140 ; 2542040.3470300804 ; 2.0207524363832456E8 ; 3.322246619690717E8 ; 2.6545881120070053E10 ; 0.0
141 ; 2533866.4341122946 ; 2.0208715256377053E8 ; 3.347667023161018E8 ; 2.6747956363708378E10 ; 0.0
142 ; 2525104.7812002567 ; 2.02099029642356E8 ; 3.373005687502141E8 ; 2.695004351627215E10 ; 0.0
143 ; 2519412.56909465 ; 2.0211087460510483E8 ; 3.3982567353141433E8 ; 2.7152142545914505E10 ; 0.0
144 ; 2511256.6130542904 ; 2.021226871848808E8 ; 3.42345086100509E8 ; 2.735425342051961E10 ; 0.0
145 ; 2509419.809952599 ; 2.0213446711634856E8 ; 3.4485634271356326E8 ; 2.755637610770449E10 ; 0.0
146 ; 2504120.706569345 ; 2.0214621413593686E8 ; 3.473657625235159E8 ; 2.775851057482084E10 ; 0.0
147 ; 2502306.273600573 ; 2.021579279818033E8 ; 3.4986988323008525E8 ; 2.7960656788956776E10 ; 0.0
148 ; 2499963.8957780483 ; 2.0216960839380088E8 ; 3.5237218950368583E8 ; 2.816281471693858E10 ; 0.0
149 ; 2495661.458084295 ; 2.0218125511344594E8 ; 3.548721533994639E8 ; 2.8364984325332382E10 ; 0.0
150 ; 2493739.702248329 ; 2.0219286788388774E8 ; 3.573678148575482E8 ; 2.8567165580445827E10 ; 0.0
151 ; 2491521.9173976164 ; 2.0220444644987944E8 ; 3.598615545597965E8 ; 2.8769358448329716E10 ; 0.0
152 ; 2489294.2311406247 ; 2.0221599055775046E8 ; 3.6235307647719413E8 ; 2.8971562894779594E10 ; 0.0
153 ; 2484343.864992993 ; 2.0222749995538005E8 ; 3.6484237070833474E8 ; 2.9173778885337345E10 ; 0.0
154 ; 2480934.831752797 ; 2.022389743921722E8 ; 3.673267145733277E8 ; 2.9376006385292725E10 ; 0.0
155 ; 2475550.9881803123 ; 2.022504136190315E8 ; 3.698076494050805E8 ; 2.95782453596849E10 ; 0.0
156 ; 2473421.939291851 ; 2.0226181738834056E8 ; 3.7228320039326084E8 ; 2.978049577330393E10 ; 0.0
157 ; 2472657.2192401583 ; 2.02273185453938E8 ; 3.747566223325527E8 ; 2.998275759069227E10 ; 0.0
158 ; 2469123.122769795 ; 2.0228451757109773E8 ; 3.772292795517928E8 ; 3.0185030776146206E10 ; 0.0
159 ; 2463837.612387449 ; 2.0229581349650908E8 ; 3.796984026745626E8 ; 3.0387315293717304E10 ; 0.0
160 ; 2463397.0981269935 ; 2.0230707298825806E8 ; 3.8216224028695005E8 ; 3.0589611107213814E10 ; 0.0
161 ; 2459405.980862901 ; 2.023182958058092E8 ; 3.8462563738507706E8 ; 3.0791918180202072E10 ; 0.0
162 ; 2453216.637389042 ; 2.0232948170998845E8 ; 3.8708504336594E8 ; 3.099423647600788E10 ; 0.0
163 ; 2452020.075340872 ; 2.0234063046296683E8 ; 3.8953826000332904E8 ; 3.119656595771787E10 ; 0.0
164 ; 2447716.2916282616 ; 2.0235174182824475E8 ; 3.919902800786699E8 ; 3.1398906588180836E10 ; 0.0
165 ; 2446217.6989293853 ; 2.0236281557063723E8 ; 3.9443799637029815E8 ; 3.160125833000908E10 ; 0.0
166 ; 2442539.8872229005 ; 2.0237385145625973E8 ; 3.968842140692275E8 ; 3.1803621145579716E10 ; 0.0
167 ; 2440697.637185756 ; 2.023848492525145E8 ; 3.993267539564504E8 ; 3.2005994997035976E10 ; 0.0
168 ; 2438788.049296279 ; 2.0239580872807804E8 ; 4.0176745159363616E8 ; 3.220837984628849E10 ; 0.0
169 ; 2432878.7059959765 ; 2.0240672965288842E8 ; 4.042062396429324E8 ; 3.2410775655016567E10 ; 0.0
170 ; 2431784.7836653893 ; 2.0241761179813394E8 ; 4.066391183489284E8 ; 3.2613182384669456E10 ; 0.0
171 ; 2427957.675387623 ; 2.0242845493624192E8 ; 4.090709031325938E8 ; 3.281559999646759E10 ; 0.0
172 ; 2425003.282994607 ; 2.0243925884086812E8 ; 4.1149886080798143E8 ; 3.301802845140383E10 ; 0.0
173 ; 2421204.5048167584 ; 2.024500232868866E8 ; 4.1392386409097606E8 ; 3.32204677102447E10 ; 0.0
174 ; 2418549.282077904 ; 2.0246074805038032E8 ; 4.1634506859579283E8 ; 3.342291773353159E10 ; 0.0
175 ; 2418020.2306438084 ; 2.0247143290863183E8 ; 4.1876361787787074E8 ; 3.362537848158197E10 ; 0.0
176 ; 2415771.934390283 ; 2.0248207764011478E8 ; 4.2118163810851455E8 ; 3.38278499144906E10 ; 0.0
177 ; 2411030.4237315473 ; 2.0249268202448556E8 ; 4.2359741004290485E8 ; 3.4030331992130714E10 ; 0.0
178 ; 2410389.097036745 ; 2.0250324584257555E8 ; 4.260084404666364E8 ; 3.42328246741552E10 ; 0.0
179 ; 2409121.2803064166 ; 2.0251376887638366E8 ; 4.2841882956367314E8 ; 3.443532791999778E10 ; 0.0
180 ; 2406147.6521435627 ; 2.0252425090906933E8 ; 4.3082795084397954E8 ; 3.463784168887416E10 ; 0.0
181 ; 2403964.7021849435 ; 2.0253469172494578E8 ; 4.332340984961231E8 ; 3.484036593978323E10 ; 0.0
182 ; 2402158.9750725767 ; 2.0254509110947365E8 ; 4.35638063198308E8 ; 3.504290063150818E10 ; 0.0
183 ; 2396453.4940929543 ; 2.0255544884925506E8 ; 4.3804022217338055E8 ; 3.524544572261765E10 ; 0.0
184 ; 2398383.501419618 ; 2.025657647320279E8 ; 4.404366756674735E8 ; 3.544800117146691E10 ; 0.0
185 ; 2396119.5562683903 ; 2.0257603854666036E8 ; 4.428350591688931E8 ; 3.565056693619894E10 ; 0.0
186 ; 2393759.750057429 ; 2.0258627008314595E8 ; 4.452311787251615E8 ; 3.58531429747456E10 ; 0.0
187 ; 2389155.1554240417 ; 2.025964591325986E8 ; 4.476249384752189E8 ; 3.605572924482874E10 ; 0.0
188 ; 2390002.448554142 ; 2.0260660548724812E8 ; 4.5001409363064295E8 ; 3.625832570396134E10 ; 0.0
189 ; 2384304.0286331447 ; 2.0261670894043595E8 ; 4.524040960791971E8 ; 3.646093230944859E10 ; 0.0
190 ; 2385919.4632104672 ; 2.0262676928661105E8 ; 4.547884001078302E8 ; 3.666354901838903E10 ; 0.0
191 ; 2381073.746014528 ; 2.026367863213262E8 ; 4.571743195710407E8 ; 3.6866175787675644E10 ; 0.0
192 ; 2379516.310014723 ; 2.0264675984123427E8 ; 4.595553933170552E8 ; 3.706881257399697E10 ; 0.0
193 ; 2374647.9150684886 ; 2.0265668964408502E8 ; 4.6193490962706995E8 ; 3.72714593338382E10 ; 0.0
194 ; 2374454.4540747693 ; 2.0266657552872178E8 ; 4.6430955754213846E8 ; 3.747411602348229E10 ; 0.0
195 ; 2373284.1339851953 ; 2.0267641729507872E8 ; 4.666840119962132E8 ; 3.767678259901102E10 ; 0.0
196 ; 2370139.4121293677 ; 2.0268621474417782E8 ; 4.690572961301984E8 ; 3.78794590163061E10 ; 0.0
197 ; 2368776.479932044 ; 2.0269596767812654E8 ; 4.7142743554232776E8 ; 3.808214523105028E10 ; 0.0
198 ; 2367081.201373576 ; 2.0270567590011528E8 ; 4.7379621202225983E8 ; 3.82848411987284E10 ; 0.0
199 ; 2363800.4952862514 ; 2.0271533921441522E8 ; 4.761632932236334E8 ; 3.848754687462852E10 ; 0.0
200 ; 2365229.2028924315 ; 2.0272495742637622E8 ; 4.7852709371891963E8 ; 3.869026221384293E10 ; 0.0
