CSV File for the City 6 on Day 29
1 - Minute m 
2 - Power Consumed at minute m 
3 - Power Produced at minute m 
4 - Energy Consumed since the beginning of the day 
5 - Energy Produced since the beginning of the day 
6 - Energy Lost since the beginning of the day on lines starting from the city
 
0 ; 1.1113569402602347E7 ; 1.0540800246414593E8 ; 0.0 ; 0.0 ; 0.0
1 ; 1.1122642636202527E7 ; 1.0555448814847767E8 ; 1.1113569402602347E7 ; 1.0540800246414593E8 ; 0.0
2 ; 1.114010509146171E7 ; 1.06010214304791E8 ; 2.2236212038804874E7 ; 2.109624906126236E8 ; 0.0
3 ; 1.1152078350574113E7 ; 1.067752392639361E8 ; 3.3376317130266584E7 ; 3.169727049174146E8 ; 0.0
4 ; 1.1164733350609796E7 ; 1.0784962272112948E8 ; 4.45283954808407E7 ; 4.237479441813507E8 ; 0.0
5 ; 1.1187562814661168E7 ; 1.0923342402875334E8 ; 5.569312883145049E7 ; 5.315975669024802E8 ; 0.0
6 ; 1.1213657963625668E7 ; 1.1092670003793994E8 ; 6.688069164611166E7 ; 6.408309909312335E8 ; 0.0
7 ; 1.12518522707799E7 ; 1.1292950257874948E8 ; 7.809434960973732E7 ; 7.517576909691734E8 ; 0.0
8 ; 1.1300699523651768E7 ; 1.1524187576125199E8 ; 8.934620188051721E7 ; 8.646871935479228E8 ; 0.0
9 ; 1.1381869031184226E7 ; 1.1786385336679566E8 ; 1.0064690140416898E8 ; 9.799290693091748E8 ; 0.0
10 ; 1.1509145531967657E7 ; 1.2079545665128767E8 ; 1.120287704353532E8 ; 1.0977929226759706E9 ; 0.0
11 ; 1.1708268814845271E7 ; 1.2403669287296852E8 ; 1.2353791596732086E8 ; 1.218588379327258E9 ; 0.0
12 ; 1.2024444020470355E7 ; 1.2758755477359769E8 ; 1.3524618478216612E8 ; 1.3426250722002265E9 ; 0.0
13 ; 1.2327039367306571E7 ; 1.3144802109726799E8 ; 1.4727062880263647E8 ; 1.4702126269738243E9 ; 0.0
14 ; 1.236093322637273E7 ; 1.3561805806263125E8 ; 1.5959766816994303E8 ; 1.6016606480710921E9 ; 0.0
15 ; 1.2377571921301149E7 ; 1.4009762155961752E8 ; 1.7195860139631575E8 ; 1.7372787061337233E9 ; 0.0
16 ; 1.2393189889912657E7 ; 1.4488665975816652E8 ; 1.843361733176169E8 ; 1.8773763276933408E9 ; 0.0
17 ; 1.240543696874773E7 ; 1.4998511580714598E8 ; 1.9672936320752957E8 ; 2.0222629874515073E9 ; 0.0
18 ; 1.2424963151449068E7 ; 1.5539293035417372E8 ; 2.091348001762773E8 ; 2.172248103258653E9 ; 0.0
19 ; 1.2434730653125843E7 ; 1.6111004370403323E8 ; 2.2155976332772636E8 ; 2.327641033612827E9 ; 0.0
20 ; 1.2451760255540231E7 ; 1.671363975258743E8 ; 2.3399449398085222E8 ; 2.48875107731686E9 ; 0.0
21 ; 1.2467040552568872E7 ; 1.7347193609679255E8 ; 2.4644625423639244E8 ; 2.6558874748427343E9 ; 0.0
22 ; 1.2482467706445651E7 ; 1.8011660712235355E8 ; 2.5891329478896132E8 ; 2.829359410939527E9 ; 0.0
23 ; 1.249494336625844E7 ; 1.8707036220309126E8 ; 2.71395762495407E8 ; 3.0094760180618806E9 ; 0.0
24 ; 1.2508149727313342E7 ; 1.9433315702508432E8 ; 2.838907058616654E8 ; 3.1965463802649717E9 ; 0.0
25 ; 1.2523190598548796E7 ; 2.005929922472482E8 ; 2.9639885558897877E8 ; 3.390879537290056E9 ; 0.0
26 ; 1.2539906195376445E7 ; 2.0060337938992068E8 ; 3.0892204618752754E8 ; 3.5914725295373044E9 ; 0.0
27 ; 1.2553878866982212E7 ; 2.0061405512526345E8 ; 3.21461952382904E8 ; 3.792075908927225E9 ; 0.0
28 ; 1.2566870322206168E7 ; 2.0062499024200878E8 ; 3.340158312498862E8 ; 3.9926899640524883E9 ; 0.0
29 ; 1.2581465377592288E7 ; 2.0063615863688555E8 ; 3.4658270157209235E8 ; 4.193314954294497E9 ; 0.0
30 ; 1.2595220186205499E7 ; 2.0064753701190183E8 ; 3.591641669496846E8 ; 4.393951112931382E9 ; 0.0
31 ; 1.2606089575365763E7 ; 2.0065910458287296E8 ; 3.717593871358901E8 ; 4.594598649943284E9 ; 0.0
32 ; 1.2618530077825902E7 ; 2.0067084280639848E8 ; 3.843654767112559E8 ; 4.795257754526157E9 ; 0.0
33 ; 1.2631129897584891E7 ; 2.0068273512901863E8 ; 3.969840067890818E8 ; 4.995928597332556E9 ; 0.0
34 ; 1.2642311722699478E7 ; 2.006947667599323E8 ; 4.096151366866667E8 ; 5.196611332461575E9 ; 0.0
35 ; 1.2655292033086404E7 ; 2.0070692446713722E8 ; 4.222574484093662E8 ; 5.397306099221507E9 ; 0.0
36 ; 1.266902222724141E7 ; 2.0071919639592475E8 ; 4.349127404424526E8 ; 5.598013023688644E9 ; 0.0
37 ; 1.2679246567245709E7 ; 2.007315719081408E8 ; 4.47581762669694E8 ; 5.798732220084569E9 ; 0.0
38 ; 1.26891774245246E7 ; 2.0074404144037932E8 ; 4.602610092369397E8 ; 5.99946379199271E9 ; 0.0
39 ; 1.2700032983556306E7 ; 2.0075659637920666E8 ; 4.7295018666146433E8 ; 6.200207833433089E9 ; 0.0
40 ; 1.2707737110556204E7 ; 2.0076922895155933E8 ; 4.8565021964502066E8 ; 6.400964429812296E9 ; 0.0
41 ; 1.2717952463774059E7 ; 2.007819321285646E8 ; 4.9835795675557685E8 ; 6.601733658763855E9 ; 0.0
42 ; 1.2728496229546625E7 ; 2.0079469954117537E8 ; 5.1107590921935093E8 ; 6.80251559089242E9 ; 0.0
43 ; 1.2734124040016882E7 ; 2.008075254061653E8 ; 5.2380440544889754E8 ; 7.003310290433596E9 ; 0.0
44 ; 1.2739182785243932E7 ; 2.008204044611864E8 ; 5.3653852948891443E8 ; 7.204117815839761E9 ; 0.0
45 ; 1.2749546154337943E7 ; 2.0083333190774068E8 ; 5.492777122741584E8 ; 7.404938220300947E9 ; 0.0
46 ; 1.2753824571978712E7 ; 2.0084630336105576E8 ; 5.620272584284964E8 ; 7.605771552208688E9 ; 0.0
47 ; 1.2762814288998222E7 ; 2.008593148059814E8 ; 5.74781083000475E8 ; 7.806617855569743E9 ; 0.0
48 ; 1.2765172257402997E7 ; 2.008723625581359E8 ; 5.875438972894733E8 ; 8.007477170375725E9 ; 0.0
49 ; 1.2771517134586012E7 ; 2.0088544322963214E8 ; 6.003090695468763E8 ; 8.208349532933861E9 ; 0.0
50 ; 1.2776611983809305E7 ; 2.0089855369880047E8 ; 6.130805866814623E8 ; 8.409234976163493E9 ; 0.0
51 ; 1.2779447658505565E7 ; 2.0091169108340302E8 ; 6.258571986652716E8 ; 8.610133529862293E9 ; 0.0
52 ; 1.2781436163563987E7 ; 2.0092485271690091E8 ; 6.386366463237772E8 ; 8.811045220945696E9 ; 0.0
53 ; 1.278570367662652E7 ; 2.009380361273936E8 ; 6.514180824873412E8 ; 9.011970073662598E9 ; 0.0
54 ; 1.2787444523819232E7 ; 2.0095123901890013E8 ; 6.642037861639677E8 ; 9.212908109789991E9 ; 0.0
55 ; 1.279060547460996E7 ; 2.0096445925469568E8 ; 6.769912306877869E8 ; 9.413859348808891E9 ; 0.0
56 ; 1.2795129328736758E7 ; 2.0097769484245446E8 ; 6.897818361623969E8 ; 9.614823808063587E9 ; 0.0
57 ; 1.2796060082045358E7 ; 2.0099094392098156E8 ; 7.025769654911337E8 ; 9.815801502906042E9 ; 0.0
58 ; 1.2797592589241384E7 ; 2.0100420474834606E8 ; 7.15373025573179E8 ; 1.0016792446827024E10 ; 0.0
59 ; 1.2799055468578191E7 ; 2.0101747569125035E8 ; 7.281706181624204E8 ; 1.021779665157537E10 ; 0.0
60 ; 1.280606599443561E7 ; 2.0103075521549243E8 ; 7.409696736309986E8 ; 1.041881412726662E10 ; 0.0
61 ; 1.2806156074734863E7 ; 2.010440418773956E8 ; 7.537757396254343E8 ; 1.0619844882482113E10 ; 0.0
62 ; 1.2807776633673826E7 ; 2.0105733431609637E8 ; 7.665818957001691E8 ; 1.0820888924359509E10 ; 0.0
63 ; 1.281488395262723E7 ; 2.010706312465937E8 ; 7.793896723338429E8 ; 1.1021946258675606E10 ; 0.0
64 ; 1.2811395102487635E7 ; 2.0108393145347616E8 ; 7.9220455628647E8 ; 1.12230168899222E10 ; 0.0
65 ; 1.281766590170384E7 ; 2.0109723378525206E8 ; 8.050159513889577E8 ; 1.1424100821375675E10 ; 0.0
66 ; 1.2819938815040344E7 ; 2.01110537149218E8 ; 8.178336172906616E8 ; 1.1625198055160927E10 ; 0.0
67 ; 1.2819329554292861E7 ; 2.0112384050680783E8 ; 8.306535561057019E8 ; 1.1826308592310144E10 ; 0.0
68 ; 1.2819813497442491E7 ; 2.0113714286937222E8 ; 8.434728856599948E8 ; 1.2027432432816952E10 ; 0.0
69 ; 1.282147657336019E7 ; 2.0115044329434267E8 ; 8.562926991574373E8 ; 1.2228569575686323E10 ; 0.0
70 ; 1.2817838399172973E7 ; 2.011637408817418E8 ; 8.691141757307975E8 ; 1.2429720018980665E10 ; 0.0
71 ; 1.2823929167987397E7 ; 2.0117703477100354E8 ; 8.819320141299706E8 ; 1.2630883759862408E10 ; 0.0
72 ; 1.282259702900516E7 ; 2.01190324138073E8 ; 8.947559432979579E8 ; 1.2832060794633411E10 ; 0.0
73 ; 1.2825586279224673E7 ; 2.0120360819275755E8 ; 9.075785403269631E8 ; 1.3033251118771484E10 ; 0.0
74 ; 1.2826868271346543E7 ; 2.012168861763048E8 ; 9.204041266061877E8 ; 1.3234454726964241E10 ; 0.0
75 ; 1.282447080925097E7 ; 2.012301573591857E8 ; 9.332309948775343E8 ; 1.3435671613140545E10 ; 0.0
76 ; 1.282916339451752E7 ; 2.0124342103906247E8 ; 9.460554656867852E8 ; 1.3636901770499731E10 ; 0.0
77 ; 1.2827755672442961E7 ; 2.0125667653892475E8 ; 9.588846290813028E8 ; 1.3838145191538794E10 ; 0.0
78 ; 1.2822722968094766E7 ; 2.012699232053772E8 ; 9.717123847537457E8 ; 1.4039401868077719E10 ; 0.0
79 ; 1.2820067647652075E7 ; 2.0128316040706557E8 ; 9.845351077218404E8 ; 1.4240671791283096E10 ; 0.0
80 ; 1.2816022738208624E7 ; 2.012963875332279E8 ; 9.973551753694924E8 ; 1.4441954951690163E10 ; 0.0
81 ; 1.2814402838599237E7 ; 2.0130960399235967E8 ; 1.0101711981077011E9 ; 1.464325133922339E10 ; 0.0
82 ; 1.2808097613562694E7 ; 2.0132280921098307E8 ; 1.0229856009463003E9 ; 1.484456094321575E10 ; 0.0
83 ; 1.2804359431092756E7 ; 2.0133600263251057E8 ; 1.035793698559863E9 ; 1.5045883752426733E10 ; 0.0
84 ; 1.2799101353054905E7 ; 2.0134918371619537E8 ; 1.0485980579909557E9 ; 1.5247219755059244E10 ; 0.0
85 ; 1.2795930853168298E7 ; 2.0136235193616024E8 ; 1.0613971593440106E9 ; 1.544856893877544E10 ; 0.0
86 ; 1.2793341585710479E7 ; 2.0137550678049907E8 ; 1.0741930901971788E9 ; 1.5649931290711601E10 ; 0.0
87 ; 1.2785624840295356E7 ; 2.0138864775044423E8 ; 1.0869864317828894E9 ; 1.58513067974921E10 ; 0.0
88 ; 1.2780927685610788E7 ; 2.0140177435959455E8 ; 1.0997720566231847E9 ; 1.6052695445242544E10 ; 0.0
89 ; 1.2778996825146008E7 ; 2.0141488613319904E8 ; 1.1125529843087955E9 ; 1.6254097219602139E10 ; 0.0
90 ; 1.2772731324144952E7 ; 2.0142798260749134E8 ; 1.1253319811339414E9 ; 1.6455512105735338E10 ; 0.0
91 ; 1.2768740357368937E7 ; 2.0144106332907137E8 ; 1.1381047124580863E9 ; 1.6656940088342829E10 ; 0.0
92 ; 1.2762483516795859E7 ; 2.0145412785432997E8 ; 1.1508734528154552E9 ; 1.68583811516719E10 ; 0.0
93 ; 1.2755713243881805E7 ; 2.0146717574891332E8 ; 1.163635936332251E9 ; 1.705983527952623E10 ; 0.0
94 ; 1.275298658801821E7 ; 2.0148020658722383E8 ; 1.1763916495761328E9 ; 1.7261302455275143E10 ; 0.0
95 ; 1.2747203216507146E7 ; 2.0149321995195517E8 ; 1.189144636164151E9 ; 1.7462782661862366E10 ; 0.0
96 ; 1.2739813267112892E7 ; 2.0150621543365797E8 ; 1.2018918393806581E9 ; 1.766427588181432E10 ; 0.0
97 ; 1.2732520664225422E7 ; 2.0151919263033485E8 ; 1.2146316526477711E9 ; 1.786578209724798E10 ; 0.0
98 ; 1.272991813036527E7 ; 2.0153215114706162E8 ; 1.2273641733119965E9 ; 1.806730128987831E10 ; 0.0
99 ; 1.2719882280912329E7 ; 2.0154509059563348E8 ; 1.2400940914423618E9 ; 1.826883344102537E10 ; 0.0
100 ; 1.271650030828112E7 ; 2.0155801059423396E8 ; 1.2528139737232742E9 ; 1.8470378531621006E10 ; 0.0
101 ; 1.2711506444376776E7 ; 2.015709107671249E8 ; 1.2655304740315554E9 ; 1.867193654221524E10 ; 0.0
102 ; 1.270248405506022E7 ; 2.0158379074435622E8 ; 1.2782419804759321E9 ; 1.8873507452982365E10 ; 0.0
103 ; 1.2695970592697198E7 ; 2.0159665016149387E8 ; 1.2909444645309923E9 ; 1.9075091243726723E10 ; 0.0
104 ; 1.268721964230649E7 ; 2.0160948865936476E8 ; 1.3036404351236894E9 ; 1.9276687893888218E10 ; 0.0
105 ; 1.2682020531175245E7 ; 2.016223058838173E8 ; 1.316327654765996E9 ; 1.9478297382547585E10 ; 0.0
106 ; 1.267241819158484E7 ; 2.0163510148549664E8 ; 1.329009675297171E9 ; 1.96799196884314E10 ; 0.0
107 ; 1.2670237684526792E7 ; 2.0164787511963382E8 ; 1.341682093488756E9 ; 1.9881554789916897E10 ; 0.0
108 ; 1.265904500253675E7 ; 2.016606264458471E8 ; 1.3543523311732826E9 ; 2.008320266503653E10 ; 0.0
109 ; 1.2656084420649854E7 ; 2.0167335512795562E8 ; 1.3670113761758194E9 ; 2.0284863291482376E10 ; 0.0
110 ; 1.2646347566092843E7 ; 2.016860608338038E8 ; 1.3796674605964692E9 ; 2.0486536646610332E10 ; 0.0
111 ; 1.263939770290638E7 ; 2.0169874323509625E8 ; 1.392313808162562E9 ; 2.0688222707444138E10 ; 0.0
112 ; 1.263047466576131E7 ; 2.017114020072422E8 ; 1.4049532058654683E9 ; 2.0889921450679234E10 ; 0.0
113 ; 1.262172844681169E7 ; 2.0172403682920894E8 ; 1.4175836805312295E9 ; 2.1091632852686478E10 ; 0.0
114 ; 1.261296133965906E7 ; 2.017366473833837E8 ; 1.4302054089780412E9 ; 2.1293356889515686E10 ; 0.0
115 ; 1.2607590405518884E7 ; 2.017492333554435E8 ; 1.4428183703177001E9 ; 2.149509353689907E10 ; 0.0
116 ; 1.2595996460533228E7 ; 2.0176179443423223E8 ; 1.455425960723219E9 ; 2.1696842770254513E10 ; 0.0
117 ; 1.2588403993338857E7 ; 2.0177433031164467E8 ; 1.468021957183752E9 ; 2.1898604564688744E10 ; 0.0
118 ; 1.2578091451765485E7 ; 2.017868406825171E8 ; 1.480610361177091E9 ; 2.210037889500039E10 ; 0.0
119 ; 1.2569491253615236E7 ; 2.0179932524452394E8 ; 1.4931884526288564E9 ; 2.2302165735682907E10 ; 0.0
120 ; 1.2563637710720386E7 ; 2.018117836980799E8 ; 1.5057579438824716E9 ; 2.250396506092743E10 ; 0.0
121 ; 1.2554212976018801E7 ; 2.0182421574624792E8 ; 1.5183215815931919E9 ; 2.2705776844625507E10 ; 0.0
122 ; 1.2546010576526148E7 ; 2.018366210946516E8 ; 1.5308757945692108E9 ; 2.2907601060371754E10 ; 0.0
123 ; 1.253704431760117E7 ; 2.0184899945139283E8 ; 1.543421805145737E9 ; 2.3109437681466404E10 ; 0.0
124 ; 1.2522755608827947E7 ; 2.018613505269736E8 ; 1.5559588494633381E9 ; 2.3311286680917797E10 ; 0.0
125 ; 1.2515143438866686E7 ; 2.0187367403422207E8 ; 1.568481605072166E9 ; 2.351314803144477E10 ; 0.0
126 ; 1.2507600886911873E7 ; 2.0188596968822256E8 ; 1.5809967485110326E9 ; 2.3715021705478992E10 ; 0.0
127 ; 1.2497303132998774E7 ; 2.0189823720624924E8 ; 1.5935043493979445E9 ; 2.3916907675167213E10 ; 0.0
128 ; 1.248724359452926E7 ; 2.0191047630770344E8 ; 1.6060016525309432E9 ; 2.4118805912373463E10 ; 0.0
129 ; 1.247649653838877E7 ; 2.019226867140541E8 ; 1.6184888961254723E9 ; 2.4320716388681168E10 ; 0.0
130 ; 1.2468598563177448E7 ; 2.0193486814878133E8 ; 1.630965392663861E9 ; 2.452263907539522E10 ; 0.0
131 ; 1.2451022399279889E7 ; 2.01947020337323E8 ; 1.6434339912270384E9 ; 2.4724573943544003E10 ; 0.0
132 ; 1.2435196345578618E7 ; 2.0195914300702408E8 ; 1.6558850136263182E9 ; 2.4926520963881325E10 ; 0.0
133 ; 1.2422440292931577E7 ; 2.0197123588708857E8 ; 1.668320209971897E9 ; 2.5128480106888348E10 ; 0.0
134 ; 1.2408864011227679E7 ; 2.0198329870853382E8 ; 1.6807426502648284E9 ; 2.5330451342775436E10 ; 0.0
135 ; 1.2393307769527614E7 ; 2.019953312041473E8 ; 1.693151514276056E9 ; 2.553243464148397E10 ; 0.0
136 ; 1.2379884365630718E7 ; 2.0200733310844567E8 ; 1.7055448220455837E9 ; 2.5734429972688118E10 ; 0.0
137 ; 1.2363671324732134E7 ; 2.020193041576355E8 ; 1.7179247064112144E9 ; 2.5936437305796562E10 ; 0.0
138 ; 1.2352115175685106E7 ; 2.020312440895767E8 ; 1.7302883777359464E9 ; 2.6138456609954197E10 ; 0.0
139 ; 1.2336604652188E7 ; 2.0204315264374694E8 ; 1.7426404929116316E9 ; 2.6340487854043774E10 ; 0.0
140 ; 1.2319302773171585E7 ; 2.020550295612087E8 ; 1.7549770975638196E9 ; 2.654253100668752E10 ; 0.0
141 ; 1.2303710856957978E7 ; 2.0206687458457732E8 ; 1.7672964003369913E9 ; 2.6744586036248726E10 ; 0.0
142 ; 1.2288198646267096E7 ; 2.020786874579911E8 ; 1.7796001111939492E9 ; 2.69466529108333E10 ; 0.0
143 ; 1.2270829384993322E7 ; 2.0209046792708257E8 ; 1.7918883098402164E9 ; 2.7148731598291294E10 ; 0.0
144 ; 1.2259754235346919E7 ; 2.021022157389515E8 ; 1.8041591392252097E9 ; 2.7350822066218376E10 ; 0.0
145 ; 1.2245914559930215E7 ; 2.02113930642139E8 ; 1.8164188934605567E9 ; 2.755292428195733E10 ; 0.0
146 ; 1.2235890667902194E7 ; 2.0212561238660312E8 ; 1.828664808020487E9 ; 2.775503821259947E10 ; 0.0
147 ; 1.2226769162684377E7 ; 2.0213726072369552E8 ; 1.8409006986883893E9 ; 2.7957163824986073E10 ; 0.0
148 ; 1.2214995587253578E7 ; 2.0214887540613934E8 ; 1.8531274678510737E9 ; 2.8159301085709766E10 ; 0.0
149 ; 1.2203874512985745E7 ; 2.0216045618800834E8 ; 1.8653424634383273E9 ; 2.8361449961115906E10 ; 0.0
150 ; 1.2191697579938568E7 ; 2.0217200282470676E8 ; 1.877546337951313E9 ; 2.8563610417303913E10 ; 0.0
151 ; 1.2180955476254266E7 ; 2.021835150729505E8 ; 1.8897380355312517E9 ; 2.876578242012862E10 ; 0.0
152 ; 1.2169508273478566E7 ; 2.0219499269074905E8 ; 1.901918991007506E9 ; 2.8967965935201572E10 ; 0.0
153 ; 1.2158557387883458E7 ; 2.0220643543738842E8 ; 1.9140884992809844E9 ; 2.9170160927892323E10 ; 0.0
154 ; 1.2150507685908556E7 ; 2.022178430734149E8 ; 1.9262470566688678E9 ; 2.9372367363329712E10 ; 0.0
155 ; 1.2134893686466003E7 ; 2.0222921536061954E8 ; 1.9383975643547764E9 ; 2.9574585206403126E10 ; 0.0
156 ; 1.2123105191293834E7 ; 2.0224055206202376E8 ; 1.9505324580412424E9 ; 2.9776814421763744E10 ; 0.0
157 ; 1.2113431492968872E7 ; 2.0225185294186512E8 ; 1.962655563232536E9 ; 2.9979054973825768E10 ; 0.0
158 ; 1.2102944330669368E7 ; 2.0226311776558432E8 ; 1.9747689947255049E9 ; 3.018130682676763E10 ; 0.0
159 ; 1.2087943371464707E7 ; 2.0227434629981267E8 ; 1.9868719390561743E9 ; 3.0383569944533215E10 ; 0.0
160 ; 1.2077373680340419E7 ; 2.0228553831236014E8 ; 1.998959882427639E9 ; 3.0585844290833027E10 ; 0.0
161 ; 1.2066326294457158E7 ; 2.022966935722041E8 ; 2.0110372561079795E9 ; 3.0788129829145386E10 ; 0.0
162 ; 1.2051870048034113E7 ; 2.0230781184947872E8 ; 2.0231035824024367E9 ; 3.099042652271759E10 ; 0.0
163 ; 1.2042202787404876E7 ; 2.0231889291546476E8 ; 2.035155452450471E9 ; 3.119273433456707E10 ; 0.0
164 ; 1.2028294990345199E7 ; 2.0232993654257992E8 ; 2.0471976552378757E9 ; 3.1395053227482536E10 ; 0.0
165 ; 1.2019737137299815E7 ; 2.023409425043699E8 ; 2.059225950228221E9 ; 3.1597383164025116E10 ; 0.0
166 ; 1.2004484611906162E7 ; 2.023519105754997E8 ; 2.0712456873655207E9 ; 3.1799724106529488E10 ; 0.0
167 ; 1.1993897919393823E7 ; 2.023628405317455E8 ; 2.0832501719774268E9 ; 3.200207601710499E10 ; 0.0
168 ; 1.1981577091480507E7 ; 2.023737321499868E8 ; 2.0952440698968205E9 ; 3.2204438857636734E10 ; 0.0
169 ; 1.1969602655744864E7 ; 2.0238458520819947E8 ; 2.107225646988301E9 ; 3.240681258978672E10 ; 0.0
170 ; 1.1957846245275477E7 ; 2.0239539948544857E8 ; 2.1191952496440458E9 ; 3.260919717499492E10 ; 0.0
171 ; 1.1942186610896472E7 ; 2.0240617476188198E8 ; 2.1311530958893213E9 ; 3.2811592574480366E10 ; 0.0
172 ; 1.1934086757884858E7 ; 2.0241691081872424E8 ; 2.143095282500218E9 ; 3.301399874924225E10 ; 0.0
173 ; 1.1919305925392332E7 ; 2.0242760743827087E8 ; 2.155029369258103E9 ; 3.3216415660060974E10 ; 0.0
174 ; 1.1914921154659614E7 ; 2.024382644038827E8 ; 2.166948675183495E9 ; 3.3418843267499245E10 ; 0.0
175 ; 1.1905924552748654E7 ; 2.0244888149998102E8 ; 2.178863596338155E9 ; 3.3621281531903126E10 ; 0.0
176 ; 1.1897367566342453E7 ; 2.0245945851204258E8 ; 2.1907695208909035E9 ; 3.3823730413403107E10 ; 0.0
177 ; 1.1890479543373678E7 ; 2.0246999522659516E8 ; 2.202666888457246E9 ; 3.402618987191515E10 ; 0.0
178 ; 1.1885899624446882E7 ; 2.0248049143121332E8 ; 2.2145573680006194E9 ; 3.4228659867141747E10 ; 0.0
179 ; 1.187687565270139E7 ; 2.0249094691451433E8 ; 2.2264432676250663E9 ; 3.443114035857296E10 ; 0.0
180 ; 1.187066753844543E7 ; 2.025013614661547E8 ; 2.2383201432777677E9 ; 3.463363130548747E10 ; 0.0
181 ; 1.1861872420438465E7 ; 2.025117348768264E8 ; 2.250190810816213E9 ; 3.483613266695363E10 ; 0.0
182 ; 1.1853122096967766E7 ; 2.0252206693825394E8 ; 2.2620526832366514E9 ; 3.503864440183045E10 ; 0.0
183 ; 1.1848291621781496E7 ; 2.0253235744319114E8 ; 2.273905805333619E9 ; 3.524116646876871E10 ; 0.0
184 ; 1.1840517636641288E7 ; 2.025426061854184E8 ; 2.2857540969554005E9 ; 3.54436988262119E10 ; 0.0
185 ; 1.183231737511222E7 ; 2.025528129597402E8 ; 2.297594614592042E9 ; 3.5646241432397316E10 ; 0.0
186 ; 1.182815297278684E7 ; 2.0256297756198263E8 ; 2.309426931967154E9 ; 3.5848794245357056E10 ; 0.0
187 ; 1.1817648729431996E7 ; 2.0257309978899127E8 ; 2.321255084939941E9 ; 3.605135722291904E10 ; 0.0
188 ; 1.1810439844000299E7 ; 2.025831794386291E8 ; 2.333072733669373E9 ; 3.625393032270803E10 ; 0.0
189 ; 1.180742147794382E7 ; 2.0259321630977467E8 ; 2.3448831735133734E9 ; 3.645651350214666E10 ; 0.0
190 ; 1.1796974148855474E7 ; 2.0260321020232052E8 ; 2.3566905949913173E9 ; 3.6659106718456436E10 ; 0.0
191 ; 1.1788472101331761E7 ; 2.026131609171716E8 ; 2.368487569140173E9 ; 3.686170992865876E10 ; 0.0
192 ; 1.1782721807873502E7 ; 2.0262306825624388E8 ; 2.3802760412415047E9 ; 3.7064323089575935E10 ; 0.0
193 ; 1.1778377627687259E7 ; 2.0263293202246323E8 ; 2.3920587630493784E9 ; 3.726694615783218E10 ; 0.0
194 ; 1.1763431047060087E7 ; 2.026427520197643E8 ; 2.403837140677066E9 ; 3.746957908985464E10 ; 0.0
195 ; 1.1760864717660645E7 ; 2.0265252805308953E8 ; 2.415600571724126E9 ; 3.7672221841874405E10 ; 0.0
