CSV File for the City 6 on Day 188
1 - Minute m 
2 - Power Consumed at minute m 
3 - Power Produced at minute m 
4 - Energy Consumed since the beginning of the day 
5 - Energy Produced since the beginning of the day 
6 - Energy Lost since the beginning of the day on lines starting from the city
 
0 ; 1812443.0980685388 ; 1.0590080954797885E8 ; 0.0 ; 0.0 ; 0.0
1 ; 1821075.463592843 ; 1.0605149898926419E8 ; 1812443.0980685388 ; 1.0590080954797885E8 ; 0.0
2 ; 1836480.1775586745 ; 1.065111966664274E8 ; 3633518.5616613817 ; 2.1195230853724304E8 ; 0.0
3 ; 1847074.0623705983 ; 1.0727990774671304E8 ; 5469998.739220057 ; 3.1846350520367044E8 ; 0.0
4 ; 1864476.6057474255 ; 1.0835763688620275E8 ; 7317072.801590655 ; 4.257434129503835E8 ; 0.0
5 ; 1883452.7822061747 ; 1.0974438819561064E8 ; 9181549.40733808 ; 5.3410104983658624E8 ; 0.0
6 ; 1912011.6883696222 ; 1.1144016520930031E8 ; 1.1065002189544255E7 ; 6.438454380321969E8 ; 0.0
7 ; 1949279.5783973762 ; 1.1344497085805261E8 ; 1.2977013877913877E7 ; 7.552856032414972E8 ; 0.0
8 ; 2002998.8857385498 ; 1.1575880744606668E8 ; 1.4926293456311254E7 ; 8.687305740995498E8 ; 0.0
9 ; 2084163.154473246 ; 1.1838167663261026E8 ; 1.6929292342049804E7 ; 9.844893815456164E8 ; 0.0
10 ; 2203806.4066281496 ; 1.2131357941866022E8 ; 1.901345549652305E7 ; 1.1028710581782267E9 ; 0.0
11 ; 2404017.240521932 ; 1.2455451613878313E8 ; 2.12172619031512E7 ; 1.2241846375968869E9 ; 0.0
12 ; 2722631.64190275 ; 1.2810448645841238E8 ; 2.362127914367313E7 ; 1.34873915373567E9 ; 0.0
13 ; 3025284.9145743987 ; 1.3196348937657112E8 ; 2.6343910785575878E7 ; 1.4768436401940825E9 ; 0.0
14 ; 3060871.9933406063 ; 1.3613152323399168E8 ; 2.9369195700150277E7 ; 1.6088071295706537E9 ; 0.0
15 ; 3077394.6622197595 ; 1.4060858572647482E8 ; 3.2430067693490885E7 ; 1.7449386528046453E9 ; 0.0
16 ; 3090689.714168916 ; 1.453946739232398E8 ; 3.550746235571065E7 ; 1.88554723853112E9 ; 0.0
17 ; 3107383.334383222 ; 1.5048978428992292E8 ; 3.859815206987956E7 ; 2.0309419124543598E9 ; 0.0
18 ; 3122050.725956407 ; 1.5589391271581012E8 ; 4.170553540426278E7 ; 2.1814316967442827E9 ; 0.0
19 ; 3139971.302440226 ; 1.6160705454481974E8 ; 4.482758613021919E7 ; 2.337325609460093E9 ; 0.0
20 ; 3152056.1966334055 ; 1.676292046097072E8 ; 4.796755743265942E7 ; 2.498932664004913E9 ; 0.0
21 ; 3167574.568883339 ; 1.739603572689266E8 ; 5.111961362929282E7 ; 2.66656186861462E9 ; 0.0
22 ; 3181612.715543538 ; 1.8060050644556868E8 ; 5.428718819817616E7 ; 2.840522225883547E9 ; 0.0
23 ; 3198043.9026533533 ; 1.8754964566779137E8 ; 5.74688009137197E7 ; 3.0211227323291154E9 ; 0.0
24 ; 3213078.1239573113 ; 1.9480776811017102E8 ; 6.066684481637305E7 ; 3.2086723779969068E9 ; 0.0
25 ; 3232028.592756051 ; 2.0106290753361166E8 ; 6.3879922940330364E7 ; 3.4034801461070776E9 ; 0.0
26 ; 3243930.515134185 ; 2.0106860436382794E8 ; 6.711195153308642E7 ; 3.6045430536406894E9 ; 0.0
27 ; 3259532.158044925 ; 2.0107462025723055E8 ; 7.03558820482206E7 ; 3.8056116580045176E9 ; 0.0
28 ; 3275346.6067769635 ; 2.010809473876569E8 ; 7.361541420626552E7 ; 4.0066862782617483E9 ; 0.0
29 ; 3289935.927777382 ; 2.010875777781885E8 ; 7.689076081304249E7 ; 4.207767225649405E9 ; 0.0
30 ; 3303465.5097514824 ; 2.0109450333803022E8 ; 8.018069674081987E7 ; 4.408854803427593E9 ; 0.0
31 ; 3318222.392568677 ; 2.0110171589744753E8 ; 8.348416225057136E7 ; 4.609949306765623E9 ; 0.0
32 ; 3333049.500731923 ; 2.0110920724056754E8 ; 8.680238464314003E7 ; 4.811051022663071E9 ; 0.0
33 ; 3345339.387179494 ; 2.0111696913590315E8 ; 9.013543414387196E7 ; 5.012160229903638E9 ; 0.0
34 ; 3359139.7654557317 ; 2.0112499336450914E8 ; 9.348077353105146E7 ; 5.213277199039541E9 ; 0.0
35 ; 3372573.1662545237 ; 2.01133271745723E8 ; 9.68399132965072E7 ; 5.414402192404051E9 ; 0.0
36 ; 3384345.313290466 ; 2.0114179616048393E8 ; 1.0021248646276172E8 ; 5.615535464149774E9 ; 0.0
37 ; 3397083.1192182843 ; 2.011505585722574E8 ; 1.0359683177605218E8 ; 5.816677260310258E9 ; 0.0
38 ; 3408488.803350786 ; 2.0115955104562292E8 ; 1.0699391489527047E8 ; 6.017827818882515E9 ; 0.0
39 ; 3421576.553417981 ; 2.0116876576260528E8 ; 1.1040240369862126E8 ; 6.218987369928138E9 ; 0.0
40 ; 3433467.8684872845 ; 2.0117819503685054E8 ; 1.1382398025203924E8 ; 6.420156135690743E9 ; 0.0
41 ; 3442358.6736582965 ; 2.01187831325761E8 ; 1.1725744812052652E8 ; 6.621334330727594E9 ; 0.0
42 ; 3449244.5101188626 ; 2.0119766724071562E8 ; 1.2069980679418482E8 ; 6.822522162053355E9 ; 0.0
43 ; 3458339.558773248 ; 2.012076955555075E8 ; 1.2414905130430368E8 ; 7.023719829294071E9 ; 0.0
44 ; 3468895.174003877 ; 2.0121790921313506E8 ; 1.2760739086307693E8 ; 7.224927524849579E9 ; 0.0
45 ; 3476261.753117127 ; 2.0122830133108363E8 ; 1.3107628603708081E8 ; 7.426145434062714E9 ; 0.0
46 ; 3485562.4512583823 ; 2.0123886520523298E8 ; 1.3455254779019794E8 ; 7.627373735393797E9 ; 0.0
47 ; 3496265.6816304126 ; 2.0124959431252348E8 ; 1.3803811024145633E8 ; 7.82861260059903E9 ; 0.0
48 ; 3498586.780650417 ; 2.012604823125078E8 ; 1.4153437592308673E8 ; 8.029862194911553E9 ; 0.0
49 ; 3505794.774389646 ; 2.012715230479108E8 ; 1.4503296270373714E8 ; 8.231122677224061E9 ; 0.0
50 ; 3514227.726138062 ; 2.0128271054431182E8 ; 1.485387574781268E8 ; 8.432394200271972E9 ; 0.0
51 ; 3519101.6271414096 ; 2.0129403900905794E8 ; 1.5205298520426485E8 ; 8.633676910816284E9 ; 0.0
52 ; 3526525.6971776644 ; 2.0130550282950824E8 ; 1.5557208683140627E8 ; 8.834970949825342E9 ; 0.0
53 ; 3528422.3367809798 ; 2.0131709657070187E8 ; 1.5909861252858394E8 ; 9.03627645265485E9 ; 0.0
54 ; 3535510.0799314748 ; 2.0132881497253513E8 ; 1.626270348653649E8 ; 9.237593549225552E9 ; 0.0
55 ; 3539794.7839649753 ; 2.0134065294652495E8 ; 1.6616254494529638E8 ; 9.438922364198086E9 ; 0.0
56 ; 3542035.644196121 ; 2.0135260557222942E8 ; 1.6970233972926134E8 ; 9.640263017144611E9 ; 0.0
57 ; 3550534.1365727363 ; 2.0136466809338847E8 ; 1.7324437537345746E8 ; 9.84161562271684E9 ; 0.0
58 ; 3555709.063405582 ; 2.0137683591384217E8 ; 1.767949095100302E8 ; 1.0042980290810228E10 ; 0.0
59 ; 3562851.588224611 ; 2.0138910459327668E8 ; 1.8035061857343578E8 ; 1.024435712672407E10 ; 0.0
60 ; 3567001.957626028 ; 2.0140146984284335E8 ; 1.839134701616604E8 ; 1.0445746231317347E10 ; 0.0
61 ; 3569029.3362812703 ; 2.0141392752069032E8 ; 1.8748047211928642E8 ; 1.064714770116019E10 ; 0.0
62 ; 3574863.10790908 ; 2.0142647362744176E8 ; 1.910495014555677E8 ; 1.0848561628680882E10 ; 0.0
63 ; 3578966.888675764 ; 2.014391043016547E8 ; 1.9462436456347677E8 ; 1.1049988102308323E10 ; 0.0
64 ; 3578470.4543108926 ; 2.0145181581527963E8 ; 1.9820333145215255E8 ; 1.1251427206609978E10 ; 0.0
65 ; 3585182.3957321243 ; 2.0146460456914797E8 ; 2.0178180190646344E8 ; 1.1452879022425257E10 ; 0.0
66 ; 3589156.8155360576 ; 2.0147746708850488E8 ; 2.0536698430219558E8 ; 1.1654343626994404E10 ; 0.0
67 ; 3594614.6127665853 ; 2.014904000186042E8 ; 2.0895614111773163E8 ; 1.1855821094082909E10 ; 0.0
68 ; 3598240.671077526 ; 2.0150340012037864E8 ; 2.1255075573049822E8 ; 1.2057311494101513E10 ; 0.0
69 ; 3606835.0231232876 ; 2.0151646426619697E8 ; 2.1614899640157574E8 ; 1.2258814894221891E10 ; 0.0
70 ; 3606137.5024442566 ; 2.0152958943571657E8 ; 2.1975583142469904E8 ; 1.2460331358488089E10 ; 0.0
71 ; 3608267.1480710176 ; 2.0154277271183923E8 ; 2.233619689271433E8 ; 1.2661860947923805E10 ; 0.0
72 ; 3614444.362208971 ; 2.0155601127677533E8 ; 2.2697023607521433E8 ; 1.2863403720635645E10 ; 0.0
73 ; 3619408.411398799 ; 2.0156930240822098E8 ; 2.305846804374233E8 ; 1.306495973191242E10 ; 0.0
74 ; 3619896.598157992 ; 2.0158264347565055E8 ; 2.342040888488221E8 ; 1.326652903432064E10 ; 0.0
75 ; 3623381.31744375 ; 2.0159603193672705E8 ; 2.378239854469801E8 ; 1.3468111677796291E10 ; 0.0
76 ; 3628598.1757064485 ; 2.016094653338306E8 ; 2.4144736676442385E8 ; 1.3669707709733019E10 ; 0.0
77 ; 3632048.566713773 ; 2.0162294129070586E8 ; 2.450759649401303E8 ; 1.3871317175066849E10 ; 0.0
78 ; 3628477.4449316664 ; 2.016364575092274E8 ; 2.4870801350684407E8 ; 1.4072940116357555E10 ; 0.0
79 ; 3635596.2343041943 ; 2.0165001176628178E8 ; 2.5233649095177573E8 ; 1.4274576573866783E10 ; 0.0
80 ; 3630803.5521644405 ; 2.0166360191076553E8 ; 2.5597208718607992E8 ; 1.4476226585633064E10 ; 0.0
81 ; 3631872.5475664255 ; 2.0167722586069587E8 ; 2.5960289073824435E8 ; 1.4677890187543829E10 ; 0.0
82 ; 3631363.7601547423 ; 2.016908816004331E8 ; 2.6323476328581077E8 ; 1.4879567413404526E10 ; 0.0
83 ; 3626628.6764271823 ; 2.0170456717801127E8 ; 2.6686612704596552E8 ; 1.508125829500496E10 ; 0.0
84 ; 3625219.6800996405 ; 2.0171828070257443E8 ; 2.704927557223927E8 ; 1.528296286218297E10 ; 0.0
85 ; 3624998.98560636 ; 2.0173202034191614E8 ; 2.7411797540249234E8 ; 1.5484681142885544E10 ; 0.0
86 ; 3623568.145990314 ; 2.0174578432011834E8 ; 2.777429743880987E8 ; 1.568641316322746E10 ; 0.0
87 ; 3621517.6221761205 ; 2.0175957091528726E8 ; 2.81366542534089E8 ; 1.5888158947547579E10 ; 0.0
88 ; 3620720.0434179124 ; 2.0177337845738247E8 ; 2.8498806015626514E8 ; 1.6089918518462866E10 ; 0.0
89 ; 3619618.9683178095 ; 2.0178720532613665E8 ; 2.8860878019968307E8 ; 1.6291691896920248E10 ; 0.0
90 ; 3617709.56183285 ; 2.0180104994906205E8 ; 2.922283991680009E8 ; 1.6493479102246386E10 ; 0.0
91 ; 3621971.2534051845 ; 2.0181491079954115E8 ; 2.958461087298337E8 ; 1.6695280152195448E10 ; 0.0
92 ; 3611473.707807353 ; 2.0182878639499804E8 ; 2.9946807998323894E8 ; 1.689709506299499E10 ; 0.0
93 ; 3614053.228572453 ; 2.0184267529514748E8 ; 3.030795536910463E8 ; 1.7098923849389988E10 ; 0.0
94 ; 3610578.6092285234 ; 2.018565761003186E8 ; 3.066936069196187E8 ; 1.7300766524685135E10 ; 0.0
95 ; 3609969.0510865236 ; 2.0187048744985032E8 ; 3.103041855288473E8 ; 1.7502623100785454E10 ; 0.0
96 ; 3607024.00137155 ; 2.0188440802055538E8 ; 3.139141545799338E8 ; 1.7704493588235306E10 ; 0.0
97 ; 3605762.609060896 ; 2.0189833652525058E8 ; 3.175211785813054E8 ; 1.790637799625586E10 ; 0.0
98 ; 3603224.8221648964 ; 2.0191227171135E8 ; 3.2112694119036627E8 ; 1.810827633278111E10 ; 0.0
99 ; 3604324.5818557497 ; 2.0192621235951886E8 ; 3.2473016601253116E8 ; 1.831018860449246E10 ; 0.0
100 ; 3595667.6698336573 ; 2.0194015728238526E8 ; 3.2833449059438694E8 ; 1.851211481685198E10 ; 0.0
101 ; 3599509.9463084345 ; 2.019541053233076E8 ; 3.319301582642206E8 ; 1.8714054974134365E10 ; 0.0
102 ; 3590537.9029671764 ; 2.0196805535519496E8 ; 3.35529668210529E8 ; 1.8916009079457672E10 ; 0.0
103 ; 3586751.2060463526 ; 2.0198200627937812E8 ; 3.391202061134962E8 ; 1.9117977134812866E10 ; 0.0
104 ; 3587130.9089196767 ; 2.0199595702452955E8 ; 3.427069573195425E8 ; 1.9319959141092243E10 ; 0.0
105 ; 3586123.8528424017 ; 2.0200990654562947E8 ; 3.462940882284622E8 ; 1.952195509811677E10 ; 0.0
106 ; 3583605.8551932396 ; 2.020238538229764E8 ; 3.498802120813046E8 ; 1.97239650046624E10 ; 0.0
107 ; 3580696.9378387723 ; 2.0203779786124033E8 ; 3.5346381793649787E8 ; 1.9925988858485374E10 ; 0.0
108 ; 3578036.48395473 ; 2.0205173768855608E8 ; 3.5704451487433666E8 ; 2.0128026656346615E10 ; 0.0
109 ; 3572726.796324288 ; 2.020656723556557E8 ; 3.606225513582914E8 ; 2.033007839403517E10 ; 0.0
110 ; 3571889.956711283 ; 2.0207960093503773E8 ; 3.641952781546157E8 ; 2.0532144066390827E10 ; 0.0
111 ; 3571867.062150997 ; 2.0209352252017185E8 ; 3.67767168111327E8 ; 2.0734223667325867E10 ; 0.0
112 ; 3559916.7108071744 ; 2.0210743622473732E8 ; 3.71339035173478E8 ; 2.093631718984604E10 ; 0.0
113 ; 3555827.9489676557 ; 2.0212134118189365E8 ; 3.748989518842852E8 ; 2.1138424626070778E10 ; 0.0
114 ; 3558446.906986019 ; 2.0213523654358208E8 ; 3.7845477983325285E8 ; 2.134054596725267E10 ; 0.0
115 ; 3553100.14037669 ; 2.0214912147985655E8 ; 3.8201322674023885E8 ; 2.1542681203796253E10 ; 0.0
116 ; 3547447.5491742576 ; 2.0216299517824274E8 ; 3.8556632688061553E8 ; 2.174483032527611E10 ; 0.0
117 ; 3544998.5115566263 ; 2.0217685684312394E8 ; 3.891137744297898E8 ; 2.1946993320454353E10 ; 0.0
118 ; 3539317.2898310227 ; 2.0219070569515267E8 ; 3.926587729413464E8 ; 2.2149170177297478E10 ; 0.0
119 ; 3536068.719867062 ; 2.0220454097068676E8 ; 3.9619809023117745E8 ; 2.235136088299263E10 ; 0.0
120 ; 3535608.436553986 ; 2.0221836192124876E8 ; 3.997341589510445E8 ; 2.2553565423963318E10 ; 0.0
121 ; 3527508.604584856 ; 2.0223216781300783E8 ; 4.032697673875985E8 ; 2.2755783785884567E10 ; 0.0
122 ; 3523872.6967950603 ; 2.0224595792628297E8 ; 4.067972759921834E8 ; 2.2958015953697575E10 ; 0.0
123 ; 3518267.4075168045 ; 2.0225973155506673E8 ; 4.1032114868897843E8 ; 2.316026191162386E10 ; 0.0
124 ; 3517310.778536748 ; 2.0227348800656822E8 ; 4.138394160964952E8 ; 2.3362521643178925E10 ; 0.0
125 ; 3512571.363275137 ; 2.0228722660077512E8 ; 4.1735672687503195E8 ; 2.3564795131185493E10 ; 0.0
126 ; 3506353.4720129287 ; 2.0230094667003313E8 ; 4.2086929823830706E8 ; 2.376708235778627E10 ; 0.0
127 ; 3501080.9584781057 ; 2.0231464755864277E8 ; 4.2437565171032E8 ; 2.3969383304456303E10 ; 0.0
128 ; 3497013.203095497 ; 2.023283286224724E8 ; 4.278767326687981E8 ; 2.4171697952014946E10 ; 0.0
129 ; 3497271.5724069835 ; 2.023419892285866E8 ; 4.313737458718936E8 ; 2.4374026280637417E10 ; 0.0
130 ; 3481708.91776792 ; 2.023556287548898E8 ; 4.348710174443006E8 ; 2.4576368269866005E10 ; 0.0
131 ; 3475062.2618801985 ; 2.0236924658978376E8 ; 4.3835272636206853E8 ; 2.4778723898620895E10 ; 0.0
132 ; 3465275.071501693 ; 2.0238284213183913E8 ; 4.4182778862394875E8 ; 2.498109314521068E10 ; 0.0
133 ; 3456522.034760222 ; 2.0239641478947967E8 ; 4.452930636954504E8 ; 2.5183475987342518E10 ; 0.0
134 ; 3448996.0822811876 ; 2.02409963980679E8 ; 4.4874958573021066E8 ; 2.5385872402131996E10 ; 0.0
135 ; 3442225.2679674616 ; 2.0242348913266948E8 ; 4.5219858181249183E8 ; 2.5588282366112675E10 ; 0.0
136 ; 3429516.5998976678 ; 2.0243698968166232E8 ; 4.556408070804593E8 ; 2.5790705855245346E10 ; 0.0
137 ; 3423127.735275695 ; 2.024504650725786E8 ; 4.59070323680357E8 ; 2.599314284492701E10 ; 0.0
138 ; 3415711.9433046915 ; 2.0246391475879106E8 ; 4.6249345141563267E8 ; 2.6195593309999588E10 ; 0.0
139 ; 3401251.7265889226 ; 2.024773382018754E8 ; 4.659091633589374E8 ; 2.639805722475838E10 ; 0.0
140 ; 3391428.713466279 ; 2.0249073487137163E8 ; 4.693104150855263E8 ; 2.6600534562960255E10 ; 0.0
141 ; 3383149.8908662256 ; 2.0250410424455437E8 ; 4.727018437989926E8 ; 2.6803025297831627E10 ; 0.0
142 ; 3373651.8951236205 ; 2.02517445806212E8 ; 4.760849936898588E8 ; 2.700552940207618E10 ; 0.0
143 ; 3365056.083769044 ; 2.0253075904843435E8 ; 4.794586455849824E8 ; 2.7208046847882393E10 ; 0.0
144 ; 3353639.430581385 ; 2.0254404347040817E8 ; 4.828237016687514E8 ; 2.741057760693083E10 ; 0.0
145 ; 3348221.5196503894 ; 2.025572985782207E8 ; 4.861773410993328E8 ; 2.7613121650401237E10 ; 0.0
146 ; 3344877.519783817 ; 2.025705238846704E8 ; 4.895255626189832E8 ; 2.7815678948979458E10 ; 0.0
147 ; 3340832.6321205036 ; 2.025837189090851E8 ; 4.92870440138767E8 ; 2.801824947286413E10 ; 0.0
148 ; 3333369.6495208694 ; 2.0259688317714638E8 ; 4.962112727708875E8 ; 2.8220833191773212E10 ; 0.0
149 ; 3327751.8082669885 ; 2.0261001622072124E8 ; 4.9954464242040837E8 ; 2.842343007495036E10 ; 0.0
150 ; 3319724.7645837157 ; 2.0262311757769954E8 ; 5.0287239422867537E8 ; 2.862604009117108E10 ; 0.0
151 ; 3319330.092354802 ; 2.0263618679183748E8 ; 5.061921189932591E8 ; 2.882866320874878E10 ; 0.0
152 ; 3311826.1627674047 ; 2.0264922341260716E8 ; 5.0951144908561385E8 ; 2.9031299395540615E10 ; 0.0
153 ; 3307820.016215302 ; 2.0266222699505135E8 ; 5.1282327524838126E8 ; 2.923394861895322E10 ; 0.0
154 ; 3301734.063792454 ; 2.026751970996438E8 ; 5.161310952645966E8 ; 2.9436610845948273E10 ; 0.0
155 ; 3296261.104632594 ; 2.0268813329215443E8 ; 5.1943282932838905E8 ; 2.9639286043047916E10 ; 0.0
156 ; 3289837.3705117204 ; 2.0270103514351976E8 ; 5.2272909043302166E8 ; 2.9841974176340073E10 ; 0.0
157 ; 3284558.1801781943 ; 2.027139022297176E8 ; 5.260189278035334E8 ; 3.0044675211483593E10 ; 0.0
158 ; 3278111.915054753 ; 2.0272673413164678E8 ; 5.2930348598371154E8 ; 3.024738911371331E10 ; 0.0
159 ; 3273463.6204926176 ; 2.0273953043501064E8 ; 5.325815978987663E8 ; 3.0450115847844955E10 ; 0.0
160 ; 3269962.6160591776 ; 2.0275229073020515E8 ; 5.358550615192589E8 ; 3.0652855378279964E10 ; 0.0
161 ; 3265031.717448266 ; 2.027650146122109E8 ; 5.39125024135318E8 ; 3.085560766901017E10 ; 0.0
162 ; 3258599.69491884 ; 2.0277770168048882E8 ; 5.423900558527663E8 ; 3.105837268362238E10 ; 0.0
163 ; 3255848.427677663 ; 2.0279035153887972E8 ; 5.456486555476851E8 ; 3.1261150385302868E10 ; 0.0
164 ; 3247713.5072469325 ; 2.0280296379550737E8 ; 5.489045039753628E8 ; 3.1463940736841747E10 ; 0.0
165 ; 3240434.944977923 ; 2.0281553806268498E8 ; 5.521522174826097E8 ; 3.1666743700637253E10 ; 0.0
166 ; 3235596.0740450956 ; 2.0282807395682496E8 ; 5.553926524275876E8 ; 3.1869559238699936E10 ; 0.0
167 ; 3234162.9776601167 ; 2.0284057109835193E8 ; 5.586282485016327E8 ; 3.207238731265676E10 ; 0.0
168 ; 3224485.03533695 ; 2.0285302911161855E8 ; 5.618624114792928E8 ; 3.227522788375511E10 ; 0.0
169 ; 3218851.389283803 ; 2.0286544762482458E8 ; 5.650868965146297E8 ; 3.247808091286673E10 ; 0.0
170 ; 3216556.3511601347 ; 2.028778262699385E8 ; 5.683057479039135E8 ; 3.2680946360491554E10 ; 0.0
171 ; 3207546.921005685 ; 2.02890164682622E8 ; 5.715223042550737E8 ; 3.2883824186761494E10 ; 0.0
172 ; 3201203.529408487 ; 2.029024625021569E8 ; 5.747298511760794E8 ; 3.3086714351444115E10 ; 0.0
173 ; 3197177.3964918363 ; 2.02914719371375E8 ; 5.779310547054878E8 ; 3.328961681394627E10 ; 0.0
174 ; 3195528.597909999 ; 2.029269349365896E8 ; 5.811282321019797E8 ; 3.3492531533317646E10 ; 0.0
175 ; 3188244.64060362 ; 2.029391088475302E8 ; 5.843237606998898E8 ; 3.3695458468254234E10 ; 0.0
176 ; 3187390.53146641 ; 2.0295124075727874E8 ; 5.875120053404934E8 ; 3.3898397577101765E10 ; 0.0
177 ; 3179677.2529531843 ; 2.0296333032220855E8 ; 5.906993958719598E8 ; 3.4101348817859043E10 ; 0.0
178 ; 3179759.0967425467 ; 2.029753772019249E8 ; 5.93879073124913E8 ; 3.430431214818125E10 ; 0.0
179 ; 3175235.6057307334 ; 2.0298738105920792E8 ; 5.970588322216555E8 ; 3.450728752538318E10 ; 0.0
180 ; 3169491.7203710615 ; 2.0299934155995727E8 ; 6.002340678273863E8 ; 3.471027490644238E10 ; 0.0
181 ; 3167069.9995553377 ; 2.0301125837313867E8 ; 6.034035595477573E8 ; 3.491327424800234E10 ; 0.0
182 ; 3159168.6741749747 ; 2.0302313117073235E8 ; 6.065706295473126E8 ; 3.511628550637548E10 ; 0.0
183 ; 3157632.7151477905 ; 2.0303495962768307E8 ; 6.097297982214876E8 ; 3.531930863754621E10 ; 0.0
184 ; 3152614.15379664 ; 2.0304674342185193E8 ; 6.128874309366354E8 ; 3.55223435971739E10 ; 0.0
185 ; 3151342.407805143 ; 2.030584822339697E8 ; 6.16040045090432E8 ; 3.572539034059575E10 ; 0.0
186 ; 3147988.207352433 ; 2.030701757475918E8 ; 6.191913874982371E8 ; 3.592844882282972E10 ; 0.0
187 ; 3138792.903062838 ; 2.0308182364905468E8 ; 6.223393757055895E8 ; 3.613151899857731E10 ; 0.0
188 ; 3142231.1805182835 ; 2.0309342562743366E8 ; 6.254781686086524E8 ; 3.6334600822226364E10 ; 0.0
189 ; 3133986.5930494675 ; 2.0310498137450224E8 ; 6.286203997891706E8 ; 3.65376942478538E10 ; 0.0
190 ; 3128595.221430216 ; 2.031164905846927E8 ; 6.317543863822201E8 ; 3.67407992292283E10 ; 0.0
191 ; 3128923.1433784817 ; 2.031279529550579E8 ; 6.348829816036503E8 ; 3.6943915719812996E10 ; 0.0
192 ; 3120569.527389661 ; 2.0313936818523455E8 ; 6.380119047470288E8 ; 3.714704367276805E10 ; 0.0
193 ; 3120072.051840756 ; 2.0315073597740746E8 ; 6.411324742744185E8 ; 3.7350183040953285E10 ; 0.0
194 ; 3115826.7119387365 ; 2.031620560362752E8 ; 6.442525463262593E8 ; 3.7553333776930695E10 ; 0.0
195 ; 3112946.6465611896 ; 2.031733280690166E8 ; 6.47368373038198E8 ; 3.775649583296697E10 ; 0.0
196 ; 3110378.2419917514 ; 2.0318455178525856E8 ; 6.504813196847591E8 ; 3.795966916103599E10 ; 0.0
197 ; 3098650.4973330707 ; 2.0319572689704484E8 ; 6.535916979267509E8 ; 3.816285371282124E10 ; 0.0
198 ; 3098805.045999175 ; 2.032068531188058E8 ; 6.56690348424084E8 ; 3.8366049439718285E10 ; 0.0
199 ; 3094401.4794294736 ; 2.0321793016732934E8 ; 6.597891534700831E8 ; 3.856925629283709E10 ; 0.0
200 ; 3088904.361475719 ; 2.0077573923287308E8 ; 6.628835549495126E8 ; 3.877247422300442E10 ; 0.0
