CSV File for the City 4 on Day 349
1 - Minute m 
2 - Power Consumed at minute m 
3 - Power Produced at minute m 
4 - Energy Consumed since the beginning of the day 
5 - Energy Produced since the beginning of the day 
6 - Energy Lost since the beginning of the day on lines starting from the city
 
0 ; 6829941.345790423 ; 1.0627129601051858E8 ; 0.0 ; 0.0 ; 0.0
1 ; 6838933.501866941 ; 1.064218689715696E8 ; 6829941.345790423 ; 1.0627129601051858E8 ; 0.0
2 ; 6844543.406684542 ; 1.0688146686982313E8 ; 1.3668874847657364E7 ; 2.1269316498208818E8 ; 0.0
3 ; 6855273.185749189 ; 1.0765009347768623E8 ; 2.0513418254341908E7 ; 3.195746318519113E8 ; 0.0
4 ; 6864308.837617545 ; 1.0872775217195487E8 ; 2.7368691440091096E7 ; 4.2722472532959753E8 ; 0.0
5 ; 6876950.571543469 ; 1.1011444591644591E8 ; 3.423300027770864E7 ; 5.359524775015524E8 ; 0.0
6 ; 6894104.540302516 ; 1.11810177246483E8 ; 4.110995084925211E7 ; 6.460669234179983E8 ; 0.0
7 ; 6915424.97176286 ; 1.1381494825542498E8 ; 4.800405538955463E7 ; 7.578771006644813E8 ; 0.0
8 ; 6946894.874302651 ; 1.1612876058340275E8 ; 5.4919480361317486E7 ; 8.716920489199063E8 ; 0.0
9 ; 6996918.6110966485 ; 1.1875161540840536E8 ; 6.186637523562013E7 ; 9.87820809503309E8 ; 0.0
10 ; 7074326.645243035 ; 1.2168351343983006E8 ; 6.886329384671678E7 ; 1.1065724249117143E9 ; 0.0
11 ; 7199737.699420842 ; 1.2492445491457823E8 ; 7.593762049195981E7 ; 1.2282559383515444E9 ; 0.0
12 ; 7399325.173231224 ; 1.2847443959574845E8 ; 8.313735819138065E7 ; 1.3531803932661226E9 ; 0.0
13 ; 7590424.456997898 ; 1.3233346677394348E8 ; 9.053668336461188E7 ; 1.481654832861871E9 ; 0.0
14 ; 7610672.368706677 ; 1.3650153527117437E8 ; 9.812710782160978E7 ; 1.6139882996358144E9 ; 0.0
15 ; 7617431.921880708 ; 1.409786434473101E8 ; 1.0573778019031645E8 ; 1.7504898349069889E9 ; 0.0
16 ; 7627443.242422371 ; 1.4576478920899191E8 ; 1.1335521211219716E8 ; 1.891468478354299E9 ; 0.0
17 ; 7636058.2534552505 ; 1.508599700208961E8 ; 1.2098265535461953E8 ; 2.037233267563291E9 ; 0.0
18 ; 7646985.109014185 ; 1.5626418291920584E8 ; 1.2861871360807478E8 ; 2.188093237584187E9 ; 0.0
19 ; 7656375.74879624 ; 1.6197742452712515E8 ; 1.3626569871708897E8 ; 2.3443574205033927E9 ; 0.0
20 ; 7664524.854427465 ; 1.6799969107224694E8 ; 1.4392207446588522E8 ; 2.506334845030518E9 ; 0.0
21 ; 7673189.2804811215 ; 1.7433097840557215E8 ; 1.5158659932031268E8 ; 2.674334536102765E9 ; 0.0
22 ; 7684424.872192651 ; 1.8097128202196097E8 ; 1.592597886007938E8 ; 2.848665514508337E9 ; 0.0
23 ; 7692245.252703061 ; 1.8792059708179128E8 ; 1.6694421347298646E8 ; 3.029636796530298E9 ; 0.0
24 ; 7702444.991733518 ; 1.951789184335922E8 ; 1.7463645872568953E8 ; 3.2175573936120896E9 ; 0.0
25 ; 7710818.302898395 ; 2.014342815356071E8 ; 1.8233890371742305E8 ; 3.412736312045682E9 ; 0.0
26 ; 7719203.898072702 ; 2.0144022851658568E8 ; 1.9004972202032146E8 ; 3.6141705935812893E9 ; 0.0
27 ; 7726612.873386836 ; 2.0144652272488093E8 ; 1.9776892591839415E8 ; 3.815610822097875E9 ; 0.0
28 ; 7734345.134513114 ; 2.014531579995015E8 ; 2.0549553879178098E8 ; 4.017057344822756E9 ; 0.0
29 ; 7742672.227358659 ; 2.0146012798752546E8 ; 2.132298839262941E8 ; 4.2185105028222575E9 ; 0.0
30 ; 7755269.331639233 ; 2.0146742616797483E8 ; 2.2097255615365276E8 ; 4.419970630809783E9 ; 0.0
31 ; 7759562.447008262 ; 2.0147504587522912E8 ; 2.28727825485292E8 ; 4.621438056977757E9 ; 0.0
32 ; 7770031.939398542 ; 2.0148298032182908E8 ; 2.3648738793230024E8 ; 4.822913102852986E9 ; 0.0
33 ; 7776562.326529437 ; 2.014912226205403E8 ; 2.442574198716988E8 ; 5.024396083174815E9 ; 0.0
34 ; 7784262.235810959 ; 2.014997658055648E8 ; 2.5203398219822824E8 ; 5.225887305795356E9 ; 0.0
35 ; 7789478.88297323 ; 2.015086028528068E8 ; 2.598182444340392E8 ; 5.427387071600921E9 ; 0.0
36 ; 7798387.023571822 ; 2.01517726699118E8 ; 2.6760772331701243E8 ; 5.628895674453728E9 ; 0.0
37 ; 7806266.995774721 ; 2.015271302604636E8 ; 2.754061103405843E8 ; 5.830413401152845E9 ; 0.0
38 ; 7809836.989794829 ; 2.0153680644896835E8 ; 2.83212377336359E8 ; 6.031940531413309E9 ; 0.0
39 ; 7818675.469014797 ; 2.0154674818881512E8 ; 2.910222143261539E8 ; 6.233477337862277E9 ; 0.0
40 ; 7824607.469845025 ; 2.0155694843098414E8 ; 2.988408897951687E8 ; 6.435024086051092E9 ; 0.0
41 ; 7830031.136271232 ; 2.0156740016683272E8 ; 3.066654972650137E8 ; 6.636581034482077E9 ; 0.0
42 ; 7836006.11729771 ; 2.0157809644052616E8 ; 3.1449552840128493E8 ; 6.83814843464891E9 ; 0.0
43 ; 7840632.505886399 ; 2.0158903036034113E8 ; 3.2233153451858264E8 ; 7.039726531089436E9 ; 0.0
44 ; 7846471.9991096435 ; 2.0160019510887003E8 ; 3.30172167024469E8 ; 7.241315561449777E9 ; 0.0
45 ; 7852686.43570895 ; 2.0161158395216268E8 ; 3.3801863902357864E8 ; 7.442915756558647E9 ; 0.0
46 ; 7856139.713154685 ; 2.016231902478468E8 ; 3.458713254592876E8 ; 7.64452734051081E9 ; 0.0
47 ; 7859049.426161125 ; 2.0163500745227328E8 ; 3.5372746517244226E8 ; 7.8461505307586565E9 ; 0.0
48 ; 7862156.5244011795 ; 2.0164702912673584E8 ; 3.6158651459860337E8 ; 8.04778553821093E9 ; 0.0
49 ; 7866870.89528436 ; 2.0165924894281685E8 ; 3.6944867112300456E8 ; 8.249432567337666E9 ; 0.0
50 ; 7868240.034629296 ; 2.016716606869128E8 ; 3.773155420182889E8 ; 8.451091816280482E9 ; 0.0
51 ; 7870138.379708498 ; 2.0168425826399288E8 ; 3.851837820529182E8 ; 8.652763476967396E9 ; 0.0
52 ; 7870767.746930393 ; 2.0169703570064527E8 ; 3.9305392043262666E8 ; 8.854447735231388E9 ; 0.0
53 ; 7872878.004001257 ; 2.0170998714746448E8 ; 4.009246881795571E8 ; 9.056144770932034E9 ; 0.0
54 ; 7876673.118055363 ; 2.0172310688083184E8 ; 4.0879756618355834E8 ; 9.257854758079498E9 ; 0.0
55 ; 7877883.9850243125 ; 2.0173638930414024E8 ; 4.166742393016137E8 ; 9.459577864960331E9 ; 0.0
56 ; 7879709.248849826 ; 2.0174982894851238E8 ; 4.24552123286638E8 ; 9.661314254264471E9 ; 0.0
57 ; 7883754.970354621 ; 2.0176342047305948E8 ; 4.3243183253548783E8 ; 9.863064083212984E9 ; 0.0
58 ; 7886300.132687143 ; 2.017771586647253E8 ; 4.4031558750584245E8 ; 1.0064827503686043E10 ; 0.0
59 ; 7889156.21788013 ; 2.0179103843775824E8 ; 4.482018876385296E8 ; 1.0266604662350769E10 ; 0.0
60 ; 7889213.648967406 ; 2.0180505483285102E8 ; 4.560910438564097E8 ; 1.0468395700788527E10 ; 0.0
61 ; 7891416.989919764 ; 2.0181920301598632E8 ; 4.639802575053771E8 ; 1.0670200755621378E10 ; 0.0
62 ; 7892740.925360314 ; 2.0183347827702275E8 ; 4.718716744952969E8 ; 1.0872019958637363E10 ; 0.0
63 ; 7895363.074197546 ; 2.0184787602805406E8 ; 4.797644154206572E8 ; 1.1073853436914387E10 ; 0.0
64 ; 7895282.914549704 ; 2.0186239180157194E8 ; 4.8765977849485475E8 ; 1.127570131294244E10 ; 0.0
65 ; 7897883.361148732 ; 2.0187702124846002E8 ; 4.9555506140940446E8 ; 1.1477563704744013E10 ; 0.0
66 ; 7899870.559620495 ; 2.0189176013584474E8 ; 5.034529447705532E8 ; 1.1679440725992474E10 ; 0.0
67 ; 7900107.50738251 ; 2.0190660434482643E8 ; 5.113528153301737E8 ; 1.1881332486128319E10 ; 0.0
68 ; 7903835.089105201 ; 2.0192154986811218E8 ; 5.192529228375562E8 ; 1.2083239090473145E10 ; 0.0
69 ; 7901507.277300666 ; 2.0193659280756956E8 ; 5.271567579266614E8 ; 1.2285160640341257E10 ; 0.0
70 ; 7905175.577106102 ; 2.0195172937171924E8 ; 5.35058265203962E8 ; 1.2487097233148827E10 ; 0.0
71 ; 7904461.220138007 ; 2.019669558731814E8 ; 5.429634407810681E8 ; 1.2689048962520546E10 ; 0.0
72 ; 7902894.201751986 ; 2.0198226872609153E8 ; 5.50867902001206E8 ; 1.2891015918393728E10 ; 0.0
73 ; 7908339.443264842 ; 2.0199766444349685E8 ; 5.58770796202958E8 ; 1.309299818711982E10 ; 0.0
74 ; 7909179.418403805 ; 2.0201313963474578E8 ; 5.666791356462228E8 ; 1.3294995851563316E10 ; 0.0
75 ; 7909882.40182511 ; 2.020286910028799E8 ; 5.745883150646267E8 ; 1.3497008991198063E10 ; 0.0
76 ; 7909637.817379431 ; 2.0204431534203738E8 ; 5.824981974664518E8 ; 1.3699037682200943E10 ; 0.0
77 ; 7909471.389195216 ; 2.0206000953487593E8 ; 5.904078352838312E8 ; 1.390108199754298E10 ; 0.0
78 ; 7908826.535726867 ; 2.020757705500213E8 ; 5.983173066730264E8 ; 1.4103142007077856E10 ; 0.0
79 ; 7906951.796036805 ; 2.020915954395481E8 ; 6.062261332087533E8 ; 1.4305217777627878E10 ; 0.0
80 ; 7904345.023961634 ; 2.0210748133649746E8 ; 6.141330850047902E8 ; 1.4507309373067427E10 ; 0.0
81 ; 7901225.7541808905 ; 2.021234254524355E8 ; 6.220374300287519E8 ; 1.4709416854403925E10 ; 0.0
82 ; 7899843.510458882 ; 2.021394250750572E8 ; 6.299386557829328E8 ; 1.4911540279856361E10 ; 0.0
83 ; 7896995.51194439 ; 2.0215547756583762E8 ; 6.378384992933916E8 ; 1.511367970493142E10 ; 0.0
84 ; 7896036.9392851135 ; 2.0217158035773352E8 ; 6.45735494805336E8 ; 1.5315835182497257E10 ; 0.0
85 ; 7893531.347124916 ; 2.021877309529372E8 ; 6.536315317446212E8 ; 1.551800676285499E10 ; 0.0
86 ; 7892510.271170487 ; 2.02203926920684E8 ; 6.615250630917461E8 ; 1.5720194493807928E10 ; 0.0
87 ; 7891520.027298474 ; 2.022201658951148E8 ; 6.694175733629166E8 ; 1.5922398420728613E10 ; 0.0
88 ; 7887502.092773189 ; 2.0223644557319376E8 ; 6.77309093390215E8 ; 1.6124618586623728E10 ; 0.0
89 ; 7885081.320271444 ; 2.0225276371268255E8 ; 6.851965954829882E8 ; 1.6326855032196922E10 ; 0.0
90 ; 7883106.28688058 ; 2.0226911813017058E8 ; 6.930816768032597E8 ; 1.6529107795909605E10 ; 0.0
91 ; 7880753.8597740475 ; 2.0228550669916162E8 ; 7.009647830901403E8 ; 1.6731376914039776E10 ; 0.0
92 ; 7876492.328924819 ; 2.023019273482162E8 ; 7.088455369499143E8 ; 1.6933662420738937E10 ; 0.0
93 ; 7876685.324785954 ; 2.0231837805914974E8 ; 7.167220292788391E8 ; 1.7135964348087154E10 ; 0.0
94 ; 7873716.393486664 ; 2.023348568652854E8 ; 7.24598714603625E8 ; 1.7338282726146305E10 ; 0.0
95 ; 7870600.415354882 ; 2.0235136184976152E8 ; 7.324724309971117E8 ; 1.754061758301159E10 ; 0.0
96 ; 7864777.15134655 ; 2.02367891143892E8 ; 7.403430314124665E8 ; 1.774296894486135E10 ; 0.0
97 ; 7862930.046551903 ; 2.023844429255793E8 ; 7.482078085638131E8 ; 1.794533683600524E10 ; 0.0
98 ; 7862666.692305708 ; 2.024010154177792E8 ; 7.56070738610365E8 ; 1.814772127893082E10 ; 0.0
99 ; 7858574.554284134 ; 2.0241760688701525E8 ; 7.639334053026707E8 ; 1.83501222943486E10 ; 0.0
100 ; 7852830.714272609 ; 2.024342156419431E8 ; 7.717919798569548E8 ; 1.8552539901235615E10 ; 0.0
101 ; 7849095.054575276 ; 2.0245084003196234E8 ; 7.796448105712274E8 ; 1.875497411687756E10 ; 0.0
102 ; 7847222.739075312 ; 2.0246747844587564E8 ; 7.874939056258028E8 ; 1.8957424956909523E10 ; 0.0
103 ; 7846960.445318266 ; 2.0248412931059328E8 ; 7.95341128364878E8 ; 1.91598924353554E10 ; 0.0
104 ; 7838825.944981666 ; 2.0250079108988184E8 ; 8.031880888101963E8 ; 1.9362376564665993E10 ; 0.0
105 ; 7836550.420820705 ; 2.0251746228315654E8 ; 8.11026914755178E8 ; 1.9564877355755875E10 ; 0.0
106 ; 7833985.026048414 ; 2.0253414142431495E8 ; 8.188634651759987E8 ; 1.9767394818039032E10 ; 0.0
107 ; 7830611.311638942 ; 2.0255082708061168E8 ; 8.266974502020471E8 ; 1.996992895946335E10 ; 0.0
108 ; 7825267.564047326 ; 2.025675178515722E8 ; 8.345280615136861E8 ; 2.017247978654396E10 ; 0.0
109 ; 7823974.109822198 ; 2.0258421236794493E8 ; 8.423533290777334E8 ; 2.0375047304395535E10 ; 0.0
110 ; 7817148.537966546 ; 2.026009092906904E8 ; 8.501773031875556E8 ; 2.057763151676348E10 ; 0.0
111 ; 7813719.7010910725 ; 2.0261760731000593E8 ; 8.57994451725522E8 ; 2.0780232426054173E10 ; 0.0
112 ; 7808516.052914126 ; 2.0263430514438507E8 ; 8.658081714266131E8 ; 2.0982850033364178E10 ; 0.0
113 ; 7804858.6562203765 ; 2.0265100153971034E8 ; 8.736166874795272E8 ; 2.1185484338508564E10 ; 0.0
114 ; 7802199.9463598905 ; 2.0266769526837844E8 ; 8.814215461357477E8 ; 2.1388135340048275E10 ; 0.0
115 ; 7795057.947036011 ; 2.0268438512845653E8 ; 8.892237460821075E8 ; 2.1590803035316654E10 ; 0.0
116 ; 7793749.895390351 ; 2.0270106994286862E8 ; 8.970188040291436E8 ; 2.179348742044511E10 ; 0.0
117 ; 7789602.190928501 ; 2.027177485586112E8 ; 9.04812553924534E8 ; 2.1996188490387978E10 ; 0.0
118 ; 7783205.786142736 ; 2.0273441984599686E8 ; 9.126021561154624E8 ; 2.219890623894659E10 ; 0.0
119 ; 7779873.514577065 ; 2.0275108269792485E8 ; 9.203853619016051E8 ; 2.2401640658792587E10 ; 0.0
120 ; 7777426.7055745805 ; 2.0276773602917802E8 ; 9.281652354161822E8 ; 2.2604391741490513E10 ; 0.0
121 ; 7773159.399921177 ; 2.0278437877574468E8 ; 9.359426621217568E8 ; 2.280715947751969E10 ; 0.0
122 ; 7766148.741675271 ; 2.028010098941649E8 ; 9.43715821521678E8 ; 2.3009943856295437E10 ; 0.0
123 ; 7762827.961662497 ; 2.0281762836090016E8 ; 9.514819702633532E8 ; 2.32127448661896E10 ; 0.0
124 ; 7755298.132495821 ; 2.0283423317172557E8 ; 9.592447982250158E8 ; 2.3415562494550503E10 ; 0.0
125 ; 7751563.535971205 ; 2.028508233411438E8 ; 9.670000963575116E8 ; 2.361839672772223E10 ; 0.0
126 ; 7745623.947455121 ; 2.0286739790181983E8 ; 9.747516598934828E8 ; 2.3821247551063374E10 ; 0.0
127 ; 7739092.271939083 ; 2.0288395590403613E8 ; 9.82497283840938E8 ; 2.4024114948965195E10 ; 0.0
128 ; 7736786.714475066 ; 2.0290049641516703E8 ; 9.90236376112877E8 ; 2.4226998904869232E10 ; 0.0
129 ; 7731101.129920541 ; 2.0291701851917192E8 ; 9.97973162827352E8 ; 2.44298994012844E10 ; 0.0
130 ; 7721499.851817047 ; 2.0293352131610638E8 ; 1.0057042639572725E9 ; 2.4632816419803574E10 ; 0.0
131 ; 7714050.92209032 ; 2.0295000392165077E8 ; 1.0134257638090895E9 ; 2.483574994111968E10 ; 0.0
132 ; 7707731.424108594 ; 2.0296646546665546E8 ; 1.0211398147311798E9 ; 2.503869994504133E10 ; 0.0
133 ; 7701975.5854822 ; 2.0298290509670213E8 ; 1.0288475461552885E9 ; 2.5241666410507984E10 ; 0.0
134 ; 7692722.82514383 ; 2.029993219716807E8 ; 1.0365495217407707E9 ; 2.5444649315604687E10 ; 0.0
135 ; 7684355.932939537 ; 2.0301571526538098E8 ; 1.0442422445659145E9 ; 2.5647648637576366E10 ; 0.0
136 ; 7677734.78025803 ; 2.0303208416509882E8 ; 1.051926600498854E9 ; 2.5850664352841747E10 ; 0.0
137 ; 7667594.223737256 ; 2.0304842787125617E8 ; 1.0596043352791121E9 ; 2.6053696437006847E10 ; 0.0
138 ; 7660111.335920891 ; 2.0306474559703413E8 ; 1.0672719295028493E9 ; 2.6256744864878105E10 ; 0.0
139 ; 7652728.042701813 ; 2.030810365680193E8 ; 1.0749320408387702E9 ; 2.645980961047514E10 ; 0.0
140 ; 7643190.545493136 ; 2.0309730002186203E8 ; 1.0825847688814719E9 ; 2.666289064704316E10 ; 0.0
141 ; 7638069.736910997 ; 2.031135352079469E8 ; 1.090227959426965E9 ; 2.686598794706502E10 ; 0.0
142 ; 7626130.156455477 ; 2.031297413870744E8 ; 1.097866029163876E9 ; 2.706910148227297E10 ; 0.0
143 ; 7620219.028931093 ; 2.0314591783115387E8 ; 1.1054921593203316E9 ; 2.727223122366004E10 ; 0.0
144 ; 7610597.162655696 ; 2.031620638229068E8 ; 1.1131123783492627E9 ; 2.7475377141491196E10 ; 0.0
145 ; 7600016.980509541 ; 2.0317817865558067E8 ; 1.1207229755119183E9 ; 2.7678539205314102E10 ; 0.0
146 ; 7599545.590772068 ; 2.031942616326723E8 ; 1.1283229924924278E9 ; 2.7881717383969685E10 ; 0.0
147 ; 7590680.0255953055 ; 2.0321031206766105E8 ; 1.1359225380832E9 ; 2.8084911645602356E10 ; 0.0
148 ; 7586625.915435977 ; 2.0322632928375077E8 ; 1.1435132181087952E9 ; 2.8288121957670017E10 ; 0.0
149 ; 7581058.922525355 ; 2.0324231261362088E8 ; 1.1510998440242312E9 ; 2.849134828695377E10 ; 0.0
150 ; 7575962.586803354 ; 2.0325826139918578E8 ; 1.1586809029467566E9 ; 2.869459059956739E10 ; 0.0
151 ; 7568883.448533635 ; 2.0327417499136248E8 ; 1.16625686553356E9 ; 2.8897848860966576E10 ; 0.0
152 ; 7562189.3950104 ; 2.0329005274984604E8 ; 1.1738257489820936E9 ; 2.910112303595794E10 ; 0.0
153 ; 7556872.287026476 ; 2.0330589404289266E8 ; 1.181387938377104E9 ; 2.9304413088707787E10 ; 0.0
154 ; 7549746.6702057095 ; 2.0332169824711007E8 ; 1.1889448106641304E9 ; 2.950771898275068E10 ; 0.0
155 ; 7544628.811360622 ; 2.0333746474725494E8 ; 1.196494557334336E9 ; 2.9711040680997787E10 ; 0.0
156 ; 7540204.33195663 ; 2.0335319293603712E8 ; 1.2040391861456966E9 ; 2.991437814574504E10 ; 0.0
157 ; 7532874.211703694 ; 2.033688822139304E8 ; 1.2115793904776533E9 ; 3.011773133868108E10 ; 0.0
158 ; 7525272.474840969 ; 2.0338453198898953E8 ; 1.219112264689357E9 ; 3.032110022089501E10 ; 0.0
159 ; 7521986.358535123 ; 2.0340014167667344E8 ; 1.226637537164198E9 ; 3.0524484752884003E10 ; 0.0
160 ; 7515825.938168044 ; 2.0341571069967425E8 ; 1.234159523522733E9 ; 3.0727884894560677E10 ; 0.0
161 ; 7509545.295797138 ; 2.0343123848775187E8 ; 1.241675349460901E9 ; 3.093130060526035E10 ; 0.0
162 ; 7501661.924366717 ; 2.0344672447757432E8 ; 1.2491848947566981E9 ; 3.11347318437481E10 ; 0.0
163 ; 7500007.19423486 ; 2.034621681125628E8 ; 1.2566865566810648E9 ; 3.1338178568225674E10 ; 0.0
164 ; 7489646.495609951 ; 2.0347756884274256E8 ; 1.2641865638752997E9 ; 3.1541640736338238E10 ; 0.0
165 ; 7482251.503110959 ; 2.0349292612459782E8 ; 1.2716762103709097E9 ; 3.174511830518098E10 ; 0.0
166 ; 7478751.465624441 ; 2.035082394209322E8 ; 1.2791584618740206E9 ; 3.194861123130558E10 ; 0.0
167 ; 7471042.9496704275 ; 2.0352350820073313E8 ; 1.286637213339645E9 ; 3.2152119470726513E10 ; 0.0
168 ; 7462727.092440405 ; 2.03538731939041E8 ; 1.2941082562893152E9 ; 3.2355642978927246E10 ; 0.0
169 ; 7457019.478746624 ; 2.0355391011682233E8 ; 1.3015709833817556E9 ; 3.2559181710866287E10 ; 0.0
170 ; 7452955.859274043 ; 2.0356904222084713E8 ; 1.3090280028605022E9 ; 3.276273562098311E10 ; 0.0
171 ; 7446490.232356413 ; 2.0358412774357033E8 ; 1.3164809587197764E9 ; 3.2966304663203957E10 ; 0.0
172 ; 7439703.773547787 ; 2.0359916618301675E8 ; 1.3239274489521327E9 ; 3.3169888790947525E10 ; 0.0
173 ; 7434786.434461678 ; 2.0361415704266992E8 ; 1.3313671527256806E9 ; 3.3373487957130543E10 ; 0.0
174 ; 7427039.3820082415 ; 2.036290998313645E8 ; 1.3388019391601422E9 ; 3.3577102114173214E10 ; 0.0
175 ; 7427862.817012847 ; 2.036439940631821E8 ; 1.3462289785421505E9 ; 3.3780731214004578E10 ; 0.0
176 ; 7421419.078223613 ; 2.0365883925735012E8 ; 1.3536568413591633E9 ; 3.398437520806776E10 ; 0.0
177 ; 7415354.370879048 ; 2.036736349381444E8 ; 1.361078260437387E9 ; 3.418803404732511E10 ; 0.0
178 ; 7413583.163463236 ; 2.0368838063479435E8 ; 1.368493614808266E9 ; 3.439170768226325E10 ; 0.0
179 ; 7407434.252011407 ; 2.037030758813915E8 ; 1.3759071979717293E9 ; 3.459539606289805E10 ; 0.0
180 ; 7403504.082968783 ; 2.0371772021680054E8 ; 1.3833146322237406E9 ; 3.479909913877944E10 ; 0.0
181 ; 7403048.0694648335 ; 2.0373231318457362E8 ; 1.3907181363067093E9 ; 3.500281685899624E10 ; 0.0
182 ; 7399297.146675352 ; 2.037468543328669E8 ; 1.3981211843761742E9 ; 3.520654917218081E10 ; 0.0
183 ; 7390650.654069291 ; 2.0376134321435997E8 ; 1.4055204815228496E9 ; 3.541029602651368E10 ; 0.0
184 ; 7385946.741614017 ; 2.037757793861777E8 ; 1.4129111321769187E9 ; 3.561405736972804E10 ; 0.0
185 ; 7382300.770164403 ; 2.037901624098145E8 ; 1.4202970789185328E9 ; 3.581783314911422E10 ; 0.0
186 ; 7380247.697423136 ; 2.0380449185106102E8 ; 1.4276793796886973E9 ; 3.602162331152403E10 ; 0.0
187 ; 7377160.002142683 ; 2.0381876727993304E8 ; 1.4350596273861206E9 ; 3.622542780337509E10 ; 0.0
188 ; 7371852.78523033 ; 2.0383298827060246E8 ; 1.4424367873882632E9 ; 3.642924657065502E10 ; 0.0
189 ; 7372435.045263062 ; 2.0384715440133074E8 ; 1.4498086401734936E9 ; 3.663307955892562E10 ; 0.0
190 ; 7366233.039119211 ; 2.0386126525440407E8 ; 1.4571810752187567E9 ; 3.683692671332695E10 ; 0.0
191 ; 7361574.000400485 ; 2.0387532041607058E8 ; 1.464547308257876E9 ; 3.704078797858135E10 ; 0.0
192 ; 7357322.878400607 ; 2.038893194764797E8 ; 1.4719088822582765E9 ; 3.724466329899742E10 ; 0.0
193 ; 7353113.551063447 ; 2.0390326202962315E8 ; 1.479266205136677E9 ; 3.74485526184739E10 ; 0.0
194 ; 7349161.661999449 ; 2.0391714767327768E8 ; 1.4866193186877406E9 ; 3.7652455880503525E10 ; 0.0
195 ; 7346407.121474124 ; 2.039309760089498E8 ; 1.49396848034974E9 ; 3.78563730281768E10 ; 0.0
196 ; 7340767.601168858 ; 2.039447466418221E8 ; 1.501314887471214E9 ; 3.806030400418575E10 ; 0.0
197 ; 7338045.8022934515 ; 2.03958459180701E8 ; 1.508655655072383E9 ; 3.8264248750827576E10 ; 0.0
198 ; 7333011.6706939805 ; 2.0397211323796636E8 ; 1.5159937008746765E9 ; 3.846820721000828E10 ; 0.0
199 ; 7330014.023875541 ; 2.0398570842952248E8 ; 1.5233267125453703E9 ; 3.867217932324625E10 ; 0.0
200 ; 7326046.586497819 ; 1.722707550660241E8 ; 1.5306567265692458E9 ; 3.8876165031675766E10 ; 0.0
201 ; 7320013.180367684 ; 1.5517272747760674E8 ; 1.5379827731557436E9 ; 3.904843578674179E10 ; 0.0
