CSV File for the City 6 on Day 182
1 - Minute m 
2 - Power Consumed at minute m 
3 - Power Produced at minute m 
4 - Energy Consumed since the beginning of the day 
5 - Energy Produced since the beginning of the day 
6 - Energy Lost since the beginning of the day on lines starting from the city
 
0 ; 2363635.23012116 ; 1.0595723137507537E8 ; 0.0 ; 0.0 ; 0.0
1 ; 2372722.1591509185 ; 1.0610800464729959E8 ; 2363635.23012116 ; 1.0595723137507537E8 ; 0.0
2 ; 2386328.849579515 ; 1.0656777908936062E8 ; 4736357.389272079 ; 2.1206523602237496E8 ; 0.0
3 ; 2394455.226731581 ; 1.0733655931499922E8 ; 7122686.238851594 ; 3.186330151117356E8 ; 0.0
4 ; 2414069.6897931965 ; 1.0841434947339255E8 ; 9517141.465583175 ; 4.259695744267348E8 ; 0.0
5 ; 2432717.8781826086 ; 1.0980115322133887E8 ; 1.1931211155376371E7 ; 5.3438392390012735E8 ; 0.0
6 ; 2457152.8148946236 ; 1.1149697369816676E8 ; 1.436392903355898E7 ; 6.441850771214662E8 ; 0.0
7 ; 2494745.1977686733 ; 1.1350181350376123E8 ; 1.6821081848453604E7 ; 7.556820508196329E8 ; 0.0
8 ; 2550090.465806184 ; 1.1581567468006164E8 ; 1.9315827046222277E7 ; 8.691838643233941E8 ; 0.0
9 ; 2625330.7483426314 ; 1.1843855869633555E8 ; 2.186591751202846E7 ; 9.849995390034556E8 ; 0.0
10 ; 2753883.789655865 ; 1.2137046643847656E8 ; 2.449124826037109E7 ; 1.1034380976997912E9 ; 0.0
11 ; 2948379.615612373 ; 1.2461139820250842E8 ; 2.7245132050026953E7 ; 1.2248085641382678E9 ; 0.0
12 ; 3263363.2733131186 ; 1.2816135369240734E8 ; 3.0193511665639326E7 ; 1.3494199623407762E9 ; 0.0
13 ; 3568118.99758248 ; 1.3202033202227974E8 ; 3.3456874938952446E7 ; 1.4775813160331836E9 ; 0.0
14 ; 3607768.520921436 ; 1.3618833172285813E8 ; 3.702499393653493E7 ; 1.6096016480554633E9 ; 0.0
15 ; 3619515.3888527425 ; 1.4066535075220305E8 ; 4.0632762457456365E7 ; 1.7457899797783215E9 ; 0.0
16 ; 3633953.773059406 ; 1.454513865104296E8 ; 4.425227784630911E7 ; 1.8864553305305245E9 ; 0.0
17 ; 3646174.962451991 ; 1.505464358582091E8 ; 4.7886231619368516E7 ; 2.031906717040954E9 ; 0.0
18 ; 3661587.6121975356 ; 1.5595049513874334E8 ; 5.153240658182051E7 ; 2.1824531528991632E9 ; 0.0
19 ; 3673662.9736436075 ; 1.6166356020285514E8 ; 5.519399419401804E7 ; 2.3384036480379066E9 ; 0.0
20 ; 3685194.2038950273 ; 1.6768562643680373E8 ; 5.886765716766165E7 ; 2.5000672082407618E9 ; 0.0
21 ; 3704301.863756174 ; 1.7401668879240397E8 ; 6.255285137155668E7 ; 2.6677528346775656E9 ; 0.0
22 ; 3719013.69100004 ; 1.8065674181901097E8 ; 6.625715323531285E7 ; 2.8417695234699697E9 ; 0.0
23 ; 3731448.635190643 ; 1.8760577969692683E8 ; 6.99761669263129E7 ; 3.0224262652889805E9 ; 0.0
24 ; 3746059.5729544656 ; 1.9486379627178705E8 ; 7.370761556150353E7 ; 3.2100320449859076E9 ; 0.0
25 ; 3761191.385489382 ; 2.0111882598768494E8 ; 7.745367513445799E7 ; 3.4048958412576947E9 ; 0.0
26 ; 3779010.831621352 ; 2.0112440995915386E8 ; 8.121486651994738E7 ; 3.6060146672453794E9 ; 0.0
27 ; 3793252.649082555 ; 2.0113031053092587E8 ; 8.499387735156873E7 ; 3.807139077204533E9 ; 0.0
28 ; 3803514.6834984594 ; 2.0113652055898243E8 ; 8.878713000065129E7 ; 4.008269387735459E9 ; 0.0
29 ; 3820015.5034898673 ; 2.011430327371934E8 ; 9.259064468414974E7 ; 4.209405908294441E9 ; 0.0
30 ; 3831189.568131026 ; 2.011498396295585E8 ; 9.641066018763961E7 ; 4.410548941031634E9 ; 0.0
31 ; 3847053.330233161 ; 2.0115693370106974E8 ; 1.0024184975577064E8 ; 4.611698780661193E9 ; 0.0
32 ; 3859723.435957965 ; 2.011643073470089E8 ; 1.040889030860038E8 ; 4.812855714362263E9 ; 0.0
33 ; 3873393.9591265256 ; 2.0117195292053548E8 ; 1.0794862652196176E8 ; 5.014020021709271E9 ; 0.0
34 ; 3883476.101031815 ; 2.011798627584567E8 ; 1.118220204810883E8 ; 5.2151919746298065E9 ; 0.0
35 ; 3898813.803942401 ; 2.0118802920510966E8 ; 1.157054965821201E8 ; 5.416371837388264E9 ; 0.0
36 ; 3908082.9694019174 ; 2.0119644463431528E8 ; 1.196043103860625E8 ; 5.617559866593373E9 ; 0.0
37 ; 3922172.897400414 ; 2.0120510146939597E8 ; 1.2351239335546441E8 ; 5.818756311227689E9 ; 0.0
38 ; 3929883.7713780776 ; 2.012139922012719E8 ; 1.2743456625286482E8 ; 6.019961412697084E9 ; 0.0
39 ; 3941772.240165589 ; 2.012231094046752E8 ; 1.3136445002424291E8 ; 6.221175404898356E9 ; 0.0
40 ; 3954985.5202728966 ; 2.012324457525379E8 ; 1.353062222644085E8 ; 6.422398514303032E9 ; 0.0
41 ; 3964693.1209691297 ; 2.012419940286257E8 ; 1.392612077846814E8 ; 6.62363096005557E9 ; 0.0
42 ; 3973731.1247984087 ; 2.012517471385008E8 ; 1.4322590090565053E8 ; 6.824872954084195E9 ; 0.0
43 ; 3979564.501836531 ; 2.0126169811890644E8 ; 1.4719963203044894E8 ; 7.026124701222696E9 ; 0.0
44 ; 3990746.3036102746 ; 2.012718401456711E8 ; 1.5117919653228548E8 ; 7.227386399341602E9 ; 0.0
45 ; 3997435.8647739603 ; 2.0128216654023477E8 ; 1.5516994283589575E8 ; 7.428658239487273E9 ; 0.0
46 ; 4003223.4398667356 ; 2.012926707749014E8 ; 1.591673787006697E8 ; 7.629940406027508E9 ; 0.0
47 ; 4007588.2031517415 ; 2.0130334647692123E8 ; 1.6317060214053643E8 ; 7.831233076802409E9 ; 0.0
48 ; 4019617.0671304 ; 2.0131418743150526E8 ; 1.6717819034368816E8 ; 8.03253642327933E9 ; 0.0
49 ; 4022327.943807379 ; 2.0132518758387205E8 ; 1.7119780741081855E8 ; 8.233850610710835E9 ; 0.0
50 ; 4025446.970046932 ; 2.0133634104042235E8 ; 1.7522013535462594E8 ; 8.435175798294707E9 ; 0.0
51 ; 4033830.660323788 ; 2.013476420691339E8 ; 1.7924558232467288E8 ; 8.636512139335129E9 ; 0.0
52 ; 4036898.2361315745 ; 2.0135908509926277E8 ; 1.8327941298499668E8 ; 8.837859781404263E9 ; 0.0
53 ; 4042537.610057885 ; 2.0137066472043306E8 ; 1.8731631122112826E8 ; 9.039218866503525E9 ; 0.0
54 ; 4049486.222173314 ; 2.0138237568119124E8 ; 1.9135884883118615E8 ; 9.240589531223957E9 ; 0.0
55 ; 4048368.338690871 ; 2.013942128870957E8 ; 1.9540833505335945E8 ; 9.441971906905148E9 ; 0.0
56 ; 4056194.799159876 ; 2.0140617139840645E8 ; 1.9945670339205033E8 ; 9.643366119792244E9 ; 0.0
57 ; 4055753.388137228 ; 2.014182464274352E8 ; 2.035128981912102E8 ; 9.84477229119065E9 ; 0.0
58 ; 4062143.1743962034 ; 2.014304333356096E8 ; 2.0756865157934743E8 ; 1.0046190537618086E10 ; 0.0
59 ; 4066259.400715762 ; 2.0144272763030168E8 ; 2.1163079475374365E8 ; 1.0247620970953695E10 ; 0.0
60 ; 4072287.0982394447 ; 2.0145512496146452E8 ; 2.1569705415445942E8 ; 1.0449063698583998E10 ; 0.0
61 ; 4074242.136588394 ; 2.014676211181177E8 ; 2.1976934125269887E8 ; 1.0650518823545462E10 ; 0.0
62 ; 4075823.908208508 ; 2.014802120247169E8 ; 2.2384358338928726E8 ; 1.085198644466358E10 ; 0.0
63 ; 4082203.4530598996 ; 2.0149289373743987E8 ; 2.2791940729749578E8 ; 1.1053466656688297E10 ; 0.0
64 ; 4085336.197613848 ; 2.0150566244041643E8 ; 2.320016107505557E8 ; 1.1254959550425737E10 ; 0.0
65 ; 4090517.074064776 ; 2.0151851444192764E8 ; 2.3608694694816953E8 ; 1.1456465212866154E10 ; 0.0
66 ; 4098082.063852088 ; 2.01531446170596E8 ; 2.401774640222343E8 ; 1.165798372730808E10 ; 0.0
67 ; 4094677.2788155475 ; 2.0154445417158478E8 ; 2.442755460860864E8 ; 1.1859515173478676E10 ; 0.0
68 ; 4099159.104574422 ; 2.0155753510282338E8 ; 2.4837022336490193E8 ; 1.206105962765026E10 ; 0.0
69 ; 4104592.6622940274 ; 2.0157068573127258E8 ; 2.5246938246947634E8 ; 1.2262617162753084E10 ; 0.0
70 ; 4105708.7684615524 ; 2.0158390292924133E8 ; 2.5657397513177037E8 ; 1.2464187848484356E10 ; 0.0
71 ; 4108768.952290014 ; 2.0159718367076504E8 ; 2.6067968390023193E8 ; 1.2665771751413597E10 ; 0.0
72 ; 4111236.0808991655 ; 2.016105250280539E8 ; 2.6478845285252196E8 ; 1.2867368935084362E10 ; 0.0
73 ; 4115193.2475783206 ; 2.0162392416801777E8 ; 2.6889968893342113E8 ; 1.3068979460112415E10 ; 0.0
74 ; 4119286.746788342 ; 2.0163737834887308E8 ; 2.7301488218099946E8 ; 1.3270603384280434E10 ; 0.0
75 ; 4119190.6984630665 ; 2.0165088491683638E8 ; 2.771341689277878E8 ; 1.3472240762629307E10 ; 0.0
76 ; 4121585.8302108096 ; 2.016644413029073E8 ; 2.8125335962625086E8 ; 1.3673891647546143E10 ; 0.0
77 ; 4122357.5006404277 ; 2.0167804501974332E8 ; 2.8537494545646167E8 ; 1.387555608884905E10 ; 0.0
78 ; 4123686.7694772193 ; 2.016916936586286E8 ; 2.894973029571021E8 ; 1.4077234133868793E10 ; 0.0
79 ; 4121075.770138924 ; 2.017053848865365E8 ; 2.9362098972657937E8 ; 1.4278925827527422E10 ; 0.0
80 ; 4120915.961741781 ; 2.0171911644328707E8 ; 2.977420654967183E8 ; 1.4480631212413958E10 ; 0.0
81 ; 4120111.207882412 ; 2.0173288613879892E8 ; 3.018629814584601E8 ; 1.4682350328857244E10 ; 0.0
82 ; 4118652.810312079 ; 2.0174669185043448E8 ; 3.059830926663425E8 ; 1.4884083214996044E10 ; 0.0
83 ; 4113735.4635221004 ; 2.0176053152043828E8 ; 3.101017454766546E8 ; 1.508582990684648E10 ; 0.0
84 ; 4118097.422636834 ; 2.017744031534661E8 ; 3.1421548094017667E8 ; 1.5287590438366919E10 ; 0.0
85 ; 4113648.0197672234 ; 2.0178830481420392E8 ; 3.183335783628135E8 ; 1.5489364841520384E10 ; 0.0
86 ; 4110456.9075683975 ; 2.0180223462507457E8 ; 3.224472263825807E8 ; 1.5691153146334587E10 ; 0.0
87 ; 4107305.900345453 ; 2.0181619076403028E8 ; 3.265576832901491E8 ; 1.5892955380959661E10 ; 0.0
88 ; 4105715.7980715833 ; 2.018301714624287E8 ; 3.3066498919049454E8 ; 1.6094771571723692E10 ; 0.0
89 ; 4101772.9705437627 ; 2.018441750029903E8 ; 3.347707049885661E8 ; 1.6296601743186121E10 ; 0.0
90 ; 4099182.7515039793 ; 2.0185819971783507E8 ; 3.3887247795910984E8 ; 1.6498445918189112E10 ; 0.0
91 ; 4096452.3682818534 ; 2.0187224398659548E8 ; 3.4297166071061385E8 ; 1.6700304117906946E10 ; 0.0
92 ; 4094130.479433982 ; 2.018863062346042E8 ; 3.470681130788957E8 ; 1.6902176361893541E10 ; 0.0
93 ; 4096616.949331313 ; 2.0190038493115324E8 ; 3.5116224355832964E8 ; 1.7104062668128145E10 ; 0.0
94 ; 4090806.460731688 ; 2.0191447858782268E8 ; 3.552588605076609E8 ; 1.73059630530593E10 ; 0.0
95 ; 4090403.8253902528 ; 2.019285857568766E8 ; 3.593496669683926E8 ; 1.750787753164712E10 ; 0.0
96 ; 4084530.7215238926 ; 2.0194270502972323E8 ; 3.634400707937829E8 ; 1.7709806117404E10 ; 0.0
97 ; 4078168.8239154443 ; 2.019568350354378E8 ; 3.675246015153068E8 ; 1.7911748822433723E10 ; 0.0
98 ; 4077349.846792596 ; 2.0197097443934503E8 ; 3.716027703392222E8 ; 1.8113705657469162E10 ; 0.0
99 ; 4078064.655620392 ; 2.0198512194165948E8 ; 3.756801201860148E8 ; 1.831567663190851E10 ; 0.0
100 ; 4073685.5229859217 ; 2.019992762761813E8 ; 3.7975818484163517E8 ; 1.8517661753850166E10 ; 0.0
101 ; 4069265.5972265215 ; 2.0201343620904544E8 ; 3.838318703646211E8 ; 1.8719661030126347E10 ; 0.0
102 ; 4065523.717250049 ; 2.020276005375217E8 ; 3.879011359618476E8 ; 1.8921674466335392E10 ; 0.0
103 ; 4058433.886319075 ; 2.0204176808886448E8 ; 3.9196665967909765E8 ; 1.9123702066872913E10 ; 0.0
104 ; 4060771.095287621 ; 2.0205593771920934E8 ; 3.9602509356541675E8 ; 1.9325743834961777E10 ; 0.0
105 ; 4057246.8092833105 ; 2.0207010831251502E8 ; 4.000858646607044E8 ; 1.9527799772680984E10 ; 0.0
106 ; 4047372.2796736835 ; 2.0208427877954862E8 ; 4.041431114699877E8 ; 1.97298698809935E10 ; 0.0
107 ; 4049370.586470442 ; 2.0209844805691284E8 ; 4.081904837496614E8 ; 1.993195415977305E10 ; 0.0
108 ; 4040392.9896150976 ; 2.021126151061128E8 ; 4.122398543361318E8 ; 2.013405260782996E10 ; 0.0
109 ; 4038646.817404515 ; 2.0212677891266122E8 ; 4.162802473257469E8 ; 2.0336165222936073E10 ; 0.0
110 ; 4035865.196612014 ; 2.021409384852202E8 ; 4.203188941431514E8 ; 2.0538292001848736E10 ; 0.0
111 ; 4032505.0318741878 ; 2.0215509285477817E8 ; 4.243547593397634E8 ; 2.0740432940333958E10 ; 0.0
112 ; 4023917.0126469447 ; 2.0216924107386044E8 ; 4.283872643716376E8 ; 2.0942588033188736E10 ; 0.0
113 ; 4022579.1628736416 ; 2.0218338221577194E8 ; 4.3241118138428456E8 ; 2.1144757274262596E10 ; 0.0
114 ; 4015245.7368713007 ; 2.0219751537387085E8 ; 4.364337605471582E8 ; 2.1346940656478367E10 ; 0.0
115 ; 4014561.754902025 ; 2.0221163966087162E8 ; 4.404490062840295E8 ; 2.1549138171852238E10 ; 0.0
116 ; 4007598.0447028074 ; 2.0222575420817646E8 ; 4.444635680389315E8 ; 2.175134981151311E10 ; 0.0
117 ; 4002799.961970544 ; 2.0223985816523382E8 ; 4.484711660836343E8 ; 2.1953575565721287E10 ; 0.0
118 ; 3998067.7728061858 ; 2.0225395069892263E8 ; 4.524739660456049E8 ; 2.215581542388652E10 ; 0.0
119 ; 3995174.778643992 ; 2.0226803099296165E8 ; 4.5647203381841105E8 ; 2.235806937458544E10 ; 0.0
120 ; 3985877.7449412425 ; 2.022820982473423E8 ; 4.60467208597055E8 ; 2.2560337405578403E10 ; 0.0
121 ; 3982981.149118763 ; 2.0229615167778435E8 ; 4.6445308634199625E8 ; 2.2762619503825745E10 ; 0.0
122 ; 3978496.0781344194 ; 2.023101905152135E8 ; 4.6843606749111503E8 ; 2.296491565550353E10 ; 0.0
123 ; 3973438.1783043966 ; 2.0232421400525945E8 ; 4.7241456356924945E8 ; 2.316722584601874E10 ; 0.0
124 ; 3966075.9223116064 ; 2.023382214077744E8 ; 4.763880017475538E8 ; 2.3369550060024002E10 ; 0.0
125 ; 3963029.4437563554 ; 2.0235221199637008E8 ; 4.803540776698654E8 ; 2.3571888281431778E10 ; 0.0
126 ; 3954715.497474695 ; 2.0236618505797374E8 ; 4.843171071136218E8 ; 2.3774240493428146E10 ; 0.0
127 ; 3951253.6077556354 ; 2.02380139892401E8 ; 4.8827182261109644E8 ; 2.397660667848612E10 ; 0.0
128 ; 3945818.0351093374 ; 2.0239407581194606E8 ; 4.922230762188521E8 ; 2.417898681837852E10 ; 0.0
129 ; 3939826.108658539 ; 2.024079921409874E8 ; 4.9616889425396144E8 ; 2.4381380894190468E10 ; 0.0
130 ; 3930371.9342647824 ; 2.0242188821560937E8 ; 5.0010872036262E8 ; 2.4583788886331455E10 ; 0.0
131 ; 3921523.155197123 ; 2.024357633832383E8 ; 5.040390922968848E8 ; 2.4786210774547066E10 ; 0.0
132 ; 3909614.1750127026 ; 2.0244961700229257E8 ; 5.079606154520819E8 ; 2.4988646537930305E10 ; 0.0
133 ; 3904243.931144923 ; 2.0246344844184652E8 ; 5.118702296270946E8 ; 2.51910961549326E10 ; 0.0
134 ; 3891708.890659151 ; 2.0247725708130714E8 ; 5.157744735582396E8 ; 2.5393559603374443E10 ; 0.0
135 ; 3880691.558722651 ; 2.0249104231010315E8 ; 5.1966618244889873E8 ; 2.559603686045575E10 ; 0.0
136 ; 3871946.24545725 ; 2.0250480352738604E8 ; 5.235468740076214E8 ; 2.5798527902765854E10 ; 0.0
137 ; 3860160.2220241027 ; 2.0251854014174253E8 ; 5.2741882025307864E8 ; 2.600103270629324E10 ; 0.0
138 ; 3850498.4791299654 ; 2.0253225157091793E8 ; 5.312789804751027E8 ; 2.6203551246434982E10 ; 0.0
139 ; 3840944.1333079655 ; 2.0254593724154994E8 ; 5.351294789542327E8 ; 2.64060834980059E10 ; 0.0
140 ; 3830432.3190712538 ; 2.0255959658891264E8 ; 5.389704230875406E8 ; 2.660862943524745E10 ; 0.0
141 ; 3821650.155437226 ; 2.0257322905666992E8 ; 5.428008554066119E8 ; 2.6811189031836365E10 ; 0.0
142 ; 3807663.4265629295 ; 2.0258683409663826E8 ; 5.466225055620492E8 ; 2.7013762260893036E10 ; 0.0
143 ; 3798126.7447870183 ; 2.0260041116855842E8 ; 5.50430168988612E8 ; 2.7216349094989674E10 ; 0.0
144 ; 3786495.328444401 ; 2.0261395973987553E8 ; 5.54228295733399E8 ; 2.7418949506158234E10 ; 0.0
145 ; 3779623.821077827 ; 2.0262747928552735E8 ; 5.580147910618434E8 ; 2.762156346589811E10 ; 0.0
146 ; 3775117.156887528 ; 2.026409692877404E8 ; 5.617944148829212E8 ; 2.7824190945183636E10 ; 0.0
147 ; 3767819.4057924957 ; 2.0265442923583367E8 ; 5.655695320398088E8 ; 2.8026831914471375E10 ; 0.0
148 ; 3763106.8224548777 ; 2.0266785862602928E8 ; 5.693373514456012E8 ; 2.8229486343707207E10 ; 0.0
149 ; 3757389.498222989 ; 2.0268125696127042E8 ; 5.731004582680562E8 ; 2.8432154202333237E10 ; 0.0
150 ; 3748568.6875372934 ; 2.0269462375104553E8 ; 5.768578477662791E8 ; 2.8634835459294506E10 ; 0.0
151 ; 3743697.658707948 ; 2.0270795851121926E8 ; 5.806064164538164E8 ; 2.883753008304555E10 ; 0.0
152 ; 3736801.975279043 ; 2.0272126076386935E8 ; 5.843501141125244E8 ; 2.904023804155677E10 ; 0.0
153 ; 3732331.626953607 ; 2.0273453003712928E8 ; 5.880869160878035E8 ; 2.924295930232064E10 ; 0.0
154 ; 3726025.9834222347 ; 2.0274776586503685E8 ; 5.918192477147571E8 ; 2.944569383235777E10 ; 0.0
155 ; 3719439.7088707867 ; 2.027609677873879E8 ; 5.955452736981794E8 ; 2.9648441598222805E10 ; 0.0
156 ; 3715306.1738453833 ; 2.027741353495956E8 ; 5.992647134070501E8 ; 2.9851202566010193E10 ; 0.0
157 ; 3707828.973333328 ; 2.0278726810255432E8 ; 6.029800195808955E8 ; 3.0053976701359787E10 ; 0.0
158 ; 3703528.8920048457 ; 2.028003656025087E8 ; 6.066878485542289E8 ; 3.025676396946234E10 ; 0.0
159 ; 3694478.2795389 ; 2.0281342741092712E8 ; 6.103913774462337E8 ; 3.045956433506485E10 ; 0.0
160 ; 3688700.4719623853 ; 2.028264530943798E8 ; 6.140858557257726E8 ; 3.0662377762475777E10 ; 0.0
161 ; 3680391.822325721 ; 2.02839442224421E8 ; 6.17774556197735E8 ; 3.0865204215570156E10 ; 0.0
162 ; 3674470.5501904995 ; 2.0285239437747538E8 ; 6.214549480200607E8 ; 3.106804365779458E10 ; 0.0
163 ; 3665758.9110717145 ; 2.028653091347286E8 ; 6.251294185702511E8 ; 3.1270896052172054E10 ; 0.0
164 ; 3662462.12895234 ; 2.0287818608202124E8 ; 6.287951774813228E8 ; 3.147376136130678E10 ; 0.0
165 ; 3655045.4486399856 ; 2.028910248097468E8 ; 6.324576396102751E8 ; 3.16766395473888E10 ; 0.0
166 ; 3650020.2343328237 ; 2.0290382491275305E8 ; 6.361126850589151E8 ; 3.1879530572198547E10 ; 0.0
167 ; 3641778.851946503 ; 2.029165859902468E8 ; 6.397627052932479E8 ; 3.20824343971113E10 ; 0.0
168 ; 3635140.408160717 ; 2.02929307645702E8 ; 6.434044841451944E8 ; 3.2285350983101547E10 ; 0.0
169 ; 3627916.4769632076 ; 2.0294198948677084E8 ; 6.470396245533551E8 ; 3.248828029074725E10 ; 0.0
170 ; 3624404.0818127864 ; 2.0295463112519807E8 ; 6.506675410303183E8 ; 3.269122228023402E10 ; 0.0
171 ; 3616465.4380413685 ; 2.029672321767381E8 ; 6.54291945112131E8 ; 3.289417691135922E10 ; 0.0
172 ; 3610138.5296357544 ; 2.0297979226107496E8 ; 6.579084105501723E8 ; 3.3097144143535957E10 ; 0.0
173 ; 3602940.1099280645 ; 2.0299231100174502E8 ; 6.615185490798081E8 ; 3.330012393579703E10 ; 0.0
174 ; 3601216.595303803 ; 2.0300478802606216E8 ; 6.651214891897361E8 ; 3.3503116246798775E10 ; 0.0
175 ; 3593771.4412097237 ; 2.030172229650457E8 ; 6.687227057850399E8 ; 3.3706121034824837E10 ; 0.0
176 ; 3588729.8730542506 ; 2.0302961545335045E8 ; 6.723164772262496E8 ; 3.3909138257789883E10 ; 0.0
177 ; 3583845.222187245 ; 2.0304196512919945E8 ; 6.759052070993038E8 ; 3.4112167873243233E10 ; 0.0
178 ; 3579419.0708730463 ; 2.030542716343186E8 ; 6.794890523214911E8 ; 3.4315209838372433E10 ; 0.0
179 ; 3576103.9557886412 ; 2.030665346138736E8 ; 6.830684713923641E8 ; 3.451826411000675E10 ; 0.0
180 ; 3569709.5855848887 ; 2.0307875371640933E8 ; 6.866445753481528E8 ; 3.472133064462063E10 ; 0.0
181 ; 3565945.0298389085 ; 2.0309092859379044E8 ; 6.902142849337376E8 ; 3.4924409398337036E10 ; 0.0
182 ; 3558408.3827951946 ; 2.0310305890114483E8 ; 6.937802299635766E8 ; 3.5127500326930824E10 ; 0.0
183 ; 3555984.6057438273 ; 2.0311514429680824E8 ; 6.973386383463718E8 ; 3.533060338583197E10 ; 0.0
184 ; 3550869.75287799 ; 2.0312718444227105E8 ; 7.008946229521157E8 ; 3.553371853012878E10 ; 0.0
185 ; 3545923.1001262236 ; 2.0313917900212687E8 ; 7.044454927049936E8 ; 3.5736845714571045E10 ; 0.0
186 ; 3541607.935059973 ; 2.0315112764402246E8 ; 7.079914158051199E8 ; 3.593998489357317E10 ; 0.0
187 ; 3535448.4701203983 ; 2.0316303003860965E8 ; 7.115330237401799E8 ; 3.614313602121719E10 ; 0.0
188 ; 3531983.55138678 ; 2.0317488585949865E8 ; 7.150684722103003E8 ; 3.6346299051255806E10 ; 0.0
189 ; 3527721.8912067786 ; 2.0318669478321284E8 ; 7.186004557616872E8 ; 3.65494739371153E10 ; 0.0
190 ; 3525302.0683844914 ; 2.0319845648914522E8 ; 7.221281776528939E8 ; 3.675266063189851E10 ; 0.0
191 ; 3519543.3702373784 ; 2.0321017065951598E8 ; 7.256534797212784E8 ; 3.695585908838766E10 ; 0.0
192 ; 3514868.023468612 ; 2.032218369793318E8 ; 7.291730230915158E8 ; 3.715906925904717E10 ; 0.0
193 ; 3505262.8434556625 ; 2.03233455136346E8 ; 7.326878911149844E8 ; 3.7362291096026505E10 ; 0.0
194 ; 3501460.2824067245 ; 2.032450248210205E8 ; 7.361931539584401E8 ; 3.756552455116285E10 ; 0.0
195 ; 3500098.742899288 ; 2.0325654572648856E8 ; 7.396946142408468E8 ; 3.776876957598387E10 ; 0.0
196 ; 3493786.9842666974 ; 2.0326801754851896E8 ; 7.43194712983746E8 ; 3.797202612171036E10 ; 0.0
197 ; 3487685.506656287 ; 2.0327943998548117E8 ; 7.466884999680127E8 ; 3.817529413925887E10 ; 0.0
198 ; 3486550.255454984 ; 2.032908127383119E8 ; 7.50176185474669E8 ; 3.8378573579244354E10 ; 0.0
199 ; 3479911.1020026593 ; 2.033021355104823E8 ; 7.53662735730124E8 ; 3.8581864391982666E10 ; 0.0
200 ; 3475797.990674992 ; 1.9667625166597882E8 ; 7.571426468321266E8 ; 3.878516652749315E10 ; 0.0
