CSV File for the City 1 on Day 54
1 - Minute m 
2 - Power Consumed at minute m 
3 - Power Produced at minute m 
4 - Energy Consumed since the beginning of the day 
5 - Energy Produced since the beginning of the day 
6 - Energy Lost since the beginning of the day on lines starting from the city
 
0 ; 1.5984575459294647E7 ; 1.0541441025044176E8 ; 0.0 ; 0.0 ; 0.0
1 ; 1.5998880788626932E7 ; 1.0556718093756533E8 ; 1.5984575459294647E7 ; 1.0541441025044176E8 ; 0.0
2 ; 1.601825413618734E7 ; 1.060287483248091E8 ; 3.198345624792158E7 ; 2.109815911880071E8 ; 0.0
3 ; 1.603860945143181E7 ; 1.0679911512206978E8 ; 4.8001710384108916E7 ; 3.170103395128162E8 ; 0.0
4 ; 1.6055695733324522E7 ; 1.0787828378411931E8 ; 6.404031983554073E7 ; 4.2380945463488597E8 ; 0.0
5 ; 1.608955955589415E7 ; 1.092662564884376E8 ; 8.009601556886525E7 ; 5.316877384190053E8 ; 0.0
6 ; 1.6124640436325684E7 ; 1.109630351149039E8 ; 9.61855751247594E7 ; 6.409539949074428E8 ; 0.0
7 ; 1.6180952135592055E7 ; 1.1296862122777152E8 ; 1.1231021556108509E8 ; 7.519170300223467E8 ; 0.0
8 ; 1.6259295563689863E7 ; 1.1528301606031859E8 ; 1.2849116769667715E8 ; 8.648856512501183E8 ; 0.0
9 ; 1.6376024171916516E7 ; 1.1790622050252151E8 ; 1.44750463260367E8 ; 9.801686673104368E8 ; 0.0
10 ; 1.6557042970503397E7 ; 1.2083823509203535E8 ; 1.6112648743228352E8 ; 1.0980748878129582E9 ; 0.0
11 ; 1.6844104147165015E7 ; 1.2407906000869438E8 ; 1.776835304027869E8 ; 1.2189131229049935E9 ; 0.0
12 ; 1.7306448443805072E7 ; 1.2762869507266429E8 ; 1.945276345499519E8 ; 1.342992182913688E9 ; 0.0
13 ; 1.775245935810052E7 ; 1.3148713974629003E8 ; 2.1183408299375698E8 ; 1.4706208779863522E9 ; 0.0
14 ; 1.7804834473195326E7 ; 1.3565439313959527E8 ; 2.2958654235185748E8 ; 1.6021080177326422E9 ; 0.0
15 ; 1.782590107251645E7 ; 1.4013045401930177E8 ; 2.473913768250528E8 ; 1.7377624108722374E9 ; 0.0
16 ; 1.784710920781386E7 ; 1.4491532082115635E8 ; 2.6521727789756924E8 ; 1.877892864891539E9 ; 0.0
17 ; 1.786217969970427E7 ; 1.5000899166527966E8 ; 2.830643871053831E8 ; 2.0228081857126954E9 ; 0.0
18 ; 1.7887407593627952E7 ; 1.5541146437419182E8 ; 3.009265668050874E8 ; 2.172817177377975E9 ; 0.0
19 ; 1.7907076822472785E7 ; 1.6112273649312088E8 ; 3.188139743987153E8 ; 2.3282286417521667E9 ; 0.0
20 ; 1.7928988505991675E7 ; 1.6714280531217012E8 ; 3.367210512211881E8 ; 2.4893513782452874E9 ; 0.0
21 ; 1.794682742179093E7 ; 1.7347166788990173E8 ; 3.546500397271798E8 ; 2.6564941835574574E9 ; 0.0
22 ; 1.7971009551910926E7 ; 1.8010932107789248E8 ; 3.725968671489708E8 ; 2.829965851447359E9 ; 0.0
23 ; 1.7992547103148047E7 ; 1.8705576154582864E8 ; 3.905678767008817E8 ; 3.0100751725252514E9 ; 0.0
24 ; 1.8012061465636764E7 ; 1.9431098580673057E8 ; 4.0856042380402976E8 ; 3.19713093407108E9 ; 0.0
25 ; 1.8033951643276576E7 ; 2.0056303114011326E8 ; 4.2657248526966655E8 ; 3.391441919877811E9 ; 0.0
26 ; 1.805424319080439E7 ; 2.0056544165327507E8 ; 4.446064369129431E8 ; 3.5920049510179243E9 ; 0.0
27 ; 1.8070673623585142E7 ; 2.005679828297187E8 ; 4.626606801037475E8 ; 3.7925703926711993E9 ; 0.0
28 ; 1.8094578880417973E7 ; 2.005706507983226E8 ; 4.8073135372733265E8 ; 3.993138375500918E9 ; 0.0
29 ; 1.81158268198936E7 ; 2.005734416476723E8 ; 4.9882593260775065E8 ; 4.1937090262992406E9 ; 0.0
30 ; 1.81316501892223E7 ; 2.0057635144568676E8 ; 5.1694175942764425E8 ; 4.394282467946913E9 ; 0.0
31 ; 1.814938597115085E7 ; 2.00579376257683E8 ; 5.350734096168665E8 ; 4.594858819392599E9 ; 0.0
32 ; 1.817143070142568E7 ; 2.005825121628189E8 ; 5.532227955880173E8 ; 4.795438195650282E9 ; 0.0
33 ; 1.8187899372799303E7 ; 2.0058575526889077E8 ; 5.71394226289443E8 ; 4.996020707813101E9 ; 0.0
34 ; 1.820431357930642E7 ; 2.0058910172549418E8 ; 5.895821256622423E8 ; 5.196606463081991E9 ; 0.0
35 ; 1.822398637839332E7 ; 2.005925477355842E8 ; 6.077864392415487E8 ; 5.397195564807486E9 ; 0.0
36 ; 1.8237413996834517E7 ; 2.0059608956549245E8 ; 6.26010425619942E8 ; 5.59778811254307E9 ; 0.0
37 ; 1.8251321949729677E7 ; 2.0059972355347595E8 ; 6.442478396167765E8 ; 5.798384202108562E9 ; 0.0
38 ; 1.827174315645892E7 ; 2.0060344611688575E8 ; 6.624991615665061E8 ; 5.998983925662039E9 ; 0.0
39 ; 1.8288810041460104E7 ; 2.006072537580514E8 ; 6.807709047229651E8 ; 6.199587371778925E9 ; 0.0
40 ; 1.8297831619570337E7 ; 2.0061114306898385E8 ; 6.990597147644253E8 ; 6.400194625536976E9 ; 0.0
41 ; 1.8314828426168073E7 ; 2.0061511073500037E8 ; 7.173575463839957E8 ; 6.60080576860596E9 ; 0.0
42 ; 1.8321314246996123E7 ; 2.0061915353737578E8 ; 7.356723748101637E8 ; 6.8014208793409605E9 ; 0.0
43 ; 1.833477417722213E7 ; 2.0062326835512245E8 ; 7.539936890571599E8 ; 7.002040032878336E9 ; 0.0
44 ; 1.8342719075117934E7 ; 2.006274521659966E8 ; 7.72328463234382E8 ; 7.2026633012334585E9 ; 0.0
45 ; 1.8357714269987445E7 ; 2.0063170204682535E8 ; 7.906711823095E8 ; 7.403290753399455E9 ; 0.0
46 ; 1.836404578719464E7 ; 2.0063601517324135E8 ; 8.090288965794874E8 ; 7.6039224554462805E9 ; 0.0
47 ; 1.8373179458627455E7 ; 2.006403888189079E8 ; 8.27392942366682E8 ; 7.804558470619522E9 ; 0.0
48 ; 1.838130060651453E7 ; 2.0064482035430858E8 ; 8.457661218253095E8 ; 8.00519885943843E9 ; 0.0
49 ; 1.8388065837508187E7 ; 2.00649307245171E8 ; 8.641474224318241E8 ; 8.205843679792738E9 ; 0.0
50 ; 1.8389019596257027E7 ; 2.0065384705058622E8 ; 8.825354882693323E8 ; 8.406492987037909E9 ; 0.0
51 ; 1.8392938831821628E7 ; 2.006584374208801E8 ; 9.009245078655893E8 ; 8.607146834088495E9 ; 0.0
52 ; 1.8400880618040666E7 ; 2.0066307609528634E8 ; 9.19317446697411E8 ; 8.807805271509375E9 ; 0.0
53 ; 1.8404835585779745E7 ; 2.0066776089946494E8 ; 9.377183273154516E8 ; 9.00846834760466E9 ; 0.0
54 ; 1.8413688528969005E7 ; 2.006724897429059E8 ; 9.561231629012314E8 ; 9.209136108504126E9 ; 0.0
55 ; 1.8418977699791852E7 ; 2.0067726061625093E8 ; 9.745368514302005E8 ; 9.409808598247032E9 ; 0.0
56 ; 1.84232861752819E7 ; 2.006820715885634E8 ; 9.929558291299924E8 ; 9.610485858863283E9 ; 0.0
57 ; 1.8423100621858325E7 ; 2.0068692080457172E8 ; 1.0113791153052742E9 ; 9.811167930451847E9 ; 0.0
58 ; 1.843132271037368E7 ; 2.006918064819074E8 ; 1.0298022159271326E9 ; 1.0011854851256418E10 ; 0.0
59 ; 1.8436542407826707E7 ; 2.0069672690835664E8 ; 1.0482335386375062E9 ; 1.0212546657738325E10 ; 0.0
60 ; 1.8436245870069075E7 ; 2.007016804391406E8 ; 1.0666700810453329E9 ; 1.041324338464668E10 ; 0.0
61 ; 1.8436830880835395E7 ; 2.007066654942368E8 ; 1.085106326915402E9 ; 1.0613945065085821E10 ; 0.0
62 ; 1.8442689281545524E7 ; 2.0071168055575275E8 ; 1.1035431577962372E9 ; 1.0814651730580057E10 ; 0.0
63 ; 1.844237659215921E7 ; 2.007167241653595E8 ; 1.1219858470777829E9 ; 1.101536341113581E10 ; 0.0
64 ; 1.8449642827506065E7 ; 2.0072179492179206E8 ; 1.1404282236699421E9 ; 1.121608013530117E10 ; 0.0
65 ; 1.8447881201113734E7 ; 2.0072689147842196E8 ; 1.1588778664974482E9 ; 1.1416801930222963E10 ; 0.0
66 ; 1.845492137079866E7 ; 2.007320125409052E8 ; 1.177325747698562E9 ; 1.1617528821701385E10 ; 0.0
67 ; 1.845518616857353E7 ; 2.007371568649089E8 ; 1.1957806690693605E9 ; 1.181826083424229E10 ; 0.0
68 ; 1.8454722349121306E7 ; 2.0074232325391743E8 ; 1.214235855237934E9 ; 1.2018997991107199E10 ; 0.0
69 ; 1.8460894318460833E7 ; 2.0074751055711976E8 ; 1.2326905775870554E9 ; 1.2219740314361116E10 ; 0.0
70 ; 1.84611513223245E7 ; 2.007527176673774E8 ; 1.2511514719055164E9 ; 1.2420487824918236E10 ; 0.0
71 ; 1.8463636333045118E7 ; 2.007579435192731E8 ; 1.269612623227841E9 ; 1.2621240542585613E10 ; 0.0
72 ; 1.8460404600207254E7 ; 2.0076318708723858E8 ; 1.288076259560886E9 ; 1.2821998486104887E10 ; 0.0
73 ; 1.846561716824556E7 ; 2.0076844738376108E8 ; 1.3065366641610932E9 ; 1.3022761673192125E10 ; 0.0
74 ; 1.846797744545452E7 ; 2.007737234576661E8 ; 1.3250022813293388E9 ; 1.3223530120575886E10 ; 0.0
75 ; 1.846789744604644E7 ; 2.007790143924748E8 ; 1.3434702587747934E9 ; 1.3424303844033552E10 ; 0.0
76 ; 1.8473982605613172E7 ; 2.0078431930483434E8 ; 1.3619381562208397E9 ; 1.3625082858426027E10 ; 0.0
77 ; 1.8470293802669406E7 ; 2.007896373430182E8 ; 1.380412138826453E9 ; 1.3825867177730862E10 ; 0.0
78 ; 1.8460330331525404E7 ; 2.0079496768549493E8 ; 1.3988824326291223E9 ; 1.402665681507388E10 ; 0.0
79 ; 1.8460177537245225E7 ; 2.0080030953956237E8 ; 1.4173427629606476E9 ; 1.4227451782759375E10 ; 0.0
80 ; 1.8450916969903305E7 ; 2.0080566214004508E8 ; 1.4358029404978929E9 ; 1.4428252092298937E10 ; 0.0
81 ; 1.8446857161469E7 ; 2.0081102474805275E8 ; 1.454253857467796E9 ; 1.4629057754438982E10 ; 0.0
82 ; 1.8443780947657518E7 ; 2.0081639664979672E8 ; 1.472700714629265E9 ; 1.4829868779187035E10 ; 0.0
83 ; 1.8438186701792356E7 ; 2.0082177715546268E8 ; 1.4911444955769227E9 ; 1.5030685175836832E10 ; 0.0
84 ; 1.8429655135336936E7 ; 2.008271655981367E8 ; 1.509582682278715E9 ; 1.5231506952992294E10 ; 0.0
85 ; 1.842422585909456E7 ; 2.0083256133278254E8 ; 1.5280123374140518E9 ; 1.5432334118590431E10 ; 0.0
86 ; 1.8417229773547444E7 ; 2.0083796373526782E8 ; 1.5464365632731464E9 ; 1.5633166679923214E10 ; 0.0
87 ; 1.8411808576695897E7 ; 2.008433722014371E8 ; 1.5648537930466938E9 ; 1.5834004643658482E10 ; 0.0
88 ; 1.8406502055468645E7 ; 2.008487861462291E8 ; 1.5832656016233897E9 ; 1.6034848015859919E10 ; 0.0
89 ; 1.8404428775247477E7 ; 2.008542050028369E8 ; 1.6016721036788583E9 ; 1.6235696802006147E10 ; 0.0
90 ; 1.838738631446285E7 ; 2.008596282219081E8 ; 1.6200765324541059E9 ; 1.6436551007008984E10 ; 0.0
91 ; 1.8381835597328156E7 ; 2.008650552707838E8 ; 1.6384639187685688E9 ; 1.6637410635230892E10 ; 0.0
92 ; 1.837509433192919E7 ; 2.0087048563277414E8 ; 1.656845754365897E9 ; 1.6838275690501677E10 ; 0.0
93 ; 1.836705623421526E7 ; 2.0087591880646878E8 ; 1.6752208486978261E9 ; 1.703914617613445E10 ; 0.0
94 ; 1.8362617112167325E7 ; 2.0088135430508044E8 ; 1.6935879049320414E9 ; 1.7240022094940918E10 ; 0.0
95 ; 1.835264761028079E7 ; 2.0088679165582013E8 ; 1.7119505220442088E9 ; 1.7440903449246E10 ; 0.0
96 ; 1.8341140555295598E7 ; 2.0089223039930227E8 ; 1.7303031696544895E9 ; 1.7641790240901817E10 ; 0.0
97 ; 1.833564610865379E7 ; 2.0089767008897838E8 ; 1.7486443102097852E9 ; 1.784268247130112E10 ; 0.0
98 ; 1.8327481165495653E7 ; 2.0090311029059768E8 ; 1.766979956318439E9 ; 1.80435801413901E10 ; 0.0
99 ; 1.8316836330984995E7 ; 2.0090855058169365E8 ; 1.7853074374839346E9 ; 1.8244483251680695E10 ; 0.0
100 ; 1.830753457873624E7 ; 2.0091399055109498E8 ; 1.8036242738149197E9 ; 1.844539180226239E10 ; 0.0
101 ; 1.830014571645695E7 ; 2.009194297984595E8 ; 1.821931808393656E9 ; 1.8646305792813484E10 ; 0.0
102 ; 1.82898208327149E7 ; 2.009248679338305E8 ; 1.840231954110113E9 ; 1.8847225222611942E10 ; 0.0
103 ; 1.8280408283246674E7 ; 2.0093030457721382E8 ; 1.8585217749428277E9 ; 1.9048150090545773E10 ; 0.0
104 ; 1.827204916830536E7 ; 2.009357393581748E8 ; 1.8768021832260745E9 ; 1.9249080395122986E10 ; 0.0
105 ; 1.8261791646746874E7 ; 2.0094117191545424E8 ; 1.8950742323943799E9 ; 1.945001613448116E10 ; 0.0
106 ; 1.8252009515651435E7 ; 2.0094660189660227E8 ; 1.9133360240411267E9 ; 1.9650957306396614E10 ; 0.0
107 ; 1.8242151815427728E7 ; 2.0095202895762923E8 ; 1.9315880335567782E9 ; 1.9851903908293217E10 ; 0.0
108 ; 1.8229335811666425E7 ; 2.0095745276267284E8 ; 1.949830185372206E9 ; 2.0052855937250847E10 ; 0.0
109 ; 1.8223197227941558E7 ; 2.0096287298368064E8 ; 1.9680595211838725E9 ; 2.025381339001352E10 ; 0.0
110 ; 1.821130120490743E7 ; 2.0096828930010712E8 ; 1.986282718411814E9 ; 2.04547762629972E10 ; 0.0
111 ; 1.8199326140645936E7 ; 2.009737013986248E8 ; 2.0044940196167214E9 ; 2.0655744552297306E10 ; 0.0
112 ; 1.8186301856231123E7 ; 2.0097910897284842E8 ; 2.0226933457573674E9 ; 2.085671825369593E10 ; 0.0
113 ; 1.817960337063553E7 ; 2.009845117230717E8 ; 2.0408796476135986E9 ; 2.1057697362668777E10 ; 0.0
114 ; 1.8164552251104847E7 ; 2.0098990935601604E8 ; 2.059059250984234E9 ; 2.125868187439185E10 ; 0.0
115 ; 1.8151179480639335E7 ; 2.009953015845906E8 ; 2.077223803235339E9 ; 2.1459671783747864E10 ; 0.0
116 ; 1.8140352825240597E7 ; 2.0100068812766317E8 ; 2.0953749827159781E9 ; 2.1660667085332455E10 ; 0.0
117 ; 1.813521387277502E7 ; 2.0100606870984107E8 ; 2.1135153355412188E9 ; 2.1861667773460117E10 ; 0.0
118 ; 1.8116445707214497E7 ; 2.010114430612622E8 ; 2.1316505494139938E9 ; 2.206267384216996E10 ; 0.0
119 ; 1.8104668594470877E7 ; 2.0101681091739497E8 ; 2.149766995121208E9 ; 2.2263685285231224E10 ; 0.0
120 ; 1.8094043388180632E7 ; 2.0102217201884744E8 ; 2.167871663715679E9 ; 2.246470209614862E10 ; 0.0
121 ; 1.8080568240560006E7 ; 2.010275261111845E8 ; 2.18596570710386E9 ; 2.266572426816747E10 ; 0.0
122 ; 1.8063151862979855E7 ; 2.0103287294475323E8 ; 2.20404627534442E9 ; 2.2866751794278652E10 ; 0.0
123 ; 1.805001266739962E7 ; 2.0103821227451596E8 ; 2.2221094272074E9 ; 2.3067784667223404E10 ; 0.0
124 ; 1.8040669689204857E7 ; 2.0104354385989025E8 ; 2.2401594398747993E9 ; 2.326882287949792E10 ; 0.0
125 ; 1.8029011516132463E7 ; 2.010488674645963E8 ; 2.258200109564004E9 ; 2.346986642335781E10 ; 0.0
126 ; 1.8014061278504837E7 ; 2.010541828565103E8 ; 2.2762291210801363E9 ; 2.3670915290822407E10 ; 0.0
127 ; 1.7996757590148054E7 ; 2.0105948980752456E8 ; 2.294243182358641E9 ; 2.3871969473678917E10 ; 0.0
128 ; 1.7983229643531963E7 ; 2.0106478809341335E8 ; 2.312239939948789E9 ; 2.4073028963486443E10 ; 0.0
129 ; 1.797135297800912E7 ; 2.0107007749370453E8 ; 2.330223169592321E9 ; 2.4274093751579857E10 ; 0.0
130 ; 1.7955404109531038E7 ; 2.0107535779155642E8 ; 2.34819452257033E9 ; 2.4475163829073563E10 ; 0.0
131 ; 1.7934074296818454E7 ; 2.0108062877364016E8 ; 2.366149926679861E9 ; 2.467623918686512E10 ; 0.0
132 ; 1.7915350055869803E7 ; 2.0108589023002675E8 ; 2.3840840009766793E9 ; 2.487731981563876E10 ; 0.0
133 ; 1.789531265560965E7 ; 2.0109114195407882E8 ; 2.401999351032549E9 ; 2.5078405705868786E10 ; 0.0
134 ; 1.787115790159941E7 ; 2.0109638374234697E8 ; 2.4198946636881585E9 ; 2.5279496847822865E10 ; 0.0
135 ; 1.7852249240021847E7 ; 2.0110161539447027E8 ; 2.437765821589758E9 ; 2.5480593231565212E10 ; 0.0
136 ; 1.7832003336514406E7 ; 2.0110683671308106E8 ; 2.4556180708297796E9 ; 2.5681694846959682E10 ; 0.0
137 ; 1.7810768920065053E7 ; 2.011120475037134E8 ; 2.473450074166294E9 ; 2.5882801683672764E10 ; 0.0
138 ; 1.779191784534744E7 ; 2.011172475747154E8 ; 2.491260843086359E9 ; 2.6083913731176476E10 ; 0.0
139 ; 1.77661048967047E7 ; 2.0112243673716506E8 ; 2.5090527609317064E9 ; 2.628503097875119E10 ; 0.0
140 ; 1.7750720064231068E7 ; 2.0112761480478945E8 ; 2.526818865828411E9 ; 2.6486153415488354E10 ; 0.0
141 ; 1.7724767722779274E7 ; 2.0113278159388733E8 ; 2.544569585892642E9 ; 2.6687281030293144E10 ; 0.0
142 ; 1.7703127345476266E7 ; 2.011379369232546E8 ; 2.5622943536154213E9 ; 2.688841381188703E10 ; 0.0
143 ; 1.7677786037054606E7 ; 2.011430806141129E8 ; 2.5799974809608974E9 ; 2.7089551748810287E10 ; 0.0
144 ; 1.766083266490311E7 ; 2.011482124900411E8 ; 2.597675266997952E9 ; 2.72906948294244E10 ; 0.0
145 ; 1.7648735789926782E7 ; 2.0115333237690923E8 ; 2.615336099662855E9 ; 2.749184304191444E10 ; 0.0
146 ; 1.7630554215316348E7 ; 2.0115844010281524E8 ; 2.632984835452782E9 ; 2.7692996374291348E10 ; 0.0
147 ; 1.7617528975373037E7 ; 2.0116353549802426E8 ; 2.6506153896680984E9 ; 2.789415481439416E10 ; 0.0
148 ; 1.7597992841296744E7 ; 2.0116861839490995E8 ; 2.6682329186434717E9 ; 2.8095318349892185E10 ; 0.0
149 ; 1.758537636901854E7 ; 2.0117368862789854E8 ; 2.6858309114847684E9 ; 2.8296486968287094E10 ; 0.0
150 ; 1.756837389524368E7 ; 2.0117874603341466E8 ; 2.703416287853787E9 ; 2.8497660656914993E10 ; 0.0
151 ; 1.7547676083706655E7 ; 2.011837904498295E8 ; 2.7209846617490306E9 ; 2.8698839402948406E10 ; 0.0
152 ; 1.753863534249077E7 ; 2.0118882171741074E8 ; 2.7385323378327374E9 ; 2.8900023193398235E10 ; 0.0
153 ; 1.7519198997676946E7 ; 2.0119383967827472E8 ; 2.756070973175228E9 ; 2.9101212015115646E10 ; 0.0
154 ; 1.750418900813447E7 ; 2.0119884417634013E8 ; 2.773590172172905E9 ; 2.9302405854793922E10 ; 0.0
155 ; 1.748830434074095E7 ; 2.0120383505728352E8 ; 2.7910943611810393E9 ; 2.9503604698970264E10 ; 0.0
156 ; 1.7474386605301976E7 ; 2.012088121684966E8 ; 2.8085826655217805E9 ; 2.970480853402755E10 ; 0.0
157 ; 1.7455209376319807E7 ; 2.0121377535904515E8 ; 2.8260570521270823E9 ; 2.9906017346196045E10 ; 0.0
158 ; 1.7439914761165876E7 ; 2.012187244796292E8 ; 2.843512261503402E9 ; 3.010723112155509E10 ; 0.0
159 ; 1.7423780718297355E7 ; 2.012236593825451E8 ; 2.8609521762645683E9 ; 3.030844984603472E10 ; 0.0
160 ; 1.740875500624096E7 ; 2.012285799216488E8 ; 2.878375956982866E9 ; 3.0509673505417267E10 ; 0.0
161 ; 1.7392052521536216E7 ; 2.0123348595232028E8 ; 2.8957847119891067E9 ; 3.0710902085338917E10 ; 0.0
162 ; 1.7374439435969055E7 ; 2.0123837733142972E8 ; 2.913176764510643E9 ; 3.0912135571291237E10 ; 0.0
163 ; 1.7361220247912563E7 ; 2.012432539173047E8 ; 2.930551203946612E9 ; 3.1113373948622665E10 ; 0.0
164 ; 1.7343025355122413E7 ; 2.0124811556969845E8 ; 2.9479124241945243E9 ; 3.131461720253997E10 ; 0.0
165 ; 1.7321162348302003E7 ; 2.0125296214975965E8 ; 2.965255449549647E9 ; 3.151586531810967E10 ; 0.0
166 ; 1.7308801926056713E7 ; 2.012577935200028E8 ; 2.9825766118979487E9 ; 3.171711828025943E10 ; 0.0
167 ; 1.729182103073653E7 ; 2.0126260954428035E8 ; 2.9998854138240056E9 ; 3.1918376073779434E10 ; 0.0
168 ; 1.7275147249790955E7 ; 2.0126741008775508E8 ; 3.017177234854742E9 ; 3.2119638683323715E10 ; 0.0
169 ; 1.725549643434686E7 ; 2.0127219501687413E8 ; 3.034452382104533E9 ; 3.232090609341147E10 ; 0.0
170 ; 1.72356511844732E7 ; 2.012769641993436E8 ; 3.05170787853888E9 ; 3.252217828842834E10 ; 0.0
171 ; 1.72221776414797E7 ; 2.0128171750410402E8 ; 3.068943529723353E9 ; 3.2723455252627686E10 ; 0.0
172 ; 1.7202028513474908E7 ; 2.0128645480130714E8 ; 3.0861657073648324E9 ; 3.292473697013179E10 ; 0.0
173 ; 1.7187479400256045E7 ; 2.0129117596229288E8 ; 3.1033677358783073E9 ; 3.3126023424933098E10 ; 0.0
174 ; 1.7180250775587372E7 ; 2.012958808595677E8 ; 3.1205552152785635E9 ; 3.332731460089539E10 ; 0.0
175 ; 1.7166937353651974E7 ; 2.0130056936678344E8 ; 3.137735466054151E9 ; 3.352861048175496E10 ; 0.0
176 ; 1.7160792908841457E7 ; 2.0130524135871693E8 ; 3.154902403407803E9 ; 3.3729911051121742E10 ; 0.0
177 ; 1.7145925914326284E7 ; 2.0130989671125033E8 ; 3.1720631963166447E9 ; 3.3931216292480457E10 ; 0.0
178 ; 1.713716100573079E7 ; 2.0131453530135223E8 ; 3.189209122230971E9 ; 3.4132526189191708E10 ; 0.0
179 ; 1.712716802035956E7 ; 2.0131915700705945E8 ; 3.2063462832367015E9 ; 3.433384072449306E10 ; 0.0
180 ; 1.711105336214644E7 ; 2.0132376170745915E8 ; 3.223473451257061E9 ; 3.453515988150012E10 ; 0.0
181 ; 1.7105983031300876E7 ; 2.013283492826721E8 ; 3.2405845046192074E9 ; 3.473648364320758E10 ; 0.0
182 ; 1.7092887170924727E7 ; 2.0133291961383605E8 ; 3.2576904876505084E9 ; 3.493781199249025E10 ; 0.0
183 ; 1.708155411963892E7 ; 2.0133747258308986E8 ; 3.274783374821433E9 ; 3.513914491210409E10 ; 0.0
184 ; 1.7075862062545754E7 ; 2.013420080735584E8 ; 3.291864928941072E9 ; 3.534048238468718E10 ; 0.0
185 ; 1.7063721769946847E7 ; 2.013465259693375E8 ; 3.308940791003618E9 ; 3.5541824392760735E10 ; 0.0
186 ; 1.7056476531974323E7 ; 2.0135102615547985E8 ; 3.326004512773565E9 ; 3.574317091873007E10 ; 0.0
187 ; 1.70451570324989E7 ; 2.013555085179812E8 ; 3.343060989305539E9 ; 3.594452194488555E10 ; 0.0
188 ; 1.7031790607846472E7 ; 2.0135997294376698E8 ; 3.360106146338038E9 ; 3.6145877453403534E10 ; 0.0
189 ; 1.7021516033550117E7 ; 2.0136441932067955E8 ; 3.377137936945884E9 ; 3.63472374263473E10 ; 0.0
190 ; 1.7009726403365903E7 ; 2.0136884753746572E8 ; 3.3941594529794345E9 ; 3.654860184566798E10 ; 0.0
191 ; 1.700125293798424E7 ; 2.0137325748376477E8 ; 3.4111691793828006E9 ; 3.6749970693205444E10 ; 0.0
192 ; 1.698911809681834E7 ; 2.01377649050097E8 ; 3.428170432320785E9 ; 3.695134395068921E10 ; 0.0
193 ; 1.6979228368793078E7 ; 2.0138202212785235E8 ; 3.4451595504176035E9 ; 3.71527215997393E10 ; 0.0
194 ; 1.6971375867132165E7 ; 2.0138637660927978E8 ; 3.4621387787863965E9 ; 3.735410362186716E10 ; 0.0
195 ; 1.69615357646882E7 ; 2.0139071238747674E8 ; 3.4791101546535287E9 ; 3.755548999847644E10 ; 0.0
