CSV File for the City 5 on Day 1
1 - Minute m 
2 - Power Consumed at minute m 
3 - Power Produced at minute m 
4 - Energy Consumed since the beginning of the day 
5 - Energy Produced since the beginning of the day 
6 - Energy Lost since the beginning of the day on lines starting from the city
 
0 ; 8494988.530923929 ; 1.0046119381253684E7 ; 0.0 ; 0.0 ; 0.0
1 ; 8504084.296055382 ; 1.0046119381253684E7 ; 8494988.530923929 ; 1.0046119381253684E7 ; 0.0
2 ; 8511740.827568116 ; 1.0046119381253684E7 ; 1.699907282697931E7 ; 2.0092238762507368E7 ; 0.0
3 ; 8523014.565462625 ; 1.0046119381253684E7 ; 2.5510813654547423E7 ; 3.0138358143761054E7 ; 0.0
4 ; 8538456.122073619 ; 1.0046119381253684E7 ; 3.403382822001005E7 ; 4.0184477525014736E7 ; 0.0
5 ; 8553922.541359965 ; 1.0046119381253684E7 ; 4.257228434208367E7 ; 5.023059690626842E7 ; 0.0
6 ; 8573958.526993124 ; 1.0046119381253684E7 ; 5.112620688344364E7 ; 6.02767162875221E7 ; 0.0
7 ; 8600590.505146017 ; 1.0046119381253684E7 ; 5.9700165410436764E7 ; 7.032283566877578E7 ; 0.0
8 ; 8641888.733217672 ; 1.0046119381253684E7 ; 6.830075591558278E7 ; 8.036895505002947E7 ; 0.0
9 ; 8704736.85588933 ; 1.0046119381253684E7 ; 7.694264464880045E7 ; 9.041507443128316E7 ; 0.0
10 ; 8804051.804088335 ; 1.0046119381253684E7 ; 8.564738150468978E7 ; 1.0046119381253685E8 ; 0.0
11 ; 8959475.852182088 ; 1.0046119381253684E7 ; 9.445143330877812E7 ; 1.1050731319379054E8 ; 0.0
12 ; 9209229.27746588 ; 1.0046119381253684E7 ; 1.0341090916096021E8 ; 1.2055343257504423E8 ; 0.0
13 ; 9446093.39357073 ; 1.0046119381253684E7 ; 1.1262013843842609E8 ; 1.3059955195629792E8 ; 0.0
14 ; 9473252.935095731 ; 1.0046119381253684E7 ; 1.2206623183199683E8 ; 1.406456713375516E8 ; 0.0
15 ; 9482325.312356042 ; 1.0046119381253684E7 ; 1.3153948476709256E8 ; 1.5069179071880528E8 ; 0.0
16 ; 9494171.660817092 ; 1.0046119381253684E7 ; 1.410218100794486E8 ; 1.6073791010005897E8 ; 0.0
17 ; 9506432.040801043 ; 1.0046119381253684E7 ; 1.505159817402657E8 ; 1.7078402948131266E8 ; 0.0
18 ; 9518073.192357676 ; 1.0046119381253684E7 ; 1.6002241378106675E8 ; 1.8083014886256635E8 ; 0.0
19 ; 9528205.440536574 ; 1.0046119381253684E7 ; 1.6954048697342443E8 ; 1.9087626824382004E8 ; 0.0
20 ; 9541963.56120864 ; 1.0046119381253684E7 ; 1.79068692413961E8 ; 2.0092238762507373E8 ; 0.0
21 ; 9547951.134308107 ; 1.0046119381253684E7 ; 1.8861065597516963E8 ; 2.1096850700632742E8 ; 0.0
22 ; 9562885.157303257 ; 1.0046119381253684E7 ; 1.9815860710947773E8 ; 2.210146263875811E8 ; 0.0
23 ; 9575842.400492081 ; 1.0046119381253684E7 ; 2.0772149226678097E8 ; 2.310607457688348E8 ; 0.0
24 ; 9585453.507444248 ; 1.0046119381253684E7 ; 2.1729733466727304E8 ; 2.411068651500885E8 ; 0.0
25 ; 9599122.473743888 ; 1.0046119381253684E7 ; 2.268827881747173E8 ; 2.5115298453134218E8 ; 0.0
26 ; 9607691.117592795 ; 1.0046119381253684E7 ; 2.364819106484612E8 ; 2.6119910391259587E8 ; 0.0
27 ; 9619873.967640692 ; 1.0046119381253684E7 ; 2.4608960176605397E8 ; 2.712452232938495E8 ; 0.0
28 ; 9628637.315339698 ; 1.0046119381253684E7 ; 2.5570947573369467E8 ; 2.812913426751032E8 ; 0.0
29 ; 9639728.128333192 ; 1.0046119381253684E7 ; 2.6533811304903436E8 ; 2.9133746205635685E8 ; 0.0
30 ; 9647777.602700556 ; 1.0046119381253684E7 ; 2.7497784117736757E8 ; 3.013835814376105E8 ; 0.0
31 ; 9659863.131147904 ; 1.0046119381253684E7 ; 2.846256187800681E8 ; 3.1142970081886417E8 ; 0.0
32 ; 9669667.451882351 ; 1.0046119381253684E7 ; 2.94285481911216E8 ; 3.214758202001178E8 ; 0.0
33 ; 9684197.581467085 ; 1.0046119381253684E7 ; 3.039551493630984E8 ; 3.315219395813715E8 ; 0.0
34 ; 9691512.027621524 ; 1.0046119381253684E7 ; 3.136393469445655E8 ; 3.4156805896262515E8 ; 0.0
35 ; 9697289.38313575 ; 1.0046119381253684E7 ; 3.23330858972187E8 ; 3.516141783438788E8 ; 0.0
36 ; 9711712.603463883 ; 1.0046119381253684E7 ; 3.330281483553227E8 ; 3.6166029772513247E8 ; 0.0
37 ; 9716581.53928299 ; 1.0046119381253684E7 ; 3.427398609587866E8 ; 3.717064171063861E8 ; 0.0
38 ; 9727687.22357579 ; 1.0046119381253684E7 ; 3.524564424980696E8 ; 3.817525364876398E8 ; 0.0
39 ; 9736890.768977635 ; 1.0046119381253684E7 ; 3.6218412972164536E8 ; 3.9179865586889344E8 ; 0.0
40 ; 9739663.681240888 ; 1.0046119381253684E7 ; 3.71921020490623E8 ; 4.018447752501471E8 ; 0.0
41 ; 9749411.31665046 ; 1.0046119381253684E7 ; 3.816606841718639E8 ; 4.1189089463140076E8 ; 0.0
42 ; 9752444.51895048 ; 1.0046119381253684E7 ; 3.9141009548851436E8 ; 4.219370140126544E8 ; 0.0
43 ; 9758654.895773372 ; 1.0046119381253684E7 ; 4.011625400074648E8 ; 4.319831333939081E8 ; 0.0
44 ; 9767739.736331446 ; 1.0046119381253684E7 ; 4.109211949032382E8 ; 4.4202925277516174E8 ; 0.0
45 ; 9772172.606733711 ; 1.0046119381253684E7 ; 4.2068893463956964E8 ; 4.520753721564154E8 ; 0.0
46 ; 9779425.605743608 ; 1.0046119381253684E7 ; 4.304611072463034E8 ; 4.6212149153766906E8 ; 0.0
47 ; 9781263.864539051 ; 1.0046119381253684E7 ; 4.4024053285204697E8 ; 4.721676109189227E8 ; 0.0
48 ; 9786696.664623018 ; 1.0046119381253684E7 ; 4.50021796716586E8 ; 4.822137303001764E8 ; 0.0
49 ; 9790823.673511166 ; 1.0046119381253684E7 ; 4.59808493381209E8 ; 4.9225984968143004E8 ; 0.0
50 ; 9793869.936254026 ; 1.0046119381253684E7 ; 4.6959931705472016E8 ; 5.023059690626837E8 ; 0.0
51 ; 9797251.564200027 ; 1.0046119381253684E7 ; 4.793931869909742E8 ; 5.1235208844393736E8 ; 0.0
52 ; 9799044.155946454 ; 1.0046119381253684E7 ; 4.8919043855517423E8 ; 5.22398207825191E8 ; 0.0
53 ; 9800085.918946797 ; 1.0046119381253684E7 ; 4.9898948271112067E8 ; 5.324443272064447E8 ; 0.0
54 ; 9800269.631411344 ; 1.0046119381253684E7 ; 5.0878956863006747E8 ; 5.424904465876983E8 ; 0.0
55 ; 9808053.407292059 ; 1.0046119381253684E7 ; 5.185898382614788E8 ; 5.525365659689521E8 ; 0.0
56 ; 9808050.230997212 ; 1.0046119381253684E7 ; 5.2839789166877085E8 ; 5.625826853502058E8 ; 0.0
57 ; 9812480.896847032 ; 1.0046119381253684E7 ; 5.382059418997681E8 ; 5.726288047314595E8 ; 0.0
58 ; 9811801.797026392 ; 1.0046119381253684E7 ; 5.480184227966151E8 ; 5.826749241127132E8 ; 0.0
59 ; 9815592.47748711 ; 1.0046119381253684E7 ; 5.578302245936415E8 ; 5.927210434939669E8 ; 0.0
60 ; 9817558.9526392 ; 1.0046119381253684E7 ; 5.676458170711286E8 ; 6.027671628752207E8 ; 0.0
61 ; 9823641.441469915 ; 1.0046119381253684E7 ; 5.774633760237678E8 ; 6.128132822564744E8 ; 0.0
62 ; 9822554.657036107 ; 1.0046119381253684E7 ; 5.872870174652377E8 ; 6.228594016377281E8 ; 0.0
63 ; 9824769.587522965 ; 1.0046119381253684E7 ; 5.971095721222738E8 ; 6.329055210189818E8 ; 0.0
64 ; 9823276.837061115 ; 1.0046119381253684E7 ; 6.069343417097968E8 ; 6.429516404002355E8 ; 0.0
65 ; 9825726.605132626 ; 1.0046119381253684E7 ; 6.16757618546858E8 ; 6.529977597814893E8 ; 0.0
66 ; 9827100.555616034 ; 1.0046119381253684E7 ; 6.265833451519905E8 ; 6.63043879162743E8 ; 0.0
67 ; 9831869.237089738 ; 1.0046119381253684E7 ; 6.364104457076066E8 ; 6.730899985439967E8 ; 0.0
68 ; 9831936.437748305 ; 1.0046119381253684E7 ; 6.462423149446963E8 ; 6.831361179252504E8 ; 0.0
69 ; 9833053.992070243 ; 1.0046119381253684E7 ; 6.560742513824446E8 ; 6.931822373065041E8 ; 0.0
70 ; 9834189.455604298 ; 1.0046119381253684E7 ; 6.659073053745148E8 ; 7.032283566877578E8 ; 0.0
71 ; 9835624.371008787 ; 1.0046119381253684E7 ; 6.757414948301191E8 ; 7.132744760690116E8 ; 0.0
72 ; 9836767.68130063 ; 1.0046119381253684E7 ; 6.855771192011279E8 ; 7.233205954502653E8 ; 0.0
73 ; 9838403.893668767 ; 1.0046119381253684E7 ; 6.954138868824285E8 ; 7.33366714831519E8 ; 0.0
74 ; 9835063.252201837 ; 1.0046119381253684E7 ; 7.052522907760973E8 ; 7.434128342127727E8 ; 0.0
75 ; 9840016.656444084 ; 1.0046119381253684E7 ; 7.150873540282991E8 ; 7.534589535940264E8 ; 0.0
76 ; 9837577.54805054 ; 1.0046119381253684E7 ; 7.249273706847432E8 ; 7.635050729752802E8 ; 0.0
77 ; 9839882.722051475 ; 1.0046119381253684E7 ; 7.347649482327937E8 ; 7.735511923565339E8 ; 0.0
78 ; 9836126.748189861 ; 1.0046119381253684E7 ; 7.446048309548452E8 ; 7.835973117377876E8 ; 0.0
79 ; 9836155.91020516 ; 1.0046119381253684E7 ; 7.54440957703035E8 ; 7.936434311190413E8 ; 0.0
80 ; 9831857.51920314 ; 1.0046119381253684E7 ; 7.642771136132401E8 ; 8.03689550500295E8 ; 0.0
81 ; 9829264.947740048 ; 1.0046119381253684E7 ; 7.741089711324433E8 ; 8.137356698815488E8 ; 0.0
82 ; 9826234.283352965 ; 1.0046119381253684E7 ; 7.839382360801834E8 ; 8.237817892628025E8 ; 0.0
83 ; 9823284.455446238 ; 1.0046119381253684E7 ; 7.937644703635364E8 ; 8.338279086440562E8 ; 0.0
84 ; 9817845.350942496 ; 1.0046119381253684E7 ; 8.035877548189826E8 ; 8.438740280253099E8 ; 0.0
85 ; 9815921.890040789 ; 1.0046119381253684E7 ; 8.134056001699251E8 ; 8.539201474065636E8 ; 0.0
86 ; 9815882.151893439 ; 1.0046119381253684E7 ; 8.232215220599658E8 ; 8.639662667878174E8 ; 0.0
87 ; 9810064.325458031 ; 1.0046119381253684E7 ; 8.330374042118593E8 ; 8.740123861690711E8 ; 0.0
88 ; 9806879.882105555 ; 1.0046119381253684E7 ; 8.428474685373174E8 ; 8.840585055503248E8 ; 0.0
89 ; 9802362.850902995 ; 1.0046119381253684E7 ; 8.52654348419423E8 ; 8.941046249315785E8 ; 0.0
90 ; 9798581.08381915 ; 1.0046119381253684E7 ; 8.62456711270326E8 ; 9.041507443128322E8 ; 0.0
91 ; 9797798.3785829 ; 1.0046119381253684E7 ; 8.722552923541452E8 ; 9.14196863694086E8 ; 0.0
92 ; 9793847.723168602 ; 1.0046119381253684E7 ; 8.820530907327281E8 ; 9.242429830753397E8 ; 0.0
93 ; 9789523.225657405 ; 1.0046119381253684E7 ; 8.918469384558967E8 ; 9.342891024565934E8 ; 0.0
94 ; 9786160.210738735 ; 1.0046119381253684E7 ; 9.016364616815542E8 ; 9.443352218378471E8 ; 0.0
95 ; 9780365.528274983 ; 1.0046119381253684E7 ; 9.11422621892293E8 ; 9.543813412191008E8 ; 0.0
96 ; 9776860.817896007 ; 1.0046119381253684E7 ; 9.21202987420568E8 ; 9.644274606003546E8 ; 0.0
97 ; 9773291.368529389 ; 1.0046119381253684E7 ; 9.30979848238464E8 ; 9.744735799816083E8 ; 0.0
98 ; 9768611.077728761 ; 1.0046119381253684E7 ; 9.407531396069934E8 ; 9.84519699362862E8 ; 0.0
99 ; 9763679.437765466 ; 1.0046119381253684E7 ; 9.505217506847222E8 ; 9.945658187441157E8 ; 0.0
100 ; 9758325.011194082 ; 1.0046119381253684E7 ; 9.602854301224877E8 ; 1.0046119381253694E9 ; 0.0
101 ; 9755396.131999418 ; 1.0046119381253684E7 ; 9.700437551336818E8 ; 1.0146580575066231E9 ; 0.0
102 ; 9749421.408497265 ; 1.0046119381253684E7 ; 9.797991512656811E8 ; 1.0247041768878769E9 ; 0.0
103 ; 9748679.16953637 ; 1.0046119381253684E7 ; 9.895485726741784E8 ; 1.0347502962691306E9 ; 0.0
104 ; 9738590.899956094 ; 1.0046119381253684E7 ; 9.992972518437147E8 ; 1.0447964156503843E9 ; 0.0
105 ; 9733961.141643917 ; 1.0046119381253684E7 ; 1.0090358427436708E9 ; 1.054842535031638E9 ; 0.0
106 ; 9730947.18275045 ; 1.0046119381253684E7 ; 1.0187698038853147E9 ; 1.0648886544128917E9 ; 0.0
107 ; 9724401.851925535 ; 1.0046119381253684E7 ; 1.0285007510680652E9 ; 1.0749347737941453E9 ; 0.0
108 ; 9719794.530467572 ; 1.0046119381253684E7 ; 1.0382251529199907E9 ; 1.084980893175399E9 ; 0.0
109 ; 9712762.870943507 ; 1.0046119381253684E7 ; 1.0479449474504583E9 ; 1.0950270125566528E9 ; 0.0
110 ; 9707071.592946066 ; 1.0046119381253684E7 ; 1.0576577103214018E9 ; 1.1050731319379065E9 ; 0.0
111 ; 9702219.427060641 ; 1.0046119381253684E7 ; 1.0673647819143479E9 ; 1.1151192513191602E9 ; 0.0
112 ; 9699123.503138907 ; 1.0046119381253684E7 ; 1.0770670013414085E9 ; 1.125165370700414E9 ; 0.0
113 ; 9691708.576703275 ; 1.0046119381253684E7 ; 1.0867661248445475E9 ; 1.1352114900816677E9 ; 0.0
114 ; 9684502.43891583 ; 1.0046119381253684E7 ; 1.0964578334212508E9 ; 1.1452576094629214E9 ; 0.0
115 ; 9679911.539778098 ; 1.0046119381253684E7 ; 1.1061423358601665E9 ; 1.155303728844175E9 ; 0.0
116 ; 9671173.048019871 ; 1.0046119381253684E7 ; 1.1158222473999445E9 ; 1.1653498482254288E9 ; 0.0
117 ; 9666722.158681434 ; 1.0046119381253684E7 ; 1.1254934204479644E9 ; 1.1753959676066825E9 ; 0.0
118 ; 9658587.52466327 ; 1.0046119381253684E7 ; 1.1351601426066458E9 ; 1.1854420869879363E9 ; 0.0
119 ; 9657170.633120293 ; 1.0046119381253684E7 ; 1.144818730131309E9 ; 1.19548820636919E9 ; 0.0
120 ; 9645151.634401614 ; 1.0046119381253684E7 ; 1.1544759007644293E9 ; 1.2055343257504437E9 ; 0.0
121 ; 9641709.004907196 ; 1.0046119381253684E7 ; 1.164121052398831E9 ; 1.2155804451316974E9 ; 0.0
122 ; 9632696.620205376 ; 1.0046119381253684E7 ; 1.173762761403738E9 ; 1.2256265645129511E9 ; 0.0
123 ; 9627901.309820663 ; 1.0046119381253684E7 ; 1.1833954580239434E9 ; 1.2356726838942049E9 ; 0.0
124 ; 9620439.674569681 ; 1.0046119381253684E7 ; 1.193023359333764E9 ; 1.2457188032754586E9 ; 0.0
125 ; 9614906.88656618 ; 1.0046119381253684E7 ; 1.2026437990083337E9 ; 1.2557649226567123E9 ; 0.0
126 ; 9606371.550135115 ; 1.0046119381253684E7 ; 1.2122587058948998E9 ; 1.265811042037966E9 ; 0.0
127 ; 9602639.025684595 ; 1.0046119381253684E7 ; 1.221865077445035E9 ; 1.2758571614192197E9 ; 0.0
128 ; 9592508.887479667 ; 1.0046119381253684E7 ; 1.2314677164707196E9 ; 1.2859032808004735E9 ; 0.0
129 ; 9585524.964197805 ; 1.0046119381253684E7 ; 1.2410602253581994E9 ; 1.2959494001817272E9 ; 0.0
130 ; 9579920.97096483 ; 1.0046119381253684E7 ; 1.2506457503223972E9 ; 1.305995519562981E9 ; 0.0
131 ; 9564309.174054798 ; 1.0046119381253684E7 ; 1.2602256712933621E9 ; 1.3160416389442346E9 ; 0.0
132 ; 9554990.881952032 ; 1.0046119381253684E7 ; 1.269789980467417E9 ; 1.3260877583254883E9 ; 0.0
133 ; 9546041.966743192 ; 1.0046119381253684E7 ; 1.279344971349369E9 ; 1.336133877706742E9 ; 0.0
134 ; 9533431.401570117 ; 1.0046119381253684E7 ; 1.2888910133161123E9 ; 1.3461799970879958E9 ; 0.0
135 ; 9524012.625975762 ; 1.0046119381253684E7 ; 1.2984244447176824E9 ; 1.3562261164692495E9 ; 0.0
136 ; 9511731.523341216 ; 1.0046119381253684E7 ; 1.3079484573436582E9 ; 1.3662722358505032E9 ; 0.0
137 ; 9499829.608299814 ; 1.0046119381253684E7 ; 1.3174601888669994E9 ; 1.376318355231757E9 ; 0.0
138 ; 9491063.067103727 ; 1.0046119381253684E7 ; 1.3269600184752991E9 ; 1.3863644746130106E9 ; 0.0
139 ; 9480531.788085371 ; 1.0046119381253684E7 ; 1.3364510815424027E9 ; 1.3964105939942644E9 ; 0.0
140 ; 9471502.64619312 ; 1.0046119381253684E7 ; 1.3459316133304882E9 ; 1.406456713375518E9 ; 0.0
141 ; 9458434.302648827 ; 1.0046119381253684E7 ; 1.3554031159766812E9 ; 1.4165028327567718E9 ; 0.0
142 ; 9443709.120214352 ; 1.0046119381253684E7 ; 1.36486155027933E9 ; 1.4265489521380255E9 ; 0.0
143 ; 9434363.240108822 ; 1.0046119381253684E7 ; 1.3743052593995445E9 ; 1.4365950715192792E9 ; 0.0
144 ; 9421311.674818736 ; 1.0046119381253684E7 ; 1.3837396226396532E9 ; 1.446641190900533E9 ; 0.0
145 ; 9416664.798302108 ; 1.0046119381253684E7 ; 1.393160934314472E9 ; 1.4566873102817867E9 ; 0.0
146 ; 9408725.147860492 ; 1.0046119381253684E7 ; 1.4025775991127741E9 ; 1.4667334296630404E9 ; 0.0
147 ; 9399071.376385221 ; 1.0046119381253684E7 ; 1.4119863242606347E9 ; 1.476779549044294E9 ; 0.0
148 ; 9389504.319669055 ; 1.0046119381253684E7 ; 1.4213853956370199E9 ; 1.4868256684255478E9 ; 0.0
149 ; 9382912.962399423 ; 1.0046119381253684E7 ; 1.430774899956689E9 ; 1.4968717878068016E9 ; 0.0
150 ; 9379064.883010507 ; 1.0046119381253684E7 ; 1.4401578129190884E9 ; 1.5069179071880553E9 ; 0.0
151 ; 9366490.292705858 ; 1.0046119381253684E7 ; 1.4495368778020988E9 ; 1.516964026569309E9 ; 0.0
152 ; 9355041.541351222 ; 1.0046119381253684E7 ; 1.4589033680948045E9 ; 1.5270101459505627E9 ; 0.0
153 ; 9352004.217647508 ; 1.0046119381253684E7 ; 1.4682584096361558E9 ; 1.5370562653318164E9 ; 0.0
154 ; 9342243.363622619 ; 1.0046119381253684E7 ; 1.4776104138538034E9 ; 1.5471023847130702E9 ; 0.0
155 ; 9333558.322938967 ; 1.0046119381253684E7 ; 1.486952657217426E9 ; 1.5571485040943239E9 ; 0.0
156 ; 9326914.776907546 ; 1.0046119381253684E7 ; 1.496286215540365E9 ; 1.5671946234755776E9 ; 0.0
157 ; 9317163.090133483 ; 1.0046119381253684E7 ; 1.5056131303172724E9 ; 1.5772407428568313E9 ; 0.0
158 ; 9309897.892330566 ; 1.0046119381253684E7 ; 1.5149302934074059E9 ; 1.587286862238085E9 ; 0.0
159 ; 9303925.906231213 ; 1.0046119381253684E7 ; 1.5242401912997365E9 ; 1.5973329816193388E9 ; 0.0
160 ; 9292690.86824099 ; 1.0046119381253684E7 ; 1.5335441172059677E9 ; 1.6073791010005925E9 ; 0.0
161 ; 9284450.050261289 ; 1.0046119381253684E7 ; 1.5428368080742087E9 ; 1.6174252203818462E9 ; 0.0
162 ; 9274665.147284724 ; 1.0046119381253684E7 ; 1.55212125812447E9 ; 1.6274713397631E9 ; 0.0
163 ; 9265246.732656702 ; 1.0046119381253684E7 ; 1.5613959232717547E9 ; 1.6375174591443536E9 ; 0.0
164 ; 9260271.66057926 ; 1.0046119381253684E7 ; 1.5706611700044115E9 ; 1.6475635785256073E9 ; 0.0
165 ; 9251068.332738727 ; 1.0046119381253684E7 ; 1.5799214416649907E9 ; 1.657609697906861E9 ; 0.0
166 ; 9238755.477723716 ; 1.0046119381253684E7 ; 1.5891725099977293E9 ; 1.6676558172881148E9 ; 0.0
167 ; 9235574.173296075 ; 1.0046119381253684E7 ; 1.598411265475453E9 ; 1.6777019366693685E9 ; 0.0
168 ; 9223808.885370806 ; 1.0046119381253684E7 ; 1.6076468396487489E9 ; 1.6877480560506222E9 ; 0.0
169 ; 9216110.493890826 ; 1.0046119381253684E7 ; 1.6168706485341196E9 ; 1.697794175431876E9 ; 0.0
170 ; 9205954.51416267 ; 1.0046119381253684E7 ; 1.6260867590280104E9 ; 1.7078402948131297E9 ; 0.0
171 ; 9198163.729103938 ; 1.0046119381253684E7 ; 1.6352927135421731E9 ; 1.7178864141943834E9 ; 0.0
172 ; 9189276.888137953 ; 1.0046119381253684E7 ; 1.6444908772712772E9 ; 1.727932533575637E9 ; 0.0
173 ; 9180462.79047997 ; 1.0046119381253684E7 ; 1.6536801541594152E9 ; 1.7379786529568908E9 ; 0.0
174 ; 9174551.527016262 ; 1.0046119381253684E7 ; 1.6628606169498951E9 ; 1.7480247723381445E9 ; 0.0
175 ; 9170548.494343571 ; 1.0046119381253684E7 ; 1.6720351684769113E9 ; 1.7580708917193983E9 ; 0.0
176 ; 9162237.9787788 ; 1.0046119381253684E7 ; 1.6812057169712548E9 ; 1.768117011100652E9 ; 0.0
177 ; 9159378.985666966 ; 1.0046119381253684E7 ; 1.6903679549500337E9 ; 1.7781631304819057E9 ; 0.0
178 ; 9154720.410094496 ; 1.0046119381253684E7 ; 1.6995273339357007E9 ; 1.7882092498631594E9 ; 0.0
179 ; 9148978.492468078 ; 1.0046119381253684E7 ; 1.7086820543457952E9 ; 1.7982553692444131E9 ; 0.0
180 ; 9140995.949817188 ; 1.0046119381253684E7 ; 1.7178310328382633E9 ; 1.8083014886256669E9 ; 0.0
181 ; 9135605.024331331 ; 1.0046119381253684E7 ; 1.7269720287880805E9 ; 1.8183476080069206E9 ; 0.0
182 ; 9130748.649616478 ; 1.0046119381253684E7 ; 1.7361076338124118E9 ; 1.8283937273881743E9 ; 0.0
183 ; 9125498.3899379 ; 1.0046119381253684E7 ; 1.7452383824620283E9 ; 1.838439846769428E9 ; 0.0
184 ; 9121449.64311523 ; 1.0046119381253684E7 ; 1.7543638808519661E9 ; 1.8484859661506817E9 ; 0.0
185 ; 9114817.228960091 ; 1.0046119381253684E7 ; 1.7634853304950814E9 ; 1.8585320855319355E9 ; 0.0
186 ; 9109677.076134007 ; 1.0046119381253684E7 ; 1.7726001477240415E9 ; 1.8685782049131892E9 ; 0.0
187 ; 9104087.228268806 ; 1.0046119381253684E7 ; 1.7817098248001754E9 ; 1.878624324294443E9 ; 0.0
188 ; 9099922.743347403 ; 1.0046119381253684E7 ; 1.7908139120284443E9 ; 1.8886704436756966E9 ; 0.0
189 ; 9090826.2592703 ; 1.0046119381253684E7 ; 1.7999138347717917E9 ; 1.8987165630569503E9 ; 0.0
190 ; 9090112.255433908 ; 1.0046119381253684E7 ; 1.809004661031062E9 ; 1.908762682438204E9 ; 0.0
191 ; 9085208.871892475 ; 1.0046119381253684E7 ; 1.8180947732864957E9 ; 1.9188088018194578E9 ; 0.0
192 ; 9076595.562517518 ; 1.0046119381253684E7 ; 1.8271799821583881E9 ; 1.9288549212007115E9 ; 0.0
193 ; 9073575.399391964 ; 1.0046119381253684E7 ; 1.8362565777209055E9 ; 1.9389010405819652E9 ; 0.0
194 ; 9065769.79724063 ; 1.0046119381253684E7 ; 1.8453301531202974E9 ; 1.948947159963219E9 ; 0.0
195 ; 9058497.873415602 ; 1.0046119381253684E7 ; 1.8543959229175382E9 ; 1.9589932793444726E9 ; 0.0
196 ; 9059879.655313479 ; 1.0046119381253684E7 ; 1.8634544207909539E9 ; 1.9690393987257264E9 ; 0.0
197 ; 9054065.018972673 ; 1.0046119381253684E7 ; 1.8725143004462674E9 ; 1.97908551810698E9 ; 0.0
198 ; 9047559.916720685 ; 1.0046119381253684E7 ; 1.88156836546524E9 ; 1.9891316374882338E9 ; 0.0
199 ; 9041098.795671778 ; 1.0046119381253684E7 ; 1.8906159253819606E9 ; 1.9991777568694875E9 ; 0.0
200 ; 9034071.216795288 ; 1.0046119381253684E7 ; 1.8996570241776323E9 ; 2.0092238762507412E9 ; 0.0
201 ; 9030269.27009599 ; 1.0046119381253684E7 ; 1.9086910953944275E9 ; 2.019269995631995E9 ; 0.0
202 ; 9024572.809765978 ; 1.0046119381253684E7 ; 1.9177213646645236E9 ; 2.0293161150132487E9 ; 0.0
