CSV File for the City 2 on Day 219
1 - Minute m 
2 - Power Consumed at minute m 
3 - Power Produced at minute m 
4 - Energy Consumed since the beginning of the day 
5 - Energy Produced since the beginning of the day 
6 - Energy Lost since the beginning of the day on lines starting from the city
 
0 ; 121729.19276310474 ; 1.0519146755033973E8 ; 0.0 ; 0.0 ; 0.0
1 ; 124265.0770309188 ; 1.0534513421635664E8 ; 121729.19276310474 ; 1.0519146755033973E8 ; 0.0
2 ; 125970.85010649796 ; 1.0580749902932051E8 ; 245994.26979402354 ; 2.1053660176669636E8 ; 0.0
3 ; 128557.37581832768 ; 1.0657856559371144E8 ; 371965.1199005215 ; 3.163441007960169E8 ; 0.0
4 ; 131495.4286592741 ; 1.0765833741725767E8 ; 500522.4957188491 ; 4.229226663897283E8 ; 0.0
5 ; 136080.12829708372 ; 1.090468178228842E8 ; 632017.9243781233 ; 5.30581003806986E8 ; 0.0
6 ; 140213.35766547578 ; 1.1074400985303435E8 ; 768098.0526752069 ; 6.396278216298702E8 ; 0.0
7 ; 145366.60696256696 ; 1.1274991617127818E8 ; 908311.4103406827 ; 7.503718314829046E8 ; 0.0
8 ; 156544.079839789 ; 1.150645389674859E8 ; 1053678.0173032498 ; 8.631217476541827E8 ; 0.0
9 ; 169390.12272196246 ; 1.176878798736605E8 ; 1210222.0971430389 ; 9.781862866216686E8 ; 0.0
10 ; 191395.5394174298 ; 1.2061993989750987E8 ; 1379612.2198650013 ; 1.0958741664953291E9 ; 0.0
11 ; 225092.26713437418 ; 1.2386071937983337E8 ; 1571007.759282431 ; 1.216494106392839E9 ; 0.0
12 ; 279703.5206549894 ; 1.274102179798316E8 ; 1796100.0264168053 ; 1.3403548257726724E9 ; 0.0
13 ; 332757.8507087179 ; 1.3126843468979669E8 ; 2075803.5470717947 ; 1.467765043752504E9 ; 0.0
14 ; 339352.8986241937 ; 1.3543536787772572E8 ; 2408561.3977805125 ; 1.5990334784423008E9 ; 0.0
15 ; 341582.3235009891 ; 1.3991101535374838E8 ; 2747914.2964047063 ; 1.7344688463200264E9 ; 0.0
16 ; 344591.2051410401 ; 1.446953744542947E8 ; 3089496.6199056953 ; 1.8743798616737747E9 ; 0.0
17 ; 346812.5397436131 ; 1.4978844213692132E8 ; 3434087.8250467354 ; 2.0190752361280694E9 ; 0.0
18 ; 350243.09080546116 ; 1.5519021507870322E8 ; 3780900.3647903483 ; 2.168863678264991E9 ; 0.0
19 ; 353333.36482931825 ; 1.609006897719122E8 ; 4131143.4555958095 ; 2.324053893343694E9 ; 0.0
20 ; 355323.3330665602 ; 1.669198626120681E8 ; 4484476.820425128 ; 2.4849545831156063E9 ; 0.0
21 ; 358418.6582333688 ; 1.7324772997504523E8 ; 4839800.153491688 ; 2.6518744457276745E9 ; 0.0
22 ; 361706.79003107076 ; 1.798842882814657E8 ; 5198218.811725057 ; 2.8251221757027197E9 ; 0.0
23 ; 364360.1236641793 ; 1.8682953404793757E8 ; 5559925.601756128 ; 3.005006463984185E9 ; 0.0
24 ; 366958.42253841046 ; 1.9408346392569494E8 ; 5924285.725420306 ; 3.1918359980321226E9 ; 0.0
25 ; 370790.5688465269 ; 2.0033411562604535E8 ; 6291244.147958717 ; 3.3859194619578176E9 ; 0.0
26 ; 371942.14080732653 ; 2.0033503397473526E8 ; 6662034.716805244 ; 3.586253577583863E9 ; 0.0
27 ; 374795.9664301951 ; 2.0033598544623795E8 ; 7033976.857612571 ; 3.786588611558598E9 ; 0.0
28 ; 378460.8236343571 ; 2.0033696741348955E8 ; 7408772.824042765 ; 3.986924597004836E9 ; 0.0
29 ; 380989.1411758505 ; 2.003379774391946E8 ; 7787233.647677123 ; 4.1872615644183254E9 ; 0.0
30 ; 384397.60819583084 ; 2.003390132702987E8 ; 8168222.788852973 ; 4.38759954185752E9 ; 0.0
31 ; 386385.8919409948 ; 2.0034007282996923E8 ; 8552620.397048803 ; 4.587938555127819E9 ; 0.0
32 ; 389979.2514549467 ; 2.0034115420796695E8 ; 8939006.288989797 ; 4.788278627957788E9 ; 0.0
33 ; 390812.7157947382 ; 2.003422556500979E8 ; 9328985.540444745 ; 4.988619782165755E9 ; 0.0
34 ; 393654.5657964113 ; 2.0034337554726833E8 ; 9719798.256239483 ; 5.188962037815853E9 ; 0.0
35 ; 396733.3969720719 ; 2.003445124245269E8 ; 1.0113452822035894E7 ; 5.389305413363121E9 ; 0.0
36 ; 398524.7646998149 ; 2.003456649303665E8 ; 1.0510186219007965E7 ; 5.589649925787648E9 ; 0.0
37 ; 400965.8911046671 ; 2.003468318264698E8 ; 1.090871098370778E7 ; 5.789995590718015E9 ; 0.0
38 ; 403364.62552919047 ; 2.0034801197801626E8 ; 1.1309676874812447E7 ; 5.990342422544484E9 ; 0.0
39 ; 405830.2413754464 ; 2.003492043446158E8 ; 1.1713041500341637E7 ; 6.1906904345225E9 ; 0.0
40 ; 408390.796662075 ; 2.0035040797189972E8 ; 1.2118871741717083E7 ; 6.391039638867116E9 ; 0.0
41 ; 410287.03886300634 ; 2.0035162198377046E8 ; 1.2527262538379159E7 ; 6.591390046839016E9 ; 0.0
42 ; 411366.10663484933 ; 2.0035284557529536E8 ; 1.2937549577242166E7 ; 6.791741668822786E9 ; 0.0
43 ; 413555.77762640815 ; 2.003540780062162E8 ; 1.3348915683877015E7 ; 6.992094514398082E9 ; 0.0
44 ; 415905.6753529426 ; 2.003553185950402E8 ; 1.3762471461503424E7 ; 7.192448592404298E9 ; 0.0
45 ; 417080.8788087496 ; 2.003565667136723E8 ; 1.4178377136856366E7 ; 7.392803910999338E9 ; 0.0
46 ; 419657.31944418815 ; 2.003578217825488E8 ; 1.4595458015665116E7 ; 7.593160477713011E9 ; 0.0
47 ; 419740.0626304182 ; 2.0035908326623046E8 ; 1.5015115335109305E7 ; 7.79351829949556E9 ; 0.0
48 ; 422436.0503309836 ; 2.0036035066941634E8 ; 1.5434855397739723E7 ; 7.99387738276179E9 ; 0.0
49 ; 422927.29751818726 ; 2.0036162353333968E8 ; 1.5857291448070707E7 ; 8.194237733431207E9 ; 0.0
50 ; 424643.42189412774 ; 2.003629014325104E8 ; 1.6280218745588895E7 ; 8.394599356964546E9 ; 0.0
51 ; 425284.83198889124 ; 2.0036418397177172E8 ; 1.6704862167483022E7 ; 8.594962258397057E9 ; 0.0
52 ; 426924.3748374475 ; 2.0036547078363967E8 ; 1.7130146999471914E7 ; 8.795326442368828E9 ; 0.0
53 ; 428192.7747946517 ; 2.0036676152589816E8 ; 1.755707137430936E7 ; 8.995691913152468E9 ; 0.0
54 ; 428835.1554958163 ; 2.0036805587942407E8 ; 1.7985264149104014E7 ; 9.196058674678366E9 ; 0.0
55 ; 430866.9664117902 ; 2.0036935354621965E8 ; 1.841409930459983E7 ; 9.396426730557789E9 ; 0.0
56 ; 431807.1488161247 ; 2.0037065424763098E8 ; 1.884496627101162E7 ; 9.596796084104008E9 ; 0.0
57 ; 431453.6120297991 ; 2.003719577227343E8 ; 1.9276773419827744E7 ; 9.797166738351639E9 ; 0.0
58 ; 434535.3295169891 ; 2.00373263726873E8 ; 1.9708227031857543E7 ; 9.997538696074373E9 ; 0.0
59 ; 435490.9471329479 ; 2.003745720303306E8 ; 2.014276236137453E7 ; 1.0197911959801247E10 ; 0.0
60 ; 436422.09066990775 ; 2.003758824171254E8 ; 2.057825330850748E7 ; 1.0398286531831577E10 ; 0.0
61 ; 438237.758870709 ; 2.0037719468391547E8 ; 2.1014675399177387E7 ; 1.0598662414248703E10 ; 0.0
62 ; 437835.3080292706 ; 2.0037850863900262E8 ; 2.1452913158048097E7 ; 1.079903960893262E10 ; 0.0
63 ; 440034.2871753339 ; 2.003798241014255E8 ; 2.189074846607737E7 ; 1.099941811757162E10 ; 0.0
64 ; 440700.1681057788 ; 2.003811409001334E8 ; 2.2330782753252704E7 ; 1.1199797941673046E10 ; 0.0
65 ; 441680.0956111722 ; 2.0038245887323263E8 ; 2.277148292135848E7 ; 1.140017908257318E10 ; 0.0
66 ; 442305.71415795124 ; 2.003837778672985E8 ; 2.3213163016969655E7 ; 1.1600561541446411E10 ; 0.0
67 ; 443248.9638298076 ; 2.0038509773674688E8 ; 2.3655468731127605E7 ; 1.180094531931371E10 ; 0.0
68 ; 444477.86499966215 ; 2.00386418343259E8 ; 2.4098717694957413E7 ; 1.2001330417050457E10 ; 0.0
69 ; 446163.4387210031 ; 2.0038773955525532E8 ; 2.4543195559957076E7 ; 1.2201716835393717E10 ; 0.0
70 ; 447386.30593916704 ; 2.003890612474132E8 ; 2.498935899867808E7 ; 1.2402104574948973E10 ; 0.0
71 ; 448227.14657471795 ; 2.003903833002244E8 ; 2.543674530461725E7 ; 1.2602493636196386E10 ; 0.0
72 ; 448681.7831216662 ; 2.003917055995891E8 ; 2.5884972451191965E7 ; 1.280288401949661E10 ; 0.0
73 ; 449050.01483778225 ; 2.0039302803644285E8 ; 2.6333654234313633E7 ; 1.3003275725096199E10 ; 0.0
74 ; 450279.90924233996 ; 2.0039435050641307E8 ; 2.6782704249151416E7 ; 1.3203668753132643E10 ; 0.0
75 ; 450984.01634847384 ; 2.0039567290950346E8 ; 2.7232984158393756E7 ; 1.3404063103639055E10 ; 0.0
76 ; 451804.8961836514 ; 2.003969951498027E8 ; 2.768396817474223E7 ; 1.360445877654856E10 ; 0.0
77 ; 452500.46828906616 ; 2.003983171352162E8 ; 2.813577307092588E7 ; 1.3804855771698362E10 ; 0.0
78 ; 452891.07753954217 ; 2.0039963877721822E8 ; 2.8588273539214946E7 ; 1.4005254088833578E10 ; 0.0
79 ; 453098.3983685403 ; 2.0040095999062312E8 ; 2.9041164616754487E7 ; 1.4205653727610796E10 ; 0.0
80 ; 453419.5721522355 ; 2.0040228069337365E8 ; 2.949426301512303E7 ; 1.440605468760142E10 ; 0.0
81 ; 453552.985365486 ; 2.0040360080634537E8 ; 2.9947682587275263E7 ; 1.4606456968294792E10 ; 0.0
82 ; 453188.93327099195 ; 2.0040492025316522E8 ; 3.040123557264075E7 ; 1.4806860569101137E10 ; 0.0
83 ; 453223.3609961821 ; 2.0040623896004343E8 ; 3.085442450591174E7 ; 1.5007265489354301E10 ; 0.0
84 ; 452724.8579063884 ; 2.0040755685561785E8 ; 3.1307647866907924E7 ; 1.5207671728314344E10 ; 0.0
85 ; 453258.2184480443 ; 2.0040887387080914E8 ; 3.1760372724814314E7 ; 1.5408079285169962E10 ; 0.0
86 ; 453347.628006762 ; 2.004101899386864E8 ; 3.2213630943262357E7 ; 1.5608488159040771E10 ; 0.0
87 ; 454600.8295872183 ; 2.0041150499434224E8 ; 3.266697857126912E7 ; 1.5808898348979458E10 ; 0.0
88 ; 454916.27754466963 ; 2.0041281897477654E8 ; 3.312157940085634E7 ; 1.60093098539738E10 ; 0.0
89 ; 454678.65104910155 ; 2.0041413181878817E8 ; 3.357649567840101E7 ; 1.6209722672948578E10 ; 0.0
90 ; 453901.9244588341 ; 2.0041544346687424E8 ; 3.403117432945011E7 ; 1.6410136804767366E10 ; 0.0
91 ; 453894.8348731607 ; 2.0041675386113605E8 ; 3.448507625390894E7 ; 1.6610552248234241E10 ; 0.0
92 ; 454420.55802472495 ; 2.0041806294519126E8 ; 3.49389710887821E7 ; 1.6810969002095377E10 ; 0.0
93 ; 454366.7096876638 ; 2.0041937066409224E8 ; 3.539339164680683E7 ; 1.7011387065040567E10 ; 0.0
94 ; 454396.75592104334 ; 2.0042067696424928E8 ; 3.5847758356494494E7 ; 1.721180643570466E10 ; 0.0
95 ; 454193.1995792409 ; 2.0042198179335928E8 ; 3.630215511241554E7 ; 1.7412227112668907E10 ; 0.0
96 ; 453969.52664748236 ; 2.0042328510033873E8 ; 3.6756348311994776E7 ; 1.7612649094462265E10 ; 0.0
97 ; 455227.60997738293 ; 2.004245868352611E8 ; 3.721031783864226E7 ; 1.7813072379562603E10 ; 0.0
98 ; 454580.80851299304 ; 2.0042588694929817E8 ; 3.766554544861964E7 ; 1.8013496966397865E10 ; 0.0
99 ; 454323.7733186674 ; 2.004271853946651E8 ; 3.8120126257132635E7 ; 1.8213922853347164E10 ; 0.0
100 ; 454542.7359489476 ; 2.0042848212456885E8 ; 3.8574450030451305E7 ; 1.841435003874183E10 ; 0.0
101 ; 454050.5588933901 ; 2.004297770931597E8 ; 3.9028992766400255E7 ; 1.8614778520866398E10 ; 0.0
102 ; 453916.0582862744 ; 2.004310702554861E8 ; 3.9483043325293645E7 ; 1.8815208297959557E10 ; 0.0
103 ; 452848.0941464294 ; 2.0043236156745172E8 ; 3.993695938357992E7 ; 1.9015639368215042E10 ; 0.0
104 ; 453169.213968103 ; 2.0043365098577553E8 ; 4.038980747772635E7 ; 1.9216071729782494E10 ; 0.0
105 ; 452627.1293387487 ; 2.0043493846795404E8 ; 4.084297669169445E7 ; 1.941650538076827E10 ; 0.0
106 ; 453597.2864334616 ; 2.0043622397222587E8 ; 4.12956038210332E7 ; 1.961694031923622E10 ; 0.0
107 ; 452117.58273717534 ; 2.004375074575383E8 ; 4.174920110746666E7 ; 1.9817376543208447E10 ; 0.0
108 ; 452611.4431119238 ; 2.004387888835159E8 ; 4.220131869020384E7 ; 2.0017814050665985E10 ; 0.0
109 ; 452036.3125990376 ; 2.004400682104308E8 ; 4.2653930133315764E7 ; 2.02182528395495E10 ; 0.0
110 ; 451952.1893506145 ; 2.004413453991748E8 ; 4.3105966445914805E7 ; 2.041869290775993E10 ; 0.0
111 ; 452224.58497601264 ; 2.004426204112331E8 ; 4.355791863526542E7 ; 2.0619134253159103E10 ; 0.0
112 ; 451258.25003158994 ; 2.004438932086593E8 ; 4.401014322024143E7 ; 2.0819576873570335E10 ; 0.0
113 ; 451666.1598746622 ; 2.0044516375405198E8 ; 4.446140147027302E7 ; 2.1020020766778996E10 ; 0.0
114 ; 450845.2079709305 ; 2.0044643201053262E8 ; 4.491306763014768E7 ; 2.1220465930533047E10 ; 0.0
115 ; 451406.08164263057 ; 2.004476979417245E8 ; 4.536391283811861E7 ; 2.142091236254358E10 ; 0.0
116 ; 450225.954065845 ; 2.0044896151173308E8 ; 4.581531891976124E7 ; 2.1621360060485302E10 ; 0.0
117 ; 449918.72744612343 ; 2.0045022268512705E8 ; 4.6265544873827085E7 ; 2.1821809021997036E10 ; 0.0
118 ; 449496.503239138 ; 2.0045148142692083E8 ; 4.671546360127321E7 ; 2.2022259244682163E10 ; 0.0
119 ; 449071.38221765193 ; 2.0045273770255768E8 ; 4.716496010451235E7 ; 2.2222710726109085E10 ; 0.0
120 ; 449633.5636603069 ; 2.0045399147789392E8 ; 4.761403148673E7 ; 2.242316346381164E10 ; 0.0
121 ; 448280.05928843946 ; 2.0045524271918377E8 ; 4.806366505039031E7 ; 2.2623617455289536E10 ; 0.0
122 ; 448880.80083800026 ; 2.0045649139306524E8 ; 4.851194510967875E7 ; 2.282407269800872E10 ; 0.0
123 ; 448105.0246810801 ; 2.0045773746654654E8 ; 4.8960825910516754E7 ; 2.3024529189401787E10 ; 0.0
124 ; 448386.67163692805 ; 2.0045898090699327E8 ; 4.940893093519783E7 ; 2.3224986926868332E10 ; 0.0
125 ; 447399.61402205826 ; 2.0046022168211642E8 ; 4.985731760683476E7 ; 2.3425445907775326E10 ; 0.0
126 ; 446085.8151792319 ; 2.0046145975996062E8 ; 5.030471722085682E7 ; 2.3625906129457443E10 ; 0.0
127 ; 447133.7404601005 ; 2.004626951088934E8 ; 5.075080303603605E7 ; 2.3826367589217403E10 ; 0.0
128 ; 445281.6121947581 ; 2.0046392769759476E8 ; 5.119793677649615E7 ; 2.4026830284326298E10 ; 0.0
129 ; 444754.3486523542 ; 2.0046515749504724E8 ; 5.164321838869091E7 ; 2.422729421202389E10 ; 0.0
130 ; 444701.74994513195 ; 2.004663844705266E8 ; 5.208797273734327E7 ; 2.442775936951894E10 ; 0.0
131 ; 442834.7777162331 ; 2.00467608593593E8 ; 5.25326744872884E7 ; 2.4628225753989468E10 ; 0.0
132 ; 442159.83542437665 ; 2.0046882983408237E8 ; 5.2975509265004635E7 ; 2.482869336258306E10 ; 0.0
133 ; 441526.0580745426 ; 2.0047004816209847E8 ; 5.341766910042901E7 ; 2.5029162192417145E10 ; 0.0
134 ; 438916.672161574 ; 2.004712635480053E8 ; 5.3859195158503555E7 ; 2.5229632240579243E10 ; 0.0
135 ; 438521.89767648885 ; 2.0047247596241972E8 ; 5.429811183066513E7 ; 2.5430103504127247E10 ; 0.0
136 ; 437342.8552704056 ; 2.0047368537620452E8 ; 5.473663372834162E7 ; 2.563057598008967E10 ; 0.0
137 ; 435081.74923473684 ; 2.0047489176046193E8 ; 5.5173976583612025E7 ; 2.5831049665465874E10 ; 0.0
138 ; 434403.1112472982 ; 2.004760950865272E8 ; 5.560905833284676E7 ; 2.6031524557226337E10 ; 0.0
139 ; 433221.23327437945 ; 2.004772953259628E8 ; 5.604346144409406E7 ; 2.6232000652312866E10 ; 0.0
140 ; 432935.6164371109 ; 2.004784924505526E8 ; 5.647668267736844E7 ; 2.643247794763883E10 ; 0.0
141 ; 430514.7321513738 ; 2.0047968643229645E8 ; 5.690961829380555E7 ; 2.6632956440089382E10 ; 0.0
142 ; 429717.1846544395 ; 2.0048087724340516E8 ; 5.734013302595692E7 ; 2.683343612652168E10 ; 0.0
143 ; 428334.9445007333 ; 2.0048206485629535E8 ; 5.776985021061136E7 ; 2.7033917003765083E10 ; 0.0
144 ; 427292.17076714913 ; 2.0048324924358496E8 ; 5.8198185155112095E7 ; 2.723439906862138E10 ; 0.0
145 ; 426628.638802498 ; 2.004844303780887E8 ; 5.8625477325879246E7 ; 2.7434882317864964E10 ; 0.0
146 ; 425207.8445732172 ; 2.0048560823281384E8 ; 5.9052105964681745E7 ; 2.7635366748243053E10 ; 0.0
147 ; 424288.9120366913 ; 2.004867827809559E8 ; 5.947731380925496E7 ; 2.783585235647587E10 ; 0.0
148 ; 424807.32425166946 ; 2.0048795399589524E8 ; 5.9901602721291654E7 ; 2.8036339139256824E10 ; 0.0
149 ; 423650.71157686 ; 2.004891218511929E8 ; 6.032641004554332E7 ; 2.823682709325272E10 ; 0.0
150 ; 424422.060284723 ; 2.004902863205873E8 ; 6.075006075712018E7 ; 2.8437316215103912E10 ; 0.0
151 ; 423190.62488010066 ; 2.0049144737799093E8 ; 6.11744828174049E7 ; 2.86378065014245E10 ; 0.0
152 ; 421816.7875340007 ; 2.0049260499748692E8 ; 6.1597673442285E7 ; 2.883829794880249E10 ; 0.0
153 ; 420958.83444216545 ; 2.004937591533262E8 ; 6.2019490229819E7 ; 2.9038790553799976E10 ; 0.0
154 ; 421181.21665548574 ; 2.0049490981992444E8 ; 6.244044906426117E7 ; 2.9239284312953304E10 ; 0.0
155 ; 420195.11987001606 ; 2.0049605697185925E8 ; 6.286163028091665E7 ; 2.9439779222773228E10 ; 0.0
156 ; 420698.1348256831 ; 2.0049720058386767E8 ; 6.328182540078667E7 ; 2.9640275279745087E10 ; 0.0
157 ; 419921.25391222583 ; 2.0049834063084343E8 ; 6.370252353561235E7 ; 2.9840772480328953E10 ; 0.0
158 ; 419112.8017668612 ; 2.0049947708783463E8 ; 6.412244478952458E7 ; 3.0041270820959797E10 ; 0.0
159 ; 418306.8074630104 ; 2.0050060993004143E8 ; 6.4541557591291435E7 ; 3.024177029804763E10 ; 0.0
160 ; 418733.8496834814 ; 2.005017391328138E8 ; 6.495986439875445E7 ; 3.0442270907977673E10 ; 0.0
161 ; 417963.00225978467 ; 2.0050286467164943E8 ; 6.5378598248437926E7 ; 3.0642772647110485E10 ; 0.0
162 ; 416813.6207106579 ; 2.0050398652219164E8 ; 6.579656125069771E7 ; 3.0843275511782135E10 ; 0.0
163 ; 416700.6691257469 ; 2.0050510466022763E8 ; 6.6213374871408366E7 ; 3.1043779498304325E10 ; 0.0
164 ; 415799.5342933424 ; 2.0050621906168643E8 ; 6.663007554053411E7 ; 3.1244284602964554E10 ; 0.0
165 ; 415694.58664354787 ; 2.005073297026373E8 ; 6.704587507482745E7 ; 3.144479082202624E10 ; 0.0
166 ; 415019.55006016535 ; 2.0050843655928805E8 ; 6.7461569661471E7 ; 3.1645298151728878E10 ; 0.0
167 ; 414190.34908963187 ; 2.0050953960798326E8 ; 6.787658921153116E7 ; 3.1845806588288166E10 ; 0.0
168 ; 414574.30776032904 ; 2.0051063882520303E8 ; 6.82907795606208E7 ; 3.204631612789615E10 ; 0.0
169 ; 413695.8396321276 ; 2.0051173418756127E8 ; 6.870535386838113E7 ; 3.224682676672135E10 ; 0.0
170 ; 413070.18789265986 ; 2.0051282567180455E8 ; 6.911904970801325E7 ; 3.2447338500908913E10 ; 0.0
171 ; 411960.5366272189 ; 2.0051391325481054E8 ; 6.953211989590591E7 ; 3.264785132658072E10 ; 0.0
172 ; 411893.0358423302 ; 2.0051499691358694E8 ; 6.994408043253313E7 ; 3.284836523983553E10 ; 0.0
173 ; 412275.2864878957 ; 2.0051607662527013E8 ; 7.035597346837546E7 ; 3.3048880236749115E10 ; 0.0
174 ; 411715.2291751109 ; 2.0051715236712414E8 ; 7.076824875486335E7 ; 3.3249396313374386E10 ; 0.0
175 ; 411417.97086014133 ; 2.0051822411653945E8 ; 7.117996398403846E7 ; 3.344991346574151E10 ; 0.0
176 ; 411020.6053499998 ; 2.0051929185103202E8 ; 7.15913819548986E7 ; 3.3650431689858047E10 ; 0.0
177 ; 409279.32406510744 ; 2.0052035554824224E8 ; 7.20024025602486E7 ; 3.385095098170908E10 ; 0.0
178 ; 409833.27047297376 ; 2.0052141518593407E8 ; 7.24116818843137E7 ; 3.405147133725732E10 ; 0.0
179 ; 408165.9321390393 ; 2.00522470741994E8 ; 7.282151515478668E7 ; 3.4251992752443253E10 ; 0.0
180 ; 408331.80081460817 ; 2.0052352219443032E8 ; 7.322968108692572E7 ; 3.445251522318525E10 ; 0.0
181 ; 408523.7208704765 ; 2.005245695213722E8 ; 7.363801288774033E7 ; 3.465303874537968E10 ; 0.0
182 ; 408903.5807580986 ; 2.00525612701069E8 ; 7.404653660861081E7 ; 3.485356331490105E10 ; 0.0
183 ; 407093.0276368703 ; 2.0052665171188945E8 ; 7.44554401893689E7 ; 3.505408892760212E10 ; 0.0
184 ; 406891.33192305116 ; 2.0052768653232098E8 ; 7.486253321700577E7 ; 3.525461557931401E10 ; 0.0
185 ; 406582.9614102583 ; 2.0052871714096913E8 ; 7.526942454892883E7 ; 3.545514326584633E10 ; 0.0
186 ; 406275.7044074507 ; 2.0052974351655668E8 ; 7.567600751033908E7 ; 3.56556719829873E10 ; 0.0
187 ; 405898.8021174444 ; 2.0053076563792336E8 ; 7.608228321474653E7 ; 3.585620172650385E10 ; 0.0
188 ; 406402.79267423926 ; 2.0053178348402503E8 ; 7.648818201686397E7 ; 3.605673249214178E10 ; 0.0
189 ; 405858.017030572 ; 2.005327970339332E8 ; 7.689458480953822E7 ; 3.62572642756258E10 ; 0.0
190 ; 405071.74992390024 ; 2.0053380626683462E8 ; 7.730044282656878E7 ; 3.645779707265974E10 ; 0.0
191 ; 404419.23163288 ; 2.0053481116203067E8 ; 7.770551457649268E7 ; 3.6658330878926575E10 ; 0.0
192 ; 403970.95937040943 ; 2.005358116989369E8 ; 7.810993380812556E7 ; 3.685886569008861E10 ; 0.0
193 ; 404034.269144729 ; 2.0053680785708272E8 ; 7.851390476749596E7 ; 3.7059401501787544E10 ; 0.0
194 ; 404061.567883831 ; 2.0053779961611083E8 ; 7.891793903664069E7 ; 3.725993830964463E10 ; 0.0
195 ; 403088.74774186336 ; 2.005387869557769E8 ; 7.932200060452452E7 ; 3.746047610926074E10 ; 0.0
196 ; 403027.4469334753 ; 2.0053976985594928E8 ; 7.972508935226639E7 ; 3.766101489621652E10 ; 0.0
197 ; 402320.2690450242 ; 2.0054074829660848E8 ; 8.012811679919986E7 ; 3.786155466607247E10 ; 0.0
198 ; 401729.907723953 ; 2.0054172225784698E8 ; 8.053043706824489E7 ; 3.806209541436908E10 ; 0.0
199 ; 402549.9063815275 ; 2.0054269171986896E8 ; 8.093216697596884E7 ; 3.826263713662693E10 ; 0.0
200 ; 401816.8842361934 ; 2.0054365666298985E8 ; 8.133471688235037E7 ; 3.84631798283468E10 ; 0.0
201 ; 401446.40051575797 ; 2.005446170676362E8 ; 8.173653376658656E7 ; 3.866372348500979E10 ; 0.0
