CSV File for the City 6 on Day 80
1 - Minute m 
2 - Power Consumed at minute m 
3 - Power Produced at minute m 
4 - Energy Consumed since the beginning of the day 
5 - Energy Produced since the beginning of the day 
6 - Energy Lost since the beginning of the day on lines starting from the city
 
0 ; 1.115687894256356E7 ; 1.0603664482724074E8 ; 0.0 ; 0.0 ; 0.0
1 ; 1.117322371396109E7 ; 1.0618749791591644E8 ; 1.115687894256356E7 ; 1.0603664482724074E8 ; 0.0
2 ; 1.1180515398555722E7 ; 1.0664734557419136E8 ; 2.233010265652465E7 ; 2.1222414274315718E8 ; 0.0
3 ; 1.1195615178004408E7 ; 1.0741619184588546E8 ; 3.3510618055080373E7 ; 3.1887148831734854E8 ; 0.0
4 ; 1.1213140702581879E7 ; 1.0849404035986894E8 ; 4.470623323308478E7 ; 4.26287680163234E8 ; 0.0
5 ; 1.123261163575944E7 ; 1.0988089430831301E8 ; 5.5919373935666665E7 ; 5.3478172052310294E8 ; 0.0
6 ; 1.1258538459517E7 ; 1.115767564271594E8 ; 6.715198557142611E7 ; 6.446626148314159E8 ; 0.0
7 ; 1.1296005024838228E7 ; 1.1358162897908354E8 ; 7.841052403094311E7 ; 7.562393712585753E8 ; 0.0
8 ; 1.1350294806944847E7 ; 1.158955137391954E8 ; 8.970652905578133E7 ; 8.698210002376589E8 ; 0.0
9 ; 1.1425218850458125E7 ; 1.1851841198368895E8 ; 1.0105682386272618E8 ; 9.857165139768543E8 ; 0.0
10 ; 1.155682542061498E7 ; 1.2145032448160917E8 ; 1.1248204271318431E8 ; 1.1042349259605432E9 ; 0.0
11 ; 1.1753318020171095E7 ; 1.2469125148986182E8 ; 1.2403886813379928E8 ; 1.2256852504421523E9 ; 0.0
12 ; 1.2070205199598579E7 ; 1.2824119275154111E8 ; 1.357921861539704E8 ; 1.350376501932014E9 ; 0.0
13 ; 1.2373258702657174E7 ; 1.3210014749760205E8 ; 1.4786239135356897E8 ; 1.4786176946835551E9 ; 0.0
14 ; 1.2407514153088372E7 ; 1.3626811445185077E8 ; 1.6023565005622613E8 ; 1.610717842181157E9 ; 0.0
15 ; 1.242368786062529E7 ; 1.407450918391772E8 ; 1.726431642093145E8 ; 1.746985956633008E9 ; 0.0
16 ; 1.2433845897234969E7 ; 1.45531077396906E8 ; 1.850668520699398E8 ; 1.8877310484721851E9 ; 0.0
17 ; 1.2451920702311512E7 ; 1.5062606838909534E8 ; 1.9750069796717477E8 ; 2.033262125869091E9 ; 0.0
18 ; 1.246488138697871E7 ; 1.5603006162357408E8 ; 2.0995261866948628E8 ; 2.1838881942581863E9 ; 0.0
19 ; 1.2480225946009628E7 ; 1.61743053471472E8 ; 2.22417500056465E8 ; 2.3399182558817606E9 ; 0.0
20 ; 1.2492794755377937E7 ; 1.677650398889691E8 ; 2.3489772600247464E8 ; 2.5016613093532324E9 ; 0.0
21 ; 1.2510595876493702E7 ; 1.7409601644096825E8 ; 2.4739052075785258E8 ; 2.6694263492422013E9 ; 0.0
22 ; 1.2523816435995601E7 ; 1.8073597832637882E8 ; 2.5990111663434628E8 ; 2.8435223656831694E9 ; 0.0
23 ; 1.253847009054E7 ; 1.8768492040469402E8 ; 2.724249330703419E8 ; 3.024258344009548E9 ; 0.0
24 ; 1.2553654926668808E7 ; 1.9494283722353834E8 ; 2.849634031608819E8 ; 3.2119432644142423E9 ; 0.0
25 ; 1.2566753660792315E7 ; 2.0119776394505504E8 ; 2.975170580875507E8 ; 3.4068861016377807E9 ; 0.0
26 ; 1.257951641574396E7 ; 2.0120324241135556E8 ; 3.10083811748343E8 ; 3.6080838655828357E9 ; 0.0
27 ; 1.259599744140649E7 ; 2.0120903569803655E8 ; 3.2266332816408694E8 ; 3.809287107994191E9 ; 0.0
28 ; 1.261127401643283E7 ; 2.0121513738935637E8 ; 3.352593256054934E8 ; 4.010496143692228E9 ; 0.0
29 ; 1.2622621992144974E7 ; 2.012215408994272E8 ; 3.4787059962192625E8 ; 4.211711281081584E9 ; 0.0
30 ; 1.2635935456914285E7 ; 2.0122823949948397E8 ; 3.6049322161407125E8 ; 4.412932821981011E9 ; 0.0
31 ; 1.2649362711097023E7 ; 2.0123522634428E8 ; 3.7312915707098556E8 ; 4.614161061480495E9 ; 0.0
32 ; 1.2662482369721333E7 ; 2.0124249449744406E8 ; 3.8577851978208256E8 ; 4.815396287824776E9 ; 0.0
33 ; 1.2674970981930094E7 ; 2.0125003695565933E8 ; 3.984410021518039E8 ; 5.01663878232222E9 ; 0.0
34 ; 1.2686245836263755E7 ; 2.012578466715542E8 ; 4.11115973133734E8 ; 5.217888819277879E9 ; 0.0
35 ; 1.2700552138337748E7 ; 2.012659165752199E8 ; 4.2380221896999776E8 ; 5.419146665949433E9 ; 0.0
36 ; 1.2709161666951314E7 ; 2.012742395942952E8 ; 4.365027711083355E8 ; 5.620412582524653E9 ; 0.0
37 ; 1.2719135668614883E7 ; 2.0128280867258167E8 ; 4.492119327752868E8 ; 5.821686822118949E9 ; 0.0
38 ; 1.273280846256826E7 ; 2.0129161678717357E8 ; 4.6193106844390166E8 ; 6.022969630791531E9 ; 0.0
39 ; 1.274609463494399E7 ; 2.0130065696410465E8 ; 4.7466387690646994E8 ; 6.224261247578704E9 ; 0.0
40 ; 1.274985481552938E7 ; 2.0130992229253146E8 ; 4.874099715414139E8 ; 6.425561904542809E9 ; 0.0
41 ; 1.2762535791370412E7 ; 2.0131940593748572E8 ; 5.001598263569433E8 ; 6.62687182683534E9 ; 0.0
42 ; 1.277310289584553E7 ; 2.0132910115124056E8 ; 5.129223621483137E8 ; 6.828191232772825E9 ; 0.0
43 ; 1.2779108303236635E7 ; 2.0133900128334486E8 ; 5.2569546504415923E8 ; 7.029520333924066E9 ; 0.0
44 ; 1.278621804909958E7 ; 2.0134909978938732E8 ; 5.384745733473959E8 ; 7.230859335207411E9 ; 0.0
45 ; 1.2792107467881098E7 ; 2.0135939023855776E8 ; 5.512607913964955E8 ; 7.4322084349967985E9 ; 0.0
46 ; 1.279837413542996E7 ; 2.013698663200769E8 ; 5.640528988643765E8 ; 7.633567825235356E9 ; 0.0
47 ; 1.2804613055156041E7 ; 2.013805218485688E8 ; 5.768512729998065E8 ; 7.834937691555433E9 ; 0.0
48 ; 1.2813918997712864E7 ; 2.0139135076845017E8 ; 5.896558860549625E8 ; 8.036318213404002E9 ; 0.0
49 ; 1.2819708116169041E7 ; 2.0140234715741283E8 ; 6.024698050526754E8 ; 8.237709564172452E9 ; 0.0
50 ; 1.2822596285581814E7 ; 2.014135052290723E8 ; 6.152895131688445E8 ; 8.4391119113298645E9 ; 0.0
51 ; 1.2828119047141725E7 ; 2.0142481933485582E8 ; 6.281121094544263E8 ; 8.640525416558937E9 ; 0.0
52 ; 1.2831652254653739E7 ; 2.0143628396519926E8 ; 6.40940228501568E8 ; 8.841950235893793E9 ; 0.0
53 ; 1.2830404942218116E7 ; 2.0144789375012097E8 ; 6.537718807562217E8 ; 9.043386519858992E9 ; 0.0
54 ; 1.283518278077416E7 ; 2.01459643459236E8 ; 6.666022856984397E8 ; 9.244834413609112E9 ; 0.0
55 ; 1.2841830273246411E7 ; 2.014715280012716E8 ; 6.794374684792138E8 ; 9.446294057068348E9 ; 0.0
56 ; 1.2844366696995163E7 ; 2.0148354242314115E8 ; 6.922792987524602E8 ; 9.64776558506962E9 ; 0.0
57 ; 1.284912674382452E7 ; 2.0149568190862942E8 ; 7.051236654494554E8 ; 9.849249127492762E9 ; 0.0
58 ; 1.285351093135602E7 ; 2.0150794177673897E8 ; 7.179727921932799E8 ; 1.005074480940139E10 ; 0.0
59 ; 1.2851753151229123E7 ; 2.015203174797433E8 ; 7.308263031246359E8 ; 1.025225275117813E10 ; 0.0
60 ; 1.2855709337556513E7 ; 2.0153280460098886E8 ; 7.436780562758651E8 ; 1.0453773068657873E10 ; 0.0
61 ; 1.2861375265313987E7 ; 2.0154539885248452E8 ; 7.565337656134216E8 ; 1.0655305873258862E10 ; 0.0
62 ; 1.2863412627009878E7 ; 2.0155809607231358E8 ; 7.693951408787355E8 ; 1.0856851272111345E10 ; 0.0
63 ; 1.2861024938223356E7 ; 2.015708922219005E8 ; 7.822585535057454E8 ; 1.1058409368183659E10 ; 0.0
64 ; 1.2865178488968378E7 ; 2.0158378338316068E8 ; 7.951195784439688E8 ; 1.125998026040556E10 ; 0.0
65 ; 1.286810632359696E7 ; 2.015967657555597E8 ; 8.079847569329371E8 ; 1.1461564043788721E10 ; 0.0
66 ; 1.287223746314309E7 ; 2.0160983565310526E8 ; 8.208528632565341E8 ; 1.1663160809544281E10 ; 0.0
67 ; 1.287367299241416E7 ; 2.0162298950129172E8 ; 8.337251007196772E8 ; 1.1864770645197386E10 ; 0.0
68 ; 1.2875117121395705E7 ; 2.0163622383401713E8 ; 8.465987737120913E8 ; 1.2066393634698677E10 ; 0.0
69 ; 1.2879062585320942E7 ; 2.0164953529048744E8 ; 8.59473890833487E8 ; 1.2268029858532694E10 ; 0.0
70 ; 1.287995930096804E7 ; 2.0166292061212307E8 ; 8.72352953418808E8 ; 1.2469679393823181E10 ; 0.0
71 ; 1.2878937015236206E7 ; 2.0167637663948002E8 ; 8.85232912719776E8 ; 1.2671342314435305E10 ; 0.0
72 ; 1.2882568765237883E7 ; 2.0168990030919632E8 ; 8.981118497350123E8 ; 1.2873018691074785E10 ; 0.0
73 ; 1.2887999378056357E7 ; 2.0170348865097308E8 ; 9.109944185002502E8 ; 1.3074708591383982E10 ; 0.0
74 ; 1.2884690830147633E7 ; 2.0171713878459823E8 ; 9.238824178783066E8 ; 1.3276412080034954E10 ; 0.0
75 ; 1.2883996870560933E7 ; 2.0173084791701955E8 ; 9.367671087084543E8 ; 1.3478129218819551E10 ; 0.0
76 ; 1.288748735172251E7 ; 2.0174461333947247E8 ; 9.496511055790151E8 ; 1.367986006673657E10 ; 0.0
77 ; 1.2891607561745023E7 ; 2.0175843242466792E8 ; 9.625385929307376E8 ; 1.3881604680076042E10 ; 0.0
78 ; 1.2888532647940103E7 ; 2.0177230262404293E8 ; 9.754302004924827E8 ; 1.408336311250071E10 ; 0.0
79 ; 1.2878313985620612E7 ; 2.0178622146507818E8 ; 9.883187331404228E8 ; 1.4285135415124752E10 ; 0.0
80 ; 1.2879708499397174E7 ; 2.018001865486836E8 ; 1.0011970471260434E9 ; 1.448692163658983E10 ; 0.0
81 ; 1.2872754496446999E7 ; 2.01814195546655E8 ; 1.0140767556254406E9 ; 1.4688721823138514E10 ; 0.0
82 ; 1.2871909086314486E7 ; 2.018282461992012E8 ; 1.0269495101218876E9 ; 1.489053601868517E10 ; 0.0
83 ; 1.2866582692672487E7 ; 2.0184233631254432E8 ; 1.039821419208202E9 ; 1.509236426488437E10 ; 0.0
84 ; 1.286492755287729E7 ; 2.0185646375659153E8 ; 1.0526880019008745E9 ; 1.5294206601196915E10 ; 0.0
85 ; 1.286359069837733E7 ; 2.0187062646267977E8 ; 1.0655529294537518E9 ; 1.5496063064953506E10 ; 0.0
86 ; 1.285995213989173E7 ; 2.018848224213919E8 ; 1.0784165201521292E9 ; 1.5697933691416185E10 ; 0.0
87 ; 1.2858228870835382E7 ; 2.018990496804442E8 ; 1.0912764722920208E9 ; 1.5899818513837578E10 ; 0.0
88 ; 1.2853012376347465E7 ; 2.019133063426441E8 ; 1.104134701162856E9 ; 1.6101717563518023E10 ; 0.0
89 ; 1.2845184480690446E7 ; 2.0192759056391725E8 ; 1.1169877135392036E9 ; 1.6303630869860666E10 ; 0.0
90 ; 1.2847546379446356E7 ; 2.019419005514024E8 ; 1.1298328980198941E9 ; 1.6505558460424583E10 ; 0.0
91 ; 1.2836022914664209E7 ; 2.0195623456161287E8 ; 1.1426804443993404E9 ; 1.6707500360975986E10 ; 0.0
92 ; 1.283706851786487E7 ; 2.0197059089866322E8 ; 1.1555164673140047E9 ; 1.69094565955376E10 ; 0.0
93 ; 1.2829253744251879E7 ; 2.019849679125593E8 ; 1.1683535358318696E9 ; 1.7111427186436262E10 ; 0.0
94 ; 1.282468666888662E7 ; 2.0199936399755043E8 ; 1.1811827895761216E9 ; 1.731341215434882E10 ; 0.0
95 ; 1.2820697372166913E7 ; 2.020137775905414E8 ; 1.1940074762450082E9 ; 1.751541151834637E10 ; 0.0
96 ; 1.2815417868186047E7 ; 2.0202820716956344E8 ; 1.206828173617175E9 ; 1.7717425295936913E10 ; 0.0
97 ; 1.2810987105258083E7 ; 2.0204265125230163E8 ; 1.219643591485361E9 ; 1.7919453503106476E10 ; 0.0
98 ; 1.2806551847735476E7 ; 2.0205710839467743E8 ; 1.232454578590619E9 ; 1.8121496154358776E10 ; 0.0
99 ; 1.279902756903973E7 ; 2.0207157718948442E8 ; 1.2452611304383545E9 ; 1.8323553262753452E10 ; 0.0
100 ; 1.279463736456742E7 ; 2.0208605626507574E8 ; 1.2580601580073943E9 ; 1.8525624839942936E10 ; 0.0
101 ; 1.2787582721901806E7 ; 2.021005442841013E8 ; 1.2708547953719618E9 ; 1.872771089620801E10 ; 0.0
102 ; 1.2784629287296245E7 ; 2.0211503994229284E8 ; 1.2836423780938637E9 ; 1.892981144049211E10 ; 0.0
103 ; 1.2778138169556217E7 ; 2.0212954196729586E8 ; 1.29642700738116E9 ; 1.9131926480434402E10 ; 0.0
104 ; 1.277226860788421E7 ; 2.02144049117546E8 ; 1.3092051455507162E9 ; 1.93340560224017E10 ; 0.0
105 ; 1.2764615518809907E7 ; 2.021585601811888E8 ; 1.3219774141586003E9 ; 1.9536200071519245E10 ; 0.0
106 ; 1.2760631242795413E7 ; 2.0217307397504094E8 ; 1.3347420296774101E9 ; 1.9738358631700436E10 ; 0.0
107 ; 1.2752232623066148E7 ; 2.0218758934359178E8 ; 1.3475026609202056E9 ; 1.9940531705675476E10 ; 0.0
108 ; 1.2744232075877333E7 ; 2.022021051580431E8 ; 1.3602548935432718E9 ; 2.014271929501907E10 ; 0.0
109 ; 1.2739416426122693E7 ; 2.0221662031538635E8 ; 1.3729991256191492E9 ; 2.0344921400177113E10 ; 0.0
110 ; 1.2734243909604104E7 ; 2.0223113373751545E8 ; 1.3857385420452719E9 ; 2.05471380204925E10 ; 0.0
111 ; 1.2729014818733238E7 ; 2.0224564437037387E8 ; 1.398472785954876E9 ; 2.0749369154230015E10 ; 0.0
112 ; 1.272301917227926E7 ; 2.022601511831348E8 ; 1.4112018007736092E9 ; 2.0951614798600388E10 ; 0.0
113 ; 1.2711648325511279E7 ; 2.0227465316741312E8 ; 1.4239248199458885E9 ; 2.1153874949783524E10 ; 0.0
114 ; 1.2706444490830883E7 ; 2.022891493365077E8 ; 1.4366364682713997E9 ; 2.1356149602950935E10 ; 0.0
115 ; 1.269793630095401E7 ; 2.0230363872467324E8 ; 1.4493429127622306E9 ; 2.155843875228744E10 ; 0.0
116 ; 1.2692619832693521E7 ; 2.0231812038641998E8 ; 1.4620408490631847E9 ; 2.1760742391012115E10 ; 0.0
117 ; 1.2683263625230912E7 ; 2.023325933958407E8 ; 1.4747334688958783E9 ; 2.1963060511398537E10 ; 0.0
118 ; 1.2677648382921888E7 ; 2.023470568459634E8 ; 1.4874167325211093E9 ; 2.2165393104794376E10 ; 0.0
119 ; 1.2669723077737164E7 ; 2.0236150984812918E8 ; 1.5000943809040313E9 ; 2.236774016164034E10 ; 0.0
120 ; 1.2662585783955952E7 ; 2.0237595153139395E8 ; 1.5127641039817684E9 ; 2.257010167148847E10 ; 0.0
121 ; 1.2657073777838334E7 ; 2.0239038104195294E8 ; 1.5254266897657244E9 ; 2.2772477623019863E10 ; 0.0
122 ; 1.2646344794566665E7 ; 2.0240479754258758E8 ; 1.5380837635435627E9 ; 2.2974868004061817E10 ; 0.0
123 ; 1.2638267400624268E7 ; 2.024192002121333E8 ; 1.5507301083381293E9 ; 2.3177272801604404E10 ; 0.0
124 ; 1.2627535842371736E7 ; 2.0243358824496764E8 ; 1.5633683757387536E9 ; 2.3379692001816536E10 ; 0.0
125 ; 1.2623032592777364E7 ; 2.0244796085051817E8 ; 1.5759959115811253E9 ; 2.3582125590061504E10 ; 0.0
126 ; 1.261136972849357E7 ; 2.024623172527887E8 ; 1.5886189441739025E9 ; 2.378457355091202E10 ; 0.0
127 ; 1.2601791889175775E7 ; 2.0247665668990374E8 ; 1.601230313902396E9 ; 2.398703586816481E10 ; 0.0
128 ; 1.2599361826428618E7 ; 2.0249097841367012E8 ; 1.6138321057915719E9 ; 2.4189512524854713E10 ; 0.0
129 ; 1.2586565901844375E7 ; 2.0250528168915516E8 ; 1.6264314676180005E9 ; 2.4392003503268383E10 ; 0.0
130 ; 1.257895613381443E7 ; 2.0251956579428074E8 ; 1.6390180335198448E9 ; 2.459450878495754E10 ; 0.0
131 ; 1.2565731595903553E7 ; 2.0253383001943257E8 ; 1.651596989653659E9 ; 2.479702835075182E10 ; 0.0
132 ; 1.2551861044765355E7 ; 2.025480736670842E8 ; 1.6641627212495627E9 ; 2.499956218077125E10 ; 0.0
133 ; 1.2541256987751871E7 ; 2.0256229605143487E8 ; 1.6767145822943282E9 ; 2.5202110254438335E10 ; 0.0
134 ; 1.252391631879235E7 ; 2.0257649649806115E8 ; 1.6892558392820802E9 ; 2.540467255048977E10 ; 0.0
135 ; 1.2512567778872393E7 ; 2.0259067434358135E8 ; 1.7017797556008725E9 ; 2.560724904698783E10 ; 0.0
136 ; 1.249726418342068E7 ; 2.026048289353322E8 ; 1.714292323379745E9 ; 2.5809839721331413E10 ; 0.0
137 ; 1.2482630057740126E7 ; 2.026189596310579E8 ; 1.7267895875631657E9 ; 2.6012444550266747E10 ; 0.0
138 ; 1.2470728407929046E7 ; 2.0263306579861012E8 ; 1.7392722176209059E9 ; 2.6215063509897804E10 ; 0.0
139 ; 1.2461546968146512E7 ; 2.0264714681565952E8 ; 1.7517429460288348E9 ; 2.6417696575696415E10 ; 0.0
140 ; 1.244635018231993E7 ; 2.0266120206941742E8 ; 1.7642044929969814E9 ; 2.6620343722512074E10 ; 0.0
141 ; 1.2427345069795446E7 ; 2.0267523095636785E8 ; 1.7766508431793013E9 ; 2.682300492458149E10 ; 0.0
142 ; 1.2417223717733085E7 ; 2.0268923288200918E8 ; 1.7890781882490966E9 ; 2.7025680155537857E10 ; 0.0
143 ; 1.2401200393286677E7 ; 2.0270320726060548E8 ; 1.8014954119668298E9 ; 2.7228369388419865E10 ; 0.0
144 ; 1.2388399368327728E7 ; 2.027171535149464E8 ; 1.8138966123601165E9 ; 2.743107259568047E10 ; 0.0
145 ; 1.2382540766157437E7 ; 2.0273107107611603E8 ; 1.826285011728444E9 ; 2.7633789749195415E10 ; 0.0
146 ; 1.2367743002363056E7 ; 2.0274495938326994E8 ; 1.8386675524946015E9 ; 2.783652082027153E10 ; 0.0
147 ; 1.2360927585234284E7 ; 2.0275881788342032E8 ; 1.8510352954969645E9 ; 2.80392657796548E10 ; 0.0
148 ; 1.2347949182787003E7 ; 2.027726460312286E8 ; 1.8633962230821986E9 ; 2.824202459753822E10 ; 0.0
149 ; 1.2338064409495674E7 ; 2.027864432888057E8 ; 1.8757441722649856E9 ; 2.8444797243569447E10 ; 0.0
150 ; 1.2332776658711566E7 ; 2.0280020912551913E8 ; 1.8880822366744812E9 ; 2.8647583686858253E10 ; 0.0
151 ; 1.2320668047535507E7 ; 2.028139430178071E8 ; 1.9004150133331928E9 ; 2.8850383895983772E10 ; 0.0
152 ; 1.2308671802675102E7 ; 2.0282764444899902E8 ; 1.9127356813807282E9 ; 2.905319783900158E10 ; 0.0
153 ; 1.2299786179680806E7 ; 2.0284131290914255E8 ; 1.9250443531834033E9 ; 2.9256025483450577E10 ; 0.0
154 ; 1.2292305398251204E7 ; 2.0285494789483643E8 ; 1.937344139363084E9 ; 2.945886679635972E10 ; 0.0
155 ; 1.2284159199654019E7 ; 2.0286854890906936E8 ; 1.9496364447613354E9 ; 2.9661721744254555E10 ; 0.0
156 ; 1.2273611590498148E7 ; 2.0288211546106437E8 ; 1.9619206039609895E9 ; 2.9864590293163624E10 ; 0.0
157 ; 1.2261884714214489E7 ; 2.0289564706612864E8 ; 1.9741942155514877E9 ; 3.0067472408624687E10 ; 0.0
158 ; 1.2254491865039546E7 ; 2.0290914324550864E8 ; 1.9864561002657022E9 ; 3.0270368055690815E10 ; 0.0
159 ; 1.2245116292390948E7 ; 2.0292260352624995E8 ; 1.9987105921307418E9 ; 3.0473277198936325E10 ; 0.0
160 ; 1.223286276787733E7 ; 2.029360274410622E8 ; 2.010955708423133E9 ; 3.0676199802462574E10 ; 0.0
161 ; 1.2220900108213779E7 ; 2.0294941452818865E8 ; 2.0231885711910102E9 ; 3.0879135829903637E10 ; 0.0
162 ; 1.2210728952984914E7 ; 2.0296276433127984E8 ; 2.035409471299224E9 ; 3.1082085244431824E10 ; 0.0
163 ; 1.220061425805613E7 ; 2.0297607639927208E8 ; 2.0476202002522087E9 ; 3.1285048008763103E10 ; 0.0
164 ; 1.2190421144271465E7 ; 2.0298935028626978E8 ; 2.0598208145102649E9 ; 3.1488024085162376E10 ; 0.0
165 ; 1.2180162611627197E7 ; 2.030025855514316E8 ; 2.0720112356545362E9 ; 3.1691013435448647E10 ; 0.0
166 ; 1.2166991150737118E7 ; 2.0301578175886092E8 ; 2.0841913982661633E9 ; 3.1894016021000076E10 ; 0.0
167 ; 1.2161446372971438E7 ; 2.030289384774995E8 ; 2.0963583894169004E9 ; 3.2097031802758938E10 ; 0.0
168 ; 1.2150580180941647E7 ; 2.030420552810251E8 ; 2.108519835789872E9 ; 3.230006074123644E10 ; 0.0
169 ; 1.213245511572898E7 ; 2.0305513174775228E8 ; 2.1206704159708135E9 ; 3.2503102796517464E10 ; 0.0
170 ; 1.2128386203462144E7 ; 2.030681674605365E8 ; 2.1328028710865426E9 ; 3.2706157928265217E10 ; 0.0
171 ; 1.2114529864776673E7 ; 2.030811620066818E8 ; 2.1449312572900047E9 ; 3.2909226095725754E10 ; 0.0
172 ; 1.21037378974841E7 ; 2.0309411497785088E8 ; 2.1570457871547813E9 ; 3.3112307257732437E10 ; 0.0
173 ; 1.2096689448314145E7 ; 2.031070259699788E8 ; 2.1691495250522656E9 ; 3.331540137271029E10 ; 0.0
174 ; 1.2090302330431828E7 ; 2.031198945831892E8 ; 2.18124621450058E9 ; 3.3518508398680267E10 ; 0.0
175 ; 1.208251431489587E7 ; 2.0313272042171317E8 ; 2.193336516831012E9 ; 3.372162829326346E10 ; 0.0
176 ; 1.2077420871545179E7 ; 2.031455030938112E8 ; 2.205419031145908E9 ; 3.3924761013685173E10 ; 0.0
177 ; 1.206936679366213E7 ; 2.031582422116973E8 ; 2.217496452017453E9 ; 3.4127906516778984E10 ; 0.0
178 ; 1.2063951335033786E7 ; 2.0317093739146566E8 ; 2.2295658188111153E9 ; 3.433106475899068E10 ; 0.0
179 ; 1.2056971000600735E7 ; 2.0318358825301996E8 ; 2.241629770146149E9 ; 3.453423569638215E10 ; 0.0
180 ; 1.2050786954978801E7 ; 2.0319619442000455E8 ; 2.25368674114675E9 ; 3.473741928463517E10 ; 0.0
181 ; 1.2042093934915122E7 ; 2.032087555197383E8 ; 2.265737528101729E9 ; 3.4940615479055176E10 ; 0.0
182 ; 1.203736616332803E7 ; 2.0322127118315032E8 ; 2.277779622036644E9 ; 3.514382423457491E10 ; 0.0
183 ; 1.2030712450998008E7 ; 2.032337410447178E8 ; 2.289816988199972E9 ; 3.5347045505758064E10 ; 0.0
184 ; 1.2022759956232933E7 ; 2.0324616474240577E8 ; 2.30184770065097E9 ; 3.555027924680278E10 ; 0.0
185 ; 1.2016813134735813E7 ; 2.0325854191760918E8 ; 2.313870460607203E9 ; 3.575352541154519E10 ; 0.0
186 ; 1.2010890783845622E7 ; 2.0327087221509618E8 ; 2.3258872737419386E9 ; 3.59567839534628E10 ; 0.0
187 ; 1.2000212713753955E7 ; 2.032831552829538E8 ; 2.337898164525784E9 ; 3.6160054825677895E10 ; 0.0
188 ; 1.1998186860594021E7 ; 2.0329539077253518E8 ; 2.349898377239538E9 ; 3.6363337980960846E10 ; 0.0
189 ; 1.1990160955449816E7 ; 2.0330757833840817E8 ; 2.361896564100132E9 ; 3.656663337173338E10 ; 0.0
190 ; 1.1986857948365442E7 ; 2.0331971763830617E8 ; 2.3738867250555816E9 ; 3.676994095007179E10 ; 0.0
191 ; 1.1976164637041142E7 ; 2.0333180833307987E8 ; 2.385873583003947E9 ; 3.69732606677101E10 ; 0.0
192 ; 1.1971072522037162E7 ; 2.033438500866511E8 ; 2.397849747640988E9 ; 3.7176592476043175E10 ; 0.0
193 ; 1.196379106040826E7 ; 2.0335584256596762E8 ; 2.409820820163025E9 ; 3.737993632612983E10 ; 0.0
194 ; 1.1958404069103802E7 ; 2.033677854409597E8 ; 2.421784611223433E9 ; 3.75832921686958E10 ; 0.0
195 ; 1.1953486632344358E7 ; 2.03379678384498E8 ; 2.4337430152925367E9 ; 3.778665995413676E10 ; 0.0
