CSV File for the City 2 on Day 225
1 - Minute m 
2 - Power Consumed at minute m 
3 - Power Produced at minute m 
4 - Energy Consumed since the beginning of the day 
5 - Energy Produced since the beginning of the day 
6 - Energy Lost since the beginning of the day on lines starting from the city
 
0 ; 133771.6906829244 ; 1.0518222319332221E8 ; 0.0 ; 0.0 ; 0.0
1 ; 136850.21280019422 ; 1.0533562636404073E8 ; 133771.6906829244 ; 1.0518222319332221E8 ; 0.0
2 ; 138252.46366127522 ; 1.0579773058339676E8 ; 270621.9034831186 ; 2.1051784955736294E8 ; 0.0
3 ; 140692.1048419776 ; 1.0656854423312551E8 ; 408874.36714439385 ; 3.163155801407597E8 ; 0.0
4 ; 143616.811575468 ; 1.0764807647851849E8 ; 549566.4719863714 ; 4.228841243738852E8 ; 0.0
5 ; 148827.15783226656 ; 1.0903633705992502E8 ; 693183.2835618395 ; 5.305322008524037E8 ; 0.0
6 ; 152650.61256119385 ; 1.1073333593319473E8 ; 842010.441394106 ; 6.395685379123287E8 ; 0.0
7 ; 158878.4755808605 ; 1.1273908274339086E8 ; 994661.0539552999 ; 7.503018738455235E8 ; 0.0
8 ; 168898.95510242967 ; 1.1505358615181625E8 ; 1153539.5295361604 ; 8.630409565889144E8 ; 0.0
9 ; 182718.59524944585 ; 1.1767685308781838E8 ; 1322438.4846385901 ; 9.780945427407306E8 ; 0.0
10 ; 204746.52315508647 ; 1.2060888804840338E8 ; 1505157.079888036 ; 1.095771395828549E9 ; 0.0
11 ; 237221.40945032012 ; 1.2384969259399125E8 ; 1709903.6030431224 ; 1.2163802838769522E9 ; 0.0
12 ; 292826.6954644437 ; 1.2739926516416195E8 ; 1947125.0124934425 ; 1.3402299764709435E9 ; 0.0
13 ; 344287.3461978862 ; 1.3125760126190937E8 ; 2239951.707957886 ; 1.4676292416351054E9 ; 0.0
14 ; 352344.69873393094 ; 1.354246939578861E8 ; 2584239.0541557726 ; 1.5988868428970146E9 ; 0.0
15 ; 353842.35682093614 ; 1.399005345907892E8 ; 2936583.7528897035 ; 1.7343115368549008E9 ; 0.0
16 ; 357130.473471852 ; 1.4468511351555553E8 ; 3290426.10971064 ; 1.8742120714456902E9 ; 0.0
17 ; 359797.9781254279 ; 1.497784207763354E8 ; 3647556.583182492 ; 2.0188971849612458E9 ; 0.0
18 ; 363006.4971015887 ; 1.5518044663277948E8 ; 4007354.5613079197 ; 2.1686756057375813E9 ; 0.0
19 ; 364972.23493713135 ; 1.6089118191959628E8 ; 4370361.058409508 ; 2.323856052370361E9 ; 0.0
20 ; 368721.9447878467 ; 1.6691061825505057E8 ; 4735333.29334664 ; 2.484747234289957E9 ; 0.0
21 ; 371195.79337904975 ; 1.732387481311759E8 ; 5104055.238134487 ; 2.6516578525450077E9 ; 0.0
22 ; 374494.9652355373 ; 1.7987556492149258E8 ; 5475251.031513536 ; 2.8248966006761837E9 ; 0.0
23 ; 377588.50778470543 ; 1.868210628372863E8 ; 5849745.996749073 ; 3.0047721655976763E9 ; 0.0
24 ; 379427.0603762223 ; 1.940752368560021E8 ; 6227334.504533779 ; 3.1915932284349627E9 ; 0.0
25 ; 383134.48349057423 ; 2.0032612353612968E8 ; 6606761.564910001 ; 3.385668465290965E9 ; 0.0
26 ; 386075.6394700887 ; 2.003272669693246E8 ; 6989896.048400575 ; 3.5859945888270946E9 ; 0.0
27 ; 388430.6304521328 ; 2.003284332249276E8 ; 7375971.687870664 ; 3.786321855796419E9 ; 0.0
28 ; 391324.5848291432 ; 2.0032961952369338E8 ; 7764402.318322796 ; 3.9866502890213466E9 ; 0.0
29 ; 393346.8084840216 ; 2.003308234664453E8 ; 8155726.90315194 ; 4.18697990854504E9 ; 0.0
30 ; 397051.37610553455 ; 2.0033204297797838E8 ; 8549073.711635962 ; 4.387310732011485E9 ; 0.0
31 ; 400075.2801471459 ; 2.0033327625891587E8 ; 8946125.087741496 ; 4.587642774989464E9 ; 0.0
32 ; 401182.7624736381 ; 2.003345217447143E8 ; 9346200.367888642 ; 4.78797605124838E9 ; 0.0
33 ; 404567.1409133359 ; 2.003357780709266E8 ; 9747383.13036228 ; 4.988310572993094E9 ; 0.0
34 ; 406339.58452238014 ; 2.003370440438518E8 ; 1.0151950271275615E7 ; 5.188646351064021E9 ; 0.0
35 ; 409556.0745919928 ; 2.0033831861576864E8 ; 1.0558289855797995E7 ; 5.388983395107873E9 ; 0.0
36 ; 411616.20147635107 ; 2.0033960086404175E8 ; 1.0967845930389987E7 ; 5.589321713723641E9 ; 0.0
37 ; 413817.6755547978 ; 2.003408899734835E8 ; 1.1379462131866338E7 ; 5.789661314587683E9 ; 0.0
38 ; 415822.904525851 ; 2.0034218522144628E8 ; 1.1793279807421135E7 ; 5.990002204561166E9 ; 0.0
39 ; 418718.63804527005 ; 2.0034348596520075E8 ; 1.2209102711946987E7 ; 6.190344389782612E9 ; 0.0
40 ; 421694.25411499484 ; 2.0034479163122827E8 ; 1.2627821349992257E7 ; 6.390687875747812E9 ; 0.0
41 ; 422346.48993296165 ; 2.003461017061163E8 ; 1.3049515604107251E7 ; 6.591032667379041E9 ; 0.0
42 ; 424743.2420925321 ; 2.0034741572879857E8 ; 1.3471862094040213E7 ; 6.791378769085157E9 ; 0.0
43 ; 426786.08514991315 ; 2.0034873328392372E8 ; 1.3896605336132746E7 ; 6.991726184813956E9 ; 0.0
44 ; 427533.1834681094 ; 2.0035005399617422E8 ; 1.432339142128266E7 ; 7.19207491809788E9 ; 0.0
45 ; 430249.1666921008 ; 2.0035137752538604E8 ; 1.475092460475077E7 ; 7.392424972094054E9 ; 0.0
46 ; 430738.7848190557 ; 2.0035270356234515E8 ; 1.518117377144287E7 ; 7.59277634961944E9 ; 0.0
47 ; 433799.05488113844 ; 2.0035403182515734E8 ; 1.5611912556261925E7 ; 7.793129053181786E9 ; 0.0
48 ; 434593.9240627883 ; 2.0035536205610478E8 ; 1.6045711611143064E7 ; 7.993483085006943E9 ; 0.0
49 ; 436011.8918113143 ; 2.003566940189171E8 ; 1.6480305535205852E7 ; 8.193838447063047E9 ; 0.0
50 ; 436722.77784815716 ; 2.0035802749639606E8 ; 1.6916317427017167E7 ; 8.3941951410819645E9 ; 0.0
51 ; 437214.43468926207 ; 2.0035936228834286E8 ; 1.7353040204865325E7 ; 8.594553168578362E9 ; 0.0
52 ; 438871.31592815503 ; 2.0036069820974523E8 ; 1.7790254639554586E7 ; 8.794912530866705E9 ; 0.0
53 ; 439957.5478829065 ; 2.003620350891874E8 ; 1.822912595548274E7 ; 8.99527322907645E9 ; 0.0
54 ; 442206.99729581893 ; 2.0036337276745299E8 ; 1.8669083503365647E7 ; 9.195635264165638E9 ; 0.0
55 ; 444095.898825884 ; 2.0036471109629366E8 ; 1.9111290500661466E7 ; 9.39599863693309E9 ; 0.0
56 ; 444564.78292770206 ; 2.0036604993734258E8 ; 1.955538639948735E7 ; 9.596363348029385E9 ; 0.0
57 ; 444113.8357308239 ; 2.0036738916115236E8 ; 1.9999951182415053E7 ; 9.796729397966726E9 ; 0.0
58 ; 444610.0003676433 ; 2.0036872864634228E8 ; 2.0444065018145878E7 ; 9.997096787127878E9 ; 0.0
59 ; 447408.369674496 ; 2.0037006827884045E8 ; 2.0888675018513523E7 ; 1.019746551577422E10 ; 0.0
60 ; 449790.337342735 ; 2.00371407951209E8 ; 2.133608338818802E7 ; 1.039783558405306E10 ; 0.0
61 ; 449673.44950458314 ; 2.0037274756204218E8 ; 2.1785873725530755E7 ; 1.0598206992004269E10 ; 0.0
62 ; 449722.72975314345 ; 2.0037408701542813E8 ; 2.223554717503534E7 ; 1.079857973956631E10 ; 0.0
63 ; 451701.0709655965 ; 2.0037542622046724E8 ; 2.2685269904788483E7 ; 1.099895382658174E10 ; 0.0
64 ; 452382.32333616144 ; 2.003767650908399E8 ; 2.313697097575408E7 ; 1.1199329252802206E10 ; 0.0
65 ; 452182.7089503433 ; 2.0037810354441792E8 ; 2.358935329909024E7 ; 1.1399706017893045E10 ; 0.0
66 ; 456708.00392131583 ; 2.0037944150291514E8 ; 2.4041536008040585E7 ; 1.1600084121437464E10 ; 0.0
67 ; 455286.3297315554 ; 2.00380778891572E8 ; 2.44982440119619E7 ; 1.1800463562940378E10 ; 0.0
68 ; 456772.4310474741 ; 2.0038211563887092E8 ; 2.4953530341693453E7 ; 1.2000844341831951E10 ; 0.0
69 ; 456886.5675190284 ; 2.0038345167627874E8 ; 2.5410302772740927E7 ; 1.2201226457470821E10 ; 0.0
70 ; 457681.74220084504 ; 2.0038478693801355E8 ; 2.5867189340259954E7 ; 1.24016099091471E10 ; 0.0
71 ; 458872.7628363437 ; 2.0038612136083293E8 ; 2.63248710824608E7 ; 1.2601994696085114E10 ; 0.0
72 ; 460630.1337777354 ; 2.0038745488384184E8 ; 2.6783743845297143E7 ; 1.2802380817445946E10 ; 0.0
73 ; 461452.63212929526 ; 2.0038878744831762E8 ; 2.7244373979074877E7 ; 1.3002768272329788E10 ; 0.0
74 ; 462776.1363439769 ; 2.0039011899755076E8 ; 2.7705826611204173E7 ; 1.3203157059778107E10 ; 0.0
75 ; 462990.6577574046 ; 2.0039144947669944E8 ; 2.816860274754815E7 ; 1.3403547178775658E10 ; 0.0
76 ; 463224.14748490136 ; 2.0039277883265686E8 ; 2.8631593405305557E7 ; 1.3603938628252357E10 ; 0.0
77 ; 465141.54891036864 ; 2.0039410701392987E8 ; 2.909481755279046E7 ; 1.3804331407085014E10 ; 0.0
78 ; 464258.9443579554 ; 2.003954339705278E8 ; 2.9559959101700827E7 ; 1.4004725514098944E10 ; 0.0
79 ; 465701.6638780409 ; 2.0039675965386057E8 ; 3.002421804605878E7 ; 1.4205120948069471E10 ; 0.0
80 ; 464262.0671887186 ; 2.0039808401664525E8 ; 3.0489919709936824E7 ; 1.4405517707723331E10 ; 0.0
81 ; 464571.24759195937 ; 2.003994070128201E8 ; 3.095418177712554E7 ; 1.4605915791739977E10 ; 0.0
82 ; 464684.120649846 ; 2.004007285974656E8 ; 3.1418753024717502E7 ; 1.4806315198752796E10 ; 0.0
83 ; 465296.5429576287 ; 2.004020487267318E8 ; 3.1883437145367347E7 ; 1.5006715927350262E10 ; 0.0
84 ; 466115.9416186547 ; 2.0040336735777122E8 ; 3.2348733688324977E7 ; 1.5207117976076994E10 ; 0.0
85 ; 465755.5196660161 ; 2.0040468444867688E8 ; 3.281484962994363E7 ; 1.5407521343434765E10 ; 0.0
86 ; 466402.56237566663 ; 2.0040599995842555E8 ; 3.3280605149609648E7 ; 1.5607926027883442E10 ; 0.0
87 ; 466222.9668987464 ; 2.0040731384682456E8 ; 3.374700771198531E7 ; 1.5808332027841867E10 ; 0.0
88 ; 465107.3607955244 ; 2.004086260744633E8 ; 3.421323067888406E7 ; 1.6008739341688692E10 ; 0.0
89 ; 465518.1153471357 ; 2.004099366026678E8 ; 3.467833803967959E7 ; 1.6209147967763155E10 ; 0.0
90 ; 465854.1343265716 ; 2.0041124539345896E8 ; 3.514385615502672E7 ; 1.6409557904365822E10 ; 0.0
91 ; 465709.777163901 ; 2.0041255240951356E8 ; 3.560971028935329E7 ; 1.6609969149759281E10 ; 0.0
92 ; 465205.7845742037 ; 2.0041385761412826E8 ; 3.607542006651719E7 ; 1.6810381702168795E10 ; 0.0
93 ; 465654.60502174334 ; 2.0041516097118604E8 ; 3.654062585109139E7 ; 1.7010795559782923E10 ; 0.0
94 ; 466138.4387734533 ; 2.0041646244512513E8 ; 3.700628045611314E7 ; 1.721121072075411E10 ; 0.0
95 ; 466688.1296759862 ; 2.0041776200090978E8 ; 3.747241889488659E7 ; 1.7411627183199234E10 ; 0.0
96 ; 465041.573047573 ; 2.004190596040035E8 ; 3.7939107024562575E7 ; 1.761204494520014E10 ; 0.0
97 ; 466605.749447904 ; 2.004203552203437E8 ; 3.8404148597610146E7 ; 1.7812464004804146E10 ; 0.0
98 ; 465439.8589188341 ; 2.004216488163184E8 ; 3.887075434705805E7 ; 1.801288436002449E10 ; 0.0
99 ; 466094.8540869336 ; 2.0042294035874414E8 ; 3.933619420597688E7 ; 1.821330600884081E10 ; 0.0
100 ; 465052.5623421924 ; 2.0042422981484568E8 ; 3.980228906006382E7 ; 1.8413728949199554E10 ; 0.0
101 ; 465630.5115746693 ; 2.0042551715223682E8 ; 4.0267341622406006E7 ; 1.86141531790144E10 ; 0.0
102 ; 464264.219389012 ; 2.0042680233890256E8 ; 4.073297213398068E7 ; 1.8814578696166637E10 ; 0.0
103 ; 464697.376744992 ; 2.004280853431824E8 ; 4.119723635336969E7 ; 1.901500549850554E10 ; 0.0
104 ; 464445.69625532127 ; 2.0042936613375467E8 ; 4.166193373011468E7 ; 1.921543358384872E10 ; 0.0
105 ; 463709.2085730252 ; 2.0043064467962188E8 ; 4.212637942637E7 ; 1.9415862949982475E10 ; 0.0
106 ; 464187.2040697773 ; 2.00431920950097E8 ; 4.259008863494303E7 ; 1.9616293594662098E10 ; 0.0
107 ; 463803.6701357975 ; 2.004331949147907E8 ; 4.305427583901281E7 ; 1.9816725515612194E10 ; 0.0
108 ; 462605.0107771798 ; 2.0043446654359898E8 ; 4.3518079509148605E7 ; 2.0017158710526985E10 ; 0.0
109 ; 463019.7531654378 ; 2.0043573580669224E8 ; 4.398068451992579E7 ; 2.0217593177070583E10 ; 0.0
110 ; 463657.0797829658 ; 2.004370026745043E8 ; 4.444370427309123E7 ; 2.0418028912877277E10 ; 0.0
111 ; 463160.5110577944 ; 2.0043826711772263E8 ; 4.490736135287419E7 ; 2.061846591555178E10 ; 0.0
112 ; 462934.37704758625 ; 2.0043952910727876E8 ; 4.537052186393198E7 ; 2.0818904182669502E10 ; 0.0
113 ; 462424.64631166623 ; 2.0044078861433962E8 ; 4.583345624097957E7 ; 2.101934371177678E10 ; 0.0
114 ; 460940.0787343849 ; 2.004420456102992E8 ; 4.629588088729123E7 ; 2.1219784500391117E10 ; 0.0
115 ; 461787.3073925556 ; 2.0044330006677064E8 ; 4.675682096602561E7 ; 2.1420226546001415E10 ; 0.0
116 ; 460287.67091628077 ; 2.0044455195557895E8 ; 4.7218608273418166E7 ; 2.1620669846068188E10 ; 0.0
117 ; 461781.54830784706 ; 2.0044580124875408E8 ; 4.767889594433445E7 ; 2.1821114398023766E10 ; 0.0
118 ; 461040.86246780824 ; 2.0044704791852435E8 ; 4.814067749264229E7 ; 2.202156019927252E10 ; 0.0
119 ; 460685.51063840167 ; 2.004482919373104E8 ; 4.86017183551101E7 ; 2.2222007247191044E10 ; 0.0
120 ; 459485.55270168313 ; 2.004495332777192E8 ; 4.90624038657485E7 ; 2.2422455539128353E10 ; 0.0
121 ; 459370.17065296543 ; 2.004507719125388E8 ; 4.9521889418450184E7 ; 2.262290507240607E10 ; 0.0
122 ; 458569.778542167 ; 2.00452007814733E8 ; 4.998125958910315E7 ; 2.282335584431861E10 ; 0.0
123 ; 457159.9131648845 ; 2.0045324095743665E8 ; 5.0439829367645316E7 ; 2.3023807852133343E10 ; 0.0
124 ; 458147.2662968655 ; 2.0045447131395087E8 ; 5.08969892808102E7 ; 2.322426109309078E10 ; 0.0
125 ; 457090.3598873173 ; 2.004556988577389E8 ; 5.135513654710706E7 ; 2.3424715564404728E10 ; 0.0
126 ; 457893.68544647895 ; 2.0045692356242186E8 ; 5.181222690699438E7 ; 2.3625171263262466E10 ; 0.0
127 ; 457454.1847801794 ; 2.00458145401775E8 ; 5.227012059244086E7 ; 2.382562818682489E10 ; 0.0
128 ; 457054.75112363586 ; 2.0045936434972402E8 ; 5.272757477722104E7 ; 2.4026086332226665E10 ; 0.0
129 ; 455542.60488418274 ; 2.0046058038034156E8 ; 5.3184629528344676E7 ; 2.422654569657639E10 ; 0.0
130 ; 453462.21425791347 ; 2.00461793467844E8 ; 5.364017213322886E7 ; 2.442700627695673E10 ; 0.0
131 ; 453322.7966639166 ; 2.0046300358658844E8 ; 5.409363434748677E7 ; 2.4627468070424576E10 ; 0.0
132 ; 450463.8103268911 ; 2.004642107110697E8 ; 5.454695714415069E7 ; 2.4827931074011166E10 ; 0.0
133 ; 449992.91373174044 ; 2.004654148159176E8 ; 5.499742095447758E7 ; 2.5028395284722237E10 ; 0.0
134 ; 448144.6175813024 ; 2.0046661587589437E8 ; 5.544741386820932E7 ; 2.5228860699538155E10 ; 0.0
135 ; 448090.386591902 ; 2.0046781386589226E8 ; 5.589555848579062E7 ; 2.5429327315414047E10 ; 0.0
136 ; 447261.3152448512 ; 2.0046900876093107E8 ; 5.634364887238252E7 ; 2.5629795129279938E10 ; 0.0
137 ; 445652.3086478405 ; 2.0047020053615612E8 ; 5.6790910187627375E7 ; 2.583026413804087E10 ; 0.0
138 ; 445551.7676221767 ; 2.004713891668361E8 ; 5.723656249627522E7 ; 2.6030734338577026E10 ; 0.0
139 ; 442490.5161050926 ; 2.0047257462836117E8 ; 5.76821142638974E7 ; 2.6231205727743862E10 ; 0.0
140 ; 441619.45877108036 ; 2.0047375689624098E8 ; 5.812460478000249E7 ; 2.6431678302372223E10 ; 0.0
141 ; 440599.02064981736 ; 2.0047493594610307E8 ; 5.856622423877357E7 ; 2.6632152059268463E10 ; 0.0
142 ; 439160.26509926154 ; 2.0047611175369114E8 ; 5.900682325942339E7 ; 2.6832626995214565E10 ; 0.0
143 ; 437641.22228980705 ; 2.0047728429486355E8 ; 5.9445983524522655E7 ; 2.7033103106968258E10 ; 0.0
144 ; 436533.70606825105 ; 2.004784535455918E8 ; 5.988362474681246E7 ; 2.7233580391263123E10 ; 0.0
145 ; 435560.734446661 ; 2.004796194819591E8 ; 6.032015845288071E7 ; 2.7434058844808716E10 ; 0.0
146 ; 435102.99727024836 ; 2.0048078208015916E8 ; 6.075571918732737E7 ; 2.7634538464290676E10 ; 0.0
147 ; 435479.1650694826 ; 2.0048194131649494E8 ; 6.119082218459762E7 ; 2.7835019246370834E10 ; 0.0
148 ; 435253.0560431742 ; 2.0048309716737738E8 ; 6.16263013496671E7 ; 2.803550118768733E10 ; 0.0
149 ; 433724.51804224576 ; 2.0048424960932437E8 ; 6.206155440571028E7 ; 2.8235984284854706E10 ; 0.0
150 ; 432982.7405930832 ; 2.0048539861895975E8 ; 6.2495278923752524E7 ; 2.843646853446403E10 ; 0.0
151 ; 433606.8263424299 ; 2.004865441730123E8 ; 6.292826166434561E7 ; 2.8636953933082993E10 ; 0.0
152 ; 433271.0817188297 ; 2.0048768624831474E8 ; 6.336186849068803E7 ; 2.8837440477256004E10 ; 0.0
153 ; 430847.8522002526 ; 2.00488824821803E8 ; 6.3795139572406866E7 ; 2.903792816350432E10 ; 0.0
154 ; 431727.62389683386 ; 2.0048995987051532E8 ; 6.422598742460712E7 ; 2.9238416988326122E10 ; 0.0
155 ; 430788.40553089476 ; 2.004910913715915E8 ; 6.465771504850396E7 ; 2.9438906948196636E10 ; 0.0
156 ; 429172.7116403362 ; 2.0049221930227223E8 ; 6.508850345403485E7 ; 2.9639398039568226E10 ; 0.0
157 ; 429019.31379080267 ; 2.004933436398983E8 ; 6.5517676165675186E7 ; 2.98398902588705E10 ; 0.0
158 ; 428797.517080973 ; 2.0049446436191013E8 ; 6.594669547946599E7 ; 3.00403836025104E10 ; 0.0
159 ; 428248.69993496285 ; 2.00495581445847E8 ; 6.637549299654696E7 ; 3.024087806687231E10 ; 0.0
160 ; 427914.5422434243 ; 2.0049669486934665E8 ; 6.680374169648192E7 ; 3.0441373648318157E10 ; 0.0
161 ; 427024.8260978437 ; 2.004978046101447E8 ; 6.723165623872535E7 ; 3.0641870343187504E10 ; 0.0
162 ; 427412.14262341923 ; 2.0049891064607415E8 ; 6.76586810648232E7 ; 3.084236814779765E10 ; 0.0
163 ; 425834.5731316354 ; 2.0050001295506495E8 ; 6.808609320744662E7 ; 3.104286705844372E10 ; 0.0
164 ; 424789.12653478584 ; 2.0050111151514357E8 ; 6.851192778057826E7 ; 3.124336707139879E10 ; 0.0
165 ; 424069.97873837064 ; 2.0050220630443266E8 ; 6.893671690711305E7 ; 3.1443868182913933E10 ; 0.0
166 ; 424363.5941274175 ; 2.0050329730115068E8 ; 6.936078688585141E7 ; 3.1644370389218365E10 ; 0.0
167 ; 423889.87877991336 ; 2.0050438448361143E8 ; 6.978515047997883E7 ; 3.1844873686519516E10 ; 0.0
168 ; 423064.70705644845 ; 2.0050546783022404E8 ; 7.020904035875875E7 ; 3.2045378071003128E10 ; 0.0
169 ; 422012.26654719026 ; 2.0050654731949234E8 ; 7.06321050658152E7 ; 3.224588353883335E10 ; 0.0
170 ; 422170.6032501948 ; 2.0050762293001485E8 ; 7.105411733236238E7 ; 3.2446390086152843E10 ; 0.0
171 ; 422725.73756977054 ; 2.005086946404845E8 ; 7.147628793561257E7 ; 3.264689770908286E10 ; 0.0
172 ; 421570.813180492 ; 2.0050976242968836E8 ; 7.189901367318234E7 ; 3.2847406403723343E10 ; 0.0
173 ; 419742.30129400257 ; 2.0051082627650747E8 ; 7.232058448636283E7 ; 3.304791616615303E10 ; 0.0
174 ; 418988.0446445422 ; 2.0051188615991667E8 ; 7.274032678765683E7 ; 3.324842699242954E10 ; 0.0
175 ; 418897.01896514016 ; 2.0051294205898446E8 ; 7.315931483230138E7 ; 3.3448938878589455E10 ; 0.0
176 ; 419448.6134068225 ; 2.0051399395287287E8 ; 7.357821185126652E7 ; 3.3649451820648438E10 ; 0.0
177 ; 418247.6466575237 ; 2.0051504182083732E8 ; 7.399766046467334E7 ; 3.384996581460131E10 ; 0.0
178 ; 418435.6892141134 ; 2.0051608564222655E8 ; 7.441590811133087E7 ; 3.405048085642215E10 ; 0.0
179 ; 417993.6879571875 ; 2.0051712539648244E8 ; 7.483434380054498E7 ; 3.4250996942064377E10 ; 0.0
180 ; 416480.27520769456 ; 2.0051816106314006E8 ; 7.525233748850216E7 ; 3.445151406746086E10 ; 0.0
181 ; 416609.2343181491 ; 2.005191926218276E8 ; 7.566881776370986E7 ; 3.4652032228524E10 ; 0.0
182 ; 416031.67133515736 ; 2.0052022005226624E8 ; 7.608542699802801E7 ; 3.485255142114583E10 ; 0.0
183 ; 417430.73465145373 ; 2.0052124333427015E8 ; 7.650145866936317E7 ; 3.50530716411981E10 ; 0.0
184 ; 416735.6023240021 ; 2.0052226244774655E8 ; 7.691888940401462E7 ; 3.5253592884532364E10 ; 0.0
185 ; 416012.9202509621 ; 2.005232773726956E8 ; 7.733562500633863E7 ; 3.545411514698011E10 ; 0.0
186 ; 416078.38475002866 ; 2.0052428808921042E8 ; 7.77516379265896E7 ; 3.5654638424352806E10 ; 0.0
187 ; 415239.26102964225 ; 2.0052529457747725E8 ; 7.816771631133962E7 ; 3.585516271244202E10 ; 0.0
188 ; 412675.940322608 ; 2.0052629681777522E8 ; 7.858295557236926E7 ; 3.605568800701949E10 ; 0.0
189 ; 413931.9647174924 ; 2.0052729479047665E8 ; 7.899563151269187E7 ; 3.6256214303837265E10 ; 0.0
190 ; 413830.21648033743 ; 2.0052828847604686E8 ; 7.940956347740936E7 ; 3.645674159862774E10 ; 0.0
191 ; 412142.28831628425 ; 2.0052927785504445E8 ; 7.98233936938897E7 ; 3.665726988710378E10 ; 0.0
192 ; 413000.74778639624 ; 2.0053026290812114E8 ; 8.023553598220599E7 ; 3.6857799164958824E10 ; 0.0
193 ; 412436.9958962843 ; 2.0053124361602205E8 ; 8.064853672999239E7 ; 3.705832942786694E10 ; 0.0
194 ; 411863.4219042101 ; 2.005322199595856E8 ; 8.106097372588867E7 ; 3.725886067148296E10 ; 0.0
195 ; 411877.7992586574 ; 2.0053319191974372E8 ; 8.147283714779288E7 ; 3.745939289144255E10 ; 0.0
196 ; 410486.23679605185 ; 2.0053415947752187E8 ; 8.188471494705154E7 ; 3.76599260833623E10 ; 0.0
197 ; 410099.69048579916 ; 2.005351226140392E8 ; 8.229520118384759E7 ; 3.786046024283982E10 ; 0.0
198 ; 411344.01954593905 ; 2.005360813105086E8 ; 8.27053008743334E7 ; 3.806099536545386E10 ; 0.0
199 ; 410285.73650109407 ; 2.0053703554823685E8 ; 8.311664489387934E7 ; 3.8261531446764366E10 ; 0.0
200 ; 410087.98853336787 ; 2.005379853086247E8 ; 8.352693063038044E7 ; 3.846206848231261E10 ; 0.0
201 ; 408671.58897554793 ; 2.005389305731671E8 ; 8.39370186189138E7 ; 3.866260646762123E10 ; 0.0
