CSV File for the City 3 on Day 41
1 - Minute m 
2 - Power Consumed at minute m 
3 - Power Produced at minute m 
4 - Energy Consumed since the beginning of the day 
5 - Energy Produced since the beginning of the day 
6 - Energy Lost since the beginning of the day on lines starting from the city
 
0 ; 2372134.560112794 ; 1.0533934885661647E8 ; 0.0 ; 0.0 ; 0.0
1 ; 2374996.4070542096 ; 1.0549175282348889E8 ; 2372134.560112794 ; 1.0533934885661647E8 ; 0.0
2 ; 2376802.7872275608 ; 1.0595298229406533E8 ; 4747130.967167003 ; 2.1083110168010536E8 ; 0.0
3 ; 2378875.703958879 ; 1.0672304292525381E8 ; 7123933.754394564 ; 3.167840839741707E8 ; 0.0
4 ; 2383487.327434856 ; 1.0780193994799167E8 ; 9502809.458353443 ; 4.235071268994245E8 ; 0.0
5 ; 2387695.0081070773 ; 1.091896780890795E8 ; 1.18862967857883E7 ; 5.3130906684741616E8 ; 0.0
6 ; 2394611.2881291974 ; 1.1088626149623361E8 ; 1.4273991793895377E7 ; 6.404987449364957E8 ; 0.0
7 ; 2399913.855137674 ; 1.1289169366889691E8 ; 1.6668603082024574E7 ; 7.513850064327292E8 ; 0.0
8 ; 2412569.054583142 ; 1.1520597739734387E8 ; 1.906851693716225E7 ; 8.642767001016262E8 ; 0.0
9 ; 2429162.9841360576 ; 1.1782911471245784E8 ; 2.1481085991745394E7 ; 9.7948267749897E8 ; 0.0
10 ; 2455933.998046284 ; 1.2076110684823817E8 ; 2.391024897588145E7 ; 1.097311792211428E9 ; 0.0
11 ; 2497838.84444962 ; 1.240019542186307E8 ; 2.6366182973927733E7 ; 1.2180728990596662E9 ; 0.0
12 ; 2565479.8557950584 ; 1.2755165640968958E8 ; 2.8864021818377353E7 ; 1.342074853278297E9 ; 0.0
13 ; 2626865.304204861 ; 1.3141021218741542E8 ; 3.1429501674172413E7 ; 1.4696265096879866E9 ; 0.0
14 ; 2633807.8814748544 ; 1.35577619520925E8 ; 3.4056366978377275E7 ; 1.601036721875402E9 ; 0.0
15 ; 2637394.671409172 ; 1.4005387561994368E8 ; 3.669017485985213E7 ; 1.736614341396327E9 ; 0.0
16 ; 2640386.438535996 ; 1.448389769850287E8 ; 3.93275695312613E7 ; 1.8766682170162706E9 ; 0.0
17 ; 2642894.3639298943 ; 1.499329194684637E8 ; 4.19679559697973E7 ; 2.0215071940012994E9 ; 0.0
18 ; 2645851.2583913375 ; 1.5533569834344804E8 ; 4.4610850333727196E7 ; 2.1714401134697633E9 ; 0.0
19 ; 2648761.064793526 ; 1.6104730837904444E8 ; 4.725670159211853E7 ; 2.3267758118132114E9 ; 0.0
20 ; 2652146.0660011536 ; 1.6706774391834483E8 ; 4.990546265691206E7 ; 2.487823120192256E9 ; 0.0
21 ; 2655476.887611005 ; 1.7339699895744708E8 ; 5.255760872291321E7 ; 2.654890864110601E9 ; 0.0
22 ; 2658602.020161542 ; 1.8003506722307956E8 ; 5.5213085610524215E7 ; 2.828287863068048E9 ; 0.0
23 ; 2662215.3217891133 ; 1.869819422470312E8 ; 5.7871687630685754E7 ; 3.0083229302911277E9 ; 0.0
24 ; 2664888.0526948385 ; 1.9423761743591255E8 ; 6.053390295247487E7 ; 3.195304872538159E9 ; 0.0
25 ; 2667883.830422069 ; 2.004901270333341E8 ; 6.3198791005169705E7 ; 3.3895424899740715E9 ; 0.0
26 ; 2672197.3384882067 ; 2.0049301221430176E8 ; 6.586667483559177E7 ; 3.5900326170074058E9 ; 0.0
27 ; 2674201.78130576 ; 2.0049603566072956E8 ; 6.853887217407998E7 ; 3.7905256292217073E9 ; 0.0
28 ; 2676870.9680019044 ; 2.0049919085182628E8 ; 7.121307395538574E7 ; 3.9910216648824368E9 ; 0.0
29 ; 2680672.4832686507 ; 2.0050247139409176E8 ; 7.388994492338765E7 ; 4.191520855734263E9 ; 0.0
30 ; 2683780.461007444 ; 2.0050587105152142E8 ; 7.65706174066563E7 ; 4.392023327128355E9 ; 0.0
31 ; 2685467.8726757756 ; 2.005093837697145E8 ; 7.925439786766374E7 ; 4.592529198179876E9 ; 0.0
32 ; 2687722.3689738517 ; 2.0051300369442287E8 ; 8.193986574033952E7 ; 4.793038581949591E9 ; 0.0
33 ; 2691324.6201631613 ; 2.0051672518512684E8 ; 8.462758810931337E7 ; 4.993551585644013E9 ; 0.0
34 ; 2693362.642526218 ; 2.0052054282423952E8 ; 8.731891272947653E7 ; 5.194068310829141E9 ; 0.0
35 ; 2695612.9885573923 ; 2.0052445142253417E8 ; 9.001227537200275E7 ; 5.39458885365338E9 ; 0.0
36 ; 2698188.744519729 ; 2.005284460213611E8 ; 9.270788836056015E7 ; 5.595113305075914E9 ; 0.0
37 ; 2700733.4537679395 ; 2.0053252189218348E8 ; 9.540607710507987E7 ; 5.795641751097276E9 ; 0.0
38 ; 2704303.62288841 ; 2.0053667453391284E8 ; 9.810681055884781E7 ; 5.996174272989459E9 ; 0.0
39 ; 2705968.922611005 ; 2.0054089966847622E8 ; 1.0081111418173623E8 ; 6.196710947523372E9 ; 0.0
40 ; 2708319.1315205907 ; 2.0054519323499528E8 ; 1.0351708310434723E8 ; 6.397251847191848E9 ; 0.0
41 ; 2710830.2964042826 ; 2.005495513829068E8 ; 1.0622540223586781E8 ; 6.597797040426843E9 ; 0.0
42 ; 2710279.2985611823 ; 2.0055397046430832E8 ; 1.089362325322721E8 ; 6.79834659180975E9 ; 0.0
43 ; 2711848.2434331756 ; 2.0055844702576745E8 ; 1.1164651183083329E8 ; 6.998900562274058E9 ; 0.0
44 ; 2713212.9154716516 ; 2.0056297779979476E8 ; 1.1435836007426646E8 ; 7.199459009299826E9 ; 0.0
45 ; 2714833.642546199 ; 2.0056755969614506E8 ; 1.1707157298973812E8 ; 7.400021987099621E9 ; 0.0
46 ; 2717717.3525425848 ; 2.0057218979308018E8 ; 1.1978640663228431E8 ; 7.600589546795766E9 ; 0.0
47 ; 2718697.3259491874 ; 2.0057686532870108E8 ; 1.225041239848269E8 ; 7.801161736588846E9 ; 0.0
48 ; 2718801.4083115854 ; 2.005815836924322E8 ; 1.2522282131077608E8 ; 8.001738601917547E9 ; 0.0
49 ; 2719959.720832855 ; 2.0058634241672373E8 ; 1.2794162271908768E8 ; 8.20232018560998E9 ; 0.0
50 ; 2721317.4387344075 ; 2.005911391690194E8 ; 1.3066158243992053E8 ; 8.402906528026703E9 ; 0.0
51 ; 2721389.6219187146 ; 2.0059597174402493E8 ; 1.3338289987865494E8 ; 8.603497667195723E9 ; 0.0
52 ; 2722560.834794957 ; 2.0060083805630037E8 ; 1.3610428950057366E8 ; 8.804093638939747E9 ; 0.0
53 ; 2723185.3499932964 ; 2.0060573613319123E8 ; 1.3882685033536863E8 ; 9.004694476996048E9 ; 0.0
54 ; 2724256.3109907326 ; 2.0061066410810527E8 ; 1.4155003568536192E8 ; 9.20530021312924E9 ; 0.0
55 ; 2723620.5530223767 ; 2.006156202141365E8 ; 1.4427429199635264E8 ; 9.405910877237345E9 ; 0.0
56 ; 2724187.5004721135 ; 2.0062060277803305E8 ; 1.4699791254937503E8 ; 9.60652649745148E9 ; 0.0
57 ; 2725318.754628578 ; 2.0062561021450225E8 ; 1.4972210004984713E8 ; 9.807147100229513E9 ; 0.0
58 ; 2726227.8659491786 ; 2.006306410208438E8 ; 1.524474188044757E8 ; 1.0007772710444016E10 ; 0.0
59 ; 2726039.2221938423 ; 2.0063569377189904E8 ; 1.5517364667042488E8 ; 1.0208403351464859E10 ; 0.0
60 ; 2728610.688500265 ; 2.006407671153047E8 ; 1.5789968589261872E8 ; 1.0409039045236757E10 ; 0.0
61 ; 2727396.363712997 ; 2.006458597670366E8 ; 1.6062829658111897E8 ; 1.0609679812352062E10 ; 0.0
62 ; 2728380.8261418436 ; 2.0065097050722983E8 ; 1.6335569294483197E8 ; 1.0810325672119099E10 ; 0.0
63 ; 2729388.210943897 ; 2.0065609817626128E8 ; 1.660840737709738E8 ; 1.101097664262633E10 ; 0.0
64 ; 2729961.6692228513 ; 2.0066124167107955E8 ; 1.688134619819177E8 ; 1.1211632740802591E10 ; 0.0
65 ; 2729500.335915941 ; 2.006663999417692E8 ; 1.7154342365114057E8 ; 1.1412293982473671E10 ; 0.0
66 ; 2729830.048221638 ; 2.0067157198833498E8 ; 1.7427292398705652E8 ; 1.161296038241544E10 ; 0.0
67 ; 2730519.434997208 ; 2.006767568576927E8 ; 1.7700275403527817E8 ; 1.1813631954403774E10 ; 0.0
68 ; 2731564.4984267843 ; 2.006819536408548E8 ; 1.7973327347027537E8 ; 1.2014308711261467E10 ; 0.0
69 ; 2730820.1827708133 ; 2.006871614702975E8 ; 1.8246483796870217E8 ; 1.221499066490232E10 ; 0.0
70 ; 2732546.5607392536 ; 2.0069237951749834E8 ; 1.85195658151473E8 ; 1.2415677826372618E10 ; 0.0
71 ; 2733647.7902023452 ; 2.006976069906333E8 ; 1.8792820471221223E8 ; 1.2616370205890116E10 ; 0.0
72 ; 2732396.6806436204 ; 2.0070284313242266E8 ; 1.9066185250241458E8 ; 1.2817067812880749E10 ; 0.0
73 ; 2732422.6533012586 ; 2.0070808721811596E8 ; 1.933942491830582E8 ; 1.3017770656013172E10 ; 0.0
74 ; 2733325.346759573 ; 2.0071333855360708E8 ; 1.9612667183635947E8 ; 1.3218478743231289E10 ; 0.0
75 ; 2733251.6767280907 ; 2.007185964736703E8 ; 1.9885999718311906E8 ; 1.3419192081784897E10 ; 0.0
76 ; 2732034.9451108715 ; 2.0072386034030962E8 ; 2.0159324885984716E8 ; 1.3619910678258568E10 ; 0.0
77 ; 2733244.571114014 ; 2.007291295412134E8 ; 2.0432528380495802E8 ; 1.3820634538598877E10 ; 0.0
78 ; 2731166.421899251 ; 2.0073440348830768E8 ; 2.0705852837607202E8 ; 1.402136366814009E10 ; 0.0
79 ; 2730417.60177231 ; 2.0073968161640084E8 ; 2.0978969479797128E8 ; 1.4222098071628399E10 ; 0.0
80 ; 2730013.2166379085 ; 2.0074496338191423E8 ; 2.125201123997436E8 ; 1.44228377532448E10 ; 0.0
81 ; 2730553.192056259 ; 2.0075024826169235E8 ; 2.152501256163815E8 ; 1.4623582716626715E10 ; 0.0
82 ; 2727675.380708595 ; 2.0075553575188738E8 ; 2.1798067880843776E8 ; 1.4824332964888407E10 ; 0.0
83 ; 2728323.6327401716 ; 2.0076082536691338E8 ; 2.2070835418914637E8 ; 1.5025088500640295E10 ; 0.0
84 ; 2728348.082037337 ; 2.0076611663846496E8 ; 2.2343667782188654E8 ; 1.5225849326007208E10 ; 0.0
85 ; 2725746.0243953904 ; 2.0077140911459646E8 ; 2.2616502590392387E8 ; 1.5426615442645674E10 ; 0.0
86 ; 2725667.31997611 ; 2.0077670235885754E8 ; 2.2889077192831925E8 ; 1.5627386851760271E10 ; 0.0
87 ; 2724354.5072161625 ; 2.0078199594948125E8 ; 2.3161643924829537E8 ; 1.582816355411913E10 ; 0.0
88 ; 2721977.424642349 ; 2.0078728947862124E8 ; 2.3434079375551152E8 ; 1.6028945550068611E10 ; 0.0
89 ; 2720799.207282031 ; 2.0079258255163503E8 ; 2.3706277118015388E8 ; 1.6229732839547232E10 ; 0.0
90 ; 2719530.671435687 ; 2.007978747864098E8 ; 2.397835703874359E8 ; 1.6430525422098867E10 ; 0.0
91 ; 2720440.768808616 ; 2.0080316581272846E8 ; 2.425031010588716E8 ; 1.6631323296885277E10 ; 0.0
92 ; 2718770.558684479 ; 2.0080845527167305E8 ; 2.452235418276802E8 ; 1.6832126462698006E10 ; 0.0
93 ; 2717454.5408237525 ; 2.0081374281506312E8 ; 2.4794231238636467E8 ; 1.7032934917969679E10 ; 0.0
94 ; 2715537.173672208 ; 2.0081902810492682E8 ; 2.5065976692718843E8 ; 1.723374866078474E10 ; 0.0
95 ; 2714204.5292564253 ; 2.008243108130027E8 ; 2.5337530410086063E8 ; 1.7434567688889668E10 ; 0.0
96 ; 2713871.8492082367 ; 2.0082959062027004E8 ; 2.5608950863011706E8 ; 1.763539199970267E10 ; 0.0
97 ; 2713701.6551322406 ; 2.0083486721650606E8 ; 2.588033804793253E8 ; 1.783622159032294E10 ; 0.0
98 ; 2710798.3860707814 ; 2.008401402998683E8 ; 2.6151708213445753E8 ; 1.8037056457539448E10 ; 0.0
99 ; 2709225.2664491385 ; 2.008454095765005E8 ; 2.6422788052052832E8 ; 1.8237896597839317E10 ; 0.0
100 ; 2708604.244785342 ; 2.0085067476016065E8 ; 2.6693710578697747E8 ; 1.8438742007415817E10 ; 0.0
101 ; 2707390.0877039987 ; 2.0085593557186955E8 ; 2.6964571003176284E8 ; 1.863959268217598E10 ; 0.0
102 ; 2705495.544182106 ; 2.0086119173957893E8 ; 2.7235310011946684E8 ; 1.884044861774785E10 ; 0.0
103 ; 2703056.584092433 ; 2.008664429978578E8 ; 2.7505859566364896E8 ; 1.9041309809487427E10 ; 0.0
104 ; 2702823.6588428062 ; 2.008716890875959E8 ; 2.777616522477414E8 ; 1.9242176252485283E10 ; 0.0
105 ; 2701127.7330370783 ; 2.008769297557231E8 ; 2.804644759065842E8 ; 1.944304794157288E10 ; 0.0
106 ; 2700105.022914138 ; 2.0088216475494403E8 ; 2.8316560363962126E8 ; 1.96439248713286E10 ; 0.0
107 ; 2699320.7145088017 ; 2.0088739384348688E8 ; 2.8586570866253537E8 ; 1.9844807036083546E10 ; 0.0
108 ; 2697034.947271413 ; 2.0089261678486547E8 ; 2.885650293770442E8 ; 2.0045694429927032E10 ; 0.0
109 ; 2695277.292492446 ; 2.008978333476539E8 ; 2.912620643243156E8 ; 2.02465870467119E10 ; 0.0
110 ; 2692418.836433085 ; 2.009030433052731E8 ; 2.9395734161680806E8 ; 2.044748488005955E10 ; 0.0
111 ; 2691790.7274205238 ; 2.0090824643578836E8 ; 2.9664976045324117E8 ; 2.0648387923364826E10 ; 0.0
112 ; 2689606.1267257812 ; 2.009134425217174E8 ; 2.993415511806617E8 ; 2.0849296169800613E10 ; 0.0
113 ; 2688703.2646729182 ; 2.0091863134984833E8 ; 3.020311573073875E8 ; 2.105020961232233E10 ; 0.0
114 ; 2688596.51185671 ; 2.009238127110668E8 ; 3.047198605720604E8 ; 2.125112824367218E10 ; 0.0
115 ; 2684216.717862913 ; 2.009289864001921E8 ; 3.0740845708391714E8 ; 2.1452052056383247E10 ; 0.0
116 ; 2682255.825603937 ; 2.009341522158213E8 ; 3.1009267380178005E8 ; 2.165298104278344E10 ; 0.0
117 ; 2681405.864353187 ; 2.0093930996018133E8 ; 3.12774929627384E8 ; 2.185391519499926E10 ; 0.0
118 ; 2679091.0379742025 ; 2.0094445943898845E8 ; 3.154563354917372E8 ; 2.2054854504959442E10 ; 0.0
119 ; 2677367.619605426 ; 2.009496004613146E8 ; 3.1813542652971137E8 ; 2.225579896439843E10 ; 0.0
120 ; 2676468.52650039 ; 2.009547328394603E8 ; 3.208127941493168E8 ; 2.2456748564859745E10 ; 0.0
121 ; 2674195.743047753 ; 2.009598563888339E8 ; 3.234892626758172E8 ; 2.2657703297699203E10 ; 0.0
122 ; 2671606.2863574666 ; 2.0096497092783642E8 ; 3.2616345841886497E8 ; 2.2858663154088036E10 ; 0.0
123 ; 2671093.7518550204 ; 2.0097007627775228E8 ; 3.288350647052224E8 ; 2.3059628125015873E10 ; 0.0
124 ; 2669112.8807208827 ; 2.00975172262645E8 ; 3.3150615845707744E8 ; 2.3260598201293625E10 ; 0.0
125 ; 2664626.1253636503 ; 2.0098025870925805E8 ; 3.341752713377983E8 ; 2.346157337355627E10 ; 0.0
126 ; 2663863.15030746 ; 2.0098533544692025E8 ; 3.3683989746316195E8 ; 2.366255363226553E10 ; 0.0
127 ; 2660921.9100828487 ; 2.0099040230745578E8 ; 3.395037606134694E8 ; 2.386353896771245E10 ; 0.0
128 ; 2659959.9004994226 ; 2.0099545912509832E8 ; 3.421646825235523E8 ; 2.4064529370019905E10 ; 0.0
129 ; 2657878.3113528825 ; 2.010005057364091E8 ; 3.448246424240517E8 ; 2.4265524829145004E10 ; 0.0
130 ; 2655349.739389331 ; 2.0100554198019898E8 ; 3.474825207354046E8 ; 2.4466525334881413E10 ; 0.0
131 ; 2652183.5250234515 ; 2.010105676974539E8 ; 3.50137870474794E8 ; 2.466753087686161E10 ; 0.0
132 ; 2648881.0542712864 ; 2.0101558273126376E8 ; 3.5279005399981743E8 ; 2.4868541444559063E10 ; 0.0
133 ; 2647010.238743359 ; 2.010205869267548E8 ; 3.554389350540887E8 ; 2.5069557027290325E10 ; 0.0
134 ; 2643660.5230833516 ; 2.0102558013102466E8 ; 3.580859452928321E8 ; 2.527057761421708E10 ; 0.0
135 ; 2641862.443170982 ; 2.0103056219308054E8 ; 3.607296058159154E8 ; 2.5471603194348103E10 ; 0.0
136 ; 2636545.905719973 ; 2.010355329637803E8 ; 3.633714682590864E8 ; 2.5672633756541183E10 ; 0.0
137 ; 2632878.464322307 ; 2.0104049229577586E8 ; 3.6600801416480637E8 ; 2.5873669289504963E10 ; 0.0
138 ; 2631929.041485847 ; 2.0104544004345933E8 ; 3.686408926291287E8 ; 2.607470978180074E10 ; 0.0
139 ; 2629676.860859854 ; 2.0105037606291145E8 ; 3.7127282167061454E8 ; 2.62757552218442E10 ; 0.0
140 ; 2623449.3132907543 ; 2.010553002118523E8 ; 3.739024985314744E8 ; 2.6476805597907112E10 ; 0.0
141 ; 2621545.9108485053 ; 2.0106021234959427E8 ; 3.765259478447652E8 ; 2.6677860898118965E10 ; 0.0
142 ; 2618355.2397531755 ; 2.0106511233699664E8 ; 3.791474937556137E8 ; 2.687892111046856E10 ; 0.0
143 ; 2614651.514652451 ; 2.0107000003642288E8 ; 3.817658489953669E8 ; 2.7079986222805557E10 ; 0.0
144 ; 2612887.1440850017 ; 2.0107487531169897E8 ; 3.843805005100193E8 ; 2.728105622284198E10 ; 0.0
145 ; 2610651.38494881 ; 2.0107973802807418E8 ; 3.869933876541043E8 ; 2.748213109815368E10 ; 0.0
146 ; 2607927.684432675 ; 2.01084588052183E8 ; 3.896040390390531E8 ; 2.768321083618175E10 ; 0.0
147 ; 2604527.225194429 ; 2.0108942525200915E8 ; 3.9221196672348577E8 ; 2.7884295424233932E10 ; 0.0
148 ; 2603569.5596952336 ; 2.0109424949685064E8 ; 3.948164939486802E8 ; 2.8085384849485943E10 ; 0.0
149 ; 2599575.033045178 ; 2.0109906065728667E8 ; 3.9742006350837547E8 ; 2.828647909898279E10 ; 0.0
150 ; 2597312.4385725767 ; 2.0110385860514587E8 ; 4.0001963854142064E8 ; 2.848757815964008E10 ; 0.0
151 ; 2594873.3384165945 ; 2.011086432134755E8 ; 4.026169509799932E8 ; 2.8688682018245224E10 ; 0.0
152 ; 2594792.49374401 ; 2.0111341435651255E8 ; 4.052118243184098E8 ; 2.88897906614587E10 ; 0.0
153 ; 2590588.3616008875 ; 2.011181719096554E8 ; 4.078066168121538E8 ; 2.9090904075815212E10 ; 0.0
154 ; 2588567.7017023666 ; 2.0112291574943715E8 ; 4.103972051737547E8 ; 2.929202224772487E10 ; 0.0
155 ; 2584832.7627527253 ; 2.0112764575349972E8 ; 4.1298577287545705E8 ; 2.9493145163474304E10 ; 0.0
156 ; 2583562.0051472182 ; 2.0113236180056915E8 ; 4.1557060563820976E8 ; 2.9694272809227802E10 ; 0.0
157 ; 2580535.018995928 ; 2.011370637704319E8 ; 4.18154167643357E8 ; 2.989540517102837E10 ; 0.0
158 ; 2577667.8029262926 ; 2.0114175154391214E8 ; 4.207347026623529E8 ; 3.00965422347988E10 ; 0.0
159 ; 2577087.256667564 ; 2.011464250028498E8 ; 4.233123704652792E8 ; 3.0297683986342712E10 ; 0.0
160 ; 2572844.3233335456 ; 2.0115108403007966E8 ; 4.258894577219468E8 ; 3.0498830411345562E10 ; 0.0
161 ; 2572724.2191487234 ; 2.011557285094114E8 ; 4.2846230204528034E8 ; 3.069998149537564E10 ; 0.0
162 ; 2568656.62237358 ; 2.0116035832560995E8 ; 4.3103502626442903E8 ; 3.090113722388505E10 ; 0.0
163 ; 2567342.226072168 ; 2.0116497336437738E8 ; 4.336036828868026E8 ; 3.1102297582210663E10 ; 0.0
164 ; 2561423.6876938874 ; 2.011695735123347E8 ; 4.361710251128748E8 ; 3.130346255557504E10 ; 0.0
165 ; 2561074.1878409972 ; 2.0117415865700504E8 ; 4.387324488005687E8 ; 3.150463212908737E10 ; 0.0
166 ; 2559023.8839368825 ; 2.011787286867972E8 ; 4.412935229884097E8 ; 3.1705806287744377E10 ; 0.0
167 ; 2556837.373546604 ; 2.0118328349098974E8 ; 4.438525468723466E8 ; 3.1906985016431175E10 ; 0.0
168 ; 2554095.864731572 ; 2.01187822959716E8 ; 4.464093842458932E8 ; 3.2108168299922165E10 ; 0.0
169 ; 2551845.7284537554 ; 2.0119234698394948E8 ; 4.4896348011062473E8 ; 3.230935612288188E10 ; 0.0
170 ; 2549422.307119973 ; 2.0119685545548987E8 ; 4.515153258390785E8 ; 3.251054846986583E10 ; 0.0
171 ; 2546072.4538853224 ; 2.0120134826694962E8 ; 4.5406474814619845E8 ; 3.271174532532132E10 ; 0.0
172 ; 2543929.4851961234 ; 2.0120582531174108E8 ; 4.5661082060008377E8 ; 3.291294667358827E10 ; 0.0
173 ; 2539974.9642135724 ; 2.01210286484064E8 ; 4.591547500852799E8 ; 3.311415249890001E10 ; 0.0
174 ; 2540697.988527908 ; 2.0121473167889372E8 ; 4.6169472504949343E8 ; 3.331536278538407E10 ; 0.0
175 ; 2537924.201101438 ; 2.012191607919696E8 ; 4.642354230380213E8 ; 3.3516577517062965E10 ; 0.0
176 ; 2534886.7884285916 ; 2.012235737197841E8 ; 4.6677334723912275E8 ; 3.3717796677854935E10 ; 0.0
177 ; 2534563.9104331997 ; 2.012279703595722E8 ; 4.6930823402755135E8 ; 3.391902025157472E10 ; 0.0
178 ; 2533766.468931044 ; 2.0123235060930115E8 ; 4.718427979379845E8 ; 3.412024822193429E10 ; 0.0
179 ; 2531702.844334928 ; 2.0123671436766073E8 ; 4.7437656440691555E8 ; 3.4321480572543594E10 ; 0.0
180 ; 2529971.7794244643 ; 2.0124106153405383E8 ; 4.7690826725125045E8 ; 3.4522717286911255E10 ; 0.0
181 ; 2528300.7893516035 ; 2.0124539200858742E8 ; 4.7943823903067493E8 ; 3.472395834844531E10 ; 0.0
182 ; 2526727.4951350153 ; 2.0124970569206387E8 ; 4.819665398200265E8 ; 3.49252037404539E10 ; 0.0
183 ; 2527217.2041047276 ; 2.0125400248597255E8 ; 4.844932673151615E8 ; 3.5126453446145966E10 ; 0.0
184 ; 2525578.2350622644 ; 2.012582822924818E8 ; 4.8702048451926625E8 ; 3.5327707448631935E10 ; 0.0
185 ; 2523560.374502267 ; 2.0126254501443127E8 ; 4.895460627543285E8 ; 3.5528965730924416E10 ; 0.0
186 ; 2521594.4266698444 ; 2.0126679055532438E8 ; 4.9206962312883073E8 ; 3.573022827593885E10 ; 0.0
187 ; 2519947.0803955276 ; 2.0127101881932127E8 ; 4.9459121755550057E8 ; 3.593149506649417E10 ; 0.0
188 ; 2518486.738119247 ; 2.0127522971123186E8 ; 4.971111646358961E8 ; 3.613276608531349E10 ; 0.0
189 ; 2518147.803428654 ; 2.0127942313650927E8 ; 4.9962965137401533E8 ; 3.633404131502473E10 ; 0.0
190 ; 2515048.5816582446 ; 2.012835990012435E8 ; 5.02147799177444E8 ; 3.653532073816124E10 ; 0.0
191 ; 2514512.1259803385 ; 2.0128775721215528E8 ; 5.046628477591022E8 ; 3.673660433716248E10 ; 0.0
192 ; 2513463.104223862 ; 2.012918976765902E8 ; 5.0717735988508254E8 ; 3.693789209437464E10 ; 0.0
193 ; 2511032.0073292996 ; 2.0129602030251312E8 ; 5.096908229893064E8 ; 3.713918399205123E10 ; 0.0
194 ; 2510238.962489341 ; 2.0130012499850267E8 ; 5.122018549966357E8 ; 3.7340480012353745E10 ; 0.0
195 ; 2507914.136970524 ; 2.0130421167374608E8 ; 5.1471209395912504E8 ; 3.754178013735225E10 ; 0.0
196 ; 2505554.1947198906 ; 2.0130828023803416E8 ; 5.1722000809609556E8 ; 3.774308434902599E10 ; 0.0
197 ; 2504965.9937501503 ; 2.0131233060175648E8 ; 5.197255622908155E8 ; 3.794439262926403E10 ; 0.0
198 ; 2504034.204373868 ; 2.013163626758967E8 ; 5.222305282845656E8 ; 3.814570495986578E10 ; 0.0
199 ; 2502316.5065363026 ; 2.013203763720282E8 ; 5.247345624889395E8 ; 3.834702132254168E10 ; 0.0
200 ; 2499641.480548868 ; 2.0132437160230976E8 ; 5.272368789954758E8 ; 3.8548341698913704E10 ; 0.0
