CSV File for the City 5 on Day 22
1 - Minute m 
2 - Power Consumed at minute m 
3 - Power Produced at minute m 
4 - Energy Consumed since the beginning of the day 
5 - Energy Produced since the beginning of the day 
6 - Energy Lost since the beginning of the day on lines starting from the city
 
0 ; 8477077.495924547 ; 1.0076955000369038E7 ; 0.0 ; 0.0 ; 0.0
1 ; 8487423.3078165 ; 1.0076955000369038E7 ; 8477077.495924547 ; 1.0076955000369038E7 ; 0.0
2 ; 8496284.803015323 ; 1.0076955000369038E7 ; 1.6964500803741045E7 ; 2.0153910000738077E7 ; 0.0
3 ; 8508382.410384428 ; 1.0076955000369038E7 ; 2.5460785606756367E7 ; 3.0230865001107115E7 ; 0.0
4 ; 8520870.71626854 ; 1.0076955000369038E7 ; 3.396916801714079E7 ; 4.0307820001476154E7 ; 0.0
5 ; 8535590.733428717 ; 1.0076955000369038E7 ; 4.249003873340933E7 ; 5.0384775001845196E7 ; 0.0
6 ; 8558383.261115074 ; 1.0076955000369038E7 ; 5.102562946683805E7 ; 6.046173000221424E7 ; 0.0
7 ; 8588491.350814473 ; 1.0076955000369038E7 ; 5.958401272795312E7 ; 7.053868500258328E7 ; 0.0
8 ; 8629132.24160329 ; 1.0076955000369038E7 ; 6.81725040787676E7 ; 8.061564000295232E7 ; 0.0
9 ; 8691237.023180204 ; 1.0076955000369038E7 ; 7.680163632037088E7 ; 9.069259500332136E7 ; 0.0
10 ; 8788027.320092294 ; 1.0076955000369038E7 ; 8.549287334355108E7 ; 1.007695500036904E8 ; 0.0
11 ; 8946639.821792265 ; 1.0076955000369038E7 ; 9.428090066364338E7 ; 1.1084650500405945E8 ; 0.0
12 ; 9192364.39651937 ; 1.0076955000369038E7 ; 1.0322754048543563E8 ; 1.2092346000442849E8 ; 0.0
13 ; 9432271.74800865 ; 1.0076955000369038E7 ; 1.12419904881955E8 ; 1.3100041500479753E8 ; 0.0
14 ; 9459759.908609604 ; 1.0076955000369038E7 ; 1.2185217662996365E8 ; 1.4107737000516656E8 ; 0.0
15 ; 9471036.07403831 ; 1.0076955000369038E7 ; 1.3131193653857325E8 ; 1.511543250055356E8 ; 0.0
16 ; 9478672.077023018 ; 1.0076955000369038E7 ; 1.4078297261261156E8 ; 1.6123128000590464E8 ; 0.0
17 ; 9495276.96704404 ; 1.0076955000369038E7 ; 1.502616446896346E8 ; 1.713082350062737E8 ; 0.0
18 ; 9504383.38684828 ; 1.0076955000369038E7 ; 1.5975692165667862E8 ; 1.8138519000664273E8 ; 0.0
19 ; 9515589.868959473 ; 1.0076955000369038E7 ; 1.692613050435269E8 ; 1.9146214500701177E8 ; 0.0
20 ; 9526593.747769011 ; 1.0076955000369038E7 ; 1.7877689491248637E8 ; 2.015391000073808E8 ; 0.0
21 ; 9536606.3623356 ; 1.0076955000369038E7 ; 1.8830348866025537E8 ; 2.1161605500774986E8 ; 0.0
22 ; 9550156.31157592 ; 1.0076955000369038E7 ; 1.9784009502259097E8 ; 2.216930100081189E8 ; 0.0
23 ; 9560335.651336096 ; 1.0076955000369038E7 ; 2.0739025133416688E8 ; 2.3176996500848794E8 ; 0.0
24 ; 9573252.091383807 ; 1.0076955000369038E7 ; 2.16950586985503E8 ; 2.4184692000885698E8 ; 0.0
25 ; 9580420.853794938 ; 1.0076955000369038E7 ; 2.265238390768868E8 ; 2.5192387500922602E8 ; 0.0
26 ; 9595886.400127014 ; 1.0076955000369038E7 ; 2.3610425993068174E8 ; 2.6200083000959507E8 ; 0.0
27 ; 9604592.989349935 ; 1.0076955000369038E7 ; 2.4570014633080876E8 ; 2.720777850099641E8 ; 0.0
28 ; 9615616.985752909 ; 1.0076955000369038E7 ; 2.553047393201587E8 ; 2.821547400103331E8 ; 0.0
29 ; 9630469.65893241 ; 1.0076955000369038E7 ; 2.649203563059116E8 ; 2.9223169501070213E8 ; 0.0
30 ; 9636906.845740002 ; 1.0076955000369038E7 ; 2.74550825964844E8 ; 3.0230865001107115E8 ; 0.0
31 ; 9648647.455563638 ; 1.0076955000369038E7 ; 2.84187732810584E8 ; 3.1238560501144016E8 ; 0.0
32 ; 9657855.879515558 ; 1.0076955000369038E7 ; 2.938363802661477E8 ; 3.224625600118092E8 ; 0.0
33 ; 9667019.716938214 ; 1.0076955000369038E7 ; 3.0349423614566326E8 ; 3.325395150121782E8 ; 0.0
34 ; 9675320.417088797 ; 1.0076955000369038E7 ; 3.1316125586260146E8 ; 3.426164700125472E8 ; 0.0
35 ; 9686277.651933935 ; 1.0076955000369038E7 ; 3.2283657627969027E8 ; 3.526934250129162E8 ; 0.0
36 ; 9694125.160396187 ; 1.0076955000369038E7 ; 3.325228539316242E8 ; 3.627703800132852E8 ; 0.0
37 ; 9704903.039278982 ; 1.0076955000369038E7 ; 3.4221697909202033E8 ; 3.7284733501365423E8 ; 0.0
38 ; 9709199.778724477 ; 1.0076955000369038E7 ; 3.519218821312993E8 ; 3.8292429001402324E8 ; 0.0
39 ; 9719011.792741273 ; 1.0076955000369038E7 ; 3.616310819100238E8 ; 3.9300124501439226E8 ; 0.0
40 ; 9725286.124823816 ; 1.0076955000369038E7 ; 3.713500937027651E8 ; 4.0307820001476127E8 ; 0.0
41 ; 9733731.674725564 ; 1.0076955000369038E7 ; 3.810753798275889E8 ; 4.131551550151303E8 ; 0.0
42 ; 9742811.36520973 ; 1.0076955000369038E7 ; 3.908091115023145E8 ; 4.232321100154993E8 ; 0.0
43 ; 9747067.038969899 ; 1.0076955000369038E7 ; 4.0055192286752427E8 ; 4.333090650158683E8 ; 0.0
44 ; 9751413.868708028 ; 1.0076955000369038E7 ; 4.1029898990649414E8 ; 4.433860200162373E8 ; 0.0
45 ; 9758946.02947401 ; 1.0076955000369038E7 ; 4.2005040377520216E8 ; 4.5346297501660633E8 ; 0.0
46 ; 9762500.895478722 ; 1.0076955000369038E7 ; 4.298093498046762E8 ; 4.6353993001697534E8 ; 0.0
47 ; 9767640.399594825 ; 1.0076955000369038E7 ; 4.395718507001549E8 ; 4.7361688501734436E8 ; 0.0
48 ; 9772540.022633746 ; 1.0076955000369038E7 ; 4.4933949109974974E8 ; 4.8369384001771337E8 ; 0.0
49 ; 9773939.115007905 ; 1.0076955000369038E7 ; 4.591120311223835E8 ; 4.937707950180824E8 ; 0.0
50 ; 9777388.424723594 ; 1.0076955000369038E7 ; 4.6888597023739135E8 ; 5.038477500184514E8 ; 0.0
51 ; 9782291.68300993 ; 1.0076955000369038E7 ; 4.786633586621149E8 ; 5.139247050188204E8 ; 0.0
52 ; 9782055.048153235 ; 1.0076955000369038E7 ; 4.8844565034512484E8 ; 5.240016600191894E8 ; 0.0
53 ; 9785619.504372241 ; 1.0076955000369038E7 ; 4.9822770539327806E8 ; 5.340786150195584E8 ; 0.0
54 ; 9789155.340759171 ; 1.0076955000369038E7 ; 5.080133248976503E8 ; 5.441555700199275E8 ; 0.0
55 ; 9789964.901576389 ; 1.0076955000369038E7 ; 5.1780248023840946E8 ; 5.542325250202966E8 ; 0.0
56 ; 9791676.019725155 ; 1.0076955000369038E7 ; 5.2759244513998586E8 ; 5.643094800206656E8 ; 0.0
57 ; 9794369.785232933 ; 1.0076955000369038E7 ; 5.37384121159711E8 ; 5.743864350210347E8 ; 0.0
58 ; 9798075.621188726 ; 1.0076955000369038E7 ; 5.471784909449439E8 ; 5.844633900214038E8 ; 0.0
59 ; 9800063.397602754 ; 1.0076955000369038E7 ; 5.569765665661327E8 ; 5.945403450217729E8 ; 0.0
60 ; 9800106.37773781 ; 1.0076955000369038E7 ; 5.667766299637355E8 ; 6.046173000221419E8 ; 0.0
61 ; 9802030.766497126 ; 1.0076955000369038E7 ; 5.765767363414732E8 ; 6.14694255022511E8 ; 0.0
62 ; 9803874.269223394 ; 1.0076955000369038E7 ; 5.863787671079704E8 ; 6.247712100228801E8 ; 0.0
63 ; 9805770.121223763 ; 1.0076955000369038E7 ; 5.961826413771938E8 ; 6.348481650232491E8 ; 0.0
64 ; 9805818.377844535 ; 1.0076955000369038E7 ; 6.059884114984176E8 ; 6.449251200236182E8 ; 0.0
65 ; 9808865.220467128 ; 1.0076955000369038E7 ; 6.157942298762622E8 ; 6.550020750239873E8 ; 0.0
66 ; 9812518.156364387 ; 1.0076955000369038E7 ; 6.256030950967293E8 ; 6.650790300243564E8 ; 0.0
67 ; 9814048.925303454 ; 1.0076955000369038E7 ; 6.354156132530937E8 ; 6.751559850247254E8 ; 0.0
68 ; 9815674.86801088 ; 1.0076955000369038E7 ; 6.452296621783972E8 ; 6.852329400250945E8 ; 0.0
69 ; 9814700.334914166 ; 1.0076955000369038E7 ; 6.55045337046408E8 ; 6.953098950254636E8 ; 0.0
70 ; 9817404.193551743 ; 1.0076955000369038E7 ; 6.648600373813223E8 ; 7.053868500258327E8 ; 0.0
71 ; 9813470.483153006 ; 1.0076955000369038E7 ; 6.74677441574874E8 ; 7.154638050262017E8 ; 0.0
72 ; 9816941.555739017 ; 1.0076955000369038E7 ; 6.84490912058027E8 ; 7.255407600265708E8 ; 0.0
73 ; 9817067.149115281 ; 1.0076955000369038E7 ; 6.943078536137661E8 ; 7.356177150269399E8 ; 0.0
74 ; 9816165.061674183 ; 1.0076955000369038E7 ; 7.041249207628814E8 ; 7.45694670027309E8 ; 0.0
75 ; 9818019.053125514 ; 1.0076955000369038E7 ; 7.139410858245556E8 ; 7.55771625027678E8 ; 0.0
76 ; 9817914.366341602 ; 1.0076955000369038E7 ; 7.237591048776811E8 ; 7.658485800280471E8 ; 0.0
77 ; 9820186.729068195 ; 1.0076955000369038E7 ; 7.335770192440227E8 ; 7.759255350284162E8 ; 0.0
78 ; 9815022.363053894 ; 1.0076955000369038E7 ; 7.433972059730909E8 ; 7.860024900287852E8 ; 0.0
79 ; 9817820.163699593 ; 1.0076955000369038E7 ; 7.532122283361448E8 ; 7.960794450291543E8 ; 0.0
80 ; 9812780.571768036 ; 1.0076955000369038E7 ; 7.630300484998444E8 ; 8.061564000295234E8 ; 0.0
81 ; 9807397.550710093 ; 1.0076955000369038E7 ; 7.728428290716125E8 ; 8.162333550298924E8 ; 0.0
82 ; 9801310.229809653 ; 1.0076955000369038E7 ; 7.826502266223226E8 ; 8.263103100302615E8 ; 0.0
83 ; 9799558.226894319 ; 1.0076955000369038E7 ; 7.924515368521322E8 ; 8.363872650306306E8 ; 0.0
84 ; 9796666.108812317 ; 1.0076955000369038E7 ; 8.022510950790265E8 ; 8.464642200309997E8 ; 0.0
85 ; 9796443.142594814 ; 1.0076955000369038E7 ; 8.120477611878388E8 ; 8.565411750313687E8 ; 0.0
86 ; 9791773.368835343 ; 1.0076955000369038E7 ; 8.218442043304336E8 ; 8.666181300317378E8 ; 0.0
87 ; 9788000.976508813 ; 1.0076955000369038E7 ; 8.316359776992689E8 ; 8.766950850321069E8 ; 0.0
88 ; 9784254.502248002 ; 1.0076955000369038E7 ; 8.414239786757778E8 ; 8.86772040032476E8 ; 0.0
89 ; 9780017.470249424 ; 1.0076955000369038E7 ; 8.512082331780258E8 ; 8.96848995032845E8 ; 0.0
90 ; 9774148.398158966 ; 1.0076955000369038E7 ; 8.609882506482753E8 ; 9.069259500332141E8 ; 0.0
91 ; 9769745.086036565 ; 1.0076955000369038E7 ; 8.707623990464342E8 ; 9.170029050335832E8 ; 0.0
92 ; 9766916.328979742 ; 1.0076955000369038E7 ; 8.805321441324707E8 ; 9.270798600339522E8 ; 0.0
93 ; 9765815.809077444 ; 1.0076955000369038E7 ; 8.902990604614505E8 ; 9.371568150343213E8 ; 0.0
94 ; 9760706.529730214 ; 1.0076955000369038E7 ; 9.00064876270528E8 ; 9.472337700346904E8 ; 0.0
95 ; 9755227.93741999 ; 1.0076955000369038E7 ; 9.098255828002582E8 ; 9.573107250350595E8 ; 0.0
96 ; 9750629.089860752 ; 1.0076955000369038E7 ; 9.195808107376782E8 ; 9.673876800354285E8 ; 0.0
97 ; 9746775.398990514 ; 1.0076955000369038E7 ; 9.29331439827539E8 ; 9.774646350357976E8 ; 0.0
98 ; 9740176.553720733 ; 1.0076955000369038E7 ; 9.390782152265295E8 ; 9.875415900361667E8 ; 0.0
99 ; 9738292.332994305 ; 1.0076955000369038E7 ; 9.488183917802502E8 ; 9.976185450365357E8 ; 0.0
100 ; 9730235.389122257 ; 1.0076955000369038E7 ; 9.585566841132445E8 ; 1.0076955000369048E9 ; 0.0
101 ; 9726640.07008927 ; 1.0076955000369038E7 ; 9.682869195023668E8 ; 1.0177724550372739E9 ; 0.0
102 ; 9722740.77190067 ; 1.0076955000369038E7 ; 9.78013559572456E8 ; 1.027849410037643E9 ; 0.0
103 ; 9714337.07405682 ; 1.0076955000369038E7 ; 9.877363003443567E8 ; 1.037926365038012E9 ; 0.0
104 ; 9710271.557094447 ; 1.0076955000369038E7 ; 9.974506374184135E8 ; 1.0480033200383811E9 ; 0.0
105 ; 9705592.603663582 ; 1.0076955000369038E7 ; 1.007160908975508E9 ; 1.0580802750387502E9 ; 0.0
106 ; 9697218.716231782 ; 1.0076955000369038E7 ; 1.0168665015791715E9 ; 1.0681572300391192E9 ; 0.0
107 ; 9694464.224219292 ; 1.0076955000369038E7 ; 1.0265637202954034E9 ; 1.0782341850394883E9 ; 0.0
108 ; 9686413.616667492 ; 1.0076955000369038E7 ; 1.0362581845196227E9 ; 1.0883111400398574E9 ; 0.0
109 ; 9684530.387533294 ; 1.0076955000369038E7 ; 1.0459445981362902E9 ; 1.0983880950402265E9 ; 0.0
110 ; 9676439.302119497 ; 1.0076955000369038E7 ; 1.0556291285238235E9 ; 1.1084650500405955E9 ; 0.0
111 ; 9668924.196226086 ; 1.0076955000369038E7 ; 1.065305567825943E9 ; 1.1185420050409646E9 ; 0.0
112 ; 9667806.077958262 ; 1.0076955000369038E7 ; 1.074974492022169E9 ; 1.1286189600413337E9 ; 0.0
113 ; 9659544.24621005 ; 1.0076955000369038E7 ; 1.0846422981001275E9 ; 1.1386959150417027E9 ; 0.0
114 ; 9651674.49075509 ; 1.0076955000369038E7 ; 1.0943018423463376E9 ; 1.1487728700420718E9 ; 0.0
115 ; 9648356.363212172 ; 1.0076955000369038E7 ; 1.1039535168370926E9 ; 1.158849825042441E9 ; 0.0
116 ; 9638697.84390154 ; 1.0076955000369038E7 ; 1.1136018732003047E9 ; 1.16892678004281E9 ; 0.0
117 ; 9633142.360915972 ; 1.0076955000369038E7 ; 1.1232405710442064E9 ; 1.179003735043179E9 ; 0.0
118 ; 9626214.594895722 ; 1.0076955000369038E7 ; 1.1328737134051223E9 ; 1.189080690043548E9 ; 0.0
119 ; 9618809.749507355 ; 1.0076955000369038E7 ; 1.1424999280000181E9 ; 1.1991576450439172E9 ; 0.0
120 ; 9613555.029519146 ; 1.0076955000369038E7 ; 1.1521187377495255E9 ; 1.2092346000442863E9 ; 0.0
121 ; 9602727.945349433 ; 1.0076955000369038E7 ; 1.1617322927790446E9 ; 1.2193115550446553E9 ; 0.0
122 ; 9598641.912762713 ; 1.0076955000369038E7 ; 1.171335020724394E9 ; 1.2293885100450244E9 ; 0.0
123 ; 9591933.32462591 ; 1.0076955000369038E7 ; 1.1809336626371567E9 ; 1.2394654650453935E9 ; 0.0
124 ; 9580060.859429816 ; 1.0076955000369038E7 ; 1.1905255959617827E9 ; 1.2495424200457625E9 ; 0.0
125 ; 9576483.537108015 ; 1.0076955000369038E7 ; 1.2001056568212125E9 ; 1.2596193750461316E9 ; 0.0
126 ; 9569899.931324737 ; 1.0076955000369038E7 ; 1.2096821403583205E9 ; 1.2696963300465007E9 ; 0.0
127 ; 9562742.761801306 ; 1.0076955000369038E7 ; 1.2192520402896452E9 ; 1.2797732850468698E9 ; 0.0
128 ; 9551530.612975981 ; 1.0076955000369038E7 ; 1.2288147830514464E9 ; 1.2898502400472388E9 ; 0.0
129 ; 9546237.744974472 ; 1.0076955000369038E7 ; 1.2383663136644225E9 ; 1.299927195047608E9 ; 0.0
130 ; 9537403.534189843 ; 1.0076955000369038E7 ; 1.247912551409397E9 ; 1.310004150047977E9 ; 0.0
131 ; 9521862.043745773 ; 1.0076955000369038E7 ; 1.2574499549435868E9 ; 1.320081105048346E9 ; 0.0
132 ; 9514243.902155424 ; 1.0076955000369038E7 ; 1.2669718169873326E9 ; 1.330158060048715E9 ; 0.0
133 ; 9502031.143118903 ; 1.0076955000369038E7 ; 1.276486060889488E9 ; 1.3402350150490842E9 ; 0.0
134 ; 9494454.014983833 ; 1.0076955000369038E7 ; 1.2859880920326068E9 ; 1.3503119700494533E9 ; 0.0
135 ; 9481349.395393718 ; 1.0076955000369038E7 ; 1.2954825460475907E9 ; 1.3603889250498223E9 ; 0.0
136 ; 9472006.510212833 ; 1.0076955000369038E7 ; 1.3049638954429843E9 ; 1.3704658800501914E9 ; 0.0
137 ; 9457659.12684322 ; 1.0076955000369038E7 ; 1.3144359019531972E9 ; 1.3805428350505605E9 ; 0.0
138 ; 9442406.118226802 ; 1.0076955000369038E7 ; 1.3238935610800405E9 ; 1.3906197900509295E9 ; 0.0
139 ; 9434565.777879836 ; 1.0076955000369038E7 ; 1.3333359671982672E9 ; 1.4006967450512986E9 ; 0.0
140 ; 9426489.396558503 ; 1.0076955000369038E7 ; 1.3427705329761472E9 ; 1.4107737000516677E9 ; 0.0
141 ; 9412206.997601217 ; 1.0076955000369038E7 ; 1.3521970223727057E9 ; 1.4208506550520368E9 ; 0.0
142 ; 9399069.90854305 ; 1.0076955000369038E7 ; 1.361609229370307E9 ; 1.4309276100524058E9 ; 0.0
143 ; 9385671.81335952 ; 1.0076955000369038E7 ; 1.37100829927885E9 ; 1.441004565052775E9 ; 0.0
144 ; 9377631.8999089 ; 1.0076955000369038E7 ; 1.3803939710922096E9 ; 1.451081520053144E9 ; 0.0
145 ; 9365809.82411134 ; 1.0076955000369038E7 ; 1.3897716029921184E9 ; 1.461158475053513E9 ; 0.0
146 ; 9358150.856261343 ; 1.0076955000369038E7 ; 1.3991374128162296E9 ; 1.4712354300538821E9 ; 0.0
147 ; 9350696.295841653 ; 1.0076955000369038E7 ; 1.4084955636724908E9 ; 1.4813123850542512E9 ; 0.0
148 ; 9341763.466318652 ; 1.0076955000369038E7 ; 1.4178462599683325E9 ; 1.4913893400546203E9 ; 0.0
149 ; 9332102.959838517 ; 1.0076955000369038E7 ; 1.4271880234346511E9 ; 1.5014662950549893E9 ; 0.0
150 ; 9324515.553384554 ; 1.0076955000369038E7 ; 1.4365201263944898E9 ; 1.5115432500553584E9 ; 0.0
151 ; 9314770.988532193 ; 1.0076955000369038E7 ; 1.4458446419478743E9 ; 1.5216202050557275E9 ; 0.0
152 ; 9305115.69869682 ; 1.0076955000369038E7 ; 1.4551594129364066E9 ; 1.5316971600560966E9 ; 0.0
153 ; 9297075.365987577 ; 1.0076955000369038E7 ; 1.4644645286351035E9 ; 1.5417741150564656E9 ; 0.0
154 ; 9291208.168408263 ; 1.0076955000369038E7 ; 1.473761604001091E9 ; 1.5518510700568347E9 ; 0.0
155 ; 9281760.719061216 ; 1.0076955000369038E7 ; 1.4830528121694992E9 ; 1.5619280250572038E9 ; 0.0
156 ; 9273923.808836576 ; 1.0076955000369038E7 ; 1.4923345728885603E9 ; 1.5720049800575728E9 ; 0.0
157 ; 9264180.256513469 ; 1.0076955000369038E7 ; 1.5016084966973968E9 ; 1.582081935057942E9 ; 0.0
158 ; 9253850.200602988 ; 1.0076955000369038E7 ; 1.51087267695391E9 ; 1.592158890058311E9 ; 0.0
159 ; 9246900.214948507 ; 1.0076955000369038E7 ; 1.5201265271545131E9 ; 1.60223584505868E9 ; 0.0
160 ; 9236271.998135107 ; 1.0076955000369038E7 ; 1.5293734273694615E9 ; 1.6123128000590491E9 ; 0.0
161 ; 9227157.739033537 ; 1.0076955000369038E7 ; 1.5386096993675966E9 ; 1.6223897550594182E9 ; 0.0
162 ; 9220571.963341616 ; 1.0076955000369038E7 ; 1.54783685710663E9 ; 1.6324667100597873E9 ; 0.0
163 ; 9207281.899299487 ; 1.0076955000369038E7 ; 1.5570574290699718E9 ; 1.6425436650601563E9 ; 0.0
164 ; 9200511.67924874 ; 1.0076955000369038E7 ; 1.5662647109692712E9 ; 1.6526206200605254E9 ; 0.0
165 ; 9189765.409108823 ; 1.0076955000369038E7 ; 1.57546522264852E9 ; 1.6626975750608945E9 ; 0.0
166 ; 9178675.518475316 ; 1.0076955000369038E7 ; 1.5846549880576289E9 ; 1.6727745300612636E9 ; 0.0
167 ; 9171279.082637882 ; 1.0076955000369038E7 ; 1.5938336635761042E9 ; 1.6828514850616326E9 ; 0.0
168 ; 9163298.390612014 ; 1.0076955000369038E7 ; 1.603004942658742E9 ; 1.6929284400620017E9 ; 0.0
169 ; 9153796.29599281 ; 1.0076955000369038E7 ; 1.612168241049354E9 ; 1.7030053950623708E9 ; 0.0
170 ; 9140634.018283278 ; 1.0076955000369038E7 ; 1.621322037345347E9 ; 1.7130823500627398E9 ; 0.0
171 ; 9133304.139294205 ; 1.0076955000369038E7 ; 1.6304626713636303E9 ; 1.723159305063109E9 ; 0.0
172 ; 9124264.697936157 ; 1.0076955000369038E7 ; 1.6395959755029244E9 ; 1.733236260063478E9 ; 0.0
173 ; 9115445.698377607 ; 1.0076955000369038E7 ; 1.6487202402008605E9 ; 1.743313215063847E9 ; 0.0
174 ; 9108001.323758919 ; 1.0076955000369038E7 ; 1.657835685899238E9 ; 1.7533901700642161E9 ; 0.0
175 ; 9106082.492676625 ; 1.0076955000369038E7 ; 1.666943687222997E9 ; 1.7634671250645852E9 ; 0.0
176 ; 9100917.577079603 ; 1.0076955000369038E7 ; 1.6760497697156737E9 ; 1.7735440800649543E9 ; 0.0
177 ; 9091323.537596123 ; 1.0076955000369038E7 ; 1.6851506872927532E9 ; 1.7836210350653234E9 ; 0.0
178 ; 9086384.975285009 ; 1.0076955000369038E7 ; 1.6942420108303494E9 ; 1.7936979900656924E9 ; 0.0
179 ; 9082335.444959069 ; 1.0076955000369038E7 ; 1.7033283958056345E9 ; 1.8037749450660615E9 ; 0.0
180 ; 9077678.948723411 ; 1.0076955000369038E7 ; 1.7124107312505937E9 ; 1.8138519000664306E9 ; 0.0
181 ; 9069673.045755832 ; 1.0076955000369038E7 ; 1.721488410199317E9 ; 1.8239288550667996E9 ; 0.0
182 ; 9064140.133163987 ; 1.0076955000369038E7 ; 1.7305580832450728E9 ; 1.8340058100671687E9 ; 0.0
183 ; 9057750.416550653 ; 1.0076955000369038E7 ; 1.7396222233782368E9 ; 1.8440827650675378E9 ; 0.0
184 ; 9053378.235432088 ; 1.0076955000369038E7 ; 1.7486799737947874E9 ; 1.8541597200679069E9 ; 0.0
185 ; 9049153.121685943 ; 1.0076955000369038E7 ; 1.7577333520302196E9 ; 1.864236675068276E9 ; 0.0
186 ; 9040386.733991051 ; 1.0076955000369038E7 ; 1.7667825051519055E9 ; 1.874313630068645E9 ; 0.0
187 ; 9033584.24988152 ; 1.0076955000369038E7 ; 1.7758228918858967E9 ; 1.884390585069014E9 ; 0.0
188 ; 9029514.31422931 ; 1.0076955000369038E7 ; 1.7848564761357782E9 ; 1.8944675400693831E9 ; 0.0
189 ; 9020842.053644894 ; 1.0076955000369038E7 ; 1.7938859904500074E9 ; 1.9045444950697522E9 ; 0.0
190 ; 9016457.133630252 ; 1.0076955000369038E7 ; 1.8029068325036523E9 ; 1.9146214500701213E9 ; 0.0
191 ; 9013024.450299667 ; 1.0076955000369038E7 ; 1.8119232896372826E9 ; 1.9246984050704904E9 ; 0.0
192 ; 9007376.20743747 ; 1.0076955000369038E7 ; 1.8209363140875823E9 ; 1.9347753600708594E9 ; 0.0
193 ; 8999440.592595024 ; 1.0076955000369038E7 ; 1.8299436902950199E9 ; 1.9448523150712285E9 ; 0.0
194 ; 8996841.914681599 ; 1.0076955000369038E7 ; 1.838943130887615E9 ; 1.9549292700715976E9 ; 0.0
195 ; 8989393.981976615 ; 1.0076955000369038E7 ; 1.8479399728022966E9 ; 1.9650062250719666E9 ; 0.0
196 ; 8984880.399575178 ; 1.0076955000369038E7 ; 1.8569293667842731E9 ; 1.9750831800723357E9 ; 0.0
197 ; 8977996.651576122 ; 1.0076955000369038E7 ; 1.8659142471838484E9 ; 1.9851601350727048E9 ; 0.0
198 ; 8972007.31544176 ; 1.0076955000369038E7 ; 1.8748922438354244E9 ; 1.9952370900730739E9 ; 0.0
199 ; 8967668.323035376 ; 1.0076955000369038E7 ; 1.8838642511508663E9 ; 2.005314045073443E9 ; 0.0
200 ; 8960495.366478983 ; 1.0076955000369038E7 ; 1.8928319194739017E9 ; 2.015391000073812E9 ; 0.0
201 ; 8958051.272151444 ; 1.0076955000369038E7 ; 1.9017924148403807E9 ; 2.025467955074181E9 ; 0.0
202 ; 8949816.739549473 ; 1.0076955000369038E7 ; 1.9107504661125321E9 ; 2.0355449100745502E9 ; 0.0
