CSV File for the City 6 on Day 89
1 - Minute m 
2 - Power Consumed at minute m 
3 - Power Produced at minute m 
4 - Energy Consumed since the beginning of the day 
5 - Energy Produced since the beginning of the day 
6 - Energy Lost since the beginning of the day on lines starting from the city
 
0 ; 1.1181938024741894E7 ; 1.060859839322212E8 ; 0.0 ; 0.0 ; 0.0
1 ; 1.1194659901664212E7 ; 1.0623686865271401E8 ; 1.1181938024741894E7 ; 1.060859839322212E8 ; 0.0
2 ; 1.1206674088498915E7 ; 1.066967454528887E8 ; 2.2376597926406108E7 ; 2.1232285258493522E8 ; 0.0
3 ; 1.1223319388978608E7 ; 1.0746561810992897E8 ; 3.358327201490502E7 ; 3.190195980378239E8 ; 0.0
4 ; 1.1236748565914469E7 ; 1.0854349000984585E8 ; 4.480659140388363E7 ; 4.264852161477529E8 ; 0.0
5 ; 1.1256768248928156E7 ; 1.0993036412838656E8 ; 5.6043339969798096E7 ; 5.3502870615759873E8 ; 0.0
6 ; 1.128154883694001E7 ; 1.1162624301392987E8 ; 6.730010821872625E7 ; 6.449590702859852E8 ; 0.0
7 ; 1.1321676170304516E7 ; 1.1363112877259368E8 ; 7.858165705566625E7 ; 7.565853132999151E8 ; 0.0
8 ; 1.1374805899066318E7 ; 1.1594502305575597E8 ; 8.990333322597077E7 ; 8.702164420725088E8 ; 0.0
9 ; 1.1455052935308542E7 ; 1.1856792705016196E8 ; 1.0127813912503709E8 ; 9.861614651282648E8 ; 0.0
10 ; 1.1577526007188505E7 ; 1.214998414707551E8 ; 1.1273319206034563E8 ; 1.1047293921784267E9 ; 0.0
11 ; 1.1777099908907713E7 ; 1.2474076655633482E8 ; 1.2431071806753413E8 ; 1.2262292336491818E9 ; 0.0
12 ; 1.2091462192401072E7 ; 1.2829070206810167E8 ; 1.3608781797644186E8 ; 1.3509700002055166E9 ; 0.0
13 ; 1.2396067471095856E7 ; 1.3214964729111218E8 ; 1.4817928016884294E8 ; 1.4792607022736182E9 ; 0.0
14 ; 1.2432931934019966E7 ; 1.3631760103862125E8 ; 1.605753476399388E8 ; 1.6114103495647304E9 ; 0.0
15 ; 1.2446881782894377E7 ; 1.4079456165925074E8 ; 1.7300827957395875E8 ; 1.7477279506033516E9 ; 0.0
16 ; 1.2464042152369421E7 ; 1.455805270468829E8 ; 1.8545516135685313E8 ; 1.8885225122626023E9 ; 0.0
17 ; 1.2479021916697517E7 ; 1.5067549465313885E8 ; 1.9791920350922254E8 ; 2.0341030393094852E9 ; 0.0
18 ; 1.2493332364799177E7 ; 1.560794615022714E8 ; 2.1039822542592007E8 ; 2.184778533962624E9 ; 0.0
19 ; 1.2507081809331838E7 ; 1.6179242420826957E8 ; 2.2289155779071924E8 ; 2.3408579954648952E9 ; 0.0
20 ; 1.2520039431666793E7 ; 1.6781437899394956E8 ; 2.3539863960005108E8 ; 2.502650419673165E9 ; 0.0
21 ; 1.2536174968842078E7 ; 1.7414532171178624E8 ; 2.4791867903171787E8 ; 2.6704647986671143E9 ; 0.0
22 ; 1.2547779361229314E7 ; 1.8078524786622655E8 ; 2.6045485400055996E8 ; 2.8446101203789005E9 ; 0.0
23 ; 1.256457448019727E7 ; 1.877341526372174E8 ; 2.730026333617893E8 ; 3.025395368245127E9 ; 0.0
24 ; 1.2581581201561365E7 ; 1.949920309046774E8 ; 2.8556720784198654E8 ; 3.2131295208823447E9 ; 0.0
25 ; 1.259439486810817E7 ; 2.0124691817182803E8 ; 2.981487890435479E8 ; 3.408121551787022E9 ; 0.0
26 ; 1.2608017585467536E7 ; 2.0125235662765202E8 ; 3.107431839116561E8 ; 3.60936846995885E9 ; 0.0
27 ; 1.2624103724553498E7 ; 2.0125810969752327E8 ; 3.233512014971236E8 ; 3.810620826586502E9 ; 0.0
28 ; 1.263823873981161E7 ; 2.0126417131563514E8 ; 3.359753052216771E8 ; 4.011878936284025E9 ; 0.0
29 ; 1.265000203874991E7 ; 2.0127053524361253E8 ; 3.486135439614887E8 ; 4.2131431075996604E9 ; 0.0
30 ; 1.2662339393889071E7 ; 2.0127719509539172E8 ; 3.6126354600023866E8 ; 4.414413642843273E9 ; 0.0
31 ; 1.2677014228686096E7 ; 2.0128414436143646E8 ; 3.739258853941277E8 ; 4.615690837938664E9 ; 0.0
32 ; 1.2691095379463483E7 ; 2.012913764321363E8 ; 3.866028996228138E8 ; 4.816974982300101E9 ; 0.0
33 ; 1.2703115458253592E7 ; 2.0129888462025583E8 ; 3.992939950022773E8 ; 5.018266358732238E9 ; 0.0
34 ; 1.2718077591245571E7 ; 2.0130666218232602E8 ; 4.119971104605309E8 ; 5.219565243352493E9 ; 0.0
35 ; 1.2730409365483895E7 ; 2.0131470233889174E8 ; 4.2471518805177647E8 ; 5.42087190553482E9 ; 0.0
36 ; 1.2740330211029451E7 ; 2.0132299829354954E8 ; 4.3744559741726035E8 ; 5.622186607873712E9 ; 0.0
37 ; 1.2749926406733608E7 ; 2.0133154325073054E8 ; 4.501859276282898E8 ; 5.823509606167261E9 ; 0.0
38 ; 1.2762416868743809E7 ; 2.0134033043220165E8 ; 4.6293585403502345E8 ; 6.024841149417992E9 ; 0.0
39 ; 1.2773676715369334E7 ; 2.0134935309227374E8 ; 4.756982709037673E8 ; 6.226181479850193E9 ; 0.0
40 ; 1.278181948075691E7 ; 2.0135860453172237E8 ; 4.8847194761913663E8 ; 6.427530832942467E9 ; 0.0
41 ; 1.2790639435002934E7 ; 2.0136807811043727E8 ; 5.0125376709989357E8 ; 6.628889437474189E9 ; 0.0
42 ; 1.2800146440144906E7 ; 2.013777672588302E8 ; 5.140444065348965E8 ; 6.830257515584626E9 ; 0.0
43 ; 1.2809681636774711E7 ; 2.0138766548803833E8 ; 5.268445529750414E8 ; 7.031635282843456E9 ; 0.0
44 ; 1.2820104313597078E7 ; 2.013977663989697E8 ; 5.39654234611816E8 ; 7.233022948331494E9 ; 0.0
45 ; 1.2827253083506314E7 ; 2.01408063690242E8 ; 5.524743389254131E8 ; 7.434420714730464E9 ; 0.0
46 ; 1.2832815197449638E7 ; 2.0141855116507122E8 ; 5.653015920089195E8 ; 7.635828778420706E9 ; 0.0
47 ; 1.2838453637728937E7 ; 2.0142922273717064E8 ; 5.781344072063692E8 ; 7.837247329585777E9 ; 0.0
48 ; 1.2845332979075516E7 ; 2.014400724357212E8 ; 5.909728608440981E8 ; 8.0386765523229475E9 ; 0.0
49 ; 1.285029009057019E7 ; 2.01451094409477E8 ; 6.038181938231736E8 ; 8.240116624758669E9 ; 0.0
50 ; 1.28505513310715E7 ; 2.0146228293006885E8 ; 6.166684839137439E8 ; 8.441567719168146E9 ; 0.0
51 ; 1.2861933043045545E7 ; 2.014736323945686E8 ; 6.295190352448153E8 ; 8.643030002098215E9 ; 0.0
52 ; 1.2860650441548198E7 ; 2.0148513732737538E8 ; 6.423809682878609E8 ; 8.844503634492785E9 ; 0.0
53 ; 1.2863834558132647E7 ; 2.014967923814838E8 ; 6.552416187294091E8 ; 9.04598877182016E9 ; 0.0
54 ; 1.2869005681420617E7 ; 2.0150859233919102E8 ; 6.681054532875417E8 ; 9.247485564201643E9 ; 0.0
55 ; 1.2875677813127484E7 ; 2.0152053211229792E8 ; 6.809744589689623E8 ; 9.448994156540834E9 ; 0.0
56 ; 1.2878389411281962E7 ; 2.0153260674185634E8 ; 6.938501367820898E8 ; 9.650514688653131E9 ; 0.0
57 ; 1.28803097276843E7 ; 2.0154481139751163E8 ; 7.067285261933718E8 ; 9.852047295394987E9 ; 0.0
58 ; 1.2886712920923494E7 ; 2.015571413764866E8 ; 7.19608835921056E8 ; 1.00535921067925E10 ; 0.0
59 ; 1.2888719632638294E7 ; 2.0156959210225034E8 ; 7.324955488419795E8 ; 1.0255149248168985E10 ; 0.0
60 ; 1.289097238303551E7 ; 2.0158215912291136E8 ; 7.453842684746178E8 ; 1.0456718840271236E10 ; 0.0
61 ; 1.2893215245372254E7 ; 2.0159483810937288E8 ; 7.582752408576534E8 ; 1.0658300999394148E10 ; 0.0
62 ; 1.2896089486446057E7 ; 2.016076248532837E8 ; 7.711684561030257E8 ; 1.0859895837503521E10 ; 0.0
63 ; 1.2900586121573716E7 ; 2.0162051526481634E8 ; 7.840645455894717E8 ; 1.1061503462356804E10 ; 0.0
64 ; 1.2903260906919995E7 ; 2.0163350537030095E8 ; 7.969651317110454E8 ; 1.126312397762162E10 ; 0.0
65 ; 1.2904898538316369E7 ; 2.0164659130974066E8 ; 8.098683926179653E8 ; 1.146475748299192E10 ; 0.0
66 ; 1.2909871366819615E7 ; 2.0165976933423248E8 ; 8.227732911562817E8 ; 1.166640407430166E10 ; 0.0
67 ; 1.2910766962546976E7 ; 2.0167303580331418E8 ; 8.356831625231013E8 ; 1.1868063843635893E10 ; 0.0
68 ; 1.2908851181978533E7 ; 2.0168638718225682E8 ; 8.485939294856483E8 ; 1.2069736879439207E10 ; 0.0
69 ; 1.29110393282763E7 ; 2.0169982003931946E8 ; 8.615027806676269E8 ; 1.2271423266621464E10 ; 0.0
70 ; 1.2913823339371063E7 ; 2.0171333104298174E8 ; 8.744138199959031E8 ; 1.2473123086660784E10 ; 0.0
71 ; 1.2916413600963783E7 ; 2.0172691695916706E8 ; 8.873276433352742E8 ; 1.2674836417703766E10 ; 0.0
72 ; 1.2919523285061477E7 ; 2.0174057464846867E8 ; 9.00244056936238E8 ; 1.2876563334662933E10 ; 0.0
73 ; 1.2919169565328095E7 ; 2.0175430106338906E8 ; 9.131635802212995E8 ; 1.3078303909311401E10 ; 0.0
74 ; 1.2922638561514711E7 ; 2.0176809324560115E8 ; 9.260827497866277E8 ; 1.328005821037479E10 ; 0.0
75 ; 1.2921962387605384E7 ; 2.017819483232399E8 ; 9.390053883481424E8 ; 1.3481826303620392E10 ; 0.0
76 ; 1.2929154140161922E7 ; 2.017958635082301E8 ; 9.519273507357478E8 ; 1.3683608251943632E10 ; 0.0
77 ; 1.2925998455739405E7 ; 2.0180983609365705E8 ; 9.648565048759097E8 ; 1.3885404115451862E10 ; 0.0
78 ; 1.2923861116997203E7 ; 2.0182386345118412E8 ; 9.777825033316491E8 ; 1.4087213951545519E10 ; 0.0
79 ; 1.2919759193818955E7 ; 2.018379430285216E8 ; 9.907063644486463E8 ; 1.4289037814996702E10 ; 0.0
80 ; 1.2918564194666274E7 ; 2.0185207234695002E8 ; 1.0036261236424652E9 ; 1.4490875758025225E10 ; 0.0
81 ; 1.2916072017955879E7 ; 2.018662489989007E8 ; 1.0165446878371315E9 ; 1.4692727830372175E10 ; 0.0
82 ; 1.2918841584788132E7 ; 2.0188047064559528E8 ; 1.0294607598550874E9 ; 1.4894594079371077E10 ; 0.0
83 ; 1.290936562829744E7 ; 2.0189473501474604E8 ; 1.0423796014398755E9 ; 1.5096474550016672E10 ; 0.0
84 ; 1.2901617321961183E7 ; 2.0190903989831793E8 ; 1.0552889670681729E9 ; 1.5298369285031418E10 ; 0.0
85 ; 1.2902863908487365E7 ; 2.0192338315035322E8 ; 1.0681905843901341E9 ; 1.5500278324929735E10 ; 0.0
86 ; 1.289912056857672E7 ; 2.0193776268485862E8 ; 1.0810934482986214E9 ; 1.5702201708080088E10 ; 0.0
87 ; 1.2896696741577968E7 ; 2.0195217647375563E8 ; 1.0939925688671982E9 ; 1.5904139470764946E10 ; 0.0
88 ; 1.2894621913989408E7 ; 2.01966622544893E8 ; 1.106889265608776E9 ; 1.61060916472387E10 ; 0.0
89 ; 1.2888372711028926E7 ; 2.0198109898012167E8 ; 1.1197838875227654E9 ; 1.6308058269783594E10 ; 0.0
90 ; 1.2883323407232743E7 ; 2.01995603913431E8 ; 1.1326722602337942E9 ; 1.6510039368763716E10 ; 0.0
91 ; 1.2880272517188558E7 ; 2.0201013552914545E8 ; 1.145555583641027E9 ; 1.6712034972677147E10 ; 0.0
92 ; 1.2876192487627197E7 ; 2.0202469206018117E8 ; 1.1584358561582155E9 ; 1.6914045108206293E10 ; 0.0
93 ; 1.2872410504205188E7 ; 2.0203927178636092E8 ; 1.1713120486458428E9 ; 1.7116069800266474E10 ; 0.0
94 ; 1.2865503972184014E7 ; 2.0205387303278622E8 ; 1.184184459150048E9 ; 1.7318109072052834E10 ; 0.0
95 ; 1.286488551462121E7 ; 2.0206849416826588E8 ; 1.197049963122232E9 ; 1.752016294508562E10 ; 0.0
96 ; 1.2860311394717326E7 ; 2.0208313360379896E8 ; 1.2099148486368532E9 ; 1.7722231439253887E10 ; 0.0
97 ; 1.2853742290982869E7 ; 2.0209778979111114E8 ; 1.2227751600315704E9 ; 1.7924314572857685E10 ; 0.0
98 ; 1.2847297546663737E7 ; 2.0211246122124308E8 ; 1.2356289023225534E9 ; 1.8126412362648796E10 ; 0.0
99 ; 1.2846587755267879E7 ; 2.021271464231892E8 ; 1.2484761998692172E9 ; 1.832852482387004E10 ; 0.0
100 ; 1.2840692390860561E7 ; 2.021418439625854E8 ; 1.261322787624485E9 ; 1.8530651970293232E10 ; 0.0
101 ; 1.2833767802784104E7 ; 2.0215655244044432E8 ; 1.2741634800153456E9 ; 1.8732793814255817E10 ; 0.0
102 ; 1.2827026283491291E7 ; 2.02171270491937E8 ; 1.2869972478181298E9 ; 1.8934950366696262E10 ; 0.0
103 ; 1.2823416325410206E7 ; 2.0218599678521863E8 ; 1.2998242741016212E9 ; 1.9137121637188198E10 ; 0.0
104 ; 1.281883389939319E7 ; 2.022007300202978E8 ; 1.3126476904270313E9 ; 1.9339307633973415E10 ; 0.0
105 ; 1.2808528274153091E7 ; 2.0221546892794755E8 ; 1.3254665243264244E9 ; 1.9541508363993713E10 ; 0.0
106 ; 1.2805885498531133E7 ; 2.0223021226865646E8 ; 1.3382750526005774E9 ; 1.974372383292166E10 ; 0.0
107 ; 1.2801414917850329E7 ; 2.022449588316191E8 ; 1.3510809380991085E9 ; 1.994595404519032E10 ; 0.0
108 ; 1.2793741356681664E7 ; 2.0225970743376365E8 ; 1.3638823530169587E9 ; 2.014819900402194E10 ; 0.0
109 ; 1.2789426453122454E7 ; 2.022744569188161E8 ; 1.3766760943736403E9 ; 2.0350458711455704E10 ; 0.0
110 ; 1.2784094793179816E7 ; 2.0228920615639925E8 ; 1.3894655208267627E9 ; 2.055273316837452E10 ; 0.0
111 ; 1.2777332659646694E7 ; 2.0230395404116574E8 ; 1.4022496156199424E9 ; 2.075502237453092E10 ; 0.0
112 ; 1.2769211346286679E7 ; 2.02318699491963E8 ; 1.4150269482795892E9 ; 2.0957326328572083E10 ; 0.0
113 ; 1.2763063938391216E7 ; 2.0233344145103014E8 ; 1.427796159625876E9 ; 2.1159645028064045E10 ; 0.0
114 ; 1.2756922151327679E7 ; 2.0234817888322446E8 ; 1.4405592235642672E9 ; 2.1361978469515076E10 ; 0.0
115 ; 1.2750974349004192E7 ; 2.0236291077527732E8 ; 1.4533161457155948E9 ; 2.15643266483983E10 ; 0.0
116 ; 1.2743299449040236E7 ; 2.023776361350777E8 ; 1.466067120064599E9 ; 2.1766689559173576E10 ; 0.0
117 ; 1.2733766914741244E7 ; 2.0239235399098277E8 ; 1.4788104195136392E9 ; 2.1969067195308655E10 ; 0.0
118 ; 1.2727890700370522E7 ; 2.0240706339115432E8 ; 1.4915441864283805E9 ; 2.2171459549299637E10 ; 0.0
119 ; 1.272312066085245E7 ; 2.024217634029199E8 ; 1.504272077128751E9 ; 2.2373866612690792E10 ; 0.0
120 ; 1.27125658690586E7 ; 2.02436453112158E8 ; 1.5169951977896035E9 ; 2.257628837609371E10 ; 0.0
121 ; 1.2708015496271234E7 ; 2.024511316227062E8 ; 1.529707763658662E9 ; 2.277872482920587E10 ; 0.0
122 ; 1.2698696790221717E7 ; 2.0246579805579153E8 ; 1.5424157791549332E9 ; 2.298117596082858E10 ; 0.0
123 ; 1.2692655970247064E7 ; 2.0248045154948178E8 ; 1.555114475945155E9 ; 2.318364175888437E10 ; 0.0
124 ; 1.268322293123536E7 ; 2.024950912581576E8 ; 1.567807131915402E9 ; 2.338612221043385E10 ; 0.0
125 ; 1.2677770181614611E7 ; 2.0250971635200408E8 ; 1.5804903548466372E9 ; 2.3588617301692005E10 ; 0.0
126 ; 1.2667893403973488E7 ; 2.025243260165211E8 ; 1.593168125028252E9 ; 2.379112701804401E10 ; 0.0
127 ; 1.2659577190773586E7 ; 2.025389194520521E8 ; 1.6058360184322255E9 ; 2.399365134406053E10 ; 0.0
128 ; 1.2653269486958982E7 ; 2.0255349587332994E8 ; 1.618495595622999E9 ; 2.4196190263512585E10 ; 0.0
129 ; 1.2641948373908997E7 ; 2.0256805450904E8 ; 1.631148865109958E9 ; 2.4398743759385914E10 ; 0.0
130 ; 1.2632027544837784E7 ; 2.025825946013988E8 ; 1.643790813483867E9 ; 2.4601311813894955E10 ; 0.0
131 ; 1.2621096998322742E7 ; 2.0259711540574858E8 ; 1.6564228410287046E9 ; 2.4803894408496353E10 ; 0.0
132 ; 1.260971239974615E7 ; 2.0261161619016653E8 ; 1.6690439380270274E9 ; 2.5006491523902103E10 ; 0.0
133 ; 1.2592910526973614E7 ; 2.026260962350884E8 ; 1.6816536504267735E9 ; 2.520910314009227E10 ; 0.0
134 ; 1.258529427522542E7 ; 2.026405548329458E8 ; 1.6942465609537473E9 ; 2.541172923632736E10 ; 0.0
135 ; 1.2568693729039624E7 ; 2.0265499128781673E8 ; 1.7068318552289727E9 ; 2.5614369791160305E10 ; 0.0
136 ; 1.255863989589069E7 ; 2.0266940491508886E8 ; 1.7194005489580123E9 ; 2.581702478244812E10 ; 0.0
137 ; 1.2542977096378934E7 ; 2.026837950411349E8 ; 1.731959188853903E9 ; 2.601969418736321E10 ; 0.0
138 ; 1.2529913526805505E7 ; 2.0269816100299987E8 ; 1.744502165950282E9 ; 2.6222377982404343E10 ; 0.0
139 ; 1.2516879812949378E7 ; 2.0271250214809942E8 ; 1.7570320794770875E9 ; 2.642507614340734E10 ; 0.0
140 ; 1.2505233080397941E7 ; 2.0272681783392918E8 ; 1.769548959290037E9 ; 2.662778864555544E10 ; 0.0
141 ; 1.249331125307045E7 ; 2.0274110742778453E8 ; 1.7820541923704348E9 ; 2.683051546338937E10 ; 0.0
142 ; 1.2479896642610034E7 ; 2.0275537030649015E8 ; 1.794547503623505E9 ; 2.7033256570817154E10 ; 0.0
143 ; 1.2464627832820097E7 ; 2.0276960585613966E8 ; 1.8070274002661152E9 ; 2.7236011941123646E10 ; 0.0
144 ; 1.2450650347309163E7 ; 2.0278381347184393E8 ; 1.8194920280989354E9 ; 2.7438781546979786E10 ; 0.0
145 ; 1.2442286610409198E7 ; 2.0279799255748886E8 ; 1.8319426784462445E9 ; 2.764156536045163E10 ; 0.0
146 ; 1.2433775438580187E7 ; 2.028121425255015E8 ; 1.8443849650566537E9 ; 2.7844363353009117E10 ; 0.0
147 ; 1.2425726794715796E7 ; 2.0282626279662418E8 ; 1.856818740495234E9 ; 2.804717549553462E10 ; 0.0
148 ; 1.2413808232746223E7 ; 2.0284035279969707E8 ; 1.86924446728995E9 ; 2.825000175833124E10 ; 0.0
149 ; 1.2405562610661967E7 ; 2.028544119714479E8 ; 1.881658275522696E9 ; 2.845284211113094E10 ; 0.0
150 ; 1.2397055459054902E7 ; 2.0286843975628936E8 ; 1.894063838133358E9 ; 2.8655696523102386E10 ; 0.0
151 ; 1.2386088030075641E7 ; 2.028824356061233E8 ; 1.906460893592413E9 ; 2.8858564962858677E10 ; 0.0
152 ; 1.2379686971525986E7 ; 2.0289639898015186E8 ; 1.9188469816224885E9 ; 2.90614473984648E10 ; 0.0
153 ; 1.2373301425465675E7 ; 2.029103293446953E8 ; 1.9312266685940144E9 ; 2.9264343797444954E10 ; 0.0
154 ; 1.2359239270896032E7 ; 2.0292422617301565E8 ; 1.94359997001948E9 ; 2.946725412678965E10 ; 0.0
155 ; 1.2347657203344798E7 ; 2.02938088945147E8 ; 1.955959209290376E9 ; 2.9670178352962666E10 ; 0.0
156 ; 1.2343258400981601E7 ; 2.029519171477312E8 ; 1.9683068664937208E9 ; 2.9873116441907814E10 ; 0.0
157 ; 1.2331458503448332E7 ; 2.029657102738594E8 ; 1.9806501248947024E9 ; 3.0076068359055546E10 ; 0.0
158 ; 1.2323110359637387E7 ; 2.0297946782291886E8 ; 1.9929815833981507E9 ; 3.0279034069329407E10 ; 0.0
159 ; 1.231085315201773E7 ; 2.0299318930044502E8 ; 2.0053046937577882E9 ; 3.0482013537152325E10 ; 0.0
160 ; 1.2300261072517356E7 ; 2.0300687421797872E8 ; 2.017615546909806E9 ; 3.068500672645277E10 ; 0.0
161 ; 1.229360247860868E7 ; 2.0302052209292793E8 ; 2.0299158079823234E9 ; 3.088801360067075E10 ; 0.0
162 ; 1.2285973219233228E7 ; 2.0303413244843465E8 ; 2.042209410460932E9 ; 3.109103412276368E10 ; 0.0
163 ; 1.227213728968902E7 ; 2.0304770481324562E8 ; 2.0544953836801653E9 ; 3.1294068255212112E10 ; 0.0
164 ; 1.2261301607281227E7 ; 2.03061238721588E8 ; 2.0667675209698544E9 ; 3.1497115960025356E10 ; 0.0
165 ; 1.2253799824145919E7 ; 2.0307473371304873E8 ; 2.0790288225771356E9 ; 3.1700177198746944E10 ; 0.0
166 ; 1.2239987546645448E7 ; 2.0308818933245832E8 ; 2.0912826224012816E9 ; 3.190325193245999E10 ; 0.0
167 ; 1.2232512980630938E7 ; 2.0310160512977812E8 ; 2.103522609947927E9 ; 3.210634012179245E10 ; 0.0
168 ; 1.2222320542835776E7 ; 2.031149806599915E8 ; 2.1157551229285579E9 ; 3.230944172692223E10 ; 0.0
169 ; 1.2212521244994804E7 ; 2.0312831548299876E8 ; 2.1279774434713936E9 ; 3.2512556707582222E10 ; 0.0
170 ; 1.2202043169552144E7 ; 2.0314160916351527E8 ; 2.1401899647163885E9 ; 3.271568502306522E10 ; 0.0
171 ; 1.2191538283457553E7 ; 2.03154861270973E8 ; 2.1523920078859406E9 ; 3.2918826632228737E10 ; 0.0
172 ; 1.2181759884664916E7 ; 2.0316807137942553E8 ; 2.1645835461693983E9 ; 3.312198149349971E10 ; 0.0
173 ; 1.2171222117396992E7 ; 2.031812390674557E8 ; 2.1767653060540633E9 ; 3.3325149564879135E10 ; 0.0
174 ; 1.2168266414961943E7 ; 2.031943639180868E8 ; 2.18893652817146E9 ; 3.352833080394659E10 ; 0.0
175 ; 1.2159114624413311E7 ; 2.032074455186962E8 ; 2.201104794586422E9 ; 3.3731525167864677E10 ; 0.0
176 ; 1.2151205601971162E7 ; 2.0322048346093205E8 ; 2.2132639092108355E9 ; 3.3934732613383373E10 ; 0.0
177 ; 1.214787211693127E7 ; 2.0323347734063256E8 ; 2.2254151148128066E9 ; 3.4137953096844307E10 ; 0.0
178 ; 1.2140205268046666E7 ; 2.0324642675774795E8 ; 2.237562986929738E9 ; 3.434118657418494E10 ; 0.0
179 ; 1.213522993007189E7 ; 2.0325933131626484E8 ; 2.249703192197785E9 ; 3.454443300094269E10 ; 0.0
180 ; 1.2127204648914583E7 ; 2.032721906241331E8 ; 2.2618384221278567E9 ; 3.474769233225895E10 ; 0.0
181 ; 1.2125330938321248E7 ; 2.0328500429319507E8 ; 2.2739656267767715E9 ; 3.495096452288308E10 ; 0.0
182 ; 1.2118182632266585E7 ; 2.03297771939117E8 ; 2.2860909577150927E9 ; 3.515424952717628E10 ; 0.0
183 ; 1.211028057037444E7 ; 2.0331049318132266E8 ; 2.298209140347359E9 ; 3.5357547299115395E10 ; 0.0
184 ; 1.210495292787855E7 ; 2.0332316764292917E8 ; 2.3103194209177337E9 ; 3.5560857792296715E10 ; 0.0
185 ; 1.2097613480524622E7 ; 2.0333579495068467E8 ; 2.322424373845612E9 ; 3.5764180959939644E10 ; 0.0
186 ; 1.2095992761839587E7 ; 2.0334837473490813E8 ; 2.3345219873261366E9 ; 3.596751675489033E10 ; 0.0
187 ; 1.2085421922512298E7 ; 2.0336090662943107E8 ; 2.346617980087976E9 ; 3.617086512962524E10 ; 0.0
188 ; 1.208101066828347E7 ; 2.033733902715409E8 ; 2.3587034020104885E9 ; 3.637422603625467E10 ; 0.0
189 ; 1.2077850225076605E7 ; 2.033858253019263E8 ; 2.370784412678772E9 ; 3.657759942652621E10 ; 0.0
190 ; 1.2068817374506429E7 ; 2.0339821136462426E8 ; 2.3828622629038486E9 ; 3.678098525182813E10 ; 0.0
191 ; 1.2060426097270824E7 ; 2.0341054810696846E8 ; 2.394931080278355E9 ; 3.698438346319276E10 ; 0.0
192 ; 1.2056061449204408E7 ; 2.0342283517953983E8 ; 2.406991506375626E9 ; 3.718779401129973E10 ; 0.0
193 ; 1.2046805498857968E7 ; 2.0343507223611814E8 ; 2.4190475678248305E9 ; 3.739121684647927E10 ; 0.0
194 ; 1.2043441338127956E7 ; 2.0344725893363535E8 ; 2.4310943733236885E9 ; 3.7594651918715385E10 ; 0.0
195 ; 1.2037794152653474E7 ; 2.034593949321304E8 ; 2.4431378146618166E9 ; 3.779809917764902E10 ; 0.0
