CSV File for the City 3 on Day 256
1 - Minute m 
2 - Power Consumed at minute m 
3 - Power Produced at minute m 
4 - Energy Consumed since the beginning of the day 
5 - Energy Produced since the beginning of the day 
6 - Energy Lost since the beginning of the day on lines starting from the city
 
0 ; 667818.884742174 ; 1.0543950024806377E8 ; 0.0 ; 0.0 ; 0.0
1 ; 671007.7023582201 ; 1.055923345221917E8 ; 667818.884742174 ; 1.0543950024806377E8 ; 0.0
2 ; 672733.7544846829 ; 1.0605396015682718E8 ; 1338826.587100394 ; 2.1103183477025548E8 ; 0.0
3 ; 674978.848738415 ; 1.0682437944066465E8 ; 2011560.3415850769 ; 3.1708579492708266E8 ; 0.0
4 ; 678642.6774725877 ; 1.0790359443988079E8 ; 2686539.190323492 ; 4.239101743677473E8 ; 0.0
5 ; 681526.4007762565 ; 1.092916069817009E8 ; 3365181.8677960797 ; 5.318137688076281E8 ; 0.0
6 ; 688552.6052527826 ; 1.1098841863945249E8 ; 4046708.268572336 ; 6.41105375789329E8 ; 0.0
7 ; 694707.3092022474 ; 1.1299403071938318E8 ; 4735260.873825119 ; 7.520937944287815E8 ; 0.0
8 ; 705487.6339955658 ; 1.1530844424949485E8 ; 5429968.183027366 ; 8.650878251481647E8 ; 0.0
9 ; 721810.8051622731 ; 1.1793165997061467E8 ; 6135455.817022932 ; 9.803962693976595E8 ; 0.0
10 ; 747932.0676784425 ; 1.2086367832988226E8 ; 6857266.622185205 ; 1.0983279293682742E9 ; 0.0
11 ; 789974.4015027831 ; 1.2410449947678754E8 ; 7605198.689863647 ; 1.2191916076981564E9 ; 0.0
12 ; 854973.2472317141 ; 1.2765412326184055E8 ; 8395173.09136643 ; 1.343296107174944E9 ; 0.0
13 ; 916479.6160764517 ; 1.3151254923790169E8 ; 9250146.338598145 ; 1.4709502304367845E9 ; 0.0
14 ; 924581.8086452279 ; 1.3567977666414386E8 ; 1.0166625954674598E7 ; 1.6024627796746862E9 ; 0.0
15 ; 928357.7560316537 ; 1.4015580451256508E8 ; 1.1091207763319826E7 ; 1.73814255633883E9 ; 0.0
16 ; 930589.7394848263 ; 1.4494063147691783E8 ; 1.2019565519351479E7 ; 1.8782983608513951E9 ; 0.0
17 ; 932765.3776520814 ; 1.5003425598387453E8 ; 1.2950155258836305E7 ; 2.0232389923283129E9 ; 0.0
18 ; 935410.8802437974 ; 1.554366762062099E8 ; 1.3882920636488385E7 ; 2.173273248312187E9 ; 0.0
19 ; 938531.1740825395 ; 1.6114789007774726E8 ; 1.4818331516732182E7 ; 2.3287099245183973E9 ; 0.0
20 ; 941754.6063939013 ; 1.6716789530979213E8 ; 1.5756862690814722E7 ; 2.4898578145961447E9 ; 0.0
21 ; 944803.7717048811 ; 1.734966894087619E8 ; 1.6698617297208624E7 ; 2.6570257099059367E9 ; 0.0
22 ; 947436.22940334 ; 1.801342696947137E8 ; 1.7643421068913504E7 ; 2.8305223993146987E9 ; 0.0
23 ; 950159.3498155581 ; 1.8708063332047403E8 ; 1.8590857298316844E7 ; 3.0106566690094123E9 ; 0.0
24 ; 951338.7387709045 ; 1.943357772910835E8 ; 1.9541016648132402E7 ; 3.1977373023298864E9 ; 0.0
25 ; 955034.0100277965 ; 2.0058773938147077E8 ; 2.049235538690331E7 ; 3.39207307962097E9 ; 0.0
26 ; 957955.4622757842 ; 2.0059006419263357E8 ; 2.1447389396931104E7 ; 3.5926608190024405E9 ; 0.0
27 ; 962530.6947380087 ; 2.0059251769540057E8 ; 2.240534485920689E7 ; 3.793250883195074E9 ; 0.0
28 ; 963120.2798895689 ; 2.0059509649543887E8 ; 2.3367875553944897E7 ; 3.993843400890475E9 ; 0.0
29 ; 966409.8838108822 ; 2.0059779714394656E8 ; 2.4330995833834466E7 ; 4.194438497385914E9 ; 0.0
30 ; 969597.5671557381 ; 2.0060061615417728E8 ; 2.5297405717645347E7 ; 4.3950362945298605E9 ; 0.0
31 ; 971638.4946672443 ; 2.0060355001693732E8 ; 2.6267003284801085E7 ; 4.595636910684038E9 ; 0.0
32 ; 976101.2701903356 ; 2.006065952149787E8 ; 2.7238641779468328E7 ; 4.796240460700975E9 ; 0.0
33 ; 978832.3555682641 ; 2.0060974823623872E8 ; 2.8214743049658664E7 ; 4.996847055915955E9 ; 0.0
34 ; 981449.2717657902 ; 2.006130055859006E8 ; 2.9193575405226927E7 ; 5.197456804152193E9 ; 0.0
35 ; 981403.5310250518 ; 2.0061636379727077E8 ; 3.0175024676992718E7 ; 5.398069809738093E9 ; 0.0
36 ; 985897.4447240721 ; 2.0061981944148752E8 ; 3.115642820801777E7 ; 5.598686173535364E9 ; 0.0
37 ; 986366.7015763808 ; 2.006233691360906E8 ; 3.2142325652741842E7 ; 5.799305992976851E9 ; 0.0
38 ; 987383.0391485706 ; 2.006270095524946E8 ; 3.3128692354318224E7 ; 5.999929362112942E9 ; 0.0
39 ; 992349.1376130694 ; 2.0063073742241833E8 ; 3.411607539346679E7 ; 6.200556371665437E9 ; 0.0
40 ; 994212.9440548313 ; 2.0063454954333052E8 ; 3.5108424531079866E7 ; 6.401187109087855E9 ; 0.0
41 ; 995249.7915295742 ; 2.0063844278297663E8 ; 3.61026374751347E7 ; 6.601821658631186E9 ; 0.0
42 ; 996917.1307300532 ; 2.006424140830552E8 ; 3.7097887266664274E7 ; 6.802460101414162E9 ; 0.0
43 ; 999236.2590364304 ; 2.006464604621135E8 ; 3.809480439739433E7 ; 7.003102515497217E9 ; 0.0
44 ; 1000649.5361963332 ; 2.0065057901773232E8 ; 3.909404065643076E7 ; 7.203748975959331E9 ; 0.0
45 ; 1000938.2451085513 ; 2.0065476692806837E8 ; 4.0094690192627095E7 ; 7.404399554977063E9 ; 0.0
46 ; 1002915.6990669982 ; 2.006590214528211E8 ; 4.109562843773565E7 ; 7.605054321905131E9 ; 0.0
47 ; 1004138.4931064642 ; 2.006633399336873E8 ; 4.209854413680264E7 ; 7.805713343357952E9 ; 0.0
48 ; 1004413.6197543822 ; 2.0066771979436398E8 ; 4.3102682629909106E7 ; 8.006376683291639E9 ; 0.0
49 ; 1006626.5083866641 ; 2.0067215854015636E8 ; 4.410709624966349E7 ; 8.207044403086003E9 ; 0.0
50 ; 1008327.17956843 ; 2.0067665375724286E8 ; 4.511372275805015E7 ; 8.40771656162616E9 ; 0.0
51 ; 1006848.0999473652 ; 2.0068120311164668E8 ; 4.612204993761858E7 ; 8.608393215383402E9 ; 0.0
52 ; 1009191.7727087463 ; 2.006858043479575E8 ; 4.712889803756595E7 ; 8.809074418495049E9 ; 0.0
53 ; 1009669.1040721661 ; 2.0069045528784442E8 ; 4.813808981027469E7 ; 9.009760222843006E9 ; 0.0
54 ; 1011324.4301305176 ; 2.0069515382839623E8 ; 4.914775891434686E7 ; 9.21045067813085E9 ; 0.0
55 ; 1011890.507269942 ; 2.0069989794032246E8 ; 5.015908334447738E7 ; 9.411145831959246E9 ; 0.0
56 ; 1010749.2648779448 ; 2.0070468566604367E8 ; 5.117097385174732E7 ; 9.611845729899569E9 ; 0.0
57 ; 1012533.3669925164 ; 2.0070951511769786E8 ; 5.2181723116625264E7 ; 9.812550415565613E9 ; 0.0
58 ; 1012173.123537974 ; 2.007143844750855E8 ; 5.319425648361778E7 ; 1.0013259930683311E10 ; 0.0
59 ; 1013881.230182492 ; 2.0071929198357323E8 ; 5.4206429607155755E7 ; 1.0213974315158398E10 ; 0.0
60 ; 1012461.9634821869 ; 2.007242359519741E8 ; 5.522031083733825E7 ; 1.0414693607141972E10 ; 0.0
61 ; 1015253.8891208048 ; 2.0072921475041926E8 ; 5.623277280082043E7 ; 1.0615417843093946E10 ; 0.0
62 ; 1015537.7337392217 ; 2.0073422680823407E8 ; 5.7248026689941235E7 ; 1.0816147057844366E10 ; 0.0
63 ; 1016652.9926800216 ; 2.0073927061182994E8 ; 5.8263564423680454E7 ; 1.10168812846526E10 ; 0.0
64 ; 1014759.9508372284 ; 2.0074434470262116E8 ; 5.9280217416360475E7 ; 1.121762055526443E10 ; 0.0
65 ; 1016487.8900068699 ; 2.0074944767497456E8 ; 6.029497736719771E7 ; 1.141836489996705E10 ; 0.0
66 ; 1017614.5015239508 ; 2.007545781741983E8 ; 6.131146525720458E7 ; 1.1619114347642025E10 ; 0.0
67 ; 1018363.3099890024 ; 2.007597348945753E8 ; 6.232907975872853E7 ; 1.1819868925816223E10 ; 0.0
68 ; 1019296.8699991014 ; 2.007649165774454E8 ; 6.334744306871753E7 ; 1.2020628660710798E10 ; 0.0
69 ; 1018237.3169213892 ; 2.007701220093394E8 ; 6.4366739938716635E7 ; 1.2221393577288244E10 ; 0.0
70 ; 1019169.0059615364 ; 2.0077535002016756E8 ; 6.5384977255638026E7 ; 1.2422163699297585E10 ; 0.0
71 ; 1020500.3217233407 ; 2.0078059948146415E8 ; 6.640414626159956E7 ; 1.2622939049317753E10 ; 0.0
72 ; 1019166.5622634921 ; 2.007858693046894E8 ; 6.74246465833229E7 ; 1.2823719648799217E10 ; 0.0
73 ; 1019940.5159914388 ; 2.0079115843958932E8 ; 6.844381314558639E7 ; 1.3024505518103907E10 ; 0.0
74 ; 1019916.9509050248 ; 2.0079646587261343E8 ; 6.946375366157782E7 ; 1.3225296676543495E10 ; 0.0
75 ; 1022407.0119754449 ; 2.0080179062539047E8 ; 7.048367061248285E7 ; 1.342609314241611E10 ; 0.0
76 ; 1022147.4238480121 ; 2.0080713175326157E8 ; 7.150607762445828E7 ; 1.36268949330415E10 ; 0.0
77 ; 1020888.1430016814 ; 2.0081248834386966E8 ; 7.25282250483063E7 ; 1.3827702064794762E10 ; 0.0
78 ; 1021573.5813249799 ; 2.0081785951580465E8 ; 7.354911319130798E7 ; 1.4028514553138632E10 ; 0.0
79 ; 1020744.0829327623 ; 2.0082324441730303E8 ; 7.457068677263296E7 ; 1.4229332412654436E10 ; 0.0
80 ; 1020253.8591673435 ; 2.008286422250003E8 ; 7.559143085556571E7 ; 1.443015565707174E10 ; 0.0
81 ; 1020042.2869627972 ; 2.008340521427353E8 ; 7.661168471473305E7 ; 1.463098429929674E10 ; 0.0
82 ; 1019267.7440283127 ; 2.0083947340040466E8 ; 7.763172700169584E7 ; 1.4831818351439474E10 ; 0.0
83 ; 1017085.7057886359 ; 2.0084490525286552E8 ; 7.865099474572416E7 ; 1.5032657824839878E10 ; 0.0
84 ; 1016586.9041312769 ; 2.0085034697888568E8 ; 7.96680804515128E7 ; 1.5233502730092743E10 ; 0.0
85 ; 1017421.5792760719 ; 2.0085579788013887E8 ; 8.068466735564408E7 ; 1.5434353077071629E10 ; 0.0
86 ; 1015351.8940801007 ; 2.008612572802436E8 ; 8.170208893492015E7 ; 1.5635208874951767E10 ; 0.0
87 ; 1015141.5208043761 ; 2.0086672452384445E8 ; 8.271744082900025E7 ; 1.583607013223201E10 ; 0.0
88 ; 1014151.4706802014 ; 2.0087219897573346E8 ; 8.373258234980462E7 ; 1.6036936856755854E10 ; 0.0
89 ; 1012165.0547167695 ; 2.0087768002001074E8 ; 8.474673382048483E7 ; 1.6237809055731586E10 ; 0.0
90 ; 1012978.3226311135 ; 2.0088316705928195E8 ; 8.57588988752016E7 ; 1.6438686735751596E10 ; 0.0
91 ; 1013395.5914476269 ; 2.0088865951389202E8 ; 8.677187719783272E7 ; 1.6639569902810879E10 ; 0.0
92 ; 1012603.7352155178 ; 2.0089415682119274E8 ; 8.778527278928034E7 ; 1.684045856232477E10 ; 0.0
93 ; 1009158.7061199693 ; 2.008996584348432E8 ; 8.879787652449585E7 ; 1.7041352719145962E10 ; 0.0
94 ; 1010753.5451965375 ; 2.009051638241419E8 ; 8.980703523061582E7 ; 1.7242252377580807E10 ; 0.0
95 ; 1008724.5400315969 ; 2.0091067247338846E8 ; 9.081778877581236E7 ; 1.744315754140495E10 ; 0.0
96 ; 1008407.9469326113 ; 2.009161838812743E8 ; 9.182651331584395E7 ; 1.7644068213878338E10 ; 0.0
97 ; 1006322.04063636 ; 2.009216975603005E8 ; 9.283492126277657E7 ; 1.7844984397759613E10 ; 0.0
98 ; 1006013.137135763 ; 2.0092721303622198E8 ; 9.384124330341293E7 ; 1.8045906095319912E10 ; 0.0
99 ; 1006962.7996689461 ; 2.009327298475166E8 ; 9.484725644054869E7 ; 1.8246833308356133E10 ; 0.0
100 ; 1004652.3768874598 ; 2.0093824754487813E8 ; 9.585421924021764E7 ; 1.8447766038203648E10 ; 0.0
101 ; 1002712.4984722098 ; 2.009437656907318E8 ; 9.68588716171051E7 ; 1.8648704285748528E10 ; 0.0
102 ; 1001853.3420955127 ; 2.0094928385877177E8 ; 9.786158411557731E7 ; 1.884964805143926E10 ; 0.0
103 ; 1001933.8152138571 ; 2.009548016335193E8 ; 9.886343745767282E7 ; 1.905059733529803E10 ; 0.0
104 ; 1002632.2589873524 ; 2.009603186099003E8 ; 9.986537127288668E7 ; 1.925155213693155E10 ; 0.0
105 ; 1000583.3343290085 ; 2.009658343928421E8 ; 1.0086800353187403E8 ; 1.945251245554145E10 ; 0.0
106 ; 999029.5022556984 ; 2.0097134859688818E8 ; 1.0186858686620304E8 ; 1.965347828993429E10 ; 0.0
107 ; 996624.1096807199 ; 2.0097686084582943E8 ; 1.0286761636845873E8 ; 1.985444963853118E10 ; 0.0
108 ; 995160.3924942383 ; 2.0098237077235246E8 ; 1.0386424047813946E8 ; 2.005542649937701E10 ; 0.0
109 ; 995942.49032908 ; 2.00987878017703E8 ; 1.0485940087063369E8 ; 2.0256408870149364E10 ; 0.0
110 ; 994705.7724449156 ; 2.009933822313642E8 ; 1.0585534336096278E8 ; 2.045739674816707E10 ; 0.0
111 ; 993212.4031590704 ; 2.0099888307074907E8 ; 1.068500491334077E8 ; 2.0658390130398434E10 ; 0.0
112 ; 991837.5816943136 ; 2.0100438020090652E8 ; 1.0784326153656676E8 ; 2.085938901346918E10 ; 0.0
113 ; 990935.1044980467 ; 2.0100987329423985E8 ; 1.0883509911826108E8 ; 2.1060393393670086E10 ; 0.0
114 ; 986199.6791884322 ; 2.0101536203023797E8 ; 1.0982603422275913E8 ; 2.1261403266964325E10 ; 0.0
115 ; 987681.4315793935 ; 2.010208460952179E8 ; 1.1081223390194756E8 ; 2.1462418628994564E10 ; 0.0
116 ; 988043.2811410896 ; 2.0102632518207857E8 ; 1.1179991533352695E8 ; 2.1663439475089783E10 ; 0.0
117 ; 985828.6003507377 ; 2.0103179899006516E8 ; 1.1278795861466804E8 ; 2.1864465800271862E10 ; 0.0
118 ; 983931.8727571323 ; 2.010372672245435E8 ; 1.1377378721501878E8 ; 2.206549759926193E10 ; 0.0
119 ; 982693.7577231437 ; 2.0104272959678435E8 ; 1.1475771908777592E8 ; 2.2266534866486473E10 ; 0.0
120 ; 981343.6966671391 ; 2.0104818582375655E8 ; 1.1574041284549905E8 ; 2.2467577596083256E10 ; 0.0
121 ; 980251.7956121227 ; 2.0105363562792903E8 ; 1.1672175654216619E8 ; 2.2668625781907013E10 ; 0.0
122 ; 979334.8958859214 ; 2.0105907873708144E8 ; 1.1770200833777831E8 ; 2.2869679417534943E10 ; 0.0
123 ; 977212.7024209071 ; 2.0106451488412246E8 ; 1.1868134323366423E8 ; 2.3070738496272022E10 ; 0.0
124 ; 976578.159879881 ; 2.0106994380691582E8 ; 1.1965855593608513E8 ; 2.3271803011156143E10 ; 0.0
125 ; 976084.1429241643 ; 2.0107536524811357E8 ; 1.2063513409596501E8 ; 2.347287295496306E10 ; 0.0
126 ; 972724.9530071464 ; 2.0108077895499647E8 ; 1.2161121823888917E8 ; 2.367394832021117E10 ; 0.0
127 ; 971257.5440407076 ; 2.0108618467932063E8 ; 1.2258394319189632E8 ; 2.387502909916617E10 ; 0.0
128 ; 970075.8502759173 ; 2.0109158217717087E8 ; 1.2355520073593703E8 ; 2.407611528384549E10 ; 0.0
129 ; 967882.0837691466 ; 2.010969712088199E8 ; 1.2452527658621295E8 ; 2.427720686602266E10 ; 0.0
130 ; 966093.8019111876 ; 2.011023515385932E8 ; 1.2549315866998209E8 ; 2.447830383723148E10 ; 0.0
131 ; 964250.2010123456 ; 2.011077229347397E8 ; 1.2645925247189328E8 ; 2.4679406188770073E10 ; 0.0
132 ; 962252.3104397223 ; 2.0111308516930735E8 ; 1.2742350267290562E8 ; 2.488051391170481E10 ; 0.0
133 ; 961087.5469484509 ; 2.01118438018024E8 ; 1.2838575498334534E8 ; 2.508162699687412E10 ; 0.0
134 ; 955922.7093373024 ; 2.0112378126018295E8 ; 1.2934684253029379E8 ; 2.5282745434892143E10 ; 0.0
135 ; 955074.2947274913 ; 2.0112911467853317E8 ; 1.303027652396311E8 ; 2.5483869216152325E10 ; 0.0
136 ; 952010.1174408371 ; 2.0113443805917376E8 ; 1.3125783953435859E8 ; 2.5684998330830856E10 ; 0.0
137 ; 952485.150580237 ; 2.0113975119145283E8 ; 1.3220984965179943E8 ; 2.588613276889003E10 ; 0.0
138 ; 947204.9256419693 ; 2.0114505386787027E8 ; 1.3316233480237967E8 ; 2.6087272520081482E10 ; 0.0
139 ; 945838.3589555827 ; 2.011503458839842E8 ; 1.3410953972802164E8 ; 2.6288417573949352E10 ; 0.0
140 ; 944313.6761235376 ; 2.0115562703832147E8 ; 1.350553780869772E8 ; 2.6489567919833336E10 ; 0.0
141 ; 939535.378755429 ; 2.011608971322913E8 ; 1.3599969176310074E8 ; 2.669072354687166E10 ; 0.0
142 ; 938385.3286230572 ; 2.011661559701025E8 ; 1.3693922714185616E8 ; 2.689188444400395E10 ; 0.0
143 ; 935935.0200516882 ; 2.011714033586839E8 ; 1.3787761247047922E8 ; 2.7093050599974052E10 ; 0.0
144 ; 932699.3928850404 ; 2.011766391076077E8 ; 1.388135474905309E8 ; 2.7294222003332737E10 ; 0.0
145 ; 931195.3662928161 ; 2.0118186302901593E8 ; 1.3974624688341594E8 ; 2.7495398642440346E10 ; 0.0
146 ; 929815.1687884822 ; 2.0118707493754974E8 ; 1.4067744224970874E8 ; 2.769658050546936E10 ; 0.0
147 ; 928658.0217648156 ; 2.011922746502812E8 ; 1.4160725741849723E8 ; 2.789776758040691E10 ; 0.0
148 ; 927081.1582987761 ; 2.0119746198664796E8 ; 1.4253591544026205E8 ; 2.809895985505719E10 ; 0.0
149 ; 924737.3858306569 ; 2.012026367683902E8 ; 1.4346299659856084E8 ; 2.830015731704384E10 ; 0.0
150 ; 924310.1493097488 ; 2.012077988194901E8 ; 1.443877339843915E8 ; 2.850135995381223E10 ; 0.0
151 ; 923129.1572645099 ; 2.0121294796611336E8 ; 1.4531204413370126E8 ; 2.8702567752631718E10 ; 0.0
152 ; 920778.1902491581 ; 2.012180840365532E8 ; 1.4623517329096577E8 ; 2.890378070059783E10 ; 0.0
153 ; 918098.1140484189 ; 2.0122320686117628E8 ; 1.471559514812149E8 ; 2.9104998784634384E10 ; 0.0
154 ; 917854.2713221102 ; 2.0122831627237067E8 ; 1.4807404959526333E8 ; 2.930622199149556E10 ; 0.0
155 ; 916477.9416233522 ; 2.0123341210449567E8 ; 1.4899190386658543E8 ; 2.950745030776793E10 ; 0.0
156 ; 915500.9897095301 ; 2.0123849419383374E8 ; 1.499083818082088E8 ; 2.9708683719872425E10 ; 0.0
157 ; 914036.9868296331 ; 2.0124356237854385E8 ; 1.5082388279791832E8 ; 2.9909922214066257E10 ; 0.0
158 ; 911920.0944868887 ; 2.012486164986168E8 ; 1.5173791978474796E8 ; 3.01111657764448E10 ; 0.0
159 ; 911248.515375101 ; 2.012536563958321E8 ; 1.5264983987923485E8 ; 3.0312414392943417E10 ; 0.0
160 ; 907927.9952850374 ; 2.0125868191371623E8 ; 1.5356108839460996E8 ; 3.051366804933925E10 ; 0.0
161 ; 906818.8967590058 ; 2.0126369289750287E8 ; 1.54469016389895E8 ; 3.0714926731252964E10 ; 0.0
162 ; 904737.4116568674 ; 2.012686891940941E8 ; 1.55375835286654E8 ; 3.0916190424150467E10 ; 0.0
163 ; 903121.3204713899 ; 2.0127367065202317E8 ; 1.5628057269831085E8 ; 3.1117459113344563E10 ; 0.0
164 ; 901554.2882641624 ; 2.0127863712141874E8 ; 1.5718369401878223E8 ; 3.1318732783996586E10 ; 0.0
165 ; 900457.2210148509 ; 2.0128358845397025E8 ; 1.5808524830704638E8 ; 3.1520011421118004E10 ; 0.0
166 ; 897853.434743475 ; 2.012885245028944E8 ; 1.5898570552806124E8 ; 3.1721295009571976E10 ; 0.0
167 ; 896237.9473272073 ; 2.012934451229032E8 ; 1.598835589628047E8 ; 3.192258353407487E10 ; 0.0
168 ; 894737.7066153327 ; 2.0129835017017284E8 ; 1.607797969101319E8 ; 3.2123876979197773E10 ; 0.0
169 ; 893733.5961841862 ; 2.0130323950231367E8 ; 1.6167453461674723E8 ; 3.2325175329367947E10 ; 0.0
170 ; 892327.1417740718 ; 2.0130811297834146E8 ; 1.6256826821293142E8 ; 3.2526478568870262E10 ; 0.0
171 ; 889791.9277057264 ; 2.013129704586494E8 ; 1.6346059535470548E8 ; 3.2727786681848602E10 ; 0.0
172 ; 889062.6311863184 ; 2.0131781180498135E8 ; 1.6435038728241122E8 ; 3.292909965230725E10 ; 0.0
173 ; 886513.6714665563 ; 2.0132263688040566E8 ; 1.6523944991359752E8 ; 3.3130417464112232E10 ; 0.0
174 ; 884714.4897770088 ; 2.013274455492904E8 ; 1.6612596358506408E8 ; 3.3331740100992638E10 ; 0.0
175 ; 884829.4377761967 ; 2.013322376772789E8 ; 1.6701067807484108E8 ; 3.3533067546541927E10 ; 0.0
176 ; 884756.91990815 ; 2.0133701313126665E8 ; 1.678955075126173E8 ; 3.3734399784219208E10 ; 0.0
177 ; 881992.7874807101 ; 2.0134177177937856E8 ; 1.6878026443252543E8 ; 3.3935736797350475E10 ; 0.0
178 ; 882606.331635976 ; 2.0134651349094725E8 ; 1.6966225722000614E8 ; 3.4137078569129852E10 ; 0.0
179 ; 880224.8568609555 ; 2.0135123813649213E8 ; 1.7054486355164212E8 ; 3.43384250826208E10 ; 0.0
180 ; 879397.729415417 ; 2.01355945587699E8 ; 1.714250884085031E8 ; 3.453977632075729E10 ; 0.0
181 ; 877837.5581246716 ; 2.0136063571740046E8 ; 1.723044861379185E8 ; 3.474113226634499E10 ; 0.0
182 ; 875793.1889084631 ; 2.0136530839955693E8 ; 1.7318232369604316E8 ; 3.494249290206239E10 ; 0.0
183 ; 875248.9283745261 ; 2.0136996350923854E8 ; 1.7405811688495162E8 ; 3.514385821046195E10 ; 0.0
184 ; 874372.4556552864 ; 2.0137460092260718E8 ; 1.7493336581332615E8 ; 3.534522817397119E10 ; 0.0
185 ; 872618.6112963893 ; 2.0137922051689968E8 ; 1.7580773826898143E8 ; 3.55466027748938E10 ; 0.0
186 ; 870435.134533458 ; 2.0138382217041105E8 ; 1.766803568802778E8 ; 3.57479819954107E10 ; 0.0
187 ; 869994.857013308 ; 2.013884057624789E8 ; 1.7755079201481128E8 ; 3.594936581758111E10 ; 0.0
188 ; 868889.7545866605 ; 2.0139297117346755E8 ; 1.784207868718246E8 ; 3.615075422334359E10 ; 0.0
189 ; 867847.4159081732 ; 2.0139751828475365E8 ; 1.7928967662641126E8 ; 3.635214719451706E10 ; 0.0
190 ; 867457.5181060486 ; 2.014020469787114E8 ; 1.8015752404231945E8 ; 3.655354471280181E10 ; 0.0
191 ; 865224.049831357 ; 2.0140655713869876E8 ; 1.810249815604255E8 ; 3.6754946759780525E10 ; 0.0
192 ; 864124.968356851 ; 2.014110486490441E8 ; 1.8189020561025685E8 ; 3.695635331691923E10 ; 0.0
193 ; 862735.4526941057 ; 2.014155213950331E8 ; 1.827543305786137E8 ; 3.7157764365568275E10 ; 0.0
194 ; 861096.4899258747 ; 2.0141997526289612E8 ; 1.8361706603130782E8 ; 3.735917988696331E10 ; 0.0
195 ; 858719.8738010577 ; 2.0142441013979623E8 ; 1.8447816252123368E8 ; 3.7560599862226204E10 ; 0.0
196 ; 860187.9288748592 ; 2.0142882591381735E8 ; 1.8533688239503473E8 ; 3.7762024272366E10 ; 0.0
197 ; 857982.2203861414 ; 2.014332224739528E8 ; 1.8619707032390958E8 ; 3.7963453098279816E10 ; 0.0
198 ; 856113.7278255246 ; 2.0143759971009454E8 ; 1.8705505254429573E8 ; 3.816488632075377E10 ; 0.0
199 ; 854755.7808062363 ; 2.0144195751302236E8 ; 1.8791116627212125E8 ; 3.836632392046387E10 ; 0.0
200 ; 854145.9414088718 ; 2.0144629577439368E8 ; 1.887659220529275E8 ; 3.856776587797689E10 ; 0.0
