CSV File for the City 3 on Day 236
1 - Minute m 
2 - Power Consumed at minute m 
3 - Power Produced at minute m 
4 - Energy Consumed since the beginning of the day 
5 - Energy Produced since the beginning of the day 
6 - Energy Lost since the beginning of the day on lines starting from the city
 
0 ; 276271.51362561784 ; 1.0524928409077767E8 ; 0.0 ; 0.0 ; 0.0
1 ; 278086.7269422089 ; 1.0540011167364848E8 ; 276271.51362561784 ; 1.0524928409077767E8 ; 0.0
2 ; 281359.6179836587 ; 1.0585982089744815E8 ; 554358.2405678267 ; 2.1064939576442614E8 ; 0.0
3 ; 284655.0391757646 ; 1.066284419420566E8 ; 835717.8585514853 ; 3.165092166618743E8 ; 0.0
4 ; 287169.1719695693 ; 1.077060070359971E8 ; 1120372.89772725 ; 4.231376586039309E8 ; 0.0
5 ; 293398.2291115874 ; 1.0909254961024243E8 ; 1407542.0696968192 ; 5.30843665639928E8 ; 0.0
6 ; 298758.8176836493 ; 1.1078810302511308E8 ; 1700940.2988084066 ; 6.399362152501705E8 ; 0.0
7 ; 305550.3186170987 ; 1.1279269887116718E8 ; 1999699.1164920558 ; 7.507243182752836E8 ; 0.0
8 ; 317193.9621796091 ; 1.1510636494329661E8 ; 2305249.4351091543 ; 8.635170171464508E8 ; 0.0
9 ; 335662.39019309037 ; 1.1772912310785753E8 ; 2622443.3972887634 ; 9.786233820897474E8 ; 0.0
10 ; 360332.7827305449 ; 1.2066098738643193E8 ; 2958105.7874818537 ; 1.096352505197605E9 ; 0.0
11 ; 403684.7154316692 ; 1.2390196261403039E8 ; 3318438.5702123987 ; 1.2170134925840368E9 ; 0.0
12 ; 468694.29146124097 ; 1.2745204395564231E8 ; 3722123.285644068 ; 1.3409154551980672E9 ; 0.0
13 ; 533288.7760648298 ; 1.3131121738968569E8 ; 4190817.577105309 ; 1.4683674991537094E9 ; 0.0
14 ; 540618.3517134138 ; 1.3547946104980445E8 ; 4724106.353170139 ; 1.599678716543395E9 ; 0.0
15 ; 544518.4449910817 ; 1.399567471411066E8 ; 5264724.704883553 ; 1.7351581775931995E9 ; 0.0
16 ; 548731.4983634277 ; 1.4474304407303414E8 ; 5809243.149874635 ; 1.875114924734306E9 ; 0.0
17 ; 550333.6693875915 ; 1.4983831848526648E8 ; 6357974.648238063 ; 2.0198579688073401E9 ; 0.0
18 ; 554300.5625202474 ; 1.5524253694683087E8 ; 6908308.317625655 ; 2.169696287292607E9 ; 0.0
19 ; 556290.6560420309 ; 1.6095566722920403E8 ; 7462608.880145902 ; 2.3249388242394376E9 ; 0.0
20 ; 558266.0253788144 ; 1.6697767915250602E8 ; 8018899.536187933 ; 2.4858944914686418E9 ; 0.0
21 ; 563532.908181924 ; 1.7330854506414822E8 ; 8577165.561566748 ; 2.6528721706211476E9 ; 0.0
22 ; 566309.4109929235 ; 1.7994824003411615E8 ; 9140698.469748672 ; 2.826180715685296E9 ; 0.0
23 ; 569393.9382245922 ; 1.8689674185142803E8 ; 9707007.880741596 ; 3.0061289557194123E9 ; 0.0
24 ; 574238.6064956768 ; 1.941540308937999E8 ; 1.0276401818966188E7 ; 3.1930256975708404E9 ; 0.0
25 ; 578053.1729672011 ; 2.0040813082390928E8 ; 1.0850640425461864E7 ; 3.38717972846464E9 ; 0.0
26 ; 579755.3188765245 ; 2.004125743918129E8 ; 1.1428693598429065E7 ; 3.5875878592885494E9 ; 0.0
27 ; 584005.9932009571 ; 2.0041711771848568E8 ; 1.2008448917305589E7 ; 3.788000433680362E9 ; 0.0
28 ; 587697.1774784148 ; 2.0042174930998343E8 ; 1.2592454910506546E7 ; 3.988417551398848E9 ; 0.0
29 ; 589775.7119431896 ; 2.0042645913543448E8 ; 1.318015208798496E7 ; 4.1888393007088313E9 ; 0.0
30 ; 594585.6512139713 ; 2.0043123843308342E8 ; 1.3769927799928151E7 ; 4.389265759844266E9 ; 0.0
31 ; 595940.7943700267 ; 2.004360795386507E8 ; 1.4364513451142123E7 ; 4.589696998277349E9 ; 0.0
32 ; 599770.1653817649 ; 2.0044097573531136E8 ; 1.496045424551215E7 ; 4.790133077816E9 ; 0.0
33 ; 602979.747122825 ; 2.00445921123679E8 ; 1.5560224410893915E7 ; 4.9905740535513115E9 ; 0.0
34 ; 604444.428565013 ; 2.0045091050976828E8 ; 1.616320415801674E7 ; 5.191019974674991E9 ; 0.0
35 ; 607735.0688438457 ; 2.0045593930880457E8 ; 1.6767648586581752E7 ; 5.391470885184759E9 ; 0.0
36 ; 611553.960549334 ; 2.0046100346281847E8 ; 1.7375383655425597E7 ; 5.591926824493564E9 ; 0.0
37 ; 613934.507406395 ; 2.00466099370123E8 ; 1.798693761597493E7 ; 5.792387827956382E9 ; 0.0
38 ; 619918.6757819909 ; 2.0047122382497132E8 ; 1.8600872123381324E7 ; 5.992853927326505E9 ; 0.0
39 ; 619241.0091736421 ; 2.004763739659014E8 ; 1.9220790799163315E7 ; 6.193325151151476E9 ; 0.0
40 ; 621188.7683966598 ; 2.0048154723147503E8 ; 1.984003180833696E7 ; 6.393801525117377E9 ; 0.0
41 ; 625324.412731461 ; 2.0048674132230183E8 ; 2.046122057673362E7 ; 6.594283072348852E9 ; 0.0
42 ; 627162.2735820799 ; 2.0049195416840377E8 ; 2.108654498946508E7 ; 6.794769813671154E9 ; 0.0
43 ; 629376.7192874538 ; 2.004971839011176E8 ; 2.171370726304716E7 ; 6.995261767839558E9 ; 0.0
44 ; 630476.8768739256 ; 2.0050242882885674E8 ; 2.2343083982334614E7 ; 7.195758951740675E9 ; 0.0
45 ; 633742.085542024 ; 2.0050768741615877E8 ; 2.297356085920854E7 ; 7.396261380569531E9 ; 0.0
46 ; 634950.712987027 ; 2.00512958265534E8 ; 2.3607302944750562E7 ; 7.59676906798569E9 ; 0.0
47 ; 636188.3147842281 ; 2.0051824010170603E8 ; 2.424225365773759E7 ; 7.7972820262512245E9 ; 0.0
48 ; 637828.0464961114 ; 2.0052353175789806E8 ; 2.487844197252182E7 ; 7.99780026635293E9 ; 0.0
49 ; 639876.1717690874 ; 2.0052883216387346E8 ; 2.551627001901793E7 ; 8.198323798110828E9 ; 0.0
50 ; 641748.4590465595 ; 2.0053414033548197E8 ; 2.6156146190787017E7 ; 8.398852630274702E9 ; 0.0
51 ; 643062.5967645575 ; 2.005394553655022E8 ; 2.679789464983358E7 ; 8.599386770610184E9 ; 0.0
52 ; 644468.2257695871 ; 2.0054477641560194E8 ; 2.7440957246598136E7 ; 8.799926225975685E9 ; 0.0
53 ; 645720.1610322804 ; 2.0055010270926422E8 ; 2.8085425472367723E7 ; 9.000471002391287E9 ; 0.0
54 ; 647127.8105349207 ; 2.0055543352555037E8 ; 2.8731145633400004E7 ; 9.201021105100552E9 ; 0.0
55 ; 648824.7671640683 ; 2.005607681935889E8 ; 2.9378273443934925E7 ; 9.401576538626102E9 ; 0.0
56 ; 647855.4467678601 ; 2.0056610608769637E8 ; 3.002709821109899E7 ; 9.60213730681969E9 ; 0.0
57 ; 649845.4561009428 ; 2.005714466230483E8 ; 3.067495365786685E7 ; 9.802703412907387E9 ; 0.0
58 ; 650571.1983244377 ; 2.0057678925183147E8 ; 3.1324799113967795E7 ; 1.0003274859530436E10 ; 0.0
59 ; 653462.0405789246 ; 2.0058213345981658E8 ; 3.1975370312292233E7 ; 1.0203851648782267E10 ; 0.0
60 ; 652636.7681772431 ; 2.005874787633004E8 ; 3.2628832352871157E7 ; 1.0404433782242083E10 ; 0.0
61 ; 654288.8529611599 ; 2.00592824706372E8 ; 3.3281469121048402E7 ; 1.0605021261005383E10 ; 0.0
62 ; 656152.7000245631 ; 2.0059817085846478E8 ; 3.393575797400956E7 ; 1.0805614085711754E10 ; 0.0
63 ; 656567.8785689556 ; 2.0060351681216028E8 ; 3.459191067403412E7 ; 1.1006212256570219E10 ; 0.0
64 ; 660091.022668401 ; 2.0060886218121466E8 ; 3.524847855260307E7 ; 1.120681577338238E10 ; 0.0
65 ; 658594.5853848588 ; 2.0061420659878233E8 ; 3.590856957527147E7 ; 1.1407424635563595E10 ; 0.0
66 ; 661199.595457088 ; 2.0061954971581462E8 ; 3.656716416065633E7 ; 1.1608038842162376E10 ; 0.0
67 ; 661071.0410794055 ; 2.006248911996136E8 ; 3.722836375611342E7 ; 1.1808658391878191E10 ; 0.0
68 ; 662539.8207487189 ; 2.006302307325244E8 ; 3.788943479719282E7 ; 1.2009283283077805E10 ; 0.0
69 ; 663684.6744243589 ; 2.0063556801075077E8 ; 3.8551974617941536E7 ; 1.220991351381033E10 ; 0.0
70 ; 664524.0249552478 ; 2.0064090274328086E8 ; 3.921565929236589E7 ; 1.241054908182108E10 ; 0.0
71 ; 665289.1843507041 ; 2.0064623465091148E8 ; 3.9880183317321144E7 ; 1.261118998456436E10 ; 0.0
72 ; 666929.8140928815 ; 2.0065156346536064E8 ; 4.054547250167185E7 ; 1.2811836219215271E10 ; 0.0
73 ; 668189.3636520462 ; 2.0065688892845932E8 ; 4.121240231576473E7 ; 1.3012487782680632E10 ; 0.0
74 ; 668766.7989318225 ; 2.0066221079141432E8 ; 4.1880591679416776E7 ; 1.321314467160909E10 ; 0.0
75 ; 669454.0784621937 ; 2.0066752881413543E8 ; 4.25493584783486E7 ; 1.3413806882400505E10 ; 0.0
76 ; 670364.0813986717 ; 2.0067284276461992E8 ; 4.321881255681079E7 ; 1.361447441121464E10 ; 0.0
77 ; 672059.2443844073 ; 2.0067815241838956E8 ; 4.388917663820946E7 ; 1.381514725397926E10 ; 0.0
78 ; 670145.210327768 ; 2.0068345755797443E8 ; 4.456123588259387E7 ; 1.401582540639765E10 ; 0.0
79 ; 671859.6472268451 ; 2.006887579724395E8 ; 4.523138109292164E7 ; 1.4216508863955624E10 ; 0.0
80 ; 670512.4538685877 ; 2.0069405345694965E8 ; 4.5903240740148485E7 ; 1.4417197621928062E10 ; 0.0
81 ; 672538.9829937854 ; 2.0069934381236997E8 ; 4.6573753194017075E7 ; 1.4617891675385012E10 ; 0.0
82 ; 670785.301494749 ; 2.0070462884489757E8 ; 4.7246292177010864E7 ; 1.4818591019197382E10 ; 0.0
83 ; 671609.9937317905 ; 2.007099083657227E8 ; 4.791707747850561E7 ; 1.501929564804228E10 ; 0.0
84 ; 671493.2886943992 ; 2.0071518219071576E8 ; 4.85886874722374E7 ; 1.5220005556408003E10 ; 0.0
85 ; 670328.359560994 ; 2.007204501401388E8 ; 4.92601807609318E7 ; 1.5420720738598719E10 ; 0.0
86 ; 669478.3253910572 ; 2.007257120383786E8 ; 4.993050912049279E7 ; 1.5621441188738857E10 ; 0.0
87 ; 670063.7197721602 ; 2.0073096771369997E8 ; 5.059998744588385E7 ; 1.5822166900777235E10 ; 0.0
88 ; 670551.5816152182 ; 2.0073621699801716E8 ; 5.127005116565601E7 ; 1.6022897868490934E10 ; 0.0
89 ; 671403.3221603415 ; 2.007414597266824E8 ; 5.1940602747271225E7 ; 1.622363408548895E10 ; 0.0
90 ; 670985.1134524712 ; 2.0074669573828942E8 ; 5.2612006069431566E7 ; 1.6424375545215633E10 ; 0.0
91 ; 669286.1816134619 ; 2.0075192487449136E8 ; 5.328299118288404E7 ; 1.6625122240953922E10 ; 0.0
92 ; 670297.3771824375 ; 2.007571469798315E8 ; 5.39522773644975E7 ; 1.6825874165828413E10 ; 0.0
93 ; 670632.9359193842 ; 2.0076236190158582E8 ; 5.462257474167994E7 ; 1.7026631312808245E10 ; 0.0
94 ; 669970.7267302497 ; 2.0076756948961678E8 ; 5.529320767759932E7 ; 1.722739367470983E10 ; 0.0
95 ; 669720.8472366178 ; 2.0077276959623697E8 ; 5.596317840432957E7 ; 1.7428161244199448E10 ; 0.0
96 ; 670039.1906434532 ; 2.0077796207608214E8 ; 5.663289925156619E7 ; 1.7628934013795685E10 ; 0.0
97 ; 668663.472778141 ; 2.0078314678599277E8 ; 5.730293844220964E7 ; 1.7829711975871765E10 ; 0.0
98 ; 669568.1155400005 ; 2.0078832358490363E8 ; 5.797160191498778E7 ; 1.8030495122657757E10 ; 0.0
99 ; 667372.6272940778 ; 2.007934923337406E8 ; 5.864117003052778E7 ; 1.823128344624266E10 ; 0.0
100 ; 668087.6001245542 ; 2.0079865289532435E8 ; 5.930854265782186E7 ; 1.84320769385764E10 ; 0.0
101 ; 666718.4389587147 ; 2.0080380513428026E8 ; 5.997663025794641E7 ; 1.8632875591471725E10 ; 0.0
102 ; 665580.5490875789 ; 2.0080894891695407E8 ; 6.064334869690512E7 ; 1.8833679396606007E10 ; 0.0
103 ; 665995.9500566411 ; 2.008140841113331E8 ; 6.13089292459927E7 ; 1.903448834552296E10 ; 0.0
104 ; 667472.2975049936 ; 2.008192105869722E8 ; 6.197492519604934E7 ; 1.9235302429634293E10 ; 0.0
105 ; 664191.0800580253 ; 2.0082432821492472E8 ; 6.264239749355433E7 ; 1.9436121640221264E10 ; 0.0
106 ; 665097.3032671514 ; 2.0082943686767736E8 ; 6.3306588573612355E7 ; 1.9636945968436188E10 ; 0.0
107 ; 665385.434216112 ; 2.0083453641908953E8 ; 6.3971685876879506E7 ; 1.9837775405303864E10 ; 0.0
108 ; 664451.7049134482 ; 2.0083962674433592E8 ; 6.463707131109562E7 ; 2.0038609941722954E10 ; 0.0
109 ; 664385.8275695549 ; 2.0084470771985298E8 ; 6.530152301600906E7 ; 2.023944956846729E10 ; 0.0
110 ; 663474.5052224385 ; 2.0084977922328842E8 ; 6.5965908843578614E7 ; 2.044029427618714E10 ; 0.0
111 ; 662335.2841846625 ; 2.0085484113345373E8 ; 6.6629383348801054E7 ; 2.064114405541043E10 ; 0.0
112 ; 661860.7702345399 ; 2.0085989333027977E8 ; 6.729171863298571E7 ; 2.0841998896543884E10 ; 0.0
113 ; 661998.2704209231 ; 2.008649356947746E8 ; 6.795357940322025E7 ; 2.1042858789874165E10 ; 0.0
114 ; 660311.1327442348 ; 2.0086996810898408E8 ; 6.861557767364118E7 ; 2.124372372556894E10 ; 0.0
115 ; 660627.992338341 ; 2.0087499045595476E8 ; 6.927588880638541E7 ; 2.1444593693677925E10 ; 0.0
116 ; 661575.747662176 ; 2.0088000261969864E8 ; 6.993651679872376E7 ; 2.164546868413388E10 ; 0.0
117 ; 660080.5337989747 ; 2.0088500448516032E8 ; 7.059809254638593E7 ; 2.184634868675358E10 ; 0.0
118 ; 657609.9559848242 ; 2.0088999593818584E8 ; 7.12581730801849E7 ; 2.204723369123874E10 ; 0.0
119 ; 658101.5789222409 ; 2.008949768654933E8 ; 7.191578303616974E7 ; 2.2248123687176926E10 ; 0.0
120 ; 657766.6507381785 ; 2.0089994715464512E8 ; 7.257388461509198E7 ; 2.244901866404242E10 ; 0.0
121 ; 657284.4399134606 ; 2.0090490669402197E8 ; 7.323165126583016E7 ; 2.2649918611197063E10 ; 0.0
122 ; 656272.6797134582 ; 2.0090985537279812E8 ; 7.388893570574363E7 ; 2.2850823517891087E10 ; 0.0
123 ; 653840.4343644105 ; 2.00914793080918E8 ; 7.454520838545708E7 ; 2.3051733373263885E10 ; 0.0
124 ; 654241.6329669242 ; 2.0091971970907435E8 ; 7.519904881982149E7 ; 2.3252648166344803E10 ; 0.0
125 ; 652367.5032946272 ; 2.0092463514868736E8 ; 7.585329045278841E7 ; 2.345356788605388E10 ; 0.0
126 ; 651940.7110009358 ; 2.0092953929188493E8 ; 7.650565795608304E7 ; 2.3654492521202568E10 ; 0.0
127 ; 650048.8494345305 ; 2.0093443203148425E8 ; 7.715759866708398E7 ; 2.3855422060494453E10 ; 0.0
128 ; 651680.8080851426 ; 2.0093931326097414E8 ; 7.78076475165185E7 ; 2.4056356492525936E10 ; 0.0
129 ; 649820.6767384007 ; 2.0094418287449843E8 ; 7.845932832460365E7 ; 2.425729580578691E10 ; 0.0
130 ; 648010.107918296 ; 2.009490407668403E8 ; 7.910914900134204E7 ; 2.445823998866141E10 ; 0.0
131 ; 646777.3865497916 ; 2.009538868334074E8 ; 7.975715910926034E7 ; 2.4659189029428253E10 ; 0.0
132 ; 646663.3928004311 ; 2.0095872097021776E8 ; 8.040393649581012E7 ; 2.486014291626166E10 ; 0.0
133 ; 645388.8186304014 ; 2.0096354307388648E8 ; 8.105059988861056E7 ; 2.506110163723188E10 ; 0.0
134 ; 641552.0922594704 ; 2.0096835304161316E8 ; 8.169598870724095E7 ; 2.5262065180305767E10 ; 0.0
135 ; 641476.9256861741 ; 2.0097315077116996E8 ; 8.233754079950042E7 ; 2.546303353334738E10 ; 0.0
136 ; 639634.9720835745 ; 2.0097793616089034E8 ; 8.29790177251866E7 ; 2.5664006684118553E10 ; 0.0
137 ; 636501.3772127258 ; 2.0098270910965833E8 ; 8.361865269727017E7 ; 2.586498462027944E10 ; 0.0
138 ; 634500.0150468916 ; 2.0098746951689848E8 ; 8.42551540744829E7 ; 2.60659673293891E10 ; 0.0
139 ; 633066.0899404788 ; 2.0099221728256613E8 ; 8.48896540895298E7 ; 2.6266954798906E10 ; 0.0
140 ; 631508.2911282956 ; 2.009969523071386E8 ; 8.552272017947027E7 ; 2.6467947016188564E10 ; 0.0
141 ; 628814.5009494103 ; 2.0100167449160635E8 ; 8.615422847059856E7 ; 2.6668943968495705E10 ; 0.0
142 ; 626667.8653504817 ; 2.01006383737465E8 ; 8.678304297154798E7 ; 2.6869945642987312E10 ; 0.0
143 ; 627366.8110191158 ; 2.0101107994670758E8 ; 8.740971083689846E7 ; 2.7070952026724777E10 ; 0.0
144 ; 622396.2694270499 ; 2.010157630218173E8 ; 8.803707764791758E7 ; 2.7271963106671486E10 ; 0.0
145 ; 622934.1454840201 ; 2.0102043286576054E8 ; 8.865947391734463E7 ; 2.7472978869693302E10 ; 0.0
146 ; 621713.6909948537 ; 2.0102508938198048E8 ; 8.928240806282865E7 ; 2.7673999302559063E10 ; 0.0
147 ; 621447.8473414277 ; 2.010297324743908E8 ; 8.99041217538235E7 ; 2.7875024391941044E10 ; 0.0
148 ; 618868.602672272 ; 2.0103436204736996E8 ; 9.052556960116494E7 ; 2.8076054124415436E10 ; 0.0
149 ; 619435.2087248927 ; 2.0103897800575545E8 ; 9.114443820383722E7 ; 2.8277088486462807E10 ; 0.0
150 ; 618826.6012483878 ; 2.010435802548389E8 ; 9.17638734125621E7 ; 2.8478127464468563E10 ; 0.0
151 ; 617135.2541001497 ; 2.0104816870036086E8 ; 9.238270001381049E7 ; 2.86791710447234E10 ; 0.0
152 ; 616467.4427215795 ; 2.0105274324850622E8 ; 9.299983526791063E7 ; 2.888021921342376E10 ; 0.0
153 ; 616702.7096139512 ; 2.0105730380589983E8 ; 9.36163027106322E7 ; 2.9081271956672264E10 ; 0.0
154 ; 613164.2213886253 ; 2.0106185027960235E8 ; 9.423300542024615E7 ; 2.9282329260478165E10 ; 0.0
155 ; 613627.5761932363 ; 2.0106638257710624E8 ; 9.484616964163478E7 ; 2.9483391110757767E10 ; 0.0
156 ; 611964.3436045587 ; 2.0107090060633212E8 ; 9.545979721782802E7 ; 2.9684457493334873E10 ; 0.0
157 ; 612492.2563114516 ; 2.010754042756252E8 ; 9.607176156143259E7 ; 2.9885528393941204E10 ; 0.0
158 ; 610812.685104874 ; 2.0107989349375203E8 ; 9.668425381774403E7 ; 3.0086603798216827E10 ; 0.0
159 ; 610292.1921308424 ; 2.010843681698975E8 ; 9.729506650284891E7 ; 3.028768369171058E10 ; 0.0
160 ; 609448.4987596466 ; 2.010888282136616E8 ; 9.790535869497976E7 ; 3.0488768059880478E10 ; 0.0
161 ; 607527.9955260359 ; 2.010932735350571E8 ; 9.85148071937394E7 ; 3.068985688809414E10 ; 0.0
162 ; 607088.6014511118 ; 2.0109770404450658E8 ; 9.912233518926543E7 ; 3.0890950161629196E10 ; 0.0
163 ; 606182.2877517844 ; 2.011021196528402E8 ; 9.972942379071654E7 ; 3.1092047865673702E10 ; 0.0
164 ; 605434.0578421948 ; 2.0110652027129343E8 ; 1.0033560607846832E8 ; 3.129314998532654E10 ; 0.0
165 ; 604839.9684665755 ; 2.0111090581150484E8 ; 1.0094104013631052E8 ; 3.1494256505597836E10 ; 0.0
166 ; 602565.5311796615 ; 2.0111527618551412E8 ; 1.015458801047771E8 ; 3.169536741140934E10 ; 0.0
167 ; 602054.7958875422 ; 2.011196313057603E8 ; 1.0214844563595676E8 ; 3.1896482687594852E10 ; 0.0
168 ; 600785.3190929395 ; 2.0112397108507985E8 ; 1.0275050043184431E8 ; 3.209760231890061E10 ; 0.0
169 ; 601854.2271774957 ; 2.011282954367052E8 ; 1.0335128575093725E8 ; 3.229872628998569E10 ; 0.0
170 ; 600439.0598030835 ; 2.011326042742632E8 ; 1.0395313997811475E8 ; 3.2499854585422398E10 ; 0.0
171 ; 598401.0147233998 ; 2.011368975117737E8 ; 1.0455357903791784E8 ; 3.270098718969666E10 ; 0.0
172 ; 597144.4986069158 ; 2.011411750636482E8 ; 1.0515198005264124E8 ; 3.290212408720843E10 ; 0.0
173 ; 596838.7101845214 ; 2.0114543684468874E8 ; 1.0574912455124816E8 ; 3.310326526227208E10 ; 0.0
174 ; 595772.8814033036 ; 2.0114968277008677E8 ; 1.0634596326143268E8 ; 3.3304410699116768E10 ; 0.0
175 ; 596251.3542654058 ; 2.0115391275542212E8 ; 1.0694173614283597E8 ; 3.3505560381886856E10 ; 0.0
176 ; 594786.6487284866 ; 2.0115812671666208E8 ; 1.0753798749710138E8 ; 3.3706714294642277E10 ; 0.0
177 ; 594850.5637998121 ; 2.0116232457016057E8 ; 1.0813277414582987E8 ; 3.390787242135894E10 ; 0.0
178 ; 593907.6506799441 ; 2.011665062326573E8 ; 1.0872762470962968E8 ; 3.41090347459291E10 ; 0.0
179 ; 593019.2513869375 ; 2.0117067162127727E8 ; 1.0932153236030963E8 ; 3.431020125216176E10 ; 0.0
180 ; 593075.7294929479 ; 2.0117482065352988E8 ; 1.0991455161169657E8 ; 3.4511371923783035E10 ; 0.0
181 ; 593861.7188336615 ; 2.0117895324730855E8 ; 1.1050762734118952E8 ; 3.471254674443656E10 ; 0.0
182 ; 591276.050387149 ; 2.0118306932089028E8 ; 1.1110148906002317E8 ; 3.491372569768387E10 ; 0.0
183 ; 590736.269182205 ; 2.01187168792935E8 ; 1.1169276511041032E8 ; 3.511490876700476E10 ; 0.0
184 ; 591501.8185998976 ; 2.0119125158248553E8 ; 1.1228350137959252E8 ; 3.53160959357977E10 ; 0.0
185 ; 589410.729010039 ; 2.0119531760896695E8 ; 1.1287500319819242E8 ; 3.551728718738019E10 ; 0.0
186 ; 587614.0793422309 ; 2.0119936679218656E8 ; 1.1346441392720246E8 ; 3.571848250498916E10 ; 0.0
187 ; 589530.7860309358 ; 2.012033990523336E8 ; 1.140520280065447E8 ; 3.591968187178134E10 ; 0.0
188 ; 589291.1337717776 ; 2.0120741430997914E8 ; 1.1464155879257563E8 ; 3.612088527083367E10 ; 0.0
189 ; 588179.4668985062 ; 2.0121141248607594E8 ; 1.152308499263474E8 ; 3.6322092685143654E10 ; 0.0
190 ; 587196.7475458808 ; 2.0121539350195843E8 ; 1.158190293932459E8 ; 3.652330409762973E10 ; 0.0
191 ; 585572.7309708257 ; 2.0121935727934262E8 ; 1.1640622614079179E8 ; 3.672451949113169E10 ; 0.0
192 ; 585259.7447694694 ; 2.012233037403263E8 ; 1.1699179887176262E8 ; 3.692573884841103E10 ; 0.0
193 ; 586675.4063202799 ; 2.0122723280738884E8 ; 1.1757705861653209E8 ; 3.712696215215136E10 ; 0.0
194 ; 583968.1269516764 ; 2.012311444033916E8 ; 1.1816373402285236E8 ; 3.732818938495875E10 ; 0.0
195 ; 583562.2484471563 ; 2.0123503845157787E8 ; 1.1874770214980404E8 ; 3.752942052936214E10 ; 0.0
196 ; 584715.9734065728 ; 2.012389148755731E8 ; 1.1933126439825119E8 ; 3.773065556781371E10 ; 0.0
197 ; 583352.3157837752 ; 2.0124277359938514E8 ; 1.1991598037165776E8 ; 3.7931894482689285E10 ; 0.0
198 ; 584490.1030282232 ; 2.012466145474045E8 ; 1.2049933268744153E8 ; 3.813313725628867E10 ; 0.0
199 ; 581920.0252827549 ; 2.0125043764440447E8 ; 1.2108382279046975E8 ; 3.8334383870836075E10 ; 0.0
200 ; 581318.9401302615 ; 2.012542428155417E8 ; 1.216657428157525E8 ; 3.853563430848048E10 ; 0.0
201 ; 578385.9173308798 ; 2.0125802998635626E8 ; 1.2224706175588277E8 ; 3.873688855129602E10 ; 0.0
