CSV File for the City 6 on Day 151
1 - Minute m 
2 - Power Consumed at minute m 
3 - Power Produced at minute m 
4 - Energy Consumed since the beginning of the day 
5 - Energy Produced since the beginning of the day 
6 - Energy Lost since the beginning of the day on lines starting from the city
 
0 ; 6564041.468919521 ; 1.0612897906600007E8 ; 0.0 ; 0.0 ; 0.0
1 ; 6566351.869460888 ; 1.0627988212907279E8 ; 6564041.468919521 ; 1.0612897906600007E8 ; 0.0
2 ; 6572396.830936918 ; 1.0673977594391021E8 ; 1.313039333838041E7 ; 2.1240886119507286E8 ; 0.0
3 ; 6579726.023308513 ; 1.0750866409589678E8 ; 1.9702790169317327E7 ; 3.191486371389831E8 ; 0.0
4 ; 6590218.595355865 ; 1.085865497965635E8 ; 2.628251619262584E7 ; 4.2665730123487985E8 ; 0.0
5 ; 6606082.404435243 ; 1.0997343586634088E8 ; 3.2872734787981704E7 ; 5.3524385103144336E8 ; 0.0
6 ; 6623731.4918856565 ; 1.1166932471913102E8 ; 3.947881719241695E7 ; 6.452172868977842E8 ; 0.0
7 ; 6656239.9658026565 ; 1.1367421834889525E8 ; 4.6102548684302606E7 ; 7.568866116169152E8 ; 0.0
8 ; 6701483.8781039 ; 1.1598811831842834E8 ; 5.275878865010526E7 ; 8.705608299658105E8 ; 0.0
9 ; 6778090.63742627 ; 1.1861102575046754E8 ; 5.946027252820916E7 ; 9.865489482842388E8 ; 0.0
10 ; 6893509.568559899 ; 1.215429413212552E8 ; 6.623836316563543E7 ; 1.1051599740347064E9 ; 0.0
11 ; 7086721.928609196 ; 1.247838652566404E8 ; 7.313187273419532E7 ; 1.2267029153559616E9 ; 0.0
12 ; 7395504.71008888 ; 1.2833379733077404E8 ; 8.021859466280451E7 ; 1.351486780612602E9 ; 0.0
13 ; 7694093.312468057 ; 1.3219273686741376E8 ; 8.76140993728934E7 ; 1.479820577943376E9 ; 0.0
14 ; 7724047.885447953 ; 1.363606827438224E8 ; 9.530819268536144E7 ; 1.6120133148107898E9 ; 0.0
15 ; 7732033.215397781 ; 1.4083763339720505E8 ; 1.030322405708094E8 ; 1.7483739975546122E9 ; 0.0
16 ; 7737789.708183011 ; 1.4562358683360055E8 ; 1.1076427378620717E8 ; 1.8892116309518173E9 ; 0.0
17 ; 7748967.557409799 ; 1.5071854063910666E8 ; 1.1850206349439017E8 ; 2.0348352177854178E9 ; 0.0
18 ; 7758709.461911144 ; 1.5612249199329293E8 ; 1.2625103105179997E8 ; 2.1855537584245243E9 ; 0.0
19 ; 7765906.893530689 ; 1.6183543768462834E8 ; 1.3400974051371111E8 ; 2.341676250417817E9 ; 0.0
20 ; 7773631.30776929 ; 1.6785737412772843E8 ; 1.417756474072418E8 ; 2.5035116881024456E9 ; 0.0
21 ; 7781154.783547834 ; 1.7418829738221142E8 ; 1.495492787150111E8 ; 2.671369062230174E9 ; 0.0
22 ; 7792776.468134346 ; 1.808282031729386E8 ; 1.5733043349855894E8 ; 2.8455573596123853E9 ; 0.0
23 ; 7801083.994510022 ; 1.8777708691140616E8 ; 1.6512320996669328E8 ; 3.026385562785324E9 ; 0.0
24 ; 7808354.207084831 ; 1.950349437180527E8 ; 1.729242939612033E8 ; 3.21416264969673E9 ; 0.0
25 ; 7817365.782603572 ; 2.012898093434305E8 ; 1.8073264816828814E8 ; 3.409197593414783E9 ; 0.0
26 ; 7827949.9726260565 ; 2.0129522622853836E8 ; 1.885500139508917E8 ; 3.6104874027582135E9 ; 0.0
27 ; 7836193.865604792 ; 2.0130095805338886E8 ; 1.9637796392351776E8 ; 3.811782628986752E9 ; 0.0
28 ; 7843129.983245439 ; 2.0130699900746056E8 ; 2.0421415778912255E8 ; 4.013083587040141E9 ; 0.0
29 ; 7852995.669091167 ; 2.0131334310644206E8 ; 2.1205728777236798E8 ; 4.2143905860476017E9 ; 0.0
30 ; 7856849.978756935 ; 2.0131998421536908E8 ; 2.1991028344145915E8 ; 4.415703929154044E9 ; 0.0
31 ; 7862935.818011046 ; 2.0132691607123676E8 ; 2.2776713342021608E8 ; 4.617023913369413E9 ; 0.0
32 ; 7874158.699050222 ; 2.0133413230494314E8 ; 2.3563006923822713E8 ; 4.81835082944065E9 ; 0.0
33 ; 7880805.685502157 ; 2.0134162646243894E8 ; 2.4350422793727735E8 ; 5.019684961745593E9 ; 0.0
34 ; 7887954.162827256 ; 2.0134939202497828E8 ; 2.513850336227795E8 ; 5.221026588208032E9 ; 0.0
35 ; 7889565.992627736 ; 2.0135742242838442E8 ; 2.5927298778560674E8 ; 5.42237598023301E9 ; 0.0
36 ; 7899623.340614065 ; 2.0136571108126238E8 ; 2.6716255377823448E8 ; 5.623733402661395E9 ; 0.0
37 ; 7904152.096164456 ; 2.013742513821093E8 ; 2.7506217711884856E8 ; 5.825099113742658E9 ; 0.0
38 ; 7906349.040485104 ; 2.0138303673528787E8 ; 2.82966329215013E8 ; 6.026473365124767E9 ; 0.0
39 ; 7913879.253276167 ; 2.0139206056584516E8 ; 2.908726782554981E8 ; 6.227856401860055E9 ; 0.0
40 ; 7920161.987285314 ; 2.0140131633317173E8 ; 2.987865575087743E8 ; 6.4292484624259E9 ; 0.0
41 ; 7923533.086646102 ; 2.0141079754350832E8 ; 3.067067194960596E8 ; 6.630649778759072E9 ; 0.0
42 ; 7925994.278952689 ; 2.0142049776131836E8 ; 3.146302525827057E8 ; 6.832060576302581E9 ; 0.0
43 ; 7928789.893117215 ; 2.0143041061955315E8 ; 3.225562468616584E8 ; 7.033481074063899E9 ; 0.0
44 ; 7930893.791484468 ; 2.0144052982884493E8 ; 3.304850367547756E8 ; 7.234911484683453E9 ; 0.0
45 ; 7932727.780956873 ; 2.014508491856684E8 ; 3.3841593054626006E8 ; 7.436352014512298E9 ; 0.0
46 ; 7935046.180080233 ; 2.0146136257951754E8 ; 3.463486583272169E8 ; 7.637802863697966E9 ; 0.0
47 ; 7935757.735141251 ; 2.014720639991467E8 ; 3.5428370450729716E8 ; 7.839264226277483E9 ; 0.0
48 ; 7938806.942795079 ; 2.0148294753792953E8 ; 3.6221946224243844E8 ; 8.040736290276629E9 ; 0.0
49 ; 7931420.190950598 ; 2.01494007398389E8 ; 3.7015826918523353E8 ; 8.242219237814559E9 ; 0.0
50 ; 7934334.481490787 ; 2.0150523789595467E8 ; 3.780896893761841E8 ; 8.443713245212948E9 ; 0.0
51 ; 7932006.447572685 ; 2.0151663346200135E8 ; 3.860240238576749E8 ; 8.645218483108902E9 ; 0.0
52 ; 7930251.808299339 ; 2.0152818864622518E8 ; 3.939560303052476E8 ; 8.846735116570904E9 ; 0.0
53 ; 7928604.145723934 ; 2.0153989811840943E8 ; 4.0188628211354697E8 ; 9.048263305217129E9 ; 0.0
54 ; 7930255.446157456 ; 2.0155175666963327E8 ; 4.098148862592709E8 ; 9.249803203335539E9 ; 0.0
55 ; 7922823.761654108 ; 2.0156375921297327E8 ; 4.1774514170542836E8 ; 9.451354960005173E9 ; 0.0
56 ; 7922223.420208615 ; 2.0157590078374574E8 ; 4.2566796546708244E8 ; 9.652918719218145E9 ; 0.0
57 ; 7921813.931103676 ; 2.015881765393362E8 ; 4.335901888872911E8 ; 9.85449462000189E9 ; 0.0
58 ; 7918852.543345852 ; 2.0160058175865886E8 ; 4.415120028183947E8 ; 1.0056082796541225E10 ; 0.0
59 ; 7920689.033218666 ; 2.016131118412872E8 ; 4.494308553617406E8 ; 1.0257683378299885E10 ; 0.0
60 ; 7915732.250884909 ; 2.01625762306294E8 ; 4.573515443949593E8 ; 1.0459296490141172E10 ; 0.0
61 ; 7912986.096917437 ; 2.0163852879083586E8 ; 4.6526727664584416E8 ; 1.0660922252447466E10 ; 0.0
62 ; 7911929.342860651 ; 2.0165140704851592E8 ; 4.731802627427616E8 ; 1.0862560781238302E10 ; 0.0
63 ; 7908687.833467355 ; 2.016643929475549E8 ; 4.8109219208562225E8 ; 1.1064212188286818E10 ; 0.0
64 ; 7907064.471873213 ; 2.0167748246879837E8 ; 4.890008799190896E8 ; 1.1265876581234373E10 ; 0.0
65 ; 7904837.130535996 ; 2.0169067170358664E8 ; 4.9690794439096284E8 ; 1.146755406370317E10 ; 0.0
66 ; 7903650.930423853 ; 2.017039568515098E8 ; 5.0481278152149886E8 ; 1.1669244735406757E10 ; 0.0
67 ; 7896914.68773461 ; 2.017173342180701E8 ; 5.127164324519227E8 ; 1.1870948692258266E10 ; 0.0
68 ; 7891029.241757558 ; 2.0173080021227017E8 ; 5.206133471396573E8 ; 1.2072666026476337E10 ; 0.0
69 ; 7889317.604626002 ; 2.017443513441455E8 ; 5.285043763814149E8 ; 1.2274396826688608E10 ; 0.0
70 ; 7888661.142648695 ; 2.0175798422225568E8 ; 5.363936939860409E8 ; 1.2476141178032753E10 ; 0.0
71 ; 7881138.448807081 ; 2.0177169555114928E8 ; 5.442823551286895E8 ; 1.2677899162255009E10 ; 0.0
72 ; 7882524.2879070835 ; 2.0178548212881452E8 ; 5.521634935774966E8 ; 1.2879670857806158E10 ; 0.0
73 ; 7879302.154733345 ; 2.0179934084412646E8 ; 5.600460178654038E8 ; 1.3081456339934973E10 ; 0.0
74 ; 7875073.729297177 ; 2.0181326867430133E8 ; 5.679253200201371E8 ; 1.3283255680779099E10 ; 0.0
75 ; 7870690.501513267 ; 2.0182726268236536E8 ; 5.758003937494342E8 ; 1.34850689494534E10 ; 0.0
76 ; 7867499.3394928 ; 2.0184132001464662E8 ; 5.836710842509475E8 ; 1.3686896212135765E10 ; 0.0
77 ; 7866326.543595397 ; 2.0185543789829588E8 ; 5.915385835904403E8 ; 1.3888737532150412E10 ; 0.0
78 ; 7852176.746504253 ; 2.0186961363884187E8 ; 5.994049101340357E8 ; 1.4090592970048708E10 ; 0.0
79 ; 7848731.657387178 ; 2.0188384461778602E8 ; 6.0725708688054E8 ; 1.429246258368755E10 ; 0.0
80 ; 7842196.334509405 ; 2.0189812829024053E8 ; 6.151058185379272E8 ; 1.4494346428305336E10 ; 0.0
81 ; 7831129.322466523 ; 2.0191246218261307E8 ; 6.229480148724365E8 ; 1.4696244556595577E10 ; 0.0
82 ; 7821930.450601626 ; 2.0192684389034095E8 ; 6.30779144194903E8 ; 1.489815701877819E10 ; 0.0
83 ; 7815432.196005765 ; 2.0194127107567656E8 ; 6.386010746455046E8 ; 1.5100083862668531E10 ; 0.0
84 ; 7806403.368989379 ; 2.019557414655264E8 ; 6.464165068415104E8 ; 1.5302025133744207E10 ; 0.0
85 ; 7798075.408023209 ; 2.019702528493445E8 ; 6.542229102104998E8 ; 1.5503980875209734E10 ; 0.0
86 ; 7791180.335786056 ; 2.0198480307708117E8 ; 6.62020985618523E8 ; 1.5705951128059078E10 ; 0.0
87 ; 7784335.768351749 ; 2.0199939005718803E8 ; 6.698121659543091E8 ; 1.590793593113616E10 ; 0.0
88 ; 7773128.308618751 ; 2.020140117546789E8 ; 6.775965017226609E8 ; 1.6109935321193348E10 ; 0.0
89 ; 7764455.848497805 ; 2.0202866618924734E8 ; 6.853696300312797E8 ; 1.6311949332948027E10 ; 0.0
90 ; 7758712.737757882 ; 2.0204335143343997E8 ; 6.931340858797774E8 ; 1.6513977999137274E10 ; 0.0
91 ; 7742173.787218565 ; 2.0205806561088553E8 ; 7.008927986175354E8 ; 1.6716021350570713E10 ; 0.0
92 ; 7736358.838531298 ; 2.0207280689457896E8 ; 7.086349724047539E8 ; 1.6918079416181599E10 ; 0.0
93 ; 7726808.171973051 ; 2.0208757350522003E8 ; 7.163713312432852E8 ; 1.7120152223076178E10 ; 0.0
94 ; 7717713.61209371 ; 2.0210236370960495E8 ; 7.240981394152583E8 ; 1.7322239796581398E10 ; 0.0
95 ; 7711661.500163664 ; 2.021171758190712E8 ; 7.31815853027352E8 ; 1.7524342160291004E10 ; 0.0
96 ; 7703357.493006625 ; 2.0213200818799323E8 ; 7.395275145275156E8 ; 1.7726459336110077E10 ; 0.0
97 ; 7690109.976991646 ; 2.0214685921232906E8 ; 7.472308720205222E8 ; 1.792859134429807E10 ; 0.0
98 ; 7682415.686590237 ; 2.021617273282158E8 ; 7.549209819975139E8 ; 1.81307382035104E10 ; 0.0
99 ; 7673904.163763071 ; 2.0217661101061344E8 ; 7.626033976841041E8 ; 1.8332899930838615E10 ; 0.0
100 ; 7665291.87618345 ; 2.0219150877199525E8 ; 7.702773018478671E8 ; 1.8535076541849228E10 ; 0.0
101 ; 7650714.857419934 ; 2.0220641916108403E8 ; 7.779425937240505E8 ; 1.8737268050621223E10 ; 0.0
102 ; 7644372.186948779 ; 2.0222134076163223E8 ; 7.855933085814705E8 ; 1.8939474469782307E10 ; 0.0
103 ; 7629501.619070032 ; 2.0223627219124562E8 ; 7.932376807684193E8 ; 1.9141695810543938E10 ; 0.0
104 ; 7623440.860469001 ; 2.0225121210024807E8 ; 8.008671823874893E8 ; 1.9343932082735184E10 ; 0.0
105 ; 7610469.335962539 ; 2.022661591705874E8 ; 8.084906232479583E8 ; 1.954618329483543E10 ; 0.0
106 ; 7601629.59460448 ; 2.0228111211477986E8 ; 8.161010925839208E8 ; 1.9748449454006016E10 ; 0.0
107 ; 7589866.822614171 ; 2.0229606967489302E8 ; 8.237027221785253E8 ; 1.9950730566120796E10 ; 0.0
108 ; 7582842.603282412 ; 2.02311030621565E8 ; 8.312925890011395E8 ; 2.015302663579569E10 ; 0.0
109 ; 7570974.648380323 ; 2.0232599375305942E8 ; 8.38875431604422E8 ; 2.0355337666417255E10 ; 0.0
110 ; 7560149.1364608575 ; 2.0234095789435437E8 ; 8.464464062528023E8 ; 2.0557663660170315E10 ; 0.0
111 ; 7549294.502728752 ; 2.0235592189626488E8 ; 8.540065553892632E8 ; 2.076000461806467E10 ; 0.0
112 ; 7537137.0429674145 ; 2.02370884634597E8 ; 8.615558498919919E8 ; 2.0962360539960934E10 ; 0.0
113 ; 7526909.549191311 ; 2.0238584500933293E8 ; 8.690929869349593E8 ; 2.116473142459553E10 ; 0.0
114 ; 7517359.351071897 ; 2.0240080194384578E8 ; 8.766198964841506E8 ; 2.1367117269604866E10 ; 0.0
115 ; 7499994.398385746 ; 2.0241575438414323E8 ; 8.841372558352226E8 ; 2.1569518071548714E10 ; 0.0
116 ; 7495448.253289644 ; 2.0243070129813868E8 ; 8.916372502336084E8 ; 2.1771933825932858E10 ; 0.0
117 ; 7484200.78691732 ; 2.024456416749491E8 ; 8.991326984868981E8 ; 2.1974364527230995E10 ; 0.0
118 ; 7468728.127855698 ; 2.0246057452421865E8 ; 9.066168992738154E8 ; 2.2176810168905945E10 ; 0.0
119 ; 7457764.462856433 ; 2.02475498875467E8 ; 9.14085627401671E8 ; 2.2379270743430164E10 ; 0.0
120 ; 7444949.670376947 ; 2.0249041377746153E8 ; 9.215433918645275E8 ; 2.258174624230563E10 ; 0.0
121 ; 7435849.53750415 ; 2.025053182976124E8 ; 9.289883415349044E8 ; 2.278423665608309E10 ; 0.0
122 ; 7427029.072562642 ; 2.0252021152138987E8 ; 9.364241910724086E8 ; 2.2986741974380703E10 ; 0.0
123 ; 7412711.013777903 ; 2.0253509255176282E8 ; 9.438512201449713E8 ; 2.3189262185902092E10 ; 0.0
124 ; 7397857.740388685 ; 2.0254996050865766E8 ; 9.512639311587491E8 ; 2.3391797278453854E10 ; 0.0
125 ; 7386133.877879327 ; 2.025648145284372E8 ; 9.586617888991377E8 ; 2.3594347238962513E10 ; 0.0
126 ; 7372234.920202313 ; 2.0257965376339823E8 ; 9.660479227770171E8 ; 2.379691205349095E10 ; 0.0
127 ; 7362239.050953189 ; 2.0259447738128752E8 ; 9.734201576972194E8 ; 2.399949170725435E10 ; 0.0
128 ; 7349353.977419004 ; 2.0260928456483537E8 ; 9.807823967481725E8 ; 2.4202086184635635E10 ; 0.0
129 ; 7338526.33084009 ; 2.0262407451130596E8 ; 9.881317507255915E8 ; 2.440469546920047E10 ; 0.0
130 ; 7322076.837960751 ; 2.0263884643206415E8 ; 9.954702770564317E8 ; 2.4607319543711777E10 ; 0.0
131 ; 7305483.44469917 ; 2.0265359955215767E8 ; 1.0027923538943924E9 ; 2.480995839014384E10 ; 0.0
132 ; 7286863.057706685 ; 2.0266833310991463E8 ; 1.0100978373390915E9 ; 2.5012611989696E10 ; 0.0
133 ; 7269325.619982504 ; 2.0268304635655537E8 ; 1.0173847003967983E9 ; 2.5215280322805912E10 ; 0.0
134 ; 7253607.002858554 ; 2.026977385558181E8 ; 1.0246540260167807E9 ; 2.5417963369162468E10 ; 0.0
135 ; 7236701.10779126 ; 2.027124089835984E8 ; 1.0319076330196393E9 ; 2.5620661107718285E10 ; 0.0
136 ; 7222945.686567479 ; 2.0272705692760107E8 ; 1.0391443341274306E9 ; 2.582337351670188E10 ; 0.0
137 ; 7205735.893487047 ; 2.027416816870046E8 ; 1.046367279813998E9 ; 2.6026100573629482E10 ; 0.0
138 ; 7187163.7701237695 ; 2.0275628257213786E8 ; 1.0535730157074851E9 ; 2.6228842255316486E10 ; 0.0
139 ; 7169077.34274447 ; 2.027708589041678E8 ; 1.0607601794776088E9 ; 2.6431598537888626E10 ; 0.0
140 ; 7152662.993524072 ; 2.0278541001479846E8 ; 1.0679292568203533E9 ; 2.6634369396792793E10 ; 0.0
141 ; 7134867.9492366975 ; 2.027999352459806E8 ; 1.0750819198138773E9 ; 2.683715480680759E10 ; 0.0
142 ; 7116716.102183439 ; 2.0281443394963154E8 ; 1.082216787763114E9 ; 2.703995474205357E10 ; 0.0
143 ; 7103215.281426337 ; 2.0282890548736474E8 ; 1.0893335038652973E9 ; 2.72427691760032E10 ; 0.0
144 ; 7082199.135485126 ; 2.0284334923022905E8 ; 1.0964367191467237E9 ; 2.7445598081490566E10 ; 0.0
145 ; 7069121.793921341 ; 2.028577645584569E8 ; 1.103518918282209E9 ; 2.7648441430720795E10 ; 0.0
146 ; 7054694.244219574 ; 2.0287215086122134E8 ; 1.1105880400761302E9 ; 2.785129919527925E10 ; 0.0
147 ; 7042841.332331667 ; 2.0288650753640157E8 ; 1.1176427343203497E9 ; 2.8054171346140472E10 ; 0.0
148 ; 7027272.112425019 ; 2.029008339903565E8 ; 1.1246855756526814E9 ; 2.8257057853676872E10 ; 0.0
149 ; 7016304.757183143 ; 2.0291512963770622E8 ; 1.1317128477651064E9 ; 2.845995868766723E10 ; 0.0
150 ; 7002452.026974743 ; 2.029293939011209E8 ; 1.1387291525222895E9 ; 2.8662873817304935E10 ; 0.0
151 ; 6991915.882484913 ; 2.0294362621111715E8 ; 1.1457316045492642E9 ; 2.8865803211206055E10 ; 0.0
152 ; 6981056.005304185 ; 2.0295782600586116E8 ; 1.152723520431749E9 ; 2.906874683741717E10 ; 0.0
153 ; 6965684.096901677 ; 2.0297199273097864E8 ; 1.1597045764370532E9 ; 2.927170466342303E10 ; 0.0
154 ; 6950302.84237766 ; 2.029861258393712E8 ; 1.1666702605339549E9 ; 2.947467665615401E10 ; 0.0
155 ; 6939942.056427436 ; 2.030002247910392E8 ; 1.1736205633763325E9 ; 2.967766278199338E10 ; 0.0
156 ; 6925654.738786381 ; 2.0301428905291018E8 ; 1.18056050543276E9 ; 2.988066300678442E10 ; 0.0
157 ; 6913945.801646553 ; 2.0302831809867358E8 ; 1.1874861601715465E9 ; 3.008367729583733E10 ; 0.0
158 ; 6901506.560818069 ; 2.030423114086206E8 ; 1.194400105973193E9 ; 3.0286705613936005E10 ; 0.0
159 ; 6890240.087636723 ; 2.0305626846948966E8 ; 1.201301612534011E9 ; 3.0489747925344624E10 ; 0.0
160 ; 6875138.176114255 ; 2.0307018877431718E8 ; 1.2081918526216476E9 ; 3.0692804193814114E10 ; 0.0
161 ; 6857847.388405464 ; 2.0308407182229295E8 ; 1.215066990797762E9 ; 3.0895874382588432E10 ; 0.0
162 ; 6845805.182093876 ; 2.0309791711862075E8 ; 1.2219248381861675E9 ; 3.1098958454410725E10 ; 0.0
163 ; 6831556.360970988 ; 2.0311172417438322E8 ; 1.2287706433682613E9 ; 3.1302056371529346E10 ; 0.0
164 ; 6818433.04036312 ; 2.0312549250641158E8 ; 1.2356021997292323E9 ; 3.150516809570373E10 ; 0.0
165 ; 6804435.653545065 ; 2.0313922163715935E8 ; 1.2424206327695954E9 ; 3.1708293588210144E10 ; 0.0
166 ; 6790738.837627778 ; 2.0315291109458038E8 ; 1.2492250684231405E9 ; 3.1911432809847305E10 ; 0.0
167 ; 6778708.362002071 ; 2.0316656041201094E8 ; 1.2560158072607684E9 ; 3.2114585720941887E10 ; 0.0
168 ; 6765855.859796143 ; 2.0318016912805548E8 ; 1.2627945156227705E9 ; 3.2317752281353897E10 ; 0.0
169 ; 6751409.450085698 ; 2.0319373678647637E8 ; 1.2695603714825666E9 ; 3.2520932450481953E10 ; 0.0
170 ; 6739039.9712299 ; 2.0320726293608698E8 ; 1.2763117809326522E9 ; 3.272412618726843E10 ; 0.0
171 ; 6724500.260897738 ; 2.0322074713064852E8 ; 1.283050820903882E9 ; 3.2927333450204517E10 ; 0.0
172 ; 6708869.605337929 ; 2.0323418892876995E8 ; 1.2897753211647797E9 ; 3.3130554197335167E10 ; 0.0
173 ; 6693929.581672733 ; 2.032475878938113E8 ; 1.2964841907701175E9 ; 3.3333788386263935E10 ; 0.0
174 ; 6685346.21141067 ; 2.0326094359379005E8 ; 1.3031781203517902E9 ; 3.3537035974157745E10 ; 0.0
175 ; 6675838.641850329 ; 2.032742556012906E8 ; 1.309863466563201E9 ; 3.3740296917751534E10 ; 0.0
176 ; 6664852.496869431 ; 2.0328752349337652E8 ; 1.3165393052050512E9 ; 3.3943571173352825E10 ; 0.0
177 ; 6650260.188972679 ; 2.033007468515056E8 ; 1.3232041577019205E9 ; 3.4146858696846203E10 ; 0.0
178 ; 6639775.808243362 ; 2.0331392526144788E8 ; 1.3298544178908932E9 ; 3.435015944369771E10 ; 0.0
179 ; 6631673.929487447 ; 2.033270583132058E8 ; 1.3364941936991365E9 ; 3.455347336895915E10 ; 0.0
180 ; 6620000.275344304 ; 2.0334014560093758E8 ; 1.343125867628624E9 ; 3.475680042727236E10 ; 0.0
181 ; 6606686.405850492 ; 2.0335318672288215E8 ; 1.3497458679039683E9 ; 3.49601405728733E10 ; 0.0
182 ; 6594889.697656108 ; 2.033661812812874E8 ; 1.3563525543098187E9 ; 3.516349375959618E10 ; 0.0
183 ; 6585804.488426652 ; 2.0337912888233986E8 ; 1.362947444007475E9 ; 3.536685994087747E10 ; 0.0
184 ; 6573476.852592713 ; 2.0339202913609716E8 ; 1.3695332484959016E9 ; 3.557023906975981E10 ; 0.0
185 ; 6560372.917268533 ; 2.0340488165642235E8 ; 1.3761067253484943E9 ; 3.577363109889591E10 ; 0.0
186 ; 6548547.087920359 ; 2.034176860609203E8 ; 1.3826670982657628E9 ; 3.597703598055234E10 ; 0.0
187 ; 6541033.928849119 ; 2.0343044197087625E8 ; 1.3892156453536832E9 ; 3.618045366661326E10 ; 0.0
188 ; 6529237.773947393 ; 2.03443149011196E8 ; 1.3957566792825325E9 ; 3.638388410858414E10 ; 0.0
189 ; 6519320.79028226 ; 2.034558068103481E8 ; 1.40228591705648E9 ; 3.658732725759533E10 ; 0.0
190 ; 6507306.930381769 ; 2.0346841500030807E8 ; 1.4088052378467622E9 ; 3.679078306440568E10 ; 0.0
191 ; 6498382.227832824 ; 2.0348097321650386E8 ; 1.415312544777144E9 ; 3.699425147940598E10 ; 0.0
192 ; 6484988.997960252 ; 2.034934810977634E8 ; 1.4218109270049767E9 ; 3.719773245262249E10 ; 0.0
193 ; 6473379.487146686 ; 2.0350593828626359E8 ; 1.428295916002937E9 ; 3.740122593372025E10 ; 0.0
194 ; 6459702.81263022 ; 2.0351834442748094E8 ; 1.4347692954900837E9 ; 3.7604731872006516E10 ; 0.0
195 ; 6449986.258865729 ; 2.0353069917014357E8 ; 1.4412289983027139E9 ; 3.7808250216434E10 ; 0.0
196 ; 6440415.957548228 ; 2.03543002166185E8 ; 1.4476789845615797E9 ; 3.801178091560414E10 ; 0.0
197 ; 6428855.27876643 ; 2.0355525307069895E8 ; 1.4541194005191278E9 ; 3.8215323917770325E10 ; 0.0
198 ; 6415197.74674351 ; 2.0356745154189578E8 ; 1.4605482557978942E9 ; 3.841887917084103E10 ; 0.0
199 ; 6406505.909968415 ; 2.0357959724106032E8 ; 1.4669634535446377E9 ; 3.862244662238292E10 ; 0.0
200 ; 6396941.634367106 ; 1.8394996890090704E8 ; 1.473369959454606E9 ; 3.882602621962398E10 ; 0.0
201 ; 6381403.91232851 ; 1.5476373576470274E8 ; 1.479766901088973E9 ; 3.900997618852489E10 ; 0.0
