CSV File for the City 1 on Day 216
1 - Minute m 
2 - Power Consumed at minute m 
3 - Power Produced at minute m 
4 - Energy Consumed since the beginning of the day 
5 - Energy Produced since the beginning of the day 
6 - Energy Lost since the beginning of the day on lines starting from the city
 
0 ; 1014867.3992539366 ; 1.0530206093664274E8 ; 0.0 ; 0.0 ; 0.0
1 ; 1036540.8605116336 ; 1.0545408626993603E8 ; 1014867.3992539366 ; 1.0530206093664274E8 ; 0.0
2 ; 1057439.0796548643 ; 1.0591496198432621E8 ; 2051408.25976557 ; 2.1075614720657876E8 ; 0.0
3 ; 1074274.0996016155 ; 1.0668469794741797E8 ; 3108847.339420434 ; 3.16671109190905E8 ; 0.0
4 ; 1102963.518635298 ; 1.0776330351851648E8 ; 4183121.4390220493 ; 4.2335580713832295E8 ; 0.0
5 ; 1130741.6239072448 ; 1.0915078735387594E8 ; 5286084.957657347 ; 5.3111911065683943E8 ; 0.0
6 ; 1171484.373429332 ; 1.1084715720848218E8 ; 6416826.581564592 ; 6.402698980107154E8 ; 0.0
7 ; 1229045.6091617146 ; 1.1285241974337631E8 ; 7588310.954993924 ; 7.511170552191975E8 ; 0.0
8 ; 1310187.7958642738 ; 1.1516658034855002E8 ; 8817356.564155638 ; 8.639694749625738E8 ; 0.0
9 ; 1427401.5115504274 ; 1.1778964299166173E8 ; 1.0127544360019911E7 ; 9.791360553111238E8 ; 0.0
10 ; 1612968.6045859247 ; 1.2072161010206181E8 ; 1.1554945871570338E7 ; 1.0969256983027856E9 ; 0.0
11 ; 1902920.4107278173 ; 1.239624824978346E8 ; 1.3167914476156263E7 ; 1.2176473084048474E9 ; 0.0
12 ; 2367180.5208655773 ; 1.2751225936089572E8 ; 1.507083488688408E7 ; 1.341609790902682E9 ; 0.0
13 ; 2817580.279806204 ; 1.3137093826189482E8 ; 1.7438015407749657E7 ; 1.4691220502635777E9 ; 0.0
14 ; 2870719.895804395 ; 1.3553851523317355E8 ; 2.025559568755586E7 ; 1.6004929885254726E9 ; 0.0
15 ; 2896786.6638877946 ; 1.400149848847401E8 ; 2.3126315583360255E7 ; 1.7360315037586462E9 ; 0.0
16 ; 2916069.020353744 ; 1.4480034055555353E8 ; 2.602310224724805E7 ; 1.8760464886433864E9 ; 0.0
17 ; 2941749.643321206 ; 1.4989457449062786E8 ; 2.8939171267601795E7 ; 2.0208468291989398E9 ; 0.0
18 ; 2964460.5954559133 ; 1.5529767803370893E8 ; 3.1880920910923E7 ; 2.1707414036895676E9 ; 0.0
19 ; 2987593.8287070924 ; 1.6100964182549158E8 ; 3.484538150637891E7 ; 2.3260390817232766E9 ; 0.0
20 ; 3011416.2753297943 ; 1.670304559983711E8 ; 3.7832975335086E7 ; 2.487048723548768E9 ; 0.0
21 ; 3034723.9079220626 ; 1.73360110360316E8 ; 4.0844391610415794E7 ; 2.654079179547139E9 ; 0.0
22 ; 3062225.988749586 ; 1.799985945623209E8 ; 4.387911551833785E7 ; 2.827439289907455E9 ; 0.0
23 ; 3085167.173479633 ; 1.8694589824582458E8 ; 4.694134150708744E7 ; 3.0074378844697757E9 ; 0.0
24 ; 3107686.553173275 ; 1.942020111682428E8 ; 5.002650868056707E7 ; 3.1943837827156E9 ; 0.0
25 ; 3132948.860291414 ; 2.004549642044469E8 ; 5.3134195233740345E7 ; 3.388585793883843E9 ; 0.0
26 ; 3158021.217567118 ; 2.0045829546552247E8 ; 5.626714409403176E7 ; 3.5890407580882897E9 ; 0.0
27 ; 3180212.9371962203 ; 2.0046176488572767E8 ; 5.9425165311598875E7 ; 3.789499053553812E9 ; 0.0
28 ; 3202340.06424853 ; 2.004653635136459E8 ; 6.260537824879509E7 ; 3.98996081843954E9 ; 0.0
29 ; 3228582.980187296 ; 2.004690828345164E8 ; 6.5807718313043624E7 ; 4.190426181953186E9 ; 0.0
30 ; 3251325.268227117 ; 2.004729147864529E8 ; 6.903630129323092E7 ; 4.390895264787703E9 ; 0.0
31 ; 3273890.9285796303 ; 2.0047685176612657E8 ; 7.228762656145804E7 ; 4.591368179574156E9 ; 0.0
32 ; 3297502.818817784 ; 2.0048088662605768E8 ; 7.556151749003766E7 ; 4.791845031340282E9 ; 0.0
33 ; 3315046.6538083386 ; 2.0048501266541788E8 ; 7.885902030885544E7 ; 4.99232591796634E9 ; 0.0
34 ; 3335738.4403768443 ; 2.0048922361598635E8 ; 8.217406696266378E7 ; 5.192810930631758E9 ; 0.0
35 ; 3358947.1335042007 ; 2.004935136246421E8 ; 8.550980540304063E7 ; 5.393300154247744E9 ; 0.0
36 ; 3378803.4203440016 ; 2.0049787723353133E8 ; 8.886875253654483E7 ; 5.593793667872386E9 ; 0.0
37 ; 3398734.4551642383 ; 2.005023093588275E8 ; 9.224755595688882E7 ; 5.794291545105917E9 ; 0.0
38 ; 3420716.823061146 ; 2.005068052688093E8 ; 9.564629041205306E7 ; 5.994793854464745E9 ; 0.0
39 ; 3435532.234248032 ; 2.0051136056181613E8 ; 9.906700723511422E7 ; 6.195300659733554E9 ; 0.0
40 ; 3454086.091673782 ; 2.0051597114450306E8 ; 1.0250253946936224E8 ; 6.39581202029537E9 ; 0.0
41 ; 3473728.744044946 ; 2.005206332107038E8 ; 1.0595662556103602E8 ; 6.596327991439873E9 ; 0.0
42 ; 3488820.9578811466 ; 2.0052534322111875E8 ; 1.0943035430508097E8 ; 6.796848624650577E9 ; 0.0
43 ; 3504691.3460381194 ; 2.0053009788397285E8 ; 1.1291917526296212E8 ; 6.9973739678716955E9 ; 0.0
44 ; 3517141.2740742518 ; 2.0053489413673073E8 ; 1.1642386660900024E8 ; 7.197904065755669E9 ; 0.0
45 ; 3536328.0102029354 ; 2.0053972912891304E8 ; 1.1994100788307449E8 ; 7.3984389598924E9 ; 0.0
46 ; 3549304.1787556633 ; 2.0054460020602545E8 ; 1.2347733589327742E8 ; 7.598978689021313E9 ; 0.0
47 ; 3561249.2027276726 ; 2.0054950489458662E8 ; 1.2702664007203308E8 ; 7.799523289227338E9 ; 0.0
48 ; 3572202.0576998526 ; 2.0055444088822493E8 ; 1.3058788927476075E8 ; 8.000072794121924E9 ; 0.0
49 ; 3583643.728289821 ; 2.0055940603480068E8 ; 1.3416009133246061E8 ; 8.200627235010149E9 ; 0.0
50 ; 3597353.1117446204 ; 2.005643983245036E8 ; 1.3774373506075042E8 ; 8.40118664104495E9 ; 0.0
51 ; 3605659.8494408093 ; 2.0056941587887046E8 ; 1.4134108817249504E8 ; 8.601751039369453E9 ; 0.0
52 ; 3615477.90476246 ; 2.0057445694066462E8 ; 1.4494674802193585E8 ; 8.802320455248323E9 ; 0.0
53 ; 3628046.095522982 ; 2.005795198645603E8 ; 1.485622259266983E8 ; 9.002894912188988E9 ; 0.0
54 ; 3637281.6424341123 ; 2.005846031085741E8 ; 1.5219027202222127E8 ; 9.203474432053549E9 ; 0.0
55 ; 3649230.8225542745 ; 2.005897052261882E8 ; 1.558275536646554E8 ; 9.404059035162123E9 ; 0.0
56 ; 3656133.66944435 ; 2.005948248591126E8 ; 1.5947678448720965E8 ; 9.604648740388311E9 ; 0.0
57 ; 3665251.952810514 ; 2.0059996073063573E8 ; 1.63132918156654E8 ; 9.805243565247423E9 ; 0.0
58 ; 3672079.267473046 ; 2.0060511163951674E8 ; 1.6679817010946453E8 ; 1.000584352597806E10 ; 0.0
59 ; 3683447.4155459506 ; 2.006102764543746E8 ; 1.7047024937693757E8 ; 1.0206448637617577E10 ; 0.0
60 ; 3691048.9516011816 ; 2.0061545410853362E8 ; 1.741536967924835E8 ; 1.040705891407195E10 ; 0.0
61 ; 3703176.6528916666 ; 2.0062064359528673E8 ; 1.778447457440847E8 ; 1.0607674368180485E10 ; 0.0
62 ; 3711461.077999557 ; 2.00625843963542E8 ; 1.8154792239697635E8 ; 1.0808295011775772E10 ; 0.0
63 ; 3718462.9593192344 ; 2.006310543138196E8 ; 1.852593834749759E8 ; 1.1008920855739315E10 ; 0.0
64 ; 3728114.104695965 ; 2.0063627379456952E8 ; 1.8897784643429515E8 ; 1.1209551910053135E10 ; 0.0
65 ; 3736479.451237467 ; 2.006415015987834E8 ; 1.9270596053899112E8 ; 1.1410188183847704E10 ; 0.0
66 ; 3743086.0958375204 ; 2.0064673696087468E8 ; 1.964424399902286E8 ; 1.1610829685446487E10 ; 0.0
67 ; 3753720.0910873236 ; 2.0065197915380487E8 ; 2.0018552608606613E8 ; 1.1811476422407362E10 ; 0.0
68 ; 3762637.2180390917 ; 2.0065722748643488E8 ; 2.0393924617715344E8 ; 1.2012128401561167E10 ; 0.0
69 ; 3769129.9398206724 ; 2.0066248130108255E8 ; 2.0770188339519253E8 ; 1.2212785629047602E10 ; 0.0
70 ; 3776490.9517623917 ; 2.0066773997126862E8 ; 2.114710133350132E8 ; 1.2413448110348684E10 ; 0.0
71 ; 3782698.9053319492 ; 2.0067300289963582E8 ; 2.152475042867756E8 ; 1.2614115850319952E10 ; 0.0
72 ; 3795841.4461776665 ; 2.0067826951602608E8 ; 2.1903020319210753E8 ; 1.2814788853219587E10 ; 0.0
73 ; 3798638.511696139 ; 2.0068353927570337E8 ; 2.228260446382852E8 ; 1.3015467122735613E10 ; 0.0
74 ; 3807718.123942265 ; 2.0068881165770927E8 ; 2.2662468314998132E8 ; 1.3216150662011316E10 ; 0.0
75 ; 3814265.883786746 ; 2.0069408616334108E8 ; 2.3043240127392358E8 ; 1.3416839473669025E10 ; 0.0
76 ; 3820998.6978021385 ; 2.0069936231474203E8 ; 2.342466671577103E8 ; 1.3617533559832367E10 ; 0.0
77 ; 3828633.7545708283 ; 2.007046396535947E8 ; 2.3806766585551244E8 ; 1.3818232922147108E10 ; 0.0
78 ; 3833131.0665351045 ; 2.00709917739909E8 ; 2.4189629961008328E8 ; 1.4018937561800703E10 ; 0.0
79 ; 3831812.0450817943 ; 2.0071519615089735E8 ; 2.457294306766184E8 ; 1.4219647479540611E10 ; 0.0
80 ; 3835276.224007268 ; 2.0072047447993037E8 ; 2.495612427217002E8 ; 1.442036267569151E10 ; 0.0
81 ; 3834080.4122497765 ; 2.0072575233556584E8 ; 2.5339651894570747E8 ; 1.462108315017144E10 ; 0.0
82 ; 3836567.6081936536 ; 2.0073102934064627E8 ; 2.5723059935795724E8 ; 1.4821808902507006E10 ; 0.0
83 ; 3836870.1016496774 ; 2.0073630513145873E8 ; 2.610671669661509E8 ; 1.5022539931847652E10 ; 0.0
84 ; 3839889.16540669 ; 2.007415793569529E8 ; 2.6490403706780058E8 ; 1.522327623697911E10 ; 0.0
85 ; 3839173.6931887013 ; 2.007468516780124E8 ; 2.687439262332073E8 ; 1.5424017816336063E10 ; 0.0
86 ; 3835230.838976162 ; 2.0075212176677525E8 ; 2.72583099926396E8 ; 1.5624764668014076E10 ; 0.0
87 ; 3840811.969549994 ; 2.0075738930600035E8 ; 2.7641833076537216E8 ; 1.5825516789780851E10 ; 0.0
88 ; 3841071.768559506 ; 2.0076265398847583E8 ; 2.802591427349222E8 ; 1.6026274179086851E10 ; 0.0
89 ; 3844772.8675826103 ; 2.007679155164664E8 ; 2.841002145034817E8 ; 1.6227036833075327E10 ; 0.0
90 ; 3841383.541873306 ; 2.0077317360119715E8 ; 2.879449873710643E8 ; 1.6427804748591793E10 ; 0.0
91 ; 3842179.3794410205 ; 2.0077842796237046E8 ; 2.9178637091293764E8 ; 1.662857792219299E10 ; 0.0
92 ; 3844168.300588605 ; 2.0078367832771423E8 ; 2.9562855029237866E8 ; 1.682935635015536E10 ; 0.0
93 ; 3842319.6920679677 ; 2.007889244325588E8 ; 2.994727185929673E8 ; 1.7030140028483074E10 ; 0.0
94 ; 3840826.2958631553 ; 2.0079416601944062E8 ; 3.0331503828503525E8 ; 1.7230928952915634E10 ; 0.0
95 ; 3842264.3248254033 ; 2.007994028377308E8 ; 3.071558645808984E8 ; 1.7431723118935074E10 ; 0.0
96 ; 3845210.270920815 ; 2.0080463464328665E8 ; 3.109981289057238E8 ; 1.7632522521772804E10 ; 0.0
97 ; 3840040.005896268 ; 2.0080986119812492E8 ; 3.148433391766446E8 ; 1.7833327156416092E10 ; 0.0
98 ; 3838957.0226111603 ; 2.008150822701147E8 ; 3.186833791825409E8 ; 1.8034137017614216E10 ; 0.0
99 ; 3838254.147223945 ; 2.0082029763268912E8 ; 3.2252233620515203E8 ; 1.823495209988433E10 ; 0.0
100 ; 3840554.492303656 ; 2.008255070645745E8 ; 3.26360590352376E8 ; 1.843577239751702E10 ; 0.0
101 ; 3839169.3293473055 ; 2.0083071034953535E8 ; 3.3020114484467965E8 ; 1.8636597904581596E10 ; 0.0
102 ; 3834308.545961172 ; 2.0083590727613473E8 ; 3.3404031417402697E8 ; 1.8837428614931133E10 ; 0.0
103 ; 3834988.449342529 ; 2.0084109763750848E8 ; 3.3787462271998817E8 ; 1.9038264522207268E10 ; 0.0
104 ; 3835616.4420707827 ; 2.0084628123115268E8 ; 3.417096111693307E8 ; 1.9239105619844776E10 ; 0.0
105 ; 3832218.946626129 ; 2.008514578587235E8 ; 3.455452276114015E8 ; 1.9439951901075928E10 ; 0.0
106 ; 3831298.7941870163 ; 2.0085662732584816E8 ; 3.493774465580276E8 ; 1.964080335893465E10 ; 0.0
107 ; 3829231.59501039 ; 2.0086178944194713E8 ; 3.5320874535221463E8 ; 1.9841659986260498E10 ; 0.0
108 ; 3825818.7996062427 ; 2.0086694402006593E8 ; 3.5703797694722503E8 ; 2.0042521775702446E10 ; 0.0
109 ; 3825763.140919993 ; 2.0087209087671667E8 ; 3.608637957468313E8 ; 2.024338871972251E10 ; 0.0
110 ; 3819132.277386224 ; 2.00877229831728E8 ; 3.646895588877513E8 ; 2.0444260810599228E10 ; 0.0
111 ; 3822554.7535740435 ; 2.008823607081039E8 ; 3.685086911651375E8 ; 2.0645138040430958E10 ; 0.0
112 ; 3819385.048412815 ; 2.0088748333188966E8 ; 3.7233124591871154E8 ; 2.084602040113906E10 ; 0.0
113 ; 3815619.371040555 ; 2.008925975320454E8 ; 3.7615063096712434E8 ; 2.104690788447095E10 ; 0.0
114 ; 3813034.2197750756 ; 2.0089770314032647E8 ; 3.799662503381649E8 ; 2.1247800482003E10 ; 0.0
115 ; 3808647.5380431795 ; 2.0090279999117014E8 ; 3.8377928455794E8 ; 2.1448698185143326E10 ; 0.0
116 ; 3809461.597827916 ; 2.0090788792158818E8 ; 3.875879320959832E8 ; 2.1649600985134495E10 ; 0.0
117 ; 3808829.7606266728 ; 2.0091296677106553E8 ; 3.913973936938111E8 ; 2.1850508873056084E10 ; 0.0
118 ; 3799121.90810464 ; 2.009180363814638E8 ; 3.952062234544378E8 ; 2.205142183982715E10 ; 0.0
119 ; 3798721.922923509 ; 2.009230965969302E8 ; 3.9900534536254245E8 ; 2.225233987620861E10 ; 0.0
120 ; 3795660.789169739 ; 2.0092814726381084E8 ; 4.0280406728546596E8 ; 2.2453262972805542E10 ; 0.0
121 ; 3790442.307180307 ; 2.0093318823056877E8 ; 4.065997280746357E8 ; 2.265419112006935E10 ; 0.0
122 ; 3788913.080705182 ; 2.0093821934770602E8 ; 4.1039017038181597E8 ; 2.285512430829992E10 ; 0.0
123 ; 3785053.3924773564 ; 2.0094324046768966E8 ; 4.1417908346252114E8 ; 2.3056062527647625E10 ; 0.0
124 ; 3780742.4644275014 ; 2.0094825144488162E8 ; 4.1796413685499847E8 ; 2.3257005768115314E10 ; 0.0
125 ; 3778788.0520257847 ; 2.0095325213547185E8 ; 4.21744879319426E8 ; 2.3457954019560196E10 ; 0.0
126 ; 3773261.337226698 ; 2.0095824239741513E8 ; 4.255236673714518E8 ; 2.3658907271695667E10 ; 0.0
127 ; 3769799.5790962717 ; 2.0096322209037063E8 ; 4.292969287086785E8 ; 2.3859865514093082E10 ; 0.0
128 ; 3765293.3467490277 ; 2.0096819107564473E8 ; 4.3306672828777474E8 ; 2.4060828736183453E10 ; 0.0
129 ; 3761996.715004457 ; 2.009731492161365E8 ; 4.3683202163452375E8 ; 2.4261796927259098E10 ; 0.0
130 ; 3753177.2483161055 ; 2.0097809637628573E8 ; 4.405940183495282E8 ; 2.4462770076475235E10 ; 0.0
131 ; 3745873.969027496 ; 2.009830324220239E8 ; 4.443471955978443E8 ; 2.466374817285152E10 ; 0.0
132 ; 3733225.9340513526 ; 2.0098795722072676E8 ; 4.480930695668718E8 ; 2.4864731205273544E10 ; 0.0
133 ; 3725737.3864634153 ; 2.0099287064116997E8 ; 4.5182629550092316E8 ; 2.506571916249427E10 ; 0.0
134 ; 3712658.0055508204 ; 2.0099777255348632E8 ; 4.5555203288738656E8 ; 2.526671203313544E10 ; 0.0
135 ; 3702236.463419855 ; 2.010026628291251E8 ; 4.5926469089293736E8 ; 2.5467709805688927E10 ; 0.0
136 ; 3692927.8781108167 ; 2.0100754134081352E8 ; 4.629669273563572E8 ; 2.566871246851805E10 ; 0.0
137 ; 3681537.3862511157 ; 2.0101240796251974E8 ; 4.6665985523446804E8 ; 2.5869720009858864E10 ; 0.0
138 ; 3672610.026404897 ; 2.0101726256941772E8 ; 4.7034139262071913E8 ; 2.6070732417821384E10 ; 0.0
139 ; 3661352.3174225027 ; 2.0102210503785366E8 ; 4.7401400264712405E8 ; 2.62717496803908E10 ; 0.0
140 ; 3648249.9642813127 ; 2.010269352453141E8 ; 4.7767535496454656E8 ; 2.6472771785428654E10 ; 0.0
141 ; 3638638.6844887026 ; 2.0103175307039523E8 ; 4.813236049288279E8 ; 2.667379872067397E10 ; 0.0
142 ; 3626508.208371289 ; 2.0103655839277387E8 ; 4.849622436133166E8 ; 2.6874830473744366E10 ; 0.0
143 ; 3616698.317512189 ; 2.0104135109317958E8 ; 4.885887518216879E8 ; 2.707586703213714E10 ; 0.0
144 ; 3604907.192729682 ; 2.0104613105336818E8 ; 4.922054501392001E8 ; 2.7276908383230316E10 ; 0.0
145 ; 3599680.0089605693 ; 2.0105089815609625E8 ; 4.958103573319298E8 ; 2.7477954514283684E10 ; 0.0
146 ; 3595096.940658249 ; 2.0105565228509706E8 ; 4.9941003734089035E8 ; 2.767900541243978E10 ; 0.0
147 ; 3591214.6890940247 ; 2.0106039332505736E8 ; 5.030051342815486E8 ; 2.7880061064724876E10 ; 0.0
148 ; 3588810.304292767 ; 2.0106512116159517E8 ; 5.065963489706426E8 ; 2.8081121458049934E10 ; 0.0
149 ; 3582782.055825715 ; 2.010698356812388E8 ; 5.1018515927493536E8 ; 2.828218657921153E10 ; 0.0
150 ; 3580150.854712348 ; 2.0107453677140656E8 ; 5.137679413307611E8 ; 2.848325641489277E10 ; 0.0
151 ; 3575092.962094472 ; 2.0107922432038742E8 ; 5.1734809218547344E8 ; 2.8684330951664177E10 ; 0.0
152 ; 3568192.4571652743 ; 2.0108389821732262E8 ; 5.209231851475679E8 ; 2.8885410175984566E10 ; 0.0
153 ; 3564267.385061864 ; 2.0108855835218793E8 ; 5.244913776047332E8 ; 2.908649407420189E10 ; 0.0
154 ; 3558985.16319782 ; 2.0109320461577684E8 ; 5.280556449897951E8 ; 2.9287582632554077E10 ; 0.0
155 ; 3556763.244808505 ; 2.0109783689968428E8 ; 5.316146301529929E8 ; 2.9488675837169853E10 ; 0.0
156 ; 3550866.5211528623 ; 2.011024550962913E8 ; 5.351713933978014E8 ; 2.968977367406954E10 ; 0.0
157 ; 3545483.671950365 ; 2.0110705909875023E8 ; 5.387222599189543E8 ; 2.989087612916583E10 ; 0.0
158 ; 3545335.084327531 ; 2.011116488009704E8 ; 5.422677435909046E8 ; 3.009198318826458E10 ; 0.0
159 ; 3537264.8457663804 ; 2.0111622409760487E8 ; 5.458130786752322E8 ; 3.029309483706555E10 ; 0.0
160 ; 3533718.616286591 ; 2.0112078488403714E8 ; 5.493503435209986E8 ; 3.049421106116316E10 ; 0.0
161 ; 3528305.986744381 ; 2.0112533105636898E8 ; 5.528840621372852E8 ; 3.0695331846047195E10 ; 0.0
162 ; 3521599.496578111 ; 2.0112986251140854E8 ; 5.564123681240296E8 ; 3.0896457177103565E10 ; 0.0
163 ; 3520188.408588065 ; 2.0113437914665875E8 ; 5.599339676206077E8 ; 3.1097587039614975E10 ; 0.0
164 ; 3514142.607598924 ; 2.0113888086030677E8 ; 5.634541560291958E8 ; 3.1298721418761635E10 ; 0.0
165 ; 3509789.113394716 ; 2.0114336755121323E8 ; 5.669682986367947E8 ; 3.149986029962194E10 ; 0.0
166 ; 3506436.9286160627 ; 2.0114783911890256E8 ; 5.704780877501894E8 ; 3.1701003667173153E10 ; 0.0
167 ; 3499573.1167557295 ; 2.011522954635532E8 ; 5.739845246788055E8 ; 3.1902151506292057E10 ; 0.0
168 ; 3495732.9525714447 ; 2.0115673648598844E8 ; 5.774840977955612E8 ; 3.210330380175561E10 ; 0.0
169 ; 3489233.7864520075 ; 2.0116116208766797E8 ; 5.809798307481326E8 ; 3.23044605382416E10 ; 0.0
170 ; 3485283.288534131 ; 2.0116557217067903E8 ; 5.844690645345846E8 ; 3.250562170032927E10 ; 0.0
171 ; 3480642.2423762176 ; 2.0116996663772878E8 ; 5.879543478231188E8 ; 3.2706787272499947E10 ; 0.0
172 ; 3477076.177048102 ; 2.011743453921363E8 ; 5.91434990065495E8 ; 3.2907957239137676E10 ; 0.0
173 ; 3472954.3655216224 ; 2.0117870833782542E8 ; 5.949120662425431E8 ; 3.310913158452981E10 ; 0.0
174 ; 3467210.7956220303 ; 2.0118305537931755E8 ; 5.983850206080648E8 ; 3.3310310292867638E10 ; 0.0
175 ; 3466791.6168682636 ; 2.0118738642172498E8 ; 6.018522314036868E8 ; 3.3511493348246956E10 ; 0.0
176 ; 3464927.347160624 ; 2.0119170137074438E8 ; 6.05319023020555E8 ; 3.3712680734668682E10 ; 0.0
177 ; 3456316.706610784 ; 2.011960001326506E8 ; 6.087839503677156E8 ; 3.3913872436039425E10 ; 0.0
178 ; 3454656.784396828 ; 2.0120028261429077E8 ; 6.122402670743264E8 ; 3.4115068436172077E10 ; 0.0
179 ; 3454895.7412373116 ; 2.0120454872307858E8 ; 6.156949238587233E8 ; 3.431626871878637E10 ; 0.0
180 ; 3448875.7269759774 ; 2.0120879836698887E8 ; 6.191498195999606E8 ; 3.4517473267509445E10 ; 0.0
181 ; 3445240.7240517386 ; 2.0121303145455235E8 ; 6.225986953269365E8 ; 3.4718682065876434E10 ; 0.0
182 ; 3441307.530937354 ; 2.0121724789485082E8 ; 6.260439360509882E8 ; 3.4919895097330986E10 ; 0.0
183 ; 3438041.6266173366 ; 2.0122144759751216E8 ; 6.294852435819255E8 ; 3.512111234522584E10 ; 0.0
184 ; 3435905.067543973 ; 2.0122563047270584E8 ; 6.329232852085428E8 ; 3.532233379282335E10 ; 0.0
185 ; 3433443.542240219 ; 2.0122979643113872E8 ; 6.363591902760868E8 ; 3.552355942329605E10 ; 0.0
186 ; 3428326.4485610006 ; 2.0123394538405067E8 ; 6.397926338183271E8 ; 3.572478921972719E10 ; 0.0
187 ; 3426506.3166949097 ; 2.0123807724321064E8 ; 6.43220960266888E8 ; 3.592602316511124E10 ; 0.0
188 ; 3419994.270901329 ; 2.0124219192091292E8 ; 6.466474665835829E8 ; 3.612726124235445E10 ; 0.0
189 ; 3418750.954434195 ; 2.012462893299733E8 ; 6.500674608544842E8 ; 3.632850343427536E10 ; 0.0
190 ; 3415106.713642364 ; 2.012503693837259E8 ; 6.534862118089184E8 ; 3.652974972360533E10 ; 0.0
191 ; 3412237.742125027 ; 2.012544319960195E8 ; 6.569013185225607E8 ; 3.673100009298906E10 ; 0.0
192 ; 3408742.9002645537 ; 2.0125847708121458E8 ; 6.603135562646858E8 ; 3.693225452498508E10 ; 0.0
193 ; 3403634.978130205 ; 2.0126250455418012E8 ; 6.637222991649503E8 ; 3.713351300206629E10 ; 0.0
194 ; 3404507.058114143 ; 2.0126651433029085E8 ; 6.671259341430805E8 ; 3.733477550662047E10 ; 0.0
195 ; 3399554.1253503207 ; 2.0127050632542443E8 ; 6.705304412011946E8 ; 3.753604202095076E10 ; 0.0
196 ; 3396428.556323794 ; 2.0127448045595872E8 ; 6.73929995326545E8 ; 3.7737312527276184E10 ; 0.0
197 ; 3393496.3675271613 ; 2.0127843663876936E8 ; 6.773264238828688E8 ; 3.793858700773214E10 ; 0.0
198 ; 3387317.605798666 ; 2.012823747912273E8 ; 6.807199202503959E8 ; 3.813986544437091E10 ; 0.0
199 ; 3387649.296958289 ; 2.012862948311966E8 ; 6.841072378561946E8 ; 3.834114781916214E10 ; 0.0
200 ; 3382252.1305169635 ; 2.0129019667703217E8 ; 6.87494887153153E8 ; 3.854243411399334E10 ; 0.0
