CSV File for the City 4 on Day 90
1 - Minute m 
2 - Power Consumed at minute m 
3 - Power Produced at minute m 
4 - Energy Consumed since the beginning of the day 
5 - Energy Produced since the beginning of the day 
6 - Energy Lost since the beginning of the day on lines starting from the city
 
0 ; 6839599.690938766 ; 1.0618350119102517E8 ; 0.0 ; 0.0 ; 0.0
1 ; 6847651.584482398 ; 1.0633404486502051E8 ; 6839599.690938766 ; 1.0618350119102517E8 ; 0.0
2 ; 6854570.887972837 ; 1.067936154341279E8 ; 1.3687251275421165E7 ; 2.1251754605604568E8 ; 0.0
3 ; 6864020.283559454 ; 1.075622170288992E8 ; 2.0541822163394004E7 ; 3.193111614901736E8 ; 0.0
4 ; 6873389.949647734 ; 1.0863985335178465E8 ; 2.7405842446953457E7 ; 4.268733785190728E8 ; 0.0
5 ; 6883328.645668558 ; 1.100265276563707E8 ; 3.427923239660119E7 ; 5.355132318708574E8 ; 0.0
6 ; 6899172.2898722235 ; 1.1172224272878072E8 ; 4.116256104226975E7 ; 6.455397595272281E8 ; 0.0
7 ; 6927302.823092101 ; 1.1372700087148386E8 ; 4.806173333214197E7 ; 7.572620022560089E8 ; 0.0
8 ; 6957598.0072519975 ; 1.1604080388973016E8 ; 5.4989036155234076E7 ; 8.709890031274927E8 ; 0.0
9 ; 7009268.714610561 ; 1.186636530807975E8 ; 6.194663416248608E7 ; 9.870298070172229E8 ; 0.0
10 ; 7087968.069067507 ; 1.2159554922620034E8 ; 6.895590287709664E7 ; 1.1056934600980203E9 ; 0.0
11 ; 7208011.740033473 ; 1.2483649258697036E8 ; 7.604387094616415E7 ; 1.2272890093242207E9 ; 0.0
12 ; 7407308.46248571 ; 1.2838648290207586E8 ; 8.325188268619762E7 ; 1.352125501911191E9 ; 0.0
13 ; 7599457.602661448 ; 1.3224551939000237E8 ; 9.065919114868334E7 ; 1.4805119848132668E9 ; 0.0
14 ; 7621180.637568303 ; 1.364136007534721E8 ; 9.825864875134479E7 ; 1.612757504203269E9 ; 0.0
15 ; 7629529.559634019 ; 1.4089072518723488E8 ; 1.058798293889131E8 ; 1.749171104956741E9 ; 0.0
16 ; 7634823.040011823 ; 1.456768903888217E8 ; 1.1350935894854711E8 ; 1.890061830143976E9 ; 0.0
17 ; 7644860.125093536 ; 1.5077209357210907E8 ; 1.2114418198855893E8 ; 2.0357387205327976E9 ; 0.0
18 ; 7653898.932328426 ; 1.561763314835106E8 ; 1.2878904211365247E8 ; 2.1865108141049066E9 ; 0.0
19 ; 7665403.440162105 ; 1.6188960042057607E8 ; 1.364429410459809E8 ; 2.342687145588417E9 ; 0.0
20 ; 7672247.166272565 ; 1.6791189625275353E8 ; 1.44108344486143E8 ; 2.504576746008993E9 ; 0.0
21 ; 7683838.748401215 ; 1.7424321444405082E8 ; 1.5178059165241554E8 ; 2.672488642261747E9 ; 0.0
22 ; 7690999.378463973 ; 1.8088355007731372E8 ; 1.5946443040081677E8 ; 2.8467318567057977E9 ; 0.0
23 ; 7701842.923173669 ; 1.8783289787983304E8 ; 1.6715542977928075E8 ; 3.0276154067831116E9 ; 0.0
24 ; 7707526.139130137 ; 1.950912522499861E8 ; 1.7485727270245442E8 ; 3.215448304662945E9 ; 0.0
25 ; 7716024.217209604 ; 2.0134664818280724E8 ; 1.8256479884158456E8 ; 3.410539556912931E9 ; 0.0
26 ; 7727092.608246172 ; 2.0135262733473092E8 ; 1.9028082305879417E8 ; 3.6118862050957384E9 ; 0.0
27 ; 7737157.896538442 ; 2.0135895257653207E8 ; 1.9800791566704035E8 ; 3.8132388324304695E9 ; 0.0
28 ; 7744910.1857543625 ; 2.0136561726806894E8 ; 2.0574507356357878E8 ; 4.0145977850070014E9 ; 0.0
29 ; 7753999.963556626 ; 2.013726145791955E8 ; 2.1348998374933314E8 ; 4.21596340227507E9 ; 0.0
30 ; 7762364.039613751 ; 2.0137993751690888E8 ; 2.2124398371288976E8 ; 4.417336016854265E9 ; 0.0
31 ; 7768405.731694005 ; 2.013875789517854E8 ; 2.290063477525035E8 ; 4.618715954371174E9 ; 0.0
32 ; 7780133.372932684 ; 2.013955316435361E8 ; 2.3677475348419753E8 ; 4.820103533322959E9 ; 0.0
33 ; 7785305.482864032 ; 2.014037882655386E8 ; 2.445548868571302E8 ; 5.0214990649664955E9 ; 0.0
34 ; 7794951.631245648 ; 2.0141234142822582E8 ; 2.5234019233999422E8 ; 5.222902853232034E9 ; 0.0
35 ; 7800088.842620602 ; 2.0142118370123667E8 ; 2.6013514397123986E8 ; 5.424315194660259E9 ; 0.0
36 ; 7806703.832903385 ; 2.0143030763425645E8 ; 2.6793523281386048E8 ; 5.625736378361496E9 ; 0.0
37 ; 7817007.3897760445 ; 2.0143970577649617E8 ; 2.7574193664676386E8 ; 5.827166685995752E9 ; 0.0
38 ; 7824362.61100242 ; 2.0144937069478047E8 ; 2.835589440365399E8 ; 6.028606391772248E9 ; 0.0
39 ; 7829751.395158712 ; 2.014592949902308E8 ; 2.9138330664754236E8 ; 6.230055762467029E9 ; 0.0
40 ; 7832332.671596641 ; 2.0146947131354845E8 ; 2.9921305804270107E8 ; 6.431515057457259E9 ; 0.0
41 ; 7839325.999470159 ; 2.014798923789142E8 ; 3.070453907142977E8 ; 6.632984528770807E9 ; 0.0
42 ; 7846383.9672686 ; 2.014905509765357E8 ; 3.148847167137679E8 ; 6.834464421149721E9 ; 0.0
43 ; 7852272.620559882 ; 2.015014399838819E8 ; 3.227311006810365E8 ; 7.035954972126257E9 ; 0.0
44 ; 7854058.255508144 ; 2.015125523756544E8 ; 3.3058337330159634E8 ; 7.237456412110139E9 ; 0.0
45 ; 7863893.4544069925 ; 2.015238812325508E8 ; 3.3843743155710447E8 ; 7.438968964485793E9 ; 0.0
46 ; 7865592.627711255 ; 2.01535419748881E8 ; 3.4630132501151145E8 ; 7.640492845718344E9 ; 0.0
47 ; 7870094.636655339 ; 2.0154716123910108E8 ; 3.541669176392227E8 ; 7.842028265467225E9 ; 0.0
48 ; 7870488.339929117 ; 2.0155909914333162E8 ; 3.62037012275878E8 ; 8.0435754267063265E9 ; 0.0
49 ; 7876949.496552984 ; 2.015712270319288E8 ; 3.699075006158071E8 ; 8.245134525849658E9 ; 0.0
50 ; 7879457.636696757 ; 2.015835386091768E8 ; 3.777844501123601E8 ; 8.446705752881587E9 ; 0.0
51 ; 7881674.507665342 ; 2.0159602771616924E8 ; 3.856639077490569E8 ; 8.648289291490765E9 ; 0.0
52 ; 7882953.451774653 ; 2.016086883329467E8 ; 3.935455822567222E8 ; 8.849885319206934E9 ; 0.0
53 ; 7883480.035080659 ; 2.016215145799549E8 ; 4.0142853570849687E8 ; 9.05149400753988E9 ; 0.0
54 ; 7887012.944374289 ; 2.0163450071888617E8 ; 4.0931201574357754E8 ; 9.253115522119835E9 ; 0.0
55 ; 7890716.995036263 ; 2.0164764115296367E8 ; 4.171990286879518E8 ; 9.45475002283872E9 ; 0.0
56 ; 7892318.728425129 ; 2.0166093042672586E8 ; 4.2508974568298805E8 ; 9.656397663991684E9 ; 0.0
57 ; 7893765.669447509 ; 2.016743632253644E8 ; 4.329820644114132E8 ; 9.85805859441841E9 ; 0.0
58 ; 7897545.269402514 ; 2.01687934373666E8 ; 4.408758300808607E8 ; 1.0059732957643774E10 ; 0.0
59 ; 7898241.718292099 ; 2.017016388346057E8 ; 4.487733753502632E8 ; 1.026142089201744E10 ; 0.0
60 ; 7901072.531469884 ; 2.0171547170763528E8 ; 4.566716170685553E8 ; 1.0463122530852047E10 ; 0.0
61 ; 7900218.897352311 ; 2.017294282267071E8 ; 4.645726896000252E8 ; 1.0664838002559683E10 ; 0.0
62 ; 7903168.238036387 ; 2.017435037580714E8 ; 4.724729084973775E8 ; 1.086656743078639E10 ; 0.0
63 ; 7903863.113287822 ; 2.0175769379788074E8 ; 4.803760767354139E8 ; 1.1068310934544462E10 ; 0.0
64 ; 7909203.677453045 ; 2.0177199396963346E8 ; 4.882799398487017E8 ; 1.1270068628342342E10 ; 0.0
65 ; 7908079.569212371 ; 2.0178640002148443E8 ; 4.9618914352615476E8 ; 1.1471840622311975E10 ; 0.0
66 ; 7912565.353498127 ; 2.018009078234488E8 ; 5.0409722309536713E8 ; 1.167362702233346E10 ; 0.0
67 ; 7913025.438591522 ; 2.018155133645227E8 ; 5.1200978844886523E8 ; 1.1875427930156908E10 ; 0.0
68 ; 7911602.294948725 ; 2.01830212749741E8 ; 5.199228138874568E8 ; 1.2077243443521431E10 ; 0.0
69 ; 7912033.1670761 ; 2.018450021971916E8 ; 5.278344161824055E8 ; 1.2279073656271172E10 ; 0.0
70 ; 7917296.273841808 ; 2.018598780350028E8 ; 5.357464493494816E8 ; 1.2480918658468363E10 ; 0.0
71 ; 7916811.159980888 ; 2.0187483669831833E8 ; 5.436637456233234E8 ; 1.2682778536503366E10 ; 0.0
72 ; 7917664.824772024 ; 2.0188987472627333E8 ; 5.515805567833043E8 ; 1.2884653373201685E10 ; 0.0
73 ; 7917833.807056948 ; 2.019049887589829E8 ; 5.594982216080763E8 ; 1.3086543247927958E10 ; 0.0
74 ; 7919346.585069913 ; 2.019201755345529E8 ; 5.674160554151332E8 ; 1.3288448236686941E10 ; 0.0
75 ; 7918109.554231617 ; 2.0193543188612208E8 ; 5.753354020002031E8 ; 1.3490368412221495E10 ; 0.0
76 ; 7920717.37123585 ; 2.0195075473894256E8 ; 5.832535115544348E8 ; 1.3692303844107616E10 ; 0.0
77 ; 7922115.586553899 ; 2.0196614110750562E8 ; 5.911742289256706E8 ; 1.389425459884656E10 ; 0.0
78 ; 7920171.352010354 ; 2.0198158809271753E8 ; 5.990963445122246E8 ; 1.4096220739954065E10 ; 0.0
79 ; 7918559.664969814 ; 2.0199709287913063E8 ; 6.070165158642349E8 ; 1.4298202328046783E10 ; 0.0
80 ; 7916961.952681591 ; 2.020126527322325E8 ; 6.149350755292047E8 ; 1.4500199420925915E10 ; 0.0
81 ; 7913961.300842214 ; 2.020282649957972E8 ; 6.228520374818863E8 ; 1.4702212073658148E10 ; 0.0
82 ; 7912385.510376451 ; 2.0204392708929986E8 ; 6.307659987827284E8 ; 1.4904240338653946E10 ; 0.0
83 ; 7912729.778003607 ; 2.0205963650539738E8 ; 6.386783842931049E8 ; 1.5106284265743246E10 ; 0.0
84 ; 7906784.480456689 ; 2.0207539080747572E8 ; 6.465911140711085E8 ; 1.5308343902248644E10 ; 0.0
85 ; 7906844.084135275 ; 2.0209118762726507E8 ; 6.544978985515652E8 ; 1.551041929305612E10 ; 0.0
86 ; 7904573.944193563 ; 2.021070246625232E8 ; 6.624047426357005E8 ; 1.5712510480683386E10 ; 0.0
87 ; 7902169.609970823 ; 2.0212289967478707E8 ; 6.703093165798941E8 ; 1.591461750534591E10 ; 0.0
88 ; 7900219.576351687 ; 2.0213881048719233E8 ; 6.782114861898649E8 ; 1.6116740405020697E10 ; 0.0
89 ; 7898982.063128894 ; 2.0215475498236072E8 ; 6.861117057662165E8 ; 1.6318879215507889E10 ; 0.0
90 ; 7897413.875647587 ; 2.0217073110035425E8 ; 6.940106878293455E8 ; 1.652103397049025E10 ; 0.0
91 ; 7894053.439365373 ; 2.0218673683669528E8 ; 7.01908101704993E8 ; 1.6723204701590605E10 ; 0.0
92 ; 7893881.620275268 ; 2.0220277024045202E8 ; 7.098021551443584E8 ; 1.69253914384273E10 ; 0.0
93 ; 7889112.639330444 ; 2.022188294123875E8 ; 7.176960367646337E8 ; 1.7127594208667751E10 ; 0.0
94 ; 7886484.973419338 ; 2.0223491250317135E8 ; 7.25585149403964E8 ; 1.732981303808014E10 ; 0.0
95 ; 7885387.43868488 ; 2.022510177116529E8 ; 7.334716343773834E8 ; 1.753204795058331E10 ; 0.0
96 ; 7879171.701215545 ; 2.0226714328319377E8 ; 7.413570218160682E8 ; 1.7734298968294964E10 ; 0.0
97 ; 7880021.552010149 ; 2.0228328750805914E8 ; 7.492361935172837E8 ; 1.793656611157816E10 ; 0.0
98 ; 7878043.369059049 ; 2.0229944871986565E8 ; 7.571162150692939E8 ; 1.813884939908622E10 ; 0.0
99 ; 7871140.496052714 ; 2.0231562529408443E8 ; 7.64994258438353E8 ; 1.8341148847806084E10 ; 0.0
100 ; 7869102.425307377 ; 2.0233181564659792E8 ; 7.728653989344057E8 ; 1.8543464473100166E10 ; 0.0
101 ; 7865867.399971614 ; 2.0234801823230883E8 ; 7.807345013597131E8 ; 1.8745796288746765E10 ; 0.0
102 ; 7862543.54983992 ; 2.0236423154379928E8 ; 7.886003687596847E8 ; 1.8948144306979073E10 ; 0.0
103 ; 7861959.850343184 ; 2.0238045411003906E8 ; 7.964629123095247E8 ; 1.9150508538522873E10 ; 0.0
104 ; 7858232.816544943 ; 2.0239668449514124E8 ; 8.043248721598679E8 ; 1.935288899263291E10 ; 0.0
105 ; 7854235.835768549 ; 2.0241292129716337E8 ; 8.121831049764128E8 ; 1.955528567712805E10 ; 0.0
106 ; 7851007.880719144 ; 2.0242916314695305E8 ; 8.200373408121814E8 ; 1.9757698598425217E10 ; 0.0
107 ; 7843492.890205821 ; 2.0244540870703626E8 ; 8.278883486929005E8 ; 1.996012776157217E10 ; 0.0
108 ; 7839136.826365908 ; 2.0246165667054668E8 ; 8.357318415831064E8 ; 2.0162573170279205E10 ; 0.0
109 ; 7838460.17563525 ; 2.0247790576019534E8 ; 8.435709784094723E8 ; 2.0365034826949753E10 ; 0.0
110 ; 7833270.285929845 ; 2.0249415472727808E8 ; 8.514094385851076E8 ; 2.056751273270995E10 ; 0.0
111 ; 7828099.501044134 ; 2.0251040235072038E8 ; 8.592427088710374E8 ; 2.077000688743723E10 ; 0.0
112 ; 7825994.250542472 ; 2.0252664743615782E8 ; 8.670708083720815E8 ; 2.097251728978795E10 ; 0.0
113 ; 7822652.69729587 ; 2.02542888815051E8 ; 8.74896802622624E8 ; 2.1175043937224106E10 ; 0.0
114 ; 7819404.405014777 ; 2.0255912534383312E8 ; 8.8271945531992E8 ; 2.1377586826039158E10 ; 0.0
115 ; 7818012.376374942 ; 2.025753559030902E8 ; 8.905388597249347E8 ; 2.158014595138299E10 ; 0.0
116 ; 7809593.132520551 ; 2.0259157939677128E8 ; 8.983568721013097E8 ; 2.1782721307286083E10 ; 0.0
117 ; 7807652.434420148 ; 2.0260779475142848E8 ; 9.061664652338302E8 ; 2.1985312886682854E10 ; 0.0
118 ; 7799244.317227783 ; 2.0262400091548556E8 ; 9.139741176682503E8 ; 2.218792068143428E10 ; 0.0
119 ; 7799151.738064344 ; 2.0264019685853353E8 ; 9.217733619854782E8 ; 2.2390544682349766E10 ; 0.0
120 ; 7794143.011895251 ; 2.0265638157065293E8 ; 9.295725137235425E8 ; 2.2593184879208298E10 ; 0.0
121 ; 7787940.802426178 ; 2.0267255406176096E8 ; 9.373666567354378E8 ; 2.279584126077895E10 ; 0.0
122 ; 7783665.710580664 ; 2.0268871336098337E8 ; 9.45154597537864E8 ; 2.299851381484071E10 ; 0.0
123 ; 7780555.944254386 ; 2.0270485851604947E8 ; 9.529382632484447E8 ; 2.3201202528201694E10 ; 0.0
124 ; 7775552.662792156 ; 2.0272098859270966E8 ; 9.607188191926991E8 ; 2.3403907386717743E10 ; 0.0
125 ; 7768194.924704238 ; 2.0273710267417467E8 ; 9.684943718554913E8 ; 2.360662837531045E10 ; 0.0
126 ; 7765332.152766755 ; 2.0275319986057547E8 ; 9.762625667801955E8 ; 2.3809365477984627E10 ; 0.0
127 ; 7759985.493192438 ; 2.027692792684432E8 ; 9.840278989329622E8 ; 2.4012118677845203E10 ; 0.0
128 ; 7753963.24180499 ; 2.0278534003020844E8 ; 9.917878844261546E8 ; 2.4214887957113647E10 ; 0.0
129 ; 7748078.058573239 ; 2.0280138129371858E8 ; 9.995418476679596E8 ; 2.4417673297143856E10 ; 0.0
130 ; 7742310.75966796 ; 2.0281740222177336E8 ; 1.0072899257265328E9 ; 2.4620474678437576E10 ; 0.0
131 ; 7736000.534222325 ; 2.0283340199167714E8 ; 1.0150322364862008E9 ; 2.482329208065935E10 ; 0.0
132 ; 7728350.337025152 ; 2.028493797948077E8 ; 1.0227682370204232E9 ; 2.5026125482651028E10 ; 0.0
133 ; 7721128.051027487 ; 2.0286533483620074E8 ; 1.0304965873574483E9 ; 2.5228974862445835E10 ; 0.0
134 ; 7711327.195106531 ; 2.0288126633414966E8 ; 1.0382177154084759E9 ; 2.5431840197282036E10 ; 0.0
135 ; 7702458.886946559 ; 2.028971735198196E8 ; 1.0459290426035824E9 ; 2.5634721463616184E10 ; 0.0
136 ; 7699268.54645179 ; 2.029130556368758E8 ; 1.053631501490529E9 ; 2.5837618637136005E10 ; 0.0
137 ; 7687125.144359786 ; 2.0292891194112527E8 ; 1.0613307700369807E9 ; 2.604053169277288E10 ; 0.0
138 ; 7683797.57453673 ; 2.0294474170017123E8 ; 1.0690178951813406E9 ; 2.6243460604714005E10 ; 0.0
139 ; 7671857.455047881 ; 2.0296054419308025E8 ; 1.0767016927558773E9 ; 2.6446405346414177E10 ; 0.0
140 ; 7666024.351215738 ; 2.0297631871006125E8 ; 1.084373550210925E9 ; 2.6649365890607258E10 ; 0.0
141 ; 7657555.838888057 ; 2.029920645521559E8 ; 1.092039574562141E9 ; 2.6852342209317318E10 ; 0.0
142 ; 7646550.483464829 ; 2.0300778103094015E8 ; 1.099697130401029E9 ; 2.7055334273869473E10 ; 0.0
143 ; 7641812.813086942 ; 2.0302346746823633E8 ; 1.1073436808844938E9 ; 2.7258342054900414E10 ; 0.0
144 ; 7632216.190141794 ; 2.0303912319583556E8 ; 1.1149854936975808E9 ; 2.746136552236865E10 ; 0.0
145 ; 7627340.492192553 ; 2.0305474755523002E8 ; 1.1226177098877225E9 ; 2.7664404645564484E10 ; 0.0
146 ; 7621441.854652723 ; 2.030703398973543E8 ; 1.130245050379915E9 ; 2.7867459393119713E10 ; 0.0
147 ; 7616502.560844031 ; 2.030858995823365E8 ; 1.1378664922345676E9 ; 2.8070529733017067E10 ; 0.0
148 ; 7610434.4684024 ; 2.0310142597925735E8 ; 1.1454829947954116E9 ; 2.8273615632599403E10 ; 0.0
149 ; 7608662.224284262 ; 2.031169184659184E8 ; 1.153093429263814E9 ; 2.847671705857866E10 ; 0.0
150 ; 7597193.315841626 ; 2.0313237642861786E8 ; 1.1607020914880981E9 ; 2.867983397704458E10 ; 0.0
151 ; 7593798.810407392 ; 2.0314779926193437E8 ; 1.1682992848039398E9 ; 2.8882966353473198E10 ; 0.0
152 ; 7586015.83342468 ; 2.0316318636851835E8 ; 1.1758930836143472E9 ; 2.9086114152735134E10 ; 0.0
153 ; 7581328.415470487 ; 2.031785371588905E8 ; 1.1834790994477718E9 ; 2.9289277339103653E10 ; 0.0
154 ; 7576040.693997249 ; 2.031938510512471E8 ; 1.1910604278632424E9 ; 2.9492455876262543E10 ; 0.0
155 ; 7570070.836669674 ; 2.0320912747127238E8 ; 1.1986364685572395E9 ; 2.969564972731379E10 ; 0.0
156 ; 7562786.527258593 ; 2.03224365851957E8 ; 1.2062065393939092E9 ; 2.989885885478506E10 ; 0.0
157 ; 7555003.866484173 ; 2.032395656334227E8 ; 1.2137693259211679E9 ; 3.0102083220637016E10 ; 0.0
158 ; 7553078.203102426 ; 2.0325472626275322E8 ; 1.221324329787652E9 ; 3.030532278627044E10 ; 0.0
159 ; 7547374.568886216 ; 2.0326984719383073E8 ; 1.2288774079907544E9 ; 3.050857751253319E10 ; 0.0
160 ; 7538341.709729259 ; 2.0328492788717782E8 ; 1.2364247825596406E9 ; 3.0711847359727024E10 ; 0.0
161 ; 7534950.7477361625 ; 2.0329996780980504E8 ; 1.2439631242693698E9 ; 3.09151322876142E10 ; 0.0
162 ; 7526620.118737228 ; 2.0331496643506312E8 ; 1.251498075017106E9 ; 3.1118432255424007E10 ; 0.0
163 ; 7521453.350522105 ; 2.0332992324250072E8 ; 1.2590246951358433E9 ; 3.132174722185907E10 ; 0.0
164 ; 7517275.239166463 ; 2.0334483771772656E8 ; 1.2665461484863653E9 ; 3.152507714510157E10 ; 0.0
165 ; 7510708.551416602 ; 2.0335970935227615E8 ; 1.2740634237255318E9 ; 3.1728421982819298E10 ; 0.0
166 ; 7504032.090436226 ; 2.0337453764348328E8 ; 1.2815741322769485E9 ; 3.1931781692171574E10 ; 0.0
167 ; 7496332.762089499 ; 2.0338932209435537E8 ; 1.2890781643673847E9 ; 3.2135156229815056E10 ; 0.0
168 ; 7491584.561734253 ; 2.034040622134532E8 ; 1.2965744971294742E9 ; 3.2338545551909412E10 ; 0.0
169 ; 7485004.356913457 ; 2.034187575147746E8 ; 1.3040660816912084E9 ; 3.2541949614122864E10 ; 0.0
170 ; 7479544.3461656 ; 2.0343340751764184E8 ; 1.311551086048122E9 ; 3.2745368371637638E10 ; 0.0
171 ; 7473345.4986506365 ; 2.0344801174659282E8 ; 1.3190306303942876E9 ; 3.294880177915528E10 ; 0.0
172 ; 7464229.725792739 ; 2.0346256973127577E8 ; 1.3265039758929381E9 ; 3.3152249790901875E10 ; 0.0
173 ; 7459225.996659516 ; 2.0347708100634748E8 ; 1.3339682056187308E9 ; 3.3355712360633152E10 ; 0.0
174 ; 7457392.765352222 ; 2.0349154511137474E8 ; 1.3414274316153903E9 ; 3.35591894416395E10 ; 0.0
175 ; 7451002.833496874 ; 2.0350596159073892E8 ; 1.3488848243807425E9 ; 3.3762680986750874E10 ; 0.0
176 ; 7448620.284920262 ; 2.035203299935439E8 ; 1.3563358272142394E9 ; 3.3966186948341614E10 ; 0.0
177 ; 7445946.87816027 ; 2.0353464987352672E8 ; 1.3637844474991596E9 ; 3.416970727833516E10 ; 0.0
178 ; 7438479.49165597 ; 2.035489207889712E8 ; 1.3712303943773198E9 ; 3.437324192820869E10 ; 0.0
179 ; 7435229.6535608 ; 2.0356314230262432E8 ; 1.3786688738689759E9 ; 3.457679084899766E10 ; 0.0
180 ; 7431319.273549747 ; 2.0357731398161542E8 ; 1.3861041035225368E9 ; 3.4780353991300285E10 ; 0.0
181 ; 7430361.483816221 ; 2.0359143539737764E8 ; 1.3935354227960865E9 ; 3.49839313052819E10 ; 0.0
182 ; 7427114.070302697 ; 2.0360550612557235E8 ; 1.4009657842799027E9 ; 3.5187522740679276E10 ; 0.0
183 ; 7418675.75402631 ; 2.0361952574601543E8 ; 1.4083928983502054E9 ; 3.539112824680485E10 ; 0.0
184 ; 7415790.898310347 ; 2.0363349384260648E8 ; 1.4158115741042318E9 ; 3.5594747772550865E10 ; 0.0
185 ; 7414458.808737462 ; 2.0364741000325975E8 ; 1.4232273650025423E9 ; 3.579838126639347E10 ; 0.0
186 ; 7408886.512932815 ; 2.0366127381983757E8 ; 1.4306418238112798E9 ; 3.600202867639673E10 ; 0.0
187 ; 7406963.758110797 ; 2.0367508488808578E8 ; 1.4380507103242126E9 ; 3.620568995021657E10 ; 0.0
188 ; 7402228.584668931 ; 2.0368884280757114E8 ; 1.4454576740823233E9 ; 3.640936503510465E10 ; 0.0
189 ; 7396516.552170609 ; 2.0370254718162087E8 ; 1.4528599026669922E9 ; 3.6613053877912224E10 ; 0.0
190 ; 7394799.317214341 ; 2.0371619761726388E8 ; 1.4602564192191627E9 ; 3.681675642509384E10 ; 0.0
191 ; 7391308.646587555 ; 2.0372979372517398E8 ; 1.467651218536377E9 ; 3.7020472622711105E10 ; 0.0
192 ; 7386909.571833388 ; 2.0374333511961475E8 ; 1.4750425271829646E9 ; 3.722420241643628E10 ; 0.0
193 ; 7383272.958323277 ; 2.0375682141838625E8 ; 1.482429436754798E9 ; 3.742794575155589E10 ; 0.0
194 ; 7378267.056178848 ; 2.0377025224277335E8 ; 1.4898127097131212E9 ; 3.763170257297428E10 ; 0.0
195 ; 7373697.619928189 ; 2.037836272174955E8 ; 1.4971909767693E9 ; 3.783547282521706E10 ; 0.0
196 ; 7367852.773860789 ; 2.0379694597065833E8 ; 1.504564674389228E9 ; 3.8039256452434555E10 ; 0.0
197 ; 7365657.82737411 ; 2.0381020813370654E8 ; 1.5119325271630888E9 ; 3.824305339840521E10 ; 0.0
198 ; 7362623.492770733 ; 2.038234133413783E8 ; 1.519298184990463E9 ; 3.844686360653892E10 ; 0.0
199 ; 7358930.858363841 ; 2.038365612316611E8 ; 1.5266608084832337E9 ; 3.8650687019880295E10 ; 0.0
200 ; 7355505.757317768 ; 1.7880029854229292E8 ; 1.5340197393415976E9 ; 3.885452358111195E10 ; 0.0
201 ; 7351213.659880249 ; 1.550226904091445E8 ; 1.5413752450989153E9 ; 3.903332387965424E10 ; 0.0
