CSV File for the City 6 on Day 22
1 - Minute m 
2 - Power Consumed at minute m 
3 - Power Produced at minute m 
4 - Energy Consumed since the beginning of the day 
5 - Energy Produced since the beginning of the day 
6 - Energy Lost since the beginning of the day on lines starting from the city
 
0 ; 8664061.75241329 ; 1.0274742965207791E7 ; 0.0 ; 0.0 ; 0.0
1 ; 8672725.790814506 ; 1.0274742965207791E7 ; 8664061.75241329 ; 1.0274742965207791E7 ; 0.0
2 ; 8684950.488514831 ; 1.0274742965207791E7 ; 1.7336787543227796E7 ; 2.0549485930415582E7 ; 0.0
3 ; 8696883.44547898 ; 1.0274742965207791E7 ; 2.6021738031742625E7 ; 3.082422889562337E7 ; 0.0
4 ; 8706559.34506312 ; 1.0274742965207791E7 ; 3.471862147722161E7 ; 4.1098971860831164E7 ; 0.0
5 ; 8724649.144977575 ; 1.0274742965207791E7 ; 4.342518082228473E7 ; 5.137371482603896E7 ; 0.0
6 ; 8744544.380853795 ; 1.0274742965207791E7 ; 5.2149829967262305E7 ; 6.164845779124675E7 ; 0.0
7 ; 8775764.782133054 ; 1.0274742965207791E7 ; 6.08943743481161E7 ; 7.192320075645454E7 ; 0.0
8 ; 8811813.67299226 ; 1.0274742965207791E7 ; 6.967013913024916E7 ; 8.219794372166233E7 ; 0.0
9 ; 8878935.8287052 ; 1.0274742965207791E7 ; 7.848195280324142E7 ; 9.247268668687011E7 ; 0.0
10 ; 8975781.752322733 ; 1.0274742965207791E7 ; 8.736088863194662E7 ; 1.027474296520779E8 ; 0.0
11 ; 9133124.041963072 ; 1.0274742965207791E7 ; 9.633667038426936E7 ; 1.1302217261728568E8 ; 0.0
12 ; 9382642.82267627 ; 1.0274742965207791E7 ; 1.0546979442623243E8 ; 1.2329691558249347E8 ; 0.0
13 ; 9617914.62816735 ; 1.0274742965207791E7 ; 1.148524372489087E8 ; 1.3357165854770125E8 ; 0.0
14 ; 9646460.00695432 ; 1.0274742965207791E7 ; 1.2447035187707604E8 ; 1.4384640151290905E8 ; 0.0
15 ; 9659478.12028265 ; 1.0274742965207791E7 ; 1.3411681188403037E8 ; 1.5412114447811684E8 ; 0.0
16 ; 9666588.181397658 ; 1.0274742965207791E7 ; 1.4377629000431302E8 ; 1.6439588744332463E8 ; 0.0
17 ; 9679581.686747128 ; 1.0274742965207791E7 ; 1.5344287818571067E8 ; 1.746706304085324E8 ; 0.0
18 ; 9693615.614326216 ; 1.0274742965207791E7 ; 1.631224598724578E8 ; 1.849453733737402E8 ; 0.0
19 ; 9700869.626775661 ; 1.0274742965207791E7 ; 1.72816075486784E8 ; 1.9522011633894798E8 ; 0.0
20 ; 9717197.831141118 ; 1.0274742965207791E7 ; 1.8251694511355966E8 ; 2.0549485930415577E8 ; 0.0
21 ; 9725021.19980406 ; 1.0274742965207791E7 ; 1.9223414294470078E8 ; 2.1576960226936355E8 ; 0.0
22 ; 9736979.605840497 ; 1.0274742965207791E7 ; 2.0195916414450485E8 ; 2.2604434523457134E8 ; 0.0
23 ; 9748160.024190085 ; 1.0274742965207791E7 ; 2.1169614375034535E8 ; 2.3631908819977912E8 ; 0.0
24 ; 9757619.965750348 ; 1.0274742965207791E7 ; 2.2144430377453545E8 ; 2.465938311649869E8 ; 0.0
25 ; 9772591.482877024 ; 1.0274742965207791E7 ; 2.3120192374028578E8 ; 2.568685741301947E8 ; 0.0
26 ; 9781562.268992793 ; 1.0274742965207791E7 ; 2.409745152231628E8 ; 2.6714331709540248E8 ; 0.0
27 ; 9795051.70806563 ; 1.0274742965207791E7 ; 2.5075607749215558E8 ; 2.774180600606103E8 ; 0.0
28 ; 9803771.59923071 ; 1.0274742965207791E7 ; 2.605511292002212E8 ; 2.876928030258181E8 ; 0.0
29 ; 9814571.75757112 ; 1.0274742965207791E7 ; 2.7035490079945195E8 ; 2.979675459910259E8 ; 0.0
30 ; 9824774.030068139 ; 1.0274742965207791E7 ; 2.8016947255702305E8 ; 3.0824228895623374E8 ; 0.0
31 ; 9837981.490163801 ; 1.0274742965207791E7 ; 2.899942465870912E8 ; 3.1851703192144156E8 ; 0.0
32 ; 9846955.806775823 ; 1.0274742965207791E7 ; 2.99832228077255E8 ; 3.2879177488664937E8 ; 0.0
33 ; 9855891.494083207 ; 1.0274742965207791E7 ; 3.096791838840308E8 ; 3.390665178518572E8 ; 0.0
34 ; 9866494.770706145 ; 1.0274742965207791E7 ; 3.1953507537811404E8 ; 3.49341260817065E8 ; 0.0
35 ; 9874095.269580022 ; 1.0274742965207791E7 ; 3.2940157014882016E8 ; 3.596160037822728E8 ; 0.0
36 ; 9884685.365387045 ; 1.0274742965207791E7 ; 3.3927566541840017E8 ; 3.6989074674748063E8 ; 0.0
37 ; 9893902.356122505 ; 1.0274742965207791E7 ; 3.491603507837872E8 ; 3.8016548971268845E8 ; 0.0
38 ; 9902263.785318043 ; 1.0274742965207791E7 ; 3.590542531399097E8 ; 3.9044023267789626E8 ; 0.0
39 ; 9909798.816974396 ; 1.0274742965207791E7 ; 3.689565169252277E8 ; 4.007149756431041E8 ; 0.0
40 ; 9916548.823527526 ; 1.0274742965207791E7 ; 3.788663157422021E8 ; 4.109897186083119E8 ; 0.0
41 ; 9923566.075134687 ; 1.0274742965207791E7 ; 3.887828645657296E8 ; 4.212644615735197E8 ; 0.0
42 ; 9931751.67479084 ; 1.0274742965207791E7 ; 3.987064306408643E8 ; 4.315392045387275E8 ; 0.0
43 ; 9940445.204507401 ; 1.0274742965207791E7 ; 4.086381823156552E8 ; 4.4181394750393534E8 ; 0.0
44 ; 9943042.099548087 ; 1.0274742965207791E7 ; 4.185786275201626E8 ; 4.5208869046914315E8 ; 0.0
45 ; 9949223.45499869 ; 1.0274742965207791E7 ; 4.285216696197107E8 ; 4.6236343343435097E8 ; 0.0
46 ; 9952563.013492249 ; 1.0274742965207791E7 ; 4.3847089307470936E8 ; 4.726381763995588E8 ; 0.0
47 ; 9958182.693453738 ; 1.0274742965207791E7 ; 4.484234560882016E8 ; 4.829129193647666E8 ; 0.0
48 ; 9962235.758773595 ; 1.0274742965207791E7 ; 4.583816387816553E8 ; 4.931876623299744E8 ; 0.0
49 ; 9967430.471655117 ; 1.0274742965207791E7 ; 4.683438745404289E8 ; 5.034624052951822E8 ; 0.0
50 ; 9970101.138869192 ; 1.0274742965207791E7 ; 4.78311305012084E8 ; 5.1373714826039004E8 ; 0.0
51 ; 9973843.607442595 ; 1.0274742965207791E7 ; 4.882814061509532E8 ; 5.2401189122559786E8 ; 0.0
52 ; 9975301.016144037 ; 1.0274742965207791E7 ; 4.982552497583958E8 ; 5.342866341908057E8 ; 0.0
53 ; 9975911.841806106 ; 1.0274742965207791E7 ; 5.082305507745398E8 ; 5.445613771560135E8 ; 0.0
54 ; 9979897.877463128 ; 1.0274742965207791E7 ; 5.1820646261634594E8 ; 5.548361201212213E8 ; 0.0
55 ; 9984171.171153596 ; 1.0274742965207791E7 ; 5.2818636049380904E8 ; 5.651108630864291E8 ; 0.0
56 ; 9984454.613174947 ; 1.0274742965207791E7 ; 5.381705316649626E8 ; 5.753856060516369E8 ; 0.0
57 ; 9989597.323557416 ; 1.0274742965207791E7 ; 5.481549862781376E8 ; 5.856603490168447E8 ; 0.0
58 ; 9991917.029246522 ; 1.0274742965207791E7 ; 5.58144583601695E8 ; 5.959350919820526E8 ; 0.0
59 ; 9992528.154660853 ; 1.0274742965207791E7 ; 5.681365006309415E8 ; 6.062098349472604E8 ; 0.0
60 ; 9994571.409434455 ; 1.0274742965207791E7 ; 5.781290287856023E8 ; 6.164845779124682E8 ; 0.0
61 ; 9993751.204894261 ; 1.0274742965207791E7 ; 5.881236001950368E8 ; 6.26759320877676E8 ; 0.0
62 ; 1.0000074475477783E7 ; 1.0274742965207791E7 ; 5.981173513999311E8 ; 6.370340638428838E8 ; 0.0
63 ; 9999358.11697831 ; 1.0274742965207791E7 ; 6.081174258754089E8 ; 6.473088068080916E8 ; 0.0
64 ; 9996893.245094746 ; 1.0274742965207791E7 ; 6.181167839923872E8 ; 6.575835497732995E8 ; 0.0
65 ; 1.0002472904163646E7 ; 1.0274742965207791E7 ; 6.28113677237482E8 ; 6.678582927385073E8 ; 0.0
66 ; 1.0002631520219421E7 ; 1.0274742965207791E7 ; 6.381161501416456E8 ; 6.781330357037151E8 ; 0.0
67 ; 1.0006249149023913E7 ; 1.0274742965207791E7 ; 6.48118781661865E8 ; 6.884077786689229E8 ; 0.0
68 ; 1.0005224961022908E7 ; 1.0274742965207791E7 ; 6.581250308108889E8 ; 6.986825216341307E8 ; 0.0
69 ; 1.0005786807368897E7 ; 1.0274742965207791E7 ; 6.681302557719117E8 ; 7.089572645993385E8 ; 0.0
70 ; 1.000697860393107E7 ; 1.0274742965207791E7 ; 6.781360425792806E8 ; 7.192320075645463E8 ; 0.0
71 ; 1.0010748502120782E7 ; 1.0274742965207791E7 ; 6.881430211832117E8 ; 7.295067505297542E8 ; 0.0
72 ; 1.000982591315445E7 ; 1.0274742965207791E7 ; 6.981537696853324E8 ; 7.39781493494962E8 ; 0.0
73 ; 1.0012615800058749E7 ; 1.0274742965207791E7 ; 7.081635955984869E8 ; 7.500562364601698E8 ; 0.0
74 ; 1.0013510684606282E7 ; 1.0274742965207791E7 ; 7.181762113985456E8 ; 7.603309794253776E8 ; 0.0
75 ; 1.0012461998066613E7 ; 1.0274742965207791E7 ; 7.281897220831519E8 ; 7.706057223905854E8 ; 0.0
76 ; 1.0009746220052695E7 ; 1.0274742965207791E7 ; 7.382021840812186E8 ; 7.808804653557932E8 ; 0.0
77 ; 1.0011700200116016E7 ; 1.0274742965207791E7 ; 7.482119303012713E8 ; 7.91155208321001E8 ; 0.0
78 ; 1.0008022293597091E7 ; 1.0274742965207791E7 ; 7.582236305013874E8 ; 8.014299512862089E8 ; 0.0
79 ; 1.0004708664693607E7 ; 1.0274742965207791E7 ; 7.682316527949845E8 ; 8.117046942514167E8 ; 0.0
80 ; 1.0004095391784707E7 ; 1.0274742965207791E7 ; 7.78236361459678E8 ; 8.219794372166245E8 ; 0.0
81 ; 9999216.4813149 ; 1.0274742965207791E7 ; 7.882404568514627E8 ; 8.322541801818323E8 ; 0.0
82 ; 9997390.2041116 ; 1.0274742965207791E7 ; 7.982396733327776E8 ; 8.425289231470401E8 ; 0.0
83 ; 9994700.029161306 ; 1.0274742965207791E7 ; 8.082370635368892E8 ; 8.52803666112248E8 ; 0.0
84 ; 9988926.031595003 ; 1.0274742965207791E7 ; 8.182317635660505E8 ; 8.630784090774558E8 ; 0.0
85 ; 9988876.210074542 ; 1.0274742965207791E7 ; 8.282206895976455E8 ; 8.733531520426636E8 ; 0.0
86 ; 9984586.282375848 ; 1.0274742965207791E7 ; 8.382095658077201E8 ; 8.836278950078714E8 ; 0.0
87 ; 9979164.220322462 ; 1.0274742965207791E7 ; 8.481941520900959E8 ; 8.939026379730792E8 ; 0.0
88 ; 9975553.322312998 ; 1.0274742965207791E7 ; 8.581733163104184E8 ; 9.04177380938287E8 ; 0.0
89 ; 9973327.568577366 ; 1.0274742965207791E7 ; 8.681488696327313E8 ; 9.144521239034948E8 ; 0.0
90 ; 9966370.929818723 ; 1.0274742965207791E7 ; 8.781221972013087E8 ; 9.247268668687027E8 ; 0.0
91 ; 9960373.061210796 ; 1.0274742965207791E7 ; 8.880885681311275E8 ; 9.350016098339105E8 ; 0.0
92 ; 9962166.574697185 ; 1.0274742965207791E7 ; 8.980489411923382E8 ; 9.452763527991183E8 ; 0.0
93 ; 9957803.980728379 ; 1.0274742965207791E7 ; 9.080111077670354E8 ; 9.555510957643261E8 ; 0.0
94 ; 9952624.844779037 ; 1.0274742965207791E7 ; 9.179689117477638E8 ; 9.658258387295339E8 ; 0.0
95 ; 9946956.732327713 ; 1.0274742965207791E7 ; 9.279215365925428E8 ; 9.761005816947417E8 ; 0.0
96 ; 9942974.39556548 ; 1.0274742965207791E7 ; 9.378684933248705E8 ; 9.863753246599495E8 ; 0.0
97 ; 9936991.234644415 ; 1.0274742965207791E7 ; 9.47811467720436E8 ; 9.966500676251574E8 ; 0.0
98 ; 9934730.168163707 ; 1.0274742965207791E7 ; 9.577484589550804E8 ; 1.0069248105903652E9 ; 0.0
99 ; 9926573.289411074 ; 1.0274742965207791E7 ; 9.67683189123244E8 ; 1.017199553555573E9 ; 0.0
100 ; 9924406.587206125 ; 1.0274742965207791E7 ; 9.776097624126551E8 ; 1.0274742965207808E9 ; 0.0
101 ; 9918875.217507403 ; 1.0274742965207791E7 ; 9.875341689998612E8 ; 1.0377490394859886E9 ; 0.0
102 ; 9912396.799055295 ; 1.0274742965207791E7 ; 9.974530442173686E8 ; 1.0480237824511964E9 ; 0.0
103 ; 9910465.782144412 ; 1.0274742965207791E7 ; 1.007365441016424E9 ; 1.0582985254164042E9 ; 0.0
104 ; 9901560.168892141 ; 1.0274742965207791E7 ; 1.0172759067985684E9 ; 1.0685732683816121E9 ; 0.0
105 ; 9895978.533430217 ; 1.0274742965207791E7 ; 1.0271774669674605E9 ; 1.0788480113468199E9 ; 0.0
106 ; 9891003.00256422 ; 1.0274742965207791E7 ; 1.0370734455008907E9 ; 1.0891227543120277E9 ; 0.0
107 ; 9887467.397251118 ; 1.0274742965207791E7 ; 1.0469644485034549E9 ; 1.0993974972772355E9 ; 0.0
108 ; 9878049.291289443 ; 1.0274742965207791E7 ; 1.056851915900706E9 ; 1.1096722402424433E9 ; 0.0
109 ; 9872467.198939431 ; 1.0274742965207791E7 ; 1.0667299651919955E9 ; 1.1199469832076511E9 ; 0.0
110 ; 9867686.020417884 ; 1.0274742965207791E7 ; 1.076602432390935E9 ; 1.130221726172859E9 ; 0.0
111 ; 9864427.238348763 ; 1.0274742965207791E7 ; 1.0864701184113529E9 ; 1.1404964691380668E9 ; 0.0
112 ; 9853680.40831423 ; 1.0274742965207791E7 ; 1.0963345456497016E9 ; 1.1507712121032746E9 ; 0.0
113 ; 9851166.220088772 ; 1.0274742965207791E7 ; 1.1061882260580158E9 ; 1.1610459550684824E9 ; 0.0
114 ; 9842411.005757425 ; 1.0274742965207791E7 ; 1.1160393922781045E9 ; 1.1713206980336902E9 ; 0.0
115 ; 9834194.987340879 ; 1.0274742965207791E7 ; 1.1258818032838619E9 ; 1.181595440998898E9 ; 0.0
116 ; 9826543.924685717 ; 1.0274742965207791E7 ; 1.1357159982712028E9 ; 1.1918701839641058E9 ; 0.0
117 ; 9824811.102622977 ; 1.0274742965207791E7 ; 1.1455425421958885E9 ; 1.2021449269293137E9 ; 0.0
118 ; 9814803.560909817 ; 1.0274742965207791E7 ; 1.1553673532985115E9 ; 1.2124196698945215E9 ; 0.0
119 ; 9807650.006579706 ; 1.0274742965207791E7 ; 1.1651821568594213E9 ; 1.2226944128597293E9 ; 0.0
120 ; 9801983.098665658 ; 1.0274742965207791E7 ; 1.174989806866001E9 ; 1.232969155824937E9 ; 0.0
121 ; 9793100.837307641 ; 1.0274742965207791E7 ; 1.1847917899646666E9 ; 1.243243898790145E9 ; 0.0
122 ; 9786302.997953376 ; 1.0274742965207791E7 ; 1.1945848908019743E9 ; 1.2535186417553527E9 ; 0.0
123 ; 9780973.975844134 ; 1.0274742965207791E7 ; 1.2043711937999277E9 ; 1.2637933847205606E9 ; 0.0
124 ; 9769485.073639182 ; 1.0274742965207791E7 ; 1.2141521677757719E9 ; 1.2740681276857684E9 ; 0.0
125 ; 9762164.539998233 ; 1.0274742965207791E7 ; 1.223921652849411E9 ; 1.2843428706509762E9 ; 0.0
126 ; 9756178.824530244 ; 1.0274742965207791E7 ; 1.2336838173894093E9 ; 1.294617613616184E9 ; 0.0
127 ; 9749016.726671765 ; 1.0274742965207791E7 ; 1.2434399962139397E9 ; 1.3048923565813918E9 ; 0.0
128 ; 9741087.660472818 ; 1.0274742965207791E7 ; 1.2531890129406114E9 ; 1.3151670995465996E9 ; 0.0
129 ; 9731804.821851285 ; 1.0274742965207791E7 ; 1.2629301006010842E9 ; 1.3254418425118074E9 ; 0.0
130 ; 9722714.99203032 ; 1.0274742965207791E7 ; 1.2726619054229355E9 ; 1.3357165854770153E9 ; 0.0
131 ; 9713492.431010388 ; 1.0274742965207791E7 ; 1.2823846204149659E9 ; 1.345991328442223E9 ; 0.0
132 ; 9702259.783556916 ; 1.0274742965207791E7 ; 1.2920981128459764E9 ; 1.356266071407431E9 ; 0.0
133 ; 9693598.33790925 ; 1.0274742965207791E7 ; 1.3018003726295333E9 ; 1.3665408143726387E9 ; 0.0
134 ; 9680171.58491192 ; 1.0274742965207791E7 ; 1.3114939709674425E9 ; 1.3768155573378465E9 ; 0.0
135 ; 9667715.843866244 ; 1.0274742965207791E7 ; 1.3211741425523543E9 ; 1.3870903003030543E9 ; 0.0
136 ; 9655372.202615995 ; 1.0274742965207791E7 ; 1.3308418583962207E9 ; 1.3973650432682621E9 ; 0.0
137 ; 9646078.820740666 ; 1.0274742965207791E7 ; 1.3404972305988367E9 ; 1.40763978623347E9 ; 0.0
138 ; 9633615.372340716 ; 1.0274742965207791E7 ; 1.3501433094195774E9 ; 1.4179145291986778E9 ; 0.0
139 ; 9619524.974204578 ; 1.0274742965207791E7 ; 1.359776924791918E9 ; 1.4281892721638856E9 ; 0.0
140 ; 9609909.597258996 ; 1.0274742965207791E7 ; 1.3693964497661226E9 ; 1.4384640151290934E9 ; 0.0
141 ; 9597820.478290299 ; 1.0274742965207791E7 ; 1.3790063593633816E9 ; 1.4487387580943012E9 ; 0.0
142 ; 9585065.776442057 ; 1.0274742965207791E7 ; 1.388604179841672E9 ; 1.459013501059509E9 ; 0.0
143 ; 9571595.55509044 ; 1.0274742965207791E7 ; 1.398189245618114E9 ; 1.4692882440247169E9 ; 0.0
144 ; 9560721.932958137 ; 1.0274742965207791E7 ; 1.4077608411732044E9 ; 1.4795629869899247E9 ; 0.0
145 ; 9551824.834366772 ; 1.0274742965207791E7 ; 1.4173215631061625E9 ; 1.4898377299551325E9 ; 0.0
146 ; 9542544.849662807 ; 1.0274742965207791E7 ; 1.4268733879405293E9 ; 1.5001124729203403E9 ; 0.0
147 ; 9536187.633982835 ; 1.0274742965207791E7 ; 1.4364159327901921E9 ; 1.510387215885548E9 ; 0.0
148 ; 9525597.706455765 ; 1.0274742965207791E7 ; 1.445952120424175E9 ; 1.520661958850756E9 ; 0.0
149 ; 9518571.065898532 ; 1.0274742965207791E7 ; 1.4554777181306307E9 ; 1.5309367018159637E9 ; 0.0
150 ; 9509968.635562409 ; 1.0274742965207791E7 ; 1.4649962891965292E9 ; 1.5412114447811716E9 ; 0.0
151 ; 9503464.496446058 ; 1.0274742965207791E7 ; 1.4745062578320916E9 ; 1.5514861877463794E9 ; 0.0
152 ; 9492795.126126066 ; 1.0274742965207791E7 ; 1.4840097223285377E9 ; 1.5617609307115872E9 ; 0.0
153 ; 9486306.712968098 ; 1.0274742965207791E7 ; 1.4935025174546638E9 ; 1.572035673676795E9 ; 0.0
154 ; 9477404.109664967 ; 1.0274742965207791E7 ; 1.5029888241676319E9 ; 1.5823104166420028E9 ; 0.0
155 ; 9466508.73690958 ; 1.0274742965207791E7 ; 1.5124662282772968E9 ; 1.5925851596072106E9 ; 0.0
156 ; 9460373.276299477 ; 1.0274742965207791E7 ; 1.5219327370142064E9 ; 1.6028599025724185E9 ; 0.0
157 ; 9450958.442098683 ; 1.0274742965207791E7 ; 1.531393110290506E9 ; 1.6131346455376263E9 ; 0.0
158 ; 9440728.91031103 ; 1.0274742965207791E7 ; 1.5408440687326045E9 ; 1.623409388502834E9 ; 0.0
159 ; 9430381.76386788 ; 1.0274742965207791E7 ; 1.5502847976429155E9 ; 1.633684131468042E9 ; 0.0
160 ; 9423821.310968883 ; 1.0274742965207791E7 ; 1.5597151794067833E9 ; 1.6439588744332497E9 ; 0.0
161 ; 9413180.646897564 ; 1.0274742965207791E7 ; 1.5691390007177522E9 ; 1.6542336173984575E9 ; 0.0
162 ; 9405193.016625466 ; 1.0274742965207791E7 ; 1.5785521813646498E9 ; 1.6645083603636653E9 ; 0.0
163 ; 9394195.644658526 ; 1.0274742965207791E7 ; 1.5879573743812752E9 ; 1.6747831033288732E9 ; 0.0
164 ; 9384659.374281127 ; 1.0274742965207791E7 ; 1.5973515700259337E9 ; 1.685057846294081E9 ; 0.0
165 ; 9376308.30222095 ; 1.0274742965207791E7 ; 1.606736229400215E9 ; 1.6953325892592888E9 ; 0.0
166 ; 9365873.810196256 ; 1.0274742965207791E7 ; 1.616112537702436E9 ; 1.7056073322244966E9 ; 0.0
167 ; 9358601.424480615 ; 1.0274742965207791E7 ; 1.6254784115126321E9 ; 1.7158820751897044E9 ; 0.0
168 ; 9347549.243198896 ; 1.0274742965207791E7 ; 1.6348370129371128E9 ; 1.7261568181549122E9 ; 0.0
169 ; 9341590.022157647 ; 1.0274742965207791E7 ; 1.6441845621803117E9 ; 1.73643156112012E9 ; 0.0
170 ; 9326979.070139786 ; 1.0274742965207791E7 ; 1.6535261522024693E9 ; 1.7467063040853279E9 ; 0.0
171 ; 9321582.413155517 ; 1.0274742965207791E7 ; 1.6628531312726092E9 ; 1.7569810470505357E9 ; 0.0
172 ; 9310141.944639955 ; 1.0274742965207791E7 ; 1.6721747136857648E9 ; 1.7672557900157435E9 ; 0.0
173 ; 9300523.851673674 ; 1.0274742965207791E7 ; 1.6814848556304047E9 ; 1.7775305329809513E9 ; 0.0
174 ; 9294106.860048711 ; 1.0274742965207791E7 ; 1.6907853794820783E9 ; 1.7878052759461591E9 ; 0.0
175 ; 9286462.68970657 ; 1.0274742965207791E7 ; 1.700079486342127E9 ; 1.798080018911367E9 ; 0.0
176 ; 9283831.020967262 ; 1.0274742965207791E7 ; 1.7093659490318336E9 ; 1.8083547618765748E9 ; 0.0
177 ; 9279715.483781636 ; 1.0274742965207791E7 ; 1.718649780052801E9 ; 1.8186295048417826E9 ; 0.0
178 ; 9275476.19368719 ; 1.0274742965207791E7 ; 1.7279294955365825E9 ; 1.8289042478069904E9 ; 0.0
179 ; 9267601.226621443 ; 1.0274742965207791E7 ; 1.7372049717302697E9 ; 1.8391789907721982E9 ; 0.0
180 ; 9263932.227966828 ; 1.0274742965207791E7 ; 1.746472572956891E9 ; 1.849453733737406E9 ; 0.0
181 ; 9254332.267463176 ; 1.0274742965207791E7 ; 1.7557365051848578E9 ; 1.8597284767026138E9 ; 0.0
182 ; 9250692.127478054 ; 1.0274742965207791E7 ; 1.764990837452321E9 ; 1.8700032196678216E9 ; 0.0
183 ; 9244103.797345195 ; 1.0274742965207791E7 ; 1.7742415295797992E9 ; 1.8802779626330295E9 ; 0.0
184 ; 9239804.779663572 ; 1.0274742965207791E7 ; 1.7834856333771443E9 ; 1.8905527055982373E9 ; 0.0
185 ; 9231475.699667985 ; 1.0274742965207791E7 ; 1.792725438156808E9 ; 1.900827448563445E9 ; 0.0
186 ; 9229350.157169597 ; 1.0274742965207791E7 ; 1.8019569138564758E9 ; 1.911102191528653E9 ; 0.0
187 ; 9221671.820097724 ; 1.0274742965207791E7 ; 1.8111862640136454E9 ; 1.9213769344938607E9 ; 0.0
188 ; 9216008.452441413 ; 1.0274742965207791E7 ; 1.820407935833743E9 ; 1.9316516774590685E9 ; 0.0
189 ; 9209619.462332172 ; 1.0274742965207791E7 ; 1.8296239442861845E9 ; 1.9419264204242764E9 ; 0.0
190 ; 9205557.201778753 ; 1.0274742965207791E7 ; 1.8388335637485168E9 ; 1.9522011633894842E9 ; 0.0
191 ; 9198118.54784992 ; 1.0274742965207791E7 ; 1.8480391209502954E9 ; 1.962475906354692E9 ; 0.0
192 ; 9195005.565411232 ; 1.0274742965207791E7 ; 1.8572372394981453E9 ; 1.9727506493198998E9 ; 0.0
193 ; 9186890.320820851 ; 1.0274742965207791E7 ; 1.8664322450635567E9 ; 1.9830253922851076E9 ; 0.0
194 ; 9180737.901917543 ; 1.0274742965207791E7 ; 1.8756191353843775E9 ; 1.9933001352503154E9 ; 0.0
195 ; 9178086.57337781 ; 1.0274742965207791E7 ; 1.884799873286295E9 ; 2.0035748782155232E9 ; 0.0
196 ; 9169341.80776618 ; 1.0274742965207791E7 ; 1.8939779598596728E9 ; 2.013849621180731E9 ; 0.0
197 ; 9166143.960783783 ; 1.0274742965207791E7 ; 1.903147301667439E9 ; 2.0241243641459389E9 ; 0.0
198 ; 9159170.689395048 ; 1.0274742965207791E7 ; 1.9123134456282227E9 ; 2.0343991071111467E9 ; 0.0
199 ; 9154736.743626183 ; 1.0274742965207791E7 ; 1.9214726163176177E9 ; 2.0446738500763545E9 ; 0.0
200 ; 9149481.655424709 ; 1.0274742965207791E7 ; 1.9306273530612438E9 ; 2.0549485930415623E9 ; 0.0
201 ; 9143523.666777492 ; 1.0274742965207791E7 ; 1.9397768347166684E9 ; 2.0652233360067701E9 ; 0.0
