CSV File for the City 1 on Day 309
1 - Minute m 
2 - Power Consumed at minute m 
3 - Power Produced at minute m 
4 - Energy Consumed since the beginning of the day 
5 - Energy Produced since the beginning of the day 
6 - Energy Lost since the beginning of the day on lines starting from the city
 
0 ; 1.6250130858883338E7 ; 1.0579952708995906E8 ; 0.0 ; 0.0 ; 0.0
1 ; 1.6265546828304976E7 ; 1.0595237373967332E8 ; 1.6250130858883338E7 ; 1.0579952708995906E8 ; 0.0
2 ; 1.628010947300091E7 ; 1.0641401435585395E8 ; 3.2515677687188312E7 ; 2.1175190082963237E8 ; 0.0
3 ; 1.6308579802393163E7 ; 1.0718444999019867E8 ; 4.8795787160189226E7 ; 3.181659151854863E8 ; 0.0
4 ; 1.6328952823648483E7 ; 1.0826368157982844E8 ; 6.510436696258239E7 ; 4.25350365175685E8 ; 0.0
5 ; 1.6360143688410034E7 ; 1.0965170994394702E8 ; 8.143331978623086E7 ; 5.336140467555134E8 ; 0.0
6 ; 1.6399642309005348E7 ; 1.1134853578088579E8 ; 9.779346347464089E7 ; 6.432657566994605E8 ; 0.0
7 ; 1.6454795073176699E7 ; 1.1335415966555864E8 ; 1.1419310578364624E8 ; 7.546142924803463E8 ; 0.0
8 ; 1.65353581433511E7 ; 1.1566858204734838E8 ; 1.3064790085682294E8 ; 8.67968452145905E8 ; 0.0
9 ; 1.6649765919024004E7 ; 1.182918032484436E8 ; 1.4718325900017405E8 ; 9.836370341932534E8 ; 0.0
10 ; 1.683559340362838E7 ; 1.2122382346263993E8 ; 1.6383302491919804E8 ; 1.1019288374416971E9 ; 0.0
11 ; 1.7120989364123475E7 ; 1.2446464275461647E8 ; 1.8066861832282642E8 ; 1.223152660904337E9 ; 0.0
12 ; 1.7586996395987995E7 ; 1.2801426105969408E8 ; 1.9778960768694988E8 ; 1.3476173036589534E9 ; 0.0
13 ; 1.8033499901143275E7 ; 1.3187267818407714E8 ; 2.1537660408293787E8 ; 1.4756315647186475E9 ; 0.0
14 ; 1.808723303283375E7 ; 1.3603989380557716E8 ; 2.3341010398408115E8 ; 1.6075042429027247E9 ; 0.0
15 ; 1.8109423987912312E7 ; 1.405159074748112E8 ; 2.514973370169149E8 ; 1.743544136708302E9 ; 0.0
16 ; 1.8130678024587926E7 ; 1.453007186168655E8 ; 2.696067610048272E8 ; 1.884060044183113E9 ; 0.0
17 ; 1.8156066937004115E7 ; 1.5039432653340855E8 ; 2.8773743902941513E8 ; 2.0293607627999785E9 ; 0.0
18 ; 1.817666247464495E7 ; 1.5579673040523666E8 ; 3.058935059664192E8 ; 2.179755089333387E9 ; 0.0
19 ; 1.8201210058914766E7 ; 1.6150792929522887E8 ; 3.240701684410642E8 ; 2.3355518197386236E9 ; 0.0
20 ; 1.82202644466975E7 ; 1.675279221516874E8 ; 3.4227137849997896E8 ; 2.4970597490338526E9 ; 0.0
21 ; 1.8243758330183513E7 ; 1.738567078120356E8 ; 3.6049164294667643E8 ; 2.66458767118554E9 ; 0.0
22 ; 1.8269736420560025E7 ; 1.8049428500684243E8 ; 3.7873540127685994E8 ; 2.8384443789975758E9 ; 0.0
23 ; 1.828711825596058E7 ; 1.874406523641436E8 ; 3.9700513769741994E8 ; 3.0189386640044184E9 ; 0.0
24 ; 1.8316534012651205E7 ; 1.946958084140234E8 ; 4.152922559533805E8 ; 3.2063793163685617E9 ; 0.0
25 ; 1.8339098183729913E7 ; 2.009477924916078E8 ; 4.3360878996603173E8 ; 3.401075124782585E9 ; 0.0
26 ; 1.8354892044304702E7 ; 2.0095015077896222E8 ; 4.519478881497616E8 ; 3.602022917274193E9 ; 0.0
27 ; 1.8380552658995178E7 ; 2.0095265083515328E8 ; 4.7030278019406635E8 ; 3.802973068053155E9 ; 0.0
28 ; 1.8399399900063705E7 ; 2.0095529084830147E8 ; 4.886833328530615E8 ; 4.003925718888308E9 ; 0.0
29 ; 1.8426229211462155E7 ; 2.0095806893419403E8 ; 5.070827327531252E8 ; 4.2048810097366095E9 ; 0.0
30 ; 1.844178225197723E7 ; 2.0096098314170644E8 ; 5.2550896196458733E8 ; 4.405839078670803E9 ; 0.0
31 ; 1.844425468479916E7 ; 2.009640314582453E8 ; 5.439507442165645E8 ; 4.60680006181251E9 ; 0.0
32 ; 1.8441074916587397E7 ; 2.0096721181518215E8 ; 5.623949989013637E8 ; 4.807764093270755E9 ; 0.0
33 ; 1.844296891196179E7 ; 2.0097052209324938E8 ; 5.808360738179511E8 ; 5.008731305085937E9 ; 0.0
34 ; 1.844155152673717E7 ; 2.0097396012787104E8 ; 5.992790427299129E8 ; 5.209701827179186E9 ; 0.0
35 ; 1.8438257817770313E7 ; 2.0097752371440426E8 ; 6.177205942566501E8 ; 5.410675787307056E9 ; 0.0
36 ; 1.843749361548212E7 ; 2.009812106132681E8 ; 6.361588520744205E8 ; 5.611653311021461E9 ; 0.0
37 ; 1.844143775385967E7 ; 2.0098501855494058E8 ; 6.545963456899025E8 ; 5.812634521634728E9 ; 0.0
38 ; 1.8431901849173214E7 ; 2.009889452448049E8 ; 6.730377834437622E8 ; 6.013619540189669E9 ; 0.0
39 ; 1.8429051779238302E7 ; 2.0099298836783046E8 ; 6.914696852929354E8 ; 6.214608485434474E9 ; 0.0
40 ; 1.8422548689131152E7 ; 2.0099714559307462E8 ; 7.098987370721737E8 ; 6.415601473802304E9 ; 0.0
41 ; 1.8415951107570093E7 ; 2.0100141457799476E8 ; 7.283212857613049E8 ; 6.616598619395379E9 ; 0.0
42 ; 1.8412342679333743E7 ; 2.0100579297256163E8 ; 7.467372368688749E8 ; 6.817600033973373E9 ; 0.0
43 ; 1.8407947747894637E7 ; 2.0101027842316747E8 ; 7.651495795482086E8 ; 7.018605826945935E9 ; 0.0
44 ; 1.839987241370758E7 ; 2.010148685763238E8 ; 7.835575272961032E8 ; 7.2196161053691025E9 ; 0.0
45 ; 1.839311477997602E7 ; 2.010195610821465E8 ; 8.019573997098109E8 ; 7.420630973945426E9 ; 0.0
46 ; 1.8383916383039303E7 ; 2.0102435359762624E8 ; 8.203505144897869E8 ; 7.621650535027573E9 ; 0.0
47 ; 1.8375848668936133E7 ; 2.010292437896852E8 ; 8.387344308728262E8 ; 7.822674888625199E9 ; 0.0
48 ; 1.836465968387811E7 ; 2.0103422933802113E8 ; 8.571102795417624E8 ; 8.023704132414885E9 ; 0.0
49 ; 1.8351632925768893E7 ; 2.0103930793774217E8 ; 8.754749392256404E8 ; 8.224738361752906E9 ; 0.0
50 ; 1.8343734654129982E7 ; 2.0104447730179593E8 ; 8.938265721514093E8 ; 8.425777669690648E9 ; 0.0
51 ; 1.8329834239478167E7 ; 2.010497351631982E8 ; 9.121703068055393E8 ; 8.626822146992443E9 ; 0.0
52 ; 1.831667946947775E7 ; 2.0105507927706674E8 ; 9.305001410450174E8 ; 8.827871882155642E9 ; 0.0
53 ; 1.8300732015873026E7 ; 2.010605074224667E8 ; 9.488168205144951E8 ; 9.028926961432709E9 ; 0.0
54 ; 1.8286566333282363E7 ; 2.0106601740407464E8 ; 9.671175525303682E8 ; 9.229987468855175E9 ; 0.0
55 ; 1.8275938742613185E7 ; 2.0107160705366844E8 ; 9.854041188636506E8 ; 9.431053486259249E9 ; 0.0
56 ; 1.8262876945916615E7 ; 2.010772742314511E8 ; 1.0036800576062638E9 ; 9.632125093312918E9 ; 0.0
57 ; 1.8246385983181726E7 ; 2.0108301682721636E8 ; 1.0219429345521804E9 ; 9.833202367544369E9 ; 0.0
58 ; 1.8237612727252632E7 ; 2.01088832761364E8 ; 1.0401893205353621E9 ; 1.0034285384371586E10 ; 0.0
59 ; 1.8222879675570816E7 ; 2.0109471998577365E8 ; 1.0584269332626147E9 ; 1.023537421713295E10 ; 0.0
60 ; 1.8208417222875588E7 ; 2.0110067648454458E8 ; 1.0766498129381855E9 ; 1.0436468937118723E10 ; 0.0
61 ; 1.8195464872574113E7 ; 2.0110670027461037E8 ; 1.094858230161061E9 ; 1.0637569613603268E10 ; 0.0
62 ; 1.8178506088439953E7 ; 2.0111278940623602E8 ; 1.1130536950336351E9 ; 1.0838676313877878E10 ; 0.0
63 ; 1.8159494044922136E7 ; 2.011189419634057E8 ; 1.131232201122075E9 ; 1.1039789103284115E10 ; 0.0
64 ; 1.815263206394742E7 ; 2.0112515606410858E8 ; 1.1493916951669972E9 ; 1.124090804524752E10 ; 0.0
65 ; 1.813405210708424E7 ; 2.0113142986053044E8 ; 1.1675443272309446E9 ; 1.1442033201311628E10 ; 0.0
66 ; 1.812258779433748E7 ; 2.0113776153915825E8 ; 1.185678379338029E9 ; 1.164316463117216E10 ; 0.0
67 ; 1.8106428985478636E7 ; 2.0114414932080457E8 ; 1.2038009671323664E9 ; 1.1844302392711317E10 ; 0.0
68 ; 1.8090961508151844E7 ; 2.011505914605584E8 ; 1.221907396117845E9 ; 1.2045446542032122E10 ; 0.0
69 ; 1.8079778577207763E7 ; 2.011570862476692E8 ; 1.2399983576259968E9 ; 1.224659713349268E10 ; 0.0
70 ; 1.8062243885450136E7 ; 2.0116363200536928E8 ; 1.2580781362032046E9 ; 1.2447754219740349E10 ; 0.0
71 ; 1.8044161107362017E7 ; 2.0117022709064165E8 ; 1.2761403800886548E9 ; 1.2648917851745718E10 ; 0.0
72 ; 1.8030307332657725E7 ; 2.0117686989393714E8 ; 1.2941845411960168E9 ; 1.2850088078836359E10 ; 0.0
73 ; 1.801579904140315E7 ; 2.011835588388474E8 ; 1.3122148485286746E9 ; 1.3051264948730297E10 ; 0.0
74 ; 1.79984049391451E7 ; 2.0119029238173735E8 ; 1.3302306475700777E9 ; 1.3252448507569145E10 ; 0.0
75 ; 1.798138901909056E7 ; 2.011970690113425E8 ; 1.3482290525092227E9 ; 1.3453638799950882E10 ; 0.0
76 ; 1.7962220682733595E7 ; 2.0120388724833474E8 ; 1.3662104415283134E9 ; 1.3654835868962225E10 ; 0.0
77 ; 1.794701449688382E7 ; 2.0121074564486098E8 ; 1.384172662211047E9 ; 1.385603975621056E10 ; 0.0
78 ; 1.7925375304806165E7 ; 2.0121764278405786E8 ; 1.4021196767079308E9 ; 1.4057250501855421E10 ; 0.0
79 ; 1.7898902659178827E7 ; 2.0122457727954614E8 ; 1.420045052012737E9 ; 1.4258468144639479E10 ; 0.0
80 ; 1.7879113418909524E7 ; 2.012315477749081E8 ; 1.4379439546719158E9 ; 1.4459692721919025E10 ; 0.0
81 ; 1.7858552179985296E7 ; 2.0123855294315022E8 ; 1.4558230680908253E9 ; 1.4660924269693933E10 ; 0.0
82 ; 1.7832807182811417E7 ; 2.012455914861547E8 ; 1.4736816202708106E9 ; 1.4862162822637083E10 ; 0.0
83 ; 1.7810265597232882E7 ; 2.012526621341213E8 ; 1.491514427453622E9 ; 1.5063408414123238E10 ; 0.0
84 ; 1.7791369634063028E7 ; 2.012597636450025E8 ; 1.509324693050855E9 ; 1.5264661076257359E10 ; 0.0
85 ; 1.77629829575269E7 ; 2.012668948039336E8 ; 1.527116062684918E9 ; 1.546592083990236E10 ; 0.0
86 ; 1.7744887640210234E7 ; 2.012740544226597E8 ; 1.5448790456424448E9 ; 1.5667187734706295E10 ; 0.0
87 ; 1.7723933391535826E7 ; 2.0128124133896148E8 ; 1.562623933282655E9 ; 1.5868461789128954E10 ; 0.0
88 ; 1.769599836170787E7 ; 2.01288454416081E8 ; 1.5803478666741908E9 ; 1.6069743030467915E10 ; 0.0
89 ; 1.7672159878372993E7 ; 2.012956925421489E8 ; 1.5980438650358987E9 ; 1.6271031484883995E10 ; 0.0
90 ; 1.7651330422277007E7 ; 2.0130295462961456E8 ; 1.6157160249142716E9 ; 1.6472327177426144E10 ; 0.0
91 ; 1.7622552434574623E7 ; 2.013102396146802E8 ; 1.6333673553365486E9 ; 1.6673630132055758E10 ; 0.0
92 ; 1.7598178713777423E7 ; 2.013175464567395E8 ; 1.6509899077711232E9 ; 1.6874940371670437E10 ; 0.0
93 ; 1.757839057281583E7 ; 2.0132487413782224E8 ; 1.6685880864849005E9 ; 1.7076257918127176E10 ; 0.0
94 ; 1.7555114344422974E7 ; 2.0133222166204557E8 ; 1.6861664770577164E9 ; 1.7277582792265E10 ; 0.0
95 ; 1.7524283454747256E7 ; 2.0133958805507198E8 ; 1.7037215914021394E9 ; 1.7478915013927044E10 ; 0.0
96 ; 1.7500701564772714E7 ; 2.013469723635756E8 ; 1.7212458748568866E9 ; 1.7680254601982117E10 ; 0.0
97 ; 1.7474769007731024E7 ; 2.0135437365471658E8 ; 1.7387465764216592E9 ; 1.788160157434569E10 ; 0.0
98 ; 1.7450910125410013E7 ; 2.01361791015624E8 ; 1.7562213454293902E9 ; 1.808295594800041E10 ; 0.0
99 ; 1.742912099729357E7 ; 2.0136922355288827E8 ; 1.7736722555548003E9 ; 1.8284317739016033E10 ; 0.0
100 ; 1.7405476431146685E7 ; 2.0137667039206278E8 ; 1.7911013765520937E9 ; 1.848568696256892E10 ; 0.0
101 ; 1.7378356832211964E7 ; 2.013841306771751E8 ; 1.8085068529832404E9 ; 1.8687063632960983E10 ; 0.0
102 ; 1.7354411763382927E7 ; 2.0139160357024816E8 ; 1.8258852098154523E9 ; 1.8888447763638157E10 ; 0.0
103 ; 1.7321697761824246E7 ; 2.013990882508314E8 ; 1.8432396215788352E9 ; 1.9089839367208405E10 ; 0.0
104 ; 1.7296081382022873E7 ; 2.0140658391554224E8 ; 1.8605613193406594E9 ; 1.9291238455459236E10 ; 0.0
105 ; 1.7271703186896373E7 ; 2.0141408977761745E8 ; 1.8778574007226822E9 ; 1.949264503937478E10 ; 0.0
106 ; 1.724359237199056E7 ; 2.014216050664749E8 ; 1.8951291039095786E9 ; 1.9694059129152397E10 ; 0.0
107 ; 1.722161049191705E7 ; 2.0142912902728567E8 ; 1.912372696281569E9 ; 1.9895480734218872E10 ; 0.0
108 ; 1.718931695380478E7 ; 2.0143666092055616E8 ; 1.9295943067734861E9 ; 2.009690986324616E10 ; 0.0
109 ; 1.7167672098785438E7 ; 2.0144420002172062E8 ; 1.9467836237272909E9 ; 2.0298346524166714E10 ; 0.0
110 ; 1.7141872660157107E7 ; 2.0145174562074363E8 ; 1.9639512958260763E9 ; 2.0499790724188435E10 ; 0.0
111 ; 1.7111675200883616E7 ; 2.0145929702173263E8 ; 1.9810931684862335E9 ; 2.0701242469809177E10 ; 0.0
112 ; 1.7084523249530394E7 ; 2.0146685354256043E8 ; 1.998204843687117E9 ; 2.090270176683091E10 ; 0.0
113 ; 1.706028475165276E7 ; 2.0147441451449755E8 ; 2.0152893669366474E9 ; 2.110416862037347E10 ; 0.0
114 ; 1.7029872656045433E7 ; 2.0148197928185415E8 ; 2.0323496516883001E9 ; 2.1305643034887966E10 ; 0.0
115 ; 1.7005234997288372E7 ; 2.0148954720163152E8 ; 2.0493795243443456E9 ; 2.150712501416982E10 ; 0.0
116 ; 1.697394328190666E7 ; 2.0149711764318296E8 ; 2.066384759341634E9 ; 2.170861456137145E10 ; 0.0
117 ; 1.6947589984437805E7 ; 2.0150468998788399E8 ; 2.0833587026235406E9 ; 2.1910111679014633E10 ; 0.0
118 ; 1.6919958852181215E7 ; 2.0151226362881133E8 ; 2.1003062926079783E9 ; 2.2111616369002518E10 ; 0.0
119 ; 1.689135568204924E7 ; 2.0151983797043112E8 ; 2.1172262514601595E9 ; 2.231312863263133E10 ; 0.0
120 ; 1.6860478145479843E7 ; 2.0152741242829543E8 ; 2.1341176071422088E9 ; 2.251464847060176E10 ; 0.0
121 ; 1.683470334357823E7 ; 2.015349864287478E8 ; 2.1509780852876887E9 ; 2.2716175883030056E10 ; 0.0
122 ; 1.680334167955948E7 ; 2.0154255940863654E8 ; 2.167812788631267E9 ; 2.2917710869458805E10 ; 0.0
123 ; 1.6775958577747911E7 ; 2.0155013081503662E8 ; 2.184616130310827E9 ; 2.3119253428867443E10 ; 0.0
124 ; 1.6746426785477046E7 ; 2.0155770010497937E8 ; 2.2013920888885746E9 ; 2.332080355968248E10 ; 0.0
125 ; 1.6717330899544938E7 ; 2.0156526674518982E8 ; 2.218138515674052E9 ; 2.352236125978746E10 ; 0.0
126 ; 1.6690866105855446E7 ; 2.015728302118319E8 ; 2.2348558465735965E9 ; 2.372392652653265E10 ; 0.0
127 ; 1.6660979768066904E7 ; 2.0158038999026078E8 ; 2.251546712679452E9 ; 2.392549935674448E10 ; 0.0
128 ; 1.6630069976478785E7 ; 2.0158794557478252E8 ; 2.268207692447519E9 ; 2.412707974673474E10 ; 0.0
129 ; 1.659917081994988E7 ; 2.0159549646842077E8 ; 2.2848377624239974E9 ; 2.4328667692309525E10 ; 0.0
130 ; 1.65667151971045E7 ; 2.0160304218269035E8 ; 2.3014369332439475E9 ; 2.4530263188777946E10 ; 0.0
131 ; 1.6532383036430657E7 ; 2.016105822373773E8 ; 2.318003648441052E9 ; 2.4731866230960636E10 ; 0.0
132 ; 1.6491952616072634E7 ; 2.016181161603256E8 ; 2.334536031477483E9 ; 2.4933476813198013E10 ; 0.0
133 ; 1.6456582383808319E7 ; 2.0162564348723012E8 ; 2.3510279840935555E9 ; 2.5135094929358337E10 ; 0.0
134 ; 1.6423789683966221E7 ; 2.0163316376143575E8 ; 2.3674845664773636E9 ; 2.5336720572845566E10 ; 0.0
135 ; 1.6384246311350146E7 ; 2.0164067653374246E8 ; 2.3839083561613297E9 ; 2.5538353736607002E10 ; 0.0
136 ; 1.6350299596517783E7 ; 2.01648181362216E8 ; 2.40029260247268E9 ; 2.5739994413140743E10 ; 0.0
137 ; 1.6315183724391745E7 ; 2.0165567781200457E8 ; 2.4166429020691977E9 ; 2.594164259450296E10 ; 0.0
138 ; 1.6272843926435588E7 ; 2.0166316545516065E8 ; 2.4329580857935896E9 ; 2.6143298272314964E10 ; 0.0
139 ; 1.6240252356969595E7 ; 2.0167064387046832E8 ; 2.449230929720025E9 ; 2.6344961437770126E10 ; 0.0
140 ; 1.6205179323516656E7 ; 2.016781126432756E8 ; 2.465471182076995E9 ; 2.6546632081640594E10 ; 0.0
141 ; 1.6168636087111834E7 ; 2.0168557136533186E8 ; 2.4816763614005117E9 ; 2.674831019428387E10 ; 0.0
142 ; 1.6127484188688174E7 ; 2.016930196346303E8 ; 2.4978449974876237E9 ; 2.6949995765649204E10 ; 0.0
143 ; 1.6096273776233964E7 ; 2.0170045705525464E8 ; 2.513972481676312E9 ; 2.7151688785283836E10 ; 0.0
144 ; 1.6059370418268075E7 ; 2.017078832372309E8 ; 2.530068755452546E9 ; 2.7353389242339092E10 ; 0.0
145 ; 1.6023325874592213E7 ; 2.0171529779638335E8 ; 2.5461281258708143E9 ; 2.7555097125576324E10 ; 0.0
146 ; 1.5992000076162582E7 ; 2.0172270035419488E8 ; 2.5621514517454066E9 ; 2.7756812423372707E10 ; 0.0
147 ; 1.5967327761490595E7 ; 2.0173009053767142E8 ; 2.5781434518215694E9 ; 2.7958535123726902E10 ; 0.0
148 ; 1.5932998373188451E7 ; 2.0173746797921044E8 ; 2.5941107795830603E9 ; 2.8160265214264572E10 ; 0.0
149 ; 1.5901790246138303E7 ; 2.0174483231647366E8 ; 2.6100437779562488E9 ; 2.8362002682243782E10 ; 0.0
150 ; 1.5873583097148327E7 ; 2.0175218319226313E8 ; 2.625945568202387E9 ; 2.8563747514560257E10 ; 0.0
151 ; 1.5838328573307756E7 ; 2.0175952025440124E8 ; 2.6418191512995353E9 ; 2.876549969775252E10 ; 0.0
152 ; 1.5809086264476873E7 ; 2.0176684315561435E8 ; 2.6576574798728433E9 ; 2.8967259218006924E10 ; 0.0
153 ; 1.5779842943960976E7 ; 2.017741515534198E8 ; 2.67346656613732E9 ; 2.9169026061162537E10 ; 0.0
154 ; 1.5749165007452095E7 ; 2.0178144511001635E8 ; 2.689246409081281E9 ; 2.9370800212715958E10 ; 0.0
155 ; 1.5715583962444669E7 ; 2.0178872349217775E8 ; 2.704995574088733E9 ; 2.9572581657825974E10 ; 0.0
156 ; 1.5684388614442283E7 ; 2.0179598637114975E8 ; 2.720711158051178E9 ; 2.977437038131815E10 ; 0.0
157 ; 1.5659066605932062E7 ; 2.0180323342254978E8 ; 2.7363955466656203E9 ; 2.99761663676893E10 ; 0.0
158 ; 1.5624743242306959E7 ; 2.0181046432627E8 ; 2.7520546132715526E9 ; 3.017796960111185E10 ; 0.0
159 ; 1.5596198387150168E7 ; 2.0181767876638296E8 ; 2.7676793565138597E9 ; 3.037978006543812E10 ; 0.0
160 ; 1.5562729587284263E7 ; 2.0182487643105015E8 ; 2.78327555490101E9 ; 3.0581597744204506E10 ; 0.0
161 ; 1.5527756181354946E7 ; 2.018320570124333E8 ; 2.798838284488294E9 ; 3.0783422620635555E10 ; 0.0
162 ; 1.5501397523703018E7 ; 2.0183922020660824E8 ; 2.814366040669649E9 ; 3.0985254677647987E10 ; 0.0
163 ; 1.54668727841974E7 ; 2.0184636571348125E8 ; 2.829867438193352E9 ; 3.1187093897854595E10 ; 0.0
164 ; 1.5437474896986775E7 ; 2.0185349323670805E8 ; 2.8453343109775496E9 ; 3.1388940263568077E10 ; 0.0
165 ; 1.5402285328073928E7 ; 2.018606024836149E8 ; 2.8607717858745365E9 ; 3.1590793756804787E10 ; 0.0
166 ; 1.5373722470714603E7 ; 2.018676931651224E8 ; 2.8761740712026105E9 ; 3.1792654359288403E10 ; 0.0
167 ; 1.5342736743613183E7 ; 2.0187476499567112E8 ; 2.891547793673325E9 ; 3.1994522052453526E10 ; 0.0
168 ; 1.5310363647116035E7 ; 2.018818176931497E8 ; 2.9068905304169383E9 ; 3.2196396817449196E10 ; 0.0
169 ; 1.5277346113230782E7 ; 2.018888509788249E8 ; 2.9222008940640545E9 ; 3.2398278635142345E10 ; 0.0
170 ; 1.5249548359904148E7 ; 2.018958645772739E8 ; 2.937478240177285E9 ; 3.260016748612117E10 ; 0.0
171 ; 1.5215073928536918E7 ; 2.019E8 ; 2.9527277885371895E9 ; 3.2802063350698444E10 ; 0.0
172 ; 1.518156327685324E7 ; 2.019E8 ; 2.9679428624657264E9 ; 3.3003963350698444E10 ; 0.0
173 ; 1.5151021807048634E7 ; 2.019E8 ; 2.9831244257425795E9 ; 3.3205863350698444E10 ; 0.0
174 ; 1.5123114875884619E7 ; 2.019E8 ; 2.9982754475496283E9 ; 3.3407763350698444E10 ; 0.0
175 ; 1.5097274836786954E7 ; 2.019E8 ; 3.013398562425513E9 ; 3.3609663350698444E10 ; 0.0
176 ; 1.5069929425638998E7 ; 2.019E8 ; 3.0284958372622995E9 ; 3.3811563350698444E10 ; 0.0
177 ; 1.5041433318031648E7 ; 2.019E8 ; 3.0435657666879387E9 ; 3.4013463350698444E10 ; 0.0
178 ; 1.5012632269374019E7 ; 2.019E8 ; 3.0586072000059705E9 ; 3.4215363350698444E10 ; 0.0
179 ; 1.4989231575602572E7 ; 2.019E8 ; 3.0736198322753444E9 ; 3.441726335069844E10 ; 0.0
180 ; 1.496062180192861E7 ; 2.019E8 ; 3.088609063850947E9 ; 3.461916335069844E10 ; 0.0
181 ; 1.49345203351371E7 ; 2.019E8 ; 3.1035696856528754E9 ; 3.482106335069844E10 ; 0.0
182 ; 1.4906563755053068E7 ; 2.019E8 ; 3.1185042059880123E9 ; 3.502296335069844E10 ; 0.0
183 ; 1.4879377325757442E7 ; 2.019E8 ; 3.1334107697430654E9 ; 3.522486335069844E10 ; 0.0
184 ; 1.4849726919082936E7 ; 2.019E8 ; 3.148290147068823E9 ; 3.542676335069844E10 ; 0.0
185 ; 1.4823733762065772E7 ; 2.019E8 ; 3.163139873987906E9 ; 3.562866335069844E10 ; 0.0
186 ; 1.4795259492551593E7 ; 2.019E8 ; 3.177963607749972E9 ; 3.583056335069844E10 ; 0.0
187 ; 1.476766336362939E7 ; 2.019E8 ; 3.1927588672425237E9 ; 3.603246335069844E10 ; 0.0
188 ; 1.4738991617829097E7 ; 2.019E8 ; 3.207526530606153E9 ; 3.623436335069844E10 ; 0.0
189 ; 1.4717266026756192E7 ; 2.019E8 ; 3.2222655222239823E9 ; 3.643626335069844E10 ; 0.0
190 ; 1.4690200048763549E7 ; 2.019E8 ; 3.2369827882507386E9 ; 3.663816335069844E10 ; 0.0
191 ; 1.4660649550861234E7 ; 2.019E8 ; 3.2516729882995024E9 ; 3.684006335069844E10 ; 0.0
192 ; 1.4634427269970756E7 ; 2.019E8 ; 3.2663336378503637E9 ; 3.704196335069844E10 ; 0.0
193 ; 1.4607386991513493E7 ; 2.019E8 ; 3.2809680651203346E9 ; 3.724386335069844E10 ; 0.0
194 ; 1.4582195038795853E7 ; 2.019E8 ; 3.2955754521118484E9 ; 3.744576335069844E10 ; 0.0
195 ; 1.455147760717392E7 ; 2.019E8 ; 3.3101576471506443E9 ; 3.764766335069844E10 ; 0.0
196 ; 1.4523655994428469E7 ; 2.019E8 ; 3.324709124757818E9 ; 3.784956335069844E10 ; 0.0
197 ; 1.4497326943904543E7 ; 2.019E8 ; 3.339232780752247E9 ; 3.805146335069844E10 ; 0.0
198 ; 1.4467588133276498E7 ; 2.019E8 ; 3.3537301076961513E9 ; 3.825336335069844E10 ; 0.0
