CSV File for the City 4 on Day 339
1 - Minute m 
2 - Power Consumed at minute m 
3 - Power Produced at minute m 
4 - Energy Consumed since the beginning of the day 
5 - Energy Produced since the beginning of the day 
6 - Energy Lost since the beginning of the day on lines starting from the city
 
0 ; 6848759.087084927 ; 1.0652817282308403E8 ; 0.0 ; 0.0 ; 0.0
1 ; 6857855.236291133 ; 1.0667870597194612E8 ; 6848759.087084927 ; 1.0652817282308403E8 ; 0.0
2 ; 6864171.622666624 ; 1.0713827009348646E8 ; 1.370661432337606E7 ; 2.1320687879503015E8 ; 0.0
3 ; 6873901.510014637 ; 1.0790686837115598E8 ; 2.0570785946042683E7 ; 3.203451488885166E8 ; 0.0
4 ; 6883342.326722318 ; 1.0898450364717466E8 ; 2.744468745605732E7 ; 4.282520172596726E8 ; 0.0
5 ; 6897027.939586569 ; 1.103711784104473E8 ; 3.432802978277964E7 ; 5.372365209068472E8 ; 0.0
6 ; 6909717.100546752 ; 1.120668947858282E8 ; 4.1225057722366214E7 ; 6.476076993172946E8 ; 0.0
7 ; 6934399.35616907 ; 1.1407165452484268E8 ; 4.813477482291297E7 ; 7.596745941031228E8 ; 0.0
8 ; 6968433.987662766 ; 1.1638545899795967E8 ; 5.5069174179082036E7 ; 8.737462486279655E8 ; 0.0
9 ; 7016895.091546815 ; 1.1900830918849605E8 ; 6.20376081667448E7 ; 9.901317076259251E8 ; 0.0
10 ; 7094883.576358161 ; 1.2194020568821543E8 ; 6.905450325829162E7 ; 1.1091400168144212E9 ; 0.0
11 ; 7217648.05440561 ; 1.2518114869466892E8 ; 7.614938683464977E7 ; 1.2310802225026367E9 ; 0.0
12 ; 7417581.028123744 ; 1.2873113801030537E8 ; 8.336703488905539E7 ; 1.3562613711973057E9 ; 0.0
13 ; 7605757.522593544 ; 1.3259017304336119E8 ; 9.078461591717914E7 ; 1.484992509207611E9 ; 0.0
14 ; 7632865.246321118 ; 1.3675825281051958E8 ; 9.839037343977268E7 ; 1.6175826822509723E9 ; 0.0
15 ; 7641131.349822558 ; 1.4123537594131148E8 ; 1.0602323868609379E8 ; 1.754340935061492E9 ; 0.0
16 ; 7645940.422997115 ; 1.460215406842117E8 ; 1.1366437003591636E8 ; 1.8955763110028033E9 ; 0.0
17 ; 7658381.118376569 ; 1.5111674491436586E8 ; 1.2131031045891348E8 ; 2.041597851687015E9 ; 0.0
18 ; 7668001.65972576 ; 1.5652098614286917E8 ; 1.2896869157729004E8 ; 2.192714596601381E9 ; 0.0
19 ; 7674900.668186918 ; 1.6223426152750167E8 ; 1.366366932370158E8 ; 2.34923558274425E9 ; 0.0
20 ; 7684599.517541364 ; 1.6825656788481238E8 ; 1.4431159390520275E8 ; 2.5114698442717514E9 ; 0.0
21 ; 7692868.147717936 ; 1.7458790170343408E8 ; 1.519961934227441E8 ; 2.6797264121565638E9 ; 0.0
22 ; 7699451.154073549 ; 1.8122825915850085E8 ; 1.5968906157046202E8 ; 2.8543143138599977E9 ; 0.0
23 ; 7708639.020206716 ; 1.88177636127034E8 ; 1.6738851272453555E8 ; 3.0355425730184984E9 ; 0.0
24 ; 7718981.232410269 ; 1.9543602820415658E8 ; 1.7509715174474227E8 ; 3.2237202091455326E9 ; 0.0
25 ; 7726316.893176768 ; 2.016914716181791E8 ; 1.8281613297715256E8 ; 3.419156237349689E9 ; 0.0
26 ; 7736890.778376739 ; 2.016975092849421E8 ; 1.9054244987032932E8 ; 3.6208477089678683E9 ; 0.0
27 ; 7746950.255267275 ; 2.017039053505699E8 ; 1.9827934064870605E8 ; 3.8225452182528105E9 ; 0.0
28 ; 7756105.565084684 ; 2.0171065445636013E8 ; 2.060262909039733E8 ; 4.02424912360338E9 ; 0.0
29 ; 7764519.962692355 ; 2.0171775105027944E8 ; 2.13782396469058E8 ; 4.2259597780597405E9 ; 0.0
30 ; 7775155.968314948 ; 2.017251894052209E8 ; 2.2154691643175036E8 ; 4.42767752911002E9 ; 0.0
31 ; 7779004.596802946 ; 2.017329636371501E8 ; 2.293220724000653E8 ; 4.629402718515241E9 ; 0.0
32 ; 7789188.685117539 ; 2.0174106772302878E8 ; 2.3710107699686825E8 ; 4.8311356821523905E9 ; 0.0
33 ; 7796405.49713492 ; 2.0174949551841542E8 ; 2.448902656819858E8 ; 5.03287674987542E9 ; 0.0
34 ; 7805430.012675188 ; 2.017582407746519E8 ; 2.5268667117912072E8 ; 5.234626245393835E9 ; 0.0
35 ; 7815504.404154649 ; 2.0176729715555483E8 ; 2.6049210119179592E8 ; 5.436384486168487E9 ; 0.0
36 ; 7822676.837900102 ; 2.017766582535413E8 ; 2.6830760559595057E8 ; 5.638151783324041E9 ; 0.0
37 ; 7828742.737413145 ; 2.0178631760512885E8 ; 2.7613028243385065E8 ; 5.839928441577582E9 ; 0.0
38 ; 7834505.862596064 ; 2.0179626870575982E8 ; 2.839590251712638E8 ; 6.041714759182712E9 ; 0.0
39 ; 7840277.639698804 ; 2.0180650502390936E8 ; 2.9179353103385985E8 ; 6.243511027888472E9 ; 0.0
40 ; 7847511.172043326 ; 2.0181702001444668E8 ; 2.9963380867355865E8 ; 6.445317532912381E9 ; 0.0
41 ; 7852078.547065401 ; 2.0182780713122746E8 ; 3.07481319845602E8 ; 6.647134552926827E9 ; 0.0
42 ; 7860944.819569497 ; 2.018388598389037E8 ; 3.1533339839266735E8 ; 6.848962360058055E9 ; 0.0
43 ; 7863081.244402028 ; 2.018501716239442E8 ; 3.231943432122368E8 ; 7.050801219896958E9 ; 0.0
44 ; 7870662.938552209 ; 2.0186173600486737E8 ; 3.310574244566389E8 ; 7.252651391520903E9 ; 0.0
45 ; 7873380.660295085 ; 2.018735465416923E8 ; 3.389280873951911E8 ; 7.45451312752577E9 ; 0.0
46 ; 7876372.778196408 ; 2.0188559684462023E8 ; 3.4680146805548614E8 ; 7.656386674067463E9 ; 0.0
47 ; 7883011.076002315 ; 2.018978805819644E8 ; 3.5467784083368254E8 ; 7.858272270912083E9 ; 0.0
48 ; 7885531.27291331 ; 2.0191039148734784E8 ; 3.6256085190968484E8 ; 8.060170151494047E9 ; 0.0
49 ; 7889524.504214938 ; 2.0192312336619446E8 ; 3.704463831825982E8 ; 8.262080542981395E9 ; 0.0
50 ; 7893398.085402619 ; 2.0193607010154018E8 ; 3.783359076868131E8 ; 8.4640036663475895E9 ; 0.0
51 ; 7894057.890384251 ; 2.0194922565919334E8 ; 3.862293057722157E8 ; 8.66593973644913E9 ; 0.0
52 ; 7897303.724145767 ; 2.0196258409227562E8 ; 3.941233636626E8 ; 8.867888962108322E9 ; 0.0
53 ; 7899296.496724965 ; 2.019761395451753E8 ; 4.0202066738674575E8 ; 9.069851546200598E9 ; 0.0
54 ; 7900834.3779291045 ; 2.019898862569457E8 ; 4.099199638834707E8 ; 9.271827685745773E9 ; 0.0
55 ; 7902765.569034435 ; 2.0200381856418246E8 ; 4.178207982613998E8 ; 9.47381757200272E9 ; 0.0
56 ; 7906746.482067798 ; 2.020179309034123E8 ; 4.2572356383043426E8 ; 9.675821390566902E9 ; 0.0
57 ; 7909103.729892252 ; 2.0203221781302667E8 ; 4.336303103125021E8 ; 9.877839321470314E9 ; 0.0
58 ; 7908020.610677841 ; 2.020466739347922E8 ; 4.4153941404239434E8 ; 1.007987153928334E10 ; 0.0
59 ; 7912438.060465745 ; 2.0206129401497018E8 ; 4.494474346530722E8 ; 1.0281918213218132E10 ; 0.0
60 ; 7916405.371986961 ; 2.0207607290507534E8 ; 4.5735987271353793E8 ; 1.0483979507233103E10 ; 0.0
61 ; 7922395.517329805 ; 2.0209100556230348E8 ; 4.652762780855249E8 ; 1.0686055580138178E10 ; 0.0
62 ; 7917433.229108743 ; 2.0210608704965693E8 ; 4.731986736028547E8 ; 1.0888146585700481E10 ; 0.0
63 ; 7920078.174444889 ; 2.0212131253579447E8 ; 4.811161068319635E8 ; 1.109025267275014E10 ; 0.0
64 ; 7922316.207695352 ; 2.02136677294632E8 ; 4.890361850064084E8 ; 1.1292373985285934E10 ; 0.0
65 ; 7921886.117935194 ; 2.0215217670471796E8 ; 4.9695850121410376E8 ; 1.1494510662580566E10 ; 0.0
66 ; 7926580.788302862 ; 2.021678062484074E8 ; 5.0488038733203894E8 ; 1.1696662839285284E10 ; 0.0
67 ; 7926770.228699894 ; 2.0218356151085526E8 ; 5.128069681203418E8 ; 1.1898830645533691E10 ; 0.0
68 ; 7927979.26390045 ; 2.0219943817885047E8 ; 5.207337383490417E8 ; 1.2101014207044546E10 ; 0.0
69 ; 7930233.963937561 ; 2.02215432039509E8 ; 5.2866171761294216E8 ; 1.2303213645223396E10 ; 0.0
70 ; 7929019.248570116 ; 2.022315389788439E8 ; 5.3659195157687974E8 ; 1.2505429077262905E10 ; 0.0
71 ; 7930877.628605864 ; 2.0224775498022848E8 ; 5.445209708254498E8 ; 1.2707660616241749E10 ; 0.0
72 ; 7932023.133537155 ; 2.0226407612276822E8 ; 5.524518484540557E8 ; 1.2909908371221977E10 ; 0.0
73 ; 7934391.0412462875 ; 2.0228049857959497E8 ; 5.603838715875928E8 ; 1.3112172447344746E10 ; 0.0
74 ; 7938352.883016068 ; 2.022970186160963E8 ; 5.683182626288391E8 ; 1.3314452945924341E10 ; 0.0
75 ; 7937600.970270423 ; 2.0231363258809206E8 ; 5.762566155118552E8 ; 1.3516749964540438E10 ; 0.0
76 ; 7937794.928344081 ; 2.0233033693996888E8 ; 5.841942164821256E8 ; 1.371906359712853E10 ; 0.0
77 ; 7940749.796470721 ; 2.023471282027818E8 ; 5.921320114104698E8 ; 1.3921393934068499E10 ; 0.0
78 ; 7937685.829885894 ; 2.0236400299233282E8 ; 6.000727612069405E8 ; 1.412374106227128E10 ; 0.0
79 ; 7936381.551343139 ; 2.0238095800723368E8 ; 6.080104470368264E8 ; 1.4326105065263613E10 ; 0.0
80 ; 7932828.121098155 ; 2.0239799002696052E8 ; 6.159468285881695E8 ; 1.4528486023270847E10 ; 0.0
81 ; 7932853.340150274 ; 2.024150959099067E8 ; 6.238796567092676E8 ; 1.4730884013297808E10 ; 0.0
82 ; 7929783.103528386 ; 2.0243227259143972E8 ; 6.318125100494179E8 ; 1.4933299109207714E10 ; 0.0
83 ; 7930474.2054131 ; 2.0244951708196756E8 ; 6.397422931529462E8 ; 1.5135731381799154E10 ; 0.0
84 ; 7926726.607990561 ; 2.0246682646501857E8 ; 6.476727673583593E8 ; 1.5338180898881123E10 ; 0.0
85 ; 7928715.25626305 ; 2.024841978953396E8 ; 6.555994939663498E8 ; 1.5540647725346142E10 ; 0.0
86 ; 7922128.658459687 ; 2.025016285970154E8 ; 6.635282092226129E8 ; 1.5743131923241482E10 ; 0.0
87 ; 7922101.404050596 ; 2.0251911586161286E8 ; 6.714503378810725E8 ; 1.5945633551838497E10 ; 0.0
88 ; 7921519.852373132 ; 2.02536657046352E8 ; 6.793724392851231E8 ; 1.614815266770011E10 ; 0.0
89 ; 7916552.852973217 ; 2.0255424957230738E8 ; 6.872939591374962E8 ; 1.6350689324746462E10 ; 0.0
90 ; 7913577.881710862 ; 2.0257189092264017E8 ; 6.952105119904695E8 ; 1.655324357431877E10 ; 0.0
91 ; 7911473.607044793 ; 2.0258957864086404E8 ; 7.031240898721803E8 ; 1.675581546524141E10 ; 0.0
92 ; 7909910.250320564 ; 2.0260731032914522E8 ; 7.110355634792252E8 ; 1.6958405043882273E10 ; 0.0
93 ; 7908444.22215198 ; 2.0262508364663836E8 ; 7.189454737295457E8 ; 1.7161012354211418E10 ; 0.0
94 ; 7905656.672202531 ; 2.0264289630785877E8 ; 7.268539179516977E8 ; 1.7363637437858055E10 ; 0.0
95 ; 7904744.866834851 ; 2.0266074608109173E8 ; 7.347595746239003E8 ; 1.7566280334165913E10 ; 0.0
96 ; 7900423.142235293 ; 2.0267863078683963E8 ; 7.426643194907352E8 ; 1.7768941080247005E10 ; 0.0
97 ; 7895066.008971825 ; 2.026965482963067E8 ; 7.505647426329705E8 ; 1.7971619711033844E10 ; 0.0
98 ; 7895592.044431018 ; 2.0271449652992174E8 ; 7.584598086419423E8 ; 1.817431625933015E10 ; 0.0
99 ; 7891592.728948765 ; 2.0273247345589915E8 ; 7.663554006863732E8 ; 1.8377030755860073E10 ; 0.0
100 ; 7887849.172675069 ; 2.0275047708883747E8 ; 7.74246993415322E8 ; 1.857976322931597E10 ; 0.0
101 ; 7887229.320359888 ; 2.0276850548835585E8 ; 7.82134842587997E8 ; 1.8782513706404808E10 ; 0.0
102 ; 7882098.976336212 ; 2.0278655675776765E8 ; 7.900220719083569E8 ; 1.8985282211893166E10 ; 0.0
103 ; 7880642.499042823 ; 2.0280462904279116E8 ; 7.979041708846931E8 ; 1.9188068768650932E10 ; 0.0
104 ; 7872992.986404947 ; 2.0282272053029668E8 ; 8.05784813383736E8 ; 1.939087339769372E10 ; 0.0
105 ; 7871533.735241714 ; 2.0284082944708955E8 ; 8.136578063701409E8 ; 1.959369611822402E10 ; 0.0
106 ; 7866485.003150903 ; 2.028589540587287E8 ; 8.215293401053827E8 ; 1.979653694767111E10 ; 0.0
107 ; 7864352.979485883 ; 2.0287709266837972E8 ; 8.293958251085336E8 ; 1.9999395901729836E10 ; 0.0
108 ; 7862094.524788926 ; 2.028952436157022E8 ; 8.372601780880195E8 ; 2.0202272994398216E10 ; 0.0
109 ; 7857360.910207276 ; 2.029134052757705E8 ; 8.451222726128085E8 ; 2.040516823801392E10 ; 0.0
110 ; 7854924.838493033 ; 2.0293157605802685E8 ; 8.529796335230157E8 ; 2.0608081643289692E10 ; 0.0
111 ; 7851975.808165697 ; 2.0294975440526712E8 ; 8.608345583615087E8 ; 2.0811013219347717E10 ; 0.0
112 ; 7848156.47159049 ; 2.02967938792657E8 ; 8.686865341696744E8 ; 2.1013962973752983E10 ; 0.0
113 ; 7842424.803055294 ; 2.029861277267792E8 ; 8.765346906412649E8 ; 2.121693091254564E10 ; 0.0
114 ; 7837907.086175371 ; 2.0300431974471027E8 ; 8.843771154443202E8 ; 2.141991704027242E10 ; 0.0
115 ; 7836143.56640683 ; 2.0302251341312605E8 ; 8.922150225304955E8 ; 2.1622921360017128E10 ; 0.0
116 ; 7832079.677106086 ; 2.030407073274357E8 ; 9.000511660969024E8 ; 2.1825943873430256E10 ; 0.0
117 ; 7829214.072515096 ; 2.0305890011094293E8 ; 9.078832457740085E8 ; 2.202898458075769E10 ; 0.0
118 ; 7823109.888861478 ; 2.0307709041403383E8 ; 9.157124598465236E8 ; 2.2232043480868633E10 ; 0.0
119 ; 7817829.850968948 ; 2.0309527691339076E8 ; 9.235355697353852E8 ; 2.2435120571282665E10 ; 0.0
120 ; 7814003.671089966 ; 2.0311345831123132E8 ; 9.313533995863541E8 ; 2.2638215848196056E10 ; 0.0
121 ; 7809148.738746675 ; 2.031316333345718E8 ; 9.391674032574441E8 ; 2.2841329306507286E10 ; 0.0
122 ; 7806918.137646736 ; 2.0314980073451427E8 ; 9.469765519961908E8 ; 2.3044460939841858E10 ; 0.0
123 ; 7799786.5372182205 ; 2.0316795928555664E8 ; 9.547834701338376E8 ; 2.3247610740576374E10 ; 0.0
124 ; 7797408.655788455 ; 2.031861077849252E8 ; 9.625832566710558E8 ; 2.345077869986193E10 ; 0.0
125 ; 7793317.724365945 ; 2.0320424505192855E8 ; 9.703806653268442E8 ; 2.3653964807646854E10 ; 0.0
126 ; 7787340.650854994 ; 2.0322236992733267E8 ; 9.781739830512102E8 ; 2.3857169052698784E10 ; 0.0
127 ; 7784081.494259008 ; 2.032404812727562E8 ; 9.859613237020651E8 ; 2.4060391422626118E10 ; 0.0
128 ; 7777902.65233829 ; 2.032585779700852E8 ; 9.937454051963241E8 ; 2.4263631903898872E10 ; 0.0
129 ; 7770682.424326189 ; 2.032766589209075E8 ; 1.0015233078486624E9 ; 2.4466890481868958E10 ; 0.0
130 ; 7765581.367664657 ; 2.0329472304596463E8 ; 1.0092939902729886E9 ; 2.4670167140789864E10 ; 0.0
131 ; 7760008.611299879 ; 2.033127692846224E8 ; 1.0170595716406533E9 ; 2.4873461863835827E10 ; 0.0
132 ; 7750663.039314723 ; 2.0333079659435824E8 ; 1.0248195802519531E9 ; 2.507677463312045E10 ; 0.0
133 ; 7745337.986218151 ; 2.0334880395026535E8 ; 1.0325702432912679E9 ; 2.5280105429714806E10 ; 0.0
134 ; 7734085.240309623 ; 2.0336679034457308E8 ; 1.040315581277486E9 ; 2.548345423366507E10 ; 0.0
135 ; 7727688.886463632 ; 2.0338475478618282E8 ; 1.0480496665177956E9 ; 2.5686821024009644E10 ; 0.0
136 ; 7719984.863534887 ; 2.0340269630021912E8 ; 1.0557773554042592E9 ; 2.5890205778795826E10 ; 0.0
137 ; 7712918.369231091 ; 2.0342061392759523E8 ; 1.0634973402677941E9 ; 2.6093608475096046E10 ; 0.0
138 ; 7706192.147355191 ; 2.03438506724593E8 ; 1.0712102586370252E9 ; 2.6297029089023643E10 ; 0.0
139 ; 7698598.215681974 ; 2.0345637376245624E8 ; 1.0789164507843804E9 ; 2.6500467595748238E10 ; 0.0
140 ; 7691199.437740232 ; 2.0347421412699726E8 ; 1.0866150490000625E9 ; 2.6703923969510693E10 ; 0.0
141 ; 7679928.640034323 ; 2.034920269182164E8 ; 1.0943062484378028E9 ; 2.690739818363769E10 ; 0.0
142 ; 7671536.788616165 ; 2.035098112499337E8 ; 1.1019861770778372E9 ; 2.711089021055591E10 ; 0.0
143 ; 7665514.408808656 ; 2.0352756624943236E8 ; 1.1096577138664534E9 ; 2.7314400021805843E10 ; 0.0
144 ; 7656510.8813630445 ; 2.0354529105711418E8 ; 1.117323228275262E9 ; 2.7517927588055275E10 ; 0.0
145 ; 7651118.93534811 ; 2.035629848261656E8 ; 1.1249797391566253E9 ; 2.772147287911239E10 ; 0.0
146 ; 7645817.0564088365 ; 2.0358064672223476E8 ; 1.1326308580919733E9 ; 2.7925035863938553E10 ; 0.0
147 ; 7638017.778203705 ; 2.0359827592311907E8 ; 1.1402766751483822E9 ; 2.812861651066079E10 ; 0.0
148 ; 7633081.088608154 ; 2.0361587161846244E8 ; 1.147914692926586E9 ; 2.8332214786583908E10 ; 0.0
149 ; 7632215.409906576 ; 2.0363343300946277E8 ; 1.1555477740151942E9 ; 2.853583065820237E10 ; 0.0
150 ; 7622937.24421579 ; 2.0365095930858818E8 ; 1.1631799894251008E9 ; 2.8739464091211834E10 ; 0.0
151 ; 7618688.414565798 ; 2.0366844973930287E8 ; 1.1708029266693165E9 ; 2.8943115050520424E10 ; 0.0
152 ; 7612544.2042841595 ; 2.0368590353580138E8 ; 1.1784216150838823E9 ; 2.9146783500259727E10 ; 0.0
153 ; 7606103.206253698 ; 2.037033199427515E8 ; 1.1860341592881665E9 ; 2.935046940379553E10 ; 0.0
154 ; 7603172.529653931 ; 2.037206982150452E8 ; 1.1936402624944203E9 ; 2.955417272373828E10 ; 0.0
155 ; 7593942.931009284 ; 2.0373803761755773E8 ; 1.2012434350240743E9 ; 2.9757893421953327E10 ; 0.0
156 ; 7589841.170400216 ; 2.03755337424914E8 ; 1.2088373779550836E9 ; 2.9961631459570885E10 ; 0.0
157 ; 7583154.267585955 ; 2.0377259692126268E8 ; 1.2164272191254838E9 ; 3.01653867969958E10 ; 0.0
158 ; 7578998.006935949 ; 2.037898154000572E8 ; 1.2240103733930697E9 ; 3.036915939391706E10 ; 0.0
159 ; 7573637.102673734 ; 2.0380699216384372E8 ; 1.2315893714000056E9 ; 3.057294920931712E10 ; 0.0
160 ; 7565501.983545683 ; 2.0382412652405593E8 ; 1.2391630085026793E9 ; 3.0776756201480965E10 ; 0.0
161 ; 7559812.868301576 ; 2.0384121780081594E8 ; 1.2467285104862251E9 ; 3.098058032800502E10 ; 0.0
162 ; 7553723.824913745 ; 2.0385826532274178E8 ; 1.2542883233545268E9 ; 3.1184421545805836E10 ; 0.0
163 ; 7549757.5793786 ; 2.038752684267606E8 ; 1.2618420471794405E9 ; 3.138827981112858E10 ; 0.0
164 ; 7542531.903974904 ; 2.03892226457928E8 ; 1.269391804758819E9 ; 3.159215507955534E10 ; 0.0
165 ; 7540613.827967292 ; 2.0390913876925257E8 ; 1.276934336662794E9 ; 3.1796047306013268E10 ; 0.0
166 ; 7530219.328330551 ; 2.0392600472152635E8 ; 1.2844749504907615E9 ; 3.199995644478252E10 ; 0.0
167 ; 7527078.216648625 ; 2.0394282368316033E8 ; 1.292005169819092E9 ; 3.2203882449504047E10 ; 0.0
168 ; 7519448.014139334 ; 2.039595950300248E8 ; 1.2995322480357406E9 ; 3.2407825273187206E10 ; 0.0
169 ; 7514296.467641009 ; 2.0397631814529505E8 ; 1.30705169604988E9 ; 3.261178486821723E10 ; 0.0
170 ; 7506977.210830504 ; 2.039929924193016E8 ; 1.3145659925175211E9 ; 3.2815761186362526E10 ; 0.0
171 ; 7501419.7645717785 ; 2.0400961724938488E8 ; 1.3220729697283516E9 ; 3.3019754178781826E10 ; 0.0
172 ; 7497624.895020179 ; 2.040261920397548E8 ; 1.3295743894929233E9 ; 3.322376379603121E10 ; 0.0
173 ; 7490229.541402323 ; 2.0404271620135415E8 ; 1.3370720143879435E9 ; 3.3427789988070965E10 ; 0.0
174 ; 7486514.523119782 ; 2.0405918915172645E8 ; 1.3445622439293458E9 ; 3.363183270427232E10 ; 0.0
175 ; 7482496.139152579 ; 2.0407561031488776E8 ; 1.3520487584524655E9 ; 3.3835891893424046E10 ; 0.0
176 ; 7476529.27999217 ; 2.0409197912120232E8 ; 1.359531254591618E9 ; 3.4039967503738934E10 ; 0.0
177 ; 7473569.727306342 ; 2.04108295007262E8 ; 1.3670077838716102E9 ; 3.4244059482860134E10 ; 0.0
178 ; 7469205.03226787 ; 2.041245574157695E8 ; 1.3744813535989165E9 ; 3.444816777786739E10 ; 0.0
179 ; 7464476.530754725 ; 2.041407657954249E8 ; 1.3819505586311843E9 ; 3.4652292335283165E10 ; 0.0
180 ; 7463089.05918965 ; 2.041569196008158E8 ; 1.3894150351619391E9 ; 3.485643310107859E10 ; 0.0
181 ; 7457396.062343525 ; 2.0417301829231054E8 ; 1.3968781242211287E9 ; 3.5060590020679405E10 ; 0.0
182 ; 7454484.907919651 ; 2.0418906133595496E8 ; 1.4043355202834723E9 ; 3.526476303897172E10 ; 0.0
183 ; 7451468.508273211 ; 2.0420504820337182E8 ; 1.411790005191392E9 ; 3.546895210030767E10 ; 0.0
184 ; 7448810.059997779 ; 2.042209783716637E8 ; 1.419241473699665E9 ; 3.567315714851104E10 ; 0.0
185 ; 7443760.196041758 ; 2.042368513233184E8 ; 1.4266902837596629E9 ; 3.5877378126882706E10 ; 0.0
186 ; 7439552.7687847465 ; 2.0425266654611728E8 ; 1.4341340439557047E9 ; 3.6081614978206024E10 ; 0.0
187 ; 7436828.338156814 ; 2.0426842353304654E8 ; 1.4415735967244895E9 ; 3.6285867644752144E10 ; 0.0
188 ; 7430905.538572723 ; 2.042841217822108E8 ; 1.4490104250626462E9 ; 3.649013606828519E10 ; 0.0
189 ; 7426853.547510614 ; 2.0429976079674935E8 ; 1.456441330601219E9 ; 3.66944201900674E10 ; 0.0
190 ; 7425761.232267033 ; 2.0431534008475497E8 ; 1.4638681841487296E9 ; 3.689871995086415E10 ; 0.0
191 ; 7421892.306680926 ; 2.0433085915919513E8 ; 1.4712939453809967E9 ; 3.7103035290948906E10 ; 0.0
192 ; 7418711.90284131 ; 2.043463175378353E8 ; 1.4787158376876776E9 ; 3.73073661501081E10 ; 0.0
193 ; 7414355.165646461 ; 2.0436171474316484E8 ; 1.486134549590519E9 ; 3.7511712467645935E10 ; 0.0
194 ; 7411827.903496754 ; 2.0437705030232465E8 ; 1.4935489047561655E9 ; 3.77160741823891E10 ; 0.0
195 ; 7407284.971849003 ; 2.0439232374703744E8 ; 1.5009607326596622E9 ; 3.792045123269142E10 ; 0.0
196 ; 7402982.93963974 ; 2.0440753461353958E8 ; 1.5083680176315112E9 ; 3.812484355643846E10 ; 0.0
197 ; 7399653.439162876 ; 2.0442268244251516E8 ; 1.515771000571151E9 ; 3.8329251091052E10 ; 0.0
198 ; 7395457.257682919 ; 2.0443776677903196E8 ; 1.523170654010314E9 ; 3.8533673773494514E10 ; 0.0
199 ; 7391131.869261174 ; 2.0147524959971568E8 ; 1.5305661112679968E9 ; 3.8738111540273544E10 ; 0.0
200 ; 7384342.398468081 ; 1.5597581809816954E8 ; 1.537957243137258E9 ; 3.893958678987326E10 ; 0.0
201 ; 7385187.369624422 ; 1.556426411301129E8 ; 1.545341585535726E9 ; 3.909556260797143E10 ; 0.0
