CSV File for the City 6 on Day 249
1 - Minute m 
2 - Power Consumed at minute m 
3 - Power Produced at minute m 
4 - Energy Consumed since the beginning of the day 
5 - Energy Produced since the beginning of the day 
6 - Energy Lost since the beginning of the day on lines starting from the city
 
0 ; 2368326.6645961097 ; 1.0567314766196498E8 ; 0.0 ; 0.0 ; 0.0
1 ; 2379441.465715366 ; 1.0582310574868679E8 ; 2368326.6645961097 ; 1.0567314766196498E8 ; 0.0
2 ; 2387645.3888043393 ; 1.0628213211639515E8 ; 4747768.130311476 ; 2.1149625341065177E8 ; 0.0
3 ; 2406856.5470914 ; 1.0705023713729101E8 ; 7135413.519115815 ; 3.177783855270469E8 ; 0.0
4 ; 2417794.4886489897 ; 1.0812743030682325E8 ; 9542270.066207215 ; 4.2482862266433793E8 ; 0.0
5 ; 2438933.2922799685 ; 1.0951372012792808E8 ; 1.1960064554856205E7 ; 5.329560529711612E8 ; 0.0
6 ; 2464050.1022182205 ; 1.1120911400249842E8 ; 1.4398997847136173E7 ; 6.424697730990893E8 ; 0.0
7 ; 2499562.471512269 ; 1.1321361813311929E8 ; 1.6863047949354395E7 ; 7.536788871015877E8 ; 0.0
8 ; 2552127.585220477 ; 1.1552723743798244E8 ; 1.9362610420866664E7 ; 8.668925052347069E8 ; 0.0
9 ; 2632763.2988426485 ; 1.1814997548162913E8 ; 2.1914738006087143E7 ; 9.824197426726893E8 ; 0.0
10 ; 2758645.4228259404 ; 1.210818344237585E8 ; 2.4547501304929793E7 ; 1.1005697181543183E9 ; 0.0
11 ; 2956529.720035526 ; 1.24322814987802E8 ; 2.7306146727755733E7 ; 1.2216515525780768E9 ; 0.0
12 ; 3272809.2198302173 ; 1.2787291645032814E8 ; 3.026267644779126E7 ; 1.3459743675658789E9 ; 0.0
13 ; 3578595.284504949 ; 1.317321366516378E8 ; 3.353548566762148E7 ; 1.473847284016207E9 ; 0.0
14 ; 3611397.1830548076 ; 1.359004720271898E8 ; 3.711408095212643E7 ; 1.6055794206678448E9 ; 0.0
15 ; 3626926.5916096815 ; 1.4037791765879226E8 ; 4.072547813518123E7 ; 1.7414798926950345E9 ; 0.0
16 ; 3642139.592723929 ; 1.451644673438603E8 ; 4.435240472679091E7 ; 1.8818578103538268E9 ; 0.0
17 ; 3655613.6509851534 ; 1.502601136805009E8 ; 4.799454431951484E7 ; 2.0270222776976871E9 ; 0.0
18 ; 3668016.063946135 ; 1.5566484816577786E8 ; 5.165015797049999E7 ; 2.177282391378188E9 ; 0.0
19 ; 3684310.0995122097 ; 1.6137866130424234E8 ; 5.531817403444613E7 ; 2.332947239543966E9 ; 0.0
20 ; 3697616.5589719787 ; 1.6740154272369334E8 ; 5.900248413395834E7 ; 2.494325900848208E9 ; 0.0
21 ; 3715474.4722753414 ; 1.7373348129515496E8 ; 6.270010069293032E7 ; 2.6617274435719013E9 ; 0.0
22 ; 3729460.5130940364 ; 1.8037446525420225E8 ; 6.641557516520566E7 ; 2.8354609248670564E9 ; 0.0
23 ; 3740810.3802257767 ; 1.8732448232101578E8 ; 7.01450356782997E7 ; 3.0158353901212587E9 ; 0.0
24 ; 3755661.703908133 ; 1.9458351981686717E8 ; 7.388584605852547E7 ; 3.2031598724422746E9 ; 0.0
25 ; 3767008.9346608836 ; 2.008396056732982E8 ; 7.76415077624336E7 ; 3.397743392259142E9 ; 0.0
26 ; 3789227.2599815377 ; 2.008462745729904E8 ; 8.140851669709449E7 ; 3.5985829979324403E9 ; 0.0
27 ; 3797349.0716893338 ; 2.008532825704893E8 ; 8.519774395707603E7 ; 3.7994292725054307E9 ; 0.0
28 ; 3813459.1649022806 ; 2.0086061642588443E8 ; 8.899509302876537E7 ; 4.00028255507592E9 ; 0.0
29 ; 3829543.9344007773 ; 2.00868262975632E8 ; 9.280855219366765E7 ; 4.2011431715018044E9 ; 0.0
30 ; 3836349.4523460907 ; 2.0087620920068386E8 ; 9.663809612806843E7 ; 4.402011434477436E9 ; 0.0
31 ; 3857820.4935290003 ; 2.0088444228529945E8 ; 1.0047444558041452E8 ; 4.60288764367812E9 ; 0.0
32 ; 3866963.3703474808 ; 2.0089294966687518E8 ; 1.0433226607394353E8 ; 4.803772085963419E9 ; 0.0
33 ; 3879597.648649525 ; 2.0090171907727757E8 ; 1.0819922944429101E8 ; 5.004665035630294E9 ; 0.0
34 ; 3892133.882971253 ; 2.0091073857627797E8 ; 1.1207882709294054E8 ; 5.205566754707571E9 ; 0.0
35 ; 3903966.5556492237 ; 2.0091999657775646E8 ; 1.159709609759118E8 ; 5.406477493283849E9 ; 0.0
36 ; 3914613.8335357714 ; 2.0092948186938018E8 ; 1.1987492753156102E8 ; 5.607397489861606E9 ; 0.0
37 ; 3930735.4783765445 ; 2.0093918362647173E8 ; 1.237895413650968E8 ; 5.808326971730986E9 ; 0.0
38 ; 3939691.079794922 ; 2.0094909142077196E8 ; 1.2772027684347333E8 ; 6.009266155357457E9 ; 0.0
39 ; 3952507.12429016 ; 2.009591952247732E8 ; 1.3165996792326826E8 ; 6.210215246778229E9 ; 0.0
40 ; 3961220.700517872 ; 2.0096948541225967E8 ; 1.3561247504755843E8 ; 6.411174442003002E9 ; 0.0
41 ; 3967272.9509928385 ; 2.0097995275564542E8 ; 1.395736957480763E8 ; 6.612143927415262E9 ; 0.0
42 ; 3981813.5235668416 ; 2.0099058842064705E8 ; 1.4354096869906914E8 ; 6.813123880170908E9 ; 0.0
43 ; 3992188.054740845 ; 2.0100138395877627E8 ; 1.4752278222263598E8 ; 7.014114468591555E9 ; 0.0
44 ; 3999103.4251200533 ; 2.0101233129808342E8 ; 1.5151497027737683E8 ; 7.215115852550331E9 ; 0.0
45 ; 4003924.867084913 ; 2.0102342273253205E8 ; 1.555140737024969E8 ; 7.416128183848414E9 ; 0.0
46 ; 4010276.0657365704 ; 2.010346509103347E8 ; 1.595179985695818E8 ; 7.617151606580947E9 ; 0.0
47 ; 4018084.393835666 ; 2.0104600882153618E8 ; 1.6352827463531837E8 ; 7.8181862574912815E9 ; 0.0
48 ; 4025403.5428903424 ; 2.0105748978508735E8 ; 1.6754635902915403E8 ; 8.019232266312818E9 ; 0.0
49 ; 4030925.1784271323 ; 2.010690874356161E8 ; 1.7157176257204437E8 ; 8.220289756097905E9 ; 0.0
50 ; 4034757.2385227126 ; 2.0108079571006784E8 ; 1.756026877504715E8 ; 8.421358843533522E9 ; 0.0
51 ; 4041277.99263334 ; 2.010926088343578E8 ; 1.796374449889942E8 ; 8.62243963924359E9 ; 0.0
52 ; 4048723.0332502504 ; 2.0110452131015223E8 ; 1.8367872298162755E8 ; 8.823532248077948E9 ; 0.0
53 ; 4052753.815414043 ; 2.0111652790187174E8 ; 1.877274460148778E8 ; 9.0246367693881E9 ; 0.0
54 ; 4052317.478841673 ; 2.0112862362399113E8 ; 1.9178019983029184E8 ; 9.225753297289972E9 ; 0.0
55 ; 4059788.14075169 ; 2.01140803728693E8 ; 1.958325173091335E8 ; 9.426881920913963E9 ; 0.0
56 ; 4063946.2378010363 ; 2.0115306369391805E8 ; 1.998923054498852E8 ; 9.628022724642656E9 ; 0.0
57 ; 4069782.8675357094 ; 2.0116539921184298E8 ; 2.0395625168768623E8 ; 9.829175788336575E9 ; 0.0
58 ; 4070391.1095874165 ; 2.0117780617780718E8 ; 2.0802603455522195E8 ; 1.0030341187548418E10 ; 0.0
59 ; 4079379.086034381 ; 2.0119028067970023E8 ; 2.1209642566480938E8 ; 1.0231518993726225E10 ; 0.0
60 ; 4080549.5703644147 ; 2.0120281898781627E8 ; 2.1617580475084376E8 ; 1.0432709274405926E10 ; 0.0
61 ; 4085289.743737369 ; 2.01215417545175E8 ; 2.2025635432120818E8 ; 1.0633912093393742E10 ; 0.0
62 ; 4089112.753294988 ; 2.012280729583048E8 ; 2.2434164406494555E8 ; 1.0835127510938917E10 ; 0.0
63 ; 4089448.0438348367 ; 2.0124078198848024E8 ; 2.2843075681824052E8 ; 1.1036355583897223E10 ; 0.0
64 ; 4095105.014034217 ; 2.0125354154340267E8 ; 2.3252020486207536E8 ; 1.1237596365885702E10 ; 0.0
65 ; 4097979.6881336602 ; 2.0126634866931152E8 ; 2.3661530987610957E8 ; 1.1438849907429104E10 ; 0.0
66 ; 4100721.0285886223 ; 2.0127920054351115E8 ; 2.4071328956424323E8 ; 1.1640116256098415E10 ; 0.0
67 ; 4109669.2403429095 ; 2.0129209446729842E8 ; 2.4481401059283185E8 ; 1.1841395456641926E10 ; 0.0
68 ; 4111756.246142659 ; 2.0130502785927382E8 ; 2.4892367983317477E8 ; 1.2042687551109224E10 ; 0.0
69 ; 4112450.4239713266 ; 2.0131799824902022E8 ; 2.5303543607931742E8 ; 1.2243992578968498E10 ; 0.0
70 ; 4116542.877121375 ; 2.0133100327113184E8 ; 2.5714788650328875E8 ; 1.2445310577217518E10 ; 0.0
71 ; 4118912.3961247094 ; 2.013440406595769E8 ; 2.6126442938041013E8 ; 1.264664158048865E10 ; 0.0
72 ; 4122969.452891886 ; 2.0135710824237695E8 ; 2.6538334177653486E8 ; 1.2847985621148226E10 ; 0.0
73 ; 4125501.9600564055 ; 2.013702039365874E8 ; 2.6950631122942674E8 ; 1.3049342729390602E10 ; 0.0
74 ; 4125112.174029638 ; 2.013833257435623E8 ; 2.7363181318948317E8 ; 1.325071293332719E10 ; 0.0
75 ; 4128981.268068466 ; 2.0139647174448907E8 ; 2.777569253635128E8 ; 1.3452096259070753E10 ; 0.0
76 ; 4131888.687942821 ; 2.0140964009617758E8 ; 2.818859066315813E8 ; 1.3653492730815243E10 ; 0.0
77 ; 4133427.9831126793 ; 2.0142282902709E8 ; 2.860177953195241E8 ; 1.385490237091142E10 ; 0.0
78 ; 4138118.973474419 ; 2.0143603683359742E8 ; 2.901512233026368E8 ; 1.405632519993851E10 ; 0.0
79 ; 4137074.032412902 ; 2.0144926187645045E8 ; 2.9428934227611125E8 ; 1.4257761236772108E10 ; 0.0
80 ; 4133057.4954470266 ; 2.0146250257745144E8 ; 2.9842641630852413E8 ; 1.4459210498648558E10 ; 0.0
81 ; 4130085.022263825 ; 2.0147575741631666E8 ; 3.025594738039712E8 ; 1.466067300122601E10 ; 0.0
82 ; 4127204.20595576 ; 2.0148902492771718E8 ; 3.06689558826235E8 ; 1.4862148758642326E10 ; 0.0
83 ; 4127305.385886386 ; 2.0150230369848812E8 ; 3.1081676303219074E8 ; 1.5063637783570044E10 ; 0.0
84 ; 4123186.0611770074 ; 2.0151559236499617E8 ; 3.149440684180771E8 ; 1.5265140087268532E10 ; 0.0
85 ; 4123477.872777974 ; 2.0152888961065602E8 ; 3.190672544792541E8 ; 1.5466655679633528E10 ; 0.0
86 ; 4115111.515850708 ; 2.015421941635872E8 ; 3.231907323520321E8 ; 1.5668184569244184E10 ; 0.0
87 ; 4119720.002148903 ; 2.0155550479440224E8 ; 3.2730584386788285E8 ; 1.5869726763407772E10 ; 0.0
88 ; 4116042.6098389574 ; 2.015688203141191E8 ; 3.314255638700318E8 ; 1.6071282268202175E10 ; 0.0
89 ; 4110947.2279302008 ; 2.0158213957219002E8 ; 3.3554160647987074E8 ; 1.6272851088516294E10 ; 0.0
90 ; 4113187.2107284125 ; 2.0159546145464003E8 ; 3.396525537078009E8 ; 1.6474433228088484E10 ; 0.0
91 ; 4108306.3917223136 ; 2.0160878488230842E8 ; 3.4376574091852933E8 ; 1.6676028689543123E10 ; 0.0
92 ; 4106408.12105331 ; 2.016221088091873E8 ; 3.4787404731025165E8 ; 1.6877637474425432E10 ; 0.0
93 ; 4107610.0795915574 ; 2.0163543222085115E8 ; 3.51980455431305E8 ; 1.707925958323462E10 ; 0.0
94 ; 4101397.9755711835 ; 2.0164875413297248E8 ; 3.5608806551089656E8 ; 1.728089501545547E10 ; 0.0
95 ; 4100904.2805550657 ; 2.0166207358991778E8 ; 3.601894634864677E8 ; 1.7482543769588444E10 ; 0.0
96 ; 4095966.7021167506 ; 2.0167538966341972E8 ; 3.642903677670228E8 ; 1.768420584317836E10 ; 0.0
97 ; 4095593.2243002653 ; 2.016887014513208E8 ; 3.683863344691395E8 ; 1.788588123284178E10 ; 0.0
98 ; 4089253.1001974475 ; 2.017020080763841E8 ; 3.724819276934398E8 ; 1.8087569934293102E10 ; 0.0
99 ; 4086866.349874351 ; 2.0171530868516752E8 ; 3.765711807936372E8 ; 1.8289271942369488E10 ; 0.0
100 ; 4084198.1266791266 ; 2.0172860244695774E8 ; 3.806580471435116E8 ; 1.8490987251054657E10 ; 0.0
101 ; 4083146.1349308994 ; 2.017418885527602E8 ; 3.847422452701907E8 ; 1.8692715853501614E10 ; 0.0
102 ; 4078475.463745047 ; 2.0175516621434224E8 ; 3.888253914051216E8 ; 1.8894457742054375E10 ; 0.0
103 ; 4073052.5594657417 ; 2.0176843466332576E8 ; 3.929038668688667E8 ; 1.909621290826872E10 ; 0.0
104 ; 4068087.120638332 ; 2.0178169315032747E8 ; 3.9697691942833245E8 ; 1.9297981342932045E10 ; 0.0
105 ; 4067725.546045514 ; 2.0179494094414294E8 ; 4.0104500654897076E8 ; 1.949976303608237E10 ; 0.0
106 ; 4063906.284554115 ; 2.0180817733097285E8 ; 4.051127320950163E8 ; 1.9701557977026512E10 ; 0.0
107 ; 4058881.0270611397 ; 2.0182140161368853E8 ; 4.091766383795704E8 ; 1.9903366154357487E10 ; 0.0
108 ; 4052229.536333826 ; 2.0183461311113474E8 ; 4.132355194066316E8 ; 2.0105187555971176E10 ; 0.0
109 ; 4052793.7665402824 ; 2.018478111574676E8 ; 4.172877489429654E8 ; 2.030702216908231E10 ; 0.0
110 ; 4045625.38012622 ; 2.0186099510152587E8 ; 4.213405427095057E8 ; 2.0508869980239777E10 ; 0.0
111 ; 4044559.5603819676 ; 2.018741643062332E8 ; 4.253861680896319E8 ; 2.07107309753413E10 ; 0.0
112 ; 4042670.868448675 ; 2.018873181480304E8 ; 4.2943072765001386E8 ; 2.0912605139647533E10 ; 0.0
113 ; 4032767.5615656595 ; 2.019004560163354E8 ; 4.3347339851846254E8 ; 2.1114492457795563E10 ; 0.0
114 ; 4031381.829271987 ; 2.0191357731302992E8 ; 4.375061660800282E8 ; 2.1316392913811897E10 ; 0.0
115 ; 4025276.716507136 ; 2.019266814519708E8 ; 4.4153754790930015E8 ; 2.1518306491124928E10 ; 0.0
116 ; 4021539.792176194 ; 2.0193976785852528E8 ; 4.455628246258073E8 ; 2.1720233172576897E10 ; 0.0
117 ; 4015187.4247444915 ; 2.0195283596912864E8 ; 4.495843644179835E8 ; 2.192217294043542E10 ; 0.0
118 ; 4012571.479428351 ; 2.0196588523086292E8 ; 4.5359955184272796E8 ; 2.212412577640455E10 ; 0.0
119 ; 4005248.696766883 ; 2.0197891510105562E8 ; 4.576121233221563E8 ; 2.232609166163541E10 ; 0.0
120 ; 4003023.5301901805 ; 2.019919250468977E8 ; 4.6161737201892316E8 ; 2.2528070576736465E10 ; 0.0
121 ; 3996721.2007001434 ; 2.0200491454507923E8 ; 4.6562039554911333E8 ; 2.2730062501783363E10 ; 0.0
122 ; 3990708.7013389436 ; 2.020178830814423E8 ; 4.696171167498135E8 ; 2.293206741632844E10 ; 0.0
123 ; 3988360.476247461 ; 2.0203083015065002E8 ; 4.7360782545115244E8 ; 2.3134085299409885E10 ; 0.0
124 ; 3978184.897844345 ; 2.020437552558709E8 ; 4.7759618592739993E8 ; 2.3336116129560535E10 ; 0.0
125 ; 3978321.3111989684 ; 2.0205665790847763E8 ; 4.815743708252443E8 ; 2.3538159884816406E10 ; 0.0
126 ; 3969182.154481513 ; 2.0206953762775975E8 ; 4.8555269213644326E8 ; 2.3740216542724884E10 ; 0.0
127 ; 3964811.31577287 ; 2.0208239394064948E8 ; 4.895218742909248E8 ; 2.3942286080352642E10 ; 0.0
128 ; 3955547.809256468 ; 2.0209522638145974E8 ; 4.934866856066977E8 ; 2.4144368474293293E10 ; 0.0
129 ; 3954365.2885650042 ; 2.021080344916342E8 ; 4.974422334159542E8 ; 2.434646370067475E10 ; 0.0
130 ; 3944452.9591282825 ; 2.0212081781950837E8 ; 5.0139659870451915E8 ; 2.4548571735166386E10 ; 0.0
131 ; 3936965.7764299843 ; 2.0213357592008144E8 ; 5.053410516636474E8 ; 2.4750692552985893E10 ; 0.0
132 ; 3929832.169677996 ; 2.021463083547981E8 ; 5.092780174400774E8 ; 2.4952826128905975E10 ; 0.0
133 ; 3917797.9277184037 ; 2.021590146913403E8 ; 5.132078496097554E8 ; 2.5154972437260773E10 ; 0.0
134 ; 3909146.700614017 ; 2.0217169450342757E8 ; 5.171256475374738E8 ; 2.5357131451952114E10 ; 0.0
135 ; 3896336.2760945735 ; 2.0218434737062666E8 ; 5.2103479423808783E8 ; 2.5559303146455544E10 ; 0.0
136 ; 3886445.6863395446 ; 2.021969728781691E8 ; 5.249311305141824E8 ; 2.576148749382617E10 ; 0.0
137 ; 3876964.9851396857 ; 2.0220957061677673E8 ; 5.2881757620052195E8 ; 2.596368446670434E10 ; 0.0
138 ; 3866485.1325293113 ; 2.0222214018249467E8 ; 5.326945411856616E8 ; 2.6165894037321117E10 ; 0.0
139 ; 3855848.7973921695 ; 2.0223468117653155E8 ; 5.3656102631819093E8 ; 2.6368116177503613E10 ; 0.0
140 ; 3846439.6499618464 ; 2.0224719320510647E8 ; 5.404168751155831E8 ; 2.6570350858680145E10 ; 0.0
141 ; 3835513.131740433 ; 2.0225967587930238E8 ; 5.442633147655449E8 ; 2.677259805188525E10 ; 0.0
142 ; 3821717.2936022244 ; 2.022721288149258E8 ; 5.480988278972853E8 ; 2.6974857727764553E10 ; 0.0
143 ; 3816620.588919583 ; 2.0228455163237217E8 ; 5.519205451908876E8 ; 2.717712985657948E10 ; 0.0
144 ; 3801448.165170979 ; 2.022969439564972E8 ; 5.557371657798072E8 ; 2.7379414408211853E10 ; 0.0
145 ; 3798881.1631651623 ; 2.0230930541649312E8 ; 5.595386139449782E8 ; 2.758171135216835E10 ; 0.0
146 ; 3794444.572821634 ; 2.0232163564577043E8 ; 5.633374951081434E8 ; 2.7784020657584843E10 ; 0.0
147 ; 3783821.195984078 ; 2.0233393428184435E8 ; 5.671319396809651E8 ; 2.7986342293230614E10 ; 0.0
148 ; 3781497.128290844 ; 2.0234620096622583E8 ; 5.709157608769492E8 ; 2.818867622751246E10 ; 0.0
149 ; 3774834.859497656 ; 2.023584353443172E8 ; 5.746972580052401E8 ; 2.8391022428478683E10 ; 0.0
150 ; 3765189.1482528416 ; 2.0237063706531194E8 ; 5.784720928647377E8 ; 2.8593380863823E10 ; 0.0
151 ; 3760401.9890419226 ; 2.0238280578209862E8 ; 5.822372820129906E8 ; 2.8795751500888313E10 ; 0.0
152 ; 3755505.9631179813 ; 2.0239494115116856E8 ; 5.859976840020325E8 ; 2.899813430667041E10 ; 0.0
153 ; 3749677.1034380565 ; 2.0240704283252725E8 ; 5.897531899651505E8 ; 2.920052924782158E10 ; 0.0
154 ; 3745057.3937323196 ; 2.0241911048960933E8 ; 5.935028670685885E8 ; 2.9402936290654106E10 ; 0.0
155 ; 3735115.4151513283 ; 2.0243114378919712E8 ; 5.972479244623208E8 ; 2.9605355401143715E10 ; 0.0
156 ; 3729427.5096147466 ; 2.0244314240134194E8 ; 6.009830398774722E8 ; 2.980778654493291E10 ; 0.0
157 ; 3722318.135938717 ; 2.0245510599928904E8 ; 6.047124673870869E8 ; 3.001022968733425E10 ; 0.0
158 ; 3719583.5686813593 ; 2.0246703425940508E8 ; 6.084347855230256E8 ; 3.021268479333354E10 ; 0.0
159 ; 3713653.4489211803 ; 2.024789268611088E8 ; 6.12154369091707E8 ; 3.0415151827592945E10 ; 0.0
160 ; 3703036.673351225 ; 2.024907834868041E8 ; 6.158680225406282E8 ; 3.0617630754454056E10 ; 0.0
161 ; 3696110.4151576273 ; 2.0250260382181588E8 ; 6.195710592139794E8 ; 3.082012153794086E10 ; 0.0
162 ; 3688735.129292727 ; 2.0251438755432835E8 ; 6.23267169629137E8 ; 3.1022624141762676E10 ; 0.0
163 ; 3685723.7244895333 ; 2.025261343753257E8 ; 6.269559047584298E8 ; 3.1225138529317005E10 ; 0.0
164 ; 3680616.6254825434 ; 2.0253784397853515E8 ; 6.306416284829193E8 ; 3.142766466369233E10 ; 0.0
165 ; 3672548.214694354 ; 2.0254951606037194E8 ; 6.343222451084019E8 ; 3.1630202507670864E10 ; 0.0
166 ; 3665802.3257251033 ; 2.0256115031988674E8 ; 6.379947933230963E8 ; 3.1832752023731236E10 ; 0.0
167 ; 3659664.504507854 ; 2.0257274645871487E8 ; 6.416605956488214E8 ; 3.203531317405112E10 ; 0.0
168 ; 3653005.546917423 ; 2.025843041810275E8 ; 6.453202601533293E8 ; 3.2237885920509834E10 ; 0.0
169 ; 3648877.7000150173 ; 2.0259582319348466E8 ; 6.489732657002467E8 ; 3.244047022469086E10 ; 0.0
170 ; 3639668.4616572103 ; 2.026073032051902E8 ; 6.526221434002618E8 ; 3.2643066047884346E10 ; 0.0
171 ; 3633835.6376496423 ; 2.0261874392764813E8 ; 6.562618118619189E8 ; 3.2845673351089535E10 ; 0.0
172 ; 3632169.8834028686 ; 2.0263014507472098E8 ; 6.598956474995686E8 ; 3.304829209501718E10 ; 0.0
173 ; 3620447.4976543873 ; 2.0264150636258942E8 ; 6.635278173829714E8 ; 3.3250922240091904E10 ; 0.0
174 ; 3617125.7191172815 ; 2.0265282750971353E8 ; 6.671482648806258E8 ; 3.3453563746454494E10 ; 0.0
175 ; 3611723.3135691746 ; 2.026641082367955E8 ; 6.707653905997431E8 ; 3.3656216573964207E10 ; 0.0
176 ; 3607680.221987524 ; 2.026753482667438E8 ; 6.743771139133123E8 ; 3.3858880682201004E10 ; 0.0
177 ; 3604669.2953981627 ; 2.0268654732463846E8 ; 6.779847941352998E8 ; 3.4061556030467747E10 ; 0.0
178 ; 3596289.5906561273 ; 2.0269770513769776E8 ; 6.815894634306979E8 ; 3.4264242577792385E10 ; 0.0
179 ; 3593584.7488389243 ; 2.027088214352464E8 ; 6.851857530213541E8 ; 3.4466940282930084E10 ; 0.0
180 ; 3586867.5011081467 ; 2.0271989594868436E8 ; 6.88779337770193E8 ; 3.466964910436533E10 ; 0.0
181 ; 3586045.626694516 ; 2.0273092841145733E8 ; 6.923662052713012E8 ; 3.487236900031402E10 ; 0.0
182 ; 3578191.6125163436 ; 2.0274191855902797E8 ; 6.959522508979957E8 ; 3.507509992872548E10 ; 0.0
183 ; 3575695.1288769115 ; 2.0275286612884837E8 ; 6.995304425105121E8 ; 3.527784184728451E10 ; 0.0
184 ; 3571309.9879428586 ; 2.027637708603335E8 ; 7.03106137639389E8 ; 3.548059471341335E10 ; 0.0
185 ; 3561905.4410316576 ; 2.0277463249483553E8 ; 7.066774476273319E8 ; 3.568335848427369E10 ; 0.0
186 ; 3561038.367183886 ; 2.0278545077561927E8 ; 7.102393530683635E8 ; 3.5886133116768524E10 ; 0.0
187 ; 3559168.905310034 ; 2.0279622544783834E8 ; 7.138003914355475E8 ; 3.608891856754414E10 ; 0.0
188 ; 3551314.9110731203 ; 2.028069562585123E8 ; 7.173595603408575E8 ; 3.629171479299198E10 ; 0.0
189 ; 3547685.7407554328 ; 2.0281764295650458E8 ; 7.209108752519306E8 ; 3.6494521749250496E10 ; 0.0
190 ; 3544645.677386245 ; 2.0282828529250136E8 ; 7.24458560992686E8 ; 3.6697339392207E10 ; 0.0
191 ; 3536017.7255445067 ; 2.0283888301899087E8 ; 7.280032066700723E8 ; 3.6900167677499504E10 ; 0.0
192 ; 3532862.4793138537 ; 2.0284943589024386E8 ; 7.315392243956168E8 ; 3.710300656051849E10 ; 0.0
193 ; 3527789.731726766 ; 2.0285994366229448E8 ; 7.350720868749306E8 ; 3.730585599640874E10 ; 0.0
194 ; 3526046.952839584 ; 2.028704060929221E8 ; 7.385998766066574E8 ; 3.750871594007103E10 ; 0.0
195 ; 3519652.3119893465 ; 2.0288082294163343E8 ; 7.42125923559497E8 ; 3.771158634616395E10 ; 0.0
196 ; 3515585.701695815 ; 2.0289119396964583E8 ; 7.456455758714863E8 ; 3.791446716910558E10 ; 0.0
197 ; 3510260.5316887028 ; 2.0290151893987066E8 ; 7.491611615731821E8 ; 3.8117358363075226E10 ; 0.0
198 ; 3504849.741548679 ; 2.0291179761689764E8 ; 7.526714221048708E8 ; 3.83202598820151E10 ; 0.0
199 ; 3500386.238074117 ; 2.0292202976697958E8 ; 7.561762718464195E8 ; 3.8523171679631996E10 ; 0.0
200 ; 3493278.116487904 ; 2.0293221515801772E8 ; 7.596766580844935E8 ; 3.872609370939898E10 ; 0.0
