CSV File for the City 4 on Day 23
1 - Minute m 
2 - Power Consumed at minute m 
3 - Power Produced at minute m 
4 - Energy Consumed since the beginning of the day 
5 - Energy Produced since the beginning of the day 
6 - Energy Lost since the beginning of the day on lines starting from the city
 
0 ; 6796985.088319943 ; 1.053546412318457E8 ; 0.0 ; 0.0 ; 0.0
1 ; 6801755.940711775 ; 1.0549698521114796E8 ; 6796985.088319943 ; 1.053546412318457E8 ; 0.0
2 ; 6812094.714901068 ; 1.0594851499215546E8 ; 1.3598741029031718E7 ; 2.1085162644299367E8 ; 0.0
3 ; 6816731.779523243 ; 1.0670934880707741E8 ; 2.0410835743932787E7 ; 3.1680014143514913E8 ; 0.0
4 ; 6830183.316882851 ; 1.0777963106228656E8 ; 2.722756752345603E7 ; 4.2350949024222654E8 ; 0.0
5 ; 6839959.524755562 ; 1.0915953469547933E8 ; 3.405775084033888E7 ; 5.312891213045131E8 ; 0.0
6 ; 6857641.531578524 ; 1.1084926006226733E8 ; 4.089771036509444E7 ; 6.404486559999924E8 ; 0.0
7 ; 6878877.124502129 ; 1.1284902732517076E8 ; 4.7755351896672964E7 ; 7.512979160622597E8 ; 0.0
8 ; 6912943.791285672 ; 1.1515905921900159E8 ; 5.4634229021175094E7 ; 8.641469433874304E8 ; 0.0
9 ; 6961709.316562508 ; 1.1777955325098956E8 ; 6.1547172812460765E7 ; 9.79306002606432E8 ; 0.0
10 ; 7042884.608851549 ; 1.2071064776318759E8 ; 6.850888212902327E7 ; 1.0970855558574214E9 ; 0.0
11 ; 7162897.358021795 ; 1.2395239275716242E8 ; 7.555176673787482E7 ; 1.217796203620609E9 ; 0.0
12 ; 7360268.603370728 ; 1.275047382313473E8 ; 8.271466409589662E7 ; 1.3417485963777714E9 ; 0.0
13 ; 7552450.764472558 ; 1.3136754584368926E8 ; 9.007493269926734E7 ; 1.4692533346091187E9 ; 0.0
14 ; 7574298.875117169 ; 1.355406180869587E8 ; 9.76273834637399E7 ; 1.600620880452808E9 ; 0.0
15 ; 7583543.406852526 ; 1.400237322263435E8 ; 1.0520168233885707E8 ; 1.7361614985397666E9 ; 0.0
16 ; 7592419.949117576 ; 1.448166680993236E8 ; 1.127852257457096E8 ; 1.87618523076611E9 ; 0.0
17 ; 7599822.4780851025 ; 1.499192253502873E8 ; 1.2037764569482717E8 ; 2.0210018988654335E9 ; 0.0
18 ; 7610185.236444904 ; 1.5533123104153818E8 ; 1.2797746817291227E8 ; 2.1709211242157207E9 ; 0.0
19 ; 7618351.343518873 ; 1.6105254076670352E8 ; 1.3558765340935716E8 ; 2.326252355257259E9 ; 0.0
20 ; 7628668.731576768 ; 1.6708303629357406E8 ; 1.4320600475287604E8 ; 2.4873048960239625E9 ; 0.0
21 ; 7635234.407482408 ; 1.7342262183141312E8 ; 1.508346734844528E8 ; 2.6543879323175364E9 ; 0.0
22 ; 7647590.485746259 ; 1.8007122010416538E8 ; 1.5846990789193523E8 ; 2.8278105541489496E9 ; 0.0
23 ; 7652287.938969129 ; 1.8702876878137058E8 ; 1.661174983776815E8 ; 3.007881774253115E9 ; 0.0
24 ; 7663009.104451706 ; 1.9429521745818108E8 ; 1.7376978631665063E8 ; 3.194910543034486E9 ; 0.0
25 ; 7669974.445221951 ; 2.0055856609539524E8 ; 1.8143279542110234E8 ; 3.3892057604926667E9 ; 0.0
26 ; 7682460.604647847 ; 2.0057232909796482E8 ; 1.891027698663243E8 ; 3.589764326588062E9 ; 0.0
27 ; 7691139.445446329 ; 2.0058624829723722E8 ; 1.9678523047097215E8 ; 3.7903366556860266E9 ; 0.0
28 ; 7697608.213281031 ; 2.0060030098869962E8 ; 2.044763699164185E8 ; 3.990922903983264E9 ; 0.0
29 ; 7707703.865518167 ; 2.0061446827871987E8 ; 2.1217397812969953E8 ; 4.1915232049719634E9 ; 0.0
30 ; 7713857.482474361 ; 2.0062873434247363E8 ; 2.1988168199521768E8 ; 4.392137673250683E9 ; 0.0
31 ; 7720944.424519977 ; 2.0064308584032267E8 ; 2.2759553947769204E8 ; 4.592766407593157E9 ; 0.0
32 ; 7728301.042360929 ; 2.006575114568779E8 ; 2.3531648390221202E8 ; 4.793409493433479E9 ; 0.0
33 ; 7739974.615899846 ; 2.006720015351795E8 ; 2.4304478494457296E8 ; 4.994067004890357E9 ; 0.0
34 ; 7742724.126863295 ; 2.0068654778483525E8 ; 2.507847595604728E8 ; 5.194739006425536E9 ; 0.0
35 ; 7753819.371261467 ; 2.00701143047888E8 ; 2.585274836873361E8 ; 5.395425554210371E9 ; 0.0
36 ; 7757277.487562378 ; 2.007157811099512E8 ; 2.6628130305859756E8 ; 5.596126697258259E9 ; 0.0
37 ; 7764786.454644659 ; 2.0073045654701605E8 ; 2.740385805461599E8 ; 5.79684247836821E9 ; 0.0
38 ; 7772424.796168962 ; 2.0074516460051444E8 ; 2.818033670008046E8 ; 5.997572934915226E9 ; 0.0
39 ; 7780734.249721274 ; 2.007599010748816E8 ; 2.895757917969736E8 ; 6.19831809951574E9 ; 0.0
40 ; 7784676.553088272 ; 2.0077466225313032E8 ; 2.973565260466949E8 ; 6.399078000590622E9 ; 0.0
41 ; 7790801.921055848 ; 2.007894448269187E8 ; 3.051412025997831E8 ; 6.599852662843752E9 ; 0.0
42 ; 7795517.578297783 ; 2.0080424583834243E8 ; 3.12932004520839E8 ; 6.8006421076706705E9 ; 0.0
43 ; 7798283.582207301 ; 2.008190626312581E8 ; 3.2072752209913677E8 ; 7.001446353509013E9 ; 0.0
44 ; 7802437.98703433 ; 2.008338928103935E8 ; 3.285258056813441E8 ; 7.202265416140271E9 ; 0.0
45 ; 7807605.338563241 ; 2.0084873420685008E8 ; 3.363282436683784E8 ; 7.4030993089506645E9 ; 0.0
46 ; 7814019.845471651 ; 2.0086358484887704E8 ; 3.441358490069417E8 ; 7.603948043157515E9 ; 0.0
47 ; 7817072.3124806825 ; 2.0087844293701255E8 ; 3.5194986885241336E8 ; 7.804811628006392E9 ; 0.0
48 ; 7820454.561703545 ; 2.0089330682285792E8 ; 3.5976694116489404E8 ; 8.005690070943404E9 ; 0.0
49 ; 7820561.154094954 ; 2.009081749908871E8 ; 3.675873957265976E8 ; 8.206583377766262E9 ; 0.0
50 ; 7824242.394217614 ; 2.009230460428026E8 ; 3.7540795688069254E8 ; 8.407491552757149E9 ; 0.0
51 ; 7825985.70655901 ; 2.0093791868403494E8 ; 3.8323219927491015E8 ; 8.608414598799952E9 ; 0.0
52 ; 7828384.787261723 ; 2.009527917120544E8 ; 3.9105818498146915E8 ; 8.809352517483986E9 ; 0.0
53 ; 7831947.709139926 ; 2.009676640062199E8 ; 3.988865697687309E8 ; 9.010305309196041E9 ; 0.0
54 ; 7830460.95925896 ; 2.0098253451893622E8 ; 4.067185174778708E8 ; 9.211272973202261E9 ; 0.0
55 ; 7833872.613249051 ; 2.009974022679288E8 ; 4.145489784371298E8 ; 9.412255507721197E9 ; 0.0
56 ; 7839260.433146491 ; 2.010122663294757E8 ; 4.2238285105037886E8 ; 9.613252909989126E9 ; 0.0
57 ; 7838063.8820190355 ; 2.0102712583246267E8 ; 4.3022211148352534E8 ; 9.814265176318602E9 ; 0.0
58 ; 7841112.9807004705 ; 2.0104197995314753E8 ; 4.380601753655444E8 ; 1.0015292302151064E10 ; 0.0
59 ; 7841754.375420709 ; 2.0105682791053778E8 ; 4.459012883462449E8 ; 1.0216334282104212E10 ; 0.0
60 ; 7842685.634955126 ; 2.0107166896229973E8 ; 4.5374304272166556E8 ; 1.041739111001475E10 ; 0.0
61 ; 7841936.809295394 ; 2.0108650240113023E8 ; 4.6158572835662067E8 ; 1.0618462778977049E10 ; 0.0
62 ; 7845864.405654178 ; 2.0110132755153066E8 ; 4.694276651659161E8 ; 1.081954928137818E10 ; 0.0
63 ; 7846013.492549102 ; 2.0111614376693323E8 ; 4.772735295715703E8 ; 1.102065060892971E10 ; 0.0
64 ; 7846056.681392283 ; 2.0113095042713544E8 ; 4.851195430641194E8 ; 1.1221766752696644E10 ; 0.0
65 ; 7846971.515540512 ; 2.0114574693600515E8 ; 4.929655997455117E8 ; 1.142289770312378E10 ; 0.0
66 ; 7850091.27057222 ; 2.011605327194237E8 ; 5.0081257126105225E8 ; 1.1624043450059784E10 ; 0.0
67 ; 7851160.427658763 ; 2.0117530722343916E8 ; 5.086626625316245E8 ; 1.1825203982779207E10 ; 0.0
68 ; 7853101.463700628 ; 2.0119006991260502E8 ; 5.1651382295928323E8 ; 1.2026379290002645E10 ; 0.0
69 ; 7854314.2801212 ; 2.0120482026848325E8 ; 5.243669244229839E8 ; 1.222756935991525E10 ; 0.0
70 ; 7852647.355221414 ; 2.0121955778829327E8 ; 5.322212387031051E8 ; 1.2428774180183735E10 ; 0.0
71 ; 7853513.646019252 ; 2.0123428198369026E8 ; 5.400738860583265E8 ; 1.2629993737972029E10 ; 0.0
72 ; 7854623.999649671 ; 2.0124899237965935E8 ; 5.479273997043457E8 ; 1.2831228019955719E10 ; 0.0
73 ; 7856351.86971974 ; 2.0126368851351243E8 ; 5.557820237039953E8 ; 1.3032477012335379E10 ; 0.0
74 ; 7854608.49151515 ; 2.0127836993397737E8 ; 5.636383755737151E8 ; 1.323374070084889E10 ; 0.0
75 ; 7855006.868327333 ; 2.0129303620036933E8 ; 5.714929840652303E8 ; 1.3435019070782867E10 ; 0.0
76 ; 7856912.437245635 ; 2.0130768688183656E8 ; 5.793479909335576E8 ; 1.3636312106983236E10 ; 0.0
77 ; 7856268.0168715855 ; 2.0132232155667213E8 ; 5.872049033708032E8 ; 1.3837619793865072E10 ; 0.0
78 ; 7854739.02289074 ; 2.0133693981168562E8 ; 5.950611713876748E8 ; 1.4038942115421745E10 ; 0.0
79 ; 7852302.634559806 ; 2.0135154124162894E8 ; 6.029159104105655E8 ; 1.424027905523343E10 ; 0.0
80 ; 7852194.579581251 ; 2.0136612544867027E8 ; 6.107682130451252E8 ; 1.444163059647506E10 ; 0.0
81 ; 7848819.651928583 ; 2.0138069204191235E8 ; 6.186204076247065E8 ; 1.4642996721923729E10 ; 0.0
82 ; 7846601.60043604 ; 2.0139524063695043E8 ; 6.26469227276635E8 ; 1.4844377413965641E10 ; 0.0
83 ; 7843964.605462618 ; 2.0140977085546607E8 ; 6.343158288770711E8 ; 1.504577265460259E10 ; 0.0
84 ; 7840023.60302168 ; 2.0142428232485396E8 ; 6.421597934825338E8 ; 1.5247182425458057E10 ; 0.0
85 ; 7837953.842096095 ; 2.0143877467787817E8 ; 6.499998170855554E8 ; 1.5448606707782911E10 ; 0.0
86 ; 7835230.986442034 ; 2.0145324755235568E8 ; 6.578377709276515E8 ; 1.5650045482460789E10 ; 0.0
87 ; 7832490.512829872 ; 2.0146770059086427E8 ; 6.656730019140936E8 ; 1.5851498730013144E10 ; 0.0
88 ; 7827859.255098459 ; 2.014821334404732E8 ; 6.735054924269235E8 ; 1.6052966430604008E10 ; 0.0
89 ; 7827211.069882876 ; 2.014965457524941E8 ; 6.81333351682022E8 ; 1.6254448564044481E10 ; 0.0
90 ; 7824588.09273627 ; 2.0151093718225074E8 ; 6.891605627519048E8 ; 1.6455945109796976E10 ; 0.0
91 ; 7820793.260056849 ; 2.01525307388866E8 ; 6.969851508446411E8 ; 1.6657456046979227E10 ; 0.0
92 ; 7816642.629483964 ; 2.0153965603506452E8 ; 7.04805944104698E8 ; 1.6858981354368093E10 ; 0.0
93 ; 7812042.258799138 ; 2.015539827869897E8 ; 7.126225867341819E8 ; 1.7060521010403158E10 ; 0.0
94 ; 7808596.271093564 ; 2.0156828731403393E8 ; 7.204346289929811E8 ; 1.7262074993190147E10 ; 0.0
95 ; 7805976.283247533 ; 2.0158256928868118E8 ; 7.282432252640747E8 ; 1.746364328050418E10 ; 0.0
96 ; 7802376.838300541 ; 2.0159682838636056E8 ; 7.360492015473223E8 ; 1.7665225849792862E10 ; 0.0
97 ; 7800777.571767358 ; 2.016110642853102E8 ; 7.438515783856229E8 ; 1.7866822678179222E10 ; 0.0
98 ; 7795553.870265165 ; 2.0162527666645083E8 ; 7.516523559573902E8 ; 1.806843374246453E10 ; 0.0
99 ; 7793164.113043102 ; 2.0163946521326774E8 ; 7.594479098276553E8 ; 1.827005901913098E10 ; 0.0
100 ; 7786682.406578569 ; 2.0165362961170125E8 ; 7.672410739406984E8 ; 1.847169848434425E10 ; 0.0
101 ; 7783678.176237156 ; 2.0166776955004433E8 ; 7.750277563472769E8 ; 1.867335211395595E10 ; 0.0
102 ; 7780004.656936215 ; 2.016818847188473E8 ; 7.82811434523514E8 ; 1.8875019883505997E10 ; 0.0
103 ; 7777848.847544485 ; 2.0169597481082886E8 ; 7.905914391804502E8 ; 1.9076701768224846E10 ; 0.0
104 ; 7771086.974648274 ; 2.0171003952079308E8 ; 7.983692880279946E8 ; 1.9278397743035675E10 ; 0.0
105 ; 7769961.666353757 ; 2.017240785455518E8 ; 8.061403750026429E8 ; 1.948010778255647E10 ; 0.0
106 ; 7763712.599864546 ; 2.0173809158385235E8 ; 8.139103366689966E8 ; 1.968183186110202E10 ; 0.0
107 ; 7759338.161573109 ; 2.017520783363096E8 ; 8.216740492688612E8 ; 1.988356995268587E10 ; 0.0
108 ; 7752568.311581268 ; 2.017660385053429E8 ; 8.294333874304342E8 ; 2.0085322031022182E10 ; 0.0
109 ; 7748551.0775413215 ; 2.0177997179511675E8 ; 8.371859557420155E8 ; 2.0287088069527527E10 ; 0.0
110 ; 7744228.330091939 ; 2.0179387791148537E8 ; 8.449345068195568E8 ; 2.0488868041322643E10 ; 0.0
111 ; 7738765.833079402 ; 2.0180775656194097E8 ; 8.526787351496488E8 ; 2.0690661919234127E10 ; 0.0
112 ; 7735508.686476322 ; 2.01821607455565E8 ; 8.604175009827282E8 ; 2.0892469675796066E10 ; 0.0
113 ; 7731677.744767206 ; 2.0183543030298293E8 ; 8.681530096692046E8 ; 2.1094291283251633E10 ; 0.0
114 ; 7729037.738989757 ; 2.018492248163214E8 ; 8.758846874139718E8 ; 2.1296126713554615E10 ; 0.0
115 ; 7722115.429888878 ; 2.018629907091685E8 ; 8.836137251529615E8 ; 2.1497975938370937E10 ; 0.0
116 ; 7718845.213094295 ; 2.0187672769653627E8 ; 8.913358405828503E8 ; 2.1699838929080105E10 ; 0.0
117 ; 7708451.303688059 ; 2.0189043549482572E8 ; 8.990546857959447E8 ; 2.190171565677664E10 ; 0.0
118 ; 7704842.242478863 ; 2.0190411382179388E8 ; 9.067631370996327E8 ; 2.210360609227147E10 ; 0.0
119 ; 7700926.25127345 ; 2.0191776239652303E8 ; 9.144679793421116E8 ; 2.230551020609326E10 ; 0.0
120 ; 7694788.463183785 ; 2.019313809393919E8 ; 9.22168905593385E8 ; 2.2507427968489784E10 ; 0.0
121 ; 7691694.692989661 ; 2.0194496917204854E8 ; 9.298636940565687E8 ; 2.2709359349429176E10 ; 0.0
122 ; 7684669.832934315 ; 2.0195852681738478E8 ; 9.375553887495584E8 ; 2.2911304318601223E10 ; 0.0
123 ; 7676180.124447837 ; 2.0197205359951276E8 ; 9.452400585824927E8 ; 2.311326284541861E10 ; 0.0
124 ; 7675124.258041032 ; 2.0198554924374226E8 ; 9.529162387069405E8 ; 2.3315234899018124E10 ; 0.0
125 ; 7666545.252159222 ; 2.0199901347656012E8 ; 9.605913629649816E8 ; 2.3517220448261868E10 ; 0.0
126 ; 7664950.175381784 ; 2.020124460256104E8 ; 9.682579082171408E8 ; 2.3719219461738426E10 ; 0.0
127 ; 7655215.441534514 ; 2.0202584661967605E8 ; 9.759228583925226E8 ; 2.3921231907764038E10 ; 0.0
128 ; 7650555.624819065 ; 2.020392149886619E8 ; 9.835780738340571E8 ; 2.4123257754383713E10 ; 0.0
129 ; 7644059.350991553 ; 2.0205255086357832E8 ; 9.912286294588761E8 ; 2.4325296969372375E10 ; 0.0
130 ; 7636001.507988368 ; 2.0206585397652623E8 ; 9.988726888098677E8 ; 2.4527349520235954E10 ; 0.0
131 ; 7627101.041367745 ; 2.0207912406068307E8 ; 1.0065086903178561E9 ; 2.472941537421248E10 ; 0.0
132 ; 7619254.816365546 ; 2.020923608502895E8 ; 1.0141357913592238E9 ; 2.4931494498273163E10 ; 0.0
133 ; 7610411.68303859 ; 2.0210556408063704E8 ; 1.0217550461755894E9 ; 2.513358685912345E10 ; 0.0
134 ; 7601686.333022636 ; 2.0211873348805675E8 ; 1.029365457858628E9 ; 2.533569242320409E10 ; 0.0
135 ; 7593068.3318903735 ; 2.021318688099082E8 ; 1.0369671441916506E9 ; 2.5537811156692146E10 ; 0.0
136 ; 7587177.281152945 ; 2.021449697845697E8 ; 1.044560212523541E9 ; 2.5739943025502056E10 ; 0.0
137 ; 7573969.990741678 ; 2.0215803615142873E8 ; 1.0521473898046939E9 ; 2.5942087995286625E10 ; 0.0
138 ; 7566716.441592461 ; 2.0217106765087336E8 ; 1.0597213597954357E9 ; 2.6144246031438053E10 ; 0.0
139 ; 7557227.452827058 ; 2.0218406402428418E8 ; 1.0672880762370281E9 ; 2.634641709908893E10 ; 0.0
140 ; 7547129.694810487 ; 2.021970250140267E8 ; 1.074845303689855E9 ; 2.6548601163113213E10 ; 0.0
141 ; 7539136.874645126 ; 2.022099503634444E8 ; 1.0823924333846655E9 ; 2.675079818812724E10 ; 0.0
142 ; 7529423.370928196 ; 2.0222283981685227E8 ; 1.0899315702593107E9 ; 2.6953008138490685E10 ; 0.0
143 ; 7518956.161362895 ; 2.0223569311953095E8 ; 1.097460993630239E9 ; 2.7155230978307537E10 ; 0.0
144 ; 7511861.1748747155 ; 2.02248510017721E8 ; 1.104979949791602E9 ; 2.7357466671427067E10 ; 0.0
145 ; 7504355.440912069 ; 2.022612902586181E8 ; 1.1124918109664767E9 ; 2.7559715181444786E10 ; 0.0
146 ; 7495160.663460472 ; 2.0227403359036812E8 ; 1.1199961664073887E9 ; 2.7761976471703403E10 ; 0.0
147 ; 7487844.707199246 ; 2.0228673976206303E8 ; 1.1274913270708492E9 ; 2.796425050529377E10 ; 0.0
148 ; 7480701.209507638 ; 2.0229940852373704E8 ; 1.1349791717780485E9 ; 2.8166537245055832E10 ; 0.0
149 ; 7476144.6893831305 ; 2.0231203962636286E8 ; 1.1424598729875562E9 ; 2.836883665357957E10 ; 0.0
150 ; 7469326.214574376 ; 2.023246328218487E8 ; 1.1499360176769392E9 ; 2.8571148693205933E10 ; 0.0
151 ; 7462594.090675413 ; 2.0233718786303526E8 ; 1.1574053438915136E9 ; 2.8773473326027782E10 ; 0.0
152 ; 7457518.963976666 ; 2.023497045036932E8 ; 1.164867937982189E9 ; 2.897581051389082E10 ; 0.0
153 ; 7450912.973541149 ; 2.0236218249852082E8 ; 1.1723254569461656E9 ; 2.9178160218394512E10 ; 0.0
154 ; 7442230.34971332 ; 2.02374621603142E8 ; 1.1797763699197068E9 ; 2.9380522400893032E10 ; 0.0
155 ; 7433023.81038873 ; 2.023870215741044E8 ; 1.1872186002694201E9 ; 2.9582897022496174E10 ; 0.0
156 ; 7428215.439063194 ; 2.0239938216887808E8 ; 1.194651624079809E9 ; 2.978528404407028E10 ; 0.0
157 ; 7419740.140327483 ; 2.02411703145854E8 ; 1.2020798395188723E9 ; 2.9987683426239155E10 ; 0.0
158 ; 7412231.145448117 ; 2.0242398426434305E8 ; 1.2094995796591997E9 ; 3.019009512938501E10 ; 0.0
159 ; 7408342.293717465 ; 2.0243622528457513E8 ; 1.216911810804648E9 ; 3.0392519113649353E10 ; 0.0
160 ; 7399882.190853657 ; 2.0244842596769857E8 ; 1.2243201530983653E9 ; 3.059495533893393E10 ; 0.0
161 ; 7395701.948717654 ; 2.0246058607577953E8 ; 1.231720035289219E9 ; 3.0797403764901627E10 ; 0.0
162 ; 7384850.88431332 ; 2.024727053718017E8 ; 1.2391157372379365E9 ; 3.0999864350977406E10 ; 0.0
163 ; 7376379.123044228 ; 2.0248478361966625E8 ; 1.2465005881222498E9 ; 3.120233705634921E10 ; 0.0
164 ; 7369547.649683748 ; 2.0249682058419177E8 ; 1.253876967245294E9 ; 3.1404821839968876E10 ; 0.0
165 ; 7361233.529293478 ; 2.0250881603111455E8 ; 1.2612465148949778E9 ; 3.1607318660553066E10 ; 0.0
166 ; 7355345.269850152 ; 2.0252076972708872E8 ; 1.2686077484242713E9 ; 3.180982747658418E10 ; 0.0
167 ; 7348358.634297284 ; 2.0253268143968695E8 ; 1.2759630936941216E9 ; 3.2012348246311268E10 ; 0.0
168 ; 7340969.031104713 ; 2.0254455093740088E8 ; 1.283311452328419E9 ; 3.2214880927750954E10 ; 0.0
169 ; 7331452.842900569 ; 2.0255637798964185E8 ; 1.2906524213595238E9 ; 3.2417425478688354E10 ; 0.0
170 ; 7326796.477057993 ; 2.0256816236674184E8 ; 1.2979838742024243E9 ; 3.2619981856677998E10 ; 0.0
171 ; 7321185.452036207 ; 2.0257990383995435E8 ; 1.3053106706794822E9 ; 3.282255001904474E10 ; 0.0
172 ; 7309846.978614322 ; 2.025916021814554E8 ; 1.3126318561315184E9 ; 3.3025129922884693E10 ; 0.0
173 ; 7304264.6914063925 ; 2.026032571643449E8 ; 1.3199417031101327E9 ; 3.3227721525066147E10 ; 0.0
174 ; 7300218.322523217 ; 2.0261486856264767E8 ; 1.3272459678015392E9 ; 3.343032478223049E10 ; 0.0
175 ; 7295894.6012589615 ; 2.026264361513149E8 ; 1.3345461861240623E9 ; 3.363293965079314E10 ; 0.0
176 ; 7290076.4486946985 ; 2.0263795970622572E8 ; 1.3418420807253213E9 ; 3.3835566086944454E10 ; 0.0
177 ; 7286568.458294845 ; 2.0264943900418845E8 ; 1.349132157174016E9 ; 3.403820404665068E10 ; 0.0
178 ; 7281424.119047067 ; 2.0266087382294238E8 ; 1.3564187256323109E9 ; 3.424085348565487E10 ; 0.0
179 ; 7278209.785399311 ; 2.026722639411595E8 ; 1.363700149751358E9 ; 3.444351435947781E10 ; 0.0
180 ; 7270698.990728461 ; 2.026836091384461E8 ; 1.3709783595367572E9 ; 3.4646186623418976E10 ; 0.0
181 ; 7266486.758854975 ; 2.0269490919534466E8 ; 1.3782490585274856E9 ; 3.484887023255742E10 ; 0.0
182 ; 7263067.1522046765 ; 2.027061638933358E8 ; 1.3855155452863405E9 ; 3.505156514175276E10 ; 0.0
183 ; 7258347.923769293 ; 2.0271737301484004E8 ; 1.3927786124385452E9 ; 3.5254271305646095E10 ; 0.0
184 ; 7253916.309905758 ; 2.0272853634322E8 ; 1.4000369603623145E9 ; 3.5456988678660934E10 ; 0.0
185 ; 7244948.796122487 ; 2.0273965366278237E8 ; 1.4072908766722202E9 ; 3.565971721500416E10 ; 0.0
186 ; 7245315.168164023 ; 2.0275072475878E8 ; 1.4145358254683428E9 ; 3.586245686866694E10 ; 0.0
187 ; 7239390.7550106095 ; 2.0276174941741404E8 ; 1.4217811406365068E9 ; 3.606520759342572E10 ; 0.0
188 ; 7233916.087494932 ; 2.027727274258362E8 ; 1.4290205313915174E9 ; 3.626796934284313E10 ; 0.0
189 ; 7229208.818339948 ; 2.0278365857215104E8 ; 1.4362544474790123E9 ; 3.647074207026897E10 ; 0.0
190 ; 7227944.184986123 ; 2.0279454264541805E8 ; 1.4434836562973523E9 ; 3.667352572884112E10 ; 0.0
191 ; 7221499.528938885 ; 2.0280537943565428E8 ; 1.4507116004823384E9 ; 3.6876320271486534E10 ; 0.0
192 ; 7216352.286113273 ; 2.0281616873383644E8 ; 1.4579331000112772E9 ; 3.707912565092219E10 ; 0.0
193 ; 7212246.40470699 ; 2.0282691033190346E8 ; 1.4651494522973905E9 ; 3.728194181965602E10 ; 0.0
194 ; 7210704.7185570225 ; 2.0283760402275875E8 ; 1.4723616987020974E9 ; 3.748476872998792E10 ; 0.0
195 ; 7202443.651882487 ; 2.0284824960027295E8 ; 1.4795724034206545E9 ; 3.768760633401068E10 ; 0.0
196 ; 7197352.227129631 ; 2.0285884685928607E8 ; 1.486774847072537E9 ; 3.7890454583610954E10 ; 0.0
197 ; 7193700.91883553 ; 2.0286939559561035E8 ; 1.4939721992996666E9 ; 3.809331343047024E10 ; 0.0
198 ; 7189261.8389598485 ; 2.0287989560603252E8 ; 1.5011659002185023E9 ; 3.829618282606585E10 ; 0.0
199 ; 7185470.162672962 ; 2.028903466883165E8 ; 1.5083551620574622E9 ; 3.849906272167188E10 ; 0.0
200 ; 7179344.635912388 ; 2.0290074864120603E8 ; 1.5155406322201352E9 ; 3.87019530683602E10 ; 0.0
201 ; 7178403.083558391 ; 1.852157883359225E8 ; 1.5227199768560476E9 ; 3.89048538170014E10 ; 0.0
