CSV File for the City 6 on Day 313
1 - Minute m 
2 - Power Consumed at minute m 
3 - Power Produced at minute m 
4 - Energy Consumed since the beginning of the day 
5 - Energy Produced since the beginning of the day 
6 - Energy Lost since the beginning of the day on lines starting from the city
 
0 ; 1.1286913896202004E7 ; 1.0674865849986354E8 ; 0.0 ; 0.0 ; 0.0
1 ; 1.130374456935192E7 ; 1.0689930085485393E8 ; 1.1286913896202004E7 ; 1.0674865849986354E8 ; 0.0
2 ; 1.1312003088312376E7 ; 1.0735896439652285E8 ; 2.2590658465553924E7 ; 2.1364795935471746E8 ; 0.0
3 ; 1.1330787953520192E7 ; 1.081276517564022E8 ; 3.39026615538663E7 ; 3.210069237512403E8 ; 0.0
4 ; 1.1346706648965074E7 ; 1.0920536527940577E8 ; 4.523344950738649E7 ; 4.291345755076425E8 ; 0.0
5 ; 1.1366147762800522E7 ; 1.1059210701544523E8 ; 5.658015615635157E7 ; 5.383399407870483E8 ; 0.0
6 ; 1.1391116832022455E7 ; 1.1228787871201202E8 ; 6.794630391915208E7 ; 6.489320478024936E8 ; 0.0
7 ; 1.1429336677201144E7 ; 1.1429268180778831E8 ; 7.933742075117454E7 ; 7.612199265145056E8 ; 0.0
8 ; 1.1482297975201685E7 ; 1.1660651742734176E8 ; 9.076675742837569E7 ; 8.75512608322294E8 ; 0.0
9 ; 1.1561204574385308E7 ; 1.1922938637694949E8 ; 1.0224905540357737E8 ; 9.921191257496357E8 ; 0.0
10 ; 1.1688187766837621E7 ; 1.2216128914158916E8 ; 1.1381025997796267E8 ; 1.1113485121265852E9 ; 0.0
11 ; 1.1890487811834207E7 ; 1.2540222588312235E8 ; 1.254984477448003E8 ; 1.2335098012681744E9 ; 0.0
12 ; 1.220351849165456E7 ; 1.2895219643968746E8 ; 1.3738893555663452E8 ; 1.3589120271512969E9 ; 0.0
13 ; 1.2510627878469283E7 ; 1.3281120032630682E8 ; 1.4959245404828906E8 ; 1.4878642235909843E9 ; 0.0
14 ; 1.2548176397820419E7 ; 1.369792367367034E8 ; 1.6210308192675835E8 ; 1.6206754239172912E9 ; 0.0
15 ; 1.2564535769109495E7 ; 1.414563045463094E8 ; 1.7465125832457876E8 ; 1.7576546606539946E9 ; 0.0
16 ; 1.257923927135236E7 ; 1.4624240231644282E8 ; 1.8721579409368825E8 ; 1.899110965200304E9 ; 0.0
17 ; 1.2595407318429135E7 ; 1.5133752829961208E8 ; 1.997950333650406E8 ; 2.0453533675167468E9 ; 0.0
18 ; 1.2608935926750885E7 ; 1.5674168044590557E8 ; 2.1239044068346974E8 ; 2.196690895816359E9 ; 0.0
19 ; 1.262576881197978E7 ; 1.6245485641040948E8 ; 2.2499937661022064E8 ; 2.3534325762622647E9 ; 0.0
20 ; 1.264382151519762E7 ; 1.684770535615919E8 ; 2.376251454222004E8 ; 2.515887432672674E9 ; 0.0
21 ; 1.2657935369150301E7 ; 1.748082689905831E8 ; 2.5026896693739802E8 ; 2.6843644862342663E9 ; 0.0
22 ; 1.2673420364204265E7 ; 1.814484995212766E8 ; 2.6292690230654833E8 ; 2.859172755224849E9 ; 0.0
23 ; 1.2682174278106268E7 ; 1.8839774172117078E8 ; 2.756003226707526E8 ; 3.0406212547461257E9 ; 0.0
24 ; 1.2703219026975267E7 ; 1.956559919128657E8 ; 2.8828249694885886E8 ; 3.2290189964672966E9 ; 0.0
25 ; 1.2715770131905597E7 ; 2.0191128708431333E8 ; 3.0098571597583413E8 ; 3.4246749883801622E9 ; 0.0
26 ; 1.2729409663216598E7 ; 2.0191717093825996E8 ; 3.1370148610773975E8 ; 3.6265862754644756E9 ; 0.0
27 ; 1.2749498119718302E7 ; 2.0192340843008828E8 ; 3.2643089577095634E8 ; 3.8285034464027357E9 ; 0.0
28 ; 1.2761957528552143E7 ; 2.0192999502783215E8 ; 3.3918039389067465E8 ; 4.0304268548328238E9 ; 0.0
29 ; 1.2780481516458388E7 ; 2.0193692601888093E8 ; 3.5194235141922677E8 ; 4.232356849860656E9 ; 0.0
30 ; 1.2796722872034064E7 ; 2.0194419652357164E8 ; 3.6472283293568516E8 ; 4.434293775879537E9 ; 0.0
31 ; 1.280649862809683E7 ; 2.0195180150883278E8 ; 3.7751955580771923E8 ; 4.636237972403109E9 ; 0.0
32 ; 1.282234331365328E7 ; 2.0195973580180302E8 ; 3.9032605443581605E8 ; 4.838189773911942E9 ; 0.0
33 ; 1.28362776922615E7 ; 2.0196799410335225E8 ; 4.0314839774946934E8 ; 5.040149509713744E9 ; 0.0
34 ; 1.2846405550014932E7 ; 2.0197657100143743E8 ; 4.1598467544173086E8 ; 5.242117503817097E9 ; 0.0
35 ; 1.286193393391344E7 ; 2.0198546098423138E8 ; 4.2883108099174577E8 ; 5.444094074818534E9 ; 0.0
36 ; 1.287447688031528E7 ; 2.0199465845296806E8 ; 4.416930149256592E8 ; 5.646079535802765E9 ; 0.0
37 ; 1.2887804707753746E7 ; 2.0200415773445344E8 ; 4.545674918059745E8 ; 5.848074194255733E9 ; 0.0
38 ; 1.2895160718953328E7 ; 2.0201395309319794E8 ; 4.674552965137282E8 ; 6.050078351990186E9 ; 0.0
39 ; 1.2908688510945456E7 ; 2.0202403874313104E8 ; 4.803504572326815E8 ; 6.252092305083384E9 ; 0.0
40 ; 1.2921344737014461E7 ; 2.0203440885886556E8 ; 4.9325914574362695E8 ; 6.454116343826514E9 ; 0.0
41 ; 1.2932856368134074E7 ; 2.0204505758648404E8 ; 5.061804904806414E8 ; 6.65615075268538E9 ; 0.0
42 ; 1.2938789112881623E7 ; 2.0205597905382565E8 ; 5.191133468487755E8 ; 6.858195810271864E9 ; 0.0
43 ; 1.2948306394369729E7 ; 2.0206716738025683E8 ; 5.320521359616571E8 ; 7.060251789325689E9 ; 0.0
44 ; 1.2958333259482844E7 ; 2.0207861668591407E8 ; 5.450004423560269E8 ; 7.262318956705946E9 ; 0.0
45 ; 1.2967394152980713E7 ; 2.0209032110041124E8 ; 5.579587756155097E8 ; 7.46439757339186E9 ; 0.0
46 ; 1.2975459300646013E7 ; 2.021022747710094E8 ; 5.709261697684904E8 ; 7.666487894492271E9 ; 0.0
47 ; 1.2982202114577085E7 ; 2.0211447187024865E8 ; 5.839016290691365E8 ; 7.868590169263281E9 ; 0.0
48 ; 1.2987098067251083E7 ; 2.0212690660304788E8 ; 5.968838311837136E8 ; 8.07070464113353E9 ; 0.0
49 ; 1.2998258161327776E7 ; 2.0213957321327838E8 ; 6.098709292509646E8 ; 8.272831547736578E9 ; 0.0
50 ; 1.300004087336587E7 ; 2.0215246598982263E8 ; 6.228691874122924E8 ; 8.474971120949857E9 ; 0.0
51 ; 1.300688008917147E7 ; 2.0216557927213022E8 ; 6.358692282856582E8 ; 8.67712358693968E9 ; 0.0
52 ; 1.3008861911240308E7 ; 2.0217890745528543E8 ; 6.488761083748298E8 ; 8.879289166211811E9 ; 0.0
53 ; 1.301754980478688E7 ; 2.0219244499460313E8 ; 6.618849702860701E8 ; 9.081468073667097E9 ; 0.0
54 ; 1.301697521478808E7 ; 2.0220618640977022E8 ; 6.74902520090857E8 ; 9.2836605186617E9 ; 0.0
55 ; 1.3023489582723817E7 ; 2.0222012628855145E8 ; 6.879194953056451E8 ; 9.48586670507147E9 ; 0.0
56 ; 1.302961953803007E7 ; 2.0223425929007956E8 ; 7.00942984888369E8 ; 9.688086831360022E9 ; 0.0
57 ; 1.3033130148697851E7 ; 2.0224858014774907E8 ; 7.13972604426399E8 ; 9.8903210906501E9 ; 0.0
58 ; 1.3038656204998879E7 ; 2.022630836717352E8 ; 7.270057345750968E8 ; 1.009256967079785E10 ; 0.0
59 ; 1.304423259932062E7 ; 2.0227776475115806E8 ; 7.400443907800957E8 ; 1.0294832754469585E10 ; 0.0
60 ; 1.3047500269551894E7 ; 2.0229261835591263E8 ; 7.530886233794163E8 ; 1.0497110519220743E10 ; 0.0
61 ; 1.3053940032220345E7 ; 2.023076395381858E8 ; 7.661361236489682E8 ; 1.0699403137576656E10 ; 0.0
62 ; 1.3055384024482334E7 ; 2.0232282343367982E8 ; 7.791900636811886E8 ; 1.0901710777114841E10 ; 0.0
63 ; 1.3059625810683241E7 ; 2.0233816526256275E8 ; 7.92245447705671E8 ; 1.1104033600548521E10 ; 0.0
64 ; 1.306371678986217E7 ; 2.0235366033016482E8 ; 8.053050735163542E8 ; 1.1306371765811085E10 ; 0.0
65 ; 1.3065456838243362E7 ; 2.0236930402743942E8 ; 8.183687903062164E8 ; 1.1508725426141249E10 ; 0.0
66 ; 1.3073473415457742E7 ; 2.0238509183120722E8 ; 8.314342471444597E8 ; 1.1711094730168688E10 ; 0.0
67 ; 1.3077314566558305E7 ; 2.0240101930420047E8 ; 8.445077205599174E8 ; 1.1913479821999895E10 ; 0.0
68 ; 1.307697948266296E7 ; 2.0241708209492418E8 ; 8.575850351264758E8 ; 1.2115880841304096E10 ; 0.0
69 ; 1.308212819006231E7 ; 2.024332759373502E8 ; 8.706620146091387E8 ; 1.2318297923399021E10 ; 0.0
70 ; 1.3082689244272733E7 ; 2.0244959665045962E8 ; 8.83744142799201E8 ; 1.252073119933637E10 ; 0.0
71 ; 1.3087577890495481E7 ; 2.024660401376469E8 ; 8.968268320434737E8 ; 1.272318079598683E10 ; 0.0
72 ; 1.3092276880558556E7 ; 2.0248260238600075E8 ; 9.099144099339693E8 ; 1.2925646836124477E10 ; 0.0
73 ; 1.3092144107153568E7 ; 2.0249927946547273E8 ; 9.230066868145279E8 ; 1.3128129438510479E10 ; 0.0
74 ; 1.3094107519563617E7 ; 2.0251606752794752E8 ; 9.360988309216814E8 ; 1.3330628717975952E10 ; 0.0
75 ; 1.3099781583065463E7 ; 2.0253296280622435E8 ; 9.491929384412451E8 ; 1.35331447855039E10 ; 0.0
76 ; 1.3103863579574296E7 ; 2.025499616129213E8 ; 9.622927200243106E8 ; 1.3735677748310125E10 ; 0.0
77 ; 1.3102759543219114E7 ; 2.0256706033931175E8 ; 9.753965836038849E8 ; 1.3938227709923046E10 ; 0.0
78 ; 1.3094238343678711E7 ; 2.0258425545410213E8 ; 9.88499343147104E8 ; 1.4140794770262358E10 ; 0.0
79 ; 1.3080083023980796E7 ; 2.0260154350215936E8 ; 1.0015935814907827E9 ; 1.434337902571646E10 ; 0.0
80 ; 1.3061733840943545E7 ; 2.0261892110319614E8 ; 1.0146736645147636E9 ; 1.4545980569218618E10 ; 0.0
81 ; 1.304464668175838E7 ; 2.026363849504209E8 ; 1.0277353983557072E9 ; 1.4748599490321815E10 ; 0.0
82 ; 1.3030032107061448E7 ; 2.0265393180915898E8 ; 1.0407800450374656E9 ; 1.4951235875272236E10 ; 0.0
83 ; 1.3009802924407264E7 ; 2.0267155851545176E8 ; 1.0538100771445271E9 ; 1.5153889807081394E10 ; 0.0
84 ; 1.2996533389117995E7 ; 2.0268926197463846E8 ; 1.0668198800689343E9 ; 1.5356561365596846E10 ; 0.0
85 ; 1.297888559682891E7 ; 2.0270703915992633E8 ; 1.0798164134580524E9 ; 1.5559250627571484E10 ; 0.0
86 ; 1.2961940755582267E7 ; 2.0272488711095363E8 ; 1.0927952990548813E9 ; 1.576195766673141E10 ; 0.0
87 ; 1.294631811411806E7 ; 2.0274280293234944E8 ; 1.1057572398104637E9 ; 1.5964682553842363E10 ; 0.0
88 ; 1.2926314885366805E7 ; 2.0276078379229453E8 ; 1.1187035579245818E9 ; 1.6167425356774714E10 ; 0.0
89 ; 1.2911557300662832E7 ; 2.027788269210862E8 ; 1.1316298728099487E9 ; 1.6370186140567009E10 ; 0.0
90 ; 1.2889343580785304E7 ; 2.027969296097105E8 ; 1.1445414301106114E9 ; 1.6572964967488094E10 ; 0.0
91 ; 1.2874738144926568E7 ; 2.0281508920842475E8 ; 1.1574307736913967E9 ; 1.6775761897097805E10 ; 0.0
92 ; 1.28554181344762E7 ; 2.0283330312535203E8 ; 1.1703055118363233E9 ; 1.697857698630623E10 ; 0.0
93 ; 1.283706397528693E7 ; 2.0285156882509086E8 ; 1.1831609299707994E9 ; 1.7181410289431583E10 ; 0.0
94 ; 1.2821561576926555E7 ; 2.028698838273413E8 ; 1.1959979939460864E9 ; 1.7384261858256676E10 ; 0.0
95 ; 1.2804881527867751E7 ; 2.028882457055492E8 ; 1.2088195555230129E9 ; 1.758713174208402E10 ; 0.0
96 ; 1.2783510373970214E7 ; 2.0290665208557048E8 ; 1.2216244370508807E9 ; 1.7790019987789566E10 ; 0.0
97 ; 1.276702404654755E7 ; 2.0292510064435598E8 ; 1.234407947424851E9 ; 1.7992926639875137E10 ; 0.0
98 ; 1.2748061607922642E7 ; 2.0294358910865882E8 ; 1.2471749714713986E9 ; 1.8195851740519493E10 ; 0.0
99 ; 1.2729057814253593E7 ; 2.0296211525376454E8 ; 1.2599230330793211E9 ; 1.839879532962815E10 ; 0.0
100 ; 1.2709193399737528E7 ; 2.0298067690224493E8 ; 1.2726520908935747E9 ; 1.8601757444881916E10 ; 0.0
101 ; 1.26921914838191E7 ; 2.0299927192273626E8 ; 1.2853612842933123E9 ; 1.880473812178416E10 ; 0.0
102 ; 1.2672451002578046E7 ; 2.0301789822874248E8 ; 1.2980534757771313E9 ; 1.9007737393706898E10 ; 0.0
103 ; 1.2652288806315538E7 ; 2.0303655377746338E8 ; 1.3107259267797093E9 ; 1.921075529193564E10 ; 0.0
104 ; 1.2631859861590512E7 ; 2.030552365686484E8 ; 1.3233782155860248E9 ; 1.94137918457131E10 ; 0.0
105 ; 1.2614142108593106E7 ; 2.0307394464347592E8 ; 1.3360100754476154E9 ; 1.961684708228175E10 ; 0.0
106 ; 1.2594873086508214E7 ; 2.0309267608345854E8 ; 1.3486242175562086E9 ; 1.9819921026925224E10 ; 0.0
107 ; 1.2576584372661045E7 ; 2.0311142900937375E8 ; 1.361219090642717E9 ; 2.0023013703008682E10 ; 0.0
108 ; 1.2554567368352434E7 ; 2.031302015802205E8 ; 1.373795675015378E9 ; 2.0226125132018055E10 ; 0.0
109 ; 1.2537048428665884E7 ; 2.031489919922013E8 ; 1.3863502423837304E9 ; 2.0429255333598274E10 ; 0.0
110 ; 1.2514513897732452E7 ; 2.0316779847772956E8 ; 1.3988872908123963E9 ; 2.0632404325590477E10 ; 0.0
111 ; 1.2499926461544499E7 ; 2.0318661930446225E8 ; 1.4114018047101288E9 ; 2.0835572124068207E10 ; 0.0
112 ; 1.2478538357107868E7 ; 2.0320545277435723E8 ; 1.4239017311716733E9 ; 2.103875874337267E10 ; 0.0
113 ; 1.2458103337952524E7 ; 2.0322429722275546E8 ; 1.4363802695287812E9 ; 2.1241964196147026E10 ; 0.0
114 ; 1.243332147456613E7 ; 2.0324315101748708E8 ; 1.4488383728667338E9 ; 2.144518849336978E10 ; 0.0
115 ; 1.2416967689892737E7 ; 2.0326201255800167E8 ; 1.4612716943413E9 ; 2.1648431644387268E10 ; 0.0
116 ; 1.2396671905642439E7 ; 2.0328088027452186E8 ; 1.4736886620311928E9 ; 2.185169365694527E10 ; 0.0
117 ; 1.2375799003276445E7 ; 2.0329975262722E8 ; 1.4860853339368353E9 ; 2.205497453721979E10 ; 0.0
118 ; 1.2355386661593834E7 ; 2.033186281054176E8 ; 1.4984611329401116E9 ; 2.225827428984701E10 ; 0.0
119 ; 1.2334543312375033E7 ; 2.033375052268069E8 ; 1.5108165196017056E9 ; 2.246159291795243E10 ; 0.0
120 ; 1.2313335797228485E7 ; 2.0335638253669417E8 ; 1.5231510629140806E9 ; 2.2664930423179237E10 ; 0.0
121 ; 1.2295248398566263E7 ; 2.0337525860726446E8 ; 1.5354643987113092E9 ; 2.286828680571593E10 ; 0.0
122 ; 1.227150433390859E7 ; 2.03394132036867E8 ; 1.5477596471098754E9 ; 2.3071662064323196E10 ; 0.0
123 ; 1.2251985475319797E7 ; 2.0341300144932124E8 ; 1.560031151443784E9 ; 2.327505619636006E10 ; 0.0
124 ; 1.2231127183413621E7 ; 2.0343186549324244E8 ; 1.5722831369191039E9 ; 2.3478469197809383E10 ; 0.0
125 ; 1.2205637239341639E7 ; 2.0345072284138712E8 ; 1.5845142641025174E9 ; 2.3681901063302628E10 ; 0.0
126 ; 1.2187267305731306E7 ; 2.0346957219001698E8 ; 1.596719901341859E9 ; 2.3885351786144016E10 ; 0.0
127 ; 1.2164020396542508E7 ; 2.034884122582817E8 ; 1.6089071686475904E9 ; 2.4088821358334034E10 ; 0.0
128 ; 1.2141123131143486E7 ; 2.035072417876197E8 ; 1.621071189044133E9 ; 2.4292309770592316E10 ; 0.0
129 ; 1.2118158521666609E7 ; 2.0352605954117614E8 ; 1.6332123121752765E9 ; 2.4495817012379936E10 ; 0.0
130 ; 1.209744781600931E7 ; 2.0354486430323842E8 ; 1.645330470696943E9 ; 2.4699343071921112E10 ; 0.0
131 ; 1.207568309755461E7 ; 2.0356365487868804E8 ; 1.6574279185129523E9 ; 2.490288793622435E10 ; 0.0
132 ; 1.2051341477595743E7 ; 2.035824300924688E8 ; 1.669503601610507E9 ; 2.510645159110304E10 ; 0.0
133 ; 1.2022460476757562E7 ; 2.0360118878907073E8 ; 1.6815549430881028E9 ; 2.5310034021195507E10 ; 0.0
134 ; 1.1993891517791046E7 ; 2.0361992983202913E8 ; 1.6935774035648603E9 ; 2.5513635209984577E10 ; 0.0
135 ; 1.196709122177225E7 ; 2.036386521034389E8 ; 1.7055712950826514E9 ; 2.5717255139816605E10 ; 0.0
136 ; 1.1940761024945593E7 ; 2.0365735450348288E8 ; 1.7175383863044236E9 ; 2.5920893791920044E10 ; 0.0
137 ; 1.1916838368328523E7 ; 2.036760359499746E8 ; 1.729479147329369E9 ; 2.6124551146423527E10 ; 0.0
138 ; 1.1892229339967601E7 ; 2.0369469537791446E8 ; 1.7413959856976976E9 ; 2.63282271823735E10 ; 0.0
139 ; 1.1862261053772284E7 ; 2.037133317390593E8 ; 1.7532882150376651E9 ; 2.6531921877751415E10 ; 0.0
140 ; 1.18366096288798E7 ; 2.0373194400150484E8 ; 1.7651504760914373E9 ; 2.6735635209490475E10 ; 0.0
141 ; 1.1811178341986105E7 ; 2.0375053114928046E8 ; 1.7769870857203171E9 ; 2.6939367153491978E10 ; 0.0
142 ; 1.1782911433835734E7 ; 2.0376909218195626E8 ; 1.7887982640623033E9 ; 2.714311768464126E10 ; 0.0
143 ; 1.175501807723612E7 ; 2.037876261142619E8 ; 1.800581175496139E9 ; 2.7346886776823215E10 ; 0.0
144 ; 1.1727290155575274E7 ; 2.0380613197571677E8 ; 1.8123361935733752E9 ; 2.7550674402937477E10 ; 0.0
145 ; 1.1704957828497414E7 ; 2.0382460881027123E8 ; 1.8240634837289505E9 ; 2.7754480534913193E10 ; 0.0
146 ; 1.168327823876782E7 ; 2.0384305567595875E8 ; 1.835768441557448E9 ; 2.7958305143723465E10 ; 0.0
147 ; 1.1663883908745905E7 ; 2.0386147164455828E8 ; 1.8474517197962158E9 ; 2.8162148199399426E10 ; 0.0
148 ; 1.1637946110792207E7 ; 2.0387985580126682E8 ; 1.8591156037049618E9 ; 2.8366009671043983E10 ; 0.0
149 ; 1.1620200392590238E7 ; 2.038982072443818E8 ; 1.870753549815754E9 ; 2.856988952684525E10 ; 0.0
150 ; 1.1595411595402986E7 ; 2.0391652508499295E8 ; 1.8823737502083442E9 ; 2.877378773408963E10 ; 0.0
151 ; 1.157371427776326E7 ; 2.0393480844668344E8 ; 1.8939691618037472E9 ; 2.897770425917462E10 ; 0.0
152 ; 1.1550921446846401E7 ; 2.0395305646523982E8 ; 1.9055428760815105E9 ; 2.9181639067621304E10 ; 0.0
153 ; 1.1527166138509097E7 ; 2.0397126828837064E8 ; 1.917093797528357E9 ; 2.9385592124086544E10 ; 0.0
154 ; 1.1503751996939912E7 ; 2.039894430754337E8 ; 1.928620963666866E9 ; 2.9589563392374916E10 ; 0.0
155 ; 1.1483816775043836E7 ; 2.0400757999717116E8 ; 1.940124715663806E9 ; 2.9793552835450348E10 ; 0.0
156 ; 1.1458709444747873E7 ; 2.0402567823545256E8 ; 1.9516085324388497E9 ; 2.9997560415447517E10 ; 0.0
157 ; 1.1438953048498493E7 ; 2.0404373698302573E8 ; 1.9630672418835976E9 ; 3.020158609368297E10 ; 0.0
158 ; 1.1412842796211496E7 ; 2.040617554432748E8 ; 1.974506194932096E9 ; 3.0405629830665993E10 ; 0.0
159 ; 1.1394439348689526E7 ; 2.040797328299856E8 ; 1.9859190377283075E9 ; 3.060969158610927E10 ; 0.0
160 ; 1.1369155779697778E7 ; 2.0409766836711794E8 ; 1.997313477076997E9 ; 3.0813771318939255E10 ; 0.0
161 ; 1.1346601223059937E7 ; 2.0411556128858468E8 ; 2.008682632856695E9 ; 3.1017868987306374E10 ; 0.0
162 ; 1.1321482205787562E7 ; 2.041334108380372E8 ; 2.0200292340797548E9 ; 3.122198454859496E10 ; 0.0
163 ; 1.1300973526882108E7 ; 2.0415121626865745E8 ; 2.0313507162855425E9 ; 3.1426117959432995E10 ; 0.0
164 ; 1.1277760057657616E7 ; 2.0416897684295592E8 ; 2.0426516898124247E9 ; 3.1630269175701653E10 ; 0.0
165 ; 1.1250239655005544E7 ; 2.0418669183257562E8 ; 2.0539294498700824E9 ; 3.183443815254461E10 ; 0.0
166 ; 1.123198625619963E7 ; 2.042043605181019E8 ; 2.0651796895250878E9 ; 3.2038624844377186E10 ; 0.0
167 ; 1.121091102482867E7 ; 2.0422198218887776E8 ; 2.0764116757812874E9 ; 3.2242829204895287E10 ; 0.0
168 ; 1.118743432005206E7 ; 2.042395561428247E8 ; 2.087622586806116E9 ; 3.2447051187084164E10 ; 0.0
169 ; 1.116144478141484E7 ; 2.0425708168626866E8 ; 2.0988100211261683E9 ; 3.265129074322699E10 ; 0.0
170 ; 1.1131869587943595E7 ; 2.0427455813377118E8 ; 2.109971465907583E9 ; 3.2855547824913258E10 ; 0.0
171 ; 1.1111889388261458E7 ; 2.042919848079654E8 ; 2.1211033354955266E9 ; 3.3059822383047028E10 ; 0.0
172 ; 1.1093927978714583E7 ; 2.043E8 ; 2.132215224883788E9 ; 3.3264114367854992E10 ; 0.0
173 ; 1.10706015330431E7 ; 2.043E8 ; 2.1433091528625026E9 ; 3.3468414367854992E10 ; 0.0
174 ; 1.1051161187131422E7 ; 2.043E8 ; 2.1543797543955455E9 ; 3.3672714367854992E10 ; 0.0
175 ; 1.1028802592544366E7 ; 2.043E8 ; 2.165430915582677E9 ; 3.3877014367854992E10 ; 0.0
176 ; 1.1011055727532024E7 ; 2.043E8 ; 2.1764597181752214E9 ; 3.4081314367854992E10 ; 0.0
177 ; 1.098910811291383E7 ; 2.043E8 ; 2.1874707739027534E9 ; 3.4285614367854992E10 ; 0.0
178 ; 1.0966395464128003E7 ; 2.043E8 ; 2.198459882015667E9 ; 3.4489914367854996E10 ; 0.0
179 ; 1.0949974293626238E7 ; 2.043E8 ; 2.209426277479795E9 ; 3.4694214367854996E10 ; 0.0
180 ; 1.0930455433886763E7 ; 2.043E8 ; 2.2203762517734213E9 ; 3.4898514367854996E10 ; 0.0
181 ; 1.0910953630156152E7 ; 2.043E8 ; 2.231306707207308E9 ; 3.5102814367854996E10 ; 0.0
182 ; 1.0891353564079888E7 ; 2.043E8 ; 2.242217660837464E9 ; 3.5307114367854996E10 ; 0.0
183 ; 1.0871930635140069E7 ; 2.043E8 ; 2.2531090144015436E9 ; 3.5511414367854996E10 ; 0.0
184 ; 1.0849488580109935E7 ; 2.043E8 ; 2.2639809450366836E9 ; 3.5715714367854996E10 ; 0.0
185 ; 1.0830164691455994E7 ; 2.043E8 ; 2.2748304336167936E9 ; 3.5920014367854996E10 ; 0.0
186 ; 1.0811157897301465E7 ; 2.043E8 ; 2.2856605983082495E9 ; 3.6124314367854996E10 ; 0.0
187 ; 1.0786786029342808E7 ; 2.043E8 ; 2.296471756205551E9 ; 3.6328614367854996E10 ; 0.0
188 ; 1.0770700534440909E7 ; 2.043E8 ; 2.307258542234894E9 ; 3.6532914367854996E10 ; 0.0
189 ; 1.0752210832155887E7 ; 2.043E8 ; 2.318029242769335E9 ; 3.6737214367854996E10 ; 0.0
190 ; 1.0730358412548402E7 ; 2.043E8 ; 2.3287814536014905E9 ; 3.6941514367854996E10 ; 0.0
191 ; 1.0713046956742028E7 ; 2.043E8 ; 2.339511812014039E9 ; 3.7145814367854996E10 ; 0.0
192 ; 1.0689856485701842E7 ; 2.043E8 ; 2.350224858970781E9 ; 3.7350114367854996E10 ; 0.0
193 ; 1.0669559421747774E7 ; 2.043E8 ; 2.360914715456483E9 ; 3.7554414367854996E10 ; 0.0
194 ; 1.0648080007777242E7 ; 2.043E8 ; 2.3715842748782306E9 ; 3.7758714367854996E10 ; 0.0
195 ; 1.0630448311352732E7 ; 2.043E8 ; 2.382232354886008E9 ; 3.7963014367854996E10 ; 0.0
196 ; 1.0608543974877354E7 ; 2.043E8 ; 2.3928628031973605E9 ; 3.8167314367854996E10 ; 0.0
197 ; 1.058847792498948E7 ; 2.043E8 ; 2.403471347172238E9 ; 3.8371614367854996E10 ; 0.0
198 ; 1.0569978817155182E7 ; 2.043E8 ; 2.4140598250972276E9 ; 3.8575914367854996E10 ; 0.0
