CSV File for the City 6 on Day 218
1 - Minute m 
2 - Power Consumed at minute m 
3 - Power Produced at minute m 
4 - Energy Consumed since the beginning of the day 
5 - Energy Produced since the beginning of the day 
6 - Energy Lost since the beginning of the day on lines starting from the city
 
0 ; 713568.2495500026 ; 1.0547939086544392E8 ; 0.0 ; 0.0 ; 0.0
1 ; 728573.8537059923 ; 1.0562746783937389E8 ; 713568.2495500026 ; 1.0547939086544392E8 ; 0.0
2 ; 738555.8557733762 ; 1.060847347981641E8 ; 1442142.103255995 ; 2.111068587048178E8 ; 0.0
3 ; 753183.6199138422 ; 1.068512233004291E8 ; 2180697.9590293714 ; 3.171915935029819E8 ; 0.0
4 ; 772989.9402208246 ; 1.0792696375132447E8 ; 2933881.5789432134 ; 4.24042816803411E8 ; 0.0
5 ; 793342.9154028138 ; 1.0931198468426543E8 ; 3706871.519164038 ; 5.319697805547355E8 ; 0.0
6 ; 823347.8794487101 ; 1.1100631200066039E8 ; 4500214.434566852 ; 6.412817652390009E8 ; 0.0
7 ; 859130.6017987337 ; 1.130099682055121E8 ; 5323562.314015562 ; 7.522880772396613E8 ; 0.0
8 ; 915243.9912424135 ; 1.1532297168453854E8 ; 6182692.915814295 ; 8.652980454451735E8 ; 0.0
9 ; 996096.1992041948 ; 1.1794533607231861E8 ; 7097936.907056709 ; 9.806210171297121E8 ; 0.0
10 ; 1121100.5842238548 ; 1.2087706975938553E8 ; 8094033.106260903 ; 1.0985663532020307E9 ; 0.0
11 ; 1321729.8648769942 ; 1.2411817557849148E8 ; 9215133.690484758 ; 1.2194434229614162E9 ; 0.0
12 ; 1639199.8586767032 ; 1.2766865069688424E8 ; 1.0536863555361753E7 ; 1.3435615985399077E9 ; 0.0
13 ; 1945975.994905962 ; 1.3152848672403061E8 ; 1.2176063414038457E7 ; 1.4712302492367918E9 ; 0.0
14 ; 1985886.32071553 ; 1.3569767002535176E8 ; 1.4122039408944419E7 ; 1.6027587359608226E9 ; 0.0
15 ; 1999360.4202278666 ; 1.401761822151296E8 ; 1.6107925729659948E7 ; 1.7384564059861743E9 ; 0.0
16 ; 2017506.0388432997 ; 1.4496400078836152E8 ; 1.8107286149887815E7 ; 1.878632588201304E9 ; 0.0
17 ; 2031365.154782444 ; 1.50061099843639E8 ; 2.0124792188731115E7 ; 2.0235965889896655E9 ; 0.0
18 ; 2050142.1024152534 ; 1.5546745084754682E8 ; 2.215615734351356E7 ; 2.1736576888333044E9 ; 0.0
19 ; 2067214.5372515125 ; 1.6118302339492944E8 ; 2.4206299445928812E7 ; 2.329125139680851E9 ; 0.0
20 ; 2080165.5842314959 ; 1.6720778592717227E8 ; 2.6273513983180325E7 ; 2.4903081630757804E9 ; 0.0
21 ; 2097112.449043352 ; 1.7354170638059238E8 ; 2.835367956741182E7 ; 2.6575159490029526E9 ; 0.0
22 ; 2114747.0421366133 ; 1.801847527474041E8 ; 3.0450792016455173E7 ; 2.831057655383545E9 ; 0.0
23 ; 2128758.263168398 ; 1.8713689354121798E8 ; 3.2565539058591787E7 ; 3.011242408130949E9 ; 0.0
24 ; 2145640.4857284226 ; 1.9439809816680437E8 ; 3.4694297321760185E7 ; 3.198379301672167E9 ; 0.0
25 ; 2162805.826763795 ; 2.0065637809777325E8 ; 3.6839937807488605E7 ; 3.392777399838971E9 ; 0.0
26 ; 2179775.833724923 ; 2.006652531118824E8 ; 3.90027436342524E7 ; 3.593433777936744E9 ; 0.0
27 ; 2197364.0460209637 ; 2.0067446594442844E8 ; 4.118251946797732E7 ; 3.7940990310486264E9 ; 0.0
28 ; 2213255.7624872313 ; 2.0068399160535303E8 ; 4.3379883513998285E7 ; 3.994773496993055E9 ; 0.0
29 ; 2230006.080117974 ; 2.0069380669607982E8 ; 4.559313927648552E7 ; 4.1954574885984077E9 ; 0.0
30 ; 2244153.2557185013 ; 2.0070388939680672E8 ; 4.782314535660349E7 ; 4.396151295294488E9 ; 0.0
31 ; 2263673.242999191 ; 2.007142194266425E8 ; 5.006729861232199E7 ; 4.596855184691295E9 ; 0.0
32 ; 2275827.78043844 ; 2.0072477798431608E8 ; 5.233097185532118E7 ; 4.797569404117937E9 ; 0.0
33 ; 2292394.9876046865 ; 2.007355476757954E8 ; 5.4606799635759614E7 ; 4.998294182102253E9 ; 0.0
34 ; 2307286.203208489 ; 2.0074651243387192E8 ; 5.68991946233643E7 ; 5.1990297297780485E9 ; 0.0
35 ; 2318491.0377702084 ; 2.0075765743364006E8 ; 5.920648082657279E7 ; 5.399776242211921E9 ; 0.0
36 ; 2331505.71286602 ; 2.0076896900684547E8 ; 6.1524971864343E7 ; 5.600533899645561E9 ; 0.0
37 ; 2348014.1345125902 ; 2.0078043455728588E8 ; 6.3856477577209026E7 ; 5.801302868652407E9 ; 0.0
38 ; 2362484.4871759997 ; 2.007920424788131E8 ; 6.6204491711721614E7 ; 6.002083303209693E9 ; 0.0
39 ; 2374483.778212388 ; 2.0080378207698333E8 ; 6.856697619889762E7 ; 6.202875345688506E9 ; 0.0
40 ; 2386922.0746257785 ; 2.0081564349501458E8 ; 7.094145997711E7 ; 6.40367912776549E9 ; 0.0
41 ; 2399326.941319435 ; 2.008276176444171E8 ; 7.332838205173577E7 ; 6.604494771260504E9 ; 0.0
42 ; 2412705.8143389965 ; 2.0083969614044493E8 ; 7.572770899305521E7 ; 6.805322388904921E9 ; 0.0
43 ; 2422454.456518109 ; 2.0085187124235865E8 ; 7.81404148073942E7 ; 7.006162085045365E9 ; 0.0
44 ; 2433579.976898554 ; 2.0086413579837972E8 ; 8.056286926391232E7 ; 7.207013956287724E9 ; 0.0
45 ; 2442524.421594452 ; 2.008764831951419E8 ; 8.299644924081087E7 ; 7.407878092086103E9 ; 0.0
46 ; 2448500.982593154 ; 2.008889073113985E8 ; 8.543897366240533E7 ; 7.608754575281245E9 ; 0.0
47 ; 2460721.272155128 ; 2.009014024757169E8 ; 8.788747464499848E7 ; 7.809643482592644E9 ; 0.0
48 ; 2470162.330099304 ; 2.0091396342788064E8 ; 9.03481959171536E7 ; 8.01054488506836E9 ; 0.0
49 ; 2478575.3482025233 ; 2.0092658528371778E8 ; 9.28183582472529E7 ; 8.211458848496241E9 ; 0.0
50 ; 2484530.9299757993 ; 2.0093926350307927E8 ; 9.529693359545542E7 ; 8.412385433779959E9 ; 0.0
51 ; 2490956.736141259 ; 2.009519938607043E8 ; 9.778146452543122E7 ; 8.613324697283037E9 ; 0.0
52 ; 2499568.555143613 ; 2.009647724197215E8 ; 1.0027242126157248E8 ; 8.814276691143742E9 ; 0.0
53 ; 2506051.474753293 ; 2.009775955075518E8 ; 1.0277198981671609E8 ; 9.015241463563463E9 ; 0.0
54 ; 2510819.8396186386 ; 2.0099045969399554E8 ; 1.0527804129146938E8 ; 9.216219059071014E9 ; 0.0
55 ; 2519011.490211814 ; 2.010033617713033E8 ; 1.0778886113108802E8 ; 9.41720951876501E9 ; 0.0
56 ; 2526009.271322324 ; 2.010162987360453E8 ; 1.1030787262129983E8 ; 9.618212880536314E9 ; 0.0
57 ; 2532332.4622516725 ; 2.0102926777261207E8 ; 1.1283388189262216E8 ; 9.81922917927236E9 ; 0.0
58 ; 2538434.017987492 ; 2.0104226623819187E8 ; 1.1536621435487384E8 ; 1.0020258447044971E10 ; 0.0
59 ; 2545318.4471233455 ; 2.010552916490865E8 ; 1.1790464837286133E8 ; 1.0221300713283163E10 ; 0.0
60 ; 2553610.8480173284 ; 2.0106834166823795E8 ; 1.2044996681998467E8 ; 1.042235600493225E10 ; 0.0
61 ; 2556699.9482929804 ; 2.010814140938522E8 ; 1.2300357766800201E8 ; 1.0623424346600487E10 ; 0.0
62 ; 2564270.47280175 ; 2.010945068490164E8 ; 1.25560277616295E8 ; 1.082450576069434E10 ; 0.0
63 ; 2570867.7040961464 ; 2.011076179722158E8 ; 1.2812454808909674E8 ; 1.1025600267543356E10 ; 0.0
64 ; 2574762.7525663595 ; 2.0112074560866618E8 ; 1.306954157931929E8 ; 1.1226707885515572E10 ; 0.0
65 ; 2580556.9939924716 ; 2.011338880023854E8 ; 1.3327017854575925E8 ; 1.1427828631124237E10 ; 0.0
66 ; 2588199.563411958 ; 2.0114704348893556E8 ; 1.358507355397517E8 ; 1.1628962519126623E10 ; 0.0
67 ; 2594507.6405814663 ; 2.011602104887734E8 ; 1.3843893510316366E8 ; 1.1830109562615559E10 ; 0.0
68 ; 2597965.943000827 ; 2.0117338750115332E8 ; 1.4103344274374512E8 ; 1.2031269773104332E10 ; 0.0
69 ; 2604929.418462284 ; 2.0118657309853256E8 ; 1.4363140868674594E8 ; 1.2232443160605486E10 ; 0.0
70 ; 2613325.804741223 ; 2.011997659214325E8 ; 1.4623633810520822E8 ; 1.2433629733704018E10 ; 0.0
71 ; 2616340.9086567014 ; 2.0121296467371562E8 ; 1.4884966390994945E8 ; 1.263482949962545E10 ; 0.0
72 ; 2623486.452173727 ; 2.012261681182403E8 ; 1.5146600481860614E8 ; 1.2836042464299166E10 ; 0.0
73 ; 2625787.803168155 ; 2.0123937507286054E8 ; 1.5408949127077988E8 ; 1.3037268632417406E10 ; 0.0
74 ; 2631954.6159662134 ; 2.0125258440673962E8 ; 1.5671527907394803E8 ; 1.3238508007490267E10 ; 0.0
75 ; 2638177.097109871 ; 2.012657950369507E8 ; 1.5934723368991423E8 ; 1.3439760591897007E10 ; 0.0
76 ; 2642657.589379086 ; 2.012790059253393E8 ; 1.619854107870241E8 ; 1.3641026386933958E10 ; 0.0
77 ; 2646155.120667421 ; 2.0129221607562518E8 ; 1.6462806837640318E8 ; 1.3842305392859297E10 ; 0.0
78 ; 2648862.718695484 ; 2.0130542453072318E8 ; 1.672742234970706E8 ; 1.4043597608934921E10 ; 0.0
79 ; 2650181.8736253516 ; 2.013186303702646E8 ; 1.699230862157661E8 ; 1.4244903033465645E10 ; 0.0
80 ; 2653415.2850670707 ; 2.0133183270830226E8 ; 1.7257326808939144E8 ; 1.4446221663835909E10 ; 0.0
81 ; 2651840.6163073224 ; 2.0134503069118398E8 ; 1.7522668337445852E8 ; 1.464755349654421E10 ; 0.0
82 ; 2652030.5645384635 ; 2.0135822349558076E8 ; 1.7787852399076584E8 ; 1.4848898527235394E10 ; 0.0
83 ; 2655603.524429903 ; 2.0137141032665655E8 ; 1.805305545553043E8 ; 1.5050256750730974E10 ; 0.0
84 ; 2656179.327481395 ; 2.0138459041636902E8 ; 1.831861580797342E8 ; 1.525162816105763E10 ; 0.0
85 ; 2656758.2271201154 ; 2.013977630218899E8 ; 1.858423374072156E8 ; 1.5453012751473999E10 ; 0.0
86 ; 2654630.7027072837 ; 2.01410927424136E8 ; 1.884990956343357E8 ; 1.565441051449589E10 ; 0.0
87 ; 2659214.859639035 ; 2.0142408292640206E8 ; 1.91153726337043E8 ; 1.5855821441920025E10 ; 0.0
88 ; 2658294.2173090186 ; 2.0143722885308728E8 ; 1.9381294119668204E8 ; 1.6057245524846426E10 ; 0.0
89 ; 2658290.806258069 ; 2.0145036454850844E8 ; 1.9647123541399106E8 ; 1.6258682753699512E10 ; 0.0
90 ; 2656785.2256218432 ; 2.0146348937579313E8 ; 1.9912952622024915E8 ; 1.646013311824802E10 ; 0.0
91 ; 2656741.4150115764 ; 2.0147660271584666E8 ; 2.01786311445871E8 ; 1.6661596607623814E10 ; 0.0
92 ; 2657793.731180862 ; 2.014897039663874E8 ; 2.0444305286088258E8 ; 1.686307321033966E10 ; 0.0
93 ; 2660461.482204771 ; 2.0150279254104513E8 ; 2.0710084659206346E8 ; 1.7064562914306047E10 ; 0.0
94 ; 2659892.5315004126 ; 2.015158678685182E8 ; 2.0976130807426822E8 ; 1.726606570684709E10 ; 0.0
95 ; 2658456.3276451714 ; 2.0152892939178473E8 ; 2.1242120060576862E8 ; 1.746758157471561E10 ; 0.0
96 ; 2657616.7210481376 ; 2.01541976567364E8 ; 2.150796569334138E8 ; 1.7669110504107395E10 ; 0.0
97 ; 2659468.266875244 ; 2.0155500886462492E8 ; 2.1773727365446195E8 ; 1.787065248067476E10 ; 0.0
98 ; 2657957.366835062 ; 2.0156802576513726E8 ; 2.203967419213372E8 ; 1.8072207489539383E10 ; 0.0
99 ; 2656973.3929594997 ; 2.0158102676206365E8 ; 2.2305469928817225E8 ; 1.827377551530452E10 ; 0.0
100 ; 2656185.6162232854 ; 2.0159401135958883E8 ; 2.2571167268113175E8 ; 1.847535654206658E10 ; 0.0
101 ; 2655799.242943464 ; 2.0160697907238358E8 ; 2.2836785829735503E8 ; 1.867695055342617E10 ; 0.0
102 ; 2655319.5992455278 ; 2.016199294251013E8 ; 2.310236575402985E8 ; 1.8878557532498554E10 ; 0.0
103 ; 2655134.097242917 ; 2.0163286195190483E8 ; 2.33678977139544E8 ; 1.9080177461923656E10 ; 0.0
104 ; 2654157.053694209 ; 2.016457761960211E8 ; 2.3633411123678693E8 ; 1.928181032387556E10 ; 0.0
105 ; 2652857.9286041684 ; 2.0165867170932248E8 ; 2.3898826829048115E8 ; 1.9483456100071583E10 ; 0.0
106 ; 2651351.7845692374 ; 2.0167154805193236E8 ; 2.416411262190853E8 ; 1.9685114771780907E10 ; 0.0
107 ; 2649814.208539123 ; 2.0168440479185373E8 ; 2.4429247800365454E8 ; 1.988678631983284E10 ; 0.0
108 ; 2649620.1083345828 ; 2.0169724150461912E8 ; 2.4694229221219367E8 ; 2.0088470724624695E10 ; 0.0
109 ; 2648448.6363496967 ; 2.0171005777296054E8 ; 2.4959191232052824E8 ; 2.0290167966129314E10 ; 0.0
110 ; 2647329.076564786 ; 2.0172285318649828E8 ; 2.5224036095687795E8 ; 2.0491878023902275E10 ; 0.0
111 ; 2645628.4675053954 ; 2.0173562734144694E8 ; 2.5488769003344274E8 ; 2.069360087708877E10 ; 0.0
112 ; 2642581.182348549 ; 2.0174837984033802E8 ; 2.5753331850094813E8 ; 2.0895336504430218E10 ; 0.0
113 ; 2642669.9649152732 ; 2.0176111029175812E8 ; 2.6017589968329668E8 ; 2.1097084884270557E10 ; 0.0
114 ; 2641924.8691963474 ; 2.0177381831010103E8 ; 2.6281856964821196E8 ; 2.1298845994562317E10 ; 0.0
115 ; 2639484.8593399324 ; 2.0178650351533374E8 ; 2.654604945174083E8 ; 2.1500619812872417E10 ; 0.0
116 ; 2639187.7056099772 ; 2.017991655327751E8 ; 2.6809997937674823E8 ; 2.1702406316387753E10 ; 0.0
117 ; 2636198.0863414654 ; 2.0181180399288625E8 ; 2.7073916708235824E8 ; 2.190420548192053E10 ; 0.0
118 ; 2632163.0216319743 ; 2.0182441853107226E8 ; 2.733753651686997E8 ; 2.2106017285913414E10 ; 0.0
119 ; 2632386.4812692655 ; 2.0183700878749448E8 ; 2.7600752819033164E8 ; 2.2307841704444485E10 ; 0.0
120 ; 2627893.0840031053 ; 2.018495744068925E8 ; 2.786399146716009E8 ; 2.250967871323198E10 ; 0.0
121 ; 2626345.9814430177 ; 2.018621150384158E8 ; 2.8126780775560397E8 ; 2.271152828763887E10 ; 0.0
122 ; 2624458.5631372095 ; 2.0187463033546364E8 ; 2.8389415373704696E8 ; 2.2913390402677284E10 ; 0.0
123 ; 2624238.148757687 ; 2.018871199555338E8 ; 2.865186123001842E8 ; 2.311526503301275E10 ; 0.0
124 ; 2617816.494246329 ; 2.0189958356007865E8 ; 2.891428504489419E8 ; 2.331715215296828E10 ; 0.0
125 ; 2618385.4130816474 ; 2.0191202081436867E8 ; 2.917606669431882E8 ; 2.351905173652836E10 ; 0.0
126 ; 2616818.740671714 ; 2.0192443138736305E8 ; 2.9437905235626984E8 ; 2.3720963757342728E10 ; 0.0
127 ; 2614042.379881552 ; 2.019368149515866E8 ; 2.9699587109694153E8 ; 2.392288818873009E10 ; 0.0
128 ; 2608391.327817997 ; 2.0194917118301296E8 ; 2.996099134768231E8 ; 2.412482500368168E10 ; 0.0
129 ; 2604956.755436481 ; 2.0196149976095358E8 ; 3.0221830480464107E8 ; 2.4326774174864693E10 ; 0.0
130 ; 2602564.7828847757 ; 2.0197380036795205E8 ; 3.0482326156007755E8 ; 2.4528735674625645E10 ; 0.0
131 ; 2595412.4260809775 ; 2.0198607268968394E8 ; 3.074258263429623E8 ; 2.4730709474993595E10 ; 0.0
132 ; 2586602.8115514806 ; 2.0199831641486135E8 ; 3.100212387690433E8 ; 2.493269554768328E10 ; 0.0
133 ; 2581995.540080688 ; 2.0201053123514196E8 ; 3.126078415805948E8 ; 2.513469386409814E10 ; 0.0
134 ; 2577406.1532145664 ; 2.0202271684504285E8 ; 3.1518983712067544E8 ; 2.5336704395333282E10 ; 0.0
135 ; 2568760.605703521 ; 2.0203487294185817E8 ; 3.1776724327389E8 ; 2.5538727112178326E10 ; 0.0
136 ; 2563633.8713384224 ; 2.020469992255808E8 ; 3.2033600387959355E8 ; 2.5740761985120182E10 ; 0.0
137 ; 2557083.3016951247 ; 2.02059095398828E8 ; 3.22899637750932E8 ; 2.5942808984345764E10 ; 0.0
138 ; 2545909.288011838 ; 2.0207116116677013E8 ; 3.254567210526271E8 ; 2.614486807974459E10 ; 0.0
139 ; 2538848.6945905024 ; 2.0208319623706323E8 ; 3.2800263034063894E8 ; 2.634693924091136E10 ; 0.0
140 ; 2531449.7421287326 ; 2.020952003197843E8 ; 3.3054147903522944E8 ; 2.6549022437148426E10 ; 0.0
141 ; 2521912.6328958585 ; 2.0210717312737018E8 ; 3.330729287773582E8 ; 2.6751117637468212E10 ; 0.0
142 ; 2515316.0455531473 ; 2.0211911437455854E8 ; 3.3559484141025406E8 ; 2.695322481059558E10 ; 0.0
143 ; 2508252.2766009974 ; 2.0213102377833232E8 ; 3.381101574558072E8 ; 2.715534392497014E10 ; 0.0
144 ; 2502323.8741091415 ; 2.0214290105786642E8 ; 3.406184097324082E8 ; 2.735747494874847E10 ; 0.0
145 ; 2499851.5997651774 ; 2.0215474593447664E8 ; 3.431207336065174E8 ; 2.7559617849806335E10 ; 0.0
146 ; 2494653.6652705455 ; 2.0216655813157144E8 ; 3.4562058520628256E8 ; 2.776177259574081E10 ; 0.0
147 ; 2492928.6190945087 ; 2.021783373746055E8 ; 3.481152388715531E8 ; 2.7963939153872383E10 ; 0.0
148 ; 2490524.24400971 ; 2.0219008339103562E8 ; 3.506081674906476E8 ; 2.816611749124699E10 ; 0.0
149 ; 2490637.662003957 ; 2.022017959102785E8 ; 3.5309869173465735E8 ; 2.8368307574638027E10 ; 0.0
150 ; 2485850.344430369 ; 2.022134746636706E8 ; 3.555893293966613E8 ; 2.8570509370548306E10 ; 0.0
151 ; 2481173.7640278195 ; 2.022251193844295E8 ; 3.5807517974109167E8 ; 2.8772722845211975E10 ; 0.0
152 ; 2479674.962040893 ; 2.022367298076175E8 ; 3.605563535051195E8 ; 2.8974947964596405E10 ; 0.0
153 ; 2475217.042021205 ; 2.022483056701062E8 ; 3.630360284671604E8 ; 2.9177184694404022E10 ; 0.0
154 ; 2472349.2912263134 ; 2.0225984671054333E8 ; 3.655112455091816E8 ; 2.9379433000074127E10 ; 0.0
155 ; 2468226.650879463 ; 2.0227135266932058E8 ; 3.6798359480040795E8 ; 2.958169284678467E10 ; 0.0
156 ; 2467408.979397255 ; 2.0228282328854322E8 ; 3.704518214512874E8 ; 2.978396419945399E10 ; 0.0
157 ; 2462249.167305582 ; 2.0229425831200063E8 ; 3.729192304306846E8 ; 2.9986247022742535E10 ; 0.0
158 ; 2458185.6583609576 ; 2.023056574851387E8 ; 3.753814795979902E8 ; 3.0188541281054535E10 ; 0.0
159 ; 2457236.2377853063 ; 2.0231702055503303E8 ; 3.778396652563512E8 ; 3.0390846938539673E10 ; 0.0
160 ; 2454463.5583018414 ; 2.023283472703634E8 ; 3.8029690149413645E8 ; 3.0593163959094707E10 ; 0.0
161 ; 2450256.338548473 ; 2.0233963738138956E8 ; 3.827513650524383E8 ; 3.079549230636507E10 ; 0.0
162 ; 2446090.438467365 ; 2.0235089063992792E8 ; 3.852016213909868E8 ; 3.099783194374646E10 ; 0.0
163 ; 2444180.024812826 ; 2.0236210679932928E8 ; 3.876477118294542E8 ; 3.1200182834386387E10 ; 0.0
164 ; 2441236.7399474224 ; 2.0237328561445764E8 ; 3.90091891854267E8 ; 3.1402544941185715E10 ; 0.0
165 ; 2439222.5490612723 ; 2.0238442684166977E8 ; 3.9253312859421444E8 ; 3.160491822680017E10 ; 0.0
166 ; 2432491.938850837 ; 2.0239553023879597E8 ; 3.9497235114327574E8 ; 3.180730265364184E10 ; 0.0
167 ; 2430789.222129346 ; 2.0240659556512144E8 ; 3.9740484308212656E8 ; 3.200969818388064E10 ; 0.0
168 ; 2430611.360105992 ; 2.024176225813685E8 ; 3.998356323042559E8 ; 3.221210477944576E10 ; 0.0
169 ; 2427233.661998391 ; 2.0242861104967973E8 ; 4.022662436643619E8 ; 3.2414522402027126E10 ; 0.0
170 ; 2421608.6265983856 ; 2.0243956073360175E8 ; 4.046934773263603E8 ; 3.2616951013076805E10 ; 0.0
171 ; 2416373.3576036417 ; 2.024504713980697E8 ; 4.0711508595295864E8 ; 3.2819390573810406E10 ; 0.0
172 ; 2415772.562638716 ; 2.0246134280939257E8 ; 4.095314593105623E8 ; 3.3021841045208477E10 ; 0.0
173 ; 2411555.801852919 ; 2.0247217473523897E8 ; 4.11947231873201E8 ; 3.3224302388017868E10 ; 0.0
174 ; 2407042.4243066767 ; 2.024829669446237E8 ; 4.1435878767505395E8 ; 3.3426774562753105E10 ; 0.0
175 ; 2405918.6758228005 ; 2.0249371920789486E8 ; 4.1676583009936064E8 ; 3.3629257529697727E10 ; 0.0
176 ; 2405217.1768417265 ; 2.0250443129672152E8 ; 4.1917174877518344E8 ; 3.383175124890562E10 ; 0.0
177 ; 2404147.1356754466 ; 2.02515102984082E8 ; 4.215769659520252E8 ; 3.4034255680202343E10 ; 0.0
178 ; 2402107.4257925497 ; 2.025257340442526E8 ; 4.239811130877006E8 ; 3.4236770783186424E10 ; 0.0
179 ; 2399477.684922376 ; 2.02536324252797E8 ; 4.263832205134932E8 ; 3.4439296517230675E10 ; 0.0
180 ; 2397564.233395316 ; 2.0254687338655588E8 ; 4.287826981984156E8 ; 3.4641832841483475E10 ; 0.0
181 ; 2395860.1164338975 ; 2.0255738122363728E8 ; 4.311802624318109E8 ; 3.484437971487003E10 ; 0.0
182 ; 2395163.9116820353 ; 2.0256784754340735E8 ; 4.3357612254824483E8 ; 3.504693709609367E10 ; 0.0
183 ; 2392144.658919373 ; 2.025782721264813E8 ; 4.3597128645992684E8 ; 3.524950494363708E10 ; 0.0
184 ; 2387954.178227709 ; 2.025886547547151E8 ; 4.3836343111884624E8 ; 3.545208321576356E10 ; 0.0
185 ; 2385649.913432027 ; 2.0259899521119738E8 ; 4.4075138529707396E8 ; 3.565467187051827E10 ; 0.0
186 ; 2385789.777318828 ; 2.026092932802417E8 ; 4.4313703521050596E8 ; 3.585727086572947E10 ; 0.0
187 ; 2381680.0847438765 ; 2.0261954874737927E8 ; 4.455228249878248E8 ; 3.605988015900971E10 ; 0.0
188 ; 2381839.7286862386 ; 2.0262976139935204E8 ; 4.4790450507256866E8 ; 3.626249970775709E10 ; 0.0
189 ; 2376764.3617110522 ; 2.02639931024106E8 ; 4.5028634480125487E8 ; 3.646512946915644E10 ; 0.0
190 ; 2376618.60126815 ; 2.0265005741078484E8 ; 4.526631091629659E8 ; 3.666776940018055E10 ; 0.0
191 ; 2373286.427409488 ; 2.0266014034972408E8 ; 4.5503972776423407E8 ; 3.687041945759133E10 ; 0.0
192 ; 2372572.985730071 ; 2.0267017963244534E8 ; 4.5741301419164354E8 ; 3.7073079597941055E10 ; 0.0
193 ; 2369859.204152234 ; 2.0268017505165076E8 ; 4.597855871773736E8 ; 3.72757497775735E10 ; 0.0
194 ; 2365152.5917510223 ; 2.0269012640121815E8 ; 4.621554463815258E8 ; 3.747842995262515E10 ; 0.0
195 ; 2365541.0757805663 ; 2.027000334761959E8 ; 4.6452059897327685E8 ; 3.768112007902637E10 ; 0.0
196 ; 2365412.6976530333 ; 2.0270989607279846E8 ; 4.668861400490574E8 ; 3.788382011250256E10 ; 0.0
197 ; 2360620.017084576 ; 2.027197139884019E8 ; 4.692515527467105E8 ; 3.808653000857536E10 ; 0.0
198 ; 2358721.0968040847 ; 2.0272948702153987E8 ; 4.716121727637951E8 ; 3.828924972256377E10 ; 0.0
199 ; 2357647.815481283 ; 2.0273921497189963E8 ; 4.7397089386059916E8 ; 3.8491979209585304E10 ; 0.0
200 ; 2355745.445524207 ; 2.0274889764031827E8 ; 4.7632854167608047E8 ; 3.8694718424557205E10 ; 0.0
