CSV File for the City 1 on Day 204
1 - Minute m 
2 - Power Consumed at minute m 
3 - Power Produced at minute m 
4 - Energy Consumed since the beginning of the day 
5 - Energy Produced since the beginning of the day 
6 - Energy Lost since the beginning of the day on lines starting from the city
 
0 ; 1222477.1166276662 ; 1.0537831175492886E8 ; 0.0 ; 0.0 ; 0.0
1 ; 1238905.2808855523 ; 1.0553094852349037E8 ; 1222477.1166276662 ; 1.0537831175492886E8 ; 0.0
2 ; 1263096.124992178 ; 1.0599239295775989E8 ; 2461382.397513218 ; 2.1090926027841923E8 ; 0.0
3 ; 1280475.240194802 ; 1.0676264872800905E8 ; 3724478.522505396 ; 3.169016532361791E8 ; 0.0
4 ; 1305458.7099533977 ; 1.078417191829524E8 ; 5004953.762700198 ; 4.2366430196418816E8 ; 0.0
5 ; 1337679.732592763 ; 1.0922960731220478E8 ; 6310412.472653596 ; 5.3150602114714056E8 ; 0.0
6 ; 1377977.8253267335 ; 1.1092631571134457E8 ; 7648092.205246359 ; 6.407356284593453E8 ; 0.0
7 ; 1433192.7908771893 ; 1.1293184655048364E8 ; 9026070.030573092 ; 7.5166194417069E8 ; 0.0
8 ; 1512982.439495362 ; 1.1524620154719871E8 ; 1.0459262821450282E7 ; 8.645937907211735E8 ; 0.0
9 ; 1632752.3239606787 ; 1.1786938194459379E8 ; 1.1972245260945644E7 ; 9.798399922683723E8 ; 0.0
10 ; 1817565.9167447311 ; 1.2080138849513829E8 ; 1.3604997584906323E7 ; 1.097709374212966E9 ; 0.0
11 ; 2110203.6579574794 ; 1.2404222145076665E8 ; 1.5422563501651054E7 ; 1.2185107627081041E9 ; 0.0
12 ; 2570819.0436590035 ; 1.2759188055954441E8 ; 1.7532767159608535E7 ; 1.3425529841588707E9 ; 0.0
13 ; 3020474.6435710657 ; 1.3145036506900215E8 ; 2.0103586203267537E7 ; 1.470144864718415E9 ; 0.0
14 ; 3075927.323485949 ; 1.3561767373603594E8 ; 2.31240608468386E7 ; 1.6015952297874172E9 ; 0.0
15 ; 3095323.977773982 ; 1.4009380484306896E8 ; 2.619998817032455E7 ; 1.7372129035234532E9 ; 0.0
16 ; 3121239.5118631856 ; 1.4487875621998945E8 ; 2.9295312148098532E7 ; 1.8773067083665223E9 ; 0.0
17 ; 3145357.564414443 ; 1.4997252527121893E8 ; 3.241655165996172E7 ; 2.0221854645865119E9 ; 0.0
18 ; 3167112.5058274325 ; 1.553751090071426E8 ; 3.5561909224376164E7 ; 2.172157989857731E9 ; 0.0
19 ; 3187639.0684753973 ; 1.6108650407904592E8 ; 3.87290217302036E7 ; 2.3275330988648734E9 ; 0.0
20 ; 3211104.4977678917 ; 1.6710670681665722E8 ; 4.1916660798678994E7 ; 2.488619602943919E9 ; 0.0
21 ; 3240677.84182574 ; 1.7343571326738653E8 ; 4.512776529644689E7 ; 2.6557263097605762E9 ; 0.0
22 ; 3258616.513374582 ; 1.8007351923638064E8 ; 4.836844313827263E7 ; 2.8291620230279627E9 ; 0.0
23 ; 3284196.0032939985 ; 1.8702012032657188E8 ; 5.162705965164721E7 ; 3.0092355422643433E9 ; 0.0
24 ; 3312577.7416211437 ; 1.9427551197798204E8 ; 5.491125565494121E7 ; 3.196255662590915E9 ; 0.0
25 ; 3336578.7337695896 ; 2.0052773040382436E8 ; 5.822383339656235E7 ; 3.3905311745688972E9 ; 0.0
26 ; 3355416.574153471 ; 2.005303186634025E8 ; 6.156041213033194E7 ; 3.5910589049727216E9 ; 0.0
27 ; 3377056.4330199673 ; 2.0053304122068438E8 ; 6.491582870448541E7 ; 3.791589223636124E9 ; 0.0
28 ; 3405076.8142567584 ; 2.005358932221064E8 ; 6.829288513750538E7 ; 3.9921222648568087E9 ; 0.0
29 ; 3426972.5351935606 ; 2.0053886981801018E8 ; 7.169796195176214E7 ; 4.192658158078915E9 ; 0.0
30 ; 3449436.0755405766 ; 2.0054196618788695E8 ; 7.51249344869557E7 ; 4.393197027896925E9 ; 0.0
31 ; 3471783.2177048195 ; 2.0054517756265065E8 ; 7.857437056249627E7 ; 4.593738994084812E9 ; 0.0
32 ; 3494475.5976978512 ; 2.0054849924398544E8 ; 8.204615378020109E7 ; 4.794284171647463E9 ; 0.0
33 ; 3518409.474470873 ; 2.0055192662086937E8 ; 8.554062937789895E7 ; 4.994832670891448E9 ; 0.0
34 ; 3540315.986200834 ; 2.0055545518341997E8 ; 8.905903885236982E7 ; 5.195384597512318E9 ; 0.0
35 ; 3562270.325297585 ; 2.0055908053423852E8 ; 9.259935483857065E7 ; 5.395940052695738E9 ; 0.0
36 ; 3574823.954548283 ; 2.0056279839745107E8 ; 9.616162516386823E7 ; 5.596499133229977E9 ; 0.0
37 ; 3597147.552932297 ; 2.005666046256563E8 ; 9.973644911841652E7 ; 5.797061931627428E9 ; 0.0
38 ; 3615190.4141136366 ; 2.0057049520499364E8 ; 1.0333359667134881E8 ; 5.997628536253084E9 ; 0.0
39 ; 3634182.4103393005 ; 2.005744662585439E8 ; 1.0694878708546245E8 ; 6.198199031458077E9 ; 0.0
40 ; 3654091.3824770963 ; 2.005785140482679E8 ; 1.1058296949580175E8 ; 6.398773497716621E9 ; 0.0
41 ; 3667932.632503411 ; 2.005826349756773E8 ; 1.1423706087827884E8 ; 6.59935201176489E9 ; 0.0
42 ; 3686241.139046521 ; 2.005868255814208E8 ; 1.1790499351078224E8 ; 6.799934646740567E9 ; 0.0
43 ; 3705646.9864319107 ; 2.0059108254395264E8 ; 1.2159123464982876E8 ; 7.000521472321988E9 ; 0.0
44 ; 3719706.632192433 ; 2.0059540267743728E8 ; 1.2529688163626067E8 ; 7.201112554865941E9 ; 0.0
45 ; 3734468.2307809987 ; 2.005997829290274E8 ; 1.290165882684531E8 ; 7.401707957543378E9 ; 0.0
46 ; 3747454.853258471 ; 2.0060422037563822E8 ; 1.3275105649923411E8 ; 7.602307740472405E9 ; 0.0
47 ; 3762729.96173762 ; 2.0060871222032604E8 ; 1.3649851135249257E8 ; 7.802911960848043E9 ; 0.0
48 ; 3774220.478812933 ; 2.0061325578836647E8 ; 1.402612413142302E8 ; 8.00352067306837E9 ; 0.0
49 ; 3783713.2183569423 ; 2.006178485231136E8 ; 1.4403546179304314E8 ; 8.204133928856736E9 ; 0.0
50 ; 3791317.037144926 ; 2.006224879817114E8 ; 1.4781917501140007E8 ; 8.404751777379849E9 ; 0.0
51 ; 3802988.683018388 ; 2.006271718307165E8 ; 1.51610492048545E8 ; 8.60537426536156E9 ; 0.0
52 ; 3811260.647645312 ; 2.0063189784168407E8 ; 1.554134807315634E8 ; 8.806001437192278E9 ; 0.0
53 ; 3824786.3826050856 ; 2.0063666388675788E8 ; 1.592247413792087E8 ; 9.006633335033962E9 ; 0.0
54 ; 3832879.921537698 ; 2.0064146793430012E8 ; 1.630495277618138E8 ; 9.207269998920721E9 ; 0.0
55 ; 3839432.200094992 ; 2.0064630804458886E8 ; 1.668824076833515E8 ; 9.40791146685502E9 ; 0.0
56 ; 3848499.221545674 ; 2.006511823656062E8 ; 1.7072183988344648E8 ; 9.608557774899609E9 ; 0.0
57 ; 3861875.4149439856 ; 2.0065608912893435E8 ; 1.7457033910499215E8 ; 9.809208957265215E9 ; 0.0
58 ; 3870793.620977484 ; 2.006610266457741E8 ; 1.7843221451993614E8 ; 1.000986504639415E10 ; 0.0
59 ; 3876186.155012718 ; 2.0066599330309498E8 ; 1.8230300814091364E8 ; 1.0210526073039925E10 ; 0.0
60 ; 3883833.639751278 ; 2.006709875599245E8 ; 1.8617919429592636E8 ; 1.041119206634302E10 ; 0.0
61 ; 3893820.7924796836 ; 2.0067600794378123E8 ; 1.9006302793567765E8 ; 1.0611863053902945E10 ; 0.0
62 ; 3899583.7246590033 ; 2.0068105304725376E8 ; 1.9395684872815734E8 ; 1.0812539061846725E10 ; 0.0
63 ; 3916901.749917443 ; 2.0068612152472648E8 ; 1.9785643245281634E8 ; 1.101322011489398E10 ; 0.0
64 ; 3923712.119936254 ; 2.0069121208925152E8 ; 2.0177333420273378E8 ; 1.1213906236418707E10 ; 0.0
65 ; 3928841.8818808924 ; 2.0069632350956473E8 ; 2.0569704632267004E8 ; 1.1414597448507957E10 ; 0.0
66 ; 3935142.6182443756 ; 2.0070145460724327E8 ; 2.0962588820455092E8 ; 1.1615293772017523E10 ; 0.0
67 ; 3940637.3088872903 ; 2.0070660425400114E8 ; 2.135610308227953E8 ; 1.1815995226624765E10 ; 0.0
68 ; 3954160.3578674854 ; 2.007117713691186E8 ; 2.175016681316826E8 ; 1.2016701830878767E10 ; 0.0
69 ; 3960851.9365458023 ; 2.0071695491700113E8 ; 2.2145582848955008E8 ; 1.2217413602247885E10 ; 0.0
70 ; 3966980.221509996 ; 2.0072215390486315E8 ; 2.2541668042609587E8 ; 1.2418130557164886E10 ; 0.0
71 ; 3975225.823029846 ; 2.0072736738053188E8 ; 2.2938366064760587E8 ; 1.261885271106975E10 ; 0.0
72 ; 3981876.438674114 ; 2.0073259443036577E8 ; 2.333588864706357E8 ; 1.2819580078450281E10 ; 0.0
73 ; 3990266.8709096476 ; 2.0073783417728305E8 ; 2.3734076290930983E8 ; 1.3020312672880648E10 ; 0.0
74 ; 3995919.7269111094 ; 2.0074308577889514E8 ; 2.413310297802195E8 ; 1.322105050705793E10 ; 0.0
75 ; 4003697.8860579706 ; 2.0074834842573974E8 ; 2.453269495071306E8 ; 1.3421793592836824E10 ; 0.0
76 ; 4011534.3572166315 ; 2.007536213396091E8 ; 2.4933064739318857E8 ; 1.3622541941262564E10 ; 0.0
77 ; 4015109.607564819 ; 2.0075890377196857E8 ; 2.533421817504052E8 ; 1.3823295562602173E10 ; 0.0
78 ; 4017360.841057862 ; 2.0076419500246075E8 ; 2.5735729135797E8 ; 1.4024054466374142E10 ; 0.0
79 ; 4017078.3384722956 ; 2.0076949433749077E8 ; 2.6137465219902787E8 ; 1.4224818661376602E10 ; 0.0
80 ; 4023766.392256752 ; 2.0077480110888854E8 ; 2.6539173053750017E8 ; 1.4425588155714092E10 ; 0.0
81 ; 4024450.2351270774 ; 2.0078011467264393E8 ; 2.6941549692975694E8 ; 1.462636295682298E10 ; 0.0
82 ; 4025467.855287689 ; 2.007854344077106E8 ; 2.7343994716488403E8 ; 1.4827143071495625E10 ; 0.0
83 ; 4026120.7838691426 ; 2.0079075971487492E8 ; 2.774654150201717E8 ; 1.5027928505903336E10 ; 0.0
84 ; 4027035.395212066 ; 2.0079609001568648E8 ; 2.8149153580404085E8 ; 1.522871926561821E10 ; 0.0
85 ; 4023789.1456178455 ; 2.0080142475144675E8 ; 2.855185711992529E8 ; 1.5429515355633896E10 ; 0.0
86 ; 4026792.3239168287 ; 2.0080676338225234E8 ; 2.8954236034487075E8 ; 1.5630316780385344E10 ; 0.0
87 ; 4025919.5398430075 ; 2.0081210538609025E8 ; 2.935691526687876E8 ; 1.5831123543767595E10 ; 0.0
88 ; 4022866.236938197 ; 2.0081745025798187E8 ; 2.975950722086306E8 ; 1.6031935649153685E10 ; 0.0
89 ; 4025983.0688288044 ; 2.0082279750917315E8 ; 3.016179384455688E8 ; 1.6232753099411667E10 ; 0.0
90 ; 4026822.8963709017 ; 2.008281466663681E8 ; 3.056439215143976E8 ; 1.643357589692084E10 ; 0.0
91 ; 4024978.7481520185 ; 2.0083349727100345E8 ; 3.096707444107685E8 ; 1.6634404043587208E10 ; 0.0
92 ; 4023617.6553663434 ; 2.008388488785621E8 ; 3.136957231589205E8 ; 1.6835237540858212E10 ; 0.0
93 ; 4023273.229367366 ; 2.008442010579227E8 ; 3.177193408142869E8 ; 1.7036076389736774E10 ; 0.0
94 ; 4024522.7547751456 ; 2.0084955339074412E8 ; 3.2174261404365426E8 ; 1.7236920590794697E10 ; 0.0
95 ; 4020450.3097486137 ; 2.0085490547088212E8 ; 3.257671367984294E8 ; 1.743777014418544E10 ; 0.0
96 ; 4019901.3700880166 ; 2.0086025690383673E8 ; 3.29787587108178E8 ; 1.7638625049656322E10 ; 0.0
97 ; 4020336.986632055 ; 2.0086560730622846E8 ; 3.3380748847826606E8 ; 1.7839485306560158E10 ; 0.0
98 ; 4018771.4578706264 ; 2.00870956305302E8 ; 3.378278254648981E8 ; 1.8040350913866386E10 ; 0.0
99 ; 4021891.7566722804 ; 2.0087630353845543E8 ; 3.418465969227687E8 ; 1.8241221870171688E10 ; 0.0
100 ; 4016400.964228583 ; 2.008816486527938E8 ; 3.45868488679441E8 ; 1.8442098173710144E10 ; 0.0
101 ; 4012455.8113869214 ; 2.0088699130470574E8 ; 3.4988488964366955E8 ; 1.8642979822362938E10 ; 0.0
102 ; 4010089.94731389 ; 2.0089233115946153E8 ; 3.538973454550565E8 ; 1.8843866813667645E10 ; 0.0
103 ; 4015715.5086281085 ; 2.0089766789083183E8 ; 3.579074354023704E8 ; 1.9044759144827106E10 ; 0.0
104 ; 4012071.9171277354 ; 2.0090300118072543E8 ; 3.619231509109985E8 ; 1.9245656812717937E10 ; 0.0
105 ; 4007655.0933197644 ; 2.0090833071884564E8 ; 3.6593522282812625E8 ; 1.9446559813898663E10 ; 0.0
106 ; 4005149.6474727597 ; 2.0091365620236343E8 ; 3.69942877921446E8 ; 1.9647468144617508E10 ; 0.0
107 ; 4005824.9867056925 ; 2.0091897733560726E8 ; 3.7394802756891876E8 ; 1.984838180081987E10 ; 0.0
108 ; 4001653.5069041173 ; 2.0092429382976812E8 ; 3.779538525556245E8 ; 2.0049300778155476E10 ; 0.0
109 ; 3995606.9222463467 ; 2.0092960540261912E8 ; 3.819555060625286E8 ; 2.0250225071985245E10 ; 0.0
110 ; 3998112.3308728556 ; 2.009349117782488E8 ; 3.8595111298477495E8 ; 2.0451154677387863E10 ; 0.0
111 ; 3993677.2403890104 ; 2.009402126868076E8 ; 3.899492253156478E8 ; 2.065208958916611E10 ; 0.0
112 ; 3992540.1266695787 ; 2.0094550786426663E8 ; 3.939429025560368E8 ; 2.0853029801852917E10 ; 0.0
113 ; 3989663.9388771914 ; 2.009507970521879E8 ; 3.9793544268270636E8 ; 2.1053975309717182E10 ; 0.0
114 ; 3985256.4082857603 ; 2.009560799975057E8 ; 4.019251066215835E8 ; 2.125492610676937E10 ; 0.0
115 ; 3980504.020827278 ; 2.009613564523186E8 ; 4.0591036302986926E8 ; 2.1455882186766876E10 ; 0.0
116 ; 3981320.739641472 ; 2.009666261736911E8 ; 4.0989086705069655E8 ; 2.1656843543219196E10 ; 0.0
117 ; 3976435.654460414 ; 2.0097188892346466E8 ; 4.1387218779033804E8 ; 2.1857810169392887E10 ; 0.0
118 ; 3972439.780091798 ; 2.0097714446807787E8 ; 4.1784862344479847E8 ; 2.2058782058316353E10 ; 0.0
119 ; 3967324.067098845 ; 2.0098239257839468E8 ; 4.218210632248903E8 ; 2.225975920278443E10 ; 0.0
120 ; 3961853.685683145 ; 2.0098763302954096E8 ; 4.2578838729198915E8 ; 2.2460741595362827E10 ; 0.0
121 ; 3958924.1880729953 ; 2.009928656007483E8 ; 4.297502409776723E8 ; 2.266172922839237E10 ; 0.0
122 ; 3956334.6059322124 ; 2.009980900752054E8 ; 4.3370916516574526E8 ; 2.286272209399312E10 ; 0.0
123 ; 3952209.547367778 ; 2.0100330623991567E8 ; 4.376654997716775E8 ; 2.3063720184068325E10 ; 0.0
124 ; 3949393.1594262263 ; 2.010085138855621E8 ; 4.4161770931904525E8 ; 2.326472349030824E10 ; 0.0
125 ; 3945415.4288202743 ; 2.0101371280637744E8 ; 4.4556710247847146E8 ; 2.34657320041938E10 ; 0.0
126 ; 3938557.472534196 ; 2.0101890280002087E8 ; 4.495125179072917E8 ; 2.366674571700018E10 ; 0.0
127 ; 3933125.8984335945 ; 2.0102408366745985E8 ; 4.534510753798259E8 ; 2.38677646198002E10 ; 0.0
128 ; 3931331.9445145354 ; 2.0102925521285728E8 ; 4.5738420127825946E8 ; 2.4068788703467663E10 ; 0.0
129 ; 3924238.918621816 ; 2.010344172434638E8 ; 4.6131553322277397E8 ; 2.426981795868052E10 ; 0.0
130 ; 3918236.6761187883 ; 2.010395695695148E8 ; 4.652397721413958E8 ; 2.4470852375923985E10 ; 0.0
131 ; 3905972.6724952753 ; 2.0104471200413167E8 ; 4.691580088175146E8 ; 2.46718919454935E10 ; 0.0
132 ; 3894597.223055895 ; 2.0104984436322793E8 ; 4.7306398149000984E8 ; 2.487293665749763E10 ; 0.0
133 ; 3881511.4188063554 ; 2.0105496646541888E8 ; 4.7695857871306574E8 ; 2.507398650186086E10 ; 0.0
134 ; 3872079.8203224405 ; 2.0106007813193548E8 ; 4.808400901318721E8 ; 2.527504146832628E10 ; 0.0
135 ; 3864504.696520204 ; 2.010651791865418E8 ; 4.847121699521946E8 ; 2.5476101546458214E10 ; 0.0
136 ; 3853735.2949532038 ; 2.0107026945545608E8 ; 4.885766746487148E8 ; 2.5677166725644756E10 ; 0.0
137 ; 3840883.784672828 ; 2.0107534876727518E8 ; 4.92430409943668E8 ; 2.5878236995100212E10 ; 0.0
138 ; 3828379.4835848594 ; 2.0108041695290202E8 ; 4.9627129372834086E8 ; 2.607931234386749E10 ; 0.0
139 ; 3815855.6687289 ; 2.010854738454764E8 ; 5.0009967321192575E8 ; 2.6280392760820393E10 ; 0.0
140 ; 3806242.0331176193 ; 2.010905192803084E8 ; 5.0391552888065463E8 ; 2.648147823466587E10 ; 0.0
141 ; 3797442.9116308605 ; 2.0109555309481484E8 ; 5.077217709137722E8 ; 2.668256875394618E10 ; 0.0
142 ; 3782950.251365739 ; 2.0110057512845826E8 ; 5.115192138254031E8 ; 2.6883664307040993E10 ; 0.0
143 ; 3772936.1492061354 ; 2.0110558522268832E8 ; 5.153021640767688E8 ; 2.7084764882169453E10 ; 0.0
144 ; 3756827.8391063176 ; 2.011105832208858E8 ; 5.19075100225975E8 ; 2.728587046739214E10 ; 0.0
145 ; 3753914.0145818708 ; 2.011155689683089E8 ; 5.228319280650813E8 ; 2.7486981050613026E10 ; 0.0
146 ; 3745498.5398977604 ; 2.0112054231204146E8 ; 5.2658584207966316E8 ; 2.7688096619581333E10 ; 0.0
147 ; 3744151.2483774847 ; 2.011255031009436E8 ; 5.303313406195609E8 ; 2.7889217161893375E10 ; 0.0
148 ; 3739752.081240955 ; 2.0113045118560427E8 ; 5.340754918679384E8 ; 2.809034266499432E10 ; 0.0
149 ; 3731628.5122257276 ; 2.0113538641829556E8 ; 5.378152439491794E8 ; 2.8291473116179924E10 ; 0.0
150 ; 3730089.3849365083 ; 2.01140308652929E8 ; 5.415468724614052E8 ; 2.849260850259822E10 ; 0.0
151 ; 3722538.044240224 ; 2.0114521774501368E8 ; 5.452769618463416E8 ; 2.869374881125115E10 ; 0.0
152 ; 3717838.842440037 ; 2.011501135516157E8 ; 5.489994998905818E8 ; 2.8894894028996162E10 ; 0.0
153 ; 3713718.5274305646 ; 2.011549959313196E8 ; 5.527173387330219E8 ; 2.909604414254778E10 ; 0.0
154 ; 3704891.602959412 ; 2.0115986474419114E8 ; 5.564310572604524E8 ; 2.92971991384791E10 ; 0.0
155 ; 3700506.7546578706 ; 2.0116471985174155E8 ; 5.601359488634118E8 ; 2.949835900322329E10 ; 0.0
156 ; 3700109.9914240274 ; 2.0116956111689314E8 ; 5.638364556180696E8 ; 2.969952372307503E10 ; 0.0
157 ; 3695173.635318015 ; 2.0117438840394637E8 ; 5.675365656094937E8 ; 2.9900693284191925E10 ; 0.0
158 ; 3685042.7462880583 ; 2.0117920157854804E8 ; 5.712317392448118E8 ; 3.010186767259587E10 ; 0.0
159 ; 3680860.2833449994 ; 2.0118400050766096E8 ; 5.749167819910998E8 ; 3.030304687417442E10 ; 0.0
160 ; 3673213.8676425554 ; 2.0118878505953443E8 ; 5.785976422744448E8 ; 3.050423087468208E10 ; 0.0
161 ; 3675787.957943011 ; 2.0119355510367617E8 ; 5.822708561420873E8 ; 3.0705419659741615E10 ; 0.0
162 ; 3664238.9752767514 ; 2.0119831051082528E8 ; 5.859466441000303E8 ; 3.090661321484529E10 ; 0.0
163 ; 3659190.3578439914 ; 2.012030511529259E8 ; 5.89610883075307E8 ; 3.1107811525356117E10 ; 0.0
164 ; 3653559.2858781368 ; 2.0120777690310246E8 ; 5.93270073433151E8 ; 3.1309014576509045E10 ; 0.0
165 ; 3648518.7280492904 ; 2.0121248763563526E8 ; 5.969236327190292E8 ; 3.1510222353412148E10 ; 0.0
166 ; 3646224.9498583023 ; 2.0121718322593743E8 ; 6.005721514470785E8 ; 3.1711434841047783E10 ; 0.0
167 ; 3638781.320044471 ; 2.0122186355053246E8 ; 6.042183763969368E8 ; 3.191265202427372E10 ; 0.0
168 ; 3633179.0919297347 ; 2.0122652848703283E8 ; 6.078571577169813E8 ; 3.2113873887824253E10 ; 0.0
169 ; 3629261.421159349 ; 2.0123117791411912E8 ; 6.114903368089111E8 ; 3.2315100416311287E10 ; 0.0
170 ; 3622937.9748347783 ; 2.0123581171152022E8 ; 6.151195982300705E8 ; 3.2516331594225407E10 ; 0.0
171 ; 3614631.1036962788 ; 2.0124042975999412E8 ; 6.187425362049053E8 ; 3.2717567405936928E10 ; 0.0
172 ; 3613180.50445474 ; 2.0124503194130933E8 ; 6.223571673086015E8 ; 3.2918807835696922E10 ; 0.0
173 ; 3604152.0123415357 ; 2.0124961813822722E8 ; 6.259703478130562E8 ; 3.3120052867638233E10 ; 0.0
174 ; 3599972.4883836475 ; 2.0125418823448482E8 ; 6.295744998253977E8 ; 3.332130248577646E10 ; 0.0
175 ; 3597536.7465321016 ; 2.0125874211477822E8 ; 6.331744723137814E8 ; 3.3522556674010944E10 ; 0.0
176 ; 3595098.5362511743 ; 2.0126327966474685E8 ; 6.367720090603135E8 ; 3.372381541612572E10 ; 0.0
177 ; 3588567.979043494 ; 2.0126780077095804E8 ; 6.403671075965647E8 ; 3.3925078695790466E10 ; 0.0
178 ; 3584164.680808544 ; 2.0127230532089227E8 ; 6.439556755756081E8 ; 3.4126346496561424E10 ; 0.0
179 ; 3585254.4837787235 ; 2.0127679320292896E8 ; 6.475398402564167E8 ; 3.4327618801882317E10 ; 0.0
180 ; 3579119.655892332 ; 2.0128126430633283E8 ; 6.511250947401954E8 ; 3.452889559508524E10 ; 0.0
181 ; 3573296.195692778 ; 2.012857185212405E8 ; 6.547042143960878E8 ; 3.473017685939158E10 ; 0.0
182 ; 3572962.4835800077 ; 2.0129015573864806E8 ; 6.582775105917805E8 ; 3.493146257791282E10 ; 0.0
183 ; 3564500.9916314087 ; 2.0129457585039854E8 ; 6.618504730753605E8 ; 3.513275273365147E10 ; 0.0
184 ; 3562386.250972557 ; 2.012989787491702E8 ; 6.654149740669919E8 ; 3.533404730950186E10 ; 0.0
185 ; 3561241.416435338 ; 2.0130336432846513E8 ; 6.689773603179644E8 ; 3.553534628825103E10 ; 0.0
186 ; 3556393.1396505833 ; 2.0130773248259825E8 ; 6.725386017343998E8 ; 3.57366496525795E10 ; 0.0
187 ; 3555076.4894360206 ; 2.0131208310668668E8 ; 6.760949948740504E8 ; 3.5937957385062096E10 ; 0.0
188 ; 3548473.737932237 ; 2.0131641609663966E8 ; 6.796500713634864E8 ; 3.6139269468168785E10 ; 0.0
189 ; 3544117.7670413996 ; 2.0132073134914854E8 ; 6.831985451014186E8 ; 3.634058588426543E10 ; 0.0
190 ; 3539678.5654770704 ; 2.0132502876167738E8 ; 6.8674266286846E8 ; 3.654190661561458E10 ; 0.0
191 ; 3537434.940833349 ; 2.013293082324538E8 ; 6.902823414339371E8 ; 3.674323164437626E10 ; 0.0
192 ; 3531459.2610001178 ; 2.0133356966046005E8 ; 6.938197763747704E8 ; 3.694456095260871E10 ; 0.0
193 ; 3533512.9387216736 ; 2.0133781294542474E8 ; 6.973512356357706E8 ; 3.714589452226917E10 ; 0.0
194 ; 3525139.1327862293 ; 2.0134203798781434E8 ; 7.008847485744922E8 ; 3.73472323352146E10 ; 0.0
195 ; 3522536.4851759435 ; 2.0134624468882546E8 ; 7.044098877072785E8 ; 3.7548574373202415E10 ; 0.0
196 ; 3523177.10606721 ; 2.0135043295037717E8 ; 7.079324241924545E8 ; 3.774992061789124E10 ; 0.0
197 ; 3517998.560144039 ; 2.0135460267510363E8 ; 7.114556012985216E8 ; 3.795127105084162E10 ; 0.0
198 ; 3514465.92904745 ; 2.0135875376634705E8 ; 7.149735998586657E8 ; 3.815262565351672E10 ; 0.0
199 ; 3508286.8553456087 ; 2.013628861281507E8 ; 7.184880657877132E8 ; 3.835398440728307E10 ; 0.0
200 ; 3505681.767336165 ; 2.0136699966525248E8 ; 7.219963526430588E8 ; 3.8555347293411224E10 ; 0.0
