CSV File for the City 4 on Day 315
1 - Minute m 
2 - Power Consumed at minute m 
3 - Power Produced at minute m 
4 - Energy Consumed since the beginning of the day 
5 - Energy Produced since the beginning of the day 
6 - Energy Lost since the beginning of the day on lines starting from the city
 
0 ; 6897421.115275543 ; 1.0689752109731033E8 ; 0.0 ; 0.0 ; 0.0
1 ; 6905350.330799908 ; 1.0704780424966913E8 ; 6897421.115275543 ; 1.0689752109731033E8 ; 0.0
2 ; 6913009.268959683 ; 1.0750714558878979E8 ; 1.380277144607545E7 ; 2.1394532534697947E8 ; 0.0
3 ; 6920736.181746347 ; 1.0827554801229268E8 ; 2.0715780715035133E7 ; 3.2145247093576926E8 ; 0.0
4 ; 6932155.786332588 ; 1.0935301410228854E8 ; 2.763651689678148E7 ; 4.2972801894806194E8 ; 0.0
5 ; 6943167.180454094 ; 1.1073954611611485E8 ; 3.456867268311407E7 ; 5.390810330503504E8 ; 0.0
6 ; 6964136.443778927 ; 1.124351459781386E8 ; 4.151183986356816E7 ; 6.498205791664653E8 ; 0.0
7 ; 6986263.148533569 ; 1.1443981527269632E8 ; 4.847597630734708E7 ; 7.622557251446038E8 ; 0.0
8 ; 7018477.625003641 ; 1.1675355523823053E8 ; 5.546223945588065E7 ; 8.766955404173002E8 ; 0.0
9 ; 7069591.720589498 ; 1.1937636676267493E8 ; 6.248071708088429E7 ; 9.934490956555307E8 ; 0.0
10 ; 7148976.425219779 ; 1.223082503801285E8 ; 6.95503088014738E7 ; 1.1128254624182057E9 ; 0.0
11 ; 7273003.725959571 ; 1.255492062688478E8 ; 7.669928522669357E7 ; 1.2351337127983341E9 ; 0.0
12 ; 7472021.358224555 ; 1.2909923425057623E8 ; 8.397228895265314E7 ; 1.3606829190671818E9 ; 0.0
13 ; 7660703.424522389 ; 1.3295833379121482E8 ; 9.14443103108777E7 ; 1.489782153317758E9 ; 0.0
14 ; 7682629.4869367555 ; 1.3712650400282997E8 ; 9.910501373540008E7 ; 1.622740487108973E9 ; 0.0
15 ; 7693659.193958004 ; 1.4160374364697903E8 ; 1.0678764322233683E8 ; 1.759866991111803E9 ; 0.0
16 ; 7702574.919985635 ; 1.463900511393256E8 ; 1.1448130241629483E8 ; 1.9014707347587821E9 ; 0.0
17 ; 7713299.8709257115 ; 1.5148542455550256E8 ; 1.2218387733628047E8 ; 2.0478607858981078E9 ; 0.0
18 ; 7721283.754434266 ; 1.568898616381725E8 ; 1.2989717720720617E8 ; 2.1993462104536104E9 ; 0.0
19 ; 7728867.304250848 ; 1.626033598052247E8 ; 1.3761846096164045E8 ; 2.356236072091783E9 ; 0.0
20 ; 7739493.177799653 ; 1.686259161590387E8 ; 1.4534732826589128E8 ; 2.518839431897008E9 ; 0.0
21 ; 7748339.027781694 ; 1.7495752749673805E8 ; 1.5308682144369093E8 ; 2.6874653480560465E9 ; 0.0
22 ; 7757191.307177568 ; 1.8159819032134885E8 ; 1.6083516047147262E8 ; 2.8624228755527844E9 ; 0.0
23 ; 7765512.280629792 ; 1.8854790085377568E8 ; 1.685923517786502E8 ; 3.044021065874133E9 ; 0.0
24 ; 7778755.624680227 ; 1.958066550455001E8 ; 1.7635786405927998E8 ; 3.2325689667279086E9 ; 0.0
25 ; 7789558.792676131 ; 2.0206248949008986E8 ; 1.841366196839602E8 ; 3.428375621773409E9 ; 0.0
26 ; 7795685.605702106 ; 2.02068947473949E8 ; 1.9192617847663632E8 ; 3.630438111263499E9 ; 0.0
27 ; 7805548.713753384 ; 2.020757935155063E8 ; 1.9972186408233842E8 ; 3.8325070587374477E9 ; 0.0
28 ; 7816639.291724063 ; 2.0208302262660593E8 ; 2.075274127960918E8 ; 4.034582852252954E9 ; 0.0
29 ; 7822676.576653521 ; 2.0209062962060758E8 ; 2.1534405208781585E8 ; 4.23666587487956E9 ; 0.0
30 ; 7832030.672681785 ; 2.020986091273859E8 ; 2.2316672866446936E8 ; 4.438756504500168E9 ; 0.0
31 ; 7843288.212409039 ; 2.021069556083841E8 ; 2.3099875933715114E8 ; 4.640855113627554E9 ; 0.0
32 ; 7849757.9434203645 ; 2.02115663371637E8 ; 2.388420475495602E8 ; 4.842962069235938E9 ; 0.0
33 ; 7857941.969803953 ; 2.0212472658668336E8 ; 2.4669180549298054E8 ; 5.045077732607575E9 ; 0.0
34 ; 7865625.752872097 ; 2.0213413929929343E8 ; 2.545497474627845E8 ; 5.247202459194259E9 ; 0.0
35 ; 7875754.467591432 ; 2.0214389544594213E8 ; 2.624153732156566E8 ; 5.449336598493552E9 ; 0.0
36 ; 7883316.768385759 ; 2.021539888679673E8 ; 2.7029112768324804E8 ; 5.651480493939494E9 ; 0.0
37 ; 7887635.955856815 ; 2.0216441332535562E8 ; 2.781744444516338E8 ; 5.853634482807462E9 ; 0.0
38 ; 7893299.002653156 ; 2.0217516251010832E8 ; 2.860620804074906E8 ; 6.055798896132817E9 ; 0.0
39 ; 7903109.210067408 ; 2.0218623005914342E8 ; 2.939553794101438E8 ; 6.257974058642925E9 ; 0.0
40 ; 7909252.681397678 ; 2.0219760956669837E8 ; 3.018584886202112E8 ; 6.460160288702068E9 ; 0.0
41 ; 7917712.268046457 ; 2.0220929459620345E8 ; 3.0976774130160886E8 ; 6.662357898268766E9 ; 0.0
42 ; 7923898.74735019 ; 2.0222127869160175E8 ; 3.176854535696553E8 ; 6.86456719286497E9 ; 0.0
43 ; 7928077.263633564 ; 2.02233555388098E8 ; 3.256093523170055E8 ; 7.066788471556572E9 ; 0.0
44 ; 7931309.6846542815 ; 2.02246118222323E8 ; 3.3353742958063906E8 ; 7.26902202694467E9 ; 0.0
45 ; 7940189.6592262285 ; 2.022589607419065E8 ; 3.4146873926529336E8 ; 7.471268145166993E9 ; 0.0
46 ; 7942915.97907223 ; 2.022720765144551E8 ; 3.494089289245196E8 ; 7.673527105908899E9 ; 0.0
47 ; 7947209.348497305 ; 2.022854591359369E8 ; 3.573518449035918E8 ; 7.875799182423354E9 ; 0.0
48 ; 7951447.499599901 ; 2.0229910223847696E8 ; 3.6529905425208914E8 ; 8.078084641559291E9 ; 0.0
49 ; 7955938.932227585 ; 2.0231299949757335E8 ; 3.73250501751689E8 ; 8.280383743797768E9 ; 0.0
50 ; 7958381.159506898 ; 2.0232714463874385E8 ; 3.812064406839166E8 ; 8.482696743295341E9 ; 0.0
51 ; 7963056.115504749 ; 2.0234153144361857E8 ; 3.8916482184342355E8 ; 8.685023887934084E9 ; 0.0
52 ; 7966597.632835027 ; 2.023561537554937E8 ; 3.971278779589283E8 ; 8.887365419377703E9 ; 0.0
53 ; 7967945.635311478 ; 2.0237100548436522E8 ; 4.050944755917633E8 ; 9.089721573133196E9 ; 0.0
54 ; 7970480.688257741 ; 2.0238608061146197E8 ; 4.130624212270748E8 ; 9.292092578617561E9 ; 0.0
55 ; 7974702.613745062 ; 2.0240137319329867E8 ; 4.2103290191533256E8 ; 9.494478659229023E9 ; 0.0
56 ; 7976805.828254848 ; 2.0241687736527112E8 ; 4.290076045290776E8 ; 9.696880032422321E9 ; 0.0
57 ; 7981388.328704062 ; 2.0243258734481528E8 ; 4.369844103573324E8 ; 9.899296909787592E9 ; 0.0
58 ; 7980775.249697318 ; 2.0244849743415368E8 ; 4.4496579868603647E8 ; 1.0101729497132408E10 ; 0.0
59 ; 7984191.65964964 ; 2.0246460202265155E8 ; 4.529465739357338E8 ; 1.0304177994566563E10 ; 0.0
60 ; 7989028.973712095 ; 2.024808955888057E8 ; 4.609307655953834E8 ; 1.0506642596589214E10 ; 0.0
61 ; 7990545.903575751 ; 2.024973727018892E8 ; 4.689197945690955E8 ; 1.070912349217802E10 ; 0.0
62 ; 7990027.990896822 ; 2.025140280232736E8 ; 4.769103404726713E8 ; 1.091162086487991E10 ; 0.0
63 ; 7994646.24647228 ; 2.0253085630745122E8 ; 4.849003684635681E8 ; 1.1114134892903183E10 ; 0.0
64 ; 7998365.053449421 ; 2.0254785240277863E8 ; 4.928950147100404E8 ; 1.1316665749210634E10 ; 0.0
65 ; 7999048.265451421 ; 2.025650112519618E8 ; 5.008933797634898E8 ; 1.1519213601613413E10 ; 0.0
66 ; 7999962.834592311 ; 2.0258232789230344E8 ; 5.088924280289412E8 ; 1.1721778612865376E10 ; 0.0
67 ; 8004813.99389529 ; 2.0259979745573092E8 ; 5.168923908635335E8 ; 1.1924360940757679E10 ; 0.0
68 ; 8005481.908133387 ; 2.0261741516862425E8 ; 5.248972048574288E8 ; 1.212696073821341E10 ; 0.0
69 ; 8008253.707502076 ; 2.026351763514605E8 ; 5.329026867655622E8 ; 1.2329578153382034E10 ; 0.0
70 ; 8010816.155098483 ; 2.026530764182922E8 ; 5.409109404730643E8 ; 1.2532213329733496E10 ; 0.0
71 ; 8011392.717804639 ; 2.02671110876075E8 ; 5.489217566281627E8 ; 1.2734866406151789E10 ; 0.0
72 ; 8014808.066163362 ; 2.0268927532386E8 ; 5.569331493459674E8 ; 1.2937537517027864E10 ; 0.0
73 ; 8014498.626219348 ; 2.0270756545186394E8 ; 5.649479574121308E8 ; 1.3140226792351725E10 ; 0.0
74 ; 8015301.754357098 ; 2.027259770404317E8 ; 5.729624560383502E8 ; 1.3342934357803589E10 ; 0.0
75 ; 8018762.710953192 ; 2.0274450595890227E8 ; 5.809777577927073E8 ; 1.354566033484402E10 ; 0.0
76 ; 8020811.6069515655 ; 2.0276314816439047E8 ; 5.889965205036606E8 ; 1.3748404840802923E10 ; 0.0
77 ; 8019148.948947722 ; 2.027818997004949E8 ; 5.970173321106122E8 ; 1.3951167988967314E10 ; 0.0
78 ; 8018887.170440776 ; 2.0280075669594216E8 ; 6.050364810595598E8 ; 1.4153949888667809E10 ; 0.0
79 ; 8020063.619640941 ; 2.0281971536317673E8 ; 6.130553682300006E8 ; 1.435675064536375E10 ; 0.0
80 ; 8019675.352161115 ; 2.0283877199690476E8 ; 6.210754318496416E8 ; 1.4559570360726927E10 ; 0.0
81 ; 8016766.046534601 ; 2.0285792297260013E8 ; 6.290951072018027E8 ; 1.4762409132723831E10 ; 0.0
82 ; 8016232.13171059 ; 2.0287716474497944E8 ; 6.371118732483374E8 ; 1.4965267055696432E10 ; 0.0
83 ; 8015942.82976912 ; 2.0289649384645337E8 ; 6.45128105380048E8 ; 1.5168144220441412E10 ; 0.0
84 ; 8014768.966002855 ; 2.0291590688555968E8 ; 6.531440482098172E8 ; 1.5371040714287865E10 ; 0.0
85 ; 8010823.439302158 ; 2.0293540054538417E8 ; 6.6115881717582E8 ; 1.5573956621173424E10 ; 0.0
86 ; 8010983.751400653 ; 2.0295497158197394E8 ; 6.691696406151222E8 ; 1.5776892021718807E10 ; 0.0
87 ; 8008891.310230751 ; 2.0297461682274827E8 ; 6.771806243665229E8 ; 1.5979846993300781E10 ; 0.0
88 ; 8008524.822528819 ; 2.0299433316491067E8 ; 6.851895156767536E8 ; 1.618282161012353E10 ; 0.0
89 ; 8005117.13153935 ; 2.0301411757386622E8 ; 6.931980404992825E8 ; 1.638581594328844E10 ; 0.0
90 ; 8003906.838935564 ; 2.0303396708164725E8 ; 7.012031576308218E8 ; 1.6588830060862307E10 ; 0.0
91 ; 8003819.890144879 ; 2.0305387878535074E8 ; 7.092070644697574E8 ; 1.6791864027943954E10 ; 0.0
92 ; 8001287.784249485 ; 2.030738498455898E8 ; 7.172108843599023E8 ; 1.6994917906729305E10 ; 0.0
93 ; 7998081.942807813 ; 2.0309387748496157E8 ; 7.252121721441517E8 ; 1.7197991756574894E10 ; 0.0
94 ; 7996718.484741395 ; 2.0311395898653412E8 ; 7.332102540869595E8 ; 1.7401085634059856E10 ; 0.0
95 ; 7995255.978916951 ; 2.0313409169235328E8 ; 7.412069725717009E8 ; 1.760419959304639E10 ; 0.0
96 ; 7994010.312606235 ; 2.0315427300197208E8 ; 7.492022285506179E8 ; 1.7807333684738743E10 ; 0.0
97 ; 7991214.736427141 ; 2.0317450037100306E8 ; 7.571962388632241E8 ; 1.8010487957740715E10 ; 0.0
98 ; 7989257.857421774 ; 2.0319477130969557E8 ; 7.651874535996513E8 ; 1.8213662458111717E10 ; 0.0
99 ; 7986495.769204668 ; 2.0321508338153842E8 ; 7.731767114570731E8 ; 1.8416857229421413E10 ; 0.0
100 ; 7975932.817582124 ; 2.0323543420188883E8 ; 7.811632072262777E8 ; 1.862007231280295E10 ; 0.0
101 ; 7963396.829836871 ; 2.0325582143662852E8 ; 7.891391400438598E8 ; 1.882330774700484E10 ; 0.0
102 ; 7953274.442135568 ; 2.0327624280084726E8 ; 7.971025368736967E8 ; 1.902656356844147E10 ; 0.0
103 ; 7942508.157976986 ; 2.0329669605755433E8 ; 8.050558113158323E8 ; 1.9229839811242317E10 ; 0.0
104 ; 7930737.636367276 ; 2.0331717901641825E8 ; 8.129983194738092E8 ; 1.9433136507299873E10 ; 0.0
105 ; 7916340.032505098 ; 2.033376895325347E8 ; 8.209290571101766E8 ; 1.963645368631629E10 ; 0.0
106 ; 7902520.7799509885 ; 2.0335822550522313E8 ; 8.288453971426817E8 ; 1.9839791375848827E10 ; 0.0
107 ; 7893059.121588282 ; 2.033787848768515E8 ; 8.367479179226327E8 ; 2.004314960135405E10 ; 0.0
108 ; 7880324.854867533 ; 2.0339936563168976E8 ; 8.446409770442209E8 ; 2.02465283862309E10 ; 0.0
109 ; 7870125.558854346 ; 2.034199657947911E8 ; 8.525213018990885E8 ; 2.044992775186259E10 ; 0.0
110 ; 7855980.555246292 ; 2.0344058343090162E8 ; 8.603914274579428E8 ; 2.0653347717657383E10 ; 0.0
111 ; 7844613.0552368155 ; 2.0346121664339742E8 ; 8.682474080131891E8 ; 2.0856788301088284E10 ; 0.0
112 ; 7830635.6441263035 ; 2.0348186357324943E8 ; 8.760920210684259E8 ; 2.106024951773168E10 ; 0.0
113 ; 7818823.8864729 ; 2.0350252239801505E8 ; 8.839226567125522E8 ; 2.126373138130493E10 ; 0.0
114 ; 7805366.05990038 ; 2.035231913308568E8 ; 8.917414805990251E8 ; 2.1467233903702946E10 ; 0.0
115 ; 7790482.125559165 ; 2.03543868619587E8 ; 8.995468466589255E8 ; 2.1670757095033802E10 ; 0.0
116 ; 7779727.80715444 ; 2.0356455254573867E8 ; 9.073373287844847E8 ; 2.187430096365339E10 ; 0.0
117 ; 7767785.791280437 ; 2.0358524142366144E8 ; 9.151170565916392E8 ; 2.2077865516199127E10 ; 0.0
118 ; 7753550.366480075 ; 2.0360593359964293E8 ; 9.228848423829195E8 ; 2.2281450757622787E10 ; 0.0
119 ; 7742440.130824207 ; 2.0362662745105407E8 ; 9.306383927493997E8 ; 2.248505669122243E10 ; 0.0
120 ; 7726958.516720689 ; 2.0364732138551876E8 ; 9.383808328802239E8 ; 2.2688683318673485E10 ; 0.0
121 ; 7711901.592875862 ; 2.0366801384010687E8 ; 9.461077913969445E8 ; 2.2892330640059002E10 ; 0.0
122 ; 7700841.856169467 ; 2.036887032805501E8 ; 9.538196929898204E8 ; 2.309599865389911E10 ; 0.0
123 ; 7687041.192559381 ; 2.037093882004804E8 ; 9.615205348459898E8 ; 2.329968735717966E10 ; 0.0
124 ; 7673423.220212054 ; 2.0373006712069017E8 ; 9.692075760385492E8 ; 2.3503396745380142E10 ; 0.0
125 ; 7664047.466291149 ; 2.0375073858841395E8 ; 9.768809992587613E8 ; 2.370712681250083E10 ; 0.0
126 ; 7647571.40368142 ; 2.0377140117663088E8 ; 9.845450467250525E8 ; 2.3910877551089245E10 ; 0.0
127 ; 7631638.08483579 ; 2.037920534833874E8 ; 9.921926181287339E8 ; 2.4114648952265877E10 ; 0.0
128 ; 7619640.3855375 ; 2.0381269413114005E8 ; 9.998242562135696E8 ; 2.4318441005749264E10 ; 0.0
129 ; 7609271.971436053 ; 2.0383332176611724E8 ; 1.0074438965991071E9 ; 2.4522253699880405E10 ; 0.0
130 ; 7592493.263699013 ; 2.0385393505770007E8 ; 1.0150531685705432E9 ; 2.4726087021646523E10 ; 0.0
131 ; 7577645.06438973 ; 2.0387453269782117E8 ; 1.0226456618342422E9 ; 2.4929940956704224E10 ; 0.0
132 ; 7561094.327392135 ; 2.0389511340038168E8 ; 1.0302233068986319E9 ; 2.5133815489402046E10 ; 0.0
133 ; 7543347.479409987 ; 2.039156759006852E8 ; 1.037784401226024E9 ; 2.533771060280243E10 ; 0.0
134 ; 7529610.3446506085 ; 2.0393621895488867E8 ; 1.045327748705434E9 ; 2.5541626278703114E10 ; 0.0
135 ; 7513466.948836155 ; 2.0395674133946982E8 ; 1.0528573590500846E9 ; 2.5745562497658E10 ; 0.0
136 ; 7495616.491896193 ; 2.0397724185071018E8 ; 1.0603708259989208E9 ; 2.594951923899747E10 ; 0.0
137 ; 7477952.56591483 ; 2.0399771930419374E8 ; 1.067866442490817E9 ; 2.6153496480848183E10 ; 0.0
138 ; 7462000.189691624 ; 2.0401817253432047E8 ; 1.0753443950567317E9 ; 2.6357494200152378E10 ; 0.0
139 ; 7442980.083914713 ; 2.040386003938346E8 ; 1.0828063952464232E9 ; 2.65615123726867E10 ; 0.0
140 ; 7429379.717058262 ; 2.0405900175336674E8 ; 1.090249375330338E9 ; 2.6765550973080532E10 ; 0.0
141 ; 7413595.828197331 ; 2.040793755009901E8 ; 1.0976787550473962E9 ; 2.69696099748339E10 ; 0.0
142 ; 7393294.627950941 ; 2.0409972054178956E8 ; 1.1050923508755934E9 ; 2.7173689350334892E10 ; 0.0
143 ; 7377401.724625397 ; 2.041200357974441E8 ; 1.1124856455035443E9 ; 2.7377789070876682E10 ; 0.0
144 ; 7360488.122805289 ; 2.041403202058216E8 ; 1.1198630472281697E9 ; 2.7581909106674126E10 ; 0.0
145 ; 7347369.556792028 ; 2.0416057272058555E8 ; 1.127223535350975E9 ; 2.7786049426879948E10 ; 0.0
146 ; 7332733.588923743 ; 2.0418079231081405E8 ; 1.134570904907767E9 ; 2.7990209999600533E10 ; 0.0
147 ; 7319612.176163524 ; 2.0420097796062982E8 ; 1.1419036384966908E9 ; 2.8194390791911346E10 ; 0.0
148 ; 7304147.1159959575 ; 2.0422112866884148E8 ; 1.1492232506728542E9 ; 2.8398591769871975E10 ; 0.0
149 ; 7292213.579954101 ; 2.042412434485956E8 ; 1.15652739778885E9 ; 2.8602812898540817E10 ; 0.0
150 ; 7279086.442012625 ; 2.042613213270392E8 ; 1.1638196113688042E9 ; 2.8807054141989414E10 ; 0.0
151 ; 7264339.810688173 ; 2.0428136134499216E8 ; 1.1710986978108168E9 ; 2.9011315463316452E10 ; 0.0
152 ; 7247625.591306454 ; 2.043013625566297E8 ; 1.178363037621505E9 ; 2.9215596824661446E10 ; 0.0
153 ; 7234679.317697429 ; 2.0432132402917412E8 ; 1.1856106632128115E9 ; 2.9419898187218075E10 ; 0.0
154 ; 7218747.297735689 ; 2.04341244842596E8 ; 1.192845342530509E9 ; 2.962421951124725E10 ; 0.0
155 ; 7205025.738720622 ; 2.0436112408932412E8 ; 1.2000640898282447E9 ; 2.9828560756089844E10 ; 0.0
156 ; 7192682.889739225 ; 2.0438096087396407E8 ; 1.2072691155669653E9 ; 3.003292188017917E10 ; 0.0
157 ; 7174310.865512593 ; 2.0440075431302527E8 ; 1.2144617984567046E9 ; 3.023730284105313E10 ; 0.0
158 ; 7161213.54637291 ; 2.0442050353465617E8 ; 1.2216361093222172E9 ; 3.0441703595366158E10 ; 0.0
159 ; 7148699.563751557 ; 2.0444020767838728E8 ; 1.22879732286859E9 ; 3.0646124098900814E10 ; 0.0
160 ; 7133641.15559791 ; 2.044598658948817E8 ; 1.2359460224323416E9 ; 3.08505643065792E10 ; 0.0
161 ; 7116408.984472147 ; 2.044794773456933E8 ; 1.2430796635879395E9 ; 3.1055024172474083E10 ; 0.0
162 ; 7104496.189025957 ; 2.0449904120303193E8 ; 1.2501960725724115E9 ; 3.1259503649819775E10 ; 0.0
163 ; 7088274.3984856615 ; 2.0451855664953542E8 ; 1.2573005687614374E9 ; 3.1464002691022808E10 ; 0.0
164 ; 7073373.3324499335 ; 2.0453802287804872E8 ; 1.264388843159923E9 ; 3.1668521247672344E10 ; 0.0
165 ; 7058897.961397741 ; 2.045574390914091E8 ; 1.271462216492373E9 ; 3.1873059270550392E10 ; 0.0
166 ; 7047713.860145161 ; 2.0457680450223795E8 ; 1.2785211144537706E9 ; 3.20776167096418E10 ; 0.0
167 ; 7033719.684880615 ; 2.045961183327387E8 ; 1.2855688283139157E9 ; 3.228219351414404E10 ; 0.0
168 ; 7017069.196697534 ; 2.046153798145005E8 ; 1.2926025479987965E9 ; 3.2486789632476776E10 ; 0.0
169 ; 7002419.39928536 ; 2.0463458818830797E8 ; 1.299619617195494E9 ; 3.2691405012291275E10 ; 0.0
170 ; 6989726.548302388 ; 2.0465374270395607E8 ; 1.3066220365947793E9 ; 3.2896039600479584E10 ; 0.0
171 ; 6974244.5619115075 ; 2.0467284262007076E8 ; 1.3136117631430817E9 ; 3.310069334318354E10 ; 0.0
172 ; 6960164.195895026 ; 2.0469188720393485E8 ; 1.3205860077049932E9 ; 3.330536618580361E10 ; 0.0
173 ; 6945652.961134094 ; 2.047E8 ; 1.3275461719008882E9 ; 3.3510058073007545E10 ; 0.0
174 ; 6933808.240215333 ; 2.047E8 ; 1.3344918248620224E9 ; 3.3714758073007545E10 ; 0.0
175 ; 6919230.026727319 ; 2.047E8 ; 1.3414256331022377E9 ; 3.3919458073007545E10 ; 0.0
176 ; 6904789.680519211 ; 2.047E8 ; 1.348344863128965E9 ; 3.4124158073007545E10 ; 0.0
177 ; 6895493.604615075 ; 2.047E8 ; 1.355249652809484E9 ; 3.4328858073007545E10 ; 0.0
178 ; 6878647.632767786 ; 2.047E8 ; 1.362145146414099E9 ; 3.4533558073007545E10 ; 0.0
179 ; 6868999.151092853 ; 2.047E8 ; 1.3690237940468667E9 ; 3.4738258073007545E10 ; 0.0
180 ; 6855244.917005971 ; 2.047E8 ; 1.3758927931979594E9 ; 3.4942958073007545E10 ; 0.0
181 ; 6842066.980490251 ; 2.047E8 ; 1.3827480381149654E9 ; 3.5147658073007545E10 ; 0.0
182 ; 6832209.860647699 ; 2.047E8 ; 1.3895901050954556E9 ; 3.5352358073007545E10 ; 0.0
183 ; 6821353.025287178 ; 2.047E8 ; 1.3964223149561033E9 ; 3.5557058073007545E10 ; 0.0
184 ; 6806428.223896488 ; 2.047E8 ; 1.4032436679813905E9 ; 3.5761758073007545E10 ; 0.0
185 ; 6793854.368537292 ; 2.047E8 ; 1.410050096205287E9 ; 3.5966458073007545E10 ; 0.0
186 ; 6782365.293819451 ; 2.047E8 ; 1.4168439505738242E9 ; 3.6171158073007545E10 ; 0.0
187 ; 6768144.039550942 ; 2.047E8 ; 1.4236263158676436E9 ; 3.6375858073007545E10 ; 0.0
188 ; 6755434.785071623 ; 2.047E8 ; 1.4303944599071946E9 ; 3.6580558073007545E10 ; 0.0
189 ; 6743303.615242358 ; 2.047E8 ; 1.4371498946922662E9 ; 3.6785258073007545E10 ; 0.0
190 ; 6728328.460164093 ; 2.047E8 ; 1.4438931983075085E9 ; 3.6989958073007545E10 ; 0.0
191 ; 6717163.606977015 ; 2.047E8 ; 1.4506215267676725E9 ; 3.7194658073007545E10 ; 0.0
192 ; 6705048.231951192 ; 2.047E8 ; 1.4573386903746495E9 ; 3.7399358073007545E10 ; 0.0
193 ; 6693628.952960927 ; 2.047E8 ; 1.4640437386066008E9 ; 3.7604058073007545E10 ; 0.0
194 ; 6680923.729049197 ; 2.047E8 ; 1.4707373675595617E9 ; 3.7808758073007545E10 ; 0.0
195 ; 6663998.218412356 ; 2.047E8 ; 1.477418291288611E9 ; 3.8013458073007545E10 ; 0.0
196 ; 6655502.157189136 ; 2.047E8 ; 1.4840822895070233E9 ; 3.8218158073007545E10 ; 0.0
197 ; 6640098.856332891 ; 2.047E8 ; 1.4907377916642125E9 ; 3.8422858073007545E10 ; 0.0
198 ; 6629213.573511716 ; 2.047E8 ; 1.4973778905205452E9 ; 3.8627558073007545E10 ; 0.0
199 ; 6614009.138348957 ; 1.7309900504283032E8 ; 1.5040071040940568E9 ; 3.8832258073007545E10 ; 0.0
200 ; 6604557.673730404 ; 1.5620807492166224E8 ; 1.510621113232406E9 ; 3.900535707805038E10 ; 0.0
201 ; 6592206.649172784 ; 1.5586000678114402E8 ; 1.5172256709061363E9 ; 3.916156515297204E10 ; 0.0
202 ; 6578251.6649653725 ; 1.555127382774142E8 ; 1.523817877555309E9 ; 3.931742515975318E10 ; 0.0
203 ; 6566148.592878841 ; 1.5516626757342157E8 ; 1.5303961292202744E9 ; 3.9472937898030594E10 ; 0.0
204 ; 6552293.036969248 ; 1.548205928363353E8 ; 1.5369622778131533E9 ; 3.962810416560402E10 ; 0.0
