CSV File for the City 1 on Day 319
1 - Minute m 
2 - Power Consumed at minute m 
3 - Power Produced at minute m 
4 - Energy Consumed since the beginning of the day 
5 - Energy Produced since the beginning of the day 
6 - Energy Lost since the beginning of the day on lines starting from the city
 
0 ; 1.6195662827376548E7 ; 1.057816582335923E8 ; 0.0 ; 0.0 ; 0.0
1 ; 1.6213265358066836E7 ; 1.0593452040175354E8 ; 1.6195662827376548E7 ; 1.057816582335923E8 ; 0.0
2 ; 1.6229736266631505E7 ; 1.0639617488473704E8 ; 3.2408928185443386E7 ; 2.1171617863534585E8 ; 0.0
3 ; 1.6257081068851598E7 ; 1.0716662273990679E8 ; 4.863866445207489E7 ; 3.181123535200829E8 ; 0.0
4 ; 1.6275720417028796E7 ; 1.0824586490959918E8 ; 6.489574552092649E7 ; 4.252789762599897E8 ; 0.0
5 ; 1.6308193458197393E7 ; 1.0963390221770614E8 ; 8.117146593795529E7 ; 5.3352484116958886E8 ; 0.0
6 ; 1.6348805209102072E7 ; 1.1133073536664984E8 ; 9.747965939615268E7 ; 6.43158743387295E8 ; 0.0
7 ; 1.6396997663920885E7 ; 1.1333636493477738E8 ; 1.1382846460525474E8 ; 7.544894787539449E8 ; 0.0
8 ; 1.6481451365651581E7 ; 1.1565079137419611E8 ; 1.3022546226917562E8 ; 8.678258436887223E8 ; 0.0
9 ; 1.6600640271504821E7 ; 1.1827401500907028E8 ; 1.467069136348272E8 ; 9.834766350629184E8 ; 0.0
10 ; 1.6780607701363802E7 ; 1.2120603603439254E8 ; 1.6330755390633202E8 ; 1.1017506500719886E9 ; 0.0
11 ; 1.7067394690306544E7 ; 1.2444685451524314E8 ; 1.8008816160769582E8 ; 1.2229566861063812E9 ; 0.0
12 ; 1.7531273656859703E7 ; 1.2799647038654181E8 ; 1.9715555629800236E8 ; 1.3474035406216242E9 ; 0.0
13 ; 1.798406297349227E7 ; 1.3185488345329589E8 ; 2.1468682995486206E8 ; 1.475400011008166E9 ; 0.0
14 ; 1.8034114540086236E7 ; 1.360220933913412E8 ; 2.3267089292835432E8 ; 1.607254894461462E9 ; 0.0
15 ; 1.805384932310145E7 ; 1.4049809974857032E8 ; 2.5070500746844056E8 ; 1.7432769878528032E9 ; 0.0
16 ; 1.8075559285447124E7 ; 1.4528290194663623E8 ; 2.68758856791542E8 ; 1.8837750876013737E9 ; 0.0
17 ; 1.8096650167999897E7 ; 1.5037649928311667E8 ; 2.868344160769891E8 ; 2.0290579895480099E9 ; 0.0
18 ; 1.812102886416908E7 ; 1.5577889093411976E8 ; 3.0493106624498904E8 ; 2.1794344888311267E9 ; 0.0
19 ; 1.814386094979756E7 ; 1.614900759573091E8 ; 3.230520951091581E8 ; 2.3352133797652464E9 ; 0.0
20 ; 1.8166173502628498E7 ; 1.6751005329532066E8 ; 3.4119595605895567E8 ; 2.4967034557225556E9 ; 0.0
21 ; 1.819006388759548E7 ; 1.7383882177954492E8 ; 3.593621295615842E8 ; 2.664213509017876E9 ; 0.0
22 ; 1.82044089330561E7 ; 1.8047638013424104E8 ; 3.7755219344917965E8 ; 2.838052330797421E9 ; 0.0
23 ; 1.8235015259338334E7 ; 1.874227269809509E8 ; 3.9575660238223577E8 ; 3.018528710931662E9 ; 0.0
24 ; 1.8257930789795782E7 ; 1.946778608431778E8 ; 4.139916176415741E8 ; 3.205951437912613E9 ; 0.0
25 ; 1.8276338063171033E7 ; 2.0092982104947844E8 ; 4.3224954843136984E8 ; 3.4006292987557907E9 ; 0.0
26 ; 1.8296899886474386E7 ; 2.0093215377545857E8 ; 4.5052588649454087E8 ; 3.6015591198052692E9 ; 0.0
27 ; 1.8317594204416163E7 ; 2.009346265739336E8 ; 4.6882278638101524E8 ; 3.8024912735807276E9 ; 0.0
28 ; 1.8342630831504613E7 ; 2.0093723762707737E8 ; 4.871403805854314E8 ; 4.003425900154661E9 ; 0.0
29 ; 1.8359919822215006E7 ; 2.0093998504512858E8 ; 5.0548301141693604E8 ; 4.2043631377817388E9 ; 0.0
30 ; 1.838301607882964E7 ; 2.0094286687190193E8 ; 5.2384293123915106E8 ; 4.405303122826867E9 ; 0.0
31 ; 1.840275628144811E7 ; 2.0094588109031603E8 ; 5.422259473179806E8 ; 4.606245989698769E9 ; 0.0
32 ; 1.8423110688808974E7 ; 2.0094902562790686E8 ; 5.606287035994288E8 ; 4.807191870789084E9 ; 0.0
33 ; 1.8445392845252432E7 ; 2.0095229836229715E8 ; 5.790518142882377E8 ; 5.008140896416991E9 ; 0.0
34 ; 1.8459683381718807E7 ; 2.0095569712659425E8 ; 5.974972071334901E8 ; 5.209093194779288E9 ; 0.0
35 ; 1.8484144721563958E7 ; 2.009592197146915E8 ; 6.159568905152088E8 ; 5.410048891905883E9 ; 0.0
36 ; 1.85023848584688E7 ; 2.0096286388644996E8 ; 6.344410352367728E8 ; 5.611008111620574E9 ; 0.0
37 ; 1.8520304239040703E7 ; 2.009666273727406E8 ; 6.529434200952415E8 ; 5.811970975507024E9 ; 0.0
38 ; 1.8535075574828472E7 ; 2.009705078803287E8 ; 6.714637243342823E8 ; 6.012937602879765E9 ; 0.0
39 ; 1.855082737028387E7 ; 2.0097450309658492E8 ; 6.899987999091108E8 ; 6.213908110760094E9 ; 0.0
40 ; 1.856825882051853E7 ; 2.009786106940103E8 ; 7.085496272793946E8 ; 6.414882613856679E9 ; 0.0
41 ; 1.8582236788903076E7 ; 2.0098282833456406E8 ; 7.271178860999131E8 ; 6.61586122455069E9 ; 0.0
42 ; 1.8593414930146635E7 ; 2.009871536737861E8 ; 7.457001228888162E8 ; 6.816844052885254E9 ; 0.0
43 ; 1.860850753666368E7 ; 2.009915843647073E8 ; 7.642935378189628E8 ; 7.01783120655904E9 ; 0.0
44 ; 1.8621180057801068E7 ; 2.0099611806154355E8 ; 7.829020453556265E8 ; 7.218822790923747E9 ; 0.0
45 ; 1.8635792209575597E7 ; 2.0100075242317116E8 ; 8.015232254134276E8 ; 7.419818908985291E9 ; 0.0
46 ; 1.8642504187715024E7 ; 2.0100548511638236E8 ; 8.201590176230032E8 ; 7.620819661408462E9 ; 0.0
47 ; 1.8653733157647625E7 ; 2.0101031381892183E8 ; 8.388015218107183E8 ; 7.821825146524844E9 ; 0.0
48 ; 1.866584089249851E7 ; 2.010152362223065E8 ; 8.574552549683659E8 ; 8.022835460343766E9 ; 0.0
49 ; 1.8672827468643595E7 ; 2.0102025003443184E8 ; 8.761210958608644E8 ; 8.223850696566072E9 ; 0.0
50 ; 1.867640796540529E7 ; 2.0102535298196924E8 ; 8.94793923329508E8 ; 8.424870946600504E9 ; 0.0
51 ; 1.8687958886614554E7 ; 2.0103054281255955E8 ; 9.134703312949133E8 ; 8.625896299582474E9 ; 0.0
52 ; 1.8695200518404976E7 ; 2.0103581729680938E8 ; 9.321582901815279E8 ; 8.826926842395033E9 ; 0.0
53 ; 1.8704160934105355E7 ; 2.0104117423009685E8 ; 9.508534906999328E8 ; 9.027962659691843E9 ; 0.0
54 ; 1.8706137705185585E7 ; 2.0104661143419406E8 ; 9.695576516340382E8 ; 9.22900383392194E9 ; 0.0
55 ; 1.8714098492555697E7 ; 2.0105212675871432E8 ; 9.882637893392237E8 ; 9.430050445356134E9 ; 0.0
56 ; 1.8721109213785544E7 ; 2.010577180823922E8 ; 1.0069778878317795E9 ; 9.63110257211485E9 ; 0.0
57 ; 1.87254107198803E7 ; 2.0106338331420448E8 ; 1.025698997045565E9 ; 9.83216029019724E9 ; 0.0
58 ; 1.873152787013732E7 ; 2.0106912039434126E8 ; 1.0444244077654454E9 ; 1.0033223673511446E10 ; 0.0
59 ; 1.8740037505069606E7 ; 2.0107492729503435E8 ; 1.0631559356355827E9 ; 1.0234292793905787E10 ; 0.0
60 ; 1.8747940019572303E7 ; 2.0108080202125323E8 ; 1.0818959731406522E9 ; 1.043536772120082E10 ; 0.0
61 ; 1.874464928878934E7 ; 2.0108674261127517E8 ; 1.1006439131602244E9 ; 1.0636448523222075E10 ; 0.0
62 ; 1.8760219160046566E7 ; 2.0109274713713935E8 ; 1.1193885624490137E9 ; 1.083753526583335E10 ; 0.0
63 ; 1.8762116457477886E7 ; 2.010988137049919E8 ; 1.1381487816090603E9 ; 1.103862801297049E10 ; 0.0
64 ; 1.8768228133586526E7 ; 2.0110494045533034E8 ; 1.156910898066538E9 ; 1.1239726826675482E10 ; 0.0
65 ; 1.87709776581725E7 ; 2.0111112556315494E8 ; 1.1756791262001247E9 ; 1.1440831767130812E10 ; 0.0
66 ; 1.8772493894919526E7 ; 2.011173672380342E8 ; 1.1944501038582973E9 ; 1.1641942892693966E10 ; 0.0
67 ; 1.878046437158539E7 ; 2.011236637240915E8 ; 1.213222597753217E9 ; 1.1843060259932E10 ; 0.0
68 ; 1.8786572294357873E7 ; 2.0113001329992002E8 ; 1.2320030621248024E9 ; 1.204418392365609E10 ; 0.0
69 ; 1.8785801152809232E7 ; 2.0113641427843156E8 ; 1.2507896344191601E9 ; 1.2245313936956009E10 ; 0.0
70 ; 1.879465733546102E7 ; 2.0114286500664636E8 ; 1.2695754355719693E9 ; 1.244645035123444E10 ; 0.0
71 ; 1.8797718372697074E7 ; 2.0114936386542866E8 ; 1.2883700929074302E9 ; 1.2647593216241087E10 ; 0.0
72 ; 1.8799908948251113E7 ; 2.0115590926917434E8 ; 1.3071678112801273E9 ; 1.2848742580106516E10 ; 0.0
73 ; 1.8807549423801273E7 ; 2.0116249966545504E8 ; 1.3259677202283783E9 ; 1.304989848937569E10 ; 0.0
74 ; 1.8811902525933255E7 ; 2.0116913353462416E8 ; 1.3447752696521795E9 ; 1.3251060989041145E10 ; 0.0
75 ; 1.8815998866371255E7 ; 2.0117580938938847E8 ; 1.3635871721781127E9 ; 1.345223012257577E10 ; 0.0
76 ; 1.881631788997873E7 ; 2.0118252577435046E8 ; 1.382403171044484E9 ; 1.3653405931965158E10 ; 0.0
77 ; 1.8821745129619956E7 ; 2.0118928126552454E8 ; 1.4012194889344625E9 ; 1.385458845773951E10 ; 0.0
78 ; 1.8815169794529498E7 ; 2.0119607446983102E8 ; 1.4200412340640826E9 ; 1.4055777739005033E10 ; 0.0
79 ; 1.8810785395508282E7 ; 2.0120290402457124E8 ; 1.438856403858612E9 ; 1.4256973813474865E10 ; 0.0
80 ; 1.8809439782914594E7 ; 2.012097685968869E8 ; 1.4576671892541203E9 ; 1.4458176717499435E10 ; 0.0
81 ; 1.8809548172065068E7 ; 2.0121666688320637E8 ; 1.476476629037035E9 ; 1.4659386486096323E10 ; 0.0
82 ; 1.8807028004335497E7 ; 2.0122359760868058E8 ; 1.4952861772091E9 ; 1.486060315297953E10 ; 0.0
83 ; 1.880518431992219E7 ; 2.012305595266111E8 ; 1.5140932052134354E9 ; 1.5061826750588211E10 ; 0.0
84 ; 1.880202037230505E7 ; 2.012375514178723E8 ; 1.5328983895333576E9 ; 1.5263057310114822E10 ; 0.0
85 ; 1.8795596982374568E7 ; 2.0124457209032983E8 ; 1.5517004099056628E9 ; 1.5464294861532694E10 ; 0.0
86 ; 1.87920237540924E7 ; 2.012516203782569E8 ; 1.5704960068880374E9 ; 1.5665539433623024E10 ; 0.0
87 ; 1.8791398893967304E7 ; 2.0125869514175037E8 ; 1.58928803064213E9 ; 1.5866791054001282E10 ; 0.0
88 ; 1.8786278273321625E7 ; 2.0126579526614812E8 ; 1.6080794295360973E9 ; 1.6068049749143032E10 ; 0.0
89 ; 1.878042186199022E7 ; 2.0127291966144857E8 ; 1.626865707809419E9 ; 1.626931554440918E10 ; 0.0
90 ; 1.8780776002042316E7 ; 2.0128006726173392E8 ; 1.6456461296714091E9 ; 1.647058846407063E10 ; 0.0
91 ; 1.876934915425813E7 ; 2.0128723702459824E8 ; 1.6644269056734514E9 ; 1.6671868531332363E10 ; 0.0
92 ; 1.877075692804091E7 ; 2.01294427930581E8 ; 1.6831962548277094E9 ; 1.6873155768356962E10 ; 0.0
93 ; 1.8765691798980273E7 ; 2.0130163898260736E8 ; 1.7019670117557504E9 ; 1.7074450196287542E10 ; 0.0
94 ; 1.8759538001812857E7 ; 2.0130886920543528E8 ; 1.7207327035547307E9 ; 1.727575183527015E10 ; 0.0
95 ; 1.8755204272076607E7 ; 2.013161176451108E8 ; 1.7394922415565436E9 ; 1.7477060704475586E10 ; 0.0
96 ; 1.87507847116803E7 ; 2.013233833684315E8 ; 1.7582474458286202E9 ; 1.7678376822120697E10 ; 0.0
97 ; 1.874291750404173E7 ; 2.0133066546241903E8 ; 1.7769982305403006E9 ; 1.787970020548913E10 ; 0.0
98 ; 1.8738608023754887E7 ; 2.013379630338006E8 ; 1.7957411480443423E9 ; 1.8081030870951546E10 ; 0.0
99 ; 1.8730752678155348E7 ; 2.0134527520850033E8 ; 1.814479756068097E9 ; 1.8282368833985348E10 ; 0.0
100 ; 1.8729149193936214E7 ; 2.0135260113114038E8 ; 1.8332105087462525E9 ; 1.8483714109193848E10 ; 0.0
101 ; 1.8719607633367505E7 ; 2.0135993996455202E8 ; 1.8519396579401886E9 ; 1.868506671032499E10 ; 0.0
102 ; 1.871790507189111E7 ; 2.0136729088929725E8 ; 1.8706592655735562E9 ; 1.8886426650289543E10 ; 0.0
103 ; 1.870559831935459E7 ; 2.0137465310320047E8 ; 1.8893771706454473E9 ; 1.908779394117884E10 ; 0.0
104 ; 1.8701817251512293E7 ; 2.013820258208907E8 ; 1.9080827689648018E9 ; 1.928916859428204E10 ; 0.0
105 ; 1.8696138306579232E7 ; 2.0138940827335453E8 ; 1.926784586216314E9 ; 1.9490550620102932E10 ; 0.0
106 ; 1.8687961122692052E7 ; 2.013967997074992E8 ; 1.9454807245228934E9 ; 1.9691940028376286E10 ; 0.0
107 ; 1.868325773107018E7 ; 2.014041993857265E8 ; 1.9641686856455855E9 ; 1.9893336828083786E10 ; 0.0
108 ; 1.8673856363318536E7 ; 2.0141160658551687E8 ; 1.9828519433766558E9 ; 2.0094741027469513E10 ; 0.0
109 ; 1.866561777687363E7 ; 2.014190205990241E8 ; 2.0015257997399743E9 ; 2.029615263405503E10 ; 0.0
110 ; 1.866091917854017E7 ; 2.014264407326801E8 ; 2.0201914175168478E9 ; 2.0497571654654057E10 ; 0.0
111 ; 1.865471718816073E7 ; 2.014338663068102E8 ; 2.038852336695388E9 ; 2.0698998095386738E10 ; 0.0
112 ; 1.8647343129569683E7 ; 2.0144129665525806E8 ; 2.0575070538835487E9 ; 2.0900431961693546E10 ; 0.0
113 ; 1.863887677692307E7 ; 2.0144873112502092E8 ; 2.0761543970131185E9 ; 2.1101873258348804E10 ; 0.0
114 ; 1.8627484347064544E7 ; 2.014561690758945E8 ; 2.0947932737900417E9 ; 2.1303321989473824E10 ; 0.0
115 ; 1.862421218956832E7 ; 2.0146360988012746E8 ; 2.1134207581371062E9 ; 2.1504778158549717E10 ; 0.0
116 ; 1.861332243291592E7 ; 2.014710529220854E8 ; 2.1320449703266745E9 ; 2.1706241768429844E10 ; 0.0
117 ; 1.8604922625744097E7 ; 2.014784975979241E8 ; 2.15065829275959E9 ; 2.190771282135193E10 ; 0.0
118 ; 1.859590923119332E7 ; 2.0148594331527203E8 ; 2.169263215385334E9 ; 2.2109191318949852E10 ; 0.0
119 ; 1.8587686924886532E7 ; 2.014933894929216E8 ; 2.1878591246165276E9 ; 2.2310677262265125E10 ; 0.0
120 ; 1.8575778683978844E7 ; 2.015008355605291E8 ; 2.2064468115414143E9 ; 2.2512170651758045E10 ; 0.0
121 ; 1.8567838661392294E7 ; 2.0150828095832366E8 ; 2.2250225902253933E9 ; 2.2713671487318573E10 ; 0.0
122 ; 1.8558763147359416E7 ; 2.0151572513682383E8 ; 2.2435904288867855E9 ; 2.2915179768276897E10 ; 0.0
123 ; 1.855223917466918E7 ; 2.01523167556563E8 ; 2.262149192034145E9 ; 2.3116695493413723E10 ; 0.0
124 ; 1.854267028347312E7 ; 2.015306076878223E8 ; 2.280701431208814E9 ; 2.3318218660970287E10 ; 0.0
125 ; 1.8529420939436737E7 ; 2.0153804501037177E8 ; 2.299244101492287E9 ; 2.3519749268658108E10 ; 0.0
126 ; 1.851862907724214E7 ; 2.0154547901321843E8 ; 2.317773522431724E9 ; 2.372128731366848E10 ; 0.0
127 ; 1.8513628303033065E7 ; 2.0155290919436252E8 ; 2.3362921515089664E9 ; 2.3922832792681698E10 ; 0.0
128 ; 1.8503444766858324E7 ; 2.015603350605603E8 ; 2.3548057798119993E9 ; 2.412438570187606E10 ; 0.0
129 ; 1.849080942559165E7 ; 2.0156775612709412E8 ; 2.3733092245788574E9 ; 2.4325946036936623E10 ; 0.0
130 ; 1.847613580128221E7 ; 2.015751719175495E8 ; 2.391800034004449E9 ; 2.4527513793063717E10 ; 0.0
131 ; 1.8464208616179753E7 ; 2.0158258196359837E8 ; 2.4102761698057313E9 ; 2.4729088964981266E10 ; 0.0
132 ; 1.8447337102497656E7 ; 2.0158998580478925E8 ; 2.4287403784219112E9 ; 2.4930671546944866E10 ; 0.0
133 ; 1.8432000102683358E7 ; 2.015973829883433E8 ; 2.447187715524409E9 ; 2.5132261532749657E10 ; 0.0
134 ; 1.8409354364136633E7 ; 2.0160477306895685E8 ; 2.4656197156270924E9 ; 2.5333858915738E10 ; 0.0
135 ; 1.839547938149164E7 ; 2.0161215560860947E8 ; 2.484029069991229E9 ; 2.5535463688806957E10 ; 0.0
136 ; 1.8380342259817466E7 ; 2.0161953017637813E8 ; 2.5024245493727207E9 ; 2.5737075844415565E10 ; 0.0
137 ; 1.8361533512546994E7 ; 2.0162689634825668E8 ; 2.5208048916325383E9 ; 2.593869537459194E10 ; 0.0
138 ; 1.83441778756642E7 ; 2.0163425370698103E8 ; 2.5391664251450853E9 ; 2.6140322270940197E10 ; 0.0
139 ; 1.8313046652984582E7 ; 2.0164160184185925E8 ; 2.5575106030207496E9 ; 2.634195652464718E10 ; 0.0
140 ; 1.827417945826891E7 ; 2.0164894034860712E8 ; 2.575823649673734E9 ; 2.6543598126489037E10 ; 0.0
141 ; 1.823139878030024E7 ; 2.0165626882918853E8 ; 2.5940978291320033E9 ; 2.6745247066837643E10 ; 0.0
142 ; 1.8189491745540023E7 ; 2.016635868916605E8 ; 2.6123292279123034E9 ; 2.6946903335666832E10 ; 0.0
143 ; 1.814787909518581E7 ; 2.016708941500232E8 ; 2.6305187196578436E9 ; 2.714856692255849E10 ; 0.0
144 ; 1.810884382564163E7 ; 2.0167819022407418E8 ; 2.6486665987530293E9 ; 2.7350237816708515E10 ; 0.0
145 ; 1.807499566603693E7 ; 2.0168547473926732E8 ; 2.666775442578671E9 ; 2.755191600693259E10 ; 0.0
146 ; 1.8035374550115198E7 ; 2.016927473265757E8 ; 2.684850438244708E9 ; 2.7753601481671856E10 ; 0.0
147 ; 1.8000321631270792E7 ; 2.0170000762235886E8 ; 2.702885812794823E9 ; 2.7955294228998432E10 ; 0.0
148 ; 1.797176325632732E7 ; 2.0170725526823387E8 ; 2.720886134426094E9 ; 2.8156994236620792E10 ; 0.0
149 ; 1.79362540519459E7 ; 2.0171448991095054E8 ; 2.738857897682421E9 ; 2.8358701491889027E10 ; 0.0
150 ; 1.7901779760383938E7 ; 2.0172171120227003E8 ; 2.756794151734367E9 ; 2.8560415981799976E10 ; 0.0
151 ; 1.78657858372493E7 ; 2.0172891879884744E8 ; 2.774695931494751E9 ; 2.8762137693002247E10 ; 0.0
152 ; 1.782890088517485E7 ; 2.0173611236211774E8 ; 2.7925617173320003E9 ; 2.8963866611801094E10 ; 0.0
153 ; 1.779572722879074E7 ; 2.0174329155818522E8 ; 2.810390618217175E9 ; 2.916560272416321E10 ; 0.0
154 ; 1.7758830057181016E7 ; 2.017504560577162E8 ; 2.828186345445966E9 ; 2.9367346015721397E10 ; 0.0
155 ; 1.7724005687993027E7 ; 2.0175760553583494E8 ; 2.8459451755031466E9 ; 2.9569096471779114E10 ; 0.0
156 ; 1.768981828962616E7 ; 2.0176473967202276E8 ; 2.8636691811911397E9 ; 2.977085407731495E10 ; 0.0
157 ; 1.764957088239133E7 ; 2.0177185815002012E8 ; 2.881358999480766E9 ; 2.9972618816986973E10 ; 0.0
158 ; 1.7619055800030738E7 ; 2.0177896065773162E8 ; 2.8990085703631573E9 ; 3.0174390675136993E10 ; 0.0
159 ; 1.75810754299563E7 ; 2.017860468871338E8 ; 2.916627626163188E9 ; 3.0376169635794724E10 ; 0.0
160 ; 1.7541356600099735E7 ; 2.0179311653418586E8 ; 2.9342087015931444E9 ; 3.0577955682681858E10 ; 0.0
161 ; 1.7512375470203582E7 ; 2.0180016929874268E8 ; 2.951750058193244E9 ; 3.0779748799216045E10 ; 0.0
162 ; 1.7473605892021514E7 ; 2.01807204884471E8 ; 2.9692624336634474E9 ; 3.098154896851479E10 ; 0.0
163 ; 1.743970555101819E7 ; 2.018142229987674E8 ; 2.986736039555469E9 ; 3.118335617339926E10 ; 0.0
164 ; 1.7405563031283677E7 ; 2.0182122335267934E8 ; 3.0041757451064873E9 ; 3.138517039639803E10 ; 0.0
165 ; 1.736585792497197E7 ; 2.0182820566082802E8 ; 3.021581308137771E9 ; 3.158699161975071E10 ; 0.0
166 ; 1.7334803846849523E7 ; 2.0183516964133397E8 ; 3.038947166062743E9 ; 3.1788819825411537E10 ; 0.0
167 ; 1.7297268178425297E7 ; 2.0184211501574448E8 ; 3.0562819699095926E9 ; 3.199065499505287E10 ; 0.0
168 ; 1.7261306915789943E7 ; 2.018490415089634E8 ; 3.073579238088018E9 ; 3.2192497110068615E10 ; 0.0
169 ; 1.7226308244155016E7 ; 2.0185594884918287E8 ; 3.090840545003808E9 ; 3.239434615157758E10 ; 0.0
170 ; 1.7188943819149204E7 ; 2.018628367678171E8 ; 3.108066853247963E9 ; 3.259620210042676E10 ; 0.0
171 ; 1.7155850736491688E7 ; 2.0186970499943817E8 ; 3.125255797067112E9 ; 3.279806493719458E10 ; 0.0
172 ; 1.711287977369757E7 ; 2.0187655328171355E8 ; 3.1424116478036036E9 ; 3.299993464219402E10 ; 0.0
173 ; 1.7086120455890026E7 ; 2.0188338135534555E8 ; 3.159524527577301E9 ; 3.3201811195475735E10 ; 0.0
174 ; 1.7049537672785155E7 ; 2.0189018896401262E8 ; 3.176610648033191E9 ; 3.340369457683108E10 ; 0.0
175 ; 1.7022624596032202E7 ; 2.0189697585431215E8 ; 3.1936601857059765E9 ; 3.3605584765795094E10 ; 0.0
176 ; 1.698810214681855E7 ; 2.019E8 ; 3.2106828103020086E9 ; 3.3807481741649406E10 ; 0.0
177 ; 1.6955354801554352E7 ; 2.019E8 ; 3.2276709124488273E9 ; 3.4009381741649406E10 ; 0.0
178 ; 1.6926694701676805E7 ; 2.019E8 ; 3.2446262672503815E9 ; 3.4211281741649406E10 ; 0.0
179 ; 1.689543326315145E7 ; 2.019E8 ; 3.2615529619520583E9 ; 3.441318174164941E10 ; 0.0
180 ; 1.6860731608815525E7 ; 2.019E8 ; 3.27844839521521E9 ; 3.461508174164941E10 ; 0.0
181 ; 1.6832985070430413E7 ; 2.019E8 ; 3.2953091268240256E9 ; 3.481698174164941E10 ; 0.0
182 ; 1.67992820445697E7 ; 2.019E8 ; 3.312142111894456E9 ; 3.501888174164941E10 ; 0.0
183 ; 1.6765471405367497E7 ; 2.019E8 ; 3.3289413939390254E9 ; 3.522078174164941E10 ; 0.0
184 ; 1.6737977910245879E7 ; 2.019E8 ; 3.345706865344393E9 ; 3.542268174164941E10 ; 0.0
185 ; 1.6704694439215379E7 ; 2.019E8 ; 3.3624448432546387E9 ; 3.562458174164941E10 ; 0.0
186 ; 1.667435494071979E7 ; 2.019E8 ; 3.379149537693854E9 ; 3.582648174164941E10 ; 0.0
187 ; 1.6644535991448864E7 ; 2.019E8 ; 3.3958238926345735E9 ; 3.602838174164941E10 ; 0.0
188 ; 1.6607607773331648E7 ; 2.019E8 ; 3.4124684286260223E9 ; 3.623028174164941E10 ; 0.0
189 ; 1.6583188633890817E7 ; 2.019E8 ; 3.429076036399354E9 ; 3.643218174164941E10 ; 0.0
190 ; 1.6553703877885146E7 ; 2.019E8 ; 3.4456592250332446E9 ; 3.663408174164941E10 ; 0.0
191 ; 1.651812260034755E7 ; 2.019E8 ; 3.46221292891113E9 ; 3.683598174164941E10 ; 0.0
192 ; 1.6485235434673976E7 ; 2.019E8 ; 3.4787310515114775E9 ; 3.703788174164941E10 ; 0.0
193 ; 1.645399813981973E7 ; 2.019E8 ; 3.4952162869461513E9 ; 3.723978174164941E10 ; 0.0
194 ; 1.642139117228988E7 ; 2.019E8 ; 3.511670285085971E9 ; 3.744168174164941E10 ; 0.0
195 ; 1.639045066980565E7 ; 2.019E8 ; 3.5280916762582607E9 ; 3.764358174164941E10 ; 0.0
196 ; 1.6365827107379617E7 ; 2.019E8 ; 3.5444821269280663E9 ; 3.784548174164941E10 ; 0.0
197 ; 1.6330672714109167E7 ; 2.019E8 ; 3.5608479540354457E9 ; 3.804738174164941E10 ; 0.0
198 ; 1.6299433991819326E7 ; 2.019E8 ; 3.5771786267495546E9 ; 3.824928174164941E10 ; 0.0
