CSV File for the City 6 on Day 342
1 - Minute m 
2 - Power Consumed at minute m 
3 - Power Produced at minute m 
4 - Energy Consumed since the beginning of the day 
5 - Energy Produced since the beginning of the day 
6 - Energy Lost since the beginning of the day on lines starting from the city
 
0 ; 1.1191984170569276E7 ; 1.0633787717433915E8 ; 0.0 ; 0.0 ; 0.0
1 ; 1.1206444503801817E7 ; 1.0648877851778436E8 ; 1.1191984170569276E7 ; 1.0633787717433915E8 ; 0.0
2 ; 1.1214529603904158E7 ; 1.0694867262512955E8 ; 2.2398428674371094E7 ; 2.128266556921235E8 ; 0.0
3 ; 1.1230463872828402E7 ; 1.0771756249755043E8 ; 3.361295827827525E7 ; 3.1977532831725305E8 ; 0.0
4 ; 1.1246634208804298E7 ; 1.0879545081608075E8 ; 4.484342215110365E7 ; 4.274928908148035E8 ; 0.0
5 ; 1.1264563712125616E7 ; 1.1018233992967653E8 ; 5.6090056359907955E7 ; 5.3628834163088423E8 ; 0.0
6 ; 1.129267490013805E7 ; 1.1187823184459957E8 ; 6.735462007203357E7 ; 6.464706815605607E8 ; 0.0
7 ; 1.1331366199447295E7 ; 1.1388312821523184E8 ; 7.864729497217162E7 ; 7.583489134051603E8 ; 0.0
8 ; 1.1380936240545774E7 ; 1.161970303364194E8 ; 8.997866117161891E7 ; 8.722320416203921E8 ; 0.0
9 ; 1.1463344558587251E7 ; 1.1881993913742793E8 ; 1.0135959741216469E8 ; 9.884290719568114E8 ; 0.0
10 ; 1.1588016747617763E7 ; 1.2175185517757702E8 ; 1.1282294197075194E8 ; 1.1072490110942392E9 ; 0.0
11 ; 1.1786802362365972E7 ; 1.2499277864360079E8 ; 1.2441095871836971E8 ; 1.2290008662718163E9 ; 0.0
12 ; 1.2105448360708216E7 ; 1.285427093487651E8 ; 1.3619776108073568E8 ; 1.353993644915417E9 ; 0.0
13 ; 1.2410494629323041E7 ; 1.3240164673375034E8 ; 1.483032094414439E8 ; 1.482536354264182E9 ; 0.0
14 ; 1.2447178271180676E7 ; 1.3656958986929095E8 ; 1.6071370407076693E8 ; 1.6149380009979324E9 ; 0.0
15 ; 1.246012762853786E7 ; 1.410465374605407E8 ; 1.7316088234194762E8 ; 1.7515075908672233E9 ; 0.0
16 ; 1.2470553617195008E7 ; 1.458324878531178E8 ; 1.8562100997048548E8 ; 1.892554128327764E9 ; 0.0
17 ; 1.2490210594709663E7 ; 1.509274390407603E8 ; 1.980915635876805E8 ; 2.0383866161808817E9 ; 0.0
18 ; 1.2503089492205868E7 ; 1.5633138867451227E8 ; 2.1058177418239015E8 ; 2.189314055221642E9 ; 0.0
19 ; 1.2516056109751357E7 ; 1.620443340733399E8 ; 2.23084863674596E8 ; 2.3456454438961544E9 ; 0.0
20 ; 1.2530468306432204E7 ; 1.680662722360675E8 ; 2.3560091978434736E8 ; 2.5076897779694943E9 ; 0.0
21 ; 1.2549098388925819E7 ; 1.7439719985451075E8 ; 2.4813138809077957E8 ; 2.6757560502055616E9 ; 0.0
22 ; 1.2562047510922475E7 ; 1.8103711332767576E8 ; 2.606804864797054E8 ; 2.8501532500600724E9 ; 0.0
23 ; 1.2575631853950463E7 ; 1.879860087768861E8 ; 2.732425339906279E8 ; 3.0311903633877482E9 ; 0.0
24 ; 1.2591649620808497E7 ; 1.9524388206169403E8 ; 2.858181658445783E8 ; 3.219176372164634E9 ; 0.0
25 ; 1.2606062159445755E7 ; 2.0149876969461745E8 ; 2.984098154653868E8 ; 3.4144202542263284E9 ; 0.0
26 ; 1.2622560627655648E7 ; 2.0150421489508379E8 ; 3.110158776248326E8 ; 3.6159190239209456E9 ; 0.0
27 ; 1.2633482571033156E7 ; 2.0150998213173604E8 ; 3.236384382524882E8 ; 3.8174232388160295E9 ; 0.0
28 ; 1.265112772353491E7 ; 2.0151606638682297E8 ; 3.362719208235214E8 ; 4.0189332209477654E9 ; 0.0
29 ; 1.2659820366121532E7 ; 2.0152246246714485E8 ; 3.4892304854705626E8 ; 4.2204492873345885E9 ; 0.0
30 ; 1.2671471211847601E7 ; 2.0152916502171117E8 ; 3.615828689131778E8 ; 4.421971749801733E9 ; 0.0
31 ; 1.2687646836063912E7 ; 2.0153616855923796E8 ; 3.742543401250254E8 ; 4.623500914823444E9 ; 0.0
32 ; 1.2706072650545163E7 ; 2.0154346746537724E8 ; 3.869419869610893E8 ; 4.825037083382683E9 ; 0.0
33 ; 1.2715874769250182E7 ; 2.0155105601957986E8 ; 3.996480596116345E8 ; 5.02658055084806E9 ; 0.0
34 ; 1.2729439192928733E7 ; 2.0155892841150516E8 ; 4.1236393438088465E8 ; 5.22813160686764E9 ; 0.0
35 ; 1.2742726150254095E7 ; 2.015670787568998E8 ; 4.250933735738134E8 ; 5.429690535279144E9 ; 0.0
36 ; 1.2753749358567458E7 ; 2.0157550111288053E8 ; 4.3783609972406745E8 ; 5.631257614036044E9 ; 0.0
37 ; 1.276313357156563E7 ; 2.0158418949256524E8 ; 4.505898490826349E8 ; 5.832833115148925E9 ; 0.0
38 ; 1.277477099946092E7 ; 2.015931378790077E8 ; 4.6335298265420055E8 ; 6.03441730464149E9 ; 0.0
39 ; 1.2787996333967159E7 ; 2.0160234023840058E8 ; 4.761277536536615E8 ; 6.236010442520497E9 ; 0.0
40 ; 1.2796271543814912E7 ; 2.01611790532522E8 ; 4.8891574998762864E8 ; 6.437612782758898E9 ; 0.0
41 ; 1.2808166922280993E7 ; 2.0162148273040828E8 ; 5.0171202153144354E8 ; 6.63922457329142E9 ; 0.0
42 ; 1.281359701736575E7 ; 2.0163141081924456E8 ; 5.145201884537245E8 ; 6.840846056021829E9 ; 0.0
43 ; 1.2822570949456798E7 ; 2.0164156881447193E8 ; 5.2733378547109026E8 ; 7.042477466841073E9 ; 0.0
44 ; 1.2832821289494954E7 ; 2.016519507691167E8 ; 5.40156356420547E8 ; 7.244119035655545E9 ; 0.0
45 ; 1.2837915429828992E7 ; 2.0166255078235257E8 ; 5.52989177710042E8 ; 7.445770986424662E9 ; 0.0
46 ; 1.2843636192071343E7 ; 2.0167336300731233E8 ; 5.65827093139871E8 ; 7.647433537207014E9 ; 0.0
47 ; 1.2852798502398703E7 ; 2.0168438165816972E8 ; 5.786707293319423E8 ; 7.849106900214327E9 ; 0.0
48 ; 1.2860515938657964E7 ; 2.0169560101651534E8 ; 5.91523527834341E8 ; 8.050791281872497E9 ; 0.0
49 ; 1.2865057293338966E7 ; 2.0170701543705437E8 ; 6.04384043772999E8 ; 8.252486882889012E9 ; 0.0
50 ; 1.286913677434042E7 ; 2.017186193526552E8 ; 6.172491010663381E8 ; 8.454193898326067E9 ; 0.0
51 ; 1.2869108651450986E7 ; 2.017304072787806E8 ; 6.301182378406785E8 ; 8.655912517678722E9 ; 0.0
52 ; 1.2875950865734786E7 ; 2.0174237381733412E8 ; 6.429873464921294E8 ; 8.857642924957502E9 ; 0.0
53 ; 1.2877614132261403E7 ; 2.0175451365995473E8 ; 6.558632973578643E8 ; 9.059385298774836E9 ; 0.0
54 ; 1.2884223282039782E7 ; 2.017668215907939E8 ; 6.687409114901257E8 ; 9.26113981243479E9 ; 0.0
55 ; 1.2891176781891556E7 ; 2.0177929248880887E8 ; 6.816251347721654E8 ; 9.462906634025583E9 ; 0.0
56 ; 1.2892789039563864E7 ; 2.0179192132960516E8 ; 6.94516311554057E8 ; 9.664685926514393E9 ; 0.0
57 ; 1.2897963539953696E7 ; 2.0180470318686172E8 ; 7.074091005936209E8 ; 9.866477847843998E9 ; 0.0
58 ; 1.2900287331281887E7 ; 2.0181763323337072E8 ; 7.203070641335746E8 ; 1.0068282551030859E10 ; 0.0
59 ; 1.29005192984015E7 ; 2.0183070674172288E8 ; 7.332073514648565E8 ; 1.0270100184264229E10 ; 0.0
60 ; 1.2906008299223892E7 ; 2.0184391908466846E8 ; 7.46107870763258E8 ; 1.047193089100595E10 ; 0.0
61 ; 1.290681235354605E7 ; 2.0185726573518285E8 ; 7.590138790624819E8 ; 1.067377481009062E10 ; 0.0
62 ; 1.2912509560686063E7 ; 2.0187074226626387E8 ; 7.719206914160279E8 ; 1.0875632075825804E10 ; 0.0
63 ; 1.291538748259124E7 ; 2.0188434435048681E8 ; 7.84833200976714E8 ; 1.1077502818092068E10 ; 0.0
64 ; 1.2915620761205783E7 ; 2.0189806775934222E8 ; 7.977485884593053E8 ; 1.1279387162442554E10 ; 0.0
65 ; 1.292020413006824E7 ; 2.0191190836237893E8 ; 8.106642092205111E8 ; 1.1481285230201897E10 ; 0.0
66 ; 1.29228968097779E7 ; 2.019258621261746E8 ; 8.235844133505793E8 ; 1.1683197138564276E10 ; 0.0
67 ; 1.2926957453381829E7 ; 2.019399251131538E8 ; 8.365073101603571E8 ; 1.188512300069045E10 ; 0.0
68 ; 1.2927703383475972E7 ; 2.0195409348027244E8 ; 8.494342676137389E8 ; 1.2087062925803604E10 ; 0.0
69 ; 1.292938547378231E7 ; 2.0196836347758633E8 ; 8.623619709972149E8 ; 1.2289017019283876E10 ; 0.0
70 ; 1.2932481948696503E7 ; 2.0198273144671968E8 ; 8.752913564709972E8 ; 1.2490985382761463E10 ; 0.0
71 ; 1.2936445377730625E7 ; 2.0199719381924886E8 ; 8.882238384196937E8 ; 1.2692968114208183E10 ; 0.0
72 ; 1.2936903675214348E7 ; 2.0201174711501497E8 ; 9.011602837974243E8 ; 1.2894965308027431E10 ; 0.0
73 ; 1.2937118862111963E7 ; 2.0202638794037765E8 ; 9.140971874726386E8 ; 1.3096977055142447E10 ; 0.0
74 ; 1.293927582137964E7 ; 2.0204111298642182E8 ; 9.270343063347505E8 ; 1.3299003443082825E10 ; 0.0
75 ; 1.2939357042602878E7 ; 2.0205591902712774E8 ; 9.399735821561302E8 ; 1.3501044556069246E10 ; 0.0
76 ; 1.2945271087270424E7 ; 2.020708029175136E8 ; 9.529129391987331E8 ; 1.3703100475096375E10 ; 0.0
77 ; 1.293905376338958E7 ; 2.020857615917597E8 ; 9.658582102860035E8 ; 1.3905171278013887E10 ; 0.0
78 ; 1.2938211204504266E7 ; 2.021007920613214E8 ; 9.78797264049393E8 ; 1.4107257039605648E10 ; 0.0
79 ; 1.2934208811480513E7 ; 2.0211589141303807E8 ; 9.917354752538973E8 ; 1.430935783166697E10 ; 0.0
80 ; 1.2933355233378766E7 ; 2.0213105680724415E8 ; 1.0046696840653778E9 ; 1.4511473723080008E10 ; 0.0
81 ; 1.2934826347554596E7 ; 2.021462854758878E8 ; 1.0176030392987566E9 ; 1.471360477988725E10 ; 0.0
82 ; 1.292754990682112E7 ; 2.02161574720662E8 ; 1.0305378656463112E9 ; 1.4915751065363138E10 ; 0.0
83 ; 1.2928001837524274E7 ; 2.021769219111523E8 ; 1.0434654155531323E9 ; 1.51179126400838E10 ; 0.0
84 ; 1.2924585384636994E7 ; 2.021923244830053E8 ; 1.0563934173906566E9 ; 1.5320089561994951E10 ; 0.0
85 ; 1.2920276146476451E7 ; 2.0220777993612072E8 ; 1.0693180027752936E9 ; 1.5522281886477957E10 ; 0.0
86 ; 1.2916503750261677E7 ; 2.022232858328703E8 ; 1.08223827892177E9 ; 1.5724489666414078E10 ; 0.0
87 ; 1.2916956909840325E7 ; 2.022388397963454E8 ; 1.0951547826720319E9 ; 1.5926712952246948E10 ; 0.0
88 ; 1.2909027886722717E7 ; 2.02254439508636E8 ; 1.1080717395818722E9 ; 1.6128951792043293E10 ; 0.0
89 ; 1.2908523228261353E7 ; 2.022700827091423E8 ; 1.120980767468595E9 ; 1.633120623155193E10 ; 0.0
90 ; 1.2901622208895389E7 ; 2.0228576719292063E8 ; 1.1338892906968565E9 ; 1.6533476314261072E10 ; 0.0
91 ; 1.289754047495774E7 ; 2.0230149080906463E8 ; 1.146790912905752E9 ; 1.6735762081453993E10 ; 0.0
92 ; 1.28962842493912E7 ; 2.0231725145912278E8 ; 1.1596884533807096E9 ; 1.6938063572263058E10 ; 0.0
93 ; 1.2889473813438803E7 ; 2.0233304709555265E8 ; 1.172584737630101E9 ; 1.7140380823722181E10 ; 0.0
94 ; 1.2884895915228402E7 ; 2.0234887572021264E8 ; 1.1854742114435399E9 ; 1.7342713870817734E10 ; 0.0
95 ; 1.2884119190368146E7 ; 2.0236473538289136E8 ; 1.1983591073587682E9 ; 1.7545062746537945E10 ; 0.0
96 ; 1.2878869680578135E7 ; 2.0238062417987478E8 ; 1.2112432265491364E9 ; 1.7747427481920837E10 ; 0.0
97 ; 1.2876098788218874E7 ; 2.0239654025255114E8 ; 1.2241220962297146E9 ; 1.794980810610071E10 ; 0.0
98 ; 1.2867665084182268E7 ; 2.0241248178605366E8 ; 1.2369981950179336E9 ; 1.8152204646353264E10 ; 0.0
99 ; 1.286304184502537E7 ; 2.0242844700794044E8 ; 1.2498658601021159E9 ; 1.8354617128139317E10 ; 0.0
100 ; 1.2861152746845067E7 ; 2.024444341869116E8 ; 1.2627289019471412E9 ; 1.855704557514726E10 ; 0.0
101 ; 1.2854669241199171E7 ; 2.024604416315632E8 ; 1.2755900546939862E9 ; 1.875949000933417E10 ; 0.0
102 ; 1.2851668156897802E7 ; 2.0247646768917686E8 ; 1.2884447239351854E9 ; 1.8961950450965736E10 ; 0.0
103 ; 1.2842655610832315E7 ; 2.0249251074454576E8 ; 1.3012963920920832E9 ; 1.9164426918654915E10 ; 0.0
104 ; 1.2838730679757014E7 ; 2.0250856921883503E8 ; 1.3141390477029154E9 ; 1.936691942939946E10 ; 0.0
105 ; 1.2831664988027254E7 ; 2.0252464156847683E8 ; 1.3269777783826725E9 ; 1.9569427998618294E10 ; 0.0
106 ; 1.2828357472954653E7 ; 2.025407262840991E8 ; 1.3398094433707E9 ; 1.977195264018677E10 ; 0.0
107 ; 1.28213420900218E7 ; 2.0255682188948745E8 ; 1.3526378008436546E9 ; 1.997449336647087E10 ; 0.0
108 ; 1.2815942140714679E7 ; 2.0257292694057894E8 ; 1.3654591429336765E9 ; 2.017705018836036E10 ; 0.0
109 ; 1.2810531466643156E7 ; 2.0258904002448782E8 ; 1.3782750850743911E9 ; 2.0379623115300938E10 ; 0.0
110 ; 1.2804561274809306E7 ; 2.0260515975856188E8 ; 1.3910856165410342E9 ; 2.0582212155325424E10 ; 0.0
111 ; 1.2793964498392865E7 ; 2.0262128478946868E8 ; 1.4038901778158436E9 ; 2.0784817315083984E10 ; 0.0
112 ; 1.2787665334223574E7 ; 2.0263741379231107E8 ; 1.4166841423142364E9 ; 2.098743859987345E10 ; 0.0
113 ; 1.278516596140838E7 ; 2.0265354546977133E8 ; 1.42947180764846E9 ; 2.1190076013665764E10 ; 0.0
114 ; 1.277728423754441E7 ; 2.0266967855128255E8 ; 1.4422569736098683E9 ; 2.1392729559135536E10 ; 0.0
115 ; 1.2772639849205311E7 ; 2.0268581179222745E8 ; 1.4550342578474126E9 ; 2.1595399237686817E10 ; 0.0
116 ; 1.2762866324305087E7 ; 2.0270194397316277E8 ; 1.4678068976966178E9 ; 2.1798085049479046E10 ; 0.0
117 ; 1.2756849842902416E7 ; 2.0271807389906934E8 ; 1.480569764020923E9 ; 2.200078699345221E10 ; 0.0
118 ; 1.2750866024859294E7 ; 2.0273420039862674E8 ; 1.4933266138638253E9 ; 2.220350506735128E10 ; 0.0
119 ; 1.274281018910208E7 ; 2.0275032232351175E8 ; 1.5060774798886845E9 ; 2.240623926774991E10 ; 0.0
120 ; 1.2732511294573471E7 ; 2.027664385477199E8 ; 1.5188202900777867E9 ; 2.260898959007342E10 ; 0.0
121 ; 1.27310704036587E7 ; 2.0278254796690944E8 ; 1.5315528013723602E9 ; 2.281175602862114E10 ; 0.0
122 ; 1.2721590074439498E7 ; 2.027986494977673E8 ; 1.5442838717760189E9 ; 2.301453857658805E10 ; 0.0
123 ; 1.2714383778871845E7 ; 2.028147420773957E8 ; 1.5570054618504584E9 ; 2.321733722608582E10 ; 0.0
124 ; 1.270705627856765E7 ; 2.028308246627193E8 ; 1.5697198456293302E9 ; 2.3420151968163216E10 ; 0.0
125 ; 1.2699072907111427E7 ; 2.028468962299122E8 ; 1.5824269019078977E9 ; 2.3622982792825935E10 ; 0.0
126 ; 1.2691527935512926E7 ; 2.028629557738436E8 ; 1.595125974815009E9 ; 2.3825829689055847E10 ; 0.0
127 ; 1.268542860498292E7 ; 2.0287900230754247E8 ; 1.6078175027505221E9 ; 2.402869264482969E10 ; 0.0
128 ; 1.267496757249944E7 ; 2.028950348616796E8 ; 1.620502931355505E9 ; 2.423157164713723E10 ; 0.0
129 ; 1.2667745673612632E7 ; 2.0291105248406714E8 ; 1.6331778989280045E9 ; 2.443446668199891E10 ; 0.0
130 ; 1.265680985424037E7 ; 2.0292705423917466E8 ; 1.645845644601617E9 ; 2.4637377734482975E10 ; 0.0
131 ; 1.2641380339802558E7 ; 2.0294303920766142E8 ; 1.6585024544558575E9 ; 2.484030478872215E10 ; 0.0
132 ; 1.2631364938489135E7 ; 2.0295900648592433E8 ; 1.67114383479566E9 ; 2.504324782792981E10 ; 0.0
133 ; 1.2615580378842317E7 ; 2.0297495518566072E8 ; 1.6837751997341492E9 ; 2.5246206834415733E10 ; 0.0
134 ; 1.260847409016791E7 ; 2.0299088443344578E8 ; 1.6963907801129916E9 ; 2.5449181789601395E10 ; 0.0
135 ; 1.259757052664168E7 ; 2.0300679337032416E8 ; 1.7089992542031596E9 ; 2.565217267403484E10 ; 0.0
136 ; 1.258318105566883E7 ; 2.0302268115141493E8 ; 1.7215968247298012E9 ; 2.5855179467405163E10 ; 0.0
137 ; 1.2565511113021018E7 ; 2.030385469455297E8 ; 1.73418000578547E9 ; 2.605820214855658E10 ; 0.0
138 ; 1.2555190635903466E7 ; 2.0305438993480366E8 ; 1.7467455168984911E9 ; 2.626124069550211E10 ; 0.0
139 ; 1.2540607095145501E7 ; 2.0307020931433842E8 ; 1.7593007075343945E9 ; 2.6464295085436913E10 ; 0.0
140 ; 1.25284649555856E7 ; 2.0308600429185697E8 ; 1.77184131462954E9 ; 2.666736529475125E10 ; 0.0
141 ; 1.2513313273579385E7 ; 2.0310177408736998E8 ; 1.7843697795851257E9 ; 2.687045129904311E10 ; 0.0
142 ; 1.2502150605764877E7 ; 2.0311751793285304E8 ; 1.796883092858705E9 ; 2.707355307313048E10 ; 0.0
143 ; 1.2486989289203625E7 ; 2.0313323507193458E8 ; 1.80938524346447E9 ; 2.7276670591063335E10 ; 0.0
144 ; 1.247679234576752E7 ; 2.0314892475959402E8 ; 1.8218722327536736E9 ; 2.747980382613527E10 ; 0.0
145 ; 1.246584641173056E7 ; 2.0316458626186997E8 ; 1.834349025099441E9 ; 2.7682952750894863E10 ; 0.0
146 ; 1.2458546136541694E7 ; 2.0318021885557774E8 ; 1.8468148715111716E9 ; 2.7886117337156734E10 ; 0.0
147 ; 1.2448310335848015E7 ; 2.0319582182803637E8 ; 1.8592734176477132E9 ; 2.8089297556012314E10 ; 0.0
148 ; 1.2440493303057743E7 ; 2.0321139447680438E8 ; 1.8717217279835613E9 ; 2.829249337784035E10 ; 0.0
149 ; 1.2429259293680815E7 ; 2.032269361094243E8 ; 1.884162221286619E9 ; 2.8495704772317154E10 ; 0.0
150 ; 1.242240727818088E7 ; 2.0324244604317522E8 ; 1.8965914805802999E9 ; 2.869893170842658E10 ; 0.0
151 ; 1.2412692766699031E7 ; 2.0325792360483393E8 ; 1.9090138878584807E9 ; 2.8902174154469753E10 ; 0.0
152 ; 1.2401312274383219E7 ; 2.032733681304431E8 ; 1.9214265806251798E9 ; 2.910543207807459E10 ; 0.0
153 ; 1.2391710400786791E7 ; 2.0328877896508756E8 ; 1.933827892899563E9 ; 2.9308705446205032E10 ; 0.0
154 ; 1.2383919274501767E7 ; 2.0330415546267745E8 ; 1.94621960330035E9 ; 2.951199422517012E10 ; 0.0
155 ; 1.2376310108382333E7 ; 2.0331949698573855E8 ; 1.9586035225748518E9 ; 2.9715298380632797E10 ; 0.0
156 ; 1.2369713461631063E7 ; 2.0333480290520924E8 ; 1.970979832683234E9 ; 2.9918617877618534E10 ; 0.0
157 ; 1.2358003115636291E7 ; 2.0335007260024396E8 ; 1.983349546144865E9 ; 3.0121952680523743E10 ; 0.0
158 ; 1.2345048102778597E7 ; 2.033653054580231E8 ; 1.9957075492605014E9 ; 3.0325302753123985E10 ; 0.0
159 ; 1.2338096659941198E7 ; 2.0338050087356883E8 ; 2.00805259736328E9 ; 3.052866805858201E10 ; 0.0
160 ; 1.2330463626197236E7 ; 2.0339565824956688E8 ; 2.0203906940232213E9 ; 3.0732048559455578E10 ; 0.0
161 ; 1.2319040179098958E7 ; 2.0341077699619392E8 ; 2.0327211576494186E9 ; 3.0935444217705143E10 ; 0.0
162 ; 1.2307365915864559E7 ; 2.0342585653095043E8 ; 2.0450401978285174E9 ; 3.1138854994701336E10 ; 0.0
163 ; 1.2296206833717784E7 ; 2.03440896278499E8 ; 2.057347563744382E9 ; 3.1342280851232285E10 ; 0.0
164 ; 1.2289546284054423E7 ; 2.0345589567050752E8 ; 2.0696437705780997E9 ; 3.1545721747510784E10 ; 0.0
165 ; 1.2280721416372012E7 ; 2.0347085414549747E8 ; 2.0819333168621542E9 ; 3.1749177643181293E10 ; 0.0
166 ; 1.2270476106507301E7 ; 2.034857711486969E8 ; 2.0942140382785263E9 ; 3.195264849732679E10 ; 0.0
167 ; 1.2259609954235788E7 ; 2.0350064613189808E8 ; 2.1064845143850336E9 ; 3.2156134268475487E10 ; 0.0
168 ; 1.2247703214973269E7 ; 2.0351547855331957E8 ; 2.1187441243392694E9 ; 3.2359634914607384E10 ; 0.0
169 ; 1.2241613094544373E7 ; 2.0353026787747264E8 ; 2.1309918275542426E9 ; 3.25631503931607E10 ; 0.0
170 ; 1.2229313173676593E7 ; 2.035450135750318E8 ; 2.143233440648787E9 ; 3.2766680661038174E10 ; 0.0
171 ; 1.2219528161843752E7 ; 2.0355971512270927E8 ; 2.1554627538224635E9 ; 3.2970225674613205E10 ; 0.0
172 ; 1.2206876930450559E7 ; 2.0357437200313374E8 ; 2.1676822819843073E9 ; 3.3173785389735916E10 ; 0.0
173 ; 1.220358798393707E7 ; 2.035889837047323E8 ; 2.1798891589147577E9 ; 3.3377359761739048E10 ; 0.0
174 ; 1.2195526203729318E7 ; 2.0360354972161642E8 ; 2.192092746898695E9 ; 3.358094874544378E10 ; 0.0
175 ; 1.218783878306061E7 ; 2.0361806955347142E8 ; 2.204288273102424E9 ; 3.3784552295165394E10 ; 0.0
176 ; 1.2181760214643039E7 ; 2.036325427054491E8 ; 2.2164761118854847E9 ; 3.3988170364718864E10 ; 0.0
177 ; 1.2177449043268114E7 ; 2.0364696868806398E8 ; 2.2286578721001277E9 ; 3.4191802907424313E10 ; 0.0
178 ; 1.217076182540943E7 ; 2.036613470170924E8 ; 2.240835321143396E9 ; 3.439544987611237E10 ; 0.0
179 ; 1.216351325612743E7 ; 2.0367567721347496E8 ; 2.2530060829688053E9 ; 3.459911122312946E10 ; 0.0
180 ; 1.2159314236205265E7 ; 2.0368995880322176E8 ; 2.2651695962249327E9 ; 3.480278690034294E10 ; 0.0
181 ; 1.2151211809146348E7 ; 2.037041913173207E8 ; 2.277328910461138E9 ; 3.5006476859146164E10 ; 0.0
182 ; 1.2142505317657972E7 ; 2.037183742916483E8 ; 2.289480122270284E9 ; 3.5210181050463486E10 ; 0.0
183 ; 1.2138771983165639E7 ; 2.0373250726688346E8 ; 2.301622627587942E9 ; 3.5413899424755135E10 ; 0.0
184 ; 1.2132200782756047E7 ; 2.0374658978842375E8 ; 2.313761399571108E9 ; 3.561763193202202E10 ; 0.0
185 ; 1.2126558933103325E7 ; 2.0376062140630412E8 ; 2.3258936003538637E9 ; 3.582137852181044E10 ; 0.0
186 ; 1.2121104712153148E7 ; 2.0377460167511827E8 ; 2.3380201592869673E9 ; 3.602513914321674E10 ; 0.0
187 ; 1.2117783609016959E7 ; 2.0378853015394214E8 ; 2.35014126399912E9 ; 3.622891374489186E10 ; 0.0
188 ; 1.2105628919818515E7 ; 2.038024064062599E8 ; 2.362259047608137E9 ; 3.643270227504581E10 ; 0.0
189 ; 1.2099571421612253E7 ; 2.0381622999989194E8 ; 2.3743646765279555E9 ; 3.6636504681452065E10 ; 0.0
190 ; 1.2094347139154458E7 ; 2.0383000050692526E8 ; 2.386464247949568E9 ; 3.684032091145196E10 ; 0.0
191 ; 1.2088369383688714E7 ; 2.0384371750364572E8 ; 2.398558595088722E9 ; 3.7044150911958885E10 ; 0.0
192 ; 1.2082937251470016E7 ; 2.0385738057047242E8 ; 2.410646964472411E9 ; 3.724799462946253E10 ; 0.0
193 ; 1.2081219928505167E7 ; 2.0387098929189396E8 ; 2.4227299017238812E9 ; 3.7451852010033005E10 ; 0.0
194 ; 1.2070704521794269E7 ; 2.0388454325640664E8 ; 2.434811121652386E9 ; 3.76557229993249E10 ; 0.0
195 ; 1.2061208013309179E7 ; 2.0389804205645442E8 ; 2.4468818261741805E9 ; 3.785960754258131E10 ; 0.0
