CSV File for the City 6 on Day 122
1 - Minute m 
2 - Power Consumed at minute m 
3 - Power Produced at minute m 
4 - Energy Consumed since the beginning of the day 
5 - Energy Produced since the beginning of the day 
6 - Energy Lost since the beginning of the day on lines starting from the city
 
0 ; 1.1290794971154004E7 ; 1.0616397917072979E8 ; 0.0 ; 0.0 ; 0.0
1 ; 1.1303025898405628E7 ; 1.0631489163263273E8 ; 1.1290794971154004E7 ; 1.0616397917072979E8 ; 0.0
2 ; 1.131879660316186E7 ; 1.067747942757692E8 ; 2.259382086955963E7 ; 2.1247887080336252E8 ; 0.0
3 ; 1.133345100993542E7 ; 1.0754369055210495E8 ; 3.391261747272149E7 ; 3.192536650791317E8 ; 0.0
4 ; 1.1348426798819171E7 ; 1.0862158355190212E8 ; 4.524606848265691E7 ; 4.267973556312367E8 ; 0.0
5 ; 1.1370357689779166E7 ; 1.1000847598772162E8 ; 5.659449528147608E7 ; 5.354189391831388E8 ; 0.0
6 ; 1.1396439792865569E7 ; 1.1170437018013051E8 ; 6.796485297125524E7 ; 6.454274151708604E8 ; 0.0
7 ; 1.1432942135441821E7 ; 1.1370926804528898E8 ; 7.936129276412082E7 ; 7.571317853509909E8 ; 0.0
8 ; 1.1485408295124058E7 ; 1.1602317108457017E8 ; 9.079423489956264E7 ; 8.708410533962798E8 ; 0.0
9 ; 1.1569094537510406E7 ; 1.1864608037634474E8 ; 1.022796431946867E8 ; 9.8686422448085E8 ; 0.0
10 ; 1.1692850386030657E7 ; 1.2157799657003528E8 ; 1.138487377321971E8 ; 1.1055103048571947E9 ; 0.0
11 ; 1.1889771623643134E7 ; 1.248189198825176E8 ; 1.2554158811822776E8 ; 1.22708830142723E9 ; 0.0
12 ; 1.220910191045255E7 ; 1.2836885009691587E8 ; 1.374313597418709E8 ; 1.3519072213097475E9 ; 0.0
13 ; 1.2514832527489932E7 ; 1.3222778656380749E8 ; 1.4964046165232345E8 ; 1.4802760714066634E9 ; 0.0
14 ; 1.2552210842507672E7 ; 1.3639572820482188E8 ; 1.6215529417981339E8 ; 1.612503857970471E9 ; 0.0
15 ; 1.256568932777387E7 ; 1.408726735185858E8 ; 1.7470750502232105E8 ; 1.7488995861752927E9 ; 0.0
16 ; 1.2585845466345264E7 ; 1.4565862058893916E8 ; 1.872731943500949E8 ; 1.8897722596938787E9 ; 0.0
17 ; 1.2597047111599749E7 ; 1.5075356709531483E8 ; 1.9985903981644017E8 ; 2.0354308802828178E9 ; 0.0
18 ; 1.2613899773466835E7 ; 1.5615751032515192E8 ; 2.124560869280399E8 ; 2.186184447378133E9 ; 0.0
19 ; 1.2627512100135086E7 ; 1.6187044718818828E8 ; 2.2506998670150673E8 ; 2.3423419577032847E9 ; 0.0
20 ; 1.2644822311231492E7 ; 1.6789237423245814E8 ; 2.3769749880164182E8 ; 2.504212404891473E9 ; 0.0
21 ; 1.2660318561443515E7 ; 1.7422328766180608E8 ; 2.5034232111287332E8 ; 2.672104779123931E9 ; 0.0
22 ; 1.2678141586123196E7 ; 1.8086318335471493E8 ; 2.6300263967431682E8 ; 2.846328066785737E9 ; 0.0
23 ; 1.2687972277376508E7 ; 1.878120568842392E8 ; 2.7568078126044E8 ; 3.027191250140452E9 ; 0.0
24 ; 1.2705770308930397E7 ; 1.9506990353882957E8 ; 2.883687535378165E8 ; 3.215003307024691E9 ; 0.0
25 ; 1.2722072598965995E7 ; 2.013247592420195E8 ; 3.010745238467469E8 ; 3.4100732105635204E9 ; 0.0
26 ; 1.2736856372905198E7 ; 2.0133016661129162E8 ; 3.137965964457129E8 ; 3.61139796980554E9 ; 0.0
27 ; 1.275132001891348E7 ; 2.0133588950521576E8 ; 3.265334528186181E8 ; 3.8127281364168315E9 ; 0.0
28 ; 1.2765513927649058E7 ; 2.013419222925262E8 ; 3.392847728375316E8 ; 4.014064025922047E9 ; 0.0
29 ; 1.2780253826032426E7 ; 2.013482591675593E8 ; 3.520502867651807E8 ; 4.2154059482145734E9 ; 0.0
30 ; 1.2791462247356042E7 ; 2.013548941721655E8 ; 3.648305405912131E8 ; 4.416754207382133E9 ; 0.0
31 ; 1.2794810177386051E7 ; 2.013618212171872E8 ; 3.7762200283856916E8 ; 4.618109101554298E9 ; 0.0
32 ; 1.2794328860793535E7 ; 2.0136903410336626E8 ; 3.904168130159552E8 ; 4.819470922771485E9 ; 0.0
33 ; 1.2792544691372998E7 ; 2.0137652654156154E8 ; 4.0321114187674874E8 ; 5.020839956874851E9 ; 0.0
34 ; 1.2790554196978569E7 ; 2.013842921721741E8 ; 4.1600368656812173E8 ; 5.222216483416412E9 ; 0.0
35 ; 1.278982115811604E7 ; 2.0139232458369464E8 ; 4.287942407651003E8 ; 5.423600775588587E9 ; 0.0
36 ; 1.2789614844332434E7 ; 2.0140061733030534E8 ; 4.4158406192321634E8 ; 5.624993100172281E9 ; 0.0
37 ; 1.2789100770611592E7 ; 2.0140916394848347E8 ; 4.543736767675488E8 ; 5.826393717502586E9 ; 0.0
38 ; 1.2782677800101528E7 ; 2.01417957972569E8 ; 4.671627775381604E8 ; 6.02780288145107E9 ; 0.0
39 ; 1.2780485970465483E7 ; 2.0142699294927365E8 ; 4.799454553382619E8 ; 6.229220839423639E9 ; 0.0
40 ; 1.2776735242137676E7 ; 2.014362624511205E8 ; 4.927259413087274E8 ; 6.430647832372913E9 ; 0.0
41 ; 1.2773697726958025E7 ; 2.0144576008881482E8 ; 5.0550267655086505E8 ; 6.632084094824034E9 ; 0.0
42 ; 1.2768990509938616E7 ; 2.014554795225579E8 ; 5.182763742778231E8 ; 6.833529854912848E9 ; 0.0
43 ; 1.2764910271553714E7 ; 2.014654144723236E8 ; 5.310453647877617E8 ; 7.034985334435407E9 ; 0.0
44 ; 1.2762041019058485E7 ; 2.0147555872712487E8 ; 5.438102750593154E8 ; 7.23645074890773E9 ; 0.0
45 ; 1.2753552628961619E7 ; 2.0148590615330496E8 ; 5.565723160783739E8 ; 7.437926307634855E9 ; 0.0
46 ; 1.2750774365030203E7 ; 2.0149645070189136E8 ; 5.693258687073355E8 ; 7.63941221378816E9 ; 0.0
47 ; 1.2744275595772468E7 ; 2.015071864150564E8 ; 5.820766430723656E8 ; 7.840908664490051E9 ; 0.0
48 ; 1.2732879163412966E7 ; 2.0151810743172985E8 ; 5.948209186681381E8 ; 8.0424158509051075E9 ; 0.0
49 ; 1.272825810839645E7 ; 2.0152920799241212E8 ; 6.075537978315511E8 ; 8.243933958336838E9 ; 0.0
50 ; 1.2721208370606178E7 ; 2.0154048244323725E8 ; 6.202820559399475E8 ; 8.44546316632925E9 ; 0.0
51 ; 1.2709484411223972E7 ; 2.0155192523933604E8 ; 6.330032643105537E8 ; 8.647003648772488E9 ; 0.0
52 ; 1.2699839802039115E7 ; 2.0156353094754857E8 ; 6.457127487217777E8 ; 8.848555574011824E9 ; 0.0
53 ; 1.2689908179735767E7 ; 2.0157529424853617E8 ; 6.584125885238168E8 ; 9.050119104959372E9 ; 0.0
54 ; 1.2681620474006074E7 ; 2.015872099383408E8 ; 6.711024967035526E8 ; 9.251694399207909E9 ; 0.0
55 ; 1.267134372255812E7 ; 2.0159927292943862E8 ; 6.837841171775587E8 ; 9.45328160914625E9 ; 0.0
56 ; 1.266414478256041E7 ; 2.0161147825133312E8 ; 6.964554609001168E8 ; 9.65488088207569E9 ; 0.0
57 ; 1.26578501355007E7 ; 2.0162382105073118E8 ; 7.091196056826773E8 ; 9.856492360327023E9 ; 0.0
58 ; 1.2644717130895145E7 ; 2.0163629659134308E8 ; 7.217774558181779E8 ; 1.0058116181377754E10 ; 0.0
59 ; 1.2632894667317176E7 ; 2.0164890025334516E8 ; 7.344221729490731E8 ; 1.0259752477969097E10 ; 0.0
60 ; 1.2625060486333346E7 ; 2.0166162753254274E8 ; 7.470550676163902E8 ; 1.0461401378222443E10 ; 0.0
61 ; 1.2615173107444823E7 ; 2.0167447403926635E8 ; 7.596801281027236E8 ; 1.0663063005754986E10 ; 0.0
62 ; 1.2602319030426018E7 ; 2.0168743549703473E8 ; 7.722953012101684E8 ; 1.0864737479794252E10 ; 0.0
63 ; 1.2593978051167501E7 ; 2.0170050774101332E8 ; 7.848976202405944E8 ; 1.1066424915291286E10 ; 0.0
64 ; 1.2583799135363346E7 ; 2.0171368671629637E8 ; 7.974915982917619E8 ; 1.1268125423032299E10 ; 0.0
65 ; 1.2576532375943813E7 ; 2.0172696847603783E8 ; 8.100753974271252E8 ; 1.1469839109748596E10 ; 0.0
66 ; 1.2563113483084181E7 ; 2.017403491794545E8 ; 8.22651929803069E8 ; 1.1671566078224634E10 ; 0.0
67 ; 1.2553931446064953E7 ; 2.0175382508972245E8 ; 8.352150432861532E8 ; 1.1873306427404089E10 ; 0.0
68 ; 1.2542242462727463E7 ; 2.017673925717865E8 ; 8.477689747322181E8 ; 1.207506025249381E10 ; 0.0
69 ; 1.2532145666381482E7 ; 2.0178104809009993E8 ; 8.603112171949456E8 ; 1.2276827645065598E10 ; 0.0
70 ; 1.2523202213714806E7 ; 2.0179478820631075E8 ; 8.72843362861327E8 ; 1.2478608693155697E10 ; 0.0
71 ; 1.2508203097953722E7 ; 2.0180860957690856E8 ; 8.853665650750419E8 ; 1.2680403481362007E10 ; 0.0
72 ; 1.2498161577019218E7 ; 2.01822508950845E8 ; 8.978747681729956E8 ; 1.2882212090938915E10 ; 0.0
73 ; 1.2487203672878722E7 ; 2.0183648316713935E8 ; 9.103729297500148E8 ; 1.3084034599889761E10 ; 0.0
74 ; 1.2474596363165693E7 ; 2.0185052915247905E8 ; 9.228601334228935E8 ; 1.32858710830569E10 ; 0.0
75 ; 1.2462566847418288E7 ; 2.01864643918825E8 ; 9.353347297860593E8 ; 1.348772161220938E10 ; 0.0
76 ; 1.2452373403142136E7 ; 2.0187882456102863E8 ; 9.477972966334776E8 ; 1.3689586256128204E10 ; 0.0
77 ; 1.2442958197966931E7 ; 2.0189306825446853E8 ; 9.602496700366197E8 ; 1.3891465080689234E10 ; 0.0
78 ; 1.2425296948008016E7 ; 2.0190737225271222E8 ; 9.726926282345866E8 ; 1.4093358148943703E10 ; 0.0
79 ; 1.241153517961422E7 ; 2.0192173388520834E8 ; 9.851179251825947E8 ; 1.4295265521196415E10 ; 0.0
80 ; 1.2392300688603822E7 ; 2.019361505550142E8 ; 9.975294603622088E8 ; 1.4497187255081623E10 ; 0.0
81 ; 1.237983580177238E7 ; 2.019506197365616E8 ; 1.0099217610508127E9 ; 1.4699123405636637E10 ; 0.0
82 ; 1.2362704243352596E7 ; 2.0196513897346535E8 ; 1.0223015968525851E9 ; 1.4901074025373198E10 ; 0.0
83 ; 1.2343589368849877E7 ; 2.0197970587637573E8 ; 1.0346643010959377E9 ; 1.5103039164346663E10 ; 0.0
84 ; 1.2333456866701065E7 ; 2.019943181208785E8 ; 1.0470078904647876E9 ; 1.5305018870223038E10 ; 0.0
85 ; 1.2313287911977977E7 ; 2.0200897344544265E8 ; 1.0593413473314886E9 ; 1.5507013188343916E10 ; 0.0
86 ; 1.2301094176253121E7 ; 2.0202366964941874E8 ; 1.0716546352434666E9 ; 1.5709022161789358E10 ; 0.0
87 ; 1.2280473190718228E7 ; 2.020384045910875E8 ; 1.0839557294197197E9 ; 1.5911045831438776E10 ; 0.0
88 ; 1.2267849265145512E7 ; 2.020531761857599E8 ; 1.0962362026104379E9 ; 1.6113084236029863E10 ; 0.0
89 ; 1.2250026550758744E7 ; 2.0206798240392926E8 ; 1.1085040518755834E9 ; 1.6315137412215624E10 ; 0.0
90 ; 1.2232457848090747E7 ; 2.0208282126947498E8 ; 1.1207540784263422E9 ; 1.6517205394619553E10 ; 0.0
91 ; 1.22136448339238E7 ; 2.0209769085791814E8 ; 1.132986536274433E9 ; 1.6719288215889027E10 ; 0.0
92 ; 1.219917225752352E7 ; 2.021125892947287E8 ; 1.1452001811083567E9 ; 1.6921385906746944E10 ; 0.0
93 ; 1.2182957204825418E7 ; 2.0212751475368375E8 ; 1.1573993533658803E9 ; 1.7123498496041674E10 ; 0.0
94 ; 1.2166072739824954E7 ; 2.0214246545527598E8 ; 1.1695823105707057E9 ; 1.7325626010795357E10 ; 0.0
95 ; 1.2151407465690473E7 ; 2.0215743966517246E8 ; 1.1817483833105307E9 ; 1.7527768476250633E10 ; 0.0
96 ; 1.2129468969416967E7 ; 2.021724356927219E8 ; 1.193899790776221E9 ; 1.7729925915915806E10 ; 0.0
97 ; 1.2115720881177463E7 ; 2.0218745188951024E8 ; 1.206029259745638E9 ; 1.793209835160853E10 ; 0.0
98 ; 1.2097345994608354E7 ; 2.0220248664796337E8 ; 1.2181449806268153E9 ; 1.813428580349804E10 ; 0.0
99 ; 1.2080518377339145E7 ; 2.0221753839999592E8 ; 1.2302423266214237E9 ; 1.8336488290146004E10 ; 0.0
100 ; 1.2058256068979139E7 ; 2.0223260561570522E8 ; 1.2423228449987628E9 ; 1.8538705828546E10 ; 0.0
101 ; 1.2046068074379615E7 ; 2.0224768680210903E8 ; 1.2543811010677419E9 ; 1.8740938434161705E10 ; 0.0
102 ; 1.2025956422309007E7 ; 2.0226278050192627E8 ; 1.2664271691421216E9 ; 1.8943186120963814E10 ; 0.0
103 ; 1.2006091768176064E7 ; 2.0227788529239953E8 ; 1.2784531255644305E9 ; 1.914544890146574E10 ; 0.0
104 ; 1.1986603001582162E7 ; 2.022929997841578E8 ; 1.2904592173326066E9 ; 1.934772678675814E10 ; 0.0
105 ; 1.1972575200402832E7 ; 2.023081226201191E8 ; 1.3024458203341887E9 ; 1.9550019786542297E10 ; 0.0
106 ; 1.1952679380067706E7 ; 2.0232325247443083E8 ; 1.3144183955345914E9 ; 1.9752327909162415E10 ; 0.0
107 ; 1.1934315727910211E7 ; 2.023383880514476E8 ; 1.326371074914659E9 ; 1.9954651161636845E10 ; 0.0
108 ; 1.1915434328269275E7 ; 2.0235352808474475E8 ; 1.3383053906425693E9 ; 2.0156989549688293E10 ; 0.0
109 ; 1.1900747474012736E7 ; 2.0236867133616686E8 ; 1.3502208249708385E9 ; 2.0359343077773037E10 ; 0.0
110 ; 1.1878731174329609E7 ; 2.023838165949099E8 ; 1.3621215724448514E9 ; 2.0561711749109203E10 ; 0.0
111 ; 1.1862780848164741E7 ; 2.023989626766359E8 ; 1.374000303619181E9 ; 2.0764095565704113E10 ; 0.0
112 ; 1.1839198897871554E7 ; 2.0241410842261925E8 ; 1.3858630844673457E9 ; 2.096649452838075E10 ; 0.0
113 ; 1.1819698782598699E7 ; 2.0242925269892347E8 ; 1.3977022833652172E9 ; 2.1168908636803368E10 ; 0.0
114 ; 1.1803116524270568E7 ; 2.024443943956072E8 ; 1.409521982147816E9 ; 2.1371337889502293E10 ; 0.0
115 ; 1.1785405425197687E7 ; 2.0245953242595905E8 ; 1.4213250986720865E9 ; 2.15737822838979E10 ; 0.0
116 ; 1.1767376555041047E7 ; 2.0247466572575936E8 ; 1.433110504097284E9 ; 2.177624181632386E10 ; 0.0
117 ; 1.174434183661336E7 ; 2.0248979325256884E8 ; 1.4448778806523252E9 ; 2.1978716482049618E10 ; 0.0
118 ; 1.1727808926605497E7 ; 2.0250491398504257E8 ; 1.4566222224889386E9 ; 2.2181206275302185E10 ; 0.0
119 ; 1.170420339669322E7 ; 2.025200269222687E8 ; 1.468350031415544E9 ; 2.2383711189287228E10 ; 0.0
120 ; 1.1685500966051359E7 ; 2.0253513108313084E8 ; 1.4800542348122373E9 ; 2.2586231216209496E10 ; 0.0
121 ; 1.1668588769451499E7 ; 2.025502255056934E8 ; 1.4917397357782886E9 ; 2.2788766347292625E10 ; 0.0
122 ; 1.164509847410635E7 ; 2.0256530924660918E8 ; 1.50340832454774E9 ; 2.2991316572798317E10 ; 0.0
123 ; 1.162504299864471E7 ; 2.0258038138054773E8 ; 1.5150534230218463E9 ; 2.3193881882044926E10 ; 0.0
124 ; 1.1603748932666525E7 ; 2.025954409996449E8 ; 1.5266784660204911E9 ; 2.3396462263425472E10 ; 0.0
125 ; 1.158399039973338E7 ; 2.0261048721297148E8 ; 1.5382822149531577E9 ; 2.3599057704425117E10 ; 0.0
126 ; 1.1563897790466614E7 ; 2.0262551914602134E8 ; 1.549866205352891E9 ; 2.380166819163809E10 ; 0.0
127 ; 1.1546440625876108E7 ; 2.026405359402177E8 ; 1.5614301031433575E9 ; 2.400429371078411E10 ; 0.0
128 ; 1.15240422528739E7 ; 2.02655536752437E8 ; 1.5729765437692337E9 ; 2.4206934246724327E10 ; 0.0
129 ; 1.15037415720691E7 ; 2.026705207545499E8 ; 1.5845005860221076E9 ; 2.4409589783476765E10 ; 0.0
130 ; 1.148237512241512E7 ; 2.0268548713297844E8 ; 1.5960043275941768E9 ; 2.4612260304231316E10 ; 0.0
131 ; 1.145496210168501E7 ; 2.027004350882693E8 ; 1.6074867027165918E9 ; 2.4814945791364296E10 ; 0.0
132 ; 1.1432312075774098E7 ; 2.027153638346818E8 ; 1.618941664818277E9 ; 2.5017646226452564E10 ; 0.0
133 ; 1.140659234676987E7 ; 2.0273027259979096E8 ; 1.630373976894051E9 ; 2.5220361590287247E10 ; 0.0
134 ; 1.1376426415392827E7 ; 2.027451606241041E8 ; 1.641780569240821E9 ; 2.542309186288704E10 ; 0.0
135 ; 1.1356060232507784E7 ; 2.0276002716069162E8 ; 1.6531569956562138E9 ; 2.5625837023511143E10 ; 0.0
136 ; 1.133138805544923E7 ; 2.0277487147483012E8 ; 1.6645130558887215E9 ; 2.5828597050671833E10 ; 0.0
137 ; 1.1305398177923612E7 ; 2.0278969284365872E8 ; 1.6758444439441707E9 ; 2.6031371922146664E10 ; 0.0
138 ; 1.1280210389742717E7 ; 2.0280449055584696E8 ; 1.6871498421220944E9 ; 2.6234161614990322E10 ; 0.0
139 ; 1.1256345843381481E7 ; 2.0281926391127458E8 ; 1.698430052511837E9 ; 2.643696610554617E10 ; 0.0
140 ; 1.1229894882409235E7 ; 2.028340122207226E8 ; 1.7096863983552184E9 ; 2.6639785369457443E10 ; 0.0
141 ; 1.1203961751414623E7 ; 2.0284873480557477E8 ; 1.7209162932376277E9 ; 2.6842619381678165E10 ; 0.0
142 ; 1.1172631226654764E7 ; 2.0286343099752995E8 ; 1.7321202549890423E9 ; 2.704546811648374E10 ; 0.0
143 ; 1.1149734470931983E7 ; 2.0287810013832405E8 ; 1.743292886215697E9 ; 2.724833154748127E10 ; 0.0
144 ; 1.1122738940489138E7 ; 2.0289274157946178E8 ; 1.754442620686629E9 ; 2.7451209647619595E10 ; 0.0
145 ; 1.110335319034632E7 ; 2.0290735468195772E8 ; 1.765565359627118E9 ; 2.7654102389199055E10 ; 0.0
146 ; 1.1086067048568148E7 ; 2.029219388160862E8 ; 1.7766687128174644E9 ; 2.7857009743881012E10 ; 0.0
147 ; 1.1059893136502525E7 ; 2.0293649336113983E8 ; 1.7877547798660326E9 ; 2.8059931682697098E10 ; 0.0
148 ; 1.1040637414790856E7 ; 2.0295101770519635E8 ; 1.798814673002535E9 ; 2.826286817605824E10 ; 0.0
149 ; 1.1020650488053491E7 ; 2.029655112448933E8 ; 1.809855310417326E9 ; 2.8465819193763435E10 ; 0.0
150 ; 1.0996486020037461E7 ; 2.0297997338521075E8 ; 1.8208759609053795E9 ; 2.8668784705008327E10 ; 0.0
151 ; 1.0973084204005644E7 ; 2.029944035392609E8 ; 1.831872446925417E9 ; 2.887176467839354E10 ; 0.0
152 ; 1.0954188631324837E7 ; 2.0300880112808523E8 ; 1.8428455311294227E9 ; 2.90747590819328E10 ; 0.0
153 ; 1.093088798410806E7 ; 2.030231655804584E8 ; 1.8537997197607474E9 ; 2.9277767883060886E10 ; 0.0
154 ; 1.0910671807787798E7 ; 2.0303749633269867E8 ; 1.8647306077448554E9 ; 2.9480791048641346E10 ; 0.0
155 ; 1.08888471335859E7 ; 2.0305179282848486E8 ; 1.8756412795526433E9 ; 2.9683828544974045E10 ; 0.0
156 ; 1.0873729549755443E7 ; 2.0306605451867938E8 ; 1.8865301266862292E9 ; 2.988688033780253E10 ; 0.0
157 ; 1.0847074724006036E7 ; 2.0308028086115706E8 ; 1.8974038562359846E9 ; 3.008994639232121E10 ; 0.0
158 ; 1.0825838617581988E7 ; 2.0309447132064006E8 ; 1.9082509309599905E9 ; 3.0293026673182365E10 ; 0.0
159 ; 1.0801230942614691E7 ; 2.0310862536853778E8 ; 1.9190767695775726E9 ; 3.0496121144503006E10 ; 0.0
160 ; 1.0779644288002936E7 ; 2.031227424827926E8 ; 1.9298780005201874E9 ; 3.0699229769871544E10 ; 0.0
161 ; 1.076273788215488E7 ; 2.031368221477303E8 ; 1.9406576448081903E9 ; 3.0902352512354336E10 ; 0.0
162 ; 1.073886278980463E7 ; 2.031508638539157E8 ; 1.9514203826903453E9 ; 3.1105489334502068E10 ; 0.0
163 ; 1.071603994303037E7 ; 2.0316486709801286E8 ; 1.96215924548015E9 ; 3.1308640198355984E10 ; 0.0
164 ; 1.069532149366365E7 ; 2.031788313826502E8 ; 1.9728752854231803E9 ; 3.1511805065453995E10 ; 0.0
165 ; 1.0673004839745037E7 ; 2.0319275621628952E8 ; 1.983570606916844E9 ; 3.1714983896836643E10 ; 0.0
166 ; 1.065198302335276E7 ; 2.032066411130998E8 ; 1.994243611756589E9 ; 3.1918176653052933E10 ; 0.0
167 ; 1.0628019745261934E7 ; 2.032204855928349E8 ; 2.0048955947799418E9 ; 3.212138329416603E10 ; 0.0
168 ; 1.060584632892728E7 ; 2.0323428918071508E8 ; 2.0155236145252037E9 ; 3.2324603779758865E10 ; 0.0
169 ; 1.0582507873514324E7 ; 2.0324805140731272E8 ; 2.026129460854131E9 ; 3.252783806893958E10 ; 0.0
170 ; 1.0561494745489528E7 ; 2.0326177180844146E8 ; 2.0367119687276454E9 ; 3.2731086120346893E10 ; 0.0
171 ; 1.0539156267550368E7 ; 2.03275449925049E8 ; 2.047273463473135E9 ; 3.2934347892155334E10 ; 0.0
172 ; 1.051676055784534E7 ; 2.032890853031134E8 ; 2.0578126197406855E9 ; 3.3137623342080383E10 ; 0.0
173 ; 1.0497523162991423E7 ; 2.033026774935425E8 ; 2.0683293802985308E9 ; 3.3340912427383495E10 ; 0.0
174 ; 1.0480481735636508E7 ; 2.0331622605207688E8 ; 2.0788269034615223E9 ; 3.3544215104877037E10 ; 0.0
175 ; 1.0457212217306035E7 ; 2.0332973053919572E8 ; 2.0893073851971588E9 ; 3.3747531330929115E10 ; 0.0
176 ; 1.0439615924531443E7 ; 2.033431905200256E8 ; 2.099764597414465E9 ; 3.395086106146831E10 ; 0.0
177 ; 1.0417635948007654E7 ; 2.0335660556425244E8 ; 2.1102042133389964E9 ; 3.415420425198834E10 ; 0.0
178 ; 1.0399983725516537E7 ; 2.0336997524603587E8 ; 2.120621849287004E9 ; 3.435756085755259E10 ; 0.0
179 ; 1.0381503005541863E7 ; 2.033832991439267E8 ; 2.1310218330125206E9 ; 3.456093083279862E10 ; 0.0
180 ; 1.0363125251714956E7 ; 2.0339657684078667E8 ; 2.1414033360180624E9 ; 3.476431413194255E10 ; 0.0
181 ; 1.0345401832855765E7 ; 2.0340980792371094E8 ; 2.1517664612697773E9 ; 3.496771070878334E10 ; 0.0
182 ; 1.0324063722255087E7 ; 2.034229919839529E8 ; 2.162111863102633E9 ; 3.5171120516707054E10 ; 0.0
183 ; 1.0305873054305274E7 ; 2.0343612861685136E8 ; 2.172435926824888E9 ; 3.537454350869101E10 ; 0.0
184 ; 1.0283401295530783E7 ; 2.0344921742176E8 ; 2.1827417998791933E9 ; 3.557797963730786E10 ; 0.0
185 ; 1.0268895975302083E7 ; 2.034622580019791E8 ; 2.193025201174724E9 ; 3.578142885472962E10 ; 0.0
186 ; 1.0253848189186968E7 ; 2.0347524996468922E8 ; 2.2032940971500263E9 ; 3.59848911127316E10 ; 0.0
187 ; 1.0226943124832291E7 ; 2.0348819292088717E8 ; 2.2135479453392134E9 ; 3.618836636269629E10 ; 0.0
188 ; 1.0210423452183736E7 ; 2.0350108648532373E8 ; 2.2237748884640455E9 ; 3.639185455561718E10 ; 0.0
189 ; 1.0190877470633546E7 ; 2.0351393027644342E8 ; 2.2339853119162292E9 ; 3.65953556421025E10 ; 0.0
190 ; 1.0174926065804861E7 ; 2.0352672391632617E8 ; 2.2441761893868628E9 ; 3.6798869572378944E10 ; 0.0
191 ; 1.0150058407446628E7 ; 2.0353946703063062E8 ; 2.2543511154526677E9 ; 3.700239629629527E10 ; 0.0
192 ; 1.0134870309231909E7 ; 2.0355215924853936E8 ; 2.2645011738601146E9 ; 3.7205935763325905E10 ; 0.0
193 ; 1.011444532148972E7 ; 2.035648002027057E8 ; 2.2746360441693463E9 ; 3.740948792257445E10 ; 0.0
194 ; 1.0098301265897298E7 ; 2.0357738952920207E8 ; 2.284750489490836E9 ; 3.761305272277715E10 ; 0.0
195 ; 1.0080209856098711E7 ; 2.035899268674701E8 ; 2.2948487907567334E9 ; 3.781663011230636E10 ; 0.0
