CSV File for the City 6 on Day 345
1 - Minute m 
2 - Power Consumed at minute m 
3 - Power Produced at minute m 
4 - Energy Consumed since the beginning of the day 
5 - Energy Produced since the beginning of the day 
6 - Energy Lost since the beginning of the day on lines starting from the city
 
0 ; 1.1185055164578732E7 ; 1.0626813945962599E8 ; 0.0 ; 0.0 ; 0.0
1 ; 1.119379182850337E7 ; 1.0641905536470324E8 ; 1.1185055164578732E7 ; 1.0626813945962599E8 ; 0.0
2 ; 1.1205775100176962E7 ; 1.0687896204354492E8 ; 2.2378846993082102E7 ; 2.1268719482432923E8 ; 0.0
3 ; 1.1220672246474378E7 ; 1.076478626434201E8 ; 3.358462209325907E7 ; 3.1956615686787415E8 ; 0.0
4 ; 1.123600633713955E7 ; 1.0872575997791946E8 ; 4.4805294339733444E7 ; 4.2721401951129425E8 ; 0.0
5 ; 1.1255903845442E7 ; 1.101126565137232E8 ; 5.6041300676873E7 ; 5.359397794892137E8 ; 0.0
6 ; 1.1284836723369732E7 ; 1.1180855435881409E8 ; 6.7297204522315E7 ; 6.460524360029368E8 ; 0.0
7 ; 1.1320301474013323E7 ; 1.1381345525226599E8 ; 7.858204124568473E7 ; 7.57860990361751E8 ; 0.0
8 ; 1.1375823418707144E7 ; 1.161273605557226E8 ; 8.990234271969806E7 ; 8.71674445614017E8 ; 0.0
9 ; 1.145617968355353E7 ; 1.1875027124666458E8 ; 1.012781661384052E8 ; 9.878018061697396E8 ; 0.0
10 ; 1.1581754754991675E7 ; 1.2168218791354334E8 ; 1.1273434582195874E8 ; 1.1065520774164042E9 ; 0.0
11 ; 1.177673122101279E7 ; 1.2492311075283745E8 ; 1.2431610057695042E8 ; 1.2282342653299475E9 ; 0.0
12 ; 1.2092316246575896E7 ; 1.284730395680683E8 ; 1.360928317979632E8 ; 1.353157376082785E9 ; 0.0
13 ; 1.2397564146472048E7 ; 1.323319737707845E8 ; 1.481851480445391E8 ; 1.4816304156508532E9 ; 0.0
14 ; 1.2435386079859892E7 ; 1.3649991238350546E8 ; 1.6058271219101113E8 ; 1.6139623894216375E9 ; 0.0
15 ; 1.2450726213461857E7 ; 1.4097685404458737E8 ; 1.73018098270871E8 ; 1.7504623018051429E9 ; 0.0
16 ; 1.2464055428194232E7 ; 1.457627970149565E8 ; 1.8546882448433286E8 ; 1.8914391558497303E9 ; 0.0
17 ; 1.2478810994483879E7 ; 1.5085773918662998E8 ; 1.9793287991252708E8 ; 2.0372019528646867E9 ; 0.0
18 ; 1.2492722526408283E7 ; 1.5626167809292763E8 ; 2.1041169090701097E8 ; 2.1880596920513167E9 ; 0.0
19 ; 1.250856840673378E7 ; 1.619746109202588E8 ; 2.2290441343341926E8 ; 2.344321370144244E9 ; 0.0
20 ; 1.2523389594367398E7 ; 1.6799653452135435E8 ; 2.3541298184015304E8 ; 2.506295981064503E9 ; 0.0
21 ; 1.2532640870764438E7 ; 1.7432744542980054E8 ; 2.4793637143452042E8 ; 2.6742925155858574E9 ; 0.0
22 ; 1.255222350339893E7 ; 1.8096733987572157E8 ; 2.6046901230528486E8 ; 2.848619961015658E9 ; 0.0
23 ; 1.2563916941547459E7 ; 1.8791621380245137E8 ; 2.730212358086838E8 ; 3.0295873008913794E9 ; 0.0
24 ; 1.2581403383660043E7 ; 1.9517406288402843E8 ; 2.8558515275023127E8 ; 3.2175035146938305E9 ; 0.0
25 ; 1.2594558020639965E7 ; 2.014289234415335E8 ; 2.981665561338913E8 ; 3.412677577577859E9 ; 0.0
26 ; 1.2611010660485841E7 ; 2.0143433849863088E8 ; 3.1076111415453124E8 ; 3.6141065010193925E9 ; 0.0
27 ; 1.2624051848047078E7 ; 2.0144007232544875E8 ; 3.233721248150171E8 ; 3.8155408395180235E9 ; 0.0
28 ; 1.263912700442159E7 ; 2.0144611970450264E8 ; 3.359961766630642E8 ; 4.0169809118434725E9 ; 0.0
29 ; 1.2652790266033793E7 ; 2.014524752431173E8 ; 3.486353036674858E8 ; 4.218427031547975E9 ; 0.0
30 ; 1.2666967049762134E7 ; 2.014591333924894E8 ; 3.6128809393351954E8 ; 4.419879506791092E9 ; 0.0
31 ; 1.2682747543168861E7 ; 2.0146608846650648E8 ; 3.739550609832817E8 ; 4.621338640183581E9 ; 0.0
32 ; 1.2692455846301837E7 ; 2.0147333466020456E8 ; 3.866378085264505E8 ; 4.822804728650087E9 ; 0.0
33 ; 1.2706481896113178E7 ; 2.0148086606775868E8 ; 3.9933026437275237E8 ; 5.024278063310292E9 ; 0.0
34 ; 1.2718129636527829E7 ; 2.0148867669991335E8 ; 4.120367462688655E8 ; 5.225758929378051E9 ; 0.0
35 ; 1.273039812626149E7 ; 2.0149676050077245E8 ; 4.2475487590539336E8 ; 5.427247606077964E9 ; 0.0
36 ; 1.2742881531203352E7 ; 2.0150511136388093E8 ; 4.3748527403165483E8 ; 5.628744366578736E9 ; 0.0
37 ; 1.2755103126397477E7 ; 2.015137231475434E8 ; 4.5022815556285816E8 ; 5.830249477942617E9 ; 0.0
38 ; 1.2764767180465437E7 ; 2.0152258968933594E8 ; 4.6298325868925565E8 ; 6.03176320109016E9 ; 0.0
39 ; 1.277436145192456E7 ; 2.0153170481977943E8 ; 4.757480258697211E8 ; 6.233285790779496E9 ; 0.0
40 ; 1.278171434986808E7 ; 2.0154106237515283E8 ; 4.885223873216457E8 ; 6.434817495599276E9 ; 0.0
41 ; 1.2796879962369338E7 ; 2.01550656209435E8 ; 5.0130410167151374E8 ; 6.636358557974428E9 ; 0.0
42 ; 1.2803469002376812E7 ; 2.0156048020537177E8 ; 5.1410098163388306E8 ; 6.837909214183863E9 ; 0.0
43 ; 1.2811775441138782E7 ; 2.0157052828467432E8 ; 5.2690445063625985E8 ; 7.039469694389235E9 ; 0.0
44 ; 1.2817685707926292E7 ; 2.0158079441736E8 ; 5.397162260773987E8 ; 7.241040222673909E9 ; 0.0
45 ; 1.2828129003002249E7 ; 2.0159127263025454E8 ; 5.525339117853249E8 ; 7.4426210170912695E9 ; 0.0
46 ; 1.2834231958552873E7 ; 2.0160195701467893E8 ; 5.653620407883272E8 ; 7.644212289721524E9 ; 0.0
47 ; 1.2841251381066626E7 ; 2.0161284173334873E8 ; 5.7819627274688E8 ; 7.845814246736203E9 ; 0.0
48 ; 1.2847719805072144E7 ; 2.01623921026517E8 ; 5.910375241279467E8 ; 8.047427088469552E9 ; 0.0
49 ; 1.2849250920371087E7 ; 2.0163518921739513E8 ; 6.038852439330189E8 ; 8.249051009496069E9 ; 0.0
50 ; 1.2855119566677637E7 ; 2.0164664071688747E8 ; 6.1673449485339E8 ; 8.450686198713464E9 ; 0.0
51 ; 1.285654970550409E7 ; 2.0165827002767757E8 ; 6.295896144200677E8 ; 8.652332839430351E9 ; 0.0
52 ; 1.286572028510505E7 ; 2.016700717477042E8 ; 6.424461641255717E8 ; 8.853991109458029E9 ; 0.0
53 ; 1.286851908430356E7 ; 2.0168204057306623E8 ; 6.553118844106767E8 ; 9.055661181205732E9 ; 0.0
54 ; 1.2871229550804665E7 ; 2.0169417130039486E8 ; 6.681804034949803E8 ; 9.2573432217788E9 ; 0.0
55 ; 1.2877656119175881E7 ; 2.0170645882873195E8 ; 6.81051633045785E8 ; 9.459037393079193E9 ; 0.0
56 ; 1.2879565072366942E7 ; 2.017188981609515E8 ; 6.939292891649609E8 ; 9.660743851907925E9 ; 0.0
57 ; 1.288336698475907E7 ; 2.0173148440476146E8 ; 7.068088542373278E8 ; 9.862462750068876E9 ; 0.0
58 ; 1.2885916904057937E7 ; 2.0174421277332065E8 ; 7.196922212220869E8 ; 1.0064194234473639E10 ; 0.0
59 ; 1.289044317463928E7 ; 2.0175707858550537E8 ; 7.325781381261449E8 ; 1.026593844724696E10 ; 0.0
60 ; 1.2893399887181355E7 ; 2.0177007726585758E8 ; 7.454685813007841E8 ; 1.0467695525832464E10 ; 0.0
61 ; 1.2894571331031121E7 ; 2.01783204344246E8 ; 7.583619811879655E8 ; 1.0669465603098322E10 ; 0.0
62 ; 1.28979073897245E7 ; 2.0179645545526925E8 ; 7.712565525189966E8 ; 1.0871248807442568E10 ; 0.0
63 ; 1.2902135161817798E7 ; 2.0180982633742803E8 ; 7.841544599087211E8 ; 1.1073045262897837E10 ; 0.0
64 ; 1.2906120677138118E7 ; 2.0182331283209303E8 ; 7.970565950705389E8 ; 1.1274855089235264E10 ; 0.0
65 ; 1.290696844944944E7 ; 2.018369108822918E8 ; 8.09962715747677E8 ; 1.1476678402067356E10 ; 0.0
66 ; 1.290765558424631E7 ; 2.0185061653133765E8 ; 8.228696841971264E8 ; 1.1678515312949648E10 ; 0.0
67 ; 1.2916381100522786E7 ; 2.0186442592132092E8 ; 8.357773397813727E8 ; 1.1880365929480986E10 ; 0.0
68 ; 1.2913471061210789E7 ; 2.0187833529148212E8 ; 8.486937208818954E8 ; 1.2082230355402306E10 ; 0.0
69 ; 1.2919509006451972E7 ; 2.018923409764845E8 ; 8.616071919431062E8 ; 1.2284108690693789E10 ; 0.0
70 ; 1.2917365057637114E7 ; 2.0190643940460244E8 ; 8.745267009495581E8 ; 1.2486001031670273E10 ; 0.0
71 ; 1.2920061493043957E7 ; 2.019206270958401E8 ; 8.874440660071952E8 ; 1.2687907471074875E10 ; 0.0
72 ; 1.2919588095578678E7 ; 2.0193490065999448E8 ; 9.003641275002391E8 ; 1.2889828098170715E10 ; 0.0
73 ; 1.2922754337900082E7 ; 2.0194925679467458E8 ; 9.132837155958178E8 ; 1.309176299883071E10 ; 0.0
74 ; 1.292341159516517E7 ; 2.019636922832882E8 ; 9.262064699337178E8 ; 1.3293712255625383E10 ; 0.0
75 ; 1.2926254707417598E7 ; 2.019782039930063E8 ; 9.39129881528883E8 ; 1.3495675947908672E10 ; 0.0
76 ; 1.292985846691009E7 ; 2.0199278887271348E8 ; 9.520561362363006E8 ; 1.3697654151901678E10 ; 0.0
77 ; 1.2926255061479904E7 ; 2.0200744395095378E8 ; 9.649859947032107E8 ; 1.3899646940774391E10 ; 0.0
78 ; 1.2929816062955689E7 ; 2.0202216633387765E8 ; 9.779122497646906E8 ; 1.4101654384725346E10 ; 0.0
79 ; 1.2926141020025652E7 ; 2.020369532031972E8 ; 9.908420658276464E8 ; 1.4303676551059223E10 ; 0.0
80 ; 1.292342708191031E7 ; 2.020518018141557E8 ; 1.003768206847672E9 ; 1.450571350426242E10 ; 0.0
81 ; 1.291753540442957E7 ; 2.0206670949351504E8 ; 1.0166916339295822E9 ; 1.4707765306076576E10 ; 0.0
82 ; 1.2918175982058825E7 ; 2.02081673637567E8 ; 1.0296091693340118E9 ; 1.4909832015570091E10 ; 0.0
83 ; 1.2912136447614329E7 ; 2.0209669171017092E8 ; 1.0425273453160707E9 ; 1.5111913689207659E10 ; 0.0
84 ; 1.2908243568333466E7 ; 2.021117612408214E8 ; 1.055439481763685E9 ; 1.531401038091783E10 ; 0.0
85 ; 1.290609698788707E7 ; 2.0212687982274878E8 ; 1.0683477253320185E9 ; 1.5516122142158651E10 ; 0.0
86 ; 1.2904511751122631E7 ; 2.0214204511105487E8 ; 1.0812538223199055E9 ; 1.57182490219814E10 ; 0.0
87 ; 1.2897822254903486E7 ; 2.0215725482088524E8 ; 1.0941583340710282E9 ; 1.5920391067092455E10 ; 0.0
88 ; 1.2894539655315896E7 ; 2.0217250672564054E8 ; 1.1070561563259318E9 ; 1.612254832191334E10 ; 0.0
89 ; 1.2894376262770532E7 ; 2.02187798655227E8 ; 1.1199506959812477E9 ; 1.632472082863898E10 ; 0.0
90 ; 1.2888622738387514E7 ; 2.0220312849434835E8 ; 1.132845072244018E9 ; 1.6526908627294209E10 ; 0.0
91 ; 1.2885790435565904E7 ; 2.0221849418083838E8 ; 1.1457336949824057E9 ; 1.6729111755788557E10 ; 0.0
92 ; 1.2879996754710497E7 ; 2.0223389370403618E8 ; 1.1586194854179716E9 ; 1.6931330249969395E10 ; 0.0
93 ; 1.2872293411229223E7 ; 2.022493251032029E8 ; 1.171499482172682E9 ; 1.7133564143673431E10 ; 0.0
94 ; 1.2875306147106256E7 ; 2.0226478646598125E8 ; 1.1843717755839112E9 ; 1.7335813468776634E10 ; 0.0
95 ; 1.2869331532824349E7 ; 2.022802759268968E8 ; 1.1972470817310174E9 ; 1.7538078255242615E10 ; 0.0
96 ; 1.2859793332031263E7 ; 2.022957916659017E8 ; 1.2101164132638416E9 ; 1.774035853116951E10 ; 0.0
97 ; 1.28562132980279E7 ; 2.023113319069596E8 ; 1.2229762065958729E9 ; 1.794265432283541E10 ; 0.0
98 ; 1.2851233650244895E7 ; 2.0232689491667223E8 ; 1.2358324198939009E9 ; 1.814496565474237E10 ; 0.0
99 ; 1.2847382891044594E7 ; 2.0234247900294644E8 ; 1.2486836535441458E9 ; 1.8347292549659042E10 ; 0.0
100 ; 1.284266682609975E7 ; 2.0235808251370144E8 ; 1.2615310364351904E9 ; 1.8549635028661987E10 ; 0.0
101 ; 1.2837184983236644E7 ; 2.0237370383561546E8 ; 1.27437370326129E9 ; 1.875199311117569E10 ; 0.0
102 ; 1.2830540292531593E7 ; 2.0238934139291126E8 ; 1.2872108882445266E9 ; 1.8954366815011307E10 ; 0.0
103 ; 1.2826342811335955E7 ; 2.0240499364617935E8 ; 1.300041428537058E9 ; 1.9156756156404217E10 ; 0.0
104 ; 1.282110794928032E7 ; 2.0242065909123874E8 ; 1.3128677713483942E9 ; 1.9359161150050396E10 ; 0.0
105 ; 1.2819298393529603E7 ; 2.0243633625803363E8 ; 1.3256888792976744E9 ; 1.9561581809141636E10 ; 0.0
106 ; 1.2808391913699752E7 ; 2.0245202370956588E8 ; 1.338508177691204E9 ; 1.976401814539967E10 ; 0.0
107 ; 1.280240783329226E7 ; 2.0246772004086193E8 ; 1.351316569604904E9 ; 1.9966470169109234E10 ; 0.0
108 ; 1.2799619758099938E7 ; 2.024834238779734E8 ; 1.3641189774381962E9 ; 2.0168937889150097E10 ; 0.0
109 ; 1.2793632416507872E7 ; 2.0249913387701058E8 ; 1.3769185971962962E9 ; 2.037142131302807E10 ; 0.0
110 ; 1.2783963090406174E7 ; 2.0251484872320795E8 ; 1.3897122296128042E9 ; 2.057392044690508E10 ; 0.0
111 ; 1.277723949042343E7 ; 2.025305671300204E8 ; 1.4024961927032104E9 ; 2.077643529562829E10 ; 0.0
112 ; 1.2771577198892497E7 ; 2.0254628783824995E8 ; 1.4152734321936338E9 ; 2.097896586275831E10 ; 0.0
113 ; 1.2762815509370252E7 ; 2.0256200961520144E8 ; 1.4280450093925264E9 ; 2.1181512150596558E10 ; 0.0
114 ; 1.2760838738186669E7 ; 2.0257773125386682E8 ; 1.4408078249018967E9 ; 2.1384074160211758E10 ; 0.0
115 ; 1.275320866225282E7 ; 2.0259345157213682E8 ; 1.4535686636400833E9 ; 2.1586651891465626E10 ; 0.0
116 ; 1.274578405753732E7 ; 2.0260916941203928E8 ; 1.4663218723023362E9 ; 2.178924534303776E10 ; 0.0
117 ; 1.2738471893313527E7 ; 2.0262488363900328E8 ; 1.4790676563598735E9 ; 2.1991854512449802E10 ; 0.0
118 ; 1.2732395066220418E7 ; 2.0264059314114845E8 ; 1.4918061282531872E9 ; 2.2194479396088806E10 ; 0.0
119 ; 1.2722510083260966E7 ; 2.0265629682859823E8 ; 1.5045385233194077E9 ; 2.2397119989229954E10 ; 0.0
120 ; 1.2718732373114916E7 ; 2.026719936328168E8 ; 1.5172610334026687E9 ; 2.259977628605855E10 ; 0.0
121 ; 1.2709758543537542E7 ; 2.0268768250596827E8 ; 1.5299797657757835E9 ; 2.280244827969137E10 ; 0.0
122 ; 1.2701496537218543E7 ; 2.0270336242029828E8 ; 1.5426895243193212E9 ; 2.300513596219734E10 ; 0.0
123 ; 1.2693152655538209E7 ; 2.0271903236753625E8 ; 1.5553910208565397E9 ; 2.3207839324617638E10 ; 0.0
124 ; 1.2684205409576908E7 ; 2.027346913583184E8 ; 1.568084173512078E9 ; 2.3410558356985172E10 ; 0.0
125 ; 1.2682162477411928E7 ; 2.027503384216304E8 ; 1.580768378921655E9 ; 2.361329304834349E10 ; 0.0
126 ; 1.2672818846341714E7 ; 2.0276597260426927E8 ; 1.593450541399067E9 ; 2.381604338676512E10 ; 0.0
127 ; 1.2663635965539698E7 ; 2.0278159297032326E8 ; 1.6061233602454085E9 ; 2.4018809359369392E10 ; 0.0
128 ; 1.2653947223608168E7 ; 2.0279719860067013E8 ; 1.6187869962109482E9 ; 2.4221590952339714E10 ; 0.0
129 ; 1.2642247297531527E7 ; 2.028127885924921E8 ; 1.6314409434345565E9 ; 2.4424388150940384E10 ; 0.0
130 ; 1.263715756395265E7 ; 2.0282836205880764E8 ; 1.644083190732088E9 ; 2.4627200939532875E10 ; 0.0
131 ; 1.2624139372864218E7 ; 2.0284391812801933E8 ; 1.6567203482960408E9 ; 2.4830029301591682E10 ; 0.0
132 ; 1.2613058000081891E7 ; 2.0285945594347677E8 ; 1.669344487668905E9 ; 2.5032873219719704E10 ; 0.0
133 ; 1.259804854543431E7 ; 2.0287497466305494E8 ; 1.6819575456689868E9 ; 2.523573267566318E10 ; 0.0
134 ; 1.2584962118492173E7 ; 2.0289047345874646E8 ; 1.694555594214421E9 ; 2.5438607650326237E10 ; 0.0
135 ; 1.2568598961161012E7 ; 2.0290595151626801E8 ; 1.7071405563329132E9 ; 2.5641498123784985E10 ; 0.0
136 ; 1.2557927939357277E7 ; 2.029214080346801E8 ; 1.719709155294074E9 ; 2.5844404075301254E10 ; 0.0
137 ; 1.2545553050083375E7 ; 2.0293684222601953E8 ; 1.7322670832334313E9 ; 2.6047325483335934E10 ; 0.0
138 ; 1.2534667236510918E7 ; 2.029522533149446E8 ; 1.7448126362835147E9 ; 2.6250262325561954E10 ; 0.0
139 ; 1.2518402212140478E7 ; 2.029676405383922E8 ; 1.7573473035200257E9 ; 2.64532145788769E10 ; 0.0
140 ; 1.250753999844747E7 ; 2.029830031452464E8 ; 1.7698657057321663E9 ; 2.665618221941529E10 ; 0.0
141 ; 1.24908342249934E7 ; 2.0299834039601845E8 ; 1.7823732457306137E9 ; 2.6859165222560535E10 ; 0.0
142 ; 1.247809880411027E7 ; 2.0301365156253734E8 ; 1.7948640799556072E9 ; 2.7062163562956554E10 ; 0.0
143 ; 1.2466157491114562E7 ; 2.030289359276508E8 ; 1.8073421787597175E9 ; 2.7265177214519093E10 ; 0.0
144 ; 1.2451720212878682E7 ; 2.0304419278493652E8 ; 1.819808336250832E9 ; 2.7468206150446743E10 ; 0.0
145 ; 1.244252356711758E7 ; 2.030594214384227E8 ; 1.8322600564637108E9 ; 2.7671250343231678E10 ; 0.0
146 ; 1.2433760933359822E7 ; 2.030746212023183E8 ; 1.8447025800308285E9 ; 2.78743097646701E10 ; 0.0
147 ; 1.2426940934076115E7 ; 2.030897914007521E8 ; 1.8571363409641883E9 ; 2.807738438587242E10 ; 0.0
148 ; 1.2419000150005922E7 ; 2.0310493136752033E8 ; 1.8695632818982644E9 ; 2.8280474177273174E10 ; 0.0
149 ; 1.2408916001557104E7 ; 2.0312004044584304E8 ; 1.8819822820482702E9 ; 2.8483579108640694E10 ; 0.0
150 ; 1.2397491912522089E7 ; 2.031351179881282E8 ; 1.8943911980498273E9 ; 2.8686699149086536E10 ; 0.0
151 ; 1.238778215197656E7 ; 2.0315016335574362E8 ; 1.9067886899623494E9 ; 2.8889834267074665E10 ; 0.0
152 ; 1.2377449751546334E7 ; 2.0316517591879675E8 ; 1.919176472114326E9 ; 2.909298443043041E10 ; 0.0
153 ; 1.2369564929719035E7 ; 2.0318015505592135E8 ; 1.9315539218658724E9 ; 2.9296149606349205E10 ; 0.0
154 ; 1.2354869879310815E7 ; 2.031951001540712E8 ; 1.9439234867955914E9 ; 2.9499329761405125E10 ; 0.0
155 ; 1.2350466228536427E7 ; 2.0321001060832086E8 ; 1.9562783566749022E9 ; 2.9702524861559196E10 ; 0.0
156 ; 1.234088121373366E7 ; 2.032248858216726E8 ; 1.9686288229034386E9 ; 2.990573487216752E10 ; 0.0
157 ; 1.2331422109972961E7 ; 2.0323972520486987E8 ; 1.9809697041171722E9 ; 3.0108959757989193E10 ; 0.0
158 ; 1.232258478702557E7 ; 2.0325452817621666E8 ; 1.9933011262271452E9 ; 3.031219948319406E10 ; 0.0
159 ; 1.2314492738038672E7 ; 2.032692941614029E8 ; 2.0056237110141706E9 ; 3.0515454011370277E10 ; 0.0
160 ; 1.2296811759386655E7 ; 2.0328402259333542E8 ; 2.0179382037522094E9 ; 3.071872330553168E10 ; 0.0
161 ; 1.2294574087687572E7 ; 2.0329871291197425E8 ; 2.030235015511596E9 ; 3.0922007328125015E10 ; 0.0
162 ; 1.2284677248917218E7 ; 2.0331336456417444E8 ; 2.0425295895992835E9 ; 3.112530604103699E10 ; 0.0
163 ; 1.2276389513926547E7 ; 2.0332797700353283E8 ; 2.0548142668482006E9 ; 3.1328619405601166E10 ; 0.0
164 ; 1.2264462344233574E7 ; 2.0334254969023973E8 ; 2.067090656362127E9 ; 3.15319473826047E10 ; 0.0
165 ; 1.2251237558366276E7 ; 2.033570820909353E8 ; 2.0793551187063606E9 ; 3.1735289932294937E10 ; 0.0
166 ; 1.2242392176872173E7 ; 2.0337157367857072E8 ; 2.0916063562647269E9 ; 3.193864701438587E10 ; 0.0
167 ; 1.2232928575347077E7 ; 2.033860239322735E8 ; 2.1038487484415991E9 ; 3.214201858806444E10 ; 0.0
168 ; 1.221883753996832E7 ; 2.0340043233721733E8 ; 2.1160816770169463E9 ; 3.2345404611996716E10 ; 0.0
169 ; 1.2212028656315682E7 ; 2.0341479838449574E8 ; 2.1283005145569146E9 ; 3.254880504433393E10 ; 0.0
170 ; 1.2203124839658879E7 ; 2.0342912157100016E8 ; 2.1405125432132301E9 ; 3.2752219842718426E10 ; 0.0
171 ; 1.2192063612000495E7 ; 2.0344340139930144E8 ; 2.152715668052889E9 ; 3.2955648964289425E10 ; 0.0
172 ; 1.2182409811119445E7 ; 2.034576373775353E8 ; 2.1649077316648893E9 ; 3.3159092365688725E10 ; 0.0
173 ; 1.217162424433271E7 ; 2.034718290192915E8 ; 2.177090141476009E9 ; 3.336255000306626E10 ; 0.0
174 ; 1.2163815054245856E7 ; 2.0348597584350595E8 ; 2.1892617657203417E9 ; 3.3566021832085552E10 ; 0.0
175 ; 1.2158414506961092E7 ; 2.0350007737435696E8 ; 2.2014255807745876E9 ; 3.3769507807929058E10 ; 0.0
176 ; 1.2154008942886828E7 ; 2.03514133141164E8 ; 2.2135839952815485E9 ; 3.3973007885303413E10 ; 0.0
177 ; 1.2151931782702677E7 ; 2.0352814267829013E8 ; 2.2257380042244353E9 ; 3.4176522018444576E10 ; 0.0
178 ; 1.2143559587537877E7 ; 2.0354210552504712E8 ; 2.237889936007138E9 ; 3.438005016112286E10 ; 0.0
179 ; 1.21350323692567E7 ; 2.0355602122560373E8 ; 2.2500334955946755E9 ; 3.458359226664791E10 ; 0.0
180 ; 1.2127076274121871E7 ; 2.035698893288966E8 ; 2.262168527963932E9 ; 3.478714828787351E10 ; 0.0
181 ; 1.2122048885834724E7 ; 2.0358370938854414E8 ; 2.274295604238054E9 ; 3.499071817720241E10 ; 0.0
182 ; 1.2117717255125476E7 ; 2.0359748096276283E8 ; 2.2864176531238885E9 ; 3.519430188659095E10 ; 0.0
183 ; 1.2111118773761988E7 ; 2.0361120361428627E8 ; 2.298535370379014E9 ; 3.539789936755371E10 ; 0.0
184 ; 1.2101524870209185E7 ; 2.0362487691028655E8 ; 2.310646489152776E9 ; 3.5601510571168E10 ; 0.0
185 ; 1.2099271425552106E7 ; 2.036385004222981E8 ; 2.322748014022985E9 ; 3.5805135448078285E10 ; 0.0
186 ; 1.2092043716178896E7 ; 2.03652073726144E8 ; 2.334847285448537E9 ; 3.600877394850058E10 ; 0.0
187 ; 1.2088015783911608E7 ; 2.0366559640186408E8 ; 2.346939329164716E9 ; 3.621242602222672E10 ; 0.0
188 ; 1.2080353113621358E7 ; 2.036790680336459E8 ; 2.3590273449486275E9 ; 3.6416091618628586E10 ; 0.0
189 ; 1.207223435885376E7 ; 2.0369248820975703E8 ; 2.3711076980622487E9 ; 3.661977068666223E10 ; 0.0
190 ; 1.206794028620016E7 ; 2.0370585652248004E8 ; 2.3831799324211025E9 ; 3.682346317487199E10 ; 0.0
191 ; 1.2061064686255855E7 ; 2.0371917256804907E8 ; 2.3952478727073026E9 ; 3.702716903139447E10 ; 0.0
192 ; 1.205234009618342E7 ; 2.037324359465884E8 ; 2.4073089373935585E9 ; 3.723088820396252E10 ; 0.0
193 ; 1.2045720011361508E7 ; 2.0374564626205292E8 ; 2.419361277489742E9 ; 3.74346206399091E10 ; 0.0
194 ; 1.2042373879823023E7 ; 2.037588031221703E8 ; 2.4314069975011034E9 ; 3.763836628617116E10 ; 0.0
195 ; 1.2037294069299323E7 ; 2.0377190613838497E8 ; 2.4434493713809266E9 ; 3.784212508929333E10 ; 0.0
