CSV File for the City 6 on Day 180
1 - Minute m 
2 - Power Consumed at minute m 
3 - Power Produced at minute m 
4 - Energy Consumed since the beginning of the day 
5 - Energy Produced since the beginning of the day 
6 - Energy Lost since the beginning of the day on lines starting from the city
 
0 ; 2569252.4641512907 ; 1.0597409261181107E8 ; 0.0 ; 0.0 ; 0.0
1 ; 2579950.930425288 ; 1.0612488622496665E8 ; 2569252.4641512907 ; 1.0597409261181107E8 ; 0.0
2 ; 2588931.021044836 ; 1.0658467930589661E8 ; 5149203.394576579 ; 2.1209897883677772E8 ; 0.0
3 ; 2601513.06064462 ; 1.0735347632969499E8 ; 7738134.415621415 ; 3.186836581426743E8 ; 0.0
4 ; 2619172.9362209053 ; 1.0843128131880963E8 ; 1.0339647476266034E7 ; 4.260371344723693E8 ; 0.0
5 ; 2635674.9099235027 ; 1.0981809781675035E8 ; 1.2958820412486939E7 ; 5.3446841579117894E8 ; 0.0
6 ; 2660963.542357457 ; 1.1151392886439839E8 ; 1.5594495322410442E7 ; 6.442865136079292E8 ; 0.0
7 ; 2698525.588139466 ; 1.1351877697927845E8 ; 1.8255458864767898E7 ; 7.558004424723276E8 ; 0.0
8 ; 2748483.5577195315 ; 1.1583264413811845E8 ; 2.0953984452907365E7 ; 8.69319219451606E8 ; 0.0
9 ; 2829769.055562241 ; 1.1845553176297766E8 ; 2.3702468010626897E7 ; 9.851518635897245E8 ; 0.0
10 ; 2952265.251449239 ; 1.213874407111702E8 ; 2.653223706618914E7 ; 1.1036073953527021E9 ; 0.0
11 ; 3150004.7779509523 ; 1.2462837126915053E8 ; 2.948450231763838E7 ; 1.2249948360638723E9 ; 0.0
12 ; 3466288.231157824 ; 1.2817832315046415E8 ; 3.2634507095589332E7 ; 1.3496232073330228E9 ; 0.0
13 ; 3770612.1186408554 ; 1.3203729549779695E8 ; 3.610079532674716E7 ; 1.477801530483487E9 ; 0.0
14 ; 3808243.523981758 ; 1.3620528688908976E8 ; 3.987140744538801E7 ; 1.609838825981284E9 ; 0.0
15 ; 3821915.859387288 ; 1.4068229534761453E8 ; 4.367965096936977E7 ; 1.7460441128703737E9 ; 0.0
16 ; 3831697.7901044157 ; 1.4546831835584667E8 ; 4.7501566828757055E7 ; 1.8867264082179883E9 ; 0.0
17 ; 3846378.6835440667 ; 1.5056335287290487E8 ; 5.1333264618861474E7 ; 2.032194726573835E9 ; 0.0
18 ; 3861136.887498464 ; 1.5596739535527933E8 ; 5.517964330240554E7 ; 2.1827580794467397E9 ; 0.0
19 ; 3874948.624413845 ; 1.616804417805222E8 ; 5.9040780189904004E7 ; 2.338725474802019E9 ; 0.0
20 ; 3889579.6022242666 ; 1.6770248767353943E8 ; 6.291572881431785E7 ; 2.5004059165825415E9 ; 0.0
21 ; 3902386.2310502343 ; 1.740335281350943E8 ; 6.680530841654212E7 ; 2.668108404256081E9 ; 0.0
22 ; 3918050.714046338 ; 1.806735578721187E8 ; 7.070769464759235E7 ; 2.8421419323911753E9 ; 0.0
23 ; 3933662.4791669194 ; 1.8762257122941935E8 ; 7.46257453616387E7 ; 3.022815490263294E9 ; 0.0
24 ; 3946397.4468922466 ; 1.948805622223686E8 ; 7.855940784080562E7 ; 3.2104380614927135E9 ; 0.0
25 ; 3961290.707634816 ; 2.011355654683648E8 ; 8.250580528769787E7 ; 3.405318623715082E9 ; 0.0
26 ; 3973313.104870227 ; 2.011411222572092E8 ; 8.646709599533269E7 ; 3.606454189183447E9 ; 0.0
27 ; 3991963.9558053035 ; 2.0114699510933834E8 ; 9.044040910020292E7 ; 3.807595311440656E9 ; 0.0
28 ; 4002203.2925819396 ; 2.0115317705544645E8 ; 9.443237305600822E7 ; 4.0087423065499945E9 ; 0.0
29 ; 4017513.6314745136 ; 2.0115966096180928E8 ; 9.843457634859017E7 ; 4.209895483605441E9 ; 0.0
30 ; 4030862.4813071764 ; 2.01166439561333E8 ; 1.0245208998006468E8 ; 4.41105514456725E9 ; 0.0
31 ; 4040989.0219625854 ; 2.011735054833547E8 ; 1.0648295246137185E8 ; 4.612221584128583E9 ; 0.0
32 ; 4053721.4293370256 ; 2.011808512820122E8 ; 1.1052394148333444E8 ; 4.8133950896119375E9 ; 0.0
33 ; 4070305.5558807594 ; 2.011884694630384E8 ; 1.1457766291267146E8 ; 5.0145759408939495E9 ; 0.0
34 ; 4078859.1132853106 ; 2.0119635250887144E8 ; 1.1864796846855222E8 ; 5.215764410356988E9 ; 0.0
35 ; 4092119.567451974 ; 2.0120449290200374E8 ; 1.2272682758183753E8 ; 5.416960762865859E9 ; 0.0
36 ; 4105221.4743586737 ; 2.0121288314652666E8 ; 1.268189471492895E8 ; 5.618165255767862E9 ; 0.0
37 ; 4117762.481339389 ; 2.0122151578785184E8 ; 1.3092416862364818E8 ; 5.819378138914389E9 ; 0.0
38 ; 4125221.864038498 ; 2.0123038343061775E8 ; 1.3504193110498756E8 ; 6.020599654702241E9 ; 0.0
39 ; 4135992.118673728 ; 2.0123947875480956E8 ; 1.3916715296902606E8 ; 6.221830038132858E9 ; 0.0
40 ; 4148704.582059501 ; 2.0124879453013945E8 ; 1.433031450876998E8 ; 6.423069516887668E9 ; 0.0
41 ; 4155539.252470902 ; 2.012583236287486E8 ; 1.474518496697593E8 ; 6.624318311417807E9 ; 0.0
42 ; 4165475.1745530474 ; 2.0126805903630477E8 ; 1.516073889222302E8 ; 6.8255766350465555E9 ; 0.0
43 ; 4172525.5594746456 ; 2.0127799386157793E8 ; 1.5577286409678325E8 ; 7.02684469408286E9 ; 0.0
44 ; 4180058.116485172 ; 2.0128812134458292E8 ; 1.599453896562579E8 ; 7.228122687944438E9 ; 0.0
45 ; 4186471.9173176554 ; 2.0129843486338344E8 ; 1.6412544777274308E8 ; 7.429410809289021E9 ; 0.0
46 ; 4196524.366617718 ; 2.013089279396527E8 ; 1.6831191969006073E8 ; 7.630709244152404E9 ; 0.0
47 ; 4203825.181365632 ; 2.0131959424308744E8 ; 1.7250844405667844E8 ; 7.832018172092056E9 ; 0.0
48 ; 4212536.88936438 ; 2.0133042759477141E8 ; 1.7671226923804408E8 ; 8.033337766335144E9 ; 0.0
49 ; 4212858.4822329655 ; 2.0134142196958226E8 ; 1.8092480612740847E8 ; 8.234668193929915E9 ; 0.0
50 ; 4217975.21690753 ; 2.0135257149773213E8 ; 1.8513766460964143E8 ; 8.436009615899498E9 ; 0.0
51 ; 4217487.377004597 ; 2.0136387046553016E8 ; 1.8935563982654896E8 ; 8.63736218739723E9 ; 0.0
52 ; 4226779.836756794 ; 2.0137531331544933E8 ; 1.9357312720355356E8 ; 8.83872605786276E9 ; 0.0
53 ; 4232861.476235225 ; 2.013868946455761E8 ; 1.9779990704031035E8 ; 9.04010137117821E9 ; 0.0
54 ; 4235107.328104556 ; 2.0139860920851672E8 ; 2.0203276851654556E8 ; 9.241488265823786E9 ; 0.0
55 ; 4237505.903712918 ; 2.014104519098284E8 ; 2.0626787584465012E8 ; 9.442886875032303E9 ; 0.0
56 ; 4243609.732486278 ; 2.0142241780603877E8 ; 2.1050538174836305E8 ; 9.644297326942131E9 ; 0.0
57 ; 4248647.172462408 ; 2.0143450210231215E8 ; 2.1474899148084933E8 ; 9.845719744748169E9 ; 0.0
58 ; 4252574.902194585 ; 2.0144670014981616E8 ; 2.1899763865331173E8 ; 1.0047154246850481E10 ; 0.0
59 ; 4257427.155028174 ; 2.0145900744283727E8 ; 2.2325021355550632E8 ; 1.0248600947000298E10 ; 0.0
60 ; 4256877.062270307 ; 2.0147141961568952E8 ; 2.2750764071053448E8 ; 1.0450059954443134E10 ; 0.0
61 ; 4263139.791422058 ; 2.0148393243945634E8 ; 2.317645177728048E8 ; 1.0651531374058825E10 ; 0.0
62 ; 4266486.594072805 ; 2.014965418186014E8 ; 2.3602765756422687E8 ; 1.0853015306498281E10 ; 0.0
63 ; 4269918.86377619 ; 2.0150924378748012E8 ; 2.4029414415829968E8 ; 1.1054511848316883E10 ; 0.0
64 ; 4276368.179678678 ; 2.0152203450678065E8 ; 2.4456406302207586E8 ; 1.1256021092104362E10 ; 0.0
65 ; 4279402.002794153 ; 2.0153491025991943E8 ; 2.4884043120175454E8 ; 1.1457543126611143E10 ; 0.0
66 ; 4279018.559611052 ; 2.015478674494134E8 ; 2.531198332045487E8 ; 1.1659078036871063E10 ; 0.0
67 ; 4281325.849929191 ; 2.015609025932481E8 ; 2.5739885176415974E8 ; 1.1860625904320477E10 ; 0.0
68 ; 4284491.9731758 ; 2.0157401232125896E8 ; 2.6168017761408892E8 ; 1.2062186806913725E10 ; 0.0
69 ; 4289358.698726084 ; 2.015871933715399E8 ; 2.6596466958726472E8 ; 1.2263760819234983E10 ; 0.0
70 ; 4291079.547756105 ; 2.0160044258689183E8 ; 2.702540282859908E8 ; 1.2465348012606524E10 ; 0.0
71 ; 4293523.54220373 ; 2.01613756911322E8 ; 2.7454510783374685E8 ; 1.2666948455193415E10 ; 0.0
72 ; 4293975.736249967 ; 2.016271333866024E8 ; 2.788386313759506E8 ; 1.2868562212104736E10 ; 0.0
73 ; 4299981.513916152 ; 2.016405691488956E8 ; 2.8313260711220056E8 ; 1.3070189345491339E10 ; 0.0
74 ; 4299393.451747457 ; 2.0165406142545304E8 ; 2.874325886261167E8 ; 1.3271829914640234E10 ; 0.0
75 ; 4303596.459887201 ; 2.016676075313916E8 ; 2.9173198207786417E8 ; 1.3473483976065687E10 ; 0.0
76 ; 4305154.978178688 ; 2.0168120486655155E8 ; 2.960355785377514E8 ; 1.3675151583597078E10 ; 0.0
77 ; 4306897.214375751 ; 2.0169485091243944E8 ; 3.0034073351593006E8 ; 1.387683278846363E10 ; 0.0
78 ; 4306217.676842225 ; 2.0170854322925717E8 ; 3.046476307303058E8 ; 1.407852763937607E10 ; 0.0
79 ; 4306067.2592344815 ; 2.0172227945301953E8 ; 3.08953848407148E8 ; 1.4280236182605328E10 ; 0.0
80 ; 4300606.0282847285 ; 2.0173605729276028E8 ; 3.132599156663825E8 ; 1.4481958462058348E10 ; 0.0
81 ; 4299982.084398268 ; 2.0174987452782726E8 ; 3.175605216946672E8 ; 1.4683694519351109E10 ; 0.0
82 ; 4297960.39916862 ; 2.017637290052661E8 ; 3.218605037790655E8 ; 1.4885444393878937E10 ; 0.0
83 ; 4295377.290412645 ; 2.0177761863729212E8 ; 3.261584641782341E8 ; 1.5087208122884203E10 ; 0.0
84 ; 4294519.081612579 ; 2.017915413988493E8 ; 3.3045384146864676E8 ; 1.5288985741521496E10 ; 0.0
85 ; 4289964.995350941 ; 2.0180549532525492E8 ; 3.3474836055025935E8 ; 1.5490777282920345E10 ; 0.0
86 ; 4292353.913171196 ; 2.0181947850992846E8 ; 3.390383255456103E8 ; 1.56925827782456E10 ; 0.0
87 ; 4286804.624173473 ; 2.0183348910220343E8 ; 3.433306794587815E8 ; 1.5894402256755527E10 ; 0.0
88 ; 4287054.0355074955 ; 2.018475253052193E8 ; 3.4761748408295494E8 ; 1.609623574585773E10 ; 0.0
89 ; 4282167.5494140275 ; 2.018615853738928E8 ; 3.5190453811846244E8 ; 1.629808327116295E10 ; 0.0
90 ; 4281136.795508292 ; 2.0187566761296546E8 ; 3.561867056678765E8 ; 1.6499944856536844E10 ; 0.0
91 ; 4277312.164527865 ; 2.0188977037512577E8 ; 3.6046784246338475E8 ; 1.6701820524149809E10 ; 0.0
92 ; 4274494.072202564 ; 2.0190389205920377E8 ; 3.6474515462791264E8 ; 1.6903710294524935E10 ; 0.0
93 ; 4272744.5555228265 ; 2.0191803110843548E8 ; 3.690196487001152E8 ; 1.7105614186584139E10 ; 0.0
94 ; 4267603.547115227 ; 2.0193218600879535E8 ; 3.73292393255638E8 ; 1.7307532217692574E10 ; 0.0
95 ; 4262506.786420552 ; 2.0194635528739426E8 ; 3.775599968027532E8 ; 1.750946440370137E10 ; 0.0
96 ; 4259149.460333021 ; 2.0196053751094067E8 ; 3.8182250358917373E8 ; 1.7711410758988766E10 ; 0.0
97 ; 4264029.1186869 ; 2.019747312842632E8 ; 3.860816530495068E8 ; 1.7913371296499706E10 ; 0.0
98 ; 4256069.718938869 ; 2.019889352488919E8 ; 3.903456821681937E8 ; 1.811534602778397E10 ; 0.0
99 ; 4250604.406765596 ; 2.0200314808169633E8 ; 3.946017518871326E8 ; 1.8317334963032864E10 ; 0.0
100 ; 4248077.464503595 ; 2.0201736849357852E8 ; 3.9885235629389817E8 ; 1.851933811111456E10 ; 0.0
101 ; 4245987.797638358 ; 2.020315952282182E8 ; 4.0310043375840175E8 ; 1.872135547960814E10 ; 0.0
102 ; 4241683.274774029 ; 2.0204582706086886E8 ; 4.073464215560401E8 ; 1.8923387074836357E10 ; 0.0
103 ; 4234194.534917193 ; 2.020600627972024E8 ; 4.115881048308141E8 ; 1.9125432901897224E10 ; 0.0
104 ; 4235815.5797507 ; 2.0207430127220047E8 ; 4.158222993657313E8 ; 1.9327492964694427E10 ; 0.0
105 ; 4230289.625332021 ; 2.0208854134909055E8 ; 4.20058114945482E8 ; 1.952956726596663E10 ; 0.0
106 ; 4222393.955035731 ; 2.0210278191832542E8 ; 4.24288404570814E8 ; 1.973165580731572E10 ; 0.0
107 ; 4222139.844382053 ; 2.0211702189660364E8 ; 4.2851079852584976E8 ; 1.9933758589234047E10 ; 0.0
108 ; 4218226.112660089 ; 2.0213126022592986E8 ; 4.327329383702318E8 ; 2.013587561113065E10 ; 0.0
109 ; 4215525.701568621 ; 2.0214549587271315E8 ; 4.369511644828919E8 ; 2.033800687135658E10 ; 0.0
110 ; 4208731.395010653 ; 2.0215972782690182E8 ; 4.411666901844605E8 ; 2.0540152367229294E10 ; 0.0
111 ; 4202966.681996898 ; 2.021739551011532E8 ; 4.453754215794712E8 ; 2.0742312095056194E10 ; 0.0
112 ; 4198535.696698524 ; 2.0218817673003694E8 ; 4.4957838826146805E8 ; 2.094448605015735E10 ; 0.0
113 ; 4195157.141907656 ; 2.0220239176927054E8 ; 4.537769239581666E8 ; 2.1146674226887386E10 ; 0.0
114 ; 4189333.1477538585 ; 2.0221659929498544E8 ; 4.5797208110007423E8 ; 2.134887661865666E10 ; 0.0
115 ; 4181702.461241285 ; 2.0223079840302292E8 ; 4.6216141424782807E8 ; 2.1551093217951645E10 ; 0.0
116 ; 4174552.8037900645 ; 2.0224498820825815E8 ; 4.663431167090694E8 ; 2.1753324016354668E10 ; 0.0
117 ; 4173045.4043647377 ; 2.0225916784395117E8 ; 4.7051766951285946E8 ; 2.1955569004562927E10 ; 0.0
118 ; 4169505.562856974 ; 2.0227333646112418E8 ; 4.746907149172242E8 ; 2.215782817240688E10 ; 0.0
119 ; 4160399.565111242 ; 2.0228749322796327E8 ; 4.788602204800812E8 ; 2.2360101508868004E10 ; 0.0
120 ; 4156783.694871415 ; 2.0230163732924435E8 ; 4.830206200451924E8 ; 2.2562389002095966E10 ; 0.0
121 ; 4152163.393754254 ; 2.023157679657816E8 ; 4.8717740374006385E8 ; 2.276469063942521E10 ; 0.0
122 ; 4147863.6781821023 ; 2.02329884353898E8 ; 4.913295671338181E8 ; 2.296700640739099E10 ; 0.0
123 ; 4140012.73248615 ; 2.0234398572491652E8 ; 4.954774308120002E8 ; 2.316933629174489E10 ; 0.0
124 ; 4134651.535213714 ; 2.0235807132467178E8 ; 4.9961744354448634E8 ; 2.3371680277469807E10 ; 0.0
125 ; 4131632.2967637763 ; 2.0237214041304043E8 ; 5.0375209507970005E8 ; 2.357403834879448E10 ; 0.0
126 ; 4124482.9012327194 ; 2.0238619226349032E8 ; 5.0788372737646383E8 ; 2.377641048920752E10 ; 0.0
127 ; 4117303.891457355 ; 2.0240022616264704E8 ; 5.1200821027769655E8 ; 2.397879668147101E10 ; 0.0
128 ; 4113576.597502899 ; 2.0241424140987754E8 ; 5.161255141691539E8 ; 2.4181196907633656E10 ; 0.0
129 ; 4102835.794069241 ; 2.024282373168899E8 ; 5.202390907666568E8 ; 2.4383611149043533E10 ; 0.0
130 ; 4096339.127730906 ; 2.024422132073485E8 ; 5.2434192656072605E8 ; 2.4586039386360424E10 ; 0.0
131 ; 4083836.6334940037 ; 2.0245616841650403E8 ; 5.2843826568845695E8 ; 2.4788481599567772E10 ; 0.0
132 ; 4078472.8552358337 ; 2.0247010229083797E8 ; 5.32522102321951E8 ; 2.4990937767984276E10 ; 0.0
133 ; 4065878.1569056506 ; 2.0248401418772066E8 ; 5.366005751771868E8 ; 2.5193407870275112E10 ; 0.0
134 ; 4057330.234731644 ; 2.0249790347508204E8 ; 5.406664533340924E8 ; 2.5395891884462833E10 ; 0.0
135 ; 4050616.6858873507 ; 2.0251176953109565E8 ; 5.44723783568824E8 ; 2.5598389787937916E10 ; 0.0
136 ; 4034698.134629564 ; 2.02525611743874E8 ; 5.487744002547114E8 ; 2.5800901557469013E10 ; 0.0
137 ; 4023753.6015203632 ; 2.0253942951117593E8 ; 5.52809098389341E8 ; 2.6003427169212887E10 ; 0.0
138 ; 4011583.572716896 ; 2.0255322224012467E8 ; 5.568328519908614E8 ; 2.6205966598724064E10 ; 0.0
139 ; 4000716.564451878 ; 2.025669893469368E8 ; 5.608444355635784E8 ; 2.6408519820964188E10 ; 0.0
140 ; 3994439.758047677 ; 2.0258073025666118E8 ; 5.648451521280303E8 ; 2.6611086810311123E10 ; 0.0
141 ; 3983142.305137078 ; 2.025944444029277E8 ; 5.68839591886078E8 ; 2.6813667540567783E10 ; 0.0
142 ; 3971920.1764965104 ; 2.0260813122770548E8 ; 5.72822734191215E8 ; 2.701626198497071E10 ; 0.0
143 ; 3961549.0662908168 ; 2.0262179018106982E8 ; 5.767946543677115E8 ; 2.7218870116198418E10 ; 0.0
144 ; 3946762.2909374894 ; 2.026354207209781E8 ; 5.807562034340024E8 ; 2.7421491906379486E10 ; 0.0
145 ; 3943761.0297184503 ; 2.0264902231305355E8 ; 5.8470296572494E8 ; 2.7624127327100464E10 ; 0.0
146 ; 3932651.489853927 ; 2.0266259443037727E8 ; 5.886467267546583E8 ; 2.7826776349413517E10 ; 0.0
147 ; 3928652.0105426395 ; 2.026761365532878E8 ; 5.925793782445123E8 ; 2.8029438943843895E10 ; 0.0
148 ; 3920207.075318701 ; 2.0268964816918787E8 ; 5.96508030255055E8 ; 2.8232115080397182E10 ; 0.0
149 ; 3912828.9432767723 ; 2.0270312877235833E8 ; 6.004282373303736E8 ; 2.8434804728566372E10 ; 0.0
150 ; 3909886.537168061 ; 2.027165778637788E8 ; 6.043410662736504E8 ; 2.863750785733873E10 ; 0.0
151 ; 3905177.7157465057 ; 2.0272999495095468E8 ; 6.082509528108184E8 ; 2.8840224435202507E10 ; 0.0
152 ; 3898144.187717434 ; 2.027433795477505E8 ; 6.12156130526565E8 ; 2.904295443015346E10 ; 0.0
153 ; 3888793.6914632455 ; 2.0275673117422935E8 ; 6.160542747142824E8 ; 2.9245697809701214E10 ; 0.0
154 ; 3882643.8917447766 ; 2.0277004935649768E8 ; 6.199430684057456E8 ; 2.9448454540875443E10 ; 0.0
155 ; 3875993.008887598 ; 2.0278333362655607E8 ; 6.238257122974904E8 ; 2.965122459023194E10 ; 0.0
156 ; 3871316.1072581746 ; 2.0279658352215502E8 ; 6.27701705306378E8 ; 2.9854007923858498E10 ; 0.0
157 ; 3866061.294903886 ; 2.0280979858665588E8 ; 6.315730214136362E8 ; 3.0056804507380653E10 ; 0.0
158 ; 3855780.7667265562 ; 2.0282297836889693E8 ; 6.354390827085401E8 ; 3.0259614305967308E10 ; 0.0
159 ; 3849173.062539599 ; 2.0283612242306364E8 ; 6.392948634752667E8 ; 3.0462437284336205E10 ; 0.0
160 ; 3843320.826815712 ; 2.0284923030856413E8 ; 6.431440365378063E8 ; 3.066527340675927E10 ; 0.0
161 ; 3835659.2825742057 ; 2.0286230158990848E8 ; 6.46987357364622E8 ; 3.0868122637067833E10 ; 0.0
162 ; 3830329.8220408196 ; 2.0287533583659247E8 ; 6.508230166471962E8 ; 3.107098493865774E10 ; 0.0
163 ; 3821548.6138097 ; 2.0288833262298527E8 ; 6.54653346469237E8 ; 3.1273860274494335E10 ; 0.0
164 ; 3815659.5856277235 ; 2.0290129152822113E8 ; 6.584748950830467E8 ; 3.147674860711732E10 ; 0.0
165 ; 3806868.392663223 ; 2.0291421213609457E8 ; 6.622905546686743E8 ; 3.1679649898645542E10 ; 0.0
166 ; 3803285.862575938 ; 2.0292709403495958E8 ; 6.660974230613376E8 ; 3.1882564110781635E10 ; 0.0
167 ; 3794211.038204318 ; 2.0293993681763178E8 ; 6.699007089239135E8 ; 3.2085491204816593E10 ; 0.0
168 ; 3787195.846291771 ; 2.0295274008129427E8 ; 6.736949199621178E8 ; 3.2288431141634224E10 ; 0.0
169 ; 3784677.0259669013 ; 2.0296550342740667E8 ; 6.774821158084096E8 ; 3.249138388171552E10 ; 0.0
170 ; 3776575.5590074686 ; 2.02978226461617E8 ; 6.812667928343765E8 ; 3.2694349385142925E10 ; 0.0
171 ; 3768588.0040363786 ; 2.029909087936768E8 ; 6.85043368393384E8 ; 3.289732761160454E10 ; 0.0
172 ; 3759436.3669684874 ; 2.0300355003735906E8 ; 6.888119563974204E8 ; 3.310031852039822E10 ; 0.0
173 ; 3752560.9260289758 ; 2.0301614981037885E8 ; 6.925713927643889E8 ; 3.3303322070435577E10 ; 0.0
174 ; 3751954.1083400706 ; 2.0302870773431656E8 ; 6.963239536904179E8 ; 3.3506338220245956E10 ; 0.0
175 ; 3747378.2553813476 ; 2.0304122343454394E8 ; 7.000759077987579E8 ; 3.3709366927980274E10 ; 0.0
176 ; 3740280.133572897 ; 2.0305369654015237E8 ; 7.038232860541393E8 ; 3.3912408151414818E10 ; 0.0
177 ; 3734212.008718145 ; 2.0306612668388367E8 ; 7.075635661877122E8 ; 3.411546184795497E10 ; 0.0
178 ; 3727186.86128285 ; 2.0307851350206307E8 ; 7.112977781964303E8 ; 3.4318527974638855E10 ; 0.0
179 ; 3724923.6707810233 ; 2.0309085663453454E8 ; 7.150249650577132E8 ; 3.4521606488140915E10 ; 0.0
180 ; 3716442.315448921 ; 2.0310315572459823E8 ; 7.187498887284942E8 ; 3.472469734477545E10 ; 0.0
181 ; 3716763.894783624 ; 2.031154104189498E8 ; 7.22466331043943E8 ; 3.492780050050005E10 ; 0.0
182 ; 3710069.29446932 ; 2.0312762036762214E8 ; 7.261830949387267E8 ; 3.513091591091901E10 ; 0.0
183 ; 3703991.5853131693 ; 2.0313978522392836E8 ; 7.29893164233196E8 ; 3.533404353128663E10 ; 0.0
184 ; 3700330.0320139714 ; 2.0315190464440742E8 ; 7.335971558185092E8 ; 3.553718331651056E10 ; 0.0
185 ; 3694280.675292337 ; 2.0316397828877088E8 ; 7.372974858505232E8 ; 3.574033522115497E10 ; 0.0
186 ; 3688365.980186681 ; 2.0317600581985176E8 ; 7.409917665258156E8 ; 3.594349919944374E10 ; 0.0
187 ; 3684322.818667403 ; 2.0318798690355492E8 ; 7.446801325060023E8 ; 3.6146675205263596E10 ; 0.0
188 ; 3678776.7054104437 ; 2.0319992120880905E8 ; 7.483644553246697E8 ; 3.634986319216715E10 ; 0.0
189 ; 3671087.3390874504 ; 2.0321180840752026E8 ; 7.520432320300802E8 ; 3.655306311337596E10 ; 0.0
190 ; 3665235.2995811496 ; 2.032236481745271E8 ; 7.557143193691677E8 ; 3.675627492178348E10 ; 0.0
191 ; 3661353.8842720916 ; 2.032354401875572E8 ; 7.593795546687489E8 ; 3.695949856995801E10 ; 0.0
192 ; 3656531.0180013925 ; 2.0324718412718493E8 ; 7.63040908553021E8 ; 3.716273401014556E10 ; 0.0
193 ; 3652626.2926657777 ; 2.0325887967679095E8 ; 7.666974395710224E8 ; 3.736598119427274E10 ; 0.0
194 ; 3646586.3343671104 ; 2.0327052652252257E8 ; 7.703500658636881E8 ; 3.756924007394953E10 ; 0.0
195 ; 3641945.0827272343 ; 2.0328212435325563E8 ; 7.739966521980553E8 ; 3.777251060047205E10 ; 0.0
196 ; 3637543.593406595 ; 2.0329367286055756E8 ; 7.776385972807825E8 ; 3.797579272482531E10 ; 0.0
197 ; 3634697.8300833483 ; 2.0330517173865148E8 ; 7.81276140874189E8 ; 3.817908639768587E10 ; 0.0
198 ; 3626387.6297819554 ; 2.0331662068438175E8 ; 7.849108387042724E8 ; 3.838239156942452E10 ; 0.0
199 ; 3623504.072183532 ; 2.033280193971803E8 ; 7.885372263340544E8 ; 3.85857081901089E10 ; 0.0
200 ; 3615485.3525089365 ; 1.9544227518611243E8 ; 7.921607304062378E8 ; 3.878903620950608E10 ; 0.0
