CSV File for the City 1 on Day 190
1 - Minute m 
2 - Power Consumed at minute m 
3 - Power Produced at minute m 
4 - Energy Consumed since the beginning of the day 
5 - Energy Produced since the beginning of the day 
6 - Energy Lost since the beginning of the day on lines starting from the city
 
0 ; 2367660.0828367244 ; 1.0544879263233998E8 ; 0.0 ; 0.0 ; 0.0
1 ; 2385289.6784674935 ; 1.0560164583592898E8 ; 2367660.0828367244 ; 1.0544879263233998E8 ; 0.0
2 ; 2403797.876768373 ; 1.0606328880097166E8 ; 4752949.761304218 ; 2.1105043846826896E8 ; 0.0
3 ; 2426062.2082988466 ; 1.0683372369301021E8 ; 7156747.638072591 ; 3.171137272692406E8 ; 0.0
4 ; 2444968.0438837428 ; 1.0791295246501678E8 ; 9582809.846371438 ; 4.239474509622508E8 ; 0.0
5 ; 2479766.39940828 ; 1.0930097684251088E8 ; 1.2027777890255181E7 ; 5.318604034272676E8 ; 0.0
6 ; 2517179.875349757 ; 1.109977983100541E8 ; 1.450754428966346E7 ; 6.411613802697785E8 ; 0.0
7 ; 2572668.621331095 ; 1.130034180993616E8 ; 1.7024724165013216E7 ; 7.521591785798326E8 ; 0.0
8 ; 2647903.378292501 ; 1.1531783717924827E8 ; 1.9597392786344312E7 ; 8.651625966791942E8 ; 0.0
9 ; 2765269.8555492093 ; 1.1794105624759912E8 ; 2.2245296164636813E7 ; 9.804804338584425E8 ; 0.0
10 ; 2949073.687456041 ; 1.208730757255184E8 ; 2.5010566020186022E7 ; 1.0984214901060417E9 ; 0.0
11 ; 3237272.361740171 ; 1.2411389575377199E8 ; 2.7959639707642063E7 ; 1.2192945658315601E9 ; 0.0
12 ; 3701370.259001304 ; 1.2766351619159397E8 ; 3.1196912069382235E7 ; 1.3434084615853322E9 ; 0.0
13 ; 4149312.0200630687 ; 1.315219366178801E8 ; 3.489828232838354E7 ; 1.471071977776926E9 ; 0.0
14 ; 4201396.668239925 ; 1.3568915633474547E8 ; 3.904759434844661E7 ; 1.6025939143948061E9 ; 0.0
15 ; 4225536.968660048 ; 1.4016517437337506E8 ; 4.324899101668653E7 ; 1.7382830707295516E9 ; 0.0
16 ; 4247667.9959369525 ; 1.4494998950205383E8 ; 4.747452798534658E7 ; 1.8784482451029267E9 ; 0.0
17 ; 4268736.237765184 ; 1.500436002362201E8 ; 5.172219598128353E7 ; 2.0233982346049805E9 ; 0.0
18 ; 4289585.229568371 ; 1.5544600485035437E8 ; 5.5990932219048716E7 ; 2.1734418348412004E9 ; 0.0
19 ; 4310122.688606955 ; 1.6115720139148453E8 ; 6.0280517448617086E7 ; 2.3288878396915545E9 ; 0.0
20 ; 4334518.66660199 ; 1.6717718769406834E8 ; 6.459064013722404E7 ; 2.4900450410830393E9 ; 0.0
21 ; 4358657.567103196 ; 1.7350596139599875E8 ; 6.892515880382603E7 ; 2.6572222287771077E9 ; 0.0
22 ; 4383842.876303562 ; 1.8014351995547253E8 ; 7.328381637092923E7 ; 2.8307281901731067E9 ; 0.0
23 ; 4398736.593055292 ; 1.8708986066846102E8 ; 7.76676592472328E7 ; 3.010871710128579E9 ; 0.0
24 ; 4423171.525883906 ; 1.943449806865288E8 ; 8.206639584028809E7 ; 3.19796157079704E9 ; 0.0
25 ; 4447358.244519853 ; 2.00596917932944E8 ; 8.648956736617199E7 ; 3.3923065514835687E9 ; 0.0
26 ; 4466053.296927744 ; 2.005992171573829E8 ; 9.093692561069185E7 ; 3.5929034694165125E9 ; 0.0
27 ; 4492648.192984739 ; 2.0060164447832224E8 ; 9.54029789076196E7 ; 3.7935026865738955E9 ; 0.0
28 ; 4514985.867146741 ; 2.0060419664680025E8 ; 9.989562710060434E7 ; 3.9941043310522175E9 ; 0.0
29 ; 4534075.142120587 ; 2.006068703559961E8 ; 1.0441061296775109E8 ; 4.1947085276990175E9 ; 0.0
30 ; 4556940.525442408 ; 2.006096622567813E8 ; 1.0894468810987167E8 ; 4.395315398055014E9 ; 0.0
31 ; 4576039.147385206 ; 2.0061256897238562E8 ; 1.1350162863531408E8 ; 4.595925060311795E9 ; 0.0
32 ; 4596620.345839505 ; 2.006155871120997E8 ; 1.1807766778269929E8 ; 4.796537629284181E9 ; 0.0
33 ; 4616549.221686252 ; 2.0061871328396118E8 ; 1.2267428812853879E8 ; 4.99715321639628E9 ; 0.0
34 ; 4635680.762660296 ; 2.0062194410639095E8 ; 1.2729083735022505E8 ; 5.197771929680242E9 ; 0.0
35 ; 4656485.528499639 ; 2.00625276218768E8 ; 1.3192651811288534E8 ; 5.398393873786633E9 ; 0.0
36 ; 4675916.122442718 ; 2.0062870629094598E8 ; 1.36583003641385E8 ; 5.599019150005401E9 ; 0.0
37 ; 4694619.170972714 ; 2.0063223103173137E8 ; 1.412589197638277E8 ; 5.799647856296347E9 ; 0.0
38 ; 4707633.263983387 ; 2.006358471963542E8 ; 1.4595353893480042E8 ; 6.000280087328078E9 ; 0.0
39 ; 4728359.772201439 ; 2.0063955159297198E8 ; 1.5066117219878381E8 ; 6.200915934524432E9 ; 0.0
40 ; 4743964.33260567 ; 2.006433410882563E8 ; 1.5538953197098526E8 ; 6.401555486117404E9 ; 0.0
41 ; 4759254.060612313 ; 2.0064721261211565E8 ; 1.6013349630359092E8 ; 6.60219882720566E9 ; 0.0
42 ; 4771823.941757588 ; 2.0065116316161337E8 ; 1.6489275036420324E8 ; 6.802846039817776E9 ; 0.0
43 ; 4790600.197458122 ; 2.0065518980414036E8 ; 1.6966457430596083E8 ; 7.003497202979389E9 ; 0.0
44 ; 4804132.039045283 ; 2.0065928967990452E8 ; 1.7445517450341895E8 ; 7.204152392783529E9 ; 0.0
45 ; 4813756.868801924 ; 2.0066346000379735E8 ; 1.7925930654246423E8 ; 7.404811682463434E9 ; 0.0
46 ; 4825967.664303209 ; 2.0066769806669784E8 ; 1.8407306341126615E8 ; 7.605475142467232E9 ; 0.0
47 ; 4838567.291873408 ; 2.0067200123627108E8 ; 1.8889903107556936E8 ; 7.80614284053393E9 ; 0.0
48 ; 4848548.42045434 ; 2.0067636695731732E8 ; 1.9373759836744276E8 ; 8.006814841770201E9 ; 0.0
49 ; 4861113.422310884 ; 2.0068079275172362E8 ; 1.985861467878971E8 ; 8.207491208727518E9 ; 0.0
50 ; 4866373.338797934 ; 2.0068527621806678E8 ; 2.03447260210208E8 ; 8.408172001479241E9 ; 0.0
51 ; 4873757.471781479 ; 2.006898150309142E8 ; 2.0831363354900593E8 ; 8.608857277697308E9 ; 0.0
52 ; 4882428.241326947 ; 2.0069440693986386E8 ; 2.1318739102078742E8 ; 8.809547092728222E9 ; 0.0
53 ; 4893554.234877995 ; 2.0069904976836273E8 ; 2.1806981926211438E8 ; 9.010241499668085E9 ; 0.0
54 ; 4901956.163235245 ; 2.007037414123389E8 ; 2.2296337349699238E8 ; 9.210940549436447E9 ; 0.0
55 ; 4907800.058612069 ; 2.00708479838679E8 ; 2.2786532966022763E8 ; 9.411644290848785E9 ; 0.0
56 ; 4910430.502062214 ; 2.0071326308358005E8 ; 2.327731297188397E8 ; 9.612352770687464E9 ; 0.0
57 ; 4919858.58946694 ; 2.0071808925080162E8 ; 2.376835602209019E8 ; 9.813066033771044E9 ; 0.0
58 ; 4928218.307319327 ; 2.0072295650984052E8 ; 2.4260341881036884E8 ; 1.0013784123021845E10 ; 0.0
59 ; 4935692.004380306 ; 2.0072786309404925E8 ; 2.4753163711768815E8 ; 1.0214507079531685E10 ; 0.0
60 ; 4938007.717725347 ; 2.0073280729871535E8 ; 2.5246732912206846E8 ; 1.0415234942625734E10 ; 0.0
61 ; 4950048.154123718 ; 2.0073778747911772E8 ; 2.574053368397938E8 ; 1.061596774992445E10 ; 0.0
62 ; 4957806.574632635 ; 2.0074280204857308E8 ; 2.6235538499391752E8 ; 1.0816705537403568E10 ; 0.0
63 ; 4964992.573145182 ; 2.007478494764846E8 ; 2.6731319156855017E8 ; 1.101744833945214E10 ; 0.0
64 ; 4971743.48970008 ; 2.0075292828640258E8 ; 2.722781841416954E8 ; 1.1218196188928625E10 ; 0.0
65 ; 4974800.952350044 ; 2.0075803705410585E8 ; 2.7724992763139546E8 ; 1.1418949117215027E10 ; 0.0
66 ; 4981543.235247026 ; 2.0076317440571064E8 ; 2.822247285837455E8 ; 1.1619707154269133E10 ; 0.0
67 ; 4989293.7215947 ; 2.0076833901581332E8 ; 2.872062718189925E8 ; 1.1820470328674843E10 ; 0.0
68 ; 4997629.308918468 ; 2.0077352960567197E8 ; 2.921955655405872E8 ; 1.2021238667690657E10 ; 0.0
69 ; 5000118.356031737 ; 2.0077874494143E8 ; 2.9719319484950566E8 ; 1.222201219729633E10 ; 0.0
70 ; 5009002.089218209 ; 2.0078398383238587E8 ; 3.021933132055374E8 ; 1.2422790942237759E10 ; 0.0
71 ; 5015545.420757423 ; 2.0078924512931055E8 ; 3.072023152947556E8 ; 1.2623574926070145E10 ; 0.0
72 ; 5019324.29750045 ; 2.0079452772281495E8 ; 3.12217860715513E8 ; 1.2824364171199455E10 ; 0.0
73 ; 5024932.800975924 ; 2.0079983054176825E8 ; 3.172371850130134E8 ; 1.302515869892227E10 ; 0.0
74 ; 5027070.882472151 ; 2.0080515255176786E8 ; 3.2226211781398934E8 ; 1.3225958529464039E10 ; 0.0
75 ; 5035509.949868748 ; 2.0081049275366157E8 ; 3.272891886964615E8 ; 1.3426763682015806E10 ; 0.0
76 ; 5037572.74413619 ; 2.0081585018212163E8 ; 3.3232469864633024E8 ; 1.3627574174769468E10 ; 0.0
77 ; 5042143.845335904 ; 2.0082122390427038E8 ; 3.3736227139046645E8 ; 1.382839002495159E10 ; 0.0
78 ; 5044167.000992259 ; 2.0082661301835713E8 ; 3.4240441523580235E8 ; 1.402921124885586E10 ; 0.0
79 ; 5044021.133420455 ; 2.0083201665248534E8 ; 3.474485822367946E8 ; 1.4230037861874216E10 ; 0.0
80 ; 5046522.251568307 ; 2.0083743396338916E8 ; 3.5249260337021506E8 ; 1.4430869878526701E10 ; 0.0
81 ; 5040396.938850185 ; 2.0084286413525814E8 ; 3.575391256217834E8 ; 1.463170731249009E10 ; 0.0
82 ; 5040997.574156013 ; 2.008483063786094E8 ; 3.6257952256063354E8 ; 1.4832550176625347E10 ; 0.0
83 ; 5042358.766066498 ; 2.008537599292052E8 ; 3.676205201347895E8 ; 1.5033398483003956E10 ; 0.0
84 ; 5036180.976637766 ; 2.008592240470155E8 ; 3.72662878900856E8 ; 1.523425224293316E10 ; 0.0
85 ; 5034167.1275443835 ; 2.0086469801522306E8 ; 3.776990598774938E8 ; 1.5435111466980177E10 ; 0.0
86 ; 5037507.479086891 ; 2.0087018113927096E8 ; 3.827332270050382E8 ; 1.56359761649954E10 ; 0.0
87 ; 5033551.151080489 ; 2.0087567274594977E8 ; 3.877707344841251E8 ; 1.583684634613467E10 ; 0.0
88 ; 5036439.753913679 ; 2.0088117218252403E8 ; 3.9280428563520557E8 ; 1.6037722018880621E10 ; 0.0
89 ; 5035819.673759993 ; 2.0088667881589574E8 ; 3.9784072538911927E8 ; 1.6238603191063145E10 ; 0.0
90 ; 5026280.251710259 ; 2.0089219203180444E8 ; 4.0287654506287926E8 ; 1.643948986987904E10 ; 0.0
91 ; 5028026.766223044 ; 2.0089771123406133E8 ; 4.079028253145895E8 ; 1.6640382061910845E10 ; 0.0
92 ; 5027675.868062992 ; 2.0090323584381694E8 ; 4.129308520808126E8 ; 1.6841279773144907E10 ; 0.0
93 ; 5023596.2386682965 ; 2.0090876529886073E8 ; 4.1795852794887555E8 ; 1.7042183008988724E10 ; 0.0
94 ; 5022699.589363765 ; 2.009142990529511E8 ; 4.2298212418754387E8 ; 1.7243091774287586E10 ; 0.0
95 ; 5015483.564658121 ; 2.009198365751749E8 ; 4.280048237769076E8 ; 1.7444006073340538E10 ; 0.0
96 ; 5014140.862286547 ; 2.009253773493349E8 ; 4.330203073415657E8 ; 1.7644925909915714E10 ; 0.0
97 ; 5012100.847271194 ; 2.0093092087336424E8 ; 4.380344482038523E8 ; 1.784585128726505E10 ; 0.0
98 ; 5007572.954178027 ; 2.009364666587664E8 ; 4.430465490511235E8 ; 1.8046782208138412E10 ; 0.0
99 ; 5006475.317313614 ; 2.0094201423008004E8 ; 4.4805412200530154E8 ; 1.824771867479718E10 ; 0.0
100 ; 5002394.055924906 ; 2.009475631243671E8 ; 4.5306059732261515E8 ; 1.844866068902726E10 ; 0.0
101 ; 5002002.332368432 ; 2.009531128907236E8 ; 4.5806299137854004E8 ; 1.8649608252151627E10 ; 0.0
102 ; 4995565.775154768 ; 2.0095866308981162E8 ; 4.630649937109085E8 ; 1.885056136504235E10 ; 0.0
103 ; 4989503.711151561 ; 2.009642132934122E8 ; 4.6806055948606324E8 ; 1.9051520028132164E10 ; 0.0
104 ; 4990041.383735031 ; 2.009697630839974E8 ; 4.730500631972148E8 ; 1.9252484241425575E10 ; 0.0
105 ; 4980003.338332522 ; 2.0097531205432132E8 ; 4.780401045809498E8 ; 1.945345400450957E10 ; 0.0
106 ; 4978819.317617486 ; 2.0098085980702895E8 ; 4.830201079192823E8 ; 1.9654429316563892E10 ; 0.0
107 ; 4977005.485501568 ; 2.0098640595428205E8 ; 4.879989272368998E8 ; 1.9855410176370922E10 ; 0.0
108 ; 4974819.047240841 ; 2.009919501174012E8 ; 4.929759327224014E8 ; 2.0056396582325203E10 ; 0.0
109 ; 4966801.972841708 ; 2.0099749192652357E8 ; 4.9795075176964223E8 ; 2.0257388532442604E10 ; 0.0
110 ; 4963101.2996276375 ; 2.0100303102027532E8 ; 5.029175537424839E8 ; 2.045838602436913E10 ; 0.0
111 ; 4955948.723972449 ; 2.0100856704545838E8 ; 5.078806550421116E8 ; 2.0659389055389404E10 ; 0.0
112 ; 4953003.437658754 ; 2.0101409965675032E8 ; 5.12836603766084E8 ; 2.0860397622434864E10 ; 0.0
113 ; 4950259.1019291105 ; 2.010196285164177E8 ; 5.1778960720374274E8 ; 2.1061411722091614E10 ; 0.0
114 ; 4942519.506041422 ; 2.0102515329404116E8 ; 5.227398663056719E8 ; 2.1262431350608032E10 ; 0.0
115 ; 4940903.655411708 ; 2.0103067366625243E8 ; 5.276823858117133E8 ; 2.1463456503902073E10 ; 0.0
116 ; 4934403.410064842 ; 2.0103618931648275E8 ; 5.32623289467125E8 ; 2.1664487177568325E10 ; 0.0
117 ; 4930557.104406211 ; 2.0104169993472165E8 ; 5.375576928771899E8 ; 2.1865523366884808E10 ; 0.0
118 ; 4924287.974039868 ; 2.0104720521728605E8 ; 5.424882499815961E8 ; 2.206656506681953E10 ; 0.0
119 ; 4918843.966496116 ; 2.0105270486659926E8 ; 5.47412537955636E8 ; 2.2267612272036816E10 ; 0.0
120 ; 4912647.267470306 ; 2.0105819859097895E8 ; 5.523313819221321E8 ; 2.2468664976903416E10 ; 0.0
121 ; 4907485.624199181 ; 2.0106368610443434E8 ; 5.572440291896025E8 ; 2.2669723175494396E10 ; 0.0
122 ; 4898672.807739931 ; 2.0106916712647152E8 ; 5.621515148138016E8 ; 2.287078686159883E10 ; 0.0
123 ; 4890234.677820359 ; 2.0107464138190717E8 ; 5.670501876215416E8 ; 2.3071856028725304E10 ; 0.0
124 ; 4883116.748497636 ; 2.0108010860068968E8 ; 5.71940422299362E8 ; 2.3272930670107212E10 ; 0.0
125 ; 4876258.488026015 ; 2.0108556851772806E8 ; 5.768235390478595E8 ; 2.34740107787079E10 ; 0.0
126 ; 4869743.314544081 ; 2.0109102087272745E8 ; 5.816997975358856E8 ; 2.3675096347225628E10 ; 0.0
127 ; 4866391.093979339 ; 2.0109646541003168E8 ; 5.865695408504297E8 ; 2.3876187368098354E10 ; 0.0
128 ; 4863197.901091178 ; 2.011019018784721E8 ; 5.91435931944409E8 ; 2.4077283833508385E10 ; 0.0
129 ; 4855151.494796162 ; 2.011073300312226E8 ; 5.962991298455002E8 ; 2.4278385735386856E10 ; 0.0
130 ; 4844771.952172417 ; 2.0111274962566057E8 ; 6.011542813402964E8 ; 2.447949306541808E10 ; 0.0
131 ; 4830020.202939898 ; 2.0111816042323327E8 ; 6.059990532924688E8 ; 2.468060581504374E10 ; 0.0
132 ; 4821488.974851968 ; 2.0112356218932986E8 ; 6.108290734954087E8 ; 2.4881723975466972E10 ; 0.0
133 ; 4803347.220493408 ; 2.011289546931583E8 ; 6.156505624702606E8 ; 2.5082847537656303E10 ; 0.0
134 ; 4796896.523787782 ; 2.0113433770762727E8 ; 6.20453909690754E8 ; 2.528397649234946E10 ; 0.0
135 ; 4780771.17042459 ; 2.0113971100923276E8 ; 6.252508062145418E8 ; 2.5485110830057087E10 ; 0.0
136 ; 4761420.366280132 ; 2.0114507437794915E8 ; 6.300315773849664E8 ; 2.568625054106632E10 ; 0.0
137 ; 4746973.3374493895 ; 2.011504275971246E8 ; 6.347929977512465E8 ; 2.5887395615444267E10 ; 0.0
138 ; 4737138.166608403 ; 2.0115577045338058E8 ; 6.395399710886959E8 ; 2.6088546043041393E10 ; 0.0
139 ; 4723781.250185928 ; 2.011611027365151E8 ; 6.442771092553043E8 ; 2.6289701813494774E10 ; 0.0
140 ; 4710247.208628852 ; 2.0116642423941016E8 ; 6.490008905054903E8 ; 2.649086291623129E10 ; 0.0
141 ; 4695106.196831225 ; 2.0117173475794217E8 ; 6.537111377141192E8 ; 2.66920293404707E10 ; 0.0
142 ; 4680151.940552941 ; 2.0117703409089655E8 ; 6.584062439109504E8 ; 2.689320107522864E10 ; 0.0
143 ; 4670451.517072381 ; 2.0118232203988492E8 ; 6.630863958515034E8 ; 2.709437810931954E10 ; 0.0
144 ; 4652341.419652515 ; 2.0118759840926602E8 ; 6.677568473685758E8 ; 2.7295560431359425E10 ; 0.0
145 ; 4643151.654039287 ; 2.011928630060693E8 ; 6.724091887882283E8 ; 2.7496748029768692E10 ; 0.0
146 ; 4640332.520723449 ; 2.0119811563992155E8 ; 6.770523404422675E8 ; 2.769794089277476E10 ; 0.0
147 ; 4630772.9407634875 ; 2.0120335612297636E8 ; 6.81692672962991E8 ; 2.7899139008414684E10 ; 0.0
148 ; 4623467.996322622 ; 2.0120858426984608E8 ; 6.863234459037545E8 ; 2.8100342364537663E10 ; 0.0
149 ; 4615175.368706565 ; 2.0121379989753652E8 ; 6.909469139000771E8 ; 2.830155094880751E10 ; 0.0
150 ; 4609329.352752894 ; 2.0121900282538396E8 ; 6.955620892687837E8 ; 2.8502764748705048E10 ; 0.0
151 ; 4607505.619171324 ; 2.012241928749946E8 ; 7.001714186215366E8 ; 2.870398375153043E10 ; 0.0
152 ; 4592393.437723936 ; 2.0122936987018627E8 ; 7.04778924240708E8 ; 2.8905207944405426E10 ; 0.0
153 ; 4591697.460292566 ; 2.0123453363693213E8 ; 7.09371317678432E8 ; 2.910643731427561E10 ; 0.0
154 ; 4580814.0777023295 ; 2.0123968400330672E8 ; 7.139630151387246E8 ; 2.9307671847912544E10 ; 0.0
155 ; 4573585.970757283 ; 2.0124482079943368E8 ; 7.185438292164268E8 ; 2.950891153191585E10 ; 0.0
156 ; 4566414.907323286 ; 2.0124994385743576E8 ; 7.231174151871841E8 ; 2.9710156352715286E10 ; 0.0
157 ; 4561516.7413011 ; 2.0125505301138625E8 ; 7.276838300945073E8 ; 2.9911406296572723E10 ; 0.0
158 ; 4554996.42949694 ; 2.0126014809726256E8 ; 7.322453468358084E8 ; 3.011266134958411E10 ; 0.0
159 ; 4540093.074277351 ; 2.0126522895290115E8 ; 7.368003432653053E8 ; 3.0313921497681374E10 ; 0.0
160 ; 4540073.598355826 ; 2.012702954179543E8 ; 7.413404363395827E8 ; 3.0515186726634274E10 ; 0.0
161 ; 4528183.854843616 ; 2.0127534733384836E8 ; 7.458805099379385E8 ; 3.0716457022052227E10 ; 0.0
162 ; 4517378.343533849 ; 2.0128038454374352E8 ; 7.504086937927821E8 ; 3.0917732369386074E10 ; 0.0
163 ; 4513329.001398875 ; 2.0128540689249504E8 ; 7.54926072136316E8 ; 3.1119012753929817E10 ; 0.0
164 ; 4508179.696849375 ; 2.0129041422661576E8 ; 7.594394011377149E8 ; 3.132029816082231E10 ; 0.0
165 ; 4497107.656039017 ; 2.0129540639424005E8 ; 7.639475808345642E8 ; 3.1521588575048927E10 ; 0.0
166 ; 4489130.498556662 ; 2.0130038324508905E8 ; 7.684446884906032E8 ; 3.172288398144317E10 ; 0.0
167 ; 4482200.825595998 ; 2.0130534463043693E8 ; 7.729338189891598E8 ; 3.192418436468826E10 ; 0.0
168 ; 4476847.942708381 ; 2.013102904030787E8 ; 7.774160198147558E8 ; 3.2125489709318695E10 ; 0.0
169 ; 4467885.369982239 ; 2.0131522041729876E8 ; 7.818928677574642E8 ; 3.2326799999721775E10 ; 0.0
170 ; 4462005.590788149 ; 2.0132013452884084E8 ; 7.863607531274464E8 ; 3.2528115220139072E10 ; 0.0
171 ; 4452605.73890431 ; 2.013250325948788E8 ; 7.908227587182345E8 ; 3.272943535466791E10 ; 0.0
172 ; 4446059.481438896 ; 2.013299144739886E8 ; 7.952753644571389E8 ; 3.293076038726279E10 ; 0.0
173 ; 4435129.248151102 ; 2.0133478002612108E8 ; 7.997214239385778E8 ; 3.313209030173678E10 ; 0.0
174 ; 4433902.2220002655 ; 2.0133962911257583E8 ; 8.041565531867288E8 ; 3.3333425081762897E10 ; 0.0
175 ; 4424708.896015419 ; 2.0134446159597588E8 ; 8.085904554087291E8 ; 3.3534764710875473E10 ; 0.0
176 ; 4423486.20488361 ; 2.0134927734024322E8 ; 8.130151643047445E8 ; 3.373610917247145E10 ; 0.0
177 ; 4415397.088002379 ; 2.0135407621057525E8 ; 8.17438650509628E8 ; 3.3937458449811695E10 ; 0.0
178 ; 4411177.008350721 ; 2.0135885807342196E8 ; 8.218540475976304E8 ; 3.413881252602227E10 ; 0.0
179 ; 4401244.489772564 ; 2.0136362279646403E8 ; 8.262652246059811E8 ; 3.434017138409569E10 ; 0.0
180 ; 4400809.409371318 ; 2.013683702485914E8 ; 8.306664690957537E8 ; 3.454153500689216E10 ; 0.0
181 ; 4391733.992567303 ; 2.0137310029988286E8 ; 8.35067278505125E8 ; 3.474290337714075E10 ; 0.0
182 ; 4385938.197254087 ; 2.0137781282158613E8 ; 8.394590124976923E8 ; 3.494427647744063E10 ; 0.0
183 ; 4379667.907789133 ; 2.0138250768609872E8 ; 8.438449506949464E8 ; 3.5145654290262215E10 ; 0.0
184 ; 4375695.091911761 ; 2.0138718476694942E8 ; 8.482246186027355E8 ; 3.534703679794831E10 ; 0.0
185 ; 4370189.29381518 ; 2.0139184393878025E8 ; 8.526003136946473E8 ; 3.554842398271526E10 ; 0.0
186 ; 4363371.750381112 ; 2.0139648507732937E8 ; 8.569705029884624E8 ; 3.5749815826654045E10 ; 0.0
187 ; 4356742.79510045 ; 2.0140110805941415E8 ; 8.613338747388436E8 ; 3.595121231173138E10 ; 0.0
188 ; 4348695.186512993 ; 2.0140571276291516E8 ; 8.65690617533944E8 ; 3.6152613419790794E10 ; 0.0
189 ; 4349363.080767291 ; 2.0141029906676033E8 ; 8.70039312720457E8 ; 3.635401913255371E10 ; 0.0
190 ; 4341228.3691374045 ; 2.0141486685091007E8 ; 8.743886758012242E8 ; 3.655542943162047E10 ; 0.0
191 ; 4334101.812995336 ; 2.0141941599634248E8 ; 8.787299041703616E8 ; 3.6756844298471375E10 ; 0.0
192 ; 4329358.373026943 ; 2.0142394638503927E8 ; 8.83064005983357E8 ; 3.695826371446772E10 ; 0.0
193 ; 4325650.836663623 ; 2.0142845789997214E8 ; 8.873933643563839E8 ; 3.715968766085276E10 ; 0.0
194 ; 4320457.252140154 ; 2.0143295042508945E8 ; 8.917190151930475E8 ; 3.736111611875273E10 ; 0.0
195 ; 4317328.071349542 ; 2.0143742384530357E8 ; 8.960394724451877E8 ; 3.756254906917782E10 ; 0.0
196 ; 4306191.310445455 ; 2.0144187804647848E8 ; 9.003568005165372E8 ; 3.7763986493023125E10 ; 0.0
197 ; 4301282.1079950575 ; 2.0144631291541773E8 ; 9.046629918269826E8 ; 3.79654283710696E10 ; 0.0
198 ; 4298910.836774057 ; 2.0145072833985302E8 ; 9.089642739349777E8 ; 3.816687468398502E10 ; 0.0
199 ; 4292601.272483993 ; 2.0145512420843285E8 ; 9.132631847717518E8 ; 3.8368325412324875E10 ; 0.0
200 ; 4286670.82165958 ; 2.0145950041071188E8 ; 9.175557860442357E8 ; 3.856978053653331E10 ; 0.0
201 ; 4279398.528081141 ; 1.9322413149384364E8 ; 9.218424568658953E8 ; 3.877124003694402E10 ; 0.0
