CSV File for the City 6 on Day 12
1 - Minute m 
2 - Power Consumed at minute m 
3 - Power Produced at minute m 
4 - Energy Consumed since the beginning of the day 
5 - Energy Produced since the beginning of the day 
6 - Energy Lost since the beginning of the day on lines starting from the city
 
0 ; 1.1117622376752898E7 ; 1.0544373038733038E8 ; 0.0 ; 0.0 ; 0.0
1 ; 1.1131638527323728E7 ; 1.055911241329062E8 ; 1.1117622376752898E7 ; 1.0544373038733038E8 ; 0.0
2 ; 1.114445257782101E7 ; 1.0604773646342233E8 ; 2.224926090407663E7 ; 2.1103485452023658E8 ; 0.0
3 ; 1.1159083648464952E7 ; 1.0681360959214449E8 ; 3.3393713481897637E7 ; 3.170825909836589E8 ; 0.0
4 ; 1.1174138234971834E7 ; 1.0788878516713172E8 ; 4.4552797130362585E7 ; 4.238962005758034E8 ; 0.0
5 ; 1.1195142443253705E7 ; 1.0927330315879631E8 ; 5.572693536533442E7 ; 5.317849857429351E8 ; 0.0
6 ; 1.1220325199246086E7 ; 1.1096720060465685E8 ; 6.6922077808588125E7 ; 6.410582889017315E8 ; 0.0
7 ; 1.1261025281098656E7 ; 1.1297051027631104E8 ; 7.814240300783421E7 ; 7.520254895063883E8 ; 0.0
8 ; 1.1310901411308272E7 ; 1.1528325935958183E8 ; 8.940342828893286E7 ; 8.649959997826993E8 ; 0.0
9 ; 1.1392224775357166E7 ; 1.1790546825717247E8 ; 1.0071432970024113E8 ; 9.802792591422812E8 ; 0.0
10 ; 1.1514128668112207E7 ; 1.20837149627886E8 ; 1.121065544755983E8 ; 1.0981847273994536E9 ; 0.0
11 ; 1.170944782479965E7 ; 1.2407830776334533E8 ; 1.2362068314371051E8 ; 1.2190218770273397E9 ; 0.0
12 ; 1.202890327690817E7 ; 1.2762893837192753E8 ; 1.3533013096851015E8 ; 1.343100184790685E9 ; 0.0
13 ; 1.2335092270466588E7 ; 1.3148902879482955E8 ; 1.473590342454183E8 ; 1.4707291231626124E9 ; 0.0
14 ; 1.2368983823232178E7 ; 1.3565855862934822E8 ; 1.596941265158849E8 ; 1.602218151957442E9 ; 0.0
15 ; 1.238249966527713E7 ; 1.401375006896605E8 ; 1.7206311033911708E8 ; 1.7378767105867903E9 ; 0.0
16 ; 1.2396602771510372E7 ; 1.4492582220416877E8 ; 1.844456100043942E8 ; 1.8780142112764509E9 ; 0.0
17 ; 1.240966372064281E7 ; 1.5002348613535437E8 ; 1.9684221277590457E8 ; 2.0229400334806197E9 ; 0.0
18 ; 1.2425941985992568E7 ; 1.5543045251280504E8 ; 2.0925187649654737E8 ; 2.172963519615974E9 ; 0.0
19 ; 1.2439165644724395E7 ; 1.6114667968846175E8 ; 2.2167781848253995E8 ; 2.328393972128779E9 ; 0.0
20 ; 1.2455881102652028E7 ; 1.6717212544905874E8 ; 2.3411698412726435E8 ; 2.4895406518172407E9 ; 0.0
21 ; 1.2470150445929106E7 ; 1.7350674794816884E8 ; 2.465728652299164E8 ; 2.6567127772662992E9 ; 0.0
22 ; 1.2480735665205017E7 ; 1.8015050644465977E8 ; 2.590430156758455E8 ; 2.830219525214468E9 ; 0.0
23 ; 1.2500134390296904E7 ; 1.8710336185318065E8 ; 2.715237513410505E8 ; 3.0103700316591277E9 ; 0.0
24 ; 1.2511687067801211E7 ; 1.9436527712480998E8 ; 2.840238857313474E8 ; 3.197473393512308E9 ; 0.0
25 ; 1.2529628604456972E7 ; 2.0062425838096613E8 ; 2.965355727991486E8 ; 3.3918386706371183E9 ; 0.0
26 ; 1.2540729002223598E7 ; 2.0063382106829754E8 ; 3.090652014036056E8 ; 3.5924629290180845E9 ; 0.0
27 ; 1.2553944326694315E7 ; 2.006437045101975E8 ; 3.216059304058292E8 ; 3.793096750086382E9 ; 0.0
28 ; 1.2570239215645442E7 ; 2.0065388111245325E8 ; 3.341598747325235E8 ; 3.9937404545965796E9 ; 0.0
29 ; 1.2578678658038054E7 ; 2.006643255677031E8 ; 3.4673011394816893E8 ; 4.194394335709033E9 ; 0.0
30 ; 1.2595732785756594E7 ; 2.00675014735273E8 ; 3.59308792606207E8 ; 4.395058661276736E9 ; 0.0
31 ; 1.2604482478610596E7 ; 2.0068592750236458E8 ; 3.719045253919636E8 ; 4.59573367601201E9 ; 0.0
32 ; 1.2618656495983964E7 ; 2.0069704463619342E8 ; 3.845090078705742E8 ; 4.796419603514374E9 ; 0.0
33 ; 1.2632065448394913E7 ; 2.007083486340659E8 ; 3.9712766436655813E8 ; 4.997116648150567E9 ; 0.0
34 ; 1.264606665469578E7 ; 2.0071982357628486E8 ; 4.09759729814953E8 ; 5.197824996784633E9 ; 0.0
35 ; 1.2655884080982788E7 ; 2.0073145498514405E8 ; 4.2240579646964884E8 ; 5.398544820360917E9 ; 0.0
36 ; 1.2669458053861862E7 ; 2.0074322969203776E8 ; 4.3506168055063164E8 ; 5.599276275346061E9 ; 0.0
37 ; 1.2680038511125889E7 ; 2.0075513571380267E8 ; 4.477311386044935E8 ; 5.800019505038098E9 ; 0.0
38 ; 1.268965799128081E7 ; 2.007671621387606E8 ; 4.6041117711561936E8 ; 6.000774640751901E9 ; 0.0
39 ; 1.2698115418786688E7 ; 2.0077929902247703E8 ; 4.7310083510690016E8 ; 6.201541802890661E9 ; 0.0
40 ; 1.2710826051330836E7 ; 2.007915372929499E8 ; 4.8579895052568686E8 ; 6.402321101913138E9 ; 0.0
41 ; 1.271644843226701E7 ; 2.0080386866475224E8 ; 4.985097765770177E8 ; 6.603112639206088E9 ; 0.0
42 ; 1.2726864600370415E7 ; 2.0081628556154135E8 ; 5.1122622500928473E8 ; 6.80391650787084E9 ; 0.0
43 ; 1.2735395634269297E7 ; 2.008287810462928E8 ; 5.2395308960965514E8 ; 7.004732793432382E9 ; 0.0
44 ; 1.274386849632977E7 ; 2.008413487586045E8 ; 5.3668848524392444E8 ; 7.205561574478675E9 ; 0.0
45 ; 1.27493625886831E7 ; 2.0085398285842484E8 ; 5.494323537402542E8 ; 7.406402923237279E9 ; 0.0
46 ; 1.2755293960486278E7 ; 2.0086667797559E8 ; 5.621817163289373E8 ; 7.607256906095704E9 ; 0.0
47 ; 1.2762031069194306E7 ; 2.0087942916459063E8 ; 5.749370102894236E8 ; 7.808123584071294E9 ; 0.0
48 ; 1.2767229010414375E7 ; 2.008922318640336E8 ; 5.876990413586179E8 ; 8.009003013235885E9 ; 0.0
49 ; 1.2771573913563525E7 ; 2.0090508186030814E8 ; 6.004662703690323E8 ; 8.209895245099918E9 ; 0.0
50 ; 1.2773461450439228E7 ; 2.0091797525501132E8 ; 6.132378442825958E8 ; 8.410800326960226E9 ; 0.0
51 ; 1.277644430708597E7 ; 2.0093090843573067E8 ; 6.26011305733035E8 ; 8.611718302215237E9 ; 0.0
52 ; 1.2781553323467143E7 ; 2.0094387804982236E8 ; 6.38787750040121E8 ; 8.812649210650967E9 ; 0.0
53 ; 1.2785485243922163E7 ; 2.009568809808618E8 ; 6.515693033635881E8 ; 9.013593088700788E9 ; 0.0
54 ; 1.2787838891398206E7 ; 2.0096991432747677E8 ; 6.643547886075102E8 ; 9.21454996968165E9 ; 0.0
55 ; 1.2788482042016596E7 ; 2.00982975384306E8 ; 6.771426274989084E8 ; 9.415519884009127E9 ; 0.0
56 ; 1.2797199705901911E7 ; 2.0099606162485373E8 ; 6.89931109540925E8 ; 9.616502859393433E9 ; 0.0
57 ; 1.279613556417966E7 ; 2.010091706860361E8 ; 7.027283092468269E8 ; 9.817498921018286E9 ; 0.0
58 ; 1.2798992422692653E7 ; 2.010223003542385E8 ; 7.155244448110065E8 ; 1.0018508091704323E10 ; 0.0
59 ; 1.2802814521612063E7 ; 2.01035448552723E8 ; 7.283234372336992E8 ; 1.0219530392058561E10 ; 0.0
60 ; 1.2804500171591125E7 ; 2.010486133302425E8 ; 7.411262517553113E8 ; 1.0420565840611284E10 ; 0.0
61 ; 1.2805389775777636E7 ; 2.010617928507357E8 ; 7.539307519269024E8 ; 1.0621614453941526E10 ; 0.0
62 ; 1.2807755867728852E7 ; 2.0107498538398886E8 ; 7.6673614170268E8 ; 1.0822676246792263E10 ; 0.0
63 ; 1.2811842225947332E7 ; 2.0108818929716557E8 ; 7.795438975704088E8 ; 1.1023751232176252E10 ; 0.0
64 ; 1.2808880940561123E7 ; 2.011014030471145E8 ; 7.923557397963562E8 ; 1.1224839421473417E10 ; 0.0
65 ; 1.281459485571314E7 ; 2.0111462517337626E8 ; 8.051646207369174E8 ; 1.1425940824520533E10 ; 0.0
66 ; 1.2816529750904603E7 ; 2.0112785429181907E8 ; 8.179792155926305E8 ; 1.1627055449693909E10 ; 0.0
67 ; 1.2821232116604332E7 ; 2.0114108908883992E8 ; 8.307957453435351E8 ; 1.1828183303985727E10 ; 0.0
68 ; 1.2820976555148177E7 ; 2.0115432831607583E8 ; 8.436169774601394E8 ; 1.2029324393074568E10 ; 0.0
69 ; 1.2822358141495796E7 ; 2.011675707855745E8 ; 8.564379540152875E8 ; 1.2230478721390644E10 ; 0.0
70 ; 1.2822568640500968E7 ; 2.0118081536538038E8 ; 8.692603121567833E8 ; 1.2431646292176218E10 ; 0.0
71 ; 1.282313178112613E7 ; 2.011940609754959E8 ; 8.820828807972844E8 ; 1.26328271075416E10 ; 0.0
72 ; 1.282291267979788E7 ; 2.0120730658418205E8 ; 8.949060125784105E8 ; 1.2834021168517096E10 ; 0.0
73 ; 1.2825997975499073E7 ; 2.0122055120456666E8 ; 9.077289252582084E8 ; 1.3035228475101278E10 ; 0.0
74 ; 1.2824389264408788E7 ; 2.012337938915313E8 ; 9.205549232337074E8 ; 1.3236449026305845E10 ; 0.0
75 ; 1.2826486828760508E7 ; 2.012470337388513E8 ; 9.333793124981163E8 ; 1.3437682820197376E10 ; 0.0
76 ; 1.28284625163552E7 ; 2.012602698765659E8 ; 9.462057993268768E8 ; 1.3638929853936228E10 ; 0.0
77 ; 1.2827367374299012E7 ; 2.0127350146855718E8 ; 9.590342618432319E8 ; 1.3840190123812794E10 ; 0.0
78 ; 1.282655391252888E7 ; 2.0128672771031952E8 ; 9.71861629217531E8 ; 1.4041463625281351E10 ; 0.0
79 ; 1.2822035934792008E7 ; 2.012999478269027E8 ; 9.846881831300598E8 ; 1.424275035299167E10 ; 0.0
80 ; 1.2821229678544318E7 ; 2.0131316107101318E8 ; 9.975102190648519E8 ; 1.4444050300818573E10 ; 0.0
81 ; 1.2815359832936663E7 ; 2.0132636672125986E8 ; 1.0103314487433962E9 ; 1.4645363461889585E10 ; 0.0
82 ; 1.2811588486199854E7 ; 2.013395640805321E8 ; 1.0231468085763328E9 ; 1.4846689828610846E10 ; 0.0
83 ; 1.2811014648976669E7 ; 2.0135275247449842E8 ; 1.0359583970625327E9 ; 1.5048029392691378E10 ; 0.0
84 ; 1.2805811796236133E7 ; 2.0136593125021616E8 ; 1.0487694117115093E9 ; 1.5249382145165876E10 ; 0.0
85 ; 1.279801559815642E7 ; 2.013790997748423E8 ; 1.0615752235077455E9 ; 1.5450748076416092E10 ; 0.0
86 ; 1.2797112442548078E7 ; 2.0139225743443757E8 ; 1.074373239105902E9 ; 1.5652127176190935E10 ; 0.0
87 ; 1.2792099730898628E7 ; 2.01405403632856E8 ; 1.08717035154845E9 ; 1.5853519433625372E10 ; 0.0
88 ; 1.2787365201377528E7 ; 2.0141853779071292E8 ; 1.0999624512793486E9 ; 1.6054924837258228E10 ; 0.0
89 ; 1.2779111770816604E7 ; 2.014316593444254E8 ; 1.1127498164807262E9 ; 1.625634337504894E10 ; 0.0
90 ; 1.2772407601519005E7 ; 2.0144476774531904E8 ; 1.1255289282515428E9 ; 1.6457775034393366E10 ; 0.0
91 ; 1.2772891908794958E7 ; 2.0145786245879626E8 ; 1.138301335853062E9 ; 1.6659219802138685E10 ; 0.0
92 ; 1.2766608421266785E7 ; 2.0147094296356094E8 ; 1.1510742277618568E9 ; 1.686067766459748E10 ; 0.0
93 ; 1.2760002532756288E7 ; 2.0148400875089538E8 ; 1.1638408361831236E9 ; 1.706214860756104E10 ; 0.0
94 ; 1.275357178817642E7 ; 2.0149705932398543E8 ; 1.17660083871588E9 ; 1.7263632616311935E10 ; 0.0
95 ; 1.274961539087461E7 ; 2.015100941972901E8 ; 1.1893544105040565E9 ; 1.746512967563592E10 ; 0.0
96 ; 1.2744357444013048E7 ; 2.0152311289595255E8 ; 1.202104025894931E9 ; 1.766663976983321E10 ; 0.0
97 ; 1.2737977771802874E7 ; 2.015361149552492E8 ; 1.2148483833389442E9 ; 1.7868162882729164E10 ; 0.0
98 ; 1.2731690268752018E7 ; 2.01549099920074E8 ; 1.227586361110747E9 ; 1.8069698997684414E10 ; 0.0
99 ; 1.2724266877151301E7 ; 2.0156206734445584E8 ; 1.2403180513794992E9 ; 1.827124809760449E10 ; 0.0
100 ; 1.2720727867530653E7 ; 2.0157501679110622E8 ; 1.2530423182566504E9 ; 1.8472810164948944E10 ; 0.0
101 ; 1.2713399428170608E7 ; 2.0158794783099514E8 ; 1.265763046124181E9 ; 1.867438518174005E10 ; 0.0
102 ; 1.2706680181145761E7 ; 2.0160086004295328E8 ; 1.2784764455523517E9 ; 1.8875973129571045E10 ; 0.0
103 ; 1.270159793781381E7 ; 2.016137530132987E8 ; 1.2911831257334974E9 ; 1.9077573989614E10 ; 0.0
104 ; 1.2696640202432042E7 ; 2.0162662633548605E8 ; 1.3038847236713111E9 ; 1.9279187742627296E10 ; 0.0
105 ; 1.2691800405450305E7 ; 2.0163947960977724E8 ; 1.3165813638737433E9 ; 1.9480814368962784E10 ; 0.0
106 ; 1.2681829520708343E7 ; 2.016523124429316E8 ; 1.3292731642791936E9 ; 1.968245384857256E10 ; 0.0
107 ; 1.2673969238326047E7 ; 2.0166512444791436E8 ; 1.341954993799902E9 ; 1.988410616101549E10 ; 0.0
108 ; 1.2668895958307866E7 ; 2.0167791524362257E8 ; 1.354628963038228E9 ; 2.0085771285463406E10 ; 0.0
109 ; 1.2659463710044725E7 ; 2.0169068445462686E8 ; 1.367297858996536E9 ; 2.0287449200707027E10 ; 0.0
110 ; 1.2652526974299366E7 ; 2.01703431710928E8 ; 1.3799573227065806E9 ; 2.0489139885161655E10 ; 0.0
111 ; 1.26438442925486E7 ; 2.0171615664772773E8 ; 1.39260984968088E9 ; 2.0690843316872585E10 ; 0.0
112 ; 1.263765999312296E7 ; 2.0172885890521255E8 ; 1.4052536939734287E9 ; 2.0892559473520313E10 ; 0.0
113 ; 1.2631516686901482E7 ; 2.0174153812834963E8 ; 1.4178913539665518E9 ; 2.1094288332425526E10 ; 0.0
114 ; 1.2622920694733195E7 ; 2.0175419396669438E8 ; 1.4305228706534534E9 ; 2.1296029870553875E10 ; 0.0
115 ; 1.261539401250939E7 ; 2.0176682607420856E8 ; 1.4431457913481865E9 ; 2.149778406452057E10 ; 0.0
116 ; 1.2606728077774748E7 ; 2.0177943410908863E8 ; 1.4557611853606958E9 ; 2.1699550890594776E10 ; 0.0
117 ; 1.2599498945898222E7 ; 2.017920177336034E8 ; 1.4683679134384706E9 ; 2.1901330324703865E10 ; 0.0
118 ; 1.2587305255694054E7 ; 2.0180457661394048E8 ; 1.480967412384369E9 ; 2.210312234243747E10 ; 0.0
119 ; 1.2581356658722993E7 ; 2.018171104200614E8 ; 1.493554717640063E9 ; 2.230492691905141E10 ; 0.0
120 ; 1.2571090353363225E7 ; 2.0182961882556412E8 ; 1.506136074298786E9 ; 2.2506744029471474E10 ; 0.0
121 ; 1.2562612973724449E7 ; 2.0184210150755295E8 ; 1.5187071646521492E9 ; 2.270857364829704E10 ; 0.0
122 ; 1.2556980217031162E7 ; 2.0185455814651576E8 ; 1.5312697776258736E9 ; 2.2910415749804592E10 ; 0.0
123 ; 1.2543044474633364E7 ; 2.018669884262071E8 ; 1.5438267578429048E9 ; 2.3112270307951107E10 ; 0.0
124 ; 1.253764769525817E7 ; 2.0187939203353798E8 ; 1.5563698023175383E9 ; 2.3314137296377316E10 ; 0.0
125 ; 1.2526322910721594E7 ; 2.0189176865847102E8 ; 1.5689074500127964E9 ; 2.3516016688410854E10 ; 0.0
126 ; 1.252000371345493E7 ; 2.0190411799392113E8 ; 1.581433772923518E9 ; 2.3717908457069324E10 ; 0.0
127 ; 1.251033531650931E7 ; 2.019164397356615E8 ; 1.593953776636973E9 ; 2.3919812575063244E10 ; 0.0
128 ; 1.2502912841342723E7 ; 2.0192873358223417E8 ; 1.6064641119534822E9 ; 2.4121729014798904E10 ; 0.0
129 ; 1.2490075166034477E7 ; 2.0194099923486516E8 ; 1.6189670247948248E9 ; 2.4323657748381138E10 ; 0.0
130 ; 1.2480644040772617E7 ; 2.019532363973841E8 ; 1.6314570999608593E9 ; 2.4525598747616E10 ; 0.0
131 ; 1.246488258214796E7 ; 2.0196544477614766E8 ; 1.643937744001632E9 ; 2.4727551984013386E10 ; 0.0
132 ; 1.2450211343201587E7 ; 2.0197762407996708E8 ; 1.65640262658378E9 ; 2.492951742878953E10 ; 0.0
133 ; 1.2437732056274265E7 ; 2.0198977402003902E8 ; 1.6688528379269817E9 ; 2.51314950528695E10 ; 0.0
134 ; 1.2424655446012324E7 ; 2.0200189430988014E8 ; 1.6812905699832559E9 ; 2.5333484826889538E10 ; 0.0
135 ; 1.2409765183574773E7 ; 2.020139846652647E8 ; 1.6937152254292681E9 ; 2.5535486721199417E10 ; 0.0
136 ; 1.239072653323921E7 ; 2.0202604480416527E8 ; 1.7061249906128428E9 ; 2.573750070586468E10 ; 0.0
137 ; 1.2378402869553698E7 ; 2.0203807444669646E8 ; 1.718515717146082E9 ; 2.5939526750668846E10 ; 0.0
138 ; 1.2367085266058866E7 ; 2.0205007331506118E8 ; 1.7308941200156357E9 ; 2.6141564825115543E10 ; 0.0
139 ; 1.2348541053293722E7 ; 2.020620411334998E8 ; 1.7432612052816947E9 ; 2.6343614898430603E10 ; 0.0
140 ; 1.2335276985165643E7 ; 2.0207397762824145E8 ; 1.7556097463349884E9 ; 2.6545676939564102E10 ; 0.0
141 ; 1.2324912871682324E7 ; 2.0208588252745795E8 ; 1.767945023320154E9 ; 2.6747750917192345E10 ; 0.0
142 ; 1.2309204267036084E7 ; 2.020977555612197E8 ; 1.7802699361918364E9 ; 2.6949836799719803E10 ; 0.0
143 ; 1.2292606777387511E7 ; 2.0210959646145397E8 ; 1.7925791404588726E9 ; 2.715193455528102E10 ; 0.0
144 ; 1.2278470491319653E7 ; 2.0212140496190485E8 ; 1.8048717472362602E9 ; 2.7354044151742474E10 ; 0.0
145 ; 1.2267972126419313E7 ; 2.0213318079809543E8 ; 1.8171502177275798E9 ; 2.755616555670438E10 ; 0.0
146 ; 1.22562518746019E7 ; 2.0214492370729148E8 ; 1.8294181898539991E9 ; 2.7758298737502476E10 ; 0.0
147 ; 1.2245317309130799E7 ; 2.021566334284671E8 ; 1.841674441728601E9 ; 2.7960443661209766E10 ; 0.0
148 ; 1.223166988992835E7 ; 2.0216830970227182E8 ; 1.853919759037732E9 ; 2.8162600294638233E10 ; 0.0
149 ; 1.2222999484501056E7 ; 2.021799522709994E8 ; 1.8661514289276602E9 ; 2.8364768604340504E10 ; 0.0
150 ; 1.2210991052067045E7 ; 2.021915608785579E8 ; 1.8783744284121614E9 ; 2.8566948556611504E10 ; 0.0
151 ; 1.220340023962463E7 ; 2.022031352704413E8 ; 1.8905854194642284E9 ; 2.8769140117490063E10 ; 0.0
152 ; 1.219582773899367E7 ; 2.0221467519370246E8 ; 1.9027888197038531E9 ; 2.8971343252760506E10 ; 0.0
153 ; 1.2181463472013291E7 ; 2.0222618039692733E8 ; 1.9149846474428468E9 ; 2.917355792795421E10 ; 0.0
154 ; 1.2171609324848438E7 ; 2.0223765063021022E8 ; 1.92716611091486E9 ; 2.9375784108351135E10 ; 0.0
155 ; 1.2159500165718801E7 ; 2.022490856451305E8 ; 1.9393377202397084E9 ; 2.9578021758981346E10 ; 0.0
156 ; 1.214909813657055E7 ; 2.0226048519473007E8 ; 1.9514972204054272E9 ; 2.9780270844626476E10 ; 0.0
157 ; 1.213516721706437E7 ; 2.0227184903349227E8 ; 1.9636463185419977E9 ; 2.9982531329821205E10 ; 0.0
158 ; 1.2129056721949024E7 ; 2.022831769173213E8 ; 1.975781485759062E9 ; 3.01848031788547E10 ; 0.0
159 ; 1.2118291727329673E7 ; 2.022944686035231E8 ; 1.9879105424810112E9 ; 3.038708635577202E10 ; 0.0
160 ; 1.2106261327603651E7 ; 2.0230572385078675E8 ; 2.000028834208341E9 ; 3.058938082437554E10 ; 0.0
161 ; 1.209300155896753E7 ; 2.0231694241916683E8 ; 2.0121350955359445E9 ; 3.079168654822633E10 ; 0.0
162 ; 1.2081315035922881E7 ; 2.023281240700668E8 ; 2.024228097094912E9 ; 3.0994003490645496E10 ; 0.0
163 ; 1.2067625994582532E7 ; 2.0233926856622294E8 ; 2.0363094121308348E9 ; 3.1196331614715565E10 ; 0.0
164 ; 1.205709089315099E7 ; 2.0235037567168903E8 ; 2.0483770381254172E9 ; 3.1398670883281788E10 ; 0.0
165 ; 1.2046324093385827E7 ; 2.0236144515182203E8 ; 2.0604341290185683E9 ; 3.1601021258953476E10 ; 0.0
166 ; 1.2038187785132622E7 ; 2.0237247677326804E8 ; 2.0724804531119542E9 ; 3.1803382704105297E10 ; 0.0
167 ; 1.2024496784441208E7 ; 2.0238347030394927E8 ; 2.0845186408970869E9 ; 3.2005755180878567E10 ; 0.0
168 ; 1.2010652748491345E7 ; 2.0239442551305148E8 ; 2.096543137681528E9 ; 3.2208138651182514E10 ; 0.0
169 ; 1.1999235962964676E7 ; 2.0240534217101195E8 ; 2.1085537904300194E9 ; 3.2410533076695564E10 ; 0.0
170 ; 1.1986765879648115E7 ; 2.024162200495082E8 ; 2.1205530263929842E9 ; 3.2612938418866577E10 ; 0.0
171 ; 1.197506925203456E7 ; 2.0242705892144716E8 ; 2.1325397922726324E9 ; 3.2815354638916084E10 ; 0.0
172 ; 1.1963134540890895E7 ; 2.024378585609547E8 ; 2.144514861524667E9 ; 3.3017781697837532E10 ; 0.0
173 ; 1.195743928614915E7 ; 2.0244861874336603E8 ; 2.156477996065558E9 ; 3.3220219556398487E10 ; 0.0
174 ; 1.1947433674800036E7 ; 2.0245933924521637E8 ; 2.168435435351707E9 ; 3.3422668175141853E10 ; 0.0
175 ; 1.1938363055942887E7 ; 2.0247001984423193E8 ; 2.180382869026507E9 ; 3.362512751438707E10 ; 0.0
176 ; 1.1936771267685793E7 ; 2.024806603193216E8 ; 2.19232123208245E9 ; 3.38275975342313E10 ; 0.0
177 ; 1.1926667850889262E7 ; 2.024912604505689E8 ; 2.204258003350136E9 ; 3.403007819455062E10 ; 0.0
178 ; 1.1918527066679679E7 ; 2.0250182001922446E8 ; 2.216184671201025E9 ; 3.423256945500119E10 ; 0.0
179 ; 1.1913879733041693E7 ; 2.025123388076987E8 ; 2.2281031982677045E9 ; 3.443507127502042E10 ; 0.0
180 ; 1.1905345275357336E7 ; 2.0252281659955502E8 ; 2.2400170780007463E9 ; 3.463758361382812E10 ; 0.0
181 ; 1.1895575464142159E7 ; 2.0253325317950332E8 ; 2.2519224232761035E9 ; 3.484010643042767E10 ; 0.0
182 ; 1.188740402935039E7 ; 2.0254364833339387E8 ; 2.263817998740246E9 ; 3.504263968360718E10 ; 0.0
183 ; 1.1883780167395234E7 ; 2.025540018482114E8 ; 2.275705402769596E9 ; 3.5245183331940575E10 ; 0.0
184 ; 1.1875293019868264E7 ; 2.0256431351206973E8 ; 2.287589182936991E9 ; 3.544773733378879E10 ; 0.0
185 ; 1.1871683824962493E7 ; 2.0257458311420637E8 ; 2.2994644759568596E9 ; 3.565030164730086E10 ; 0.0
186 ; 1.186178972980393E7 ; 2.025848104449777E8 ; 2.311336159781822E9 ; 3.585287623041506E10 ; 0.0
187 ; 1.1855228813499503E7 ; 2.0259499529585433E8 ; 2.3231979495116262E9 ; 3.605546104086004E10 ; 0.0
188 ; 1.1847412028327892E7 ; 2.026051374594167E8 ; 2.3350531783251257E9 ; 3.625805603615589E10 ; 0.0
189 ; 1.1838949707868168E7 ; 2.0261523672935075E8 ; 2.3469005903534536E9 ; 3.646066117361531E10 ; 0.0
190 ; 1.1837895900149988E7 ; 2.026252929004444E8 ; 2.3587395400613217E9 ; 3.666327641034466E10 ; 0.0
191 ; 1.1824984288966337E7 ; 2.026353057685835E8 ; 2.3705774359614716E9 ; 3.68659017032451E10 ; 0.0
192 ; 1.1821953489028443E7 ; 2.026452751307487E8 ; 2.3824024202504377E9 ; 3.706853700901369E10 ; 0.0
193 ; 1.1810671030496484E7 ; 2.026552007850119E8 ; 2.394224373739466E9 ; 3.727118228414443E10 ; 0.0
194 ; 1.1804529048677508E7 ; 2.0266508253053355E8 ; 2.406035044769963E9 ; 3.747383748492944E10 ; 0.0
195 ; 1.1797189531808434E7 ; 2.0267492016755962E8 ; 2.41783957381864E9 ; 3.767650256745998E10 ; 0.0
