CSV File for the City 4 on Day 25
1 - Minute m 
2 - Power Consumed at minute m 
3 - Power Produced at minute m 
4 - Energy Consumed since the beginning of the day 
5 - Energy Produced since the beginning of the day 
6 - Energy Lost since the beginning of the day on lines starting from the city
 
0 ; 6794815.878428461 ; 1.0537327449108288E8 ; 0.0 ; 0.0 ; 0.0
1 ; 6800672.100039789 ; 1.0551667143361294E8 ; 6794815.878428461 ; 1.0537327449108288E8 ; 0.0
2 ; 6810052.22404928 ; 1.0596932814799663E8 ; 1.359548797846825E7 ; 2.1088994592469582E8 ; 0.0
3 ; 6819410.455511043 ; 1.0673135097720695E8 ; 2.040554020251753E7 ; 3.1685927407269245E8 ; 0.0
4 ; 6826702.698707077 ; 1.0780286150688428E8 ; 2.7224950658028573E7 ; 4.235906250498994E8 ; 0.0
5 ; 6841276.127421097 ; 1.0918399514786643E8 ; 3.405165335673565E7 ; 5.313934865567837E8 ; 0.0
6 ; 6857142.81436166 ; 1.1087489707077548E8 ; 4.089292948415674E7 ; 6.405774817046502E8 ; 0.0
7 ; 6878377.830198958 ; 1.1287571461773485E8 ; 4.7750072298518404E7 ; 7.514523787754257E8 ; 0.0
8 ; 6911891.620049585 ; 1.151865858858943E8 ; 5.462845012871736E7 ; 8.643280933931606E8 ; 0.0
9 ; 6965537.866787159 ; 1.1780762540392834E8 ; 6.1540341748766944E7 ; 9.795146792790549E8 ; 0.0
10 ; 7038421.720485463 ; 1.2073890946529561E8 ; 6.850587961555411E7 ; 1.0973223046829832E9 ; 0.0
11 ; 7165088.942446521 ; 1.239804649101012E8 ; 7.554430133603957E7 ; 1.2180612141482787E9 ; 0.0
12 ; 7361674.377496453 ; 1.2753226489824E8 ; 8.270939027848609E7 ; 1.34204167905838E9 ; 0.0
13 ; 7551713.948889765 ; 1.3139423313625336E8 ; 9.007106465598254E7 ; 1.46957394395662E9 ; 0.0
14 ; 7572572.650810377 ; 1.3556625509546685E8 ; 9.76227786048723E7 ; 1.6009681770928733E9 ; 0.0
15 ; 7583012.243890961 ; 1.400481926787306E8 ; 1.0519535125568268E8 ; 1.7365344321883402E9 ; 0.0
16 ; 7594693.786635367 ; 1.4483989854392132E8 ; 1.1277836349957363E8 ; 1.8765826248670707E9 ; 0.0
17 ; 7602434.167689681 ; 1.4994122752041683E8 ; 1.20373057286209E8 ; 2.021422523410992E9 ; 0.0
18 ; 7608046.800592949 ; 1.5535204419737935E8 ; 1.2797549145389868E8 ; 2.171363750931409E9 ; 0.0
19 ; 7618699.737948109 ; 1.610722269891685E8 ; 1.3558353825449163E8 ; 2.326715795128788E9 ; 0.0
20 ; 7625924.554716518 ; 1.6710166955281124E8 ; 1.4320223799243975E8 ; 2.4877880221179566E9 ; 0.0
21 ; 7637686.52279942 ; 1.7344028050226143E8 ; 1.5082816254715627E8 ; 2.654889691670768E9 ; 0.0
22 ; 7644691.901432442 ; 1.800879821873989E8 ; 1.584658490699557E8 ; 2.8283299721730294E9 ; 0.0
23 ; 7654862.360556674 ; 1.8704470906838006E8 ; 1.6611054097138816E8 ; 3.0084179543604283E9 ; 0.0
24 ; 7663943.938003336 ; 1.9431040600952387E8 ; 1.7376540333194482E8 ; 3.195462663428808E9 ; 0.0
25 ; 7672291.0487529235 ; 2.005730675663042E8 ; 1.8142934726994815E8 ; 3.389773069438332E9 ; 0.0
26 ; 7682535.283458098 ; 2.0058620258599854E8 ; 1.891016383187011E8 ; 3.5903461370046363E9 ; 0.0
27 ; 7689013.194603892 ; 2.0059954749562904E8 ; 1.9678417360215917E8 ; 3.790932339590635E9 ; 0.0
28 ; 7697896.269599853 ; 2.0061307450583723E8 ; 2.0447318679676306E8 ; 3.9915318870862637E9 ; 0.0
29 ; 7707466.009030379 ; 2.0062676003634498E8 ; 2.1217108306636292E8 ; 4.192144961592101E9 ; 0.0
30 ; 7715734.292086106 ; 2.0064058399953458E8 ; 2.198785490753933E8 ; 4.392771721628446E9 ; 0.0
31 ; 7723479.929320518 ; 2.0065452921151906E8 ; 2.2759428336747938E8 ; 4.59341230562798E9 ; 0.0
32 ; 7729357.826654191 ; 2.0066858090889058E8 ; 2.353177632967999E8 ; 4.794066834839499E9 ; 0.0
33 ; 7735436.93163957 ; 2.0068272635221532E8 ; 2.430471211234541E8 ; 4.99473541574839E9 ; 0.0
34 ; 7744683.964564267 ; 2.0069695450033185E8 ; 2.5078255805509368E8 ; 5.195418142100606E9 ; 0.0
35 ; 7753841.71562262 ; 2.0071125574227378E8 ; 2.5852724201965794E8 ; 5.396115096600938E9 ; 0.0
36 ; 7761438.93810368 ; 2.0072562167604655E8 ; 2.6628108373528057E8 ; 5.596826352343211E9 ; 0.0
37 ; 7767558.7774992725 ; 2.0074004492551827E8 ; 2.7404252267338425E8 ; 5.797551974019258E9 ; 0.0
38 ; 7772994.639478974 ; 2.0075451898835802E8 ; 2.818100814508835E8 ; 5.998292018944776E9 ; 0.0
39 ; 7778119.268796359 ; 2.0076903810931852E8 ; 2.895830760903625E8 ; 6.199046537933134E9 ; 0.0
40 ; 7786255.418276805 ; 2.007835971742622E8 ; 2.973611953591589E8 ; 6.399815576042453E9 ; 0.0
41 ; 7790938.421950044 ; 2.007981916212135E8 ; 3.0514745077743566E8 ; 6.600599173216715E9 ; 0.0
42 ; 7794941.549129555 ; 2.0081281736543202E8 ; 3.129383891993857E8 ; 6.801397364837929E9 ; 0.0
43 ; 7797360.036528192 ; 2.0082747073606923E8 ; 3.2073333074851525E8 ; 7.002210182203361E9 ; 0.0
44 ; 7804229.933779401 ; 2.0084214842242765E8 ; 3.285306907850434E8 ; 7.20303765293943E9 ; 0.0
45 ; 7808077.884762097 ; 2.008568474282085E8 ; 3.3633492071882284E8 ; 7.403879801361858E9 ; 0.0
46 ; 7812421.830565353 ; 2.0087156503242722E8 ; 3.4414299860358495E8 ; 7.604736648790067E9 ; 0.0
47 ; 7818531.452377618 ; 2.0088629875591424E8 ; 3.519554204341503E8 ; 7.805608213822494E9 ; 0.0
48 ; 7822289.9122288795 ; 2.0090104633250985E8 ; 3.597739518865279E8 ; 8.006494512578408E9 ; 0.0
49 ; 7822709.375577187 ; 2.0091580568421772E8 ; 3.675962417987568E8 ; 8.207395558910918E9 ; 0.0
50 ; 7824187.605726224 ; 2.009305748997075E8 ; 3.75418951174334E8 ; 8.408311364595136E9 ; 0.0
51 ; 7826178.382276812 ; 2.0094535221565977E8 ; 3.8324313878006023E8 ; 8.609241939494843E9 ; 0.0
52 ; 7830237.377017999 ; 2.0096013600053176E8 ; 3.9106931716233706E8 ; 8.810187291710503E9 ; 0.0
53 ; 7832578.302884971 ; 2.0097492474038988E8 ; 3.9889955453935504E8 ; 9.011147427711035E9 ; 0.0
54 ; 7833185.539305957 ; 2.0098971702651304E8 ; 4.0673213284224004E8 ; 9.212122352451426E9 ; 0.0
55 ; 7833170.48076811 ; 2.010045115445171E8 ; 4.14565318381546E8 ; 9.413112069477938E9 ; 0.0
56 ; 7834855.763001631 ; 2.0101930706478992E8 ; 4.223984888623141E8 ; 9.614116581022455E9 ; 0.0
57 ; 7838954.556253186 ; 2.0103410243405843E8 ; 4.302333446253157E8 ; 9.815135888087246E9 ; 0.0
58 ; 7841356.340207899 ; 2.0104889656793648E8 ; 4.380722991815689E8 ; 1.0016169990521305E10 ; 0.0
59 ; 7841767.674418766 ; 2.0106368844432417E8 ; 4.459136555217768E8 ; 1.0217218887089241E10 ; 0.0
60 ; 7842329.179336705 ; 2.010784770975486E8 ; 4.5375542319619554E8 ; 1.0418282575533566E10 ; 0.0
61 ; 7844314.654037445 ; 2.010932616131518E8 ; 4.6159775237553227E8 ; 1.0619361052631115E10 ; 0.0
62 ; 7847540.080123695 ; 2.0110804112324437E8 ; 4.694420670295697E8 ; 1.0820454314244267E10 ; 0.0
63 ; 7846800.2366438685 ; 2.011228148023559E8 ; 4.772896071096934E8 ; 1.1021562355367512E10 ; 0.0
64 ; 7848630.302088018 ; 2.0113758186372095E8 ; 4.8513640734633726E8 ; 1.1222685170169868E10 ; 0.0
65 ; 7849482.412336705 ; 2.0115234155594948E8 ; 4.929850376484253E8 ; 1.142382275203359E10 ; 0.0
66 ; 7852986.321004783 ; 2.0116709316003615E8 ; 5.00834520060762E8 ; 1.162497509358954E10 ; 0.0
67 ; 7852231.432736467 ; 2.0118183598666912E8 ; 5.086875063817668E8 ; 1.1826142186749577E10 ; 0.0
68 ; 7851462.377396442 ; 2.011965693738047E8 ; 5.1653973781450325E8 ; 1.2027324022736246E10 ; 0.0
69 ; 7855077.5128099555 ; 2.0121129268447748E8 ; 5.243912001918997E8 ; 1.222852059211005E10 ; 0.0
70 ; 7853912.994020705 ; 2.0122600530482042E8 ; 5.3224627770470965E8 ; 1.2429731884794527E10 ; 0.0
71 ; 7853630.604564193 ; 2.0124070664227155E8 ; 5.401001906987303E8 ; 1.2630957890099348E10 ; 0.0
72 ; 7853192.06871437 ; 2.012553961239475E8 ; 5.479538213032945E8 ; 1.283219859674162E10 ; 0.0
73 ; 7855906.370553795 ; 2.0127007319516608E8 ; 5.558070133720089E8 ; 1.3033453992865566E10 ; 0.0
74 ; 7854675.306844081 ; 2.012847373181026E8 ; 5.636629197425628E8 ; 1.3234724066060732E10 ; 0.0
75 ; 7855198.434273365 ; 2.0129938797056562E8 ; 5.715175950494069E8 ; 1.3436008803378834E10 ; 0.0
76 ; 7856510.690109875 ; 2.0131402464488077E8 ; 5.793727934836802E8 ; 1.36373081913494E10 ; 0.0
77 ; 7855358.361864571 ; 2.0132864684687105E8 ; 5.872293041737901E8 ; 1.383862221599428E10 ; 0.0
78 ; 7855950.345381349 ; 2.013432540949246E8 ; 5.950846625356547E8 ; 1.403995086284115E10 ; 0.0
79 ; 7854289.027901733 ; 2.0135784591914114E8 ; 6.02940612881036E8 ; 1.4241294116936075E10 ; 0.0
80 ; 7852255.95542194 ; 2.0137242186054984E8 ; 6.107949019089378E8 ; 1.4442651962855217E10 ; 0.0
81 ; 7847603.403704209 ; 2.013869814703912E8 ; 6.186471578643597E8 ; 1.4644024384715767E10 ; 0.0
82 ; 7843508.125697129 ; 2.014015243094578E8 ; 6.264947612680639E8 ; 1.4845411366186157E10 ; 0.0
83 ; 7844601.120838636 ; 2.0141604994748768E8 ; 6.34338269393761E8 ; 1.5046812890495615E10 ; 0.0
84 ; 7842224.471105105 ; 2.01430557962606E8 ; 6.421828705145997E8 ; 1.5248228940443102E10 ; 0.0
85 ; 7838525.83463857 ; 2.0144504794081062E8 ; 6.500250949857048E8 ; 1.5449659498405708E10 ; 0.0
86 ; 7836066.946466507 ; 2.0145951947549728E8 ; 6.578636208203434E8 ; 1.565110454634652E10 ; 0.0
87 ; 7832413.977306935 ; 2.014739721670214E8 ; 6.656996877668099E8 ; 1.5852564065822018E10 ; 0.0
88 ; 7827912.1528124595 ; 2.0148840562229306E8 ; 6.735321017441169E8 ; 1.6054038037989038E10 ; 0.0
89 ; 7827412.376025157 ; 2.0150281945440227E8 ; 6.813600138969294E8 ; 1.6255526443611332E10 ; 0.0
90 ; 7822854.765034773 ; 2.0151721328227204E8 ; 6.891874262729546E8 ; 1.6457029263065735E10 ; 0.0
91 ; 7820244.642830566 ; 2.0153158673033684E8 ; 6.970102810379894E8 ; 1.6658546476348007E10 ; 0.0
92 ; 7818734.5169923315 ; 2.0154593942824465E8 ; 7.0483052568082E8 ; 1.6860078063078344E10 ; 0.0
93 ; 7813278.49709038 ; 2.0156027101057997E8 ; 7.126492601978123E8 ; 1.706162400250659E10 ; 0.0
94 ; 7809783.896553316 ; 2.015745811166069E8 ; 7.204625386949027E8 ; 1.726318427351717E10 ; 0.0
95 ; 7808845.799504706 ; 2.0158886939003018E8 ; 7.282723225914559E8 ; 1.7464758854633778E10 ; 0.0
96 ; 7802543.954861245 ; 2.0160313547877288E8 ; 7.360811683909607E8 ; 1.7666347724023808E10 ; 0.0
97 ; 7799512.567127881 ; 2.0161737903476942E8 ; 7.43883712345822E8 ; 1.786795085950258E10 ; 0.0
98 ; 7792328.361273167 ; 2.0163159971377277E8 ; 7.516832249129498E8 ; 1.806956823853735E10 ; 0.0
99 ; 7790772.163815113 ; 2.0164579717517474E8 ; 7.59475553274223E8 ; 1.827119983825112E10 ; 0.0
100 ; 7788094.83108274 ; 2.016599710818384E8 ; 7.672663254380381E8 ; 1.8472845635426296E10 ; 0.0
101 ; 7785101.752276979 ; 2.016741210999415E8 ; 7.750544202691208E8 ; 1.8674505606508133E10 ; 0.0
102 ; 7780309.356512818 ; 2.016882468988303E8 ; 7.828395220213978E8 ; 1.8876179727608074E10 ; 0.0
103 ; 7776393.968474991 ; 2.0170234815088317E8 ; 7.906198313779106E8 ; 1.9077867974506905E10 ; 0.0
104 ; 7774892.100863819 ; 2.0171642453138268E8 ; 7.983962253463856E8 ; 1.9279570322657787E10 ; 0.0
105 ; 7767464.861110325 ; 2.017304757183963E8 ; 8.061711174472494E8 ; 1.948128674718917E10 ; 0.0
106 ; 7764291.242106949 ; 2.0174450139266446E8 ; 8.139385823083597E8 ; 1.9683017222907566E10 ; 0.0
107 ; 7759765.29135887 ; 2.017585012374959E8 ; 8.217028735504667E8 ; 1.9884761724300232E10 ; 0.0
108 ; 7754421.666853556 ; 2.017724749386695E8 ; 8.294626388418255E8 ; 2.0086520225537727E10 ; 0.0
109 ; 7753419.401656408 ; 2.0178642218434235E8 ; 8.37217060508679E8 ; 2.02882927004764E10 ; 0.0
110 ; 7743468.138714034 ; 2.0180034266496345E8 ; 8.449704799103354E8 ; 2.049007912266074E10 ; 0.0
111 ; 7741155.047591227 ; 2.0181423607319286E8 ; 8.527139480490495E8 ; 2.0691879465325703E10 ; 0.0
112 ; 7736043.445710035 ; 2.018281021038257E8 ; 8.604551030966407E8 ; 2.0893693701398895E10 ; 0.0
113 ; 7732183.242100022 ; 2.0184194045372075E8 ; 8.681911465423508E8 ; 2.109552180350272E10 ; 0.0
114 ; 7724824.16601221 ; 2.018557508217337E8 ; 8.759233297844508E8 ; 2.129736374395644E10 ; 0.0
115 ; 7721927.966046748 ; 2.0186953290865403E8 ; 8.836481539504629E8 ; 2.1499219494778175E10 ; 0.0
116 ; 7716537.335495584 ; 2.0188328641714588E8 ; 8.913700819165096E8 ; 2.170108902768683E10 ; 0.0
117 ; 7710714.774737623 ; 2.018970110516925E8 ; 8.990866192520052E8 ; 2.1902972314103973E10 ; 0.0
118 ; 7705453.96212241 ; 2.0191070651854387E8 ; 9.067973340267428E8 ; 2.2104869325155666E10 ; 0.0
119 ; 7700448.977505105 ; 2.019243725256676E8 ; 9.145027879888653E8 ; 2.230678003167421E10 ; 0.0
120 ; 7696504.540589902 ; 2.0193800878270257E8 ; 9.222032369663703E8 ; 2.250870440419988E10 ; 0.0
121 ; 7689507.981093171 ; 2.019516150009153E8 ; 9.298997415069603E8 ; 2.2710642412982582E10 ; 0.0
122 ; 7683421.061339634 ; 2.019651908931591E8 ; 9.375892494880534E8 ; 2.2912594027983498E10 ; 0.0
123 ; 7677520.928105613 ; 2.0197873617383525E8 ; 9.45272670549393E8 ; 2.3114559218876656E10 ; 0.0
124 ; 7674875.062415172 ; 2.019922505588569E8 ; 9.529501914774987E8 ; 2.331653795505049E10 ; 0.0
125 ; 7668690.68864452 ; 2.0200573376561457E8 ; 9.606250665399138E8 ; 2.351853020560935E10 ; 0.0
126 ; 7661082.283944622 ; 2.02019185512944E8 ; 9.682937572285583E8 ; 2.372053593937496E10 ; 0.0
127 ; 7656622.809035275 ; 2.020326055210959E8 ; 9.759548395125029E8 ; 2.3922555124887905E10 ; 0.0
128 ; 7649868.044994376 ; 2.020459935117071E8 ; 9.836114623215382E8 ; 2.4124587730409E10 ; 0.0
129 ; 7643528.662926382 ; 2.0205934920777372E8 ; 9.912613303665326E8 ; 2.4326633723920708E10 ; 0.0
130 ; 7635384.208346011 ; 2.0207267233362582E8 ; 9.98904859029459E8 ; 2.4528693073128483E10 ; 0.0
131 ; 7626969.985187755 ; 2.0208596261490336E8 ; 1.006540243237805E9 ; 2.473076574546211E10 ; 0.0
132 ; 7619931.605278549 ; 2.0209921977853373E8 ; 1.0141672132229928E9 ; 2.493285170807701E10 ; 0.0
133 ; 7609693.615491196 ; 2.0211244355271056E8 ; 1.0217871448282713E9 ; 2.5134950927855545E10 ; 0.0
134 ; 7600858.178207426 ; 2.0212563366687363E8 ; 1.0293968384437624E9 ; 2.5337063371408257E10 ; 0.0
135 ; 7591446.494167148 ; 2.0213878985169017E8 ; 1.0369976966219698E9 ; 2.553918900507513E10 ; 0.0
136 ; 7581932.918002744 ; 2.02151911839037E8 ; 1.0445891431161369E9 ; 2.574132779492682E10 ; 0.0
137 ; 7572962.227628498 ; 2.02164999361984E8 ; 1.0521710760341396E9 ; 2.5943479706765858E10 ; 0.0
138 ; 7566928.725631951 ; 2.0217805215477827E8 ; 1.0597440382617681E9 ; 2.6145644706127842E10 ; 0.0
139 ; 7556111.391364732 ; 2.0219106995282945E8 ; 1.0673109669874E9 ; 2.634782275828262E10 ; 0.0
140 ; 7547224.390474778 ; 2.0220405249269584E8 ; 1.0748670783787649E9 ; 2.655001382823545E10 ; 0.0
141 ; 7536463.235473647 ; 2.022169995120713E8 ; 1.0824143027692397E9 ; 2.6752217880728146E10 ; 0.0
142 ; 7527552.525954762 ; 2.0222991074977306E8 ; 1.0899507660047133E9 ; 2.6954434880240215E10 ; 0.0
143 ; 7520798.783173531 ; 2.0224278594573003E8 ; 1.097478318530668E9 ; 2.715666479098999E10 ; 0.0
144 ; 7511310.9527609395 ; 2.022556248409722E8 ; 1.1049991173138416E9 ; 2.735890757693572E10 ; 0.0
145 ; 7503987.381775255 ; 2.0226842717762035E8 ; 1.1125104282666025E9 ; 2.756116320177669E10 ; 0.0
146 ; 7497084.862041801 ; 2.0228119269887668E8 ; 1.1200144156483777E9 ; 2.776343162895431E10 ; 0.0
147 ; 7489972.552801022 ; 2.0229392114901572E8 ; 1.1275115005104194E9 ; 2.7965712821653187E10 ; 0.0
148 ; 7481648.528808311 ; 2.0230661227337617E8 ; 1.1350014730632205E9 ; 2.8168006742802204E10 ; 0.0
149 ; 7476873.82902379 ; 2.0231926581835297E8 ; 1.1424831215920289E9 ; 2.837031335507558E10 ; 0.0
150 ; 7467097.934880703 ; 2.0233188153139016E8 ; 1.1499599954210527E9 ; 2.8572632620893932E10 ; 0.0
151 ; 7459101.968126016 ; 2.0234445916097397E8 ; 1.1574270933559334E9 ; 2.8774964502425323E10 ; 0.0
152 ; 7456321.029610019 ; 2.0235699845662653E8 ; 1.1648861953240595E9 ; 2.8977308961586296E10 ; 0.0
153 ; 7448497.389878124 ; 2.0236949916890007E8 ; 1.1723425163536694E9 ; 2.9179665960042923E10 ; 0.0
154 ; 7440073.069363066 ; 2.023819610493713E8 ; 1.1797910137435474E9 ; 2.9382035459211823E10 ; 0.0
155 ; 7434353.231434232 ; 2.0239438385063648E8 ; 1.1872310868129106E9 ; 2.9584417420261192E10 ; 0.0
156 ; 7426668.374969422 ; 2.024067673263066E8 ; 1.194665440044345E9 ; 2.9786811804111828E10 ; 0.0
157 ; 7421816.809649198 ; 2.0241911123100325E8 ; 1.2020921084193144E9 ; 2.9989218571438133E10 ; 0.0
158 ; 7414150.320470705 ; 2.0243141532035434E8 ; 1.2095139252289636E9 ; 3.0191637682669136E10 ; 0.0
159 ; 7405674.832105527 ; 2.0244367935099068E8 ; 1.2169280755494344E9 ; 3.039406909798949E10 ; 0.0
160 ; 7397704.742843224 ; 2.0245590308054253E8 ; 1.22433375038154E9 ; 3.059651277734048E10 ; 0.0
161 ; 7392110.92943833 ; 2.0246808626763654E8 ; 1.2317314551243832E9 ; 3.0798968680421024E10 ; 0.0
162 ; 7383974.733500384 ; 2.0248022867189294E8 ; 1.2391235660538216E9 ; 3.100143676668866E10 ; 0.0
163 ; 7376696.614692594 ; 2.024923300539231E8 ; 1.246507540787322E9 ; 3.1203916995360554E10 ; 0.0
164 ; 7370199.231230385 ; 2.0250439017532724E8 ; 1.2538842374020147E9 ; 3.140640932541448E10 ; 0.0
165 ; 7360982.185633313 ; 2.0251640879869232E8 ; 1.2612544366332452E9 ; 3.1608913715589806E10 ; 0.0
166 ; 7355954.0379623305 ; 2.0252838568759042E8 ; 1.2686154188188787E9 ; 3.1811430124388496E10 ; 0.0
167 ; 7345479.8857073765 ; 2.0254032060657698E8 ; 1.275971372856841E9 ; 3.2013958510076088E10 ; 0.0
168 ; 7339617.143442107 ; 2.0255221332118964E8 ; 1.2833168527425485E9 ; 3.2216498830682667E10 ; 0.0
169 ; 7333473.775540068 ; 2.0256406359794688E8 ; 1.2906564698859906E9 ; 3.2419051044003857E10 ; 0.0
170 ; 7324392.144139512 ; 2.025758712043472E8 ; 1.2979899436615307E9 ; 3.2621615107601803E10 ; 0.0
171 ; 7317750.561927384 ; 2.0258763590886825E8 ; 1.3053143358056703E9 ; 3.282419097880615E10 ; 0.0
172 ; 7310330.129090085 ; 2.0259935748096624E8 ; 1.3126320863675976E9 ; 3.3026778614715015E10 ; 0.0
173 ; 7300528.392021341 ; 2.0261103569107544E8 ; 1.3199424164966877E9 ; 3.322937797219598E10 ; 0.0
174 ; 7295230.60300569 ; 2.0262267031060794E8 ; 1.327242944888709E9 ; 3.3431989007887054E10 ; 0.0
175 ; 7294507.468382128 ; 2.026342611119535E8 ; 1.3345381754917147E9 ; 3.3634611678197662E10 ; 0.0
176 ; 7287565.322189414 ; 2.026458078684794E8 ; 1.3418326829600968E9 ; 3.3837245939309616E10 ; 0.0
177 ; 7281546.848004342 ; 2.0265731035453087E8 ; 1.3491202482822862E9 ; 3.4039891747178097E10 ; 0.0
178 ; 7277903.2818363 ; 2.0266876834543094E8 ; 1.3564017951302905E9 ; 3.4242549057532627E10 ; 0.0
179 ; 7275214.5541938525 ; 2.0268018161748123E8 ; 1.3636796984121268E9 ; 3.444521782587806E10 ; 0.0
180 ; 7270084.169601329 ; 2.0269154994796214E8 ; 1.3709549129663205E9 ; 3.4647898007495544E10 ; 0.0
181 ; 7265740.045559385 ; 2.0270287311513358E8 ; 1.378224997135922E9 ; 3.4850589557443504E10 ; 0.0
182 ; 7261427.569694665 ; 2.027141508982357E8 ; 1.3854907371814814E9 ; 3.505329243055864E10 ; 0.0
183 ; 7258579.740930085 ; 2.0272538307748967E8 ; 1.392752164751176E9 ; 3.525600658145688E10 ; 0.0
184 ; 7250172.031539205 ; 2.0273656943409863E8 ; 1.4000107444921062E9 ; 3.545873196453437E10 ; 0.0
185 ; 7247794.85792007 ; 2.0274770975024864E8 ; 1.4072609165236454E9 ; 3.566146853396847E10 ; 0.0
186 ; 7242701.903164438 ; 2.0275880380910978E8 ; 1.4145087113815656E9 ; 3.586421624371872E10 ; 0.0
187 ; 7237348.651096733 ; 2.0276985139483738E8 ; 1.42175141328473E9 ; 3.606697504752783E10 ; 0.0
188 ; 7232642.914186477 ; 2.027808522925732E8 ; 1.4289887619358268E9 ; 3.626974489892267E10 ; 0.0
189 ; 7230163.234376894 ; 2.0279180628844687E8 ; 1.4362214048500133E9 ; 3.647252575121524E10 ; 0.0
190 ; 7226017.511457113 ; 2.0280271316957718E8 ; 1.4434515680843902E9 ; 3.6675317557503685E10 ; 0.0
191 ; 7218421.2697172975 ; 2.0281357272407362E8 ; 1.4506775855958474E9 ; 3.687812027067326E10 ; 0.0
192 ; 7217388.2303451365 ; 2.0282438474103782E8 ; 1.4578960068655646E9 ; 3.708093384339734E10 ; 0.0
193 ; 7210376.115275193 ; 2.0283514901056528E8 ; 1.4651133950959098E9 ; 3.7283758228138374E10 ; 0.0
194 ; 7206505.149133107 ; 2.02845865323747E8 ; 1.472323771211185E9 ; 3.748659337714894E10 ; 0.0
195 ; 7201420.263207883 ; 2.0285653347267115E8 ; 1.4795302763603182E9 ; 3.768943924247269E10 ; 0.0
196 ; 7195462.356923606 ; 2.0286715325042477E8 ; 1.486731696623526E9 ; 3.789229577594536E10 ; 0.0
197 ; 7191586.479854009 ; 2.0287772445109576E8 ; 1.4939271589804497E9 ; 3.8095162929195786E10 ; 0.0
198 ; 7188766.432054147 ; 2.028882468697746E8 ; 1.5011187454603038E9 ; 3.829804065364688E10 ; 0.0
199 ; 7184245.151562247 ; 2.0289872030255634E8 ; 1.5083075118923578E9 ; 3.8500928900516655E10 ; 0.0
200 ; 7178301.897047883 ; 2.0290914454654253E8 ; 1.51549175704392E9 ; 3.8703827620819214E10 ; 0.0
201 ; 7174049.321335469 ; 1.842217843421433E8 ; 1.522670058940968E9 ; 3.890673676536575E10 ; 0.0
