CSV File for the City 1 on Day 325
1 - Minute m 
2 - Power Consumed at minute m 
3 - Power Produced at minute m 
4 - Energy Consumed since the beginning of the day 
5 - Energy Produced since the beginning of the day 
6 - Energy Lost since the beginning of the day on lines starting from the city
 
0 ; 1.6171204480654296E7 ; 1.0575589731278834E8 ; 0.0 ; 0.0 ; 0.0
1 ; 1.6184901718889095E7 ; 1.0590878046914351E8 ; 1.6171204480654296E7 ; 1.0575589731278834E8 ; 0.0
2 ; 1.6209488241028668E7 ; 1.0637045369543883E8 ; 3.235610619954339E7 ; 2.1166467778193185E8 ; 0.0
3 ; 1.6225223910623077E7 ; 1.0714091806026244E8 ; 4.856559444057206E7 ; 3.180351314773707E8 ; 0.0
4 ; 1.6252019197616E7 ; 1.0822017451622474E8 ; 6.479081835119514E7 ; 4.251760495376331E8 ; 0.0
5 ; 1.6274457936213745E7 ; 1.0960822389640856E8 ; 8.104283754881114E7 ; 5.3339622405385786E8 ; 0.0
6 ; 1.6316933313867135E7 ; 1.113050669112257E8 ; 9.731729548502488E7 ; 6.430044479502664E8 ; 0.0
7 ; 1.6368782154748954E7 ; 1.1331070414570749E8 ; 1.1363422879889202E8 ; 7.54309514861492E8 ; 0.0
8 ; 1.644657777357984E7 ; 1.1562513605725318E8 ; 1.3000301095364097E8 ; 8.676202190071995E8 ; 0.0
9 ; 1.6567821901271401E7 ; 1.1824836297385716E8 ; 1.464495887272208E8 ; 9.832453550644526E8 ; 0.0
10 ; 1.675067724742148E7 ; 1.2118038509283066E8 ; 1.630174106284922E8 ; 1.1014937180383098E9 ; 0.0
11 ; 1.7039524896384794E7 ; 1.2442120248003003E8 ; 1.7976808787591368E8 ; 1.2226741031311405E9 ; 0.0
12 ; 1.7499958652670853E7 ; 1.2797081506959888E8 ; 1.9680761277229849E8 ; 1.3470953056111705E9 ; 0.0
13 ; 1.7946400402129106E7 ; 1.31829222664226E8 ; 2.1430757142496935E8 ; 1.4750661206807694E9 ; 0.0
14 ; 1.800604818192827E7 ; 1.3599642493591708E8 ; 2.3225397182709846E8 ; 1.6068953433449955E9 ; 0.0
15 ; 1.8019699725595362E7 ; 1.4047242142727274E8 ; 2.5026002000902674E8 ; 1.7428917682809126E9 ; 0.0
16 ; 1.804132414456543E7 ; 1.452572115532618E8 ; 2.682797197346221E8 ; 1.8833641897081854E9 ; 0.0
17 ; 1.806812498483314E7 ; 1.5035079460347232E8 ; 2.863210438791875E8 ; 2.0286214012614472E9 ; 0.0
18 ; 1.8088232611584004E7 ; 1.5575316974482155E8 ; 3.0438916886402065E8 ; 2.1789721958649197E9 ; 0.0
19 ; 1.8108648337732926E7 ; 1.6146433602469906E8 ; 3.2247740147560465E8 ; 2.334725365609741E9 ; 0.0
20 ; 1.813045332877332E7 ; 1.674842923745167E8 ; 3.4058604981333756E8 ; 2.4961897016344404E9 ; 0.0
21 ; 1.8154791792496894E7 ; 1.7381303761363348E8 ; 3.587165031421109E8 ; 2.663673994008957E9 ; 0.0
22 ; 1.818000125543901E7 ; 1.8045057045362312E8 ; 3.768712949346078E8 ; 2.8374870316225905E9 ; 0.0
23 ; 1.8197003015490867E7 ; 1.8739688950284845E8 ; 3.950512961900468E8 ; 3.017937602076214E9 ; 0.0
24 ; 1.821878084133051E7 ; 1.946519932713055E8 ; 4.132482992055377E8 ; 3.2053344915790625E9 ; 0.0
25 ; 1.824016430883552E7 ; 2.009039210738836E8 ; 4.314670800468682E8 ; 3.399986484850368E9 ; 0.0
26 ; 1.8260866908545252E7 ; 2.0090621907253098E8 ; 4.497072443557037E8 ; 3.6008904059242516E9 ; 0.0
27 ; 1.8281220190065462E7 ; 2.0090865480658352E8 ; 4.6796811126424897E8 ; 3.8017966249967823E9 ; 0.0
28 ; 1.8308966664113708E7 ; 2.0091122644507882E8 ; 4.862493314543144E8 ; 4.0027052798033657E9 ; 0.0
29 ; 1.8322645468557425E7 ; 2.009139320856234E8 ; 5.045582981184281E8 ; 4.2036165062484446E9 ; 0.0
30 ; 1.8349939201058492E7 ; 2.009167697600581E8 ; 5.228809435869855E8 ; 4.404530438334068E9 ; 0.0
31 ; 1.836622716847933E7 ; 2.0091973744013235E8 ; 5.41230882788044E8 ; 4.605447208094127E9 ; 0.0
32 ; 1.838561802248301E7 ; 2.009228330431551E8 ; 5.595971099565233E8 ; 4.806366945534259E9 ; 0.0
33 ; 1.8407378691799648E7 ; 2.0092605443759155E8 ; 5.779827279790063E8 ; 5.007289778577414E9 ; 0.0
34 ; 1.8428301682751108E7 ; 2.0092939944857723E8 ; 5.963901066708059E8 ; 5.208215833015005E9 ; 0.0
35 ; 1.844133039590664E7 ; 2.00932865863324E8 ; 6.14818408353557E8 ; 5.409145232463582E9 ; 0.0
36 ; 1.8459042099396035E7 ; 2.0093645143639457E8 ; 6.332597387494637E8 ; 5.610078098326906E9 ; 0.0
37 ; 1.8478533945955005E7 ; 2.0094015389482462E8 ; 6.517187808488597E8 ; 5.811014549763301E9 ; 0.0
38 ; 1.849983361556939E7 ; 2.0094397094307503E8 ; 6.701973147948147E8 ; 6.011954703658126E9 ; 0.0
39 ; 1.8515489923543245E7 ; 2.0094790026779807E8 ; 6.88697148410384E8 ; 6.212898674601201E9 ; 0.0
40 ; 1.853171067610964E7 ; 2.0095193954240552E8 ; 7.072126383339273E8 ; 6.4138465748689995E9 ; 0.0
41 ; 1.854012783277535E7 ; 2.0095608643142742E8 ; 7.25744349010037E8 ; 6.614798514411405E9 ; 0.0
42 ; 1.8553679349581636E7 ; 2.0096033859465414E8 ; 7.442844768428123E8 ; 6.815754600842832E9 ; 0.0
43 ; 1.8570023752152793E7 ; 2.009646936910554E8 ; 7.628381561923939E8 ; 7.016714939437486E9 ; 0.0
44 ; 1.8581510703833655E7 ; 2.0096914938247254E8 ; 7.814081799445467E8 ; 7.217679633128541E9 ; 0.0
45 ; 1.8592666967084844E7 ; 2.0097370333708265E8 ; 7.999896906483804E8 ; 7.418648782511014E9 ; 0.0
46 ; 1.8605818740275137E7 ; 2.0097835323263368E8 ; 8.185823576154653E8 ; 7.619622485848097E9 ; 0.0
47 ; 1.8612875289359316E7 ; 2.0098309675945264E8 ; 8.371881763557404E8 ; 7.82060083908073E9 ; 0.0
48 ; 1.862588766631323E7 ; 2.0098793162322965E8 ; 8.558010516450998E8 ; 8.021583935840183E9 ; 0.0
49 ; 1.8632632854122017E7 ; 2.0099285554758167E8 ; 8.74426939311413E8 ; 8.222571867463413E9 ; 0.0
50 ; 1.863685542011634E7 ; 2.0099786627640167E8 ; 8.930595721655351E8 ; 8.423564723010995E9 ; 0.0
51 ; 1.8648103917424582E7 ; 2.0100296157599896E8 ; 9.116964275856514E8 ; 8.624562589287397E9 ; 0.0
52 ; 1.8653094124433964E7 ; 2.0100813923703793E8 ; 9.30344531503076E8 ; 8.825565550863396E9 ; 0.0
53 ; 1.865659366595599E7 ; 2.0101339707628238E8 ; 9.4899762562751E8 ; 9.026573690100433E9 ; 0.0
54 ; 1.8664902290509425E7 ; 2.0101873293815422E8 ; 9.67654219293466E8 ; 9.227587087176716E9 ; 0.0
55 ; 1.8673525951961473E7 ; 2.010241446961141E8 ; 9.863191215839754E8 ; 9.42860582011487E9 ; 0.0
56 ; 1.8673769949133057E7 ; 2.0102963025387353E8 ; 1.004992647535937E9 ; 9.629629964810984E9 ; 0.0
57 ; 1.8684034423657987E7 ; 2.0103518754644686E8 ; 1.02366641748507E9 ; 9.830659595064857E9 ; 0.0
58 ; 1.8689755713508803E7 ; 2.010408145410524E8 ; 1.042350451908728E9 ; 1.0031694782611305E10 ; 0.0
59 ; 1.8697391314491577E7 ; 2.0104650923787135E8 ; 1.0610402076222368E9 ; 1.0232735597152357E10 ; 0.0
60 ; 1.870143853687602E7 ; 2.010522696706739E8 ; 1.0797375989367285E9 ; 1.0433782106390228E10 ; 0.0
61 ; 1.870732129125857E7 ; 2.0105809390732095E8 ; 1.0984390374736044E9 ; 1.0634834376060902E10 ; 0.0
62 ; 1.8709812437824752E7 ; 2.0106398005015007E8 ; 1.117146358764863E9 ; 1.0835892469968222E10 ; 0.0
63 ; 1.871609516290445E7 ; 2.0106992623625433E8 ; 1.1358561712026877E9 ; 1.1036956450018372E10 ; 0.0
64 ; 1.872420077843104E7 ; 2.0107593063766184E8 ; 1.1545722663655922E9 ; 1.1238026376254625E10 ; 0.0
65 ; 1.8726251464872852E7 ; 2.0108199146142384E8 ; 1.1732964671440232E9 ; 1.1439102306892286E10 ; 0.0
66 ; 1.8728661174518242E7 ; 2.0108810694961932E8 ; 1.192022718608896E9 ; 1.164018429835371E10 ; 0.0
67 ; 1.873398651545948E7 ; 2.0109427537928253E8 ; 1.2107513797834144E9 ; 1.184127240530333E10 ; 0.0
68 ; 1.873670306719407E7 ; 2.0110049506226116E8 ; 1.229485366298874E9 ; 1.2042366680682611E10 ; 0.0
69 ; 1.8744458240841918E7 ; 2.0110676434501085E8 ; 1.248222069366068E9 ; 1.2243467175744873E10 ; 0.0
70 ; 1.8748116854390547E7 ; 2.0111308160833284E8 ; 1.2669665276069098E9 ; 1.2444573940089884E10 ; 0.0
71 ; 1.8747690644701675E7 ; 2.011194452670603E8 ; 1.2857146444613004E9 ; 1.2645687021698217E10 ; 0.0
72 ; 1.875645765924508E7 ; 2.0112585376969853E8 ; 1.304462335106002E9 ; 1.2846806466965279E10 ; 0.0
73 ; 1.8760346125587706E7 ; 2.0113230559802473E8 ; 1.323218792765247E9 ; 1.3047932320734978E10 ; 0.0
74 ; 1.8758499922216833E7 ; 2.0113879926665163E8 ; 1.3419791388908348E9 ; 1.3249064626333002E10 ; 0.0
75 ; 1.876500906572856E7 ; 2.0114533332255977E8 ; 1.3607376388130517E9 ; 1.3450203425599653E10 ; 0.0
76 ; 1.8766387088226423E7 ; 2.0115190634460217E8 ; 1.3795026478787804E9 ; 1.3651348758922213E10 ; 0.0
77 ; 1.8767722021369915E7 ; 2.011585169429858E8 ; 1.3982690349670067E9 ; 1.3852500665266815E10 ; 0.0
78 ; 1.8763060064097635E7 ; 2.0116516375873294E8 ; 1.4170367569883766E9 ; 1.40536591822098E10 ; 0.0
79 ; 1.876865512613673E7 ; 2.011718454631258E8 ; 1.4357998170524743E9 ; 1.4254824345968534E10 ; 0.0
80 ; 1.876114255832733E7 ; 2.011785607571377E8 ; 1.454568472178611E9 ; 1.445599619143166E10 ; 0.0
81 ; 1.8758974522288166E7 ; 2.0118530837085322E8 ; 1.4733296147369385E9 ; 1.4657174752188797E10 ; 0.0
82 ; 1.8756977230407055E7 ; 2.011920870628801E8 ; 1.4920885892592266E9 ; 1.485836006055965E10 ; 0.0
83 ; 1.875409773312228E7 ; 2.0119889561975485E8 ; 1.5108455664896336E9 ; 1.505955214762253E10 ; 0.0
84 ; 1.8747183144673537E7 ; 2.0120573285534492E8 ; 1.529599664222756E9 ; 1.5260751043242285E10 ; 0.0
85 ; 1.874389345523639E7 ; 2.0121259761024833E8 ; 1.5483468473674295E9 ; 1.546195677609763E10 ; 0.0
86 ; 1.874463941737334E7 ; 2.0121948875119326E8 ; 1.567090740822666E9 ; 1.5663169373707878E10 ; 0.0
87 ; 1.8736693679996677E7 ; 2.0122640517043895E8 ; 1.5858353802400393E9 ; 1.5864388862459072E10 ; 0.0
88 ; 1.8734717196156114E7 ; 2.0123334578517902E8 ; 1.604572073920036E9 ; 1.606561526762951E10 ; 0.0
89 ; 1.872704281412105E7 ; 2.01240309536949E8 ; 1.623306791116192E9 ; 1.626684861341469E10 ; 0.0
90 ; 1.8723347446077436E7 ; 2.012472953910385E8 ; 1.642033833930313E9 ; 1.646808892295164E10 ; 0.0
91 ; 1.872129637975975E7 ; 2.0125430233590958E8 ; 1.6607571813763905E9 ; 1.6669336218342678E10 ; 0.0
92 ; 1.8710027554948363E7 ; 2.0126132938262203E8 ; 1.6794784777561502E9 ; 1.6870590520678587E10 ; 0.0
93 ; 1.8706114145018507E7 ; 2.012683755642661E8 ; 1.6981885053110986E9 ; 1.7071851850061209E10 ; 0.0
94 ; 1.870013689294498E7 ; 2.012754399354035E8 ; 1.7168946194561172E9 ; 1.7273120225625473E10 ; 0.0
95 ; 1.8700997545328517E7 ; 2.012825215715174E8 ; 1.7355947563490622E9 ; 1.7474395665560875E10 ; 0.0
96 ; 1.869169608345748E7 ; 2.0128961956847164E8 ; 1.7542957538943908E9 ; 1.7675678187132393E10 ; 0.0
97 ; 1.8682810268543303E7 ; 2.012967330419795E8 ; 1.7729874499778483E9 ; 1.7876967806700863E10 ; 0.0
98 ; 1.868550441467194E7 ; 2.013038611270829E8 ; 1.7916702602463915E9 ; 1.8078264539742844E10 ; 0.0
99 ; 1.8673074520029586E7 ; 2.0131100297764164E8 ; 1.8103557646610634E9 ; 1.8279568400869926E10 ; 0.0
100 ; 1.866494652331064E7 ; 2.0131815776583326E8 ; 1.829028839181093E9 ; 1.848087940384757E10 ; 0.0
101 ; 1.8659280948642034E7 ; 2.0132532468166372E8 ; 1.8476937857044036E9 ; 1.8682197561613403E10 ; 0.0
102 ; 1.865789993659571E7 ; 2.013325029324888E8 ; 1.8663530666530457E9 ; 1.8883522886295067E10 ; 0.0
103 ; 1.8651412504753333E7 ; 2.0133969174254647E8 ; 1.8850109665896413E9 ; 1.9084855389227554E10 ; 0.0
104 ; 1.8645304898560878E7 ; 2.013468903525002E8 ; 1.9036623790943947E9 ; 1.92861950809701E10 ; 0.0
105 ; 1.863383775423649E7 ; 2.0135409801899326E8 ; 1.9223076839929554E9 ; 1.94875419713226E10 ; 0.0
106 ; 1.8630840002572663E7 ; 2.013613140142139E8 ; 1.940941521747192E9 ; 1.9688896069341595E10 ; 0.0
107 ; 1.8623960757773165E7 ; 2.0136853762547135E8 ; 1.9595723617497647E9 ; 1.989025738335581E10 ; 0.0
108 ; 1.861688480770043E7 ; 2.0137576815478286E8 ; 1.9781963225075378E9 ; 2.009162592098128E10 ; 0.0
109 ; 1.8603535613564163E7 ; 2.0138300491847107E8 ; 1.9968132073152382E9 ; 2.0293001689136063E10 ; 0.0
110 ; 1.8598520841564193E7 ; 2.0139024724677235E8 ; 2.0154167429288025E9 ; 2.0494384694054535E10 ; 0.0
111 ; 1.8587128921094198E7 ; 2.0139749448345524E8 ; 2.0340152637703667E9 ; 2.0695774941301308E10 ; 0.0
112 ; 1.85822741632085E7 ; 2.014047459854494E8 ; 2.0526023926914608E9 ; 2.0897172435784763E10 ; 0.0
113 ; 1.857206572321205E7 ; 2.014120011224847E8 ; 2.0711846668546693E9 ; 2.1098577181770214E10 ; 0.0
114 ; 1.8565462128662266E7 ; 2.014192592767402E8 ; 2.0897567325778813E9 ; 2.12999891828927E10 ; 0.0
115 ; 1.8556320117320344E7 ; 2.014265198425028E8 ; 2.1083221947065437E9 ; 2.150140844216944E10 ; 0.0
116 ; 1.8548252812067337E7 ; 2.0143378222583583E8 ; 2.126878514823864E9 ; 2.1702834962011944E10 ; 0.0
117 ; 1.8541489540149752E7 ; 2.0144104584425676E8 ; 2.1454267676359313E9 ; 2.190426874423778E10 ; 0.0
118 ; 1.853058699054236E7 ; 2.0144831012642428E8 ; 2.163968257176081E9 ; 2.210570979008204E10 ; 0.0
119 ; 1.8522704358512282E7 ; 2.0145557451183417E8 ; 2.1824988441666236E9 ; 2.230715810020846E10 ; 0.0
120 ; 1.8510304995221034E7 ; 2.014628384505244E8 ; 2.201021548525136E9 ; 2.2508613674720295E10 ; 0.0
121 ; 1.8502830560664844E7 ; 2.0147010140278834E8 ; 2.219531853520357E9 ; 2.271007651317082E10 ; 0.0
122 ; 1.848854953962883E7 ; 2.0147736283889672E8 ; 2.238034684081022E9 ; 2.291154661457361E10 ; 0.0
123 ; 1.848688910662767E7 ; 2.0148462223882774E8 ; 2.256523233620651E9 ; 2.3113023977412506E10 ; 0.0
124 ; 1.8473046792403705E7 ; 2.0149187909200493E8 ; 2.275010122727278E9 ; 2.3314508599651333E10 ; 0.0
125 ; 1.846405846603033E7 ; 2.0149913289704314E8 ; 2.293483169519682E9 ; 2.351600047874334E10 ; 0.0
126 ; 1.8449555106185913E7 ; 2.0150638316150182E8 ; 2.311947227985712E9 ; 2.371749961164038E10 ; 0.0
127 ; 1.844294953728898E7 ; 2.0151362940164593E8 ; 2.330396783091898E9 ; 2.3919005994801884E10 ; 0.0
128 ; 1.8428817537353154E7 ; 2.0152087114221373E8 ; 2.348839732629187E9 ; 2.412051962420353E10 ; 0.0
129 ; 1.8421919007174015E7 ; 2.015281079161919E8 ; 2.36726855016654E9 ; 2.432204049534574E10 ; 0.0
130 ; 1.8405161384064093E7 ; 2.0153533926459718E8 ; 2.385690469173714E9 ; 2.4523568603261932E10 ; 0.0
131 ; 1.838565616921698E7 ; 2.015425647362647E8 ; 2.4040956305577784E9 ; 2.472510394252653E10 ; 0.0
132 ; 1.837417568535063E7 ; 2.0154978388764286E8 ; 2.4224812867269955E9 ; 2.4926646507262794E10 ; 0.0
133 ; 1.835707268515656E7 ; 2.015569962825941E8 ; 2.440855462412346E9 ; 2.5128196291150436E10 ; 0.0
134 ; 1.833749790366808E7 ; 2.015642014922022E8 ; 2.459212535097502E9 ; 2.532975328743303E10 ; 0.0
135 ; 1.832167404550209E7 ; 2.0157139909458494E8 ; 2.47755003300117E9 ; 2.5531317488925232E10 ; 0.0
136 ; 1.8305261770045675E7 ; 2.0157858867471287E8 ; 2.4958717070466723E9 ; 2.5732888888019817E10 ; 0.0
137 ; 1.8284906890503038E7 ; 2.0158576982423338E8 ; 2.514176968816718E9 ; 2.593446747669453E10 ; 0.0
138 ; 1.8270236604242124E7 ; 2.015929421413003E8 ; 2.532461875707221E9 ; 2.6136053246518764E10 ; 0.0
139 ; 1.825119857554601E7 ; 2.0160010523040837E8 ; 2.5507321123114634E9 ; 2.6337646188660065E10 ; 0.0
140 ; 1.8230485893891368E7 ; 2.016072587022334E8 ; 2.568983310887009E9 ; 2.6539246293890472E10 ; 0.0
141 ; 1.8214335664140493E7 ; 2.016144021734765E8 ; 2.5872137967809005E9 ; 2.6740853552592705E10 ; 0.0
142 ; 1.819457478925812E7 ; 2.0162153526671377E8 ; 2.605428132445041E9 ; 2.6942467954766182E10 ; 0.0
143 ; 1.817981848503233E7 ; 2.0162865761025026E8 ; 2.623622707234299E9 ; 2.7144089490032894E10 ; 0.0
144 ; 1.8159511664737526E7 ; 2.016357688379783E8 ; 2.6418025257193317E9 ; 2.7345718147643143E10 ; 0.0
145 ; 1.814653672499119E7 ; 2.0164286858924046E8 ; 2.6599620373840694E9 ; 2.754735391648112E10 ; 0.0
146 ; 1.813152169411561E7 ; 2.0164995650869644E8 ; 2.678108574109061E9 ; 2.7748996785070362E10 ; 0.0
147 ; 1.8124739679486085E7 ; 2.0165703224619403E8 ; 2.6962400958031764E9 ; 2.795064674157906E10 ; 0.0
148 ; 1.8113750721377116E7 ; 2.016640954566443E8 ; 2.7143648354826627E9 ; 2.8152303773825253E10 ; 0.0
149 ; 1.8099730907186005E7 ; 2.0167114579990014E8 ; 2.7324785862040396E9 ; 2.83539678692819E10 ; 0.0
150 ; 1.8087762001625378E7 ; 2.0167818294063887E8 ; 2.7505783171112256E9 ; 2.85556390150818E10 ; 0.0
151 ; 1.8078125380143177E7 ; 2.0168520654824823E8 ; 2.768666079112851E9 ; 2.8757317198022438E10 ; 0.0
152 ; 1.8070927328827463E7 ; 2.0169221629671595E8 ; 2.7867442044929943E9 ; 2.8959002404570686E10 ; 0.0
153 ; 1.8054650055679977E7 ; 2.0169921186452255E8 ; 2.8048151318218217E9 ; 2.91606946208674E10 ; 0.0
154 ; 1.804412034131947E7 ; 2.0170619293453744E8 ; 2.8228697818775015E9 ; 2.9362393832731922E10 ; 0.0
155 ; 1.8034046120205164E7 ; 2.0171315919391832E8 ; 2.840913902218821E9 ; 2.956410002566646E10 ; 0.0
156 ; 1.8018722509130403E7 ; 2.0172011033401325E8 ; 2.8589479483390265E9 ; 2.976581318486038E10 ; 0.0
157 ; 1.8007830012835257E7 ; 2.017270460502662E8 ; 2.876966670848157E9 ; 2.9967533295194393E10 ; 0.0
158 ; 1.799329244793122E7 ; 2.0173396604212496E8 ; 2.894974500860992E9 ; 3.016926034124466E10 ; 0.0
159 ; 1.7981101829846445E7 ; 2.017408700129521E8 ; 2.9129677933089232E9 ; 3.0370994307286785E10 ; 0.0
160 ; 1.796648826827672E7 ; 2.0174775766993853E8 ; 2.9309488951387696E9 ; 3.0572735177299736E10 ; 0.0
161 ; 1.7960492688989192E7 ; 2.017546287240198E8 ; 2.9489153834070463E9 ; 3.0774482934969673E10 ; 0.0
162 ; 1.7943276446938563E7 ; 2.0176148288979453E8 ; 2.9668758760960355E9 ; 3.097623756369369E10 ; 0.0
163 ; 1.793408114276583E7 ; 2.0176831988544583E8 ; 2.984819152542974E9 ; 3.1177999046583485E10 ; 0.0
164 ; 1.791623567057058E7 ; 2.0177513943266457E8 ; 3.00275323368574E9 ; 3.137976736646893E10 ; 0.0
165 ; 1.7904182469599433E7 ; 2.0178194125657523E8 ; 3.0206694693563104E9 ; 3.1581542505901592E10 ; 0.0
166 ; 1.7898105466416366E7 ; 2.0178872508566394E8 ; 3.0385736518259096E9 ; 3.178332444715817E10 ; 0.0
167 ; 1.7883949148997996E7 ; 2.017954906517085E8 ; 3.056471757292326E9 ; 3.198511317224383E10 ; 0.0
168 ; 1.78675403583705E7 ; 2.0180223768971074E8 ; 3.0743557064413238E9 ; 3.218690866289554E10 ; 0.0
169 ; 1.7849982656994082E7 ; 2.018089659378305E8 ; 3.092223246799694E9 ; 3.238871090058525E10 ; 0.0
170 ; 1.784410909685987E7 ; 2.0181567513732213E8 ; 3.110073229456688E9 ; 3.2590519866523083E10 ; 0.0
171 ; 1.783100381213899E7 ; 2.0182236503247225E8 ; 3.127917338553548E9 ; 3.2792335541660404E10 ; 0.0
172 ; 1.7816482063986197E7 ; 2.0182903537053978E8 ; 3.145748342365687E9 ; 3.2994157906692875E10 ; 0.0
173 ; 1.7805538256989438E7 ; 2.018356859016976E8 ; 3.163564824429673E9 ; 3.3195986942063416E10 ; 0.0
174 ; 1.77967695193943E7 ; 2.0184231637897593E8 ; 3.1813703626866627E9 ; 3.3397822627965115E10 ; 0.0
175 ; 1.7787772769891366E7 ; 2.0184892655820724E8 ; 3.199167132206057E9 ; 3.359966494434409E10 ; 0.0
176 ; 1.7779852393379554E7 ; 2.0185551619797313E8 ; 3.2169549049759483E9 ; 3.3801513870902298E10 ; 0.0
177 ; 1.777076513081506E7 ; 2.0186208505955234E8 ; 3.234734757369328E9 ; 3.400336938710027E10 ; 0.0
178 ; 1.776235023296927E7 ; 2.0186863290687057E8 ; 3.252505522500143E9 ; 3.420523147215982E10 ; 0.0
179 ; 1.775598659284368E7 ; 2.0187515950645164E8 ; 3.2702678727331123E9 ; 3.440710010506669E10 ; 0.0
180 ; 1.7746402092013814E7 ; 2.0188166462737015E8 ; 3.288023859325956E9 ; 3.460897526457314E10 ; 0.0
181 ; 1.773942436121329E7 ; 2.0188814804120544E8 ; 3.3057702614179697E9 ; 3.4810856929200516E10 ; 0.0
182 ; 1.773051894789862E7 ; 2.0189460952199683E8 ; 3.323509685779183E9 ; 3.501274507724172E10 ; 0.0
183 ; 1.772354176386889E7 ; 2.019E8 ; 3.3412402047270813E9 ; 3.521463968676372E10 ; 0.0
184 ; 1.7719266001902066E7 ; 2.019E8 ; 3.35896374649095E9 ; 3.541653968676372E10 ; 0.0
185 ; 1.7705805256382264E7 ; 2.019E8 ; 3.376683012492852E9 ; 3.561843968676372E10 ; 0.0
186 ; 1.7695183475360792E7 ; 2.019E8 ; 3.3943888177492347E9 ; 3.582033968676372E10 ; 0.0
187 ; 1.7689350507868744E7 ; 2.019E8 ; 3.4120840012245955E9 ; 3.602223968676372E10 ; 0.0
188 ; 1.7685420789672375E7 ; 2.019E8 ; 3.4297733517324643E9 ; 3.622413968676372E10 ; 0.0
189 ; 1.7671054486816637E7 ; 2.019E8 ; 3.4474587725221367E9 ; 3.642603968676372E10 ; 0.0
190 ; 1.76367634904727E7 ; 2.019E8 ; 3.465129827008953E9 ; 3.662793968676372E10 ; 0.0
191 ; 1.760679833706688E7 ; 2.019E8 ; 3.482766590499426E9 ; 3.682983968676372E10 ; 0.0
192 ; 1.7570104175933916E7 ; 2.019E8 ; 3.5003733888364925E9 ; 3.703173968676372E10 ; 0.0
193 ; 1.753833876716692E7 ; 2.019E8 ; 3.5179434930124264E9 ; 3.723363968676372E10 ; 0.0
194 ; 1.7500789760230184E7 ; 2.019E8 ; 3.5354818317795935E9 ; 3.743553968676372E10 ; 0.0
195 ; 1.746806156024264E7 ; 2.019E8 ; 3.5529826215398235E9 ; 3.763743968676372E10 ; 0.0
196 ; 1.743942781340619E7 ; 2.019E8 ; 3.570450683100066E9 ; 3.783933968676372E10 ; 0.0
197 ; 1.740062960528353E7 ; 2.019E8 ; 3.587890110913472E9 ; 3.804123968676372E10 ; 0.0
