CSV File for the City 2 on Day 343
1 - Minute m 
2 - Power Consumed at minute m 
3 - Power Produced at minute m 
4 - Energy Consumed since the beginning of the day 
5 - Energy Produced since the beginning of the day 
6 - Energy Lost since the beginning of the day on lines starting from the city
 
0 ; 1788278.478018136 ; 1.0527670908061823E8 ; 0.0 ; 0.0 ; 0.0
1 ; 1790908.9717501544 ; 1.0543068871072286E8 ; 1788278.478018136 ; 1.0527670908061823E8 ; 0.0
2 ; 1792905.842303282 ; 1.0589334531742266E8 ; 3579187.4497682904 ; 2.107073977913411E8 ; 0.0
3 ; 1795138.811178711 ; 1.0666467920520955E8 ; 5372093.2920715725 ; 3.1660074310876375E8 ; 0.0
4 ; 1798063.1788587766 ; 1.0774469064615554E8 ; 7167232.103250284 ; 4.232654223139733E8 ; 0.0
5 ; 1801292.7161194996 ; 1.0913337987868053E8 ; 8965295.28210906 ; 5.3101011296012884E8 ; 0.0
6 ; 1805459.6850453771 ; 1.1083074710645565E8 ; 1.076658799822856E7 ; 6.401434928388094E8 ; 0.0
7 ; 1812450.2838718547 ; 1.1283679249745423E8 ; 1.2572047683273936E7 ; 7.50974239945265E8 ; 0.0
8 ; 1822607.1822541002 ; 1.1515151618316007E8 ; 1.438449796714579E7 ; 8.638110324427192E8 ; 0.0
9 ; 1835892.410163081 ; 1.1777491825794286E8 ; 1.620710514939989E7 ; 9.789625486258793E8 ; 0.0
10 ; 1857787.3194733406 ; 1.2070699877860636E8 ; 1.804299755956297E7 ; 1.0967374668838222E9 ; 0.0
11 ; 1888959.897194865 ; 1.2394775776411572E8 ; 1.990078487903631E7 ; 1.2174444656624286E9 ; 0.0
12 ; 1945416.9031330303 ; 1.2749719519550577E8 ; 2.1789744776231177E7 ; 1.3413922234265444E9 ; 0.0
13 ; 1995550.6973733788 ; 1.3135531101597273E8 ; 2.3735161679364208E7 ; 1.4688894186220503E9 ; 0.0
14 ; 2002548.6961163492 ; 1.3552210513114703E8 ; 2.5730712376737587E7 ; 1.600244729638023E9 ; 0.0
15 ; 2004870.3053011629 ; 1.399975774095447E8 ; 2.7733261072853938E7 ; 1.7357668347691698E9 ; 0.0
16 ; 2007753.5585702066 ; 1.4478172768319258E8 ; 2.97381313781551E7 ; 1.8757644121787145E9 ; 0.0
17 ; 2011037.8584577688 ; 1.4987455574841943E8 ; 3.1745884936725307E7 ; 2.020546139861907E9 ; 0.0
18 ; 2014203.6739063961 ; 1.5527606136680537E8 ; 3.375692279518308E7 ; 2.1704206956103263E9 ; 0.0
19 ; 2015091.7601626061 ; 1.6098624426627842E8 ; 3.577112646908947E7 ; 2.325696756977132E9 ; 0.0
20 ; 2017876.3930415465 ; 1.670051041423466E8 ; 3.778621822925208E7 ; 2.48668300124341E9 ; 0.0
21 ; 2021339.676090061 ; 1.7333264065945336E8 ; 3.980409462229362E7 ; 2.6536881053857565E9 ; 0.0
22 ; 2024002.9460985274 ; 1.7996885345244175E8 ; 4.182543429838368E7 ; 2.82702074604521E9 ; 0.0
23 ; 2025993.2335289672 ; 1.8691374212811345E8 ; 4.384943724448221E7 ; 3.0069895994976516E9 ; 0.0
24 ; 2027152.1086199922 ; 1.9416730626686728E8 ; 4.5875430478011176E7 ; 3.193903341625765E9 ; 0.0
25 ; 2029495.510984206 ; 2.004175863225861E8 ; 4.790258258663117E7 ; 3.388070647892632E9 ; 0.0
26 ; 2032529.9814038298 ; 2.0041812966128537E8 ; 4.9932078097615376E7 ; 3.588488234215218E9 ; 0.0
27 ; 2034347.1769227975 ; 2.004187050878041E8 ; 5.1964608079019204E7 ; 3.7889063638765035E9 ; 0.0
28 ; 2038190.479264077 ; 2.0041931209438503E8 ; 5.3998955255942E7 ; 3.989325068964308E9 ; 0.0
29 ; 2040871.2198028925 ; 2.0041995015573445E8 ; 5.603714573520608E7 ; 4.189744381058693E9 ; 0.0
30 ; 2043616.4709918497 ; 2.0042061873083052E8 ; 5.8078016955008976E7 ; 4.390164331214427E9 ; 0.0
31 ; 2045176.0596855523 ; 2.0042131726471287E8 ; 6.0121633426000826E7 ; 4.590584949945257E9 ; 0.0
32 ; 2047131.3563829488 ; 2.004220451902429E8 ; 6.216680948568638E7 ; 4.79100626720997E9 ; 0.0
33 ; 2050089.7564642383 ; 2.004228019298242E8 ; 6.421394084206933E7 ; 4.991428312400213E9 ; 0.0
34 ; 2051992.3062101325 ; 2.0042358689707485E8 ; 6.626403059853356E7 ; 5.191851114330037E9 ; 0.0
35 ; 2053598.5155384727 ; 2.004243994984429E8 ; 6.83160229047437E7 ; 5.392274701227112E9 ; 0.0
36 ; 2057008.2941453713 ; 2.0042523913475913E8 ; 7.036962142028217E7 ; 5.592699100725554E9 ; 0.0
37 ; 2057449.9747523977 ; 2.0042610520272157E8 ; 7.242662971442755E7 ; 5.793124339860313E9 ; 0.0
38 ; 2060484.021103175 ; 2.0042699709630635E8 ; 7.448407968917994E7 ; 5.993550445063035E9 ; 0.0
39 ; 2061464.8195714804 ; 2.0042791420810303E8 ; 7.654456371028312E7 ; 6.193977442159342E9 ; 0.0
40 ; 2063205.2319145596 ; 2.004288559305704E8 ; 7.86060285298546E7 ; 6.394405356367445E9 ; 0.0
41 ; 2063542.8504803337 ; 2.0042982165721244E8 ; 8.066923376176916E7 ; 6.594834212298016E9 ; 0.0
42 ; 2066233.8643877078 ; 2.00430810783673E8 ; 8.27327766122495E7 ; 6.795264033955228E9 ; 0.0
43 ; 2068928.203067698 ; 2.0043182270874965E8 ; 8.47990104766372E7 ; 6.995694844738901E9 ; 0.0
44 ; 2069288.8054778876 ; 2.0043285683532727E8 ; 8.68679386797049E7 ; 7.196126667447651E9 ; 0.0
45 ; 2069522.2339926807 ; 2.0043391257123265E8 ; 8.893722748518279E7 ; 7.396559524282978E9 ; 0.0
46 ; 2071194.3731366848 ; 2.004349893300123E8 ; 9.100674971917547E7 ; 7.596993436854211E9 ; 0.0
47 ; 2073937.6107102274 ; 2.0043608653163508E8 ; 9.307794409231216E7 ; 7.797428426184223E9 ; 0.0
48 ; 2074081.3517552502 ; 2.0043720360312322E8 ; 9.515188170302239E7 ; 7.997864512715858E9 ; 0.0
49 ; 2074063.1262500682 ; 2.0043833997911355E8 ; 9.722596305477764E7 ; 8.198301716318982E9 ; 0.0
50 ; 2074623.5952337396 ; 2.0043949510235316E8 ; 9.930002618102771E7 ; 8.398740056298096E9 ; 0.0
51 ; 2075154.7403928947 ; 2.0044066842413196E8 ; 1.0137464977626145E8 ; 8.59917955140045E9 ; 0.0
52 ; 2076616.8286847544 ; 2.0044185940465638E8 ; 1.0344980451665434E8 ; 8.799620219824581E9 ; 0.0
53 ; 2077716.0634964397 ; 2.0044306751336676E8 ; 1.0552642134533909E8 ; 9.000062079229237E9 ; 0.0
54 ; 2078916.855376227 ; 2.0044429222920284E8 ; 1.0760413740883553E8 ; 9.200505146742603E9 ; 0.0
55 ; 2077584.2319148923 ; 2.0044553304082048E8 ; 1.0968305426421176E8 ; 9.400949438971806E9 ; 0.0
56 ; 2078627.6656311492 ; 2.0044678944676304E8 ; 1.1176063849612665E8 ; 9.601394972012627E9 ; 0.0
57 ; 2079669.2841054436 ; 2.004480609555909E8 ; 1.138392661617578E8 ; 9.801841761459389E9 ; 0.0
58 ; 2080212.128939889 ; 2.0044934708597246E8 ; 1.1591893544586325E8 ; 1.000228982241498E10 ; 0.0
59 ; 2080886.1249262297 ; 2.0045064736673984E8 ; 1.1799914757480313E8 ; 1.0202739169500952E10 ; 0.0
60 ; 2079760.8734296397 ; 2.0045196133691227E8 ; 1.2008003369972935E8 ; 1.0403189816867691E10 ; 0.0
61 ; 2081849.2907822288 ; 2.0045328854569018E8 ; 1.22159794573159E8 ; 1.0603641778204603E10 ; 0.0
62 ; 2082175.1877845381 ; 2.0045462855242267E8 ; 1.2424164386394122E8 ; 1.0804095066750294E10 ; 0.0
63 ; 2081939.3089541933 ; 2.0045598092655134E8 ; 1.2632381905172576E8 ; 1.1004549695302717E10 ; 0.0
64 ; 2083051.2536541075 ; 2.004573452475324E8 ; 1.2840575836067995E8 ; 1.1205005676229269E10 ; 0.0
65 ; 2083770.9135021018 ; 2.0045872110474014E8 ; 1.3048880961433406E8 ; 1.14054630214768E10 ; 0.0
66 ; 2082937.945025645 ; 2.0046010809735325E8 ; 1.3257258052783616E8 ; 1.1605921742581541E10 ; 0.0
67 ; 2084988.7262037944 ; 2.004615058342264E8 ; 1.346555184728618E8 ; 1.1806381850678894E10 ; 0.0
68 ; 2085104.5657966924 ; 2.004629139337492E8 ; 1.367405071990656E8 ; 1.200684335651312E10 ; 0.0
69 ; 2084808.902527021 ; 2.004643320236936E8 ; 1.388256117648623E8 ; 1.2207306270446869E10 ; 0.0
70 ; 2086740.8525063263 ; 2.004657597410521E8 ; 1.4091042066738933E8 ; 1.2407770602470562E10 ; 0.0
71 ; 2086518.6644050851 ; 2.0046719673186785E8 ; 1.4299716151989567E8 ; 1.2608236362211615E10 ; 0.0
72 ; 2087423.7043882997 ; 2.004686426510581E8 ; 1.4508368018430075E8 ; 1.2808703558943483E10 ; 0.0
73 ; 2087123.3281844745 ; 2.004700971622322E8 ; 1.4717110388868904E8 ; 1.3009172201594542E10 ; 0.0
74 ; 2087350.5236177763 ; 2.004715599375053E8 ; 1.4925822721687353E8 ; 1.3209642298756773E10 ; 0.0
75 ; 2087789.8707459585 ; 2.0047303065730906E8 ; 1.513455777404913E8 ; 1.3410113858694279E10 ; 0.0
76 ; 2088306.6194014067 ; 2.0047450901019976E8 ; 1.5343336761123726E8 ; 1.3610586889351587E10 ; 0.0
77 ; 2088209.4973291366 ; 2.0047599469266513E8 ; 1.5552167423063865E8 ; 1.3811061398361788E10 ; 0.0
78 ; 2086777.456467795 ; 2.0047748740893045E8 ; 1.576098837279678E8 ; 1.4011537393054453E10 ; 0.0
79 ; 2088451.0596659095 ; 2.0047898687076446E8 ; 1.596966611844356E8 ; 1.4212014880463383E10 ; 0.0
80 ; 2086682.9702637447 ; 2.004804927972862E8 ; 1.6178511224410152E8 ; 1.4412493867334146E10 ; 0.0
81 ; 2085652.262695111 ; 2.0048200491477263E8 ; 1.6387179521436527E8 ; 1.4612974360131433E10 ; 0.0
82 ; 2085672.8402944524 ; 2.0048352295646784E8 ; 1.6595744747706038E8 ; 1.4813456365046206E10 ; 0.0
83 ; 2085555.8731700096 ; 2.0048504666239458E8 ; 1.6804312031735483E8 ; 1.5013939888002674E10 ; 0.0
84 ; 2084927.3663171662 ; 2.0048657577916768E8 ; 1.7012867619052485E8 ; 1.521442493466507E10 ; 0.0
85 ; 2083258.8398356675 ; 2.004881100598105E8 ; 1.72213603556842E8 ; 1.5414911510444237E10 ; 0.0
86 ; 2082499.0395971865 ; 2.004896492635741E8 ; 1.7429686239667767E8 ; 1.5615399620504047E10 ; 0.0
87 ; 2081954.336102931 ; 2.0049119315575966E8 ; 1.7637936143627486E8 ; 1.5815889269767622E10 ; 0.0
88 ; 2081053.4028293851 ; 2.0049274150754416E8 ; 1.784613157723778E8 ; 1.6016380462923382E10 ; 0.0
89 ; 2082975.9777435134 ; 2.0049429409580967E8 ; 1.8054236917520717E8 ; 1.6216873204430925E10 ; 0.0
90 ; 2082046.4574466147 ; 2.0049585070297614E8 ; 1.8262534515295067E8 ; 1.6417367498526735E10 ; 0.0
91 ; 2080511.3328775973 ; 2.0049741111683804E8 ; 1.8470739161039728E8 ; 1.6617863349229712E10 ; 0.0
92 ; 2080464.5627296045 ; 2.0049897513040465E8 ; 1.867879029432749E8 ; 1.681836076034655E10 ; 0.0
93 ; 2080892.5650861077 ; 2.0050054254174447E8 ; 1.8886836750600448E8 ; 1.7018859735476955E10 ; 0.0
94 ; 2079042.0911199043 ; 2.0050211315383312E8 ; 1.9094926007109058E8 ; 1.72193602780187E10 ; 0.0
95 ; 2077101.6174427944 ; 2.005036867744056E8 ; 1.930283021622105E8 ; 1.741986239117253E10 ; 0.0
96 ; 2076239.4138065083 ; 2.005052632158121E8 ; 1.9510540377965328E8 ; 1.7620366077946938E10 ; 0.0
97 ; 2074907.4878451803 ; 2.0050684229487786E8 ; 1.9718164319345978E8 ; 1.782087134116275E10 ; 0.0
98 ; 2074885.2004727153 ; 2.0050842383276704E8 ; 1.9925655068130496E8 ; 1.8021378183457626E10 ; 0.0
99 ; 2075483.3516302088 ; 2.0051000765485018E8 ; 2.0133143588177767E8 ; 1.8221886607290394E10 ; 0.0
100 ; 2073907.3891292522 ; 2.0051159359057558E8 ; 2.0340691923340788E8 ; 1.8422396614945244E10 ; 0.0
101 ; 2071220.7887066172 ; 2.005131814733445E8 ; 2.0548082662253714E8 ; 1.862290820853582E10 ; 0.0
102 ; 2072389.1202326291 ; 2.0051477114038998E8 ; 2.0755204741124377E8 ; 1.8823421390009163E10 ; 0.0
103 ; 2070802.1519863138 ; 2.0051636243265936E8 ; 2.096244365314764E8 ; 1.902393616114955E10 ; 0.0
104 ; 2068996.799082833 ; 2.0051795519470024E8 ; 2.116952386834627E8 ; 1.922445252358221E10 ; 0.0
105 ; 2068127.912836539 ; 2.0051954927455014E8 ; 2.1376423548254555E8 ; 1.942497047877691E10 ; 0.0
106 ; 2067554.3565578826 ; 2.0052114452362943E8 ; 2.158323633953821E8 ; 1.962549002805146E10 ; 0.0
107 ; 2066355.1096982823 ; 2.0052274079663768E8 ; 2.1789991775193998E8 ; 1.982601117257509E10 ; 0.0
108 ; 2066414.582513959 ; 2.0052433795145327E8 ; 2.1996627286163828E8 ; 2.0026533913371727E10 ; 0.0
109 ; 2064723.0593439566 ; 2.0052593584903613E8 ; 2.2203268744415224E8 ; 2.022705825132318E10 ; 0.0
110 ; 2063672.7171635432 ; 2.005275343533338E8 ; 2.240974105034962E8 ; 2.042758418717222E10 ; 0.0
111 ; 2063235.2318178911 ; 2.0052913333119023E8 ; 2.2616108322065973E8 ; 2.062811172152555E10 ; 0.0
112 ; 2061445.6631188295 ; 2.005307326522578E8 ; 2.2822431845247763E8 ; 2.0828640854856743E10 ; 0.0
113 ; 2060078.3912006496 ; 2.00532332188912E8 ; 2.3028576411559647E8 ; 2.1029171587509E10 ; 0.0
114 ; 2060310.3333235579 ; 2.0053393181616905E8 ; 2.3234584250679713E8 ; 2.122970391969791E10 ; 0.0
115 ; 2057281.2376453558 ; 2.0053553141160616E8 ; 2.344061528401207E8 ; 2.143023785151408E10 ; 0.0
116 ; 2057001.637742238 ; 2.005371308552844E8 ; 2.3646343407776606E8 ; 2.1630773382925686E10 ; 0.0
117 ; 2057330.0921428215 ; 2.005387300296742E8 ; 2.385204357155083E8 ; 2.183131051378097E10 ; 0.0
118 ; 2054142.0436371579 ; 2.0054032881958324E8 ; 2.4057776580765113E8 ; 2.2031849243810646E10 ; 0.0
119 ; 2052155.6267528494 ; 2.0054192711208674E8 ; 2.426319078512883E8 ; 2.223238957263023E10 ; 0.0
120 ; 2051956.8816249946 ; 2.0054352479646024E8 ; 2.4468406347804114E8 ; 2.2432931499742317E10 ; 0.0
121 ; 2050973.992339551 ; 2.005451217641143E8 ; 2.4673602035966614E8 ; 2.2633475024538776E10 ; 0.0
122 ; 2049639.7149862896 ; 2.0054671790853173E8 ; 2.487869943520057E8 ; 2.283402014630289E10 ; 0.0
123 ; 2048328.4217911742 ; 2.0054831312520665E8 ; 2.5083663406699198E8 ; 2.3034566864211422E10 ; 0.0
124 ; 2045885.0156672685 ; 2.0054990731158587E8 ; 2.5288496248878315E8 ; 2.3235115177336628E10 ; 0.0
125 ; 2045656.7192715053 ; 2.0055150036701193E8 ; 2.549308475044504E8 ; 2.3435665084648212E10 ; 0.0
126 ; 2044428.6894959093 ; 2.0055309219266823E8 ; 2.5697650422372192E8 ; 2.3636216585015224E10 ; 0.0
127 ; 2042973.9706518457 ; 2.00554682691526E8 ; 2.5902093291321784E8 ; 2.3836769677207893E10 ; 0.0
128 ; 2041980.039830577 ; 2.0055627176829308E8 ; 2.6106390688386968E8 ; 2.4037324359899418E10 ; 0.0
129 ; 2040264.0651528758 ; 2.0055785932936424E8 ; 2.6310588692370024E8 ; 2.423788063166771E10 ; 0.0
130 ; 2037541.367597557 ; 2.0055944528277346E8 ; 2.6514615098885313E8 ; 2.4438438490997074E10 ; 0.0
131 ; 2036699.8233042748 ; 2.0056102953814745E8 ; 2.6718369235645068E8 ; 2.4638997936279846E10 ; 0.0
132 ; 2034125.867411077 ; 2.0056261200666115E8 ; 2.69220392179755E8 ; 2.4839558965817993E10 ; 0.0
133 ; 2032569.495852564 ; 2.005641926009943E8 ; 2.7125451804716605E8 ; 2.5040121577824654E10 ; 0.0
134 ; 2030240.2609626888 ; 2.0056577123528978E8 ; 2.7328708754301864E8 ; 2.5240685770425648E10 ; 0.0
135 ; 2027182.3939002536 ; 2.005673478251133E8 ; 2.753173278039813E8 ; 2.544125154166094E10 ; 0.0
136 ; 2024862.0694796678 ; 2.005689222874142E8 ; 2.773445101978816E8 ; 2.5641818889486053E10 ; 0.0
137 ; 2021971.175142683 ; 2.005704945404879E8 ; 2.793693722673612E8 ; 2.5842387811773468E10 ; 0.0
138 ; 2021510.6742752308 ; 2.0057206450393927E8 ; 2.813913434425039E8 ; 2.6042958306313957E10 ; 0.0
139 ; 2019180.3198212176 ; 2.005736320986476E8 ; 2.8341285411677915E8 ; 2.6243530370817898E10 ; 0.0
140 ; 2016584.2112369237 ; 2.0057519724673232E8 ; 2.854320344366004E8 ; 2.6444104002916546E10 ; 0.0
141 ; 2014040.8275863035 ; 2.0057675987152028E8 ; 2.874486186478373E8 ; 2.6644679200163277E10 ; 0.0
142 ; 2012741.4965965522 ; 2.005783198975137E8 ; 2.894626594754236E8 ; 2.6845255960034798E10 ; 0.0
143 ; 2010485.1266729909 ; 2.0057987725035948E8 ; 2.9147540097202015E8 ; 2.7045834279932312E10 ; 0.0
144 ; 2006108.2363616661 ; 2.0058143185681945E8 ; 2.9348588609869313E8 ; 2.724641415718267E10 ; 0.0
145 ; 2004665.7071637963 ; 2.005829836447416E8 ; 2.954919943350548E8 ; 2.744699558903949E10 ; 0.0
146 ; 2004633.2850553824 ; 2.0058453254303217E8 ; 2.974966600422186E8 ; 2.764757857268423E10 ; 0.0
147 ; 2002685.1464569368 ; 2.005860784816288E8 ; 2.99501293327274E8 ; 2.7848163105227264E10 ; 0.0
148 ; 2001071.2134305453 ; 2.005876213914745E8 ; 3.01503978473731E8 ; 2.8048749183708893E10 ; 0.0
149 ; 1999984.2259015332 ; 2.005891612044924E8 ; 3.035050496871615E8 ; 2.824933680510037E10 ; 0.0
150 ; 1997626.355288913 ; 2.0059069785356146E8 ; 3.0550503391306305E8 ; 2.844992596630486E10 ; 0.0
151 ; 1996785.2388790846 ; 2.0059223127249295E8 ; 3.07502660268352E8 ; 2.865051666415842E10 ; 0.0
152 ; 1994667.250426158 ; 2.005937613960075E8 ; 3.0949944550723106E8 ; 2.8851108895430912E10 ; 0.0
153 ; 1993478.9139348594 ; 2.005952881597133E8 ; 3.1149411275765723E8 ; 2.905170265682692E10 ; 0.0
154 ; 1991370.8752637613 ; 2.005968115000845E8 ; 3.134875916715921E8 ; 2.9252297944986633E10 ; 0.0
155 ; 1989988.844981968 ; 2.0059833135444075E8 ; 3.1547896254685587E8 ; 2.9452894756486717E10 ; 0.0
156 ; 1988085.6012511707 ; 2.0059984766092718E8 ; 3.1746895139183784E8 ; 2.965349308784116E10 ; 0.0
157 ; 1987488.5435491821 ; 2.0060136035849506E8 ; 3.19457036993089E8 ; 2.9854092935502087E10 ; 0.0
158 ; 1985396.456520679 ; 2.0060286938688308E8 ; 3.214445255366382E8 ; 3.005469429586058E10 ; 0.0
159 ; 1984772.1286943848 ; 2.0060437468659925E8 ; 3.234299219931589E8 ; 3.0255297165247463E10 ; 0.0
160 ; 1981316.0436503685 ; 2.006058761989034E8 ; 3.2541469412185323E8 ; 3.0455901539934063E10 ; 0.0
161 ; 1978925.0307576025 ; 2.006073738657902E8 ; 3.273960101655036E8 ; 3.0656507416132965E10 ; 0.0
162 ; 1978513.8456478824 ; 2.0060886762997267E8 ; 3.293749351962612E8 ; 3.0857114789998756E10 ; 0.0
163 ; 1976125.010221947 ; 2.006103574348664E8 ; 3.313534490419091E8 ; 3.105772365762873E10 ; 0.0
164 ; 1975637.4933323737 ; 2.006118432245741E8 ; 3.3332957405213106E8 ; 3.12583340150636E10 ; 0.0
165 ; 1973790.5122976557 ; 2.0061332494387054E8 ; 3.3530521154546344E8 ; 3.1458945858288174E10 ; 0.0
166 ; 1972311.4727815485 ; 2.0061480253818846E8 ; 3.372790020577611E8 ; 3.1659559183232044E10 ; 0.0
167 ; 1970323.8766154468 ; 2.006162759536042E8 ; 3.392513135305426E8 ; 3.1860173985770233E10 ; 0.0
168 ; 1968678.0923856397 ; 2.006177451368244E8 ; 3.412216374071581E8 ; 3.206079026172384E10 ; 0.0
169 ; 1966566.9387665049 ; 2.006192100351728E8 ; 3.431903154995437E8 ; 3.2261408006860664E10 ; 0.0
170 ; 1964751.4014843563 ; 2.006206705965775E8 ; 3.451568824383102E8 ; 3.2462027216895836E10 ; 0.0
171 ; 1963449.5701585123 ; 2.006221267695588E8 ; 3.471216338397946E8 ; 3.2662647887492413E10 ; 0.0
172 ; 1961163.0278913635 ; 2.0062357850321704E8 ; 3.490850834099531E8 ; 3.286327001426197E10 ; 0.0
173 ; 1961163.495410773 ; 2.0062502574722123E8 ; 3.5104624643784446E8 ; 3.3063893592765186E10 ; 0.0
174 ; 1959061.0974436644 ; 2.0062646845179775E8 ; 3.5300740993325526E8 ; 3.326451861851241E10 ; 0.0
175 ; 1958874.924769184 ; 2.006279065677196E8 ; 3.549664710306989E8 ; 3.3465145086964207E10 ; 0.0
176 ; 1956978.701459838 ; 2.0062934004629573E8 ; 3.5692534595546806E8 ; 3.3665772993531925E10 ; 0.0
177 ; 1956038.267975916 ; 2.00630768839361E8 ; 3.588823246569279E8 ; 3.386640233357822E10 ; 0.0
178 ; 1953534.3905525631 ; 2.0063219289926618E8 ; 3.608383629249038E8 ; 3.406703310241758E10 ; 0.0
179 ; 1953325.4862728778 ; 2.0063361217886847E8 ; 3.627918973154564E8 ; 3.4267665295316845E10 ; 0.0
180 ; 1953208.2022135786 ; 2.0063502663152215E8 ; 3.6474522280172926E8 ; 3.446829890749571E10 ; 0.0
181 ; 1953307.6176695705 ; 2.0063643621106958E8 ; 3.6669843100394285E8 ; 3.4668933934127235E10 ; 0.0
182 ; 1951581.6785845994 ; 2.0063784087183258E8 ; 3.686517386216124E8 ; 3.48695703703383E10 ; 0.0
183 ; 1949805.6754403762 ; 2.0063924056860378E8 ; 3.70603320300197E8 ; 3.507020821121014E10 ; 0.0
184 ; 1949243.9274660724 ; 2.006406352566386E8 ; 3.725531259756374E8 ; 3.527084745177874E10 ; 0.0
185 ; 1947982.8437091 ; 2.0064202489164713E8 ; 3.745023699031035E8 ; 3.547148808703538E10 ; 0.0
186 ; 1946864.359825591 ; 2.006434094297866E8 ; 3.764503527468126E8 ; 3.5672130111927025E10 ; 0.0
187 ; 1945398.217375232 ; 2.006447888276537E8 ; 3.783972171066382E8 ; 3.587277352135681E10 ; 0.0
188 ; 1945252.1889287343 ; 2.0064616304227751E8 ; 3.803426153240134E8 ; 3.607341831018446E10 ; 0.0
189 ; 1944355.8863708118 ; 2.006475320311123E8 ; 3.8228786751294214E8 ; 3.627406447322674E10 ; 0.0
190 ; 1941854.0439882649 ; 2.0064889575203076E8 ; 3.84232223399313E8 ; 3.647471200525785E10 ; 0.0
191 ; 1942963.806048107 ; 2.0065025416331738E8 ; 3.8617407744330126E8 ; 3.667536090100988E10 ; 0.0
192 ; 1941358.567476717 ; 2.006516072236621E8 ; 3.8811704124934936E8 ; 3.6876011155173195E10 ; 0.0
193 ; 1939629.370204692 ; 2.0065295489215392E8 ; 3.9005839981682605E8 ; 3.707666276239686E10 ; 0.0
194 ; 1938559.7270609017 ; 2.0065429712827492E8 ; 3.9199802918703073E8 ; 3.727731571728901E10 ; 0.0
195 ; 1936911.3845922023 ; 2.0065563389189443E8 ; 3.9393658891409165E8 ; 3.747797001441728E10 ; 0.0
196 ; 1935870.6475129442 ; 2.0065696514326328E8 ; 3.958735002986838E8 ; 3.767862564830917E10 ; 0.0
197 ; 1934581.4677285282 ; 2.0065829084300828E8 ; 3.978093709461968E8 ; 3.787928261345244E10 ; 0.0
198 ; 1933145.6610812338 ; 2.006596109521269E8 ; 3.9974395241392535E8 ; 3.807994090429545E10 ; 0.0
199 ; 1932334.7662152946 ; 2.0066092543198192E8 ; 4.016770980750066E8 ; 3.8280600515247574E10 ; 0.0
