CSV File for the City 1 on Day 59
1 - Minute m 
2 - Power Consumed at minute m 
3 - Power Produced at minute m 
4 - Energy Consumed since the beginning of the day 
5 - Energy Produced since the beginning of the day 
6 - Energy Lost since the beginning of the day on lines starting from the city
 
0 ; 1.5994675364680847E7 ; 1.0543839954209521E8 ; 0.0 ; 0.0 ; 0.0
1 ; 1.6008347611921575E7 ; 1.0559123142296797E8 ; 1.5994675364680847E7 ; 1.0543839954209521E8 ; 0.0
2 ; 1.6021938993215898E7 ; 1.0605285486632487E8 ; 3.200302297660242E7 ; 2.1102963096506318E8 ; 0.0
3 ; 1.6041787831690693E7 ; 1.0682327217646724E8 ; 4.802496196981832E7 ; 3.1708248583138806E8 ; 0.0
4 ; 1.6069067792392945E7 ; 1.0790248543393171E8 ; 6.406674980150901E7 ; 4.239057580078553E8 ; 0.0
5 ; 1.6097344374323005E7 ; 1.0929049647885531E8 ; 8.013581759390195E7 ; 5.31808243441787E8 ; 0.0
6 ; 1.6132220102530122E7 ; 1.10987306895843E8 ; 9.623316196822496E7 ; 6.410987399206424E8 ; 0.0
7 ; 1.6186772961963436E7 ; 1.1299291800061697E8 ; 1.1236538207075508E8 ; 7.520860468164854E8 ; 0.0
8 ; 1.6263792509112604E7 ; 1.1530733082870698E8 ; 1.2855215503271851E8 ; 8.650789648171024E8 ; 0.0
9 ; 1.6380634942647414E7 ; 1.1793054612640369E8 ; 1.448159475418311E8 ; 9.803862956458094E8 ; 0.0
10 ; 1.6560223613057896E7 ; 1.2086256434416014E8 ; 1.6119658248447853E8 ; 1.098316841772213E9 ; 0.0
11 ; 1.6849846724050887E7 ; 1.2410338563257656E8 ; 1.7775680609753644E8 ; 1.219179406116373E9 ; 0.0
12 ; 1.7313081696121898E7 ; 1.2765300984105268E8 ; 1.9460665282158732E8 ; 1.3432827917489495E9 ; 0.0
13 ; 1.7756597665632565E7 ; 1.3151143651913548E8 ; 2.1191973451770923E8 ; 1.4709358015900023E9 ; 0.0
14 ; 1.7816463141846128E7 ; 1.356786649205343E8 ; 2.296763321833418E8 ; 1.6024472381091378E9 ; 0.0
15 ; 1.7833630078275695E7 ; 1.401546940097195E8 ; 2.4749279532518792E8 ; 1.7381259030296721E9 ; 0.0
16 ; 1.7848021299930178E7 ; 1.4493952247096875E8 ; 2.653264254034636E8 ; 1.8782805970393915E9 ; 0.0
17 ; 1.787344414586023E7 ; 1.5003314871967712E8 ; 2.8317444670339376E8 ; 2.0232201195103602E9 ; 0.0
18 ; 1.789342516791861E7 ; 1.554355709157076E8 ; 3.01047890849254E8 ; 2.173253268230037E9 ; 0.0
19 ; 1.7913822848504122E7 ; 1.6114678697852352E8 ; 3.1894131601717263E8 ; 2.328688839145745E9 ; 0.0
20 ; 1.793272372821041E7 ; 1.6716679460382357E8 ; 3.3685513886567676E8 ; 2.4898356261242685E9 ; 0.0
21 ; 1.795221866616756E7 ; 1.7349559128138092E8 ; 3.5478786259388715E8 ; 2.657002420728092E9 ; 0.0
22 ; 1.7976616323275745E7 ; 1.8013317431378448E8 ; 3.727400812600547E8 ; 2.8304980120094733E9 ; 0.0
23 ; 1.799258044189594E7 ; 1.8707954083578235E8 ; 3.9071669758333045E8 ; 3.010631186323258E9 ; 0.0
24 ; 1.8018838916511893E7 ; 1.9433468783393425E8 ; 4.087092780252264E8 ; 3.1977107271590405E9 ; 0.0
25 ; 1.8039184654184513E7 ; 2.0058665306448546E8 ; 4.267281169417383E8 ; 3.3920454149929748E9 ; 0.0
26 ; 1.805670805133638E7 ; 2.0058898110973576E8 ; 4.447673015959228E8 ; 3.5926320680574603E9 ; 0.0
27 ; 1.8079790507497534E7 ; 2.0059143792197448E8 ; 4.6282400964725924E8 ; 3.7932210491671963E9 ; 0.0
28 ; 1.8100742021956887E7 ; 2.0059402008864543E8 ; 4.809038001547568E8 ; 3.993812487089171E9 ; 0.0
29 ; 1.8120239046449095E7 ; 2.0059672414317888E8 ; 4.9900454217671365E8 ; 4.1944065071778164E9 ; 0.0
30 ; 1.8140004799781952E7 ; 2.0059954658163762E8 ; 5.171247812231628E8 ; 4.395003231320995E9 ; 0.0
31 ; 1.8159144181956083E7 ; 2.0060248387831673E8 ; 5.3526478602294475E8 ; 4.595602777902633E9 ; 0.0
32 ; 1.8172747837615207E7 ; 2.0060553250022107E8 ; 5.534239302049009E8 ; 4.79620526178095E9 ; 0.0
33 ; 1.8192653105208654E7 ; 2.006086889203721E8 ; 5.715966780425161E8 ; 4.996810794281171E9 ; 0.0
34 ; 1.8210026652843643E7 ; 2.0061194962991866E8 ; 5.897893311477247E8 ; 5.197419483201543E9 ; 0.0
35 ; 1.822856668985659E7 ; 2.006153111490492E8 ; 6.079993578005683E8 ; 5.398031432831462E9 ; 0.0
36 ; 1.8244332967365462E7 ; 2.0061877003672138E8 ; 6.262279244904249E8 ; 5.598646743980511E9 ; 0.0
37 ; 1.826207346074933E7 ; 2.0062232289923987E8 ; 6.444722574577904E8 ; 5.799265514017232E9 ; 0.0
38 ; 1.827512594826748E7 ; 2.0062596639772686E8 ; 6.627343309185398E8 ; 5.9998878369164715E9 ; 0.0
39 ; 1.8289929591408037E7 ; 2.006296972545392E8 ; 6.810094568668072E8 ; 6.2005138033141985E9 ; 0.0
40 ; 1.830176991981811E7 ; 2.0063351225869337E8 ; 6.992993864582152E8 ; 6.401143500568738E9 ; 0.0
41 ; 1.8313356754136372E7 ; 2.0063740827036503E8 ; 7.176011563780334E8 ; 6.601777012827432E9 ; 0.0
42 ; 1.832981137194221E7 ; 2.006413822245327E8 ; 7.359145131321697E8 ; 6.802414421097796E9 ; 0.0
43 ; 1.834134380824425E7 ; 2.006454311338365E8 ; 7.542443245041119E8 ; 7.0030558033223295E9 ; 0.0
44 ; 1.8352138220233858E7 ; 2.0064955209072274E8 ; 7.725856683123561E8 ; 7.203701234456166E9 ; 0.0
45 ; 1.8361977458790302E7 ; 2.0065374226894408E8 ; 7.909378065325899E8 ; 7.404350786546889E9 ; 0.0
46 ; 1.836862730956303E7 ; 2.0065799892448267E8 ; 8.092997839913802E8 ; 7.605004528815833E9 ; 0.0
47 ; 1.8372739251517337E7 ; 2.006623193959605E8 ; 8.276684113009433E8 ; 7.805662527740315E9 ; 0.0
48 ; 1.838149804649002E7 ; 2.0066670110459802E8 ; 8.460411505524606E8 ; 8.006324847136276E9 ; 0.0
49 ; 1.838858629285978E7 ; 2.0067114155377817E8 ; 8.644226485989506E8 ; 8.206991548240874E9 ; 0.0
50 ; 1.8397415932941757E7 ; 2.0067563832826892E8 ; 8.828112348918104E8 ; 8.407662689794653E9 ; 0.0
51 ; 1.8401726550654657E7 ; 2.0068018909315285E8 ; 9.012086508247522E8 ; 8.608338328122921E9 ; 0.0
52 ; 1.8408583767512135E7 ; 2.0068479159250915E8 ; 9.196103773754069E8 ; 8.809018517216074E9 ; 0.0
53 ; 1.8412865676026694E7 ; 2.006894436478881E8 ; 9.38018961142919E8 ; 9.009703308808582E9 ; 0.0
54 ; 1.841428182312045E7 ; 2.0069414315661502E8 ; 9.564318268189456E8 ; 9.21039275245647E9 ; 0.0
55 ; 1.8417102101697613E7 ; 2.006988880899568E8 ; 9.748461086420661E8 ; 9.411086895613085E9 ; 0.0
56 ; 1.8426518061195258E7 ; 2.007036764911798E8 ; 9.932632107437637E8 ; 9.611785783703041E9 ; 0.0
57 ; 1.8436468450281166E7 ; 2.007085064735259E8 ; 1.0116897288049589E9 ; 9.812489460194221E9 ; 0.0
58 ; 1.8435176981636155E7 ; 2.007133762181292E8 ; 1.0301261972552401E9 ; 1.0013197966667747E10 ; 0.0
59 ; 1.8433714799601212E7 ; 2.0071828397189322E8 ; 1.0485613742368762E9 ; 1.0213911342885878E10 ; 0.0
60 ; 1.8442210286675416E7 ; 2.0072322804534683E8 ; 1.0669950890364774E9 ; 1.041462962685777E10 ; 0.0
61 ; 1.8445434007749062E7 ; 2.0072820681049326E8 ; 1.0854372993231528E9 ; 1.0615352854903118E10 ; 0.0
62 ; 1.844748144592223E7 ; 2.0073321869866556E8 ; 1.1038827333309019E9 ; 1.0816081061713612E10 ; 0.0
63 ; 1.8451365922532182E7 ; 2.0073826219839934E8 ; 1.122330214776824E9 ; 1.1016814280412277E10 ; 0.0
64 ; 1.845308426185422E7 ; 2.00743335853332E8 ; 1.140781580699356E9 ; 1.1217552542610676E10 ; 0.0
65 ; 1.8454948429925766E7 ; 2.007484382601367E8 ; 1.1592346649612103E9 ; 1.1418295878464008E10 ; 0.0
66 ; 1.8458175356495444E7 ; 2.0075356806649643E8 ; 1.177689613391136E9 ; 1.1619044316724146E10 ; 0.0
67 ; 1.8462193686908405E7 ; 2.007587239691245E8 ; 1.1961477887476313E9 ; 1.1819797884790642E10 ; 0.0
68 ; 1.846474178030878E7 ; 2.0076390471183464E8 ; 1.2146099824345398E9 ; 1.2020556608759766E10 ; 0.0
69 ; 1.8466947094051372E7 ; 2.0076910908366436E8 ; 1.2330747242148485E9 ; 1.22213205134716E10 ; 0.0
70 ; 1.846653752207502E7 ; 2.0077433591705376E8 ; 1.2515416713088999E9 ; 1.2422089622555264E10 ; 0.0
71 ; 1.846784540924521E7 ; 2.0077958408608145E8 ; 1.2700082088309748E9 ; 1.2622863958472317E10 ; 0.0
72 ; 1.847239483303362E7 ; 2.007848525047587E8 ; 1.28847605424022E9 ; 1.2823643542558397E10 ; 0.0
73 ; 1.8472475320361298E7 ; 2.0079014012538227E8 ; 1.3069484490732536E9 ; 1.3024428395063156E10 ; 0.0
74 ; 1.8476037954949938E7 ; 2.0079544593694624E8 ; 1.325420924393615E9 ; 1.3225218535188538E10 ; 0.0
75 ; 1.8474855521464016E7 ; 2.0080076896361205E8 ; 1.3438969623485649E9 ; 1.3426013981125484E10 ; 0.0
76 ; 1.8475904353585828E7 ; 2.008061082632369E8 ; 1.362371817870029E9 ; 1.3626814750089096E10 ; 0.0
77 ; 1.847626429307255E7 ; 2.008114629259591E8 ; 1.3808477222236147E9 ; 1.3827620858352333E10 ; 0.0
78 ; 1.847161035757866E7 ; 2.0081683207283947E8 ; 1.3993239865166872E9 ; 1.4028432321278292E10 ; 0.0
79 ; 1.846726803351851E7 ; 2.008222148545577E8 ; 1.417795596874266E9 ; 1.4229249153351131E10 ; 0.0
80 ; 1.8462508425390862E7 ; 2.008276104501623E8 ; 1.4362628649077845E9 ; 1.4430071368205688E10 ; 0.0
81 ; 1.8459155710697617E7 ; 2.0083301806587225E8 ; 1.4547253733331754E9 ; 1.4630898978655851E10 ; 0.0
82 ; 1.8446043149737317E7 ; 2.0083843693392974E8 ; 1.473184529043873E9 ; 1.4831731996721724E10 ; 0.0
83 ; 1.844178598898225E7 ; 2.0084386631150112E8 ; 1.4916305721936104E9 ; 1.5032570433655653E10 ; 0.0
84 ; 1.8437839215542227E7 ; 2.008493054796257E8 ; 1.5100723581825926E9 ; 1.5233414299967154E10 ; 0.0
85 ; 1.843069428355282E7 ; 2.0085475374220994E8 ; 1.528510197398135E9 ; 1.543426360544678E10 ; 0.0
86 ; 1.8424728298866097E7 ; 2.0086021042506546E8 ; 1.5469408916816878E9 ; 1.563511835918899E10 ; 0.0
87 ; 1.8422120300038178E7 ; 2.0086567487498957E8 ; 1.5653656199805539E9 ; 1.5835978569614056E10 ; 0.0
88 ; 1.8415245899951525E7 ; 2.008711464588864E8 ; 1.583787740280592E9 ; 1.6036844244489046E10 ; 0.0
89 ; 1.8404847547072407E7 ; 2.00876624562927E8 ; 1.6022029861805434E9 ; 1.6237715390947933E10 ; 0.0
90 ; 1.840275308028894E7 ; 2.0088210859174684E8 ; 1.6206078337276158E9 ; 1.643859201551086E10 ; 0.0
91 ; 1.8390391906269867E7 ; 2.0088759796767938E8 ; 1.6390105868079047E9 ; 1.6639474124102608E10 ; 0.0
92 ; 1.838408570527012E7 ; 2.0089309213002387E8 ; 1.6574009787141745E9 ; 1.6840361722070288E10 ; 0.0
93 ; 1.8372169275073413E7 ; 2.0089859053434592E8 ; 1.6757850644194446E9 ; 1.7041254814200312E10 ; 0.0
94 ; 1.8369660437982235E7 ; 2.0090409265181002E8 ; 1.694157233694518E9 ; 1.7242153404734657E10 ; 0.0
95 ; 1.8361036102774553E7 ; 2.0090959796854138E8 ; 1.7125268941325004E9 ; 1.7443057497386467E10 ; 0.0
96 ; 1.8354850958827503E7 ; 2.0091510598501736E8 ; 1.730887930235275E9 ; 1.7643967095355007E10 ; 0.0
97 ; 1.8349023946508534E7 ; 2.009206162154855E8 ; 1.7492427811941025E9 ; 1.7844882201340023E10 ; 0.0
98 ; 1.83334861532246E7 ; 2.0092612818740863E8 ; 1.7675918051406112E9 ; 1.8045802817555508E10 ; 0.0
99 ; 1.8327575723635547E7 ; 2.0093164144093415E8 ; 1.7859252912938359E9 ; 1.8246728945742916E10 ; 0.0
100 ; 1.83176082813129E7 ; 2.0093715552838784E8 ; 1.8042528670174713E9 ; 1.844766058718385E10 ; 0.0
101 ; 1.8308753532770626E7 ; 2.0094267001379013E8 ; 1.8225704752987843E9 ; 1.864859774271224E10 ; 0.0
102 ; 1.82980234506085E7 ; 2.009481844723941E8 ; 1.840879228831555E9 ; 1.884954041272603E10 ; 0.0
103 ; 1.8286577309231866E7 ; 2.009536984902443E8 ; 1.8591772522821634E9 ; 1.905048859719842E10 ; 0.0
104 ; 1.828292854821289E7 ; 2.0095921166375527E8 ; 1.8774638295913951E9 ; 1.9251442295688667E10 ; 0.0
105 ; 1.827567813107593E7 ; 2.0096472359930876E8 ; 1.8957467581396081E9 ; 1.945240150735242E10 ; 0.0
106 ; 1.8264460310667284E7 ; 2.0097023391286922E8 ; 1.914022436270684E9 ; 1.965336623095173E10 ; 0.0
107 ; 1.8251138204747666E7 ; 2.0097574222961602E8 ; 1.9322868965813513E9 ; 1.9854336464864597E10 ; 0.0
108 ; 1.824131406286707E7 ; 2.009812481835923E8 ; 1.950538034786099E9 ; 2.005531220709421E10 ; 0.0
109 ; 1.8235215598708935E7 ; 2.0098675141736898E8 ; 1.9687793488489661E9 ; 2.0256293455277805E10 ; 0.0
110 ; 1.822386375410049E7 ; 2.0099225158172414E8 ; 1.987014564447675E9 ; 2.0457280206695175E10 ; 0.0
111 ; 1.821096241674458E7 ; 2.009977483353359E8 ; 2.0052384282017756E9 ; 2.0658272458276897E10 ; 0.0
112 ; 1.8200725948257256E7 ; 2.010032413444892E8 ; 2.02344939061852E9 ; 2.0859270206612232E10 ; 0.0
113 ; 1.818758093205596E7 ; 2.010087302827952E8 ; 2.0416501165667772E9 ; 2.1060273447956722E10 ; 0.0
114 ; 1.8176290712737016E7 ; 2.0101421483092296E8 ; 2.0598376974988332E9 ; 2.1261282178239517E10 ; 0.0
115 ; 1.8167322912491925E7 ; 2.0101969467634282E8 ; 2.0780139882115703E9 ; 2.146229639307044E10 ; 0.0
116 ; 1.815550738824827E7 ; 2.010251695130807E8 ; 2.0961813111240623E9 ; 2.166331608774678E10 ; 0.0
117 ; 1.8141081132491108E7 ; 2.0103063904148328E8 ; 2.1143368185123105E9 ; 2.186434125725986E10 ; 0.0
118 ; 1.8132629457912687E7 ; 2.0103610296799302E8 ; 2.1324778996448016E9 ; 2.2065371896301346E10 ; 0.0
119 ; 1.811649186756597E7 ; 2.01041561004933E8 ; 2.1506105291027145E9 ; 2.226640799926934E10 ; 0.0
120 ; 1.8101686403798975E7 ; 2.0104701287030065E8 ; 2.1687270209702806E9 ; 2.2467449560274273E10 ; 0.0
121 ; 1.8094438980964474E7 ; 2.0105245828757074E8 ; 2.1868287073740797E9 ; 2.2668496573144573E10 ; 0.0
122 ; 1.8078239484881062E7 ; 2.0105789698550615E8 ; 2.2049231463550444E9 ; 2.2869549031432144E10 ; 0.0
123 ; 1.8069838332980458E7 ; 2.01063328697977E8 ; 2.2230013858399253E9 ; 2.3070606928417652E10 ; 0.0
124 ; 1.805204341153238E7 ; 2.010687531637873E8 ; 2.241071224172906E9 ; 2.3271670257115627E10 ; 0.0
125 ; 1.804184057633533E7 ; 2.0107417012650874E8 ; 2.2591232675844383E9 ; 2.3472739010279415E10 ; 0.0
126 ; 1.802958830520932E7 ; 2.0107957933432144E8 ; 2.2771651081607738E9 ; 2.3673813180405926E10 ; 0.0
127 ; 1.8016406145609744E7 ; 2.0108498053986147E8 ; 2.295194696465983E9 ; 2.3874892759740246E10 ; 0.0
128 ; 1.8000620769490626E7 ; 2.010903735000745E8 ; 2.313211102611593E9 ; 2.4075977740280106E10 ; 0.0
129 ; 1.798940779866408E7 ; 2.0109575797607547E8 ; 2.3312117233810835E9 ; 2.427706811378018E10 ; 0.0
130 ; 1.7968695742813222E7 ; 2.0110113373301417E8 ; 2.3492011311797476E9 ; 2.4478163871756256E10 ; 0.0
131 ; 1.795264302872712E7 ; 2.011065005399462E8 ; 2.3671698269225607E9 ; 2.467926500548927E10 ; 0.0
132 ; 1.7933586427843075E7 ; 2.0111185816970906E8 ; 2.3851224699512877E9 ; 2.4880371506029217E10 ; 0.0
133 ; 1.7911349503604192E7 ; 2.011172063988036E8 ; 2.403056056379131E9 ; 2.5081483364198925E10 ; 0.0
134 ; 1.788992416423795E7 ; 2.011225450072799E8 ; 2.4209674058827353E9 ; 2.528260057059773E10 ; 0.0
135 ; 1.7870318910172507E7 ; 2.0112787377862793E8 ; 2.438857330046973E9 ; 2.5483723115605007E10 ; 0.0
136 ; 1.7851428485070385E7 ; 2.011331924996725E8 ; 2.4567276489571457E9 ; 2.5684850989383636E10 ; 0.0
137 ; 1.783099120546125E7 ; 2.0113850096047255E8 ; 2.474579077442216E9 ; 2.588598418188331E10 ; 0.0
138 ; 1.7812387595625155E7 ; 2.0114379895422408E8 ; 2.492410068647677E9 ; 2.608712268284378E10 ; 0.0
139 ; 1.7786032234392233E7 ; 2.0114908627716747E8 ; 2.510222456243302E9 ; 2.6288266481798004E10 ; 0.0
140 ; 1.7764553606010273E7 ; 2.011543627284978E8 ; 2.528008488477694E9 ; 2.6489415568075172E10 ; 0.0
141 ; 1.7743161080000754E7 ; 2.0115962811027932E8 ; 2.5457730420837045E9 ; 2.669056993080367E10 ; 0.0
142 ; 1.7725830990496412E7 ; 2.0116488222736275E8 ; 2.5635162031637053E9 ; 2.6891729558913948E10 ; 0.0
143 ; 1.770278197529065E7 ; 2.0117012488730612E8 ; 2.581242034154202E9 ; 2.709289444114131E10 ; 0.0
144 ; 1.7681805136100993E7 ; 2.011753559002985E8 ; 2.5989448161294928E9 ; 2.7294064566028618E10 ; 0.0
145 ; 1.766612367549226E7 ; 2.0118057507908675E8 ; 2.6166266212655935E9 ; 2.7495239921928917E10 ; 0.0
146 ; 1.7646345045794435E7 ; 2.0118578223890507E8 ; 2.634292744941086E9 ; 2.7696420497008003E10 ; 0.0
147 ; 1.763726750362575E7 ; 2.011909771974073E8 ; 2.6519390899868803E9 ; 2.789760627924691E10 ; 0.0
148 ; 1.76195176726529E7 ; 2.011961597746016E8 ; 2.669576357490506E9 ; 2.8098797256444317E10 ; 0.0
149 ; 1.760421458385612E7 ; 2.0120132979278794E8 ; 2.687195875163159E9 ; 2.8299993416218918E10 ; 0.0
150 ; 1.7592774275437117E7 ; 2.0120648707649758E8 ; 2.704800089747015E9 ; 2.8501194746011707E10 ; 0.0
151 ; 1.7575495597607207E7 ; 2.012116314524352E8 ; 2.7223928640224524E9 ; 2.8702401233088203E10 ; 0.0
152 ; 1.7556791383270264E7 ; 2.012167627494229E8 ; 2.7399683596200595E9 ; 2.8903612864540638E10 ; 0.0
153 ; 1.7542184669524215E7 ; 2.012218807983465E8 ; 2.7575251510033298E9 ; 2.9104829627290062E10 ; 0.0
154 ; 1.7530808486578234E7 ; 2.012269854321036E8 ; 2.775067335672854E9 ; 2.930605150808841E10 ; 0.0
155 ; 1.7513471660960026E7 ; 2.0123207648555398E8 ; 2.7925981441594324E9 ; 2.950727849352051E10 ; 0.0
156 ; 1.749867165794382E7 ; 2.012371537954713E8 ; 2.8101116158203926E9 ; 2.9708510570006065E10 ; 0.0
157 ; 1.7481400350509077E7 ; 2.0124221720049712E8 ; 2.8276102874783363E9 ; 2.9909747723801537E10 ; 0.0
158 ; 1.7462722887888268E7 ; 2.0124726654109606E8 ; 2.8450916878288455E9 ; 3.0110989941002033E10 ; 0.0
159 ; 1.7451833765480027E7 ; 2.012523016595132E8 ; 2.862554410716734E9 ; 3.031223720754313E10 ; 0.0
160 ; 1.7432109903499916E7 ; 2.0125732239973244E8 ; 2.880006244482214E9 ; 3.051348950920264E10 ; 0.0
161 ; 1.741207457018531E7 ; 2.012623286074368E8 ; 2.897438354385714E9 ; 3.071474683160237E10 ; 0.0
162 ; 1.740297734131873E7 ; 2.0126732012997E8 ; 2.9148504289558992E9 ; 3.091600916020981E10 ; 0.0
163 ; 1.7380597068175353E7 ; 2.0127229681629938E8 ; 2.932253406297218E9 ; 3.111727648033978E10 ; 0.0
164 ; 1.7367747668721355E7 ; 2.0127725851698023E8 ; 2.949634003365393E9 ; 3.131854877715608E10 ; 0.0
165 ; 1.7345793820115257E7 ; 2.0128220508412135E8 ; 2.9670017510341144E9 ; 3.1519826035673058E10 ; 0.0
166 ; 1.7332265644821994E7 ; 2.012871363713519E8 ; 2.9843475448542295E9 ; 3.172110824075718E10 ; 0.0
167 ; 1.7320627841203123E7 ; 2.012920522337894E8 ; 3.0016798104990516E9 ; 3.1922395377128532E10 ; 0.0
168 ; 1.7300392093525715E7 ; 2.0129695252800876E8 ; 3.019000438340255E9 ; 3.212368742936232E10 ; 0.0
169 ; 1.7282555945349514E7 ; 2.0130183711201265E8 ; 3.0363008304337807E9 ; 3.2324984381890327E10 ; 0.0
170 ; 1.7269460178056184E7 ; 2.013067058452026E8 ; 3.0535833863791304E9 ; 3.252628621900234E10 ; 0.0
171 ; 1.7248900436282843E7 ; 2.0131155858835143E8 ; 3.0708528465571866E9 ; 3.272759292484754E10 ; 0.0
172 ; 1.7231882534946647E7 ; 2.0131639520357642E8 ; 3.088101746993469E9 ; 3.2928904483435894E10 ; 0.0
173 ; 1.7214620636579413E7 ; 2.013212155543135E8 ; 3.1053336295284157E9 ; 3.313022087863947E10 ; 0.0
174 ; 1.7205655957679253E7 ; 2.0132601950529236E8 ; 3.122548250164995E9 ; 3.3331542094193783E10 ; 0.0
175 ; 1.7201425193456527E7 ; 2.0133080692251235E8 ; 3.1397539061226745E9 ; 3.3532868113699074E10 ; 0.0
176 ; 1.718401051160011E7 ; 2.013355776732193E8 ; 3.156955331316131E9 ; 3.3734198920621586E10 ; 0.0
177 ; 1.7177825170111082E7 ; 2.0134033162588313E8 ; 3.174139341827731E9 ; 3.3935534498294804E10 ; 0.0
178 ; 1.7167345712741807E7 ; 2.0134506865017617E8 ; 3.1913171669978423E9 ; 3.413687482992069E10 ; 0.0
179 ; 1.7153298862214416E7 ; 2.0134978861695224E8 ; 3.208484512710584E9 ; 3.4338219898570866E10 ; 0.0
180 ; 1.7145437165186238E7 ; 2.0135449139822644E8 ; 3.2256378115727987E9 ; 3.453956968718782E10 ; 0.0
181 ; 1.7135301396249957E7 ; 2.0135917686715582E8 ; 3.242783248737985E9 ; 3.4740924178586044E10 ; 0.0
182 ; 1.712336417381987E7 ; 2.0136384489802033E8 ; 3.259918550134235E9 ; 3.49422833554532E10 ; 0.0
183 ; 1.711070070550804E7 ; 2.0136849536620477E8 ; 3.277041914308055E9 ; 3.514364720035122E10 ; 0.0
184 ; 1.710172943989256E7 ; 2.0137312814818123E8 ; 3.294152615013563E9 ; 3.534501569571742E10 ; 0.0
185 ; 1.709165196227654E7 ; 2.0137774312149197E8 ; 3.311254344453456E9 ; 3.55463888238656E10 ; 0.0
186 ; 1.7080575950674243E7 ; 2.013823401647332E8 ; 3.3283459964157324E9 ; 3.574776656698709E10 ; 0.0
187 ; 1.7072118203929678E7 ; 2.013869191575391E8 ; 3.3454265723664064E9 ; 3.5949148907151825E10 ; 0.0
188 ; 1.7062158354203634E7 ; 2.0139147998056653E8 ; 3.3624986905703363E9 ; 3.6150535826309364E10 ; 0.0
189 ; 1.7049086096602995E7 ; 2.013960225154803E8 ; 3.37956084892454E9 ; 3.635192730628993E10 ; 0.0
190 ; 1.704151445608575E7 ; 2.0140054664493874E8 ; 3.396609935021143E9 ; 3.655332332880541E10 ; 0.0
191 ; 1.7030712358884275E7 ; 2.0140505225257996E8 ; 3.4136514494772286E9 ; 3.675472387545035E10 ; 0.0
192 ; 1.7019057580497134E7 ; 2.0140953922300848E8 ; 3.430682161836113E9 ; 3.695612892770293E10 ; 0.0
193 ; 1.7005753844289746E7 ; 2.014140074417823E8 ; 3.4477012194166102E9 ; 3.7157538466925934E10 ; 0.0
194 ; 1.6995806209525384E7 ; 2.0141845679540032E8 ; 3.4647069732609E9 ; 3.7358952474367714E10 ; 0.0
195 ; 1.6983821525583003E7 ; 2.014228871712904E8 ; 3.4817027794704256E9 ; 3.756037093116312E10 ; 0.0
