CSV File for the City 5 on Day 14
1 - Minute m 
2 - Power Consumed at minute m 
3 - Power Produced at minute m 
4 - Energy Consumed since the beginning of the day 
5 - Energy Produced since the beginning of the day 
6 - Energy Lost since the beginning of the day on lines starting from the city
 
0 ; 8482286.613337135 ; 1.009386948575679E7 ; 0.0 ; 0.0 ; 0.0
1 ; 8491630.946967604 ; 1.009386948575679E7 ; 8482286.613337135 ; 1.009386948575679E7 ; 0.0
2 ; 8501770.688119238 ; 1.009386948575679E7 ; 1.697391756030474E7 ; 2.018773897151358E7 ; 0.0
3 ; 8511544.917308614 ; 1.009386948575679E7 ; 2.547568824842398E7 ; 3.028160845727037E7 ; 0.0
4 ; 8525009.536669452 ; 1.009386948575679E7 ; 3.398723316573259E7 ; 4.037547794302716E7 ; 0.0
5 ; 8539065.65278302 ; 1.009386948575679E7 ; 4.251224270240204E7 ; 5.046934742878395E7 ; 0.0
6 ; 8560831.701780098 ; 1.009386948575679E7 ; 5.105130835518506E7 ; 6.0563216914540745E7 ; 0.0
7 ; 8589216.33326396 ; 1.009386948575679E7 ; 5.961214005696516E7 ; 7.065708640029754E7 ; 0.0
8 ; 8632420.42652465 ; 1.009386948575679E7 ; 6.820135639022912E7 ; 8.075095588605432E7 ; 0.0
9 ; 8693080.683542905 ; 1.009386948575679E7 ; 7.683377681675377E7 ; 9.08448253718111E7 ; 0.0
10 ; 8789821.574872015 ; 1.009386948575679E7 ; 8.552685750029668E7 ; 1.0093869485756789E8 ; 0.0
11 ; 8945716.734404745 ; 1.009386948575679E7 ; 9.43166790751687E7 ; 1.1103256434332468E8 ; 0.0
12 ; 9193544.415652532 ; 1.009386948575679E7 ; 1.0326239580957344E8 ; 1.2112643382908146E8 ; 0.0
13 ; 9434717.513153177 ; 1.009386948575679E7 ; 1.1245594022522597E8 ; 1.3122030331483825E8 ; 0.0
14 ; 9460086.984116327 ; 1.009386948575679E7 ; 1.2189065773837915E8 ; 1.4131417280059505E8 ; 0.0
15 ; 9471888.03773287 ; 1.009386948575679E7 ; 1.3135074472249548E8 ; 1.5140804228635183E8 ; 0.0
16 ; 9486340.413102264 ; 1.009386948575679E7 ; 1.4082263276022834E8 ; 1.615019117721086E8 ; 0.0
17 ; 9495044.963053564 ; 1.009386948575679E7 ; 1.503089731733306E8 ; 1.715957812578654E8 ; 0.0
18 ; 9506003.38298912 ; 1.009386948575679E7 ; 1.5980401813638416E8 ; 1.8168965074362218E8 ; 0.0
19 ; 9516659.556802236 ; 1.009386948575679E7 ; 1.6931002151937327E8 ; 1.9178352022937897E8 ; 0.0
20 ; 9527616.373422734 ; 1.009386948575679E7 ; 1.788266810761755E8 ; 2.0187738971513575E8 ; 0.0
21 ; 9538371.621702228 ; 1.009386948575679E7 ; 1.8835429744959825E8 ; 2.1197125920089254E8 ; 0.0
22 ; 9548528.966266777 ; 1.009386948575679E7 ; 1.9789266907130048E8 ; 2.2206512868664932E8 ; 0.0
23 ; 9561521.76129957 ; 1.009386948575679E7 ; 2.0744119803756726E8 ; 2.321589981724061E8 ; 0.0
24 ; 9575081.713659175 ; 1.009386948575679E7 ; 2.1700271979886684E8 ; 2.422528676581629E8 ; 0.0
25 ; 9583483.16315626 ; 1.009386948575679E7 ; 2.26577801512526E8 ; 2.5234673714391968E8 ; 0.0
26 ; 9596609.503822306 ; 1.009386948575679E7 ; 2.3616128467568228E8 ; 2.6244060662967646E8 ; 0.0
27 ; 9608466.036531623 ; 1.009386948575679E7 ; 2.4575789417950457E8 ; 2.725344761154333E8 ; 0.0
28 ; 9619311.848054519 ; 1.009386948575679E7 ; 2.553663602160362E8 ; 2.826283456011901E8 ; 0.0
29 ; 9629443.725534497 ; 1.009386948575679E7 ; 2.6498567206409073E8 ; 2.927222150869469E8 ; 0.0
30 ; 9639001.249216165 ; 1.009386948575679E7 ; 2.746151157896252E8 ; 3.028160845727037E8 ; 0.0
31 ; 9646079.822577514 ; 1.009386948575679E7 ; 2.8425411703884137E8 ; 3.1290995405846053E8 ; 0.0
32 ; 9658441.51129636 ; 1.009386948575679E7 ; 2.939001968614189E8 ; 3.2300382354421735E8 ; 0.0
33 ; 9669560.170746673 ; 1.009386948575679E7 ; 3.0355863837271523E8 ; 3.3309769302997416E8 ; 0.0
34 ; 9679026.068450347 ; 1.009386948575679E7 ; 3.132281985434619E8 ; 3.43191562515731E8 ; 0.0
35 ; 9684552.63824501 ; 1.009386948575679E7 ; 3.2290722461191225E8 ; 3.532854320014878E8 ; 0.0
36 ; 9697944.722683199 ; 1.009386948575679E7 ; 3.3259177725015724E8 ; 3.633793014872446E8 ; 0.0
37 ; 9702798.944332894 ; 1.009386948575679E7 ; 3.422897219728404E8 ; 3.734731709730014E8 ; 0.0
38 ; 9710531.945797386 ; 1.009386948575679E7 ; 3.519925209171733E8 ; 3.8356704045875823E8 ; 0.0
39 ; 9718632.531958235 ; 1.009386948575679E7 ; 3.617030528629707E8 ; 3.9366090994451505E8 ; 0.0
40 ; 9727748.916760325 ; 1.009386948575679E7 ; 3.7142168539492893E8 ; 4.0375477943027186E8 ; 0.0
41 ; 9734671.990717713 ; 1.009386948575679E7 ; 3.8114943431168926E8 ; 4.138486489160287E8 ; 0.0
42 ; 9741055.127698468 ; 1.009386948575679E7 ; 3.9088410630240697E8 ; 4.239425184017855E8 ; 0.0
43 ; 9747172.647485606 ; 1.009386948575679E7 ; 4.0062516143010545E8 ; 4.340363878875423E8 ; 0.0
44 ; 9754433.184675004 ; 1.009386948575679E7 ; 4.1037233407759106E8 ; 4.441302573732991E8 ; 0.0
45 ; 9757673.274578191 ; 1.009386948575679E7 ; 4.2012676726226604E8 ; 4.5422412685905594E8 ; 0.0
46 ; 9763833.912165355 ; 1.009386948575679E7 ; 4.2988444053684425E8 ; 4.6431799634481275E8 ; 0.0
47 ; 9767396.815943403 ; 1.009386948575679E7 ; 4.396482744490096E8 ; 4.7441186583056957E8 ; 0.0
48 ; 9771474.125592923 ; 1.009386948575679E7 ; 4.49415671264953E8 ; 4.845057353163264E8 ; 0.0
49 ; 9775899.615641266 ; 1.009386948575679E7 ; 4.5918714539054596E8 ; 4.945996048020832E8 ; 0.0
50 ; 9778712.845857384 ; 1.009386948575679E7 ; 4.689630450061872E8 ; 5.0469347428784E8 ; 0.0
51 ; 9779866.27088469 ; 1.009386948575679E7 ; 4.787417578520446E8 ; 5.147873437735968E8 ; 0.0
52 ; 9782899.367286935 ; 1.009386948575679E7 ; 4.885216241229293E8 ; 5.2488121325935364E8 ; 0.0
53 ; 9787012.761070017 ; 1.009386948575679E7 ; 4.983045234902162E8 ; 5.3497508274511045E8 ; 0.0
54 ; 9790029.868313573 ; 1.009386948575679E7 ; 5.080915362512862E8 ; 5.450689522308673E8 ; 0.0
55 ; 9790890.525456551 ; 1.009386948575679E7 ; 5.1788156611959976E8 ; 5.55162821716624E8 ; 0.0
56 ; 9794987.03582344 ; 1.009386948575679E7 ; 5.276724566450563E8 ; 5.652566912023808E8 ; 0.0
57 ; 9797086.612705864 ; 1.009386948575679E7 ; 5.374674436808797E8 ; 5.753505606881375E8 ; 0.0
58 ; 9799362.690242724 ; 1.009386948575679E7 ; 5.472645302935855E8 ; 5.854444301738943E8 ; 0.0
59 ; 9803007.136996087 ; 1.009386948575679E7 ; 5.570638929838283E8 ; 5.95538299659651E8 ; 0.0
60 ; 9802983.46671091 ; 1.009386948575679E7 ; 5.668669001208243E8 ; 6.056321691454078E8 ; 0.0
61 ; 9802670.218209421 ; 1.009386948575679E7 ; 5.766698835875353E8 ; 6.157260386311646E8 ; 0.0
62 ; 9808552.447678853 ; 1.009386948575679E7 ; 5.864725538057446E8 ; 6.258199081169213E8 ; 0.0
63 ; 9807267.36344371 ; 1.009386948575679E7 ; 5.962811062534235E8 ; 6.359137776026781E8 ; 0.0
64 ; 9806507.112771386 ; 1.009386948575679E7 ; 6.060883736168672E8 ; 6.460076470884348E8 ; 0.0
65 ; 9808777.186604341 ; 1.009386948575679E7 ; 6.158948807296386E8 ; 6.561015165741916E8 ; 0.0
66 ; 9813202.529998817 ; 1.009386948575679E7 ; 6.25703657916243E8 ; 6.661953860599483E8 ; 0.0
67 ; 9812079.192255463 ; 1.009386948575679E7 ; 6.355168604462417E8 ; 6.762892555457051E8 ; 0.0
68 ; 9815902.658218153 ; 1.009386948575679E7 ; 6.453289396384972E8 ; 6.863831250314618E8 ; 0.0
69 ; 9816460.184345538 ; 1.009386948575679E7 ; 6.551448422967154E8 ; 6.964769945172186E8 ; 0.0
70 ; 9815688.502977062 ; 1.009386948575679E7 ; 6.649613024810609E8 ; 7.065708640029753E8 ; 0.0
71 ; 9816592.48040283 ; 1.009386948575679E7 ; 6.747769909840379E8 ; 7.166647334887321E8 ; 0.0
72 ; 9821735.596871838 ; 1.009386948575679E7 ; 6.845935834644407E8 ; 7.267586029744889E8 ; 0.0
73 ; 9820269.52872049 ; 1.009386948575679E7 ; 6.944153190613126E8 ; 7.368524724602456E8 ; 0.0
74 ; 9819757.657619424 ; 1.009386948575679E7 ; 7.04235588590033E8 ; 7.469463419460024E8 ; 0.0
75 ; 9823490.373049518 ; 1.009386948575679E7 ; 7.140553462476525E8 ; 7.570402114317591E8 ; 0.0
76 ; 9819592.030887155 ; 1.009386948575679E7 ; 7.23878836620702E8 ; 7.671340809175159E8 ; 0.0
77 ; 9818771.143764073 ; 1.009386948575679E7 ; 7.336984286515892E8 ; 7.772279504032726E8 ; 0.0
78 ; 9816998.435687374 ; 1.009386948575679E7 ; 7.435171997953532E8 ; 7.873218198890294E8 ; 0.0
79 ; 9815800.852625754 ; 1.009386948575679E7 ; 7.533341982310406E8 ; 7.974156893747861E8 ; 0.0
80 ; 9812891.711701203 ; 1.009386948575679E7 ; 7.631499990836663E8 ; 8.075095588605429E8 ; 0.0
81 ; 9808658.4643738 ; 1.009386948575679E7 ; 7.729628907953675E8 ; 8.176034283462996E8 ; 0.0
82 ; 9804082.498329643 ; 1.009386948575679E7 ; 7.827715492597413E8 ; 8.276972978320564E8 ; 0.0
83 ; 9805094.42248175 ; 1.009386948575679E7 ; 7.92575631758071E8 ; 8.377911673178132E8 ; 0.0
84 ; 9798981.603257507 ; 1.009386948575679E7 ; 8.023807261805527E8 ; 8.478850368035699E8 ; 0.0
85 ; 9793669.699586818 ; 1.009386948575679E7 ; 8.121797077838103E8 ; 8.579789062893267E8 ; 0.0
86 ; 9793141.546775658 ; 1.009386948575679E7 ; 8.219733774833971E8 ; 8.680727757750834E8 ; 0.0
87 ; 9791037.545497708 ; 1.009386948575679E7 ; 8.317665190301728E8 ; 8.781666452608402E8 ; 0.0
88 ; 9785764.351141926 ; 1.009386948575679E7 ; 8.415575565756705E8 ; 8.882605147465969E8 ; 0.0
89 ; 9781941.706550347 ; 1.009386948575679E7 ; 8.513433209268124E8 ; 8.983543842323537E8 ; 0.0
90 ; 9778198.848881902 ; 1.009386948575679E7 ; 8.611252626333628E8 ; 9.084482537181104E8 ; 0.0
91 ; 9774705.550248718 ; 1.009386948575679E7 ; 8.709034614822447E8 ; 9.185421232038672E8 ; 0.0
92 ; 9771057.60907199 ; 1.009386948575679E7 ; 8.806781670324935E8 ; 9.28635992689624E8 ; 0.0
93 ; 9767711.930719288 ; 1.009386948575679E7 ; 8.904492246415654E8 ; 9.387298621753807E8 ; 0.0
94 ; 9761835.303747138 ; 1.009386948575679E7 ; 9.002169365722847E8 ; 9.488237316611375E8 ; 0.0
95 ; 9754593.61725957 ; 1.009386948575679E7 ; 9.099787718760319E8 ; 9.589176011468942E8 ; 0.0
96 ; 9754313.661685523 ; 1.009386948575679E7 ; 9.197333654932915E8 ; 9.69011470632651E8 ; 0.0
97 ; 9750926.994728899 ; 1.009386948575679E7 ; 9.29487679154977E8 ; 9.791053401184077E8 ; 0.0
98 ; 9744069.209514612 ; 1.009386948575679E7 ; 9.392386061497059E8 ; 9.891992096041645E8 ; 0.0
99 ; 9740817.914477585 ; 1.009386948575679E7 ; 9.489826753592205E8 ; 9.992930790899212E8 ; 0.0
100 ; 9733346.831322111 ; 1.009386948575679E7 ; 9.587234932736981E8 ; 1.009386948575678E9 ; 0.0
101 ; 9731618.796044558 ; 1.009386948575679E7 ; 9.684568401050202E8 ; 1.0194808180614347E9 ; 0.0
102 ; 9726056.622175332 ; 1.009386948575679E7 ; 9.781884589010648E8 ; 1.0295746875471915E9 ; 0.0
103 ; 9719363.950796664 ; 1.009386948575679E7 ; 9.879145155232401E8 ; 1.0396685570329483E9 ; 0.0
104 ; 9715732.732352357 ; 1.009386948575679E7 ; 9.976338794740367E8 ; 1.049762426518705E9 ; 0.0
105 ; 9710440.572521627 ; 1.009386948575679E7 ; 1.0073496122063891E9 ; 1.0598562960044618E9 ; 0.0
106 ; 9702937.79748556 ; 1.009386948575679E7 ; 1.0170600527789106E9 ; 1.0699501654902185E9 ; 0.0
107 ; 9699530.944124073 ; 1.009386948575679E7 ; 1.0267629905763962E9 ; 1.0800440349759753E9 ; 0.0
108 ; 9693676.31317609 ; 1.009386948575679E7 ; 1.0364625215205203E9 ; 1.0901379044617321E9 ; 0.0
109 ; 9686581.053884313 ; 1.009386948575679E7 ; 1.0461561978336964E9 ; 1.100231773947489E9 ; 0.0
110 ; 9682550.78344002 ; 1.009386948575679E7 ; 1.0558427788875806E9 ; 1.110325643433246E9 ; 0.0
111 ; 9676301.593978982 ; 1.009386948575679E7 ; 1.0655253296710206E9 ; 1.1204195129190028E9 ; 0.0
112 ; 9667278.949749548 ; 1.009386948575679E7 ; 1.0752016312649996E9 ; 1.1305133824047596E9 ; 0.0
113 ; 9665309.191123165 ; 1.009386948575679E7 ; 1.084868910214749E9 ; 1.1406072518905165E9 ; 0.0
114 ; 9654983.5302654 ; 1.009386948575679E7 ; 1.0945342194058723E9 ; 1.1507011213762734E9 ; 0.0
115 ; 9650775.389813624 ; 1.009386948575679E7 ; 1.1041892029361377E9 ; 1.1607949908620303E9 ; 0.0
116 ; 9641710.01830369 ; 1.009386948575679E7 ; 1.1138399783259513E9 ; 1.1708888603477871E9 ; 0.0
117 ; 9640328.293551657 ; 1.009386948575679E7 ; 1.123481688344255E9 ; 1.180982729833544E9 ; 0.0
118 ; 9632901.914779289 ; 1.009386948575679E7 ; 1.1331220166378067E9 ; 1.191076599319301E9 ; 0.0
119 ; 9626804.04759101 ; 1.009386948575679E7 ; 1.1427549185525858E9 ; 1.2011704688050578E9 ; 0.0
120 ; 9619934.691886192 ; 1.009386948575679E7 ; 1.1523817226001768E9 ; 1.2112643382908146E9 ; 0.0
121 ; 9611178.414915333 ; 1.009386948575679E7 ; 1.162001657292063E9 ; 1.2213582077765715E9 ; 0.0
122 ; 9604548.600336991 ; 1.009386948575679E7 ; 1.1716128357069783E9 ; 1.2314520772623284E9 ; 0.0
123 ; 9598795.584437907 ; 1.009386948575679E7 ; 1.1812173843073153E9 ; 1.2415459467480853E9 ; 0.0
124 ; 9588133.980000425 ; 1.009386948575679E7 ; 1.1908161798917532E9 ; 1.2516398162338421E9 ; 0.0
125 ; 9582260.685887316 ; 1.009386948575679E7 ; 1.2004043138717537E9 ; 1.261733685719599E9 ; 0.0
126 ; 9575273.770111209 ; 1.009386948575679E7 ; 1.209986574557641E9 ; 1.271827555205356E9 ; 0.0
127 ; 9569232.12875563 ; 1.009386948575679E7 ; 1.2195618483277524E9 ; 1.2819214246911128E9 ; 0.0
128 ; 9562656.025335884 ; 1.009386948575679E7 ; 1.229131080456508E9 ; 1.2920152941768696E9 ; 0.0
129 ; 9552152.627899405 ; 1.009386948575679E7 ; 1.2386937364818437E9 ; 1.3021091636626265E9 ; 0.0
130 ; 9541943.654738965 ; 1.009386948575679E7 ; 1.248245889109743E9 ; 1.3122030331483834E9 ; 0.0
131 ; 9533965.385571169 ; 1.009386948575679E7 ; 1.257787832764482E9 ; 1.3222969026341403E9 ; 0.0
132 ; 9521614.697956024 ; 1.009386948575679E7 ; 1.2673217981500533E9 ; 1.3323907721198971E9 ; 0.0
133 ; 9510923.669185327 ; 1.009386948575679E7 ; 1.2768434128480093E9 ; 1.342484641605654E9 ; 0.0
134 ; 9500136.114403728 ; 1.009386948575679E7 ; 1.2863543365171947E9 ; 1.3525785110914109E9 ; 0.0
135 ; 9488812.446060572 ; 1.009386948575679E7 ; 1.2958544726315985E9 ; 1.3626723805771677E9 ; 0.0
136 ; 9475939.192357767 ; 1.009386948575679E7 ; 1.3053432850776591E9 ; 1.3727662500629246E9 ; 0.0
137 ; 9468743.988175498 ; 1.009386948575679E7 ; 1.314819224270017E9 ; 1.3828601195486815E9 ; 0.0
138 ; 9454439.556349017 ; 1.009386948575679E7 ; 1.3242879682581923E9 ; 1.3929539890344384E9 ; 0.0
139 ; 9443617.004227748 ; 1.009386948575679E7 ; 1.3337424078145413E9 ; 1.4030478585201952E9 ; 0.0
140 ; 9434326.267333303 ; 1.009386948575679E7 ; 1.343186024818769E9 ; 1.4131417280059521E9 ; 0.0
141 ; 9422402.21402029 ; 1.009386948575679E7 ; 1.3526203510861022E9 ; 1.423235597491709E9 ; 0.0
142 ; 9407387.991014002 ; 1.009386948575679E7 ; 1.3620427533001225E9 ; 1.4333294669774659E9 ; 0.0
143 ; 9397361.717546983 ; 1.009386948575679E7 ; 1.3714501412911365E9 ; 1.4434233364632227E9 ; 0.0
144 ; 9384003.559485639 ; 1.009386948575679E7 ; 1.3808475030086834E9 ; 1.4535172059489796E9 ; 0.0
145 ; 9375696.276620438 ; 1.009386948575679E7 ; 1.390231506568169E9 ; 1.4636110754347365E9 ; 0.0
146 ; 9367519.888265474 ; 1.009386948575679E7 ; 1.3996072028447895E9 ; 1.4737049449204934E9 ; 0.0
147 ; 9359737.777790604 ; 1.009386948575679E7 ; 1.4089747227330549E9 ; 1.4837988144062502E9 ; 0.0
148 ; 9351464.179816183 ; 1.009386948575679E7 ; 1.4183344605108454E9 ; 1.493892683892007E9 ; 0.0
149 ; 9342687.388394294 ; 1.009386948575679E7 ; 1.4276859246906617E9 ; 1.503986553377764E9 ; 0.0
150 ; 9333574.47872973 ; 1.009386948575679E7 ; 1.437028612079056E9 ; 1.5140804228635209E9 ; 0.0
151 ; 9324103.68347533 ; 1.009386948575679E7 ; 1.4463621865577857E9 ; 1.5241742923492777E9 ; 0.0
152 ; 9320178.605492575 ; 1.009386948575679E7 ; 1.455686290241261E9 ; 1.5342681618350346E9 ; 0.0
153 ; 9309243.498002974 ; 1.009386948575679E7 ; 1.4650064688467536E9 ; 1.5443620313207915E9 ; 0.0
154 ; 9299743.012215415 ; 1.009386948575679E7 ; 1.4743157123447566E9 ; 1.5544559008065484E9 ; 0.0
155 ; 9293596.196625287 ; 1.009386948575679E7 ; 1.483615455356972E9 ; 1.5645497702923052E9 ; 0.0
156 ; 9285368.266690454 ; 1.009386948575679E7 ; 1.4929090515535972E9 ; 1.574643639778062E9 ; 0.0
157 ; 9274391.098757904 ; 1.009386948575679E7 ; 1.5021944198202877E9 ; 1.584737509263819E9 ; 0.0
158 ; 9265589.298319856 ; 1.009386948575679E7 ; 1.5114688109190457E9 ; 1.5948313787495759E9 ; 0.0
159 ; 9258741.204354672 ; 1.009386948575679E7 ; 1.5207344002173655E9 ; 1.6049252482353327E9 ; 0.0
160 ; 9246865.178582707 ; 1.009386948575679E7 ; 1.5299931414217203E9 ; 1.6150191177210896E9 ; 0.0
161 ; 9240044.192460626 ; 1.009386948575679E7 ; 1.539240006600303E9 ; 1.6251129872068465E9 ; 0.0
162 ; 9227039.017701045 ; 1.009386948575679E7 ; 1.5484800507927635E9 ; 1.6352068566926033E9 ; 0.0
163 ; 9219916.072156547 ; 1.009386948575679E7 ; 1.5577070898104646E9 ; 1.6453007261783602E9 ; 0.0
164 ; 9212580.007280508 ; 1.009386948575679E7 ; 1.566927005882621E9 ; 1.655394595664117E9 ; 0.0
165 ; 9202437.766488092 ; 1.009386948575679E7 ; 1.5761395858899016E9 ; 1.665488465149874E9 ; 0.0
166 ; 9197922.824033806 ; 1.009386948575679E7 ; 1.5853420236563897E9 ; 1.6755823346356308E9 ; 0.0
167 ; 9185778.85192698 ; 1.009386948575679E7 ; 1.5945399464804235E9 ; 1.6856762041213877E9 ; 0.0
168 ; 9178590.819034167 ; 1.009386948575679E7 ; 1.6037257253323505E9 ; 1.6957700736071446E9 ; 0.0
169 ; 9166559.741601288 ; 1.009386948575679E7 ; 1.6129043161513846E9 ; 1.7058639430929015E9 ; 0.0
170 ; 9157929.031744178 ; 1.009386948575679E7 ; 1.6220708758929858E9 ; 1.7159578125786583E9 ; 0.0
171 ; 9148466.210484829 ; 1.009386948575679E7 ; 1.63122880492473E9 ; 1.7260516820644152E9 ; 0.0
172 ; 9138906.663803313 ; 1.009386948575679E7 ; 1.6403772711352148E9 ; 1.736145551550172E9 ; 0.0
173 ; 9129520.31463971 ; 1.009386948575679E7 ; 1.6495161777990181E9 ; 1.746239421035929E9 ; 0.0
174 ; 9123938.477456333 ; 1.009386948575679E7 ; 1.658645698113658E9 ; 1.7563332905216858E9 ; 0.0
175 ; 9116513.11098035 ; 1.009386948575679E7 ; 1.6677696365911143E9 ; 1.7664271600074427E9 ; 0.0
176 ; 9117147.618038254 ; 1.009386948575679E7 ; 1.6768861497020946E9 ; 1.7765210294931996E9 ; 0.0
177 ; 9109019.193683663 ; 1.009386948575679E7 ; 1.6860032973201327E9 ; 1.7866148989789565E9 ; 0.0
178 ; 9101334.007909706 ; 1.009386948575679E7 ; 1.6951123165138164E9 ; 1.7967087684647133E9 ; 0.0
179 ; 9099454.374746997 ; 1.009386948575679E7 ; 1.7042136505217261E9 ; 1.8068026379504702E9 ; 0.0
180 ; 9090789.853031844 ; 1.009386948575679E7 ; 1.7133131048964732E9 ; 1.816896507436227E9 ; 0.0
181 ; 9085567.868921172 ; 1.009386948575679E7 ; 1.722403894749505E9 ; 1.826990376921984E9 ; 0.0
182 ; 9080883.121896785 ; 1.009386948575679E7 ; 1.7314894626184263E9 ; 1.8370842464077408E9 ; 0.0
183 ; 9075946.378180938 ; 1.009386948575679E7 ; 1.740570345740323E9 ; 1.8471781158934977E9 ; 0.0
184 ; 9065558.751764486 ; 1.009386948575679E7 ; 1.749646292118504E9 ; 1.8572719853792546E9 ; 0.0
185 ; 9059230.640875503 ; 1.009386948575679E7 ; 1.7587118508702686E9 ; 1.8673658548650115E9 ; 0.0
186 ; 9056572.305803092 ; 1.009386948575679E7 ; 1.7677710815111442E9 ; 1.8774597243507683E9 ; 0.0
187 ; 9054390.22988733 ; 1.009386948575679E7 ; 1.7768276538169472E9 ; 1.8875535938365252E9 ; 0.0
188 ; 9046529.942531047 ; 1.009386948575679E7 ; 1.7858820440468345E9 ; 1.897647463322282E9 ; 0.0
189 ; 9041219.408509415 ; 1.009386948575679E7 ; 1.7949285739893656E9 ; 1.907741332808039E9 ; 0.0
190 ; 9037539.488267282 ; 1.009386948575679E7 ; 1.803969793397875E9 ; 1.9178352022937958E9 ; 0.0
191 ; 9031438.86534738 ; 1.009386948575679E7 ; 1.8130073328861423E9 ; 1.9279290717795527E9 ; 0.0
192 ; 9027022.010176478 ; 1.009386948575679E7 ; 1.8220387717514896E9 ; 1.9380229412653096E9 ; 0.0
193 ; 9017042.626195015 ; 1.009386948575679E7 ; 1.831065793761666E9 ; 1.9481168107510664E9 ; 0.0
194 ; 9009878.943650343 ; 1.009386948575679E7 ; 1.840082836387861E9 ; 1.9582106802368233E9 ; 0.0
195 ; 9004520.521456655 ; 1.009386948575679E7 ; 1.8490927153315113E9 ; 1.9683045497225802E9 ; 0.0
196 ; 9000261.41717233 ; 1.009386948575679E7 ; 1.858097235852968E9 ; 1.978398419208337E9 ; 0.0
197 ; 8996024.417290336 ; 1.009386948575679E7 ; 1.8670974972701404E9 ; 1.988492288694094E9 ; 0.0
198 ; 8985471.98840993 ; 1.009386948575679E7 ; 1.8760935216874309E9 ; 1.9985861581798508E9 ; 0.0
199 ; 8984226.583725572 ; 1.009386948575679E7 ; 1.8850789936758409E9 ; 2.0086800276656077E9 ; 0.0
200 ; 8979279.910036143 ; 1.009386948575679E7 ; 1.8940632202595663E9 ; 2.0187738971513646E9 ; 0.0
201 ; 8976309.598298473 ; 1.009386948575679E7 ; 1.9030425001696024E9 ; 2.0288677666371214E9 ; 0.0
202 ; 8968473.810725352 ; 1.009386948575679E7 ; 1.912018809767901E9 ; 2.0389616361228783E9 ; 0.0
203 ; 8962912.250870341 ; 1.009386948575679E7 ; 1.9209872835786264E9 ; 2.0490555056086352E9 ; 0.0
204 ; 8955419.143737122 ; 1.009386948575679E7 ; 1.9299501958294966E9 ; 2.059149375094392E9 ; 0.0
