CSV File for the City 1 on Day 186
1 - Minute m 
2 - Power Consumed at minute m 
3 - Power Produced at minute m 
4 - Energy Consumed since the beginning of the day 
5 - Energy Produced since the beginning of the day 
6 - Energy Lost since the beginning of the day on lines starting from the city
 
0 ; 5959.742052677173 ; 3234.049763850315 ; 0.0 ; 0.0 ; 0.0
1 ; 6623.954192752773 ; 3234.049763850315 ; 5959.742052677173 ; 3234.049763850315 ; 238.00000000000003
2 ; 7232.848312140037 ; 3234.049763850315 ; 12583.696245429946 ; 6468.09952770063 ; 476.00000000000006
3 ; 7730.456908098847 ; 3234.049763850315 ; 19816.544557569985 ; 9702.149291550944 ; 714.0000000000001
4 ; 8344.109661673987 ; 3234.049763850315 ; 27547.001465668833 ; 12936.19905540126 ; 952.0000000000001
5 ; 8660.388869253633 ; 3234.049763850315 ; 35891.11112734282 ; 16170.248819251574 ; 1190.0000000000002
6 ; 9374.584522312789 ; 3234.049763850315 ; 44551.49999659645 ; 19404.29858310189 ; 1428.0000000000002
7 ; 9994.226909548732 ; 3234.049763850315 ; 53926.08451890924 ; 22638.348346952203 ; 1666.0000000000002
8 ; 10306.448805445445 ; 3234.049763850315 ; 63920.31142845798 ; 25872.39811080252 ; 1904.0000000000002
9 ; 11080.477945647766 ; 3234.049763850315 ; 74226.76023390342 ; 29106.447874652833 ; 2142.0000000000005
10 ; 11367.606203867486 ; 3234.049763850315 ; 85307.23817955119 ; 32340.497638503148 ; 2380.0000000000005
11 ; 11960.065349476821 ; 3234.049763850315 ; 96674.84438341868 ; 35574.54740235346 ; 2618.0000000000005
12 ; 12399.114742798816 ; 3234.049763850315 ; 108634.9097328955 ; 38808.59716620378 ; 2856.0000000000005
13 ; 12908.258792098135 ; 3234.049763850315 ; 121034.02447569431 ; 42042.64693005409 ; 3094.0000000000005
14 ; 13519.354334851201 ; 3234.049763850315 ; 133942.28326779246 ; 45276.69669390441 ; 3332.0000000000005
15 ; 13940.730718857916 ; 3234.049763850315 ; 147461.63760264366 ; 48510.74645775472 ; 3570.0000000000005
16 ; 14411.067684938644 ; 3234.049763850315 ; 161402.3683215016 ; 51744.79622160504 ; 3808.0000000000005
17 ; 14932.636265655354 ; 3234.049763850315 ; 175813.43600644023 ; 54978.84598545535 ; 4046.0000000000005
18 ; 15200.930782895752 ; 3234.049763850315 ; 190746.0722720956 ; 58212.895749305666 ; 4284.000000000001
19 ; 15714.12644022061 ; 3234.049763850315 ; 205947.00305499134 ; 61446.94551315598 ; 4522.000000000001
20 ; 16373.080374856308 ; 3234.049763850315 ; 221661.12949521194 ; 64680.995277006296 ; 4760.000000000001
21 ; 16641.535727451814 ; 3234.049763850315 ; 238034.20987006824 ; 67915.04504085661 ; 4998.000000000001
22 ; 17075.56437740879 ; 3234.049763850315 ; 254675.74559752006 ; 71149.09480470693 ; 5236.000000000001
23 ; 17460.305139316697 ; 3234.049763850315 ; 271751.30997492885 ; 74383.14456855724 ; 5474.000000000001
24 ; 17862.594099117356 ; 3234.049763850315 ; 289211.61511424556 ; 77617.19433240755 ; 5712.000000000001
25 ; 18324.222339869837 ; 3234.049763850315 ; 307074.2092133629 ; 80851.24409625787 ; 5950.000000000001
26 ; 18636.137204338003 ; 3234.049763850315 ; 325398.4315532327 ; 84085.29386010818 ; 6188.000000000001
27 ; 19209.442463248633 ; 3234.049763850315 ; 344034.5687575707 ; 87319.3436239585 ; 6426.000000000001
28 ; 19242.43975105762 ; 3234.049763850315 ; 363244.0112208193 ; 90553.39338780881 ; 6664.000000000001
29 ; 19996.535422531357 ; 3234.049763850315 ; 382486.4509718769 ; 93787.44315165913 ; 6902.000000000001
30 ; 20106.07766029131 ; 3234.049763850315 ; 402482.9863944083 ; 97021.49291550944 ; 7140.000000000001
31 ; 20735.239379182305 ; 3234.049763850315 ; 422589.0640546996 ; 100255.54267935976 ; 7378.000000000001
32 ; 20975.193809112476 ; 3234.049763850315 ; 443324.3034338819 ; 103489.59244321007 ; 7616.000000000001
33 ; 21420.79857076005 ; 3234.049763850315 ; 464299.4972429944 ; 106723.64220706039 ; 7854.000000000001
34 ; 21906.071696529772 ; 3234.049763850315 ; 485720.29581375443 ; 109957.6919709107 ; 8092.000000000001
35 ; 22166.653260506846 ; 3234.049763850315 ; 507626.3675102842 ; 113191.74173476102 ; 8330.000000000002
36 ; 22415.337080353434 ; 3234.049763850315 ; 529793.020770791 ; 116425.79149861133 ; 8568.000000000002
37 ; 22735.067690764125 ; 3234.049763850315 ; 552208.3578511444 ; 119659.84126246165 ; 8806.000000000002
38 ; 23091.38475126169 ; 3234.049763850315 ; 574943.4255419085 ; 122893.89102631196 ; 9044.000000000002
39 ; 23292.08005992269 ; 3234.049763850315 ; 598034.8102931702 ; 126127.94079016228 ; 9282.000000000002
40 ; 23518.43061517578 ; 3234.049763850315 ; 621326.8903530928 ; 129361.99055401259 ; 9520.000000000002
41 ; 23985.79966013639 ; 3234.049763850315 ; 644845.3209682686 ; 132596.0403178629 ; 9758.000000000002
42 ; 24252.534214330633 ; 3234.049763850315 ; 668831.1206284049 ; 135830.09008171322 ; 9996.000000000002
43 ; 24500.23610950921 ; 3234.049763850315 ; 693083.6548427355 ; 139064.13984556354 ; 10234.000000000002
44 ; 24729.980457861322 ; 3234.049763850315 ; 717583.8909522448 ; 142298.18960941385 ; 10472.000000000002
45 ; 25003.512481748643 ; 3234.049763850315 ; 742313.8714101061 ; 145532.23937326416 ; 10710.000000000002
46 ; 25268.321833142945 ; 3234.049763850315 ; 767317.3838918547 ; 148766.28913711448 ; 10948.000000000002
47 ; 25612.789169664877 ; 3234.049763850315 ; 792585.7057249976 ; 152000.3389009648 ; 11186.000000000002
48 ; 25820.744548153605 ; 3234.049763850315 ; 818198.4948946624 ; 155234.3886648151 ; 11424.000000000002
49 ; 26067.12108895635 ; 3234.049763850315 ; 844019.239442816 ; 158468.43842866542 ; 11662.000000000002
50 ; 26354.630021820827 ; 3234.049763850315 ; 870086.3605317724 ; 161702.48819251574 ; 11900.000000000002
51 ; 26595.213685230978 ; 3234.049763850315 ; 896440.9905535931 ; 164936.53795636605 ; 12138.000000000002
52 ; 26792.442605161406 ; 3234.049763850315 ; 923036.2042388241 ; 168170.58772021637 ; 12376.000000000002
53 ; 26839.371442101605 ; 3234.049763850315 ; 949828.6468439855 ; 171404.63748406668 ; 12614.000000000002
54 ; 27012.4054593364 ; 3234.049763850315 ; 976668.0182860871 ; 174638.687247917 ; 12852.000000000002
55 ; 27556.896523439744 ; 3234.049763850315 ; 1003680.4237454234 ; 177872.7370117673 ; 13090.000000000002
56 ; 27638.161387347427 ; 3234.049763850315 ; 1031237.3202688632 ; 181106.78677561763 ; 13328.000000000002
57 ; 27538.15851930252 ; 3234.049763850315 ; 1058875.4816562107 ; 184340.83653946794 ; 13566.000000000002
58 ; 27863.8980541965 ; 3234.049763850315 ; 1086413.6401755132 ; 187574.88630331826 ; 13804.000000000002
59 ; 28224.194778911395 ; 3234.049763850315 ; 1114277.5382297097 ; 190808.93606716857 ; 14042.000000000002
60 ; 28087.705053036807 ; 3234.049763850315 ; 1142501.733008621 ; 194042.9858310189 ; 14280.000000000002
61 ; 28381.771697187593 ; 3234.049763850315 ; 1170589.4380616578 ; 197277.0355948692 ; 14518.000000000002
62 ; 28649.992756397576 ; 3234.049763850315 ; 1198971.2097588454 ; 200511.08535871952 ; 14756.000000000002
63 ; 28811.22061796668 ; 3234.049763850315 ; 1227621.2025152429 ; 203745.13512256983 ; 14994.000000000002
64 ; 28717.92480123504 ; 3234.049763850315 ; 1256432.4231332096 ; 206979.18488642015 ; 15232.000000000002
65 ; 28845.06921484937 ; 3234.049763850315 ; 1285150.3479344447 ; 210213.23465027046 ; 15470.000000000002
66 ; 29043.034336868837 ; 3234.049763850315 ; 1313995.417149294 ; 213447.28441412078 ; 15708.000000000002
67 ; 29067.79074863592 ; 3234.049763850315 ; 1343038.4514861628 ; 216681.3341779711 ; 15946.000000000002
68 ; 29288.23288673278 ; 3234.049763850315 ; 1372106.2422347988 ; 219915.3839418214 ; 16184.000000000002
69 ; 29426.78991013329 ; 3234.049763850315 ; 1401394.4751215316 ; 223149.43370567172 ; 16422.000000000004
70 ; 29518.265194597683 ; 3234.049763850315 ; 1430821.2650316649 ; 226383.48346952203 ; 16660.000000000004
71 ; 29536.324370240316 ; 3234.049763850315 ; 1460339.5302262625 ; 229617.53323337235 ; 16898.000000000004
72 ; 29513.646289759545 ; 3234.049763850315 ; 1489875.8545965028 ; 232851.58299722266 ; 17136.000000000004
73 ; 29866.094026899824 ; 3234.049763850315 ; 1519389.5008862624 ; 236085.63276107298 ; 17374.000000000004
74 ; 29979.100079463333 ; 3234.049763850315 ; 1549255.5949131623 ; 239319.6825249233 ; 17612.000000000004
75 ; 29660.899024397855 ; 3234.049763850315 ; 1579234.6949926256 ; 242553.7322887736 ; 17850.000000000004
76 ; 29822.786583980873 ; 3234.049763850315 ; 1608895.5940170235 ; 245787.78205262392 ; 18088.000000000004
77 ; 29770.56025745858 ; 3234.049763850315 ; 1638718.3806010042 ; 249021.83181647424 ; 18326.000000000004
78 ; 29955.380190295527 ; 3234.049763850315 ; 1668488.9408584628 ; 252255.88158032455 ; 18564.000000000004
79 ; 30075.51665311536 ; 3234.049763850315 ; 1698444.3210487585 ; 255489.93134417487 ; 18802.000000000004
80 ; 29632.39486046123 ; 3234.049763850315 ; 1728519.8377018739 ; 258723.98110802518 ; 19040.000000000004
81 ; 29763.989151635928 ; 3234.049763850315 ; 1758152.232562335 ; 261958.0308718755 ; 19278.000000000004
82 ; 30121.421156195545 ; 3234.049763850315 ; 1787916.2217139709 ; 265192.0806357258 ; 19516.000000000004
83 ; 29939.624817970234 ; 3234.049763850315 ; 1818037.6428701663 ; 268426.13039957616 ; 19754.000000000004
84 ; 30101.41066481444 ; 3234.049763850315 ; 1847977.2676881365 ; 271660.18016342644 ; 19992.000000000004
85 ; 30115.89106567438 ; 3234.049763850315 ; 1878078.678352951 ; 274894.2299272767 ; 20230.000000000004
86 ; 29877.20519935117 ; 3234.049763850315 ; 1908194.5694186254 ; 278128.279691127 ; 20468.000000000004
87 ; 29908.654081519446 ; 3234.049763850315 ; 1938071.7746179765 ; 281362.3294549773 ; 20706.000000000004
88 ; 29842.29921525366 ; 3234.049763850315 ; 1967980.428699496 ; 284596.3792188276 ; 20944.000000000004
89 ; 29955.611074317792 ; 3234.049763850315 ; 1997822.7279147496 ; 287830.42898267787 ; 21182.000000000004
90 ; 29744.48206478833 ; 3234.049763850315 ; 2027778.3389890674 ; 291064.47874652816 ; 21420.000000000004
91 ; 29749.992161447783 ; 3234.049763850315 ; 2057522.8210538556 ; 294298.52851037844 ; 21658.000000000004
92 ; 29570.610995064482 ; 3234.049763850315 ; 2087272.8132153035 ; 297532.5782742287 ; 21896.000000000004
93 ; 29521.54523514696 ; 3234.049763850315 ; 2116843.4242103677 ; 300766.628038079 ; 22134.000000000004
94 ; 29490.3079054555 ; 3234.049763850315 ; 2146364.9694455145 ; 304000.6778019293 ; 22372.000000000004
95 ; 29467.978386705778 ; 3234.049763850315 ; 2175855.27735097 ; 307234.7275657796 ; 22610.000000000004
96 ; 29466.70698309911 ; 3234.049763850315 ; 2205323.255737676 ; 310468.77732962987 ; 22848.000000000004
97 ; 29290.37941274274 ; 3234.049763850315 ; 2234789.962720775 ; 313702.82709348015 ; 23086.000000000004
98 ; 29027.01550033787 ; 3234.049763850315 ; 2264080.342133518 ; 316936.87685733044 ; 23324.000000000004
99 ; 28948.685057592567 ; 3234.049763850315 ; 2293107.3576338557 ; 320170.9266211807 ; 23562.000000000004
100 ; 28890.25270297364 ; 3234.049763850315 ; 2322056.0426914482 ; 323404.976385031 ; 23800.000000000004
101 ; 28922.966414838884 ; 3234.049763850315 ; 2350946.295394422 ; 326639.0261488813 ; 24038.000000000004
102 ; 28566.7475664777 ; 3234.049763850315 ; 2379869.261809261 ; 329873.0759127316 ; 24276.000000000004
103 ; 28468.968396915305 ; 3234.049763850315 ; 2408436.009375739 ; 333107.12567658187 ; 24514.000000000004
104 ; 28230.19266920181 ; 3234.049763850315 ; 2436904.977772654 ; 336341.17544043215 ; 24752.000000000004
105 ; 28229.735489307004 ; 3234.049763850315 ; 2465135.1704418557 ; 339575.22520428244 ; 24990.000000000004
106 ; 27806.63543888632 ; 3234.049763850315 ; 2493364.9059311626 ; 342809.2749681327 ; 25228.000000000004
107 ; 27869.310887128922 ; 3234.049763850315 ; 2521171.541370049 ; 346043.324731983 ; 25466.000000000004
108 ; 27667.08455607261 ; 3234.049763850315 ; 2549040.852257178 ; 349277.3744958333 ; 25704.000000000004
109 ; 27448.131588856766 ; 3234.049763850315 ; 2576707.9368132506 ; 352511.4242596836 ; 25942.000000000004
110 ; 27282.381768163243 ; 3234.049763850315 ; 2604156.0684021073 ; 355745.47402353387 ; 26180.000000000004
111 ; 27033.853341534585 ; 3234.049763850315 ; 2631438.4501702706 ; 358979.52378738415 ; 26418.000000000004
112 ; 26818.38640078105 ; 3234.049763850315 ; 2658472.3035118054 ; 362213.57355123444 ; 26656.000000000004
113 ; 26634.969290262266 ; 3234.049763850315 ; 2685290.6899125865 ; 365447.6233150847 ; 26894.000000000004
114 ; 26336.406614144413 ; 3234.049763850315 ; 2711925.6592028486 ; 368681.673078935 ; 27132.000000000004
115 ; 26226.661373403702 ; 3234.049763850315 ; 2738262.065816993 ; 371915.7228427853 ; 27370.000000000004
116 ; 25910.51094397891 ; 3234.049763850315 ; 2764488.7271903967 ; 375149.7726066356 ; 27608.000000000004
117 ; 25705.635577057285 ; 3234.049763850315 ; 2790399.238134376 ; 378383.82237048587 ; 27846.000000000004
118 ; 25463.857333005762 ; 3234.049763850315 ; 2816104.8737114333 ; 381617.87213433615 ; 28084.000000000004
119 ; 25174.26060219986 ; 3234.049763850315 ; 2841568.731044439 ; 384851.92189818644 ; 28322.000000000004
120 ; 25170.226805041486 ; 3234.049763850315 ; 2866742.991646639 ; 388085.9716620367 ; 28560.000000000004
121 ; 24581.232648868285 ; 3234.049763850315 ; 2891913.2184516806 ; 391320.021425887 ; 28798.000000000004
122 ; 24399.08991125399 ; 3234.049763850315 ; 2916494.4511005487 ; 394554.0711897373 ; 29036.000000000004
123 ; 24076.094294135808 ; 3234.049763850315 ; 2940893.541011803 ; 397788.1209535876 ; 29274.000000000004
124 ; 23834.272841615933 ; 3234.049763850315 ; 2964969.635305939 ; 401022.17071743787 ; 29512.000000000004
125 ; 23451.157743997584 ; 3234.049763850315 ; 2988803.908147555 ; 404256.22048128815 ; 29750.000000000004
126 ; 23229.692854160196 ; 3234.049763850315 ; 3012255.0658915523 ; 407490.27024513844 ; 29988.000000000004
127 ; 22883.755395723267 ; 3234.049763850315 ; 3035484.758745712 ; 410724.3200089887 ; 30226.000000000004
128 ; 22486.82688772982 ; 3234.049763850315 ; 3058368.5141414353 ; 413958.369772839 ; 30464.000000000004
129 ; 22153.669942423472 ; 3234.049763850315 ; 3080855.3410291653 ; 417192.4195366893 ; 30702.000000000004
130 ; 22026.218107097466 ; 3234.049763850315 ; 3103009.010971589 ; 420426.4693005396 ; 30940.000000000004
131 ; 21601.488608293792 ; 3234.049763850315 ; 3125035.2290786863 ; 423660.51906438987 ; 31178.000000000004
132 ; 21338.070386778665 ; 3234.049763850315 ; 3146636.71768698 ; 426894.56882824015 ; 31416.000000000004
133 ; 20948.387187892105 ; 3234.049763850315 ; 3167974.7880737586 ; 430128.61859209044 ; 31654.000000000004
134 ; 20523.984697484077 ; 3234.049763850315 ; 3188923.1752616507 ; 433362.6683559407 ; 31892.000000000004
135 ; 20134.886544973582 ; 3234.049763850315 ; 3209447.1599591346 ; 436596.718119791 ; 32130.000000000004
136 ; 19617.312283425315 ; 3234.049763850315 ; 3229582.0465041082 ; 439830.7678836413 ; 32368.000000000004
137 ; 19407.34258203281 ; 3234.049763850315 ; 3249199.3587875334 ; 443064.8176474916 ; 32606.000000000004
138 ; 18947.092193511813 ; 3234.049763850315 ; 3268606.7013695664 ; 446298.86741134187 ; 32844.00000000001
139 ; 18808.23679157221 ; 3234.049763850315 ; 3287553.793563078 ; 449532.91717519215 ; 33082.00000000001
140 ; 18170.26196846824 ; 3234.049763850315 ; 3306362.03035465 ; 452766.96693904244 ; 33320.00000000001
141 ; 17839.63510738341 ; 3234.049763850315 ; 3324532.2923231185 ; 456001.0167028927 ; 33558.00000000001
142 ; 17326.436590972986 ; 3234.049763850315 ; 3342371.927430502 ; 459235.066466743 ; 33796.00000000001
143 ; 16984.383512933055 ; 3234.049763850315 ; 3359698.364021475 ; 462469.1162305933 ; 34034.00000000001
144 ; 16593.19749567633 ; 3234.049763850315 ; 3376682.7475344082 ; 465703.1659944436 ; 34272.00000000001
145 ; 16363.903735680657 ; 3234.049763850315 ; 3393275.9450300843 ; 468937.21575829387 ; 34510.00000000001
146 ; 16284.740092297892 ; 3234.049763850315 ; 3409639.848765765 ; 472171.26552214415 ; 34748.00000000001
147 ; 16180.838269209396 ; 3234.049763850315 ; 3425924.588858063 ; 475405.31528599444 ; 34986.00000000001
148 ; 16085.72012868295 ; 3234.049763850315 ; 3442105.4271272724 ; 478639.3650498447 ; 35224.00000000001
149 ; 15970.521210052673 ; 3234.049763850315 ; 3458191.1472559553 ; 481873.414813695 ; 35462.00000000001
150 ; 15853.176423981393 ; 3234.049763850315 ; 3474161.668466008 ; 485107.4645775453 ; 35700.00000000001
151 ; 15566.37475267814 ; 3234.049763850315 ; 3490014.844889989 ; 488341.5143413956 ; 35938.00000000001
152 ; 15616.74828928392 ; 3234.049763850315 ; 3505581.219642667 ; 491575.56410524587 ; 36176.00000000001
153 ; 15503.33605861848 ; 3234.049763850315 ; 3521197.967931951 ; 494809.61386909615 ; 36414.00000000001
154 ; 15233.12858708359 ; 3234.049763850315 ; 3536701.3039905694 ; 498043.66363294644 ; 36652.00000000001
155 ; 15222.92764686778 ; 3234.049763850315 ; 3551934.432577653 ; 501277.7133967967 ; 36890.00000000001
156 ; 14912.347744493723 ; 3234.049763850315 ; 3567157.360224521 ; 504511.763160647 ; 37128.00000000001
157 ; 14872.188968212537 ; 3234.049763850315 ; 3582069.7079690145 ; 507745.8129244973 ; 37366.00000000001
158 ; 14606.5737840062 ; 3234.049763850315 ; 3596941.896937227 ; 510979.8626883476 ; 37604.00000000001
159 ; 14514.244203291904 ; 3234.049763850315 ; 3611548.470721233 ; 514213.91245219787 ; 37842.00000000001
160 ; 14336.337572039647 ; 3234.049763850315 ; 3626062.714924525 ; 517447.96221604815 ; 38080.00000000001
161 ; 14231.564714644604 ; 3234.049763850315 ; 3640399.0524965646 ; 520682.01197989844 ; 38318.00000000001
162 ; 14043.20497483259 ; 3234.049763850315 ; 3654630.617211209 ; 523916.0617437487 ; 38556.00000000001
163 ; 14002.798012964127 ; 3234.049763850315 ; 3668673.8221860416 ; 527150.111507599 ; 38794.00000000001
164 ; 13674.801277300798 ; 3234.049763850315 ; 3682676.6201990056 ; 530384.1612714493 ; 39032.00000000001
165 ; 13492.251244466686 ; 3234.049763850315 ; 3696351.4214763064 ; 533618.2110352996 ; 39270.00000000001
166 ; 13478.076839973108 ; 3234.049763850315 ; 3709843.672720773 ; 536852.2607991499 ; 39508.00000000001
167 ; 13088.428759821856 ; 3234.049763850315 ; 3723321.7495607464 ; 540086.3105630002 ; 39746.00000000001
168 ; 13079.370901375547 ; 3234.049763850315 ; 3736410.178320568 ; 543320.3603268504 ; 39984.00000000001
169 ; 12872.247126086328 ; 3234.049763850315 ; 3749489.5492219436 ; 546554.4100907007 ; 40222.00000000001
170 ; 12642.781081962925 ; 3234.049763850315 ; 3762361.7963480297 ; 549788.459854551 ; 40460.00000000001
171 ; 12555.823924826036 ; 3234.049763850315 ; 3775004.5774299926 ; 553022.5096184013 ; 40698.00000000001
172 ; 12308.538662515954 ; 3234.049763850315 ; 3787560.4013548186 ; 556256.5593822516 ; 40936.00000000001
173 ; 12151.849572177842 ; 3234.049763850315 ; 3799868.9400173347 ; 559490.6091461019 ; 41174.00000000001
174 ; 12216.82080649933 ; 3234.049763850315 ; 3812020.7895895126 ; 562724.6589099522 ; 41412.00000000001
175 ; 12287.24363701095 ; 3234.049763850315 ; 3824237.6103960117 ; 565958.7086738024 ; 41650.00000000001
176 ; 12338.178623240914 ; 3234.049763850315 ; 3836524.8540330227 ; 569192.7584376527 ; 41888.00000000001
177 ; 12447.034171936499 ; 3234.049763850315 ; 3848863.0326562636 ; 572426.808201503 ; 42126.00000000001
178 ; 12283.113586268046 ; 3234.049763850315 ; 3861310.0668282 ; 575660.8579653533 ; 42364.00000000001
179 ; 12367.395264638924 ; 3234.049763850315 ; 3873593.180414468 ; 578894.9077292036 ; 42602.00000000001
180 ; 12315.431534236484 ; 3234.049763850315 ; 3885960.575679107 ; 582128.9574930539 ; 42840.00000000001
181 ; 12390.708457721594 ; 3234.049763850315 ; 3898276.0072133434 ; 585363.0072569042 ; 43078.00000000001
182 ; 12482.155680159265 ; 3234.049763850315 ; 3910666.715671065 ; 588597.0570207544 ; 43316.00000000001
183 ; 12722.718245392403 ; 3234.049763850315 ; 3923148.871351224 ; 591831.1067846047 ; 43554.00000000001
184 ; 12696.587477219657 ; 3234.049763850315 ; 3935871.589596616 ; 595065.156548455 ; 43792.00000000001
185 ; 12448.115667689952 ; 3234.049763850315 ; 3948568.177073836 ; 598299.2063123053 ; 44030.00000000001
186 ; 12739.359055249357 ; 3234.049763850315 ; 3961016.292741526 ; 601533.2560761556 ; 44268.00000000001
