CSV File for the City 3 on Day 235
1 - Minute m 
2 - Power Consumed at minute m 
3 - Power Produced at minute m 
4 - Energy Consumed since the beginning of the day 
5 - Energy Produced since the beginning of the day 
6 - Energy Lost since the beginning of the day on lines starting from the city
 
0 ; 4015.1744760788615 ; 20484.2940447413 ; 0.0 ; 0.0 ; 0.0
1 ; 4639.795450358964 ; 19549.185268906716 ; 4015.1744760788615 ; 20484.2940447413 ; 0.0
2 ; 5070.692637228767 ; 18672.65181992174 ; 8654.969926437825 ; 40033.479313648015 ; 0.0
3 ; 5473.7351786473555 ; 17863.38987435378 ; 13725.662563666592 ; 58706.131133569754 ; 0.0
4 ; 5856.347123407827 ; 17131.00148217621 ; 19199.397742313948 ; 76569.52100792353 ; 0.0
5 ; 6300.851456811424 ; 16485.794482223504 ; 25055.744865721776 ; 93700.52249009974 ; 0.0
6 ; 6747.517322443476 ; 15938.411882874987 ; 31356.5963225332 ; 110186.31697232324 ; 0.0
7 ; 7336.183442360648 ; 15499.265282890152 ; 38104.11364497668 ; 126124.72885519823 ; 0.0
8 ; 7602.969416674894 ; 15177.787189015702 ; 45440.29708733733 ; 141623.9941380884 ; 0.0
9 ; 7988.1118368299985 ; 14981.57946661871 ; 53043.26650401222 ; 156801.7813271041 ; 0.0
10 ; 8360.185945057694 ; 14915.601664991296 ; 61031.378340842224 ; 171783.36079372282 ; 0.0
11 ; 8953.429295701178 ; 14981.57946661871 ; 69391.56428589992 ; 186698.96245871412 ; 0.0
12 ; 9186.330665262098 ; 15177.787189015702 ; 78344.9935816011 ; 201680.54192533283 ; 0.0
13 ; 9610.011860066745 ; 15499.265282890152 ; 87531.3242468632 ; 216858.32911434854 ; 0.0
14 ; 10103.376191713776 ; 15938.411882874987 ; 97141.33610692994 ; 232357.5943972387 ; 0.0
15 ; 10420.634945574697 ; 16485.794482223504 ; 107244.71229864372 ; 248296.00628011368 ; 0.0
16 ; 10797.873304539105 ; 17131.00148217621 ; 117665.34724421841 ; 264781.80076233717 ; 0.0
17 ; 11121.370423579838 ; 17863.389874353532 ; 128463.22054875753 ; 281912.80224451335 ; 0.0
18 ; 11461.696218917401 ; 18672.65181992174 ; 139584.59097233738 ; 299776.1921188669 ; 0.0
19 ; 11808.171443213678 ; 19549.185268906487 ; 151046.28719125479 ; 318448.84393878863 ; 0.0
20 ; 12187.797649317277 ; 20484.294044741517 ; 162854.45863446846 ; 337998.0292076951 ; 0.0
21 ; 12709.340560045117 ; 21470.25963089305 ; 175042.25628378574 ; 358482.3232524366 ; 0.0
22 ; 12997.021662193178 ; 22500.3273939707 ; 187751.59684383086 ; 379952.58288332965 ; 0.0
23 ; 13326.508361816666 ; 23568.64242912409 ; 200748.61850602404 ; 402452.91027730034 ; 0.0
24 ; 13627.852649609482 ; 24670.160517596032 ; 214075.1268678407 ; 426021.55270642444 ; 0.0
25 ; 13917.729965747041 ; 25800.55093145165 ; 227702.97951745018 ; 450691.7132240205 ; 0.0
26 ; 14204.65929624819 ; 26956.101098980595 ; 241620.70948319722 ; 476492.26415547216 ; 0.0
27 ; 14491.820454191145 ; 28133.628483982946 ; 255825.36877944542 ; 503448.36525445274 ; 0.0
28 ; 14805.086741097279 ; 29330.40204189506 ; 270317.18923363654 ; 531581.9937384357 ; 0.0
29 ; 15047.366552841077 ; 30544.073828501034 ; 285122.2759747338 ; 560912.3957803308 ; 0.0
30 ; 15429.354605215492 ; 31772.620352014834 ; 300169.6425275749 ; 591456.4696088318 ; 0.0
31 ; 15635.518561434397 ; 33014.29277835861 ; 315598.9971327904 ; 623229.0899608466 ; 0.0
32 ; 16016.6235325813 ; 34267.57491821102 ; 331234.5156942248 ; 656243.3827392051 ; 0.0
33 ; 16241.013853329352 ; 35531.147910783715 ; 347251.1392268061 ; 690510.9576574161 ; 0.0
34 ; 16759.767800318037 ; 36803.860591700824 ; 363492.15308013547 ; 726042.1055681999 ; 0.0
35 ; 16860.640224794486 ; 38084.70464251633 ; 380251.9208804535 ; 762845.9661599007 ; 0.0
36 ; 17193.118628540487 ; 39372.79374006935 ; 397112.561105248 ; 800930.670802417 ; 0.0
37 ; 17317.034466238143 ; 40667.3460406278 ; 414305.6797337885 ; 840303.4645424864 ; 0.0
38 ; 17759.347440637 ; 41967.66943978766 ; 431622.71420002665 ; 880970.8105831142 ; 0.0
39 ; 17800.470567288627 ; 43273.149141829395 ; 449382.06164066365 ; 922938.4800229018 ; 0.0
40 ; 18178.972830936316 ; 44583.23715147233 ; 467182.5322079523 ; 966211.6291647311 ; 0.0
41 ; 18201.265670103374 ; 45897.4433676593 ; 485361.5050388886 ; 1010794.8663162035 ; 0.0
42 ; 18644.030093176018 ; 47215.328014560655 ; 503562.770708992 ; 1056692.3096838628 ; 0.0
43 ; 18701.224085298134 ; 48536.495190979476 ; 522206.80080216797 ; 1103907.6376984236 ; 0.0
44 ; 18987.422577139143 ; 49860.58735724757 ; 540908.0248874661 ; 1152444.132889403 ; 0.0
45 ; 19348.319828094467 ; 51187.28060988468 ; 559895.4474646052 ; 1202304.7202466505 ; 0.0
46 ; 19411.032103442718 ; 52516.280619901125 ; 579243.7672926997 ; 1253492.0008565353 ; 0.0
47 ; 19714.054257708925 ; 53847.31913166739 ; 598654.7993961424 ; 1306008.2814764364 ; 0.0
48 ; 19854.188604820054 ; 55180.150936559745 ; 618368.8536538513 ; 1359855.600608104 ; 0.0
49 ; 20048.332958830095 ; 56514.55124982126 ; 638223.0422586714 ; 1415035.7515446637 ; 0.0
50 ; 20347.220669232494 ; 57850.31343079668 ; 658271.3752175014 ; 1471550.302794485 ; 0.0
51 ; 20397.317423973825 ; 59187.2469963738 ; 678618.595886734 ; 1529400.6162252815 ; 0.0
52 ; 20523.987791658725 ; 60525.17588547385 ; 699015.9133107078 ; 1588587.8632216554 ; 0.0
53 ; 20712.506676652592 ; 61863.936939058214 ; 719539.9011023665 ; 1649113.0391071292 ; 0.0
54 ; 20938.601768592427 ; 63203.37856563936 ; 740252.4077790191 ; 1710976.9760461873 ; 0.0
55 ; 21089.072561563236 ; 64543.35956686876 ; 761191.0095476115 ; 1774180.3546118266 ; 0.0
56 ; 21316.907608995578 ; 65883.74810161251 ; 782280.0821091747 ; 1838723.7141786953 ; 0.0
57 ; 21385.724085635473 ; 67224.42077012712 ; 803596.9897181703 ; 1904607.462280308 ; 0.0
58 ; 21584.251067699504 ; 68565.26180264569 ; 824982.7138038058 ; 1971831.883050435 ; 0.0
59 ; 21711.110376337198 ; 69906.16233894511 ; 846566.9648715053 ; 2040397.1448530806 ; 0.0
60 ; 21885.00858819855 ; 71247.01978737529 ; 868278.0752478425 ; 2110303.3071920257 ; 0.0
61 ; 21894.721653334844 ; 72587.73725344558 ; 890163.083836041 ; 2181550.326979401 ; 0.0
62 ; 22178.302537068903 ; 73928.22302943091 ; 912057.8054893758 ; 2254138.0642328467 ; 0.0
63 ; 22119.131137035187 ; 75268.39013762253 ; 934236.1080264448 ; 2328066.2872622777 ; 0.0
64 ; 22433.636157384437 ; 76608.15592083616 ; 956355.23916348 ; 2403334.6773999003 ; 0.0
65 ; 22403.689761954363 ; 77947.44167463754 ; 978788.8753208645 ; 2479942.8333207364 ; 0.0
66 ; 22389.834962593373 ; 79286.17231646458 ; 1001192.5650828189 ; 2557890.274995374 ; 0.0
67 ; 22422.37701138718 ; 80624.27608744595 ; 1023582.4000454122 ; 2637176.4473118386 ; 0.0
68 ; 22566.508173026814 ; 81961.68428324917 ; 1046004.7770567994 ; 2717800.7233992848 ; 0.0
69 ; 22803.095531388193 ; 83298.33101074774 ; 1068571.285229826 ; 2799762.407682534 ; 0.0
70 ; 22957.190972499557 ; 84634.15296769359 ; 1091374.3807612143 ; 2883060.7386932815 ; 0.0
71 ; 22823.929955115032 ; 85969.08924292221 ; 1114331.5717337138 ; 2967694.8916609753 ; 0.0
72 ; 22838.698143033256 ; 87303.08113491564 ; 1137155.501688829 ; 3053663.9809038974 ; 0.0
73 ; 22940.661214932843 ; 88636.07198680441 ; 1159994.1998318622 ; 3140967.0620388133 ; 0.0
74 ; 23037.926244791543 ; 89968.00703611398 ; 1182934.861046795 ; 3229603.1340256175 ; 0.0
75 ; 23260.010448658246 ; 91298.83327775681 ; 1205972.7872915866 ; 3319571.1410617316 ; 0.0
76 ; 23027.156767613647 ; 92628.49933894102 ; 1229232.7977402448 ; 3410869.9743394884 ; 0.0
77 ; 23093.289960198304 ; 93956.95536481557 ; 1252259.9545078585 ; 3503498.4736784296 ; 0.0
78 ; 23133.218590767403 ; 95284.15291380404 ; 1275353.2444680568 ; 3597455.429043245 ; 0.0
79 ; 23115.45511822745 ; 96610.04486169126 ; 1298486.4630588242 ; 3692739.581957049 ; 0.0
80 ; 23214.405821433946 ; 97934.58531363076 ; 1321601.9181770517 ; 3789349.6268187403 ; 0.0
81 ; 23225.357458436414 ; 99257.7295233273 ; 1344816.3239984857 ; 3887284.212132371 ; 0.0
82 ; 23196.36470239157 ; 100579.43381872954 ; 1368041.681456922 ; 3986541.941655698 ; 0.0
83 ; 23176.05604974942 ; 101899.65553363536 ; 1391238.0461593138 ; 4087121.375474428 ; 0.0
84 ; 23293.284035703255 ; 103218.35294467445 ; 1414414.1022090632 ; 4189021.0310080633 ; 0.0
85 ; 23295.413170044976 ; 104535.48521318786 ; 1437707.3862447664 ; 4292239.383952738 ; 0.0
86 ; 23263.740232879056 ; 105851.01233157054 ; 1461002.7994148114 ; 4396774.869165925 ; 0.0
87 ; 23209.561993576353 ; 107164.89507368859 ; 1484266.5396476905 ; 4502625.881497496 ; 0.0
88 ; 23231.862743436766 ; 108477.09494901758 ; 1507476.1016412668 ; 4609790.776571184 ; 0.0
89 ; 23143.834189234924 ; 109787.57416018732 ; 1530707.9643847037 ; 4718267.871520202 ; 0.0
90 ; 23244.38732781504 ; 111096.29556364274 ; 1553851.7985739387 ; 4828055.445680389 ; 0.0
91 ; 22975.242396175916 ; 112403.22263316343 ; 1577096.1859017536 ; 4939151.741244032 ; 0.0
92 ; 22894.07570877723 ; 113708.31942600537 ; 1600071.4282979295 ; 5051554.9638771955 ; 0.0
93 ; 22893.958264278226 ; 115011.55055145094 ; 1622965.5040067066 ; 5165263.283303201 ; 0.0
94 ; 22765.385298193793 ; 116312.88114157354 ; 1645859.462270985 ; 5280274.833854652 ; 0.0
95 ; 22873.864767698993 ; 117612.27682404005 ; 1668624.8475691788 ; 5396587.714996225 ; 0.0
96 ; 22811.974007602726 ; 118909.70369679046 ; 1691498.7123368778 ; 5514199.991820266 ; 0.0
97 ; 22636.44365957843 ; 120205.12830444821 ; 1714310.6863444806 ; 5633109.695517056 ; 0.0
98 ; 22551.151405904107 ; 121498.51761632772 ; 1736947.130004059 ; 5753314.823821504 ; 0.0
99 ; 22346.62255659272 ; 122789.839005917 ; 1759498.2814099633 ; 5874813.3414378315 ; 0.0
100 ; 22469.82286010107 ; 124079.06023172384 ; 1781844.903966556 ; 5997603.180443749 ; 0.0
101 ; 22240.172610658585 ; 125366.14941938398 ; 1804314.726826657 ; 6121682.240675473 ; 0.0
102 ; 22071.512992022846 ; 126651.075044937 ; 1826554.8994373158 ; 6247048.390094857 ; 0.0
103 ; 21942.721547903042 ; 127933.80591918527 ; 1848626.4124293386 ; 6373699.465139794 ; 0.0
104 ; 21897.2521066987 ; 129214.31117305649 ; 1870569.1339772416 ; 6501633.271058979 ; 0.0
105 ; 21823.568249794687 ; 130492.56024389842 ; 1892466.3860839403 ; 6630847.582232036 ; 0.0
106 ; 21669.127021934597 ; 131768.52286263907 ; 1914289.954333735 ; 6761340.142475934 ; 0.0
107 ; 21422.878052166132 ; 133042.1690417516 ; 1935959.0813556695 ; 6893108.665338573 ; 0.0
108 ; 21434.659022871718 ; 134313.46906396735 ; 1957381.9594078357 ; 7026150.834380325 ; 0.0
109 ; 21103.360346268557 ; 135582.39347168594 ; 1978816.6184307074 ; 7160464.303444292 ; 0.0
110 ; 20960.50788080345 ; 136848.91305703405 ; 1999919.978776976 ; 7296046.696915979 ; 0.0
111 ; 20811.025398194655 ; 138112.99885252945 ; 2020880.4866577794 ; 7432895.6099730125 ; 0.0
112 ; 20768.803315180576 ; 139374.62212230932 ; 2041691.512055974 ; 7571008.608825542 ; 0.0
113 ; 20600.662409354358 ; 140633.75435388484 ; 2062460.3153711546 ; 7710383.230947851 ; 0.0
114 ; 20354.274477532752 ; 141890.36725038852 ; 2083060.977780509 ; 7851016.985301736 ; 0.0
115 ; 20178.336821040957 ; 143144.43272328057 ; 2103415.252258042 ; 7992907.352552124 ; 0.0
116 ; 20174.244301265877 ; 144395.9228854858 ; 2123593.589079083 ; 8136051.785275405 ; 0.0
117 ; 19843.768514543903 ; 145644.81004493267 ; 2143767.833380349 ; 8280447.708160891 ; 0.0
118 ; 19705.04754660535 ; 146891.06669846887 ; 2163611.6018948928 ; 8426092.518205823 ; 0.0
119 ; 19440.82646741065 ; 148134.6655261303 ; 2183316.6494414983 ; 8572983.584904293 ; 0.0
120 ; 19468.558647317757 ; 149375.5793857403 ; 2202757.475908909 ; 8721118.250430424 ; 0.0
121 ; 19038.583921581154 ; 150613.78130781977 ; 2222226.034556227 ; 8870493.829816164 ; 0.0
122 ; 18849.253540782884 ; 151849.244490788 ; 2241264.618477808 ; 9021107.611123985 ; 0.0
123 ; 18618.98746615124 ; 153081.94229643713 ; 2260113.8720185906 ; 9172956.855614772 ; 0.0
124 ; 18441.668829555765 ; 154311.84824566354 ; 2278732.859484742 ; 9326038.79791121 ; 0.0
125 ; 18216.081831949687 ; 155538.93601444032 ; 2297174.5283142976 ; 9480350.646156874 ; 0.0
126 ; 18003.003275960207 ; 156763.17943001725 ; 2315390.6101462473 ; 9635889.582171313 ; 0.0
127 ; 17600.807386090444 ; 157984.55246733382 ; 2333393.6134222075 ; 9792652.76160133 ; 0.0
128 ; 17402.52260677614 ; 159203.02924563395 ; 2350994.420808298 ; 9950637.314068664 ; 0.0
129 ; 17071.39948267354 ; 160418.58402526955 ; 2368396.943415074 ; 1.0109840343314297E7 ; 0.0
130 ; 16978.197201366183 ; 161631.1912046827 ; 2385468.3428977476 ; 1.0270258927339567E7 ; 0.0
131 ; 16753.091570092052 ; 162840.82531755618 ; 2402446.5400991137 ; 1.0431890118544249E7 ; 0.0
132 ; 16299.312222450528 ; 164047.46103012247 ; 2419199.6316692056 ; 1.0594730943861805E7 ; 0.0
133 ; 16060.423175206133 ; 165251.07313862242 ; 2435498.943891656 ; 1.0758778404891927E7 ; 0.0
134 ; 15815.700976317323 ; 166451.63656690513 ; 2451559.367066862 ; 1.092402947803055E7 ; 0.0
135 ; 15689.900701371414 ; 167649.1263641616 ; 2467375.0680431793 ; 1.1090481114597455E7 ; 0.0
136 ; 15131.271432669104 ; 168843.51770278395 ; 2483064.968744551 ; 1.1258130240961617E7 ; 0.0
137 ; 14863.67939860705 ; 170034.78587634396 ; 2498196.2401772197 ; 1.1426973758664401E7 ; 0.0
138 ; 14648.572110226463 ; 171222.90629768439 ; 2513059.9195758267 ; 1.1597008544540744E7 ; 0.0
139 ; 14267.62797627702 ; 172407.8544971167 ; 2527708.491686053 ; 1.1768231450838428E7 ; 0.0
140 ; 14058.653134670207 ; 173589.60612071946 ; 2541976.11966233 ; 1.1940639305335544E7 ; 0.0
141 ; 13622.682986117976 ; 174768.1369287324 ; 2556034.772797 ; 1.2114228911456263E7 ; 0.0
142 ; 13148.330039614728 ; 175943.42279404058 ; 2569657.455783118 ; 1.2288997048384994E7 ; 0.0
143 ; 12924.659861340817 ; 177115.43970074455 ; 2582805.785822733 ; 1.2464940471179035E7 ; 0.0
144 ; 12687.090957681803 ; 178284.1637428111 ; 2595730.4456840735 ; 1.264205591087978E7 ; 0.0
145 ; 12480.28730810736 ; 179449.57112280128 ; 2608417.536641755 ; 1.282034007462259E7 ; 0.0
146 ; 12450.791449000524 ; 180611.63815067132 ; 2620897.8239498623 ; 1.2999789645745391E7 ; 0.0
147 ; 12249.36529734722 ; 181770.34124264232 ; 2633348.615398863 ; 1.3180401283896063E7 ; 0.0
148 ; 12165.015332091414 ; 182925.6569201362 ; 2645597.98069621 ; 1.3362171625138706E7 ; 0.0
149 ; 12049.459669529759 ; 184077.56180877343 ; 2657762.996028302 ; 1.3545097282058842E7 ; 0.0
150 ; 12123.654042824252 ; 185226.03263743003 ; 2669812.4556978317 ; 1.3729174843867617E7 ; 0.0
151 ; 11909.54622593008 ; 186371.04623735097 ; 2681936.109740656 ; 1.3914400876505047E7 ; 0.0
152 ; 11665.09930494581 ; 187512.5795413166 ; 2693845.655966586 ; 1.4100771922742398E7 ; 0.0
153 ; 11617.023291795222 ; 188650.60958286002 ; 2705510.7552715316 ; 1.4288284502283715E7 ; 0.0
154 ; 11450.711414439611 ; 189785.11349553263 ; 2717127.7785633267 ; 1.4476935111866575E7 ; 0.0
155 ; 11478.842595701135 ; 190916.06851221542 ; 2728578.4899777663 ; 1.4666720225362107E7 ; 0.0
156 ; 11408.347776595747 ; 192043.45196447408 ; 2740057.3325734674 ; 1.4857636293874323E7 ; 0.0
157 ; 11200.117452267106 ; 193167.24128195518 ; 2751465.6803500634 ; 1.5049679745838797E7 ; 0.0
158 ; 10969.636015202823 ; 194287.41399182222 ; 2762665.7978023305 ; 1.5242846987120751E7 ; 0.0
159 ; 10967.405275583395 ; 195403.94771822906 ; 2773635.4338175333 ; 1.5437134401112573E7 ; 0.0
160 ; 10874.246047641613 ; 196516.82018182913 ; 2784602.8390931166 ; 1.5632538348830802E7 ; 0.0
161 ; 10768.454038656479 ; 197626.00919931862 ; 2795477.085140758 ; 1.5829055169012632E7 ; 0.0
162 ; 10567.867616276217 ; 198731.4926830122 ; 2806245.5391794145 ; 1.6026681178211952E7 ; 0.0
163 ; 10332.720605163364 ; 199833.24864044975 ; 2816813.406795691 ; 1.6225412670894964E7 ; 0.0
164 ; 10127.80309351535 ; 200931.2551740319 ; 2827146.127400854 ; 1.6425245919535413E7 ; 0.0
165 ; 9979.613305070414 ; 202025.49048068444 ; 2837273.9304943695 ; 1.6626177174709445E7 ; 0.0
166 ; 10175.909555513912 ; 203115.93285154927 ; 2847253.54379944 ; 1.682820266519013E7 ; 0.0
167 ; 9919.691171949067 ; 204202.56067170008 ; 2857429.453354954 ; 1.703131859804168E7 ; 0.0
168 ; 9750.450658735757 ; 205285.3524198834 ; 2867349.144526903 ; 1.7235521158713378E7 ; 0.0
169 ; 9568.709102314688 ; 206364.286668282 ; 2877099.595185639 ; 1.744080651113326E7 ; 0.0
170 ; 9776.545273438669 ; 207439.3420823008 ; 2886668.304287954 ; 1.7647170797801543E7 ; 0.0
171 ; 9476.164248827672 ; 208510.497420374 ; 2896444.8495613923 ; 1.7854610139883842E7 ; 0.0
172 ; 9120.53726858419 ; 209577.73153379167 ; 2905921.01381022 ; 1.8063120637304217E7 ; 0.0
173 ; 9207.00769638889 ; 210641.02336654603 ; 2915041.5510788043 ; 1.827269836883801E7 ; 0.0
174 ; 9139.6038170567 ; 211700.35195519606 ; 2924248.558775193 ; 1.8483339392204553E7 ; 0.0
175 ; 9100.841440233016 ; 212755.69642874942 ; 2933388.16259225 ; 1.869503974415975E7 ; 0.0
176 ; 9285.112348911009 ; 213807.03600856088 ; 2942489.004032483 ; 1.89077954405885E7 ; 0.0
177 ; 9183.615658417677 ; 214854.3500082469 ; 2951774.1163813937 ; 1.912160247659706E7 ; 0.0
178 ; 9395.82118647716 ; 215897.6178336154 ; 2960957.7320398116 ; 1.9336456826605305E7 ; 0.0
179 ; 9441.174245392058 ; 216936.81898260984 ; 2970353.553226289 ; 1.955235444443892E7 ; 0.0
180 ; 9504.524239731523 ; 217971.93304526736 ; 2979794.727471681 ; 1.9769291263421528E7 ; 0.0
181 ; 9374.881493840367 ; 219002.93970368966 ; 2989299.2517114123 ; 1.9987263196466796E7 ; 0.0
182 ; 9509.761942535451 ; 220029.81873202728 ; 2998674.1332052527 ; 2.0206266136170484E7 ; 0.0
183 ; 9495.039304449148 ; 221052.54999647502 ; 3008183.8951477883 ; 2.042629595490251E7 ; 0.0
184 ; 9569.861335869864 ; 222071.11345527953 ; 3017678.9344522376 ; 2.0647348504898988E7 ; 0.0
185 ; 9617.896143322923 ; 223085.48915875738 ; 3027248.7957881074 ; 2.086941961835427E7 ; 0.0
186 ; 9624.230652104428 ; 224095.6572493241 ; 3036866.6919314303 ; 2.1092505107513025E7 ; 0.0
187 ; 9597.960116366059 ; 225101.59796153256 ; 3046490.922583535 ; 2.131660076476235E7 ; 0.0
188 ; 9499.106008543786 ; 226103.29162212132 ; 3056088.882699901 ; 2.1541702362723883E7 ; 0.0
189 ; 9663.48908896956 ; 227100.71865007223 ; 3065587.9887084444 ; 2.1767805654346004E7 ; 0.0
190 ; 9811.073935636092 ; 228093.85955667612 ; 3075251.477797414 ; 2.1994906372996077E7 ; 0.0
191 ; 9758.278964629117 ; 229082.69494560716 ; 3085062.5517330505 ; 2.2223000232552752E7 ; 0.0
192 ; 9729.270687636274 ; 230067.20551300512 ; 3094820.8306976794 ; 2.245208292749836E7 ; 0.0
193 ; 9625.955708125672 ; 231047.37204756503 ; 3104550.101385316 ; 2.2682150133011363E7 ; 0.0
194 ; 9772.151862728077 ; 232023.17543063412 ; 3114176.0570934415 ; 2.291319750505893E7 ; 0.0
195 ; 9697.704236863872 ; 232994.5966363154 ; 3123948.2089561694 ; 2.3145220680489562E7 ; 0.0
196 ; 9729.178558794005 ; 233961.61673157784 ; 3133645.913193033 ; 2.3378215277125876E7 ; 0.0
197 ; 9796.85420852167 ; 234924.2168763733 ; 3143375.091751827 ; 2.3612176893857453E7 ; 0.0
198 ; 9962.76327610398 ; 235882.3783237582 ; 3153171.9459603485 ; 2.3847101110733826E7 ; 0.0
199 ; 9819.757858166387 ; 236836.08242002196 ; 3163134.7092364524 ; 2.4082983489057586E7 ; 0.0
200 ; 9795.412017801986 ; 237785.31060482032 ; 3172954.467094619 ; 2.4319819571477607E7 ; 0.0
201 ; 10031.730816190378 ; 238730.04441131355 ; 3182749.8791124206 ; 2.455760488208243E7 ; 0.0
202 ; 9915.923971070231 ; 239670.26546631005 ; 3192781.609928611 ; 2.479633492649374E7 ; 0.0
203 ; 10030.238449775403 ; 240605.95549041408 ; 3202697.5338996816 ; 2.503600519196005E7 ; 0.0
204 ; 10082.572621624495 ; 241537.09629817805 ; 3212727.7723494573 ; 2.5276611147450466E7 ; 0.0
205 ; 10010.648529694956 ; 242463.66979825904 ; 3222810.3449710817 ; 2.5518148243748643E7 ; 0.0
206 ; 10274.068895373322 ; 243385.65799357914 ; 3232820.9935007766 ; 2.57606119135469E7 ; 0.0
207 ; 10166.109844365727 ; 244303.04298148965 ; 3243095.06239615 ; 2.600399757154048E7 ; 0.0
208 ; 10170.996063915005 ; 245215.8069539387 ; 3253261.1722405157 ; 2.624830061452197E7 ; 0.0
209 ; 10240.655465491576 ; 246123.9321976422 ; 3263432.168304431 ; 2.649351642147591E7 ; 0.0
210 ; 9994.428947540728 ; 247027.40109425827 ; 3273672.8237699224 ; 2.673964035367355E7 ; 0.0
211 ; 10358.32951304003 ; 247926.19612056433 ; 3283667.2527174633 ; 2.698666775476781E7 ; 0.0
212 ; 10435.95101183451 ; 248820.29984863702 ; 3294025.582230503 ; 2.7234593950888373E7 ; 0.0
