CSV File for the City 2 on Day 274
1 - Minute m 
2 - Power Consumed at minute m 
3 - Power Produced at minute m 
4 - Energy Consumed since the beginning of the day 
5 - Energy Produced since the beginning of the day 
6 - Energy Lost since the beginning of the day on lines starting from the city
 
0 ; 7087.9553083873825 ; 30066.917287497592 ; 0.0 ; 0.0 ; 0.0
1 ; 7543.475860358648 ; 30066.917287497592 ; 7087.9553083873825 ; 30066.917287497592 ; 0.0
2 ; 7924.307482445546 ; 30066.917287497592 ; 14631.43116874603 ; 60133.834574995184 ; 0.0
3 ; 8374.425414444777 ; 30066.917287497592 ; 22555.738651191576 ; 90200.75186249278 ; 0.0
4 ; 8688.803262469735 ; 30066.917287497592 ; 30930.164065636352 ; 120267.66914999037 ; 0.0
5 ; 9217.251864225016 ; 30066.917287497592 ; 39618.96732810609 ; 150334.58643748797 ; 0.0
6 ; 9637.43680234617 ; 30066.917287497592 ; 48836.219192331104 ; 180401.50372498558 ; 0.0
7 ; 9942.891819240382 ; 30066.917287497592 ; 58473.655994677276 ; 210468.4210124832 ; 0.0
8 ; 10423.053358950354 ; 30066.917287497592 ; 68416.54781391766 ; 240535.3382999808 ; 0.0
9 ; 10939.061627207835 ; 30066.917287497592 ; 78839.60117286802 ; 270602.2555874784 ; 0.0
10 ; 11238.729444553426 ; 30066.917287497592 ; 89778.66280007585 ; 300669.172874976 ; 0.0
11 ; 11475.158265081189 ; 30066.917287497592 ; 101017.39224462927 ; 330736.0901624736 ; 0.0
12 ; 11803.94976748079 ; 30066.917287497592 ; 112492.55050971046 ; 360803.0074499712 ; 0.0
13 ; 12190.404197325008 ; 30066.917287497592 ; 124296.50027719126 ; 390869.9247374688 ; 0.0
14 ; 12496.486784598044 ; 30066.917287497592 ; 136486.90447451625 ; 420936.84202496643 ; 0.0
15 ; 12957.451690321923 ; 30066.917287497592 ; 148983.3912591143 ; 451003.75931246404 ; 0.0
16 ; 13605.174417412605 ; 30066.917287497592 ; 161940.84294943622 ; 481070.67659996165 ; 0.0
17 ; 13528.445734284312 ; 30066.917287497592 ; 175546.01736684883 ; 511137.59388745925 ; 0.0
18 ; 14013.496995473013 ; 30066.917287497592 ; 189074.46310113315 ; 541204.5111749568 ; 0.0
19 ; 14271.060223211034 ; 30066.917287497592 ; 203087.96009660617 ; 571271.4284624544 ; 0.0
20 ; 14673.82301918337 ; 30066.917287497592 ; 217359.0203198172 ; 601338.3457499519 ; 0.0
21 ; 15035.603232882782 ; 30066.917287497592 ; 232032.84333900057 ; 631405.2630374494 ; 0.0
22 ; 15391.69354833578 ; 30066.917287497592 ; 247068.44657188334 ; 661472.180324947 ; 0.0
23 ; 15592.614027882906 ; 30066.917287497592 ; 262460.1401202191 ; 691539.0976124445 ; 0.0
24 ; 15863.193600663566 ; 30066.917287497592 ; 278052.754148102 ; 721606.0148999421 ; 0.0
25 ; 16145.0018227228 ; 30066.917287497592 ; 293915.9477487656 ; 751672.9321874396 ; 0.0
26 ; 16305.83416678108 ; 30066.917287497592 ; 310060.94957148837 ; 781739.8494749372 ; 0.0
27 ; 16825.133190809553 ; 30066.917287497592 ; 326366.78373826947 ; 811806.7667624347 ; 0.0
28 ; 17046.670076773647 ; 30066.917287497592 ; 343191.91692907905 ; 841873.6840499323 ; 0.0
29 ; 17195.66705437909 ; 30066.917287497592 ; 360238.5870058527 ; 871940.6013374298 ; 0.0
30 ; 17627.566151037267 ; 30066.917287497592 ; 377434.2540602318 ; 902007.5186249274 ; 0.0
31 ; 17794.042310078636 ; 30066.917287497592 ; 395061.8202112691 ; 932074.4359124249 ; 0.0
32 ; 18151.468997846427 ; 30066.917287497592 ; 412855.8625213477 ; 962141.3531999225 ; 0.0
33 ; 18334.89819240938 ; 30066.917287497592 ; 431007.3315191941 ; 992208.27048742 ; 0.0
34 ; 18634.986136041192 ; 30066.917287497592 ; 449342.2297116035 ; 1022275.1877749176 ; 0.0
35 ; 18977.28167822357 ; 30066.917287497592 ; 467977.21584764466 ; 1052342.1050624151 ; 0.0
36 ; 18965.63508120626 ; 30066.917287497592 ; 486954.49752586824 ; 1082409.0223499127 ; 0.0
37 ; 19449.073483575838 ; 30066.917287497592 ; 505920.1326070745 ; 1112475.9396374102 ; 0.0
38 ; 19663.794898045122 ; 30066.917287497592 ; 525369.2060906504 ; 1142542.8569249078 ; 0.0
39 ; 20010.324519857677 ; 30066.917287497592 ; 545033.0009886955 ; 1172609.7742124053 ; 0.0
40 ; 19928.038753527067 ; 30066.917287497592 ; 565043.3255085532 ; 1202676.6914999029 ; 0.0
41 ; 20422.193254298814 ; 30066.917287497592 ; 584971.3642620803 ; 1232743.6087874004 ; 0.0
42 ; 20563.020821908605 ; 30066.917287497592 ; 605393.557516379 ; 1262810.526074898 ; 0.0
43 ; 20735.33988712538 ; 30066.917287497592 ; 625956.5783382877 ; 1292877.4433623955 ; 0.0
44 ; 20930.245775934898 ; 30066.917287497592 ; 646691.9182254131 ; 1322944.360649893 ; 0.0
45 ; 21231.77127686832 ; 30066.917287497592 ; 667622.164001348 ; 1353011.2779373906 ; 0.0
46 ; 21194.233014827638 ; 30066.917287497592 ; 688853.9352782163 ; 1383078.1952248882 ; 0.0
47 ; 21454.34293328232 ; 30066.917287497592 ; 710048.1682930439 ; 1413145.1125123857 ; 0.0
48 ; 21756.31519053999 ; 30066.917287497592 ; 731502.5112263262 ; 1443212.0297998833 ; 0.0
49 ; 21955.748452545373 ; 30066.917287497592 ; 753258.8264168663 ; 1473278.9470873808 ; 0.0
50 ; 22083.50162711843 ; 30066.917287497592 ; 775214.5748694116 ; 1503345.8643748784 ; 0.0
51 ; 22268.96411176933 ; 30066.917287497592 ; 797298.0764965301 ; 1533412.781662376 ; 0.0
52 ; 22457.215569386306 ; 30066.917287497592 ; 819567.0406082994 ; 1563479.6989498734 ; 0.0
53 ; 22457.90371395494 ; 30066.917287497592 ; 842024.2561776857 ; 1593546.616237371 ; 0.0
54 ; 22847.633083845634 ; 30066.917287497592 ; 864482.1598916407 ; 1623613.5335248685 ; 0.0
55 ; 22897.054288998705 ; 30066.917287497592 ; 887329.7929754863 ; 1653680.450812366 ; 0.0
56 ; 22856.317480065914 ; 30066.917287497592 ; 910226.847264485 ; 1683747.3680998636 ; 0.0
57 ; 23158.010016023272 ; 30066.917287497592 ; 933083.1647445508 ; 1713814.2853873612 ; 0.0
58 ; 23256.10418107468 ; 30066.917287497592 ; 956241.1747605741 ; 1743881.2026748587 ; 0.0
59 ; 23354.35028578137 ; 30066.917287497592 ; 979497.2789416488 ; 1773948.1199623563 ; 0.0
60 ; 23409.007478996456 ; 30066.917287497592 ; 1002851.6292274301 ; 1804015.0372498538 ; 0.0
61 ; 23631.134316592666 ; 30066.917287497592 ; 1026260.6367064265 ; 1834081.9545373514 ; 0.0
62 ; 23675.385304314263 ; 30066.917287497592 ; 1049891.7710230192 ; 1864148.871824849 ; 0.0
63 ; 23765.19989638437 ; 30066.917287497592 ; 1073567.1563273335 ; 1894215.7891123465 ; 0.0
64 ; 23811.022193995115 ; 30066.917287497592 ; 1097332.3562237178 ; 1924282.706399844 ; 0.0
65 ; 24014.480848006227 ; 30066.917287497592 ; 1121143.3784177129 ; 1954349.6236873416 ; 0.0
66 ; 24094.68442313914 ; 30066.917287497592 ; 1145157.859265719 ; 1984416.5409748391 ; 0.0
67 ; 24327.967481422 ; 30066.917287497592 ; 1169252.5436888582 ; 2014483.4582623367 ; 0.0
68 ; 24366.889313765136 ; 30066.917287497592 ; 1193580.5111702802 ; 2044550.3755498342 ; 0.0
69 ; 24261.069314768996 ; 30066.917287497592 ; 1217947.4004840453 ; 2074617.2928373318 ; 0.0
70 ; 24394.073207665548 ; 30066.917287497592 ; 1242208.4697988143 ; 2104684.2101248293 ; 0.0
71 ; 24389.26678206978 ; 30066.917287497592 ; 1266602.5430064797 ; 2134751.127412327 ; 0.0
72 ; 24468.5430159267 ; 30066.917287497592 ; 1290991.8097885496 ; 2164818.044699825 ; 0.0
73 ; 24526.1792541528 ; 30066.917287497592 ; 1315460.3528044762 ; 2194884.9619873227 ; 0.0
74 ; 24353.890359532004 ; 30066.917287497592 ; 1339986.532058629 ; 2224951.8792748204 ; 0.0
75 ; 24700.459539818712 ; 30066.917287497592 ; 1364340.422418161 ; 2255018.796562318 ; 0.0
76 ; 24555.551620851147 ; 30066.917287497592 ; 1389040.8819579799 ; 2285085.713849816 ; 0.0
77 ; 24613.05514680655 ; 30066.917287497592 ; 1413596.433578831 ; 2315152.631137314 ; 0.0
78 ; 24571.404189364417 ; 30066.917287497592 ; 1438209.4887256376 ; 2345219.5484248116 ; 0.0
79 ; 24631.033572603268 ; 30066.917287497592 ; 1462780.892915002 ; 2375286.4657123093 ; 0.0
80 ; 24529.566015110533 ; 30066.917287497592 ; 1487411.9264876053 ; 2405353.382999807 ; 0.0
81 ; 24686.907343106428 ; 30066.917287497592 ; 1511941.492502716 ; 2435420.300287305 ; 0.0
82 ; 24713.87615465488 ; 30066.917287497592 ; 1536628.3998458222 ; 2465487.2175748027 ; 0.0
83 ; 24648.14425672207 ; 30066.917287497592 ; 1561342.2760004771 ; 2495554.1348623005 ; 0.0
84 ; 24695.063707452384 ; 30066.917287497592 ; 1585990.4202571993 ; 2525621.0521497983 ; 0.0
85 ; 24516.64711647586 ; 30066.917287497592 ; 1610685.4839646518 ; 2555687.969437296 ; 0.0
86 ; 24575.477792814243 ; 30066.917287497592 ; 1635202.1310811278 ; 2585754.886724794 ; 0.0
87 ; 24698.282950293782 ; 30066.917287497592 ; 1659777.608873942 ; 2615821.8040122916 ; 0.0
88 ; 24581.75235009051 ; 30066.917287497592 ; 1684475.8918242357 ; 2645888.7212997894 ; 0.0
89 ; 24691.582732028113 ; 30066.917287497592 ; 1709057.6441743262 ; 2675955.638587287 ; 0.0
90 ; 24365.463151439 ; 30066.917287497592 ; 1733749.2269063543 ; 2706022.555874785 ; 0.0
91 ; 24568.465121869885 ; 30066.917287497592 ; 1758114.6900577934 ; 2736089.4731622827 ; 0.0
92 ; 24337.47309758786 ; 30066.917287497592 ; 1782683.1551796633 ; 2766156.3904497805 ; 0.0
93 ; 24388.037705694827 ; 30066.917287497592 ; 1807020.6282772513 ; 2796223.3077372783 ; 0.0
94 ; 24180.576067579652 ; 30066.917287497592 ; 1831408.665982946 ; 2826290.225024776 ; 0.0
95 ; 24147.010803196932 ; 30066.917287497592 ; 1855589.2420505257 ; 2856357.142312274 ; 0.0
96 ; 24226.528676809477 ; 30066.917287497592 ; 1879736.2528537228 ; 2886424.0595997716 ; 0.0
97 ; 24184.54787912514 ; 30066.917287497592 ; 1903962.7815305323 ; 2916490.9768872694 ; 0.0
98 ; 24096.932135578067 ; 30066.917287497592 ; 1928147.3294096575 ; 2946557.894174767 ; 0.0
99 ; 24108.41951315082 ; 30066.917287497592 ; 1952244.2615452355 ; 2976624.811462265 ; 0.0
100 ; 23823.567540330892 ; 30066.917287497592 ; 1976352.6810583863 ; 3006691.7287497628 ; 0.0
101 ; 23840.422623052884 ; 30066.917287497592 ; 2000176.2485987172 ; 3036758.6460372605 ; 0.0
102 ; 23685.192874611217 ; 30066.917287497592 ; 2024016.67122177 ; 3066825.5633247583 ; 0.0
103 ; 23624.52168193491 ; 30066.917287497592 ; 2047701.8640963812 ; 3096892.480612256 ; 0.0
104 ; 23469.76820209131 ; 30066.917287497592 ; 2071326.385778316 ; 3126959.397899754 ; 0.0
105 ; 23360.65113138449 ; 30066.917287497592 ; 2094796.1539804074 ; 3157026.3151872517 ; 0.0
106 ; 23286.799235446786 ; 30066.917287497592 ; 2118156.805111792 ; 3187093.2324747494 ; 0.0
107 ; 23299.518417628056 ; 30066.917287497592 ; 2141443.604347239 ; 3217160.149762247 ; 0.0
108 ; 22840.298581232233 ; 30066.917287497592 ; 2164743.122764867 ; 3247227.067049745 ; 0.0
109 ; 22903.3693156476 ; 30066.917287497592 ; 2187583.421346099 ; 3277293.984337243 ; 0.0
110 ; 22568.250493160987 ; 30066.917287497592 ; 2210486.7906617466 ; 3307360.9016247406 ; 0.0
111 ; 22452.201379284234 ; 30066.917287497592 ; 2233055.0411549076 ; 3337427.8189122383 ; 0.0
112 ; 22300.796630117762 ; 30066.917287497592 ; 2255507.242534192 ; 3367494.736199736 ; 0.0
113 ; 22102.892035490797 ; 30066.917287497592 ; 2277808.0391643094 ; 3397561.653487234 ; 0.0
114 ; 22085.378762544067 ; 30066.917287497592 ; 2299910.9311998 ; 3427628.5707747317 ; 0.0
115 ; 21733.574645364966 ; 30066.917287497592 ; 2321996.3099623444 ; 3457695.4880622295 ; 0.0
116 ; 21592.897075795656 ; 30066.917287497592 ; 2343729.8846077095 ; 3487762.4053497273 ; 0.0
117 ; 21399.653911585378 ; 30066.917287497592 ; 2365322.781683505 ; 3517829.322637225 ; 0.0
118 ; 21201.061925959566 ; 30066.917287497592 ; 2386722.4355950905 ; 3547896.239924723 ; 0.0
119 ; 20886.78026543754 ; 30066.917287497592 ; 2407923.4975210503 ; 3577963.1572122206 ; 0.0
120 ; 20900.399485022997 ; 30066.917287497592 ; 2428810.2777864877 ; 3608030.0744997184 ; 0.0
121 ; 20613.95659995651 ; 30066.917287497592 ; 2449710.677271511 ; 3638096.991787216 ; 0.0
122 ; 20383.06022234835 ; 30066.917287497592 ; 2470324.6338714673 ; 3668163.909074714 ; 0.0
123 ; 20157.1595686677 ; 30066.917287497592 ; 2490707.6940938155 ; 3698230.8263622117 ; 0.0
124 ; 20005.790535645287 ; 30066.917287497592 ; 2510864.8536624834 ; 3728297.7436497095 ; 0.0
125 ; 19705.225907692664 ; 30066.917287497592 ; 2530870.6441981285 ; 3758364.6609372073 ; 0.0
126 ; 19533.15441511412 ; 30066.917287497592 ; 2550575.870105821 ; 3788431.578224705 ; 0.0
127 ; 19184.96200934994 ; 30066.917287497592 ; 2570109.0245209355 ; 3818498.495512203 ; 0.0
128 ; 19111.20084711891 ; 30066.917287497592 ; 2589293.9865302853 ; 3848565.4127997006 ; 0.0
129 ; 18690.036837538577 ; 30066.917287497592 ; 2608405.1873774044 ; 3878632.3300871984 ; 0.0
130 ; 18638.505972213774 ; 30066.917287497592 ; 2627095.224214943 ; 3908699.247374696 ; 0.0
131 ; 18230.143609089308 ; 30066.917287497592 ; 2645733.7301871567 ; 3938766.164662194 ; 0.0
132 ; 18148.494312337738 ; 30066.917287497592 ; 2663963.873796246 ; 3968833.0819496918 ; 0.0
133 ; 17712.969797111084 ; 30066.917287497592 ; 2682112.3681085836 ; 3998899.9992371895 ; 0.0
134 ; 17608.151998586138 ; 30066.917287497592 ; 2699825.3379056947 ; 4028966.9165246873 ; 0.0
135 ; 17197.37687689208 ; 30066.917287497592 ; 2717433.4899042808 ; 4059033.833812185 ; 0.0
136 ; 16931.55523633412 ; 30066.917287497592 ; 2734630.866781173 ; 4089100.751099683 ; 0.0
137 ; 16829.916112899573 ; 30066.917287497592 ; 2751562.422017507 ; 4119167.6683871807 ; 0.0
138 ; 16386.790412882678 ; 30066.917287497592 ; 2768392.3381304066 ; 4149234.5856746784 ; 0.0
139 ; 15966.324058086759 ; 30066.917287497592 ; 2784779.1285432894 ; 4179301.502962176 ; 0.0
140 ; 15709.956011371745 ; 30066.917287497592 ; 2800745.452601376 ; 4209368.420249674 ; 0.0
141 ; 15339.755810251909 ; 30066.917287497592 ; 2816455.4086127477 ; 4239435.337537171 ; 0.0
142 ; 15039.002833399709 ; 30066.917287497592 ; 2831795.1644229996 ; 4269502.254824669 ; 0.0
143 ; 14625.40537298075 ; 30066.917287497592 ; 2846834.1672563995 ; 4299569.172112167 ; 0.0
144 ; 14458.434928138224 ; 30066.917287497592 ; 2861459.57262938 ; 4329636.089399665 ; 0.0
145 ; 14377.966537082082 ; 30066.917287497592 ; 2875918.0075575183 ; 4359703.006687162 ; 0.0
146 ; 14164.842887420335 ; 30066.917287497592 ; 2890295.9740946004 ; 4389769.92397466 ; 0.0
147 ; 14179.41597002581 ; 30066.917287497592 ; 2904460.8169820206 ; 4419836.841262158 ; 0.0
148 ; 14212.277688201031 ; 30066.917287497592 ; 2918640.232952046 ; 4449903.758549656 ; 0.0
149 ; 13918.654284352291 ; 30066.917287497592 ; 2932852.5106402473 ; 4479970.675837154 ; 0.0
150 ; 13770.846173588303 ; 30066.917287497592 ; 2946771.1649245997 ; 4510037.593124651 ; 0.0
151 ; 13812.664874373238 ; 30066.917287497592 ; 2960542.011098188 ; 4540104.510412149 ; 0.0
152 ; 13761.844833203213 ; 30066.917287497592 ; 2974354.6759725614 ; 4570171.427699647 ; 0.0
153 ; 13577.748845679249 ; 30066.917287497592 ; 2988116.5208057645 ; 4600238.344987145 ; 0.0
154 ; 13596.720642624887 ; 30066.917287497592 ; 3001694.2696514437 ; 4630305.2622746425 ; 0.0
155 ; 13275.817559661587 ; 30066.917287497592 ; 3015290.9902940686 ; 4660372.17956214 ; 0.0
156 ; 13304.852596946006 ; 30066.917287497592 ; 3028566.8078537304 ; 4690439.096849638 ; 0.0
157 ; 12879.086241230225 ; 30066.917287497592 ; 3041871.6604506765 ; 4720506.014137136 ; 0.0
158 ; 13221.654702729104 ; 30066.917287497592 ; 3054750.746691907 ; 4750572.931424634 ; 0.0
159 ; 12849.091492749883 ; 30066.917287497592 ; 3067972.401394636 ; 4780639.848712131 ; 0.0
160 ; 12757.467291842353 ; 30066.917287497592 ; 3080821.4928873857 ; 4810706.765999629 ; 0.0
161 ; 12474.795937989427 ; 30066.917287497592 ; 3093578.960179228 ; 4840773.683287127 ; 0.0
162 ; 12358.627084150503 ; 30066.917287497592 ; 3106053.7561172172 ; 4870840.600574625 ; 0.0
163 ; 12451.506063092811 ; 30066.917287497592 ; 3118412.3832013677 ; 4900907.5178621225 ; 0.0
164 ; 12448.455034071198 ; 30066.917287497592 ; 3130863.8892644607 ; 4930974.43514962 ; 0.0
165 ; 12166.438149434865 ; 30066.917287497592 ; 3143312.3442985318 ; 4961041.352437118 ; 0.0
166 ; 11936.276255837634 ; 30066.917287497592 ; 3155478.7824479667 ; 4991108.269724616 ; 0.0
167 ; 11809.954966230312 ; 30066.917287497592 ; 3167415.0587038044 ; 5021175.187012114 ; 0.0
168 ; 11877.65674585483 ; 30066.917287497592 ; 3179225.0136700347 ; 5051242.104299611 ; 0.0
169 ; 11542.917953412873 ; 30066.917287497592 ; 3191102.6704158895 ; 5081309.021587109 ; 0.0
170 ; 11289.95929673322 ; 30066.917287497592 ; 3202645.5883693025 ; 5111375.938874607 ; 0.0
171 ; 11297.46673317464 ; 30066.917287497592 ; 3213935.5476660356 ; 5141442.856162105 ; 0.0
172 ; 11141.472026650263 ; 30066.917287497592 ; 3225233.0143992105 ; 5171509.773449603 ; 0.0
173 ; 11077.853100604829 ; 30066.917287497592 ; 3236374.486425861 ; 5201576.6907371 ; 0.0
174 ; 11262.286874429896 ; 30066.917287497592 ; 3247452.3395264656 ; 5231643.608024598 ; 0.0
175 ; 11206.582962398652 ; 30066.917287497592 ; 3258714.6264008954 ; 5261710.525312096 ; 0.0
176 ; 11042.713166846132 ; 30066.917287497592 ; 3269921.2093632943 ; 5291777.442599594 ; 0.0
177 ; 11201.321357306593 ; 30066.917287497592 ; 3280963.9225301403 ; 5321844.359887091 ; 0.0
178 ; 11195.741752523058 ; 30066.917287497592 ; 3292165.243887447 ; 5351911.277174589 ; 0.0
179 ; 11291.146353636195 ; 30066.917287497592 ; 3303360.98563997 ; 5381978.194462087 ; 0.0
180 ; 11366.238354997133 ; 30066.917287497592 ; 3314652.131993606 ; 5412045.111749585 ; 0.0
181 ; 11290.457962092198 ; 30066.917287497592 ; 3326018.3703486035 ; 5442112.029037083 ; 0.0
182 ; 11196.411560080944 ; 30066.917287497592 ; 3337308.8283106955 ; 5472178.94632458 ; 0.0
183 ; 11231.440818444002 ; 30066.917287497592 ; 3348505.2398707764 ; 5502245.863612078 ; 0.0
184 ; 11188.363370049155 ; 30066.917287497592 ; 3359736.6806892203 ; 5532312.780899576 ; 0.0
185 ; 11348.47590277975 ; 30066.917287497592 ; 3370925.0440592696 ; 5562379.698187074 ; 0.0
186 ; 11270.119147836354 ; 30066.917287497592 ; 3382273.5199620496 ; 5592446.6154745715 ; 0.0
187 ; 11475.441346776599 ; 30066.917287497592 ; 3393543.639109886 ; 5622513.532762069 ; 0.0
188 ; 11439.695471869565 ; 30066.917287497592 ; 3405019.0804566625 ; 5652580.450049567 ; 0.0
189 ; 11348.895240456619 ; 30066.917287497592 ; 3416458.7759285322 ; 5682647.367337065 ; 0.0
190 ; 11576.312257074398 ; 30066.917287497592 ; 3427807.671168989 ; 5712714.284624563 ; 0.0
191 ; 11248.100466664415 ; 30066.917287497592 ; 3439383.9834260633 ; 5742781.20191206 ; 0.0
192 ; 11516.263434002909 ; 30066.917287497592 ; 3450632.0838927277 ; 5772848.119199558 ; 0.0
193 ; 11611.456953482008 ; 30066.917287497592 ; 3462148.347326731 ; 5802915.036487056 ; 0.0
194 ; 11611.12834696953 ; 30066.917287497592 ; 3473759.804280213 ; 5832981.953774554 ; 0.0
195 ; 11766.986066287433 ; 30066.917287497592 ; 3485370.9326271825 ; 5863048.8710620515 ; 0.0
196 ; 11797.73573643204 ; 30066.917287497592 ; 3497137.91869347 ; 5893115.788349549 ; 0.0
197 ; 11689.394773629963 ; 30066.917287497592 ; 3508935.654429902 ; 5923182.705637047 ; 0.0
198 ; 11886.202584038765 ; 30066.917287497592 ; 3520625.049203532 ; 5953249.622924545 ; 0.0
199 ; 11712.80763013105 ; 30066.917287497592 ; 3532511.251787571 ; 5983316.540212043 ; 0.0
200 ; 11742.39348286148 ; 30066.917287497592 ; 3544224.059417702 ; 6013383.45749954 ; 0.0
201 ; 11663.617226805824 ; 30066.917287497592 ; 3555966.4529005634 ; 6043450.374787038 ; 0.0
202 ; 11680.671559736067 ; 30066.917287497592 ; 3567630.0701273694 ; 6073517.292074536 ; 0.0
203 ; 11670.739163125032 ; 30066.917287497592 ; 3579310.7416871055 ; 6103584.209362034 ; 0.0
204 ; 11907.54107344275 ; 30066.917287497592 ; 3590981.4808502304 ; 6133651.126649532 ; 0.0
205 ; 11923.576300070381 ; 30066.917287497592 ; 3602889.0219236733 ; 6163718.043937029 ; 0.0
206 ; 11911.43518845318 ; 30066.917287497592 ; 3614812.5982237435 ; 6193784.961224527 ; 0.0
207 ; 11874.45120446811 ; 30066.917287497592 ; 3626724.0334121967 ; 6223851.878512025 ; 0.0
208 ; 11936.011857560676 ; 30066.917287497592 ; 3638598.4846166647 ; 6253918.795799523 ; 0.0
209 ; 11908.951668108872 ; 30066.917287497592 ; 3650534.4964742255 ; 6283985.71308702 ; 0.0
210 ; 11868.377181082698 ; 30066.917287497592 ; 3662443.4481423344 ; 6314052.630374518 ; 0.0
211 ; 12026.600537467153 ; 30066.917287497592 ; 3674311.825323417 ; 6344119.547662016 ; 0.0
212 ; 11988.460877647049 ; 30066.917287497592 ; 3686338.425860884 ; 6374186.464949514 ; 0.0
213 ; 11872.099730348644 ; 30066.917287497592 ; 3698326.8867385313 ; 6404253.382237012 ; 0.0
