CSV File for the City 3 on Day 246
1 - Minute m 
2 - Power Consumed at minute m 
3 - Power Produced at minute m 
4 - Energy Consumed since the beginning of the day 
5 - Energy Produced since the beginning of the day 
6 - Energy Lost since the beginning of the day on lines starting from the city
 
0 ; 4404.493426538586 ; 43589.249620685674 ; 0.0 ; 0.0 ; 0.0
1 ; 4914.373942919243 ; 43102.83013347702 ; 4404.493426538586 ; 43589.249620685674 ; 0.0
2 ; 5368.885165425682 ; 42662.81092962371 ; 9318.867369457828 ; 86692.0797541627 ; 0.0
3 ; 5777.692387797904 ; 42270.675049423386 ; 14687.752534883512 ; 129354.8906837864 ; 0.0
4 ; 6246.985721273013 ; 41927.79626938409 ; 20465.444922681418 ; 171625.56573320978 ; 0.0
5 ; 6690.104613070104 ; 41635.41794660225 ; 26712.43064395443 ; 213553.36200259387 ; 0.0
6 ; 7108.150055489777 ; 41394.63265297429 ; 33402.53525702454 ; 255188.77994919612 ; 0.0
7 ; 7406.324483517263 ; 41206.3633091548 ; 40510.68531251432 ; 296583.4126021704 ; 0.0
8 ; 7870.858484505384 ; 41071.3465319702 ; 47917.009796031576 ; 337789.77591132524 ; 0.0
9 ; 8240.749121069903 ; 40990.118867936835 ; 55787.86828053696 ; 378861.12244329543 ; 0.0
10 ; 8465.128813042647 ; 40963.00649802448 ; 64028.61740160686 ; 419851.24131123227 ; 0.0
11 ; 9104.189422458121 ; 40990.118867936835 ; 72493.74621464951 ; 460814.2478092568 ; 0.0
12 ; 9346.214240798836 ; 41071.3465319702 ; 81597.93563710763 ; 501804.3666771936 ; 0.0
13 ; 9665.80238872687 ; 41206.3633091548 ; 90944.14987790646 ; 542875.7132091639 ; 0.0
14 ; 9931.368959897272 ; 41394.632652974185 ; 100609.95226663332 ; 584082.0765183186 ; 0.0
15 ; 10473.916964331314 ; 41635.41794660225 ; 110541.32122653059 ; 625476.7091712928 ; 0.0
16 ; 10874.64652253705 ; 41927.79626938409 ; 121015.23819086191 ; 667112.127117895 ; 0.0
17 ; 11217.843984817948 ; 42270.675049423386 ; 131889.88471339896 ; 709039.9233872792 ; 0.0
18 ; 11489.605264016236 ; 42662.81092962382 ; 143107.7286982169 ; 751310.5984367025 ; 0.0
19 ; 11855.596296512333 ; 43102.83013347691 ; 154597.33396223313 ; 793973.4093663263 ; 0.0
20 ; 12100.892200794615 ; 43589.24962068578 ; 166452.93025874544 ; 837076.2394998032 ; 0.0
21 ; 12401.20402922843 ; 44120.49836576002 ; 178553.82245954007 ; 880665.489120489 ; 0.0
22 ; 12889.57441382714 ; 44694.93816662714 ; 190955.0264887685 ; 924785.987486249 ; 0.0
23 ; 13167.090673717752 ; 45310.88348529074 ; 203844.60090259562 ; 969480.925652876 ; 0.0
24 ; 13394.756795109392 ; 45966.619928715656 ; 217011.69157631337 ; 1014791.8091381667 ; 0.0
25 ; 13706.89601961823 ; 46660.42108646374 ; 230406.44837142277 ; 1060758.4290668825 ; 0.0
26 ; 13918.120827809536 ; 47390.56354479795 ; 244113.344391041 ; 1107418.8501533463 ; 0.0
27 ; 14308.325258672152 ; 48155.33998966176 ; 258031.46521885053 ; 1154809.4136981443 ; 0.0
28 ; 14845.8964390297 ; 48953.07038977389 ; 272339.7904775227 ; 1202964.753687806 ; 0.0
29 ; 14963.942116968756 ; 49782.11131451985 ; 287185.6869165524 ; 1251917.82407758 ; 0.0
30 ; 15165.7484160427 ; 50640.863489295276 ; 302149.62903352117 ; 1301699.9353920997 ; 0.0
31 ; 15408.313620725123 ; 51527.777724495594 ; 317315.3774495639 ; 1352340.798881395 ; 0.0
32 ; 15689.63223993943 ; 52441.35937513911 ; 332723.691070289 ; 1403868.5766058906 ; 0.0
33 ; 15957.887227582192 ; 53380.1714982439 ; 348413.3233102284 ; 1456309.9359810296 ; 0.0
34 ; 16250.817912753857 ; 54342.83687672184 ; 364371.2105378106 ; 1509690.1074792736 ; 0.0
35 ; 16640.849099511626 ; 55328.03907376441 ; 380622.0284505644 ; 1564032.9443559954 ; 0.0
36 ; 16895.163180260388 ; 56334.522672366205 ; 397262.87755007605 ; 1619360.9834297597 ; 0.0
37 ; 16994.7144765413 ; 57361.092842327475 ; 414158.04073033645 ; 1675695.5061021259 ; 0.0
38 ; 17365.46125878205 ; 58406.61436310825 ; 431152.7552068778 ; 1733056.5989444533 ; 0.0
39 ; 17534.471500878844 ; 59470.01021627186 ; 448518.21646565985 ; 1791463.2133075616 ; 0.0
40 ; 17607.363803422264 ; 60550.259846702626 ; 466052.6879665387 ; 1850933.2235238336 ; 0.0
41 ; 17961.856254949085 ; 61646.39717785244 ; 483660.05176996096 ; 1911483.4833705362 ; 0.0
42 ; 18261.02435054723 ; 62757.508453284405 ; 501621.90802491 ; 1973129.8805483887 ; 0.0
43 ; 18383.85275137517 ; 63882.72996497106 ; 519882.93237545725 ; 2035887.389001673 ; 0.0
44 ; 18719.895088093494 ; 65021.245718232436 ; 538266.7851268324 ; 2099770.118966644 ; 0.0
45 ; 18723.55667396028 ; 66172.2850739061 ; 556986.6802149259 ; 2164791.3646848765 ; 0.0
46 ; 18948.78695445623 ; 67335.12040026604 ; 575710.2368888862 ; 2230963.6497587827 ; 0.0
47 ; 19313.385499940916 ; 68509.0647602857 ; 594659.0238433424 ; 2298298.770159049 ; 0.0
48 ; 19418.75702774551 ; 69693.46965396973 ; 613972.4093432834 ; 2366807.834919335 ; 0.0
49 ; 19588.71184694461 ; 70887.72283055178 ; 633391.1663710289 ; 2436501.3045733045 ; 0.0
50 ; 19804.148649481896 ; 72091.24618126595 ; 652979.8782179735 ; 2507389.027403856 ; 0.0
51 ; 19921.20064298139 ; 73303.49372003294 ; 672784.0268674555 ; 2579480.273585122 ; 0.0
52 ; 19997.381087102538 ; 74523.94965667128 ; 692705.2275104368 ; 2652783.767305155 ; 0.0
53 ; 20210.960482030267 ; 75752.12656503693 ; 712702.6085975394 ; 2727307.716961826 ; 0.0
54 ; 20359.440264811157 ; 76987.56364675603 ; 732913.5690795697 ; 2803059.843526863 ; 0.0
55 ; 20453.832463160066 ; 78229.82508984132 ; 753273.0093443808 ; 2880047.407173619 ; 0.0
56 ; 20809.420894417533 ; 79478.49852043923 ; 773726.8418075409 ; 2958277.2322634603 ; 0.0
57 ; 20805.37088869948 ; 80733.19354515913 ; 794536.2627019584 ; 3037755.7307838993 ; 0.0
58 ; 20916.913406636602 ; 81993.54038086529 ; 815341.6335906578 ; 3118488.9243290583 ; 0.0
59 ; 20992.715878167826 ; 83259.18856840691 ; 836258.5469972944 ; 3200482.4647099236 ; 0.0
60 ; 21186.85291544026 ; 84529.80576650097 ; 857251.2628754622 ; 3283741.6532783303 ; 0.0
61 ; 21485.893295306265 ; 85805.07662182994 ; 878438.1157909024 ; 3368271.4590448313 ; 0.0
62 ; 21663.362004931332 ; 87084.70171135572 ; 899924.0090862087 ; 3454076.5356666613 ; 0.0
63 ; 21454.749608880054 ; 88368.39655285346 ; 921587.37109114 ; 3541161.237378017 ; 0.0
64 ; 21633.21160665303 ; 89655.89067972892 ; 943042.12070002 ; 3629529.6339308703 ; 0.0
65 ; 21798.762831277334 ; 90946.92677627986 ; 964675.332306673 ; 3719185.524610599 ; 0.0
66 ; 21765.754251624545 ; 92241.25986968592 ; 986474.0951379504 ; 3810132.4513868787 ; 0.0
67 ; 22004.763036514854 ; 93538.65657516065 ; 1008239.849389575 ; 3902373.7112565646 ; 0.0
68 ; 21981.88863644509 ; 94838.89439085587 ; 1030244.6124260898 ; 3995912.367831725 ; 0.0
69 ; 22147.42140084058 ; 96141.76103927832 ; 1052226.501062535 ; 4090751.262222581 ; 0.0
70 ; 22279.503806550973 ; 97447.05385214939 ; 1074373.9224633756 ; 4186893.0232618595 ; 0.0
71 ; 22253.3730999292 ; 98754.57919580916 ; 1096653.4262699266 ; 4284340.077114009 ; 0.0
72 ; 22364.511840089854 ; 100064.15193443856 ; 1118906.7993698558 ; 4383094.656309819 ; 0.0
73 ; 22436.050356888158 ; 101375.59492853712 ; 1141271.3112099457 ; 4483158.808244257 ; 0.0
74 ; 22483.61983163231 ; 102688.73856625536 ; 1163707.361566834 ; 4584534.403172795 ; 0.0
75 ; 22448.46707847296 ; 104003.42032533538 ; 1186190.9813984663 ; 4687223.14173905 ; 0.0
76 ; 22331.609485075474 ; 105319.48436356078 ; 1208639.4484769392 ; 4791226.562064385 ; 0.0
77 ; 22485.079458806867 ; 106636.78113575645 ; 1230971.0579620148 ; 4896546.046427946 ; 0.0
78 ; 22660.47536173785 ; 107955.16703551324 ; 1253456.1374208217 ; 5003182.827563702 ; 0.0
79 ; 22564.792437418582 ; 109274.50405993547 ; 1276116.6127825596 ; 5111137.994599216 ; 0.0
80 ; 22657.916376368452 ; 110594.65949582896 ; 1298681.4052199782 ; 5220412.498659152 ; 0.0
81 ; 22652.086064386007 ; 111915.50562585695 ; 1321339.3215963466 ; 5331007.15815498 ; 0.0
82 ; 22447.377351833475 ; 113236.91945329423 ; 1343991.4076607325 ; 5442922.663780837 ; 0.0
83 ; 22647.67888914719 ; 114558.78244410724 ; 1366438.785012566 ; 5556159.583234131 ; 0.0
84 ; 22614.32355276439 ; 115880.98028517768 ; 1389086.4639017133 ; 5670718.365678239 ; 0.0
85 ; 22648.808802876985 ; 117203.40265757129 ; 1411700.7874544777 ; 5786599.345963417 ; 0.0
86 ; 22537.490462697835 ; 118525.94302383115 ; 1434349.5962573548 ; 5903802.748620988 ; 0.0
87 ; 22542.803911097963 ; 119848.49842834822 ; 1456887.0867200526 ; 6022328.691644819 ; 0.0
88 ; 22550.55198940954 ; 121170.96930992907 ; 1479429.8906311507 ; 6142177.190073168 ; 0.0
89 ; 22463.28469911172 ; 122493.25932574368 ; 1501980.4426205603 ; 6263348.159383097 ; 0.0
90 ; 22482.524286846 ; 123815.27518589319 ; 1524443.727319672 ; 6385841.41870884 ; 0.0
91 ; 22324.520983450304 ; 125136.92649789357 ; 1546926.251606518 ; 6509656.693894734 ; 0.0
92 ; 22185.19985662204 ; 126458.12562041947 ; 1569250.7725899683 ; 6634793.620392627 ; 0.0
93 ; 22332.62661199353 ; 127778.78752569937 ; 1591435.9724465904 ; 6761251.746013046 ; 0.0
94 ; 22137.41336065222 ; 129098.82966999637 ; 1613768.5990585838 ; 6889030.533538746 ; 0.0
95 ; 22210.441409480452 ; 130418.17187164901 ; 1635906.0124192361 ; 7018129.363208742 ; 0.0
96 ; 21978.232055111355 ; 131736.73619618226 ; 1658116.4538287167 ; 7148547.535080391 ; 0.0
97 ; 21996.31319429298 ; 133054.44684803483 ; 1680094.685883828 ; 7280284.271276574 ; 0.0
98 ; 22008.343302609515 ; 134371.23006847876 ; 1702090.999078121 ; 7413338.7181246085 ; 0.0
99 ; 21840.038781818017 ; 135687.01403933804 ; 1724099.3423807304 ; 7547709.948193087 ; 0.0
100 ; 21829.173948587904 ; 137001.72879213953 ; 1745939.3811625484 ; 7683396.962232425 ; 0.0
101 ; 21583.27475481414 ; 138315.30612235502 ; 1767768.5551111363 ; 7820398.691024564 ; 0.0
102 ; 21562.2556454358 ; 139627.6795084157 ; 1789351.8298659504 ; 7958713.997146919 ; 0.0
103 ; 21519.81194940861 ; 140938.78403520424 ; 1810914.0855113862 ; 8098341.676655335 ; 0.0
104 ; 21403.87533869979 ; 142248.5563217464 ; 1832433.8974607948 ; 8239280.460690539 ; 0.0
105 ; 21293.08498675992 ; 143556.93445284636 ; 1853837.7727994947 ; 8381529.017012286 ; 0.0
106 ; 21042.988320379165 ; 144863.85791442427 ; 1875130.8577862545 ; 8525085.951465132 ; 0.0
107 ; 20990.18669346441 ; 146169.26753233283 ; 1896173.8461066335 ; 8669949.809379555 ; 0.0
108 ; 20801.616513668814 ; 147473.1054144428 ; 1917164.032800098 ; 8816119.076911889 ; 0.0
109 ; 20548.36917175669 ; 148775.31489580224 ; 1937965.6493137667 ; 8963592.182326332 ; 0.0
110 ; 20665.76102061239 ; 150075.84048668714 ; 1958514.0184855235 ; 9112367.497222135 ; 0.0
111 ; 20255.968980802223 ; 151374.627823373 ; 1979179.779506136 ; 9262443.337708822 ; 0.0
112 ; 20255.313574139345 ; 152671.62362146672 ; 1999435.7484869382 ; 9413817.965532195 ; 0.0
113 ; 20053.40125879741 ; 153966.7756316508 ; 2019691.0620610774 ; 9566489.589153662 ; 0.0
114 ; 19898.13366082623 ; 155260.03259769944 ; 2039744.4633198748 ; 9720456.364785314 ; 0.0
115 ; 19822.273593129597 ; 156551.3442166365 ; 2059642.596980701 ; 9875716.397383014 ; 0.0
116 ; 19564.904583535772 ; 157840.66110091214 ; 2079464.8705738306 ; 1.0032267741599651E7 ; 0.0
117 ; 19352.712400831853 ; 159127.9347424841 ; 2099029.7751573664 ; 1.0190108402700564E7 ; 0.0
118 ; 19198.422156123084 ; 160413.1174786959 ; 2118382.487558198 ; 1.0349236337443048E7 ; 0.0
119 ; 19070.346896988267 ; 161696.16245985136 ; 2137580.909714321 ; 1.0509649454921745E7 ; 0.0
120 ; 18800.737277542157 ; 162977.02361839087 ; 2156651.2566113095 ; 1.0671345617381597E7 ; 0.0
121 ; 18533.560735448038 ; 164255.6556395807 ; 2175451.9938888517 ; 1.0834322640999988E7 ; 0.0
122 ; 18264.97412708681 ; 165532.01393363252 ; 2193985.5546243 ; 1.099857829663957E7 ; 0.0
123 ; 18286.771203794367 ; 166806.05460917432 ; 2212250.528751387 ; 1.1164110310573202E7 ; 0.0
124 ; 18022.135273506712 ; 168077.73444800018 ; 2230537.2999551813 ; 1.1330916365182376E7 ; 0.0
125 ; 17818.78802516334 ; 169347.0108810293 ; 2248559.435228688 ; 1.1498994099630376E7 ; 0.0
126 ; 17459.311098638307 ; 170613.84196540967 ; 2266378.2232538513 ; 1.1668341110511405E7 ; 0.0
127 ; 17278.77350999766 ; 171878.18636270546 ; 2283837.5343524897 ; 1.1838954952476814E7 ; 0.0
128 ; 17119.898933348806 ; 173140.00331811086 ; 2301116.3078624876 ; 1.201083313883952E7 ; 0.0
129 ; 16933.094079994564 ; 174399.25264063632 ; 2318236.2067958363 ; 1.2183973142157631E7 ; 0.0
130 ; 16614.51837431114 ; 175655.8946842159 ; 2335169.300875831 ; 1.2358372394798268E7 ; 0.0
131 ; 16524.731300568972 ; 176909.89032968905 ; 2351783.819250142 ; 1.2534028289482484E7 ; 0.0
132 ; 16016.85292859222 ; 178161.20096761032 ; 2368308.5505507113 ; 1.2710938179812172E7 ; 0.0
133 ; 15862.539666876757 ; 179409.78848184584 ; 2384325.4034793037 ; 1.2889099380779782E7 ; 0.0
134 ; 15450.578800091655 ; 180655.61523391513 ; 2400187.9431461804 ; 1.3068509169261629E7 ; 0.0
135 ; 15128.714520811289 ; 181898.644048042 ; 2415638.521946272 ; 1.3249164784495544E7 ; 0.0
136 ; 15163.728617904388 ; 183138.8381968773 ; 2430767.236467083 ; 1.3431063428543586E7 ; 0.0
137 ; 14731.942861005991 ; 184376.1613878611 ; 2445930.965084987 ; 1.3614202266740464E7 ; 0.0
138 ; 14469.5574268452 ; 185610.57775019185 ; 2460662.9079459934 ; 1.3798578428128324E7 ; 0.0
139 ; 14229.150797643797 ; 186842.05182237306 ; 2475132.4653728385 ; 1.3984189005878516E7 ; 0.0
140 ; 13850.707577756548 ; 188070.5485403082 ; 2489361.6161704822 ; 1.417103105770089E7 ; 0.0
141 ; 13395.053243108929 ; 189296.0332259181 ; 2503212.323748239 ; 1.4359101606241198E7 ; 0.0
142 ; 13150.33547068439 ; 190518.47157625484 ; 2516607.376991348 ; 1.4548397639467116E7 ; 0.0
143 ; 12941.183649497172 ; 191737.8296530886 ; 2529757.712462032 ; 1.4738916111043371E7 ; 0.0
144 ; 12577.524225329791 ; 192954.0738729439 ; 2542698.8961115293 ; 1.493065394069646E7 ; 0.0
145 ; 12567.668394573653 ; 194167.1709975654 ; 2555276.4203368593 ; 1.5123608014569404E7 ; 0.0
146 ; 12317.95228980297 ; 195377.08812479101 ; 2567844.088731433 ; 1.531777518556697E7 ; 0.0
147 ; 12290.418357575609 ; 196583.7926798146 ; 2580162.0410212358 ; 1.551315227369176E7 ; 0.0
148 ; 12363.063464097822 ; 197787.25240681932 ; 2592452.4593788115 ; 1.5709736066371575E7 ; 0.0
149 ; 12167.629281860069 ; 198987.43536096456 ; 2604815.522842909 ; 1.5907523318778394E7 ; 0.0
150 ; 12075.16870987328 ; 200184.3099007097 ; 2616983.152124769 ; 1.6106510754139358E7 ; 0.0
151 ; 11948.398082610867 ; 201377.84468045985 ; 2629058.3208346423 ; 1.6306695064040069E7 ; 0.0
152 ; 11780.705161191627 ; 202568.0086435186 ; 2641006.718917253 ; 1.6508072908720529E7 ; 0.0
153 ; 11718.701135682064 ; 203754.77101533287 ; 2652787.4240784445 ; 1.6710640917364048E7 ; 0.0
154 ; 11552.234479455074 ; 204938.10129701844 ; 2664506.1252141264 ; 1.691439568837938E7 ; 0.0
155 ; 11507.39705845003 ; 206117.96925915184 ; 2676058.3596935817 ; 1.7119333789676398E7 ; 0.0
156 ; 11342.939009250398 ; 207294.34493581773 ; 2687565.756752032 ; 1.732545175893555E7 ; 0.0
157 ; 11324.322030557738 ; 208467.19861889942 ; 2698908.6957612825 ; 1.7532746103871368E7 ; 0.0
158 ; 11102.779130175602 ; 209636.5008526032 ; 2710233.0177918402 ; 1.7741213302490268E7 ; 0.0
159 ; 11115.770867762629 ; 210802.2224282045 ; 2721335.796922016 ; 1.795084980334287E7 ; 0.0
160 ; 10813.004266478705 ; 211964.33437900763 ; 2732451.5677897786 ; 1.8161652025771074E7 ; 0.0
161 ; 10879.508834779193 ; 213122.80797550862 ; 2743264.572056257 ; 1.837361636015008E7 ; 0.0
162 ; 10750.529169860432 ; 214277.6147207531 ; 2754144.0808910364 ; 1.858673916812559E7 ; 0.0
163 ; 10477.268426661223 ; 215428.72634588077 ; 2764894.6100608967 ; 1.8801016782846343E7 ; 0.0
164 ; 10705.147971430533 ; 216576.11480584778 ; 2775371.878487558 ; 1.9016445509192225E7 ; 0.0
165 ; 10501.926720936404 ; 217719.75227532026 ; 2786077.0264589884 ; 1.9233021623998072E7 ; 0.0
166 ; 10259.478895349643 ; 218859.6111447315 ; 2796578.9531799247 ; 1.9450741376273394E7 ; 0.0
167 ; 10187.661734789857 ; 219995.66401649528 ; 2806838.432075274 ; 1.9669600987418126E7 ; 0.0
168 ; 9931.109466766615 ; 221127.88370136975 ; 2817026.0938100643 ; 1.9889596651434623E7 ; 0.0
169 ; 9878.579854603578 ; 222256.24321496443 ; 2826957.2032768307 ; 2.0110724535135992E7 ; 0.0
170 ; 9722.466546822492 ; 223380.71577438575 ; 2836835.783131434 ; 2.0332980778350957E7 ; 0.0
171 ; 9615.19520822096 ; 224501.27479501427 ; 2846558.2496782565 ; 2.0556361494125344E7 ; 0.0
172 ; 9347.338993852509 ; 225617.89388740822 ; 2856173.444886477 ; 2.078086276892036E7 ; 0.0
173 ; 9230.772228586771 ; 226730.54685432903 ; 2865520.7838803297 ; 2.1006480662807766E7 ; 0.0
174 ; 9415.365468555194 ; 227839.20768788306 ; 2874751.5561089166 ; 2.1233211209662095E7 ; 0.0
175 ; 9401.977589593127 ; 228943.85056677513 ; 2884166.921577472 ; 2.146105041734998E7 ; 0.0
176 ; 9370.447053065478 ; 230044.44985366898 ; 2893568.899167065 ; 2.1689994267916754E7 ; 0.0
177 ; 9470.097504394515 ; 231140.98009265112 ; 2902939.3462201306 ; 2.1920038717770424E7 ; 0.0
178 ; 9449.41359623831 ; 232233.41600679315 ; 2912409.443724525 ; 2.2151179697863076E7 ; 0.0
179 ; 9545.820992071609 ; 233321.73249580892 ; 2921858.8573207636 ; 2.238341311386987E7 ; 0.0
180 ; 9620.593340354775 ; 234405.90463380294 ; 2931404.6783128353 ; 2.2616734846365675E7 ; 0.0
181 ; 9558.175381557054 ; 235485.90766710596 ; 2941025.2716531903 ; 2.2851140750999477E7 ; 0.0
182 ; 9650.00696383382 ; 236561.7170121948 ; 2950583.4470347473 ; 2.308662665866658E7 ; 0.0
183 ; 9602.031220629155 ; 237633.3082536929 ; 2960233.453998581 ; 2.3323188375678774E7 ; 0.0
184 ; 9644.676261712702 ; 238700.65714244836 ; 2969835.4852192104 ; 2.356082168393247E7 ; 0.0
185 ; 9646.86289677997 ; 239763.7395936865 ; 2979480.161480923 ; 2.3799522341074917E7 ; 0.0
186 ; 9671.679980622584 ; 240822.53168523434 ; 2989127.024377703 ; 2.4039286080668602E7 ; 0.0
187 ; 9647.467147656049 ; 241877.0096558135 ; 2998798.704358326 ; 2.4280108612353835E7 ; 0.0
188 ; 9798.490551801306 ; 242927.14990340007 ; 3008446.171505982 ; 2.452198562200965E7 ; 0.0
189 ; 9824.448533496616 ; 243972.9289836474 ; 3018244.6620577835 ; 2.476491277191305E7 ; 0.0
190 ; 9818.611772232933 ; 245014.32360837088 ; 3028069.1105912803 ; 2.50088857008967E7 ; 0.0
191 ; 9648.365947532553 ; 246051.3106440913 ; 3037887.7223635134 ; 2.525390002450507E7 ; 0.0
192 ; 9893.990674547067 ; 247083.86711063515 ; 3047536.088311046 ; 2.549995133514916E7 ; 0.0
193 ; 9847.357888399338 ; 248111.97017978897 ; 3057430.078985593 ; 2.5747035202259798E7 ; 0.0
194 ; 9964.536562843185 ; 249135.59717400742 ; 3067277.436873992 ; 2.5995147172439586E7 ; 0.0
195 ; 9991.969602229703 ; 250154.72556517072 ; 3077241.973436835 ; 2.6244282769613594E7 ; 0.0
196 ; 10060.816780095496 ; 251169.33297339128 ; 3087233.9430390648 ; 2.6494437495178763E7 ; 0.0
197 ; 9975.715952033965 ; 252179.39716586756 ; 3097294.75981916 ; 2.6745606828152154E7 ; 0.0
198 ; 10035.614585062829 ; 253184.89605578227 ; 3107270.4757711943 ; 2.6997786225318022E7 ; 0.0
199 ; 10048.83501108683 ; 254185.8077012449 ; 3117306.0903562573 ; 2.7250971121373806E7 ; 0.0
200 ; 9921.062445225387 ; 255182.1103042756 ; 3127354.925367344 ; 2.750515692907505E7 ; 0.0
201 ; 10082.20554643643 ; 256173.78220982951 ; 3137275.9878125694 ; 2.776033903937933E7 ; 0.0
202 ; 10036.568689251893 ; 257160.80190486021 ; 3147358.1933590057 ; 2.8016512821589157E7 ; 0.0
203 ; 10219.283751642253 ; 258143.1480174201 ; 3157394.7620482575 ; 2.8273673623494018E7 ; 0.0
204 ; 10246.83255147756 ; 259120.79931579743 ; 3167614.0457999 ; 2.853181677151144E7 ; 0.0
205 ; 10195.710304353826 ; 260093.7347076879 ; 3177860.8783513773 ; 2.879093757082724E7 ; 0.0
206 ; 10288.018875799058 ; 261061.93323939948 ; 3188056.588655731 ; 2.9051031305534925E7 ; 0.0
207 ; 10507.777787725152 ; 262025.37409509005 ; 3198344.6075315303 ; 2.9312093238774326E7 ; 0.0
208 ; 10334.79792082516 ; 262984.03659603605 ; 3208852.3853192553 ; 2.9574118612869415E7 ; 0.0
209 ; 10260.841756203417 ; 263937.90019993053 ; 3219187.1832400803 ; 2.9837102649465453E7 ; 0.0
210 ; 10030.63632741428 ; 264886.9445002114 ; 3229448.0249962835 ; 3.0101040549665384E7 ; 0.0
211 ; 10447.899771560618 ; 265831.14922541636 ; 3239478.661323698 ; 3.0365927494165596E7 ; 0.0
212 ; 10379.674089594959 ; 266770.49423856544 ; 3249926.561095258 ; 3.0631758643391013E7 ; 0.0
