CSV File for the City 3 on Day 216
1 - Minute m 
2 - Power Consumed at minute m 
3 - Power Produced at minute m 
4 - Energy Consumed since the beginning of the day 
5 - Energy Produced since the beginning of the day 
6 - Energy Lost since the beginning of the day on lines starting from the city
 
0 ; 4009.212743289512 ; 35179.77969420443 ; 0.0 ; 0.0 ; 0.0
1 ; 4216.521922529546 ; 34605.86610394062 ; 4009.212743289512 ; 35179.77969420443 ; 0.0
2 ; 4890.3612643311135 ; 34084.053960760815 ; 8225.734665819058 ; 69785.64579814505 ; 0.0
3 ; 5201.990038913721 ; 33616.810165785435 ; 13116.095930150172 ; 103869.69975890586 ; 0.0
4 ; 5927.620290768625 ; 33206.474545363395 ; 18318.085969063894 ; 137486.5099246913 ; 0.0
5 ; 6206.995201479429 ; 32855.21116300276 ; 24245.706259832517 ; 170692.98447005468 ; 0.0
6 ; 6791.859252547524 ; 32564.958765179643 ; 30452.701461311946 ; 203548.19563305745 ; 0.0
7 ; 7202.080527973782 ; 32337.382612173737 ; 37244.56071385947 ; 236113.1543982371 ; 0.0
8 ; 7679.839449373809 ; 32173.830201891335 ; 44446.641241833255 ; 268450.5370104108 ; 0.0
9 ; 8219.142234336961 ; 32075.293448957014 ; 52126.48069120706 ; 300624.3672123021 ; 0.0
10 ; 8660.221636307702 ; 32042.379690939986 ; 60345.62292554403 ; 332699.66066125914 ; 0.0
11 ; 9057.278903466207 ; 32075.293448957014 ; 69005.84456185173 ; 364742.0403521991 ; 0.0
12 ; 9489.311226532936 ; 32173.830201891335 ; 78063.12346531794 ; 396817.33380115614 ; 0.0
13 ; 9821.26150393428 ; 32337.382612173737 ; 87552.43469185088 ; 428991.16400304745 ; 0.0
14 ; 10221.430201550847 ; 32564.9587651795 ; 97373.69619578516 ; 461328.5466152212 ; 0.0
15 ; 10661.513188456034 ; 32855.21116300276 ; 107595.126397336 ; 493893.5053804007 ; 0.0
16 ; 11052.603240821734 ; 33206.474545363395 ; 118256.63958579204 ; 526748.7165434035 ; 0.0
17 ; 11324.70111418391 ; 33616.810165785304 ; 129309.24282661377 ; 559955.1910887668 ; 0.0
18 ; 11786.68505930473 ; 34084.05396076094 ; 140633.94394079768 ; 593572.001254552 ; 0.0
19 ; 12377.717060592553 ; 34605.86610394049 ; 152420.6290001024 ; 627656.055215313 ; 0.0
20 ; 12630.831541189913 ; 35179.77969420456 ; 164798.34606069495 ; 662261.9213192535 ; 0.0
21 ; 13023.165719274346 ; 35803.24672363342 ; 177429.17760188488 ; 697441.7010134581 ; 0.0
22 ; 13375.212697129282 ; 36473.679940912894 ; 190452.34332115922 ; 733244.9477370915 ; 0.0
23 ; 13712.061522055916 ; 37188.48970571675 ; 203827.5560182885 ; 769718.6276780043 ; 0.0
24 ; 14348.242818447374 ; 37945.115371997264 ; 217539.61754034442 ; 806907.117383721 ; 0.0
25 ; 14454.133704281387 ; 38741.05111173078 ; 231887.8603587918 ; 844852.2327557183 ; 0.0
26 ; 14655.543161605181 ; 39573.866380619744 ; 246341.9940630732 ; 883593.283867449 ; 0.0
27 ; 15190.330500544587 ; 40441.221431916936 ; 260997.53722467838 ; 923167.1502480687 ; 0.0
28 ; 15493.058026890805 ; 41340.87841147176 ; 276187.86772522295 ; 963608.3716799857 ; 0.0
29 ; 15933.410847332441 ; 42270.70862910351 ; 291680.92575211375 ; 1004949.2500914574 ; 0.0
30 ; 16208.481069176054 ; 43228.69661322211 ; 307614.3365994462 ; 1047219.9587205609 ; 0.0
31 ; 16462.134614448856 ; 44212.94153164342 ; 323822.81766862224 ; 1090448.655333783 ; 0.0
32 ; 16808.813552638 ; 45221.65651442062 ; 340284.9522830711 ; 1134661.5968654265 ; 0.0
33 ; 17171.139479624468 ; 46253.16635447069 ; 357093.7658357091 ; 1179883.2533798472 ; 0.0
34 ; 17530.977581930732 ; 47305.90399658638 ; 374264.90531533357 ; 1226136.4197343178 ; 0.0
35 ; 17758.41925502033 ; 48378.40616052645 ; 391795.8828972643 ; 1273442.3237309041 ; 0.0
36 ; 17924.938493458027 ; 49469.30838283241 ; 409554.30215228465 ; 1321820.7298914306 ; 0.0
37 ; 18316.44528860902 ; 50577.339706872546 ; 427479.2406457427 ; 1371290.038274263 ; 0.0
38 ; 18582.545223628586 ; 51701.31720232055 ; 445795.6859343517 ; 1421867.3779811356 ; 0.0
39 ; 18847.477347669566 ; 52840.14045402929 ; 464378.2311579803 ; 1473568.6951834562 ; 0.0
40 ; 19306.654105691392 ; 53992.786125764906 ; 483225.7085056498 ; 1526408.8356374854 ; 0.0
41 ; 19265.956246875492 ; 55158.30267594793 ; 502532.36261134123 ; 1580401.6217632503 ; 0.0
42 ; 19605.239544725802 ; 56335.80527968536 ; 521798.31885821675 ; 1635559.9244391983 ; 0.0
43 ; 19825.15289202683 ; 57524.47099321537 ; 541403.5584029425 ; 1691895.7297188838 ; 0.0
44 ; 19996.624667188153 ; 58723.534182683914 ; 561228.7112949693 ; 1749420.2007120992 ; 0.0
45 ; 20331.141536126306 ; 59932.282228260716 ; 581225.3359621575 ; 1808143.7348947832 ; 0.0
46 ; 20503.156856565176 ; 61150.05150635935 ; 601556.4774982837 ; 1868076.017123044 ; 0.0
47 ; 20815.0132604137 ; 62376.22364665609 ; 622059.6343548489 ; 1929226.0686294034 ; 0.0
48 ; 20920.018624220193 ; 63610.22205623319 ; 642874.6476152625 ; 1991602.2922760595 ; 0.0
49 ; 21020.51179158318 ; 64851.50870016628 ; 663794.6662394827 ; 2055212.5143322926 ; 0.0
50 ; 21425.7411945485 ; 66099.581125903 ; 684815.1780310659 ; 2120064.023032459 ; 0.0
51 ; 21490.8691873249 ; 67353.96971761623 ; 706240.9192256144 ; 2186163.604158362 ; 0.0
52 ; 21647.4486738555 ; 68614.23516615131 ; 727731.7884129393 ; 2253517.573875978 ; 0.0
53 ; 22114.73398915154 ; 69879.9661400728 ; 749379.2370867948 ; 2322131.8090421297 ; 0.0
54 ; 22141.372388933367 ; 71150.77714352409 ; 771493.9710759463 ; 2392011.7751822025 ; 0.0
55 ; 22298.507968053273 ; 72426.30654705281 ; 793635.3434648797 ; 2463162.5523257265 ; 0.0
56 ; 22342.249524490868 ; 73706.2147781493 ; 815933.8514329329 ; 2535588.858872779 ; 0.0
57 ; 22516.568249438456 ; 74990.18265893498 ; 838276.1009574238 ; 2609295.0736509287 ; 0.0
58 ; 22762.419248402508 ; 76277.90987918619 ; 860792.6692068622 ; 2684285.2563098636 ; 0.0
59 ; 22776.22383882307 ; 77569.11359365331 ; 883555.0884552647 ; 2760563.16618905 ; 0.0
60 ; 22942.91652838315 ; 78863.52713340457 ; 906331.3122940877 ; 2838132.279782703 ; 0.0
61 ; 23411.979120539712 ; 80160.89882168418 ; 929274.2288224709 ; 2916995.806916108 ; 0.0
62 ; 23268.809493726734 ; 81460.9908855061 ; 952686.2079430106 ; 2997156.705737792 ; 0.0
63 ; 23499.24365605194 ; 82763.57845489972 ; 975955.0174367373 ; 3078617.696623298 ; 0.0
64 ; 23533.349815526846 ; 84068.44864238272 ; 999454.2610927892 ; 3161381.2750781975 ; 0.0
65 ; 23683.57499993911 ; 85375.39969585404 ; 1022987.6109083161 ; 3245449.7237205803 ; 0.0
66 ; 23736.92387328981 ; 86684.24021867174 ; 1046671.1859082552 ; 3330825.1234164345 ; 0.0
67 ; 23691.764652387083 ; 87994.78845121509 ; 1070408.109781545 ; 3417509.363635106 ; 0.0
68 ; 23886.2847278321 ; 89306.87160872133 ; 1094099.874433932 ; 3505504.1520863213 ; 0.0
69 ; 23899.237267976514 ; 90620.32527063931 ; 1117986.159161764 ; 3594811.0236950424 ; 0.0
70 ; 23956.871335194704 ; 91934.99281715874 ; 1141885.3964297406 ; 3685431.3489656816 ; 0.0
71 ; 24280.671631723042 ; 93250.72490895294 ; 1165842.2677649353 ; 3777366.3417828404 ; 0.0
72 ; 24102.739014788953 ; 94567.37900652253 ; 1190122.9393966582 ; 3870617.0666917935 ; 0.0
73 ; 24380.94825655244 ; 95884.81892584401 ; 1214225.6784114472 ; 3965184.445698316 ; 0.0
74 ; 24368.076148006203 ; 97202.9144273168 ; 1238606.6266679997 ; 4061069.2646241602 ; 0.0
75 ; 24411.22529133305 ; 98521.54083526769 ; 1262974.7028160058 ; 4158272.179051477 ; 0.0
76 ; 24276.969544471413 ; 99840.5786855104 ; 1287385.928107339 ; 4256793.719886744 ; 0.0
77 ; 24510.30230274838 ; 101159.91339867831 ; 1311662.8976518104 ; 4356634.298572254 ; 0.0
78 ; 24616.62928649834 ; 102479.43497724632 ; 1336173.1999545589 ; 4457794.211970933 ; 0.0
79 ; 24434.444060982987 ; 103799.03772433949 ; 1360789.8292410572 ; 4560273.646948179 ; 0.0
80 ; 24479.551010313 ; 105118.61998259104 ; 1385224.27330204 ; 4664072.684672519 ; 0.0
81 ; 24642.933656091485 ; 106438.0838914609 ; 1409703.824312353 ; 4769191.3046551095 ; 0.0
82 ; 24595.119838348477 ; 107757.33516156398 ; 1434346.7579684446 ; 4875629.38854657 ; 0.0
83 ; 24449.824730647815 ; 109076.28286467983 ; 1458941.8778067932 ; 4983386.723708134 ; 0.0
84 ; 24472.371099066462 ; 110394.83923822806 ; 1483391.702537441 ; 5092463.006572814 ; 0.0
85 ; 24380.51633139687 ; 111712.91950309787 ; 1507864.0736365074 ; 5202857.845811042 ; 0.0
86 ; 24621.543809394032 ; 113030.44169381174 ; 1532244.5899679041 ; 5314570.765314139 ; 0.0
87 ; 24490.053383486837 ; 114347.32650008936 ; 1556866.1337772983 ; 5427601.207007951 ; 0.0
88 ; 24530.913894314257 ; 115663.49711895444 ; 1581356.187160785 ; 5541948.53350804 ; 0.0
89 ; 24393.60326387707 ; 116978.87911659974 ; 1605887.1010550994 ; 5657612.030626995 ; 0.0
90 ; 24252.135573692507 ; 118293.40029928595 ; 1630280.7043189765 ; 5774590.909743594 ; 0.0
91 ; 24246.676687652474 ; 119606.9905926136 ; 1654532.839892669 ; 5892884.31004288 ; 0.0
92 ; 24176.831752950133 ; 120919.58192855699 ; 1678779.5165803216 ; 6012491.300635493 ; 0.0
93 ; 24276.980130648622 ; 122231.10813969957 ; 1702956.3483332717 ; 6133410.88256405 ; 0.0
94 ; 24064.154721181498 ; 123541.50486015469 ; 1727233.3284639204 ; 6255641.9907037495 ; 0.0
95 ; 23996.66870543114 ; 124850.70943269672 ; 1751297.483185102 ; 6379183.495563904 ; 0.0
96 ; 23933.59250498011 ; 126158.66082166391 ; 1775294.151890533 ; 6504034.204996601 ; 0.0
97 ; 23924.18697725126 ; 127465.29953122967 ; 1799227.744395513 ; 6630192.865818265 ; 0.0
98 ; 23764.71093343034 ; 128770.56752866931 ; 1823151.9313727643 ; 6757658.165349495 ; 0.0
99 ; 23653.436422147377 ; 130074.40817227824 ; 1846916.6423061946 ; 6886428.732878164 ; 0.0
100 ; 23427.21600304185 ; 131376.7661436243 ; 1870570.078728342 ; 7016503.141050443 ; 0.0
101 ; 23391.446704217076 ; 132677.5873838402 ; 1893997.294731384 ; 7147879.907194068 ; 0.0
102 ; 23282.63496238366 ; 133976.81903368418 ; 1917388.741435601 ; 7280557.494577908 ; 0.0
103 ; 23316.35068845202 ; 135274.40937711846 ; 1940671.3763979846 ; 7414534.313611592 ; 0.0
104 ; 23096.019214333708 ; 136570.30778817143 ; 1963987.7270864367 ; 7549808.722988711 ; 0.0
105 ; 22777.103255892765 ; 137864.46468086937 ; 1987083.7463007704 ; 7686379.030776883 ; 0.0
106 ; 22716.62163685558 ; 139156.8314620369 ; 2009860.8495566633 ; 7824243.495457752 ; 0.0
107 ; 22552.207282016872 ; 140447.36048678105 ; 2032577.471193519 ; 7963400.3269197885 ; 0.0
108 ; 22349.584318987112 ; 141736.00501648683 ; 2055129.678475536 ; 8103847.68740657 ; 0.0
109 ; 22345.75796462273 ; 143022.71917916473 ; 2077479.262794523 ; 8245583.692423057 ; 0.0
110 ; 21907.535317951715 ; 144307.45793200127 ; 2099825.0207591457 ; 8388606.411602221 ; 0.0
111 ; 21863.360470644428 ; 145590.1770259754 ; 2121732.5560770975 ; 8532913.869534222 ; 0.0
112 ; 21865.23814788935 ; 146870.83297241124 ; 2143595.9165477417 ; 8678504.046560198 ; 0.0
113 ; 21470.023154133825 ; 148149.38301134892 ; 2165461.154695631 ; 8825374.87953261 ; 0.0
114 ; 21394.948739815765 ; 149425.785081621 ; 2186931.177849765 ; 8973524.262543958 ; 0.0
115 ; 21091.69382715605 ; 150699.99779253223 ; 2208326.126589581 ; 9122950.047625579 ; 0.0
116 ; 20957.879927428927 ; 151971.9803970448 ; 2229417.820416737 ; 9273650.045418112 ; 0.0
117 ; 20828.78382794329 ; 153241.69276637986 ; 2250375.700344166 ; 9425622.025815157 ; 0.0
118 ; 20546.901360455686 ; 154509.0953659503 ; 2271204.484172109 ; 9578863.718581537 ; 0.0
119 ; 20499.806122353166 ; 155774.14923254776 ; 2291751.385532565 ; 9733372.813947488 ; 0.0
120 ; 20129.29234286787 ; 157036.81595270857 ; 2312251.1916549182 ; 9889146.963180035 ; 0.0
121 ; 19756.014716793517 ; 158297.05764219206 ; 2332380.483997786 ; 1.0046183779132744E7 ; 0.0
122 ; 19590.627914300057 ; 159554.83692650584 ; 2352136.4987145793 ; 1.0204480836774936E7 ; 0.0
123 ; 19394.291217343856 ; 160810.1169224185 ; 2371727.1266288795 ; 1.036403567370144E7 ; 0.0
124 ; 19187.74943503428 ; 162062.86122040392 ; 2391121.4178462233 ; 1.0524845790623859E7 ; 0.0
125 ; 18987.999114776896 ; 163313.03386796408 ; 2410309.1672812575 ; 1.0686908651844263E7 ; 0.0
126 ; 18575.623165886074 ; 164560.59935378187 ; 2429297.1663960344 ; 1.0850221685712228E7 ; 0.0
127 ; 18270.31840200556 ; 165805.52259265687 ; 2447872.7895619203 ; 1.1014782285066009E7 ; 0.0
128 ; 18067.028256569112 ; 167047.7689111819 ; 2466143.1079639257 ; 1.1180587807658665E7 ; 0.0
129 ; 17789.4274432398 ; 168287.3040341189 ; 2484210.1362204948 ; 1.1347635576569846E7 ; 0.0
130 ; 17577.897474685167 ; 169524.09407143615 ; 2501999.5636637346 ; 1.1515922880603965E7 ; 0.0
131 ; 17048.721161227095 ; 170758.10550597194 ; 2519577.46113842 ; 1.1685446974675402E7 ; 0.0
132 ; 16775.585528497704 ; 171989.3051816897 ; 2536626.182299647 ; 1.1856205080181373E7 ; 0.0
133 ; 16682.45162269535 ; 173217.66029249434 ; 2553401.7678281446 ; 1.2028194385363063E7 ; 0.0
134 ; 16428.888558249055 ; 174443.13837157894 ; 2570084.21945084 ; 1.2201412045655558E7 ; 0.0
135 ; 15890.239804658844 ; 175665.70728127504 ; 2586513.108009089 ; 1.2375855184027137E7 ; 0.0
136 ; 15624.8932751444 ; 176885.33520337933 ; 2602403.347813748 ; 1.2551520891308412E7 ; 0.0
137 ; 15410.308131250467 ; 178101.99062993214 ; 2618028.2410888923 ; 1.2728406226511791E7 ; 0.0
138 ; 15012.390067353263 ; 179315.6423544251 ; 2633438.549220143 ; 1.2906508217141723E7 ; 0.0
139 ; 14696.03151174862 ; 180526.25946341513 ; 2648450.9392874963 ; 1.3085823859496148E7 ; 0.0
140 ; 14241.388938879916 ; 181733.8113285247 ; 2663146.970799245 ; 1.3266350118959563E7 ; 0.0
141 ; 13970.029585404172 ; 182938.2675988084 ; 2677388.359738125 ; 1.3448083930288088E7 ; 0.0
142 ; 13435.459475226467 ; 184139.59819346768 ; 2691358.3893235293 ; 1.3631022197886895E7 ; 0.0
143 ; 13142.575082588688 ; 185337.77329489676 ; 2704793.8487987556 ; 1.3815161796080364E7 ; 0.0
144 ; 12723.312244457533 ; 186532.76334204213 ; 2717936.423881344 ; 1.400049956937526E7 ; 0.0
145 ; 12744.118222122506 ; 187724.53902406158 ; 2730659.7361258017 ; 1.4187032332717301E7 ; 0.0
146 ; 12655.317332155053 ; 188913.071274267 ; 2743403.8543479242 ; 1.4374756871741364E7 ; 0.0
147 ; 12621.566019813137 ; 190098.33126433773 ; 2756059.1716800793 ; 1.4563669943015631E7 ; 0.0
148 ; 12450.956329306107 ; 191280.29039879164 ; 2768680.7376998924 ; 1.4753768274279969E7 ; 0.0
149 ; 12321.602305899478 ; 192458.92030970045 ; 2781131.6940291985 ; 1.494504856467876E7 ; 0.0
150 ; 12017.604777829623 ; 193634.19285163863 ; 2793453.296335098 ; 1.513750748498846E7 ; 0.0
151 ; 12053.996845361306 ; 194806.0800968548 ; 2805470.9011129276 ; 1.5331141677840099E7 ; 0.0
152 ; 11847.719011685273 ; 195974.55433065427 ; 2817524.897958289 ; 1.5525947757936953E7 ; 0.0
153 ; 11857.962504378816 ; 197139.58804698364 ; 2829372.6169699742 ; 1.5721922312267607E7 ; 0.0
154 ; 11745.035045148687 ; 198301.15394420782 ; 2841230.579474353 ; 1.591906190031459E7 ; 0.0
155 ; 11634.696150436586 ; 199459.2249210702 ; 2852975.614519502 ; 1.6117363054258797E7 ; 0.0
156 ; 11561.70542256389 ; 200613.7740728283 ; 2864610.3106699386 ; 1.6316822279179867E7 ; 0.0
157 ; 11259.849405722369 ; 201764.77468755553 ; 2876172.0160925025 ; 1.6517436053252695E7 ; 0.0
158 ; 11146.305056708603 ; 202912.2002426032 ; 2887431.8654982247 ; 1.671920082794025E7 ; 0.0
159 ; 11021.479536537214 ; 204056.02440121412 ; 2898578.170554933 ; 1.6922113028182853E7 ; 0.0
160 ; 11055.69790498846 ; 205196.2210092816 ; 2909599.65009147 ; 1.7126169052584067E7 ; 0.0
161 ; 10786.064475189953 ; 206332.7640922472 ; 2920655.347996459 ; 1.7331365273593348E7 ; 0.0
162 ; 10598.438393065075 ; 207465.62785213106 ; 2931441.412471649 ; 1.7537698037685595E7 ; 0.0
163 ; 10475.903408727285 ; 208594.7866646889 ; 2942039.850864714 ; 1.7745163665537726E7 ; 0.0
164 ; 10525.936458048116 ; 209720.21507669002 ; 2952515.754273441 ; 1.7953758452202413E7 ; 0.0
165 ; 10328.792648991353 ; 210841.88780331137 ; 2963041.690731489 ; 1.8163478667279102E7 ; 0.0
166 ; 10084.970930034262 ; 211959.77972564203 ; 2973370.4833804807 ; 1.8374320555082414E7 ; 0.0
167 ; 10027.900323957767 ; 213073.8658882938 ; 2983455.454310515 ; 1.8586280334808055E7 ; 0.0
168 ; 9551.687671033462 ; 214184.1214971133 ; 2993483.3546344726 ; 1.879935420069635E7 ; 0.0
169 ; 9622.872336129962 ; 215290.5219169903 ; 3003035.0423055063 ; 1.9013538322193462E7 ; 0.0
170 ; 9501.56402877771 ; 216393.04266976015 ; 3012657.9146416364 ; 1.922882884411045E7 ; 0.0
171 ; 9199.555895799414 ; 217491.65943219385 ; 3022159.478670414 ; 1.9445221886780214E7 ; 0.0
172 ; 9169.518109054123 ; 218586.3480340742 ; 3031359.0345662134 ; 1.966271354621241E7 ; 0.0
173 ; 8964.66752915113 ; 219677.08445635287 ; 3040528.5526752677 ; 1.988129989424648E7 ; 0.0
174 ; 8918.808388497375 ; 220763.84482938584 ; 3049493.220204419 ; 2.0100976978702836E7 ; 0.0
175 ; 9187.991057758576 ; 221846.6054312437 ; 3058412.028592916 ; 2.032174082353222E7 ; 0.0
176 ; 9068.569270271977 ; 222925.34268609382 ; 3067600.019650675 ; 2.0543587428963464E7 ; 0.0
177 ; 9114.90186233403 ; 224000.03316265086 ; 3076668.5889209467 ; 2.0766512771649558E7 ; 0.0
178 ; 9088.777113615934 ; 225070.65357269376 ; 3085783.4907832807 ; 2.0990512804812208E7 ; 0.0
179 ; 9165.994241677849 ; 226137.18076964552 ; 3094872.2678968967 ; 2.12155834583849E7 ; 0.0
180 ; 9293.488850031255 ; 227199.5917472141 ; 3104038.2621385744 ; 2.1441720639154546E7 ; 0.0
181 ; 9285.221418476596 ; 228257.863638091 ; 3113331.7509886054 ; 2.166892023090176E7 ; 0.0
182 ; 9155.186066236485 ; 229311.97371270598 ; 3122616.972407082 ; 2.189717809453985E7 ; 0.0
183 ; 9349.93679014147 ; 230361.8993780355 ; 3131772.1584733184 ; 2.2126490068252556E7 ; 0.0
184 ; 9262.38691983273 ; 231407.61817646207 ; 3141122.0952634597 ; 2.235685196763059E7 ; 0.0
185 ; 9359.875288729594 ; 232449.1077846835 ; 3150384.4821832925 ; 2.258825958580705E7 ; 0.0
186 ; 9180.264553684787 ; 233486.34601266944 ; 3159744.357472022 ; 2.2820708693591736E7 ; 0.0
187 ; 9456.14616229175 ; 234519.31080266312 ; 3168924.622025707 ; 2.3054195039604407E7 ; 0.0
188 ; 9480.702380304387 ; 235547.98022822713 ; 3178380.7681879983 ; 2.328871435040707E7 ; 0.0
189 ; 9490.198966319162 ; 236572.33249333105 ; 3187861.4705683026 ; 2.3524262330635298E7 ; 0.0
190 ; 9485.947823242946 ; 237592.34593147968 ; 3197351.6695346218 ; 2.376083466312863E7 ; 0.0
191 ; 9568.393442702103 ; 238607.9990048796 ; 3206837.6173578645 ; 2.3998427009060107E7 ; 0.0
192 ; 9297.254843407041 ; 239619.27030364345 ; 3216406.0108005665 ; 2.4237035008064985E7 ; 0.0
193 ; 9503.528457848615 ; 240626.13854502942 ; 3225703.2656439734 ; 2.447665427836863E7 ; 0.0
194 ; 9702.338523335253 ; 241628.58257271588 ; 3235206.794101822 ; 2.471728041691366E7 ; 0.0
195 ; 9695.92297329162 ; 242626.5813561086 ; 3244909.1326251575 ; 2.4958908999486376E7 ; 0.0
196 ; 9664.23874265587 ; 243620.11398967972 ; 3254605.055598449 ; 2.5201535580842484E7 ; 0.0
197 ; 9744.534138297257 ; 244609.15969233788 ; 3264269.294341105 ; 2.5445155694832165E7 ; 0.0
198 ; 9839.186990521943 ; 245593.697806827 ; 3274013.8284794022 ; 2.5689764854524504E7 ; 0.0
199 ; 9865.549787886932 ; 246573.70779915375 ; 3283853.015469924 ; 2.5935358552331332E7 ; 0.0
200 ; 9876.00730083315 ; 247549.16925804268 ; 3293718.565257811 ; 2.6181932260130487E7 ; 0.0
201 ; 9720.075470395119 ; 248520.0618944162 ; 3303594.572558644 ; 2.642948142938853E7 ; 0.0
202 ; 9938.539907466506 ; 249486.36554090143 ; 3313314.648029039 ; 2.6678001491282947E7 ; 0.0
203 ; 9842.980902575093 ; 250448.06015135976 ; 3323253.187936506 ; 2.692748785682385E7 ; 0.0
204 ; 9851.369942442067 ; 251405.12580044076 ; 3333096.1688390807 ; 2.717793591697521E7 ; 0.0
205 ; 9809.527792018082 ; 252357.5426831579 ; 3342947.538781523 ; 2.7429341042775653E7 ; 0.0
206 ; 9919.821450023646 ; 253305.29111448632 ; 3352757.0665735407 ; 2.768169858545881E7 ; 0.0
207 ; 10074.832345131648 ; 254248.3515289808 ; 3362676.888023564 ; 2.7935003876573298E7 ; 0.0
208 ; 9995.415036211565 ; 255186.70448041445 ; 3372751.720368696 ; 2.8189252228102278E7 ; 0.0
209 ; 10088.20096295183 ; 256120.3306414358 ; 3382747.1354049076 ; 2.844443893258269E7 ; 0.0
210 ; 9972.357266435338 ; 257049.21080324517 ; 3392835.3363678595 ; 2.870055926322413E7 ; 0.0
211 ; 10257.15094133998 ; 257973.32587528837 ; 3402807.693634295 ; 2.8957608474027373E7 ; 0.0
212 ; 10168.511194534627 ; 258892.6568849677 ; 3413064.8445756347 ; 2.9215581799902663E7 ; 0.0
213 ; 10095.305802498471 ; 259807.18497736967 ; 3423233.3557701693 ; 2.947447445678763E7 ; 0.0
