CSV File for the City 2 on Day 173
1 - Minute m 
2 - Power Consumed at minute m 
3 - Power Produced at minute m 
4 - Energy Consumed since the beginning of the day 
5 - Energy Produced since the beginning of the day 
6 - Energy Lost since the beginning of the day on lines starting from the city
 
0 ; 6081.8128838463 ; 31906.706790061988 ; 0.0 ; 0.0 ; 0.0
1 ; 6324.449002377773 ; 31906.706790061988 ; 6081.8128838463 ; 31906.706790061988 ; 0.0
2 ; 6931.751302994762 ; 31906.706790061988 ; 12406.261886224072 ; 63813.413580123975 ; 0.0
3 ; 7271.781805022867 ; 31906.706790061988 ; 19338.013189218836 ; 95720.12037018596 ; 0.0
4 ; 7777.366950087804 ; 31906.706790061988 ; 26609.794994241704 ; 127626.82716024795 ; 0.0
5 ; 8193.960102513733 ; 31906.706790061988 ; 34387.161944329506 ; 159533.53395030994 ; 0.0
6 ; 8568.192187443508 ; 31906.706790061988 ; 42581.12204684324 ; 191440.24074037193 ; 0.0
7 ; 9090.539989859153 ; 31906.706790061988 ; 51149.31423428674 ; 223346.9475304339 ; 0.0
8 ; 9482.051693236113 ; 31906.706790061988 ; 60239.85422414589 ; 255253.6543204959 ; 0.0
9 ; 9794.864793143797 ; 31906.706790061988 ; 69721.90591738201 ; 287160.3611105579 ; 0.0
10 ; 10414.76522850928 ; 31906.706790061988 ; 79516.77071052582 ; 319067.06790061994 ; 0.0
11 ; 10711.799404669444 ; 31906.706790061988 ; 89931.5359390351 ; 350973.77469068195 ; 0.0
12 ; 11167.799200977246 ; 31906.706790061988 ; 100643.33534370453 ; 382880.48148074397 ; 0.0
13 ; 11627.754031652114 ; 31906.706790061988 ; 111811.13454468177 ; 414787.188270806 ; 0.0
14 ; 11963.718677909186 ; 31906.706790061988 ; 123438.88857633389 ; 446693.895060868 ; 0.0
15 ; 12328.037954539628 ; 31906.706790061988 ; 135402.60725424308 ; 478600.60185093 ; 0.0
16 ; 12731.383580941987 ; 31906.706790061988 ; 147730.6452087827 ; 510507.30864099204 ; 0.0
17 ; 13205.606817639016 ; 31906.706790061988 ; 160462.0287897247 ; 542414.015431054 ; 0.0
18 ; 13662.470260189664 ; 31906.706790061988 ; 173667.6356073637 ; 574320.7222211161 ; 0.0
19 ; 13843.14570010979 ; 31906.706790061988 ; 187330.1058675534 ; 606227.4290111781 ; 0.0
20 ; 14241.698657245377 ; 31906.706790061988 ; 201173.2515676632 ; 638134.1358012401 ; 0.0
21 ; 14674.36612148256 ; 31906.706790061988 ; 215414.95022490856 ; 670040.8425913021 ; 0.0
22 ; 15064.83161521835 ; 31906.706790061988 ; 230089.31634639113 ; 701947.5493813641 ; 0.0
23 ; 15252.575561456715 ; 31906.706790061988 ; 245154.14796160947 ; 733854.2561714262 ; 0.0
24 ; 15581.670860016106 ; 31906.706790061988 ; 260406.72352306618 ; 765760.9629614882 ; 0.0
25 ; 15995.922915686777 ; 31906.706790061988 ; 275988.3943830823 ; 797667.6697515502 ; 0.0
26 ; 16481.599336577656 ; 31906.706790061988 ; 291984.3172987691 ; 829574.3765416122 ; 0.0
27 ; 16673.638907701392 ; 31906.706790061988 ; 308465.9166353467 ; 861481.0833316742 ; 0.0
28 ; 16943.76404345641 ; 31906.706790061988 ; 325139.55554304813 ; 893387.7901217362 ; 0.0
29 ; 17339.71584910332 ; 31906.706790061988 ; 342083.31958650454 ; 925294.4969117983 ; 0.0
30 ; 17532.92195144715 ; 31906.706790061988 ; 359423.0354356079 ; 957201.2037018603 ; 0.0
31 ; 17878.430095815766 ; 31906.706790061988 ; 376955.95738705504 ; 989107.9104919223 ; 0.0
32 ; 18278.805337852762 ; 31906.706790061988 ; 394834.3874828708 ; 1021014.6172819843 ; 0.0
33 ; 18330.762331929174 ; 31906.706790061988 ; 413113.1928207235 ; 1052921.3240720462 ; 0.0
34 ; 18724.734048359987 ; 31906.706790061988 ; 431443.9551526527 ; 1084828.030862108 ; 0.0
35 ; 19159.957418434817 ; 31906.706790061988 ; 450168.68920101266 ; 1116734.73765217 ; 0.0
36 ; 19282.602669830536 ; 31906.706790061988 ; 469328.6466194475 ; 1148641.444442232 ; 0.0
37 ; 19403.264290259172 ; 31906.706790061988 ; 488611.24928927806 ; 1180548.1512322938 ; 0.0
38 ; 20015.899664935692 ; 31906.706790061988 ; 508014.5135795372 ; 1212454.8580223557 ; 0.0
39 ; 20200.369217858275 ; 31906.706790061988 ; 528030.4132444729 ; 1244361.5648124176 ; 0.0
40 ; 20395.534581100306 ; 31906.706790061988 ; 548230.7824623312 ; 1276268.2716024795 ; 0.0
41 ; 20584.477962810324 ; 31906.706790061988 ; 568626.3170434316 ; 1308174.9783925414 ; 0.0
42 ; 20763.026538409802 ; 31906.706790061988 ; 589210.7950062419 ; 1340081.6851826033 ; 0.0
43 ; 21070.6946355639 ; 31906.706790061988 ; 609973.8215446516 ; 1371988.3919726652 ; 0.0
44 ; 21180.97215113674 ; 31906.706790061988 ; 631044.5161802155 ; 1403895.098762727 ; 0.0
45 ; 21452.30189622869 ; 31906.706790061988 ; 652225.4883313522 ; 1435801.805552789 ; 0.0
46 ; 21633.701046815433 ; 31906.706790061988 ; 673677.7902275809 ; 1467708.512342851 ; 0.0
47 ; 21813.267665080344 ; 31906.706790061988 ; 695311.4912743964 ; 1499615.2191329128 ; 0.0
48 ; 21975.540189529973 ; 31906.706790061988 ; 717124.7589394768 ; 1531521.9259229747 ; 0.0
49 ; 22293.020902566615 ; 31906.706790061988 ; 739100.2991290068 ; 1563428.6327130366 ; 0.0
50 ; 22644.15094638602 ; 31906.706790061988 ; 761393.3200315734 ; 1595335.3395030985 ; 0.0
51 ; 22440.471205693146 ; 31906.706790061988 ; 784037.4709779595 ; 1627242.0462931604 ; 0.0
52 ; 22772.841670389163 ; 31906.706790061988 ; 806477.9421836527 ; 1659148.7530832223 ; 0.0
53 ; 22887.34637297567 ; 31906.706790061988 ; 829250.7838540418 ; 1691055.4598732842 ; 0.0
54 ; 23100.06853828628 ; 31906.706790061988 ; 852138.1302270174 ; 1722962.166663346 ; 0.0
55 ; 23340.624475463654 ; 31906.706790061988 ; 875238.1987653037 ; 1754868.873453408 ; 0.0
56 ; 23380.854262745645 ; 31906.706790061988 ; 898578.8232407673 ; 1786775.58024347 ; 0.0
57 ; 23590.314043307782 ; 31906.706790061988 ; 921959.6775035129 ; 1818682.2870335318 ; 0.0
58 ; 23824.021768871637 ; 31906.706790061988 ; 945549.9915468207 ; 1850588.9938235937 ; 0.0
59 ; 23901.74273698875 ; 31906.706790061988 ; 969374.0133156923 ; 1882495.7006136556 ; 0.0
60 ; 24198.26184714353 ; 31906.706790061988 ; 993275.756052681 ; 1914402.4074037175 ; 0.0
61 ; 24179.740464715494 ; 31906.706790061988 ; 1017474.0178998245 ; 1946309.1141937794 ; 0.0
62 ; 24265.54365362942 ; 31906.706790061988 ; 1041653.7583645401 ; 1978215.8209838413 ; 0.0
63 ; 24441.02235581037 ; 31906.706790061988 ; 1065919.3020181695 ; 2010122.5277739032 ; 0.0
64 ; 24560.006444990504 ; 31906.706790061988 ; 1090360.3243739798 ; 2042029.2345639651 ; 0.0
65 ; 24554.297800366086 ; 31906.706790061988 ; 1114920.3308189702 ; 2073935.941354027 ; 0.0
66 ; 24624.62267658059 ; 31906.706790061988 ; 1139474.6286193363 ; 2105842.648144089 ; 0.0
67 ; 24863.247033922144 ; 31906.706790061988 ; 1164099.251295917 ; 2137749.3549341513 ; 0.0
68 ; 24768.337400583852 ; 31906.706790061988 ; 1188962.4983298392 ; 2169656.0617242134 ; 0.0
69 ; 24906.843827019908 ; 31906.706790061988 ; 1213730.835730423 ; 2201562.7685142756 ; 0.0
70 ; 24997.9172338124 ; 31906.706790061988 ; 1238637.679557443 ; 2233469.4753043377 ; 0.0
71 ; 25023.87290784256 ; 31906.706790061988 ; 1263635.5967912553 ; 2265376.1820944 ; 0.0
72 ; 25070.471116647226 ; 31906.706790061988 ; 1288659.4696990978 ; 2297282.888884462 ; 0.0
73 ; 25235.665989410423 ; 31906.706790061988 ; 1313729.940815745 ; 2329189.595674524 ; 0.0
74 ; 25236.408772611187 ; 31906.706790061988 ; 1338965.6068051553 ; 2361096.302464586 ; 0.0
75 ; 25299.315869091315 ; 31906.706790061988 ; 1364202.0155777666 ; 2393003.0092546484 ; 0.0
76 ; 25379.044692718177 ; 31906.706790061988 ; 1389501.331446858 ; 2424909.7160447105 ; 0.0
77 ; 25290.040387343855 ; 31906.706790061988 ; 1414880.376139576 ; 2456816.4228347726 ; 0.0
78 ; 25260.919407263194 ; 31906.706790061988 ; 1440170.41652692 ; 2488723.1296248347 ; 0.0
79 ; 25440.062042654554 ; 31906.706790061988 ; 1465431.335934183 ; 2520629.836414897 ; 0.0
80 ; 25509.940043752544 ; 31906.706790061988 ; 1490871.3979768376 ; 2552536.543204959 ; 0.0
81 ; 25446.81121664976 ; 31906.706790061988 ; 1516381.3380205901 ; 2584443.249995021 ; 0.0
82 ; 25352.383656934107 ; 31906.706790061988 ; 1541828.14923724 ; 2616349.9567850833 ; 0.0
83 ; 25577.469552494327 ; 31906.706790061988 ; 1567180.532894174 ; 2648256.6635751454 ; 0.0
84 ; 25346.528348602038 ; 31906.706790061988 ; 1592758.0024466685 ; 2680163.3703652075 ; 0.0
85 ; 25350.594922453613 ; 31906.706790061988 ; 1618104.5307952706 ; 2712070.0771552697 ; 0.0
86 ; 25353.722718643643 ; 31906.706790061988 ; 1643455.1257177242 ; 2743976.783945332 ; 0.0
87 ; 25439.437864285603 ; 31906.706790061988 ; 1668808.848436368 ; 2775883.490735394 ; 0.0
88 ; 25360.901740401867 ; 31906.706790061988 ; 1694248.2863006536 ; 2807790.197525456 ; 0.0
89 ; 25402.469369370854 ; 31906.706790061988 ; 1719609.1880410556 ; 2839696.904315518 ; 0.0
90 ; 25233.672709238173 ; 31906.706790061988 ; 1745011.6574104265 ; 2871603.6111055803 ; 0.0
91 ; 25142.180014495752 ; 31906.706790061988 ; 1770245.3301196648 ; 2903510.3178956425 ; 0.0
92 ; 25161.68182422696 ; 31906.706790061988 ; 1795387.5101341605 ; 2935417.0246857046 ; 0.0
93 ; 24964.05698732234 ; 31906.706790061988 ; 1820549.1919583874 ; 2967323.7314757667 ; 0.0
94 ; 25021.831607670658 ; 31906.706790061988 ; 1845513.2489457098 ; 2999230.438265829 ; 0.0
95 ; 25025.998329082133 ; 31906.706790061988 ; 1870535.0805533805 ; 3031137.145055891 ; 0.0
96 ; 24832.89824125688 ; 31906.706790061988 ; 1895561.0788824626 ; 3063043.851845953 ; 0.0
97 ; 25004.50409703694 ; 31906.706790061988 ; 1920393.9771237194 ; 3094950.5586360153 ; 0.0
98 ; 24688.292401436196 ; 31906.706790061988 ; 1945398.4812207564 ; 3126857.2654260774 ; 0.0
99 ; 24727.02932812006 ; 31906.706790061988 ; 1970086.7736221927 ; 3158763.9722161395 ; 0.0
100 ; 24483.81889046763 ; 31906.706790061988 ; 1994813.8029503128 ; 3190670.6790062017 ; 0.0
101 ; 24484.444352377224 ; 31906.706790061988 ; 2019297.6218407804 ; 3222577.385796264 ; 0.0
102 ; 24399.769878907384 ; 31906.706790061988 ; 2043782.0661931576 ; 3254484.092586326 ; 0.0
103 ; 23998.691331308626 ; 31906.706790061988 ; 2068181.836072065 ; 3286390.799376388 ; 0.0
104 ; 23969.231019742507 ; 31906.706790061988 ; 2092180.5274033735 ; 3318297.50616645 ; 0.0
105 ; 24002.58877449654 ; 31906.706790061988 ; 2116149.758423116 ; 3350204.2129565123 ; 0.0
106 ; 23696.945099248176 ; 31906.706790061988 ; 2140152.3471976127 ; 3382110.9197465745 ; 0.0
107 ; 23614.642306534908 ; 31906.706790061988 ; 2163849.292296861 ; 3414017.6265366366 ; 0.0
108 ; 23403.006688251622 ; 31906.706790061988 ; 2187463.934603396 ; 3445924.3333266987 ; 0.0
109 ; 23394.181872864385 ; 31906.706790061988 ; 2210866.9412916475 ; 3477831.040116761 ; 0.0
110 ; 23222.284274229693 ; 31906.706790061988 ; 2234261.1231645118 ; 3509737.746906823 ; 0.0
111 ; 22828.862257195775 ; 31906.706790061988 ; 2257483.4074387415 ; 3541644.453696885 ; 0.0
112 ; 22872.70128002847 ; 31906.706790061988 ; 2280312.269695937 ; 3573551.1604869473 ; 0.0
113 ; 22758.421683820547 ; 31906.706790061988 ; 2303184.9709759657 ; 3605457.8672770094 ; 0.0
114 ; 22344.460161120238 ; 31906.706790061988 ; 2325943.392659786 ; 3637364.5740670715 ; 0.0
115 ; 22439.166815541546 ; 31906.706790061988 ; 2348287.8528209063 ; 3669271.2808571337 ; 0.0
116 ; 22165.256551660008 ; 31906.706790061988 ; 2370727.019636448 ; 3701177.987647196 ; 0.0
117 ; 21907.703298114706 ; 31906.706790061988 ; 2392892.276188108 ; 3733084.694437258 ; 0.0
118 ; 21713.48461773438 ; 31906.706790061988 ; 2414799.979486223 ; 3764991.40122732 ; 0.0
119 ; 21459.908336552562 ; 31906.706790061988 ; 2436513.464103957 ; 3796898.108017382 ; 0.0
120 ; 21365.04782959433 ; 31906.706790061988 ; 2457973.37244051 ; 3828804.8148074443 ; 0.0
121 ; 20973.68233273701 ; 31906.706790061988 ; 2479338.4202701044 ; 3860711.5215975065 ; 0.0
122 ; 20875.516433751498 ; 31906.706790061988 ; 2500312.1026028413 ; 3892618.2283875686 ; 0.0
123 ; 20541.94476427767 ; 31906.706790061988 ; 2521187.619036593 ; 3924524.9351776307 ; 0.0
124 ; 20316.057910187217 ; 31906.706790061988 ; 2541729.563800871 ; 3956431.641967693 ; 0.0
125 ; 20224.666407123663 ; 31906.706790061988 ; 2562045.621711058 ; 3988338.348757755 ; 0.0
126 ; 19640.03923300117 ; 31906.706790061988 ; 2582270.2881181818 ; 4020245.055547817 ; 0.0
127 ; 19671.155956153125 ; 31906.706790061988 ; 2601910.3273511827 ; 4052151.7623378793 ; 0.0
128 ; 19260.37800369025 ; 31906.706790061988 ; 2621581.483307336 ; 4084058.4691279414 ; 0.0
129 ; 19064.22946135652 ; 31906.706790061988 ; 2640841.8613110264 ; 4115965.1759180035 ; 0.0
130 ; 18651.964342072424 ; 31906.706790061988 ; 2659906.090772383 ; 4147871.8827080657 ; 0.0
131 ; 18657.861165602444 ; 31906.706790061988 ; 2678558.0551144555 ; 4179778.589498128 ; 0.0
132 ; 18033.52934882423 ; 31906.706790061988 ; 2697215.9162800577 ; 4211685.2962881895 ; 0.0
133 ; 18111.34671927595 ; 31906.706790061988 ; 2715249.445628882 ; 4243592.003078251 ; 0.0
134 ; 17519.654251631488 ; 31906.706790061988 ; 2733360.792348158 ; 4275498.709868313 ; 0.0
135 ; 17326.723165930758 ; 31906.706790061988 ; 2750880.4465997894 ; 4307405.4166583745 ; 0.0
136 ; 17082.69025286809 ; 31906.706790061988 ; 2768207.16976572 ; 4339312.123448436 ; 0.0
137 ; 16849.19819895208 ; 31906.706790061988 ; 2785289.860018588 ; 4371218.830238498 ; 0.0
138 ; 16336.943671536468 ; 31906.706790061988 ; 2802139.0582175404 ; 4403125.5370285595 ; 0.0
139 ; 16145.287502240832 ; 31906.706790061988 ; 2818476.001889077 ; 4435032.243818621 ; 0.0
140 ; 15844.566028873713 ; 31906.706790061988 ; 2834621.289391318 ; 4466938.950608683 ; 0.0
141 ; 15334.00344248149 ; 31906.706790061988 ; 2850465.855420192 ; 4498845.6573987445 ; 0.0
142 ; 15028.493160071457 ; 31906.706790061988 ; 2865799.8588626734 ; 4530752.364188806 ; 0.0
143 ; 14659.418083666502 ; 31906.706790061988 ; 2880828.3520227447 ; 4562659.070978868 ; 0.0
144 ; 14344.423629698766 ; 31906.706790061988 ; 2895487.770106411 ; 4594565.7777689295 ; 0.0
145 ; 14083.961802789017 ; 31906.706790061988 ; 2909832.19373611 ; 4626472.484558991 ; 0.0
146 ; 14077.548843688783 ; 31906.706790061988 ; 2923916.155538899 ; 4658379.191349053 ; 0.0
147 ; 14139.908595732093 ; 31906.706790061988 ; 2937993.7043825877 ; 4690285.8981391145 ; 0.0
148 ; 13936.214180692903 ; 31906.706790061988 ; 2952133.6129783196 ; 4722192.604929176 ; 0.0
149 ; 13950.01330417504 ; 31906.706790061988 ; 2966069.8271590127 ; 4754099.311719238 ; 0.0
150 ; 13731.118625994437 ; 31906.706790061988 ; 2980019.8404631875 ; 4786006.0185092995 ; 0.0
151 ; 13661.600802255705 ; 31906.706790061988 ; 2993750.959089182 ; 4817912.725299361 ; 0.0
152 ; 13499.492763306367 ; 31906.706790061988 ; 3007412.5598914376 ; 4849819.432089423 ; 0.0
153 ; 13376.762375021088 ; 31906.706790061988 ; 3020912.052654744 ; 4881726.1388794845 ; 0.0
154 ; 13266.590978976961 ; 31906.706790061988 ; 3034288.815029765 ; 4913632.845669546 ; 0.0
155 ; 13154.231486986415 ; 31906.706790061988 ; 3047555.406008742 ; 4945539.552459608 ; 0.0
156 ; 12779.263288927383 ; 31906.706790061988 ; 3060709.637495728 ; 4977446.2592496695 ; 0.0
157 ; 12918.60786662385 ; 31906.706790061988 ; 3073488.9007846555 ; 5009352.966039731 ; 0.0
158 ; 12760.319919061756 ; 31906.706790061988 ; 3086407.5086512794 ; 5041259.672829793 ; 0.0
159 ; 12830.766516403326 ; 31906.706790061988 ; 3099167.828570341 ; 5073166.3796198545 ; 0.0
160 ; 12346.746038072633 ; 31906.706790061988 ; 3111998.5950867445 ; 5105073.086409916 ; 0.0
161 ; 12406.469629283965 ; 31906.706790061988 ; 3124345.3411248173 ; 5136979.793199978 ; 0.0
162 ; 12388.222429470028 ; 31906.706790061988 ; 3136751.8107541013 ; 5168886.4999900395 ; 0.0
163 ; 12078.128458285726 ; 31906.706790061988 ; 3149140.0331835714 ; 5200793.206780101 ; 0.0
164 ; 12097.561424917532 ; 31906.706790061988 ; 3161218.161641857 ; 5232699.913570163 ; 0.0
165 ; 11845.451406074159 ; 31906.706790061988 ; 3173315.7230667747 ; 5264606.6203602245 ; 0.0
166 ; 11719.08629580069 ; 31906.706790061988 ; 3185161.174472849 ; 5296513.327150286 ; 0.0
167 ; 11661.481098333315 ; 31906.706790061988 ; 3196880.2607686496 ; 5328420.033940348 ; 0.0
168 ; 11541.545102475895 ; 31906.706790061988 ; 3208541.741866983 ; 5360326.7407304095 ; 0.0
169 ; 11323.929103942966 ; 31906.706790061988 ; 3220083.2869694587 ; 5392233.447520471 ; 0.0
170 ; 11236.837731893582 ; 31906.706790061988 ; 3231407.2160734017 ; 5424140.154310533 ; 0.0
171 ; 10974.44180615374 ; 31906.706790061988 ; 3242644.0538052954 ; 5456046.8611005945 ; 0.0
172 ; 10782.074105303498 ; 31906.706790061988 ; 3253618.4956114492 ; 5487953.567890656 ; 0.0
173 ; 10966.082777880714 ; 31906.706790061988 ; 3264400.5697167525 ; 5519860.274680718 ; 0.0
174 ; 10756.47136915231 ; 31906.706790061988 ; 3275366.652494633 ; 5551766.9814707795 ; 0.0
175 ; 10697.257707941715 ; 31906.706790061988 ; 3286123.1238637855 ; 5583673.688260841 ; 0.0
176 ; 10924.538773277643 ; 31906.706790061988 ; 3296820.3815717273 ; 5615580.395050903 ; 0.0
177 ; 10722.457105024896 ; 31906.706790061988 ; 3307744.920345005 ; 5647487.1018409645 ; 0.0
178 ; 11058.135050396835 ; 31906.706790061988 ; 3318467.37745003 ; 5679393.808631026 ; 0.0
179 ; 10873.597669294808 ; 31906.706790061988 ; 3329525.5125004267 ; 5711300.515421088 ; 0.0
180 ; 11141.623565799275 ; 31906.706790061988 ; 3340399.110169722 ; 5743207.2222111495 ; 0.0
181 ; 10841.947381218422 ; 31906.706790061988 ; 3351540.733735521 ; 5775113.929001211 ; 0.0
182 ; 11096.729653478393 ; 31906.706790061988 ; 3362382.6811167393 ; 5807020.635791273 ; 0.0
183 ; 11078.343374385291 ; 31906.706790061988 ; 3373479.410770218 ; 5838927.3425813345 ; 0.0
184 ; 10924.031622386541 ; 31906.706790061988 ; 3384557.7541446034 ; 5870834.049371396 ; 0.0
185 ; 11201.433832694833 ; 31906.706790061988 ; 3395481.78576699 ; 5902740.756161458 ; 0.0
186 ; 11143.054892344288 ; 31906.706790061988 ; 3406683.2195996847 ; 5934647.4629515195 ; 0.0
187 ; 11111.004008736985 ; 31906.706790061988 ; 3417826.274492029 ; 5966554.169741581 ; 0.0
188 ; 11366.581906886466 ; 31906.706790061988 ; 3428937.278500766 ; 5998460.876531643 ; 0.0
189 ; 11242.236333182584 ; 31906.706790061988 ; 3440303.8604076523 ; 6030367.5833217045 ; 0.0
190 ; 11191.685576658641 ; 31906.706790061988 ; 3451546.096740835 ; 6062274.290111766 ; 0.0
191 ; 11036.828869846759 ; 31906.706790061988 ; 3462737.7823174936 ; 6094180.996901828 ; 0.0
192 ; 11299.191523459674 ; 31906.706790061988 ; 3473774.61118734 ; 6126087.7036918895 ; 0.0
193 ; 11328.921124755634 ; 31906.706790061988 ; 3485073.8027108 ; 6157994.410481951 ; 0.0
194 ; 11339.10429779199 ; 31906.706790061988 ; 3496402.7238355554 ; 6189901.117272013 ; 0.0
195 ; 11183.805646135657 ; 31906.706790061988 ; 3507741.8281333474 ; 6221807.824062075 ; 0.0
196 ; 11382.338887537275 ; 31906.706790061988 ; 3518925.633779483 ; 6253714.530852136 ; 0.0
197 ; 11520.135411552406 ; 31906.706790061988 ; 3530307.9726670203 ; 6285621.237642198 ; 0.0
198 ; 11423.492093082761 ; 31906.706790061988 ; 3541828.108078573 ; 6317527.94443226 ; 0.0
199 ; 11533.357205405959 ; 31906.706790061988 ; 3553251.600171656 ; 6349434.651222321 ; 0.0
200 ; 11469.494623527975 ; 31906.706790061988 ; 3564784.9573770617 ; 6381341.358012383 ; 0.0
201 ; 11488.137374758233 ; 31906.706790061988 ; 3576254.4520005896 ; 6413248.064802445 ; 0.0
202 ; 11569.695444600804 ; 31906.706790061988 ; 3587742.589375348 ; 6445154.771592506 ; 0.0
203 ; 11586.217079706308 ; 31906.706790061988 ; 3599312.2848199485 ; 6477061.478382568 ; 0.0
204 ; 11744.152475020312 ; 31906.706790061988 ; 3610898.501899655 ; 6508968.18517263 ; 0.0
205 ; 11545.24711801326 ; 31906.706790061988 ; 3622642.6543746754 ; 6540874.891962691 ; 0.0
206 ; 11729.508125527547 ; 31906.706790061988 ; 3634187.901492689 ; 6572781.598752753 ; 0.0
207 ; 11843.307001840452 ; 31906.706790061988 ; 3645917.4096182166 ; 6604688.305542815 ; 0.0
208 ; 11804.316648424829 ; 31906.706790061988 ; 3657760.716620057 ; 6636595.012332876 ; 0.0
209 ; 11791.31407516701 ; 31906.706790061988 ; 3669565.0332684815 ; 6668501.719122938 ; 0.0
210 ; 11763.789752633815 ; 31906.706790061988 ; 3681356.3473436483 ; 6700408.425913 ; 0.0
211 ; 11807.677982786268 ; 31906.706790061988 ; 3693120.137096282 ; 6732315.132703061 ; 0.0
212 ; 11901.713245668132 ; 31906.706790061988 ; 3704927.8150790683 ; 6764221.839493123 ; 0.0
213 ; 11878.586597980615 ; 31906.706790061988 ; 3716829.5283247363 ; 6796128.546283185 ; 0.0
