CSV File for the City 3 on Day 204
1 - Minute m 
2 - Power Consumed at minute m 
3 - Power Produced at minute m 
4 - Energy Consumed since the beginning of the day 
5 - Energy Produced since the beginning of the day 
6 - Energy Lost since the beginning of the day on lines starting from the city
 
0 ; 3977.8373735045448 ; 54242.48426572559 ; 0.0 ; 0.0 ; 0.0
1 ; 4521.987879771265 ; 53821.42949253045 ; 3977.8373735045448 ; 54242.48426572559 ; 0.0
2 ; 4900.853800676335 ; 53441.79731917138 ; 8499.82525327581 ; 108063.91375825604 ; 0.0
3 ; 5412.215572259456 ; 53104.505313566966 ; 13400.679053952146 ; 161505.71107742743 ; 0.0
4 ; 5763.70644024175 ; 52810.390654333496 ; 18812.8946262116 ; 214610.2163909944 ; 0.0
5 ; 6311.637764832643 ; 52560.200745203154 ; 24576.60106645335 ; 267420.6070453279 ; 0.0
6 ; 6726.972064399072 ; 52354.58448078264 ; 30888.23883128599 ; 319980.8077905311 ; 0.0
7 ; 7140.791110695533 ; 52194.08438900764 ; 37615.210895685064 ; 372335.3922713137 ; 0.0
8 ; 7672.184621731176 ; 52079.12986406137 ; 44756.0020063806 ; 424529.47666032135 ; 0.0
9 ; 7984.842591560883 ; 52010.031681975444 ; 52428.18662811178 ; 476608.6065243827 ; 0.0
10 ; 8424.996011266561 ; 51986.97796006961 ; 60413.02921967266 ; 528618.6382063582 ; 0.0
11 ; 8722.174252168725 ; 52010.031681975444 ; 68838.02523093922 ; 580605.6161664278 ; 0.0
12 ; 9240.537403379461 ; 52079.12986406137 ; 77560.19948310795 ; 632615.6478484033 ; 0.0
13 ; 9792.52981455359 ; 52194.08438900764 ; 86800.73688648742 ; 684694.7777124647 ; 0.0
14 ; 9986.03211454574 ; 52354.58448078255 ; 96593.26670104101 ; 736888.8621014723 ; 0.0
15 ; 10284.033912710345 ; 52560.200745203154 ; 106579.29881558675 ; 789243.4465822548 ; 0.0
16 ; 10811.906730594199 ; 52810.390654333496 ; 116863.3327282971 ; 841803.647327458 ; 0.0
17 ; 11385.774079093624 ; 53104.50531356687 ; 127675.2394588913 ; 894614.0379817915 ; 0.0
18 ; 11838.242864426838 ; 53441.797319171455 ; 139061.01353798492 ; 947718.5432953584 ; 0.0
19 ; 12063.602118849101 ; 53821.42949253036 ; 150899.25640241176 ; 1001160.3406145299 ; 0.0
20 ; 12349.03186623106 ; 54242.48426572567 ; 162962.85852126087 ; 1054981.7701070602 ; 0.0
21 ; 12625.272583672202 ; 54703.97349126962 ; 175311.89038749193 ; 1109224.2543727858 ; 0.0
22 ; 13020.946664624213 ; 55204.84845584085 ; 187937.16297116413 ; 1163928.2278640554 ; 0.0
23 ; 13441.09498347623 ; 55744.00989253804 ; 200958.10963578834 ; 1219133.0763198964 ; 0.0
24 ; 13714.81013268317 ; 56320.31780680765 ; 214399.20461926458 ; 1274877.0862124343 ; 0.0
25 ; 14027.86089428516 ; 56932.60095609194 ; 228114.01475194775 ; 1331197.404019242 ; 0.0
26 ; 14362.57820035059 ; 57579.665850627745 ; 242141.87564623292 ; 1388130.0049753338 ; 0.0
27 ; 14765.066061378644 ; 58260.30517109831 ; 256504.45384658352 ; 1445709.6708259615 ; 0.0
28 ; 15264.137562739405 ; 58973.30552660276 ; 271269.5199079622 ; 1503969.9759970598 ; 0.0
29 ; 15441.016029576376 ; 59717.45450254661 ; 286533.6574707016 ; 1562943.2815236626 ; 0.0
30 ; 15648.821172375949 ; 60491.54697173723 ; 301974.673500278 ; 1622660.7360262093 ; 0.0
31 ; 16151.917905294466 ; 61294.390662663725 ; 317623.4946726539 ; 1683152.2829979465 ; 0.0
32 ; 16272.404837675165 ; 62124.81099636048 ; 333775.41257794836 ; 1744446.67366061 ; 0.0
33 ; 16702.799311782812 ; 62981.655217345055 ; 350047.8174156235 ; 1806571.4846569705 ; 0.0
34 ; 16909.283727795428 ; 63863.795854995544 ; 366750.61672740633 ; 1869553.1398743156 ; 0.0
35 ; 17243.340531476766 ; 64770.1335596272 ; 383659.90045520174 ; 1933416.935729311 ; 0.0
36 ; 17399.84596031911 ; 65699.59936276772 ; 400903.2409866785 ; 1998187.0692889383 ; 0.0
37 ; 17695.391346259432 ; 66651.1564140781 ; 418303.0869469976 ; 2063886.668651706 ; 0.0
38 ; 18018.544879863886 ; 67623.801248408 ; 435998.47829325707 ; 2130537.825065784 ; 0.0
39 ; 18272.151250005194 ; 68616.56463597536 ; 454017.023173121 ; 2198161.626314192 ; 0.0
40 ; 18486.14618366045 ; 69628.51206697208 ; 472289.17442312615 ; 2266778.1909501674 ; 0.0
41 ; 18780.655482110797 ; 70658.74391933043 ; 490775.3206067866 ; 2336406.7030171393 ; 0.0
42 ; 18996.985745207036 ; 71706.39535520451 ; 509555.9760888974 ; 2407065.44693647 ; 0.0
43 ; 19108.504188915667 ; 72770.63598816199 ; 528552.9618341044 ; 2478771.8422916746 ; 0.0
44 ; 19524.899722316302 ; 73850.66935932018 ; 547661.4660230201 ; 2551542.4782798365 ; 0.0
45 ; 19609.667915163303 ; 74945.73225685349 ; 567186.3657453364 ; 2625393.147639157 ; 0.0
46 ; 19757.11639825433 ; 76055.09390955154 ; 586796.0336604997 ; 2700338.8798960103 ; 0.0
47 ; 20030.489112984622 ; 77178.05508150697 ; 606553.150058754 ; 2776393.9738055617 ; 0.0
48 ; 20088.63303783388 ; 78313.94709161422 ; 626583.6391717386 ; 2853572.028887069 ; 0.0
49 ; 20503.70874278707 ; 79462.13077840481 ; 646672.2722095725 ; 2931885.975978683 ; 0.0
50 ; 20644.116350876764 ; 80621.99542784851 ; 667175.9809523595 ; 3011348.106757088 ; 0.0
51 ; 20825.093483602042 ; 81792.95767912529 ; 687820.0973032363 ; 3091970.1021849364 ; 0.0
52 ; 20958.97871212342 ; 82974.46042101734 ; 708645.1907868383 ; 3173763.059864062 ; 0.0
53 ; 21152.849867632933 ; 84165.97168947112 ; 729604.1694989618 ; 3256737.5202850793 ; 0.0
54 ; 21325.797074000253 ; 85366.98357503045 ; 750757.0193665947 ; 3340903.4919745503 ; 0.0
55 ; 21564.539744321784 ; 86577.0111472196 ; 772082.816440595 ; 3426270.4755495805 ; 0.0
56 ; 21488.35627678141 ; 87795.5914015479 ; 793647.3561849168 ; 3512847.4866968 ; 0.0
57 ; 21699.427998119125 ; 89022.28223358633 ; 815135.7124616982 ; 3600643.0780983483 ; 0.0
58 ; 22115.567453300253 ; 90256.66144352681 ; 836835.1404598174 ; 3689665.360331935 ; 0.0
59 ; 22077.428535777704 ; 91498.32577374367 ; 858950.7079131176 ; 3779922.0217754617 ; 0.0
60 ; 22068.36646706986 ; 92746.88998112474 ; 881028.1364488953 ; 3871420.347549205 ; 0.0
61 ; 22377.56344845285 ; 94001.98594530881 ; 903096.5029159652 ; 3964167.2375303297 ; 0.0
62 ; 22353.203136513977 ; 95263.26181344122 ; 925474.066364418 ; 4058169.223475639 ; 0.0
63 ; 22584.153713329684 ; 96530.38118162341 ; 947827.269500932 ; 4153432.48528908 ; 0.0
64 ; 22825.010617624015 ; 97803.02231287974 ; 970411.4232142617 ; 4249962.866470704 ; 0.0
65 ; 22795.315799743224 ; 99080.87739117871 ; 993236.4338318857 ; 4347765.888783583 ; 0.0
66 ; 22893.957309840385 ; 100363.65181081533 ; 1016031.7496316289 ; 4446846.7661747625 ; 0.0
67 ; 23084.580102702716 ; 101651.06350028634 ; 1038925.7069414692 ; 4547210.417985578 ; 0.0
68 ; 23092.37702582164 ; 102942.84227965267 ; 1062010.287044172 ; 4648861.481485864 ; 0.0
69 ; 23262.272959612164 ; 104238.72925028099 ; 1085102.6640699937 ; 4751804.323765517 ; 0.0
70 ; 23146.84526209704 ; 105538.47621578914 ; 1108364.9370296057 ; 4856043.053015798 ; 0.0
71 ; 23499.84606124368 ; 106841.84513296922 ; 1131511.7822917027 ; 4961581.529231587 ; 0.0
72 ; 23310.171260450374 ; 108148.6075914393 ; 1155011.6283529464 ; 5068423.374364557 ; 0.0
73 ; 23479.94218448266 ; 109458.5443207637 ; 1178321.7996133966 ; 5176571.981955996 ; 0.0
74 ; 23382.337596699883 ; 110771.444723786 ; 1201801.7417978793 ; 5286030.52627676 ; 0.0
75 ; 23517.721201156604 ; 112087.10643493329 ; 1225184.0793945792 ; 5396801.971000546 ; 0.0
76 ; 23508.6612297409 ; 113405.33490227493 ; 1248701.8005957357 ; 5508889.077435479 ; 0.0
77 ; 23577.977157002224 ; 114725.94299214684 ; 1272210.4618254765 ; 5622294.412337754 ; 0.0
78 ; 23650.439539293155 ; 116048.75061519016 ; 1295788.4389824788 ; 5737020.355329901 ; 0.0
79 ; 23640.70515978417 ; 117373.58437268843 ; 1319438.8785217719 ; 5853069.105945091 ; 0.0
80 ; 23908.563517717772 ; 118700.27722213314 ; 1343079.583681556 ; 5970442.690317779 ; 0.0
81 ; 23690.100035825235 ; 120028.66816098563 ; 1366988.1471992738 ; 6089142.967539912 ; 0.0
82 ; 23696.473856065633 ; 121358.60192765186 ; 1390678.247235099 ; 6209171.635700897 ; 0.0
83 ; 23683.09494910868 ; 122689.92871872826 ; 1414374.7210911647 ; 6330530.237628549 ; 0.0
84 ; 23672.110735240774 ; 124022.50392162082 ; 1438057.8160402735 ; 6453220.166347277 ; 0.0
85 ; 23674.31590483223 ; 125356.1878616863 ; 1461729.9267755144 ; 6577242.670268898 ; 0.0
86 ; 23883.020394684674 ; 126690.84556308242 ; 1485404.2426803466 ; 6702598.8581305845 ; 0.0
87 ; 23690.42475845688 ; 128026.34652256046 ; 1509287.2630750313 ; 6829289.7036936665 ; 0.0
88 ; 23543.748563980756 ; 129362.5644954703 ; 1532977.6878334882 ; 6957316.050216227 ; 0.0
89 ; 23520.119339099423 ; 130699.37729328973 ; 1556521.436397469 ; 7086678.614711697 ; 0.0
90 ; 23382.069834322676 ; 132036.66659202488 ; 1580041.5557365683 ; 7217377.992004987 ; 0.0
91 ; 23493.441998877537 ; 133374.31775086676 ; 1603423.625570891 ; 7349414.658597012 ; 0.0
92 ; 23375.82355508448 ; 134712.2196405224 ; 1626917.0675697685 ; 7482788.976347879 ; 0.0
93 ; 23341.227296140096 ; 136050.2644806711 ; 1650292.891124853 ; 7617501.195988401 ; 0.0
94 ; 22976.266047807425 ; 137388.34768602846 ; 1673634.118420993 ; 7753551.460469072 ; 0.0
95 ; 23319.148634865127 ; 138726.36772053098 ; 1696610.3844688004 ; 7890939.8081551 ; 0.0
96 ; 23220.14040067845 ; 140064.2259591804 ; 1719929.5331036656 ; 8029666.175875631 ; 0.0
97 ; 23029.597720651487 ; 141401.8265571152 ; 1743149.673504344 ; 8169730.401834812 ; 0.0
98 ; 22971.808370311966 ; 142739.07632550117 ; 1766179.2712249954 ; 8311132.228391927 ; 0.0
99 ; 22849.2382827395 ; 144075.8846138566 ; 1789151.0795953074 ; 8453871.304717427 ; 0.0
100 ; 22835.4126011141 ; 145412.16319845055 ; 1812000.3178780468 ; 8597947.189331284 ; 0.0
101 ; 22721.34323478635 ; 146747.82617643435 ; 1834835.7304791608 ; 8743359.352529734 ; 0.0
102 ; 22552.870893172894 ; 148082.78986538417 ; 1857557.073713947 ; 8890107.17870617 ; 0.0
103 ; 22455.456714770655 ; 149416.9727079547 ; 1880109.94460712 ; 9038189.968571553 ; 0.0
104 ; 22294.266728990777 ; 150750.295181359 ; 1902565.4013218908 ; 9187606.941279508 ; 0.0
105 ; 22205.49568001486 ; 152082.6797114074 ; 1924859.6680508815 ; 9338357.236460866 ; 0.0
106 ; 22192.622659371293 ; 153414.05059085425 ; 1947065.1637308963 ; 9490439.916172273 ; 0.0
107 ; 21932.4089722007 ; 154744.3339018153 ; 1969257.7863902675 ; 9643853.966763128 ; 0.0
108 ; 21693.55399368824 ; 156073.45744203264 ; 1991190.1953624683 ; 9798598.300664943 ; 0.0
109 ; 21711.531241665427 ; 157401.350654778 ; 2012883.7493561564 ; 9954671.758106975 ; 0.0
110 ; 21412.054773461354 ; 158727.9445621962 ; 2034595.2805978218 ; 1.0112073108761752E7 ; 0.0
111 ; 21240.483656873726 ; 160053.17170190284 ; 2056007.335371283 ; 1.0270801053323949E7 ; 0.0
112 ; 21149.73103248098 ; 161376.96606666094 ; 2077247.8190281568 ; 1.0430854225025851E7 ; 0.0
113 ; 21073.31042752906 ; 162699.26304697164 ; 2098397.5500606378 ; 1.0592231191092512E7 ; 0.0
114 ; 20678.006373587607 ; 164019.9993764229 ; 2119470.860488167 ; 1.0754930454139484E7 ; 0.0
115 ; 20623.628466328126 ; 165339.1130796504 ; 2140148.8668617546 ; 1.0918950453515908E7 ; 0.0
116 ; 20312.176851191605 ; 166656.5434227717 ; 2160772.4953280827 ; 1.1084289566595558E7 ; 0.0
117 ; 20236.996674059486 ; 167972.2308661644 ; 2181084.6721792743 ; 1.125094611001833E7 ; 0.0
118 ; 19779.271167190887 ; 169286.11701946412 ; 2201321.6688533337 ; 1.1418918340884494E7 ; 0.0
119 ; 19892.101241377608 ; 170598.14459866838 ; 2221100.9400205244 ; 1.1588204457903957E7 ; 0.0
120 ; 19540.4263510594 ; 171908.25738523554 ; 2240993.041261902 ; 1.1758802602502625E7 ; 0.0
121 ; 19388.715810037138 ; 173216.40018707665 ; 2260533.4676129613 ; 1.193071085988786E7 ; 0.0
122 ; 19026.93404514175 ; 174522.51880134293 ; 2279922.1834229985 ; 1.2103927260074938E7 ; 0.0
123 ; 18720.090579350413 ; 175826.55997891675 ; 2298949.11746814 ; 1.227844977887628E7 ; 0.0
124 ; 18626.98626501062 ; 177128.47139051987 ; 2317669.2080474906 ; 1.2454276338855198E7 ; 0.0
125 ; 18562.895495022498 ; 178428.20159435694 ; 2336296.1943125012 ; 1.2631404810245717E7 ; 0.0
126 ; 18255.74283578627 ; 179725.7000052171 ; 2354859.089807524 ; 1.2809833011840073E7 ; 0.0
127 ; 17943.372240097648 ; 181020.91686496025 ; 2373114.83264331 ; 1.298955871184529E7 ; 0.0
128 ; 17509.955773188798 ; 182313.80321431984 ; 2391058.204883408 ; 1.317057962871025E7 ; 0.0
129 ; 17310.22650141477 ; 183604.31086595633 ; 2408568.1606565965 ; 1.3352893431924568E7 ; 0.0
130 ; 17098.936055893526 ; 184892.39237869935 ; 2425878.387158011 ; 1.3536497742790524E7 ; 0.0
131 ; 16782.70791133207 ; 186178.00103292125 ; 2442977.3232139046 ; 1.3721390135169223E7 ; 0.0
132 ; 16450.28729069985 ; 187461.0908069861 ; 2459760.031125237 ; 1.3907568136202144E7 ; 0.0
133 ; 16169.335321250439 ; 188741.61635472206 ; 2476210.3184159365 ; 1.4095029227009129E7 ; 0.0
134 ; 16003.349207363286 ; 190019.53298386768 ; 2492379.653737187 ; 1.4283770843363851E7 ; 0.0
135 ; 15681.979301034999 ; 191294.79663544596 ; 2508383.00294455 ; 1.4473790376347719E7 ; 0.0
136 ; 15336.214633292562 ; 192567.36386402076 ; 2524064.982245585 ; 1.4665085172983164E7 ; 0.0
137 ; 14903.979256023222 ; 193837.1918187945 ; 2539401.1968788775 ; 1.4857652536847185E7 ; 0.0
138 ; 14616.123428566973 ; 195104.23822550697 ; 2554305.1761349007 ; 1.505148972866598E7 ; 0.0
139 ; 14104.68294463877 ; 196368.46136909816 ; 2568921.2995634675 ; 1.5246593966891486E7 ; 0.0
140 ; 13961.496243982765 ; 197629.82007709815 ; 2583025.982508106 ; 1.5442962428260583E7 ; 0.0
141 ; 13676.155726685367 ; 198888.27370371146 ; 2596987.4787520887 ; 1.5640592248337682E7 ; 0.0
142 ; 13500.232369917789 ; 200143.78211456316 ; 2610663.634478774 ; 1.5839480522041393E7 ; 0.0
143 ; 12845.767773907663 ; 201396.30567207636 ; 2624163.866848692 ; 1.6039624304155957E7 ; 0.0
144 ; 12475.927363597353 ; 202645.805221452 ; 2637009.6346225995 ; 1.6241020609828033E7 ; 0.0
145 ; 12573.000419462378 ; 203892.24207722387 ; 2649485.561986197 ; 1.6443666415049484E7 ; 0.0
146 ; 12510.998753280168 ; 205135.5780103619 ; 2662058.5624056594 ; 1.6647558657126708E7 ; 0.0
147 ; 12414.079200164031 ; 206375.77523590048 ; 2674569.5611589397 ; 1.685269423513707E7 ; 0.0
148 ; 12381.335640221623 ; 207612.7964010669 ; 2686983.6403591037 ; 1.705907001037297E7 ; 0.0
149 ; 12272.114430988617 ; 208846.6045738882 ; 2699364.9759993255 ; 1.726668280677404E7 ; 0.0
150 ; 11861.023910567417 ; 210077.1632322546 ; 2711637.090430314 ; 1.7475529411347926E7 ; 0.0
151 ; 11831.095489616426 ; 211304.4362534207 ; 2723498.114340882 ; 1.768560657458018E7 ; 0.0
152 ; 11755.292551819599 ; 212528.38790392358 ; 2735329.2098304983 ; 1.7896911010833602E7 ; 0.0
153 ; 11681.562634214797 ; 213748.98282990055 ; 2747084.502382318 ; 1.8109439398737527E7 ; 0.0
154 ; 11578.03656922735 ; 214966.18604778853 ; 2758766.065016533 ; 1.832318838156743E7 ; 0.0
155 ; 11437.209367081181 ; 216179.96293538978 ; 2770344.1015857602 ; 1.853815456761522E7 ; 0.0
156 ; 11354.569306819245 ; 217390.27922328634 ; 2781781.3109528413 ; 1.8754334530550607E7 ; 0.0
157 ; 11099.895842805838 ; 218597.10098658974 ; 2793135.8802596605 ; 1.8971724809773892E7 ; 0.0
158 ; 11057.812763008316 ; 219800.39463701088 ; 2804235.7761024665 ; 1.919032191076048E7 ; 0.0
159 ; 11076.257641685088 ; 221000.12691523743 ; 2815293.588865475 ; 1.9410122305397492E7 ; 0.0
160 ; 10929.773837146397 ; 222196.26488360405 ; 2826369.84650716 ; 1.963112243231273E7 ; 0.0
161 ; 10845.038516861678 ; 223388.77591904494 ; 2837299.6203443063 ; 1.9853318697196335E7 ; 0.0
162 ; 10481.556712733476 ; 224577.6277063161 ; 2848144.658861168 ; 2.007670747311538E7 ; 0.0
163 ; 10427.15372911852 ; 225762.78823147572 ; 2858626.215573902 ; 2.0301285100821696E7 ; 0.0
164 ; 10487.360164617083 ; 226944.2257756129 ; 2869053.36930302 ; 2.0527047889053173E7 ; 0.0
165 ; 10187.366660039412 ; 228121.90890881364 ; 2879540.7294676374 ; 2.0753992114828788E7 ; 0.0
166 ; 10036.216218040456 ; 229295.8064843549 ; 2889728.096127677 ; 2.0982114023737602E7 ; 0.0
167 ; 9980.192239422762 ; 230465.88763311724 ; 2899764.312345717 ; 2.121140983022196E7 ; 0.0
168 ; 9633.57390100244 ; 231632.12175820704 ; 2909744.50458514 ; 2.1441875717855077E7 ; 0.0
169 ; 9767.477520286791 ; 232794.47852978003 ; 2919378.078486142 ; 2.1673507839613285E7 ; 0.0
170 ; 9287.253463251438 ; 233952.9278800579 ; 2929145.556006429 ; 2.1906302318143066E7 ; 0.0
171 ; 9331.216031388196 ; 235107.43999853032 ; 2938432.8094696803 ; 2.2140255246023122E7 ; 0.0
172 ; 9165.095097660347 ; 236257.98532733516 ; 2947764.0255010687 ; 2.2375362686021652E7 ; 0.0
173 ; 8990.501190082225 ; 237404.53455680917 ; 2956929.1205987292 ; 2.261162067134899E7 ; 0.0
174 ; 8939.902640767083 ; 238547.05862120324 ; 2965919.6217888114 ; 2.28490252059058E7 ; 0.0
175 ; 9088.50856332258 ; 239685.52869455525 ; 2974859.5244295783 ; 2.3087572264527E7 ; 0.0
176 ; 9305.395938655736 ; 240819.9161867145 ; 2983948.032992901 ; 2.3327257793221556E7 ; 0.0
177 ; 9117.260467740296 ; 241950.19273951152 ; 2993253.4289315566 ; 2.356807770940827E7 ; 0.0
178 ; 9151.880943359336 ; 243076.33022306842 ; 3002370.689399297 ; 2.381002790214778E7 ; 0.0
179 ; 9327.008246655421 ; 244198.30073224343 ; 3011522.570342656 ; 2.405310423237085E7 ; 0.0
180 ; 9028.31803482908 ; 245316.07658320453 ; 3020849.578589312 ; 2.4297302533103094E7 ; 0.0
181 ; 9225.413979910445 ; 246429.63031012827 ; 3029877.896624141 ; 2.4542618609686296E7 ; 0.0
182 ; 9266.723347484 ; 247538.93466201783 ; 3039103.310604051 ; 2.4789048239996426E7 ; 0.0
183 ; 9322.770946768565 ; 248643.9625996361 ; 3048370.0339515354 ; 2.5036587174658444E7 ; 0.0
184 ; 9180.554436269646 ; 249744.68729255 ; 3057692.804898304 ; 2.528523113725808E7 ; 0.0
185 ; 9395.823061807641 ; 250841.0821162809 ; 3066873.3593345736 ; 2.553497582455063E7 ; 0.0
186 ; 9403.797086812297 ; 251933.12064955823 ; 3076269.182396381 ; 2.578581690666691E7 ; 0.0
187 ; 9464.501737248134 ; 253020.77667167122 ; 3085672.9794831933 ; 2.6037750027316466E7 ; 0.0
188 ; 9589.236943306325 ; 254104.02415991644 ; 3095137.4812204414 ; 2.6290770803988136E7 ; 0.0
189 ; 9562.929308555082 ; 255182.83728713632 ; 3104726.718163748 ; 2.6544874828148052E7 ; 0.0
190 ; 9562.069359462137 ; 256257.1904193462 ; 3114289.647472303 ; 2.6800057665435188E7 ; 0.0
191 ; 9725.258637173529 ; 257327.05811344646 ; 3123851.716831765 ; 2.7056314855854534E7 ; 0.0
192 ; 9466.170514853991 ; 258392.41511501596 ; 3133576.9754689387 ; 2.7313641913967982E7 ; 0.0
193 ; 9617.239354965464 ; 259453.236356185 ; 3143043.145983793 ; 2.7572034329083E7 ; 0.0
194 ; 9678.855731914226 ; 260509.49695358376 ; 3152660.385338758 ; 2.7831487565439183E7 ; 0.0
195 ; 9756.812747701744 ; 261561.17220636425 ; 3162339.2410706724 ; 2.8091997062392768E7 ; 0.0
196 ; 9819.91948955045 ; 262608.2375942928 ; 3172096.053818374 ; 2.8353558234599132E7 ; 0.0
197 ; 9766.137857232537 ; 263650.66877591057 ; 3181915.9733079243 ; 2.8616166472193424E7 ; 0.0
198 ; 9717.966699611901 ; 264688.4415867595 ; 3191682.111165157 ; 2.8879817140969336E7 ; 0.0
199 ; 9694.785900275416 ; 265721.5320376722 ; 3201400.077864769 ; 2.9144505582556095E7 ; 0.0
200 ; 9995.572513428546 ; 266749.9163131218 ; 3211094.863765044 ; 2.9410227114593767E7 ; 0.0
201 ; 9932.926260324912 ; 267773.5707696317 ; 3221090.4362784727 ; 2.967697703090689E7 ; 0.0
202 ; 9968.715547176507 ; 268792.47193424136 ; 3231023.362538798 ; 2.994475060167652E7 ; 0.0
203 ; 9917.394167119608 ; 269806.5965030273 ; 3240992.0780859743 ; 3.021354307361076E7 ; 0.0
204 ; 10034.757820078908 ; 270815.9213396767 ; 3250909.472253094 ; 3.0483349670113787E7 ; 0.0
205 ; 9924.69922532772 ; 271820.4234741121 ; 3260944.230073173 ; 3.0754165591453463E7 ; 0.0
206 ; 10005.27833347712 ; 272820.0801011655 ; 3270868.929298501 ; 3.1025986014927574E7 ; 0.0
207 ; 10132.583725414617 ; 273814.86857929925 ; 3280874.207631978 ; 3.129880609502874E7 ; 0.0
208 ; 10026.239071516888 ; 274804.76642937405 ; 3291006.791357393 ; 3.1572620963608038E7 ; 0.0
209 ; 10017.478513228112 ; 275789.7513334598 ; 3301033.0304289097 ; 3.1847425730037414E7 ; 0.0
210 ; 10211.698032333155 ; 276769.8011336905 ; 3311050.508942138 ; 3.2123215481370874E7 ; 0.0
211 ; 10169.856836658206 ; 277744.8938311593 ; 3321262.206974471 ; 3.2399985282504566E7 ; 0.0
212 ; 10206.217222080606 ; 278715.0075848541 ; 3331432.0638111294 ; 3.2677730176335726E7 ; 0.0
