CSV File for the City 1 on Day 253
1 - Minute m 
2 - Power Consumed at minute m 
3 - Power Produced at minute m 
4 - Energy Consumed since the beginning of the day 
5 - Energy Produced since the beginning of the day 
6 - Energy Lost since the beginning of the day on lines starting from the city
 
0 ; 6483.367837965329 ; 2525.2843132255475 ; 0.0 ; 0.0 ; 0.0
1 ; 7016.405808943329 ; 2525.2843132255475 ; 6483.367837965329 ; 2525.2843132255475 ; 238.00000000000003
2 ; 7572.658884268289 ; 2525.2843132255475 ; 13499.77364690866 ; 5050.568626451095 ; 476.00000000000006
3 ; 8183.133218290012 ; 2525.2843132255475 ; 21072.43253117695 ; 7575.852939676643 ; 714.0000000000001
4 ; 8578.477092394547 ; 2525.2843132255475 ; 29255.56574946696 ; 10101.13725290219 ; 952.0000000000001
5 ; 9194.26276623458 ; 2525.2843132255475 ; 37834.042841861505 ; 12626.421566127738 ; 1190.0000000000002
6 ; 9693.314498742138 ; 2525.2843132255475 ; 47028.30560809608 ; 15151.705879353285 ; 1428.0000000000002
7 ; 10208.309368261136 ; 2525.2843132255475 ; 56721.62010683822 ; 17676.990192578833 ; 1666.0000000000002
8 ; 10595.215931066128 ; 2525.2843132255475 ; 66929.92947509936 ; 20202.27450580438 ; 1904.0000000000002
9 ; 11218.964781206856 ; 2525.2843132255475 ; 77525.14540616548 ; 22727.558819029928 ; 2142.0000000000005
10 ; 11707.909270153159 ; 2525.2843132255475 ; 88744.11018737234 ; 25252.843132255475 ; 2380.0000000000005
11 ; 12276.435739853805 ; 2525.2843132255475 ; 100452.0194575255 ; 27778.127445481023 ; 2618.0000000000005
12 ; 12688.593816170747 ; 2525.2843132255475 ; 112728.45519737931 ; 30303.41175870657 ; 2856.0000000000005
13 ; 13005.594979572503 ; 2525.2843132255475 ; 125417.04901355006 ; 32828.69607193212 ; 3094.0000000000005
14 ; 13668.019960654623 ; 2525.2843132255475 ; 138422.64399312256 ; 35353.98038515767 ; 3332.0000000000005
15 ; 14223.834000632463 ; 2525.2843132255475 ; 152090.66395377717 ; 37879.264698383224 ; 3570.0000000000005
16 ; 14609.527115471526 ; 2525.2843132255475 ; 166314.49795440963 ; 40404.549011608775 ; 3808.0000000000005
17 ; 14888.051925787653 ; 2525.2843132255475 ; 180924.02506988114 ; 42929.833324834326 ; 4046.0000000000005
18 ; 15539.800228528715 ; 2525.2843132255475 ; 195812.0769956688 ; 45455.11763805988 ; 4284.000000000001
19 ; 15814.626373068353 ; 2525.2843132255475 ; 211351.8772241975 ; 47980.40195128543 ; 4522.000000000001
20 ; 16388.224783779217 ; 2525.2843132255475 ; 227166.50359726584 ; 50505.68626451098 ; 4760.000000000001
21 ; 16625.47709249978 ; 2525.2843132255475 ; 243554.72838104505 ; 53030.97057773653 ; 4998.000000000001
22 ; 17119.644081135855 ; 2525.2843132255475 ; 260180.20547354483 ; 55556.25489096208 ; 5236.000000000001
23 ; 17686.370696958933 ; 2525.2843132255475 ; 277299.8495546807 ; 58081.53920418763 ; 5474.000000000001
24 ; 18021.927016399466 ; 2525.2843132255475 ; 294986.2202516396 ; 60606.823517413184 ; 5712.000000000001
25 ; 18362.641976533927 ; 2525.2843132255475 ; 313008.14726803906 ; 63132.107830638735 ; 5950.000000000001
26 ; 18694.99572320624 ; 2525.2843132255475 ; 331370.789244573 ; 65657.39214386429 ; 6188.000000000001
27 ; 18968.502168579227 ; 2525.2843132255475 ; 350065.78496777924 ; 68182.67645708984 ; 6426.000000000001
28 ; 19617.243162761468 ; 2525.2843132255475 ; 369034.28713635844 ; 70707.96077031539 ; 6664.000000000001
29 ; 19805.509181181405 ; 2525.2843132255475 ; 388651.5302991199 ; 73233.24508354094 ; 6902.000000000001
30 ; 20239.55158296816 ; 2525.2843132255475 ; 408457.0394803013 ; 75758.52939676649 ; 7140.000000000001
31 ; 20626.701203656405 ; 2525.2843132255475 ; 428696.5910632695 ; 78283.81370999204 ; 7378.000000000001
32 ; 21201.608013140052 ; 2525.2843132255475 ; 449323.29226692586 ; 80809.0980232176 ; 7616.000000000001
33 ; 21189.179739744948 ; 2525.2843132255475 ; 470524.9002800659 ; 83334.38233644314 ; 7854.000000000001
34 ; 21710.244102066667 ; 2525.2843132255475 ; 491714.0800198108 ; 85859.6666496687 ; 8092.000000000001
35 ; 21928.98954450829 ; 2525.2843132255475 ; 513424.3241218775 ; 88384.95096289425 ; 8330.000000000002
36 ; 22304.697680613277 ; 2525.2843132255475 ; 535353.3136663858 ; 90910.2352761198 ; 8568.000000000002
37 ; 22634.157072903334 ; 2525.2843132255475 ; 557658.0113469991 ; 93435.51958934535 ; 8806.000000000002
38 ; 22802.986567800977 ; 2525.2843132255475 ; 580292.1684199024 ; 95960.8039025709 ; 9044.000000000002
39 ; 23214.850460912283 ; 2525.2843132255475 ; 603095.1549877034 ; 98486.08821579645 ; 9282.000000000002
40 ; 23590.759438517198 ; 2525.2843132255475 ; 626310.0054486158 ; 101011.372529022 ; 9520.000000000002
41 ; 23701.312893088507 ; 2525.2843132255475 ; 649900.7648871329 ; 103536.65684224755 ; 9758.000000000002
42 ; 23868.0867912722 ; 2525.2843132255475 ; 673602.0777802215 ; 106061.9411554731 ; 9996.000000000002
43 ; 24331.849588068126 ; 2525.2843132255475 ; 697470.1645714936 ; 108587.22546869866 ; 10234.000000000002
44 ; 24700.79917767567 ; 2525.2843132255475 ; 721802.0141595617 ; 111112.50978192421 ; 10472.000000000002
45 ; 24788.571905172197 ; 2525.2843132255475 ; 746502.8133372373 ; 113637.79409514976 ; 10710.000000000002
46 ; 25091.066854645243 ; 2525.2843132255475 ; 771291.3852424095 ; 116163.07840837531 ; 10948.000000000002
47 ; 25317.45194674184 ; 2525.2843132255475 ; 796382.4520970548 ; 118688.36272160086 ; 11186.000000000002
48 ; 25700.185053159075 ; 2525.2843132255475 ; 821699.9040437966 ; 121213.64703482641 ; 11424.000000000002
49 ; 26005.741236661226 ; 2525.2843132255475 ; 847400.0890969557 ; 123738.93134805196 ; 11662.000000000002
50 ; 26018.06600679565 ; 2525.2843132255475 ; 873405.8303336169 ; 126264.21566127751 ; 11900.000000000002
51 ; 26292.27660770192 ; 2525.2843132255475 ; 899423.8963404126 ; 128789.49997450307 ; 12138.000000000002
52 ; 26446.67051852233 ; 2525.2843132255475 ; 925716.1729481145 ; 131314.7842877286 ; 12376.000000000002
53 ; 26772.547267933525 ; 2525.2843132255475 ; 952162.8434666368 ; 133840.06860095414 ; 12614.000000000002
54 ; 26875.309588940872 ; 2525.2843132255475 ; 978935.3907345703 ; 136365.35291417968 ; 12852.000000000002
55 ; 27074.63469625695 ; 2525.2843132255475 ; 1005810.7003235111 ; 138890.6372274052 ; 13090.000000000002
56 ; 27457.055725875573 ; 2525.2843132255475 ; 1032885.3350197681 ; 141415.92154063075 ; 13328.000000000002
57 ; 27336.479850800784 ; 2525.2843132255475 ; 1060342.3907456438 ; 143941.20585385629 ; 13566.000000000002
58 ; 27596.351896781216 ; 2525.2843132255475 ; 1087678.8705964445 ; 146466.49016708182 ; 13804.000000000002
59 ; 27677.861806840578 ; 2525.2843132255475 ; 1115275.2224932257 ; 148991.77448030736 ; 14042.000000000002
60 ; 27788.506376089663 ; 2525.2843132255475 ; 1142953.0843000663 ; 151517.0587935329 ; 14280.000000000002
61 ; 27943.438792042092 ; 2525.2843132255475 ; 1170741.590676156 ; 154042.34310675843 ; 14518.000000000002
62 ; 28312.750330259336 ; 2525.2843132255475 ; 1198685.0294681983 ; 156567.62741998397 ; 14756.000000000002
63 ; 28381.42231569067 ; 2525.2843132255475 ; 1226997.7797984576 ; 159092.9117332095 ; 14994.000000000002
64 ; 28397.331151058635 ; 2525.2843132255475 ; 1255379.2021141483 ; 161618.19604643504 ; 15232.000000000002
65 ; 28714.90233217399 ; 2525.2843132255475 ; 1283776.533265207 ; 164143.48035966058 ; 15470.000000000002
66 ; 28568.123227902033 ; 2525.2843132255475 ; 1312491.4355973809 ; 166668.76467288611 ; 15708.000000000002
67 ; 28932.749790096837 ; 2525.2843132255475 ; 1341059.5588252828 ; 169194.04898611165 ; 15946.000000000002
68 ; 29106.6465643734 ; 2525.2843132255475 ; 1369992.3086153797 ; 171719.3332993372 ; 16184.000000000002
69 ; 29058.89100689681 ; 2525.2843132255475 ; 1399098.9551797532 ; 174244.61761256272 ; 16422.000000000004
70 ; 28924.30508785216 ; 2525.2843132255475 ; 1428157.84618665 ; 176769.90192578826 ; 16660.000000000004
71 ; 28989.04381866928 ; 2525.2843132255475 ; 1457082.151274502 ; 179295.1862390138 ; 16898.000000000004
72 ; 29358.985224233966 ; 2525.2843132255475 ; 1486071.1950931714 ; 181820.47055223933 ; 17136.000000000004
73 ; 29402.45944926265 ; 2525.2843132255475 ; 1515430.1803174054 ; 184345.75486546487 ; 17374.000000000004
74 ; 29340.071931670554 ; 2525.2843132255475 ; 1544832.639766668 ; 186871.0391786904 ; 17612.000000000004
75 ; 29434.422104139605 ; 2525.2843132255475 ; 1574172.7116983386 ; 189396.32349191594 ; 17850.000000000004
76 ; 29495.159604397606 ; 2525.2843132255475 ; 1603607.1338024782 ; 191921.60780514148 ; 18088.000000000004
77 ; 29567.236101623126 ; 2525.2843132255475 ; 1633102.2934068758 ; 194446.89211836702 ; 18326.000000000004
78 ; 29397.616749634537 ; 2525.2843132255475 ; 1662669.529508499 ; 196972.17643159255 ; 18564.000000000004
79 ; 29509.783294114095 ; 2525.2843132255475 ; 1692067.1462581335 ; 199497.4607448181 ; 18802.000000000004
80 ; 29546.480238632375 ; 2525.2843132255475 ; 1721576.9295522475 ; 202022.74505804363 ; 19040.000000000004
81 ; 29673.208937773914 ; 2525.2843132255475 ; 1751123.4097908798 ; 204548.02937126916 ; 19278.000000000004
82 ; 29654.072869503518 ; 2525.2843132255475 ; 1780796.6187286538 ; 207073.3136844947 ; 19516.000000000004
83 ; 29546.71073551347 ; 2525.2843132255475 ; 1810450.6915981572 ; 209598.59799772024 ; 19754.000000000004
84 ; 29584.150634270238 ; 2525.2843132255475 ; 1839997.4023336705 ; 212123.88231094577 ; 19992.000000000004
85 ; 29516.396739909513 ; 2525.2843132255475 ; 1869581.5529679407 ; 214649.1666241713 ; 20230.000000000004
86 ; 29484.00929879918 ; 2525.2843132255475 ; 1899097.94970785 ; 217174.45093739685 ; 20468.000000000004
87 ; 29559.649306432097 ; 2525.2843132255475 ; 1928581.9590066492 ; 219699.73525062238 ; 20706.000000000004
88 ; 29522.985356312533 ; 2525.2843132255475 ; 1958141.6083130813 ; 222225.01956384792 ; 20944.000000000004
89 ; 29539.7209539778 ; 2525.2843132255475 ; 1987664.5936693938 ; 224750.30387707346 ; 21182.000000000004
90 ; 29407.898995364932 ; 2525.2843132255475 ; 2017204.3146233717 ; 227275.588190299 ; 21420.000000000004
91 ; 29128.14745746602 ; 2525.2843132255475 ; 2046612.2136187367 ; 229800.87250352453 ; 21658.000000000004
92 ; 29336.61856139948 ; 2525.2843132255475 ; 2075740.3610762027 ; 232326.15681675007 ; 21896.000000000004
93 ; 29329.31600512325 ; 2525.2843132255475 ; 2105076.9796376023 ; 234851.4411299756 ; 22134.000000000004
94 ; 29173.394208989866 ; 2525.2843132255475 ; 2134406.2956427257 ; 237376.72544320114 ; 22372.000000000004
95 ; 28996.478776381333 ; 2525.2843132255475 ; 2163579.6898517157 ; 239902.00975642668 ; 22610.000000000004
96 ; 28835.21171157927 ; 2525.2843132255475 ; 2192576.168628097 ; 242427.2940696522 ; 22848.000000000004
97 ; 28868.29387884526 ; 2525.2843132255475 ; 2221411.3803396765 ; 244952.57838287775 ; 23086.000000000004
98 ; 28664.836124621976 ; 2525.2843132255475 ; 2250279.674218522 ; 247477.8626961033 ; 23324.000000000004
99 ; 28576.862996541317 ; 2525.2843132255475 ; 2278944.5103431437 ; 250003.14700932882 ; 23562.000000000004
100 ; 28631.65883786004 ; 2525.2843132255475 ; 2307521.373339685 ; 252528.43132255436 ; 23800.000000000004
101 ; 28291.16230667923 ; 2525.2843132255475 ; 2336153.032177545 ; 255053.7156357799 ; 24038.000000000004
102 ; 28385.982657617573 ; 2525.2843132255475 ; 2364444.1944842245 ; 257578.99994900543 ; 24276.000000000004
103 ; 28121.766703694386 ; 2525.2843132255475 ; 2392830.177141842 ; 260104.28426223097 ; 24514.000000000004
104 ; 27974.37480224885 ; 2525.2843132255475 ; 2420951.9438455366 ; 262629.5685754565 ; 24752.000000000004
105 ; 27869.978294227047 ; 2525.2843132255475 ; 2448926.3186477856 ; 265154.85288868204 ; 24990.000000000004
106 ; 27584.427052292805 ; 2525.2843132255475 ; 2476796.296942013 ; 267680.1372019076 ; 25228.000000000004
107 ; 27421.61318464678 ; 2525.2843132255475 ; 2504380.723994306 ; 270205.4215151331 ; 25466.000000000004
108 ; 27270.77017348386 ; 2525.2843132255475 ; 2531802.3371789525 ; 272730.70582835865 ; 25704.000000000004
109 ; 27187.093879225384 ; 2525.2843132255475 ; 2559073.1073524365 ; 275255.9901415842 ; 25942.000000000004
110 ; 26920.533737265083 ; 2525.2843132255475 ; 2586260.2012316617 ; 277781.2744548097 ; 26180.000000000004
111 ; 26808.816934654016 ; 2525.2843132255475 ; 2613180.7349689268 ; 280306.55876803526 ; 26418.000000000004
112 ; 26437.528176051524 ; 2525.2843132255475 ; 2639989.551903581 ; 282831.8430812608 ; 26656.000000000004
113 ; 26321.49247295542 ; 2525.2843132255475 ; 2666427.0800796323 ; 285357.12739448634 ; 26894.000000000004
114 ; 26260.446839823464 ; 2525.2843132255475 ; 2692748.572552588 ; 287882.4117077119 ; 27132.000000000004
115 ; 26006.02478328857 ; 2525.2843132255475 ; 2719009.019392411 ; 290407.6960209374 ; 27370.000000000004
116 ; 25852.08885484566 ; 2525.2843132255475 ; 2745015.0441757 ; 292932.98033416294 ; 27608.000000000004
117 ; 25241.322342158674 ; 2525.2843132255475 ; 2770867.1330305454 ; 295458.2646473885 ; 27846.000000000004
118 ; 25270.631434481482 ; 2525.2843132255475 ; 2796108.455372704 ; 297983.548960614 ; 28084.000000000004
119 ; 25136.6979781696 ; 2525.2843132255475 ; 2821379.086807186 ; 300508.83327383955 ; 28322.000000000004
120 ; 24846.08377944156 ; 2525.2843132255475 ; 2846515.7847853554 ; 303034.1175870651 ; 28560.000000000004
121 ; 24633.411312456654 ; 2525.2843132255475 ; 2871361.868564797 ; 305559.4019002906 ; 28798.000000000004
122 ; 24154.693223692087 ; 2525.2843132255475 ; 2895995.279877254 ; 308084.68621351616 ; 29036.000000000004
123 ; 23927.713105262847 ; 2525.2843132255475 ; 2920149.973100946 ; 310609.9705267417 ; 29274.000000000004
124 ; 23784.981930696118 ; 2525.2843132255475 ; 2944077.6862062085 ; 313135.25483996724 ; 29512.000000000004
125 ; 23468.55132065248 ; 2525.2843132255475 ; 2967862.6681369045 ; 315660.5391531928 ; 29750.000000000004
126 ; 23117.2739775013 ; 2525.2843132255475 ; 2991331.219457557 ; 318185.8234664183 ; 29988.000000000004
127 ; 22777.75116724877 ; 2525.2843132255475 ; 3014448.4934350583 ; 320711.10777964385 ; 30226.000000000004
128 ; 22304.228389356755 ; 2525.2843132255475 ; 3037226.244602307 ; 323236.3920928694 ; 30464.000000000004
129 ; 22175.08615056406 ; 2525.2843132255475 ; 3059530.472991664 ; 325761.6764060949 ; 30702.000000000004
130 ; 21844.587795462132 ; 2525.2843132255475 ; 3081705.559142228 ; 328286.96071932046 ; 30940.000000000004
131 ; 21503.464821432866 ; 2525.2843132255475 ; 3103550.14693769 ; 330812.245032546 ; 31178.000000000004
132 ; 21200.8700285152 ; 2525.2843132255475 ; 3125053.611759123 ; 333337.52934577153 ; 31416.000000000004
133 ; 20821.476547489994 ; 2525.2843132255475 ; 3146254.4817876383 ; 335862.81365899707 ; 31654.000000000004
134 ; 20479.568038070698 ; 2525.2843132255475 ; 3167075.958335128 ; 338388.0979722226 ; 31892.000000000004
135 ; 20179.377360043534 ; 2525.2843132255475 ; 3187555.5263731987 ; 340913.38228544814 ; 32130.000000000004
136 ; 19717.399678706814 ; 2525.2843132255475 ; 3207734.9037332423 ; 343438.6665986737 ; 32368.000000000004
137 ; 19293.394066369605 ; 2525.2843132255475 ; 3227452.303411949 ; 345963.9509118992 ; 32606.000000000004
138 ; 19079.8395620238 ; 2525.2843132255475 ; 3246745.6974783186 ; 348489.23522512475 ; 32844.00000000001
139 ; 18800.7972764498 ; 2525.2843132255475 ; 3265825.5370403426 ; 351014.5195383503 ; 33082.00000000001
140 ; 18255.86621270897 ; 2525.2843132255475 ; 3284626.3343167924 ; 353539.8038515758 ; 33320.00000000001
141 ; 17899.890069544133 ; 2525.2843132255475 ; 3302882.2005295013 ; 356065.08816480136 ; 33558.00000000001
142 ; 17487.378562101556 ; 2525.2843132255475 ; 3320782.0905990456 ; 358590.3724780269 ; 33796.00000000001
143 ; 16930.761239161297 ; 2525.2843132255475 ; 3338269.4691611473 ; 361115.65679125243 ; 34034.00000000001
144 ; 16537.847623469275 ; 2525.2843132255475 ; 3355200.2304003085 ; 363640.94110447797 ; 34272.00000000001
145 ; 16460.779795010207 ; 2525.2843132255475 ; 3371738.078023778 ; 366166.2254177035 ; 34510.00000000001
146 ; 16247.223259604405 ; 2525.2843132255475 ; 3388198.857818788 ; 368691.50973092904 ; 34748.00000000001
147 ; 16186.994425903009 ; 2525.2843132255475 ; 3404446.0810783925 ; 371216.7940441546 ; 34986.00000000001
148 ; 16017.521742076151 ; 2525.2843132255475 ; 3420633.0755042955 ; 373742.0783573801 ; 35224.00000000001
149 ; 16174.124270729815 ; 2525.2843132255475 ; 3436650.5972463717 ; 376267.36267060565 ; 35462.00000000001
150 ; 15808.825290831499 ; 2525.2843132255475 ; 3452824.7215171014 ; 378792.6469838312 ; 35700.00000000001
151 ; 15777.213130639246 ; 2525.2843132255475 ; 3468633.5468079327 ; 381317.9312970567 ; 35938.00000000001
152 ; 15684.641598948125 ; 2525.2843132255475 ; 3484410.759938572 ; 383843.21561028226 ; 36176.00000000001
153 ; 15637.965659553027 ; 2525.2843132255475 ; 3500095.4015375203 ; 386368.4999235078 ; 36414.00000000001
154 ; 15442.413499317357 ; 2525.2843132255475 ; 3515733.3671970735 ; 388893.78423673334 ; 36652.00000000001
155 ; 15123.693820685005 ; 2525.2843132255475 ; 3531175.7806963907 ; 391419.0685499589 ; 36890.00000000001
156 ; 15088.947453169214 ; 2525.2843132255475 ; 3546299.474517076 ; 393944.3528631844 ; 37128.00000000001
157 ; 14870.513474663809 ; 2525.2843132255475 ; 3561388.421970245 ; 396469.63717640995 ; 37366.00000000001
158 ; 14850.155361684374 ; 2525.2843132255475 ; 3576258.9354449087 ; 398994.9214896355 ; 37604.00000000001
159 ; 14726.373209394882 ; 2525.2843132255475 ; 3591109.090806593 ; 401520.205802861 ; 37842.00000000001
160 ; 14451.36921226719 ; 2525.2843132255475 ; 3605835.464015988 ; 404045.49011608656 ; 38080.00000000001
161 ; 14530.769461217817 ; 2525.2843132255475 ; 3620286.833228255 ; 406570.7744293121 ; 38318.00000000001
162 ; 14185.356021862406 ; 2525.2843132255475 ; 3634817.602689473 ; 409096.0587425376 ; 38556.00000000001
163 ; 13916.557560361955 ; 2525.2843132255475 ; 3649002.9587113354 ; 411621.34305576317 ; 38794.00000000001
164 ; 13985.741065176971 ; 2525.2843132255475 ; 3662919.5162716974 ; 414146.6273689887 ; 39032.00000000001
165 ; 13866.050896452483 ; 2525.2843132255475 ; 3676905.2573368745 ; 416671.91168221424 ; 39270.00000000001
166 ; 13481.392779090507 ; 2525.2843132255475 ; 3690771.3082333268 ; 419197.1959954398 ; 39508.00000000001
167 ; 13525.14681328653 ; 2525.2843132255475 ; 3704252.701012417 ; 421722.4803086653 ; 39746.00000000001
168 ; 13350.829596373645 ; 2525.2843132255475 ; 3717777.8478257037 ; 424247.76462189085 ; 39984.00000000001
169 ; 13035.159361158969 ; 2525.2843132255475 ; 3731128.6774220774 ; 426773.0489351164 ; 40222.00000000001
170 ; 12905.617658176443 ; 2525.2843132255475 ; 3744163.8367832364 ; 429298.3332483419 ; 40460.00000000001
171 ; 12594.09996282961 ; 2525.2843132255475 ; 3757069.454441413 ; 431823.61756156746 ; 40698.00000000001
172 ; 12666.622797849219 ; 2525.2843132255475 ; 3769663.5544042424 ; 434348.901874793 ; 40936.00000000001
173 ; 12392.108377978633 ; 2525.2843132255475 ; 3782330.1772020916 ; 436874.18618801853 ; 41174.00000000001
174 ; 12469.631043445004 ; 2525.2843132255475 ; 3794722.28558007 ; 439399.47050124407 ; 41412.00000000001
175 ; 12621.563699310474 ; 2525.2843132255475 ; 3807191.916623515 ; 441924.7548144696 ; 41650.00000000001
176 ; 12427.069937724988 ; 2525.2843132255475 ; 3819813.4803228257 ; 444450.03912769514 ; 41888.00000000001
177 ; 12539.348107982012 ; 2525.2843132255475 ; 3832240.550260551 ; 446975.3234409207 ; 42126.00000000001
178 ; 12584.124398733675 ; 2525.2843132255475 ; 3844779.898368533 ; 449500.6077541462 ; 42364.00000000001
179 ; 12607.343604155114 ; 2525.2843132255475 ; 3857364.0227672663 ; 452025.89206737175 ; 42602.00000000001
180 ; 12796.370008549171 ; 2525.2843132255475 ; 3869971.366371421 ; 454551.1763805973 ; 42840.00000000001
181 ; 12701.120089670401 ; 2525.2843132255475 ; 3882767.7363799703 ; 457076.4606938228 ; 43078.00000000001
182 ; 12888.35525331143 ; 2525.2843132255475 ; 3895468.8564696405 ; 459601.74500704836 ; 43316.00000000001
183 ; 12840.849396046688 ; 2525.2843132255475 ; 3908357.211722952 ; 462127.0293202739 ; 43554.00000000001
184 ; 12683.370117529827 ; 2525.2843132255475 ; 3921198.0611189986 ; 464652.31363349943 ; 43792.00000000001
