CSV File for the City 1 on Day 215
1 - Minute m 
2 - Power Consumed at minute m 
3 - Power Produced at minute m 
4 - Energy Consumed since the beginning of the day 
5 - Energy Produced since the beginning of the day 
6 - Energy Lost since the beginning of the day on lines starting from the city
 
0 ; 5161.176784297256 ; 3215.923012936204 ; 0.0 ; 0.0 ; 0.0
1 ; 5711.819184423249 ; 3215.923012936204 ; 5161.176784297256 ; 3215.923012936204 ; 238.00000000000003
2 ; 6495.868079670093 ; 3215.923012936204 ; 10872.995968720505 ; 6431.846025872408 ; 476.00000000000006
3 ; 6975.616954666173 ; 3215.923012936204 ; 17368.8640483906 ; 9647.769038808612 ; 714.0000000000001
4 ; 7689.9135586693865 ; 3215.923012936204 ; 24344.48100305677 ; 12863.692051744816 ; 952.0000000000001
5 ; 8209.38829846907 ; 3215.923012936204 ; 32034.394561726156 ; 16079.61506468102 ; 1190.0000000000002
6 ; 9078.527301718917 ; 3215.923012936204 ; 40243.78286019523 ; 19295.538077617224 ; 1428.0000000000002
7 ; 9679.500562423604 ; 3215.923012936204 ; 49322.310161914145 ; 22511.46109055343 ; 1666.0000000000002
8 ; 10355.121556680486 ; 3215.923012936204 ; 59001.810724337745 ; 25727.384103489632 ; 1904.0000000000002
9 ; 10833.088445793064 ; 3215.923012936204 ; 69356.93228101823 ; 28943.307116425836 ; 2142.0000000000005
10 ; 11327.608809610441 ; 3215.923012936204 ; 80190.0207268113 ; 32159.23012936204 ; 2380.0000000000005
11 ; 12155.889339810361 ; 3215.923012936204 ; 91517.62953642174 ; 35375.153142298244 ; 2618.0000000000005
12 ; 12553.946760829464 ; 3215.923012936204 ; 103673.51887623209 ; 38591.07615523445 ; 2856.0000000000005
13 ; 13136.302685541867 ; 3215.923012936204 ; 116227.46563706156 ; 41806.99916817065 ; 3094.0000000000005
14 ; 13886.108683387205 ; 3215.923012936204 ; 129363.76832260343 ; 45022.92218110686 ; 3332.0000000000005
15 ; 14420.072755710338 ; 3215.923012936204 ; 143249.87700599062 ; 48238.84519404306 ; 3570.0000000000005
16 ; 14843.095408736124 ; 3215.923012936204 ; 157669.94976170096 ; 51454.768206979265 ; 3808.0000000000005
17 ; 15264.983317922406 ; 3215.923012936204 ; 172513.04517043708 ; 54670.69121991547 ; 4046.0000000000005
18 ; 15955.818308455042 ; 3215.923012936204 ; 187778.02848835947 ; 57886.61423285167 ; 4284.000000000001
19 ; 16388.405625116793 ; 3215.923012936204 ; 203733.84679681453 ; 61102.53724578788 ; 4522.000000000001
20 ; 16953.824585510996 ; 3215.923012936204 ; 220122.2524219313 ; 64318.46025872408 ; 4760.000000000001
21 ; 17319.438809747684 ; 3215.923012936204 ; 237076.0770074423 ; 67534.38327166028 ; 4998.000000000001
22 ; 17950.377972979586 ; 3215.923012936204 ; 254395.51581719 ; 70750.30628459647 ; 5236.000000000001
23 ; 18530.945757897338 ; 3215.923012936204 ; 272345.89379016956 ; 73966.22929753267 ; 5474.000000000001
24 ; 18677.353989467272 ; 3215.923012936204 ; 290876.8395480669 ; 77182.15231046887 ; 5712.000000000001
25 ; 19243.383495031823 ; 3215.923012936204 ; 309554.19353753416 ; 80398.07532340506 ; 5950.000000000001
26 ; 19890.521802992673 ; 3215.923012936204 ; 328797.57703256595 ; 83613.99833634126 ; 6188.000000000001
27 ; 20352.708584718912 ; 3215.923012936204 ; 348688.09883555863 ; 86829.92134927746 ; 6426.000000000001
28 ; 20642.4169201814 ; 3215.923012936204 ; 369040.80742027756 ; 90045.84436221365 ; 6664.000000000001
29 ; 21362.555404882096 ; 3215.923012936204 ; 389683.224340459 ; 93261.76737514985 ; 6902.000000000001
30 ; 21634.93616361706 ; 3215.923012936204 ; 411045.7797453411 ; 96477.69038808605 ; 7140.000000000001
31 ; 22308.84367913159 ; 3215.923012936204 ; 432680.71590895817 ; 99693.61340102224 ; 7378.000000000001
32 ; 22443.366051129764 ; 3215.923012936204 ; 454989.55958808976 ; 102909.53641395844 ; 7616.000000000001
33 ; 22946.504247089437 ; 3215.923012936204 ; 477432.9256392195 ; 106125.45942689464 ; 7854.000000000001
34 ; 23398.59617511126 ; 3215.923012936204 ; 500379.42988630896 ; 109341.38243983084 ; 8092.000000000001
35 ; 23511.880856539352 ; 3215.923012936204 ; 523778.0260614202 ; 112557.30545276703 ; 8330.000000000002
36 ; 24056.140221162554 ; 3215.923012936204 ; 547289.9069179596 ; 115773.22846570323 ; 8568.000000000002
37 ; 24329.1639955879 ; 3215.923012936204 ; 571346.0471391222 ; 118989.15147863943 ; 8806.000000000002
38 ; 24831.7198970304 ; 3215.923012936204 ; 595675.21113471 ; 122205.07449157562 ; 9044.000000000002
39 ; 25167.770781621086 ; 3215.923012936204 ; 620506.9310317404 ; 125420.99750451182 ; 9282.000000000002
40 ; 25535.992295583506 ; 3215.923012936204 ; 645674.7018133615 ; 128636.92051744802 ; 9520.000000000002
41 ; 25779.225846220208 ; 3215.923012936204 ; 671210.694108945 ; 131852.8435303842 ; 9758.000000000002
42 ; 26201.264913134295 ; 3215.923012936204 ; 696989.9199551651 ; 135068.7665433204 ; 9996.000000000002
43 ; 26489.918982645493 ; 3215.923012936204 ; 723191.1848682994 ; 138284.6895562566 ; 10234.000000000002
44 ; 26614.331667471717 ; 3215.923012936204 ; 749681.1038509449 ; 141500.6125691928 ; 10472.000000000002
45 ; 27045.894124147482 ; 3215.923012936204 ; 776295.4355184166 ; 144716.535582129 ; 10710.000000000002
46 ; 27535.384784600254 ; 3215.923012936204 ; 803341.3296425641 ; 147932.4585950652 ; 10948.000000000002
47 ; 27600.860301367014 ; 3215.923012936204 ; 830876.7144271643 ; 151148.3816080014 ; 11186.000000000002
48 ; 27836.874265902687 ; 3215.923012936204 ; 858477.5747285313 ; 154364.3046209376 ; 11424.000000000002
49 ; 28357.070873287856 ; 3215.923012936204 ; 886314.448994434 ; 157580.2276338738 ; 11662.000000000002
50 ; 28642.964752184 ; 3215.923012936204 ; 914671.5198677218 ; 160796.15064680998 ; 11900.000000000002
51 ; 28625.63897844474 ; 3215.923012936204 ; 943314.4846199058 ; 164012.07365974618 ; 12138.000000000002
52 ; 28824.710326371653 ; 3215.923012936204 ; 971940.1235983506 ; 167227.99667268238 ; 12376.000000000002
53 ; 29209.535816148662 ; 3215.923012936204 ; 1000764.8339247222 ; 170443.91968561857 ; 12614.000000000002
54 ; 29332.192411458185 ; 3215.923012936204 ; 1029974.3697408708 ; 173659.84269855477 ; 12852.000000000002
55 ; 29771.616932478115 ; 3215.923012936204 ; 1059306.562152329 ; 176875.76571149097 ; 13090.000000000002
56 ; 29880.014984449685 ; 3215.923012936204 ; 1089078.179084807 ; 180091.68872442716 ; 13328.000000000002
57 ; 30199.593839274385 ; 3215.923012936204 ; 1118958.1940692565 ; 183307.61173736336 ; 13566.000000000002
58 ; 30475.765764856453 ; 3215.923012936204 ; 1149157.787908531 ; 186523.53475029956 ; 13804.000000000002
59 ; 30357.24945390273 ; 3215.923012936204 ; 1179633.5536733875 ; 189739.45776323575 ; 14042.000000000002
60 ; 30880.060460036784 ; 3215.923012936204 ; 1209990.8031272902 ; 192955.38077617195 ; 14280.000000000002
61 ; 30938.336015028646 ; 3215.923012936204 ; 1240870.863587327 ; 196171.30378910815 ; 14518.000000000002
62 ; 31038.979344272666 ; 3215.923012936204 ; 1271809.1996023557 ; 199387.22680204434 ; 14756.000000000002
63 ; 31452.553553757632 ; 3215.923012936204 ; 1302848.1789466285 ; 202603.14981498054 ; 14994.000000000002
64 ; 31392.598405210883 ; 3215.923012936204 ; 1334300.7325003862 ; 205819.07282791674 ; 15232.000000000002
65 ; 31565.40321158554 ; 3215.923012936204 ; 1365693.3309055972 ; 209034.99584085293 ; 15470.000000000002
66 ; 31479.468811926505 ; 3215.923012936204 ; 1397258.7341171827 ; 212250.91885378913 ; 15708.000000000002
67 ; 31685.818391923007 ; 3215.923012936204 ; 1428738.202929109 ; 215466.84186672533 ; 15946.000000000002
68 ; 32145.807892253804 ; 3215.923012936204 ; 1460424.0213210322 ; 218682.76487966152 ; 16184.000000000002
69 ; 32080.687074078327 ; 3215.923012936204 ; 1492569.829213286 ; 221898.68789259772 ; 16422.000000000004
70 ; 32138.80893318798 ; 3215.923012936204 ; 1524650.5162873643 ; 225114.61090553392 ; 16660.000000000004
71 ; 32316.218281476915 ; 3215.923012936204 ; 1556789.3252205523 ; 228330.53391847012 ; 16898.000000000004
72 ; 32306.599434384756 ; 3215.923012936204 ; 1589105.5435020293 ; 231546.4569314063 ; 17136.000000000004
73 ; 32409.651749523782 ; 3215.923012936204 ; 1621412.142936414 ; 234762.3799443425 ; 17374.000000000004
74 ; 32566.262643213948 ; 3215.923012936204 ; 1653821.794685938 ; 237978.3029572787 ; 17612.000000000004
75 ; 32488.086068841723 ; 3215.923012936204 ; 1686388.0573291518 ; 241194.2259702149 ; 17850.000000000004
76 ; 32543.92700606837 ; 3215.923012936204 ; 1718876.1433979934 ; 244410.1489831511 ; 18088.000000000004
77 ; 32776.51153300402 ; 3215.923012936204 ; 1751420.0704040618 ; 247626.0719960873 ; 18326.000000000004
78 ; 32479.154850760173 ; 3215.923012936204 ; 1784196.5819370658 ; 250841.9950090235 ; 18564.000000000004
79 ; 32735.176279812305 ; 3215.923012936204 ; 1816675.736787826 ; 254057.9180219597 ; 18802.000000000004
80 ; 32703.73815009898 ; 3215.923012936204 ; 1849410.9130676384 ; 257273.8410348959 ; 19040.000000000004
81 ; 32691.779233017645 ; 3215.923012936204 ; 1882114.6512177375 ; 260489.76404783208 ; 19278.000000000004
82 ; 32793.09818246326 ; 3215.923012936204 ; 1914806.4304507552 ; 263705.6870607683 ; 19516.000000000004
83 ; 32685.421730169455 ; 3215.923012936204 ; 1947599.5286332185 ; 266921.6100737045 ; 19754.000000000004
84 ; 32614.44278176825 ; 3215.923012936204 ; 1980284.950363388 ; 270137.5330866407 ; 19992.000000000004
85 ; 32832.49076592822 ; 3215.923012936204 ; 2012899.3931451563 ; 273353.4560995769 ; 20230.000000000004
86 ; 32799.0923298403 ; 3215.923012936204 ; 2045731.8839110846 ; 276569.3791125131 ; 20468.000000000004
87 ; 32534.179116725685 ; 3215.923012936204 ; 2078530.976240925 ; 279785.3021254493 ; 20706.000000000004
88 ; 32470.737807832495 ; 3215.923012936204 ; 2111065.1553576505 ; 283001.2251383855 ; 20944.000000000004
89 ; 32637.19908312654 ; 3215.923012936204 ; 2143535.893165483 ; 286217.1481513217 ; 21182.000000000004
90 ; 32337.05489330386 ; 3215.923012936204 ; 2176173.0922486098 ; 289433.0711642579 ; 21420.000000000004
91 ; 32316.76139481497 ; 3215.923012936204 ; 2208510.1471419134 ; 292648.9941771941 ; 21658.000000000004
92 ; 32222.12195193769 ; 3215.923012936204 ; 2240826.9085367285 ; 295864.9171901303 ; 21896.000000000004
93 ; 32311.59194456174 ; 3215.923012936204 ; 2273049.030488666 ; 299080.8402030665 ; 22134.000000000004
94 ; 32033.245994008743 ; 3215.923012936204 ; 2305360.622433228 ; 302296.76321600267 ; 22372.000000000004
95 ; 32045.17545440649 ; 3215.923012936204 ; 2337393.8684272366 ; 305512.68622893887 ; 22610.000000000004
96 ; 32018.635305009564 ; 3215.923012936204 ; 2369439.043881643 ; 308728.60924187506 ; 22848.000000000004
97 ; 31860.971019979213 ; 3215.923012936204 ; 2401457.679186653 ; 311944.53225481126 ; 23086.000000000004
98 ; 31695.36663325005 ; 3215.923012936204 ; 2433318.650206632 ; 315160.45526774746 ; 23324.000000000004
99 ; 31442.57267055659 ; 3215.923012936204 ; 2465014.016839882 ; 318376.37828068365 ; 23562.000000000004
100 ; 31435.22448295101 ; 3215.923012936204 ; 2496456.5895104385 ; 321592.30129361985 ; 23800.000000000004
101 ; 31142.323161329226 ; 3215.923012936204 ; 2527891.8139933897 ; 324808.22430655605 ; 24038.000000000004
102 ; 31039.536185907305 ; 3215.923012936204 ; 2559034.137154719 ; 328024.14731949224 ; 24276.000000000004
103 ; 30784.20622542556 ; 3215.923012936204 ; 2590073.673340626 ; 331240.07033242844 ; 24514.000000000004
104 ; 30639.405924071776 ; 3215.923012936204 ; 2620857.8795660515 ; 334455.99334536464 ; 24752.000000000004
105 ; 30633.990998735208 ; 3215.923012936204 ; 2651497.285490123 ; 337671.91635830083 ; 24990.000000000004
106 ; 30526.401625086783 ; 3215.923012936204 ; 2682131.2764888583 ; 340887.83937123703 ; 25228.000000000004
107 ; 30285.166049627318 ; 3215.923012936204 ; 2712657.678113945 ; 344103.7623841732 ; 25466.000000000004
108 ; 29804.84324795325 ; 3215.923012936204 ; 2742942.844163572 ; 347319.6853971094 ; 25704.000000000004
109 ; 29827.44810343222 ; 3215.923012936204 ; 2772747.6874115253 ; 350535.6084100456 ; 25942.000000000004
110 ; 29579.635665178823 ; 3215.923012936204 ; 2802575.1355149574 ; 353751.5314229818 ; 26180.000000000004
111 ; 29201.856325582656 ; 3215.923012936204 ; 2832154.771180136 ; 356967.454435918 ; 26418.000000000004
112 ; 28994.395208443617 ; 3215.923012936204 ; 2861356.6275057187 ; 360183.3774488542 ; 26656.000000000004
113 ; 28618.297131171403 ; 3215.923012936204 ; 2890351.0227141622 ; 363399.3004617904 ; 26894.000000000004
114 ; 28732.012657073905 ; 3215.923012936204 ; 2918969.3198453337 ; 366615.2234747266 ; 27132.000000000004
115 ; 28204.89709103439 ; 3215.923012936204 ; 2947701.3325024075 ; 369831.1464876628 ; 27370.000000000004
116 ; 28179.437800259413 ; 3215.923012936204 ; 2975906.229593442 ; 373047.069500599 ; 27608.000000000004
117 ; 27971.89598640585 ; 3215.923012936204 ; 3004085.667393701 ; 376262.9925135352 ; 27846.000000000004
118 ; 27484.026146469205 ; 3215.923012936204 ; 3032057.563380107 ; 379478.9155264714 ; 28084.000000000004
119 ; 27199.04893627845 ; 3215.923012936204 ; 3059541.589526576 ; 382694.8385394076 ; 28322.000000000004
120 ; 26738.12373980655 ; 3215.923012936204 ; 3086740.6384628545 ; 385910.7615523438 ; 28560.000000000004
121 ; 26583.08780882576 ; 3215.923012936204 ; 3113478.762202661 ; 389126.68456528 ; 28798.000000000004
122 ; 26174.884653304867 ; 3215.923012936204 ; 3140061.8500114866 ; 392342.6075782162 ; 29036.000000000004
123 ; 25906.693266453687 ; 3215.923012936204 ; 3166236.7346647913 ; 395558.5305911524 ; 29274.000000000004
124 ; 25753.626019494932 ; 3215.923012936204 ; 3192143.427931245 ; 398774.4536040886 ; 29512.000000000004
125 ; 25241.31836834146 ; 3215.923012936204 ; 3217897.05395074 ; 401990.37661702477 ; 29750.000000000004
126 ; 24910.022229538434 ; 3215.923012936204 ; 3243138.3723190813 ; 405206.29962996097 ; 29988.000000000004
127 ; 24541.962469800805 ; 3215.923012936204 ; 3268048.3945486196 ; 408422.22264289716 ; 30226.000000000004
128 ; 24255.388969373704 ; 3215.923012936204 ; 3292590.3570184205 ; 411638.14565583336 ; 30464.000000000004
129 ; 23874.49410794588 ; 3215.923012936204 ; 3316845.7459877944 ; 414854.06866876956 ; 30702.000000000004
130 ; 23629.615005963016 ; 3215.923012936204 ; 3340720.24009574 ; 418069.99168170575 ; 30940.000000000004
131 ; 23039.483572687757 ; 3215.923012936204 ; 3364349.855101703 ; 421285.91469464195 ; 31178.000000000004
132 ; 22599.063081006298 ; 3215.923012936204 ; 3387389.338674391 ; 424501.83770757815 ; 31416.000000000004
133 ; 22177.58435489397 ; 3215.923012936204 ; 3409988.4017553977 ; 427717.76072051434 ; 31654.000000000004
134 ; 21682.749302079945 ; 3215.923012936204 ; 3432165.9861102914 ; 430933.68373345054 ; 31892.000000000004
135 ; 21517.921934764538 ; 3215.923012936204 ; 3453848.7354123713 ; 434149.60674638674 ; 32130.000000000004
136 ; 20896.704854170614 ; 3215.923012936204 ; 3475366.6573471357 ; 437365.52975932293 ; 32368.000000000004
137 ; 20578.57785669952 ; 3215.923012936204 ; 3496263.3622013065 ; 440581.45277225913 ; 32606.000000000004
138 ; 19959.843493102202 ; 3215.923012936204 ; 3516841.940058006 ; 443797.3757851953 ; 32844.00000000001
139 ; 19551.932555546904 ; 3215.923012936204 ; 3536801.783551108 ; 447013.2987981315 ; 33082.00000000001
140 ; 18937.044600518813 ; 3215.923012936204 ; 3556353.716106655 ; 450229.2218110677 ; 33320.00000000001
141 ; 18770.122424697627 ; 3215.923012936204 ; 3575290.760707174 ; 453445.1448240039 ; 33558.00000000001
142 ; 18079.630909344312 ; 3215.923012936204 ; 3594060.8831318715 ; 456661.0678369401 ; 33796.00000000001
143 ; 17513.100986658555 ; 3215.923012936204 ; 3612140.5140412156 ; 459876.9908498763 ; 34034.00000000001
144 ; 17087.642439350657 ; 3215.923012936204 ; 3629653.6150278742 ; 463092.9138628125 ; 34272.00000000001
145 ; 16917.320968167074 ; 3215.923012936204 ; 3646741.2574672247 ; 466308.8368757487 ; 34510.00000000001
146 ; 16638.287689086035 ; 3215.923012936204 ; 3663658.5784353917 ; 469524.7598886849 ; 34748.00000000001
147 ; 16737.275970900402 ; 3215.923012936204 ; 3680296.8661244777 ; 472740.6829016211 ; 34986.00000000001
148 ; 16549.93426736578 ; 3215.923012936204 ; 3697034.142095378 ; 475956.6059145573 ; 35224.00000000001
149 ; 16382.283856681584 ; 3215.923012936204 ; 3713584.076362744 ; 479172.5289274935 ; 35462.00000000001
150 ; 16212.04862096626 ; 3215.923012936204 ; 3729966.3602194255 ; 482388.4519404297 ; 35700.00000000001
151 ; 16094.855516357542 ; 3215.923012936204 ; 3746178.408840392 ; 485604.3749533659 ; 35938.00000000001
152 ; 15835.290595005186 ; 3215.923012936204 ; 3762273.264356749 ; 488820.2979663021 ; 36176.00000000001
153 ; 15783.873721475768 ; 3215.923012936204 ; 3778108.5549517544 ; 492036.2209792383 ; 36414.00000000001
154 ; 15683.51700215401 ; 3215.923012936204 ; 3793892.42867323 ; 495252.1439921745 ; 36652.00000000001
155 ; 15525.698704288641 ; 3215.923012936204 ; 3809575.9456753843 ; 498468.0670051107 ; 36890.00000000001
156 ; 15327.695093882849 ; 3215.923012936204 ; 3825101.644379673 ; 501683.99001804687 ; 37128.00000000001
157 ; 15178.786472953505 ; 3215.923012936204 ; 3840429.339473556 ; 504899.91303098307 ; 37366.00000000001
158 ; 15134.18564327629 ; 3215.923012936204 ; 3855608.125946509 ; 508115.83604391926 ; 37604.00000000001
159 ; 14978.546365883763 ; 3215.923012936204 ; 3870742.3115897854 ; 511331.75905685546 ; 37842.00000000001
160 ; 14697.343588240015 ; 3215.923012936204 ; 3885720.857955669 ; 514547.68206979166 ; 38080.00000000001
161 ; 14606.849913749 ; 3215.923012936204 ; 3900418.201543909 ; 517763.60508272785 ; 38318.00000000001
162 ; 14277.829990092885 ; 3215.923012936204 ; 3915025.051457658 ; 520979.52809566405 ; 38556.00000000001
163 ; 13875.852057925023 ; 3215.923012936204 ; 3929302.8814477506 ; 524195.45110860025 ; 38794.00000000001
164 ; 13753.344024760474 ; 3215.923012936204 ; 3943178.7335056756 ; 527411.3741215365 ; 39032.00000000001
165 ; 13632.697611674548 ; 3215.923012936204 ; 3956932.077530436 ; 530627.2971344728 ; 39270.00000000001
166 ; 13577.523942253465 ; 3215.923012936204 ; 3970564.775142111 ; 533843.220147409 ; 39508.00000000001
167 ; 13306.444102694573 ; 3215.923012936204 ; 3984142.2990843644 ; 537059.1431603453 ; 39746.00000000001
168 ; 13166.633245031539 ; 3215.923012936204 ; 3997448.743187059 ; 540275.0661732815 ; 39984.00000000001
169 ; 12853.363998991115 ; 3215.923012936204 ; 4010615.3764320905 ; 543490.9891862178 ; 40222.00000000001
170 ; 12697.586666833775 ; 3215.923012936204 ; 4023468.7404310815 ; 546706.912199154 ; 40460.00000000001
171 ; 12320.75899905112 ; 3215.923012936204 ; 4036166.327097915 ; 549922.8352120903 ; 40698.00000000001
172 ; 12393.22241067964 ; 3215.923012936204 ; 4048487.086096966 ; 553138.7582250265 ; 40936.00000000001
173 ; 11899.917874910807 ; 3215.923012936204 ; 4060880.308507646 ; 556354.6812379628 ; 41174.00000000001
174 ; 12152.102084289118 ; 3215.923012936204 ; 4072780.226382557 ; 559570.604250899 ; 41412.00000000001
175 ; 12042.17390602064 ; 3215.923012936204 ; 4084932.328466846 ; 562786.5272638353 ; 41650.00000000001
176 ; 12168.107770330156 ; 3215.923012936204 ; 4096974.502372867 ; 566002.4502767716 ; 41888.00000000001
177 ; 12232.804781650695 ; 3215.923012936204 ; 4109142.6101431972 ; 569218.3732897078 ; 42126.00000000001
178 ; 12199.471969249686 ; 3215.923012936204 ; 4121375.414924848 ; 572434.2963026441 ; 42364.00000000001
179 ; 12357.359423816517 ; 3215.923012936204 ; 4133574.8868940976 ; 575650.2193155803 ; 42602.00000000001
180 ; 12429.526856287917 ; 3215.923012936204 ; 4145932.246317914 ; 578866.1423285166 ; 42840.00000000001
181 ; 12355.9034052989 ; 3215.923012936204 ; 4158361.773174202 ; 582082.0653414528 ; 43078.00000000001
182 ; 12572.206334451996 ; 3215.923012936204 ; 4170717.676579501 ; 585297.9883543891 ; 43316.00000000001
183 ; 12350.563124697564 ; 3215.923012936204 ; 4183289.882913953 ; 588513.9113673253 ; 43554.00000000001
184 ; 12536.113500585083 ; 3215.923012936204 ; 4195640.44603865 ; 591729.8343802616 ; 43792.00000000001
185 ; 12493.997770732958 ; 3215.923012936204 ; 4208176.559539235 ; 594945.7573931979 ; 44030.00000000001
186 ; 12536.68271908991 ; 3215.923012936204 ; 4220670.557309968 ; 598161.6804061341 ; 44268.00000000001
