CSV File for the City 1 on Day 272
1 - Minute m 
2 - Power Consumed at minute m 
3 - Power Produced at minute m 
4 - Energy Consumed since the beginning of the day 
5 - Energy Produced since the beginning of the day 
6 - Energy Lost since the beginning of the day on lines starting from the city
 
0 ; 8090.280085054246 ; 2740.217836989599 ; 0.0 ; 0.0 ; 0.0
1 ; 8543.908803357705 ; 2740.217836989599 ; 8090.280085054246 ; 2740.217836989599 ; 238.00000000000003
2 ; 9045.448723446023 ; 2740.217836989599 ; 16634.18888841195 ; 5480.435673979198 ; 476.00000000000006
3 ; 9550.471524019229 ; 2740.217836989599 ; 25679.637611857972 ; 8220.653510968797 ; 714.0000000000001
4 ; 10054.91738729678 ; 2740.217836989599 ; 35230.1091358772 ; 10960.871347958397 ; 952.0000000000001
5 ; 10370.799648402788 ; 2740.217836989599 ; 45285.02652317398 ; 13701.089184947996 ; 1190.0000000000002
6 ; 10961.490819810097 ; 2740.217836989599 ; 55655.82617157677 ; 16441.307021937595 ; 1428.0000000000002
7 ; 11485.608266223091 ; 2740.217836989599 ; 66617.31699138688 ; 19181.524858927194 ; 1666.0000000000002
8 ; 11887.092789825538 ; 2740.217836989599 ; 78102.92525760997 ; 21921.742695916793 ; 1904.0000000000002
9 ; 12253.848600895271 ; 2740.217836989599 ; 89990.0180474355 ; 24661.960532906392 ; 2142.0000000000005
10 ; 13032.301351647293 ; 2740.217836989599 ; 102243.86664833078 ; 27402.17836989599 ; 2380.0000000000005
11 ; 13240.443111651444 ; 2740.217836989599 ; 115276.16799997806 ; 30142.39620688559 ; 2618.0000000000005
12 ; 13671.933487507325 ; 2740.217836989599 ; 128516.6111116295 ; 32882.61404387519 ; 2856.0000000000005
13 ; 14004.415956147455 ; 2740.217836989599 ; 142188.54459913683 ; 35622.83188086479 ; 3094.0000000000005
14 ; 14565.536279347363 ; 2740.217836989599 ; 156192.96055528428 ; 38363.04971785439 ; 3332.0000000000005
15 ; 15052.274270734451 ; 2740.217836989599 ; 170758.49683463166 ; 41103.26755484399 ; 3570.0000000000005
16 ; 15160.922054636747 ; 2740.217836989599 ; 185810.77110536612 ; 43843.48539183359 ; 3808.0000000000005
17 ; 15753.939488170836 ; 2740.217836989599 ; 200971.69316000288 ; 46583.703228823186 ; 4046.0000000000005
18 ; 15806.594147609945 ; 2740.217836989599 ; 216725.63264817372 ; 49323.921065812785 ; 4284.000000000001
19 ; 16525.167867865395 ; 2740.217836989599 ; 232532.22679578367 ; 52064.138902802384 ; 4522.000000000001
20 ; 16887.16423865815 ; 2740.217836989599 ; 249057.39466364906 ; 54804.35673979198 ; 4760.000000000001
21 ; 17243.366155686406 ; 2740.217836989599 ; 265944.5589023072 ; 57544.57457678158 ; 4998.000000000001
22 ; 17689.554753134147 ; 2740.217836989599 ; 283187.92505799356 ; 60284.79241377118 ; 5236.000000000001
23 ; 17994.591677348304 ; 2740.217836989599 ; 300877.4798111277 ; 63025.01025076078 ; 5474.000000000001
24 ; 18340.715188554983 ; 2740.217836989599 ; 318872.071488476 ; 65765.22808775038 ; 5712.000000000001
25 ; 18823.24775777161 ; 2740.217836989599 ; 337212.78667703096 ; 68505.44592473998 ; 5950.000000000001
26 ; 18926.830349459047 ; 2740.217836989599 ; 356036.0344348026 ; 71245.66376172958 ; 6188.000000000001
27 ; 19430.366856918667 ; 2740.217836989599 ; 374962.8647842616 ; 73985.88159871918 ; 6426.000000000001
28 ; 19730.029428910042 ; 2740.217836989599 ; 394393.2316411803 ; 76726.09943570878 ; 6664.000000000001
29 ; 19976.206263807606 ; 2740.217836989599 ; 414123.26107009035 ; 79466.31727269838 ; 6902.000000000001
30 ; 20358.290603762303 ; 2740.217836989599 ; 434099.46733389795 ; 82206.53510968797 ; 7140.000000000001
31 ; 20649.385668730683 ; 2740.217836989599 ; 454457.75793766027 ; 84946.75294667757 ; 7378.000000000001
32 ; 21030.18132073249 ; 2740.217836989599 ; 475107.1436063909 ; 87686.97078366717 ; 7616.000000000001
33 ; 21156.10526729842 ; 2740.217836989599 ; 496137.3249271234 ; 90427.18862065677 ; 7854.000000000001
34 ; 21631.375840608966 ; 2740.217836989599 ; 517293.4301944218 ; 93167.40645764637 ; 8092.000000000001
35 ; 21716.91483103104 ; 2740.217836989599 ; 538924.8060350307 ; 95907.62429463597 ; 8330.000000000002
36 ; 21986.74740881814 ; 2740.217836989599 ; 560641.7208660617 ; 98647.84213162557 ; 8568.000000000002
37 ; 22557.93959979251 ; 2740.217836989599 ; 582628.4682748799 ; 101388.05996861517 ; 8806.000000000002
38 ; 22651.475056396543 ; 2740.217836989599 ; 605186.4078746723 ; 104128.27780560477 ; 9044.000000000002
39 ; 22861.98841559016 ; 2740.217836989599 ; 627837.8829310689 ; 106868.49564259437 ; 9282.000000000002
40 ; 23049.542413968487 ; 2740.217836989599 ; 650699.871346659 ; 109608.71347958397 ; 9520.000000000002
41 ; 23659.82947251092 ; 2740.217836989599 ; 673749.4137606275 ; 112348.93131657357 ; 9758.000000000002
42 ; 23920.102264811605 ; 2740.217836989599 ; 697409.2432331385 ; 115089.14915356316 ; 9996.000000000002
43 ; 24185.46875987189 ; 2740.217836989599 ; 721329.3454979501 ; 117829.36699055276 ; 10234.000000000002
44 ; 24172.645972781713 ; 2740.217836989599 ; 745514.814257822 ; 120569.58482754236 ; 10472.000000000002
45 ; 24414.419509936033 ; 2740.217836989599 ; 769687.4602306037 ; 123309.80266453196 ; 10710.000000000002
46 ; 24703.684884901268 ; 2740.217836989599 ; 794101.8797405397 ; 126050.02050152156 ; 10948.000000000002
47 ; 24820.275342116805 ; 2740.217836989599 ; 818805.564625441 ; 128790.23833851116 ; 11186.000000000002
48 ; 25084.83013004393 ; 2740.217836989599 ; 843625.8399675578 ; 131530.45617550076 ; 11424.000000000002
49 ; 25254.61657012711 ; 2740.217836989599 ; 868710.6700976017 ; 134270.67401249037 ; 11662.000000000002
50 ; 25311.294580014917 ; 2740.217836989599 ; 893965.2866677288 ; 137010.89184948 ; 11900.000000000002
51 ; 25472.00490157692 ; 2740.217836989599 ; 919276.5812477437 ; 139751.1096864696 ; 12138.000000000002
52 ; 25824.21597435388 ; 2740.217836989599 ; 944748.5861493206 ; 142491.32752345921 ; 12376.000000000002
53 ; 26197.656990112133 ; 2740.217836989599 ; 970572.8021236744 ; 145231.54536044883 ; 12614.000000000002
54 ; 26122.831811423563 ; 2740.217836989599 ; 996770.4591137866 ; 147971.76319743844 ; 12852.000000000002
55 ; 26223.51014554884 ; 2740.217836989599 ; 1022893.2909252101 ; 150711.98103442806 ; 13090.000000000002
56 ; 26537.040504730638 ; 2740.217836989599 ; 1049116.8010707588 ; 153452.19887141767 ; 13328.000000000002
57 ; 26734.964556355237 ; 2740.217836989599 ; 1075653.8415754894 ; 156192.41670840728 ; 13566.000000000002
58 ; 26862.609186576123 ; 2740.217836989599 ; 1102388.8061318446 ; 158932.6345453969 ; 13804.000000000002
59 ; 26929.242300116875 ; 2740.217836989599 ; 1129251.4153184209 ; 161672.8523823865 ; 14042.000000000002
60 ; 27060.308734062666 ; 2740.217836989599 ; 1156180.6576185378 ; 164413.07021937612 ; 14280.000000000002
61 ; 27058.716388934023 ; 2740.217836989599 ; 1183240.9663526004 ; 167153.28805636574 ; 14518.000000000002
62 ; 27417.20633588203 ; 2740.217836989599 ; 1210299.6827415344 ; 169893.50589335535 ; 14756.000000000002
63 ; 27490.101779318364 ; 2740.217836989599 ; 1237716.8890774164 ; 172633.72373034497 ; 14994.000000000002
64 ; 27538.9690329327 ; 2740.217836989599 ; 1265206.9908567348 ; 175373.94156733458 ; 15232.000000000002
65 ; 27656.349559222228 ; 2740.217836989599 ; 1292745.9598896676 ; 178114.1594043242 ; 15470.000000000002
66 ; 27744.97913252914 ; 2740.217836989599 ; 1320402.3094488897 ; 180854.3772413138 ; 15708.000000000002
67 ; 27846.28947601379 ; 2740.217836989599 ; 1348147.2885814188 ; 183594.59507830342 ; 15946.000000000002
68 ; 27891.063701092724 ; 2740.217836989599 ; 1375993.5780574325 ; 186334.81291529303 ; 16184.000000000002
69 ; 28087.872472922907 ; 2740.217836989599 ; 1403884.6417585253 ; 189075.03075228265 ; 16422.000000000004
70 ; 27989.502340614716 ; 2740.217836989599 ; 1431972.5142314483 ; 191815.24858927226 ; 16660.000000000004
71 ; 28198.128869090815 ; 2740.217836989599 ; 1459962.016572063 ; 194555.46642626188 ; 16898.000000000004
72 ; 28458.442642801194 ; 2740.217836989599 ; 1488160.145441154 ; 197295.6842632515 ; 17136.000000000004
73 ; 28295.20109002649 ; 2740.217836989599 ; 1516618.5880839552 ; 200035.9021002411 ; 17374.000000000004
74 ; 28343.769428572592 ; 2740.217836989599 ; 1544913.7891739816 ; 202776.11993723072 ; 17612.000000000004
75 ; 28129.42148751846 ; 2740.217836989599 ; 1573257.5586025543 ; 205516.33777422033 ; 17850.000000000004
76 ; 28411.520127801272 ; 2740.217836989599 ; 1601386.9800900726 ; 208256.55561120994 ; 18088.000000000004
77 ; 28465.449298325402 ; 2740.217836989599 ; 1629798.5002178738 ; 210996.77344819956 ; 18326.000000000004
78 ; 28373.115364169153 ; 2740.217836989599 ; 1658263.9495161993 ; 213736.99128518917 ; 18564.000000000004
79 ; 28267.899370206225 ; 2740.217836989599 ; 1686637.0648803685 ; 216477.20912217879 ; 18802.000000000004
80 ; 28257.87451735029 ; 2740.217836989599 ; 1714904.9642505748 ; 219217.4269591684 ; 19040.000000000004
81 ; 28603.94650037316 ; 2740.217836989599 ; 1743162.838767925 ; 221957.644796158 ; 19278.000000000004
82 ; 28504.497610921302 ; 2740.217836989599 ; 1771766.7852682981 ; 224697.86263314763 ; 19516.000000000004
83 ; 28519.77240682278 ; 2740.217836989599 ; 1800271.2828792194 ; 227438.08047013724 ; 19754.000000000004
84 ; 28376.7880249555 ; 2740.217836989599 ; 1828791.0552860422 ; 230178.29830712685 ; 19992.000000000004
85 ; 28481.175773892777 ; 2740.217836989599 ; 1857167.8433109976 ; 232918.51614411647 ; 20230.000000000004
86 ; 28354.157366896718 ; 2740.217836989599 ; 1885649.0190848904 ; 235658.73398110608 ; 20468.000000000004
87 ; 28397.58411171194 ; 2740.217836989599 ; 1914003.1764517871 ; 238398.9518180957 ; 20706.000000000004
88 ; 28476.34329258194 ; 2740.217836989599 ; 1942400.760563499 ; 241139.1696550853 ; 20944.000000000004
89 ; 28369.682323461486 ; 2740.217836989599 ; 1970877.103856081 ; 243879.38749207492 ; 21182.000000000004
90 ; 28224.93918715999 ; 2740.217836989599 ; 1999246.7861795423 ; 246619.60532906454 ; 21420.000000000004
91 ; 28221.038179709485 ; 2740.217836989599 ; 2027471.7253667023 ; 249359.82316605415 ; 21658.000000000004
92 ; 28238.4041998503 ; 2740.217836989599 ; 2055692.7635464119 ; 252100.04100304376 ; 21896.000000000004
93 ; 28083.381590842328 ; 2740.217836989599 ; 2083931.1677462622 ; 254840.25884003338 ; 22134.000000000004
94 ; 28018.800755189328 ; 2740.217836989599 ; 2112014.5493371044 ; 257580.476677023 ; 22372.000000000004
95 ; 27752.050649282275 ; 2740.217836989599 ; 2140033.3500922937 ; 260320.6945140126 ; 22610.000000000004
96 ; 27765.004664656008 ; 2740.217836989599 ; 2167785.4007415758 ; 263060.9123510022 ; 22848.000000000004
97 ; 27668.332036276595 ; 2740.217836989599 ; 2195550.405406232 ; 265801.13018799183 ; 23086.000000000004
98 ; 27676.430293846406 ; 2740.217836989599 ; 2223218.737442509 ; 268541.34802498145 ; 23324.000000000004
99 ; 27573.81231091738 ; 2740.217836989599 ; 2250895.167736355 ; 271281.56586197106 ; 23562.000000000004
100 ; 27501.73825322221 ; 2740.217836989599 ; 2278468.9800472725 ; 274021.7836989607 ; 23800.000000000004
101 ; 27363.9450567852 ; 2740.217836989599 ; 2305970.718300495 ; 276762.0015359503 ; 24038.000000000004
102 ; 27145.746190177597 ; 2740.217836989599 ; 2333334.66335728 ; 279502.2193729399 ; 24276.000000000004
103 ; 27104.22045601897 ; 2740.217836989599 ; 2360480.409547458 ; 282242.4372099295 ; 24514.000000000004
104 ; 26887.936799157225 ; 2740.217836989599 ; 2387584.630003477 ; 284982.6550469191 ; 24752.000000000004
105 ; 26722.76811060108 ; 2740.217836989599 ; 2414472.5668026344 ; 287722.87288390874 ; 24990.000000000004
106 ; 26746.900589079152 ; 2740.217836989599 ; 2441195.3349132356 ; 290463.09072089836 ; 25228.000000000004
107 ; 26568.503345423287 ; 2740.217836989599 ; 2467942.2355023148 ; 293203.30855788797 ; 25466.000000000004
108 ; 26508.6313445078 ; 2740.217836989599 ; 2494510.738847738 ; 295943.5263948776 ; 25704.000000000004
109 ; 26161.256463222428 ; 2740.217836989599 ; 2521019.370192246 ; 298683.7442318672 ; 25942.000000000004
110 ; 26141.852862152715 ; 2740.217836989599 ; 2547180.6266554683 ; 301423.9620688568 ; 26180.000000000004
111 ; 25927.614047579984 ; 2740.217836989599 ; 2573322.479517621 ; 304164.1799058464 ; 26418.000000000004
112 ; 25777.456751165864 ; 2740.217836989599 ; 2599250.093565201 ; 306904.39774283604 ; 26656.000000000004
113 ; 25504.712122700097 ; 2740.217836989599 ; 2625027.550316367 ; 309644.61557982565 ; 26894.000000000004
114 ; 25369.174007700673 ; 2740.217836989599 ; 2650532.262439067 ; 312384.83341681527 ; 27132.000000000004
115 ; 25027.696737378606 ; 2740.217836989599 ; 2675901.4364467678 ; 315125.0512538049 ; 27370.000000000004
116 ; 24976.64084949019 ; 2740.217836989599 ; 2700929.1331841466 ; 317865.2690907945 ; 27608.000000000004
117 ; 24616.732150344287 ; 2740.217836989599 ; 2725905.774033637 ; 320605.4869277841 ; 27846.000000000004
118 ; 24574.71113248482 ; 2740.217836989599 ; 2750522.506183981 ; 323345.7047647737 ; 28084.000000000004
119 ; 24162.84650127165 ; 2740.217836989599 ; 2775097.217316466 ; 326085.92260176333 ; 28322.000000000004
120 ; 23986.627635295175 ; 2740.217836989599 ; 2799260.0638177376 ; 328826.14043875295 ; 28560.000000000004
121 ; 23893.669735665735 ; 2740.217836989599 ; 2823246.6914530327 ; 331566.35827574256 ; 28798.000000000004
122 ; 23532.109672579667 ; 2740.217836989599 ; 2847140.3611886986 ; 334306.5761127322 ; 29036.000000000004
123 ; 23198.500589177875 ; 2740.217836989599 ; 2870672.470861278 ; 337046.7939497218 ; 29274.000000000004
124 ; 23210.049499959758 ; 2740.217836989599 ; 2893870.971450456 ; 339787.0117867114 ; 29512.000000000004
125 ; 22685.20266054447 ; 2740.217836989599 ; 2917081.0209504156 ; 342527.229623701 ; 29750.000000000004
126 ; 22584.205860157945 ; 2740.217836989599 ; 2939766.22361096 ; 345267.44746069063 ; 29988.000000000004
127 ; 22388.537372683924 ; 2740.217836989599 ; 2962350.429471118 ; 348007.66529768024 ; 30226.000000000004
128 ; 21824.080611596233 ; 2740.217836989599 ; 2984738.966843802 ; 350747.88313466986 ; 30464.000000000004
129 ; 21759.102441960447 ; 2740.217836989599 ; 3006563.0474553984 ; 353488.10097165947 ; 30702.000000000004
130 ; 21709.028281310777 ; 2740.217836989599 ; 3028322.149897359 ; 356228.3188086491 ; 30940.000000000004
131 ; 21155.264871261552 ; 2740.217836989599 ; 3050031.1781786694 ; 358968.5366456387 ; 31178.000000000004
132 ; 20847.714101100293 ; 2740.217836989599 ; 3071186.443049931 ; 361708.7544826283 ; 31416.000000000004
133 ; 20557.609934893877 ; 2740.217836989599 ; 3092034.1571510313 ; 364448.9723196179 ; 31654.000000000004
134 ; 20160.861248670582 ; 2740.217836989599 ; 3112591.767085925 ; 367189.19015660754 ; 31892.000000000004
135 ; 19807.52246988689 ; 2740.217836989599 ; 3132752.628334596 ; 369929.40799359715 ; 32130.000000000004
136 ; 19500.04224385111 ; 2740.217836989599 ; 3152560.150804483 ; 372669.62583058677 ; 32368.000000000004
137 ; 19166.170049650158 ; 2740.217836989599 ; 3172060.1930483337 ; 375409.8436675764 ; 32606.000000000004
138 ; 18755.72372391999 ; 2740.217836989599 ; 3191226.363097984 ; 378150.061504566 ; 32844.00000000001
139 ; 18676.263525077535 ; 2740.217836989599 ; 3209982.086821904 ; 380890.2793415556 ; 33082.00000000001
140 ; 18050.192059391193 ; 2740.217836989599 ; 3228658.3503469815 ; 383630.4971785452 ; 33320.00000000001
141 ; 17653.969039406904 ; 2740.217836989599 ; 3246708.5424063727 ; 386370.71501553484 ; 33558.00000000001
142 ; 17626.113653837187 ; 2740.217836989599 ; 3264362.51144578 ; 389110.93285252445 ; 33796.00000000001
143 ; 17042.00357810427 ; 2740.217836989599 ; 3281988.625099617 ; 391851.15068951406 ; 34034.00000000001
144 ; 16652.35483185826 ; 2740.217836989599 ; 3299030.628677721 ; 394591.3685265037 ; 34272.00000000001
145 ; 16496.816935267343 ; 2740.217836989599 ; 3315682.983509579 ; 397331.5863634933 ; 34510.00000000001
146 ; 16360.384492825628 ; 2740.217836989599 ; 3332179.8004448465 ; 400071.8042004829 ; 34748.00000000001
147 ; 16363.322380414322 ; 2740.217836989599 ; 3348540.184937672 ; 402812.0220374725 ; 34986.00000000001
148 ; 16033.066808867296 ; 2740.217836989599 ; 3364903.5073180865 ; 405552.23987446213 ; 35224.00000000001
149 ; 16294.794845044353 ; 2740.217836989599 ; 3380936.5741269537 ; 408292.45771145175 ; 35462.00000000001
150 ; 16169.9171294666 ; 2740.217836989599 ; 3397231.368971998 ; 411032.67554844136 ; 35700.00000000001
151 ; 15901.91685732508 ; 2740.217836989599 ; 3413401.2861014646 ; 413772.893385431 ; 35938.00000000001
152 ; 15580.147604845102 ; 2740.217836989599 ; 3429303.2029587897 ; 416513.1112224206 ; 36176.00000000001
153 ; 15662.56500747723 ; 2740.217836989599 ; 3444883.3505636347 ; 419253.3290594102 ; 36414.00000000001
154 ; 15432.93525774837 ; 2740.217836989599 ; 3460545.9155711117 ; 421993.5468963998 ; 36652.00000000001
155 ; 15488.908175248498 ; 2740.217836989599 ; 3475978.85082886 ; 424733.7647333894 ; 36890.00000000001
156 ; 15225.060399131266 ; 2740.217836989599 ; 3491467.7590041086 ; 427473.98257037904 ; 37128.00000000001
157 ; 15109.665287387399 ; 2740.217836989599 ; 3506692.81940324 ; 430214.20040736865 ; 37366.00000000001
158 ; 15173.828270039843 ; 2740.217836989599 ; 3521802.4846906275 ; 432954.41824435827 ; 37604.00000000001
159 ; 14848.28636465913 ; 2740.217836989599 ; 3536976.3129606675 ; 435694.6360813479 ; 37842.00000000001
160 ; 14777.909407461038 ; 2740.217836989599 ; 3551824.5993253267 ; 438434.8539183375 ; 38080.00000000001
161 ; 14557.026330996754 ; 2740.217836989599 ; 3566602.508732788 ; 441175.0717553271 ; 38318.00000000001
162 ; 14541.226506942709 ; 2740.217836989599 ; 3581159.5350637846 ; 443915.2895923167 ; 38556.00000000001
163 ; 14279.096268005793 ; 2740.217836989599 ; 3595700.7615707275 ; 446655.50742930634 ; 38794.00000000001
164 ; 14259.948266399959 ; 2740.217836989599 ; 3609979.857838733 ; 449395.72526629595 ; 39032.00000000001
165 ; 13979.266193088159 ; 2740.217836989599 ; 3624239.806105133 ; 452135.94310328556 ; 39270.00000000001
166 ; 13912.452555511823 ; 2740.217836989599 ; 3638219.0722982213 ; 454876.1609402752 ; 39508.00000000001
167 ; 13730.929129244336 ; 2740.217836989599 ; 3652131.524853733 ; 457616.3787772648 ; 39746.00000000001
168 ; 13437.936910800743 ; 2740.217836989599 ; 3665862.453982977 ; 460356.5966142544 ; 39984.00000000001
169 ; 13336.362186646795 ; 2740.217836989599 ; 3679300.390893778 ; 463096.814451244 ; 40222.00000000001
170 ; 13072.860051205604 ; 2740.217836989599 ; 3692636.753080425 ; 465837.03228823363 ; 40460.00000000001
171 ; 13220.84840593601 ; 2740.217836989599 ; 3705709.6131316302 ; 468577.25012522325 ; 40698.00000000001
172 ; 12925.072683218792 ; 2740.217836989599 ; 3718930.461537566 ; 471317.46796221286 ; 40936.00000000001
173 ; 12710.612922659036 ; 2740.217836989599 ; 3731855.534220785 ; 474057.6857992025 ; 41174.00000000001
174 ; 12855.972230565516 ; 2740.217836989599 ; 3744566.147143444 ; 476797.9036361921 ; 41412.00000000001
175 ; 12800.612531058418 ; 2740.217836989599 ; 3757422.11937401 ; 479538.1214731817 ; 41650.00000000001
176 ; 12794.251343844642 ; 2740.217836989599 ; 3770222.7319050683 ; 482278.3393101713 ; 41888.00000000001
177 ; 13064.384149015626 ; 2740.217836989599 ; 3783016.9832489127 ; 485018.55714716093 ; 42126.00000000001
178 ; 12797.820545999135 ; 2740.217836989599 ; 3796081.367397928 ; 487758.77498415054 ; 42364.00000000001
179 ; 12783.932833463428 ; 2740.217836989599 ; 3808879.1879439275 ; 490498.99282114016 ; 42602.00000000001
180 ; 12982.812434170757 ; 2740.217836989599 ; 3821663.120777391 ; 493239.21065812977 ; 42840.00000000001
181 ; 12802.523884731903 ; 2740.217836989599 ; 3834645.9332115618 ; 495979.4284951194 ; 43078.00000000001
182 ; 13009.899094790235 ; 2740.217836989599 ; 3847448.4570962936 ; 498719.646332109 ; 43316.00000000001
183 ; 13300.088213212297 ; 2740.217836989599 ; 3860458.356191084 ; 501459.8641690986 ; 43554.00000000001
184 ; 13176.918667479658 ; 2740.217836989599 ; 3873758.444404296 ; 504200.0820060882 ; 43792.00000000001
185 ; 13065.840860558294 ; 2740.217836989599 ; 3886935.363071776 ; 506940.29984307784 ; 44030.00000000001
186 ; 13188.121825143346 ; 2740.217836989599 ; 3900001.203932334 ; 509680.51768006745 ; 44268.00000000001
