CSV File for the City 3 on Day 127
1 - Minute m 
2 - Power Consumed at minute m 
3 - Power Produced at minute m 
4 - Energy Consumed since the beginning of the day 
5 - Energy Produced since the beginning of the day 
6 - Energy Lost since the beginning of the day on lines starting from the city
 
0 ; 8350.481566635402 ; 100326.6099707336 ; 0.0 ; 0.0 ; 0.0
1 ; 8706.754797454401 ; 99985.77009653696 ; 8350.481566635402 ; 100326.6099707336 ; 0.0
2 ; 9029.856725452775 ; 99679.75017815077 ; 17057.236364089804 ; 200312.38006727054 ; 0.0
3 ; 9344.685494456713 ; 99408.89518895274 ; 26087.093089542577 ; 299992.1302454213 ; 0.0
4 ; 9660.015215282085 ; 99173.5139523624 ; 35431.77858399929 ; 399401.02543437405 ; 0.0
5 ; 9887.665269868117 ; 98973.8775441287 ; 45091.79379928137 ; 498574.53938673646 ; 0.0
6 ; 10140.676158755314 ; 98810.21786496683 ; 54979.45906914948 ; 597548.4169308651 ; 0.0
7 ; 10380.532284683779 ; 98682.7264008832 ; 65120.13522790479 ; 696358.634795832 ; 0.0
8 ; 10687.088005863123 ; 98591.55318657422 ; 75500.66751258857 ; 795041.3611967152 ; 0.0
9 ; 10875.753421346964 ; 98536.80598499335 ; 86187.75551845168 ; 893632.9143832894 ; 0.0
10 ; 11197.646489820541 ; 98518.5496936021 ; 97063.50893979864 ; 992169.7203682828 ; 0.0
11 ; 11285.594911308603 ; 98536.80598499335 ; 108261.15542961919 ; 1090688.2700618848 ; 0.0
12 ; 11693.876077256264 ; 98591.55318657422 ; 119546.7503409278 ; 1189225.076046878 ; 0.0
13 ; 12043.529979837236 ; 98682.7264008832 ; 131240.62641818405 ; 1287816.6292334523 ; 0.0
14 ; 12280.875076288256 ; 98810.21786496673 ; 143284.1563980213 ; 1386499.3556343354 ; 0.0
15 ; 12363.599126889709 ; 98973.8775441287 ; 155565.03147430957 ; 1485309.5734993021 ; 0.0
16 ; 12668.14072274699 ; 99173.5139523624 ; 167928.6306011993 ; 1584283.451043431 ; 0.0
17 ; 12795.220709205796 ; 99408.89518895265 ; 180596.77132394628 ; 1683456.9649957933 ; 0.0
18 ; 13124.175795273626 ; 99679.75017815086 ; 193391.99203315208 ; 1782865.8601847459 ; 0.0
19 ; 13298.50640209511 ; 99985.77009653696 ; 206516.1678284257 ; 1882545.6103628967 ; 0.0
20 ; 13563.016742102574 ; 100326.60997073368 ; 219814.67423052082 ; 1982531.3804594337 ; 0.0
21 ; 13782.889490944503 ; 100701.89042655389 ; 233377.6909726234 ; 2082857.9904301674 ; 0.0
22 ; 13986.009150821086 ; 101111.1995694734 ; 247160.5804635679 ; 2183559.880856721 ; 0.0
23 ; 14417.72898253269 ; 101554.09497552672 ; 261146.58961438897 ; 2284671.0804261947 ; 0.0
24 ; 14442.844077194064 ; 102030.10577132284 ; 275564.3185969217 ; 2386225.1754017216 ; 0.0
25 ; 14543.148259132344 ; 102538.73478185924 ; 290007.16267411574 ; 2488255.2811730443 ; 0.0
26 ; 14664.22052743349 ; 103079.46072514275 ; 304550.3109332481 ; 2590794.015954904 ; 0.0
27 ; 14949.82839990037 ; 103651.74043328807 ; 319214.5314606816 ; 2693873.4766800464 ; 0.0
28 ; 15147.53843604006 ; 104255.01108070134 ; 334164.3598605819 ; 2797525.2171133347 ; 0.0
29 ; 15382.660944936248 ; 104888.69240114637 ; 349311.898296622 ; 2901780.228194036 ; 0.0
30 ; 15676.884095056355 ; 105552.18887686613 ; 364694.55924155825 ; 3006668.9205951826 ; 0.0
31 ; 15616.41594462115 ; 106244.89188447139 ; 380371.4433366146 ; 3112221.1094720485 ; 0.0
32 ; 15932.737640359508 ; 106966.18178394284 ; 395987.8592812357 ; 3218466.0013565198 ; 0.0
33 ; 16180.975852687629 ; 107715.42993879798 ; 411920.5969215952 ; 3325432.1831404627 ; 0.0
34 ; 16210.910649979678 ; 108492.00065719883 ; 428101.57277428283 ; 3433147.6130792606 ; 0.0
35 ; 16537.285197434197 ; 109295.25304549001 ; 444312.4834242625 ; 3541639.6137364595 ; 0.0
36 ; 16535.670463369777 ; 110124.54276732431 ; 460849.7686216967 ; 3650934.8667819495 ; 0.0
37 ; 16731.26679040156 ; 110979.22370313376 ; 477385.43908506643 ; 3761059.409549274 ; 0.0
38 ; 16894.896804376345 ; 111858.64950620817 ; 494116.705875468 ; 3872038.633252408 ; 0.0
39 ; 17111.336688167965 ; 112762.17505304317 ; 511011.6026798443 ; 3983897.282758616 ; 0.0
40 ; 17209.873375511408 ; 113689.1577868948 ; 528122.9393680122 ; 4096659.457811659 ; 0.0
41 ; 17406.144012231423 ; 114638.9589546299 ; 545332.8127435236 ; 4210348.615598554 ; 0.0
42 ; 17465.717666130615 ; 115610.94473797642 ; 562738.956755755 ; 4324987.574553183 ; 0.0
43 ; 17826.966533243663 ; 116604.48728116459 ; 580204.6744218856 ; 4440598.51929116 ; 0.0
44 ; 17741.918821424606 ; 117618.96561770554 ; 598031.6409551293 ; 4557203.006572324 ; 0.0
45 ; 17862.34434775939 ; 118653.7664996834 ; 615773.5597765539 ; 4674821.972190029 ; 0.0
46 ; 18127.472705401757 ; 119708.28513345249 ; 633635.9041243133 ; 4793475.738689712 ; 0.0
47 ; 18243.46073043048 ; 120781.92582603102 ; 651763.376829715 ; 4913184.023823164 ; 0.0
48 ; 18220.95916310461 ; 121874.10254678637 ; 670006.8375601454 ; 5033965.949649195 ; 0.0
49 ; 18396.353135838006 ; 122984.23940921632 ; 688227.7967232501 ; 5155840.052195981 ; 0.0
50 ; 18428.33886850353 ; 124111.7710777603 ; 706624.1498590881 ; 5278824.291605198 ; 0.0
51 ; 18634.452447675598 ; 125256.14310463029 ; 725052.4887275917 ; 5402936.062682958 ; 0.0
52 ; 18622.314753395134 ; 126416.81220164617 ; 743686.9411752673 ; 5528192.205787589 ; 0.0
53 ; 18888.329670226092 ; 127593.24645200225 ; 762309.2559286625 ; 5654609.017989235 ; 0.0
54 ; 18851.980987793464 ; 128784.92546678748 ; 781197.5855988886 ; 5782202.264441237 ; 0.0
55 ; 19057.98363848629 ; 129991.34049094238 ; 800049.566586682 ; 5910987.189908024 ; 0.0
56 ; 19166.491320974143 ; 131211.9944631686 ; 819107.5502251682 ; 6040978.530398967 ; 0.0
57 ; 19138.947673632243 ; 132446.40203411208 ; 838274.0415461424 ; 6172190.524862136 ; 0.0
58 ; 19272.337221249625 ; 133694.0895469352 ; 857412.9892197747 ; 6304636.926896248 ; 0.0
59 ; 19400.17019445021 ; 134954.5949841725 ; 876685.3264410243 ; 6438331.016443184 ; 0.0
60 ; 19386.936592277027 ; 136227.46788453578 ; 896085.4966354745 ; 6573285.6114273565 ; 0.0
61 ; 19662.270692952272 ; 137512.2692331063 ; 915472.4332277515 ; 6709513.079311892 ; 0.0
62 ; 19631.462329433984 ; 138808.57132811905 ; 935134.7039207038 ; 6847025.348544999 ; 0.0
63 ; 19645.770675497875 ; 140115.95762731714 ; 954766.1662501378 ; 6985833.919873118 ; 0.0
64 ; 19685.833594656062 ; 141434.02257663035 ; 974411.9369256357 ; 7125949.877500435 ; 0.0
65 ; 19661.168386884154 ; 142762.371423717 ; 994097.7705202918 ; 7267383.900077065 ; 0.0
66 ; 19806.39838491088 ; 144100.6200186975 ; 1013758.9389071759 ; 7410146.271500782 ; 0.0
67 ; 19857.993567034846 ; 145448.39460420943 ; 1033565.3372920868 ; 7554246.891519479 ; 0.0
68 ; 19878.084179786576 ; 146805.3315967263 ; 1053423.3308591216 ; 7699695.286123689 ; 0.0
69 ; 20068.839330330353 ; 148171.07736089773 ; 1073301.4150389081 ; 7846500.617720416 ; 0.0
70 ; 19996.592415502237 ; 149545.28797850653 ; 1093370.2543692384 ; 7994671.695081313 ; 0.0
71 ; 20034.29819332036 ; 150927.62901347352 ; 1113366.8467847407 ; 8144216.98305982 ; 0.0
72 ; 19950.16947507553 ; 152317.77527419792 ; 1133401.144978061 ; 8295144.612073293 ; 0.0
73 ; 20060.2852235846 ; 153715.4105743819 ; 1153351.3144531366 ; 8447462.387347491 ; 0.0
74 ; 20137.665106271408 ; 155120.22749336058 ; 1173411.5996767213 ; 8601177.797921874 ; 0.0
75 ; 20201.04029444223 ; 156531.92713684277 ; 1193549.2647829927 ; 8756298.025415234 ; 0.0
76 ; 20225.650458071377 ; 157950.21889885876 ; 1213750.305077435 ; 8912829.952552076 ; 0.0
77 ; 20208.931131901318 ; 159374.82022561264 ; 1233975.9555355064 ; 9070780.171450935 ; 0.0
78 ; 20143.90811042419 ; 160805.45638184735 ; 1254184.8866674076 ; 9230154.991676548 ; 0.0
79 ; 20151.5779812072 ; 162241.86022024576 ; 1274328.7947778318 ; 9390960.448058397 ; 0.0
80 ; 20258.251552777605 ; 163683.7719543196 ; 1294480.372759039 ; 9553202.308278643 ; 0.0
81 ; 20225.119208970107 ; 165130.9389351663 ; 1314738.6243118166 ; 9716886.080232963 ; 0.0
82 ; 20153.04128467347 ; 166583.11543241557 ; 1334963.7435207868 ; 9882017.01916813 ; 0.0
83 ; 20146.4688926292 ; 168040.06241963053 ; 1355116.7848054601 ; 1.0048600134600544E7 ; 0.0
84 ; 20245.88725750145 ; 169501.54736437896 ; 1375263.2536980894 ; 1.0216640197020175E7 ; 0.0
85 ; 20104.792587292344 ; 170967.3440231457 ; 1395509.1409555909 ; 1.0386141744384553E7 ; 0.0
86 ; 20117.5042689609 ; 172437.2322412174 ; 1415613.9335428833 ; 1.0557109088407699E7 ; 0.0
87 ; 20093.905004234515 ; 173910.99775763575 ; 1435731.437811844 ; 1.0729546320648916E7 ; 0.0
88 ; 20077.142795405256 ; 175388.43201528295 ; 1455825.3428160786 ; 1.0903457318406552E7 ; 0.0
89 ; 19940.60585580067 ; 176869.33197613774 ; 1475902.485611484 ; 1.1078845750421835E7 ; 0.0
90 ; 20047.029995049346 ; 178353.49994171216 ; 1495843.0914672846 ; 1.1255715082397973E7 ; 0.0
91 ; 20032.028313156738 ; 179840.7433786617 ; 1515890.121462334 ; 1.1434068582339685E7 ; 0.0
92 ; 19860.700903710058 ; 181330.87474954058 ; 1535922.1497754906 ; 1.1613909325718347E7 ; 0.0
93 ; 19632.393413300128 ; 182823.7113486578 ; 1555782.8506792006 ; 1.1795240200467888E7 ; 0.0
94 ; 19728.776042284284 ; 184319.075142977 ; 1575415.2440925008 ; 1.1978063911816547E7 ; 0.0
95 ; 19758.32537160328 ; 185816.79261798994 ; 1595144.020134785 ; 1.2162382986959524E7 ; 0.0
96 ; 19671.32822709242 ; 187316.69462848338 ; 1614902.3455063882 ; 1.2348199779577514E7 ; 0.0
97 ; 19700.9271399702 ; 188818.6162541117 ; 1634573.6737334807 ; 1.2535516474205997E7 ; 0.0
98 ; 19542.335606943023 ; 190322.39665967977 ; 1654274.600873451 ; 1.2724335090460109E7 ; 0.0
99 ; 19419.960767254997 ; 191827.87896003414 ; 1673816.936480394 ; 1.2914657487119788E7 ; 0.0
100 ; 19354.941581982475 ; 193334.91008945825 ; 1693236.897247649 ; 1.3106485366079822E7 ; 0.0
101 ; 19393.95107157237 ; 194843.34067546084 ; 1712591.8388296315 ; 1.329982027616928E7 ; 0.0
102 ; 19252.94676748927 ; 196353.02491684706 ; 1731985.7899012037 ; 1.349466361684474E7 ; 0.0
103 ; 19064.885363931637 ; 197863.82046595745 ; 1751238.736668693 ; 1.3691016641761586E7 ; 0.0
104 ; 19134.20327345936 ; 199375.58831496013 ; 1770303.6220326244 ; 1.3888880462227544E7 ; 0.0
105 ; 19017.343363144704 ; 200888.19268608105 ; 1789437.8253060838 ; 1.4088256050542504E7 ; 0.0
106 ; 18930.942048073273 ; 202401.50092565655 ; 1808455.1686692284 ; 1.4289144243228585E7 ; 0.0
107 ; 18743.108534782652 ; 203915.3834018932 ; 1827386.1107173017 ; 1.4491545744154241E7 ; 0.0
108 ; 18701.091013742804 ; 205429.71340622057 ; 1846129.2192520844 ; 1.4695461127556134E7 ; 0.0
109 ; 18597.92831340896 ; 206944.36705812454 ; 1864830.3102658272 ; 1.4900890840962354E7 ; 0.0
110 ; 18423.657298139315 ; 208459.22321334903 ; 1883428.2385792362 ; 1.5107835208020478E7 ; 0.0
111 ; 18354.364264377702 ; 209974.1633753574 ; 1901851.8958773755 ; 1.5316294431233827E7 ; 0.0
112 ; 18249.638901864335 ; 211489.07160994463 ; 1920206.2601417531 ; 1.5526268594609184E7 ; 0.0
113 ; 17999.884640773926 ; 213003.83446289576 ; 1938455.8990436175 ; 1.5737757666219128E7 ; 0.0
114 ; 17938.205390346124 ; 214518.34088058668 ; 1956455.7836843915 ; 1.5950761500682024E7 ; 0.0
115 ; 17845.29585160247 ; 216032.48213342688 ; 1974393.9890747378 ; 1.616527984156261E7 ; 0.0
116 ; 17661.924822550987 ; 217546.15174204524 ; 1992239.2849263402 ; 1.6381312323696038E7 ; 0.0
117 ; 17676.49143891987 ; 219059.24540612366 ; 2009901.2097488912 ; 1.6598858475438083E7 ; 0.0
118 ; 17449.82301344214 ; 220571.66093578417 ; 2027577.701187811 ; 1.6817917720844205E7 ; 0.0
119 ; 17271.040404889904 ; 222083.29818544062 ; 2045027.5242012532 ; 1.703848938177999E7 ; 0.0
120 ; 17225.62370014363 ; 223594.05899002528 ; 2062298.5646061432 ; 1.7260572679965433E7 ; 0.0
121 ; 16961.831163519193 ; 225103.84710350583 ; 2079524.1883062867 ; 1.7484166738955457E7 ; 0.0
122 ; 16826.787879373143 ; 226612.56813961014 ; 2096486.019469806 ; 1.7709270586058963E7 ; 0.0
123 ; 16857.932510719384 ; 228120.12951467815 ; 2113312.807349179 ; 1.7935883154198572E7 ; 0.0
124 ; 16432.80287780894 ; 229626.44039256393 ; 2130170.739859898 ; 1.816400328371325E7 ; 0.0
125 ; 16333.954914423337 ; 231131.41163151266 ; 2146603.542737707 ; 1.8393629724105816E7 ; 0.0
126 ; 16167.377633497348 ; 232634.95573293974 ; 2162937.49765213 ; 1.862476113573733E7 ; 0.0
127 ; 16005.999520359795 ; 234136.9867920426 ; 2179104.8752856273 ; 1.8857396091470268E7 ; 0.0
128 ; 15840.791483333343 ; 235637.42045017757 ; 2195110.8748059873 ; 1.909153307826231E7 ; 0.0
129 ; 15747.10110546316 ; 237136.1738489357 ; 2210951.6662893207 ; 1.9327170498712488E7 ; 0.0
130 ; 15415.586520246568 ; 238633.16558585566 ; 2226698.767394784 ; 1.9564306672561422E7 ; 0.0
131 ; 15356.816216914272 ; 240128.31567171257 ; 2242114.3539150306 ; 1.980293983814728E7 ; 0.0
132 ; 15090.756142265356 ; 241621.54548932385 ; 2257471.170131945 ; 2.004306815381899E7 ; 0.0
133 ; 14990.51823433825 ; 243112.77775381636 ; 2272561.92627421 ; 2.0284689699308313E7 ; 0.0
134 ; 14613.68782942473 ; 244601.93647429987 ; 2287552.4445085484 ; 2.052780247706213E7 ; 0.0
135 ; 14541.853961997413 ; 246088.94691689525 ; 2302166.132337973 ; 2.077240441353643E7 ; 0.0
136 ; 14501.19086163639 ; 247573.73556906587 ; 2316707.98629997 ; 2.1018493360453326E7 ; 0.0
137 ; 14159.837879283517 ; 249056.2301052048 ; 2331209.1771616065 ; 2.1266067096022394E7 ; 0.0
138 ; 13894.758495433469 ; 250536.35935343034 ; 2345369.01504089 ; 2.15151233261276E7 ; 0.0
139 ; 13686.433225746592 ; 252014.0532635453 ; 2359263.773536323 ; 2.176565968548103E7 ; 0.0
140 ; 13542.260077290524 ; 253489.24287611668 ; 2372950.20676207 ; 2.2017673738744576E7 ; 0.0
141 ; 13128.245954481468 ; 254961.86029263356 ; 2386492.4668393605 ; 2.227116298162069E7 ; 0.0
142 ; 13065.46673584401 ; 256431.83864670433 ; 2399620.712793842 ; 2.2526124841913324E7 ; 0.0
143 ; 12799.268042197062 ; 257899.11207625366 ; 2412686.179529686 ; 2.278255668056003E7 ; 0.0
144 ; 12615.821700587738 ; 259363.61569668245 ; 2425485.447571883 ; 2.3040455792636283E7 ; 0.0
145 ; 12525.416108526848 ; 260825.2855749556 ; 2438101.269272471 ; 2.3299819408332966E7 ; 0.0
146 ; 12333.097874651901 ; 262284.0587045823 ; 2450626.6853809976 ; 2.356064469390792E7 ; 0.0
147 ; 12104.853398422416 ; 263739.87298145704 ; 2462959.7832556497 ; 2.38229287526125E7 ; 0.0
148 ; 12321.937057565203 ; 265192.6671805292 ; 2475064.636654072 ; 2.408666862559396E7 ; 0.0
149 ; 12164.433077214662 ; 266642.38093327003 ; 2487386.5737116374 ; 2.435186129277449E7 ; 0.0
150 ; 12114.932038969422 ; 268088.9547059088 ; 2499551.006788852 ; 2.461850367370776E7 ; 0.0
151 ; 12030.050675985342 ; 269532.3297784095 ; 2511665.9388278215 ; 2.488659262841367E7 ; 0.0
152 ; 11820.335886448502 ; 270972.44822416105 ; 2523695.989503807 ; 2.515612495819208E7 ; 0.0
153 ; 11873.466784829683 ; 272409.25289035443 ; 2535516.3253902555 ; 2.542709740641624E7 ; 0.0
154 ; 11797.46904886249 ; 273842.6873790227 ; 2547389.7921750853 ; 2.5699506659306597E7 ; 0.0
155 ; 11731.933760803446 ; 275272.69602871937 ; 2559187.2612239476 ; 2.597334934668562E7 ; 0.0
156 ; 11446.814003716112 ; 276699.22389681154 ; 2570919.1949847513 ; 2.624862204271434E7 ; 0.0
157 ; 11432.985823669227 ; 278122.216742366 ; 2582366.0089884675 ; 2.652532126661115E7 ; 0.0
158 ; 11256.332779275512 ; 279541.6210096071 ; 2593798.9948121365 ; 2.6803443483353518E7 ; 0.0
159 ; 11272.578870755224 ; 280957.38381192536 ; 2605055.3275914122 ; 2.7082985104363125E7 ; 0.0
160 ; 11115.01001919057 ; 282369.452916417 ; 2616327.9064621674 ; 2.736394248817505E7 ; 0.0
161 ; 11036.19112688653 ; 283777.776728936 ; 2627442.916481358 ; 2.7646311941091467E7 ; 0.0
162 ; 10923.320000108564 ; 285182.30427963973 ; 2638479.1076082448 ; 2.7930089717820402E7 ; 0.0
163 ; 10783.341255964864 ; 286582.98520901037 ; 2649402.427608353 ; 2.8215272022100043E7 ; 0.0
164 ; 10642.333419714949 ; 287979.7697543364 ; 2660185.768864318 ; 2.8501855007309053E7 ; 0.0
165 ; 10731.474809690579 ; 289372.60873663623 ; 2670828.102284033 ; 2.878983477706339E7 ; 0.0
166 ; 10497.065506858451 ; 290761.4535480101 ; 2681559.577093723 ; 2.9079207385800026E7 ; 0.0
167 ; 10443.477254737014 ; 292146.25613940286 ; 2692056.6426005815 ; 2.9369968839348037E7 ; 0.0
168 ; 10376.246810025012 ; 293526.969008766 ; 2702500.1198553187 ; 2.966211509548744E7 ; 0.0
169 ; 10224.484912836433 ; 294903.54518960236 ; 2712876.3666653438 ; 2.9955642064496204E7 ; 0.0
170 ; 10131.177832546793 ; 296275.9382398816 ; 2723100.85157818 ; 3.025054560968581E7 ; 0.0
171 ; 10055.333096863484 ; 297644.1022313132 ; 2733232.029410727 ; 3.054682154792569E7 ; 0.0
172 ; 9999.605678202794 ; 299007.99173896475 ; 2743287.3625075906 ; 3.0844465650157E7 ; 0.0
173 ; 9825.375891291204 ; 300367.5618312122 ; 2753286.968185793 ; 3.1143473641895965E7 ; 0.0
174 ; 9788.829072212953 ; 301722.7680600131 ; 2763112.344077084 ; 3.144384120372718E7 ; 0.0
175 ; 9915.579965519666 ; 303073.56645148963 ; 2772901.173149297 ; 3.1745563971787192E7 ; 0.0
176 ; 9831.668711640235 ; 304419.9134968109 ; 2782816.7531148167 ; 3.204863753823868E7 ; 0.0
177 ; 9916.458301867257 ; 305761.76614336594 ; 2792648.421826457 ; 3.2353057451735493E7 ; 0.0
178 ; 9874.749017457269 ; 307099.08178621525 ; 2802564.8801283245 ; 3.265881921787886E7 ; 0.0
179 ; 9866.8029944511 ; 308431.8182598133 ; 2812439.629145782 ; 3.2965918299665075E7 ; 0.0
180 ; 10017.645288669723 ; 309759.93382999126 ; 2822306.432140233 ; 3.3274350117924888E7 ; 0.0
181 ; 9845.934319929072 ; 311083.38718619256 ; 2832324.0774289025 ; 3.358411005175488E7 ; 0.0
182 ; 9913.488300936691 ; 312402.13743395125 ; 2842170.0117488317 ; 3.389519343894107E7 ; 0.0
183 ; 9951.41208040385 ; 313716.14408760646 ; 2852083.5000497685 ; 3.420759557637502E7 ; 0.0
184 ; 10073.139465865723 ; 315025.36706324376 ; 2862034.9121301724 ; 3.452131172046263E7 ; 0.0
185 ; 10048.028942728422 ; 316329.76667185704 ; 2872108.051596038 ; 3.4836337087525874E7 ; 0.0
186 ; 9919.780610063972 ; 317629.3036127226 ; 2882156.0805387665 ; 3.515266685419773E7 ; 0.0
187 ; 9930.847846562727 ; 318923.9389669786 ; 2892075.8611488305 ; 3.547029615781046E7 ; 0.0
188 ; 10140.605245987792 ; 320213.6341914032 ; 2902006.708995393 ; 3.578922009677744E7 ; 0.0
189 ; 9815.684947497177 ; 321498.3511123852 ; 2912147.314241381 ; 3.610943373096884E7 ; 0.0
190 ; 9862.554919130673 ; 322778.0519200803 ; 2921962.999188878 ; 3.643093208208123E7 ; 0.0
191 ; 9901.849977111557 ; 324052.69916274666 ; 2931825.5541080087 ; 3.675371013400131E7 ; 0.0
192 ; 9859.005094985418 ; 325322.2557412548 ; 2941727.40408512 ; 3.707776283316405E7 ; 0.0
193 ; 9927.5985477041 ; 326586.6849037649 ; 2951586.4091801057 ; 3.7403085088905305E7 ; 0.0
194 ; 9990.869046069573 ; 327845.95024056797 ; 2961514.0077278097 ; 3.772967177380907E7 ; 0.0
195 ; 9934.461026443143 ; 329100.0156790829 ; 2971504.8767738794 ; 3.8057517724049635E7 ; 0.0
196 ; 10028.028899885023 ; 330348.8454790067 ; 2981439.3378003226 ; 3.838661773972872E7 ; 0.0
197 ; 9857.101751950526 ; 331592.4042276124 ; 2991467.366700208 ; 3.871696658520772E7 ; 0.0
198 ; 9980.46829002567 ; 332830.6568351881 ; 3001324.4684521584 ; 3.904855898943534E7 ; 0.0
199 ; 10009.7162996203 ; 334063.56853061594 ; 3011304.936742184 ; 3.938138964627053E7 ; 0.0
200 ; 10073.494855494178 ; 335291.1048570832 ; 3021314.6530418047 ; 3.971545321480115E7 ; 0.0
201 ; 10074.65397210725 ; 336513.2316679237 ; 3031388.147897299 ; 4.005074431965823E7 ; 0.0
202 ; 10066.9014105137 ; 337729.91512258374 ; 3041462.8018694064 ; 4.038725755132615E7 ; 0.0
203 ; 10123.793816273566 ; 338941.1216827102 ; 3051529.70327992 ; 4.072498746644873E7 ; 0.0
204 ; 10150.595284900694 ; 340146.81810835487 ; 3061653.4970961935 ; 4.106392858813144E7 ; 0.0
205 ; 10258.416248163481 ; 341346.971454294 ; 3071804.092381094 ; 4.14040754062398E7 ; 0.0
206 ; 10199.774857502716 ; 342541.5490664565 ; 3082062.508629258 ; 4.174542237769409E7 ; 0.0
207 ; 10085.484588253126 ; 343730.51857846 ; 3092262.2834867607 ; 4.208796392676055E7 ; 0.0
208 ; 9958.173621399952 ; 344913.8479082499 ; 3102347.768075014 ; 4.243169444533901E7 ; 0.0
209 ; 10167.342343837634 ; 346091.50525483815 ; 3112305.941696414 ; 4.277660829324726E7 ; 0.0
210 ; 10272.124420721508 ; 347263.45909514 ; 3122473.2840402513 ; 4.3122699798502095E7 ; 0.0
211 ; 9949.67922177337 ; 348429.67818090395 ; 3132745.408460973 ; 4.346996325759724E7 ; 0.0
212 ; 10071.49217928132 ; 349590.1315357329 ; 3142695.0876827464 ; 4.381839293577814E7 ; 0.0
