CSV File for the City 1 on Day 116
1 - Minute m 
2 - Power Consumed at minute m 
3 - Power Produced at minute m 
4 - Energy Consumed since the beginning of the day 
5 - Energy Produced since the beginning of the day 
6 - Energy Lost since the beginning of the day on lines starting from the city
 
0 ; 11128.8187404632 ; 21779.767887218957 ; 0.0 ; 0.0 ; 0.0
1 ; 11596.224498279387 ; 21779.767887218957 ; 11128.8187404632 ; 21779.767887218957 ; 238.00000000000003
2 ; 12063.179203413689 ; 21779.767887218957 ; 22725.04323874259 ; 43559.535774437914 ; 476.00000000000006
3 ; 12349.401918940855 ; 21779.767887218957 ; 34788.22244215628 ; 65339.30366165687 ; 714.0000000000001
4 ; 12650.003335114168 ; 21779.767887218957 ; 47137.624361097136 ; 87119.07154887583 ; 952.0000000000001
5 ; 13117.19162034541 ; 21779.767887218957 ; 59787.627696211304 ; 108898.83943609479 ; 1190.0000000000002
6 ; 13297.385504492226 ; 21779.767887218957 ; 72904.8193165567 ; 130678.60732331374 ; 1428.0000000000002
7 ; 13631.727500828796 ; 21779.767887218957 ; 86202.20482104893 ; 152458.3752105327 ; 1666.0000000000002
8 ; 14019.58940289254 ; 21779.767887218957 ; 99833.93232187773 ; 174238.14309775166 ; 1904.0000000000002
9 ; 14274.511645603812 ; 21779.767887218957 ; 113853.52172477027 ; 196017.91098497063 ; 2142.0000000000005
10 ; 14653.328378744283 ; 21779.767887218957 ; 128128.03337037408 ; 217797.6788721896 ; 2380.0000000000005
11 ; 14942.59617488424 ; 21779.767887218957 ; 142781.36174911837 ; 239577.44675940857 ; 2618.0000000000005
12 ; 15233.921150793178 ; 21779.767887218957 ; 157723.9579240026 ; 261357.21464662754 ; 2856.0000000000005
13 ; 15631.148268931565 ; 21779.767887218957 ; 172957.87907479578 ; 283136.9825338465 ; 3094.0000000000005
14 ; 15728.419484338381 ; 21779.767887218957 ; 188589.02734372736 ; 304916.7504210655 ; 3332.0000000000005
15 ; 16242.095371767095 ; 21779.767887218957 ; 204317.44682806573 ; 326696.51830828446 ; 3570.0000000000005
16 ; 16572.725180629757 ; 21779.767887218957 ; 220559.54219983282 ; 348476.28619550343 ; 3808.0000000000005
17 ; 16642.29789567549 ; 21779.767887218957 ; 237132.26738046258 ; 370256.0540827224 ; 4046.0000000000005
18 ; 17163.089313195087 ; 21779.767887218957 ; 253774.56527613808 ; 392035.8219699414 ; 4284.000000000001
19 ; 17476.172523557616 ; 21779.767887218957 ; 270937.65458933316 ; 413815.58985716035 ; 4522.000000000001
20 ; 17681.698594127476 ; 21779.767887218957 ; 288413.8271128908 ; 435595.3577443793 ; 4760.000000000001
21 ; 17962.42775167368 ; 21779.767887218957 ; 306095.52570701827 ; 457375.1256315983 ; 4998.000000000001
22 ; 18304.26987902991 ; 21779.767887218957 ; 324057.95345869195 ; 479154.89351881726 ; 5236.000000000001
23 ; 18694.370624362884 ; 21779.767887218957 ; 342362.22333772184 ; 500934.66140603623 ; 5474.000000000001
24 ; 18733.94361931536 ; 21779.767887218957 ; 361056.59396208473 ; 522714.4292932552 ; 5712.000000000001
25 ; 18874.660788205358 ; 21779.767887218957 ; 379790.5375814001 ; 544494.1971804742 ; 5950.000000000001
26 ; 19122.465974921277 ; 21779.767887218957 ; 398665.1983696054 ; 566273.9650676931 ; 6188.000000000001
27 ; 19391.955204704824 ; 21779.767887218957 ; 417787.6643445267 ; 588053.7329549121 ; 6426.000000000001
28 ; 19789.134771737183 ; 21779.767887218957 ; 437179.61954923155 ; 609833.5008421311 ; 6664.000000000001
29 ; 19884.39775846072 ; 21779.767887218957 ; 456968.75432096876 ; 631613.2687293501 ; 6902.000000000001
30 ; 20072.99884748693 ; 21779.767887218957 ; 476853.1520794295 ; 653393.036616569 ; 7140.000000000001
31 ; 20336.368470311267 ; 21779.767887218957 ; 496926.1509269164 ; 675172.804503788 ; 7378.000000000001
32 ; 20541.958335248033 ; 21779.767887218957 ; 517262.5193972277 ; 696952.572391007 ; 7616.000000000001
33 ; 20961.416634866197 ; 21779.767887218957 ; 537804.4777324757 ; 718732.340278226 ; 7854.000000000001
34 ; 21009.01853545327 ; 21779.767887218957 ; 558765.8943673419 ; 740512.1081654449 ; 8092.000000000001
35 ; 21265.678752228076 ; 21779.767887218957 ; 579774.9129027951 ; 762291.8760526639 ; 8330.000000000002
36 ; 21551.72991479653 ; 21779.767887218957 ; 601040.5916550232 ; 784071.6439398829 ; 8568.000000000002
37 ; 21611.869656065348 ; 21779.767887218957 ; 622592.3215698197 ; 805851.4118271018 ; 8806.000000000002
38 ; 21846.27904037701 ; 21779.767887218957 ; 644204.1912258851 ; 827631.1797143208 ; 9044.000000000002
39 ; 22072.608881617194 ; 21779.767887218957 ; 666050.4702662621 ; 849410.9476015398 ; 9282.000000000002
40 ; 22219.881604529357 ; 21779.767887218957 ; 688123.0791478793 ; 871190.7154887588 ; 9520.000000000002
41 ; 22322.956406803256 ; 21779.767887218957 ; 710342.9607524086 ; 892970.4833759777 ; 9758.000000000002
42 ; 22514.832162344737 ; 21779.767887218957 ; 732665.9171592118 ; 914750.2512631967 ; 9996.000000000002
43 ; 22836.774937690097 ; 21779.767887218957 ; 755180.7493215565 ; 936530.0191504157 ; 10234.000000000002
44 ; 22914.07227897693 ; 21779.767887218957 ; 778017.5242592467 ; 958309.7870376346 ; 10472.000000000002
45 ; 23200.706717077115 ; 21779.767887218957 ; 800931.5965382236 ; 980089.5549248536 ; 10710.000000000002
46 ; 23208.737126299646 ; 21779.767887218957 ; 824132.3032553006 ; 1001869.3228120726 ; 10948.000000000002
47 ; 23489.06399712376 ; 21779.767887218957 ; 847341.0403816003 ; 1023649.0906992916 ; 11186.000000000002
48 ; 23680.005670021063 ; 21779.767887218957 ; 870830.104378724 ; 1045428.8585865105 ; 11424.000000000002
49 ; 23794.170502008772 ; 21779.767887218957 ; 894510.1100487451 ; 1067208.6264737295 ; 11662.000000000002
50 ; 23813.539306854684 ; 21779.767887218957 ; 918304.2805507538 ; 1088988.3943609484 ; 11900.000000000002
51 ; 24196.221067939357 ; 21779.767887218957 ; 942117.8198576085 ; 1110768.1622481672 ; 12138.000000000002
52 ; 24183.851717109486 ; 21779.767887218957 ; 966314.0409255478 ; 1132547.930135386 ; 12376.000000000002
53 ; 24302.8314067812 ; 21779.767887218957 ; 990497.8926426573 ; 1154327.698022605 ; 12614.000000000002
54 ; 24446.162352107174 ; 21779.767887218957 ; 1014800.7240494385 ; 1176107.4659098238 ; 12852.000000000002
55 ; 24501.387616373413 ; 21779.767887218957 ; 1039246.8864015457 ; 1197887.2337970426 ; 13090.000000000002
56 ; 24801.441495333984 ; 21779.767887218957 ; 1063748.274017919 ; 1219667.0016842615 ; 13328.000000000002
57 ; 24725.79948351211 ; 21779.767887218957 ; 1088549.7155132531 ; 1241446.7695714803 ; 13566.000000000002
58 ; 24884.004041901528 ; 21779.767887218957 ; 1113275.5149967652 ; 1263226.5374586992 ; 13804.000000000002
59 ; 25101.131533319895 ; 21779.767887218957 ; 1138159.5190386667 ; 1285006.305345918 ; 14042.000000000002
60 ; 24989.28195638795 ; 21779.767887218957 ; 1163260.6505719866 ; 1306786.073233137 ; 14280.000000000002
61 ; 24971.243183317467 ; 21779.767887218957 ; 1188249.9325283745 ; 1328565.8411203558 ; 14518.000000000002
62 ; 25389.800304999477 ; 21779.767887218957 ; 1213221.1757116918 ; 1350345.6090075746 ; 14756.000000000002
63 ; 25397.020078846654 ; 21779.767887218957 ; 1238610.9760166914 ; 1372125.3768947935 ; 14994.000000000002
64 ; 25464.014704578083 ; 21779.767887218957 ; 1264007.9960955381 ; 1393905.1447820123 ; 15232.000000000002
65 ; 25479.62225328204 ; 21779.767887218957 ; 1289472.0108001162 ; 1415684.9126692312 ; 15470.000000000002
66 ; 25594.497348167868 ; 21779.767887218957 ; 1314951.6330533982 ; 1437464.68055645 ; 15708.000000000002
67 ; 25766.1047873636 ; 21779.767887218957 ; 1340546.1304015662 ; 1459244.448443669 ; 15946.000000000002
68 ; 25839.287544170315 ; 21779.767887218957 ; 1366312.2351889298 ; 1481024.2163308877 ; 16184.000000000002
69 ; 25745.57001477229 ; 21779.767887218957 ; 1392151.5227331002 ; 1502803.9842181066 ; 16422.000000000004
70 ; 25929.815610374408 ; 21779.767887218957 ; 1417897.0927478725 ; 1524583.7521053255 ; 16660.000000000004
71 ; 25795.681822846123 ; 21779.767887218957 ; 1443826.9083582468 ; 1546363.5199925443 ; 16898.000000000004
72 ; 26014.47537793896 ; 21779.767887218957 ; 1469622.590181093 ; 1568143.2878797632 ; 17136.000000000004
73 ; 25895.80339558185 ; 21779.767887218957 ; 1495637.065559032 ; 1589923.055766982 ; 17374.000000000004
74 ; 26022.3902103284 ; 21779.767887218957 ; 1521532.8689546138 ; 1611702.8236542009 ; 17612.000000000004
75 ; 26133.348040642974 ; 21779.767887218957 ; 1547555.2591649422 ; 1633482.5915414197 ; 17850.000000000004
76 ; 26072.36461624594 ; 21779.767887218957 ; 1573688.607205585 ; 1655262.3594286386 ; 18088.000000000004
77 ; 25853.65541578712 ; 21779.767887218957 ; 1599760.971821831 ; 1677042.1273158574 ; 18326.000000000004
78 ; 26096.52630172549 ; 21779.767887218957 ; 1625614.6272376182 ; 1698821.8952030763 ; 18564.000000000004
79 ; 26164.826779029005 ; 21779.767887218957 ; 1651711.1535393437 ; 1720601.6630902952 ; 18802.000000000004
80 ; 26148.280286338217 ; 21779.767887218957 ; 1677875.9803183728 ; 1742381.430977514 ; 19040.000000000004
81 ; 26026.234552150534 ; 21779.767887218957 ; 1704024.260604711 ; 1764161.1988647329 ; 19278.000000000004
82 ; 26024.0607593933 ; 21779.767887218957 ; 1730050.4951568616 ; 1785940.9667519517 ; 19516.000000000004
83 ; 26082.038097858935 ; 21779.767887218957 ; 1756074.5559162549 ; 1807720.7346391706 ; 19754.000000000004
84 ; 26077.18776691101 ; 21779.767887218957 ; 1782156.5940141138 ; 1829500.5025263894 ; 19992.000000000004
85 ; 26207.131676199493 ; 21779.767887218957 ; 1808233.7817810248 ; 1851280.2704136083 ; 20230.000000000004
86 ; 26078.272570941197 ; 21779.767887218957 ; 1834440.9134572241 ; 1873060.0383008271 ; 20468.000000000004
87 ; 25854.210775142594 ; 21779.767887218957 ; 1860519.1860281653 ; 1894839.806188046 ; 20706.000000000004
88 ; 26179.540881595487 ; 21779.767887218957 ; 1886373.3968033078 ; 1916619.5740752649 ; 20944.000000000004
89 ; 25915.220648123435 ; 21779.767887218957 ; 1912552.9376849034 ; 1938399.3419624837 ; 21182.000000000004
90 ; 25819.142614720742 ; 21779.767887218957 ; 1938468.1583330268 ; 1960179.1098497026 ; 21420.000000000004
91 ; 26032.33939211161 ; 21779.767887218957 ; 1964287.3009477477 ; 1981958.8777369214 ; 21658.000000000004
92 ; 25860.076338361418 ; 21779.767887218957 ; 1990319.6403398593 ; 2003738.6456241403 ; 21896.000000000004
93 ; 25679.390132673467 ; 21779.767887218957 ; 2016179.7166782208 ; 2025518.4135113591 ; 22134.000000000004
94 ; 25482.632804610843 ; 21779.767887218957 ; 2041859.1068108943 ; 2047298.181398578 ; 22372.000000000004
95 ; 25761.525324458657 ; 21779.767887218957 ; 2067341.739615505 ; 2069077.9492857968 ; 22610.000000000004
96 ; 25380.36905385403 ; 21779.767887218957 ; 2093103.2649399638 ; 2090857.7171730157 ; 22848.000000000004
97 ; 25546.70406681362 ; 21779.767887218957 ; 2118483.633993818 ; 2112637.4850602346 ; 23086.000000000004
98 ; 25461.022647139376 ; 21779.767887218957 ; 2144030.3380606314 ; 2134417.2529474534 ; 23324.000000000004
99 ; 25324.09091422906 ; 21779.767887218957 ; 2169491.3607077706 ; 2156197.0208346723 ; 23562.000000000004
100 ; 25331.54831131039 ; 21779.767887218957 ; 2194815.4516219995 ; 2177976.788721891 ; 23800.000000000004
101 ; 25078.196102090034 ; 21779.767887218957 ; 2220146.99993331 ; 2199756.55660911 ; 24038.000000000004
102 ; 25113.884857536264 ; 21779.767887218957 ; 2245225.1960354 ; 2221536.324496329 ; 24276.000000000004
103 ; 24929.602618879668 ; 21779.767887218957 ; 2270339.0808929363 ; 2243316.0923835477 ; 24514.000000000004
104 ; 24936.428569122283 ; 21779.767887218957 ; 2295268.683511816 ; 2265095.8602707665 ; 24752.000000000004
105 ; 24716.305887490355 ; 21779.767887218957 ; 2320205.112080938 ; 2286875.6281579854 ; 24990.000000000004
106 ; 24456.87933449219 ; 21779.767887218957 ; 2344921.4179684287 ; 2308655.3960452043 ; 25228.000000000004
107 ; 24522.03289668143 ; 21779.767887218957 ; 2369378.297302921 ; 2330435.163932423 ; 25466.000000000004
108 ; 24341.8799493233 ; 21779.767887218957 ; 2393900.330199602 ; 2352214.931819642 ; 25704.000000000004
109 ; 24433.29648596663 ; 21779.767887218957 ; 2418242.2101489254 ; 2373994.699706861 ; 25942.000000000004
110 ; 24023.512461323648 ; 21779.767887218957 ; 2442675.506634892 ; 2395774.4675940797 ; 26180.000000000004
111 ; 23986.277419679132 ; 21779.767887218957 ; 2466699.0190962157 ; 2417554.2354812985 ; 26418.000000000004
112 ; 23780.83195582271 ; 21779.767887218957 ; 2490685.296515895 ; 2439334.0033685174 ; 26656.000000000004
113 ; 23548.58485780101 ; 21779.767887218957 ; 2514466.1284717177 ; 2461113.7712557362 ; 26894.000000000004
114 ; 23387.499668984714 ; 21779.767887218957 ; 2538014.7133295187 ; 2482893.539142955 ; 27132.000000000004
115 ; 23190.154784186987 ; 21779.767887218957 ; 2561402.2129985034 ; 2504673.307030174 ; 27370.000000000004
116 ; 23155.96191884302 ; 21779.767887218957 ; 2584592.3677826906 ; 2526453.074917393 ; 27608.000000000004
117 ; 22739.06651133092 ; 21779.767887218957 ; 2607748.3297015335 ; 2548232.8428046117 ; 27846.000000000004
118 ; 22838.858476728496 ; 21779.767887218957 ; 2630487.3962128647 ; 2570012.6106918305 ; 28084.000000000004
119 ; 22558.569862290908 ; 21779.767887218957 ; 2653326.2546895933 ; 2591792.3785790494 ; 28322.000000000004
120 ; 22559.35664509635 ; 21779.767887218957 ; 2675884.824551884 ; 2613572.146466268 ; 28560.000000000004
121 ; 22214.0106550707 ; 21779.767887218957 ; 2698444.1811969806 ; 2635351.914353487 ; 28798.000000000004
122 ; 21935.15974121139 ; 21779.767887218957 ; 2720658.1918520513 ; 2657131.682240706 ; 29036.000000000004
123 ; 21919.19645550499 ; 21779.767887218957 ; 2742593.3515932625 ; 2678911.450127925 ; 29274.000000000004
124 ; 21944.977483868533 ; 21779.767887218957 ; 2764512.5480487677 ; 2700691.2180151436 ; 29512.000000000004
125 ; 21351.65974829314 ; 21779.767887218957 ; 2786457.5255326363 ; 2722470.9859023625 ; 29750.000000000004
126 ; 21164.47012427657 ; 21779.767887218957 ; 2807809.1852809293 ; 2744250.7537895814 ; 29988.000000000004
127 ; 21136.756088994935 ; 21779.767887218957 ; 2828973.6554052057 ; 2766030.5216768 ; 30226.000000000004
128 ; 20839.798104611476 ; 21779.767887218957 ; 2850110.4114942006 ; 2787810.289564019 ; 30464.000000000004
129 ; 20525.609335914236 ; 21779.767887218957 ; 2870950.2095988123 ; 2809590.057451238 ; 30702.000000000004
130 ; 20136.33310044833 ; 21779.767887218957 ; 2891475.8189347265 ; 2831369.825338457 ; 30940.000000000004
131 ; 20175.046213147336 ; 21779.767887218957 ; 2911612.152035175 ; 2853149.5932256756 ; 31178.000000000004
132 ; 19987.358202125837 ; 21779.767887218957 ; 2931787.198248322 ; 2874929.3611128945 ; 31416.000000000004
133 ; 19738.426525478513 ; 21779.767887218957 ; 2951774.556450448 ; 2896709.1290001133 ; 31654.000000000004
134 ; 19356.560296836225 ; 21779.767887218957 ; 2971512.9829759267 ; 2918488.896887332 ; 31892.000000000004
135 ; 19069.105990886696 ; 21779.767887218957 ; 2990869.543272763 ; 2940268.664774551 ; 32130.000000000004
136 ; 18729.28792107928 ; 21779.767887218957 ; 3009938.6492636497 ; 2962048.43266177 ; 32368.000000000004
137 ; 18559.631059147483 ; 21779.767887218957 ; 3028667.937184729 ; 2983828.2005489888 ; 32606.000000000004
138 ; 18389.861116604374 ; 21779.767887218957 ; 3047227.5682438766 ; 3005607.9684362076 ; 32844.00000000001
139 ; 18099.79084387365 ; 21779.767887218957 ; 3065617.429360481 ; 3027387.7363234265 ; 33082.00000000001
140 ; 17677.57332497179 ; 21779.767887218957 ; 3083717.2202043547 ; 3049167.5042106453 ; 33320.00000000001
141 ; 17378.893987710246 ; 21779.767887218957 ; 3101394.7935293266 ; 3070947.272097864 ; 33558.00000000001
142 ; 17179.49483540555 ; 21779.767887218957 ; 3118773.6875170367 ; 3092727.039985083 ; 33796.00000000001
143 ; 16760.49409168306 ; 21779.767887218957 ; 3135953.1823524423 ; 3114506.807872302 ; 34034.00000000001
144 ; 16718.18554343295 ; 21779.767887218957 ; 3152713.6764441254 ; 3136286.5757595208 ; 34272.00000000001
145 ; 16599.90003594732 ; 21779.767887218957 ; 3169431.861987558 ; 3158066.3436467396 ; 34510.00000000001
146 ; 16538.520262786915 ; 21779.767887218957 ; 3186031.7620235053 ; 3179846.1115339585 ; 34748.00000000001
147 ; 16459.93702190404 ; 21779.767887218957 ; 3202570.2822862924 ; 3201625.8794211773 ; 34986.00000000001
148 ; 16230.975095044672 ; 21779.767887218957 ; 3219030.2193081966 ; 3223405.647308396 ; 35224.00000000001
149 ; 16330.485599312562 ; 21779.767887218957 ; 3235261.1944032414 ; 3245185.415195615 ; 35462.00000000001
150 ; 16199.411114699955 ; 21779.767887218957 ; 3251591.680002554 ; 3266965.183082834 ; 35700.00000000001
151 ; 15580.237267892877 ; 21779.767887218957 ; 3267791.091117254 ; 3288744.9509700527 ; 35938.00000000001
152 ; 15720.993173324776 ; 21779.767887218957 ; 3283371.328385147 ; 3310524.7188572716 ; 36176.00000000001
153 ; 15757.159119324966 ; 21779.767887218957 ; 3299092.321558472 ; 3332304.4867444905 ; 36414.00000000001
154 ; 15826.873674050503 ; 21779.767887218957 ; 3314849.4806777965 ; 3354084.2546317093 ; 36652.00000000001
155 ; 15301.917306147214 ; 21779.767887218957 ; 3330676.354351847 ; 3375864.022518928 ; 36890.00000000001
156 ; 15227.58608747835 ; 21779.767887218957 ; 3345978.271657994 ; 3397643.790406147 ; 37128.00000000001
157 ; 15447.880915108928 ; 21779.767887218957 ; 3361205.8577454723 ; 3419423.558293366 ; 37366.00000000001
158 ; 15287.798780239555 ; 21779.767887218957 ; 3376653.7386605814 ; 3441203.3261805847 ; 37604.00000000001
159 ; 15048.892761506055 ; 21779.767887218957 ; 3391941.537440821 ; 3462983.0940678036 ; 37842.00000000001
160 ; 15042.116120950972 ; 21779.767887218957 ; 3406990.430202327 ; 3484762.8619550224 ; 38080.00000000001
161 ; 14994.758420900127 ; 21779.767887218957 ; 3422032.546323278 ; 3506542.6298422413 ; 38318.00000000001
162 ; 14593.786741082391 ; 21779.767887218957 ; 3437027.304744178 ; 3528322.39772946 ; 38556.00000000001
163 ; 14571.996996028744 ; 21779.767887218957 ; 3451621.0914852605 ; 3550102.165616679 ; 38794.00000000001
164 ; 14338.41079989082 ; 21779.767887218957 ; 3466193.0884812893 ; 3571881.933503898 ; 39032.00000000001
165 ; 14432.676531692498 ; 21779.767887218957 ; 3480531.49928118 ; 3593661.7013911167 ; 39270.00000000001
166 ; 14316.464916134555 ; 21779.767887218957 ; 3494964.1758128726 ; 3615441.4692783356 ; 39508.00000000001
167 ; 13972.518569021619 ; 21779.767887218957 ; 3509280.6407290073 ; 3637221.2371655544 ; 39746.00000000001
168 ; 13890.41762419655 ; 21779.767887218957 ; 3523253.159298029 ; 3659001.0050527733 ; 39984.00000000001
169 ; 13541.825130599505 ; 21779.767887218957 ; 3537143.5769222253 ; 3680780.772939992 ; 40222.00000000001
170 ; 13742.570462087922 ; 21779.767887218957 ; 3550685.402052825 ; 3702560.540827211 ; 40460.00000000001
171 ; 13562.02387679183 ; 21779.767887218957 ; 3564427.972514913 ; 3724340.30871443 ; 40698.00000000001
172 ; 13565.617583202178 ; 21779.767887218957 ; 3577989.996391705 ; 3746120.0766016487 ; 40936.00000000001
173 ; 13376.465197403035 ; 21779.767887218957 ; 3591555.613974907 ; 3767899.8444888676 ; 41174.00000000001
174 ; 13176.15818766605 ; 21779.767887218957 ; 3604932.07917231 ; 3789679.6123760864 ; 41412.00000000001
175 ; 13124.472402583871 ; 21779.767887218957 ; 3618108.237359976 ; 3811459.3802633053 ; 41650.00000000001
176 ; 13331.847061671555 ; 21779.767887218957 ; 3631232.7097625597 ; 3833239.148150524 ; 41888.00000000001
177 ; 13216.064184173214 ; 21779.767887218957 ; 3644564.5568242315 ; 3855018.916037743 ; 42126.00000000001
178 ; 13113.544174400344 ; 21779.767887218957 ; 3657780.6210084045 ; 3876798.683924962 ; 42364.00000000001
179 ; 13519.671782261943 ; 21779.767887218957 ; 3670894.1651828047 ; 3898578.4518121807 ; 42602.00000000001
180 ; 13176.15049519901 ; 21779.767887218957 ; 3684413.836965067 ; 3920358.2196993995 ; 42840.00000000001
181 ; 13493.92783302825 ; 21779.767887218957 ; 3697589.987460266 ; 3942137.9875866184 ; 43078.00000000001
182 ; 13379.300733515427 ; 21779.767887218957 ; 3711083.915293294 ; 3963917.7554738373 ; 43316.00000000001
183 ; 13406.884517363307 ; 21779.767887218957 ; 3724463.2160268095 ; 3985697.523361056 ; 43554.00000000001
184 ; 13363.7652047476 ; 21779.767887218957 ; 3737870.100544173 ; 4007477.291248275 ; 43792.00000000001
