CSV File for the City 2 on Day 247
1 - Minute m 
2 - Power Consumed at minute m 
3 - Power Produced at minute m 
4 - Energy Consumed since the beginning of the day 
5 - Energy Produced since the beginning of the day 
6 - Energy Lost since the beginning of the day on lines starting from the city
 
0 ; 5173.112858203061 ; 33038.312175593936 ; 0.0 ; 0.0 ; 0.0
1 ; 5856.921362103972 ; 33038.312175593936 ; 5173.112858203061 ; 33038.312175593936 ; 0.0
2 ; 6321.582990768177 ; 33038.312175593936 ; 11030.034220307032 ; 66076.62435118787 ; 0.0
3 ; 6734.125725445335 ; 33038.312175593936 ; 17351.61721107521 ; 99114.9365267818 ; 0.0
4 ; 7191.916642551136 ; 33038.312175593936 ; 24085.742936520543 ; 132153.24870237574 ; 0.0
5 ; 7715.796352262728 ; 33038.312175593936 ; 31277.65957907168 ; 165191.56087796966 ; 0.0
6 ; 8210.216545943355 ; 33038.312175593936 ; 38993.45593133441 ; 198229.87305356358 ; 0.0
7 ; 8761.797430591698 ; 33038.312175593936 ; 47203.67247727776 ; 231268.1852291575 ; 0.0
8 ; 9166.584182361657 ; 33038.312175593936 ; 55965.469907869454 ; 264306.4974047514 ; 0.0
9 ; 9313.72781290114 ; 33038.312175593936 ; 65132.05409023111 ; 297344.80958034535 ; 0.0
10 ; 9991.056417010497 ; 33038.312175593936 ; 74445.78190313224 ; 330383.12175593927 ; 0.0
11 ; 10480.926138099683 ; 33038.312175593936 ; 84436.83832014274 ; 363421.4339315332 ; 0.0
12 ; 10981.838501489265 ; 33038.312175593936 ; 94917.76445824243 ; 396459.7461071271 ; 0.0
13 ; 11419.222073393614 ; 33038.312175593936 ; 105899.6029597317 ; 429498.05828272103 ; 0.0
14 ; 11879.800798781898 ; 33038.312175593936 ; 117318.82503312531 ; 462536.37045831495 ; 0.0
15 ; 12092.240727219994 ; 33038.312175593936 ; 129198.62583190721 ; 495574.6826339089 ; 0.0
16 ; 12616.465107247084 ; 33038.312175593936 ; 141290.8665591272 ; 528612.9948095029 ; 0.0
17 ; 13098.347049079144 ; 33038.312175593936 ; 153907.3316663743 ; 561651.3069850968 ; 0.0
18 ; 13551.503027155397 ; 33038.312175593936 ; 167005.67871545342 ; 594689.6191606907 ; 0.0
19 ; 13770.960112988345 ; 33038.312175593936 ; 180557.1817426088 ; 627727.9313362846 ; 0.0
20 ; 14381.973931845976 ; 33038.312175593936 ; 194328.14185559715 ; 660766.2435118785 ; 0.0
21 ; 14684.478678432966 ; 33038.312175593936 ; 208710.11578744312 ; 693804.5556874725 ; 0.0
22 ; 14923.862033772351 ; 33038.312175593936 ; 223394.5944658761 ; 726842.8678630664 ; 0.0
23 ; 15379.650734646766 ; 33038.312175593936 ; 238318.45649964843 ; 759881.1800386603 ; 0.0
24 ; 15671.369576375426 ; 33038.312175593936 ; 253698.1072342952 ; 792919.4922142542 ; 0.0
25 ; 16071.434646288228 ; 33038.312175593936 ; 269369.47681067063 ; 825957.8043898481 ; 0.0
26 ; 16586.72908034609 ; 33038.312175593936 ; 285440.91145695886 ; 858996.1165654421 ; 0.0
27 ; 16760.74284304547 ; 33038.312175593936 ; 302027.6405373049 ; 892034.428741036 ; 0.0
28 ; 17018.12900253682 ; 33038.312175593936 ; 318788.38338035037 ; 925072.7409166299 ; 0.0
29 ; 17346.42053735032 ; 33038.312175593936 ; 335806.5123828872 ; 958111.0530922238 ; 0.0
30 ; 17769.848523510675 ; 33038.312175593936 ; 353152.93292023754 ; 991149.3652678177 ; 0.0
31 ; 18074.228766100758 ; 33038.312175593936 ; 370922.7814437482 ; 1024187.6774434117 ; 0.0
32 ; 18441.410709551867 ; 33038.312175593936 ; 388997.010209849 ; 1057225.9896190057 ; 0.0
33 ; 18476.900078950395 ; 33038.312175593936 ; 407438.4209194009 ; 1090264.3017945997 ; 0.0
34 ; 18999.46975176054 ; 33038.312175593936 ; 425915.32099835126 ; 1123302.6139701938 ; 0.0
35 ; 19312.833802688703 ; 33038.312175593936 ; 444914.7907501118 ; 1156340.9261457878 ; 0.0
36 ; 19716.98227555018 ; 33038.312175593936 ; 464227.6245528005 ; 1189379.2383213819 ; 0.0
37 ; 19816.581290247046 ; 33038.312175593936 ; 483944.6068283507 ; 1222417.550496976 ; 0.0
38 ; 20229.199539264457 ; 33038.312175593936 ; 503761.1881185977 ; 1255455.86267257 ; 0.0
39 ; 20330.356959829056 ; 33038.312175593936 ; 523990.38765786216 ; 1288494.174848164 ; 0.0
40 ; 20547.947796280103 ; 33038.312175593936 ; 544320.7446176913 ; 1321532.487023758 ; 0.0
41 ; 20917.91410472559 ; 33038.312175593936 ; 564868.6924139714 ; 1354570.799199352 ; 0.0
42 ; 21211.442490518562 ; 33038.312175593936 ; 585786.606518697 ; 1387609.111374946 ; 0.0
43 ; 21159.479732780066 ; 33038.312175593936 ; 606998.0490092156 ; 1420647.42355054 ; 0.0
44 ; 21683.605524008795 ; 33038.312175593936 ; 628157.5287419956 ; 1453685.7357261342 ; 0.0
45 ; 21802.047813043242 ; 33038.312175593936 ; 649841.1342660043 ; 1486724.0479017282 ; 0.0
46 ; 22051.05032638632 ; 33038.312175593936 ; 671643.1820790475 ; 1519762.3600773222 ; 0.0
47 ; 22377.467862709997 ; 33038.312175593936 ; 693694.2324054339 ; 1552800.6722529163 ; 0.0
48 ; 22631.12448743958 ; 33038.312175593936 ; 716071.7002681439 ; 1585838.9844285103 ; 0.0
49 ; 22801.164444505863 ; 33038.312175593936 ; 738702.8247555835 ; 1618877.2966041043 ; 0.0
50 ; 22984.600077519193 ; 33038.312175593936 ; 761503.9892000894 ; 1651915.6087796984 ; 0.0
51 ; 22997.096016375377 ; 33038.312175593936 ; 784488.5892776086 ; 1684953.9209552924 ; 0.0
52 ; 23324.958446529654 ; 33038.312175593936 ; 807485.6852939839 ; 1717992.2331308865 ; 0.0
53 ; 23418.753384662923 ; 33038.312175593936 ; 830810.6437405136 ; 1751030.5453064805 ; 0.0
54 ; 23682.560553662435 ; 33038.312175593936 ; 854229.3971251765 ; 1784068.8574820745 ; 0.0
55 ; 23937.475341892383 ; 33038.312175593936 ; 877911.957678839 ; 1817107.1696576686 ; 0.0
56 ; 24104.444177432146 ; 33038.312175593936 ; 901849.4330207313 ; 1850145.4818332626 ; 0.0
57 ; 24305.87633936576 ; 33038.312175593936 ; 925953.8771981634 ; 1883183.7940088566 ; 0.0
58 ; 24302.163436184535 ; 33038.312175593936 ; 950259.7535375291 ; 1916222.1061844507 ; 0.0
59 ; 24586.97477153553 ; 33038.312175593936 ; 974561.9169737137 ; 1949260.4183600447 ; 0.0
60 ; 24657.649041150184 ; 33038.312175593936 ; 999148.8917452492 ; 1982298.7305356388 ; 0.0
61 ; 24699.621505060808 ; 33038.312175593936 ; 1023806.5407863994 ; 2015337.0427112328 ; 0.0
62 ; 24665.808947041834 ; 33038.312175593936 ; 1048506.1622914602 ; 2048375.3548868268 ; 0.0
63 ; 24866.968745902184 ; 33038.312175593936 ; 1073171.971238502 ; 2081413.6670624209 ; 0.0
64 ; 25320.04901770903 ; 33038.312175593936 ; 1098038.9399844042 ; 2114451.9792380147 ; 0.0
65 ; 25158.289899159932 ; 33038.312175593936 ; 1123358.9890021132 ; 2147490.2914136085 ; 0.0
66 ; 25367.99321222531 ; 33038.312175593936 ; 1148517.2789012732 ; 2180528.6035892023 ; 0.0
67 ; 25520.37994634708 ; 33038.312175593936 ; 1173885.2721134985 ; 2213566.915764796 ; 0.0
68 ; 25498.596230096206 ; 33038.312175593936 ; 1199405.6520598456 ; 2246605.22794039 ; 0.0
69 ; 25570.643324602355 ; 33038.312175593936 ; 1224904.2482899418 ; 2279643.5401159837 ; 0.0
70 ; 25546.97028786827 ; 33038.312175593936 ; 1250474.8916145442 ; 2312681.8522915775 ; 0.0
71 ; 25692.101905995034 ; 33038.312175593936 ; 1276021.8619024125 ; 2345720.1644671713 ; 0.0
72 ; 26031.518555277773 ; 33038.312175593936 ; 1301713.9638084075 ; 2378758.476642765 ; 0.0
73 ; 25992.525851114966 ; 33038.312175593936 ; 1327745.4823636853 ; 2411796.788818359 ; 0.0
74 ; 26053.51036983874 ; 33038.312175593936 ; 1353738.0082148002 ; 2444835.1009939527 ; 0.0
75 ; 25895.229888089965 ; 33038.312175593936 ; 1379791.5185846388 ; 2477873.4131695465 ; 0.0
76 ; 26118.573199450693 ; 33038.312175593936 ; 1405686.7484727288 ; 2510911.7253451403 ; 0.0
77 ; 26288.414492780517 ; 33038.312175593936 ; 1431805.3216721795 ; 2543950.037520734 ; 0.0
78 ; 26198.514219376168 ; 33038.312175593936 ; 1458093.73616496 ; 2576988.349696328 ; 0.0
79 ; 26143.489938182287 ; 33038.312175593936 ; 1484292.2503843363 ; 2610026.6618719217 ; 0.0
80 ; 26229.32751449128 ; 33038.312175593936 ; 1510435.7403225186 ; 2643064.9740475155 ; 0.0
81 ; 26181.76975684903 ; 33038.312175593936 ; 1536665.06783701 ; 2676103.2862231093 ; 0.0
82 ; 26226.200745404494 ; 33038.312175593936 ; 1562846.8375938588 ; 2709141.598398703 ; 0.0
83 ; 26178.382086936777 ; 33038.312175593936 ; 1589073.0383392633 ; 2742179.910574297 ; 0.0
84 ; 26141.061561013285 ; 33038.312175593936 ; 1615251.4204262001 ; 2775218.2227498908 ; 0.0
85 ; 26292.343163635924 ; 33038.312175593936 ; 1641392.4819872135 ; 2808256.5349254846 ; 0.0
86 ; 26080.79166835942 ; 33038.312175593936 ; 1667684.8251508493 ; 2841294.8471010784 ; 0.0
87 ; 26132.7846659368 ; 33038.312175593936 ; 1693765.6168192087 ; 2874333.159276672 ; 0.0
88 ; 26415.01052716896 ; 33038.312175593936 ; 1719898.4014851456 ; 2907371.471452266 ; 0.0
89 ; 26224.97096875789 ; 33038.312175593936 ; 1746313.4120123144 ; 2940409.78362786 ; 0.0
90 ; 26005.06918866271 ; 33038.312175593936 ; 1772538.3829810724 ; 2973448.0958034536 ; 0.0
91 ; 25911.207421646304 ; 33038.312175593936 ; 1798543.4521697352 ; 3006486.4079790474 ; 0.0
92 ; 26035.579558198548 ; 33038.312175593936 ; 1824454.6595913814 ; 3039524.720154641 ; 0.0
93 ; 25885.07791071795 ; 33038.312175593936 ; 1850490.23914958 ; 3072563.032330235 ; 0.0
94 ; 25742.8698451079 ; 33038.312175593936 ; 1876375.317060298 ; 3105601.344505829 ; 0.0
95 ; 25850.289881098903 ; 33038.312175593936 ; 1902118.186905406 ; 3138639.6566814226 ; 0.0
96 ; 25633.840621837888 ; 33038.312175593936 ; 1927968.476786505 ; 3171677.9688570164 ; 0.0
97 ; 25476.204680006682 ; 33038.312175593936 ; 1953602.3174083428 ; 3204716.28103261 ; 0.0
98 ; 25680.389067768112 ; 33038.312175593936 ; 1979078.5220883496 ; 3237754.593208204 ; 0.0
99 ; 25350.92737667403 ; 33038.312175593936 ; 2004758.9111561177 ; 3270792.905383798 ; 0.0
100 ; 25342.16496310631 ; 33038.312175593936 ; 2030109.8385327917 ; 3303831.2175593916 ; 0.0
101 ; 25048.487290861063 ; 33038.312175593936 ; 2055452.003495898 ; 3336869.5297349854 ; 0.0
102 ; 25305.168294783365 ; 33038.312175593936 ; 2080500.4907867592 ; 3369907.8419105792 ; 0.0
103 ; 24928.600245716494 ; 33038.312175593936 ; 2105805.6590815424 ; 3402946.154086173 ; 0.0
104 ; 24660.545328712637 ; 33038.312175593936 ; 2130734.259327259 ; 3435984.466261767 ; 0.0
105 ; 24761.037302086683 ; 33038.312175593936 ; 2155394.8046559715 ; 3469022.7784373607 ; 0.0
106 ; 24381.290042865665 ; 33038.312175593936 ; 2180155.841958058 ; 3502061.0906129545 ; 0.0
107 ; 24316.080261353687 ; 33038.312175593936 ; 2204537.1320009236 ; 3535099.4027885483 ; 0.0
108 ; 24163.018835878484 ; 33038.312175593936 ; 2228853.2122622775 ; 3568137.714964142 ; 0.0
109 ; 24120.098990249604 ; 33038.312175593936 ; 2253016.231098156 ; 3601176.027139736 ; 0.0
110 ; 23928.616503103778 ; 33038.312175593936 ; 2277136.3300884054 ; 3634214.3393153297 ; 0.0
111 ; 23684.693983681016 ; 33038.312175593936 ; 2301064.946591509 ; 3667252.6514909235 ; 0.0
112 ; 23509.614478487365 ; 33038.312175593936 ; 2324749.64057519 ; 3700290.9636665173 ; 0.0
113 ; 23440.193056226934 ; 33038.312175593936 ; 2348259.2550536776 ; 3733329.275842111 ; 0.0
114 ; 22964.373202333987 ; 33038.312175593936 ; 2371699.4481099043 ; 3766367.588017705 ; 0.0
115 ; 22812.734011408764 ; 33038.312175593936 ; 2394663.8213122385 ; 3799405.9001932987 ; 0.0
116 ; 22785.41882124037 ; 33038.312175593936 ; 2417476.5553236473 ; 3832444.2123688925 ; 0.0
117 ; 22544.7405864957 ; 33038.312175593936 ; 2440261.9741448876 ; 3865482.5245444863 ; 0.0
118 ; 22444.14305335803 ; 33038.312175593936 ; 2462806.714731383 ; 3898520.83672008 ; 0.0
119 ; 22181.866384146997 ; 33038.312175593936 ; 2485250.857784741 ; 3931559.148895674 ; 0.0
120 ; 21967.7060063825 ; 33038.312175593936 ; 2507432.7241688883 ; 3964597.4610712677 ; 0.0
121 ; 21496.950614783018 ; 33038.312175593936 ; 2529400.430175271 ; 3997635.7732468615 ; 0.0
122 ; 21385.836224015377 ; 33038.312175593936 ; 2550897.380790054 ; 4030674.0854224553 ; 0.0
123 ; 21005.280364789895 ; 33038.312175593936 ; 2572283.217014069 ; 4063712.397598049 ; 0.0
124 ; 20866.07815461773 ; 33038.312175593936 ; 2593288.497378859 ; 4096750.709773643 ; 0.0
125 ; 20623.94564693479 ; 33038.312175593936 ; 2614154.575533477 ; 4129789.0219492367 ; 0.0
126 ; 20255.98064381399 ; 33038.312175593936 ; 2634778.521180412 ; 4162827.3341248306 ; 0.0
127 ; 19960.021622703833 ; 33038.312175593936 ; 2655034.5018242258 ; 4195865.646300425 ; 0.0
128 ; 19828.7444988802 ; 33038.312175593936 ; 2674994.5234469296 ; 4228903.958476019 ; 0.0
129 ; 19538.875884086206 ; 33038.312175593936 ; 2694823.2679458098 ; 4261942.270651613 ; 0.0
130 ; 19312.983678128883 ; 33038.312175593936 ; 2714362.143829896 ; 4294980.582827208 ; 0.0
131 ; 19013.77555986036 ; 33038.312175593936 ; 2733675.127508025 ; 4328018.895002802 ; 0.0
132 ; 18692.73580563064 ; 33038.312175593936 ; 2752688.9030678854 ; 4361057.207178396 ; 0.0
133 ; 18277.133555274308 ; 33038.312175593936 ; 2771381.638873516 ; 4394095.51935399 ; 0.0
134 ; 18032.581238486153 ; 33038.312175593936 ; 2789658.7724287906 ; 4427133.831529585 ; 0.0
135 ; 17731.16608819284 ; 33038.312175593936 ; 2807691.353667277 ; 4460172.143705179 ; 0.0
136 ; 17337.938379079027 ; 33038.312175593936 ; 2825422.5197554696 ; 4493210.455880773 ; 0.0
137 ; 17005.607386831274 ; 33038.312175593936 ; 2842760.4581345487 ; 4526248.7680563675 ; 0.0
138 ; 16536.51619647673 ; 33038.312175593936 ; 2859766.06552138 ; 4559287.080231962 ; 0.0
139 ; 16463.497521125446 ; 33038.312175593936 ; 2876302.5817178567 ; 4592325.392407556 ; 0.0
140 ; 16116.275808841443 ; 33038.312175593936 ; 2892766.079238982 ; 4625363.70458315 ; 0.0
141 ; 15519.279346839458 ; 33038.312175593936 ; 2908882.3550478234 ; 4658402.016758745 ; 0.0
142 ; 15273.874921730101 ; 33038.312175593936 ; 2924401.634394663 ; 4691440.328934339 ; 0.0
143 ; 14951.887196386939 ; 33038.312175593936 ; 2939675.509316393 ; 4724478.641109933 ; 0.0
144 ; 14562.643719281641 ; 33038.312175593936 ; 2954627.3965127803 ; 4757516.953285527 ; 0.0
145 ; 14510.189304947937 ; 33038.312175593936 ; 2969190.040232062 ; 4790555.265461122 ; 0.0
146 ; 14520.169101459269 ; 33038.312175593936 ; 2983700.2295370097 ; 4823593.577636716 ; 0.0
147 ; 14209.04849844033 ; 33038.312175593936 ; 2998220.398638469 ; 4856631.88981231 ; 0.0
148 ; 13833.965729202799 ; 33038.312175593936 ; 3012429.4471369097 ; 4889670.2019879045 ; 0.0
149 ; 14065.810108708305 ; 33038.312175593936 ; 3026263.4128661123 ; 4922708.514163499 ; 0.0
150 ; 13915.006387571484 ; 33038.312175593936 ; 3040329.2229748205 ; 4955746.826339093 ; 0.0
151 ; 13804.394615918322 ; 33038.312175593936 ; 3054244.229362392 ; 4988785.138514687 ; 0.0
152 ; 13758.566970951382 ; 33038.312175593936 ; 3068048.6239783103 ; 5021823.450690282 ; 0.0
153 ; 13564.87918299649 ; 33038.312175593936 ; 3081807.1909492617 ; 5054861.762865876 ; 0.0
154 ; 13603.483577451447 ; 33038.312175593936 ; 3095372.0701322583 ; 5087900.07504147 ; 0.0
155 ; 13298.7368213252 ; 33038.312175593936 ; 3108975.55370971 ; 5120938.387217064 ; 0.0
156 ; 13233.643376063963 ; 33038.312175593936 ; 3122274.290531035 ; 5153976.699392659 ; 0.0
157 ; 13064.659909567463 ; 33038.312175593936 ; 3135507.933907099 ; 5187015.011568253 ; 0.0
158 ; 13013.26998233183 ; 33038.312175593936 ; 3148572.5938166664 ; 5220053.323743847 ; 0.0
159 ; 12762.050466061619 ; 33038.312175593936 ; 3161585.8637989983 ; 5253091.6359194415 ; 0.0
160 ; 12586.781174970793 ; 33038.312175593936 ; 3174347.91426506 ; 5286129.948095036 ; 0.0
161 ; 12558.873246818846 ; 33038.312175593936 ; 3186934.6954400307 ; 5319168.26027063 ; 0.0
162 ; 12535.641774152957 ; 33038.312175593936 ; 3199493.5686868494 ; 5352206.572446224 ; 0.0
163 ; 12317.223665155503 ; 33038.312175593936 ; 3212029.2104610023 ; 5385244.884621819 ; 0.0
164 ; 12103.789642723876 ; 33038.312175593936 ; 3224346.434126158 ; 5418283.196797413 ; 0.0
165 ; 11923.039609230105 ; 33038.312175593936 ; 3236450.2237688815 ; 5451321.508973007 ; 0.0
166 ; 11862.458923147617 ; 33038.312175593936 ; 3248373.2633781116 ; 5484359.821148601 ; 0.0
167 ; 11674.260243747507 ; 33038.312175593936 ; 3260235.722301259 ; 5517398.133324196 ; 0.0
168 ; 11469.134604781062 ; 33038.312175593936 ; 3271909.9825450066 ; 5550436.44549979 ; 0.0
169 ; 11197.368884373964 ; 33038.312175593936 ; 3283379.1171497875 ; 5583474.757675384 ; 0.0
170 ; 11136.064567959602 ; 33038.312175593936 ; 3294576.4860341614 ; 5616513.069850978 ; 0.0
171 ; 11054.174097313857 ; 33038.312175593936 ; 3305712.550602121 ; 5649551.382026573 ; 0.0
172 ; 10971.640394076196 ; 33038.312175593936 ; 3316766.724699435 ; 5682589.694202167 ; 0.0
173 ; 10787.758562428058 ; 33038.312175593936 ; 3327738.365093511 ; 5715628.006377761 ; 0.0
174 ; 10755.74666093285 ; 33038.312175593936 ; 3338526.123655939 ; 5748666.3185533555 ; 0.0
175 ; 10790.743133252094 ; 33038.312175593936 ; 3349281.870316872 ; 5781704.63072895 ; 0.0
176 ; 10926.519542028836 ; 33038.312175593936 ; 3360072.613450124 ; 5814742.942904544 ; 0.0
177 ; 10927.165186661608 ; 33038.312175593936 ; 3370999.1329921526 ; 5847781.255080138 ; 0.0
178 ; 10910.606559221531 ; 33038.312175593936 ; 3381926.2981788144 ; 5880819.567255733 ; 0.0
179 ; 11086.4340950223 ; 33038.312175593936 ; 3392836.904738036 ; 5913857.879431327 ; 0.0
180 ; 10908.449965413842 ; 33038.312175593936 ; 3403923.3388330583 ; 5946896.191606921 ; 0.0
181 ; 10976.752752235137 ; 33038.312175593936 ; 3414831.788798472 ; 5979934.503782515 ; 0.0
182 ; 11188.151819762494 ; 33038.312175593936 ; 3425808.541550707 ; 6012972.81595811 ; 0.0
183 ; 10992.022102029794 ; 33038.312175593936 ; 3436996.6933704694 ; 6046011.128133704 ; 0.0
184 ; 11068.424456570661 ; 33038.312175593936 ; 3447988.7154724994 ; 6079049.440309298 ; 0.0
185 ; 11335.088600039595 ; 33038.312175593936 ; 3459057.13992907 ; 6112087.7524848925 ; 0.0
186 ; 11125.694847577108 ; 33038.312175593936 ; 3470392.2285291096 ; 6145126.064660487 ; 0.0
187 ; 11153.492619131284 ; 33038.312175593936 ; 3481517.923376687 ; 6178164.376836081 ; 0.0
188 ; 11346.936823015494 ; 33038.312175593936 ; 3492671.415995818 ; 6211202.689011675 ; 0.0
189 ; 11309.502555518791 ; 33038.312175593936 ; 3504018.3528188337 ; 6244241.00118727 ; 0.0
190 ; 11287.721809236153 ; 33038.312175593936 ; 3515327.8553743525 ; 6277279.313362864 ; 0.0
191 ; 11399.472809572779 ; 33038.312175593936 ; 3526615.577183589 ; 6310317.625538458 ; 0.0
192 ; 11321.039326335025 ; 33038.312175593936 ; 3538015.0499931616 ; 6343355.937714052 ; 0.0
193 ; 11457.402881225284 ; 33038.312175593936 ; 3549336.0893194964 ; 6376394.249889647 ; 0.0
194 ; 11331.232972973405 ; 33038.312175593936 ; 3560793.4922007215 ; 6409432.562065241 ; 0.0
195 ; 11436.035180420937 ; 33038.312175593936 ; 3572124.725173695 ; 6442470.874240835 ; 0.0
196 ; 11701.220131451728 ; 33038.312175593936 ; 3583560.760354116 ; 6475509.1864164295 ; 0.0
197 ; 11631.275065976033 ; 33038.312175593936 ; 3595261.980485568 ; 6508547.498592024 ; 0.0
198 ; 11707.261847926284 ; 33038.312175593936 ; 3606893.255551544 ; 6541585.810767618 ; 0.0
199 ; 11592.090795973509 ; 33038.312175593936 ; 3618600.5173994703 ; 6574624.122943212 ; 0.0
200 ; 11691.37232483703 ; 33038.312175593936 ; 3630192.6081954436 ; 6607662.435118807 ; 0.0
201 ; 11822.123552777284 ; 33038.312175593936 ; 3641883.9805202805 ; 6640700.747294401 ; 0.0
202 ; 11917.409680438426 ; 33038.312175593936 ; 3653706.104073058 ; 6673739.059469995 ; 0.0
203 ; 11837.357533932009 ; 33038.312175593936 ; 3665623.513753496 ; 6706777.371645589 ; 0.0
204 ; 11715.576671807634 ; 33038.312175593936 ; 3677460.8712874283 ; 6739815.683821184 ; 0.0
205 ; 11639.543816860141 ; 33038.312175593936 ; 3689176.447959236 ; 6772853.995996778 ; 0.0
206 ; 11893.042152191332 ; 33038.312175593936 ; 3700815.991776096 ; 6805892.308172372 ; 0.0
207 ; 11902.39417954068 ; 33038.312175593936 ; 3712709.0339282877 ; 6838930.620347966 ; 0.0
208 ; 11744.433266548378 ; 33038.312175593936 ; 3724611.4281078284 ; 6871968.932523561 ; 0.0
209 ; 11943.945502326946 ; 33038.312175593936 ; 3736355.861374377 ; 6905007.244699155 ; 0.0
210 ; 12014.261018225608 ; 33038.312175593936 ; 3748299.8068767036 ; 6938045.556874749 ; 0.0
211 ; 12156.10262016221 ; 33038.312175593936 ; 3760314.067894929 ; 6971083.8690503435 ; 0.0
212 ; 12136.846808773906 ; 33038.312175593936 ; 3772470.170515091 ; 7004122.181225938 ; 0.0
213 ; 12120.187109982307 ; 33038.312175593936 ; 3784607.017323865 ; 7037160.493401532 ; 0.0
