CSV File for the City 3 on Day 293
1 - Minute m 
2 - Power Consumed at minute m 
3 - Power Produced at minute m 
4 - Energy Consumed since the beginning of the day 
5 - Energy Produced since the beginning of the day 
6 - Energy Lost since the beginning of the day on lines starting from the city
 
0 ; 7553.431130956622 ; 149842.91857796512 ; 0.0 ; 0.0 ; 0.0
1 ; 7882.92360161729 ; 149482.5128546042 ; 7553.431130956622 ; 149842.91857796512 ; 0.0
2 ; 8259.232653052062 ; 149159.23246349537 ; 15436.354732573913 ; 299325.4314325693 ; 0.0
3 ; 8598.072736535412 ; 148873.34395235544 ; 23695.587385625975 ; 448484.6638960646 ; 0.0
4 ; 8917.144024098654 ; 148625.0849261992 ; 32293.66012216139 ; 597358.0078484201 ; 0.0
5 ; 9200.284798338416 ; 148414.66316662007 ; 41210.804146260045 ; 745983.0927746192 ; 0.0
6 ; 9443.776217785407 ; 148242.25585194517 ; 50411.088944598465 ; 894397.7559412393 ; 0.0
7 ; 9794.564175908336 ; 148108.00888510104 ; 59854.865162383874 ; 1042640.0117931844 ; 0.0
8 ; 10102.75015392515 ; 148012.03633516823 ; 69649.4293382922 ; 1190748.0206782855 ; 0.0
9 ; 10310.139350395217 ; 147954.41999765544 ; 79752.17949221736 ; 1338760.0570134537 ; 0.0
10 ; 10523.974956031014 ; 147935.20907749326 ; 90062.31884261257 ; 1486714.4770111092 ; 0.0
11 ; 10908.222923858202 ; 147954.41999765544 ; 100586.29379864359 ; 1634649.6860886025 ; 0.0
12 ; 11180.472539194512 ; 148012.03633516823 ; 111494.5167225018 ; 1782604.1060862578 ; 0.0
13 ; 11525.766944870253 ; 148108.00888510104 ; 122674.9892616963 ; 1930616.142421426 ; 0.0
14 ; 11611.175191474515 ; 148242.2558519451 ; 134200.75620656656 ; 2078724.151306527 ; 0.0
15 ; 12021.713849566 ; 148414.66316662007 ; 145811.93139804108 ; 2226966.407158472 ; 0.0
16 ; 12300.133132703575 ; 148625.0849261992 ; 157833.64524760708 ; 2375381.0703250924 ; 0.0
17 ; 12421.95470476747 ; 148873.3439523554 ; 170133.77838031066 ; 2524006.1552512916 ; 0.0
18 ; 12748.4114056845 ; 149159.23246349543 ; 182555.73308507813 ; 2672879.499203647 ; 0.0
19 ; 12981.742108450871 ; 149482.5128546041 ; 195304.1444907626 ; 2822038.7316671424 ; 0.0
20 ; 13336.898041349574 ; 149842.9185779652 ; 208285.8865992135 ; 2971521.2445217464 ; 0.0
21 ; 13438.18997828393 ; 150240.1551171775 ; 221622.78464056307 ; 3121364.1630997118 ; 0.0
22 ; 13867.420343084197 ; 150673.90104625368 ; 235060.974618847 ; 3271604.318216889 ; 0.0
23 ; 13981.540089432361 ; 151143.8091650751 ; 248928.3949619312 ; 3422278.219263143 ; 0.0
24 ; 14140.55189824942 ; 151649.5077020912 ; 262909.93505136354 ; 3573422.028428218 ; 0.0
25 ; 14430.518262764843 ; 152190.601574889 ; 277050.48694961297 ; 3725071.536130309 ; 0.0
26 ; 14640.713727746972 ; 152766.67369912038 ; 291481.0052123778 ; 3877262.137705198 ; 0.0
27 ; 14852.946156921924 ; 153377.2863362575 ; 306121.7189401248 ; 4030028.8114043185 ; 0.0
28 ; 15242.072204490243 ; 154021.9824707394 ; 320974.6650970467 ; 4183406.097740576 ; 0.0
29 ; 15445.225371718101 ; 154700.28720727554 ; 336216.73730153695 ; 4337428.080211315 ; 0.0
30 ; 15542.111177034321 ; 155411.70917936545 ; 351661.96267325507 ; 4492128.367418591 ; 0.0
31 ; 15774.77930770557 ; 156155.74196047595 ; 367204.0738502894 ; 4647540.076597956 ; 0.0
32 ; 15973.013871333358 ; 156931.86546977216 ; 382978.853157995 ; 4803695.818558432 ; 0.0
33 ; 16048.981480788727 ; 157739.5473648122 ; 398951.86702932836 ; 4960627.6840282045 ; 0.0
34 ; 16224.252851464078 ; 158578.24441418325 ; 415000.8485101171 ; 5118367.231393017 ; 0.0
35 ; 16415.473756879164 ; 159447.40384365755 ; 431225.1013615812 ; 5276945.4758072 ; 0.0
36 ; 16538.283789022924 ; 160346.46465007603 ; 447640.57511846034 ; 5436392.879650857 ; 0.0
37 ; 16733.29864158584 ; 161274.85887780835 ; 464178.8589074833 ; 5596739.344300933 ; 0.0
38 ; 16950.35668474569 ; 162232.0128532883 ; 480912.15754906915 ; 5758014.203178742 ; 0.0
39 ; 17251.15631453343 ; 163217.3483737631 ; 497862.51423381484 ; 5920246.21603203 ; 0.0
40 ; 17340.188802667715 ; 164230.28384702522 ; 515113.6705483483 ; 6083463.564405793 ; 0.0
41 ; 17485.320900307604 ; 165270.2353795043 ; 532453.859351016 ; 6247693.848252819 ; 0.0
42 ; 17576.296722570085 ; 166336.61781067768 ; 549939.1802513236 ; 6412964.083632323 ; 0.0
43 ; 17868.079209388485 ; 167428.8456923109 ; 567515.4769738937 ; 6579300.701443001 ; 0.0
44 ; 17951.976329640012 ; 168546.33421155126 ; 585383.5561832822 ; 6746729.547135311 ; 0.0
45 ; 18110.008628452528 ; 169688.50005737733 ; 603335.5325129222 ; 6915275.881346863 ; 0.0
46 ; 18236.4229086795 ; 170854.76223034222 ; 621445.5411413747 ; 7084964.38140424 ; 0.0
47 ; 18378.062335449522 ; 172044.54279594414 ; 639681.9640500542 ; 7255819.143634582 ; 0.0
48 ; 18317.988810226765 ; 173257.26758231013 ; 658060.0263855037 ; 7427863.686430526 ; 0.0
49 ; 18611.774334555343 ; 174492.36682319205 ; 676378.0151957305 ; 7601120.954012836 ; 0.0
50 ; 18709.571081025082 ; 175749.27574754597 ; 694989.7895302859 ; 7775613.320836028 ; 0.0
51 ; 18804.101546882557 ; 177027.43511719516 ; 713699.3606113109 ; 7951362.596583574 ; 0.0
52 ; 18887.639751116792 ; 178326.29171427895 ; 732503.4621581935 ; 8128390.031700769 ; 0.0
53 ; 18975.07331440045 ; 179645.2987803427 ; 751391.1019093102 ; 8306716.323415048 ; 0.0
54 ; 19137.790772763845 ; 180983.91640905757 ; 770366.1752237107 ; 8486361.622195391 ; 0.0
55 ; 19299.782051814233 ; 182341.61189465303 ; 789503.9659964746 ; 8667345.53860445 ; 0.0
56 ; 19239.313129131955 ; 183717.8600382171 ; 808803.7480482889 ; 8849687.150499102 ; 0.0
57 ; 19568.825393603176 ; 185112.1434140616 ; 828043.0611774208 ; 9033405.010537319 ; 0.0
58 ; 19716.65487125923 ; 186523.95259837416 ; 847611.886571024 ; 9218517.15395138 ; 0.0
59 ; 19621.740544456043 ; 187952.78636238055 ; 867328.5414422832 ; 9405041.106549755 ; 0.0
60 ; 19861.379813260184 ; 189398.15183222495 ; 886950.2819867393 ; 9592993.892912135 ; 0.0
61 ; 19791.171712314917 ; 190859.56461774654 ; 906811.6617999994 ; 9782392.04474436 ; 0.0
62 ; 19913.728661672412 ; 192336.54891228722 ; 926602.8335123144 ; 9973251.609362107 ; 0.0
63 ; 20059.118128857266 ; 193828.63756561108 ; 946516.5621739868 ; 1.0165588158274394E7 ; 0.0
64 ; 20078.142097365806 ; 195335.37213195272 ; 966575.680302844 ; 1.0359416795840004E7 ; 0.0
65 ; 20058.887700120587 ; 196856.30289514214 ; 986653.8224002098 ; 1.0554752167971957E7 ; 0.0
66 ; 20012.58116957201 ; 198390.98887267656 ; 1006712.7101003304 ; 1.07516084708671E7 ; 0.0
67 ; 20316.06063755892 ; 199938.9978005298 ; 1026725.2912699024 ; 1.0949999459739776E7 ; 0.0
68 ; 20149.472805682104 ; 201499.90610040663 ; 1047041.3519074613 ; 1.1149938457540305E7 ; 0.0
69 ; 20225.662308665822 ; 203073.29883106306 ; 1067190.8247131435 ; 1.1351438363640713E7 ; 0.0
70 ; 20380.14092939271 ; 204658.7696252289 ; 1087416.4870218094 ; 1.1554511662471775E7 ; 0.0
71 ; 20321.10652651202 ; 206255.92061358105 ; 1107796.6279512022 ; 1.1759170432097005E7 ; 0.0
72 ; 20392.174229652363 ; 207864.3623371315 ; 1128117.7344777142 ; 1.1965426352710586E7 ; 0.0
73 ; 20553.28570979316 ; 209483.71364930912 ; 1148509.9087073666 ; 1.2173290715047717E7 ; 0.0
74 ; 20442.050974382564 ; 211113.60160893208 ; 1169063.1944171598 ; 1.2382774428697025E7 ; 0.0
75 ; 20532.919149532223 ; 212753.661365187 ; 1189505.2453915423 ; 1.2593888030305957E7 ; 0.0
76 ; 20593.183176606108 ; 214403.53603565364 ; 1210038.1645410745 ; 1.2806641691671144E7 ; 0.0
77 ; 20426.727764743766 ; 216062.87657833897 ; 1230631.3477176807 ; 1.3021045227706797E7 ; 0.0
78 ; 20613.874363346793 ; 217731.34165861286 ; 1251058.0754824246 ; 1.3237108104285136E7 ; 0.0
79 ; 20418.040128539982 ; 219408.5975118679 ; 1271671.9498457713 ; 1.3454839445943749E7 ; 0.0
80 ; 20544.25717737326 ; 221094.31780266232 ; 1292089.9899743113 ; 1.3674248043455616E7 ; 0.0
81 ; 20648.83524710215 ; 222788.1834810408 ; 1312634.2471516845 ; 1.3895342361258278E7 ; 0.0
82 ; 20459.637781144593 ; 224489.88263667174 ; 1333283.0823987867 ; 1.4118130544739319E7 ; 0.0
83 ; 20626.518805237334 ; 226199.11035138124 ; 1353742.7201799313 ; 1.434262042737599E7 ; 0.0
84 ; 20383.091674033472 ; 227915.56855061505 ; 1374369.2389851685 ; 1.4568819537727373E7 ; 0.0
85 ; 20564.57404801204 ; 229638.9658543081 ; 1394752.330659202 ; 1.4796735106277987E7 ; 0.0
86 ; 20466.223149247417 ; 231369.01742759757 ; 1415316.904707214 ; 1.5026374072132295E7 ; 0.0
87 ; 20561.96821307513 ; 233105.44483177172 ; 1435783.1278564616 ; 1.5257743089559892E7 ; 0.0
88 ; 20423.19093518469 ; 234847.9758758058 ; 1456345.0960695366 ; 1.5490848534391664E7 ; 0.0
89 ; 20374.359890125557 ; 236596.3444688032 ; 1476768.2870047214 ; 1.572569651026747E7 ; 0.0
90 ; 20455.40105968435 ; 238350.29047361997 ; 1497142.6468948468 ; 1.5962292854736274E7 ; 0.0
91 ; 20385.402546132 ; 240109.55956192449 ; 1517598.0479545312 ; 1.6200643145209894E7 ; 0.0
92 ; 20285.53591237928 ; 241873.9030709106 ; 1537983.4505006631 ; 1.6440752704771819E7 ; 0.0
93 ; 20069.55753400854 ; 243643.07786185874 ; 1558268.9864130425 ; 1.6682626607842728E7 ; 0.0
94 ; 20097.01041521921 ; 245416.8461807114 ; 1578338.543947051 ; 1.692626968570459E7 ; 0.0
95 ; 20117.921500218104 ; 247194.97552080915 ; 1598435.5543622703 ; 1.71716865318853E7 ; 0.0
96 ; 20069.169445967746 ; 248977.23848791124 ; 1618553.4758624884 ; 1.7418881507406108E7 ; 0.0
97 ; 20214.713143114714 ; 250763.41266760527 ; 1638622.6453084562 ; 1.766785874589402E7 ; 0.0
98 ; 19938.18001205215 ; 252553.28049519347 ; 1658837.3584515708 ; 1.7918622158561625E7 ; 0.0
99 ; 19919.107472971515 ; 254346.62912812765 ; 1678775.538463623 ; 1.8171175439056817E7 ; 0.0
100 ; 19709.520670854246 ; 256143.2503210487 ; 1698694.6459365946 ; 1.8425522068184946E7 ; 0.0
101 ; 19630.328209439907 ; 257942.9403034761 ; 1718404.1666074488 ; 1.8681665318505995E7 ; 0.0
102 ; 19714.47320102513 ; 259745.49966017745 ; 1738034.4948168888 ; 1.893960825880947E7 ; 0.0
103 ; 19642.759121892028 ; 261550.73321424084 ; 1757748.9680179139 ; 1.919935375846965E7 ; 0.0
104 ; 19505.143887656453 ; 263358.44991286093 ; 1777391.727139806 ; 1.946090449168389E7 ; 0.0
105 ; 19423.182945736473 ; 265168.4627158419 ; 1796896.8710274624 ; 1.972426294159675E7 ; 0.0
106 ; 19292.6452884989 ; 266980.58848681225 ; 1816320.0539731989 ; 1.9989431404312592E7 ; 0.0
107 ; 19326.64419413529 ; 268794.6478871404 ; 1835612.6992616977 ; 2.0256411992799405E7 ; 0.0
108 ; 19093.06396113981 ; 270610.46527253214 ; 1854939.343455833 ; 2.0525206640686546E7 ; 0.0
109 ; 18989.32336283711 ; 272427.8685922881 ; 1874032.4074169728 ; 2.0795817105959076E7 ; 0.0
110 ; 18685.4310281812 ; 274246.68929119257 ; 1893021.7307798099 ; 2.1068244974551365E7 ; 0.0
111 ; 18804.840529890775 ; 276066.76221400115 ; 1911707.161807991 ; 2.134249166384256E7 ; 0.0
112 ; 18493.853538417898 ; 277887.925512493 ; 1930512.0023378818 ; 2.161855842605656E7 ; 0.0
113 ; 18495.634015606982 ; 279710.020555047 ; 1949005.8558762998 ; 2.1896446351569053E7 ; 0.0
114 ; 18253.30544895998 ; 281532.89183870197 ; 1967501.4898919067 ; 2.21761563721241E7 ; 0.0
115 ; 18232.213592393695 ; 283356.386903656 ; 1985754.7953408668 ; 2.24576892639628E7 ; 0.0
116 ; 17989.91408477483 ; 285180.3562501605 ; 2003987.0089332606 ; 2.2741045650866456E7 ; 0.0
117 ; 17840.319641018923 ; 287004.65325776115 ; 2021976.9230180355 ; 2.3026226007116616E7 ; 0.0
118 ; 17816.804769342332 ; 288829.1341068363 ; 2039817.2426590545 ; 2.3313230660374377E7 ; 0.0
119 ; 17702.65241309305 ; 290653.6577023867 ; 2057634.0474283968 ; 2.3602059794481214E7 ; 0.0
120 ; 17407.123457708527 ; 292478.0856000229 ; 2075336.6998414898 ; 2.38927134521836E7 ; 0.0
121 ; 17355.11467730103 ; 294302.2819341019 ; 2092743.8232991984 ; 2.4185191537783623E7 ; 0.0
122 ; 17202.48204252318 ; 296126.1133479622 ; 2110098.9379764996 ; 2.4479493819717724E7 ; 0.0
123 ; 17067.35316370164 ; 297949.44892620546 ; 2127301.4200190227 ; 2.4775619933065686E7 ; 0.0
124 ; 16781.547222430392 ; 299772.16012897505 ; 2144368.773182724 ; 2.5073569381991893E7 ; 0.0
125 ; 16751.628532651277 ; 301594.12072817935 ; 2161150.3204051545 ; 2.5373341542120866E7 ; 0.0
126 ; 16429.903322054884 ; 303415.2067456113 ; 2177901.948937806 ; 2.5674935662849046E7 ; 0.0
127 ; 16288.70055261607 ; 305235.29639291286 ; 2194331.852259861 ; 2.5978350869594656E7 ; 0.0
128 ; 16019.78927040059 ; 307054.27001333534 ; 2210620.552812477 ; 2.628358616598757E7 ; 0.0
129 ; 15886.917653381379 ; 308872.0100252477 ; 2226640.3420828776 ; 2.6590640436000906E7 ; 0.0
130 ; 15730.765487045252 ; 310688.400867343 ; 2242527.259736259 ; 2.6899512446026154E7 ; 0.0
131 ; 15517.652285464115 ; 312503.32894549763 ; 2258258.025223304 ; 2.7210200846893497E7 ; 0.0
132 ; 15197.279295599927 ; 314316.6825812351 ; 2273775.677508768 ; 2.7522704175838996E7 ; 0.0
133 ; 15047.15214104974 ; 316128.35196174955 ; 2288972.956804368 ; 2.783702085842023E7 ; 0.0
134 ; 14898.235721396948 ; 317938.22909144394 ; 2304020.108945418 ; 2.815314921038198E7 ; 0.0
135 ; 14695.980322428675 ; 319746.20774493896 ; 2318918.344666815 ; 2.8471087439473424E7 ; 0.0
136 ; 14577.86056480471 ; 321552.18342150946 ; 2333614.3249892434 ; 2.879083364721836E7 ; 0.0
137 ; 14209.115227973 ; 323356.0533009067 ; 2348192.185554048 ; 2.9112385830639873E7 ; 0.0
138 ; 13973.475474788804 ; 325157.71620052465 ; 2362401.300782021 ; 2.943574188394078E7 ; 0.0
139 ; 13809.265234087807 ; 326957.07253387145 ; 2376374.77625681 ; 2.97608996001413E7 ; 0.0
140 ; 13534.951017060137 ; 328754.0242703051 ; 2390184.0414908975 ; 3.0087856672675174E7 ; 0.0
141 ; 13307.738098934115 ; 330548.47489599674 ; 2403718.992507958 ; 3.0416610696945477E7 ; 0.0
142 ; 13048.01799792904 ; 332340.3293760831 ; 2417026.730606892 ; 3.0747159171841472E7 ; 0.0
143 ; 12674.675818205566 ; 334129.4941179736 ; 2430074.748604821 ; 3.1079499501217555E7 ; 0.0
144 ; 12334.303909732174 ; 335915.8769357741 ; 2442749.4244230264 ; 3.141362899533553E7 ; 0.0
145 ; 12275.243948128911 ; 337699.3870157958 ; 2455083.7283327584 ; 3.1749544872271303E7 ; 0.0
146 ; 12323.86699058925 ; 339479.93488311395 ; 2467358.9722808874 ; 3.20872442592871E7 ; 0.0
147 ; 12228.800790923711 ; 341257.43236914487 ; 2479682.8392714765 ; 3.2426724194170214E7 ; 0.0
148 ; 12197.37390844953 ; 343031.7925802095 ; 2491911.6400624 ; 3.276798162653936E7 ; 0.0
149 ; 12015.402265074494 ; 344802.92986705276 ; 2504109.0139708496 ; 3.311101341911957E7 ; 0.0
150 ; 12019.347802667507 ; 346570.7597952888 ; 2516124.416235924 ; 3.3455816348986622E7 ; 0.0
151 ; 11992.9068834043 ; 348335.19911674404 ; 2528143.7640385916 ; 3.380238710878191E7 ; 0.0
152 ; 11754.659429727128 ; 350096.16574166925 ; 2540136.670921996 ; 3.4150722307898656E7 ; 0.0
153 ; 11677.517185158202 ; 351853.5787117932 ; 2551891.330351723 ; 3.450081847364032E7 ; 0.0
154 ; 11796.48843451524 ; 353607.3581741927 ; 2563568.847536881 ; 3.4852672052352116E7 ; 0.0
155 ; 11547.635611452353 ; 355357.42535595276 ; 2575365.3359713964 ; 3.5206279410526305E7 ; 0.0
156 ; 11596.976218395544 ; 357103.7025395917 ; 2586912.9715828486 ; 3.556163683588226E7 ; 0.0
157 ; 11591.052181121508 ; 358846.1130392275 ; 2598509.947801244 ; 3.5918740538421854E7 ; 0.0
158 ; 11219.301061555712 ; 360584.58117746277 ; 2610100.9999823654 ; 3.627758665146108E7 ; 0.0
159 ; 11111.759237425347 ; 362319.0322629653 ; 2621320.301043921 ; 3.6638171232638545E7 ; 0.0
160 ; 11107.141427994611 ; 364049.39256872144 ; 2632432.0602813466 ; 3.700049026490151E7 ; 0.0
161 ; 10999.892489074173 ; 365775.58931094274 ; 2643539.2017093413 ; 3.7364539657470234E7 ; 0.0
162 ; 10910.551279690819 ; 367497.55062860425 ; 2654539.0941984155 ; 3.773031524678118E7 ; 0.0
163 ; 10782.462019422934 ; 369215.20556359534 ; 2665449.6454781066 ; 3.809781279740978E7 ; 0.0
164 ; 10657.132558075515 ; 370928.48404146277 ; 2676232.1074975296 ; 3.846702800297338E7 ; 0.0
165 ; 10681.203722981038 ; 372637.31685272895 ; 2686889.2400556053 ; 3.883795648701484E7 ; 0.0
166 ; 10325.540523514761 ; 374341.63563476584 ; 2697570.4437785866 ; 3.921059380386756E7 ; 0.0
167 ; 10355.742292178911 ; 376041.3728542082 ; 2707895.984302101 ; 3.958493543950233E7 ; 0.0
168 ; 10372.113305190338 ; 377736.4617898885 ; 2718251.72659428 ; 3.996097681235654E7 ; 0.0
169 ; 10118.389681586239 ; 379426.83651627763 ; 2728623.83989947 ; 4.033871327414643E7 ; 0.0
170 ; 10060.082248773475 ; 381112.43188741547 ; 2738742.229581056 ; 4.0718140110662706E7 ; 0.0
171 ; 10057.801906133423 ; 382793.18352131627 ; 2748802.3118298296 ; 4.1099252542550124E7 ; 0.0
172 ; 9775.4999289491 ; 384469.02778483345 ; 2758860.113735963 ; 4.148204572607144E7 ; 0.0
173 ; 9735.539705400271 ; 386139.9017789698 ; 2768635.613664912 ; 4.186651475385627E7 ; 0.0
174 ; 9677.663840009356 ; 387805.7433246196 ; 2778371.1533703124 ; 4.225265465563524E7 ; 0.0
175 ; 9787.141180115532 ; 389466.4909487287 ; 2788048.817210322 ; 4.264046039895986E7 ; 0.0
176 ; 9812.352856873451 ; 391122.08387085976 ; 2797835.9583904375 ; 4.302992688990859E7 ; 0.0
177 ; 9870.224765332801 ; 392772.4619901499 ; 2807648.311247311 ; 4.342104897377945E7 ; 0.0
178 ; 9918.173716154426 ; 394417.5658726496 ; 2817518.536012644 ; 4.3813821435769595E7 ; 0.0
179 ; 9749.049198714116 ; 396057.33673902915 ; 2827436.7097287984 ; 4.420823900164224E7 ; 0.0
180 ; 9938.948440165028 ; 397691.7164526436 ; 2837185.7589275124 ; 4.460429633838127E7 ; 0.0
181 ; 9984.541450553195 ; 399320.64750794304 ; 2847124.7073676777 ; 4.500198805483391E7 ; 0.0
182 ; 9814.099641332865 ; 400000.0 ; 2857109.248818231 ; 4.5401308702341855E7 ; 0.0
183 ; 9831.259926409824 ; 400000.0 ; 2866923.3484595637 ; 4.5801308702341855E7 ; 0.0
184 ; 9778.990693700516 ; 400000.0 ; 2876754.6083859736 ; 4.6201308702341855E7 ; 0.0
185 ; 9970.182550193318 ; 400000.0 ; 2886533.599079674 ; 4.6601308702341855E7 ; 0.0
186 ; 9903.447728833942 ; 400000.0 ; 2896503.7816298674 ; 4.7001308702341855E7 ; 0.0
187 ; 9913.129722697064 ; 400000.0 ; 2906407.2293587015 ; 4.7401308702341855E7 ; 0.0
188 ; 9987.853939397884 ; 400000.0 ; 2916320.3590813987 ; 4.7801308702341855E7 ; 0.0
189 ; 10162.131485614793 ; 400000.0 ; 2926308.2130207964 ; 4.8201308702341855E7 ; 0.0
190 ; 9939.745397593912 ; 400000.0 ; 2936470.3445064113 ; 4.8601308702341855E7 ; 0.0
191 ; 9970.365862081459 ; 400000.0 ; 2946410.089904005 ; 4.9001308702341855E7 ; 0.0
192 ; 9947.35899677388 ; 400000.0 ; 2956380.4557660865 ; 4.9401308702341855E7 ; 0.0
193 ; 10076.832662914967 ; 400000.0 ; 2966327.8147628605 ; 4.9801308702341855E7 ; 0.0
194 ; 10135.647160060817 ; 400000.0 ; 2976404.6474257754 ; 5.0201308702341855E7 ; 0.0
195 ; 9918.478017941714 ; 400000.0 ; 2986540.294585836 ; 5.0601308702341855E7 ; 0.0
196 ; 10016.776689900682 ; 400000.0 ; 2996458.7726037777 ; 5.1001308702341855E7 ; 0.0
197 ; 10017.744382067347 ; 400000.0 ; 3006475.5492936783 ; 5.1401308702341855E7 ; 0.0
198 ; 10018.521992639548 ; 400000.0 ; 3016493.2936757454 ; 5.1801308702341855E7 ; 0.0
199 ; 9992.810551811916 ; 400000.0 ; 3026511.815668385 ; 5.2201308702341855E7 ; 0.0
200 ; 10167.335676746103 ; 400000.0 ; 3036504.626220197 ; 5.2601308702341855E7 ; 0.0
201 ; 10194.224396096994 ; 400000.0 ; 3046671.961896943 ; 5.3001308702341855E7 ; 0.0
202 ; 10115.537025298821 ; 400000.0 ; 3056866.18629304 ; 5.3401308702341855E7 ; 0.0
203 ; 10172.208873455174 ; 400000.0 ; 3066981.723318339 ; 5.3801308702341855E7 ; 0.0
204 ; 10278.180435270307 ; 400000.0 ; 3077153.932191794 ; 5.4201308702341855E7 ; 0.0
205 ; 10221.007565101294 ; 400000.0 ; 3087432.1126270643 ; 5.4601308702341855E7 ; 0.0
206 ; 10223.807024944192 ; 400000.0 ; 3097653.1201921655 ; 5.5001308702341855E7 ; 0.0
207 ; 10285.470689660237 ; 400000.0 ; 3107876.9272171096 ; 5.5401308702341855E7 ; 0.0
208 ; 10233.872000791329 ; 400000.0 ; 3118162.39790677 ; 5.5801308702341855E7 ; 0.0
209 ; 10212.784261026793 ; 400000.0 ; 3128396.269907561 ; 5.6201308702341855E7 ; 0.0
210 ; 10380.48337168424 ; 400000.0 ; 3138609.054168588 ; 5.6601308702341855E7 ; 0.0
211 ; 10237.805657018122 ; 400000.0 ; 3148989.5375402723 ; 5.7001308702341855E7 ; 0.0
212 ; 10280.863799580113 ; 400000.0 ; 3159227.3431972903 ; 5.7401308702341855E7 ; 0.0
213 ; 10253.255294220753 ; 400000.0 ; 3169508.20699687 ; 5.7801308702341855E7 ; 0.0
214 ; 10203.211143489783 ; 400000.0 ; 3179761.4622910907 ; 5.8201308702341855E7 ; 0.0
