CSV File for the City 2 on Day 188
1 - Minute m 
2 - Power Consumed at minute m 
3 - Power Produced at minute m 
4 - Energy Consumed since the beginning of the day 
5 - Energy Produced since the beginning of the day 
6 - Energy Lost since the beginning of the day on lines starting from the city
 
0 ; 5278.453529968449 ; 32867.240424166936 ; 0.0 ; 0.0 ; 0.0
1 ; 5754.863103462067 ; 32867.240424166936 ; 5278.453529968449 ; 32867.240424166936 ; 0.0
2 ; 6213.1425155699335 ; 32867.240424166936 ; 11033.316633430517 ; 65734.48084833387 ; 0.0
3 ; 6625.1167996723225 ; 32867.240424166936 ; 17246.45914900045 ; 98601.72127250081 ; 0.0
4 ; 7046.268641732282 ; 32867.240424166936 ; 23871.575948672773 ; 131468.96169666774 ; 0.0
5 ; 7719.574919376334 ; 32867.240424166936 ; 30917.844590405053 ; 164336.20212083467 ; 0.0
6 ; 8263.404785908358 ; 32867.240424166936 ; 38637.419509781386 ; 197203.4425450016 ; 0.0
7 ; 8534.12520308994 ; 32867.240424166936 ; 46900.824295689745 ; 230070.68296916853 ; 0.0
8 ; 9133.77733468456 ; 32867.240424166936 ; 55434.949498779686 ; 262937.9233933355 ; 0.0
9 ; 9596.910446884676 ; 32867.240424166936 ; 64568.72683346424 ; 295805.16381750244 ; 0.0
10 ; 10078.210419973178 ; 32867.240424166936 ; 74165.63728034892 ; 328672.4042416694 ; 0.0
11 ; 10455.107768521875 ; 32867.240424166936 ; 84243.8477003221 ; 361539.64466583636 ; 0.0
12 ; 10856.722548463546 ; 32867.240424166936 ; 94698.95546884398 ; 394406.8850900033 ; 0.0
13 ; 11414.599690190355 ; 32867.240424166936 ; 105555.67801730752 ; 427274.1255141703 ; 0.0
14 ; 11766.072968718881 ; 32867.240424166936 ; 116970.27770749788 ; 460141.3659383372 ; 0.0
15 ; 12221.60659418089 ; 32867.240424166936 ; 128736.35067621677 ; 493008.6063625042 ; 0.0
16 ; 12679.072790884886 ; 32867.240424166936 ; 140957.95727039766 ; 525875.8467866711 ; 0.0
17 ; 13013.877516745286 ; 32867.240424166936 ; 153637.03006128254 ; 558743.087210838 ; 0.0
18 ; 13437.86097084508 ; 32867.240424166936 ; 166650.90757802784 ; 591610.3276350049 ; 0.0
19 ; 13720.28622633068 ; 32867.240424166936 ; 180088.7685488729 ; 624477.5680591718 ; 0.0
20 ; 14164.156204063222 ; 32867.240424166936 ; 193809.05477520358 ; 657344.8084833387 ; 0.0
21 ; 14520.482270978171 ; 32867.240424166936 ; 207973.2109792668 ; 690212.0489075056 ; 0.0
22 ; 14888.489336646118 ; 32867.240424166936 ; 222493.69325024495 ; 723079.2893316725 ; 0.0
23 ; 15342.151469306635 ; 32867.240424166936 ; 237382.18258689105 ; 755946.5297558394 ; 0.0
24 ; 15780.007427487462 ; 32867.240424166936 ; 252724.3340561977 ; 788813.7701800063 ; 0.0
25 ; 16199.30971700967 ; 32867.240424166936 ; 268504.34148368513 ; 821681.0106041732 ; 0.0
26 ; 16521.55784880767 ; 32867.240424166936 ; 284703.6512006948 ; 854548.2510283401 ; 0.0
27 ; 16889.529379124062 ; 32867.240424166936 ; 301225.20904950245 ; 887415.491452507 ; 0.0
28 ; 17385.380333494082 ; 32867.240424166936 ; 318114.7384286265 ; 920282.7318766739 ; 0.0
29 ; 17560.003703055994 ; 32867.240424166936 ; 335500.1187621206 ; 953149.9723008408 ; 0.0
30 ; 17743.358360523984 ; 32867.240424166936 ; 353060.1224651766 ; 986017.2127250077 ; 0.0
31 ; 18181.596248059846 ; 32867.240424166936 ; 370803.4808257006 ; 1018884.4531491746 ; 0.0
32 ; 18637.442205444007 ; 32867.240424166936 ; 388985.07707376045 ; 1051751.6935733415 ; 0.0
33 ; 18889.985561424994 ; 32867.240424166936 ; 407622.5192792044 ; 1084618.9339975084 ; 0.0
34 ; 19227.618368235755 ; 32867.240424166936 ; 426512.5048406294 ; 1117486.1744216753 ; 0.0
35 ; 19626.468072117998 ; 32867.240424166936 ; 445740.1232088652 ; 1150353.4148458422 ; 0.0
36 ; 19771.75980279735 ; 32867.240424166936 ; 465366.5912809832 ; 1183220.655270009 ; 0.0
37 ; 19958.97312460586 ; 32867.240424166936 ; 485138.3510837805 ; 1216087.895694176 ; 0.0
38 ; 20204.975780049448 ; 32867.240424166936 ; 505097.32420838636 ; 1248955.1361183429 ; 0.0
39 ; 20470.203228197388 ; 32867.240424166936 ; 525302.2999884358 ; 1281822.3765425098 ; 0.0
40 ; 20733.34681706231 ; 32867.240424166936 ; 545772.5032166332 ; 1314689.6169666767 ; 0.0
41 ; 21102.15141583996 ; 32867.240424166936 ; 566505.8500336956 ; 1347556.8573908436 ; 0.0
42 ; 21402.368851457748 ; 32867.240424166936 ; 587608.0014495355 ; 1380424.0978150105 ; 0.0
43 ; 21498.95866017922 ; 32867.240424166936 ; 609010.3703009932 ; 1413291.3382391774 ; 0.0
44 ; 21801.26226993467 ; 32867.240424166936 ; 630509.3289611724 ; 1446158.5786633443 ; 0.0
45 ; 22130.831190652963 ; 32867.240424166936 ; 652310.591231107 ; 1479025.8190875112 ; 0.0
46 ; 22392.277525567897 ; 32867.240424166936 ; 674441.4224217599 ; 1511893.059511678 ; 0.0
47 ; 22494.995911559752 ; 32867.240424166936 ; 696833.6999473278 ; 1544760.299935845 ; 0.0
48 ; 22821.03294787394 ; 32867.240424166936 ; 719328.6958588876 ; 1577627.5403600119 ; 0.0
49 ; 23124.167435531042 ; 32867.240424166936 ; 742149.7288067616 ; 1610494.7807841788 ; 0.0
50 ; 23148.066653470596 ; 32867.240424166936 ; 765273.8962422926 ; 1643362.0212083457 ; 0.0
51 ; 23189.25090729406 ; 32867.240424166936 ; 788421.9628957632 ; 1676229.2616325126 ; 0.0
52 ; 23555.518657808625 ; 32867.240424166936 ; 811611.2138030573 ; 1709096.5020566795 ; 0.0
53 ; 23876.309220916293 ; 32867.240424166936 ; 835166.732460866 ; 1741963.7424808464 ; 0.0
54 ; 24009.05863225645 ; 32867.240424166936 ; 859043.0416817822 ; 1774830.9829050133 ; 0.0
55 ; 24080.26150592284 ; 32867.240424166936 ; 883052.1003140387 ; 1807698.2233291802 ; 0.0
56 ; 24327.747043043197 ; 32867.240424166936 ; 907132.3618199616 ; 1840565.463753347 ; 0.0
57 ; 24470.213177055317 ; 32867.240424166936 ; 931460.1088630047 ; 1873432.704177514 ; 0.0
58 ; 24725.40238745997 ; 32867.240424166936 ; 955930.3220400601 ; 1906299.9446016809 ; 0.0
59 ; 24652.889458626818 ; 32867.240424166936 ; 980655.7244275201 ; 1939167.1850258477 ; 0.0
60 ; 24918.71579502637 ; 32867.240424166936 ; 1005308.6138861469 ; 1972034.4254500146 ; 0.0
61 ; 24993.27702208298 ; 32867.240424166936 ; 1030227.3296811733 ; 2004901.6658741815 ; 0.0
62 ; 25213.30760485734 ; 32867.240424166936 ; 1055220.6067032563 ; 2037768.9062983484 ; 0.0
63 ; 25411.978311861978 ; 32867.240424166936 ; 1080433.9143081135 ; 2070636.1467225153 ; 0.0
64 ; 25308.69287573996 ; 32867.240424166936 ; 1105845.8926199754 ; 2103503.3871466825 ; 0.0
65 ; 25589.935767422074 ; 32867.240424166936 ; 1131154.5854957153 ; 2136370.6275708494 ; 0.0
66 ; 25605.77763723231 ; 32867.240424166936 ; 1156744.5212631372 ; 2169237.8679950163 ; 0.0
67 ; 25682.856647984823 ; 32867.240424166936 ; 1182350.2989003696 ; 2202105.108419183 ; 0.0
68 ; 25843.611880826906 ; 32867.240424166936 ; 1208033.1555483544 ; 2234972.34884335 ; 0.0
69 ; 25812.79375315117 ; 32867.240424166936 ; 1233876.7674291814 ; 2267839.589267517 ; 0.0
70 ; 26151.835631174738 ; 32867.240424166936 ; 1259689.5611823325 ; 2300706.829691684 ; 0.0
71 ; 26052.45461377131 ; 32867.240424166936 ; 1285841.3968135072 ; 2333574.070115851 ; 0.0
72 ; 26173.320093369297 ; 32867.240424166936 ; 1311893.8514272785 ; 2366441.3105400177 ; 0.0
73 ; 26371.869966963623 ; 32867.240424166936 ; 1338067.1715206478 ; 2399308.5509641846 ; 0.0
74 ; 26199.625923868094 ; 32867.240424166936 ; 1364439.0414876114 ; 2432175.7913883515 ; 0.0
75 ; 26307.609030582655 ; 32867.240424166936 ; 1390638.6674114794 ; 2465043.0318125184 ; 0.0
76 ; 26367.36728735792 ; 32867.240424166936 ; 1416946.276442062 ; 2497910.2722366853 ; 0.0
77 ; 26492.458031954568 ; 32867.240424166936 ; 1443313.64372942 ; 2530777.512660852 ; 0.0
78 ; 26307.56375709696 ; 32867.240424166936 ; 1469806.1017613744 ; 2563644.753085019 ; 0.0
79 ; 26543.6701513936 ; 32867.240424166936 ; 1496113.6655184713 ; 2596511.993509186 ; 0.0
80 ; 26384.226955887138 ; 32867.240424166936 ; 1522657.335669865 ; 2629379.233933353 ; 0.0
81 ; 26412.447910608043 ; 32867.240424166936 ; 1549041.562625752 ; 2662246.4743575198 ; 0.0
82 ; 26564.027403856984 ; 32867.240424166936 ; 1575454.01053636 ; 2695113.7147816867 ; 0.0
83 ; 26462.989469730896 ; 32867.240424166936 ; 1602018.0379402172 ; 2727980.9552058536 ; 0.0
84 ; 26391.06836217434 ; 32867.240424166936 ; 1628481.0274099482 ; 2760848.1956300205 ; 0.0
85 ; 26309.145992241258 ; 32867.240424166936 ; 1654872.0957721225 ; 2793715.4360541874 ; 0.0
86 ; 26388.887840014853 ; 32867.240424166936 ; 1681181.2417643638 ; 2826582.6764783543 ; 0.0
87 ; 26230.517497160225 ; 32867.240424166936 ; 1707570.1296043787 ; 2859449.916902521 ; 0.0
88 ; 26330.003228502235 ; 32867.240424166936 ; 1733800.647101539 ; 2892317.157326688 ; 0.0
89 ; 26331.595416397868 ; 32867.240424166936 ; 1760130.6503300413 ; 2925184.397750855 ; 0.0
90 ; 26317.008654043293 ; 32867.240424166936 ; 1786462.245746439 ; 2958051.638175022 ; 0.0
91 ; 26070.429672530106 ; 32867.240424166936 ; 1812779.2544004824 ; 2990918.8785991888 ; 0.0
92 ; 26222.924480571914 ; 32867.240424166936 ; 1838849.6840730126 ; 3023786.1190233557 ; 0.0
93 ; 26209.65710689097 ; 32867.240424166936 ; 1865072.6085535844 ; 3056653.3594475226 ; 0.0
94 ; 26021.77962692239 ; 32867.240424166936 ; 1891282.2656604755 ; 3089520.5998716895 ; 0.0
95 ; 25924.925340026864 ; 32867.240424166936 ; 1917304.045287398 ; 3122387.8402958564 ; 0.0
96 ; 25758.089717309602 ; 32867.240424166936 ; 1943228.9706274248 ; 3155255.0807200233 ; 0.0
97 ; 25812.641241685393 ; 32867.240424166936 ; 1968987.0603447345 ; 3188122.32114419 ; 0.0
98 ; 25709.971318050248 ; 32867.240424166936 ; 1994799.70158642 ; 3220989.561568357 ; 0.0
99 ; 25591.930801168444 ; 32867.240424166936 ; 2020509.6729044702 ; 3253856.801992524 ; 0.0
100 ; 25505.314789514876 ; 32867.240424166936 ; 2046101.6037056388 ; 3286724.042416691 ; 0.0
101 ; 25353.80941468381 ; 32867.240424166936 ; 2071606.9184951538 ; 3319591.2828408577 ; 0.0
102 ; 25125.044794579157 ; 32867.240424166936 ; 2096960.7279098376 ; 3352458.5232650246 ; 0.0
103 ; 24983.809603991664 ; 32867.240424166936 ; 2122085.772704417 ; 3385325.7636891915 ; 0.0
104 ; 24842.206749003744 ; 32867.240424166936 ; 2147069.5823084083 ; 3418193.0041133584 ; 0.0
105 ; 24753.966355582987 ; 32867.240424166936 ; 2171911.789057412 ; 3451060.2445375253 ; 0.0
106 ; 24744.218291748635 ; 32867.240424166936 ; 2196665.7554129953 ; 3483927.4849616922 ; 0.0
107 ; 24499.867459714158 ; 32867.240424166936 ; 2221409.973704744 ; 3516794.725385859 ; 0.0
108 ; 24319.763535091763 ; 32867.240424166936 ; 2245909.841164458 ; 3549661.965810026 ; 0.0
109 ; 24253.92141934293 ; 32867.240424166936 ; 2270229.6046995497 ; 3582529.206234193 ; 0.0
110 ; 24074.242459951874 ; 32867.240424166936 ; 2294483.5261188927 ; 3615396.44665836 ; 0.0
111 ; 23827.045810270243 ; 32867.240424166936 ; 2318557.7685788446 ; 3648263.6870825267 ; 0.0
112 ; 23728.251147531886 ; 32867.240424166936 ; 2342384.8143891147 ; 3681130.9275066936 ; 0.0
113 ; 23597.336954584604 ; 32867.240424166936 ; 2366113.0655366466 ; 3713998.1679308605 ; 0.0
114 ; 23313.311259113678 ; 32867.240424166936 ; 2389710.4024912314 ; 3746865.4083550274 ; 0.0
115 ; 22991.80624809231 ; 32867.240424166936 ; 2413023.713750345 ; 3779732.6487791943 ; 0.0
116 ; 22971.145536055352 ; 32867.240424166936 ; 2436015.5199984373 ; 3812599.8892033612 ; 0.0
117 ; 22721.906724886805 ; 32867.240424166936 ; 2458986.6655344926 ; 3845467.129627528 ; 0.0
118 ; 22332.97957223021 ; 32867.240424166936 ; 2481708.5722593796 ; 3878334.370051695 ; 0.0
119 ; 22110.484354250053 ; 32867.240424166936 ; 2504041.5518316096 ; 3911201.610475862 ; 0.0
120 ; 22128.065096700797 ; 32867.240424166936 ; 2526152.0361858597 ; 3944068.850900029 ; 0.0
121 ; 21818.193658165234 ; 32867.240424166936 ; 2548280.1012825603 ; 3976936.0913241957 ; 0.0
122 ; 21520.729680084296 ; 32867.240424166936 ; 2570098.2949407254 ; 4009803.3317483626 ; 0.0
123 ; 21451.092046355727 ; 32867.240424166936 ; 2591619.0246208096 ; 4042670.5721725295 ; 0.0
124 ; 21038.60560524419 ; 32867.240424166936 ; 2613070.1166671654 ; 4075537.8125966964 ; 0.0
125 ; 20757.576323357935 ; 32867.240424166936 ; 2634108.7222724096 ; 4108405.0530208633 ; 0.0
126 ; 20476.847277849476 ; 32867.240424166936 ; 2654866.2985957675 ; 4141272.29344503 ; 0.0
127 ; 20306.98671891353 ; 32867.240424166936 ; 2675343.145873617 ; 4174139.533869197 ; 0.0
128 ; 19976.16695806816 ; 32867.240424166936 ; 2695650.1325925305 ; 4207006.774293364 ; 0.0
129 ; 19539.557145474082 ; 32867.240424166936 ; 2715626.2995505985 ; 4239874.014717531 ; 0.0
130 ; 19350.187991073173 ; 32867.240424166936 ; 2735165.8566960725 ; 4272741.255141699 ; 0.0
131 ; 19230.90115980736 ; 32867.240424166936 ; 2754516.044687146 ; 4305608.495565866 ; 0.0
132 ; 18753.57083423821 ; 32867.240424166936 ; 2773746.9458469534 ; 4338475.7359900335 ; 0.0
133 ; 18337.546038529184 ; 32867.240424166936 ; 2792500.5166811915 ; 4371342.976414201 ; 0.0
134 ; 18051.023486113263 ; 32867.240424166936 ; 2810838.062719721 ; 4404210.216838368 ; 0.0
135 ; 17675.383383803382 ; 32867.240424166936 ; 2828889.086205834 ; 4437077.457262536 ; 0.0
136 ; 17502.08378844988 ; 32867.240424166936 ; 2846564.4695896376 ; 4469944.697686703 ; 0.0
137 ; 17124.283520656976 ; 32867.240424166936 ; 2864066.5533780875 ; 4502811.93811087 ; 0.0
138 ; 16700.978898112597 ; 32867.240424166936 ; 2881190.8368987446 ; 4535679.178535038 ; 0.0
139 ; 16422.02123149847 ; 32867.240424166936 ; 2897891.8157968572 ; 4568546.418959205 ; 0.0
140 ; 16039.864791587586 ; 32867.240424166936 ; 2914313.837028356 ; 4601413.659383372 ; 0.0
141 ; 15762.591412430425 ; 32867.240424166936 ; 2930353.7018199433 ; 4634280.89980754 ; 0.0
142 ; 15370.540178560577 ; 32867.240424166936 ; 2946116.293232374 ; 4667148.140231707 ; 0.0
143 ; 14864.400222514469 ; 32867.240424166936 ; 2961486.8334109345 ; 4700015.3806558745 ; 0.0
144 ; 14526.665415312755 ; 32867.240424166936 ; 2976351.233633449 ; 4732882.621080042 ; 0.0
145 ; 14447.968803409974 ; 32867.240424166936 ; 2990877.8990487615 ; 4765749.861504209 ; 0.0
146 ; 14301.852400298369 ; 32867.240424166936 ; 3005325.8678521714 ; 4798617.101928377 ; 0.0
147 ; 14333.910625842485 ; 32867.240424166936 ; 3019627.7202524696 ; 4831484.342352544 ; 0.0
148 ; 14225.054086012016 ; 32867.240424166936 ; 3033961.630878312 ; 4864351.582776711 ; 0.0
149 ; 14026.974506005448 ; 32867.240424166936 ; 3048186.684964324 ; 4897218.823200879 ; 0.0
150 ; 13800.725943366135 ; 32867.240424166936 ; 3062213.6594703295 ; 4930086.063625046 ; 0.0
151 ; 13768.55426078927 ; 32867.240424166936 ; 3076014.3854136956 ; 4962953.304049213 ; 0.0
152 ; 13684.525706024253 ; 32867.240424166936 ; 3089782.939674485 ; 4995820.544473381 ; 0.0
153 ; 13555.714652428125 ; 32867.240424166936 ; 3103467.4653805094 ; 5028687.784897548 ; 0.0
154 ; 13390.337208432262 ; 32867.240424166936 ; 3117023.1800329373 ; 5061555.0253217155 ; 0.0
155 ; 13418.88570009267 ; 32867.240424166936 ; 3130413.5172413695 ; 5094422.265745883 ; 0.0
156 ; 13215.056932870279 ; 32867.240424166936 ; 3143832.402941462 ; 5127289.50617005 ; 0.0
157 ; 13196.302262051657 ; 32867.240424166936 ; 3157047.4598743324 ; 5160156.746594218 ; 0.0
158 ; 12708.389365103525 ; 32867.240424166936 ; 3170243.762136384 ; 5193023.987018385 ; 0.0
159 ; 12750.21605850241 ; 32867.240424166936 ; 3182952.1515014875 ; 5225891.227442552 ; 0.0
160 ; 12744.358979675824 ; 32867.240424166936 ; 3195702.36755999 ; 5258758.46786672 ; 0.0
161 ; 12583.666357055774 ; 32867.240424166936 ; 3208446.726539666 ; 5291625.708290887 ; 0.0
162 ; 12381.071962201204 ; 32867.240424166936 ; 3221030.3928967216 ; 5324492.948715054 ; 0.0
163 ; 12450.637379067008 ; 32867.240424166936 ; 3233411.4648589226 ; 5357360.189139222 ; 0.0
164 ; 11994.659892113326 ; 32867.240424166936 ; 3245862.1022379897 ; 5390227.429563389 ; 0.0
165 ; 12122.801580289028 ; 32867.240424166936 ; 3257856.762130103 ; 5423094.6699875565 ; 0.0
166 ; 11818.129447732666 ; 32867.240424166936 ; 3269979.563710392 ; 5455961.910411724 ; 0.0
167 ; 11659.2783156934 ; 32867.240424166936 ; 3281797.6931581246 ; 5488829.150835891 ; 0.0
168 ; 11484.706171538299 ; 32867.240424166936 ; 3293456.971473818 ; 5521696.391260059 ; 0.0
169 ; 11351.691611527865 ; 32867.240424166936 ; 3304941.6776453564 ; 5554563.631684226 ; 0.0
170 ; 11321.983603939672 ; 32867.240424166936 ; 3316293.3692568843 ; 5587430.872108393 ; 0.0
171 ; 10866.538245378177 ; 32867.240424166936 ; 3327615.352860824 ; 5620298.112532561 ; 0.0
172 ; 10672.92018896212 ; 32867.240424166936 ; 3338481.8911062023 ; 5653165.352956728 ; 0.0
173 ; 10708.40800200563 ; 32867.240424166936 ; 3349154.8112951643 ; 5686032.593380895 ; 0.0
174 ; 10827.289886612734 ; 32867.240424166936 ; 3359863.2192971697 ; 5718899.833805063 ; 0.0
175 ; 10917.42781584531 ; 32867.240424166936 ; 3370690.5091837826 ; 5751767.07422923 ; 0.0
176 ; 10763.255962611296 ; 32867.240424166936 ; 3381607.936999628 ; 5784634.314653398 ; 0.0
177 ; 10836.549126943813 ; 32867.240424166936 ; 3392371.192962239 ; 5817501.555077565 ; 0.0
178 ; 10960.87861579641 ; 32867.240424166936 ; 3403207.742089183 ; 5850368.795501732 ; 0.0
179 ; 10971.896613744939 ; 32867.240424166936 ; 3414168.6207049796 ; 5883236.0359259 ; 0.0
180 ; 10998.004107616849 ; 32867.240424166936 ; 3425140.5173187247 ; 5916103.276350067 ; 0.0
181 ; 10991.144734757356 ; 32867.240424166936 ; 3436138.5214263415 ; 5948970.516774234 ; 0.0
182 ; 11179.903744110794 ; 32867.240424166936 ; 3447129.666161099 ; 5981837.757198402 ; 0.0
183 ; 11138.23970738228 ; 32867.240424166936 ; 3458309.56990521 ; 6014704.997622569 ; 0.0
184 ; 11004.775555355083 ; 32867.240424166936 ; 3469447.809612592 ; 6047572.238046736 ; 0.0
185 ; 11014.78041096456 ; 32867.240424166936 ; 3480452.585167947 ; 6080439.478470904 ; 0.0
186 ; 11196.616312162634 ; 32867.240424166936 ; 3491467.3655789117 ; 6113306.718895071 ; 0.0
187 ; 11081.36054619072 ; 32867.240424166936 ; 3502663.981891074 ; 6146173.959319239 ; 0.0
188 ; 11095.456776354922 ; 32867.240424166936 ; 3513745.342437265 ; 6179041.199743406 ; 0.0
189 ; 11172.366844502756 ; 32867.240424166936 ; 3524840.79921362 ; 6211908.440167573 ; 0.0
190 ; 11186.465490501068 ; 32867.240424166936 ; 3536013.1660581226 ; 6244775.680591741 ; 0.0
191 ; 11136.064946827228 ; 32867.240424166936 ; 3547199.6315486236 ; 6277642.921015908 ; 0.0
192 ; 11231.800348965033 ; 32867.240424166936 ; 3558335.6964954506 ; 6310510.161440075 ; 0.0
193 ; 11312.328562504143 ; 32867.240424166936 ; 3569567.4968444156 ; 6343377.401864243 ; 0.0
194 ; 11319.426947028942 ; 32867.240424166936 ; 3580879.8254069197 ; 6376244.64228841 ; 0.0
195 ; 11417.950292276313 ; 32867.240424166936 ; 3592199.2523539485 ; 6409111.8827125775 ; 0.0
196 ; 11398.981632317218 ; 32867.240424166936 ; 3603617.2026462248 ; 6441979.123136745 ; 0.0
197 ; 11407.57310593584 ; 32867.240424166936 ; 3615016.184278542 ; 6474846.363560912 ; 0.0
198 ; 11568.976694492188 ; 32867.240424166936 ; 3626423.757384478 ; 6507713.60398508 ; 0.0
199 ; 11537.155075858052 ; 32867.240424166936 ; 3637992.7340789703 ; 6540580.844409247 ; 0.0
200 ; 11629.432004970047 ; 32867.240424166936 ; 3649529.889154828 ; 6573448.084833414 ; 0.0
201 ; 11558.328892463904 ; 32867.240424166936 ; 3661159.321159798 ; 6606315.325257582 ; 0.0
202 ; 11725.336127504646 ; 32867.240424166936 ; 3672717.650052262 ; 6639182.565681749 ; 0.0
203 ; 11648.746078452328 ; 32867.240424166936 ; 3684442.9861797667 ; 6672049.806105916 ; 0.0
204 ; 11660.684223029615 ; 32867.240424166936 ; 3696091.7322582193 ; 6704917.046530084 ; 0.0
205 ; 11589.332549693967 ; 32867.240424166936 ; 3707752.416481249 ; 6737784.286954251 ; 0.0
206 ; 11723.96849236146 ; 32867.240424166936 ; 3719341.749030943 ; 6770651.5273784185 ; 0.0
207 ; 11673.905209460525 ; 32867.240424166936 ; 3731065.7175233043 ; 6803518.767802586 ; 0.0
208 ; 11757.96631820787 ; 32867.240424166936 ; 3742739.6227327646 ; 6836386.008226753 ; 0.0
209 ; 11797.431138382546 ; 32867.240424166936 ; 3754497.5890509724 ; 6869253.248650921 ; 0.0
210 ; 11851.909064837697 ; 32867.240424166936 ; 3766295.020189355 ; 6902120.489075088 ; 0.0
211 ; 11871.540694851783 ; 32867.240424166936 ; 3778146.929254193 ; 6934987.729499255 ; 0.0
212 ; 11750.343292762496 ; 32867.240424166936 ; 3790018.4699490448 ; 6967854.969923423 ; 0.0
213 ; 11889.932673161959 ; 32867.240424166936 ; 3801768.8132418073 ; 7000722.21034759 ; 0.0
