CSV File for the City 1 on Day 206
1 - Minute m 
2 - Power Consumed at minute m 
3 - Power Produced at minute m 
4 - Energy Consumed since the beginning of the day 
5 - Energy Produced since the beginning of the day 
6 - Energy Lost since the beginning of the day on lines starting from the city
 
0 ; 5464.781428687311 ; 3966.844178067786 ; 0.0 ; 0.0 ; 0.0
1 ; 5995.30232614089 ; 3966.844178067786 ; 5464.781428687311 ; 3966.844178067786 ; 238.00000000000003
2 ; 6518.833682722861 ; 3966.844178067786 ; 11460.0837548282 ; 7933.688356135572 ; 476.00000000000006
3 ; 7025.09878663254 ; 3966.844178067786 ; 17978.917437551063 ; 11900.532534203357 ; 714.0000000000001
4 ; 8035.823664578218 ; 3966.844178067786 ; 25004.016224183604 ; 15867.376712271143 ; 952.0000000000001
5 ; 8363.525753848777 ; 3966.844178067786 ; 33039.839888761824 ; 19834.22089033893 ; 1190.0000000000002
6 ; 9006.058448097041 ; 3966.844178067786 ; 41403.3656426106 ; 23801.065068406715 ; 1428.0000000000002
7 ; 9553.756098034959 ; 3966.844178067786 ; 50409.424090707646 ; 27767.9092464745 ; 1666.0000000000002
8 ; 10137.157155140749 ; 3966.844178067786 ; 59963.180188742605 ; 31734.753424542287 ; 1904.0000000000002
9 ; 10968.532891309003 ; 3966.844178067786 ; 70100.33734388335 ; 35701.59760261007 ; 2142.0000000000005
10 ; 11145.432804198901 ; 3966.844178067786 ; 81068.87023519236 ; 39668.44178067785 ; 2380.0000000000005
11 ; 11841.330305992096 ; 3966.844178067786 ; 92214.30303939126 ; 43635.28595874563 ; 2618.0000000000005
12 ; 12439.727567302996 ; 3966.844178067786 ; 104055.63334538336 ; 47602.130136813415 ; 2856.0000000000005
13 ; 13108.831730349826 ; 3966.844178067786 ; 116495.36091268636 ; 51568.9743148812 ; 3094.0000000000005
14 ; 13469.977465183094 ; 3966.844178067786 ; 129604.1926430362 ; 55535.81849294898 ; 3332.0000000000005
15 ; 14088.961724820618 ; 3966.844178067786 ; 143074.1701082193 ; 59502.66267101676 ; 3570.0000000000005
16 ; 14476.816080020755 ; 3966.844178067786 ; 157163.1318330399 ; 63469.506849084544 ; 3808.0000000000005
17 ; 15019.240239849 ; 3966.844178067786 ; 171639.94791306066 ; 67436.35102715233 ; 4046.0000000000005
18 ; 15720.75058158418 ; 3966.844178067786 ; 186659.18815290966 ; 71403.19520522011 ; 4284.000000000001
19 ; 16177.762089018168 ; 3966.844178067786 ; 202379.93873449383 ; 75370.03938328789 ; 4522.000000000001
20 ; 16573.048838196395 ; 3966.844178067786 ; 218557.700823512 ; 79336.88356135567 ; 4760.000000000001
21 ; 16984.721421728245 ; 3966.844178067786 ; 235130.74966170837 ; 83303.72773942346 ; 4998.000000000001
22 ; 17626.139986736456 ; 3966.844178067786 ; 252115.47108343663 ; 87270.57191749124 ; 5236.000000000001
23 ; 18140.534943926836 ; 3966.844178067786 ; 269741.6110701731 ; 91237.41609555902 ; 5474.000000000001
24 ; 18623.1830120689 ; 3966.844178067786 ; 287882.14601409994 ; 95204.2602736268 ; 5712.000000000001
25 ; 19032.143594228168 ; 3966.844178067786 ; 306505.32902616885 ; 99171.10445169458 ; 5950.000000000001
26 ; 19542.691819068365 ; 3966.844178067786 ; 325537.472620397 ; 103137.94862976237 ; 6188.000000000001
27 ; 19995.302640403464 ; 3966.844178067786 ; 345080.1644394654 ; 107104.79280783015 ; 6426.000000000001
28 ; 20318.900818550326 ; 3966.844178067786 ; 365075.46707986883 ; 111071.63698589793 ; 6664.000000000001
29 ; 20808.638901597107 ; 3966.844178067786 ; 385394.36789841915 ; 115038.48116396571 ; 6902.000000000001
30 ; 21097.720891809182 ; 3966.844178067786 ; 406203.0068000163 ; 119005.3253420335 ; 7140.000000000001
31 ; 21349.432996297768 ; 3966.844178067786 ; 427300.7276918255 ; 122972.16952010128 ; 7378.000000000001
32 ; 21925.183758538165 ; 3966.844178067786 ; 448650.16068812326 ; 126939.01369816906 ; 7616.000000000001
33 ; 22256.286994582264 ; 3966.844178067786 ; 470575.3444466614 ; 130905.85787623684 ; 7854.000000000001
34 ; 22756.720972038962 ; 3966.844178067786 ; 492831.6314412437 ; 134872.70205430462 ; 8092.000000000001
35 ; 23041.455690651495 ; 3966.844178067786 ; 515588.3524132827 ; 138839.5462323724 ; 8330.000000000002
36 ; 23486.7458669044 ; 3966.844178067786 ; 538629.8081039342 ; 142806.3904104402 ; 8568.000000000002
37 ; 23691.465130434863 ; 3966.844178067786 ; 562116.5539708385 ; 146773.23458850797 ; 8806.000000000002
38 ; 24054.22455882914 ; 3966.844178067786 ; 585808.0191012734 ; 150740.07876657575 ; 9044.000000000002
39 ; 24432.961782508763 ; 3966.844178067786 ; 609862.2436601025 ; 154706.92294464353 ; 9282.000000000002
40 ; 24801.71700846106 ; 3966.844178067786 ; 634295.2054426112 ; 158673.76712271132 ; 9520.000000000002
41 ; 25095.40009129126 ; 3966.844178067786 ; 659096.9224510723 ; 162640.6113007791 ; 9758.000000000002
42 ; 25314.878385269385 ; 3966.844178067786 ; 684192.3225423635 ; 166607.45547884688 ; 9996.000000000002
43 ; 25600.546487078816 ; 3966.844178067786 ; 709507.200927633 ; 170574.29965691466 ; 10234.000000000002
44 ; 26104.328928792143 ; 3966.844178067786 ; 735107.7474147117 ; 174541.14383498245 ; 10472.000000000002
45 ; 26267.098545884444 ; 3966.844178067786 ; 761212.0763435039 ; 178507.98801305023 ; 10710.000000000002
46 ; 26711.01182024201 ; 3966.844178067786 ; 787479.1748893884 ; 182474.832191118 ; 10948.000000000002
47 ; 26978.208415639525 ; 3966.844178067786 ; 814190.1867096304 ; 186441.6763691858 ; 11186.000000000002
48 ; 27235.904376844668 ; 3966.844178067786 ; 841168.3951252699 ; 190408.52054725357 ; 11424.000000000002
49 ; 27522.547511827026 ; 3966.844178067786 ; 868404.2995021145 ; 194375.36472532136 ; 11662.000000000002
50 ; 27678.892790419068 ; 3966.844178067786 ; 895926.8470139415 ; 198342.20890338914 ; 11900.000000000002
51 ; 28033.303125744776 ; 3966.844178067786 ; 923605.7398043605 ; 202309.05308145692 ; 12138.000000000002
52 ; 28077.70913307793 ; 3966.844178067786 ; 951639.0429301054 ; 206275.8972595247 ; 12376.000000000002
53 ; 28424.085752642775 ; 3966.844178067786 ; 979716.7520631832 ; 210242.7414375925 ; 12614.000000000002
54 ; 28701.352520511075 ; 3966.844178067786 ; 1008140.8378158261 ; 214209.58561566027 ; 12852.000000000002
55 ; 28859.25074212677 ; 3966.844178067786 ; 1036842.1903363371 ; 218176.42979372805 ; 13090.000000000002
56 ; 29201.03947495711 ; 3966.844178067786 ; 1065701.4410784638 ; 222143.27397179583 ; 13328.000000000002
57 ; 29226.43861461952 ; 3966.844178067786 ; 1094902.480553421 ; 226110.1181498636 ; 13566.000000000002
58 ; 29431.297657774685 ; 3966.844178067786 ; 1124128.9191680404 ; 230076.9623279314 ; 13804.000000000002
59 ; 29705.13074931238 ; 3966.844178067786 ; 1153560.2168258152 ; 234043.80650599918 ; 14042.000000000002
60 ; 30019.35257402457 ; 3966.844178067786 ; 1183265.3475751276 ; 238010.65068406696 ; 14280.000000000002
61 ; 29971.677164569053 ; 3966.844178067786 ; 1213284.7001491522 ; 241977.49486213474 ; 14518.000000000002
62 ; 30239.70014360166 ; 3966.844178067786 ; 1243256.3773137212 ; 245944.33904020253 ; 14756.000000000002
63 ; 30225.59101179143 ; 3966.844178067786 ; 1273496.077457323 ; 249911.1832182703 ; 14994.000000000002
64 ; 30292.139802679376 ; 3966.844178067786 ; 1303721.6684691145 ; 253878.0273963381 ; 15232.000000000002
65 ; 30393.69489276176 ; 3966.844178067786 ; 1334013.8082717939 ; 257844.87157440587 ; 15470.000000000002
66 ; 30734.69195661405 ; 3966.844178067786 ; 1364407.5031645556 ; 261811.71575247365 ; 15708.000000000002
67 ; 30802.429358445643 ; 3966.844178067786 ; 1395142.1951211698 ; 265778.55993054144 ; 15946.000000000002
68 ; 30827.871311068546 ; 3966.844178067786 ; 1425944.6244796154 ; 269745.40410860925 ; 16184.000000000002
69 ; 31004.871686942308 ; 3966.844178067786 ; 1456772.495790684 ; 273712.24828667706 ; 16422.000000000004
70 ; 31300.11825869774 ; 3966.844178067786 ; 1487777.3674776263 ; 277679.09246474487 ; 16660.000000000004
71 ; 31076.77403121061 ; 3966.844178067786 ; 1519077.485736324 ; 281645.9366428127 ; 16898.000000000004
72 ; 31447.808428761295 ; 3966.844178067786 ; 1550154.2597675347 ; 285612.7808208805 ; 17136.000000000004
73 ; 31291.045294118223 ; 3966.844178067786 ; 1581602.068196296 ; 289579.6249989483 ; 17374.000000000004
74 ; 31450.01077430923 ; 3966.844178067786 ; 1612893.113490414 ; 293546.4691770161 ; 17612.000000000004
75 ; 31668.02478771615 ; 3966.844178067786 ; 1644343.1242647234 ; 297513.3133550839 ; 17850.000000000004
76 ; 31414.436465535106 ; 3966.844178067786 ; 1676011.1490524395 ; 301480.15753315174 ; 18088.000000000004
77 ; 31684.83100712601 ; 3966.844178067786 ; 1707425.5855179746 ; 305447.00171121955 ; 18326.000000000004
78 ; 31685.230349272122 ; 3966.844178067786 ; 1739110.4165251006 ; 309413.84588928736 ; 18564.000000000004
79 ; 31673.959041463033 ; 3966.844178067786 ; 1770795.6468743726 ; 313380.6900673552 ; 18802.000000000004
80 ; 31881.194969687826 ; 3966.844178067786 ; 1802469.6059158356 ; 317347.534245423 ; 19040.000000000004
81 ; 31777.949413900733 ; 3966.844178067786 ; 1834350.8008855234 ; 321314.3784234908 ; 19278.000000000004
82 ; 31747.128329639385 ; 3966.844178067786 ; 1866128.7502994242 ; 325281.2226015586 ; 19516.000000000004
83 ; 31941.054118953005 ; 3966.844178067786 ; 1897875.8786290635 ; 329248.0667796264 ; 19754.000000000004
84 ; 31889.89751388534 ; 3966.844178067786 ; 1929816.9327480164 ; 333214.9109576942 ; 19992.000000000004
85 ; 32014.551860300686 ; 3966.844178067786 ; 1961706.8302619017 ; 337181.75513576204 ; 20230.000000000004
86 ; 31824.388246557835 ; 3966.844178067786 ; 1993721.3821222023 ; 341148.59931382985 ; 20468.000000000004
87 ; 31677.379081614574 ; 3966.844178067786 ; 2025545.7703687602 ; 345115.44349189766 ; 20706.000000000004
88 ; 31706.924195647556 ; 3966.844178067786 ; 2057223.1494503748 ; 349082.2876699655 ; 20944.000000000004
89 ; 31505.99168055092 ; 3966.844178067786 ; 2088930.0736460222 ; 353049.1318480333 ; 21182.000000000004
90 ; 31471.81977575748 ; 3966.844178067786 ; 2120436.0653265733 ; 357015.9760261011 ; 21420.000000000004
91 ; 31383.078137319673 ; 3966.844178067786 ; 2151907.8851023307 ; 360982.8202041689 ; 21658.000000000004
92 ; 31408.8596313105 ; 3966.844178067786 ; 2183290.9632396502 ; 364949.6643822367 ; 21896.000000000004
93 ; 31228.067492573682 ; 3966.844178067786 ; 2214699.822870961 ; 368916.50856030453 ; 22134.000000000004
94 ; 31251.206337994296 ; 3966.844178067786 ; 2245927.8903635344 ; 372883.35273837234 ; 22372.000000000004
95 ; 31198.01178527105 ; 3966.844178067786 ; 2277179.096701529 ; 376850.19691644015 ; 22610.000000000004
96 ; 30856.964328931135 ; 3966.844178067786 ; 2308377.1084868 ; 380817.04109450796 ; 22848.000000000004
97 ; 30932.94620608688 ; 3966.844178067786 ; 2339234.072815731 ; 384783.8852725758 ; 23086.000000000004
98 ; 30940.586264244423 ; 3966.844178067786 ; 2370167.019021818 ; 388750.7294506436 ; 23324.000000000004
99 ; 30703.420988999384 ; 3966.844178067786 ; 2401107.605286062 ; 392717.5736287114 ; 23562.000000000004
100 ; 30646.02879347537 ; 3966.844178067786 ; 2431811.0262750615 ; 396684.4178067792 ; 23800.000000000004
101 ; 30496.64457560717 ; 3966.844178067786 ; 2462457.055068537 ; 400651.261984847 ; 24038.000000000004
102 ; 30339.550655861374 ; 3966.844178067786 ; 2492953.699644144 ; 404618.10616291483 ; 24276.000000000004
103 ; 30232.554126893734 ; 3966.844178067786 ; 2523293.2503000055 ; 408584.95034098264 ; 24514.000000000004
104 ; 29918.04456277543 ; 3966.844178067786 ; 2553525.804426899 ; 412551.79451905045 ; 24752.000000000004
105 ; 29639.37879909481 ; 3966.844178067786 ; 2583443.848989675 ; 416518.63869711827 ; 24990.000000000004
106 ; 29660.62326561464 ; 3966.844178067786 ; 2613083.2277887696 ; 420485.4828751861 ; 25228.000000000004
107 ; 29340.97520928611 ; 3966.844178067786 ; 2642743.8510543844 ; 424452.3270532539 ; 25466.000000000004
108 ; 29283.061698028887 ; 3966.844178067786 ; 2672084.8262636703 ; 428419.1712313217 ; 25704.000000000004
109 ; 28958.023472743953 ; 3966.844178067786 ; 2701367.887961699 ; 432386.0154093895 ; 25942.000000000004
110 ; 28740.482255264353 ; 3966.844178067786 ; 2730325.911434443 ; 436352.8595874573 ; 26180.000000000004
111 ; 28379.82484864539 ; 3966.844178067786 ; 2759066.3936897074 ; 440319.70376552513 ; 26418.000000000004
112 ; 28343.297652025467 ; 3966.844178067786 ; 2787446.2185383528 ; 444286.54794359294 ; 26656.000000000004
113 ; 28137.818522424514 ; 3966.844178067786 ; 2815789.516190378 ; 448253.39212166076 ; 26894.000000000004
114 ; 27789.061059789157 ; 3966.844178067786 ; 2843927.3347128024 ; 452220.23629972857 ; 27132.000000000004
115 ; 27586.864229285147 ; 3966.844178067786 ; 2871716.3957725917 ; 456187.0804777964 ; 27370.000000000004
116 ; 27330.785307945684 ; 3966.844178067786 ; 2899303.260001877 ; 460153.9246558642 ; 27608.000000000004
117 ; 27252.200538509318 ; 3966.844178067786 ; 2926634.0453098225 ; 464120.768833932 ; 27846.000000000004
118 ; 26841.163974201252 ; 3966.844178067786 ; 2953886.245848332 ; 468087.6130119998 ; 28084.000000000004
119 ; 26359.88805185878 ; 3966.844178067786 ; 2980727.4098225334 ; 472054.4571900676 ; 28322.000000000004
120 ; 26308.164323183126 ; 3966.844178067786 ; 3007087.297874392 ; 476021.30136813544 ; 28560.000000000004
121 ; 25879.966357136116 ; 3966.844178067786 ; 3033395.4621975753 ; 479988.14554620325 ; 28798.000000000004
122 ; 25620.818832319186 ; 3966.844178067786 ; 3059275.4285547114 ; 483954.98972427106 ; 29036.000000000004
123 ; 25271.406719831015 ; 3966.844178067786 ; 3084896.2473870306 ; 487921.83390233887 ; 29274.000000000004
124 ; 24772.475770196466 ; 3966.844178067786 ; 3110167.6541068614 ; 491888.6780804067 ; 29512.000000000004
125 ; 24787.589204023792 ; 3966.844178067786 ; 3134940.129877058 ; 495855.5222584745 ; 29750.000000000004
126 ; 24360.83600427751 ; 3966.844178067786 ; 3159727.7190810814 ; 499822.3664365423 ; 29988.000000000004
127 ; 24013.03621012376 ; 3966.844178067786 ; 3184088.555085359 ; 503789.2106146101 ; 30226.000000000004
128 ; 23734.2432397661 ; 3966.844178067786 ; 3208101.591295483 ; 507756.0547926779 ; 30464.000000000004
129 ; 23219.24601252041 ; 3966.844178067786 ; 3231835.834535249 ; 511722.89897074574 ; 30702.000000000004
130 ; 22889.51502577256 ; 3966.844178067786 ; 3255055.0805477696 ; 515689.74314881355 ; 30940.000000000004
131 ; 22695.64985480751 ; 3966.844178067786 ; 3277944.595573542 ; 519656.58732688136 ; 31178.000000000004
132 ; 22119.341256711345 ; 3966.844178067786 ; 3300640.24542835 ; 523623.43150494917 ; 31416.000000000004
133 ; 21739.98291843912 ; 3966.844178067786 ; 3322759.586685061 ; 527590.275683017 ; 31654.000000000004
134 ; 21233.57437910228 ; 3966.844178067786 ; 3344499.5696035 ; 531557.1198610847 ; 31892.000000000004
135 ; 20915.736426251835 ; 3966.844178067786 ; 3365733.1439826023 ; 535523.9640391525 ; 32130.000000000004
136 ; 20391.335329670255 ; 3966.844178067786 ; 3386648.880408854 ; 539490.8082172202 ; 32368.000000000004
137 ; 19877.129989898727 ; 3966.844178067786 ; 3407040.2157385247 ; 543457.652395288 ; 32606.000000000004
138 ; 19485.401002457842 ; 3966.844178067786 ; 3426917.3457284234 ; 547424.4965733557 ; 32844.00000000001
139 ; 19359.32997785962 ; 3966.844178067786 ; 3446402.7467308813 ; 551391.3407514235 ; 33082.00000000001
140 ; 18778.78372236594 ; 3966.844178067786 ; 3465762.076708741 ; 555358.1849294913 ; 33320.00000000001
141 ; 18438.140013613942 ; 3966.844178067786 ; 3484540.8604311068 ; 559325.029107559 ; 33558.00000000001
142 ; 17734.60774796803 ; 3966.844178067786 ; 3502979.0004447205 ; 563291.8732856268 ; 33796.00000000001
143 ; 17487.63575094927 ; 3966.844178067786 ; 3520713.6081926883 ; 567258.7174636945 ; 34034.00000000001
144 ; 16966.57490717341 ; 3966.844178067786 ; 3538201.2439436377 ; 571225.5616417623 ; 34272.00000000001
145 ; 16842.796041421752 ; 3966.844178067786 ; 3555167.818850811 ; 575192.40581983 ; 34510.00000000001
146 ; 16694.793332570276 ; 3966.844178067786 ; 3572010.6148922327 ; 579159.2499978978 ; 34748.00000000001
147 ; 16480.81886446885 ; 3966.844178067786 ; 3588705.408224803 ; 583126.0941759655 ; 34986.00000000001
148 ; 16411.463583971716 ; 3966.844178067786 ; 3605186.227089272 ; 587092.9383540333 ; 35224.00000000001
149 ; 16294.472731528755 ; 3966.844178067786 ; 3621597.6906732437 ; 591059.782532101 ; 35462.00000000001
150 ; 16159.986510083147 ; 3966.844178067786 ; 3637892.1634047725 ; 595026.6267101688 ; 35700.00000000001
151 ; 15987.19338951373 ; 3966.844178067786 ; 3654052.1499148556 ; 598993.4708882365 ; 35938.00000000001
152 ; 15861.058746334711 ; 3966.844178067786 ; 3670039.343304369 ; 602960.3150663043 ; 36176.00000000001
153 ; 15667.861097804373 ; 3966.844178067786 ; 3685900.4020507038 ; 606927.159244372 ; 36414.00000000001
154 ; 15554.459118361654 ; 3966.844178067786 ; 3701568.263148508 ; 610894.0034224398 ; 36652.00000000001
155 ; 15242.978182319966 ; 3966.844178067786 ; 3717122.7222668696 ; 614860.8476005075 ; 36890.00000000001
156 ; 15121.741385951402 ; 3966.844178067786 ; 3732365.7004491896 ; 618827.6917785753 ; 37128.00000000001
157 ; 15010.390495570393 ; 3966.844178067786 ; 3747487.441835141 ; 622794.535956643 ; 37366.00000000001
158 ; 14981.412363977415 ; 3966.844178067786 ; 3762497.832330711 ; 626761.3801347108 ; 37604.00000000001
159 ; 14757.178942022236 ; 3966.844178067786 ; 3777479.244694689 ; 630728.2243127786 ; 37842.00000000001
160 ; 14705.514950553756 ; 3966.844178067786 ; 3792236.423636711 ; 634695.0684908463 ; 38080.00000000001
161 ; 14361.350274847078 ; 3966.844178067786 ; 3806941.938587265 ; 638661.9126689141 ; 38318.00000000001
162 ; 14066.370078613916 ; 3966.844178067786 ; 3821303.288862112 ; 642628.7568469818 ; 38556.00000000001
163 ; 13973.083414159555 ; 3966.844178067786 ; 3835369.658940726 ; 646595.6010250496 ; 38794.00000000001
164 ; 13976.131865441961 ; 3966.844178067786 ; 3849342.7423548857 ; 650562.4452031173 ; 39032.00000000001
165 ; 13782.467126439858 ; 3966.844178067786 ; 3863318.8742203275 ; 654529.2893811851 ; 39270.00000000001
166 ; 13472.483705419532 ; 3966.844178067786 ; 3877101.3413467673 ; 658496.1335592528 ; 39508.00000000001
167 ; 13250.101089013053 ; 3966.844178067786 ; 3890573.825052187 ; 662462.9777373206 ; 39746.00000000001
168 ; 13100.854513014834 ; 3966.844178067786 ; 3903823.9261412 ; 666429.8219153883 ; 39984.00000000001
169 ; 12915.189596672457 ; 3966.844178067786 ; 3916924.780654215 ; 670396.6660934561 ; 40222.00000000001
170 ; 12490.347535633304 ; 3966.844178067786 ; 3929839.9702508873 ; 674363.5102715238 ; 40460.00000000001
171 ; 12643.205477623698 ; 3966.844178067786 ; 3942330.317786521 ; 678330.3544495916 ; 40698.00000000001
172 ; 12165.065819032774 ; 3966.844178067786 ; 3954973.5232641445 ; 682297.1986276594 ; 40936.00000000001
173 ; 12185.86551534962 ; 3966.844178067786 ; 3967138.5890831775 ; 686264.0428057271 ; 41174.00000000001
174 ; 12159.514708270264 ; 3966.844178067786 ; 3979324.454598527 ; 690230.8869837949 ; 41412.00000000001
175 ; 12180.467460267546 ; 3966.844178067786 ; 3991483.9693067973 ; 694197.7311618626 ; 41650.00000000001
176 ; 12226.650724255886 ; 3966.844178067786 ; 4003664.436767065 ; 698164.5753399304 ; 41888.00000000001
177 ; 12211.665982891187 ; 3966.844178067786 ; 4015891.087491321 ; 702131.4195179981 ; 42126.00000000001
178 ; 12418.905595953387 ; 3966.844178067786 ; 4028102.7534742123 ; 706098.2636960659 ; 42364.00000000001
179 ; 12194.356105417675 ; 3966.844178067786 ; 4040521.659070166 ; 710065.1078741336 ; 42602.00000000001
180 ; 12392.878148122682 ; 3966.844178067786 ; 4052716.0151755833 ; 714031.9520522014 ; 42840.00000000001
181 ; 12096.47718146571 ; 3966.844178067786 ; 4065108.893323706 ; 717998.7962302691 ; 43078.00000000001
182 ; 12475.831005193382 ; 3966.844178067786 ; 4077205.370505172 ; 721965.6404083369 ; 43316.00000000001
183 ; 12415.815366822691 ; 3966.844178067786 ; 4089681.201510365 ; 725932.4845864046 ; 43554.00000000001
184 ; 12348.406404139594 ; 3966.844178067786 ; 4102097.016877188 ; 729899.3287644724 ; 43792.00000000001
185 ; 12700.92630523226 ; 3966.844178067786 ; 4114445.4232813274 ; 733866.1729425401 ; 44030.00000000001
186 ; 12568.578841960241 ; 3966.844178067786 ; 4127146.3495865595 ; 737833.0171206079 ; 44268.00000000001
