CSV File for the City 2 on Day 192
1 - Minute m 
2 - Power Consumed at minute m 
3 - Power Produced at minute m 
4 - Energy Consumed since the beginning of the day 
5 - Energy Produced since the beginning of the day 
6 - Energy Lost since the beginning of the day on lines starting from the city
 
0 ; 4814.33594277571 ; 33191.09385090389 ; 0.0 ; 0.0 ; 0.0
1 ; 5206.347419110302 ; 33191.09385090389 ; 4814.33594277571 ; 33191.09385090389 ; 0.0
2 ; 6010.610541460032 ; 33191.09385090389 ; 10020.683361886011 ; 66382.18770180778 ; 0.0
3 ; 6580.772628482816 ; 33191.09385090389 ; 16031.293903346042 ; 99573.28155271168 ; 0.0
4 ; 6995.40534232992 ; 33191.09385090389 ; 22612.06653182886 ; 132764.37540361556 ; 0.0
5 ; 7513.618238653287 ; 33191.09385090389 ; 29607.47187415878 ; 165955.46925451944 ; 0.0
6 ; 7875.462691622217 ; 33191.09385090389 ; 37121.09011281207 ; 199146.56310542332 ; 0.0
7 ; 8560.558252469165 ; 33191.09385090389 ; 44996.55280443429 ; 232337.6569563272 ; 0.0
8 ; 9000.381142429149 ; 33191.09385090389 ; 53557.11105690345 ; 265528.7508072311 ; 0.0
9 ; 9397.937149278592 ; 33191.09385090389 ; 62557.4921993326 ; 298719.844658135 ; 0.0
10 ; 10012.012576026416 ; 33191.09385090389 ; 71955.42934861119 ; 331910.93850903894 ; 0.0
11 ; 10335.396914669838 ; 33191.09385090389 ; 81967.4419246376 ; 365102.03235994285 ; 0.0
12 ; 10494.189765492041 ; 33191.09385090389 ; 92302.83883930744 ; 398293.12621084676 ; 0.0
13 ; 11268.018948428653 ; 33191.09385090389 ; 102797.02860479949 ; 431484.2200617507 ; 0.0
14 ; 11887.766713296343 ; 33191.09385090389 ; 114065.04755322814 ; 464675.3139126546 ; 0.0
15 ; 12106.915999488825 ; 33191.09385090389 ; 125952.81426652448 ; 497866.4077635585 ; 0.0
16 ; 12615.983658388594 ; 33191.09385090389 ; 138059.7302660133 ; 531057.5016144624 ; 0.0
17 ; 12934.844443627422 ; 33191.09385090389 ; 150675.7139244019 ; 564248.5954653663 ; 0.0
18 ; 13337.77269951939 ; 33191.09385090389 ; 163610.55836802933 ; 597439.6893162702 ; 0.0
19 ; 13786.474298937983 ; 33191.09385090389 ; 176948.33106754872 ; 630630.7831671741 ; 0.0
20 ; 14226.383837105395 ; 33191.09385090389 ; 190734.8053664867 ; 663821.877018078 ; 0.0
21 ; 14570.37352693676 ; 33191.09385090389 ; 204961.18920359208 ; 697012.9708689819 ; 0.0
22 ; 14834.828887219868 ; 33191.09385090389 ; 219531.56273052882 ; 730204.0647198858 ; 0.0
23 ; 15372.440498493843 ; 33191.09385090389 ; 234366.39161774868 ; 763395.1585707897 ; 0.0
24 ; 15711.66605425525 ; 33191.09385090389 ; 249738.83211624253 ; 796586.2524216936 ; 0.0
25 ; 16130.592923725075 ; 33191.09385090389 ; 265450.49817049777 ; 829777.3462725976 ; 0.0
26 ; 16443.744145856323 ; 33191.09385090389 ; 281581.09109422285 ; 862968.4401235015 ; 0.0
27 ; 16833.61740119085 ; 33191.09385090389 ; 298024.83524007915 ; 896159.5339744054 ; 0.0
28 ; 17286.714639222606 ; 33191.09385090389 ; 314858.45264127 ; 929350.6278253093 ; 0.0
29 ; 17499.059723734117 ; 33191.09385090389 ; 332145.1672804926 ; 962541.7216762132 ; 0.0
30 ; 17824.534064182517 ; 33191.09385090389 ; 349644.2270042267 ; 995732.8155271171 ; 0.0
31 ; 18199.23426497055 ; 33191.09385090389 ; 367468.7610684092 ; 1028923.909378021 ; 0.0
32 ; 18367.809954751425 ; 33191.09385090389 ; 385667.9953333797 ; 1062115.003228925 ; 0.0
33 ; 18866.428918421643 ; 33191.09385090389 ; 404035.8052881311 ; 1095306.0970798288 ; 0.0
34 ; 19261.290871556925 ; 33191.09385090389 ; 422902.23420655273 ; 1128497.1909307328 ; 0.0
35 ; 19485.241445883905 ; 33191.09385090389 ; 442163.52507810964 ; 1161688.2847816367 ; 0.0
36 ; 19719.025192187604 ; 33191.09385090389 ; 461648.7665239936 ; 1194879.3786325406 ; 0.0
37 ; 19990.49963267405 ; 33191.09385090389 ; 481367.7917161812 ; 1228070.4724834445 ; 0.0
38 ; 20339.1424220459 ; 33191.09385090389 ; 501358.29134885524 ; 1261261.5663343484 ; 0.0
39 ; 20493.28003553723 ; 33191.09385090389 ; 521697.4337709012 ; 1294452.6601852523 ; 0.0
40 ; 20832.828619737702 ; 33191.09385090389 ; 542190.7138064384 ; 1327643.7540361562 ; 0.0
41 ; 21220.383490929817 ; 33191.09385090389 ; 563023.5424261761 ; 1360834.8478870601 ; 0.0
42 ; 21287.135112542903 ; 33191.09385090389 ; 584243.925917106 ; 1394025.941737964 ; 0.0
43 ; 21547.33362866169 ; 33191.09385090389 ; 605531.0610296489 ; 1427217.035588868 ; 0.0
44 ; 21759.004622715885 ; 33191.09385090389 ; 627078.3946583106 ; 1460408.1294397719 ; 0.0
45 ; 22165.31457432536 ; 33191.09385090389 ; 648837.3992810264 ; 1493599.2232906758 ; 0.0
46 ; 22320.77498686842 ; 33191.09385090389 ; 671002.7138553518 ; 1526790.3171415797 ; 0.0
47 ; 22659.056688561617 ; 33191.09385090389 ; 693323.4888422202 ; 1559981.4109924836 ; 0.0
48 ; 22823.078662769272 ; 33191.09385090389 ; 715982.5455307817 ; 1593172.5048433875 ; 0.0
49 ; 23051.90636042687 ; 33191.09385090389 ; 738805.624193551 ; 1626363.5986942914 ; 0.0
50 ; 23168.31737739828 ; 33191.09385090389 ; 761857.5305539779 ; 1659554.6925451953 ; 0.0
51 ; 23330.441675905888 ; 33191.09385090389 ; 785025.8479313762 ; 1692745.7863960993 ; 0.0
52 ; 23506.605143879337 ; 33191.09385090389 ; 808356.289607282 ; 1725936.8802470032 ; 0.0
53 ; 23777.822385570125 ; 33191.09385090389 ; 831862.8947511613 ; 1759127.974097907 ; 0.0
54 ; 23850.814381070057 ; 33191.09385090389 ; 855640.7171367315 ; 1792319.067948811 ; 0.0
55 ; 24197.37938037085 ; 33191.09385090389 ; 879491.5315178016 ; 1825510.161799715 ; 0.0
56 ; 24407.619399227337 ; 33191.09385090389 ; 903688.9108981724 ; 1858701.2556506188 ; 0.0
57 ; 24589.70134650766 ; 33191.09385090389 ; 928096.5302973997 ; 1891892.3495015227 ; 0.0
58 ; 24780.633901682075 ; 33191.09385090389 ; 952686.2316439074 ; 1925083.4433524266 ; 0.0
59 ; 24777.3447552213 ; 33191.09385090389 ; 977466.8655455895 ; 1958274.5372033305 ; 0.0
60 ; 24807.666380078143 ; 33191.09385090389 ; 1002244.2103008108 ; 1991465.6310542345 ; 0.0
61 ; 25179.705723540606 ; 33191.09385090389 ; 1027051.8766808889 ; 2024656.7249051384 ; 0.0
62 ; 25334.2830481766 ; 33191.09385090389 ; 1052231.5824044296 ; 2057847.8187560423 ; 0.0
63 ; 25489.219592971942 ; 33191.09385090389 ; 1077565.8654526062 ; 2091038.9126069462 ; 0.0
64 ; 25442.764994494617 ; 33191.09385090389 ; 1103055.0850455782 ; 2124230.00645785 ; 0.0
65 ; 25678.235018667434 ; 33191.09385090389 ; 1128497.8500400728 ; 2157421.1003087536 ; 0.0
66 ; 25661.34732882527 ; 33191.09385090389 ; 1154176.0850587403 ; 2190612.194159657 ; 0.0
67 ; 25994.328225794226 ; 33191.09385090389 ; 1179837.4323875657 ; 2223803.288010561 ; 0.0
68 ; 25877.9965646221 ; 33191.09385090389 ; 1205831.76061336 ; 2256994.3818614646 ; 0.0
69 ; 26140.23412864138 ; 33191.09385090389 ; 1231709.757177982 ; 2290185.4757123683 ; 0.0
70 ; 26128.437867221874 ; 33191.09385090389 ; 1257849.9913066234 ; 2323376.569563272 ; 0.0
71 ; 26145.06203041194 ; 33191.09385090389 ; 1283978.4291738453 ; 2356567.6634141756 ; 0.0
72 ; 26114.475550450774 ; 33191.09385090389 ; 1310123.4912042574 ; 2389758.7572650793 ; 0.0
73 ; 26485.651996701745 ; 33191.09385090389 ; 1336237.9667547082 ; 2422949.851115983 ; 0.0
74 ; 26329.844700002126 ; 33191.09385090389 ; 1362723.61875141 ; 2456140.9449668867 ; 0.0
75 ; 26498.44009820725 ; 33191.09385090389 ; 1389053.463451412 ; 2489332.0388177903 ; 0.0
76 ; 26314.35790829583 ; 33191.09385090389 ; 1415551.9035496193 ; 2522523.132668694 ; 0.0
77 ; 26361.1119911848 ; 33191.09385090389 ; 1441866.2614579152 ; 2555714.2265195977 ; 0.0
78 ; 26307.775502978187 ; 33191.09385090389 ; 1468227.3734491 ; 2588905.3203705014 ; 0.0
79 ; 26639.475701009815 ; 33191.09385090389 ; 1494535.148952078 ; 2622096.414221405 ; 0.0
80 ; 26383.908248049953 ; 33191.09385090389 ; 1521174.624653088 ; 2655287.5080723087 ; 0.0
81 ; 26610.922600846938 ; 33191.09385090389 ; 1547558.5329011378 ; 2688478.6019232124 ; 0.0
82 ; 26588.469498624414 ; 33191.09385090389 ; 1574169.4555019848 ; 2721669.695774116 ; 0.0
83 ; 26410.531829881904 ; 33191.09385090389 ; 1600757.9250006091 ; 2754860.7896250198 ; 0.0
84 ; 26460.59459131654 ; 33191.09385090389 ; 1627168.456830491 ; 2788051.8834759234 ; 0.0
85 ; 26570.428397915715 ; 33191.09385090389 ; 1653629.0514218076 ; 2821242.977326827 ; 0.0
86 ; 26700.699140058226 ; 33191.09385090389 ; 1680199.4798197234 ; 2854434.071177731 ; 0.0
87 ; 26606.638950018492 ; 33191.09385090389 ; 1706900.1789597815 ; 2887625.1650286345 ; 0.0
88 ; 26294.721092103533 ; 33191.09385090389 ; 1733506.8179098 ; 2920816.258879538 ; 0.0
89 ; 26520.437744995845 ; 33191.09385090389 ; 1759801.5390019035 ; 2954007.352730442 ; 0.0
90 ; 26580.40029921702 ; 33191.09385090389 ; 1786321.9767468993 ; 2987198.4465813455 ; 0.0
91 ; 26385.455061037384 ; 33191.09385090389 ; 1812902.3770461164 ; 3020389.540432249 ; 0.0
92 ; 26303.66340679521 ; 33191.09385090389 ; 1839287.8321071537 ; 3053580.634283153 ; 0.0
93 ; 26273.863530311322 ; 33191.09385090389 ; 1865591.4955139488 ; 3086771.7281340566 ; 0.0
94 ; 26110.563383103025 ; 33191.09385090389 ; 1891865.35904426 ; 3119962.82198496 ; 0.0
95 ; 26146.623401674515 ; 33191.09385090389 ; 1917975.9224273632 ; 3153153.915835864 ; 0.0
96 ; 26045.77127208534 ; 33191.09385090389 ; 1944122.5458290377 ; 3186345.0096867676 ; 0.0
97 ; 25814.72848920036 ; 33191.09385090389 ; 1970168.317101123 ; 3219536.1035376713 ; 0.0
98 ; 25699.385631304238 ; 33191.09385090389 ; 1995983.0455903234 ; 3252727.197388575 ; 0.0
99 ; 25936.184777026054 ; 33191.09385090389 ; 2021682.4312216276 ; 3285918.2912394786 ; 0.0
100 ; 25624.7446537017 ; 33191.09385090389 ; 2047618.6159986537 ; 3319109.3850903823 ; 0.0
101 ; 25666.034595556685 ; 33191.09385090389 ; 2073243.3606523555 ; 3352300.478941286 ; 0.0
102 ; 25423.367866875724 ; 33191.09385090389 ; 2098909.395247912 ; 3385491.5727921897 ; 0.0
103 ; 25318.577015993207 ; 33191.09385090389 ; 2124332.7631147876 ; 3418682.6666430933 ; 0.0
104 ; 25233.592064845856 ; 33191.09385090389 ; 2149651.340130781 ; 3451873.760493997 ; 0.0
105 ; 24908.33674907081 ; 33191.09385090389 ; 2174884.9321956267 ; 3485064.8543449007 ; 0.0
106 ; 24706.016141938904 ; 33191.09385090389 ; 2199793.2689446975 ; 3518255.9481958044 ; 0.0
107 ; 24815.543765870458 ; 33191.09385090389 ; 2224499.2850866364 ; 3551447.042046708 ; 0.0
108 ; 24595.31236707489 ; 33191.09385090389 ; 2249314.828852507 ; 3584638.1358976117 ; 0.0
109 ; 24487.720265792334 ; 33191.09385090389 ; 2273910.1412195815 ; 3617829.2297485154 ; 0.0
110 ; 24375.308815945675 ; 33191.09385090389 ; 2298397.8614853737 ; 3651020.323599419 ; 0.0
111 ; 24087.396313076893 ; 33191.09385090389 ; 2322773.1703013196 ; 3684211.417450323 ; 0.0
112 ; 23836.86634746431 ; 33191.09385090389 ; 2346860.5666143964 ; 3717402.5113012264 ; 0.0
113 ; 23810.441591137573 ; 33191.09385090389 ; 2370697.4329618607 ; 3750593.60515213 ; 0.0
114 ; 23590.93815821684 ; 33191.09385090389 ; 2394507.874552998 ; 3783784.699003034 ; 0.0
115 ; 23238.445712236095 ; 33191.09385090389 ; 2418098.812711215 ; 3816975.7928539375 ; 0.0
116 ; 23045.14643817864 ; 33191.09385090389 ; 2441337.2584234513 ; 3850166.886704841 ; 0.0
117 ; 22865.173626070624 ; 33191.09385090389 ; 2464382.40486163 ; 3883357.980555745 ; 0.0
118 ; 22687.68293125899 ; 33191.09385090389 ; 2487247.578487701 ; 3916549.0744066485 ; 0.0
119 ; 22449.02143972194 ; 33191.09385090389 ; 2509935.2614189596 ; 3949740.168257552 ; 0.0
120 ; 22180.641706835788 ; 33191.09385090389 ; 2532384.2828586814 ; 3982931.262108456 ; 0.0
121 ; 21995.991163405226 ; 33191.09385090389 ; 2554564.9245655173 ; 4016122.3559593596 ; 0.0
122 ; 21669.93698869375 ; 33191.09385090389 ; 2576560.9157289225 ; 4049313.4498102632 ; 0.0
123 ; 21365.864109350034 ; 33191.09385090389 ; 2598230.852717616 ; 4082504.543661167 ; 0.0
124 ; 21050.01825418268 ; 33191.09385090389 ; 2619596.716826966 ; 4115695.6375120706 ; 0.0
125 ; 20876.09082593032 ; 33191.09385090389 ; 2640646.735081149 ; 4148886.7313629743 ; 0.0
126 ; 20588.051083394505 ; 33191.09385090389 ; 2661522.825907079 ; 4182077.825213878 ; 0.0
127 ; 20214.523074596113 ; 33191.09385090389 ; 2682110.8769904734 ; 4215268.919064782 ; 0.0
128 ; 19991.32670173742 ; 33191.09385090389 ; 2702325.4000650696 ; 4248460.012915686 ; 0.0
129 ; 19740.317319536047 ; 33191.09385090389 ; 2722316.726766807 ; 4281651.10676659 ; 0.0
130 ; 19594.795770067078 ; 33191.09385090389 ; 2742057.044086343 ; 4314842.200617494 ; 0.0
131 ; 19119.648849445417 ; 33191.09385090389 ; 2761651.8398564104 ; 4348033.294468398 ; 0.0
132 ; 18740.569055747786 ; 33191.09385090389 ; 2780771.488705856 ; 4381224.388319302 ; 0.0
133 ; 18413.72084650967 ; 33191.09385090389 ; 2799512.0577616035 ; 4414415.4821702065 ; 0.0
134 ; 18092.20504537891 ; 33191.09385090389 ; 2817925.778608113 ; 4447606.576021111 ; 0.0
135 ; 17815.967892820234 ; 33191.09385090389 ; 2836017.983653492 ; 4480797.669872015 ; 0.0
136 ; 17490.172700943065 ; 33191.09385090389 ; 2853833.951546312 ; 4513988.763722919 ; 0.0
137 ; 16992.285115048493 ; 33191.09385090389 ; 2871324.124247255 ; 4547179.857573823 ; 0.0
138 ; 16844.49397155753 ; 33191.09385090389 ; 2888316.409362303 ; 4580370.951424727 ; 0.0
139 ; 16495.229924937008 ; 33191.09385090389 ; 2905160.9033338604 ; 4613562.045275631 ; 0.0
140 ; 16102.420547922553 ; 33191.09385090389 ; 2921656.133258797 ; 4646753.1391265355 ; 0.0
141 ; 15579.611523867909 ; 33191.09385090389 ; 2937758.55380672 ; 4679944.23297744 ; 0.0
142 ; 15208.035262083458 ; 33191.09385090389 ; 2953338.165330588 ; 4713135.326828344 ; 0.0
143 ; 14861.632171487889 ; 33191.09385090389 ; 2968546.2005926715 ; 4746326.420679248 ; 0.0
144 ; 14686.4829134305 ; 33191.09385090389 ; 2983407.8327641594 ; 4779517.514530152 ; 0.0
145 ; 14237.419479672104 ; 33191.09385090389 ; 2998094.3156775897 ; 4812708.608381056 ; 0.0
146 ; 14269.597873125405 ; 33191.09385090389 ; 3012331.735157262 ; 4845899.70223196 ; 0.0
147 ; 14192.067779223295 ; 33191.09385090389 ; 3026601.3330303873 ; 4879090.7960828645 ; 0.0
148 ; 14011.575740284665 ; 33191.09385090389 ; 3040793.4008096107 ; 4912281.889933769 ; 0.0
149 ; 13765.554508752766 ; 33191.09385090389 ; 3054804.9765498955 ; 4945472.983784673 ; 0.0
150 ; 13824.803223548612 ; 33191.09385090389 ; 3068570.531058648 ; 4978664.077635577 ; 0.0
151 ; 13710.755068303322 ; 33191.09385090389 ; 3082395.3342821966 ; 5011855.171486481 ; 0.0
152 ; 13674.511361216802 ; 33191.09385090389 ; 3096106.0893505 ; 5045046.265337385 ; 0.0
153 ; 13645.283816335366 ; 33191.09385090389 ; 3109780.600711717 ; 5078237.359188289 ; 0.0
154 ; 13360.156771938131 ; 33191.09385090389 ; 3123425.884528052 ; 5111428.4530391935 ; 0.0
155 ; 13141.46629913113 ; 33191.09385090389 ; 3136786.0412999904 ; 5144619.546890098 ; 0.0
156 ; 13093.926107638263 ; 33191.09385090389 ; 3149927.5075991214 ; 5177810.640741002 ; 0.0
157 ; 12853.530188593766 ; 33191.09385090389 ; 3163021.4337067595 ; 5211001.734591906 ; 0.0
158 ; 12958.750948023695 ; 33191.09385090389 ; 3175874.963895353 ; 5244192.82844281 ; 0.0
159 ; 12648.615059334394 ; 33191.09385090389 ; 3188833.7148433765 ; 5277383.922293714 ; 0.0
160 ; 12584.823664185082 ; 33191.09385090389 ; 3201482.329902711 ; 5310575.016144618 ; 0.0
161 ; 12431.567598762154 ; 33191.09385090389 ; 3214067.153566896 ; 5343766.109995523 ; 0.0
162 ; 12114.662708794871 ; 33191.09385090389 ; 3226498.721165658 ; 5376957.203846427 ; 0.0
163 ; 12136.106626127212 ; 33191.09385090389 ; 3238613.3838744527 ; 5410148.297697331 ; 0.0
164 ; 11960.357187551792 ; 33191.09385090389 ; 3250749.49050058 ; 5443339.391548235 ; 0.0
165 ; 11936.221391388908 ; 33191.09385090389 ; 3262709.847688132 ; 5476530.485399139 ; 0.0
166 ; 11773.777171562228 ; 33191.09385090389 ; 3274646.0690795206 ; 5509721.579250043 ; 0.0
167 ; 11438.881906654877 ; 33191.09385090389 ; 3286419.846251083 ; 5542912.673100947 ; 0.0
168 ; 11381.027918283451 ; 33191.09385090389 ; 3297858.7281577378 ; 5576103.766951852 ; 0.0
169 ; 11129.858936483623 ; 33191.09385090389 ; 3309239.756076021 ; 5609294.860802756 ; 0.0
170 ; 11064.295332480555 ; 33191.09385090389 ; 3320369.6150125046 ; 5642485.95465366 ; 0.0
171 ; 11029.955592371873 ; 33191.09385090389 ; 3331433.9103449853 ; 5675677.048504564 ; 0.0
172 ; 10806.392786578981 ; 33191.09385090389 ; 3342463.8659373573 ; 5708868.142355468 ; 0.0
173 ; 10613.461422403228 ; 33191.09385090389 ; 3353270.2587239365 ; 5742059.236206372 ; 0.0
174 ; 10778.47562633959 ; 33191.09385090389 ; 3363883.72014634 ; 5775250.330057276 ; 0.0
175 ; 10659.584051879778 ; 33191.09385090389 ; 3374662.1957726795 ; 5808441.423908181 ; 0.0
176 ; 10646.559897810826 ; 33191.09385090389 ; 3385321.779824559 ; 5841632.517759085 ; 0.0
177 ; 10669.384402892805 ; 33191.09385090389 ; 3395968.33972237 ; 5874823.611609989 ; 0.0
178 ; 10857.323601951493 ; 33191.09385090389 ; 3406637.724125263 ; 5908014.705460893 ; 0.0
179 ; 10671.21161132162 ; 33191.09385090389 ; 3417495.047727214 ; 5941205.799311797 ; 0.0
180 ; 10835.746653609558 ; 33191.09385090389 ; 3428166.259338536 ; 5974396.893162701 ; 0.0
181 ; 10954.283026055145 ; 33191.09385090389 ; 3439002.0059921453 ; 6007587.987013605 ; 0.0
182 ; 10746.356629388025 ; 33191.09385090389 ; 3449956.2890182002 ; 6040779.08086451 ; 0.0
183 ; 10849.903373930778 ; 33191.09385090389 ; 3460702.645647588 ; 6073970.174715414 ; 0.0
184 ; 11036.706674442363 ; 33191.09385090389 ; 3471552.549021519 ; 6107161.268566318 ; 0.0
185 ; 10940.183707184242 ; 33191.09385090389 ; 3482589.255695961 ; 6140352.362417222 ; 0.0
186 ; 11145.428136229504 ; 33191.09385090389 ; 3493529.439403145 ; 6173543.456268126 ; 0.0
187 ; 11068.064060614626 ; 33191.09385090389 ; 3504674.8675393746 ; 6206734.55011903 ; 0.0
188 ; 11119.84098906654 ; 33191.09385090389 ; 3515742.931599989 ; 6239925.643969934 ; 0.0
189 ; 11242.097344263322 ; 33191.09385090389 ; 3526862.772589056 ; 6273116.737820839 ; 0.0
190 ; 11077.91551016846 ; 33191.09385090389 ; 3538104.8699333193 ; 6306307.831671743 ; 0.0
191 ; 11167.307083001206 ; 33191.09385090389 ; 3549182.7854434876 ; 6339498.925522647 ; 0.0
192 ; 11271.787614670973 ; 33191.09385090389 ; 3560350.092526489 ; 6372690.019373551 ; 0.0
193 ; 11204.119200343472 ; 33191.09385090389 ; 3571621.88014116 ; 6405881.113224455 ; 0.0
194 ; 11280.947033765377 ; 33191.09385090389 ; 3582825.9993415033 ; 6439072.207075359 ; 0.0
195 ; 11242.202325219305 ; 33191.09385090389 ; 3594106.9463752685 ; 6472263.300926263 ; 0.0
196 ; 11344.228308339681 ; 33191.09385090389 ; 3605349.148700488 ; 6505454.394777168 ; 0.0
197 ; 11465.78043323058 ; 33191.09385090389 ; 3616693.3770088274 ; 6538645.488628072 ; 0.0
198 ; 11311.24926989587 ; 33191.09385090389 ; 3628159.157442058 ; 6571836.582478976 ; 0.0
199 ; 11290.496932942267 ; 33191.09385090389 ; 3639470.4067119537 ; 6605027.67632988 ; 0.0
200 ; 11539.622792879178 ; 33191.09385090389 ; 3650760.903644896 ; 6638218.770180784 ; 0.0
201 ; 11459.095685055905 ; 33191.09385090389 ; 3662300.526437775 ; 6671409.864031688 ; 0.0
202 ; 11533.078880063698 ; 33191.09385090389 ; 3673759.622122831 ; 6704600.957882592 ; 0.0
203 ; 11514.829003315836 ; 33191.09385090389 ; 3685292.701002895 ; 6737792.051733497 ; 0.0
204 ; 11491.182139110286 ; 33191.09385090389 ; 3696807.530006211 ; 6770983.145584401 ; 0.0
205 ; 11650.098000484802 ; 33191.09385090389 ; 3708298.712145321 ; 6804174.239435305 ; 0.0
206 ; 11717.788601836144 ; 33191.09385090389 ; 3719948.810145806 ; 6837365.333286209 ; 0.0
207 ; 11629.977988825964 ; 33191.09385090389 ; 3731666.5987476422 ; 6870556.427137113 ; 0.0
208 ; 11752.294135398324 ; 33191.09385090389 ; 3743296.5767364684 ; 6903747.520988017 ; 0.0
209 ; 11696.75124084949 ; 33191.09385090389 ; 3755048.8708718666 ; 6936938.614838921 ; 0.0
210 ; 11796.408247080484 ; 33191.09385090389 ; 3766745.622112716 ; 6970129.708689826 ; 0.0
211 ; 11698.455828953978 ; 33191.09385090389 ; 3778542.0303597967 ; 7003320.80254073 ; 0.0
212 ; 11830.099478296446 ; 33191.09385090389 ; 3790240.4861887507 ; 7036511.896391634 ; 0.0
213 ; 11734.485527260344 ; 33191.09385090389 ; 3802070.585667047 ; 7069702.990242538 ; 0.0
214 ; 11987.371497312508 ; 33191.09385090389 ; 3813805.0711943074 ; 7102894.084093442 ; 0.0
215 ; 12025.294372030345 ; 33191.09385090389 ; 3825792.44269162 ; 7136085.177944346 ; 0.0
216 ; 11860.484509998068 ; 33191.09385090389 ; 3837817.7370636505 ; 7169276.2717952505 ; 0.0
