CSV File for the City 2 on Day 283
1 - Minute m 
2 - Power Consumed at minute m 
3 - Power Produced at minute m 
4 - Energy Consumed since the beginning of the day 
5 - Energy Produced since the beginning of the day 
6 - Energy Lost since the beginning of the day on lines starting from the city
 
0 ; 7961.950089747947 ; 29016.71512040515 ; 0.0 ; 0.0 ; 0.0
1 ; 8299.759621047417 ; 29016.71512040515 ; 7961.950089747947 ; 29016.71512040515 ; 0.0
2 ; 8719.881310991796 ; 29016.71512040515 ; 16261.709710795363 ; 58033.4302408103 ; 0.0
3 ; 8720.330994500284 ; 29016.71512040515 ; 24981.591021787157 ; 87050.14536121546 ; 0.0
4 ; 9411.570007133934 ; 29016.71512040515 ; 33701.92201628744 ; 116066.8604816206 ; 0.0
5 ; 9876.16712718836 ; 29016.71512040515 ; 43113.49202342138 ; 145083.57560202575 ; 0.0
6 ; 10130.03054694135 ; 29016.71512040515 ; 52989.65915060974 ; 174100.29072243092 ; 0.0
7 ; 10505.876469405423 ; 29016.71512040515 ; 63119.68969755109 ; 203117.00584283608 ; 0.0
8 ; 10915.547759335986 ; 29016.71512040515 ; 73625.56616695652 ; 232133.72096324124 ; 0.0
9 ; 11281.459130411728 ; 29016.71512040515 ; 84541.1139262925 ; 261150.4360836464 ; 0.0
10 ; 11615.86261332027 ; 29016.71512040515 ; 95822.57305670422 ; 290167.15120405157 ; 0.0
11 ; 11831.701319188329 ; 29016.71512040515 ; 107438.43567002448 ; 319183.8663244567 ; 0.0
12 ; 12468.872602828478 ; 29016.71512040515 ; 119270.13698921281 ; 348200.58144486183 ; 0.0
13 ; 12718.983701342775 ; 29016.71512040515 ; 131739.0095920413 ; 377217.29656526697 ; 0.0
14 ; 12921.012257574663 ; 29016.71512040515 ; 144457.99329338406 ; 406234.0116856721 ; 0.0
15 ; 13227.296021555288 ; 29016.71512040515 ; 157379.0055509587 ; 435250.72680607723 ; 0.0
16 ; 13754.915870967774 ; 29016.71512040515 ; 170606.301572514 ; 464267.44192648237 ; 0.0
17 ; 14094.53252697767 ; 29016.71512040515 ; 184361.2174434818 ; 493284.1570468875 ; 0.0
18 ; 14441.220390631826 ; 29016.71512040515 ; 198455.74997045947 ; 522300.87216729263 ; 0.0
19 ; 14592.80479162225 ; 29016.71512040515 ; 212896.97036109128 ; 551317.5872876978 ; 0.0
20 ; 14892.358931282219 ; 29016.71512040515 ; 227489.77515271353 ; 580334.302408103 ; 0.0
21 ; 15183.936688544889 ; 29016.71512040515 ; 242382.13408399574 ; 609351.0175285082 ; 0.0
22 ; 15515.531370609016 ; 29016.71512040515 ; 257566.07077254064 ; 638367.7326489134 ; 0.0
23 ; 15853.575170043474 ; 29016.71512040515 ; 273081.60214314965 ; 667384.4477693186 ; 0.0
24 ; 16044.508642565434 ; 29016.71512040515 ; 288935.1773131931 ; 696401.1628897238 ; 0.0
25 ; 16447.221620874498 ; 29016.71512040515 ; 304979.68595575856 ; 725417.878010129 ; 0.0
26 ; 16761.014722755357 ; 29016.71512040515 ; 321426.90757663304 ; 754434.5931305342 ; 0.0
27 ; 17078.911188888094 ; 29016.71512040515 ; 338187.9222993884 ; 783451.3082509394 ; 0.0
28 ; 17195.800810944635 ; 29016.71512040515 ; 355266.83348827646 ; 812468.0233713445 ; 0.0
29 ; 17543.37849186691 ; 29016.71512040515 ; 372462.6342992211 ; 841484.7384917497 ; 0.0
30 ; 17826.036456662423 ; 29016.71512040515 ; 390006.012791088 ; 870501.4536121549 ; 0.0
31 ; 18055.171260467265 ; 29016.71512040515 ; 407832.04924775043 ; 899518.1687325601 ; 0.0
32 ; 18344.334960545242 ; 29016.71512040515 ; 425887.2205082177 ; 928534.8838529653 ; 0.0
33 ; 18631.321115354785 ; 29016.71512040515 ; 444231.55546876293 ; 957551.5989733705 ; 0.0
34 ; 18798.335675894887 ; 29016.71512040515 ; 462862.8765841177 ; 986568.3140937757 ; 0.0
35 ; 19114.551604533208 ; 29016.71512040515 ; 481661.2122600126 ; 1015585.0292141809 ; 0.0
36 ; 19148.7021965983 ; 29016.71512040515 ; 500775.7638645458 ; 1044601.7443345861 ; 0.0
37 ; 19450.484410707526 ; 29016.71512040515 ; 519924.4660611441 ; 1073618.4594549912 ; 0.0
38 ; 19465.267743986107 ; 29016.71512040515 ; 539374.9504718516 ; 1102635.1745753963 ; 0.0
39 ; 19889.47028937886 ; 29016.71512040515 ; 558840.2182158377 ; 1131651.8896958015 ; 0.0
40 ; 20092.66087757217 ; 29016.71512040515 ; 578729.6885052166 ; 1160668.6048162067 ; 0.0
41 ; 20185.282382940368 ; 29016.71512040515 ; 598822.3493827888 ; 1189685.319936612 ; 0.0
42 ; 20375.556133034806 ; 29016.71512040515 ; 619007.6317657292 ; 1218702.035057017 ; 0.0
43 ; 20635.91638931861 ; 29016.71512040515 ; 639383.1878987639 ; 1247718.7501774223 ; 0.0
44 ; 20912.38318581324 ; 29016.71512040515 ; 660019.1042880826 ; 1276735.4652978275 ; 0.0
45 ; 20979.78054420225 ; 29016.71512040515 ; 680931.4874738958 ; 1305752.1804182327 ; 0.0
46 ; 21249.25064948608 ; 29016.71512040515 ; 701911.2680180981 ; 1334768.8955386379 ; 0.0
47 ; 21379.953368723283 ; 29016.71512040515 ; 723160.5186675842 ; 1363785.610659043 ; 0.0
48 ; 21594.038778305556 ; 29016.71512040515 ; 744540.4720363074 ; 1392802.3257794483 ; 0.0
49 ; 21636.44962515095 ; 29016.71512040515 ; 766134.510814613 ; 1421819.0408998535 ; 0.0
50 ; 21783.32052859654 ; 29016.71512040515 ; 787770.960439764 ; 1450835.7560202586 ; 0.0
51 ; 21949.265116206825 ; 29016.71512040515 ; 809554.2809683605 ; 1479852.4711406638 ; 0.0
52 ; 22319.899957683454 ; 29016.71512040515 ; 831503.5460845673 ; 1508869.186261069 ; 0.0
53 ; 22452.754390914888 ; 29016.71512040515 ; 853823.4460422507 ; 1537885.9013814742 ; 0.0
54 ; 22517.416446804997 ; 29016.71512040515 ; 876276.2004331656 ; 1566902.6165018794 ; 0.0
55 ; 22658.70747186047 ; 29016.71512040515 ; 898793.6168799707 ; 1595919.3316222846 ; 0.0
56 ; 22666.44592917696 ; 29016.71512040515 ; 921452.3243518311 ; 1624936.0467426898 ; 0.0
57 ; 22892.593228596477 ; 29016.71512040515 ; 944118.7702810081 ; 1653952.761863095 ; 0.0
58 ; 22895.316298861584 ; 29016.71512040515 ; 967011.3635096046 ; 1682969.4769835002 ; 0.0
59 ; 22950.27756145698 ; 29016.71512040515 ; 989906.6798084662 ; 1711986.1921039054 ; 0.0
60 ; 23259.1117535651 ; 29016.71512040515 ; 1012856.9573699232 ; 1741002.9072243106 ; 0.0
61 ; 23062.241127193927 ; 29016.71512040515 ; 1036116.0691234884 ; 1770019.6223447158 ; 0.0
62 ; 23383.425008100294 ; 29016.71512040515 ; 1059178.3102506823 ; 1799036.337465121 ; 0.0
63 ; 23584.237445186907 ; 29016.71512040515 ; 1082561.7352587825 ; 1828053.0525855261 ; 0.0
64 ; 23614.3709163906 ; 29016.71512040515 ; 1106145.9727039693 ; 1857069.7677059313 ; 0.0
65 ; 23720.460280743428 ; 29016.71512040515 ; 1129760.34362036 ; 1886086.4828263365 ; 0.0
66 ; 23785.92931488708 ; 29016.71512040515 ; 1153480.8039011033 ; 1915103.1979467417 ; 0.0
67 ; 23770.828052695444 ; 29016.71512040515 ; 1177266.7332159905 ; 1944119.913067147 ; 0.0
68 ; 23865.758076785693 ; 29016.71512040515 ; 1201037.5612686859 ; 1973136.628187552 ; 0.0
69 ; 23979.899293320632 ; 29016.71512040515 ; 1224903.3193454714 ; 2002153.3433079573 ; 0.0
70 ; 24076.685350645002 ; 29016.71512040515 ; 1248883.2186387922 ; 2031170.0584283625 ; 0.0
71 ; 24107.954611598027 ; 29016.71512040515 ; 1272959.9039894373 ; 2060186.7735487677 ; 0.0
72 ; 24014.43272501415 ; 29016.71512040515 ; 1297067.8586010353 ; 2089203.4886691729 ; 0.0
73 ; 24256.127103699717 ; 29016.71512040515 ; 1321082.2913260495 ; 2118220.203789578 ; 0.0
74 ; 24228.852712683816 ; 29016.71512040515 ; 1345338.418429749 ; 2147236.918909983 ; 0.0
75 ; 24190.75441139231 ; 29016.71512040515 ; 1369567.271142433 ; 2176253.6340303877 ; 0.0
76 ; 24321.6409357766 ; 29016.71512040515 ; 1393758.0255538253 ; 2205270.3491507927 ; 0.0
77 ; 24136.040434532275 ; 29016.71512040515 ; 1418079.6664896018 ; 2234287.0642711977 ; 0.0
78 ; 24268.172612748065 ; 29016.71512040515 ; 1442215.7069241342 ; 2263303.7793916026 ; 0.0
79 ; 24249.742837717284 ; 29016.71512040515 ; 1466483.8795368823 ; 2292320.4945120076 ; 0.0
80 ; 24224.068539986292 ; 29016.71512040515 ; 1490733.6223745996 ; 2321337.2096324125 ; 0.0
81 ; 24179.314437146106 ; 29016.71512040515 ; 1514957.690914586 ; 2350353.9247528175 ; 0.0
82 ; 24147.158360797286 ; 29016.71512040515 ; 1539137.005351732 ; 2379370.6398732224 ; 0.0
83 ; 24179.27047144327 ; 29016.71512040515 ; 1563284.1637125292 ; 2408387.3549936274 ; 0.0
84 ; 24137.040796931673 ; 29016.71512040515 ; 1587463.4341839724 ; 2437404.0701140324 ; 0.0
85 ; 24346.163668060322 ; 29016.71512040515 ; 1611600.474980904 ; 2466420.7852344373 ; 0.0
86 ; 24194.849255596637 ; 29016.71512040515 ; 1635946.6386489642 ; 2495437.5003548423 ; 0.0
87 ; 24242.489190779055 ; 29016.71512040515 ; 1660141.4879045608 ; 2524454.2154752472 ; 0.0
88 ; 24054.267798952245 ; 29016.71512040515 ; 1684383.97709534 ; 2553470.930595652 ; 0.0
89 ; 24227.093484908804 ; 29016.71512040515 ; 1708438.2448942922 ; 2582487.645716057 ; 0.0
90 ; 23945.3280752609 ; 29016.71512040515 ; 1732665.338379201 ; 2611504.360836462 ; 0.0
91 ; 23896.21035231216 ; 29016.71512040515 ; 1756610.6664544619 ; 2640521.075956867 ; 0.0
92 ; 23920.45360403405 ; 29016.71512040515 ; 1780506.876806774 ; 2669537.791077272 ; 0.0
93 ; 24189.030022608542 ; 29016.71512040515 ; 1804427.330410808 ; 2698554.506197677 ; 0.0
94 ; 23826.47151438324 ; 29016.71512040515 ; 1828616.3604334167 ; 2727571.221318082 ; 0.0
95 ; 23752.34395460421 ; 29016.71512040515 ; 1852442.8319478 ; 2756587.936438487 ; 0.0
96 ; 23776.76546492648 ; 29016.71512040515 ; 1876195.1759024041 ; 2785604.651558892 ; 0.0
97 ; 23584.659125084065 ; 29016.71512040515 ; 1899971.9413673305 ; 2814621.366679297 ; 0.0
98 ; 23690.002454864276 ; 29016.71512040515 ; 1923556.6004924146 ; 2843638.081799702 ; 0.0
99 ; 23252.470093240387 ; 29016.71512040515 ; 1947246.6029472789 ; 2872654.7969201067 ; 0.0
100 ; 23455.129210110397 ; 29016.71512040515 ; 1970499.0730405194 ; 2901671.5120405117 ; 0.0
101 ; 23268.534291496024 ; 29016.71512040515 ; 1993954.2022506297 ; 2930688.2271609167 ; 0.0
102 ; 23217.989262498293 ; 29016.71512040515 ; 2017222.7365421257 ; 2959704.9422813216 ; 0.0
103 ; 23037.12025769598 ; 29016.71512040515 ; 2040440.725804624 ; 2988721.6574017266 ; 0.0
104 ; 22791.531814030117 ; 29016.71512040515 ; 2063477.8460623198 ; 3017738.3725221315 ; 0.0
105 ; 22809.58357634144 ; 29016.71512040515 ; 2086269.37787635 ; 3046755.0876425365 ; 0.0
106 ; 22897.431360355204 ; 29016.71512040515 ; 2109078.9614526914 ; 3075771.8027629415 ; 0.0
107 ; 22545.251121934318 ; 29016.71512040515 ; 2131976.3928130465 ; 3104788.5178833464 ; 0.0
108 ; 22332.461248952917 ; 29016.71512040515 ; 2154521.643934981 ; 3133805.2330037514 ; 0.0
109 ; 22292.129019054548 ; 29016.71512040515 ; 2176854.105183934 ; 3162821.9481241563 ; 0.0
110 ; 22183.301764519776 ; 29016.71512040515 ; 2199146.2342029884 ; 3191838.6632445613 ; 0.0
111 ; 22023.749137077113 ; 29016.71512040515 ; 2221329.5359675083 ; 3220855.3783649663 ; 0.0
112 ; 22030.93821177346 ; 29016.71512040515 ; 2243353.2851045853 ; 3249872.093485371 ; 0.0
113 ; 21699.07524185935 ; 29016.71512040515 ; 2265384.223316359 ; 3278888.808605776 ; 0.0
114 ; 21442.4286495365 ; 29016.71512040515 ; 2287083.2985582184 ; 3307905.523726181 ; 0.0
115 ; 21563.03471440039 ; 29016.71512040515 ; 2308525.7272077547 ; 3336922.238846586 ; 0.0
116 ; 21182.793245286597 ; 29016.71512040515 ; 2330088.761922155 ; 3365938.953966991 ; 0.0
117 ; 21096.84181540342 ; 29016.71512040515 ; 2351271.5551674417 ; 3394955.669087396 ; 0.0
118 ; 20796.98486438247 ; 29016.71512040515 ; 2372368.396982845 ; 3423972.384207801 ; 0.0
119 ; 20710.440038900262 ; 29016.71512040515 ; 2393165.3818472275 ; 3452989.099328206 ; 0.0
120 ; 20522.41737638463 ; 29016.71512040515 ; 2413875.821886128 ; 3482005.814448611 ; 0.0
121 ; 20206.90693716119 ; 29016.71512040515 ; 2434398.2392625124 ; 3511022.529569016 ; 0.0
122 ; 19982.11612128632 ; 29016.71512040515 ; 2454605.1461996734 ; 3540039.244689421 ; 0.0
123 ; 19955.51533542641 ; 29016.71512040515 ; 2474587.26232096 ; 3569055.9598098258 ; 0.0
124 ; 19810.163162690584 ; 29016.71512040515 ; 2494542.777656386 ; 3598072.6749302307 ; 0.0
125 ; 19433.497912112838 ; 29016.71512040515 ; 2514352.9408190767 ; 3627089.3900506357 ; 0.0
126 ; 19312.375116331696 ; 29016.71512040515 ; 2533786.4387311894 ; 3656106.1051710406 ; 0.0
127 ; 18928.27364924585 ; 29016.71512040515 ; 2553098.813847521 ; 3685122.8202914456 ; 0.0
128 ; 18808.39771432368 ; 29016.71512040515 ; 2572027.087496767 ; 3714139.5354118505 ; 0.0
129 ; 18571.0069862031 ; 29016.71512040515 ; 2590835.4852110907 ; 3743156.2505322555 ; 0.0
130 ; 18361.14074079404 ; 29016.71512040515 ; 2609406.492197294 ; 3772172.9656526605 ; 0.0
131 ; 18015.114696037253 ; 29016.71512040515 ; 2627767.632938088 ; 3801189.6807730654 ; 0.0
132 ; 17684.90805569838 ; 29016.71512040515 ; 2645782.747634125 ; 3830206.3958934704 ; 0.0
133 ; 17633.128961944076 ; 29016.71512040515 ; 2663467.6556898234 ; 3859223.1110138753 ; 0.0
134 ; 17396.08815363978 ; 29016.71512040515 ; 2681100.7846517675 ; 3888239.8261342803 ; 0.0
135 ; 17155.273992686394 ; 29016.71512040515 ; 2698496.8728054073 ; 3917256.5412546853 ; 0.0
136 ; 16743.433745980656 ; 29016.71512040515 ; 2715652.146798094 ; 3946273.25637509 ; 0.0
137 ; 16273.510003990627 ; 29016.71512040515 ; 2732395.5805440745 ; 3975289.971495495 ; 0.0
138 ; 16087.03718526302 ; 29016.71512040515 ; 2748669.090548065 ; 4004306.6866159 ; 0.0
139 ; 15915.62359063578 ; 29016.71512040515 ; 2764756.127733328 ; 4033323.401736305 ; 0.0
140 ; 15624.050706389215 ; 29016.71512040515 ; 2780671.7513239635 ; 4062340.11685671 ; 0.0
141 ; 15247.36505654876 ; 29016.71512040515 ; 2796295.802030353 ; 4091356.831977115 ; 0.0
142 ; 15060.14336384114 ; 29016.71512040515 ; 2811543.1670869016 ; 4120373.54709752 ; 0.0
143 ; 14751.006662286783 ; 29016.71512040515 ; 2826603.310450743 ; 4149390.262217925 ; 0.0
144 ; 14448.454430940323 ; 29016.71512040515 ; 2841354.31711303 ; 4178406.97733833 ; 0.0
145 ; 14283.366311997544 ; 29016.71512040515 ; 2855802.77154397 ; 4207423.692458735 ; 0.0
146 ; 14256.660596774584 ; 29016.71512040515 ; 2870086.1378559675 ; 4236440.40757914 ; 0.0
147 ; 14232.871340646894 ; 29016.71512040515 ; 2884342.798452742 ; 4265457.122699545 ; 0.0
148 ; 13856.492271990586 ; 29016.71512040515 ; 2898575.669793389 ; 4294473.83781995 ; 0.0
149 ; 14027.606850020033 ; 29016.71512040515 ; 2912432.1620653793 ; 4323490.552940355 ; 0.0
150 ; 13712.413711283509 ; 29016.71512040515 ; 2926459.7689153994 ; 4352507.26806076 ; 0.0
151 ; 13896.493207014973 ; 29016.71512040515 ; 2940172.182626683 ; 4381523.983181165 ; 0.0
152 ; 13704.139491090229 ; 29016.71512040515 ; 2954068.675833698 ; 4410540.69830157 ; 0.0
153 ; 13685.774779623416 ; 29016.71512040515 ; 2967772.815324788 ; 4439557.4134219745 ; 0.0
154 ; 13386.315007740784 ; 29016.71512040515 ; 2981458.5901044114 ; 4468574.1285423795 ; 0.0
155 ; 13384.515168616641 ; 29016.71512040515 ; 2994844.905112152 ; 4497590.843662784 ; 0.0
156 ; 13163.175924423202 ; 29016.71512040515 ; 3008229.4202807685 ; 4526607.558783189 ; 0.0
157 ; 13179.821804987305 ; 29016.71512040515 ; 3021392.5962051917 ; 4555624.273903594 ; 0.0
158 ; 12910.029552873233 ; 29016.71512040515 ; 3034572.418010179 ; 4584640.989023999 ; 0.0
159 ; 12790.46130736498 ; 29016.71512040515 ; 3047482.447563052 ; 4613657.704144404 ; 0.0
160 ; 12734.440232600055 ; 29016.71512040515 ; 3060272.908870417 ; 4642674.419264809 ; 0.0
161 ; 12734.901430943435 ; 29016.71512040515 ; 3073007.3491030172 ; 4671691.134385214 ; 0.0
162 ; 12449.720751968052 ; 29016.71512040515 ; 3085742.2505339608 ; 4700707.849505619 ; 0.0
163 ; 12283.008502129187 ; 29016.71512040515 ; 3098191.971285929 ; 4729724.564626024 ; 0.0
164 ; 12230.931175108712 ; 29016.71512040515 ; 3110474.979788058 ; 4758741.279746429 ; 0.0
165 ; 12358.059604294307 ; 29016.71512040515 ; 3122705.9109631665 ; 4787757.994866834 ; 0.0
166 ; 12105.452143140423 ; 29016.71512040515 ; 3135063.9705674606 ; 4816774.709987239 ; 0.0
167 ; 12033.00181554249 ; 29016.71512040515 ; 3147169.4227106012 ; 4845791.425107644 ; 0.0
168 ; 11912.406258282883 ; 29016.71512040515 ; 3159202.424526144 ; 4874808.140228049 ; 0.0
169 ; 11704.798926622143 ; 29016.71512040515 ; 3171114.8307844265 ; 4903824.855348454 ; 0.0
170 ; 11623.509546044132 ; 29016.71512040515 ; 3182819.6297110487 ; 4932841.570468859 ; 0.0
171 ; 11480.730679750164 ; 29016.71512040515 ; 3194443.139257093 ; 4961858.285589264 ; 0.0
172 ; 11315.295396253772 ; 29016.71512040515 ; 3205923.869936843 ; 4990875.000709669 ; 0.0
173 ; 11079.899744081215 ; 29016.71512040515 ; 3217239.165333097 ; 5019891.715830074 ; 0.0
174 ; 11092.807684930305 ; 29016.71512040515 ; 3228319.065077178 ; 5048908.430950479 ; 0.0
175 ; 11084.976318947805 ; 29016.71512040515 ; 3239411.8727621087 ; 5077925.146070884 ; 0.0
176 ; 11373.788989859475 ; 29016.71512040515 ; 3250496.8490810567 ; 5106941.861191289 ; 0.0
177 ; 11118.071189813643 ; 29016.71512040515 ; 3261870.6380709163 ; 5135958.5763116935 ; 0.0
178 ; 11112.954417741506 ; 29016.71512040515 ; 3272988.70926073 ; 5164975.2914320985 ; 0.0
179 ; 11344.737615144171 ; 29016.71512040515 ; 3284101.6636784715 ; 5193992.006552503 ; 0.0
180 ; 11391.113535307208 ; 29016.71512040515 ; 3295446.401293616 ; 5223008.721672908 ; 0.0
181 ; 11198.487444424338 ; 29016.71512040515 ; 3306837.514828923 ; 5252025.436793313 ; 0.0
182 ; 11395.491298596617 ; 29016.71512040515 ; 3318036.0022733477 ; 5281042.151913718 ; 0.0
183 ; 11536.645629347737 ; 29016.71512040515 ; 3329431.4935719445 ; 5310058.867034123 ; 0.0
184 ; 11405.461745137416 ; 29016.71512040515 ; 3340968.1392012923 ; 5339075.582154528 ; 0.0
185 ; 11127.15743398812 ; 29016.71512040515 ; 3352373.6009464297 ; 5368092.297274933 ; 0.0
186 ; 11278.122471398012 ; 29016.71512040515 ; 3363500.7583804177 ; 5397109.012395338 ; 0.0
187 ; 11349.114149290526 ; 29016.71512040515 ; 3374778.880851816 ; 5426125.727515743 ; 0.0
188 ; 11386.669097249724 ; 29016.71512040515 ; 3386127.9950011065 ; 5455142.442636148 ; 0.0
189 ; 11430.889519670725 ; 29016.71512040515 ; 3397514.6640983564 ; 5484159.157756553 ; 0.0
190 ; 11387.005084412895 ; 29016.71512040515 ; 3408945.553618027 ; 5513175.872876958 ; 0.0
191 ; 11601.138990269073 ; 29016.71512040515 ; 3420332.55870244 ; 5542192.587997363 ; 0.0
192 ; 11539.354605258166 ; 29016.71512040515 ; 3431933.697692709 ; 5571209.303117768 ; 0.0
193 ; 11631.049753231313 ; 29016.71512040515 ; 3443473.052297967 ; 5600226.018238173 ; 0.0
194 ; 11506.346409593834 ; 29016.71512040515 ; 3455104.1020511985 ; 5629242.733358578 ; 0.0
195 ; 11592.372002514181 ; 29016.71512040515 ; 3466610.448460792 ; 5658259.448478983 ; 0.0
196 ; 11636.303942517876 ; 29016.71512040515 ; 3478202.8204633063 ; 5687276.163599388 ; 0.0
197 ; 11553.329087966884 ; 29016.71512040515 ; 3489839.124405824 ; 5716292.878719793 ; 0.0
198 ; 11481.69831966979 ; 29016.71512040515 ; 3501392.453493791 ; 5745309.593840198 ; 0.0
199 ; 11569.101055964225 ; 29016.71512040515 ; 3512874.151813461 ; 5774326.308960603 ; 0.0
200 ; 11741.469988946272 ; 29016.71512040515 ; 3524443.2528694253 ; 5803343.024081008 ; 0.0
201 ; 11852.996378398146 ; 29016.71512040515 ; 3536184.7228583717 ; 5832359.739201413 ; 0.0
202 ; 11665.464053944272 ; 29016.71512040515 ; 3548037.7192367697 ; 5861376.4543218175 ; 0.0
203 ; 11806.150163694696 ; 29016.71512040515 ; 3559703.183290714 ; 5890393.169442222 ; 0.0
204 ; 11870.00234282967 ; 29016.71512040515 ; 3571509.3334544087 ; 5919409.884562627 ; 0.0
205 ; 11834.782081183364 ; 29016.71512040515 ; 3583379.335797238 ; 5948426.599683032 ; 0.0
206 ; 11690.76916030839 ; 29016.71512040515 ; 3595214.1178784217 ; 5977443.314803437 ; 0.0
207 ; 11696.569185689743 ; 29016.71512040515 ; 3606904.88703873 ; 6006460.029923842 ; 0.0
208 ; 11940.04150984185 ; 29016.71512040515 ; 3618601.4562244196 ; 6035476.745044247 ; 0.0
209 ; 11913.08059732951 ; 29016.71512040515 ; 3630541.4977342617 ; 6064493.460164652 ; 0.0
210 ; 11854.35991968094 ; 29016.71512040515 ; 3642454.578331591 ; 6093510.175285057 ; 0.0
211 ; 11777.213077059674 ; 29016.71512040515 ; 3654308.938251272 ; 6122526.890405462 ; 0.0
212 ; 11790.212624928992 ; 29016.71512040515 ; 3666086.1513283313 ; 6151543.605525867 ; 0.0
213 ; 11649.0769645469 ; 29016.71512040515 ; 3677876.3639532602 ; 6180560.320646272 ; 0.0
214 ; 12020.579459723449 ; 29016.71512040515 ; 3689525.440917807 ; 6209577.035766677 ; 0.0
215 ; 12066.416175003284 ; 29016.71512040515 ; 3701546.0203775307 ; 6238593.750887082 ; 0.0
216 ; 11940.328006280537 ; 29016.71512040515 ; 3713612.436552534 ; 6267610.466007487 ; 0.0
