CSV File for the City 1 on Day 148
1 - Minute m 
2 - Power Consumed at minute m 
3 - Power Produced at minute m 
4 - Energy Consumed since the beginning of the day 
5 - Energy Produced since the beginning of the day 
6 - Energy Lost since the beginning of the day on lines starting from the city
 
0 ; 9096.580037062 ; 5841.6643816599135 ; 0.0 ; 0.0 ; 0.0
1 ; 9325.667638873503 ; 5841.6643816599135 ; 9096.580037062 ; 5841.6643816599135 ; 238.00000000000003
2 ; 9893.32345870555 ; 5841.6643816599135 ; 18422.247675935505 ; 11683.328763319827 ; 476.00000000000006
3 ; 10285.060590664843 ; 5841.6643816599135 ; 28315.571134641054 ; 17524.99314497974 ; 714.0000000000001
4 ; 10737.302615860288 ; 5841.6643816599135 ; 38600.631725305895 ; 23366.657526639654 ; 952.0000000000001
5 ; 11116.463874422026 ; 5841.6643816599135 ; 49337.93434116618 ; 29208.321908299567 ; 1190.0000000000002
6 ; 11467.830786453256 ; 5841.6643816599135 ; 60454.39821558821 ; 35049.98628995948 ; 1428.0000000000002
7 ; 12070.311034143371 ; 5841.6643816599135 ; 71922.22900204147 ; 40891.6506716194 ; 1666.0000000000002
8 ; 12509.961927370607 ; 5841.6643816599135 ; 83992.54003618483 ; 46733.31505327931 ; 1904.0000000000002
9 ; 12980.409419459138 ; 5841.6643816599135 ; 96502.50196355543 ; 52574.97943493922 ; 2142.0000000000005
10 ; 13188.132894974502 ; 5841.6643816599135 ; 109482.91138301458 ; 58416.64381659913 ; 2380.0000000000005
11 ; 13645.554924746195 ; 5841.6643816599135 ; 122671.04427798909 ; 64258.30819825904 ; 2618.0000000000005
12 ; 14038.91111281007 ; 5841.6643816599135 ; 136316.5992027353 ; 70099.97257991895 ; 2856.0000000000005
13 ; 14658.46388864881 ; 5841.6643816599135 ; 150355.51031554537 ; 75941.63696157886 ; 3094.0000000000005
14 ; 14918.922500590592 ; 5841.6643816599135 ; 165013.97420419418 ; 81783.30134323877 ; 3332.0000000000005
15 ; 15320.205098763601 ; 5841.6643816599135 ; 179932.89670478477 ; 87624.96572489868 ; 3570.0000000000005
16 ; 15682.121277588803 ; 5841.6643816599135 ; 195253.10180354837 ; 93466.63010655859 ; 3808.0000000000005
17 ; 16048.628522091794 ; 5841.6643816599135 ; 210935.22308113717 ; 99308.2944882185 ; 4046.0000000000005
18 ; 16366.231693565893 ; 5841.6643816599135 ; 226983.85160322898 ; 105149.9588698784 ; 4284.000000000001
19 ; 16844.55053944813 ; 5841.6643816599135 ; 243350.08329679488 ; 110991.62325153832 ; 4522.000000000001
20 ; 17170.90146235673 ; 5841.6643816599135 ; 260194.633836243 ; 116833.28763319823 ; 4760.000000000001
21 ; 17352.52557897569 ; 5841.6643816599135 ; 277365.53529859975 ; 122674.95201485814 ; 4998.000000000001
22 ; 17746.51338888038 ; 5841.6643816599135 ; 294718.0608775754 ; 128516.61639651805 ; 5236.000000000001
23 ; 18014.816753824587 ; 5841.6643816599135 ; 312464.5742664558 ; 134358.28077817796 ; 5474.000000000001
24 ; 18421.362186837938 ; 5841.6643816599135 ; 330479.39102028037 ; 140199.94515983787 ; 5712.000000000001
25 ; 18657.080122528627 ; 5841.6643816599135 ; 348900.7532071183 ; 146041.60954149778 ; 5950.000000000001
26 ; 19029.67361462003 ; 5841.6643816599135 ; 367557.83332964696 ; 151883.27392315769 ; 6188.000000000001
27 ; 19390.204610791767 ; 5841.6643816599135 ; 386587.506944267 ; 157724.9383048176 ; 6426.000000000001
28 ; 19681.87904942523 ; 5841.6643816599135 ; 405977.7115550588 ; 163566.6026864775 ; 6664.000000000001
29 ; 20000.608512351817 ; 5841.6643816599135 ; 425659.590604484 ; 169408.26706813741 ; 6902.000000000001
30 ; 20316.317326102057 ; 5841.6643816599135 ; 445660.19911683584 ; 175249.93144979732 ; 7140.000000000001
31 ; 20678.49059202513 ; 5841.6643816599135 ; 465976.5164429379 ; 181091.59583145723 ; 7378.000000000001
32 ; 20738.77232672855 ; 5841.6643816599135 ; 486655.007034963 ; 186933.26021311714 ; 7616.000000000001
33 ; 21205.974611991038 ; 5841.6643816599135 ; 507393.77936169156 ; 192774.92459477705 ; 7854.000000000001
34 ; 21307.626691363046 ; 5841.6643816599135 ; 528599.7539736826 ; 198616.58897643696 ; 8092.000000000001
35 ; 21602.677733949622 ; 5841.6643816599135 ; 549907.3806650457 ; 204458.25335809687 ; 8330.000000000002
36 ; 21783.074664334003 ; 5841.6643816599135 ; 571510.0583989953 ; 210299.91773975678 ; 8568.000000000002
37 ; 22168.88121612044 ; 5841.6643816599135 ; 593293.1330633293 ; 216141.5821214167 ; 8806.000000000002
38 ; 22347.947075057476 ; 5841.6643816599135 ; 615462.0142794497 ; 221983.2465030766 ; 9044.000000000002
39 ; 22674.092784742257 ; 5841.6643816599135 ; 637809.9613545071 ; 227824.9108847365 ; 9282.000000000002
40 ; 22775.915051071748 ; 5841.6643816599135 ; 660484.0541392494 ; 233666.57526639642 ; 9520.000000000002
41 ; 23251.77023860091 ; 5841.6643816599135 ; 683259.9691903212 ; 239508.23964805633 ; 9758.000000000002
42 ; 23214.812093506294 ; 5841.6643816599135 ; 706511.7394289221 ; 245349.90402971624 ; 9996.000000000002
43 ; 23594.23126985449 ; 5841.6643816599135 ; 729726.5515224284 ; 251191.56841137615 ; 10234.000000000002
44 ; 23726.70379001621 ; 5841.6643816599135 ; 753320.7827922829 ; 257033.23279303606 ; 10472.000000000002
45 ; 23960.211577013553 ; 5841.6643816599135 ; 777047.4865822991 ; 262874.897174696 ; 10710.000000000002
46 ; 24178.795540154922 ; 5841.6643816599135 ; 801007.6981593127 ; 268716.5615563559 ; 10948.000000000002
47 ; 24260.558572097736 ; 5841.6643816599135 ; 825186.4936994676 ; 274558.22593801585 ; 11186.000000000002
48 ; 24538.459205732015 ; 5841.6643816599135 ; 849447.0522715653 ; 280399.8903196758 ; 11424.000000000002
49 ; 24873.566820726795 ; 5841.6643816599135 ; 873985.5114772973 ; 286241.5547013357 ; 11662.000000000002
50 ; 24790.734005067377 ; 5841.6643816599135 ; 898859.0782980241 ; 292083.21908299567 ; 11900.000000000002
51 ; 25047.881240346924 ; 5841.6643816599135 ; 923649.8123030915 ; 297924.8834646556 ; 12138.000000000002
52 ; 25267.273147858778 ; 5841.6643816599135 ; 948697.6935434385 ; 303766.54784631555 ; 12376.000000000002
53 ; 25391.120104574613 ; 5841.6643816599135 ; 973964.9666912972 ; 309608.2122279755 ; 12614.000000000002
54 ; 25768.52052707803 ; 5841.6643816599135 ; 999356.0867958718 ; 315449.8766096354 ; 12852.000000000002
55 ; 25780.80894785604 ; 5841.6643816599135 ; 1025124.6073229499 ; 321291.54099129536 ; 13090.000000000002
56 ; 25930.06868742781 ; 5841.6643816599135 ; 1050905.416270806 ; 327133.2053729553 ; 13328.000000000002
57 ; 26007.274843377854 ; 5841.6643816599135 ; 1076835.4849582338 ; 332974.86975461524 ; 13566.000000000002
58 ; 26269.325536611435 ; 5841.6643816599135 ; 1102842.7598016115 ; 338816.5341362752 ; 13804.000000000002
59 ; 26261.234028013754 ; 5841.6643816599135 ; 1129112.085338223 ; 344658.1985179351 ; 14042.000000000002
60 ; 26426.459507428754 ; 5841.6643816599135 ; 1155373.3193662367 ; 350499.86289959506 ; 14280.000000000002
61 ; 26668.321120523244 ; 5841.6643816599135 ; 1181799.7788736655 ; 356341.527281255 ; 14518.000000000002
62 ; 26676.258028546607 ; 5841.6643816599135 ; 1208468.0999941886 ; 362183.19166291493 ; 14756.000000000002
63 ; 26575.661437857605 ; 5841.6643816599135 ; 1235144.3580227352 ; 368024.8560445749 ; 14994.000000000002
64 ; 26976.17679632691 ; 5841.6643816599135 ; 1261720.019460593 ; 373866.5204262348 ; 15232.000000000002
65 ; 27060.68495663955 ; 5841.6643816599135 ; 1288696.1962569198 ; 379708.18480789475 ; 15470.000000000002
66 ; 26956.63564948865 ; 5841.6643816599135 ; 1315756.8812135593 ; 385549.8491895547 ; 15708.000000000002
67 ; 27003.62851928483 ; 5841.6643816599135 ; 1342713.5168630478 ; 391391.51357121463 ; 15946.000000000002
68 ; 27465.185790732652 ; 5841.6643816599135 ; 1369717.1453823326 ; 397233.17795287457 ; 16184.000000000002
69 ; 27231.476795974082 ; 5841.6643816599135 ; 1397182.3311730654 ; 403074.8423345345 ; 16422.000000000004
70 ; 27234.68907784925 ; 5841.6643816599135 ; 1424413.8079690395 ; 408916.50671619445 ; 16660.000000000004
71 ; 27173.860026236933 ; 5841.6643816599135 ; 1451648.4970468888 ; 414758.1710978544 ; 16898.000000000004
72 ; 27567.770242345166 ; 5841.6643816599135 ; 1478822.3570731257 ; 420599.8354795143 ; 17136.000000000004
73 ; 27322.562836314195 ; 5841.6643816599135 ; 1506390.1273154707 ; 426441.49986117426 ; 17374.000000000004
74 ; 27474.18208850106 ; 5841.6643816599135 ; 1533712.6901517848 ; 432283.1642428342 ; 17612.000000000004
75 ; 27574.710073667204 ; 5841.6643816599135 ; 1561186.8722402859 ; 438124.82862449414 ; 17850.000000000004
76 ; 27651.01937296916 ; 5841.6643816599135 ; 1588761.582313953 ; 443966.4930061541 ; 18088.000000000004
77 ; 27502.289111107213 ; 5841.6643816599135 ; 1616412.6016869221 ; 449808.157387814 ; 18326.000000000004
78 ; 27748.584983237586 ; 5841.6643816599135 ; 1643914.8907980293 ; 455649.82176947396 ; 18564.000000000004
79 ; 27705.31966693593 ; 5841.6643816599135 ; 1671663.4757812668 ; 461491.4861511339 ; 18802.000000000004
80 ; 27611.189821219774 ; 5841.6643816599135 ; 1699368.7954482026 ; 467333.15053279384 ; 19040.000000000004
81 ; 27733.62877149797 ; 5841.6643816599135 ; 1726979.9852694224 ; 473174.8149144538 ; 19278.000000000004
82 ; 27739.624074298783 ; 5841.6643816599135 ; 1754713.6140409203 ; 479016.4792961137 ; 19516.000000000004
83 ; 27787.32682707987 ; 5841.6643816599135 ; 1782453.2381152192 ; 484858.14367777365 ; 19754.000000000004
84 ; 27652.96438550109 ; 5841.6643816599135 ; 1810240.564942299 ; 490699.8080594336 ; 19992.000000000004
85 ; 27862.127116479867 ; 5841.6643816599135 ; 1837893.5293278 ; 496541.47244109353 ; 20230.000000000004
86 ; 27404.600834329198 ; 5841.6643816599135 ; 1865755.65644428 ; 502383.13682275347 ; 20468.000000000004
87 ; 27579.58241053894 ; 5841.6643816599135 ; 1893160.257278609 ; 508224.8012044134 ; 20706.000000000004
88 ; 27666.035598869024 ; 5841.6643816599135 ; 1920739.8396891481 ; 514066.46558607335 ; 20944.000000000004
89 ; 27499.464482973508 ; 5841.6643816599135 ; 1948405.875288017 ; 519908.1299677333 ; 21182.000000000004
90 ; 27469.11307625412 ; 5841.6643816599135 ; 1975905.3397709907 ; 525749.7943493932 ; 21420.000000000004
91 ; 27526.780864212105 ; 5841.6643816599135 ; 2003374.4528472447 ; 531591.4587310532 ; 21658.000000000004
92 ; 27493.707705477656 ; 5841.6643816599135 ; 2030901.2337114569 ; 537433.1231127131 ; 21896.000000000004
93 ; 27163.624375532087 ; 5841.6643816599135 ; 2058394.9414169346 ; 543274.787494373 ; 22134.000000000004
94 ; 27110.967201279662 ; 5841.6643816599135 ; 2085558.5657924667 ; 549116.451876033 ; 22372.000000000004
95 ; 27162.56045011411 ; 5841.6643816599135 ; 2112669.5329937465 ; 554958.1162576929 ; 22610.000000000004
96 ; 27008.257978353922 ; 5841.6643816599135 ; 2139832.0934438608 ; 560799.7806393529 ; 22848.000000000004
97 ; 27104.51064433825 ; 5841.6643816599135 ; 2166840.351422215 ; 566641.4450210128 ; 23086.000000000004
98 ; 26879.143868652827 ; 5841.6643816599135 ; 2193944.862066553 ; 572483.1094026727 ; 23324.000000000004
99 ; 26703.994799910797 ; 5841.6643816599135 ; 2220824.0059352056 ; 578324.7737843327 ; 23562.000000000004
100 ; 26544.7044693355 ; 5841.6643816599135 ; 2247528.000735116 ; 584166.4381659926 ; 23800.000000000004
101 ; 26737.554783047064 ; 5841.6643816599135 ; 2274072.7052044515 ; 590008.1025476526 ; 24038.000000000004
102 ; 26689.921904990704 ; 5841.6643816599135 ; 2300810.2599874986 ; 595849.7669293125 ; 24276.000000000004
103 ; 26498.606306421152 ; 5841.6643816599135 ; 2327500.1818924895 ; 601691.4313109724 ; 24514.000000000004
104 ; 26092.890858557814 ; 5841.6643816599135 ; 2353998.7881989107 ; 607533.0956926324 ; 24752.000000000004
105 ; 26089.257856409753 ; 5841.6643816599135 ; 2380091.6790574687 ; 613374.7600742923 ; 24990.000000000004
106 ; 25878.892350086633 ; 5841.6643816599135 ; 2406180.936913878 ; 619216.4244559522 ; 25228.000000000004
107 ; 25713.203727326843 ; 5841.6643816599135 ; 2432059.8292639647 ; 625058.0888376122 ; 25466.000000000004
108 ; 25428.573777407266 ; 5841.6643816599135 ; 2457773.0329912915 ; 630899.7532192721 ; 25704.000000000004
109 ; 25551.547926895222 ; 5841.6643816599135 ; 2483201.606768699 ; 636741.4176009321 ; 25942.000000000004
110 ; 25223.751380739985 ; 5841.6643816599135 ; 2508753.154695594 ; 642583.081982592 ; 26180.000000000004
111 ; 25104.22342780413 ; 5841.6643816599135 ; 2533976.9060763344 ; 648424.746364252 ; 26418.000000000004
112 ; 24916.73609428674 ; 5841.6643816599135 ; 2559081.1295041386 ; 654266.4107459119 ; 26656.000000000004
113 ; 24746.47425681522 ; 5841.6643816599135 ; 2583997.8655984253 ; 660108.0751275718 ; 26894.000000000004
114 ; 24444.94554856879 ; 5841.6643816599135 ; 2608744.3398552407 ; 665949.7395092318 ; 27132.000000000004
115 ; 24292.662352381627 ; 5841.6643816599135 ; 2633189.2854038095 ; 671791.4038908917 ; 27370.000000000004
116 ; 24258.898590677396 ; 5841.6643816599135 ; 2657481.9477561912 ; 677633.0682725516 ; 27608.000000000004
117 ; 23963.863790326785 ; 5841.6643816599135 ; 2681740.8463468687 ; 683474.7326542116 ; 27846.000000000004
118 ; 23860.31396497615 ; 5841.6643816599135 ; 2705704.7101371954 ; 689316.3970358715 ; 28084.000000000004
119 ; 23536.80664520482 ; 5841.6643816599135 ; 2729565.0241021714 ; 695158.0614175315 ; 28322.000000000004
120 ; 23190.109362388655 ; 5841.6643816599135 ; 2753101.830747376 ; 700999.7257991914 ; 28560.000000000004
121 ; 22917.010923511865 ; 5841.6643816599135 ; 2776291.9401097647 ; 706841.3901808513 ; 28798.000000000004
122 ; 23025.110727875766 ; 5841.6643816599135 ; 2799208.9510332765 ; 712683.0545625113 ; 29036.000000000004
123 ; 22492.916068837774 ; 5841.6643816599135 ; 2822234.0617611525 ; 718524.7189441712 ; 29274.000000000004
124 ; 22313.122132567092 ; 5841.6643816599135 ; 2844726.9778299904 ; 724366.3833258311 ; 29512.000000000004
125 ; 22035.576933362543 ; 5841.6643816599135 ; 2867040.0999625577 ; 730208.0477074911 ; 29750.000000000004
126 ; 21845.678608207905 ; 5841.6643816599135 ; 2889075.67689592 ; 736049.712089151 ; 29988.000000000004
127 ; 21519.317645621086 ; 5841.6643816599135 ; 2910921.355504128 ; 741891.376470811 ; 30226.000000000004
128 ; 21426.543814261837 ; 5841.6643816599135 ; 2932440.673149749 ; 747733.0408524709 ; 30464.000000000004
129 ; 21059.97425046374 ; 5841.6643816599135 ; 2953867.216964011 ; 753574.7052341308 ; 30702.000000000004
130 ; 20674.780705920093 ; 5841.6643816599135 ; 2974927.191214475 ; 759416.3696157908 ; 30940.000000000004
131 ; 20711.044032448743 ; 5841.6643816599135 ; 2995601.971920395 ; 765258.0339974507 ; 31178.000000000004
132 ; 20234.451777500533 ; 5841.6643816599135 ; 3016313.0159528437 ; 771099.6983791107 ; 31416.000000000004
133 ; 19989.993603575716 ; 5841.6643816599135 ; 3036547.4677303443 ; 776941.3627607706 ; 31654.000000000004
134 ; 19711.711727405473 ; 5841.6643816599135 ; 3056537.46133392 ; 782783.0271424305 ; 31892.000000000004
135 ; 19198.50825985174 ; 5841.6643816599135 ; 3076249.173061325 ; 788624.6915240905 ; 32130.000000000004
136 ; 19132.71046711279 ; 5841.6643816599135 ; 3095447.681321177 ; 794466.3559057504 ; 32368.000000000004
137 ; 18707.23814550952 ; 5841.6643816599135 ; 3114580.39178829 ; 800308.0202874104 ; 32606.000000000004
138 ; 18537.85082533441 ; 5841.6643816599135 ; 3133287.6299337996 ; 806149.6846690703 ; 32844.00000000001
139 ; 18142.58296788516 ; 5841.6643816599135 ; 3151825.480759134 ; 811991.3490507302 ; 33082.00000000001
140 ; 17577.24422660797 ; 5841.6643816599135 ; 3169968.0637270194 ; 817833.0134323902 ; 33320.00000000001
141 ; 17372.119538895087 ; 5841.6643816599135 ; 3187545.3079536273 ; 823674.6778140501 ; 33558.00000000001
142 ; 16998.214636850546 ; 5841.6643816599135 ; 3204917.4274925226 ; 829516.34219571 ; 33796.00000000001
143 ; 16901.965951066995 ; 5841.6643816599135 ; 3221915.6421293733 ; 835358.00657737 ; 34034.00000000001
144 ; 16326.398336414655 ; 5841.6643816599135 ; 3238817.60808044 ; 841199.6709590299 ; 34272.00000000001
145 ; 16174.630922283079 ; 5841.6643816599135 ; 3255144.006416855 ; 847041.3353406899 ; 34510.00000000001
146 ; 16142.305388327264 ; 5841.6643816599135 ; 3271318.637339138 ; 852882.9997223498 ; 34748.00000000001
147 ; 15848.277546077992 ; 5841.6643816599135 ; 3287460.942727465 ; 858724.6641040097 ; 34986.00000000001
148 ; 16013.518924044298 ; 5841.6643816599135 ; 3303309.220273543 ; 864566.3284856697 ; 35224.00000000001
149 ; 15684.528045024572 ; 5841.6643816599135 ; 3319322.7391975876 ; 870407.9928673296 ; 35462.00000000001
150 ; 15717.079584780226 ; 5841.6643816599135 ; 3335007.2672426123 ; 876249.6572489896 ; 35700.00000000001
151 ; 15596.66233190775 ; 5841.6643816599135 ; 3350724.3468273925 ; 882091.3216306495 ; 35938.00000000001
152 ; 15359.29800965097 ; 5841.6643816599135 ; 3366321.0091593 ; 887932.9860123094 ; 36176.00000000001
153 ; 15345.778576919955 ; 5841.6643816599135 ; 3381680.307168951 ; 893774.6503939694 ; 36414.00000000001
154 ; 15305.415111694445 ; 5841.6643816599135 ; 3397026.0857458706 ; 899616.3147756293 ; 36652.00000000001
155 ; 15133.601274043278 ; 5841.6643816599135 ; 3412331.500857565 ; 905457.9791572893 ; 36890.00000000001
156 ; 14894.413787625937 ; 5841.6643816599135 ; 3427465.1021316084 ; 911299.6435389492 ; 37128.00000000001
157 ; 14699.031371153907 ; 5841.6643816599135 ; 3442359.515919234 ; 917141.3079206091 ; 37366.00000000001
158 ; 14632.116657415892 ; 5841.6643816599135 ; 3457058.547290388 ; 922982.9723022691 ; 37604.00000000001
159 ; 14526.234699365321 ; 5841.6643816599135 ; 3471690.663947804 ; 928824.636683929 ; 37842.00000000001
160 ; 14421.694015662402 ; 5841.6643816599135 ; 3486216.898647169 ; 934666.301065589 ; 38080.00000000001
161 ; 14257.809007346428 ; 5841.6643816599135 ; 3500638.5926628313 ; 940507.9654472489 ; 38318.00000000001
162 ; 14086.650200127588 ; 5841.6643816599135 ; 3514896.401670178 ; 946349.6298289088 ; 38556.00000000001
163 ; 13929.787008417736 ; 5841.6643816599135 ; 3528983.0518703056 ; 952191.2942105688 ; 38794.00000000001
164 ; 13903.20945961499 ; 5841.6643816599135 ; 3542912.8388787233 ; 958032.9585922287 ; 39032.00000000001
165 ; 13731.695076305285 ; 5841.6643816599135 ; 3556816.0483383383 ; 963874.6229738886 ; 39270.00000000001
166 ; 13466.09778695288 ; 5841.6643816599135 ; 3570547.7434146437 ; 969716.2873555486 ; 39508.00000000001
167 ; 13468.674243280335 ; 5841.6643816599135 ; 3584013.8412015964 ; 975557.9517372085 ; 39746.00000000001
168 ; 13405.459328043795 ; 5841.6643816599135 ; 3597482.5154448766 ; 981399.6161188685 ; 39984.00000000001
169 ; 13238.982902383921 ; 5841.6643816599135 ; 3610887.9747729204 ; 987241.2805005284 ; 40222.00000000001
170 ; 13161.499464681568 ; 5841.6643816599135 ; 3624126.9576753043 ; 993082.9448821883 ; 40460.00000000001
171 ; 12872.375212564893 ; 5841.6643816599135 ; 3637288.4571399856 ; 998924.6092638483 ; 40698.00000000001
172 ; 12661.665237082736 ; 5841.6643816599135 ; 3650160.8323525507 ; 1004766.2736455082 ; 40936.00000000001
173 ; 12725.767899757435 ; 5841.6643816599135 ; 3662822.4975896333 ; 1010607.9380271682 ; 41174.00000000001
174 ; 12569.686962519987 ; 5841.6643816599135 ; 3675548.2654893906 ; 1016449.6024088281 ; 41412.00000000001
175 ; 12597.772720637222 ; 5841.6643816599135 ; 3688117.9524519104 ; 1022291.266790488 ; 41650.00000000001
176 ; 12498.040101674784 ; 5841.6643816599135 ; 3700715.7251725476 ; 1028132.931172148 ; 41888.00000000001
177 ; 12588.255874858196 ; 5841.6643816599135 ; 3713213.7652742225 ; 1033974.5955538079 ; 42126.00000000001
178 ; 12706.483247518481 ; 5841.6643816599135 ; 3725802.0211490807 ; 1039816.2599354679 ; 42364.00000000001
179 ; 12677.675126851636 ; 5841.6643816599135 ; 3738508.5043965993 ; 1045657.9243171278 ; 42602.00000000001
180 ; 12774.02360735742 ; 5841.6643816599135 ; 3751186.179523451 ; 1051499.5886987876 ; 42840.00000000001
181 ; 12774.793158424554 ; 5841.6643816599135 ; 3763960.203130808 ; 1057341.2530804474 ; 43078.00000000001
182 ; 12750.04516114389 ; 5841.6643816599135 ; 3776734.9962892327 ; 1063182.9174621073 ; 43316.00000000001
183 ; 13064.244598059551 ; 5841.6643816599135 ; 3789485.0414503766 ; 1069024.581843767 ; 43554.00000000001
184 ; 13022.584795841785 ; 5841.6643816599135 ; 3802549.286048436 ; 1074866.246225427 ; 43792.00000000001
