CSV File for the City 2 on Day 189
1 - Minute m 
2 - Power Consumed at minute m 
3 - Power Produced at minute m 
4 - Energy Consumed since the beginning of the day 
5 - Energy Produced since the beginning of the day 
6 - Energy Lost since the beginning of the day on lines starting from the city
 
0 ; 4970.870369690187 ; 32982.91216430041 ; 0.0 ; 0.0 ; 0.0
1 ; 5326.270524969031 ; 32982.91216430041 ; 4970.870369690187 ; 32982.91216430041 ; 0.0
2 ; 6063.329197463838 ; 32982.91216430041 ; 10297.140894659216 ; 65965.82432860082 ; 0.0
3 ; 6335.866793871742 ; 32982.91216430041 ; 16360.470092123054 ; 98948.73649290123 ; 0.0
4 ; 7087.512844281355 ; 32982.91216430041 ; 22696.336885994795 ; 131931.64865720164 ; 0.0
5 ; 7424.077288219689 ; 32982.91216430041 ; 29783.84973027615 ; 164914.56082150206 ; 0.0
6 ; 7889.703076304622 ; 32982.91216430041 ; 37207.92701849584 ; 197897.47298580248 ; 0.0
7 ; 8405.279785135326 ; 32982.91216430041 ; 45097.63009480046 ; 230880.3851501029 ; 0.0
8 ; 9083.232302457476 ; 32982.91216430041 ; 53502.90987993578 ; 263863.2973144033 ; 0.0
9 ; 9283.74909137228 ; 32982.91216430041 ; 62586.14218239326 ; 296846.2094787037 ; 0.0
10 ; 9830.096610173316 ; 32982.91216430041 ; 71869.89127376553 ; 329829.12164300407 ; 0.0
11 ; 10274.356501376482 ; 32982.91216430041 ; 81699.98788393885 ; 362812.03380730445 ; 0.0
12 ; 10790.081375681928 ; 32982.91216430041 ; 91974.34438531534 ; 395794.94597160484 ; 0.0
13 ; 11107.27653730582 ; 32982.91216430041 ; 102764.42576099727 ; 428777.85813590523 ; 0.0
14 ; 11614.127952971667 ; 32982.91216430041 ; 113871.70229830309 ; 461760.7703002056 ; 0.0
15 ; 11841.345174217728 ; 32982.91216430041 ; 125485.83025127476 ; 494743.682464506 ; 0.0
16 ; 12529.445589006884 ; 32982.91216430041 ; 137327.1754254925 ; 527726.5946288065 ; 0.0
17 ; 12971.576937934082 ; 32982.91216430041 ; 149856.62101449937 ; 560709.5067931069 ; 0.0
18 ; 13278.63921054291 ; 32982.91216430041 ; 162828.19795243346 ; 593692.4189574074 ; 0.0
19 ; 13692.138140975836 ; 32982.91216430041 ; 176106.83716297636 ; 626675.3311217078 ; 0.0
20 ; 14153.549250603117 ; 32982.91216430041 ; 189798.9753039522 ; 659658.2432860082 ; 0.0
21 ; 14462.926563249657 ; 32982.91216430041 ; 203952.52455455533 ; 692641.1554503087 ; 0.0
22 ; 14920.939414924052 ; 32982.91216430041 ; 218415.451117805 ; 725624.0676146091 ; 0.0
23 ; 15318.648445725754 ; 32982.91216430041 ; 233336.39053272904 ; 758606.9797789096 ; 0.0
24 ; 15607.165667599395 ; 32982.91216430041 ; 248655.0389784548 ; 791589.89194321 ; 0.0
25 ; 15942.423392877701 ; 32982.91216430041 ; 264262.2046460542 ; 824572.8041075105 ; 0.0
26 ; 16375.244724538146 ; 32982.91216430041 ; 280204.62803893187 ; 857555.7162718109 ; 0.0
27 ; 16701.185733642218 ; 32982.91216430041 ; 296579.87276347 ; 890538.6284361114 ; 0.0
28 ; 17071.231241383226 ; 32982.91216430041 ; 313281.0584971122 ; 923521.5406004118 ; 0.0
29 ; 17320.374237021184 ; 32982.91216430041 ; 330352.2897384954 ; 956504.4527647123 ; 0.0
30 ; 17794.615030382123 ; 32982.91216430041 ; 347672.6639755166 ; 989487.3649290127 ; 0.0
31 ; 17961.184500474454 ; 32982.91216430041 ; 365467.27900589874 ; 1022470.2770933132 ; 0.0
32 ; 18434.356105772367 ; 32982.91216430041 ; 383428.4635063732 ; 1055453.1892576136 ; 0.0
33 ; 18833.76186909129 ; 32982.91216430041 ; 401862.8196121456 ; 1088436.101421914 ; 0.0
34 ; 18990.166533008924 ; 32982.91216430041 ; 420696.5814812369 ; 1121419.0135862145 ; 0.0
35 ; 19199.58674844455 ; 32982.91216430041 ; 439686.7480142458 ; 1154401.925750515 ; 0.0
36 ; 19434.89165268127 ; 32982.91216430041 ; 458886.33476269036 ; 1187384.8379148154 ; 0.0
37 ; 19998.584608529203 ; 32982.91216430041 ; 478321.22641537164 ; 1220367.7500791159 ; 0.0
38 ; 20255.195572347784 ; 32982.91216430041 ; 498319.81102390087 ; 1253350.6622434163 ; 0.0
39 ; 20571.005480270844 ; 32982.91216430041 ; 518575.00659624866 ; 1286333.5744077167 ; 0.0
40 ; 20694.75860732364 ; 32982.91216430041 ; 539146.0120765195 ; 1319316.4865720172 ; 0.0
41 ; 21112.372264107296 ; 32982.91216430041 ; 559840.7706838432 ; 1352299.3987363176 ; 0.0
42 ; 21245.57918703673 ; 32982.91216430041 ; 580953.1429479505 ; 1385282.310900618 ; 0.0
43 ; 21463.494409049283 ; 32982.91216430041 ; 602198.7221349872 ; 1418265.2230649185 ; 0.0
44 ; 21759.657028747573 ; 32982.91216430041 ; 623662.2165440365 ; 1451248.135229219 ; 0.0
45 ; 21923.569459850867 ; 32982.91216430041 ; 645421.8735727841 ; 1484231.0473935194 ; 0.0
46 ; 22211.42351942891 ; 32982.91216430041 ; 667345.443032635 ; 1517213.9595578199 ; 0.0
47 ; 22502.82391571809 ; 32982.91216430041 ; 689556.866552064 ; 1550196.8717221203 ; 0.0
48 ; 22603.072670154594 ; 32982.91216430041 ; 712059.6904677821 ; 1583179.7838864208 ; 0.0
49 ; 22834.238645266636 ; 32982.91216430041 ; 734662.7631379367 ; 1616162.6960507212 ; 0.0
50 ; 23251.411635707198 ; 32982.91216430041 ; 757497.0017832033 ; 1649145.6082150217 ; 0.0
51 ; 23227.08239976885 ; 32982.91216430041 ; 780748.4134189106 ; 1682128.520379322 ; 0.0
52 ; 23431.543804474197 ; 32982.91216430041 ; 803975.4958186795 ; 1715111.4325436226 ; 0.0
53 ; 23678.906430330208 ; 32982.91216430041 ; 827407.0396231536 ; 1748094.344707923 ; 0.0
54 ; 23819.18642431458 ; 32982.91216430041 ; 851085.9460534839 ; 1781077.2568722235 ; 0.0
55 ; 24011.74950314557 ; 32982.91216430041 ; 874905.1324777985 ; 1814060.169036524 ; 0.0
56 ; 24144.088552240777 ; 32982.91216430041 ; 898916.8819809441 ; 1847043.0812008244 ; 0.0
57 ; 24330.586492252838 ; 32982.91216430041 ; 923060.9705331848 ; 1880025.9933651248 ; 0.0
58 ; 24445.249550904096 ; 32982.91216430041 ; 947391.5570254377 ; 1913008.9055294252 ; 0.0
59 ; 24607.29590477669 ; 32982.91216430041 ; 971836.8065763419 ; 1945991.8176937257 ; 0.0
60 ; 24963.82674706831 ; 32982.91216430041 ; 996444.1024811185 ; 1978974.7298580261 ; 0.0
61 ; 24890.954887898966 ; 32982.91216430041 ; 1021407.9292281868 ; 2011957.6420223266 ; 0.0
62 ; 25090.717927414156 ; 32982.91216430041 ; 1046298.8841160858 ; 2044940.554186627 ; 0.0
63 ; 25122.488893742262 ; 32982.91216430041 ; 1071389.6020435 ; 2077923.4663509275 ; 0.0
64 ; 25188.335311217066 ; 32982.91216430041 ; 1096512.0909372421 ; 2110906.3785152277 ; 0.0
65 ; 25511.463846092625 ; 32982.91216430041 ; 1121700.4262484591 ; 2143889.290679528 ; 0.0
66 ; 25573.5922821407 ; 32982.91216430041 ; 1147211.8900945517 ; 2176872.202843828 ; 0.0
67 ; 25713.246610732633 ; 32982.91216430041 ; 1172785.4823766924 ; 2209855.1150081283 ; 0.0
68 ; 25673.538148721123 ; 32982.91216430041 ; 1198498.728987425 ; 2242838.0271724286 ; 0.0
69 ; 25751.394373253028 ; 32982.91216430041 ; 1224172.2671361463 ; 2275820.939336729 ; 0.0
70 ; 25982.227971799308 ; 32982.91216430041 ; 1249923.6615093993 ; 2308803.851501029 ; 0.0
71 ; 25929.2518031307 ; 32982.91216430041 ; 1275905.8894811985 ; 2341786.763665329 ; 0.0
72 ; 26235.422347506796 ; 32982.91216430041 ; 1301835.1412843291 ; 2374769.6758296294 ; 0.0
73 ; 26030.890809224606 ; 32982.91216430041 ; 1328070.5636318359 ; 2407752.5879939296 ; 0.0
74 ; 26189.27318906201 ; 32982.91216430041 ; 1354101.4544410605 ; 2440735.50015823 ; 0.0
75 ; 26280.102587504967 ; 32982.91216430041 ; 1380290.7276301226 ; 2473718.41232253 ; 0.0
76 ; 26163.835072414127 ; 32982.91216430041 ; 1406570.8302176276 ; 2506701.3244868303 ; 0.0
77 ; 26446.58444356592 ; 32982.91216430041 ; 1432734.6652900416 ; 2539684.2366511305 ; 0.0
78 ; 26403.498041 ; 32982.91216430041 ; 1459181.2497336075 ; 2572667.1488154307 ; 0.0
79 ; 26339.58637807341 ; 32982.91216430041 ; 1485584.7477746075 ; 2605650.060979731 ; 0.0
80 ; 26394.820779949703 ; 32982.91216430041 ; 1511924.3341526808 ; 2638632.973144031 ; 0.0
81 ; 26501.496629718145 ; 32982.91216430041 ; 1538319.1549326305 ; 2671615.8853083313 ; 0.0
82 ; 26212.47420833883 ; 32982.91216430041 ; 1564820.6515623487 ; 2704598.7974726316 ; 0.0
83 ; 26383.181646830024 ; 32982.91216430041 ; 1591033.1257706876 ; 2737581.709636932 ; 0.0
84 ; 26251.51646486545 ; 32982.91216430041 ; 1617416.3074175175 ; 2770564.621801232 ; 0.0
85 ; 26307.08949709387 ; 32982.91216430041 ; 1643667.823882383 ; 2803547.533965532 ; 0.0
86 ; 26333.39903792013 ; 32982.91216430041 ; 1669974.9133794769 ; 2836530.4461298324 ; 0.0
87 ; 26409.817355148472 ; 32982.91216430041 ; 1696308.312417397 ; 2869513.3582941326 ; 0.0
88 ; 26344.82559004211 ; 32982.91216430041 ; 1722718.1297725455 ; 2902496.270458433 ; 0.0
89 ; 26267.634627428557 ; 32982.91216430041 ; 1749062.9553625877 ; 2935479.182622733 ; 0.0
90 ; 26087.74707457953 ; 32982.91216430041 ; 1775330.5899900163 ; 2968462.0947870333 ; 0.0
91 ; 26200.036716273746 ; 32982.91216430041 ; 1801418.337064596 ; 3001445.0069513335 ; 0.0
92 ; 26256.757367937673 ; 32982.91216430041 ; 1827618.3737808696 ; 3034427.9191156337 ; 0.0
93 ; 25961.108838864344 ; 32982.91216430041 ; 1853875.1311488072 ; 3067410.831279934 ; 0.0
94 ; 26052.518781896626 ; 32982.91216430041 ; 1879836.2399876716 ; 3100393.743444234 ; 0.0
95 ; 25837.03067142681 ; 32982.91216430041 ; 1905888.7587695683 ; 3133376.6556085343 ; 0.0
96 ; 25802.38791592647 ; 32982.91216430041 ; 1931725.789440995 ; 3166359.5677728346 ; 0.0
97 ; 25828.435157158867 ; 32982.91216430041 ; 1957528.1773569216 ; 3199342.479937135 ; 0.0
98 ; 25505.455578434972 ; 32982.91216430041 ; 1983356.6125140805 ; 3232325.392101435 ; 0.0
99 ; 25709.926453895034 ; 32982.91216430041 ; 2008862.0680925155 ; 3265308.304265735 ; 0.0
100 ; 25420.69166855459 ; 32982.91216430041 ; 2034571.9945464104 ; 3298291.2164300354 ; 0.0
101 ; 25457.56712682963 ; 32982.91216430041 ; 2059992.686214965 ; 3331274.1285943356 ; 0.0
102 ; 25155.87100308683 ; 32982.91216430041 ; 2085450.2533417947 ; 3364257.040758636 ; 0.0
103 ; 25007.552385913736 ; 32982.91216430041 ; 2110606.1243448816 ; 3397239.952922936 ; 0.0
104 ; 24846.369088141368 ; 32982.91216430041 ; 2135613.6767307953 ; 3430222.8650872363 ; 0.0
105 ; 24951.70416384989 ; 32982.91216430041 ; 2160460.0458189365 ; 3463205.7772515365 ; 0.0
106 ; 24711.061631725428 ; 32982.91216430041 ; 2185411.7499827864 ; 3496188.6894158367 ; 0.0
107 ; 24580.01014575565 ; 32982.91216430041 ; 2210122.811614512 ; 3529171.601580137 ; 0.0
108 ; 24399.761452668885 ; 32982.91216430041 ; 2234702.8217602675 ; 3562154.513744437 ; 0.0
109 ; 24272.79846459445 ; 32982.91216430041 ; 2259102.5832129363 ; 3595137.4259087374 ; 0.0
110 ; 24048.344490105126 ; 32982.91216430041 ; 2283375.3816775307 ; 3628120.3380730376 ; 0.0
111 ; 24014.433000298566 ; 32982.91216430041 ; 2307423.726167636 ; 3661103.250237338 ; 0.0
112 ; 23450.4149304002 ; 32982.91216430041 ; 2331438.1591679347 ; 3694086.162401638 ; 0.0
113 ; 23610.37760915 ; 32982.91216430041 ; 2354888.5740983346 ; 3727069.074565938 ; 0.0
114 ; 23229.976975440437 ; 32982.91216430041 ; 2378498.9517074847 ; 3760051.9867302384 ; 0.0
115 ; 23035.744388429062 ; 32982.91216430041 ; 2401728.928682925 ; 3793034.8988945386 ; 0.0
116 ; 22876.23962090473 ; 32982.91216430041 ; 2424764.673071354 ; 3826017.811058839 ; 0.0
117 ; 22675.941203871942 ; 32982.91216430041 ; 2447640.912692259 ; 3859000.723223139 ; 0.0
118 ; 22496.614855649004 ; 32982.91216430041 ; 2470316.853896131 ; 3891983.6353874393 ; 0.0
119 ; 22279.895402942788 ; 32982.91216430041 ; 2492813.4687517798 ; 3924966.5475517395 ; 0.0
120 ; 22075.493008597346 ; 32982.91216430041 ; 2515093.3641547225 ; 3957949.4597160397 ; 0.0
121 ; 21672.87160183742 ; 32982.91216430041 ; 2537168.85716332 ; 3990932.37188034 ; 0.0
122 ; 21520.86038854259 ; 32982.91216430041 ; 2558841.728765157 ; 4023915.28404464 ; 0.0
123 ; 21196.0006612339 ; 32982.91216430041 ; 2580362.5891536996 ; 4056898.1962089404 ; 0.0
124 ; 21153.42908499903 ; 32982.91216430041 ; 2601558.5898149335 ; 4089881.1083732406 ; 0.0
125 ; 20651.531836449667 ; 32982.91216430041 ; 2622712.0188999325 ; 4122864.020537541 ; 0.0
126 ; 20378.972648174557 ; 32982.91216430041 ; 2643363.550736382 ; 4155846.932701841 ; 0.0
127 ; 20096.55393617506 ; 32982.91216430041 ; 2663742.5233845566 ; 4188829.844866141 ; 0.0
128 ; 19809.51550144151 ; 32982.91216430041 ; 2683839.0773207317 ; 4221812.757030441 ; 0.0
129 ; 19631.2334573217 ; 32982.91216430041 ; 2703648.592822173 ; 4254795.669194742 ; 0.0
130 ; 19510.607725036734 ; 32982.91216430041 ; 2723279.826279495 ; 4287778.581359043 ; 0.0
131 ; 19118.457419061473 ; 32982.91216430041 ; 2742790.4340045317 ; 4320761.4935233435 ; 0.0
132 ; 18774.71410767156 ; 32982.91216430041 ; 2761908.8914235933 ; 4353744.405687644 ; 0.0
133 ; 18470.698317568815 ; 32982.91216430041 ; 2780683.605531265 ; 4386727.317851945 ; 0.0
134 ; 18083.14548720693 ; 32982.91216430041 ; 2799154.303848834 ; 4419710.2300162455 ; 0.0
135 ; 17707.7492556388 ; 32982.91216430041 ; 2817237.4493360408 ; 4452693.142180546 ; 0.0
136 ; 17390.9952511846 ; 32982.91216430041 ; 2834945.1985916793 ; 4485676.054344847 ; 0.0
137 ; 17040.837656626398 ; 32982.91216430041 ; 2852336.193842864 ; 4518658.966509148 ; 0.0
138 ; 16825.888605505806 ; 32982.91216430041 ; 2869377.0314994906 ; 4551641.878673448 ; 0.0
139 ; 16360.56679417979 ; 32982.91216430041 ; 2886202.9201049963 ; 4584624.790837749 ; 0.0
140 ; 16075.142691240908 ; 32982.91216430041 ; 2902563.486899176 ; 4617607.70300205 ; 0.0
141 ; 15609.129046315398 ; 32982.91216430041 ; 2918638.6295904173 ; 4650590.61516635 ; 0.0
142 ; 15134.772971042365 ; 32982.91216430041 ; 2934247.7586367326 ; 4683573.527330651 ; 0.0
143 ; 14903.176090128878 ; 32982.91216430041 ; 2949382.531607775 ; 4716556.439494952 ; 0.0
144 ; 14256.075689708921 ; 32982.91216430041 ; 2964285.7076979037 ; 4749539.351659252 ; 0.0
145 ; 14338.265702834125 ; 32982.91216430041 ; 2978541.7833876126 ; 4782522.263823553 ; 0.0
146 ; 14347.316627122123 ; 32982.91216430041 ; 2992880.049090447 ; 4815505.175987854 ; 0.0
147 ; 14217.864158371614 ; 32982.91216430041 ; 3007227.365717569 ; 4848488.088152154 ; 0.0
148 ; 13857.033219896415 ; 32982.91216430041 ; 3021445.2298759404 ; 4881471.000316455 ; 0.0
149 ; 14035.242655555021 ; 32982.91216430041 ; 3035302.2630958366 ; 4914453.912480756 ; 0.0
150 ; 13852.49173761662 ; 32982.91216430041 ; 3049337.505751392 ; 4947436.824645056 ; 0.0
151 ; 13756.89362625543 ; 32982.91216430041 ; 3063189.9974890086 ; 4980419.736809357 ; 0.0
152 ; 13501.17779409365 ; 32982.91216430041 ; 3076946.891115264 ; 5013402.648973658 ; 0.0
153 ; 13450.734181080656 ; 32982.91216430041 ; 3090448.068909358 ; 5046385.561137958 ; 0.0
154 ; 13289.549452074722 ; 32982.91216430041 ; 3103898.8030904382 ; 5079368.473302259 ; 0.0
155 ; 13077.094005505718 ; 32982.91216430041 ; 3117188.352542513 ; 5112351.38546656 ; 0.0
156 ; 13064.19605706893 ; 32982.91216430041 ; 3130265.4465480186 ; 5145334.2976308605 ; 0.0
157 ; 13105.89573548967 ; 32982.91216430041 ; 3143329.6426050877 ; 5178317.209795161 ; 0.0
158 ; 12989.949020425698 ; 32982.91216430041 ; 3156435.5383405774 ; 5211300.121959462 ; 0.0
159 ; 12650.84700978613 ; 32982.91216430041 ; 3169425.487361003 ; 5244283.0341237625 ; 0.0
160 ; 12509.189159203746 ; 32982.91216430041 ; 3182076.334370789 ; 5277265.946288063 ; 0.0
161 ; 12385.1513201922 ; 32982.91216430041 ; 3194585.523529993 ; 5310248.858452364 ; 0.0
162 ; 12200.89801166422 ; 32982.91216430041 ; 3206970.674850185 ; 5343231.770616665 ; 0.0
163 ; 12030.878175333675 ; 32982.91216430041 ; 3219171.5728618493 ; 5376214.682780965 ; 0.0
164 ; 11789.623610369548 ; 32982.91216430041 ; 3231202.451037183 ; 5409197.594945266 ; 0.0
165 ; 11784.195896898364 ; 32982.91216430041 ; 3242992.0746475523 ; 5442180.507109567 ; 0.0
166 ; 11654.563836047966 ; 32982.91216430041 ; 3254776.2705444507 ; 5475163.419273867 ; 0.0
167 ; 11624.94066826873 ; 32982.91216430041 ; 3266430.8343804986 ; 5508146.331438168 ; 0.0
168 ; 11294.248858394381 ; 32982.91216430041 ; 3278055.775048767 ; 5541129.243602469 ; 0.0
169 ; 11336.18785450901 ; 32982.91216430041 ; 3289350.023907162 ; 5574112.155766769 ; 0.0
170 ; 10934.23689297669 ; 32982.91216430041 ; 3300686.2117616707 ; 5607095.06793107 ; 0.0
171 ; 10696.299567677675 ; 32982.91216430041 ; 3311620.4486546475 ; 5640077.980095371 ; 0.0
172 ; 10696.847346494573 ; 32982.91216430041 ; 3322316.748222325 ; 5673060.892259671 ; 0.0
173 ; 10608.573790376233 ; 32982.91216430041 ; 3333013.5955688194 ; 5706043.804423972 ; 0.0
174 ; 10530.770508433487 ; 32982.91216430041 ; 3343622.1693591955 ; 5739026.716588273 ; 0.0
175 ; 10514.22698710997 ; 32982.91216430041 ; 3354152.939867629 ; 5772009.628752573 ; 0.0
176 ; 10683.129970204298 ; 32982.91216430041 ; 3364667.166854739 ; 5804992.540916874 ; 0.0
177 ; 10660.147467371637 ; 32982.91216430041 ; 3375350.2968249433 ; 5837975.453081175 ; 0.0
178 ; 10701.042369717727 ; 32982.91216430041 ; 3386010.444292315 ; 5870958.365245475 ; 0.0
179 ; 10647.742890625688 ; 32982.91216430041 ; 3396711.4866620325 ; 5903941.277409776 ; 0.0
180 ; 10776.104523037178 ; 32982.91216430041 ; 3407359.2295526583 ; 5936924.189574077 ; 0.0
181 ; 10804.98957699659 ; 32982.91216430041 ; 3418135.3340756954 ; 5969907.1017383775 ; 0.0
182 ; 11011.322454655934 ; 32982.91216430041 ; 3428940.323652692 ; 6002890.013902678 ; 0.0
183 ; 10781.959128777833 ; 32982.91216430041 ; 3439951.646107348 ; 6035872.926066979 ; 0.0
184 ; 11083.584032415261 ; 32982.91216430041 ; 3450733.605236126 ; 6068855.8382312795 ; 0.0
185 ; 11024.235926157648 ; 32982.91216430041 ; 3461817.1892685415 ; 6101838.75039558 ; 0.0
186 ; 10941.30306136702 ; 32982.91216430041 ; 3472841.4251946993 ; 6134821.662559881 ; 0.0
187 ; 10922.525777043578 ; 32982.91216430041 ; 3483782.7282560663 ; 6167804.574724182 ; 0.0
188 ; 11055.669477224274 ; 32982.91216430041 ; 3494705.25403311 ; 6200787.486888482 ; 0.0
189 ; 11097.464861712355 ; 32982.91216430041 ; 3505760.9235103345 ; 6233770.399052783 ; 0.0
190 ; 11060.415674310336 ; 32982.91216430041 ; 3516858.388372047 ; 6266753.311217084 ; 0.0
191 ; 11162.420314600142 ; 32982.91216430041 ; 3527918.804046357 ; 6299736.223381384 ; 0.0
192 ; 11243.500906908126 ; 32982.91216430041 ; 3539081.2243609573 ; 6332719.135545685 ; 0.0
193 ; 11234.321965997173 ; 32982.91216430041 ; 3550324.725267865 ; 6365702.047709986 ; 0.0
194 ; 11376.343182481305 ; 32982.91216430041 ; 3561559.0472338623 ; 6398684.959874286 ; 0.0
195 ; 11284.452443178341 ; 32982.91216430041 ; 3572935.3904163437 ; 6431667.872038587 ; 0.0
196 ; 11194.107943749956 ; 32982.91216430041 ; 3584219.842859522 ; 6464650.784202888 ; 0.0
197 ; 11233.105809407018 ; 32982.91216430041 ; 3595413.950803272 ; 6497633.696367188 ; 0.0
198 ; 11227.493558372451 ; 32982.91216430041 ; 3606647.056612679 ; 6530616.608531489 ; 0.0
199 ; 11261.338682476202 ; 32982.91216430041 ; 3617874.550171051 ; 6563599.52069579 ; 0.0
200 ; 11366.474456808888 ; 32982.91216430041 ; 3629135.8888535276 ; 6596582.43286009 ; 0.0
201 ; 11434.302778248073 ; 32982.91216430041 ; 3640502.3633103366 ; 6629565.345024391 ; 0.0
202 ; 11432.358335450668 ; 32982.91216430041 ; 3651936.666088585 ; 6662548.257188692 ; 0.0
203 ; 11519.570188508476 ; 32982.91216430041 ; 3663369.0244240356 ; 6695531.169352992 ; 0.0
204 ; 11588.717470196554 ; 32982.91216430041 ; 3674888.594612544 ; 6728514.081517293 ; 0.0
205 ; 11664.586383257305 ; 32982.91216430041 ; 3686477.3120827405 ; 6761496.993681594 ; 0.0
206 ; 11646.027463363873 ; 32982.91216430041 ; 3698141.898465998 ; 6794479.9058458945 ; 0.0
207 ; 11656.948188179633 ; 32982.91216430041 ; 3709787.925929362 ; 6827462.818010195 ; 0.0
208 ; 11678.467544966396 ; 32982.91216430041 ; 3721444.8741175416 ; 6860445.730174496 ; 0.0
209 ; 11718.605599569197 ; 32982.91216430041 ; 3733123.341662508 ; 6893428.6423387965 ; 0.0
210 ; 11855.75042203562 ; 32982.91216430041 ; 3744841.947262077 ; 6926411.554503097 ; 0.0
211 ; 11722.103168124075 ; 32982.91216430041 ; 3756697.697684113 ; 6959394.466667398 ; 0.0
212 ; 11858.652321626676 ; 32982.91216430041 ; 3768419.800852237 ; 6992377.378831699 ; 0.0
213 ; 11955.823366371831 ; 32982.91216430041 ; 3780278.4531738637 ; 7025360.290995999 ; 0.0
214 ; 11736.806359467559 ; 32982.91216430041 ; 3792234.2765402356 ; 7058343.2031603 ; 0.0
215 ; 11991.295575137905 ; 32982.91216430041 ; 3803971.082899703 ; 7091326.115324601 ; 0.0
216 ; 11905.90386825693 ; 32982.91216430041 ; 3815962.378474841 ; 7124309.027488901 ; 0.0
