CSV File for the City 3 on Day 206
1 - Minute m 
2 - Power Consumed at minute m 
3 - Power Produced at minute m 
4 - Energy Consumed since the beginning of the day 
5 - Energy Produced since the beginning of the day 
6 - Energy Lost since the beginning of the day on lines starting from the city
 
0 ; 3877.133347000976 ; 51289.41214101573 ; 0.0 ; 0.0 ; 0.0
1 ; 4509.218997141009 ; 50853.70517542725 ; 3877.133347000976 ; 51289.41214101573 ; 0.0
2 ; 4808.729325458811 ; 50460.583042932325 ; 8386.352344141986 ; 102143.11731644298 ; 0.0
3 ; 5309.356629400262 ; 50111.07825406761 ; 13195.081669600797 ; 152603.7003593753 ; 0.0
4 ; 5878.733185088362 ; 49806.13591874803 ; 18504.43829900106 ; 202714.7786134429 ; 0.0
5 ; 6193.9588894973285 ; 49546.60225967751 ; 24383.17148408942 ; 252520.91453219095 ; 0.0
6 ; 6616.22848806704 ; 49333.21384632698 ; 30577.130373586748 ; 302067.51679186843 ; 0.0
7 ; 7226.749815393886 ; 49166.5878496263 ; 37193.35886165379 ; 351400.7306381954 ; 0.0
8 ; 7710.421284694478 ; 49047.2136055312 ; 44420.108677047676 ; 400567.3184878217 ; 0.0
9 ; 7945.349952900494 ; 48975.44574912296 ; 52130.529961742155 ; 449614.53209335293 ; 0.0
10 ; 8427.22127525588 ; 48951.49914031341 ; 60075.879914642646 ; 498589.97784247587 ; 0.0
11 ; 8901.842869510554 ; 48975.44574912296 ; 68503.10118989853 ; 547541.4769827892 ; 0.0
12 ; 9337.972797807812 ; 49047.2136055312 ; 77404.94405940908 ; 596516.9227319122 ; 0.0
13 ; 9537.348647516439 ; 49166.5878496263 ; 86742.9168572169 ; 645564.1363374435 ; 0.0
14 ; 10101.03534152923 ; 49333.21384632689 ; 96280.26550473334 ; 694730.7241870698 ; 0.0
15 ; 10492.68347159098 ; 49546.60225967751 ; 106381.30084626257 ; 744063.9380333967 ; 0.0
16 ; 10998.223070024873 ; 49806.13591874803 ; 116873.98431785355 ; 793610.5402930742 ; 0.0
17 ; 11516.112220232311 ; 50111.07825406752 ; 127872.20738787843 ; 843416.6762118222 ; 0.0
18 ; 11715.381196570035 ; 50460.583042932325 ; 139388.31960811073 ; 893527.7544658898 ; 0.0
19 ; 12156.697130999473 ; 50853.70517542715 ; 151103.70080468076 ; 943988.3375088221 ; 0.0
20 ; 12581.011205662284 ; 51289.41214101573 ; 163260.39793568023 ; 994842.0426842492 ; 0.0
21 ; 12760.189728079346 ; 51766.59593744093 ; 175841.4091413425 ; 1046131.454825265 ; 0.0
22 ; 13072.76105684144 ; 52284.085117885574 ; 188601.59886942184 ; 1097898.050762706 ; 0.0
23 ; 13518.396451399962 ; 52840.656716681035 ; 201674.35992626328 ; 1150182.1358805916 ; 0.0
24 ; 13751.602333141842 ; 53435.04782571933 ; 215192.75637766323 ; 1203022.7925972727 ; 0.0
25 ; 14117.799384528167 ; 54065.96663045368 ; 228944.35871080507 ; 1256457.840422992 ; 0.0
26 ; 14574.606299409523 ; 54732.10275335518 ; 243062.15809533323 ; 1310523.8070534456 ; 0.0
27 ; 14843.07522578987 ; 55432.13679168475 ; 257636.76439474276 ; 1365255.9098068008 ; 0.0
28 ; 15156.46817402871 ; 56164.74897354273 ; 272479.83962053264 ; 1420688.0465984854 ; 0.0
29 ; 15442.418910296863 ; 56928.626889998704 ; 287636.3077945614 ; 1476852.7955720283 ; 0.0
30 ; 15766.135680203826 ; 57722.47229072522 ; 303078.72670485824 ; 1533781.422462027 ; 0.0
31 ; 16121.184710387126 ; 58545.006955470824 ; 318844.8623850621 ; 1591503.8947527523 ; 0.0
32 ; 16325.669015282834 ; 59394.97767376175 ; 334966.04709544923 ; 1650048.9017082232 ; 0.0
33 ; 16587.50779418575 ; 60271.16038056364 ; 351291.71611073206 ; 1709443.879381985 ; 0.0
34 ; 16898.847095430658 ; 61172.363506629656 ; 367879.22390491783 ; 1769715.0397625486 ; 0.0
35 ; 17348.689691796215 ; 62097.430609385294 ; 384778.0710003485 ; 1830887.4032691782 ; 0.0
36 ; 17582.912249222583 ; 63045.242354031594 ; 402126.7606921447 ; 1892984.8338785635 ; 0.0
37 ; 17853.47018067669 ; 64014.717915655216 ; 419709.67294136726 ; 1956030.0762325951 ; 0.0
38 ; 18020.334820280397 ; 65004.81587208936 ; 437563.1431220439 ; 2020044.7941482503 ; 0.0
39 ; 18384.909077242268 ; 66014.53465459324 ; 455583.4779423243 ; 2085049.6100203397 ; 0.0
40 ; 18675.112274381147 ; 67042.91261956345 ; 473968.38701956655 ; 2151064.144674933 ; 0.0
41 ; 18810.1710789483 ; 68089.02779986591 ; 492643.4992939477 ; 2218107.0572944963 ; 0.0
42 ; 19048.78985183877 ; 69151.99738929058 ; 511453.670372896 ; 2286196.085094362 ; 0.0
43 ; 19329.31215517119 ; 70230.97700836184 ; 530502.4602247347 ; 2355348.0824836525 ; 0.0
44 ; 19469.28879060215 ; 71325.15979446657 ; 549831.7723799059 ; 2425579.0594920143 ; 0.0
45 ; 19793.281250652264 ; 72433.77535416088 ; 569301.061170508 ; 2496904.219286481 ; 0.0
46 ; 19920.364775838887 ; 73556.08861067008 ; 589094.3424211603 ; 2569337.994640642 ; 0.0
47 ; 20347.187060764536 ; 74691.39857508808 ; 609014.7071969992 ; 2642894.083251312 ; 0.0
48 ; 20421.702679123715 ; 75839.03706564708 ; 629361.8942577637 ; 2717585.4818264 ; 0.0
49 ; 20702.603780212088 ; 76998.36739568456 ; 649783.5969368875 ; 2793424.518892047 ; 0.0
50 ; 20789.79911091174 ; 78168.78304758282 ; 670486.2007170996 ; 2870422.8862877316 ; 0.0
51 ; 21023.011093323024 ; 79349.7063469866 ; 691275.9998280114 ; 2948591.6693353145 ; 0.0
52 ; 21228.348560462826 ; 80540.58714899908 ; 712299.0109213344 ; 3027941.3756823014 ; 0.0
53 ; 21485.245162493877 ; 81740.90154578384 ; 733527.3594817972 ; 3108481.9628313 ; 0.0
54 ; 21428.09868885343 ; 82950.15060304114 ; 755012.6046442911 ; 3190222.864377084 ; 0.0
55 ; 21701.720724940762 ; 84167.85913114726 ; 776440.7033331445 ; 3273173.0149801252 ; 0.0
56 ; 21919.99747710849 ; 85393.57449531484 ; 798142.4240580853 ; 3357340.8741112724 ; 0.0
57 ; 22043.790276354426 ; 86626.86546792513 ; 820062.4215351938 ; 3442734.448606587 ; 0.0
58 ; 22071.429837765307 ; 87867.32112517429 ; 842106.2118115482 ; 3529361.314074512 ; 0.0
59 ; 22342.37565964148 ; 89114.54978933367 ; 864177.6416493135 ; 3617228.6351996865 ; 0.0
60 ; 22336.041261933347 ; 90368.17801723523 ; 886520.017308955 ; 3706343.18498902 ; 0.0
61 ; 22726.54810047922 ; 91627.84963502771 ; 908856.0585708884 ; 3796711.3630062556 ; 0.0
62 ; 22633.941486511252 ; 92893.22481879836 ; 931582.6066713675 ; 3888339.2126412834 ; 0.0
63 ; 22756.70616121544 ; 94163.97922029244 ; 954216.5481578788 ; 3981232.4374600817 ; 0.0
64 ; 23017.430684323273 ; 95439.80313668268 ; 976973.2543190942 ; 4075396.416680374 ; 0.0
65 ; 23124.582937098286 ; 96720.40072312708 ; 999990.6850034175 ; 4170836.219817057 ; 0.0
66 ; 23106.631226344995 ; 98005.48924669313 ; 1023115.2679405159 ; 4267556.620540184 ; 0.0
67 ; 23226.2671239763 ; 99294.79838011455 ; 1046221.8991668609 ; 4365562.109786877 ; 0.0
68 ; 23368.105844439557 ; 100588.06953377338 ; 1069448.166290837 ; 4464856.908166992 ; 0.0
69 ; 23366.270269924535 ; 101885.05522425515 ; 1092816.2721352766 ; 4565444.977700765 ; 0.0
70 ; 23454.7563739971 ; 103185.51847780967 ; 1116182.5424052011 ; 4667330.03292502 ; 0.0
71 ; 23403.172838133974 ; 104489.23226705087 ; 1139637.2987791982 ; 4770515.55140283 ; 0.0
72 ; 23539.826354376666 ; 105795.97897924918 ; 1163040.4716173322 ; 4875004.783669881 ; 0.0
73 ; 23676.43635792162 ; 107105.54991460308 ; 1186580.297971709 ; 4980800.76264913 ; 0.0
74 ; 23615.522300703033 ; 108417.74481291557 ; 1210256.7343296306 ; 5087906.312563733 ; 0.0
75 ; 23782.869090270462 ; 109732.37140715224 ; 1233872.2566303336 ; 5196324.057376649 ; 0.0
76 ; 23874.345728931065 ; 111049.24500241189 ; 1257655.125720604 ; 5306056.428783801 ; 0.0
77 ; 23842.82754325255 ; 112368.1880788977 ; 1281529.471449535 ; 5417105.673786214 ; 0.0
78 ; 23893.28429727364 ; 113689.02991753866 ; 1305372.2989927877 ; 5529473.861865112 ; 0.0
79 ; 23909.144494397322 ; 115011.60624696962 ; 1329265.5832900614 ; 5643162.891782651 ; 0.0
80 ; 23867.194209688594 ; 116335.75891064484 ; 1353174.7277844588 ; 5758174.49802962 ; 0.0
81 ; 24023.77792209347 ; 117661.33555291512 ; 1377041.9219941474 ; 5874510.256940265 ; 0.0
82 ; 23884.82261010486 ; 118988.1893229645 ; 1401065.6999162408 ; 5992171.59249318 ; 0.0
83 ; 24050.556588373172 ; 120316.17859555743 ; 1424950.5225263457 ; 6111159.7818161445 ; 0.0
84 ; 23893.60661682611 ; 121645.16670760655 ; 1449001.0791147188 ; 6231475.960411702 ; 0.0
85 ; 23875.705341210407 ; 122975.0217096258 ; 1472894.6857315449 ; 6353121.127119309 ; 0.0
86 ; 23819.626385484677 ; 124305.61613118634 ; 1496770.3910727552 ; 6476096.148828935 ; 0.0
87 ; 23803.828088010538 ; 125636.82675954404 ; 1520590.0174582398 ; 6600401.764960121 ; 0.0
88 ; 23752.279566370784 ; 126968.53443065539 ; 1544393.8455462502 ; 6726038.591719666 ; 0.0
89 ; 23818.213929002515 ; 128300.62383184554 ; 1568146.125112621 ; 6853007.126150321 ; 0.0
90 ; 23711.38779651589 ; 129632.98331543451 ; 1591964.3390416235 ; 6981307.749982167 ; 0.0
91 ; 23649.11613900567 ; 130965.50472267128 ; 1615675.7268381394 ; 7110940.733297601 ; 0.0
92 ; 23673.677631507 ; 132298.08321736343 ; 1639324.842977145 ; 7241906.238020273 ; 0.0
93 ; 23507.596458575354 ; 133630.6171286268 ; 1662998.520608652 ; 7374204.321237637 ; 0.0
94 ; 23670.788960970553 ; 134963.00780221607 ; 1686506.1170672274 ; 7507834.938366263 ; 0.0
95 ; 23285.61960424231 ; 136295.15945992945 ; 1710176.9060281978 ; 7642797.9461684795 ; 0.0
96 ; 23342.672554466717 ; 137626.9790666111 ; 1733462.52563244 ; 7779093.1056284085 ; 0.0
97 ; 23258.70574594452 ; 138958.37620430562 ; 1756805.1981869068 ; 7916720.08469502 ; 0.0
98 ; 23320.827980497084 ; 140289.26295314502 ; 1780063.9039328513 ; 8055678.460899325 ; 0.0
99 ; 23188.32711168941 ; 141619.5537785754 ; 1803384.7319133484 ; 8195967.7238524705 ; 0.0
100 ; 23175.346342420333 ; 142949.1654245541 ; 1826573.0590250378 ; 8337587.277631046 ; 0.0
101 ; 22944.347362601526 ; 144278.0168123715 ; 1849748.4053674582 ; 8480536.4430556 ; 0.0
102 ; 22835.36034875213 ; 145606.02894477194 ; 1872692.7527300597 ; 8624814.459867971 ; 0.0
103 ; 22835.179909259925 ; 146933.12481506955 ; 1895528.113078812 ; 8770420.488812743 ; 0.0
104 ; 22502.632852520037 ; 148259.22932097234 ; 1918363.292988072 ; 8917353.613627812 ; 0.0
105 ; 22442.72173942588 ; 149584.26918284592 ; 1940865.925840592 ; 9065612.842948785 ; 0.0
106 ; 22206.62429735259 ; 150908.17286616517 ; 1963308.6475800178 ; 9215197.112131631 ; 0.0
107 ; 22120.972102209525 ; 152230.8705079163 ; 1985515.2718773703 ; 9366105.284997797 ; 0.0
108 ; 21945.76848831443 ; 153552.29384672712 ; 2007636.2439795798 ; 9518336.155505713 ; 0.0
109 ; 21852.92814355671 ; 154872.37615651745 ; 2029582.0124678942 ; 9671888.44935244 ; 0.0
110 ; 21640.01315753878 ; 156191.0521834721 ; 2051434.940611451 ; 9826760.825508958 ; 0.0
111 ; 21548.523076741396 ; 157508.25808615307 ; 2073074.9537689898 ; 9982951.87769243 ; 0.0
112 ; 21328.279445043096 ; 158823.93137857734 ; 2094623.4768457313 ; 1.0140460135778582E7 ; 0.0
113 ; 21200.03859082311 ; 160138.01087609716 ; 2115951.7562907743 ; 1.0299284067157159E7 ; 0.0
114 ; 21005.503707884538 ; 161450.43664392986 ; 2137151.7948815976 ; 1.0459422078033255E7 ; 0.0
115 ; 20635.042261132716 ; 162761.1499481933 ; 2158157.298589482 ; 1.0620872514677186E7 ; 0.0
116 ; 20655.65326003796 ; 164070.09320931108 ; 2178792.3408506145 ; 1.0783633664625378E7 ; 0.0
117 ; 20319.50623170685 ; 165377.20995766015 ; 2199447.9941106522 ; 1.094770375783469E7 ; 0.0
118 ; 20132.136534848756 ; 166682.44479134082 ; 2219767.5003423593 ; 1.1113080967792349E7 ; 0.0
119 ; 19948.4796301616 ; 167985.74333595636 ; 2239899.636877208 ; 1.127976341258369E7 ; 0.0
120 ; 19750.185753125275 ; 169287.05220629525 ; 2259848.1165073696 ; 1.1447749155919647E7 ; 0.0
121 ; 19648.72360330615 ; 170586.31896981646 ; 2279598.302260495 ; 1.1617036208125941E7 ; 0.0
122 ; 19349.376847744243 ; 171883.49211184305 ; 2299247.025863801 ; 1.1787622527095757E7 ; 0.0
123 ; 19127.575643261276 ; 173178.52100237494 ; 2318596.4027115456 ; 1.19595060192076E7 ; 0.0
124 ; 18756.22294998783 ; 174471.3558644372 ; 2337723.978354807 ; 1.2132684540209975E7 ; 0.0
125 ; 18706.344861288533 ; 175761.94774388484 ; 2356480.2013047948 ; 1.2307155896074412E7 ; 0.0
126 ; 18416.436660326566 ; 177050.2484805888 ; 2375186.5461660833 ; 1.2482917843818298E7 ; 0.0
127 ; 18092.962318924503 ; 178336.21068093355 ; 2393602.98282641 ; 1.2659968092298886E7 ; 0.0
128 ; 17760.906622631595 ; 179619.78769155947 ; 2411695.9451453346 ; 1.283830430297982E7 ; 0.0
129 ; 17672.01374040128 ; 180900.93357428705 ; 2429456.851767966 ; 1.301792409067138E7 ; 0.0
130 ; 17264.16985431875 ; 182179.60308216396 ; 2447128.8655083673 ; 1.3198825024245666E7 ; 0.0
131 ; 16984.104741496238 ; 183455.75163657908 ; 2464393.035362686 ; 1.338100462732783E7 ; 0.0
132 ; 16539.17306940936 ; 184729.33530539 ; 2481377.140104182 ; 1.356446037896441E7 ; 0.0
133 ; 16383.91760051673 ; 186000.31078201512 ; 2497916.3131735916 ; 1.37491897142698E7 ; 0.0
134 ; 16032.622318676502 ; 187268.63536544153 ; 2514300.2307741083 ; 1.3935190025051815E7 ; 0.0
135 ; 15810.762700569154 ; 188534.26694110566 ; 2530332.853092785 ; 1.4122458660417257E7 ; 0.0
136 ; 15413.47135502488 ; 189797.16396260302 ; 2546143.6157933543 ; 1.4310992927358363E7 ; 0.0
137 ; 15213.391450050924 ; 191057.28543418797 ; 2561557.087148379 ; 1.4500790091320965E7 ; 0.0
138 ; 14821.923873441008 ; 192314.5908940249 ; 2576770.47859843 ; 1.4691847376755154E7 ; 0.0
139 ; 14524.944348182526 ; 193569.04039815563 ; 2591592.4024718706 ; 1.4884161967649179E7 ; 0.0
140 ; 14216.782063411645 ; 194820.59450514865 ; 2606117.346820053 ; 1.5077731008047335E7 ; 0.0
141 ; 13877.350406540836 ; 196069.21426139795 ; 2620334.1288834647 ; 1.5272551602552483E7 ; 0.0
142 ; 13430.51577355185 ; 197314.86118704145 ; 2634211.4792900058 ; 1.546862081681388E7 ; 0.0
143 ; 13103.200805730252 ; 198557.49726246964 ; 2647641.9950635578 ; 1.5665935678000921E7 ; 0.0
144 ; 12787.005613976638 ; 199797.0849153971 ; 2660745.195869288 ; 1.5864493175263392E7 ; 0.0
145 ; 12597.960956013962 ; 201033.58700847122 ; 2673532.2014832646 ; 1.606429026017879E7 ; 0.0
146 ; 12517.045463066352 ; 202266.9668273931 ; 2686130.1624392783 ; 1.626532384718726E7 ; 0.0
147 ; 12533.777270006227 ; 203497.18806952727 ; 2698647.207902345 ; 1.6467590814014653E7 ; 0.0
148 ; 12377.193225460063 ; 204724.21483297847 ; 2711180.985172351 ; 1.667108800208418E7 ; 0.0
149 ; 12246.317162072106 ; 205948.0116061138 ; 2723558.178397811 ; 1.687581221691716E7 ; 0.0
150 ; 12182.439946436029 ; 207168.54325751038 ; 2735804.4955598833 ; 1.7081760228523273E7 ; 0.0
151 ; 12015.235728500016 ; 208385.7750263098 ; 2747986.935506319 ; 1.7288928771780785E7 ; 0.0
152 ; 11805.973976058976 ; 209599.6725129611 ; 2760002.171234819 ; 1.7497314546807095E7 ; 0.0
153 ; 11857.231372399849 ; 210810.20167033465 ; 2771808.145210878 ; 1.7706914219320055E7 ; 0.0
154 ; 11610.35271661768 ; 212017.32879519154 ; 2783665.3765832777 ; 1.791772442099039E7 ; 0.0
155 ; 11524.584238870539 ; 213221.02051999196 ; 2795275.7292998955 ; 1.812974174978558E7 ; 0.0
156 ; 11444.521851026107 ; 214421.2438050284 ; 2806800.313538766 ; 1.834296277030557E7 ; 0.0
157 ; 11533.155746012371 ; 215617.9659308695 ; 2818244.835389792 ; 1.85573840141106E7 ; 0.0
158 ; 11267.021087522127 ; 216811.1544911008 ; 2829777.9911358044 ; 1.8773001980041467E7 ; 0.0
159 ; 11029.930081713992 ; 218000.77738535023 ; 2841045.0122233266 ; 1.8989813134532567E7 ; 0.0
160 ; 10960.061099105262 ; 219186.8028125859 ; 2852074.9423050405 ; 1.9207813911917917E7 ; 0.0
161 ; 10857.407030341132 ; 220369.19926467404 ; 2863035.0034041456 ; 1.9427000714730505E7 ; 0.0
162 ; 10720.79779164851 ; 221547.93552018778 ; 2873892.410434487 ; 1.964736991399518E7 ; 0.0
163 ; 10607.415977745919 ; 222722.98063845417 ; 2884613.2082261355 ; 1.9868917849515367E7 ; 0.0
164 ; 10455.159770330567 ; 223894.3039538306 ; 2895220.6242038812 ; 2.0091640830153823E7 ; 0.0
165 ; 10204.857371076927 ; 225061.8750702014 ; 2905675.7839742117 ; 2.0315535134107653E7 ; 0.0
166 ; 10326.628233554175 ; 226225.66385568463 ; 2915880.6413452886 ; 2.0540597009177856E7 ; 0.0
167 ; 9985.10885247777 ; 227385.64043754063 ; 2926207.269578843 ; 2.076682267303354E7 ; 0.0
168 ; 9917.995118376677 ; 228541.77519727475 ; 2936192.3784313207 ; 2.099420831347108E7 ; 0.0
169 ; 9843.577037948098 ; 229694.0387659251 ; 2946110.3735496975 ; 2.1222750088668354E7 ; 0.0
170 ; 9586.650984952412 ; 230842.40201952905 ; 2955953.9505876456 ; 2.145244412743428E7 ; 0.0
171 ; 9331.065056193696 ; 231986.83607476042 ; 2965540.601572598 ; 2.168328652945381E7 ; 0.0
172 ; 9305.366983472732 ; 233127.31228473102 ; 2974871.6666287915 ; 2.1915273365528572E7 ; 0.0
173 ; 9060.23728565951 ; 234263.8022349491 ; 2984177.0336122643 ; 2.2148400677813303E7 ; 0.0
174 ; 9114.930632037196 ; 235396.27773942993 ; 2993237.270897924 ; 2.238266448004825E7 ; 0.0
175 ; 9359.052649042125 ; 236524.71083695086 ; 3002352.201529961 ; 2.2618060757787682E7 ; 0.0
176 ; 9194.885402749445 ; 237649.0737874461 ; 3011711.254179003 ; 2.2854585468624633E7 ; 0.0
177 ; 9207.378969845891 ; 238769.3390685359 ; 3020906.1395817525 ; 2.309223454241208E7 ; 0.0
178 ; 9248.479528047495 ; 239885.47937218368 ; 3030113.5185515983 ; 2.3331003881480616E7 ; 0.0
179 ; 9388.18753196141 ; 240997.467601478 ; 3039361.998079646 ; 2.35708893608528E7 ; 0.0
180 ; 9490.779929726546 ; 242105.27686753246 ; 3048750.1856116075 ; 2.381188682845428E7 ; 0.0
181 ; 9381.107962864486 ; 243208.8804865003 ; 3058240.965541334 ; 2.405399210532181E7 ; 0.0
182 ; 9419.96111896587 ; 244308.25197669916 ; 3067622.0735041983 ; 2.429720098580831E7 ; 0.0
183 ; 9338.581808824483 ; 245403.36505584154 ; 3077042.034623164 ; 2.4541509237785008E7 ; 0.0
184 ; 9379.54898838427 ; 246494.1936383666 ; 3086380.616431989 ; 2.478691260284085E7 ; 0.0
185 ; 9702.915631568449 ; 247580.71183286994 ; 3095760.165420373 ; 2.5033406796479214E7 ; 0.0
186 ; 9516.992845461878 ; 248662.89393962803 ; 3105463.0810519415 ; 2.5280987508312084E7 ; 0.0
187 ; 9550.369824902693 ; 249740.71444821244 ; 3114980.073897403 ; 2.5529650402251713E7 ; 0.0
188 ; 9640.166770336133 ; 250814.1480351916 ; 3124530.443722306 ; 2.5779391116699927E7 ; 0.0
189 ; 9512.219942859989 ; 251883.16956191682 ; 3134170.610492642 ; 2.6030205264735118E7 ; 0.0
190 ; 9493.168575147298 ; 252947.75407238843 ; 3143682.830435502 ; 2.6282088434297033E7 ; 0.0
191 ; 9606.871590158602 ; 254007.87679120048 ; 3153175.999010649 ; 2.653503618836942E7 ; 0.0
192 ; 9781.61973816545 ; 255063.5131215596 ; 3162782.8706008075 ; 2.678904406516062E7 ; 0.0
193 ; 9625.068307981866 ; 256114.6386433767 ; 3172564.490338973 ; 2.704410757828218E7 ; 0.0
194 ; 9861.086536679626 ; 257161.22911142788 ; 3182189.5586469546 ; 2.7300222216925558E7 ; 0.0
195 ; 9809.068935065643 ; 258203.26045358222 ; 3192050.645183634 ; 2.7557383446036987E7 ; 0.0
196 ; 9721.93070044772 ; 259240.7087690945 ; 3201859.7141186995 ; 2.781558670649057E7 ; 0.0
197 ; 9880.130108748086 ; 260273.55032695964 ; 3211581.6448191474 ; 2.8074827415259663E7 ; 0.0
198 ; 9774.60983161275 ; 261301.76156432755 ; 3221461.7749278955 ; 2.833510096558662E7 ; 0.0
199 ; 9937.276063506384 ; 262325.3190849756 ; 3231236.384759508 ; 2.859640272715095E7 ; 0.0
200 ; 10026.232366406039 ; 263344.1996578366 ; 3241173.6608230146 ; 2.8858728046235926E7 ; 0.0
201 ; 9862.606068948717 ; 264358.38021558075 ; 3251199.8931894205 ; 2.912207224589376E7 ; 0.0
202 ; 9958.393726129783 ; 265367.83785324974 ; 3261062.499258369 ; 2.9386430626109343E7 ; 0.0
203 ; 10049.72454331458 ; 266372.5498269399 ; 3271020.892984499 ; 2.9651798463962592E7 ; 0.0
204 ; 10027.473632482634 ; 267372.4935525343 ; 3281070.6175278137 ; 2.991817101378953E7 ; 0.0
205 ; 10217.227728127773 ; 268367.6466044814 ; 3291098.0911602965 ; 3.0185543507342067E7 ; 0.0
206 ; 10041.906164917453 ; 269357.9867146177 ; 3301315.3188884244 ; 3.045391115394655E7 ; 0.0
207 ; 10092.132766081142 ; 270343.49177103495 ; 3311357.225053342 ; 3.0723269140661165E7 ; 0.0
208 ; 10267.119934815217 ; 271324.13981698814 ; 3321449.357819423 ; 3.09936126324322E7 ; 0.0
209 ; 10266.807799854656 ; 272299.90904984385 ; 3331716.4777542385 ; 3.126493677224919E7 ; 0.0
210 ; 10194.290303281268 ; 273270.77782006835 ; 3341983.2855540933 ; 3.153723668129903E7 ; 0.0
211 ; 10405.368131167772 ; 274236.7246302521 ; 3352177.5758573744 ; 3.18105074591191E7 ; 0.0
212 ; 10301.612764613596 ; 275197.72813417146 ; 3362582.943988542 ; 3.208474418374935E7 ; 0.0
