CSV File for the City 2 on Day 166
1 - Minute m 
2 - Power Consumed at minute m 
3 - Power Produced at minute m 
4 - Energy Consumed since the beginning of the day 
5 - Energy Produced since the beginning of the day 
6 - Energy Lost since the beginning of the day on lines starting from the city
 
0 ; 6373.537794325937 ; 31216.895335391113 ; 0.0 ; 0.0 ; 0.0
1 ; 6818.340654382508 ; 31216.895335391113 ; 6373.537794325937 ; 31216.895335391113 ; 0.0
2 ; 7257.953248714315 ; 31216.895335391113 ; 13191.878448708445 ; 62433.790670782226 ; 0.0
3 ; 7677.836777385841 ; 31216.895335391113 ; 20449.83169742276 ; 93650.68600617335 ; 0.0
4 ; 8258.236309350965 ; 31216.895335391113 ; 28127.6684748086 ; 124867.58134156445 ; 0.0
5 ; 8580.606209942147 ; 31216.895335391113 ; 36385.90478415957 ; 156084.47667695556 ; 0.0
6 ; 8956.484779229588 ; 31216.895335391113 ; 44966.510994101714 ; 187301.37201234666 ; 0.0
7 ; 9468.817017466336 ; 31216.895335391113 ; 53922.995773331306 ; 218518.26734773777 ; 0.0
8 ; 9738.037759329127 ; 31216.895335391113 ; 63391.812790797645 ; 249735.16268312887 ; 0.0
9 ; 10205.780066503274 ; 31216.895335391113 ; 73129.85055012678 ; 280952.05801852 ; 0.0
10 ; 10684.518123184569 ; 31216.895335391113 ; 83335.63061663005 ; 312168.9533539111 ; 0.0
11 ; 11085.91199437836 ; 31216.895335391113 ; 94020.14873981461 ; 343385.8486893022 ; 0.0
12 ; 11343.654487249612 ; 31216.895335391113 ; 105106.06073419297 ; 374602.7440246933 ; 0.0
13 ; 11734.171159721354 ; 31216.895335391113 ; 116449.71522144259 ; 405819.63936008443 ; 0.0
14 ; 12342.124229778576 ; 31216.895335391113 ; 128183.88638116395 ; 437036.53469547554 ; 0.0
15 ; 12722.721636257145 ; 31216.895335391113 ; 140526.01061094253 ; 468253.43003086664 ; 0.0
16 ; 12992.727582145242 ; 31216.895335391113 ; 153248.73224719966 ; 499470.32536625775 ; 0.0
17 ; 13238.773523832935 ; 31216.895335391113 ; 166241.4598293449 ; 530687.2207016489 ; 0.0
18 ; 13642.430809199788 ; 31216.895335391113 ; 179480.23335317784 ; 561904.11603704 ; 0.0
19 ; 13909.093600783975 ; 31216.895335391113 ; 193122.66416237762 ; 593121.0113724312 ; 0.0
20 ; 14415.049805206036 ; 31216.895335391113 ; 207031.7577631616 ; 624337.9067078223 ; 0.0
21 ; 14795.995057103144 ; 31216.895335391113 ; 221446.80756836763 ; 655554.8020432135 ; 0.0
22 ; 15065.598628311312 ; 31216.895335391113 ; 236242.80262547077 ; 686771.6973786047 ; 0.0
23 ; 15384.790005798886 ; 31216.895335391113 ; 251308.40125378207 ; 717988.5927139958 ; 0.0
24 ; 15784.815046287533 ; 31216.895335391113 ; 266693.19125958096 ; 749205.488049387 ; 0.0
25 ; 15851.145350518762 ; 31216.895335391113 ; 282478.0063058685 ; 780422.3833847782 ; 0.0
26 ; 16266.505799963248 ; 31216.895335391113 ; 298329.15165638726 ; 811639.2787201693 ; 0.0
27 ; 16818.59446053603 ; 31216.895335391113 ; 314595.6574563505 ; 842856.1740555605 ; 0.0
28 ; 16961.56326309761 ; 31216.895335391113 ; 331414.25191688654 ; 874073.0693909517 ; 0.0
29 ; 17102.987891019482 ; 31216.895335391113 ; 348375.81517998414 ; 905289.9647263428 ; 0.0
30 ; 17653.718115533844 ; 31216.895335391113 ; 365478.80307100364 ; 936506.860061734 ; 0.0
31 ; 18039.505722040754 ; 31216.895335391113 ; 383132.52118653746 ; 967723.7553971251 ; 0.0
32 ; 18340.30882090827 ; 31216.895335391113 ; 401172.02690857823 ; 998940.6507325163 ; 0.0
33 ; 18545.361366660924 ; 31216.895335391113 ; 419512.3357294865 ; 1030157.5460679075 ; 0.0
34 ; 18727.424031129143 ; 31216.895335391113 ; 438057.6970961474 ; 1061374.4414032986 ; 0.0
35 ; 18919.89260482534 ; 31216.895335391113 ; 456785.12112727656 ; 1092591.3367386898 ; 0.0
36 ; 19235.429728440733 ; 31216.895335391113 ; 475705.0137321019 ; 1123808.232074081 ; 0.0
37 ; 19447.036186439032 ; 31216.895335391113 ; 494940.4434605426 ; 1155025.1274094721 ; 0.0
38 ; 19730.380717332675 ; 31216.895335391113 ; 514387.47964698164 ; 1186242.0227448633 ; 0.0
39 ; 19946.170298056393 ; 31216.895335391113 ; 534117.8603643143 ; 1217458.9180802545 ; 0.0
40 ; 20141.919159452566 ; 31216.895335391113 ; 554064.0306623707 ; 1248675.8134156456 ; 0.0
41 ; 20374.723441311646 ; 31216.895335391113 ; 574205.9498218233 ; 1279892.7087510368 ; 0.0
42 ; 20727.295990731443 ; 31216.895335391113 ; 594580.6732631349 ; 1311109.604086428 ; 0.0
43 ; 20916.803475791905 ; 31216.895335391113 ; 615307.9692538664 ; 1342326.499421819 ; 0.0
44 ; 21031.959292427564 ; 31216.895335391113 ; 636224.7727296583 ; 1373543.3947572103 ; 0.0
45 ; 21308.198769206258 ; 31216.895335391113 ; 657256.7320220858 ; 1404760.2900926014 ; 0.0
46 ; 21577.6148736843 ; 31216.895335391113 ; 678564.9307912921 ; 1435977.1854279926 ; 0.0
47 ; 21671.521485325775 ; 31216.895335391113 ; 700142.5456649764 ; 1467194.0807633838 ; 0.0
48 ; 21944.68577425115 ; 31216.895335391113 ; 721814.0671503021 ; 1498410.976098775 ; 0.0
49 ; 21976.86492994048 ; 31216.895335391113 ; 743758.7529245532 ; 1529627.871434166 ; 0.0
50 ; 22251.619142413438 ; 31216.895335391113 ; 765735.6178544937 ; 1560844.7667695573 ; 0.0
51 ; 22517.773650146482 ; 31216.895335391113 ; 787987.2369969072 ; 1592061.6621049484 ; 0.0
52 ; 22619.481709142998 ; 31216.895335391113 ; 810505.0106470536 ; 1623278.5574403396 ; 0.0
53 ; 22817.500801038037 ; 31216.895335391113 ; 833124.4923561966 ; 1654495.4527757308 ; 0.0
54 ; 23096.250072898423 ; 31216.895335391113 ; 855941.9931572346 ; 1685712.348111122 ; 0.0
55 ; 23084.657685643575 ; 31216.895335391113 ; 879038.2432301331 ; 1716929.243446513 ; 0.0
56 ; 23341.17363465998 ; 31216.895335391113 ; 902122.9009157766 ; 1748146.1387819042 ; 0.0
57 ; 23471.460624642445 ; 31216.895335391113 ; 925464.0745504366 ; 1779363.0341172954 ; 0.0
58 ; 23654.747929546622 ; 31216.895335391113 ; 948935.535175079 ; 1810579.9294526866 ; 0.0
59 ; 23816.5880405101 ; 31216.895335391113 ; 972590.2831046256 ; 1841796.8247880777 ; 0.0
60 ; 23671.069027580008 ; 31216.895335391113 ; 996406.8711451357 ; 1873013.720123469 ; 0.0
61 ; 23810.633997148925 ; 31216.895335391113 ; 1020077.9401727157 ; 1904230.61545886 ; 0.0
62 ; 23917.93580305299 ; 31216.895335391113 ; 1043888.5741698646 ; 1935447.5107942512 ; 0.0
63 ; 24005.15277267891 ; 31216.895335391113 ; 1067806.5099729176 ; 1966664.4061296424 ; 0.0
64 ; 24119.21633647906 ; 31216.895335391113 ; 1091811.6627455966 ; 1997881.3014650336 ; 0.0
65 ; 24419.322170220657 ; 31216.895335391113 ; 1115930.8790820758 ; 2029098.1968004247 ; 0.0
66 ; 24431.700883088884 ; 31216.895335391113 ; 1140350.2012522963 ; 2060315.0921358159 ; 0.0
67 ; 24584.290562435002 ; 31216.895335391113 ; 1164781.9021353852 ; 2091531.987471207 ; 0.0
68 ; 24554.585310156974 ; 31216.895335391113 ; 1189366.1926978203 ; 2122748.882806598 ; 0.0
69 ; 24590.64749303379 ; 31216.895335391113 ; 1213920.7780079772 ; 2153965.7781419894 ; 0.0
70 ; 24632.678405792634 ; 31216.895335391113 ; 1238511.425501011 ; 2185182.6734773805 ; 0.0
71 ; 24598.09810392568 ; 31216.895335391113 ; 1263144.1039068038 ; 2216399.5688127717 ; 0.0
72 ; 24895.899046263763 ; 31216.895335391113 ; 1287742.2020107294 ; 2247616.464148163 ; 0.0
73 ; 24819.712025303263 ; 31216.895335391113 ; 1312638.101056993 ; 2278833.359483554 ; 0.0
74 ; 25051.596539317154 ; 31216.895335391113 ; 1337457.8130822962 ; 2310050.254818945 ; 0.0
75 ; 25051.896255164756 ; 31216.895335391113 ; 1362509.4096216133 ; 2341267.1501543364 ; 0.0
76 ; 25094.762351292815 ; 31216.895335391113 ; 1387561.305876778 ; 2372484.0454897275 ; 0.0
77 ; 25175.791170944172 ; 31216.895335391113 ; 1412656.0682280709 ; 2403700.9408251187 ; 0.0
78 ; 25263.367695386154 ; 31216.895335391113 ; 1437831.859399015 ; 2434917.83616051 ; 0.0
79 ; 25059.741247668077 ; 31216.895335391113 ; 1463095.2270944011 ; 2466134.731495901 ; 0.0
80 ; 25241.069354991832 ; 31216.895335391113 ; 1488154.9683420693 ; 2497351.626831292 ; 0.0
81 ; 25232.157418185365 ; 31216.895335391113 ; 1513396.0376970612 ; 2528568.5221666833 ; 0.0
82 ; 25075.315249542266 ; 31216.895335391113 ; 1538628.1951152466 ; 2559785.4175020745 ; 0.0
83 ; 25145.611225095563 ; 31216.895335391113 ; 1563703.5103647888 ; 2591002.3128374657 ; 0.0
84 ; 25153.422961465934 ; 31216.895335391113 ; 1588849.1215898844 ; 2622219.208172857 ; 0.0
85 ; 25047.803216157172 ; 31216.895335391113 ; 1614002.5445513504 ; 2653436.103508248 ; 0.0
86 ; 24982.99949735413 ; 31216.895335391113 ; 1639050.3477675077 ; 2684652.998843639 ; 0.0
87 ; 25169.33685805314 ; 31216.895335391113 ; 1664033.3472648617 ; 2715869.8941790303 ; 0.0
88 ; 25037.65351183605 ; 31216.895335391113 ; 1689202.684122915 ; 2747086.7895144215 ; 0.0
89 ; 25042.489288284967 ; 31216.895335391113 ; 1714240.3376347509 ; 2778303.6848498126 ; 0.0
90 ; 24881.385422187766 ; 31216.895335391113 ; 1739282.8269230358 ; 2809520.580185204 ; 0.0
91 ; 24859.669720268826 ; 31216.895335391113 ; 1764164.2123452236 ; 2840737.475520595 ; 0.0
92 ; 24748.92247208968 ; 31216.895335391113 ; 1789023.8820654924 ; 2871954.370855986 ; 0.0
93 ; 24758.544296150725 ; 31216.895335391113 ; 1813772.8045375822 ; 2903171.2661913773 ; 0.0
94 ; 24595.722102075135 ; 31216.895335391113 ; 1838531.348833733 ; 2934388.1615267685 ; 0.0
95 ; 24712.212111250767 ; 31216.895335391113 ; 1863127.0709358081 ; 2965605.0568621596 ; 0.0
96 ; 24551.055364413187 ; 31216.895335391113 ; 1887839.2830470589 ; 2996821.952197551 ; 0.0
97 ; 24643.952889908505 ; 31216.895335391113 ; 1912390.338411472 ; 3028038.847532942 ; 0.0
98 ; 24493.19280700459 ; 31216.895335391113 ; 1937034.2913013806 ; 3059255.742868333 ; 0.0
99 ; 24361.82459696408 ; 31216.895335391113 ; 1961527.4841083852 ; 3090472.6382037243 ; 0.0
100 ; 24258.96868050138 ; 31216.895335391113 ; 1985889.3087053492 ; 3121689.5335391155 ; 0.0
101 ; 24148.443310876803 ; 31216.895335391113 ; 2010148.2773858507 ; 3152906.4288745066 ; 0.0
102 ; 24096.646933231415 ; 31216.895335391113 ; 2034296.7206967275 ; 3184123.324209898 ; 0.0
103 ; 23781.582547618673 ; 31216.895335391113 ; 2058393.367629959 ; 3215340.219545289 ; 0.0
104 ; 23654.83878966848 ; 31216.895335391113 ; 2082174.9501775778 ; 3246557.11488068 ; 0.0
105 ; 23476.021711675705 ; 31216.895335391113 ; 2105829.788967246 ; 3277774.0102160713 ; 0.0
106 ; 23583.539268135442 ; 31216.895335391113 ; 2129305.810678922 ; 3308990.9055514624 ; 0.0
107 ; 23302.870768439832 ; 31216.895335391113 ; 2152889.3499470577 ; 3340207.8008868536 ; 0.0
108 ; 23156.006577158005 ; 31216.895335391113 ; 2176192.2207154976 ; 3371424.6962222448 ; 0.0
109 ; 23014.699511771378 ; 31216.895335391113 ; 2199348.2272926555 ; 3402641.591557636 ; 0.0
110 ; 23159.079185447685 ; 31216.895335391113 ; 2222362.926804427 ; 3433858.486893027 ; 0.0
111 ; 22900.785001990946 ; 31216.895335391113 ; 2245522.0059898747 ; 3465075.3822284183 ; 0.0
112 ; 22612.51970708932 ; 31216.895335391113 ; 2268422.7909918656 ; 3496292.2775638094 ; 0.0
113 ; 22518.521076509587 ; 31216.895335391113 ; 2291035.310698955 ; 3527509.1728992006 ; 0.0
114 ; 22113.031643920196 ; 31216.895335391113 ; 2313553.8317754646 ; 3558726.0682345917 ; 0.0
115 ; 22167.65211966489 ; 31216.895335391113 ; 2335666.8634193847 ; 3589942.963569983 ; 0.0
116 ; 21915.18517328487 ; 31216.895335391113 ; 2357834.5155390496 ; 3621159.858905374 ; 0.0
117 ; 21742.423254258305 ; 31216.895335391113 ; 2379749.7007123344 ; 3652376.7542407652 ; 0.0
118 ; 21427.11387210889 ; 31216.895335391113 ; 2401492.123966593 ; 3683593.6495761564 ; 0.0
119 ; 21371.185478482697 ; 31216.895335391113 ; 2422919.237838702 ; 3714810.5449115476 ; 0.0
120 ; 21031.53786696736 ; 31216.895335391113 ; 2444290.4233171847 ; 3746027.4402469387 ; 0.0
121 ; 20820.944210831185 ; 31216.895335391113 ; 2465321.961184152 ; 3777244.33558233 ; 0.0
122 ; 20543.99625300693 ; 31216.895335391113 ; 2486142.905394983 ; 3808461.230917721 ; 0.0
123 ; 20277.559784542893 ; 31216.895335391113 ; 2506686.90164799 ; 3839678.126253112 ; 0.0
124 ; 20054.726820102325 ; 31216.895335391113 ; 2526964.461432533 ; 3870895.0215885034 ; 0.0
125 ; 20114.84817105642 ; 31216.895335391113 ; 2547019.1882526353 ; 3902111.9169238945 ; 0.0
126 ; 19753.042503075754 ; 31216.895335391113 ; 2567134.0364236915 ; 3933328.8122592857 ; 0.0
127 ; 19497.51976195794 ; 31216.895335391113 ; 2586887.078926767 ; 3964545.707594677 ; 0.0
128 ; 19230.978726033114 ; 31216.895335391113 ; 2606384.5986887254 ; 3995762.602930068 ; 0.0
129 ; 19095.34373373747 ; 31216.895335391113 ; 2625615.5774147585 ; 4026979.498265459 ; 0.0
130 ; 18727.114141083533 ; 31216.895335391113 ; 2644710.9211484957 ; 4058196.3936008504 ; 0.0
131 ; 18396.529519450065 ; 31216.895335391113 ; 2663438.035289579 ; 4089413.2889362415 ; 0.0
132 ; 18201.01927740431 ; 31216.895335391113 ; 2681834.564809029 ; 4120630.1842716327 ; 0.0
133 ; 17858.24754085125 ; 31216.895335391113 ; 2700035.5840864335 ; 4151847.079607024 ; 0.0
134 ; 17578.515770184586 ; 31216.895335391113 ; 2717893.8316272846 ; 4183063.974942415 ; 0.0
135 ; 17260.924573103268 ; 31216.895335391113 ; 2735472.3473974694 ; 4214280.870277806 ; 0.0
136 ; 16938.615839089634 ; 31216.895335391113 ; 2752733.271970573 ; 4245497.765613197 ; 0.0
137 ; 16571.181114706567 ; 31216.895335391113 ; 2769671.8878096626 ; 4276714.6609485885 ; 0.0
138 ; 16427.972497521314 ; 31216.895335391113 ; 2786243.0689243693 ; 4307931.55628398 ; 0.0
139 ; 16071.546107288821 ; 31216.895335391113 ; 2802671.0414218907 ; 4339148.451619371 ; 0.0
140 ; 15632.75092411126 ; 31216.895335391113 ; 2818742.5875291796 ; 4370365.346954762 ; 0.0
141 ; 15415.687713751346 ; 31216.895335391113 ; 2834375.338453291 ; 4401582.242290153 ; 0.0
142 ; 14973.907518848922 ; 31216.895335391113 ; 2849791.0261670426 ; 4432799.137625544 ; 0.0
143 ; 14774.417102319101 ; 31216.895335391113 ; 2864764.9336858913 ; 4464016.0329609355 ; 0.0
144 ; 14205.34390582558 ; 31216.895335391113 ; 2879539.3507882105 ; 4495232.928296327 ; 0.0
145 ; 14294.104073334438 ; 31216.895335391113 ; 2893744.694694036 ; 4526449.823631718 ; 0.0
146 ; 14070.91268634895 ; 31216.895335391113 ; 2908038.7987673706 ; 4557666.718967109 ; 0.0
147 ; 14313.957571261155 ; 31216.895335391113 ; 2922109.7114537195 ; 4588883.6143025 ; 0.0
148 ; 14101.825849718123 ; 31216.895335391113 ; 2936423.6690249806 ; 4620100.509637891 ; 0.0
149 ; 13938.30090166909 ; 31216.895335391113 ; 2950525.4948746986 ; 4651317.4049732825 ; 0.0
150 ; 13872.01937412899 ; 31216.895335391113 ; 2964463.7957763677 ; 4682534.300308674 ; 0.0
151 ; 13677.930833004702 ; 31216.895335391113 ; 2978335.8151504965 ; 4713751.195644065 ; 0.0
152 ; 13541.090732276129 ; 31216.895335391113 ; 2992013.7459835014 ; 4744968.090979456 ; 0.0
153 ; 13593.623597572298 ; 31216.895335391113 ; 3005554.8367157774 ; 4776184.986314847 ; 0.0
154 ; 13507.961584223074 ; 31216.895335391113 ; 3019148.4603133495 ; 4807401.881650238 ; 0.0
155 ; 13373.131287960921 ; 31216.895335391113 ; 3032656.4218975725 ; 4838618.776985629 ; 0.0
156 ; 13221.267128773703 ; 31216.895335391113 ; 3046029.5531855333 ; 4869835.672321021 ; 0.0
157 ; 13079.89246987436 ; 31216.895335391113 ; 3059250.8203143068 ; 4901052.567656412 ; 0.0
158 ; 13032.978789694975 ; 31216.895335391113 ; 3072330.7127841813 ; 4932269.462991803 ; 0.0
159 ; 12808.72881116866 ; 31216.895335391113 ; 3085363.6915738764 ; 4963486.358327194 ; 0.0
160 ; 12720.928140883847 ; 31216.895335391113 ; 3098172.420385045 ; 4994703.253662585 ; 0.0
161 ; 12508.56408782035 ; 31216.895335391113 ; 3110893.348525929 ; 5025920.148997976 ; 0.0
162 ; 12398.045766657197 ; 31216.895335391113 ; 3123401.912613749 ; 5057137.044333368 ; 0.0
163 ; 12161.15105745788 ; 31216.895335391113 ; 3135799.9583804063 ; 5088353.939668759 ; 0.0
164 ; 12304.479757701447 ; 31216.895335391113 ; 3147961.1094378643 ; 5119570.83500415 ; 0.0
165 ; 11929.599832145708 ; 31216.895335391113 ; 3160265.589195566 ; 5150787.730339541 ; 0.0
166 ; 12014.06648969664 ; 31216.895335391113 ; 3172195.1890277113 ; 5182004.625674932 ; 0.0
167 ; 11624.12233339282 ; 31216.895335391113 ; 3184209.255517408 ; 5213221.521010323 ; 0.0
168 ; 11482.175051686505 ; 31216.895335391113 ; 3195833.3778508008 ; 5244438.416345715 ; 0.0
169 ; 11468.57918498305 ; 31216.895335391113 ; 3207315.552902487 ; 5275655.311681106 ; 0.0
170 ; 11260.049760598482 ; 31216.895335391113 ; 3218784.13208747 ; 5306872.207016497 ; 0.0
171 ; 11118.653967446293 ; 31216.895335391113 ; 3230044.1818480687 ; 5338089.102351888 ; 0.0
172 ; 11000.279059926816 ; 31216.895335391113 ; 3241162.835815515 ; 5369305.997687279 ; 0.0
173 ; 10796.085438754644 ; 31216.895335391113 ; 3252163.114875442 ; 5400522.89302267 ; 0.0
174 ; 10870.353627915989 ; 31216.895335391113 ; 3262959.2003141968 ; 5431739.788358062 ; 0.0
175 ; 10983.616212058569 ; 31216.895335391113 ; 3273829.5539421127 ; 5462956.683693453 ; 0.0
176 ; 10925.946482087176 ; 31216.895335391113 ; 3284813.170154171 ; 5494173.579028844 ; 0.0
177 ; 10933.92886543691 ; 31216.895335391113 ; 3295739.116636258 ; 5525390.474364235 ; 0.0
178 ; 10850.169484366119 ; 31216.895335391113 ; 3306673.045501695 ; 5556607.369699626 ; 0.0
179 ; 10964.591250326475 ; 31216.895335391113 ; 3317523.214986061 ; 5587824.265035017 ; 0.0
180 ; 10975.482624517948 ; 31216.895335391113 ; 3328487.8062363877 ; 5619041.160370409 ; 0.0
181 ; 10973.483074039525 ; 31216.895335391113 ; 3339463.2888609054 ; 5650258.0557058 ; 0.0
182 ; 11164.255849253135 ; 31216.895335391113 ; 3350436.771934945 ; 5681474.951041191 ; 0.0
183 ; 10975.879547630484 ; 31216.895335391113 ; 3361601.027784198 ; 5712691.846376582 ; 0.0
184 ; 11217.63977230547 ; 31216.895335391113 ; 3372576.9073318285 ; 5743908.741711973 ; 0.0
185 ; 11146.446765673649 ; 31216.895335391113 ; 3383794.5471041338 ; 5775125.637047364 ; 0.0
186 ; 11130.461929207097 ; 31216.895335391113 ; 3394940.9938698076 ; 5806342.532382756 ; 0.0
187 ; 11320.744510599608 ; 31216.895335391113 ; 3406071.455799015 ; 5837559.427718147 ; 0.0
188 ; 11313.611125762049 ; 31216.895335391113 ; 3417392.200309614 ; 5868776.323053538 ; 0.0
189 ; 11246.94513980084 ; 31216.895335391113 ; 3428705.8114353763 ; 5899993.218388929 ; 0.0
190 ; 11437.480042791056 ; 31216.895335391113 ; 3439952.756575177 ; 5931210.11372432 ; 0.0
191 ; 11338.852949947444 ; 31216.895335391113 ; 3451390.236617968 ; 5962427.009059711 ; 0.0
192 ; 11419.938538296985 ; 31216.895335391113 ; 3462729.0895679155 ; 5993643.9043951025 ; 0.0
193 ; 11495.559784465586 ; 31216.895335391113 ; 3474149.0281062126 ; 6024860.799730494 ; 0.0
194 ; 11501.502137341353 ; 31216.895335391113 ; 3485644.587890678 ; 6056077.695065885 ; 0.0
195 ; 11555.893175331074 ; 31216.895335391113 ; 3497146.0900280196 ; 6087294.590401276 ; 0.0
196 ; 11451.044406787174 ; 31216.895335391113 ; 3508701.9832033506 ; 6118511.485736667 ; 0.0
197 ; 11281.722730287676 ; 31216.895335391113 ; 3520153.0276101376 ; 6149728.381072058 ; 0.0
198 ; 11568.699860709827 ; 31216.895335391113 ; 3531434.7503404254 ; 6180945.2764074495 ; 0.0
199 ; 11418.169602704564 ; 31216.895335391113 ; 3543003.450201135 ; 6212162.171742841 ; 0.0
200 ; 11342.904172154325 ; 31216.895335391113 ; 3554421.61980384 ; 6243379.067078232 ; 0.0
201 ; 11361.450483567945 ; 31216.895335391113 ; 3565764.523975994 ; 6274595.962413623 ; 0.0
202 ; 11584.220145596191 ; 31216.895335391113 ; 3577125.974459562 ; 6305812.857749014 ; 0.0
203 ; 11609.324107246772 ; 31216.895335391113 ; 3588710.194605158 ; 6337029.753084405 ; 0.0
204 ; 11504.723950207848 ; 31216.895335391113 ; 3600319.518712405 ; 6368246.6484197965 ; 0.0
205 ; 11563.89166686658 ; 31216.895335391113 ; 3611824.242662613 ; 6399463.543755188 ; 0.0
206 ; 11713.313324396478 ; 31216.895335391113 ; 3623388.134329479 ; 6430680.439090579 ; 0.0
207 ; 11653.245267131637 ; 31216.895335391113 ; 3635101.4476538757 ; 6461897.33442597 ; 0.0
208 ; 11643.945886833124 ; 31216.895335391113 ; 3646754.6929210075 ; 6493114.229761361 ; 0.0
209 ; 11706.73369459759 ; 31216.895335391113 ; 3658398.6388078406 ; 6524331.125096752 ; 0.0
210 ; 11910.133240042196 ; 31216.895335391113 ; 3670105.3725024383 ; 6555548.0204321435 ; 0.0
211 ; 11918.903518848134 ; 31216.895335391113 ; 3682015.5057424805 ; 6586764.915767535 ; 0.0
212 ; 11929.740234909983 ; 31216.895335391113 ; 3693934.4092613286 ; 6617981.811102926 ; 0.0
213 ; 11793.909616494882 ; 31216.895335391113 ; 3705864.1494962387 ; 6649198.706438317 ; 0.0
