CSV File for the City 1 on Day 216
1 - Minute m 
2 - Power Consumed at minute m 
3 - Power Produced at minute m 
4 - Energy Consumed since the beginning of the day 
5 - Energy Produced since the beginning of the day 
6 - Energy Lost since the beginning of the day on lines starting from the city
 
0 ; 5077.315718210418 ; 3128.226524963411 ; 0.0 ; 0.0 ; 0.0
1 ; 5965.774491248713 ; 3128.226524963411 ; 5077.315718210418 ; 3128.226524963411 ; 238.00000000000003
2 ; 6562.003471225216 ; 3128.226524963411 ; 11043.090209459131 ; 6256.453049926822 ; 476.00000000000006
3 ; 7088.914225413295 ; 3128.226524963411 ; 17605.093680684346 ; 9384.679574890233 ; 714.0000000000001
4 ; 7893.455011183138 ; 3128.226524963411 ; 24694.007906097642 ; 12512.906099853644 ; 952.0000000000001
5 ; 8389.304777726979 ; 3128.226524963411 ; 32587.46291728078 ; 15641.132624817055 ; 1190.0000000000002
6 ; 9136.446669561343 ; 3128.226524963411 ; 40976.76769500776 ; 18769.359149780466 ; 1428.0000000000002
7 ; 9590.13900300594 ; 3128.226524963411 ; 50113.2143645691 ; 21897.585674743877 ; 1666.0000000000002
8 ; 10103.712804248295 ; 3128.226524963411 ; 59703.353367575044 ; 25025.81219970729 ; 1904.0000000000002
9 ; 10846.902615804103 ; 3128.226524963411 ; 69807.06617182333 ; 28154.0387246707 ; 2142.0000000000005
10 ; 11406.177848315807 ; 3128.226524963411 ; 80653.96878762744 ; 31282.26524963411 ; 2380.0000000000005
11 ; 12071.37675722702 ; 3128.226524963411 ; 92060.14663594325 ; 34410.491774597525 ; 2618.0000000000005
12 ; 12607.394590007767 ; 3128.226524963411 ; 104131.52339317027 ; 37538.71829956093 ; 2856.0000000000005
13 ; 13165.793276102075 ; 3128.226524963411 ; 116738.91798317803 ; 40666.94482452434 ; 3094.0000000000005
14 ; 13655.485206387877 ; 3128.226524963411 ; 129904.71125928011 ; 43795.17134948775 ; 3332.0000000000005
15 ; 14178.290947226462 ; 3128.226524963411 ; 143560.19646566798 ; 46923.397874451155 ; 3570.0000000000005
16 ; 14867.525831623598 ; 3128.226524963411 ; 157738.48741289444 ; 50051.62439941456 ; 3808.0000000000005
17 ; 15415.902914398868 ; 3128.226524963411 ; 172606.01324451802 ; 53179.85092437797 ; 4046.0000000000005
18 ; 16002.329657358463 ; 3128.226524963411 ; 188021.9161589169 ; 56308.07744934138 ; 4284.000000000001
19 ; 16377.674935189532 ; 3128.226524963411 ; 204024.24581627536 ; 59436.303974304785 ; 4522.000000000001
20 ; 16906.08335404252 ; 3128.226524963411 ; 220401.9207514649 ; 62564.53049926819 ; 4760.000000000001
21 ; 17474.129693740993 ; 3128.226524963411 ; 237308.00410550743 ; 65692.7570242316 ; 4998.000000000001
22 ; 17881.00740180959 ; 3128.226524963411 ; 254782.13379924843 ; 68820.983549195 ; 5236.000000000001
23 ; 18618.690714524273 ; 3128.226524963411 ; 272663.14120105805 ; 71949.21007415841 ; 5474.000000000001
24 ; 18900.27244191295 ; 3128.226524963411 ; 291281.8319155823 ; 75077.43659912182 ; 5712.000000000001
25 ; 19298.83413532671 ; 3128.226524963411 ; 310182.10435749526 ; 78205.66312408523 ; 5950.000000000001
26 ; 19816.644207701538 ; 3128.226524963411 ; 329480.938492822 ; 81333.88964904864 ; 6188.000000000001
27 ; 20279.731769495775 ; 3128.226524963411 ; 349297.58270052355 ; 84462.11617401204 ; 6426.000000000001
28 ; 20734.85879458453 ; 3128.226524963411 ; 369577.3144700193 ; 87590.34269897545 ; 6664.000000000001
29 ; 21235.34502952301 ; 3128.226524963411 ; 390312.1732646038 ; 90718.56922393886 ; 6902.000000000001
30 ; 21678.749292831424 ; 3128.226524963411 ; 411547.51829412684 ; 93846.79574890227 ; 7140.000000000001
31 ; 22119.107648814665 ; 3128.226524963411 ; 433226.26758695825 ; 96975.02227386567 ; 7378.000000000001
32 ; 22533.593752902423 ; 3128.226524963411 ; 455345.3752357729 ; 100103.24879882908 ; 7616.000000000001
33 ; 22887.0368945815 ; 3128.226524963411 ; 477878.96898867533 ; 103231.47532379249 ; 7854.000000000001
34 ; 23173.79906664406 ; 3128.226524963411 ; 500766.00588325685 ; 106359.7018487559 ; 8092.000000000001
35 ; 23596.07133695458 ; 3128.226524963411 ; 523939.8049499009 ; 109487.9283737193 ; 8330.000000000002
36 ; 24058.620617019205 ; 3128.226524963411 ; 547535.8762868554 ; 112616.15489868271 ; 8568.000000000002
37 ; 24301.844419300858 ; 3128.226524963411 ; 571594.4969038747 ; 115744.38142364612 ; 8806.000000000002
38 ; 24952.125801009795 ; 3128.226524963411 ; 595896.3413231756 ; 118872.60794860953 ; 9044.000000000002
39 ; 25197.592196515645 ; 3128.226524963411 ; 620848.4671241854 ; 122000.83447357293 ; 9282.000000000002
40 ; 25536.35591361575 ; 3128.226524963411 ; 646046.059320701 ; 125129.06099853634 ; 9520.000000000002
41 ; 25793.99473688907 ; 3128.226524963411 ; 671582.4152343168 ; 128257.28752349975 ; 9758.000000000002
42 ; 26036.494441922136 ; 3128.226524963411 ; 697376.4099712059 ; 131385.51404846317 ; 9996.000000000002
43 ; 26472.616823762146 ; 3128.226524963411 ; 723412.904413128 ; 134513.7405734266 ; 10234.000000000002
44 ; 26838.48207620205 ; 3128.226524963411 ; 749885.5212368902 ; 137641.96709839 ; 10472.000000000002
45 ; 27105.967042554024 ; 3128.226524963411 ; 776724.0033130923 ; 140770.19362335344 ; 10710.000000000002
46 ; 27436.1489800618 ; 3128.226524963411 ; 803829.9703556463 ; 143898.42014831686 ; 10948.000000000002
47 ; 27754.04219771616 ; 3128.226524963411 ; 831266.1193357081 ; 147026.64667328028 ; 11186.000000000002
48 ; 28208.400721670547 ; 3128.226524963411 ; 859020.1615334243 ; 150154.8731982437 ; 11424.000000000002
49 ; 28339.803765009718 ; 3128.226524963411 ; 887228.5622550949 ; 153283.09972320712 ; 11662.000000000002
50 ; 28365.08933889038 ; 3128.226524963411 ; 915568.3660201046 ; 156411.32624817055 ; 11900.000000000002
51 ; 28909.392489205376 ; 3128.226524963411 ; 943933.455358995 ; 159539.55277313397 ; 12138.000000000002
52 ; 28977.957167801378 ; 3128.226524963411 ; 972842.8478482004 ; 162667.7792980974 ; 12376.000000000002
53 ; 29253.46259086917 ; 3128.226524963411 ; 1001820.8050160017 ; 165796.0058230608 ; 12614.000000000002
54 ; 29649.402249900162 ; 3128.226524963411 ; 1031074.2676068709 ; 168924.23234802423 ; 12852.000000000002
55 ; 29875.04013434576 ; 3128.226524963411 ; 1060723.6698567711 ; 172052.45887298766 ; 13090.000000000002
56 ; 30108.102375836665 ; 3128.226524963411 ; 1090598.7099911168 ; 175180.68539795108 ; 13328.000000000002
57 ; 29995.300975623217 ; 3128.226524963411 ; 1120706.8123669534 ; 178308.9119229145 ; 13566.000000000002
58 ; 30321.723174316132 ; 3128.226524963411 ; 1150702.1133425767 ; 181437.13844787792 ; 13804.000000000002
59 ; 30513.78116783747 ; 3128.226524963411 ; 1181023.8365168928 ; 184565.36497284134 ; 14042.000000000002
60 ; 30783.310704245654 ; 3128.226524963411 ; 1211537.6176847303 ; 187693.59149780477 ; 14280.000000000002
61 ; 30988.466438996573 ; 3128.226524963411 ; 1242320.928388976 ; 190821.8180227682 ; 14518.000000000002
62 ; 30976.72975143438 ; 3128.226524963411 ; 1273309.3948279726 ; 193950.0445477316 ; 14756.000000000002
63 ; 31369.548272095217 ; 3128.226524963411 ; 1304286.124579407 ; 197078.27107269503 ; 14994.000000000002
64 ; 31356.735807897105 ; 3128.226524963411 ; 1335655.6728515022 ; 200206.49759765845 ; 15232.000000000002
65 ; 31611.34159608684 ; 3128.226524963411 ; 1367012.4086593993 ; 203334.72412262188 ; 15470.000000000002
66 ; 31707.18409167509 ; 3128.226524963411 ; 1398623.750255486 ; 206462.9506475853 ; 15708.000000000002
67 ; 31896.438053404192 ; 3128.226524963411 ; 1430330.934347161 ; 209591.17717254872 ; 15946.000000000002
68 ; 31801.358712113415 ; 3128.226524963411 ; 1462227.3724005653 ; 212719.40369751214 ; 16184.000000000002
69 ; 32208.801631152306 ; 3128.226524963411 ; 1494028.7311126788 ; 215847.63022247556 ; 16422.000000000004
70 ; 32267.28609597068 ; 3128.226524963411 ; 1526237.5327438312 ; 218975.856747439 ; 16660.000000000004
71 ; 32177.30110415054 ; 3128.226524963411 ; 1558504.818839802 ; 222104.0832724024 ; 16898.000000000004
72 ; 32393.545787192277 ; 3128.226524963411 ; 1590682.1199439524 ; 225232.30979736583 ; 17136.000000000004
73 ; 32604.362036197974 ; 3128.226524963411 ; 1623075.6657311446 ; 228360.53632232925 ; 17374.000000000004
74 ; 32436.953723851795 ; 3128.226524963411 ; 1655680.0277673425 ; 231488.76284729267 ; 17612.000000000004
75 ; 32509.85578035429 ; 3128.226524963411 ; 1688116.9814911943 ; 234616.9893722561 ; 17850.000000000004
76 ; 32423.077293672 ; 3128.226524963411 ; 1720626.8372715486 ; 237745.21589721952 ; 18088.000000000004
77 ; 32788.17343336085 ; 3128.226524963411 ; 1753049.9145652205 ; 240873.44242218294 ; 18326.000000000004
78 ; 32843.67617925209 ; 3128.226524963411 ; 1785838.0879985814 ; 244001.66894714636 ; 18564.000000000004
79 ; 32754.59140296564 ; 3128.226524963411 ; 1818681.7641778335 ; 247129.89547210978 ; 18802.000000000004
80 ; 32845.55324617332 ; 3128.226524963411 ; 1851436.355580799 ; 250258.1219970732 ; 19040.000000000004
81 ; 32674.329934686994 ; 3128.226524963411 ; 1884281.9088269724 ; 253386.34852203663 ; 19278.000000000004
82 ; 32795.787473928634 ; 3128.226524963411 ; 1916956.2387616592 ; 256514.57504700005 ; 19516.000000000004
83 ; 32747.84994741533 ; 3128.226524963411 ; 1949752.026235588 ; 259642.80157196347 ; 19754.000000000004
84 ; 32645.57775832396 ; 3128.226524963411 ; 1982499.8761830032 ; 262771.02809692686 ; 19992.000000000004
85 ; 32758.008312279013 ; 3128.226524963411 ; 2015145.453941327 ; 265899.25462189026 ; 20230.000000000004
86 ; 32630.357592921686 ; 3128.226524963411 ; 2047903.4622536062 ; 269027.48114685365 ; 20468.000000000004
87 ; 32846.9674847736 ; 3128.226524963411 ; 2080533.819846528 ; 272155.70767181704 ; 20706.000000000004
88 ; 32655.489546584493 ; 3128.226524963411 ; 2113380.7873313017 ; 275283.93419678044 ; 20944.000000000004
89 ; 32509.637810788092 ; 3128.226524963411 ; 2146036.276877886 ; 278412.1607217438 ; 21182.000000000004
90 ; 32480.344994758634 ; 3128.226524963411 ; 2178545.9146886743 ; 281540.3872467072 ; 21420.000000000004
91 ; 32372.993436913755 ; 3128.226524963411 ; 2211026.259683433 ; 284668.6137716706 ; 21658.000000000004
92 ; 32191.963039004735 ; 3128.226524963411 ; 2243399.253120347 ; 287796.840296634 ; 21896.000000000004
93 ; 32275.06454140105 ; 3128.226524963411 ; 2275591.2161593516 ; 290925.0668215974 ; 22134.000000000004
94 ; 32226.28711021561 ; 3128.226524963411 ; 2307866.2807007525 ; 294053.2933465608 ; 22372.000000000004
95 ; 31928.66733610418 ; 3128.226524963411 ; 2340092.567810968 ; 297181.5198715242 ; 22610.000000000004
96 ; 31931.504153917067 ; 3128.226524963411 ; 2372021.235147072 ; 300309.7463964876 ; 22848.000000000004
97 ; 31925.691619452533 ; 3128.226524963411 ; 2403952.739300989 ; 303437.972921451 ; 23086.000000000004
98 ; 31601.1885208419 ; 3128.226524963411 ; 2435878.4309204416 ; 306566.19944641436 ; 23324.000000000004
99 ; 31598.127383309333 ; 3128.226524963411 ; 2467479.6194412834 ; 309694.42597137776 ; 23562.000000000004
100 ; 31474.95698728758 ; 3128.226524963411 ; 2499077.746824593 ; 312822.65249634115 ; 23800.000000000004
101 ; 31189.4613012318 ; 3128.226524963411 ; 2530552.70381188 ; 315950.87902130454 ; 24038.000000000004
102 ; 31044.20069073305 ; 3128.226524963411 ; 2561742.165113112 ; 319079.10554626794 ; 24276.000000000004
103 ; 30819.964236231266 ; 3128.226524963411 ; 2592786.365803845 ; 322207.3320712313 ; 24514.000000000004
104 ; 30818.701635907368 ; 3128.226524963411 ; 2623606.3300400763 ; 325335.5585961947 ; 24752.000000000004
105 ; 30596.287198495298 ; 3128.226524963411 ; 2654425.0316759837 ; 328463.7851211581 ; 24990.000000000004
106 ; 30447.120473396117 ; 3128.226524963411 ; 2685021.318874479 ; 331592.0116461215 ; 25228.000000000004
107 ; 30392.51289691863 ; 3128.226524963411 ; 2715468.439347875 ; 334720.2381710849 ; 25466.000000000004
108 ; 29903.927239889454 ; 3128.226524963411 ; 2745860.9522447935 ; 337848.4646960483 ; 25704.000000000004
109 ; 29956.271383186442 ; 3128.226524963411 ; 2775764.879484683 ; 340976.6912210117 ; 25942.000000000004
110 ; 29422.411796171516 ; 3128.226524963411 ; 2805721.150867869 ; 344104.9177459751 ; 26180.000000000004
111 ; 29390.79037804528 ; 3128.226524963411 ; 2835143.562664041 ; 347233.1442709385 ; 26418.000000000004
112 ; 29118.651323102742 ; 3128.226524963411 ; 2864534.353042086 ; 350361.37079590186 ; 26656.000000000004
113 ; 28859.493643727303 ; 3128.226524963411 ; 2893653.004365189 ; 353489.59732086526 ; 26894.000000000004
114 ; 28484.140603463376 ; 3128.226524963411 ; 2922512.498008916 ; 356617.82384582865 ; 27132.000000000004
115 ; 28210.86152760326 ; 3128.226524963411 ; 2950996.6386123793 ; 359746.05037079204 ; 27370.000000000004
116 ; 27975.618102690736 ; 3128.226524963411 ; 2979207.5001399824 ; 362874.27689575544 ; 27608.000000000004
117 ; 27818.640202604245 ; 3128.226524963411 ; 3007183.118242673 ; 366002.50342071883 ; 27846.000000000004
118 ; 27484.07969976807 ; 3128.226524963411 ; 3035001.7584452773 ; 369130.7299456822 ; 28084.000000000004
119 ; 27089.840197304446 ; 3128.226524963411 ; 3062485.8381450456 ; 372258.9564706456 ; 28322.000000000004
120 ; 26975.056365201337 ; 3128.226524963411 ; 3089575.67834235 ; 375387.182995609 ; 28560.000000000004
121 ; 26838.85322889784 ; 3128.226524963411 ; 3116550.734707551 ; 378515.4095205724 ; 28798.000000000004
122 ; 26112.63998365999 ; 3128.226524963411 ; 3143389.587936449 ; 381643.6360455358 ; 29036.000000000004
123 ; 25890.575194398738 ; 3128.226524963411 ; 3169502.227920109 ; 384771.8625704992 ; 29274.000000000004
124 ; 25656.55262890206 ; 3128.226524963411 ; 3195392.803114508 ; 387900.0890954626 ; 29512.000000000004
125 ; 25257.38570865922 ; 3128.226524963411 ; 3221049.35574341 ; 391028.315620426 ; 29750.000000000004
126 ; 24738.361918440394 ; 3128.226524963411 ; 3246306.7414520695 ; 394156.54214538937 ; 29988.000000000004
127 ; 24252.299607967172 ; 3128.226524963411 ; 3271045.10337051 ; 397284.76867035276 ; 30226.000000000004
128 ; 24220.923197999695 ; 3128.226524963411 ; 3295297.402978477 ; 400412.99519531615 ; 30464.000000000004
129 ; 23868.22040146281 ; 3128.226524963411 ; 3319518.3261764767 ; 403541.22172027954 ; 30702.000000000004
130 ; 23488.46615024441 ; 3128.226524963411 ; 3343386.5465779393 ; 406669.44824524294 ; 30940.000000000004
131 ; 23133.91633952498 ; 3128.226524963411 ; 3366875.0127281835 ; 409797.67477020633 ; 31178.000000000004
132 ; 22718.633657461418 ; 3128.226524963411 ; 3390008.9290677086 ; 412925.9012951697 ; 31416.000000000004
133 ; 22456.895983869654 ; 3128.226524963411 ; 3412727.56272517 ; 416054.1278201331 ; 31654.000000000004
134 ; 21856.177337576133 ; 3128.226524963411 ; 3435184.4587090397 ; 419182.3543450965 ; 31892.000000000004
135 ; 21300.334511525507 ; 3128.226524963411 ; 3457040.636046616 ; 422310.5808700599 ; 32130.000000000004
136 ; 20846.142673366314 ; 3128.226524963411 ; 3478340.9705581414 ; 425438.8073950233 ; 32368.000000000004
137 ; 20527.244515412367 ; 3128.226524963411 ; 3499187.1132315076 ; 428567.0339199867 ; 32606.000000000004
138 ; 20039.774882593647 ; 3128.226524963411 ; 3519714.35774692 ; 431695.2604449501 ; 32844.00000000001
139 ; 19595.263364920247 ; 3128.226524963411 ; 3539754.1326295137 ; 434823.4869699135 ; 33082.00000000001
140 ; 19045.933315427457 ; 3128.226524963411 ; 3559349.395994434 ; 437951.71349487687 ; 33320.00000000001
141 ; 18597.347726892942 ; 3128.226524963411 ; 3578395.3293098616 ; 441079.94001984026 ; 33558.00000000001
142 ; 18108.46536523471 ; 3128.226524963411 ; 3596992.677036755 ; 444208.16654480365 ; 33796.00000000001
143 ; 17614.76646519184 ; 3128.226524963411 ; 3615101.1424019895 ; 447336.39306976704 ; 34034.00000000001
144 ; 17255.521362795476 ; 3128.226524963411 ; 3632715.9088671813 ; 450464.61959473044 ; 34272.00000000001
145 ; 16978.122747348632 ; 3128.226524963411 ; 3649971.430229977 ; 453592.84611969383 ; 34510.00000000001
146 ; 16920.72049364228 ; 3128.226524963411 ; 3666949.5529773254 ; 456721.0726446572 ; 34748.00000000001
147 ; 16780.37092767072 ; 3128.226524963411 ; 3683870.2734709675 ; 459849.2991696206 ; 34986.00000000001
148 ; 16578.992154087635 ; 3128.226524963411 ; 3700650.644398638 ; 462977.525694584 ; 35224.00000000001
149 ; 16575.900541889525 ; 3128.226524963411 ; 3717229.6365527255 ; 466105.7522195474 ; 35462.00000000001
150 ; 16307.460232440375 ; 3128.226524963411 ; 3733805.537094615 ; 469233.9787445108 ; 35700.00000000001
151 ; 16077.63966946498 ; 3128.226524963411 ; 3750112.9973270553 ; 472362.2052694742 ; 35938.00000000001
152 ; 15876.244377457193 ; 3128.226524963411 ; 3766190.63699652 ; 475490.4317944376 ; 36176.00000000001
153 ; 15985.89823600752 ; 3128.226524963411 ; 3782066.8813739773 ; 478618.658319401 ; 36414.00000000001
154 ; 15762.622630102935 ; 3128.226524963411 ; 3798052.7796099847 ; 481746.88484436437 ; 36652.00000000001
155 ; 15621.427307132955 ; 3128.226524963411 ; 3813815.4022400877 ; 484875.11136932776 ; 36890.00000000001
156 ; 15283.180110546624 ; 3128.226524963411 ; 3829436.829547221 ; 488003.33789429115 ; 37128.00000000001
157 ; 15234.607476783476 ; 3128.226524963411 ; 3844720.0096577676 ; 491131.56441925454 ; 37366.00000000001
158 ; 14950.697613264245 ; 3128.226524963411 ; 3859954.617134551 ; 494259.79094421794 ; 37604.00000000001
159 ; 14719.532054086443 ; 3128.226524963411 ; 3874905.3147478155 ; 497388.01746918133 ; 37842.00000000001
160 ; 14562.51295519453 ; 3128.226524963411 ; 3889624.8468019017 ; 500516.2439941447 ; 38080.00000000001
161 ; 14497.196819738438 ; 3128.226524963411 ; 3904187.359757096 ; 503644.4705191081 ; 38318.00000000001
162 ; 14347.333022786013 ; 3128.226524963411 ; 3918684.5565768345 ; 506772.6970440715 ; 38556.00000000001
163 ; 14145.645132260097 ; 3128.226524963411 ; 3933031.8895996204 ; 509900.9235690349 ; 38794.00000000001
164 ; 13759.50040095016 ; 3128.226524963411 ; 3947177.5347318803 ; 513029.1500939983 ; 39032.00000000001
165 ; 13704.939806944418 ; 3128.226524963411 ; 3960937.0351328305 ; 516157.3766189617 ; 39270.00000000001
166 ; 13486.0048408338 ; 3128.226524963411 ; 3974641.9749397747 ; 519285.6031439251 ; 39508.00000000001
167 ; 13316.960005584737 ; 3128.226524963411 ; 3988127.9797806083 ; 522413.8296688885 ; 39746.00000000001
168 ; 13263.776553948434 ; 3128.226524963411 ; 4001444.939786193 ; 525542.0561938519 ; 39984.00000000001
169 ; 12814.836543059693 ; 3128.226524963411 ; 4014708.7163401414 ; 528670.2827188153 ; 40222.00000000001
170 ; 12721.038859611244 ; 3128.226524963411 ; 4027523.5528832013 ; 531798.5092437787 ; 40460.00000000001
171 ; 12480.883515054884 ; 3128.226524963411 ; 4040244.5917428127 ; 534926.735768742 ; 40698.00000000001
172 ; 12309.733982447413 ; 3128.226524963411 ; 4052725.4752578675 ; 538054.9622937054 ; 40936.00000000001
173 ; 12151.032993368453 ; 3128.226524963411 ; 4065035.209240315 ; 541183.1888186688 ; 41174.00000000001
174 ; 12284.900747059846 ; 3128.226524963411 ; 4077186.2422336834 ; 544311.4153436322 ; 41412.00000000001
175 ; 12139.406794486993 ; 3128.226524963411 ; 4089471.142980743 ; 547439.6418685956 ; 41650.00000000001
176 ; 12249.45190458906 ; 3128.226524963411 ; 4101610.54977523 ; 550567.868393559 ; 41888.00000000001
177 ; 12420.242987749532 ; 3128.226524963411 ; 4113860.001679819 ; 553696.0949185224 ; 42126.00000000001
178 ; 12259.280249488935 ; 3128.226524963411 ; 4126280.2446675687 ; 556824.3214434858 ; 42364.00000000001
179 ; 12371.415764042173 ; 3128.226524963411 ; 4138539.5249170577 ; 559952.5479684492 ; 42602.00000000001
180 ; 12331.944394252754 ; 3128.226524963411 ; 4150910.9406811 ; 563080.7744934126 ; 42840.00000000001
181 ; 12437.57397009973 ; 3128.226524963411 ; 4163242.8850753526 ; 566209.001018376 ; 43078.00000000001
182 ; 12392.829124770147 ; 3128.226524963411 ; 4175680.4590454525 ; 569337.2275433394 ; 43316.00000000001
183 ; 12444.069411075896 ; 3128.226524963411 ; 4188073.2881702227 ; 572465.4540683028 ; 43554.00000000001
184 ; 12641.113175355322 ; 3128.226524963411 ; 4200517.357581299 ; 575593.6805932662 ; 43792.00000000001
185 ; 12425.891906163006 ; 3128.226524963411 ; 4213158.470756654 ; 578721.9071182295 ; 44030.00000000001
186 ; 12771.04909683599 ; 3128.226524963411 ; 4225584.362662816 ; 581850.1336431929 ; 44268.00000000001
