CSV File for the City 1 on Day 176
1 - Minute m 
2 - Power Consumed at minute m 
3 - Power Produced at minute m 
4 - Energy Consumed since the beginning of the day 
5 - Energy Produced since the beginning of the day 
6 - Energy Lost since the beginning of the day on lines starting from the city
 
0 ; 6465.192162418561 ; 3052.5491001445007 ; 0.0 ; 0.0 ; 0.0
1 ; 6854.021879362521 ; 3052.5491001445007 ; 6465.192162418561 ; 3052.5491001445007 ; 238.00000000000003
2 ; 7606.353452125312 ; 3052.5491001445007 ; 13319.21404178108 ; 6105.098200289001 ; 476.00000000000006
3 ; 8052.988131921115 ; 3052.5491001445007 ; 20925.567493906394 ; 9157.647300433502 ; 714.0000000000001
4 ; 8554.16454406849 ; 3052.5491001445007 ; 28978.55562582751 ; 12210.196400578003 ; 952.0000000000001
5 ; 9152.389088253734 ; 3052.5491001445007 ; 37532.720169896 ; 15262.745500722503 ; 1190.0000000000002
6 ; 9620.586197085639 ; 3052.5491001445007 ; 46685.109258149736 ; 18315.294600867004 ; 1428.0000000000002
7 ; 10273.045324091945 ; 3052.5491001445007 ; 56305.69545523537 ; 21367.843701011505 ; 1666.0000000000002
8 ; 10828.580759387136 ; 3052.5491001445007 ; 66578.74077932732 ; 24420.392801156006 ; 1904.0000000000002
9 ; 11081.225015695534 ; 3052.5491001445007 ; 77407.32153871446 ; 27472.941901300506 ; 2142.0000000000005
10 ; 11586.949047678725 ; 3052.5491001445007 ; 88488.54655440999 ; 30525.491001445007 ; 2380.0000000000005
11 ; 12103.985297689009 ; 3052.5491001445007 ; 100075.49560208872 ; 33578.040101589504 ; 2618.0000000000005
12 ; 12556.282893743079 ; 3052.5491001445007 ; 112179.48089977773 ; 36630.58920173401 ; 2856.0000000000005
13 ; 13282.569407943642 ; 3052.5491001445007 ; 124735.7637935208 ; 39683.13830187851 ; 3094.0000000000005
14 ; 13509.987236077995 ; 3052.5491001445007 ; 138018.33320146444 ; 42735.68740202302 ; 3332.0000000000005
15 ; 13921.805104614696 ; 3052.5491001445007 ; 151528.32043754242 ; 45788.23650216752 ; 3570.0000000000005
16 ; 14520.190556162926 ; 3052.5491001445007 ; 165450.12554215713 ; 48840.785602312026 ; 3808.0000000000005
17 ; 14979.760724550815 ; 3052.5491001445007 ; 179970.31609832007 ; 51893.33470245653 ; 4046.0000000000005
18 ; 15272.15117218945 ; 3052.5491001445007 ; 194950.07682287088 ; 54945.883802601034 ; 4284.000000000001
19 ; 15692.914637273427 ; 3052.5491001445007 ; 210222.22799506033 ; 57998.43290274554 ; 4522.000000000001
20 ; 16132.333319357573 ; 3052.5491001445007 ; 225915.14263233377 ; 61050.98200289004 ; 4760.000000000001
21 ; 16547.003729937547 ; 3052.5491001445007 ; 242047.47595169133 ; 64103.53110303455 ; 4998.000000000001
22 ; 17022.486995922965 ; 3052.5491001445007 ; 258594.47968162887 ; 67156.08020317905 ; 5236.000000000001
23 ; 17506.715974062612 ; 3052.5491001445007 ; 275616.96667755186 ; 70208.62930332356 ; 5474.000000000001
24 ; 17765.50900067488 ; 3052.5491001445007 ; 293123.6826516145 ; 73261.17840346806 ; 5712.000000000001
25 ; 18169.939043978393 ; 3052.5491001445007 ; 310889.19165228936 ; 76313.72750361256 ; 5950.000000000001
26 ; 18646.225154259155 ; 3052.5491001445007 ; 329059.13069626776 ; 79366.27660375707 ; 6188.000000000001
27 ; 18985.49859893113 ; 3052.5491001445007 ; 347705.35585052695 ; 82418.82570390157 ; 6426.000000000001
28 ; 19274.95546329947 ; 3052.5491001445007 ; 366690.8544494581 ; 85471.37480404608 ; 6664.000000000001
29 ; 19518.387803084544 ; 3052.5491001445007 ; 385965.80991275754 ; 88523.92390419058 ; 6902.000000000001
30 ; 20034.51992095641 ; 3052.5491001445007 ; 405484.1977158421 ; 91576.47300433509 ; 7140.000000000001
31 ; 20335.674075712926 ; 3052.5491001445007 ; 425518.7176367985 ; 94629.02210447959 ; 7378.000000000001
32 ; 20687.942263102017 ; 3052.5491001445007 ; 445854.3917125114 ; 97681.5712046241 ; 7616.000000000001
33 ; 21191.743879441306 ; 3052.5491001445007 ; 466542.33397561347 ; 100734.1203047686 ; 7854.000000000001
34 ; 21355.228965587547 ; 3052.5491001445007 ; 487734.07785505475 ; 103786.6694049131 ; 8092.000000000001
35 ; 21820.600437975787 ; 3052.5491001445007 ; 509089.3068206423 ; 106839.21850505761 ; 8330.000000000002
36 ; 22102.59430530043 ; 3052.5491001445007 ; 530909.9072586182 ; 109891.76760520211 ; 8568.000000000002
37 ; 22287.57773289512 ; 3052.5491001445007 ; 553012.5015639185 ; 112944.31670534662 ; 8806.000000000002
38 ; 22317.497861629967 ; 3052.5491001445007 ; 575300.0792968137 ; 115996.86580549112 ; 9044.000000000002
39 ; 22864.441503133323 ; 3052.5491001445007 ; 597617.5771584436 ; 119049.41490563563 ; 9282.000000000002
40 ; 22999.95973138329 ; 3052.5491001445007 ; 620482.0186615769 ; 122101.96400578013 ; 9520.000000000002
41 ; 23179.106530124944 ; 3052.5491001445007 ; 643481.9783929602 ; 125154.51310592463 ; 9758.000000000002
42 ; 23694.968960521895 ; 3052.5491001445007 ; 666661.084923085 ; 128207.06220606914 ; 9996.000000000002
43 ; 23842.36076063018 ; 3052.5491001445007 ; 690356.0538836069 ; 131259.61130621363 ; 10234.000000000002
44 ; 24279.307781055777 ; 3052.5491001445007 ; 714198.4146442371 ; 134312.16040635813 ; 10472.000000000002
45 ; 24527.91875357204 ; 3052.5491001445007 ; 738477.722425293 ; 137364.70950650264 ; 10710.000000000002
46 ; 24666.748497404315 ; 3052.5491001445007 ; 763005.641178865 ; 140417.25860664714 ; 10948.000000000002
47 ; 24944.045062888257 ; 3052.5491001445007 ; 787672.3896762693 ; 143469.80770679165 ; 11186.000000000002
48 ; 24952.366571365314 ; 3052.5491001445007 ; 812616.4347391576 ; 146522.35680693615 ; 11424.000000000002
49 ; 25311.20423601766 ; 3052.5491001445007 ; 837568.8013105228 ; 149574.90590708065 ; 11662.000000000002
50 ; 25567.427920168488 ; 3052.5491001445007 ; 862880.0055465405 ; 152627.45500722516 ; 11900.000000000002
51 ; 25984.63232427173 ; 3052.5491001445007 ; 888447.433466709 ; 155680.00410736966 ; 12138.000000000002
52 ; 26142.33566304081 ; 3052.5491001445007 ; 914432.0657909807 ; 158732.55320751417 ; 12376.000000000002
53 ; 26321.432568498774 ; 3052.5491001445007 ; 940574.4014540215 ; 161785.10230765867 ; 12614.000000000002
54 ; 26408.26238747316 ; 3052.5491001445007 ; 966895.8340225202 ; 164837.65140780318 ; 12852.000000000002
55 ; 26535.815158784113 ; 3052.5491001445007 ; 993304.0964099934 ; 167890.20050794768 ; 13090.000000000002
56 ; 26791.66625279043 ; 3052.5491001445007 ; 1019839.9115687775 ; 170942.74960809218 ; 13328.000000000002
57 ; 26973.48829468734 ; 3052.5491001445007 ; 1046631.577821568 ; 173995.2987082367 ; 13566.000000000002
58 ; 27181.095351566353 ; 3052.5491001445007 ; 1073605.0661162552 ; 177047.8478083812 ; 13804.000000000002
59 ; 27303.579263323598 ; 3052.5491001445007 ; 1100786.1614678216 ; 180100.3969085257 ; 14042.000000000002
60 ; 27355.006106902736 ; 3052.5491001445007 ; 1128089.7407311453 ; 183152.9460086702 ; 14280.000000000002
61 ; 27531.295446696655 ; 3052.5491001445007 ; 1155444.746838048 ; 186205.4951088147 ; 14518.000000000002
62 ; 27773.671729195336 ; 3052.5491001445007 ; 1182976.0422847448 ; 189258.0442089592 ; 14756.000000000002
63 ; 27910.379324375233 ; 3052.5491001445007 ; 1210749.7140139402 ; 192310.59330910372 ; 14994.000000000002
64 ; 28047.684399143127 ; 3052.5491001445007 ; 1238660.0933383154 ; 195363.14240924822 ; 15232.000000000002
65 ; 28107.417961231513 ; 3052.5491001445007 ; 1266707.7777374585 ; 198415.69150939272 ; 15470.000000000002
66 ; 28045.557152447116 ; 3052.5491001445007 ; 1294815.19569869 ; 201468.24060953723 ; 15708.000000000002
67 ; 28358.91401758999 ; 3052.5491001445007 ; 1322860.752851137 ; 204520.78970968173 ; 15946.000000000002
68 ; 28438.056928032263 ; 3052.5491001445007 ; 1351219.666868727 ; 207573.33880982624 ; 16184.000000000002
69 ; 28519.647162041423 ; 3052.5491001445007 ; 1379657.7237967593 ; 210625.88790997074 ; 16422.000000000004
70 ; 28621.57794847321 ; 3052.5491001445007 ; 1408177.3709588007 ; 213678.43701011525 ; 16660.000000000004
71 ; 28659.19244203537 ; 3052.5491001445007 ; 1436798.9489072738 ; 216730.98611025975 ; 16898.000000000004
72 ; 28690.55195546964 ; 3052.5491001445007 ; 1465458.1413493091 ; 219783.53521040425 ; 17136.000000000004
73 ; 28927.587224438765 ; 3052.5491001445007 ; 1494148.6933047788 ; 222836.08431054876 ; 17374.000000000004
74 ; 28813.798580458264 ; 3052.5491001445007 ; 1523076.2805292176 ; 225888.63341069326 ; 17612.000000000004
75 ; 29093.418972467163 ; 3052.5491001445007 ; 1551890.0791096757 ; 228941.18251083777 ; 17850.000000000004
76 ; 29060.431916894348 ; 3052.5491001445007 ; 1580983.4980821428 ; 231993.73161098227 ; 18088.000000000004
77 ; 29165.66614352315 ; 3052.5491001445007 ; 1610043.9299990372 ; 235046.28071112678 ; 18326.000000000004
78 ; 29168.470664290206 ; 3052.5491001445007 ; 1639209.5961425602 ; 238098.82981127128 ; 18564.000000000004
79 ; 29151.054847680713 ; 3052.5491001445007 ; 1668378.0668068505 ; 241151.37891141578 ; 18802.000000000004
80 ; 29072.94233908373 ; 3052.5491001445007 ; 1697529.1216545312 ; 244203.9280115603 ; 19040.000000000004
81 ; 29290.843666499615 ; 3052.5491001445007 ; 1726602.0639936149 ; 247256.4771117048 ; 19278.000000000004
82 ; 28986.8076810603 ; 3052.5491001445007 ; 1755892.9076601146 ; 250309.0262118493 ; 19516.000000000004
83 ; 28960.92731453107 ; 3052.5491001445007 ; 1784879.715341175 ; 253361.5753119938 ; 19754.000000000004
84 ; 29244.021810522674 ; 3052.5491001445007 ; 1813840.642655706 ; 256414.1244121383 ; 19992.000000000004
85 ; 29058.329805544876 ; 3052.5491001445007 ; 1843084.6644662288 ; 259466.6735122828 ; 20230.000000000004
86 ; 29247.980898025682 ; 3052.5491001445007 ; 1872142.9942717736 ; 262519.2226124273 ; 20468.000000000004
87 ; 29039.882759187363 ; 3052.5491001445007 ; 1901390.9751697993 ; 265571.7717125718 ; 20706.000000000004
88 ; 28987.248382219736 ; 3052.5491001445007 ; 1930430.8579289867 ; 268624.32081271627 ; 20944.000000000004
89 ; 29037.75955935162 ; 3052.5491001445007 ; 1959418.1063112065 ; 271676.86991286074 ; 21182.000000000004
90 ; 28870.36633940505 ; 3052.5491001445007 ; 1988455.8658705582 ; 274729.4190130052 ; 21420.000000000004
91 ; 29012.880759643376 ; 3052.5491001445007 ; 2017326.2322099633 ; 277781.9681131497 ; 21658.000000000004
92 ; 28933.16469234275 ; 3052.5491001445007 ; 2046339.1129696066 ; 280834.51721329417 ; 21896.000000000004
93 ; 28672.431815030523 ; 3052.5491001445007 ; 2075272.2776619494 ; 283887.06631343864 ; 22134.000000000004
94 ; 28622.55337957374 ; 3052.5491001445007 ; 2103944.70947698 ; 286939.6154135831 ; 22372.000000000004
95 ; 28535.847003217867 ; 3052.5491001445007 ; 2132567.262856554 ; 289992.1645137276 ; 22610.000000000004
96 ; 28638.93715983885 ; 3052.5491001445007 ; 2161103.1098597716 ; 293044.71361387207 ; 22848.000000000004
97 ; 28305.712963347723 ; 3052.5491001445007 ; 2189742.04701961 ; 296097.26271401654 ; 23086.000000000004
98 ; 28366.587262670848 ; 3052.5491001445007 ; 2218047.759982958 ; 299149.811814161 ; 23324.000000000004
99 ; 28021.324842883998 ; 3052.5491001445007 ; 2246414.347245629 ; 302202.3609143055 ; 23562.000000000004
100 ; 28073.84187134456 ; 3052.5491001445007 ; 2274435.672088513 ; 305254.91001444997 ; 23800.000000000004
101 ; 27953.87466485884 ; 3052.5491001445007 ; 2302509.5139598576 ; 308307.45911459444 ; 24038.000000000004
102 ; 27906.53495877786 ; 3052.5491001445007 ; 2330463.3886247166 ; 311360.0082147389 ; 24276.000000000004
103 ; 27753.346482070876 ; 3052.5491001445007 ; 2358369.9235834945 ; 314412.5573148834 ; 24514.000000000004
104 ; 27610.06018673508 ; 3052.5491001445007 ; 2386123.2700655656 ; 317465.10641502787 ; 24752.000000000004
105 ; 27544.610057974453 ; 3052.5491001445007 ; 2413733.3302523005 ; 320517.65551517234 ; 24990.000000000004
106 ; 27316.297781263766 ; 3052.5491001445007 ; 2441277.9403102747 ; 323570.2046153168 ; 25228.000000000004
107 ; 27261.013278278417 ; 3052.5491001445007 ; 2468594.2380915387 ; 326622.7537154613 ; 25466.000000000004
108 ; 26940.944911317616 ; 3052.5491001445007 ; 2495855.251369817 ; 329675.30281560577 ; 25704.000000000004
109 ; 26776.135054923754 ; 3052.5491001445007 ; 2522796.1962811346 ; 332727.85191575025 ; 25942.000000000004
110 ; 26508.616027529886 ; 3052.5491001445007 ; 2549572.331336058 ; 335780.4010158947 ; 26180.000000000004
111 ; 26268.53069641449 ; 3052.5491001445007 ; 2576080.947363588 ; 338832.9501160392 ; 26418.000000000004
112 ; 25989.283462055733 ; 3052.5491001445007 ; 2602349.4780600024 ; 341885.49921618367 ; 26656.000000000004
113 ; 26040.13100551907 ; 3052.5491001445007 ; 2628338.7615220584 ; 344938.04831632815 ; 26894.000000000004
114 ; 25731.420104653484 ; 3052.5491001445007 ; 2654378.8925275775 ; 347990.5974164726 ; 27132.000000000004
115 ; 25544.38702967559 ; 3052.5491001445007 ; 2680110.312632231 ; 351043.1465166171 ; 27370.000000000004
116 ; 25302.137346248688 ; 3052.5491001445007 ; 2705654.699661907 ; 354095.6956167616 ; 27608.000000000004
117 ; 25094.322575461236 ; 3052.5491001445007 ; 2730956.8370081554 ; 357148.24471690605 ; 27846.000000000004
118 ; 24763.07913633172 ; 3052.5491001445007 ; 2756051.1595836165 ; 360200.7938170505 ; 28084.000000000004
119 ; 24502.99625003753 ; 3052.5491001445007 ; 2780814.238719948 ; 363253.342917195 ; 28322.000000000004
120 ; 24331.577811123854 ; 3052.5491001445007 ; 2805317.2349699857 ; 366305.8920173395 ; 28560.000000000004
121 ; 24137.70943909078 ; 3052.5491001445007 ; 2829648.8127811095 ; 369358.44111748395 ; 28798.000000000004
122 ; 23903.682592214693 ; 3052.5491001445007 ; 2853786.5222202004 ; 372410.9902176284 ; 29036.000000000004
123 ; 23466.943617916942 ; 3052.5491001445007 ; 2877690.204812415 ; 375463.5393177729 ; 29274.000000000004
124 ; 23269.0653038153 ; 3052.5491001445007 ; 2901157.148430332 ; 378516.0884179174 ; 29512.000000000004
125 ; 23020.382657778857 ; 3052.5491001445007 ; 2924426.2137341476 ; 381568.63751806185 ; 29750.000000000004
126 ; 22808.261778589884 ; 3052.5491001445007 ; 2947446.5963919265 ; 384621.1866182063 ; 29988.000000000004
127 ; 22379.479105023307 ; 3052.5491001445007 ; 2970254.8581705163 ; 387673.7357183508 ; 30226.000000000004
128 ; 22160.336034476426 ; 3052.5491001445007 ; 2992634.3372755395 ; 390726.2848184953 ; 30464.000000000004
129 ; 21903.45639987273 ; 3052.5491001445007 ; 3014794.673310016 ; 393778.83391863975 ; 30702.000000000004
130 ; 21577.81752892671 ; 3052.5491001445007 ; 3036698.1297098887 ; 396831.3830187842 ; 30940.000000000004
131 ; 20996.09685848828 ; 3052.5491001445007 ; 3058275.9472388155 ; 399883.9321189287 ; 31178.000000000004
132 ; 20695.461631379912 ; 3052.5491001445007 ; 3079272.044097304 ; 402936.4812190732 ; 31416.000000000004
133 ; 20391.43301239808 ; 3052.5491001445007 ; 3099967.505728684 ; 405989.03031921765 ; 31654.000000000004
134 ; 20194.66670603692 ; 3052.5491001445007 ; 3120358.938741082 ; 409041.5794193621 ; 31892.000000000004
135 ; 19835.920122144522 ; 3052.5491001445007 ; 3140553.6054471186 ; 412094.1285195066 ; 32130.000000000004
136 ; 19511.738194881244 ; 3052.5491001445007 ; 3160389.5255692634 ; 415146.6776196511 ; 32368.000000000004
137 ; 19244.79400172577 ; 3052.5491001445007 ; 3179901.263764145 ; 418199.22671979555 ; 32606.000000000004
138 ; 18717.954451200207 ; 3052.5491001445007 ; 3199146.057765871 ; 421251.77581994 ; 32844.00000000001
139 ; 18279.67931242612 ; 3052.5491001445007 ; 3217864.012217071 ; 424304.3249200845 ; 33082.00000000001
140 ; 17865.16755895972 ; 3052.5491001445007 ; 3236143.691529497 ; 427356.874020229 ; 33320.00000000001
141 ; 17608.539871061173 ; 3052.5491001445007 ; 3254008.8590884567 ; 430409.42312037345 ; 33558.00000000001
142 ; 17112.92433332205 ; 3052.5491001445007 ; 3271617.398959518 ; 433461.9722205179 ; 33796.00000000001
143 ; 16740.935014557497 ; 3052.5491001445007 ; 3288730.32329284 ; 436514.5213206624 ; 34034.00000000001
144 ; 16397.398705116775 ; 3052.5491001445007 ; 3305471.2583073974 ; 439567.0704208069 ; 34272.00000000001
145 ; 15980.836755409926 ; 3052.5491001445007 ; 3321868.6570125143 ; 442619.61952095135 ; 34510.00000000001
146 ; 15936.767256465306 ; 3052.5491001445007 ; 3337849.493767924 ; 445672.1686210958 ; 34748.00000000001
147 ; 15818.63962858497 ; 3052.5491001445007 ; 3353786.2610243894 ; 448724.7177212403 ; 34986.00000000001
148 ; 15890.375759626064 ; 3052.5491001445007 ; 3369604.9006529744 ; 451777.2668213848 ; 35224.00000000001
149 ; 15672.29384846102 ; 3052.5491001445007 ; 3385495.2764126007 ; 454829.81592152925 ; 35462.00000000001
150 ; 15635.426194949494 ; 3052.5491001445007 ; 3401167.5702610617 ; 457882.36502167373 ; 35700.00000000001
151 ; 15427.265667821515 ; 3052.5491001445007 ; 3416802.996456011 ; 460934.9141218182 ; 35938.00000000001
152 ; 15270.765864818753 ; 3052.5491001445007 ; 3432230.262123833 ; 463987.4632219627 ; 36176.00000000001
153 ; 14956.67541007316 ; 3052.5491001445007 ; 3447501.027988652 ; 467040.01232210716 ; 36414.00000000001
154 ; 15002.912247280668 ; 3052.5491001445007 ; 3462457.703398725 ; 470092.56142225163 ; 36652.00000000001
155 ; 14993.647470573342 ; 3052.5491001445007 ; 3477460.6156460056 ; 473145.1105223961 ; 36890.00000000001
156 ; 14849.242974112327 ; 3052.5491001445007 ; 3492454.263116579 ; 476197.6596225406 ; 37128.00000000001
157 ; 14748.207818809416 ; 3052.5491001445007 ; 3507303.5060906913 ; 479250.20872268506 ; 37366.00000000001
158 ; 14440.299004307542 ; 3052.5491001445007 ; 3522051.7139095007 ; 482302.75782282953 ; 37604.00000000001
159 ; 14344.925454514949 ; 3052.5491001445007 ; 3536492.012913808 ; 485355.306922974 ; 37842.00000000001
160 ; 14225.262456899327 ; 3052.5491001445007 ; 3550836.9383683233 ; 488407.8560231185 ; 38080.00000000001
161 ; 14153.000298292349 ; 3052.5491001445007 ; 3565062.200825223 ; 491460.40512326296 ; 38318.00000000001
162 ; 13977.117491455576 ; 3052.5491001445007 ; 3579215.201123515 ; 494512.95422340743 ; 38556.00000000001
163 ; 13855.261623215061 ; 3052.5491001445007 ; 3593192.318614971 ; 497565.5033235519 ; 38794.00000000001
164 ; 13546.70037436533 ; 3052.5491001445007 ; 3607047.580238186 ; 500618.0524236964 ; 39032.00000000001
165 ; 13317.341822607643 ; 3052.5491001445007 ; 3620594.280612551 ; 503670.60152384086 ; 39270.00000000001
166 ; 13176.132057546094 ; 3052.5491001445007 ; 3633911.6224351586 ; 506723.15062398533 ; 39508.00000000001
167 ; 13101.711064717345 ; 3052.5491001445007 ; 3647087.7544927048 ; 509775.6997241298 ; 39746.00000000001
168 ; 13054.51397648716 ; 3052.5491001445007 ; 3660189.465557422 ; 512828.2488242743 ; 39984.00000000001
169 ; 12736.427868451217 ; 3052.5491001445007 ; 3673243.9795339094 ; 515880.79792441876 ; 40222.00000000001
170 ; 12710.18844950776 ; 3052.5491001445007 ; 3685980.4074023603 ; 518933.34702456323 ; 40460.00000000001
171 ; 12429.30267516167 ; 3052.5491001445007 ; 3698690.595851868 ; 521985.8961247077 ; 40698.00000000001
172 ; 12229.422454009826 ; 3052.5491001445007 ; 3711119.8985270294 ; 525038.4452248522 ; 40936.00000000001
173 ; 12071.581751412225 ; 3052.5491001445007 ; 3723349.320981039 ; 528090.9943249967 ; 41174.00000000001
174 ; 12059.623880828098 ; 3052.5491001445007 ; 3735420.9027324514 ; 531143.5434251413 ; 41412.00000000001
175 ; 12107.38743802973 ; 3052.5491001445007 ; 3747480.5266132797 ; 534196.0925252858 ; 41650.00000000001
176 ; 12133.737343509014 ; 3052.5491001445007 ; 3759587.914051309 ; 537248.6416254303 ; 41888.00000000001
177 ; 12216.444887778975 ; 3052.5491001445007 ; 3771721.6513948184 ; 540301.1907255749 ; 42126.00000000001
178 ; 12267.631976062328 ; 3052.5491001445007 ; 3783938.0962825976 ; 543353.7398257194 ; 42364.00000000001
179 ; 12241.028434097238 ; 3052.5491001445007 ; 3796205.72825866 ; 546406.2889258639 ; 42602.00000000001
180 ; 12395.820509897205 ; 3052.5491001445007 ; 3808446.7566927574 ; 549458.8380260085 ; 42840.00000000001
181 ; 12397.26333778788 ; 3052.5491001445007 ; 3820842.5772026544 ; 552511.387126153 ; 43078.00000000001
182 ; 12375.343905855234 ; 3052.5491001445007 ; 3833239.840540442 ; 555563.9362262975 ; 43316.00000000001
183 ; 12397.081727056833 ; 3052.5491001445007 ; 3845615.1844462976 ; 558616.485326442 ; 43554.00000000001
184 ; 12470.819793958402 ; 3052.5491001445007 ; 3858012.2661733544 ; 561669.0344265866 ; 43792.00000000001
