CSV File for the City 1 on Day 183
1 - Minute m 
2 - Power Consumed at minute m 
3 - Power Produced at minute m 
4 - Energy Consumed since the beginning of the day 
5 - Energy Produced since the beginning of the day 
6 - Energy Lost since the beginning of the day on lines starting from the city
 
0 ; 6018.940422949577 ; 3490.783587580707 ; 0.0 ; 0.0 ; 0.0
1 ; 6830.897998439666 ; 3490.783587580707 ; 6018.940422949577 ; 3490.783587580707 ; 238.00000000000003
2 ; 7343.133809688095 ; 3490.783587580707 ; 12849.838421389242 ; 6981.567175161414 ; 476.00000000000006
3 ; 7741.346281182368 ; 3490.783587580707 ; 20192.972231077336 ; 10472.35076274212 ; 714.0000000000001
4 ; 8318.228373390466 ; 3490.783587580707 ; 27934.318512259706 ; 13963.134350322827 ; 952.0000000000001
5 ; 8654.921447948664 ; 3490.783587580707 ; 36252.54688565017 ; 17453.917937903534 ; 1190.0000000000002
6 ; 9506.587516938902 ; 3490.783587580707 ; 44907.46833359883 ; 20944.70152548424 ; 1428.0000000000002
7 ; 9976.58095549486 ; 3490.783587580707 ; 54414.055850537734 ; 24435.485113064948 ; 1666.0000000000002
8 ; 10597.665203786699 ; 3490.783587580707 ; 64390.63680603259 ; 27926.268700645654 ; 1904.0000000000002
9 ; 11108.76292614901 ; 3490.783587580707 ; 74988.3020098193 ; 31417.05228822636 ; 2142.0000000000005
10 ; 11704.57581779662 ; 3490.783587580707 ; 86097.0649359683 ; 34907.83587580707 ; 2380.0000000000005
11 ; 12034.5794652741 ; 3490.783587580707 ; 97801.64075376492 ; 38398.619463387775 ; 2618.0000000000005
12 ; 12563.571248659393 ; 3490.783587580707 ; 109836.22021903902 ; 41889.40305096848 ; 2856.0000000000005
13 ; 13188.71419236017 ; 3490.783587580707 ; 122399.79146769842 ; 45380.18663854919 ; 3094.0000000000005
14 ; 13481.135041231079 ; 3490.783587580707 ; 135588.50566005858 ; 48870.970226129895 ; 3332.0000000000005
15 ; 14047.874382502667 ; 3490.783587580707 ; 149069.64070128967 ; 52361.7538137106 ; 3570.0000000000005
16 ; 14517.975764552255 ; 3490.783587580707 ; 163117.51508379233 ; 55852.53740129131 ; 3808.0000000000005
17 ; 14903.357690211025 ; 3490.783587580707 ; 177635.49084834458 ; 59343.320988872016 ; 4046.0000000000005
18 ; 15253.044471374707 ; 3490.783587580707 ; 192538.8485385556 ; 62834.10457645272 ; 4284.000000000001
19 ; 15886.256123816993 ; 3490.783587580707 ; 207791.89300993033 ; 66324.88816403343 ; 4522.000000000001
20 ; 16358.450473516883 ; 3490.783587580707 ; 223678.14913374733 ; 69815.67175161414 ; 4760.000000000001
21 ; 16784.890622157756 ; 3490.783587580707 ; 240036.59960726422 ; 73306.45533919484 ; 4998.000000000001
22 ; 17155.660133533125 ; 3490.783587580707 ; 256821.49022942196 ; 76797.23892677555 ; 5236.000000000001
23 ; 17503.90983792922 ; 3490.783587580707 ; 273977.1503629551 ; 80288.02251435626 ; 5474.000000000001
24 ; 17983.11600982325 ; 3490.783587580707 ; 291481.06020088436 ; 83778.80610193696 ; 5712.000000000001
25 ; 18215.61493769328 ; 3490.783587580707 ; 309464.17621070764 ; 87269.58968951767 ; 5950.000000000001
26 ; 18502.516773730193 ; 3490.783587580707 ; 327679.7911484009 ; 90760.37327709838 ; 6188.000000000001
27 ; 19099.60024670115 ; 3490.783587580707 ; 346182.3079221311 ; 94251.15686467908 ; 6426.000000000001
28 ; 19637.9474869305 ; 3490.783587580707 ; 365281.90816883225 ; 97741.94045225979 ; 6664.000000000001
29 ; 19836.636450018796 ; 3490.783587580707 ; 384919.8556557628 ; 101232.7240398405 ; 6902.000000000001
30 ; 20249.13659489445 ; 3490.783587580707 ; 404756.49210578157 ; 104723.5076274212 ; 7140.000000000001
31 ; 20752.570995055732 ; 3490.783587580707 ; 425005.628700676 ; 108214.29121500191 ; 7378.000000000001
32 ; 20759.835960427314 ; 3490.783587580707 ; 445758.19969573175 ; 111705.07480258262 ; 7616.000000000001
33 ; 21365.516714773657 ; 3490.783587580707 ; 466518.03565615905 ; 115195.85839016332 ; 7854.000000000001
34 ; 21701.96831283887 ; 3490.783587580707 ; 487883.5523709327 ; 118686.64197774403 ; 8092.000000000001
35 ; 21936.175295707406 ; 3490.783587580707 ; 509585.5206837716 ; 122177.42556532474 ; 8330.000000000002
36 ; 22344.988665520927 ; 3490.783587580707 ; 531521.695979479 ; 125668.20915290545 ; 8568.000000000002
37 ; 22874.438344195885 ; 3490.783587580707 ; 553866.6846449999 ; 129158.99274048615 ; 8806.000000000002
38 ; 23043.823048458864 ; 3490.783587580707 ; 576741.1229891957 ; 132649.77632806686 ; 9044.000000000002
39 ; 23166.485128461954 ; 3490.783587580707 ; 599784.9460376546 ; 136140.55991564755 ; 9282.000000000002
40 ; 23804.365076485577 ; 3490.783587580707 ; 622951.4311661166 ; 139631.34350322827 ; 9520.000000000002
41 ; 23960.861015532886 ; 3490.783587580707 ; 646755.7962426022 ; 143122.127090809 ; 9758.000000000002
42 ; 24137.468358698883 ; 3490.783587580707 ; 670716.657258135 ; 146612.91067838972 ; 9996.000000000002
43 ; 24524.83940762818 ; 3490.783587580707 ; 694854.1256168339 ; 150103.69426597044 ; 10234.000000000002
44 ; 24590.45278828237 ; 3490.783587580707 ; 719378.9650244621 ; 153594.47785355116 ; 10472.000000000002
45 ; 24686.694463085754 ; 3490.783587580707 ; 743969.4178127445 ; 157085.26144113188 ; 10710.000000000002
46 ; 25352.062801670727 ; 3490.783587580707 ; 768656.1122758302 ; 160576.0450287126 ; 10948.000000000002
47 ; 25531.387409428142 ; 3490.783587580707 ; 794008.175077501 ; 164066.82861629332 ; 11186.000000000002
48 ; 25711.88803918135 ; 3490.783587580707 ; 819539.5624869291 ; 167557.61220387404 ; 11424.000000000002
49 ; 25904.975449655572 ; 3490.783587580707 ; 845251.4505261105 ; 171048.39579145476 ; 11662.000000000002
50 ; 26064.442373411006 ; 3490.783587580707 ; 871156.425975766 ; 174539.1793790355 ; 11900.000000000002
51 ; 26332.5517042319 ; 3490.783587580707 ; 897220.8683491771 ; 178029.9629666162 ; 12138.000000000002
52 ; 26605.889874796176 ; 3490.783587580707 ; 923553.420053409 ; 181520.74655419693 ; 12376.000000000002
53 ; 26747.29979878308 ; 3490.783587580707 ; 950159.3099282051 ; 185011.53014177765 ; 12614.000000000002
54 ; 26863.338816421347 ; 3490.783587580707 ; 976906.6097269881 ; 188502.31372935837 ; 12852.000000000002
55 ; 27240.018641559804 ; 3490.783587580707 ; 1003769.9485434095 ; 191993.0973169391 ; 13090.000000000002
56 ; 27364.8368573579 ; 3490.783587580707 ; 1031009.9671849692 ; 195483.8809045198 ; 13328.000000000002
57 ; 27451.3400762298 ; 3490.783587580707 ; 1058374.8040423272 ; 198974.66449210054 ; 13566.000000000002
58 ; 27585.17783509444 ; 3490.783587580707 ; 1085826.144118557 ; 202465.44807968126 ; 13804.000000000002
59 ; 27937.73675263641 ; 3490.783587580707 ; 1113411.3219536515 ; 205956.23166726198 ; 14042.000000000002
60 ; 28159.39376087218 ; 3490.783587580707 ; 1141349.058706288 ; 209447.0152548427 ; 14280.000000000002
61 ; 28026.198427735973 ; 3490.783587580707 ; 1169508.45246716 ; 212937.79884242342 ; 14518.000000000002
62 ; 28416.353991191016 ; 3490.783587580707 ; 1197534.6508948961 ; 216428.58243000414 ; 14756.000000000002
63 ; 28362.591449151514 ; 3490.783587580707 ; 1225951.004886087 ; 219919.36601758486 ; 14994.000000000002
64 ; 28654.58145990687 ; 3490.783587580707 ; 1254313.5963352385 ; 223410.14960516558 ; 15232.000000000002
65 ; 28637.467654321845 ; 3490.783587580707 ; 1282968.1777951454 ; 226900.9331927463 ; 15470.000000000002
66 ; 28958.87526886373 ; 3490.783587580707 ; 1311605.6454494672 ; 230391.71678032703 ; 15708.000000000002
67 ; 28818.938404048142 ; 3490.783587580707 ; 1340564.520718331 ; 233882.50036790775 ; 15946.000000000002
68 ; 29185.15327710401 ; 3490.783587580707 ; 1369383.459122379 ; 237373.28395548847 ; 16184.000000000002
69 ; 29296.29076542515 ; 3490.783587580707 ; 1398568.612399483 ; 240864.0675430692 ; 16422.000000000004
70 ; 29394.532930158573 ; 3490.783587580707 ; 1427864.9031649083 ; 244354.8511306499 ; 16660.000000000004
71 ; 29340.159869741383 ; 3490.783587580707 ; 1457259.4360950668 ; 247845.63471823063 ; 16898.000000000004
72 ; 29291.297534387486 ; 3490.783587580707 ; 1486599.5959648082 ; 251336.41830581136 ; 17136.000000000004
73 ; 29498.778913471004 ; 3490.783587580707 ; 1515890.8934991958 ; 254827.20189339208 ; 17374.000000000004
74 ; 29655.344818553778 ; 3490.783587580707 ; 1545389.6724126667 ; 258317.9854809728 ; 17612.000000000004
75 ; 29639.846485383936 ; 3490.783587580707 ; 1575045.0172312206 ; 261808.76906855352 ; 17850.000000000004
76 ; 29747.748270882916 ; 3490.783587580707 ; 1604684.8637166047 ; 265299.55265613424 ; 18088.000000000004
77 ; 29623.760721433013 ; 3490.783587580707 ; 1634432.6119874876 ; 268790.33624371496 ; 18326.000000000004
78 ; 29731.168299705245 ; 3490.783587580707 ; 1664056.3727089206 ; 272281.1198312957 ; 18564.000000000004
79 ; 29813.34640813325 ; 3490.783587580707 ; 1693787.5410086259 ; 275771.9034188764 ; 18802.000000000004
80 ; 29747.8649642424 ; 3490.783587580707 ; 1723600.887416759 ; 279262.6870064571 ; 19040.000000000004
81 ; 29705.312039197193 ; 3490.783587580707 ; 1753348.7523810014 ; 282753.47059403785 ; 19278.000000000004
82 ; 29917.16378029845 ; 3490.783587580707 ; 1783054.0644201986 ; 286244.25418161857 ; 19516.000000000004
83 ; 29710.1818850041 ; 3490.783587580707 ; 1812971.228200497 ; 289735.0377691993 ; 19754.000000000004
84 ; 29884.93274580413 ; 3490.783587580707 ; 1842681.4100855011 ; 293225.82135678 ; 19992.000000000004
85 ; 29692.60883367107 ; 3490.783587580707 ; 1872566.3428313052 ; 296716.60494436073 ; 20230.000000000004
86 ; 29809.3072734666 ; 3490.783587580707 ; 1902258.9516649763 ; 300207.38853194145 ; 20468.000000000004
87 ; 29781.136663328467 ; 3490.783587580707 ; 1932068.258938443 ; 303698.1721195222 ; 20706.000000000004
88 ; 29772.759688630635 ; 3490.783587580707 ; 1961849.3956017713 ; 307188.9557071029 ; 20944.000000000004
89 ; 29605.589145294092 ; 3490.783587580707 ; 1991622.155290402 ; 310679.7392946836 ; 21182.000000000004
90 ; 29554.2031385648 ; 3490.783587580707 ; 2021227.7444356962 ; 314170.52288226434 ; 21420.000000000004
91 ; 29496.854785196065 ; 3490.783587580707 ; 2050781.9475742609 ; 317661.30646984506 ; 21658.000000000004
92 ; 29400.543684437973 ; 3490.783587580707 ; 2080278.802359457 ; 321152.0900574258 ; 21896.000000000004
93 ; 29480.54111384247 ; 3490.783587580707 ; 2109679.346043895 ; 324642.8736450065 ; 22134.000000000004
94 ; 29478.68840398835 ; 3490.783587580707 ; 2139159.8871577373 ; 328133.6572325872 ; 22372.000000000004
95 ; 29312.515852883043 ; 3490.783587580707 ; 2168638.5755617255 ; 331624.44082016795 ; 22610.000000000004
96 ; 29011.06606400372 ; 3490.783587580707 ; 2197951.0914146085 ; 335115.22440774867 ; 22848.000000000004
97 ; 29082.052153721426 ; 3490.783587580707 ; 2226962.1574786124 ; 338606.0079953294 ; 23086.000000000004
98 ; 29242.147839517762 ; 3490.783587580707 ; 2256044.209632334 ; 342096.7915829101 ; 23324.000000000004
99 ; 28990.063964838864 ; 3490.783587580707 ; 2285286.3574718516 ; 345587.57517049083 ; 23562.000000000004
100 ; 28824.01039282117 ; 3490.783587580707 ; 2314276.4214366907 ; 349078.35875807155 ; 23800.000000000004
101 ; 28464.14229699072 ; 3490.783587580707 ; 2343100.431829512 ; 352569.1423456523 ; 24038.000000000004
102 ; 28450.808362349693 ; 3490.783587580707 ; 2371564.574126503 ; 356059.925933233 ; 24276.000000000004
103 ; 28401.59605740527 ; 3490.783587580707 ; 2400015.382488853 ; 359550.7095208137 ; 24514.000000000004
104 ; 27908.667031563622 ; 3490.783587580707 ; 2428416.978546258 ; 363041.49310839444 ; 24752.000000000004
105 ; 27949.49056332029 ; 3490.783587580707 ; 2456325.645577822 ; 366532.27669597516 ; 24990.000000000004
106 ; 27796.782239491702 ; 3490.783587580707 ; 2484275.1361411423 ; 370023.0602835559 ; 25228.000000000004
107 ; 27636.21678073313 ; 3490.783587580707 ; 2512071.918380634 ; 373513.8438711366 ; 25466.000000000004
108 ; 27561.639362379385 ; 3490.783587580707 ; 2539708.1351613672 ; 377004.6274587173 ; 25704.000000000004
109 ; 27308.794715863773 ; 3490.783587580707 ; 2567269.7745237467 ; 380495.41104629805 ; 25942.000000000004
110 ; 27031.157606701563 ; 3490.783587580707 ; 2594578.5692396103 ; 383986.19463387877 ; 26180.000000000004
111 ; 26893.22461920682 ; 3490.783587580707 ; 2621609.7268463117 ; 387476.9782214595 ; 26418.000000000004
112 ; 26652.05223947056 ; 3490.783587580707 ; 2648502.9514655187 ; 390967.7618090402 ; 26656.000000000004
113 ; 26535.48191025988 ; 3490.783587580707 ; 2675155.0037049893 ; 394458.54539662093 ; 26894.000000000004
114 ; 26290.874125080012 ; 3490.783587580707 ; 2701690.4856152493 ; 397949.32898420165 ; 27132.000000000004
115 ; 26039.65608050831 ; 3490.783587580707 ; 2727981.3597403294 ; 401440.1125717824 ; 27370.000000000004
116 ; 25799.523299157387 ; 3490.783587580707 ; 2754021.0158208376 ; 404930.8961593631 ; 27608.000000000004
117 ; 25540.134877252116 ; 3490.783587580707 ; 2779820.539119995 ; 408421.6797469438 ; 27846.000000000004
118 ; 25369.436676399055 ; 3490.783587580707 ; 2805360.673997247 ; 411912.46333452454 ; 28084.000000000004
119 ; 25175.481819470933 ; 3490.783587580707 ; 2830730.110673646 ; 415403.24692210526 ; 28322.000000000004
120 ; 24872.328000136935 ; 3490.783587580707 ; 2855905.592493117 ; 418894.030509686 ; 28560.000000000004
121 ; 24578.191694218047 ; 3490.783587580707 ; 2880777.920493254 ; 422384.8140972667 ; 28798.000000000004
122 ; 24130.36369784313 ; 3490.783587580707 ; 2905356.112187472 ; 425875.5976848474 ; 29036.000000000004
123 ; 24081.87156504647 ; 3490.783587580707 ; 2929486.4758853153 ; 429366.38127242815 ; 29274.000000000004
124 ; 23820.388039128182 ; 3490.783587580707 ; 2953568.3474503616 ; 432857.16486000887 ; 29512.000000000004
125 ; 23464.215081482012 ; 3490.783587580707 ; 2977388.73548949 ; 436347.9484475896 ; 29750.000000000004
126 ; 23214.004496124668 ; 3490.783587580707 ; 3000852.950570972 ; 439838.7320351703 ; 29988.000000000004
127 ; 22886.640364188872 ; 3490.783587580707 ; 3024066.9550670967 ; 443329.51562275103 ; 30226.000000000004
128 ; 22457.562626014897 ; 3490.783587580707 ; 3046953.5954312854 ; 446820.29921033175 ; 30464.000000000004
129 ; 22304.46429246088 ; 3490.783587580707 ; 3069411.1580573004 ; 450311.0827979125 ; 30702.000000000004
130 ; 21922.31739134078 ; 3490.783587580707 ; 3091715.6223497614 ; 453801.8663854932 ; 30940.000000000004
131 ; 21567.401313659866 ; 3490.783587580707 ; 3113637.939741102 ; 457292.6499730739 ; 31178.000000000004
132 ; 21258.493584708584 ; 3490.783587580707 ; 3135205.341054762 ; 460783.43356065464 ; 31416.000000000004
133 ; 20957.008394414766 ; 3490.783587580707 ; 3156463.8346394706 ; 464274.21714823536 ; 31654.000000000004
134 ; 20407.315791051227 ; 3490.783587580707 ; 3177420.843033885 ; 467765.0007358161 ; 31892.000000000004
135 ; 19969.549172391802 ; 3490.783587580707 ; 3197828.1588249365 ; 471255.7843233968 ; 32130.000000000004
136 ; 19540.214438344257 ; 3490.783587580707 ; 3217797.707997328 ; 474746.5679109775 ; 32368.000000000004
137 ; 19529.31315948297 ; 3490.783587580707 ; 3237337.9224356725 ; 478237.35149855824 ; 32606.000000000004
138 ; 18848.692137884093 ; 3490.783587580707 ; 3256867.2355951555 ; 481728.13508613897 ; 32844.00000000001
139 ; 18498.98689944829 ; 3490.783587580707 ; 3275715.9277330395 ; 485218.9186737197 ; 33082.00000000001
140 ; 18179.471807439284 ; 3490.783587580707 ; 3294214.9146324876 ; 488709.7022613004 ; 33320.00000000001
141 ; 17702.516076406853 ; 3490.783587580707 ; 3312394.386439927 ; 492200.48584888113 ; 33558.00000000001
142 ; 17198.165712968002 ; 3490.783587580707 ; 3330096.902516334 ; 495691.26943646185 ; 33796.00000000001
143 ; 16745.328292726357 ; 3490.783587580707 ; 3347295.068229302 ; 499182.0530240426 ; 34034.00000000001
144 ; 16487.332667478433 ; 3490.783587580707 ; 3364040.3965220284 ; 502672.8366116233 ; 34272.00000000001
145 ; 16195.467856398405 ; 3490.783587580707 ; 3380527.7291895067 ; 506163.620199204 ; 34510.00000000001
146 ; 16242.459050970181 ; 3490.783587580707 ; 3396723.197045905 ; 509654.40378678474 ; 34748.00000000001
147 ; 16110.226078597381 ; 3490.783587580707 ; 3412965.656096875 ; 513145.18737436546 ; 34986.00000000001
148 ; 15854.632064735186 ; 3490.783587580707 ; 3429075.8821754726 ; 516635.9709619462 ; 35224.00000000001
149 ; 15742.87621800713 ; 3490.783587580707 ; 3444930.5142402076 ; 520126.7545495269 ; 35462.00000000001
150 ; 15549.649238961765 ; 3490.783587580707 ; 3460673.3904582146 ; 523617.5381371076 ; 35700.00000000001
151 ; 15377.970366043517 ; 3490.783587580707 ; 3476223.0396971763 ; 527108.3217246883 ; 35938.00000000001
152 ; 15414.19556550828 ; 3490.783587580707 ; 3491601.01006322 ; 530599.105312269 ; 36176.00000000001
153 ; 15234.905625651129 ; 3490.783587580707 ; 3507015.205628728 ; 534089.8888998496 ; 36414.00000000001
154 ; 15154.10790047557 ; 3490.783587580707 ; 3522250.111254379 ; 537580.6724874303 ; 36652.00000000001
155 ; 15064.737538111192 ; 3490.783587580707 ; 3537404.219154855 ; 541071.4560750109 ; 36890.00000000001
156 ; 15024.947471674239 ; 3490.783587580707 ; 3552468.956692966 ; 544562.2396625916 ; 37128.00000000001
157 ; 14670.555816752796 ; 3490.783587580707 ; 3567493.9041646402 ; 548053.0232501723 ; 37366.00000000001
158 ; 14622.16311893481 ; 3490.783587580707 ; 3582164.459981393 ; 551543.8068377529 ; 37604.00000000001
159 ; 14490.484946137256 ; 3490.783587580707 ; 3596786.623100328 ; 555034.5904253336 ; 37842.00000000001
160 ; 14218.654047418813 ; 3490.783587580707 ; 3611277.108046465 ; 558525.3740129143 ; 38080.00000000001
161 ; 13998.844733392607 ; 3490.783587580707 ; 3625495.762093884 ; 562016.1576004949 ; 38318.00000000001
162 ; 14193.119830114461 ; 3490.783587580707 ; 3639494.6068272768 ; 565506.9411880756 ; 38556.00000000001
163 ; 13935.31713283189 ; 3490.783587580707 ; 3653687.726657391 ; 568997.7247756562 ; 38794.00000000001
164 ; 13845.777836531164 ; 3490.783587580707 ; 3667623.043790223 ; 572488.5083632369 ; 39032.00000000001
165 ; 13553.086849032328 ; 3490.783587580707 ; 3681468.821626754 ; 575979.2919508176 ; 39270.00000000001
166 ; 13296.157811745132 ; 3490.783587580707 ; 3695021.9084757864 ; 579470.0755383982 ; 39508.00000000001
167 ; 13092.527761923646 ; 3490.783587580707 ; 3708318.0662875315 ; 582960.8591259789 ; 39746.00000000001
168 ; 12984.109431252698 ; 3490.783587580707 ; 3721410.594049455 ; 586451.6427135596 ; 39984.00000000001
169 ; 12830.336619911035 ; 3490.783587580707 ; 3734394.703480708 ; 589942.4263011402 ; 40222.00000000001
170 ; 12458.518538274295 ; 3490.783587580707 ; 3747225.040100619 ; 593433.2098887209 ; 40460.00000000001
171 ; 12572.823159602978 ; 3490.783587580707 ; 3759683.5586388935 ; 596923.9934763015 ; 40698.00000000001
172 ; 12144.816553145845 ; 3490.783587580707 ; 3772256.3817984965 ; 600414.7770638822 ; 40936.00000000001
173 ; 12172.5936882578 ; 3490.783587580707 ; 3784401.198351642 ; 603905.5606514629 ; 41174.00000000001
174 ; 12297.147147290263 ; 3490.783587580707 ; 3796573.7920399 ; 607396.3442390435 ; 41412.00000000001
175 ; 12048.24555036268 ; 3490.783587580707 ; 3808870.9391871905 ; 610887.1278266242 ; 41650.00000000001
176 ; 12309.121153399541 ; 3490.783587580707 ; 3820919.1847375534 ; 614377.9114142049 ; 41888.00000000001
177 ; 12349.134817824159 ; 3490.783587580707 ; 3833228.3058909527 ; 617868.6950017855 ; 42126.00000000001
178 ; 12382.645176164608 ; 3490.783587580707 ; 3845577.440708777 ; 621359.4785893662 ; 42364.00000000001
179 ; 12345.362813249989 ; 3490.783587580707 ; 3857960.0858849417 ; 624850.2621769469 ; 42602.00000000001
180 ; 12248.749069362722 ; 3490.783587580707 ; 3870305.448698192 ; 628341.0457645275 ; 42840.00000000001
181 ; 12407.855447836986 ; 3490.783587580707 ; 3882554.197767555 ; 631831.8293521082 ; 43078.00000000001
182 ; 12430.788979983212 ; 3490.783587580707 ; 3894962.053215392 ; 635322.6129396888 ; 43316.00000000001
183 ; 12324.789168627574 ; 3490.783587580707 ; 3907392.8421953754 ; 638813.3965272695 ; 43554.00000000001
184 ; 12582.165878502521 ; 3490.783587580707 ; 3919717.631364003 ; 642304.1801148502 ; 43792.00000000001
185 ; 12609.986024587153 ; 3490.783587580707 ; 3932299.7972425055 ; 645794.9637024308 ; 44030.00000000001
186 ; 12713.32432873325 ; 3490.783587580707 ; 3944909.7832670924 ; 649285.7472900115 ; 44268.00000000001
