CSV File for the City 3 on Day 259
1 - Minute m 
2 - Power Consumed at minute m 
3 - Power Produced at minute m 
4 - Energy Consumed since the beginning of the day 
5 - Energy Produced since the beginning of the day 
6 - Energy Lost since the beginning of the day on lines starting from the city
 
0 ; 5092.8074897584265 ; 77489.69841085307 ; 0.0 ; 0.0 ; 0.0
1 ; 5598.681543215781 ; 77132.10533110773 ; 5092.8074897584265 ; 77489.69841085307 ; 0.0
2 ; 6107.564361058609 ; 76810.66888799859 ; 10691.489032974208 ; 154621.8037419608 ; 0.0
3 ; 6216.404411351866 ; 76525.8693171868 ; 16799.053394032817 ; 231432.47262995937 ; 0.0
4 ; 6549.458881042459 ; 76278.13879251736 ; 23015.45780538468 ; 307958.34194714617 ; 0.0
5 ; 6913.927707527727 ; 76067.85843222578 ; 29564.91668642714 ; 384236.48073966353 ; 0.0
6 ; 7360.166757395497 ; 75895.35559447958 ; 36478.84439395487 ; 460304.3391718893 ; 0.0
7 ; 7870.969316496967 ; 75760.90150596629 ; 43839.011151350365 ; 536199.6947663688 ; 0.0
8 ; 8185.6411350416365 ; 75664.70926301426 ; 51709.98046784733 ; 611960.5962723352 ; 0.0
9 ; 8702.916043435684 ; 75606.9322393568 ; 59895.62160288897 ; 687625.3055353494 ; 0.0
10 ; 8941.83741419077 ; 75587.66292824602 ; 68598.53764632465 ; 763232.2377747062 ; 0.0
11 ; 9342.76847485687 ; 75606.9322393568 ; 77540.37506051542 ; 838819.9007029522 ; 0.0
12 ; 9624.392170475132 ; 75664.70926301426 ; 86883.14353537229 ; 914426.832942309 ; 0.0
13 ; 10002.38879255669 ; 75760.90150596629 ; 96507.53570584742 ; 990091.5422053232 ; 0.0
14 ; 10391.949119712834 ; 75895.35559447952 ; 106509.92449840411 ; 1065852.4437112894 ; 0.0
15 ; 10711.811138892464 ; 76067.85843222578 ; 116901.87361811695 ; 1141747.799305769 ; 0.0
16 ; 10961.645972000428 ; 76278.13879251736 ; 127613.68475700941 ; 1217815.6577379948 ; 0.0
17 ; 11473.260943380434 ; 76525.86931718675 ; 138575.33072900985 ; 1294093.7965305122 ; 0.0
18 ; 11605.041768527994 ; 76810.66888799865 ; 150048.5916723903 ; 1370619.665847699 ; 0.0
19 ; 11979.138362608162 ; 77132.10533110767 ; 161653.6334409183 ; 1447430.3347356976 ; 0.0
20 ; 12348.469996344716 ; 77489.69841085313 ; 173632.77180352644 ; 1524562.4400668053 ; 0.0
21 ; 12589.833674328189 ; 77882.92306618566 ; 185981.24179987115 ; 1602052.1384776584 ; 0.0
22 ; 12870.080656166308 ; 78311.21284127246 ; 198571.07547419934 ; 1679935.061543844 ; 0.0
23 ; 13159.406970587828 ; 78773.96346129771 ; 211441.15613036565 ; 1758246.2743851163 ; 0.0
24 ; 13460.709877277168 ; 79270.53650508916 ; 224600.56310095347 ; 1837020.237846414 ; 0.0
25 ; 13814.444254379338 ; 79800.26312785591 ; 238061.27297823064 ; 1916290.7743515032 ; 0.0
26 ; 13962.853312568184 ; 80362.44778987422 ; 251875.71723260998 ; 1996091.0374793592 ; 0.0
27 ; 14267.886421797053 ; 80956.37195025543 ; 265838.57054517814 ; 2076453.4852692334 ; 0.0
28 ; 14611.474952194572 ; 81581.29768880215 ; 280106.4569669752 ; 2157409.857219489 ; 0.0
29 ; 14766.559439089908 ; 82236.47122324434 ; 294717.9319191697 ; 2238991.154908291 ; 0.0
30 ; 15041.196583838302 ; 82921.12629367596 ; 309484.49135825963 ; 2321227.6261315355 ; 0.0
31 ; 15362.498846874736 ; 83634.48739064271 ; 324525.68794209795 ; 2404148.7524252115 ; 0.0
32 ; 15582.070473298163 ; 84375.77280792363 ; 339888.1867889727 ; 2487783.239815854 ; 0.0
33 ; 15811.663584767353 ; 85144.19750549132 ; 355470.25726227084 ; 2572159.0126237776 ; 0.0
34 ; 16130.435367303413 ; 85938.975772334 ; 371281.9208470382 ; 2657303.210129269 ; 0.0
35 ; 16239.124849682054 ; 86759.32368270702 ; 387412.35621434165 ; 2743242.1859016027 ; 0.0
36 ; 16554.665704481413 ; 87604.46134289677 ; 403651.4810640237 ; 2830001.5095843095 ; 0.0
37 ; 16885.738561908394 ; 88473.61492869876 ; 420206.1467685051 ; 2917605.9709272063 ; 0.0
38 ; 17088.353365273822 ; 89366.01851651639 ; 437091.88533041347 ; 3006079.585855905 ; 0.0
39 ; 17237.419735593918 ; 90280.91571327654 ; 454180.23869568727 ; 3095445.6043724213 ; 0.0
40 ; 17193.78248677946 ; 91217.56109224528 ; 471417.65843128116 ; 3185726.520085698 ; 0.0
41 ; 17603.89547175694 ; 92175.22144333352 ; 488611.4409180606 ; 3276944.0811779434 ; 0.0
42 ; 17883.231413750138 ; 93153.17684763116 ; 506215.33638981753 ; 3369119.302621277 ; 0.0
43 ; 17961.962099447064 ; 94150.72158673946 ; 524098.5678035677 ; 3462272.479468908 ; 0.0
44 ; 18152.327102368483 ; 95167.16489801096 ; 542060.5299030148 ; 3556423.201055648 ; 0.0
45 ; 18390.227474746378 ; 96201.83158709848 ; 560212.8570053832 ; 3651590.3659536587 ; 0.0
46 ; 18444.777919013042 ; 97254.06250928974 ; 578603.0844801296 ; 3747792.1975407572 ; 0.0
47 ; 18761.645936009834 ; 98323.21493099877 ; 597047.8623991427 ; 3845046.260050047 ; 0.0
48 ; 18973.84009961611 ; 99408.66278253282 ; 615809.5083351525 ; 3943369.474981046 ; 0.0
49 ; 19119.698081756127 ; 100509.79681288173 ; 634783.3484347686 ; 4042778.1377635784 ; 0.0
50 ; 19258.429361398237 ; 101626.02465681436 ; 653903.0465165247 ; 4143287.93457646 ; 0.0
51 ; 19453.939501204775 ; 102756.77082403496 ; 673161.475877923 ; 4244913.959233275 ; 0.0
52 ; 19548.839607335743 ; 103901.476619579 ; 692615.4153791277 ; 4347670.730057309 ; 0.0
53 ; 19713.487923213153 ; 105059.60000401788 ; 712164.2549864635 ; 4451572.206676888 ; 0.0
54 ; 19824.91884713646 ; 106230.61540142722 ; 731877.7429096766 ; 4556631.806680907 ; 0.0
55 ; 19928.769810765512 ; 107414.01346244915 ; 751702.6617568131 ; 4662862.422082334 ; 0.0
56 ; 20107.053830311965 ; 108609.30078917071 ; 771631.4315675786 ; 4770276.435544783 ; 0.0
57 ; 20233.354548161205 ; 109815.99962794197 ; 791738.4853978906 ; 4878885.736333954 ; 0.0
58 ; 20464.844169578235 ; 111033.64753568718 ; 811971.8399460517 ; 4988701.735961896 ; 0.0
59 ; 20419.047001638857 ; 112261.79702471626 ; 832436.68411563 ; 5099735.383497584 ; 0.0
60 ; 20595.2094829599 ; 113500.01519052914 ; 852855.7311172688 ; 5211997.1805223 ; 0.0
61 ; 20786.181089129994 ; 114747.88332662254 ; 873450.9406002287 ; 5325497.195712829 ; 0.0
62 ; 20808.31555701151 ; 116004.99652985903 ; 894237.1216893587 ; 5440245.079039452 ; 0.0
63 ; 21081.61928256506 ; 117270.96329954296 ; 915045.4372463702 ; 5556250.075569311 ; 0.0
64 ; 21041.965152481265 ; 118545.40513296456 ; 936127.0565289353 ; 5673521.038868854 ; 0.0
65 ; 21098.691303713666 ; 119827.95611982256 ; 957169.0216814165 ; 5792066.444001818 ; 0.0
66 ; 21275.952463410435 ; 121118.26253761754 ; 978267.7129851303 ; 5911894.40012164 ; 0.0
67 ; 21270.858479863968 ; 122415.9824498168 ; 999543.6654485407 ; 6033012.662659258 ; 0.0
68 ; 21403.848689067603 ; 123720.78530833161 ; 1020814.5239284047 ; 6155428.645109074 ; 0.0
69 ; 21485.55379799557 ; 125032.3515616111 ; 1042218.3726174723 ; 6279149.430417405 ; 0.0
70 ; 21428.757161920385 ; 126350.37226944625 ; 1063703.9264154679 ; 6404181.781979017 ; 0.0
71 ; 21636.919440048052 ; 127674.54872539037 ; 1085132.6835773883 ; 6530532.154248463 ; 0.0
72 ; 21748.24692581702 ; 129004.59208753341 ; 1106769.6030174363 ; 6658206.702973854 ; 0.0
73 ; 21663.857151306853 ; 130340.22301822148 ; 1128517.8499432534 ; 6787211.295061387 ; 0.0
74 ; 21783.506590693032 ; 131681.1713331804 ; 1150181.7070945604 ; 6917551.518079609 ; 0.0
75 ; 21734.082270416453 ; 133027.17566038854 ; 1171965.2136852534 ; 7049232.689412789 ; 0.0
76 ; 21832.07674088126 ; 134377.98310894435 ; 1193699.2959556698 ; 7182259.865073178 ; 0.0
77 ; 21645.79869011927 ; 135733.3489480852 ; 1215531.372696551 ; 7316637.848182122 ; 0.0
78 ; 21962.720415193544 ; 137093.03629644075 ; 1237177.1713866703 ; 7452371.197130207 ; 0.0
79 ; 21793.656466919696 ; 138456.8158215368 ; 1259139.891801864 ; 7589464.233426647 ; 0.0
80 ; 21853.599720971273 ; 139824.46544951235 ; 1280933.5482687836 ; 7727921.049248184 ; 0.0
81 ; 22115.09489964856 ; 141195.7700849626 ; 1302787.1479897548 ; 7867745.514697696 ; 0.0
82 ; 22014.134437322722 ; 142570.5213407836 ; 1324902.2428894034 ; 8008941.284782658 ; 0.0
83 ; 21740.595141111677 ; 143948.51727785866 ; 1346916.377326726 ; 8151511.806123442 ; 0.0
84 ; 21891.835199769535 ; 145329.5621544002 ; 1368656.9724678376 ; 8295460.3234013 ; 0.0
85 ; 21724.06073154526 ; 146713.46618473914 ; 1390548.8076676072 ; 8440789.885555701 ; 0.0
86 ; 21743.01256167154 ; 148100.04530733335 ; 1412272.8683991525 ; 8587503.35174044 ; 0.0
87 ; 21777.85652272006 ; 149489.1209617567 ; 1434015.880960824 ; 8735603.397047773 ; 0.0
88 ; 21867.027316948133 ; 150880.51987441536 ; 1455793.737483544 ; 8885092.51800953 ; 0.0
89 ; 21779.840268860793 ; 152274.07385273435 ; 1477660.7648004922 ; 9035973.037883945 ; 0.0
90 ; 21776.942175798096 ; 153669.61958754944 ; 1499440.605069353 ; 9188247.11173668 ; 0.0
91 ; 21540.919339511296 ; 155066.99846343798 ; 1521217.5472451511 ; 9341916.73132423 ; 0.0
92 ; 21663.729876552996 ; 156466.05637672142 ; 1542758.4665846624 ; 9496983.729787668 ; 0.0
93 ; 21509.099595776017 ; 157866.64356087247 ; 1564422.1964612154 ; 9653449.78616439 ; 0.0
94 ; 21535.477203505267 ; 159268.61441906155 ; 1585931.2960569914 ; 9811316.429725263 ; 0.0
95 ; 21639.9745181048 ; 160671.82736358172 ; 1607466.7732604968 ; 9970585.044144325 ; 0.0
96 ; 21252.40494969366 ; 162076.14466189392 ; 1629106.7477786015 ; 1.0131256871507907E7 ; 0.0
97 ; 21297.40995179951 ; 163481.43228903992 ; 1650359.1527282952 ; 1.0293333016169801E7 ; 0.0
98 ; 21190.327621563185 ; 164887.55978617579 ; 1671656.5626800947 ; 1.0456814448458841E7 ; 0.0
99 ; 21144.56130619836 ; 166294.40012498506 ; 1692846.8903016578 ; 1.0621702008245017E7 ; 0.0
100 ; 21067.94771768166 ; 167701.82957773635 ; 1713991.4516078562 ; 1.0787996408370003E7 ; 0.0
101 ; 20993.03203901829 ; 169109.72759275814 ; 1735059.399325538 ; 1.095569823794774E7 ; 0.0
102 ; 20895.895494503315 ; 170517.97667510872 ; 1756052.4313645563 ; 1.1124807965540498E7 ; 0.0
103 ; 20854.631207967057 ; 171926.46227222827 ; 1776948.3268590595 ; 1.1295325942215607E7 ; 0.0
104 ; 20680.776712609095 ; 173335.07266436497 ; 1797802.9580670265 ; 1.1467252404487835E7 ; 0.0
105 ; 20653.958060585475 ; 174743.6988595767 ; 1818483.7347796354 ; 1.16405874771522E7 ; 0.0
106 ; 20390.05074124352 ; 176152.234493115 ; 1839137.6928402209 ; 1.1815331176011777E7 ; 0.0
107 ; 20351.18439883458 ; 177560.57573100567 ; 1859527.7435814643 ; 1.1991483410504892E7 ; 0.0
108 ; 20311.230015510133 ; 178968.6211776477 ; 1879878.9279802989 ; 1.2169043986235898E7 ; 0.0
109 ; 20098.59857502484 ; 180376.27178725906 ; 1900190.157995809 ; 1.2348012607413545E7 ; 0.0
110 ; 20014.700550782425 ; 181783.430779004 ; 1920288.756570834 ; 1.2528388879200805E7 ; 0.0
111 ; 19734.692082823727 ; 183190.00355564387 ; 1940303.4571216165 ; 1.271017230997981E7 ; 0.0
112 ; 19480.68349287504 ; 184595.8976255593 ; 1960038.1492044402 ; 1.2893362313535454E7 ; 0.0
113 ; 19469.55009140854 ; 186001.02252799852 ; 1979518.8326973151 ; 1.3077958211161014E7 ; 0.0
114 ; 19284.49298421031 ; 187405.2897614112 ; 1998988.3827887236 ; 1.3263959233689012E7 ; 0.0
115 ; 19153.62247945841 ; 188808.61271473556 ; 2018272.875772934 ; 1.3451364523450423E7 ; 0.0
116 ; 19195.288726135277 ; 190210.9066015093 ; 2037426.4982523923 ; 1.3640173136165159E7 ; 0.0
117 ; 18888.217155518298 ; 191612.08839668272 ; 2056621.7869785277 ; 1.3830384042766668E7 ; 0.0
118 ; 18708.361547048342 ; 193012.07677601578 ; 2075510.004134046 ; 1.4021996131163351E7 ; 0.0
119 ; 18513.690314300275 ; 194410.79205794836 ; 2094218.3656810944 ; 1.4215008207939368E7 ; 0.0
120 ; 18512.23526890556 ; 195808.15614783473 ; 2112732.0559953945 ; 1.4409418999997316E7 ; 0.0
121 ; 18290.000999582808 ; 197204.09248444086 ; 2131244.2912643002 ; 1.460522715614515E7 ; 0.0
122 ; 17889.66300714301 ; 198598.52598860604 ; 2149534.292263883 ; 1.480243124862959E7 ; 0.0
123 ; 17783.8696074821 ; 199991.38301397493 ; 2167423.955271026 ; 1.5001029774618197E7 ; 0.0
124 ; 17719.739677961017 ; 201382.59129971097 ; 2185207.824878508 ; 1.5201021157632172E7 ; 0.0
125 ; 17299.008852036164 ; 202772.07992510512 ; 2202927.564556469 ; 1.5402403748931883E7 ; 0.0
126 ; 16965.892951572267 ; 204159.77926599828 ; 2220226.5734085054 ; 1.5605175828856988E7 ; 0.0
127 ; 16928.338449984556 ; 205545.62095293947 ; 2237192.4663600777 ; 1.5809335608122986E7 ; 0.0
128 ; 16696.837520776375 ; 206929.53783100503 ; 2254120.804810062 ; 1.6014881229075925E7 ; 0.0
129 ; 16379.005675517983 ; 208311.46392120782 ; 2270817.6423308384 ; 1.622181076690693E7 ; 0.0
130 ; 16138.738799002102 ; 209691.33438342751 ; 2287196.6480063563 ; 1.6430122230828138E7 ; 0.0
131 ; 15895.190407589263 ; 211069.0854807987 ; 2303335.3868053583 ; 1.6639813565211566E7 ; 0.0
132 ; 15945.106962069141 ; 212444.65454549287 ; 2319230.5772129474 ; 1.6850882650692366E7 ; 0.0
133 ; 15448.550542914227 ; 213817.97994583604 ; 2335175.6841750164 ; 1.706332730523786E7 ; 0.0
134 ; 15036.425694268704 ; 215189.00105470547 ; 2350624.2347179307 ; 1.7277145285183694E7 ; 0.0
135 ; 15074.899774296933 ; 216557.65821915094 ; 2365660.6604121993 ; 1.74923342862384E7 ; 0.0
136 ; 14692.618451494931 ; 217923.89273118903 ; 2380735.5601864965 ; 1.770889194445755E7 ; 0.0
137 ; 14511.902791192655 ; 219287.6467997215 ; 2395428.178637991 ; 1.792681583718874E7 ; 0.0
138 ; 14169.860475592057 ; 220648.8635235301 ; 2409940.081429184 ; 1.814610348398846E7 ; 0.0
139 ; 13788.944831419854 ; 222007.4868653034 ; 2424109.941904776 ; 1.836675234751199E7 ; 0.0
140 ; 13523.527557148565 ; 223363.461626652 ; 2437898.8867361955 ; 1.8588759834377296E7 ; 0.0
141 ; 13340.013711401049 ; 224716.73342407157 ; 2451422.414293344 ; 1.881212329600395E7 ; 0.0
142 ; 12971.394312762568 ; 226067.24866581435 ; 2464762.4280047454 ; 1.903684002942802E7 ; 0.0
143 ; 12736.87932583504 ; 227414.95452963156 ; 2477733.822317508 ; 1.9262907278093833E7 ; 0.0
144 ; 12326.307126634014 ; 228759.79894135077 ; 2490470.701643343 ; 1.9490322232623465E7 ; 0.0
145 ; 12293.937181340427 ; 230101.7305542544 ; 2502797.008769977 ; 1.9719082031564817E7 ; 0.0
146 ; 12325.104365869507 ; 231440.69872922622 ; 2515090.9459513174 ; 1.994918376211907E7 ; 0.0
147 ; 12340.694446873706 ; 232776.65351563453 ; 2527416.050317187 ; 2.0180624460848294E7 ; 0.0
148 ; 12200.763152916195 ; 234109.54563292296 ; 2539756.7447640607 ; 2.0413401114363927E7 ; 0.0
149 ; 11988.467446420247 ; 235439.3264528791 ; 2551957.5079169767 ; 2.064751065999685E7 ; 0.0
150 ; 11859.741491859728 ; 236765.9479825541 ; 2563945.975363397 ; 2.0882949986449726E7 ; 0.0
151 ; 11980.355377641325 ; 238089.3628478078 ; 2575805.716855257 ; 2.111971593443228E7 ; 0.0
152 ; 11821.908107364488 ; 239409.5242774536 ; 2587786.0722328983 ; 2.1357805297280088E7 ; 0.0
153 ; 11493.762958575424 ; 240726.3860879787 ; 2599607.980340263 ; 2.159721482155754E7 ; 0.0
154 ; 11373.037706248719 ; 242039.90266881842 ; 2611101.7432988384 ; 2.183794120764552E7 ; 0.0
155 ; 11503.675566564018 ; 243350.02896816135 ; 2622474.7810050873 ; 2.207998111031434E7 ; 0.0
156 ; 11487.397310315757 ; 244656.72047926477 ; 2633978.456571651 ; 2.2323331139282502E7 ; 0.0
157 ; 11214.188659992322 ; 245959.93322726045 ; 2645465.853881967 ; 2.2567987859761767E7 ; 0.0
158 ; 11038.760534129528 ; 247259.62375643157 ; 2656680.0425419593 ; 2.2813947792989027E7 ; 0.0
159 ; 10882.308517773157 ; 248555.74911794244 ; 2667718.803076089 ; 2.3061207416745458E7 ; 0.0
160 ; 10871.168221317372 ; 249848.26685800336 ; 2678601.111593862 ; 2.33097631658634E7 ; 0.0
161 ; 10868.330126637862 ; 251137.13500645346 ; 2689472.2798151793 ; 2.3559611432721402E7 ; 0.0
162 ; 10599.416561755108 ; 252422.31206574632 ; 2700340.6099418174 ; 2.3810748567727856E7 ; 0.0
163 ; 10704.354240670003 ; 253703.75700032205 ; 2710940.0265035722 ; 2.4063170879793603E7 ; 0.0
164 ; 10422.356580724589 ; 254981.42922635112 ; 2721644.380744242 ; 2.4316874636793926E7 ; 0.0
165 ; 10306.211700901904 ; 256255.28860183654 ; 2732066.7373249666 ; 2.4571856066020276E7 ; 0.0
166 ; 10099.165049726682 ; 257525.29541705956 ; 2742372.9490258684 ; 2.4828111354622114E7 ; 0.0
167 ; 10080.754389879803 ; 258791.41038535742 ; 2752472.114075595 ; 2.5085636650039174E7 ; 0.0
168 ; 10020.17348845203 ; 260053.59463421884 ; 2762552.868465475 ; 2.5344428060424533E7 ; 0.0
169 ; 9818.5986148999 ; 261311.809696687 ; 2772573.041953927 ; 2.5604481655058753E7 ; 0.0
170 ; 9816.675799712895 ; 262566.0175030576 ; 2782391.640568827 ; 2.586579346475544E7 ; 0.0
171 ; 9623.966984966097 ; 263816.180372861 ; 2792208.31636854 ; 2.6128359482258495E7 ; 0.0
172 ; 9482.670767205807 ; 265062.2610071184 ; 2801832.283353506 ; 2.6392175662631355E7 ; 0.0
173 ; 9444.329999093428 ; 266304.2224808615 ; 2811314.954120712 ; 2.6657237923638474E7 ; 0.0
174 ; 9297.913881537024 ; 267542.02823590615 ; 2820759.2841198053 ; 2.6923542146119338E7 ; 0.0
175 ; 9428.64829413672 ; 268775.64207387035 ; 2830057.1980013424 ; 2.7191084174355242E7 ; 0.0
176 ; 9306.808430555106 ; 270005.0281494283 ; 2839485.846295479 ; 2.7459859816429112E7 ; 0.0
177 ; 9519.540523203112 ; 271230.15096379106 ; 2848792.6547260345 ; 2.772986484457854E7 ; 0.0
178 ; 9622.836816825169 ; 272450.97535840655 ; 2858312.1952492376 ; 2.8001094995542333E7 ; 0.0
179 ; 9669.532858210534 ; 273667.46650887025 ; 2867935.0320660626 ; 2.827354597090074E7 ; 0.0
180 ; 9592.372505170068 ; 274879.58991903916 ; 2877604.564924273 ; 2.854721343740961E7 ; 0.0
181 ; 9672.649508755783 ; 276087.31141534174 ; 2887196.9374294435 ; 2.8822093027328648E7 ; 0.0
182 ; 9580.785117389776 ; 277290.5971412771 ; 2896869.586938199 ; 2.909818033874399E7 ; 0.0
183 ; 9609.96045355025 ; 278489.41355209675 ; 2906450.3720555888 ; 2.9375470935885265E7 ; 0.0
184 ; 9649.719178054262 ; 279683.7274096611 ; 2916060.332509139 ; 2.9653960349437363E7 ; 0.0
185 ; 9706.994646394329 ; 280873.5057774672 ; 2925710.0516871936 ; 2.9933644076847024E7 ; 0.0
186 ; 9610.971353453158 ; 282058.7160158386 ; 2935417.0463335877 ; 3.021451758262449E7 ; 0.0
187 ; 9665.703095014258 ; 283239.3257772741 ; 2945028.017687041 ; 3.049657629864033E7 ; 0.0
188 ; 9764.560045478796 ; 284415.3030019484 ; 2954693.720782055 ; 3.0779815624417603E7 ; 0.0
189 ; 9846.40309311109 ; 285586.61591335986 ; 2964458.280827534 ; 3.106423092741955E7 ; 0.0
190 ; 9873.41895622222 ; 286753.23301412084 ; 2974304.683920645 ; 3.1349817543332912E7 ; 0.0
191 ; 9811.576055185848 ; 287915.12308188406 ; 2984178.102876867 ; 3.1636570776347034E7 ; 0.0
192 ; 9871.572961931925 ; 289072.25516540196 ; 2993989.678932053 ; 3.192448589942892E7 ; 0.0
193 ; 9897.590656945209 ; 290224.5985807139 ; 3003861.251893985 ; 3.221355815459432E7 ; 0.0
194 ; 9971.53521964514 ; 291372.1229074563 ; 3013758.84255093 ; 3.2503782753175035E7 ; 0.0
195 ; 9915.493522930037 ; 292514.7979852924 ; 3023730.377770575 ; 3.279515487608249E7 ; 0.0
196 ; 9920.253513947111 ; 293652.59391045687 ; 3033645.871293505 ; 3.3087669674067784E7 ; 0.0
197 ; 10021.97227830995 ; 294785.4810324121 ; 3043566.1248074523 ; 3.338132226797824E7 ; 0.0
198 ; 9833.370049470339 ; 295913.4299506112 ; 3053588.0970857623 ; 3.367610774901065E7 ; 0.0
199 ; 10150.915146369944 ; 297036.4115113658 ; 3063421.467135233 ; 3.397202117896126E7 ; 0.0
200 ; 9946.864743404 ; 298154.3968048136 ; 3073572.382281603 ; 3.426905759047263E7 ; 0.0
201 ; 10140.12080757265 ; 299267.3571619826 ; 3083519.247025007 ; 3.456721198727745E7 ; 0.0
202 ; 10277.24070381681 ; 300375.2641519509 ; 3093659.3678325796 ; 3.486647934443943E7 ; 0.0
203 ; 10099.588257588115 ; 301478.08957909443 ; 3103936.6085363966 ; 3.5166854608591385E7 ; 0.0
204 ; 10073.698538335291 ; 302575.80548042466 ; 3114036.1967939846 ; 3.546833269817048E7 ; 0.0
205 ; 10088.865216020911 ; 303668.38412301015 ; 3124109.89533232 ; 3.577090850365091E7 ; 0.0
206 ; 10191.025725093994 ; 304755.79800148006 ; 3134198.760548341 ; 3.607457688777392E7 ; 0.0
207 ; 10225.760659323108 ; 305838.019835607 ; 3144389.786273435 ; 3.637933268577541E7 ; 0.0
208 ; 10259.894576302146 ; 306915.0225679669 ; 3154615.5469327583 ; 3.668517070561101E7 ; 0.0
209 ; 10183.872430964317 ; 307986.77936167235 ; 3164875.4415090606 ; 3.699208572817898E7 ; 0.0
210 ; 10317.132732003944 ; 309053.2635981788 ; 3175059.313940025 ; 3.730007250754065E7 ; 0.0
211 ; 10299.872665173332 ; 310114.44887515926 ; 3185376.446672029 ; 3.760912577113883E7 ; 0.0
212 ; 10190.635694729566 ; 311170.3090044465 ; 3195676.3193372022 ; 3.791924022001399E7 ; 0.0
