CSV File for the City 2 on Day 219
1 - Minute m 
2 - Power Consumed at minute m 
3 - Power Produced at minute m 
4 - Energy Consumed since the beginning of the day 
5 - Energy Produced since the beginning of the day 
6 - Energy Lost since the beginning of the day on lines starting from the city
 
0 ; 4631.035979747836 ; 34258.62402086057 ; 0.0 ; 0.0 ; 0.0
1 ; 5141.957284561468 ; 34258.62402086057 ; 4631.035979747836 ; 34258.62402086057 ; 0.0
2 ; 5699.646078946191 ; 34258.62402086057 ; 9772.993264309305 ; 68517.24804172113 ; 0.0
3 ; 6197.401758337291 ; 34258.62402086057 ; 15472.639343255496 ; 102775.87206258171 ; 0.0
4 ; 6867.440271751075 ; 34258.62402086057 ; 21670.041101592786 ; 137034.49608344227 ; 0.0
5 ; 7507.377661878282 ; 34258.62402086057 ; 28537.48137334386 ; 171293.12010430283 ; 0.0
6 ; 8055.372147840677 ; 34258.62402086057 ; 36044.85903522214 ; 205551.7441251634 ; 0.0
7 ; 8593.638872396068 ; 34258.62402086057 ; 44100.23118306282 ; 239810.36814602395 ; 0.0
8 ; 9033.587571887347 ; 34258.62402086057 ; 52693.87005545889 ; 274068.99216688453 ; 0.0
9 ; 9606.111122761118 ; 34258.62402086057 ; 61727.45762734623 ; 308327.6161877451 ; 0.0
10 ; 10015.674798837783 ; 34258.62402086057 ; 71333.56875010734 ; 342586.2402086057 ; 0.0
11 ; 10583.930419189994 ; 34258.62402086057 ; 81349.24354894512 ; 376844.8642294663 ; 0.0
12 ; 11045.242346650086 ; 34258.62402086057 ; 91933.17396813512 ; 411103.4882503269 ; 0.0
13 ; 11500.151100026134 ; 34258.62402086057 ; 102978.41631478521 ; 445362.1122711875 ; 0.0
14 ; 12178.96382997537 ; 34258.62402086057 ; 114478.56741481135 ; 479620.73629204807 ; 0.0
15 ; 12643.493732964218 ; 34258.62402086057 ; 126657.53124478672 ; 513879.36031290866 ; 0.0
16 ; 13106.820272002564 ; 34258.62402086057 ; 139301.02497775093 ; 548137.9843337692 ; 0.0
17 ; 13393.896267925506 ; 34258.62402086057 ; 152407.8452497535 ; 582396.6083546297 ; 0.0
18 ; 13789.093847029362 ; 34258.62402086057 ; 165801.741517679 ; 616655.2323754902 ; 0.0
19 ; 14248.551174522065 ; 34258.62402086057 ; 179590.8353647084 ; 650913.8563963508 ; 0.0
20 ; 14674.335572968681 ; 34258.62402086057 ; 193839.38653923044 ; 685172.4804172113 ; 0.0
21 ; 15161.629840682384 ; 34258.62402086057 ; 208513.72211219912 ; 719431.1044380718 ; 0.0
22 ; 15744.318158325828 ; 34258.62402086057 ; 223675.3519528815 ; 753689.7284589324 ; 0.0
23 ; 16154.266437990103 ; 34258.62402086057 ; 239419.67011120732 ; 787948.3524797929 ; 0.0
24 ; 16558.88765653847 ; 34258.62402086057 ; 255573.93654919742 ; 822206.9765006534 ; 0.0
25 ; 16663.78625821816 ; 34258.62402086057 ; 272132.8242057359 ; 856465.600521514 ; 0.0
26 ; 17265.549009282164 ; 34258.62402086057 ; 288796.61046395404 ; 890724.2245423745 ; 0.0
27 ; 17790.16180030731 ; 34258.62402086057 ; 306062.1594732362 ; 924982.848563235 ; 0.0
28 ; 17942.42076093879 ; 34258.62402086057 ; 323852.3212735435 ; 959241.4725840956 ; 0.0
29 ; 18634.822390210287 ; 34258.62402086057 ; 341794.7420344823 ; 993500.0966049561 ; 0.0
30 ; 18758.2990526525 ; 34258.62402086057 ; 360429.5644246926 ; 1027758.7206258166 ; 0.0
31 ; 19169.208278725353 ; 34258.62402086057 ; 379187.8634773451 ; 1062017.3446466771 ; 0.0
32 ; 19542.24284212468 ; 34258.62402086057 ; 398357.0717560704 ; 1096275.9686675377 ; 0.0
33 ; 19904.88143844283 ; 34258.62402086057 ; 417899.3145981951 ; 1130534.5926883982 ; 0.0
34 ; 20174.77195472193 ; 34258.62402086057 ; 437804.19603663794 ; 1164793.2167092587 ; 0.0
35 ; 20643.201400889113 ; 34258.62402086057 ; 457978.9679913599 ; 1199051.8407301193 ; 0.0
36 ; 20980.138381483783 ; 34258.62402086057 ; 478622.16939224896 ; 1233310.4647509798 ; 0.0
37 ; 21236.153473523038 ; 34258.62402086057 ; 499602.30777373275 ; 1267569.0887718403 ; 0.0
38 ; 21573.659442724616 ; 34258.62402086057 ; 520838.4612472558 ; 1301827.7127927009 ; 0.0
39 ; 21831.736574717677 ; 34258.62402086057 ; 542412.1206899805 ; 1336086.3368135614 ; 0.0
40 ; 22140.989183062786 ; 34258.62402086057 ; 564243.8572646981 ; 1370344.960834422 ; 0.0
41 ; 22436.51480019487 ; 34258.62402086057 ; 586384.8464477609 ; 1404603.5848552824 ; 0.0
42 ; 22813.188124262775 ; 34258.62402086057 ; 608821.3612479558 ; 1438862.208876143 ; 0.0
43 ; 22941.315357855696 ; 34258.62402086057 ; 631634.5493722185 ; 1473120.8328970035 ; 0.0
44 ; 23198.94282653537 ; 34258.62402086057 ; 654575.8647300743 ; 1507379.456917864 ; 0.0
45 ; 23534.008768851607 ; 34258.62402086057 ; 677774.8075566096 ; 1541638.0809387246 ; 0.0
46 ; 23698.56121949433 ; 34258.62402086057 ; 701308.8163254613 ; 1575896.704959585 ; 0.0
47 ; 23986.82019034628 ; 34258.62402086057 ; 725007.3775449556 ; 1610155.3289804456 ; 0.0
48 ; 24352.90380332195 ; 34258.62402086057 ; 748994.1977353019 ; 1644413.9530013062 ; 0.0
49 ; 24504.575754985617 ; 34258.62402086057 ; 773347.1015386239 ; 1678672.5770221667 ; 0.0
50 ; 24731.322340635972 ; 34258.62402086057 ; 797851.6772936095 ; 1712931.2010430272 ; 0.0
51 ; 24969.835233448528 ; 34258.62402086057 ; 822582.9996342454 ; 1747189.8250638878 ; 0.0
52 ; 25204.733726554332 ; 34258.62402086057 ; 847552.834867694 ; 1781448.4490847483 ; 0.0
53 ; 25473.091788451256 ; 34258.62402086057 ; 872757.5685942483 ; 1815707.0731056088 ; 0.0
54 ; 25594.293049438496 ; 34258.62402086057 ; 898230.6603826996 ; 1849965.6971264693 ; 0.0
55 ; 25821.006888586937 ; 34258.62402086057 ; 923824.9534321381 ; 1884224.3211473299 ; 0.0
56 ; 26021.94026349539 ; 34258.62402086057 ; 949645.960320725 ; 1918482.9451681904 ; 0.0
57 ; 26179.01717142008 ; 34258.62402086057 ; 975667.9005842204 ; 1952741.569189051 ; 0.0
58 ; 26374.616717315974 ; 34258.62402086057 ; 1001846.9177556405 ; 1987000.1932099115 ; 0.0
59 ; 26396.601204391725 ; 34258.62402086057 ; 1028221.5344729564 ; 2021258.817230772 ; 0.0
60 ; 26684.099186853728 ; 34258.62402086057 ; 1054618.1356773481 ; 2055517.4412516325 ; 0.0
61 ; 26781.965344594635 ; 34258.62402086057 ; 1081302.2348642019 ; 2089776.065272493 ; 0.0
62 ; 26690.911530937254 ; 34258.62402086057 ; 1108084.2002087964 ; 2124034.689293354 ; 0.0
63 ; 27131.160783897067 ; 34258.62402086057 ; 1134775.1117397337 ; 2158293.3133142143 ; 0.0
64 ; 27316.850107556733 ; 34258.62402086057 ; 1161906.2725236309 ; 2192551.937335075 ; 0.0
65 ; 27409.571961556994 ; 34258.62402086057 ; 1189223.1226311876 ; 2226810.5613559354 ; 0.0
66 ; 27195.692274130168 ; 34258.62402086057 ; 1216632.6945927446 ; 2261069.185376796 ; 0.0
67 ; 27682.522735334776 ; 34258.62402086057 ; 1243828.3868668748 ; 2295327.8093976565 ; 0.0
68 ; 27493.966666441425 ; 34258.62402086057 ; 1271510.9096022095 ; 2329586.433418517 ; 0.0
69 ; 27741.28845808734 ; 34258.62402086057 ; 1299004.8762686509 ; 2363845.0574393775 ; 0.0
70 ; 27804.765169574075 ; 34258.62402086057 ; 1326746.1647267381 ; 2398103.681460238 ; 0.0
71 ; 28012.459869296308 ; 34258.62402086057 ; 1354550.9298963123 ; 2432362.3054810986 ; 0.0
72 ; 27891.23805994409 ; 34258.62402086057 ; 1382563.3897656086 ; 2466620.929501959 ; 0.0
73 ; 28102.66806604437 ; 34258.62402086057 ; 1410454.6278255526 ; 2500879.5535228197 ; 0.0
74 ; 28187.729384722308 ; 34258.62402086057 ; 1438557.295891597 ; 2535138.17754368 ; 0.0
75 ; 28142.73478316661 ; 34258.62402086057 ; 1466745.0252763194 ; 2569396.8015645407 ; 0.0
76 ; 28108.1956597323 ; 34258.62402086057 ; 1494887.760059486 ; 2603655.4255854012 ; 0.0
77 ; 28288.489570046462 ; 34258.62402086057 ; 1522995.9557192181 ; 2637914.049606262 ; 0.0
78 ; 28455.1574401676 ; 34258.62402086057 ; 1551284.4452892647 ; 2672172.6736271223 ; 0.0
79 ; 28285.579304514806 ; 34258.62402086057 ; 1579739.6027294323 ; 2706431.297647983 ; 0.0
80 ; 28283.73401994818 ; 34258.62402086057 ; 1608025.1820339472 ; 2740689.9216688434 ; 0.0
81 ; 28446.763696521404 ; 34258.62402086057 ; 1636308.9160538954 ; 2774948.545689704 ; 0.0
82 ; 28500.58157752898 ; 34258.62402086057 ; 1664755.679750417 ; 2809207.1697105644 ; 0.0
83 ; 28428.879962318304 ; 34258.62402086057 ; 1693256.2613279459 ; 2843465.793731425 ; 0.0
84 ; 28254.975541606313 ; 34258.62402086057 ; 1721685.1412902642 ; 2877724.4177522855 ; 0.0
85 ; 28459.122009724208 ; 34258.62402086057 ; 1749940.1168318705 ; 2911983.041773146 ; 0.0
86 ; 28405.462314176475 ; 34258.62402086057 ; 1778399.2388415947 ; 2946241.6657940065 ; 0.0
87 ; 28249.31574235489 ; 34258.62402086057 ; 1806804.701155771 ; 2980500.289814867 ; 0.0
88 ; 28129.95216298228 ; 34258.62402086057 ; 1835054.0168981259 ; 3014758.9138357276 ; 0.0
89 ; 28198.752279813605 ; 34258.62402086057 ; 1863183.969061108 ; 3049017.537856588 ; 0.0
90 ; 28036.90680193933 ; 34258.62402086057 ; 1891382.7213409217 ; 3083276.1618774487 ; 0.0
91 ; 28149.643840781653 ; 34258.62402086057 ; 1919419.628142861 ; 3117534.785898309 ; 0.0
92 ; 28034.78762529117 ; 34258.62402086057 ; 1947569.2719836426 ; 3151793.4099191697 ; 0.0
93 ; 28151.074106293505 ; 34258.62402086057 ; 1975604.0596089337 ; 3186052.0339400303 ; 0.0
94 ; 27813.01953346774 ; 34258.62402086057 ; 2003755.1337152272 ; 3220310.657960891 ; 0.0
95 ; 27917.330809094 ; 34258.62402086057 ; 2031568.153248695 ; 3254569.2819817513 ; 0.0
96 ; 27612.98963850124 ; 34258.62402086057 ; 2059485.484057789 ; 3288827.906002612 ; 0.0
97 ; 27488.21868104432 ; 34258.62402086057 ; 2087098.4736962903 ; 3323086.5300234724 ; 0.0
98 ; 27535.047750568978 ; 34258.62402086057 ; 2114586.6923773345 ; 3357345.154044333 ; 0.0
99 ; 27479.584847869166 ; 34258.62402086057 ; 2142121.7401279034 ; 3391603.7780651934 ; 0.0
100 ; 27351.61633151249 ; 34258.62402086057 ; 2169601.3249757728 ; 3425862.402086054 ; 0.0
101 ; 27054.490981973806 ; 34258.62402086057 ; 2196952.9413072853 ; 3460121.0261069145 ; 0.0
102 ; 27011.795777002488 ; 34258.62402086057 ; 2224007.432289259 ; 3494379.650127775 ; 0.0
103 ; 26809.889287093123 ; 34258.62402086057 ; 2251019.2280662614 ; 3528638.2741486356 ; 0.0
104 ; 26555.90615556629 ; 34258.62402086057 ; 2277829.1173533546 ; 3562896.898169496 ; 0.0
105 ; 26494.057021642508 ; 34258.62402086057 ; 2304385.023508921 ; 3597155.5221903566 ; 0.0
106 ; 26415.516176053585 ; 34258.62402086057 ; 2330879.0805305634 ; 3631414.146211217 ; 0.0
107 ; 26192.371026604895 ; 34258.62402086057 ; 2357294.596706617 ; 3665672.7702320777 ; 0.0
108 ; 25996.63653924625 ; 34258.62402086057 ; 2383486.967733222 ; 3699931.394252938 ; 0.0
109 ; 25895.8642896819 ; 34258.62402086057 ; 2409483.6042724685 ; 3734190.0182737987 ; 0.0
110 ; 25759.687384977366 ; 34258.62402086057 ; 2435379.4685621504 ; 3768448.6422946593 ; 0.0
111 ; 25292.415704898933 ; 34258.62402086057 ; 2461139.155947128 ; 3802707.26631552 ; 0.0
112 ; 25173.978945739676 ; 34258.62402086057 ; 2486431.571652027 ; 3836965.8903363803 ; 0.0
113 ; 25119.023859335324 ; 34258.62402086057 ; 2511605.5505977664 ; 3871224.514357241 ; 0.0
114 ; 24705.181656281882 ; 34258.62402086057 ; 2536724.5744571015 ; 3905483.1383781014 ; 0.0
115 ; 24520.867604945368 ; 34258.62402086057 ; 2561429.7561133835 ; 3939741.762398962 ; 0.0
116 ; 24445.680296820807 ; 34258.62402086057 ; 2585950.623718329 ; 3974000.3864198225 ; 0.0
117 ; 24044.36461638707 ; 34258.62402086057 ; 2610396.3040151494 ; 4008259.010440683 ; 0.0
118 ; 23789.235086214336 ; 34258.62402086057 ; 2634440.6686315364 ; 4042517.6344615435 ; 0.0
119 ; 23503.884820017123 ; 34258.62402086057 ; 2658229.9037177507 ; 4076776.258482404 ; 0.0
120 ; 23272.1168536832 ; 34258.62402086057 ; 2681733.7885377677 ; 4111034.8825032646 ; 0.0
121 ; 23019.07086944358 ; 34258.62402086057 ; 2705005.905391451 ; 4145293.506524125 ; 0.0
122 ; 22768.35887768755 ; 34258.62402086057 ; 2728024.9762608944 ; 4179552.1305449856 ; 0.0
123 ; 22575.92370613384 ; 34258.62402086057 ; 2750793.335138582 ; 4213810.754565846 ; 0.0
124 ; 22282.768487686717 ; 34258.62402086057 ; 2773369.258844716 ; 4248069.378586707 ; 0.0
125 ; 21950.917591100082 ; 34258.62402086057 ; 2795652.0273324028 ; 4282328.002607567 ; 0.0
126 ; 21536.619122319742 ; 34258.62402086057 ; 2817602.944923503 ; 4316586.626628428 ; 0.0
127 ; 21308.84535115594 ; 34258.62402086057 ; 2839139.5640458227 ; 4350845.250649288 ; 0.0
128 ; 20919.10685143974 ; 34258.62402086057 ; 2860448.4093969786 ; 4385103.874670149 ; 0.0
129 ; 20491.55041044082 ; 34258.62402086057 ; 2881367.5162484185 ; 4419362.498691009 ; 0.0
130 ; 20311.727292930005 ; 34258.62402086057 ; 2901859.066658859 ; 4453621.12271187 ; 0.0
131 ; 19979.81569271726 ; 34258.62402086057 ; 2922170.793951789 ; 4487879.74673273 ; 0.0
132 ; 19682.562038799304 ; 34258.62402086057 ; 2942150.609644506 ; 4522138.370753591 ; 0.0
133 ; 19214.44560301701 ; 34258.62402086057 ; 2961833.1716833054 ; 4556396.9947744515 ; 0.0
134 ; 18727.621909399328 ; 34258.62402086057 ; 2981047.6172863226 ; 4590655.618795312 ; 0.0
135 ; 18686.594922809665 ; 34258.62402086057 ; 2999775.239195722 ; 4624914.242816173 ; 0.0
136 ; 18068.621849582003 ; 34258.62402086057 ; 3018461.834118532 ; 4659172.866837033 ; 0.0
137 ; 17872.284885187313 ; 34258.62402086057 ; 3036530.455968114 ; 4693431.490857894 ; 0.0
138 ; 17445.78489866234 ; 34258.62402086057 ; 3054402.7408533012 ; 4727690.114878754 ; 0.0
139 ; 16958.19494375337 ; 34258.62402086057 ; 3071848.5257519637 ; 4761948.738899615 ; 0.0
140 ; 16458.449781219162 ; 34258.62402086057 ; 3088806.7206957173 ; 4796207.362920475 ; 0.0
141 ; 16127.21503226267 ; 34258.62402086057 ; 3105265.1704769363 ; 4830465.986941336 ; 0.0
142 ; 15705.468337302158 ; 34258.62402086057 ; 3121392.385509199 ; 4864724.610962196 ; 0.0
143 ; 15213.844707945365 ; 34258.62402086057 ; 3137097.853846501 ; 4898983.234983057 ; 0.0
144 ; 14808.014194389429 ; 34258.62402086057 ; 3152311.6985544465 ; 4933241.859003917 ; 0.0
145 ; 14737.130542407682 ; 34258.62402086057 ; 3167119.712748836 ; 4967500.483024778 ; 0.0
146 ; 14625.616655051199 ; 34258.62402086057 ; 3181856.8432912435 ; 5001759.107045638 ; 0.0
147 ; 14331.578242784259 ; 34258.62402086057 ; 3196482.459946295 ; 5036017.731066499 ; 0.0
148 ; 14416.316117056049 ; 34258.62402086057 ; 3210814.038189079 ; 5070276.355087359 ; 0.0
149 ; 14279.858011661712 ; 34258.62402086057 ; 3225230.3543061353 ; 5104534.97910822 ; 0.0
150 ; 14116.804350765402 ; 34258.62402086057 ; 3239510.212317797 ; 5138793.6031290805 ; 0.0
151 ; 13867.387909765137 ; 34258.62402086057 ; 3253627.0166685623 ; 5173052.227149941 ; 0.0
152 ; 13882.345802821777 ; 34258.62402086057 ; 3267494.4045783277 ; 5207310.851170802 ; 0.0
153 ; 13584.029149626847 ; 34258.62402086057 ; 3281376.7503811494 ; 5241569.475191662 ; 0.0
154 ; 13673.283443356479 ; 34258.62402086057 ; 3294960.779530776 ; 5275828.099212523 ; 0.0
155 ; 13468.220955807357 ; 34258.62402086057 ; 3308634.0629741326 ; 5310086.723233383 ; 0.0
156 ; 13431.057162852681 ; 34258.62402086057 ; 3322102.28392994 ; 5344345.347254244 ; 0.0
157 ; 13169.678035421093 ; 34258.62402086057 ; 3335533.3410927923 ; 5378603.971275104 ; 0.0
158 ; 13102.633608917968 ; 34258.62402086057 ; 3348703.0191282136 ; 5412862.595295965 ; 0.0
159 ; 12843.468500381134 ; 34258.62402086057 ; 3361805.652737132 ; 5447121.219316825 ; 0.0
160 ; 12686.803801523094 ; 34258.62402086057 ; 3374649.121237513 ; 5481379.843337686 ; 0.0
161 ; 12662.162514822496 ; 34258.62402086057 ; 3387335.925039036 ; 5515638.467358546 ; 0.0
162 ; 12466.339526975904 ; 34258.62402086057 ; 3399998.0875538588 ; 5549897.091379407 ; 0.0
163 ; 12238.928647930488 ; 34258.62402086057 ; 3412464.4270808348 ; 5584155.715400267 ; 0.0
164 ; 12046.331495656073 ; 34258.62402086057 ; 3424703.355728765 ; 5618414.339421128 ; 0.0
165 ; 12052.507103859198 ; 34258.62402086057 ; 3436749.687224421 ; 5652672.963441988 ; 0.0
166 ; 11692.424669995093 ; 34258.62402086057 ; 3448802.19432828 ; 5686931.587462849 ; 0.0
167 ; 11551.928149926372 ; 34258.62402086057 ; 3460494.618998275 ; 5721190.2114837095 ; 0.0
168 ; 11469.183408818986 ; 34258.62402086057 ; 3472046.5471482016 ; 5755448.83550457 ; 0.0
169 ; 11104.462876569363 ; 34258.62402086057 ; 3483515.7305570208 ; 5789707.459525431 ; 0.0
170 ; 10887.85405583105 ; 34258.62402086057 ; 3494620.1934335902 ; 5823966.083546291 ; 0.0
171 ; 10970.950857088454 ; 34258.62402086057 ; 3505508.0474894214 ; 5858224.707567152 ; 0.0
172 ; 10738.187085079993 ; 34258.62402086057 ; 3516478.99834651 ; 5892483.331588012 ; 0.0
173 ; 10748.365174969713 ; 34258.62402086057 ; 3527217.18543159 ; 5926741.955608873 ; 0.0
174 ; 10511.70862004518 ; 34258.62402086057 ; 3537965.5506065595 ; 5961000.579629733 ; 0.0
175 ; 10570.742688087445 ; 34258.62402086057 ; 3548477.259226605 ; 5995259.203650594 ; 0.0
176 ; 10670.132764629889 ; 34258.62402086057 ; 3559048.001914692 ; 6029517.827671454 ; 0.0
177 ; 10594.440311633409 ; 34258.62402086057 ; 3569718.134679322 ; 6063776.451692315 ; 0.0
178 ; 10708.488415829413 ; 34258.62402086057 ; 3580312.5749909556 ; 6098035.075713175 ; 0.0
179 ; 10681.719697586335 ; 34258.62402086057 ; 3591021.063406785 ; 6132293.699734036 ; 0.0
180 ; 10741.264407849409 ; 34258.62402086057 ; 3601702.7831043713 ; 6166552.323754896 ; 0.0
181 ; 10886.474148146952 ; 34258.62402086057 ; 3612444.0475122207 ; 6200810.947775757 ; 0.0
182 ; 10832.897468218502 ; 34258.62402086057 ; 3623330.5216603675 ; 6235069.5717966175 ; 0.0
183 ; 10989.959552639704 ; 34258.62402086057 ; 3634163.419128586 ; 6269328.195817478 ; 0.0
184 ; 11007.611174990618 ; 34258.62402086057 ; 3645153.3786812257 ; 6303586.8198383385 ; 0.0
185 ; 10941.88631872779 ; 34258.62402086057 ; 3656160.989856216 ; 6337845.443859199 ; 0.0
186 ; 10985.004358214477 ; 34258.62402086057 ; 3667102.876174944 ; 6372104.06788006 ; 0.0
187 ; 11037.048801128625 ; 34258.62402086057 ; 3678087.8805331583 ; 6406362.69190092 ; 0.0
188 ; 11150.271334131561 ; 34258.62402086057 ; 3689124.929334287 ; 6440621.315921781 ; 0.0
189 ; 11182.393552197873 ; 34258.62402086057 ; 3700275.200668419 ; 6474879.939942641 ; 0.0
190 ; 11167.770261683636 ; 34258.62402086057 ; 3711457.594220617 ; 6509138.563963502 ; 0.0
191 ; 11196.082673705048 ; 34258.62402086057 ; 3722625.3644823004 ; 6543397.187984362 ; 0.0
192 ; 11252.438701342026 ; 34258.62402086057 ; 3733821.4471560055 ; 6577655.812005223 ; 0.0
193 ; 11092.149417340172 ; 34258.62402086057 ; 3745073.8858573474 ; 6611914.436026083 ; 0.0
194 ; 11350.897245828022 ; 34258.62402086057 ; 3756166.0352746877 ; 6646173.060046944 ; 0.0
195 ; 11416.045547773105 ; 34258.62402086057 ; 3767516.9325205158 ; 6680431.684067804 ; 0.0
196 ; 11380.097603795499 ; 34258.62402086057 ; 3778932.978068289 ; 6714690.308088665 ; 0.0
197 ; 11562.24649806499 ; 34258.62402086057 ; 3790313.0756720845 ; 6748948.932109525 ; 0.0
198 ; 11326.485782009644 ; 34258.62402086057 ; 3801875.3221701495 ; 6783207.556130386 ; 0.0
199 ; 11414.457913277183 ; 34258.62402086057 ; 3813201.807952159 ; 6817466.1801512465 ; 0.0
200 ; 11445.858008785694 ; 34258.62402086057 ; 3824616.2658654363 ; 6851724.804172107 ; 0.0
201 ; 11519.178945063046 ; 34258.62402086057 ; 3836062.123874222 ; 6885983.428192968 ; 0.0
202 ; 11485.883268992797 ; 34258.62402086057 ; 3847581.302819285 ; 6920242.052213828 ; 0.0
203 ; 11710.964278393454 ; 34258.62402086057 ; 3859067.186088278 ; 6954500.676234689 ; 0.0
204 ; 11582.005209349507 ; 34258.62402086057 ; 3870778.1503666714 ; 6988759.300255549 ; 0.0
205 ; 11680.222209579377 ; 34258.62402086057 ; 3882360.155576021 ; 7023017.92427641 ; 0.0
206 ; 11715.750323748409 ; 34258.62402086057 ; 3894040.3777856003 ; 7057276.54829727 ; 0.0
207 ; 11688.49750499478 ; 34258.62402086057 ; 3905756.1281093485 ; 7091535.172318131 ; 0.0
208 ; 11850.150020486668 ; 34258.62402086057 ; 3917444.625614343 ; 7125793.796338991 ; 0.0
209 ; 11721.71035650773 ; 34258.62402086057 ; 3929294.77563483 ; 7160052.420359852 ; 0.0
210 ; 11896.71954287217 ; 34258.62402086057 ; 3941016.485991338 ; 7194311.044380712 ; 0.0
211 ; 12022.809689790865 ; 34258.62402086057 ; 3952913.20553421 ; 7228569.668401573 ; 0.0
212 ; 11846.479644586614 ; 34258.62402086057 ; 3964936.015224001 ; 7262828.292422433 ; 0.0
213 ; 11944.038055327877 ; 34258.62402086057 ; 3976782.4948685877 ; 7297086.916443294 ; 0.0
214 ; 11841.294556497447 ; 34258.62402086057 ; 3988726.5329239154 ; 7331345.540464154 ; 0.0
215 ; 12055.59863318526 ; 34258.62402086057 ; 4000567.827480413 ; 7365604.164485015 ; 0.0
216 ; 12035.415803164326 ; 34258.62402086057 ; 4012623.426113598 ; 7399862.7885058755 ; 0.0
