CSV File for the City 3 on Day 139
1 - Minute m 
2 - Power Consumed at minute m 
3 - Power Produced at minute m 
4 - Energy Consumed since the beginning of the day 
5 - Energy Produced since the beginning of the day 
6 - Energy Lost since the beginning of the day on lines starting from the city
 
0 ; 7273.270005811202 ; 99380.2357973366 ; 0.0 ; 0.0 ; 0.0
1 ; 7653.5929515334365 ; 99039.1895506439 ; 7273.270005811202 ; 99380.2357973366 ; 0.0
2 ; 8043.853876711031 ; 98732.97425627818 ; 14926.862957344638 ; 198419.42534798052 ; 0.0
3 ; 8286.491571930743 ; 98461.93830615927 ; 22970.716834055667 ; 297152.3996042587 ; 0.0
4 ; 8543.518637138264 ; 98226.39363013669 ; 31257.20840598641 ; 395614.337910418 ; 0.0
5 ; 8967.947793721873 ; 98026.61406651326 ; 39800.72704312467 ; 493840.73154055467 ; 0.0
6 ; 9268.994691535623 ; 97862.83390585227 ; 48768.67483684655 ; 591867.3456070679 ; 0.0
7 ; 9407.704385462892 ; 97735.24662592422 ; 58037.669528382175 ; 689730.1795129202 ; 0.0
8 ; 9817.341427584108 ; 97644.0038336478 ; 67445.37391384506 ; 787465.4261388445 ; 0.0
9 ; 10215.508335496375 ; 97589.2144275234 ; 77262.71534142917 ; 885109.4299724923 ; 0.0
10 ; 10471.73770447937 ; 97570.94399140253 ; 87478.22367692554 ; 982698.6444000157 ; 0.0
11 ; 10642.59075432941 ; 97589.2144275234 ; 97949.96138140491 ; 1080269.5883914183 ; 0.0
12 ; 10906.90176412943 ; 97644.0038336478 ; 108592.55213573432 ; 1177858.8028189417 ; 0.0
13 ; 11227.95900163346 ; 97735.24662592422 ; 119499.45389986376 ; 1275502.8066525895 ; 0.0
14 ; 11602.116377850747 ; 97862.83390585218 ; 130727.41290149721 ; 1373238.0532785137 ; 0.0
15 ; 11732.917253026844 ; 98026.61406651326 ; 142329.52927934797 ; 1471100.887184366 ; 0.0
16 ; 12044.637498655045 ; 98226.39363013669 ; 154062.44653237483 ; 1569127.5012508791 ; 0.0
17 ; 12417.89875475871 ; 98461.93830615918 ; 166107.08403102987 ; 1667353.8948810159 ; 0.0
18 ; 12489.748051548064 ; 98732.97425627818 ; 178524.98278578857 ; 1765815.833187175 ; 0.0
19 ; 12683.31764864216 ; 99039.18955064382 ; 191014.73083733662 ; 1864548.8074434532 ; 0.0
20 ; 12964.479299544313 ; 99380.23579733669 ; 203698.0484859788 ; 1963587.996994097 ; 0.0
21 ; 13179.881995656806 ; 99755.72992565784 ; 216662.5277855231 ; 2062968.2327914338 ; 0.0
22 ; 13538.454283742522 ; 100165.25610254797 ; 229842.40978117991 ; 2162723.9627170917 ; 0.0
23 ; 13664.975659880602 ; 100608.36776065078 ; 243380.86406492244 ; 2262889.2188196396 ; 0.0
24 ; 13941.351244306421 ; 101084.58971614545 ; 257045.83972480305 ; 2363497.5865802905 ; 0.0
25 ; 14106.560279896044 ; 101593.42035447045 ; 270987.1909691095 ; 2464582.1762964358 ; 0.0
26 ; 14267.877236849528 ; 102134.33386243052 ; 285093.7512490055 ; 2566175.5966509064 ; 0.0
27 ; 14655.986419235343 ; 102706.78248587412 ; 299361.628485855 ; 2668309.930513337 ; 0.0
28 ; 14760.66736164077 ; 103310.1987931226 ; 314017.61490509036 ; 2771016.7129992107 ; 0.0
29 ; 15087.474107464928 ; 103943.99792557125 ; 328778.28226673114 ; 2874326.9117923332 ; 0.0
30 ; 15274.264511021902 ; 104607.57981831956 ; 343865.7563741961 ; 2978270.9097179044 ; 0.0
31 ; 15371.838332343033 ; 105300.33137528587 ; 359140.020885218 ; 3082878.489536224 ; 0.0
32 ; 15606.915697477174 ; 106021.62858495596 ; 374511.859217561 ; 3188178.82091151 ; 0.0
33 ; 15842.726937904203 ; 106770.8385646785 ; 390118.7749150382 ; 3294200.4494964657 ; 0.0
34 ; 16063.269216440902 ; 107547.3215231995 ; 405961.5018529424 ; 3400971.2880611443 ; 0.0
35 ; 16017.311136457338 ; 108350.4326328927 ; 422024.7710693833 ; 3508518.6095843436 ; 0.0
36 ; 16291.143336496018 ; 109179.52380485671 ; 438042.0822058406 ; 3616869.0422172365 ; 0.0
37 ; 16501.049800015913 ; 110033.94536169055 ; 454333.22554233664 ; 3726048.5660220934 ; 0.0
38 ; 16655.631048019077 ; 110913.0476042975 ; 470834.2753423526 ; 3836082.511383784 ; 0.0
39 ; 16984.034524649385 ; 111816.18227049816 ; 487489.9063903717 ; 3946995.5589880813 ; 0.0
40 ; 16904.72102005992 ; 112742.70388452927 ; 504473.94091502106 ; 4058811.7412585793 ; 0.0
41 ; 17210.13493335404 ; 113691.97099767749 ; 521378.66193508095 ; 4171554.4451431087 ; 0.0
42 ; 17453.466140928853 ; 114663.34732132155 ; 538588.796868435 ; 4285246.416140786 ; 0.0
43 ; 17608.493503857328 ; 115656.20275455478 ; 556042.2630093638 ; 4399909.763462108 ; 0.0
44 ; 17745.175376085186 ; 116669.91430931535 ; 573650.7565132211 ; 4515565.966216662 ; 0.0
45 ; 17733.580944457917 ; 117703.86693658581 ; 591395.9318893063 ; 4632235.880525977 ; 0.0
46 ; 17937.099615546784 ; 118757.45425773028 ; 609129.5128337642 ; 4749939.747462563 ; 0.0
47 ; 18049.90245608507 ; 119830.079205437 ; 627066.612449311 ; 4868697.201720294 ; 0.0
48 ; 18238.12960975581 ; 120921.15457902821 ; 645116.514905396 ; 4988527.28092573 ; 0.0
49 ; 18316.34934778802 ; 122030.103519097 ; 663354.6445151519 ; 5109448.435504759 ; 0.0
50 ; 18723.924648621003 ; 123156.35990655552 ; 681670.9938629399 ; 5231478.539023856 ; 0.0
51 ; 18555.599375138532 ; 124299.36869121567 ; 700394.9185115609 ; 5354634.898930411 ; 0.0
52 ; 18754.490145710286 ; 125458.58615501624 ; 718950.5178866994 ; 5478934.267621626 ; 0.0
53 ; 19012.78401935211 ; 126633.48011493098 ; 737705.0080324097 ; 5604392.853776642 ; 0.0
54 ; 18955.665230017 ; 127823.5300704839 ; 756717.7920517619 ; 5731026.333891573 ; 0.0
55 ; 19088.9349309608 ; 129028.22730064346 ; 775673.4572817789 ; 5858849.863962057 ; 0.0
56 ; 19029.938942101704 ; 130247.07491468855 ; 794762.3922127397 ; 5987878.0912627 ; 0.0
57 ; 19189.05948083658 ; 131479.58786143747 ; 813792.3311548413 ; 6118125.166177388 ; 0.0
58 ; 19259.879103261977 ; 132725.2929010112 ; 832981.390635678 ; 6249604.754038826 ; 0.0
59 ; 19560.548200252033 ; 133983.72854307565 ; 852241.2697389399 ; 6382330.046939837 ; 0.0
60 ; 19638.880955733235 ; 135254.44495527007 ; 871801.8179391919 ; 6516313.775482913 ; 0.0
61 ; 19542.322118772365 ; 136537.0038452901 ; 891440.6988949252 ; 6651568.220438182 ; 0.0
62 ; 19726.144400160825 ; 137830.97831985922 ; 910983.0210136975 ; 6788105.224283473 ; 0.0
63 ; 19791.6256930875 ; 139135.95272358437 ; 930709.1654138584 ; 6925936.202603332 ; 0.0
64 ; 19746.711682657653 ; 140451.5224604659 ; 950500.7911069458 ; 7065072.155326916 ; 0.0
65 ; 19925.126604338213 ; 141777.29380060927 ; 970247.5027896035 ; 7205523.677787382 ; 0.0
66 ; 20003.445867655348 ; 143112.8836744729 ; 990172.6293939417 ; 7347300.971587991 ; 0.0
67 ; 19925.949993486036 ; 144457.91945678424 ; 1010176.075261597 ; 7490413.855262464 ; 0.0
68 ; 20067.973752552105 ; 145812.03874206328 ; 1030102.0252550831 ; 7634871.7747192485 ; 0.0
69 ; 20048.16952119405 ; 147174.88911350895 ; 1050169.9990076353 ; 7780683.813461312 ; 0.0
70 ; 20314.920727959532 ; 148546.1279068366 ; 1070218.1685288292 ; 7927858.702574821 ; 0.0
71 ; 20231.654644082148 ; 149925.4219704891 ; 1090533.0892567888 ; 8076404.830481658 ; 0.0
72 ; 20203.03003711412 ; 151312.44742350135 ; 1110764.743900871 ; 8226330.252452147 ; 0.0
73 ; 20318.23186826357 ; 152706.88941215383 ; 1130967.773937985 ; 8377642.699875648 ; 0.0
74 ; 20216.590666607928 ; 154108.44186642757 ; 1151286.0058062486 ; 8530349.589287803 ; 0.0
75 ; 20179.522819621052 ; 155516.8072571512 ; 1171502.5964728566 ; 8684458.03115423 ; 0.0
76 ; 20322.174387589905 ; 156931.6963546252 ; 1191682.1192924776 ; 8839974.838411381 ; 0.0
77 ; 20482.190601762948 ; 158352.82798940796 ; 1212004.2936800674 ; 8996906.534766007 ; 0.0
78 ; 20481.06022710607 ; 159779.9288158579 ; 1232486.4842818303 ; 9155259.362755416 ; 0.0
79 ; 20424.47531191548 ; 161212.73307894327 ; 1252967.5445089363 ; 9315039.291571274 ; 0.0
80 ; 20590.83132440312 ; 162650.98238475752 ; 1273392.0198208517 ; 9476252.024650218 ; 0.0
81 ; 20480.946781804112 ; 164094.4254751084 ; 1293982.851145255 ; 9638903.007034976 ; 0.0
82 ; 20323.771188682524 ; 165542.8180064902 ; 1314463.797927059 ; 9802997.432510084 ; 0.0
83 ; 20489.956123852662 ; 166995.92233369197 ; 1334787.5691157414 ; 9968540.250516573 ; 0.0
84 ; 20301.542507565853 ; 168453.50729824512 ; 1355277.525239594 ; 1.0135536172850264E7 ; 0.0
85 ; 20581.680934343 ; 169915.34802187225 ; 1375579.0677471599 ; 1.030398968014851E7 ; 0.0
86 ; 20393.584793230555 ; 171381.225705055 ; 1396160.7486815029 ; 1.0473905028170383E7 ; 0.0
87 ; 20470.425322607236 ; 172850.92743080924 ; 1416554.3334747334 ; 1.0645286253875438E7 ; 0.0
88 ; 20472.14371916664 ; 174324.24597372056 ; 1437024.7587973406 ; 1.0818137181306247E7 ; 0.0
89 ; 20356.86248077676 ; 175800.97961426896 ; 1457496.9025165073 ; 1.0992461427279968E7 ; 0.0
90 ; 20283.135451836508 ; 177280.93195844503 ; 1477853.7649972842 ; 1.1168262406894237E7 ; 0.0
91 ; 20055.192774385094 ; 178763.91176264154 ; 1498136.9004491207 ; 1.1345543338852681E7 ; 0.0
92 ; 20117.262908763245 ; 180249.73276378383 ; 1518192.0932235057 ; 1.1524307250615323E7 ; 0.0
93 ; 20002.314452604816 ; 181738.21351464884 ; 1538309.356132269 ; 1.1704556983379107E7 ; 0.0
94 ; 20002.186530371222 ; 183229.17722430715 ; 1558311.6705848738 ; 1.1886295196893755E7 ; 0.0
95 ; 20098.89216760648 ; 184722.45160361228 ; 1578313.857115245 ; 1.2069524374118062E7 ; 0.0
96 ; 19969.82805499886 ; 186217.86871565148 ; 1598412.7492828513 ; 1.2254246825721674E7 ; 0.0
97 ; 19813.67684313404 ; 187715.26483106354 ; 1618382.5773378501 ; 1.2440464694437325E7 ; 0.0
98 ; 19816.99650611179 ; 189214.48028812345 ; 1638196.254180984 ; 1.262817995926839E7 ; 0.0
99 ; 19815.760078223433 ; 190715.35935748718 ; 1658013.2506870958 ; 1.2817394439556513E7 ; 0.0
100 ; 19694.49866706772 ; 192217.7501114873 ; 1677829.0107653192 ; 1.3008109798914E7 ; 0.0
101 ; 19586.63843327986 ; 193721.50429786486 ; 1697523.5094323868 ; 1.3200327549025487E7 ; 0.0
102 ; 19522.1592257086 ; 195226.47721782225 ; 1717110.1478656668 ; 1.3394049053323353E7 ; 0.0
103 ; 19391.99145613917 ; 196732.52760827943 ; 1736632.3070913753 ; 1.3589275530541174E7 ; 0.0
104 ; 19285.025739002762 ; 198239.51752821493 ; 1756024.2985475145 ; 1.3786008058149453E7 ; 0.0
105 ; 19253.74373859996 ; 199747.31224897332 ; 1775309.3242865172 ; 1.3984247575677669E7 ; 0.0
106 ; 19115.203779961135 ; 201255.78014842077 ; 1794563.0680251173 ; 1.4183994887926642E7 ; 0.0
107 ; 19052.86278560588 ; 202764.7926088307 ; 1813678.2718050785 ; 1.4385250668075062E7 ; 0.0
108 ; 18977.596132575596 ; 204274.22391838266 ; 1832731.1345906844 ; 1.4588015460683893E7 ; 0.0
109 ; 18838.963077842283 ; 205783.9511761602 ; 1851708.73072326 ; 1.4792289684602275E7 ; 0.0
110 ; 18546.661808633595 ; 207293.85420053278 ; 1870547.6938011022 ; 1.4998073635778436E7 ; 0.0
111 ; 18537.20090285911 ; 208803.81544081165 ; 1889094.355609736 ; 1.520536748997897E7 ; 0.0
112 ; 18464.36158572202 ; 210313.71989206882 ; 1907631.5565125952 ; 1.541417130541978E7 ; 0.0
113 ; 18155.993037937034 ; 211823.45501301283 ; 1926095.9180983172 ; 1.562448502531185E7 ; 0.0
114 ; 18259.094092861895 ; 213332.9106468159 ; 1944251.9111362542 ; 1.5836308480324863E7 ; 0.0
115 ; 18093.967713809154 ; 214841.97894479125 ; 1962511.0052291162 ; 1.604964139097168E7 ; 0.0
116 ; 18044.96971362092 ; 216350.5542928196 ; 1980604.9729429253 ; 1.626448336991647E7 ; 0.0
117 ; 17699.554234737352 ; 217858.53324042878 ; 1998649.9426565461 ; 1.6480833924209291E7 ; 0.0
118 ; 17693.721394890497 ; 219365.8144324318 ; 2016349.4968912834 ; 1.669869245744972E7 ; 0.0
119 ; 17441.564774564584 ; 220872.29854303226 ; 2034043.218286174 ; 1.691805827188215E7 ; 0.0
120 ; 17224.75249148548 ; 222377.88821230727 ; 2051484.7830607384 ; 1.7138930570425183E7 ; 0.0
121 ; 17007.630415581898 ; 223882.4879849828 ; 2068709.535552224 ; 1.736130845863749E7 ; 0.0
122 ; 17007.133171699195 ; 225386.00425141802 ; 2085717.1659678058 ; 1.7585190946622472E7 ; 0.0
123 ; 16706.23204397071 ; 226888.34519071603 ; 2102724.299139505 ; 1.781057695087389E7 ; 0.0
124 ; 16782.24069640982 ; 228389.42071588626 ; 2119430.5311834756 ; 1.8037465296064604E7 ; 0.0
125 ; 16414.64693773901 ; 229889.14242097957 ; 2136212.7718798853 ; 1.826585471678049E7 ; 0.0
126 ; 16358.161988539816 ; 231387.4235301253 ; 2152627.4188176244 ; 1.8495743859201472E7 ; 0.0
127 ; 16084.326497310332 ; 232884.1788483991 ; 2168985.580806164 ; 1.8727131282731596E7 ; 0.0
128 ; 15842.6076287149 ; 234379.32471445366 ; 2185069.9073034744 ; 1.8960015461579997E7 ; 0.0
129 ; 15810.767382337439 ; 235872.77895484658 ; 2200912.514932189 ; 1.919439478629445E7 ; 0.0
130 ; 15514.096553952968 ; 237364.46084000228 ; 2216723.2823145264 ; 1.9430267565249294E7 ; 0.0
131 ; 15456.35288038114 ; 238854.29104174743 ; 2232237.3788684793 ; 1.9667632026089296E7 ; 0.0
132 ; 15275.834504867595 ; 240342.19159235994 ; 2247693.7317488603 ; 1.9906486317131042E7 ; 0.0
133 ; 14934.683219016648 ; 241828.0858450764 ; 2262969.566253728 ; 2.0146828508723404E7 ; 0.0
134 ; 14550.350361584115 ; 243311.89843600205 ; 2277904.2494727443 ; 2.038865659456848E7 ; 0.0
135 ; 14271.341139709803 ; 244793.55524737216 ; 2292454.5998343285 ; 2.0631968493004482E7 ; 0.0
136 ; 14260.193061387157 ; 246272.9833721129 ; 2306725.940974038 ; 2.0876762048251856E7 ; 0.0
137 ; 14129.617414766948 ; 247750.1110796541 ; 2320986.1340354253 ; 2.112303503162397E7 ; 0.0
138 ; 13971.83022809551 ; 249224.86778294665 ; 2335115.751450192 ; 2.1370785142703626E7 ; 0.0
139 ; 13565.638655757972 ; 250697.18400663955 ; 2349087.5816782876 ; 2.1620010010486573E7 ; 0.0
140 ; 13351.10843385902 ; 252166.99135637356 ; 2362653.2203340456 ; 2.187070719449321E7 ; 0.0
141 ; 13126.752580560893 ; 253634.2224891487 ; 2376004.3287679045 ; 2.2122874185849585E7 ; 0.0
142 ; 12732.21711093793 ; 255098.81108472744 ; 2389131.0813484653 ; 2.2376508408338733E7 ; 0.0
143 ; 12745.302275651824 ; 256560.69181803337 ; 2401863.298459403 ; 2.263160721942346E7 ; 0.0
144 ; 12284.761815202331 ; 258019.80033250884 ; 2414608.600735055 ; 2.2888167911241494E7 ; 0.0
145 ; 12243.640514616793 ; 259476.07321439593 ; 2426893.3625502572 ; 2.3146187711574003E7 ; 0.0
146 ; 12104.889269153213 ; 260929.44796790695 ; 2439137.003064874 ; 2.34056637847884E7 ; 0.0
147 ; 12009.124020932879 ; 262379.8629912504 ; 2451241.892334027 ; 2.3666593232756305E7 ; 0.0
148 ; 12155.275791244097 ; 263827.25755348225 ; 2463251.01635496 ; 2.3928973095747557E7 ; 0.0
149 ; 11982.978904086294 ; 265271.57177215046 ; 2475406.292146204 ; 2.4192800353301037E7 ; 0.0
150 ; 11834.92498488394 ; 266712.7465917047 ; 2487389.27105029 ; 2.4458071925073188E7 ; 0.0
151 ; 11903.122551480905 ; 268150.723762643 ; 2499224.196035174 ; 2.4724784671664894E7 ; 0.0
152 ; 11664.985133103439 ; 269585.4458213673 ; 2511127.318586655 ; 2.4992935395427536E7 ; 0.0
153 ; 11638.284372588458 ; 271016.85607072315 ; 2522792.3037197585 ; 2.5262520841248903E7 ; 0.0
154 ; 11526.406975192303 ; 272444.8985611981 ; 2534430.588092347 ; 2.5533537697319627E7 ; 0.0
155 ; 11453.672159570135 ; 273869.5180727543 ; 2545956.9950675396 ; 2.5805982595880825E7 ; 0.0
156 ; 11361.834918194569 ; 275290.6600972732 ; 2557410.66722711 ; 2.607985211395358E7 ; 0.0
157 ; 11342.762724659286 ; 276708.2708215886 ; 2568772.5021453043 ; 2.6355142774050854E7 ; 0.0
158 ; 11168.162459528365 ; 278122.29711108893 ; 2580115.2648699638 ; 2.6631851044872444E7 ; 0.0
159 ; 11103.50095022234 ; 279532.68649386626 ; 2591283.4273294923 ; 2.6909973341983534E7 ; 0.0
160 ; 10862.975669244326 ; 280939.38714539306 ; 2602386.9282797147 ; 2.71895060284774E7 ; 0.0
161 ; 10859.371417333288 ; 282342.3478737078 ; 2613249.903948959 ; 2.7470445415622793E7 ; 0.0
162 ; 10656.346282956829 ; 283741.5181050914 ; 2624109.2753662923 ; 2.77527877634965E7 ; 0.0
163 ; 10774.443987257177 ; 285136.8478702163 ; 2634765.621649249 ; 2.803652928160159E7 ; 0.0
164 ; 10673.860738147396 ; 286528.2877907519 ; 2645540.0656365063 ; 2.8321666129471805E7 ; 0.0
165 ; 10585.517708932566 ; 287915.7890664094 ; 2656213.926374654 ; 2.8608194417262558E7 ; 0.0
166 ; 10294.500508159013 ; 289299.3034624122 ; 2666799.4440835863 ; 2.8896110206328966E7 ; 0.0
167 ; 10269.201556355692 ; 290678.7832973741 ; 2677093.9445917453 ; 2.9185409509791378E7 ; 0.0
168 ; 10184.514386198894 ; 292054.18143157323 ; 2687363.146148101 ; 2.9476088293088753E7 ; 0.0
169 ; 10066.855242676871 ; 293425.451255607 ; 2697547.6605343 ; 2.9768142474520326E7 ; 0.0
170 ; 9865.61230454756 ; 294792.54667941446 ; 2707614.515776977 ; 3.0061567925775934E7 ; 0.0
171 ; 9901.823205173163 ; 296155.4221216534 ; 2717480.1280815243 ; 3.035636047245535E7 ; 0.0
172 ; 9667.405071246993 ; 297514.03249942 ; 2727381.9512866973 ; 3.0652515894577004E7 ; 0.0
173 ; 9498.637672855817 ; 298868.33321829914 ; 2737049.356357944 ; 3.0950029927076425E7 ; 0.0
174 ; 9782.295645078986 ; 300218.2801627333 ; 2746547.9940308 ; 3.1248898260294724E7 ; 0.0
175 ; 9525.815187386681 ; 301563.82968670013 ; 2756330.2896758793 ; 3.1549116540457457E7 ; 0.0
176 ; 9526.573779087279 ; 302904.9386046869 ; 2765856.104863266 ; 3.185068037014416E7 ; 0.0
177 ; 9763.242758440356 ; 304241.56418295245 ; 2775382.678642353 ; 3.2153585308748845E7 ; 0.0
178 ; 9547.545690296109 ; 305573.66413106647 ; 2785145.9214007934 ; 3.2457826872931797E7 ; 0.0
179 ; 9657.79009258016 ; 306901.1965937168 ; 2794693.4670910896 ; 3.2763400537062865E7 ; 0.0
180 ; 9668.41549823054 ; 308224.12014277535 ; 2804351.2571836696 ; 3.307030173365658E7 ; 0.0
181 ; 9888.560784839703 ; 309542.3937696139 ; 2814019.6726819 ; 3.3378525853799358E7 ; 0.0
182 ; 9717.919326620715 ; 310855.97687766183 ; 2823908.2334667398 ; 3.368806824756897E7 ; 0.0
183 ; 9719.277559227365 ; 312164.8292751972 ; 2833626.1527933604 ; 3.399892422444663E7 ; 0.0
184 ; 9878.47867416304 ; 313468.91116836295 ; 2843345.4303525877 ; 3.431108905372183E7 ; 0.0
185 ; 9872.992916670944 ; 314768.1831544016 ; 2853223.909026751 ; 3.46245579648902E7 ; 0.0
186 ; 9981.998657513717 ; 316062.60621510044 ; 2863096.901943422 ; 3.49393261480446E7 ; 0.0
187 ; 9905.999747621177 ; 317352.1417104405 ; 2873078.900600936 ; 3.52553887542597E7 ; 0.0
188 ; 9888.245033901341 ; 318636.75137244235 ; 2882984.900348557 ; 3.5572740895970136E7 ; 0.0
189 ; 9764.98992700732 ; 319916.3972992022 ; 2892873.1453824583 ; 3.589137764734258E7 ; 0.0
190 ; 9857.417643675688 ; 321191.0419491125 ; 2902638.1353094657 ; 3.621129404464178E7 ; 0.0
191 ; 9924.684557870432 ; 322460.6481352602 ; 2912495.5529531413 ; 3.653248508659089E7 ; 0.0
192 ; 9819.573302257053 ; 323725.17901999754 ; 2922420.237511012 ; 3.685494573472615E7 ; 0.0
193 ; 9853.682064243128 ; 324984.59810967895 ; 2932239.8108132686 ; 3.717867091374615E7 ; 0.0
194 ; 9944.814468593733 ; 326238.8692495599 ; 2942093.492877512 ; 3.7503655511855826E7 ; 0.0
195 ; 9774.031079501856 ; 327487.95661885064 ; 2952038.3073461056 ; 3.7829894381105386E7 ; 0.0
196 ; 9970.98512008068 ; 328731.8247259216 ; 2961812.3384256074 ; 3.815738233772424E7 ; 0.0
197 ; 10134.675668890168 ; 329970.4384036547 ; 2971783.3235456883 ; 3.848611416245016E7 ; 0.0
198 ; 9944.148788921468 ; 331203.76280493505 ; 2981917.9992145784 ; 3.881608460085381E7 ; 0.0
199 ; 9928.126376759847 ; 332431.76339828054 ; 2991862.1480035 ; 3.914728836365874E7 ; 0.0
200 ; 10033.328805141198 ; 333654.4059636034 ; 3001790.2743802597 ; 3.947972012705702E7 ; 0.0
201 ; 10065.162727851693 ; 334871.65658809926 ; 3011823.603185401 ; 3.981337453302063E7 ; 0.0
202 ; 10032.734419110711 ; 336083.4816622609 ; 3021888.7659132527 ; 4.014824618960873E7 ; 0.0
203 ; 10096.124846282813 ; 337289.8478760123 ; 3031921.5003323634 ; 4.048432967127099E7 ; 0.0
204 ; 10026.720805305427 ; 338490.72221495816 ; 3042017.6251786463 ; 4.0821619519147E7 ; 0.0
205 ; 10044.333991283194 ; 339686.0719567465 ; 3052044.345983952 ; 4.116011024136196E7 ; 0.0
206 ; 10324.15340539829 ; 340875.8646675409 ; 3062088.679975235 ; 4.149979631331871E7 ; 0.0
207 ; 10114.198739914067 ; 342060.06819859694 ; 3072412.833380633 ; 4.184067217798625E7 ; 0.0
208 ; 10166.65935115863 ; 343238.6506829427 ; 3082527.0321205473 ; 4.218273224618485E7 ; 0.0
209 ; 10095.79455979993 ; 344411.5805321569 ; 3092693.6914717057 ; 4.252597089686779E7 ; 0.0
210 ; 10174.318737246105 ; 345578.8264332442 ; 3102789.4860315057 ; 4.2870382477399945E7 ; 0.0
211 ; 10163.204885454614 ; 346740.35734560306 ; 3112963.804768752 ; 4.321596130383319E7 ; 0.0
212 ; 10131.417543994461 ; 347896.14249808347 ; 3123127.009654206 ; 4.356270166117879E7 ; 0.0
