CSV File for the City 1 on Day 140
1 - Minute m 
2 - Power Consumed at minute m 
3 - Power Produced at minute m 
4 - Energy Consumed since the beginning of the day 
5 - Energy Produced since the beginning of the day 
6 - Energy Lost since the beginning of the day on lines starting from the city
 
0 ; 9783.868462295006 ; 9633.417991607057 ; 0.0 ; 0.0 ; 0.0
1 ; 10198.727254809115 ; 9633.417991607057 ; 9783.868462295006 ; 9633.417991607057 ; 238.00000000000003
2 ; 10500.253512767096 ; 9633.417991607057 ; 19982.595717104123 ; 19266.835983214114 ; 476.00000000000006
3 ; 10857.779667018003 ; 9633.417991607057 ; 30482.84922987122 ; 28900.25397482117 ; 714.0000000000001
4 ; 11432.662457597391 ; 9633.417991607057 ; 41340.62889688922 ; 38533.67196642823 ; 952.0000000000001
5 ; 11866.006795051215 ; 9633.417991607057 ; 52773.29135448661 ; 48167.089958035285 ; 1190.0000000000002
6 ; 12374.444589155655 ; 9633.417991607057 ; 64639.298149537826 ; 57800.50794964234 ; 1428.0000000000002
7 ; 12562.014004247272 ; 9633.417991607057 ; 77013.74273869349 ; 67433.9259412494 ; 1666.0000000000002
8 ; 12870.073999544846 ; 9633.417991607057 ; 89575.75674294076 ; 77067.34393285646 ; 1904.0000000000002
9 ; 13332.572356729394 ; 9633.417991607057 ; 102445.83074248562 ; 86700.76192446351 ; 2142.0000000000005
10 ; 13890.839265809012 ; 9633.417991607057 ; 115778.40309921501 ; 96334.17991607057 ; 2380.0000000000005
11 ; 14174.409614086848 ; 9633.417991607057 ; 129669.24236502402 ; 105967.59790767763 ; 2618.0000000000005
12 ; 14616.540780678644 ; 9633.417991607057 ; 143843.65197911087 ; 115601.01589928468 ; 2856.0000000000005
13 ; 14992.67393522456 ; 9633.417991607057 ; 158460.19275978953 ; 125234.43389089174 ; 3094.0000000000005
14 ; 15177.729925646927 ; 9633.417991607057 ; 173452.8666950141 ; 134867.8518824988 ; 3332.0000000000005
15 ; 15844.687312963473 ; 9633.417991607057 ; 188630.59662066103 ; 144501.26987410587 ; 3570.0000000000005
16 ; 16171.493112283028 ; 9633.417991607057 ; 204475.2839336245 ; 154134.6878657129 ; 3808.0000000000005
17 ; 16457.02311788091 ; 9633.417991607057 ; 220646.77704590754 ; 163768.10585731996 ; 4046.0000000000005
18 ; 16791.87551052842 ; 9633.417991607057 ; 237103.80016378846 ; 173401.523848927 ; 4284.000000000001
19 ; 17087.787126318988 ; 9633.417991607057 ; 253895.67567431688 ; 183034.94184053404 ; 4522.000000000001
20 ; 17557.495240507484 ; 9633.417991607057 ; 270983.46280063584 ; 192668.35983214108 ; 4760.000000000001
21 ; 17797.915376627465 ; 9633.417991607057 ; 288540.9580411433 ; 202301.77782374813 ; 4998.000000000001
22 ; 17814.360994949475 ; 9633.417991607057 ; 306338.8734177708 ; 211935.19581535517 ; 5236.000000000001
23 ; 18324.162543172457 ; 9633.417991607057 ; 324153.23441272025 ; 221568.6138069622 ; 5474.000000000001
24 ; 18679.446770338098 ; 9633.417991607057 ; 342477.39695589273 ; 231202.03179856925 ; 5712.000000000001
25 ; 19106.112373601383 ; 9633.417991607057 ; 361156.84372623084 ; 240835.4497901763 ; 5950.000000000001
26 ; 19319.325360641276 ; 9633.417991607057 ; 380262.9560998322 ; 250468.86778178334 ; 6188.000000000001
27 ; 19574.37498918068 ; 9633.417991607057 ; 399582.2814604735 ; 260102.28577339038 ; 6426.000000000001
28 ; 19689.19122806767 ; 9633.417991607057 ; 419156.65644965414 ; 269735.7037649974 ; 6664.000000000001
29 ; 20201.164883030633 ; 9633.417991607057 ; 438845.8476777218 ; 279369.12175660447 ; 6902.000000000001
30 ; 20347.07355408335 ; 9633.417991607057 ; 459047.01256075245 ; 289002.5397482115 ; 7140.000000000001
31 ; 20587.75572045654 ; 9633.417991607057 ; 479394.0861148358 ; 298635.95773981855 ; 7378.000000000001
32 ; 20819.514823084948 ; 9633.417991607057 ; 499981.84183529235 ; 308269.3757314256 ; 7616.000000000001
33 ; 21105.295875009684 ; 9633.417991607057 ; 520801.3566583773 ; 317902.79372303264 ; 7854.000000000001
34 ; 21611.080004013806 ; 9633.417991607057 ; 541906.652533387 ; 327536.2117146397 ; 8092.000000000001
35 ; 21773.200784141183 ; 9633.417991607057 ; 563517.7325374008 ; 337169.6297062467 ; 8330.000000000002
36 ; 22002.182696707034 ; 9633.417991607057 ; 585290.933321542 ; 346803.04769785376 ; 8568.000000000002
37 ; 22240.141071153685 ; 9633.417991607057 ; 607293.1160182491 ; 356436.4656894608 ; 8806.000000000002
38 ; 22498.20716006155 ; 9633.417991607057 ; 629533.2570894028 ; 366069.88368106785 ; 9044.000000000002
39 ; 22544.099060727913 ; 9633.417991607057 ; 652031.4642494643 ; 375703.3016726749 ; 9282.000000000002
40 ; 22818.77869492719 ; 9633.417991607057 ; 674575.5633101922 ; 385336.71966428193 ; 9520.000000000002
41 ; 22901.200514871376 ; 9633.417991607057 ; 697394.3420051194 ; 394970.137655889 ; 9758.000000000002
42 ; 23200.22311630032 ; 9633.417991607057 ; 720295.5425199908 ; 404603.555647496 ; 9996.000000000002
43 ; 23654.9659289674 ; 9633.417991607057 ; 743495.7656362911 ; 414236.97363910306 ; 10234.000000000002
44 ; 23595.362253640476 ; 9633.417991607057 ; 767150.7315652585 ; 423870.3916307101 ; 10472.000000000002
45 ; 24016.73993580082 ; 9633.417991607057 ; 790746.0938188989 ; 433503.80962231715 ; 10710.000000000002
46 ; 24154.84456506579 ; 9633.417991607057 ; 814762.8337546997 ; 443137.2276139242 ; 10948.000000000002
47 ; 24320.615576199332 ; 9633.417991607057 ; 838917.6783197655 ; 452770.64560553123 ; 11186.000000000002
48 ; 24403.40430966243 ; 9633.417991607057 ; 863238.2938959649 ; 462404.0635971383 ; 11424.000000000002
49 ; 24608.48867096203 ; 9633.417991607057 ; 887641.6982056273 ; 472037.4815887453 ; 11662.000000000002
50 ; 24780.90132100488 ; 9633.417991607057 ; 912250.1868765893 ; 481670.89958035236 ; 11900.000000000002
51 ; 24974.068153465396 ; 9633.417991607057 ; 937031.0881975942 ; 491304.3175719594 ; 12138.000000000002
52 ; 25140.506788691233 ; 9633.417991607057 ; 962005.1563510596 ; 500937.73556356644 ; 12376.000000000002
53 ; 25321.390246245654 ; 9633.417991607057 ; 987145.6631397508 ; 510571.1535551735 ; 12614.000000000002
54 ; 25414.683413628594 ; 9633.417991607057 ; 1012467.0533859965 ; 520204.5715467805 ; 12852.000000000002
55 ; 25480.593922123822 ; 9633.417991607057 ; 1037881.7367996251 ; 529837.9895383876 ; 13090.000000000002
56 ; 25717.04604307756 ; 9633.417991607057 ; 1063362.330721749 ; 539471.4075299947 ; 13328.000000000002
57 ; 25782.915095350567 ; 9633.417991607057 ; 1089079.3767648265 ; 549104.8255216018 ; 13566.000000000002
58 ; 26014.08922595958 ; 9633.417991607057 ; 1114862.291860177 ; 558738.2435132089 ; 13804.000000000002
59 ; 25907.847094659584 ; 9633.417991607057 ; 1140876.3810861364 ; 568371.661504816 ; 14042.000000000002
60 ; 26307.110656385146 ; 9633.417991607057 ; 1166784.2281807961 ; 578005.0794964231 ; 14280.000000000002
61 ; 26313.542105732566 ; 9633.417991607057 ; 1193091.3388371812 ; 587638.4974880302 ; 14518.000000000002
62 ; 26436.845309928965 ; 9633.417991607057 ; 1219404.8809429137 ; 597271.9154796373 ; 14756.000000000002
63 ; 26502.935854550444 ; 9633.417991607057 ; 1245841.7262528427 ; 606905.3334712444 ; 14994.000000000002
64 ; 26692.639974914928 ; 9633.417991607057 ; 1272344.6621073931 ; 616538.7514628515 ; 15232.000000000002
65 ; 26567.626324233588 ; 9633.417991607057 ; 1299037.302082308 ; 626172.1694544586 ; 15470.000000000002
66 ; 26750.390439615257 ; 9633.417991607057 ; 1325604.9284065417 ; 635805.5874460657 ; 15708.000000000002
67 ; 26820.016571066382 ; 9633.417991607057 ; 1352355.318846157 ; 645439.0054376728 ; 15946.000000000002
68 ; 26842.8604769297 ; 9633.417991607057 ; 1379175.3354172234 ; 655072.4234292799 ; 16184.000000000002
69 ; 27144.868623568953 ; 9633.417991607057 ; 1406018.195894153 ; 664705.841420887 ; 16422.000000000004
70 ; 27009.158766642446 ; 9633.417991607057 ; 1433163.064517722 ; 674339.2594124941 ; 16660.000000000004
71 ; 27017.854591933807 ; 9633.417991607057 ; 1460172.2232843644 ; 683972.6774041012 ; 16898.000000000004
72 ; 27085.64136488465 ; 9633.417991607057 ; 1487190.0778762982 ; 693606.0953957083 ; 17136.000000000004
73 ; 27081.41520046846 ; 9633.417991607057 ; 1514275.7192411828 ; 703239.5133873154 ; 17374.000000000004
74 ; 27256.98801734 ; 9633.417991607057 ; 1541357.1344416512 ; 712872.9313789225 ; 17612.000000000004
75 ; 27386.226108213497 ; 9633.417991607057 ; 1568614.1224589911 ; 722506.3493705296 ; 17850.000000000004
76 ; 27185.66354480307 ; 9633.417991607057 ; 1596000.3485672045 ; 732139.7673621367 ; 18088.000000000004
77 ; 27290.22730632261 ; 9633.417991607057 ; 1623186.0121120077 ; 741773.1853537438 ; 18326.000000000004
78 ; 27374.66362587257 ; 9633.417991607057 ; 1650476.2394183304 ; 751406.603345351 ; 18564.000000000004
79 ; 27295.564483806484 ; 9633.417991607057 ; 1677850.9030442028 ; 761040.021336958 ; 18802.000000000004
80 ; 27220.700400554186 ; 9633.417991607057 ; 1705146.4675280093 ; 770673.4393285651 ; 19040.000000000004
81 ; 27329.632333101603 ; 9633.417991607057 ; 1732367.1679285634 ; 780306.8573201722 ; 19278.000000000004
82 ; 27304.245266174916 ; 9633.417991607057 ; 1759696.8002616651 ; 789940.2753117793 ; 19516.000000000004
83 ; 27276.866364355024 ; 9633.417991607057 ; 1787001.04552784 ; 799573.6933033864 ; 19754.000000000004
84 ; 27342.708310088503 ; 9633.417991607057 ; 1814277.911892195 ; 809207.1112949935 ; 19992.000000000004
85 ; 27227.344984950472 ; 9633.417991607057 ; 1841620.6202022836 ; 818840.5292866006 ; 20230.000000000004
86 ; 27312.08841557331 ; 9633.417991607057 ; 1868847.965187234 ; 828473.9472782078 ; 20468.000000000004
87 ; 27057.481891269108 ; 9633.417991607057 ; 1896160.0536028075 ; 838107.3652698149 ; 20706.000000000004
88 ; 27041.27059527394 ; 9633.417991607057 ; 1923217.5354940766 ; 847740.783261422 ; 20944.000000000004
89 ; 27117.953427343225 ; 9633.417991607057 ; 1950258.8060893505 ; 857374.201253029 ; 21182.000000000004
90 ; 27066.370016264802 ; 9633.417991607057 ; 1977376.7595166937 ; 867007.6192446362 ; 21420.000000000004
91 ; 27128.360338614893 ; 9633.417991607057 ; 2004443.1295329584 ; 876641.0372362433 ; 21658.000000000004
92 ; 26968.219666572564 ; 9633.417991607057 ; 2031571.4898715732 ; 886274.4552278504 ; 21896.000000000004
93 ; 26786.312278488112 ; 9633.417991607057 ; 2058539.7095381457 ; 895907.8732194575 ; 22134.000000000004
94 ; 26761.18706705088 ; 9633.417991607057 ; 2085326.0218166339 ; 905541.2912110646 ; 22372.000000000004
95 ; 26605.989990658003 ; 9633.417991607057 ; 2112087.2088836846 ; 915174.7092026717 ; 22610.000000000004
96 ; 26481.022815910463 ; 9633.417991607057 ; 2138693.1988743427 ; 924808.1271942788 ; 22848.000000000004
97 ; 26620.33532845512 ; 9633.417991607057 ; 2165174.2216902534 ; 934441.5451858859 ; 23086.000000000004
98 ; 26502.297245345213 ; 9633.417991607057 ; 2191794.5570187084 ; 944074.963177493 ; 23324.000000000004
99 ; 26314.94165630962 ; 9633.417991607057 ; 2218296.8542640535 ; 953708.3811691001 ; 23562.000000000004
100 ; 26325.275019542125 ; 9633.417991607057 ; 2244611.795920363 ; 963341.7991607072 ; 23800.000000000004
101 ; 26070.366472576236 ; 9633.417991607057 ; 2270937.0709399055 ; 972975.2171523143 ; 24038.000000000004
102 ; 26024.312434953954 ; 9633.417991607057 ; 2297007.4374124818 ; 982608.6351439214 ; 24276.000000000004
103 ; 25908.788145915438 ; 9633.417991607057 ; 2323031.749847436 ; 992242.0531355285 ; 24514.000000000004
104 ; 25921.107847583546 ; 9633.417991607057 ; 2348940.5379933515 ; 1001875.4711271356 ; 24752.000000000004
105 ; 25847.008609372242 ; 9633.417991607057 ; 2374861.645840935 ; 1011508.8891187427 ; 24990.000000000004
106 ; 25507.307502645384 ; 9633.417991607057 ; 2400708.654450307 ; 1021142.3071103498 ; 25228.000000000004
107 ; 25374.71739184896 ; 9633.417991607057 ; 2426215.9619529527 ; 1030775.7251019569 ; 25466.000000000004
108 ; 25302.115359871168 ; 9633.417991607057 ; 2451590.6793448017 ; 1040409.143093564 ; 25704.000000000004
109 ; 25075.178331326548 ; 9633.417991607057 ; 2476892.794704673 ; 1050042.561085171 ; 25942.000000000004
110 ; 24894.99865954713 ; 9633.417991607057 ; 2501967.9730359996 ; 1059675.979076778 ; 26180.000000000004
111 ; 24923.723180399687 ; 9633.417991607057 ; 2526862.9716955465 ; 1069309.397068385 ; 26418.000000000004
112 ; 24571.590779138947 ; 9633.417991607057 ; 2551786.6948759463 ; 1078942.815059992 ; 26656.000000000004
113 ; 24406.589192115844 ; 9633.417991607057 ; 2576358.285655085 ; 1088576.233051599 ; 26894.000000000004
114 ; 24288.364205973652 ; 9633.417991607057 ; 2600764.8748472007 ; 1098209.651043206 ; 27132.000000000004
115 ; 23891.9875126678 ; 9633.417991607057 ; 2625053.2390531744 ; 1107843.069034813 ; 27370.000000000004
116 ; 23723.66869050981 ; 9633.417991607057 ; 2648945.226565842 ; 1117476.48702642 ; 27608.000000000004
117 ; 23680.92348392142 ; 9633.417991607057 ; 2672668.8952563517 ; 1127109.905018027 ; 27846.000000000004
118 ; 23459.648373224154 ; 9633.417991607057 ; 2696349.818740273 ; 1136743.323009634 ; 28084.000000000004
119 ; 23289.22783131069 ; 9633.417991607057 ; 2719809.467113497 ; 1146376.741001241 ; 28322.000000000004
120 ; 23157.92232513696 ; 9633.417991607057 ; 2743098.694944808 ; 1156010.158992848 ; 28560.000000000004
121 ; 22903.78557918141 ; 9633.417991607057 ; 2766256.617269945 ; 1165643.5769844549 ; 28798.000000000004
122 ; 22710.729859718165 ; 9633.417991607057 ; 2789160.402849126 ; 1175276.9949760619 ; 29036.000000000004
123 ; 22444.04808999912 ; 9633.417991607057 ; 2811871.1327088443 ; 1184910.4129676688 ; 29274.000000000004
124 ; 22387.05557293991 ; 9633.417991607057 ; 2834315.1807988435 ; 1194543.8309592758 ; 29512.000000000004
125 ; 21976.51845838441 ; 9633.417991607057 ; 2856702.2363717835 ; 1204177.2489508828 ; 29750.000000000004
126 ; 21804.690309155598 ; 9633.417991607057 ; 2878678.754830168 ; 1213810.6669424898 ; 29988.000000000004
127 ; 21555.647953853073 ; 9633.417991607057 ; 2900483.445139324 ; 1223444.0849340968 ; 30226.000000000004
128 ; 21257.210927646305 ; 9633.417991607057 ; 2922039.093093177 ; 1233077.5029257038 ; 30464.000000000004
129 ; 21004.563621265275 ; 9633.417991607057 ; 2943296.304020823 ; 1242710.9209173108 ; 30702.000000000004
130 ; 20565.009207437975 ; 9633.417991607057 ; 2964300.8676420883 ; 1252344.3389089177 ; 30940.000000000004
131 ; 20200.056956976034 ; 9633.417991607057 ; 2984865.876849526 ; 1261977.7569005247 ; 31178.000000000004
132 ; 20212.634149712565 ; 9633.417991607057 ; 3005065.9338065023 ; 1271611.1748921317 ; 31416.000000000004
133 ; 19697.549336187498 ; 9633.417991607057 ; 3025278.567956215 ; 1281244.5928837387 ; 31654.000000000004
134 ; 19448.773123089362 ; 9633.417991607057 ; 3044976.1172924023 ; 1290878.0108753457 ; 31892.000000000004
135 ; 19446.470000065558 ; 9633.417991607057 ; 3064424.8904154915 ; 1300511.4288669527 ; 32130.000000000004
136 ; 19000.45758385077 ; 9633.417991607057 ; 3083871.360415557 ; 1310144.8468585596 ; 32368.000000000004
137 ; 18579.445196549976 ; 9633.417991607057 ; 3102871.8179994076 ; 1319778.2648501666 ; 32606.000000000004
138 ; 18466.386347863725 ; 9633.417991607057 ; 3121451.2631959575 ; 1329411.6828417736 ; 32844.00000000001
139 ; 18003.742787375257 ; 9633.417991607057 ; 3139917.6495438213 ; 1339045.1008333806 ; 33082.00000000001
140 ; 17938.068330937076 ; 9633.417991607057 ; 3157921.3923311965 ; 1348678.5188249876 ; 33320.00000000001
141 ; 17527.04990973162 ; 9633.417991607057 ; 3175859.4606621335 ; 1358311.9368165946 ; 33558.00000000001
142 ; 17172.061140028658 ; 9633.417991607057 ; 3193386.5105718654 ; 1367945.3548082015 ; 33796.00000000001
143 ; 16789.7644212854 ; 9633.417991607057 ; 3210558.571711894 ; 1377578.7727998085 ; 34034.00000000001
144 ; 16533.097120409213 ; 9633.417991607057 ; 3227348.3361331797 ; 1387212.1907914155 ; 34272.00000000001
145 ; 16404.635575960285 ; 9633.417991607057 ; 3243881.433253589 ; 1396845.6087830225 ; 34510.00000000001
146 ; 16312.917530700213 ; 9633.417991607057 ; 3260286.0688295495 ; 1406479.0267746295 ; 34748.00000000001
147 ; 16098.990078221066 ; 9633.417991607057 ; 3276598.9863602496 ; 1416112.4447662365 ; 34986.00000000001
148 ; 15985.104312836858 ; 9633.417991607057 ; 3292697.9764384707 ; 1425745.8627578435 ; 35224.00000000001
149 ; 15848.832777990243 ; 9633.417991607057 ; 3308683.0807513073 ; 1435379.2807494504 ; 35462.00000000001
150 ; 15893.715572155841 ; 9633.417991607057 ; 3324531.9135292973 ; 1445012.6987410574 ; 35700.00000000001
151 ; 15833.78284516529 ; 9633.417991607057 ; 3340425.6291014533 ; 1454646.1167326644 ; 35938.00000000001
152 ; 15571.083689153915 ; 9633.417991607057 ; 3356259.4119466185 ; 1464279.5347242714 ; 36176.00000000001
153 ; 15295.659447546543 ; 9633.417991607057 ; 3371830.4956357726 ; 1473912.9527158784 ; 36414.00000000001
154 ; 15429.911992289419 ; 9633.417991607057 ; 3387126.155083319 ; 1483546.3707074854 ; 36652.00000000001
155 ; 15305.182376893245 ; 9633.417991607057 ; 3402556.0670756088 ; 1493179.7886990923 ; 36890.00000000001
156 ; 15143.98632318644 ; 9633.417991607057 ; 3417861.249452502 ; 1502813.2066906993 ; 37128.00000000001
157 ; 14882.807730399909 ; 9633.417991607057 ; 3433005.2357756887 ; 1512446.6246823063 ; 37366.00000000001
158 ; 15028.912508325646 ; 9633.417991607057 ; 3447888.0435060887 ; 1522080.0426739133 ; 37604.00000000001
159 ; 14804.2253117318 ; 9633.417991607057 ; 3462916.9560144143 ; 1531713.4606655203 ; 37842.00000000001
160 ; 14655.81926256346 ; 9633.417991607057 ; 3477721.1813261462 ; 1541346.8786571273 ; 38080.00000000001
161 ; 14392.84323511098 ; 9633.417991607057 ; 3492377.0005887095 ; 1550980.2966487342 ; 38318.00000000001
162 ; 14336.668294981146 ; 9633.417991607057 ; 3506769.8438238204 ; 1560613.7146403412 ; 38556.00000000001
163 ; 14203.636272537455 ; 9633.417991607057 ; 3521106.5121188015 ; 1570247.1326319482 ; 38794.00000000001
164 ; 14064.507679174501 ; 9633.417991607057 ; 3535310.148391339 ; 1579880.5506235552 ; 39032.00000000001
165 ; 13982.409712336213 ; 9633.417991607057 ; 3549374.6560705137 ; 1589513.9686151622 ; 39270.00000000001
166 ; 13855.103346782415 ; 9633.417991607057 ; 3563357.0657828497 ; 1599147.3866067692 ; 39508.00000000001
167 ; 13755.449193901304 ; 9633.417991607057 ; 3577212.169129632 ; 1608780.8045983762 ; 39746.00000000001
168 ; 13389.826324884738 ; 9633.417991607057 ; 3590967.6183235333 ; 1618414.2225899831 ; 39984.00000000001
169 ; 13347.396659504331 ; 9633.417991607057 ; 3604357.444648418 ; 1628047.6405815901 ; 40222.00000000001
170 ; 13198.779506312709 ; 9633.417991607057 ; 3617704.8413079223 ; 1637681.058573197 ; 40460.00000000001
171 ; 13172.54708150139 ; 9633.417991607057 ; 3630903.620814235 ; 1647314.476564804 ; 40698.00000000001
172 ; 12899.930610689014 ; 9633.417991607057 ; 3644076.167895736 ; 1656947.894556411 ; 40936.00000000001
173 ; 12816.526713586029 ; 9633.417991607057 ; 3656976.098506425 ; 1666581.312548018 ; 41174.00000000001
174 ; 12697.54574014243 ; 9633.417991607057 ; 3669792.625220011 ; 1676214.730539625 ; 41412.00000000001
175 ; 12639.70556672068 ; 9633.417991607057 ; 3682490.1709601535 ; 1685848.148531232 ; 41650.00000000001
176 ; 12829.514594860755 ; 9633.417991607057 ; 3695129.876526874 ; 1695481.566522839 ; 41888.00000000001
177 ; 12672.530257950923 ; 9633.417991607057 ; 3707959.391121735 ; 1705114.984514446 ; 42126.00000000001
178 ; 12742.821494846377 ; 9633.417991607057 ; 3720631.921379686 ; 1714748.402506053 ; 42364.00000000001
179 ; 12889.246925690757 ; 9633.417991607057 ; 3733374.7428745325 ; 1724381.82049766 ; 42602.00000000001
180 ; 12928.60465694473 ; 9633.417991607057 ; 3746263.989800223 ; 1734015.238489267 ; 42840.00000000001
181 ; 12860.570111157971 ; 9633.417991607057 ; 3759192.5944571677 ; 1743648.656480874 ; 43078.00000000001
182 ; 12906.775985205713 ; 9633.417991607057 ; 3772053.1645683255 ; 1753282.074472481 ; 43316.00000000001
183 ; 13043.17185471725 ; 9633.417991607057 ; 3784959.940553531 ; 1762915.492464088 ; 43554.00000000001
184 ; 13097.949679235475 ; 9633.417991607057 ; 3798003.1124082482 ; 1772548.910455695 ; 43792.00000000001
185 ; 12993.773107218194 ; 9633.417991607057 ; 3811101.0620874837 ; 1782182.3284473019 ; 44030.00000000001
186 ; 12867.688995713768 ; 9633.417991607057 ; 3824094.835194702 ; 1791815.7464389089 ; 44268.00000000001
