CSV File for the City 3 on Day 192
1 - Minute m 
2 - Power Consumed at minute m 
3 - Power Produced at minute m 
4 - Energy Consumed since the beginning of the day 
5 - Energy Produced since the beginning of the day 
6 - Energy Lost since the beginning of the day on lines starting from the city
 
0 ; 4104.461455674934 ; 69673.06541644687 ; 0.0 ; 0.0 ; 0.0
1 ; 4591.426322609487 ; 69301.6742403024 ; 4104.461455674934 ; 69673.06541644687 ; 0.0
2 ; 5275.933241510839 ; 68967.60512069693 ; 8695.887778284421 ; 138974.73965674927 ; 0.0
3 ; 5459.338119754855 ; 68671.42835934031 ; 13971.821019795261 ; 207942.34477744618 ; 0.0
4 ; 5966.849741985718 ; 68413.65877835506 ; 19431.159139550116 ; 276613.7731367865 ; 0.0
5 ; 6461.190207955378 ; 68194.7516358335 ; 25398.008881535832 ; 345027.4319151415 ; 0.0
6 ; 6907.857185485711 ; 68015.09891160372 ; 31859.19908949121 ; 413222.18355097505 ; 0.0
7 ; 7276.196423619818 ; 67875.02603173681 ; 38767.056274976916 ; 481237.2824625788 ; 0.0
8 ; 7609.996153368197 ; 67774.78909437208 ; 46043.252698596734 ; 549112.3084943156 ; 0.0
9 ; 7976.400162498446 ; 67714.5726514002 ; 53653.248851964934 ; 616887.0975886877 ; 0.0
10 ; 8304.260906911366 ; 67694.48809061175 ; 61629.64901446338 ; 684601.6702400879 ; 0.0
11 ; 8808.482536194484 ; 67714.5726514002 ; 69933.90992137474 ; 752296.1583306997 ; 0.0
12 ; 9141.265291702319 ; 67774.78909437208 ; 78742.39245756922 ; 820010.7309820999 ; 0.0
13 ; 9674.12319216872 ; 67875.02603173681 ; 87883.65774927154 ; 887785.520076472 ; 0.0
14 ; 10037.846550722557 ; 68015.09891160372 ; 97557.78094144026 ; 955660.5461082088 ; 0.0
15 ; 10367.409652640827 ; 68194.7516358335 ; 107595.62749216282 ; 1023675.6450198125 ; 0.0
16 ; 10947.342985628824 ; 68413.65877835506 ; 117963.03714480365 ; 1091870.396655646 ; 0.0
17 ; 11010.318182159821 ; 68671.42835934031 ; 128910.38013043247 ; 1160284.055434001 ; 0.0
18 ; 11309.887221118604 ; 68967.605120697 ; 139920.69831259229 ; 1228955.4837933413 ; 0.0
19 ; 11814.518866838327 ; 69301.67424030232 ; 151230.5855337109 ; 1297923.0889140384 ; 0.0
20 ; 12060.75631994697 ; 69673.06541644693 ; 163045.10440054923 ; 1367224.7631543407 ; 0.0
21 ; 12449.635920351253 ; 70081.15725018828 ; 175105.8607204962 ; 1436897.8285707876 ; 0.0
22 ; 12665.085472486187 ; 70525.28185170399 ; 187555.49664084744 ; 1506978.9858209759 ; 0.0
23 ; 13178.548040271226 ; 71004.7295971935 ; 200220.58211333363 ; 1577504.2676726799 ; 0.0
24 ; 13359.989934482232 ; 71518.75396519904 ; 213399.13015360484 ; 1648508.9972698733 ; 0.0
25 ; 13671.576089898557 ; 72066.57638517718 ; 226759.12008808707 ; 1720027.7512350723 ; 0.0
26 ; 14000.36586425372 ; 72647.39103643598 ; 240430.69617798564 ; 1792094.3276202495 ; 0.0
27 ; 14434.079316244637 ; 73260.36954186643 ; 254431.06204223935 ; 1864741.7186566854 ; 0.0
28 ; 14726.913344995077 ; 73904.66550791031 ; 268865.141358484 ; 1938002.088198552 ; 0.0
29 ; 15012.336233450551 ; 74579.4188696264 ; 283592.05470347905 ; 2011906.7537064622 ; 0.0
30 ; 15414.741703227137 ; 75283.76000725111 ; 298604.3909369296 ; 2086486.1725760887 ; 0.0
31 ; 15579.388171927556 ; 76016.81360806857 ; 314019.1326401568 ; 2161769.93258334 ; 0.0
32 ; 15706.622003663364 ; 76777.70225449411 ; 329598.5208120843 ; 2237786.7461914085 ; 0.0
33 ; 16036.769500243985 ; 77565.54972587708 ; 345305.1428157477 ; 2314564.4484459027 ; 0.0
34 ; 16429.294014660474 ; 78379.48400753211 ; 361341.9123159917 ; 2392129.99817178 ; 0.0
35 ; 16687.65647220786 ; 79218.64000582625 ; 377771.2063306522 ; 2470509.482179312 ; 0.0
36 ; 17021.12063404765 ; 80082.16197275145 ; 394458.86280286004 ; 2549728.122185138 ; 0.0
37 ; 17260.4613456159 ; 80969.20564728265 ; 411479.9834369077 ; 2629810.2841578894 ; 0.0
38 ; 17434.048160180217 ; 81878.94012398503 ; 428740.4447825236 ; 2710779.489805172 ; 0.0
39 ; 17689.99637561474 ; 82810.54946181778 ; 446174.49294270383 ; 2792658.4299291573 ; 0.0
40 ; 17910.040720338613 ; 83763.2340479452 ; 463864.48931831855 ; 2875468.979390975 ; 0.0
41 ; 18270.219255948807 ; 84736.21173267059 ; 481774.53003865713 ; 2959232.21343892 ; 0.0
42 ; 18301.892505828335 ; 85728.71875240882 ; 500044.7492946059 ; 3043968.425171591 ; 0.0
43 ; 18515.401841518284 ; 86740.01045799987 ; 518346.64180043427 ; 3129697.1439239997 ; 0.0
44 ; 18785.78503322938 ; 87769.3618656782 ; 536862.0436419526 ; 3216437.1543819997 ; 0.0
45 ; 19118.460313088082 ; 88816.06804774224 ; 555647.828675182 ; 3304206.516247678 ; 0.0
46 ; 19225.066939521923 ; 89879.44437945269 ; 574766.28898827 ; 3393022.5842954204 ; 0.0
47 ; 19339.239684875807 ; 90958.82665799656 ; 593991.3559277919 ; 3482902.028674873 ; 0.0
48 ; 19629.63042211316 ; 92053.57110852329 ; 613330.5956126677 ; 3573860.8553328696 ; 0.0
49 ; 19878.31856243732 ; 93163.05429133789 ; 632960.2260347808 ; 3665914.426441393 ; 0.0
50 ; 19813.798474219282 ; 94286.67292335942 ; 652838.5445972182 ; 3759077.4807327306 ; 0.0
51 ; 20058.42135240557 ; 95423.84362594136 ; 672652.3430714374 ; 3853364.15365609 ; 0.0
52 ; 20246.396480404044 ; 96574.00261014255 ; 692710.764423843 ; 3948787.9972820315 ; 0.0
53 ; 20522.792010215646 ; 97736.60530954048 ; 712957.1609042471 ; 4045361.999892174 ; 0.0
54 ; 20628.956069576227 ; 98911.1259697107 ; 733479.9529144628 ; 4143098.605201714 ; 0.0
55 ; 20858.863462004203 ; 100097.0572025733 ; 754108.908984039 ; 4242009.7311714245 ; 0.0
56 ; 21074.301190845326 ; 101293.90951293122 ; 774967.7724460432 ; 4342106.788373997 ; 0.0
57 ; 21222.18484452329 ; 102501.21080370202 ; 796042.0736368885 ; 4443400.697886929 ; 0.0
58 ; 21227.32944041024 ; 103718.50586558315 ; 817264.2584814118 ; 4545901.908690631 ; 0.0
59 ; 21296.249577377916 ; 104945.35585618421 ; 838491.5879218221 ; 4649620.414556215 ; 0.0
60 ; 21549.07633721996 ; 106181.33777301373 ; 859787.8374992 ; 4754565.7704123985 ; 0.0
61 ; 21494.473695758934 ; 107426.0439241179 ; 881336.9138364199 ; 4860747.108185412 ; 0.0
62 ; 21647.806711206253 ; 108679.08139963713 ; 902831.3875321789 ; 4968173.15210953 ; 0.0
63 ; 21871.44776931112 ; 109940.0715470626 ; 924479.1942433851 ; 5076852.233509167 ; 0.0
64 ; 21912.30406626549 ; 111208.64945254529 ; 946350.6420126962 ; 5186792.305056229 ; 0.0
65 ; 21999.537609136616 ; 112484.46343022538 ; 968262.9460789617 ; 5298000.954508775 ; 0.0
66 ; 22126.833585306827 ; 113767.17452120683 ; 990262.4836880984 ; 5410485.417939 ; 0.0
67 ; 22186.718227201323 ; 115056.45600350003 ; 1012389.3172734051 ; 5524252.592460207 ; 0.0
68 ; 22479.762853879245 ; 116351.99291399056 ; 1034576.0355006065 ; 5639309.048463707 ; 0.0
69 ; 22316.939919716915 ; 117653.48158325786 ; 1057055.7983544858 ; 5755661.041377697 ; 0.0
70 ; 22355.082004454667 ; 118960.62918386466 ; 1079372.7382742027 ; 5873314.522960955 ; 0.0
71 ; 22447.5622723372 ; 120273.15329256229 ; 1101727.8202786574 ; 5992275.1521448195 ; 0.0
72 ; 22546.835044784 ; 121590.78146670421 ; 1124175.3825509946 ; 6112548.305437381 ; 0.0
73 ; 22685.63599034244 ; 122913.25083503069 ; 1146722.2175957786 ; 6234139.086904085 ; 0.0
74 ; 22647.73911777787 ; 124240.30770287428 ; 1169407.853586121 ; 6357052.337739116 ; 0.0
75 ; 22875.219001451922 ; 125571.707171744 ; 1192055.592703899 ; 6481292.645441989 ; 0.0
76 ; 22830.229811957775 ; 126907.2127731642 ; 1214930.8117053509 ; 6606864.352613733 ; 0.0
77 ; 22778.104651168087 ; 128246.59611658029 ; 1237761.0415173087 ; 6733771.565386897 ; 0.0
78 ; 22705.247827287585 ; 129589.63655108857 ; 1260539.1461684767 ; 6862018.161503477 ; 0.0
79 ; 22903.407971417604 ; 130936.1208407012 ; 1283244.3939957642 ; 6991607.798054566 ; 0.0
80 ; 22821.91451407271 ; 132285.84285282655 ; 1306147.8019671817 ; 7122543.918895267 ; 0.0
81 ; 22654.961722023832 ; 133638.6032596117 ; 1328969.7164812544 ; 7254829.761748093 ; 0.0
82 ; 22883.187959172257 ; 134994.20925177852 ; 1351624.6782032782 ; 7388468.365007705 ; 0.0
83 ; 22773.946055417095 ; 136352.47426456548 ; 1374507.8661624505 ; 7523462.574259483 ; 0.0
84 ; 22781.724015428113 ; 137713.21771537833 ; 1397281.8122178677 ; 7659815.048524049 ; 0.0
85 ; 22681.112821156938 ; 139076.26475274813 ; 1420063.536233296 ; 7797528.266239427 ; 0.0
86 ; 22844.782482668707 ; 140441.44601618944 ; 1442744.6490544528 ; 7936604.530992175 ; 0.0
87 ; 22811.83386417621 ; 141808.59740655462 ; 1465589.4315371215 ; 8077045.977008365 ; 0.0
88 ; 22778.131580989215 ; 143177.5598664812 ; 1488401.2654012977 ; 8218854.57441492 ; 0.0
89 ; 22710.938435281896 ; 144548.17917053605 ; 1511179.3969822868 ; 8362032.1342814015 ; 0.0
90 ; 22638.24597175366 ; 145920.3057246642 ; 1533890.3354175687 ; 8506580.313451938 ; 0.0
91 ; 22627.3116587577 ; 147293.7943745608 ; 1556528.5813893224 ; 8652500.619176602 ; 0.0
92 ; 22662.116468515924 ; 148668.50422259222 ; 1579155.8930480802 ; 8799794.413551163 ; 0.0
93 ; 22669.87745292562 ; 150044.29845290247 ; 1601818.009516596 ; 8948462.917773755 ; 0.0
94 ; 22457.362643475433 ; 151421.04416435253 ; 1624487.8869695216 ; 9098507.216226658 ; 0.0
95 ; 22237.726742423263 ; 152798.61221095 ; 1646945.249612997 ; 9249928.26039101 ; 0.0
96 ; 22255.45208563522 ; 154176.87704943944 ; 1669182.9763554204 ; 9402726.87260196 ; 0.0
97 ; 22262.086281377728 ; 155555.7165937338 ; 1691438.4284410556 ; 9556903.749651399 ; 0.0
98 ; 22117.288808689427 ; 156935.01207587996 ; 1713700.5147224334 ; 9712459.466245132 ; 0.0
99 ; 22056.33368302224 ; 158314.6479132632 ; 1735817.8035311229 ; 9869394.478321012 ; 0.0
100 ; 22049.565001600455 ; 159694.51158176668 ; 1757874.1372141452 ; 1.0027709126234276E7 ; 0.0
101 ; 21823.59858806959 ; 161074.49349461307 ; 1779923.7022157456 ; 1.0187403637816044E7 ; 0.0
102 ; 21771.11972684275 ; 162454.4868866276 ; 1801747.3008038152 ; 1.0348478131310657E7 ; 0.0
103 ; 21680.865636670205 ; 163834.38770367234 ; 1823518.420530658 ; 1.0510932618197285E7 ; 0.0
104 ; 21594.878583230045 ; 165214.0944970121 ; 1845199.2861673282 ; 1.0674767005900957E7 ; 0.0
105 ; 21319.517056907633 ; 166593.5083223836 ; 1866794.1647505583 ; 1.0839981100397969E7 ; 0.0
106 ; 21051.724674297708 ; 167972.53264354824 ; 1888113.6818074659 ; 1.1006574608720353E7 ; 0.0
107 ; 21103.80564291272 ; 169351.0732401209 ; 1909165.4064817636 ; 1.1174547141363902E7 ; 0.0
108 ; 21066.27062028771 ; 170729.03811947344 ; 1930269.2121246762 ; 1.1343898214604024E7 ; 0.0
109 ; 20826.04818339484 ; 172106.33743252492 ; 1951335.4827449638 ; 1.1514627252723496E7 ; 0.0
110 ; 20547.24042858089 ; 173482.88339323454 ; 1972161.5309283587 ; 1.168673359015602E7 ; 0.0
111 ; 20464.511022652663 ; 174858.59020162685 ; 1992708.7713569396 ; 1.1860216473549254E7 ; 0.0
112 ; 20351.032474010804 ; 176233.37397018186 ; 2013173.2823795923 ; 1.2035075063750882E7 ; 0.0
113 ; 20120.32835622613 ; 177607.1526534348 ; 2033524.314853603 ; 1.2211308437721064E7 ; 0.0
114 ; 19899.876233068884 ; 178979.84598063468 ; 2053644.6432098292 ; 1.23889155903745E7 ; 0.0
115 ; 19897.211934697756 ; 180351.3753913196 ; 2073544.5194428982 ; 1.2567895436355134E7 ; 0.0
116 ; 19475.28864837372 ; 181721.66397367328 ; 2093441.731377596 ; 1.2748246811746454E7 ; 0.0
117 ; 19468.673025893793 ; 183090.63640553286 ; 2112917.02002597 ; 1.2929968475720128E7 ; 0.0
118 ; 19125.801609420636 ; 184458.21889792543 ; 2132385.693051864 ; 1.3113059112125661E7 ; 0.0
119 ; 19080.226049484594 ; 185824.33914101645 ; 2151511.4946612846 ; 1.3297517331023587E7 ; 0.0
120 ; 18969.021549854984 ; 187188.92625235798 ; 2170591.7207107693 ; 1.3483341670164604E7 ; 0.0
121 ; 18592.87356472234 ; 188551.91072733086 ; 2189560.742260624 ; 1.3670530596416961E7 ; 0.0
122 ; 18466.212325213073 ; 189913.22439168053 ; 2208153.6158253467 ; 1.3859082507144293E7 ; 0.0
123 ; 18293.955897320535 ; 191272.8003560494 ; 2226619.8281505597 ; 1.4048995731535973E7 ; 0.0
124 ; 17852.542865843232 ; 192630.57297241528 ; 2244913.78404788 ; 1.4240268531892022E7 ; 0.0
125 ; 17845.746661059376 ; 193986.47779234828 ; 2262766.3269137233 ; 1.4432899104864437E7 ; 0.0
126 ; 17642.18731326487 ; 195340.45152700378 ; 2280612.073574783 ; 1.4626885582656786E7 ; 0.0
127 ; 17204.94289217047 ; 196692.43200877254 ; 2298254.2608880475 ; 1.4822226034183789E7 ; 0.0
128 ; 17119.598717591478 ; 198042.358154513 ; 2315459.203780218 ; 1.5018918466192562E7 ; 0.0
129 ; 16865.60640702448 ; 199390.16993029474 ; 2332578.8024978093 ; 1.5216960824347075E7 ; 0.0
130 ; 16480.67610023085 ; 200735.80831758416 ; 2349444.4089048337 ; 1.541635099427737E7 ; 0.0
131 ; 16196.145384594503 ; 202079.21528080953 ; 2365925.0850050645 ; 1.5617086802594954E7 ; 0.0
132 ; 15940.093445027593 ; 203420.33373624185 ; 2382121.230389659 ; 1.5819166017875765E7 ; 0.0
133 ; 15776.782362310194 ; 204759.10752213476 ; 2398061.3238346865 ; 1.6022586351612007E7 ; 0.0
134 ; 15484.623121000868 ; 206095.48137006626 ; 2413838.1061969968 ; 1.6227345459134143E7 ; 0.0
135 ; 15177.711083901379 ; 207429.40087743005 ; 2429322.7293179976 ; 1.6433440940504208E7 ; 0.0
136 ; 14946.950632060112 ; 208760.81248102573 ; 2444500.440401899 ; 1.6640870341381637E7 ; 0.0
137 ; 14599.426966527382 ; 210089.66343169927 ; 2459447.391033959 ; 1.6849631153862663E7 ; 0.0
138 ; 14436.971048088415 ; 211415.9017699884 ; 2474046.8180004866 ; 1.7059720817294363E7 ; 0.0
139 ; 13994.914699956496 ; 212739.4763027291 ; 2488483.789048575 ; 1.727113671906435E7 ; 0.0
140 ; 13680.49751269507 ; 214060.33658058092 ; 2502478.703748531 ; 1.748387619536708E7 ; 0.0
141 ; 13238.400053984658 ; 215378.4328764324 ; 2516159.201261226 ; 1.769793653194766E7 ; 0.0
142 ; 13096.958130510711 ; 216693.71616464818 ; 2529397.6013152106 ; 1.7913314964824095E7 ; 0.0
143 ; 12595.89313686634 ; 218006.13810112167 ; 2542494.559445721 ; 1.8130008680988744E7 ; 0.0
144 ; 12626.658300018602 ; 219315.65100409923 ; 2555090.4525825875 ; 1.8348014819089867E7 ; 0.0
145 ; 12458.146876986719 ; 220622.2078357428 ; 2567717.110882606 ; 1.8567330470093966E7 ; 0.0
146 ; 12319.183252948118 ; 221925.7621844002 ; 2580175.2577595925 ; 1.8787952677929707E7 ; 0.0
147 ; 12018.46409128514 ; 223226.2682475522 ; 2592494.441012541 ; 1.9009878440114107E7 ; 0.0
148 ; 11975.76261600808 ; 224523.68081540958 ; 2604512.905103826 ; 1.923310470836166E7 ; 0.0
149 ; 12070.350794073427 ; 225817.9552551314 ; 2616488.667719834 ; 1.945762838917707E7 ; 0.0
150 ; 11908.383372767543 ; 227109.0474956394 ; 2628559.0185139077 ; 1.96834463444322E7 ; 0.0
151 ; 11696.152392761682 ; 228396.91401300396 ; 2640467.401886675 ; 1.9910555391927842E7 ; 0.0
152 ; 11614.241805457264 ; 229681.51181637787 ; 2652163.554279437 ; 2.0138952305940848E7 ; 0.0
153 ; 11507.322830362717 ; 230962.79843445463 ; 2663777.796084894 ; 2.0368633817757227E7 ; 0.0
154 ; 11469.72830528697 ; 232240.73190243111 ; 2675285.1189152566 ; 2.059959661619168E7 ; 0.0
155 ; 11353.553850259475 ; 233515.27074945314 ; 2686754.847220544 ; 2.0831837348094113E7 ; 0.0
156 ; 11258.103446000929 ; 234786.3739865245 ; 2698108.4010708034 ; 2.1065352618843567E7 ; 0.0
157 ; 11116.636880174423 ; 236054.00109486075 ; 2709366.504516804 ; 2.130013899283009E7 ; 0.0
158 ; 11003.971345390726 ; 237318.11201467004 ; 2720483.1413969784 ; 2.153619299392495E7 ; 0.0
159 ; 10900.743773166385 ; 238578.66713434336 ; 2731487.112742369 ; 2.177351110593962E7 ; 0.0
160 ; 10813.75149890788 ; 239835.6272800387 ; 2742387.8565155356 ; 2.2012089773073964E7 ; 0.0
161 ; 10599.163594675054 ; 241088.9537056422 ; 2753201.6080144434 ; 2.2251925400354E7 ; 0.0
162 ; 10446.973106413081 ; 242338.60808309275 ; 2763800.7716091187 ; 2.2493014354059644E7 ; 0.0
163 ; 10318.718871479286 ; 243584.55249305462 ; 2774247.744715532 ; 2.2735352962142736E7 ; 0.0
164 ; 10262.672579690392 ; 244826.74941592512 ; 2784566.463587011 ; 2.297893751463579E7 ; 0.0
165 ; 10161.700475492333 ; 246065.16172316368 ; 2794829.1361667016 ; 2.3223764264051717E7 ; 0.0
166 ; 9887.911134546344 ; 247299.75266893036 ; 2804990.836642194 ; 2.346982942577488E7 ; 0.0
167 ; 9853.066362194897 ; 248530.48588202128 ; 2814878.74777674 ; 2.371712917844381E7 ; 0.0
168 ; 9827.282634955765 ; 249757.32535809 ; 2824731.814138935 ; 2.3965659664325833E7 ; 0.0
169 ; 9729.221310209054 ; 250980.23545214304 ; 2834559.096773891 ; 2.4215416989683922E7 ; 0.0
170 ; 9416.729125274216 ; 252199.1808713004 ; 2844288.3180841 ; 2.4466397225136064E7 ; 0.0
171 ; 9299.574554795536 ; 253414.1266678093 ; 2853705.047209374 ; 2.4718596406007364E7 ; 0.0
172 ; 9218.891595067083 ; 254625.0382323031 ; 2863004.6217641695 ; 2.4972010532675173E7 ; 0.0
173 ; 9002.340056235445 ; 255831.88128729461 ; 2872223.5133592365 ; 2.5226635570907477E7 ; 0.0
174 ; 9189.85461157505 ; 257034.62188089662 ; 2881225.853415472 ; 2.5482467452194773E7 ; 0.0
175 ; 9084.98698680414 ; 258233.2263807594 ; 2890415.708027047 ; 2.573950207407567E7 ; 0.0
176 ; 9172.853988265935 ; 259427.66146821837 ; 2899500.6950138514 ; 2.5997735300456427E7 ; 0.0
177 ; 9163.731140953993 ; 260617.89413264353 ; 2908673.5490021175 ; 2.6257162961924646E7 ; 0.0
178 ; 9239.747848545554 ; 261803.89166598316 ; 2917837.2801430714 ; 2.651778085605729E7 ; 0.0
179 ; 9103.454607049405 ; 262985.62165749486 ; 2927077.027991617 ; 2.6779584747723274E7 ; 0.0
180 ; 9252.575810154027 ; 264163.05198865704 ; 2936180.4825986666 ; 2.704257036938077E7 ; 0.0
181 ; 9210.881715793299 ; 265336.1508282533 ; 2945433.0584088205 ; 2.7306733421369426E7 ; 0.0
182 ; 9257.749818998413 ; 266504.8866276255 ; 2954643.9401246137 ; 2.757206957219768E7 ; 0.0
183 ; 9264.372325826109 ; 267669.2281160869 ; 2963901.689943612 ; 2.7838574458825305E7 ; 0.0
184 ; 9223.861537641189 ; 268829.1442964913 ; 2973166.062269438 ; 2.8106243686941393E7 ; 0.0
185 ; 9393.803075365198 ; 269984.6044409519 ; 2982389.9238070794 ; 2.8375072831237882E7 ; 0.0
186 ; 9378.223719980238 ; 271135.5780867049 ; 2991783.7268824447 ; 2.8645057435678836E7 ; 0.0
187 ; 9440.49602107698 ; 272282.03503211145 ; 3001161.950602425 ; 2.891619301376554E7 ; 0.0
188 ; 9295.886707072848 ; 273423.9453327951 ; 3010602.446623502 ; 2.9188475048797652E7 ; 0.0
189 ; 9454.253073431888 ; 274561.27929790755 ; 3019898.333330575 ; 2.9461898994130448E7 ; 0.0
190 ; 9535.213738517356 ; 275694.00748652086 ; 3029352.586404007 ; 2.9736460273428354E7 ; 0.0
191 ; 9415.486637868922 ; 276822.1007041381 ; 3038887.8001425243 ; 3.0012154280914877E7 ; 0.0
192 ; 9468.569730403726 ; 277945.52999932255 ; 3048303.286780393 ; 3.0288976381619014E7 ; 0.0
193 ; 9560.765608804562 ; 279064.2666604372 ; 3057771.856510797 ; 3.0566921911618337E7 ; 0.0
194 ; 9477.942936842252 ; 280178.282212494 ; 3067332.622119602 ; 3.0845986178278774E7 ; 0.0
195 ; 9692.650013252398 ; 281287.5484141065 ; 3076810.565056444 ; 3.112616446049127E7 ; 0.0
196 ; 9577.932436105157 ; 282392.03725454415 ; 3086503.215069697 ; 3.1407452008905377E7 ; 0.0
197 ; 9658.812338990327 ; 283491.72095088393 ; 3096081.147505802 ; 3.1689844046159923E7 ; 0.0
198 ; 9676.280373563743 ; 284586.57194525545 ; 3105739.9598447923 ; 3.1973335767110806E7 ; 0.0
199 ; 9918.744912860351 ; 285676.5629021779 ; 3115416.240218356 ; 3.225792233905606E7 ; 0.0
200 ; 9749.724271317751 ; 286761.6667059837 ; 3125334.9851312162 ; 3.254359890195824E7 ; 0.0
201 ; 9711.772716851538 ; 287841.85645832773 ; 3135084.709402534 ; 3.2830360568664223E7 ; 0.0
202 ; 9587.980740129973 ; 288917.1054757779 ; 3144796.4821193856 ; 3.311820242512255E7 ; 0.0
203 ; 10048.55848401457 ; 289987.387287485 ; 3154384.4628595156 ; 3.340711953059833E7 ; 0.0
204 ; 9720.780265091133 ; 291052.67563292914 ; 3164433.02134353 ; 3.369710691788582E7 ; 0.0
205 ; 9907.938956873877 ; 292112.94445973984 ; 3174153.801608621 ; 3.398815959351875E7 ; 0.0
206 ; 9926.750895694451 ; 293168.1679215874 ; 3184061.740565495 ; 3.4280272537978485E7 ; 0.0
207 ; 9889.243415854678 ; 294218.32037614373 ; 3193988.4914611895 ; 3.457344070590007E7 ; 0.0
208 ; 10005.076211343567 ; 295263.37638310954 ; 3203877.7348770443 ; 3.4867659026276216E7 ; 0.0
209 ; 10042.98475908589 ; 296303.3107023057 ; 3213882.811088388 ; 3.516292240265933E7 ; 0.0
210 ; 10032.188732806437 ; 297338.0982918279 ; 3223925.7958474737 ; 3.5459225713361636E7 ; 0.0
211 ; 10014.319049828886 ; 298367.71430626075 ; 3233957.9845802803 ; 3.5756563811653465E7 ; 0.0
212 ; 10141.157306691657 ; 299392.1340949504 ; 3243972.303630109 ; 3.605493152595972E7 ; 0.0
