CSV File for the City 1 on Day 167
1 - Minute m 
2 - Power Consumed at minute m 
3 - Power Produced at minute m 
4 - Energy Consumed since the beginning of the day 
5 - Energy Produced since the beginning of the day 
6 - Energy Lost since the beginning of the day on lines starting from the city
 
0 ; 7003.921292765163 ; 3417.6269659841164 ; 0.0 ; 0.0 ; 0.0
1 ; 7520.253162905565 ; 3417.6269659841164 ; 7003.921292765163 ; 3417.6269659841164 ; 238.00000000000003
2 ; 8073.323187249981 ; 3417.6269659841164 ; 14524.174455670727 ; 6835.253931968233 ; 476.00000000000006
3 ; 8469.803711499972 ; 3417.6269659841164 ; 22597.49764292071 ; 10252.88089795235 ; 714.0000000000001
4 ; 9221.355860731604 ; 3417.6269659841164 ; 31067.30135442068 ; 13670.507863936466 ; 952.0000000000001
5 ; 9756.648565107347 ; 3417.6269659841164 ; 40288.657215152285 ; 17088.134829920582 ; 1190.0000000000002
6 ; 10208.981627814046 ; 3417.6269659841164 ; 50045.30578025963 ; 20505.7617959047 ; 1428.0000000000002
7 ; 10548.579073320065 ; 3417.6269659841164 ; 60254.28740807368 ; 23923.388761888815 ; 1666.0000000000002
8 ; 10844.960750609938 ; 3417.6269659841164 ; 70802.86648139375 ; 27341.01572787293 ; 1904.0000000000002
9 ; 11520.348798376805 ; 3417.6269659841164 ; 81647.82723200369 ; 30758.642693857048 ; 2142.0000000000005
10 ; 12053.711462245285 ; 3417.6269659841164 ; 93168.17603038049 ; 34176.269659841164 ; 2380.0000000000005
11 ; 12399.669911028528 ; 3417.6269659841164 ; 105221.88749262577 ; 37593.89662582528 ; 2618.0000000000005
12 ; 12838.932571545158 ; 3417.6269659841164 ; 117621.5574036543 ; 41011.5235918094 ; 2856.0000000000005
13 ; 13473.064348122203 ; 3417.6269659841164 ; 130460.48997519945 ; 44429.15055779352 ; 3094.0000000000005
14 ; 13784.798426718933 ; 3417.6269659841164 ; 143933.55432332164 ; 47846.77752377764 ; 3332.0000000000005
15 ; 14160.946225517948 ; 3417.6269659841164 ; 157718.3527500406 ; 51264.40448976176 ; 3570.0000000000005
16 ; 14491.691671095792 ; 3417.6269659841164 ; 171879.29897555854 ; 54682.03145574588 ; 3808.0000000000005
17 ; 15056.291285783642 ; 3417.6269659841164 ; 186370.99064665433 ; 58099.65842173 ; 4046.0000000000005
18 ; 15525.196508986894 ; 3417.6269659841164 ; 201427.28193243797 ; 61517.28538771412 ; 4284.000000000001
19 ; 15786.766039791482 ; 3417.6269659841164 ; 216952.47844142487 ; 64934.91235369824 ; 4522.000000000001
20 ; 16307.704595682135 ; 3417.6269659841164 ; 232739.24448121636 ; 68352.53931968236 ; 4760.000000000001
21 ; 16677.24911186051 ; 3417.6269659841164 ; 249046.94907689848 ; 71770.16628566648 ; 4998.000000000001
22 ; 17138.60289685629 ; 3417.6269659841164 ; 265724.198188759 ; 75187.7932516506 ; 5236.000000000001
23 ; 17346.880483462755 ; 3417.6269659841164 ; 282862.8010856153 ; 78605.42021763472 ; 5474.000000000001
24 ; 17811.076482242523 ; 3417.6269659841164 ; 300209.68156907806 ; 82023.04718361884 ; 5712.000000000001
25 ; 18110.313720870265 ; 3417.6269659841164 ; 318020.75805132056 ; 85440.67414960296 ; 5950.000000000001
26 ; 18726.872652268044 ; 3417.6269659841164 ; 336131.0717721908 ; 88858.30111558708 ; 6188.000000000001
27 ; 18886.008801714615 ; 3417.6269659841164 ; 354857.94442445884 ; 92275.9280815712 ; 6426.000000000001
28 ; 19217.08172251872 ; 3417.6269659841164 ; 373743.9532261735 ; 95693.55504755532 ; 6664.000000000001
29 ; 19780.070299626408 ; 3417.6269659841164 ; 392961.0349486922 ; 99111.18201353944 ; 6902.000000000001
30 ; 20103.584918004897 ; 3417.6269659841164 ; 412741.1052483186 ; 102528.80897952356 ; 7140.000000000001
31 ; 20358.281691077435 ; 3417.6269659841164 ; 432844.69016632345 ; 105946.43594550768 ; 7378.000000000001
32 ; 20478.6352977707 ; 3417.6269659841164 ; 453202.9718574009 ; 109364.0629114918 ; 7616.000000000001
33 ; 20799.67944142648 ; 3417.6269659841164 ; 473681.6071551716 ; 112781.68987747592 ; 7854.000000000001
34 ; 21269.75053478329 ; 3417.6269659841164 ; 494481.28659659805 ; 116199.31684346004 ; 8092.000000000001
35 ; 21485.91320787329 ; 3417.6269659841164 ; 515751.03713138134 ; 119616.94380944416 ; 8330.000000000002
36 ; 21689.72884609758 ; 3417.6269659841164 ; 537236.9503392546 ; 123034.57077542828 ; 8568.000000000002
37 ; 22090.5061256081 ; 3417.6269659841164 ; 558926.6791853522 ; 126452.1977414124 ; 8806.000000000002
38 ; 22448.328421430364 ; 3417.6269659841164 ; 581017.1853109603 ; 129869.82470739652 ; 9044.000000000002
39 ; 22872.811685172757 ; 3417.6269659841164 ; 603465.5137323906 ; 133287.45167338062 ; 9282.000000000002
40 ; 22919.430521879858 ; 3417.6269659841164 ; 626338.3254175633 ; 136705.07863936474 ; 9520.000000000002
41 ; 23148.61602817471 ; 3417.6269659841164 ; 649257.7559394431 ; 140122.70560534886 ; 9758.000000000002
42 ; 23199.303798986224 ; 3417.6269659841164 ; 672406.3719676179 ; 143540.33257133298 ; 9996.000000000002
43 ; 23810.712762697756 ; 3417.6269659841164 ; 695605.6757666041 ; 146957.9595373171 ; 10234.000000000002
44 ; 23807.23712032362 ; 3417.6269659841164 ; 719416.3885293019 ; 150375.58650330122 ; 10472.000000000002
45 ; 24200.697852243466 ; 3417.6269659841164 ; 743223.6256496254 ; 153793.21346928534 ; 10710.000000000002
46 ; 24404.253249964113 ; 3417.6269659841164 ; 767424.3235018689 ; 157210.84043526946 ; 10948.000000000002
47 ; 24692.53571151129 ; 3417.6269659841164 ; 791828.576751833 ; 160628.46740125358 ; 11186.000000000002
48 ; 25041.886326360167 ; 3417.6269659841164 ; 816521.1124633442 ; 164046.0943672377 ; 11424.000000000002
49 ; 25127.179852664805 ; 3417.6269659841164 ; 841562.9987897044 ; 167463.72133322182 ; 11662.000000000002
50 ; 25342.085434381966 ; 3417.6269659841164 ; 866690.1786423692 ; 170881.34829920594 ; 11900.000000000002
51 ; 25528.86048587502 ; 3417.6269659841164 ; 892032.2640767512 ; 174298.97526519006 ; 12138.000000000002
52 ; 25846.29516377649 ; 3417.6269659841164 ; 917561.1245626262 ; 177716.60223117418 ; 12376.000000000002
53 ; 25889.929831948157 ; 3417.6269659841164 ; 943407.4197264027 ; 181134.2291971583 ; 12614.000000000002
54 ; 26132.40175688165 ; 3417.6269659841164 ; 969297.3495583509 ; 184551.85616314242 ; 12852.000000000002
55 ; 26157.255367361457 ; 3417.6269659841164 ; 995429.7513152325 ; 187969.48312912654 ; 13090.000000000002
56 ; 26322.389265080994 ; 3417.6269659841164 ; 1021587.006682594 ; 191387.11009511066 ; 13328.000000000002
57 ; 26614.86797483723 ; 3417.6269659841164 ; 1047909.395947675 ; 194804.73706109478 ; 13566.000000000002
58 ; 26792.84410012746 ; 3417.6269659841164 ; 1074524.2639225123 ; 198222.3640270789 ; 13804.000000000002
59 ; 26908.03603226013 ; 3417.6269659841164 ; 1101317.1080226398 ; 201639.99099306302 ; 14042.000000000002
60 ; 26982.671097004288 ; 3417.6269659841164 ; 1128225.1440549 ; 205057.61795904714 ; 14280.000000000002
61 ; 27096.46569542375 ; 3417.6269659841164 ; 1155207.8151519042 ; 208475.24492503126 ; 14518.000000000002
62 ; 27363.05699378987 ; 3417.6269659841164 ; 1182304.280847328 ; 211892.87189101538 ; 14756.000000000002
63 ; 27348.473622913014 ; 3417.6269659841164 ; 1209667.337841118 ; 215310.4988569995 ; 14994.000000000002
64 ; 27424.017634708893 ; 3417.6269659841164 ; 1237015.811464031 ; 218728.12582298362 ; 15232.000000000002
65 ; 27765.06074786058 ; 3417.6269659841164 ; 1264439.82909874 ; 222145.75278896774 ; 15470.000000000002
66 ; 27914.9439645408 ; 3417.6269659841164 ; 1292204.8898466006 ; 225563.37975495186 ; 15708.000000000002
67 ; 27683.98261800672 ; 3417.6269659841164 ; 1320119.8338111413 ; 228981.00672093598 ; 15946.000000000002
68 ; 28043.42551374737 ; 3417.6269659841164 ; 1347803.816429148 ; 232398.6336869201 ; 16184.000000000002
69 ; 28178.611780915977 ; 3417.6269659841164 ; 1375847.2419428953 ; 235816.26065290422 ; 16422.000000000004
70 ; 28234.541766929702 ; 3417.6269659841164 ; 1404025.8537238112 ; 239233.88761888834 ; 16660.000000000004
71 ; 28234.855302670563 ; 3417.6269659841164 ; 1432260.395490741 ; 242651.51458487246 ; 16898.000000000004
72 ; 28089.100173396964 ; 3417.6269659841164 ; 1460495.2507934114 ; 246069.14155085658 ; 17136.000000000004
73 ; 28195.57442374127 ; 3417.6269659841164 ; 1488584.3509668084 ; 249486.7685168407 ; 17374.000000000004
74 ; 28681.625138773376 ; 3417.6269659841164 ; 1516779.9253905497 ; 252904.39548282482 ; 17612.000000000004
75 ; 28396.310312689322 ; 3417.6269659841164 ; 1545461.550529323 ; 256322.02244880894 ; 17850.000000000004
76 ; 28396.99052174182 ; 3417.6269659841164 ; 1573857.8608420123 ; 259739.64941479306 ; 18088.000000000004
77 ; 28459.96674161146 ; 3417.6269659841164 ; 1602254.8513637541 ; 263157.2763807772 ; 18326.000000000004
78 ; 28645.635933150763 ; 3417.6269659841164 ; 1630714.8181053656 ; 266574.9033467613 ; 18564.000000000004
79 ; 28615.62443295813 ; 3417.6269659841164 ; 1659360.4540385164 ; 269992.5303127454 ; 18802.000000000004
80 ; 28581.271128149147 ; 3417.6269659841164 ; 1687976.0784714746 ; 273410.15727872954 ; 19040.000000000004
81 ; 28613.437983567874 ; 3417.6269659841164 ; 1716557.3495996238 ; 276827.78424471366 ; 19278.000000000004
82 ; 28662.611769983338 ; 3417.6269659841164 ; 1745170.7875831916 ; 280245.4112106978 ; 19516.000000000004
83 ; 28691.75427788976 ; 3417.6269659841164 ; 1773833.399353175 ; 283663.0381766819 ; 19754.000000000004
84 ; 28612.666500056093 ; 3417.6269659841164 ; 1802525.1536310648 ; 287080.665142666 ; 19992.000000000004
85 ; 28662.56732795471 ; 3417.6269659841164 ; 1831137.820131121 ; 290498.29210865014 ; 20230.000000000004
86 ; 28610.68883107247 ; 3417.6269659841164 ; 1859800.3874590758 ; 293915.91907463426 ; 20468.000000000004
87 ; 28700.941614605254 ; 3417.6269659841164 ; 1888411.0762901483 ; 297333.5460406184 ; 20706.000000000004
88 ; 28417.263192801885 ; 3417.6269659841164 ; 1917112.0179047536 ; 300751.1730066025 ; 20944.000000000004
89 ; 28270.60845762628 ; 3417.6269659841164 ; 1945529.2810975555 ; 304168.7999725866 ; 21182.000000000004
90 ; 28554.79696193052 ; 3417.6269659841164 ; 1973799.8895551818 ; 307586.42693857074 ; 21420.000000000004
91 ; 28550.445831735255 ; 3417.6269659841164 ; 2002354.6865171124 ; 311004.05390455486 ; 21658.000000000004
92 ; 28177.25328288506 ; 3417.6269659841164 ; 2030905.1323488476 ; 314421.680870539 ; 21896.000000000004
93 ; 28258.050929565165 ; 3417.6269659841164 ; 2059082.3856317326 ; 317839.3078365231 ; 22134.000000000004
94 ; 28112.971883026712 ; 3417.6269659841164 ; 2087340.4365612979 ; 321256.9348025072 ; 22372.000000000004
95 ; 28120.694075643387 ; 3417.6269659841164 ; 2115453.4084443245 ; 324674.56176849134 ; 22610.000000000004
96 ; 27876.522297184692 ; 3417.6269659841164 ; 2143574.102519968 ; 328092.18873447547 ; 22848.000000000004
97 ; 27986.973576316224 ; 3417.6269659841164 ; 2171450.624817153 ; 331509.8157004596 ; 23086.000000000004
98 ; 27845.549131267264 ; 3417.6269659841164 ; 2199437.598393469 ; 334927.4426664437 ; 23324.000000000004
99 ; 27631.873841240118 ; 3417.6269659841164 ; 2227283.1475247364 ; 338345.0696324278 ; 23562.000000000004
100 ; 27855.95948439995 ; 3417.6269659841164 ; 2254915.0213659764 ; 341762.69659841195 ; 23800.000000000004
101 ; 27510.24387678451 ; 3417.6269659841164 ; 2282770.980850376 ; 345180.32356439607 ; 24038.000000000004
102 ; 27367.40549661859 ; 3417.6269659841164 ; 2310281.2247271608 ; 348597.9505303802 ; 24276.000000000004
103 ; 27194.405198742006 ; 3417.6269659841164 ; 2337648.6302237795 ; 352015.5774963643 ; 24514.000000000004
104 ; 27043.95645900855 ; 3417.6269659841164 ; 2364843.0354225216 ; 355433.2044623484 ; 24752.000000000004
105 ; 26912.557593513775 ; 3417.6269659841164 ; 2391886.9918815303 ; 358850.83142833255 ; 24990.000000000004
106 ; 26720.380081175394 ; 3417.6269659841164 ; 2418799.549475044 ; 362268.45839431667 ; 25228.000000000004
107 ; 26651.11563102796 ; 3417.6269659841164 ; 2445519.9295562194 ; 365686.0853603008 ; 25466.000000000004
108 ; 26546.47812102775 ; 3417.6269659841164 ; 2472171.0451872475 ; 369103.7123262849 ; 25704.000000000004
109 ; 26238.862923093246 ; 3417.6269659841164 ; 2498717.5233082753 ; 372521.339292269 ; 25942.000000000004
110 ; 26147.78730639298 ; 3417.6269659841164 ; 2524956.3862313684 ; 375938.96625825315 ; 26180.000000000004
111 ; 25824.934779697378 ; 3417.6269659841164 ; 2551104.1735377614 ; 379356.59322423727 ; 26418.000000000004
112 ; 25725.171644162412 ; 3417.6269659841164 ; 2576929.108317459 ; 382774.2201902214 ; 26656.000000000004
113 ; 25577.26263758895 ; 3417.6269659841164 ; 2602654.2799616214 ; 386191.8471562055 ; 26894.000000000004
114 ; 25424.831080916978 ; 3417.6269659841164 ; 2628231.5425992105 ; 389609.4741221896 ; 27132.000000000004
115 ; 25177.158755126606 ; 3417.6269659841164 ; 2653656.3736801273 ; 393027.10108817375 ; 27370.000000000004
116 ; 24866.63719348394 ; 3417.6269659841164 ; 2678833.5324352537 ; 396444.72805415787 ; 27608.000000000004
117 ; 24768.65994920806 ; 3417.6269659841164 ; 2703700.1696287375 ; 399862.355020142 ; 27846.000000000004
118 ; 24564.006335783237 ; 3417.6269659841164 ; 2728468.8295779456 ; 403279.9819861261 ; 28084.000000000004
119 ; 24205.852108755535 ; 3417.6269659841164 ; 2753032.835913729 ; 406697.6089521102 ; 28322.000000000004
120 ; 24052.462192338353 ; 3417.6269659841164 ; 2777238.6880224845 ; 410115.23591809435 ; 28560.000000000004
121 ; 23719.962828065396 ; 3417.6269659841164 ; 2801291.150214823 ; 413532.86288407847 ; 28798.000000000004
122 ; 23404.40774288099 ; 3417.6269659841164 ; 2825011.113042888 ; 416950.4898500626 ; 29036.000000000004
123 ; 23141.97648935462 ; 3417.6269659841164 ; 2848415.5207857694 ; 420368.1168160467 ; 29274.000000000004
124 ; 22834.16869570845 ; 3417.6269659841164 ; 2871557.497275124 ; 423785.7437820308 ; 29512.000000000004
125 ; 22648.735652110143 ; 3417.6269659841164 ; 2894391.665970832 ; 427203.37074801495 ; 29750.000000000004
126 ; 22416.892478124028 ; 3417.6269659841164 ; 2917040.401622942 ; 430620.99771399907 ; 29988.000000000004
127 ; 22192.043104846143 ; 3417.6269659841164 ; 2939457.2941010664 ; 434038.6246799832 ; 30226.000000000004
128 ; 21917.823133858357 ; 3417.6269659841164 ; 2961649.3372059125 ; 437456.2516459673 ; 30464.000000000004
129 ; 21782.36179984582 ; 3417.6269659841164 ; 2983567.160339771 ; 440873.8786119514 ; 30702.000000000004
130 ; 21264.915470704582 ; 3417.6269659841164 ; 3005349.522139617 ; 444291.50557793555 ; 30940.000000000004
131 ; 20882.196994569793 ; 3417.6269659841164 ; 3026614.437610321 ; 447709.13254391967 ; 31178.000000000004
132 ; 20601.16010828079 ; 3417.6269659841164 ; 3047496.634604891 ; 451126.7595099038 ; 31416.000000000004
133 ; 20236.97131698361 ; 3417.6269659841164 ; 3068097.7947131717 ; 454544.3864758879 ; 31654.000000000004
134 ; 19992.31708275033 ; 3417.6269659841164 ; 3088334.766030155 ; 457962.013441872 ; 31892.000000000004
135 ; 19686.202560947047 ; 3417.6269659841164 ; 3108327.0831129053 ; 461379.64040785615 ; 32130.000000000004
136 ; 19442.062280565788 ; 3417.6269659841164 ; 3128013.2856738525 ; 464797.26737384027 ; 32368.000000000004
137 ; 18691.526000599395 ; 3417.6269659841164 ; 3147455.3479544185 ; 468214.8943398244 ; 32606.000000000004
138 ; 18644.787186686084 ; 3417.6269659841164 ; 3166146.873955018 ; 471632.5213058085 ; 32844.00000000001
139 ; 18204.20418552822 ; 3417.6269659841164 ; 3184791.661141704 ; 475050.1482717926 ; 33082.00000000001
140 ; 17800.3427596649 ; 3417.6269659841164 ; 3202995.865327232 ; 478467.77523777675 ; 33320.00000000001
141 ; 17419.839094453087 ; 3417.6269659841164 ; 3220796.208086897 ; 481885.40220376087 ; 33558.00000000001
142 ; 17073.845330622513 ; 3417.6269659841164 ; 3238216.04718135 ; 485303.029169745 ; 33796.00000000001
143 ; 16768.088620068444 ; 3417.6269659841164 ; 3255289.8925119727 ; 488720.6561357291 ; 34034.00000000001
144 ; 16350.208593526071 ; 3417.6269659841164 ; 3272057.981132041 ; 492138.2831017132 ; 34272.00000000001
145 ; 16277.722277685136 ; 3417.6269659841164 ; 3288408.189725567 ; 495555.91006769735 ; 34510.00000000001
146 ; 16031.971281125343 ; 3417.6269659841164 ; 3304685.912003252 ; 498973.53703368147 ; 34748.00000000001
147 ; 15839.832445901697 ; 3417.6269659841164 ; 3320717.8832843774 ; 502391.1639996656 ; 34986.00000000001
148 ; 15952.0985980982 ; 3417.6269659841164 ; 3336557.715730279 ; 505808.7909656497 ; 35224.00000000001
149 ; 15847.693070755882 ; 3417.6269659841164 ; 3352509.8143283776 ; 509226.4179316338 ; 35462.00000000001
150 ; 15506.881679035121 ; 3417.6269659841164 ; 3368357.5073991334 ; 512644.04489761795 ; 35700.00000000001
151 ; 15693.41923242372 ; 3417.6269659841164 ; 3383864.3890781687 ; 516061.67186360207 ; 35938.00000000001
152 ; 15262.175174101078 ; 3417.6269659841164 ; 3399557.8083105925 ; 519479.2988295862 ; 36176.00000000001
153 ; 15225.868357298355 ; 3417.6269659841164 ; 3414819.983484694 ; 522896.9257955703 ; 36414.00000000001
154 ; 15131.983722714784 ; 3417.6269659841164 ; 3430045.8518419922 ; 526314.5527615544 ; 36652.00000000001
155 ; 14992.427407416857 ; 3417.6269659841164 ; 3445177.835564707 ; 529732.1797275385 ; 36890.00000000001
156 ; 14988.11389767973 ; 3417.6269659841164 ; 3460170.262972124 ; 533149.8066935226 ; 37128.00000000001
157 ; 14824.050293792852 ; 3417.6269659841164 ; 3475158.3768698038 ; 536567.4336595067 ; 37366.00000000001
158 ; 14578.138575152228 ; 3417.6269659841164 ; 3489982.4271635967 ; 539985.0606254908 ; 37604.00000000001
159 ; 14541.92967516772 ; 3417.6269659841164 ; 3504560.5657387488 ; 543402.687591475 ; 37842.00000000001
160 ; 14300.114996062408 ; 3417.6269659841164 ; 3519102.4954139167 ; 546820.3145574591 ; 38080.00000000001
161 ; 14185.462076691563 ; 3417.6269659841164 ; 3533402.6104099792 ; 550237.9415234432 ; 38318.00000000001
162 ; 14084.53597105561 ; 3417.6269659841164 ; 3547588.0724866707 ; 553655.5684894273 ; 38556.00000000001
163 ; 13814.347243525968 ; 3417.6269659841164 ; 3561672.6084577264 ; 557073.1954554114 ; 38794.00000000001
164 ; 13506.849268885759 ; 3417.6269659841164 ; 3575486.9557012524 ; 560490.8224213956 ; 39032.00000000001
165 ; 13628.550010014827 ; 3417.6269659841164 ; 3588993.8049701382 ; 563908.4493873797 ; 39270.00000000001
166 ; 13347.76108099348 ; 3417.6269659841164 ; 3602622.354980153 ; 567326.0763533638 ; 39508.00000000001
167 ; 13382.448536671734 ; 3417.6269659841164 ; 3615970.1160611464 ; 570743.7033193479 ; 39746.00000000001
168 ; 13181.227856433967 ; 3417.6269659841164 ; 3629352.564597818 ; 574161.330285332 ; 39984.00000000001
169 ; 13147.697223370098 ; 3417.6269659841164 ; 3642533.792454252 ; 577578.9572513162 ; 40222.00000000001
170 ; 12812.613277557426 ; 3417.6269659841164 ; 3655681.489677622 ; 580996.5842173003 ; 40460.00000000001
171 ; 12618.65833268302 ; 3417.6269659841164 ; 3668494.1029551793 ; 584414.2111832844 ; 40698.00000000001
172 ; 12495.268365320397 ; 3417.6269659841164 ; 3681112.7612878624 ; 587831.8381492685 ; 40936.00000000001
173 ; 12334.270144839391 ; 3417.6269659841164 ; 3693608.0296531827 ; 591249.4651152526 ; 41174.00000000001
174 ; 12278.090818913706 ; 3417.6269659841164 ; 3705942.299798022 ; 594667.0920812368 ; 41412.00000000001
175 ; 12499.387559733972 ; 3417.6269659841164 ; 3718220.3906169357 ; 598084.7190472209 ; 41650.00000000001
176 ; 12442.609525160016 ; 3417.6269659841164 ; 3730719.7781766695 ; 601502.346013205 ; 41888.00000000001
177 ; 12310.679332425812 ; 3417.6269659841164 ; 3743162.3877018294 ; 604919.9729791891 ; 42126.00000000001
178 ; 12420.2369071714 ; 3417.6269659841164 ; 3755473.0670342552 ; 608337.5999451732 ; 42364.00000000001
179 ; 12617.942660084389 ; 3417.6269659841164 ; 3767893.303941427 ; 611755.2269111574 ; 42602.00000000001
180 ; 12470.723682696464 ; 3417.6269659841164 ; 3780511.2466015113 ; 615172.8538771415 ; 42840.00000000001
181 ; 12488.985535232465 ; 3417.6269659841164 ; 3792981.9702842077 ; 618590.4808431256 ; 43078.00000000001
182 ; 12445.637454336787 ; 3417.6269659841164 ; 3805470.95581944 ; 622008.1078091097 ; 43316.00000000001
183 ; 12556.039689930529 ; 3417.6269659841164 ; 3817916.593273777 ; 625425.7347750938 ; 43554.00000000001
184 ; 12808.856587272981 ; 3417.6269659841164 ; 3830472.6329637077 ; 628843.361741078 ; 43792.00000000001
