CSV File for the City 3 on Day 287
1 - Minute m 
2 - Power Consumed at minute m 
3 - Power Produced at minute m 
4 - Energy Consumed since the beginning of the day 
5 - Energy Produced since the beginning of the day 
6 - Energy Lost since the beginning of the day on lines starting from the city
 
0 ; 7030.713692359603 ; 141238.3373863051 ; 0.0 ; 0.0 ; 0.0
1 ; 7283.207726156545 ; 140884.3388836033 ; 7030.713692359603 ; 141238.3373863051 ; 0.0
2 ; 7745.287676693548 ; 140566.77505454185 ; 14313.921418516147 ; 282122.67626990844 ; 0.0
3 ; 8139.562276783809 ; 140285.91758930733 ; 22059.209095209695 ; 422689.4513244503 ; 0.0
4 ; 8393.518202244815 ; 140042.00878155904 ; 30198.771371993505 ; 562975.3689137576 ; 0.0
5 ; 8573.189050944387 ; 139835.26059372255 ; 38592.28957423832 ; 703017.3776953167 ; 0.0
6 ; 8945.790513210746 ; 139665.85382859592 ; 47165.4786251827 ; 842852.6382890393 ; 0.0
7 ; 9308.614753227173 ; 139533.93741481693 ; 56111.26913839345 ; 982518.4921176352 ; 0.0
8 ; 9586.641860958043 ; 139439.6278128073 ; 65419.88389162062 ; 1122052.429532452 ; 0.0
9 ; 9941.85266852227 ; 139383.00854676278 ; 75006.52575257866 ; 1261492.0573452592 ; 0.0
10 ; 10253.888991239734 ; 139364.1298671255 ; 84948.37842110093 ; 1400875.065892022 ; 0.0
11 ; 10563.621331961502 ; 139383.00854676278 ; 95202.26741234066 ; 1540239.1957591476 ; 0.0
12 ; 10877.38985851182 ; 139439.6278128073 ; 105765.88874430217 ; 1679622.2043059105 ; 0.0
13 ; 11104.438290082817 ; 139533.93741481693 ; 116643.27860281398 ; 1819061.8321187177 ; 0.0
14 ; 11533.385476143449 ; 139665.85382859583 ; 127747.7168928968 ; 1958595.7695335345 ; 0.0
15 ; 11614.587074538078 ; 139835.26059372255 ; 139281.10236904025 ; 2098261.6233621305 ; 0.0
16 ; 11949.94749964541 ; 140042.00878155904 ; 150895.68944357833 ; 2238096.883955853 ; 0.0
17 ; 12128.592950412134 ; 140285.91758930733 ; 162845.63694322374 ; 2378138.892737412 ; 0.0
18 ; 12482.31366757723 ; 140566.7750545419 ; 174974.22989363587 ; 2518424.810326719 ; 0.0
19 ; 12891.027964460825 ; 140884.3388836033 ; 187456.5435612131 ; 2658991.585381261 ; 0.0
20 ; 12821.360763970526 ; 141238.33738630515 ; 200347.57152567393 ; 2799875.9242648645 ; 0.0
21 ; 13139.287229441388 ; 141628.4705085947 ; 213168.93228964446 ; 2941114.2616511695 ; 0.0
22 ; 13491.974871913162 ; 142054.41095412566 ; 226308.21951908586 ; 3082742.732159764 ; 0.0
23 ; 13830.69694712254 ; 142515.80538516212 ; 239800.19439099904 ; 3224797.1431138897 ; 0.0
24 ; 14013.508252498477 ; 143012.27569282794 ; 253630.89133812158 ; 3367312.948499052 ; 0.0
25 ; 14269.112901095183 ; 143543.4203264613 ; 267644.3995906201 ; 3510325.22419188 ; 0.0
26 ; 14526.037478642367 ; 144108.8156717116 ; 281913.51249171526 ; 3653868.644518341 ; 0.0
27 ; 14667.90087983469 ; 144708.0174670324 ; 296439.5499703576 ; 3797977.4601900526 ; 0.0
28 ; 14928.478440437166 ; 145340.562248362 ; 311107.4508501923 ; 3942685.477657085 ; 0.0
29 ; 15174.633585851407 ; 146005.9688120438 ; 326035.92929062946 ; 4088026.0399054466 ; 0.0
30 ; 15253.290847459379 ; 146703.73968639437 ; 341210.56287648086 ; 4234032.00871749 ; 0.0
31 ; 15498.940717752315 ; 147433.36260278625 ; 356463.85372394026 ; 4380735.7484038845 ; 0.0
32 ; 15837.581669258558 ; 148194.31195763953 ; 371962.7944416926 ; 4528169.111006671 ; 0.0
33 ; 15961.580072409815 ; 148986.05025731437 ; 387800.3761109511 ; 4676363.42296431 ; 0.0
34 ; 16138.757246865438 ; 149808.02953854352 ; 403761.95618336095 ; 4825349.473221624 ; 0.0
35 ; 16398.999428346593 ; 150659.6927577247 ; 419900.7134302264 ; 4975157.502760168 ; 0.0
36 ; 16574.885685149016 ; 151540.47514310147 ; 436299.71285857295 ; 5125817.195517893 ; 0.0
37 ; 16711.896022666937 ; 152449.80550457613 ; 452874.59854372195 ; 5277357.670660994 ; 0.0
38 ; 16904.821600674106 ; 153387.10749661803 ; 469586.4945663889 ; 5429807.47616557 ; 0.0
39 ; 17051.18796924823 ; 154351.80083043466 ; 486491.316167063 ; 5583194.583662189 ; 0.0
40 ; 17323.66630405252 ; 155343.3024322605 ; 503542.50413631124 ; 5737546.384492624 ; 0.0
41 ; 17477.44747231881 ; 156361.0275452807 ; 520866.17044036376 ; 5892889.686924884 ; 0.0
42 ; 17554.338742222462 ; 157404.39077332846 ; 538343.6179126826 ; 6049250.714470165 ; 0.0
43 ; 17769.439428227026 ; 158472.80706508868 ; 555897.9566549051 ; 6206655.105243493 ; 0.0
44 ; 18089.01210447239 ; 159565.6926380804 ; 573667.3960831321 ; 6365127.912308581 ; 0.0
45 ; 18009.61123655363 ; 160682.46584219552 ; 591756.4081876045 ; 6524693.604946662 ; 0.0
46 ; 18120.821750982 ; 161822.54796302234 ; 609766.0194241581 ; 6685376.0707888575 ; 0.0
47 ; 18431.014646982785 ; 162985.3639655914 ; 627886.8411751401 ; 6847198.61875188 ; 0.0
48 ; 18553.01223880594 ; 164170.3431795387 ; 646317.8558221229 ; 7010183.982717471 ; 0.0
49 ; 18672.952508938877 ; 165376.9199269966 ; 664870.8680609288 ; 7174354.32589701 ; 0.0
50 ; 18615.302383046743 ; 166604.5340947915 ; 683543.8205698676 ; 7339731.245824006 ; 0.0
51 ; 18854.050192789942 ; 167852.63165275176 ; 702159.1229529143 ; 7506335.779918798 ; 0.0
52 ; 19135.297468335513 ; 169120.66512011833 ; 721013.1731457043 ; 7674188.41157155 ; 0.0
53 ; 19143.791141029942 ; 170408.09398219612 ; 740148.4706140398 ; 7843309.0766916685 ; 0.0
54 ; 19071.726727506786 ; 171714.38505949947 ; 759292.2617550697 ; 8013717.170673865 ; 0.0
55 ; 19371.615969857914 ; 173039.0128317257 ; 778363.9884825766 ; 8185431.555733364 ; 0.0
56 ; 19568.106497621815 ; 174381.4597189461 ; 797735.6044524345 ; 8358470.56856509 ; 0.0
57 ; 19565.529576552806 ; 175741.216322426 ; 817303.7109500563 ; 8532852.028284036 ; 0.0
58 ; 19675.523465945345 ; 177117.78162749606 ; 836869.2405266091 ; 8708593.244606461 ; 0.0
59 ; 19617.89564697429 ; 178510.66317087688 ; 856544.7639925545 ; 8885711.026233958 ; 0.0
60 ; 19782.38108852259 ; 179919.3771748272 ; 876162.6596395288 ; 9064221.689404834 ; 0.0
61 ; 19937.428684101807 ; 181343.44865043895 ; 895945.0407280514 ; 9244141.06657966 ; 0.0
62 ; 20105.9312917097 ; 182782.41147234122 ; 915882.4694121532 ; 9425484.515230099 ; 0.0
63 ; 20161.7462569604 ; 184235.80842700612 ; 935988.4007038629 ; 9608266.92670244 ; 0.0
64 ; 20142.26198961549 ; 185703.1912367691 ; 956150.1469608233 ; 9792502.735129446 ; 0.0
65 ; 20058.64288689689 ; 187184.12056159304 ; 976292.4089504388 ; 9978205.926366216 ; 0.0
66 ; 20319.84271310335 ; 188678.1659805159 ; 996351.0518373357 ; 1.0165390046927808E7 ; 0.0
67 ; 20261.52066804975 ; 190184.90595462619 ; 1016670.8945504391 ; 1.0354068212908324E7 ; 0.0
68 ; 20293.847127633067 ; 191703.9277733195 ; 1036932.4152184888 ; 1.054425311886295E7 ; 0.0
69 ; 20488.61492231506 ; 193234.8274854898 ; 1057226.262346122 ; 1.0735957046636268E7 ; 0.0
70 ; 20563.453843408013 ; 194777.20981721635 ; 1077714.877268437 ; 1.092919187412176E7 ; 0.0
71 ; 20613.527640394066 ; 196330.68807740975 ; 1098278.331111845 ; 1.1123969083938975E7 ; 0.0
72 ; 20708.66884402245 ; 197894.88405278913 ; 1118891.8587522393 ; 1.1320299772016384E7 ; 0.0
73 ; 20617.88840271561 ; 199469.42789347097 ; 1139600.5275962618 ; 1.1518194656069173E7 ; 0.0
74 ; 20730.28061662444 ; 201053.95799036053 ; 1160218.4159989774 ; 1.1717664083962644E7 ; 0.0
75 ; 20550.758070322627 ; 202648.120845453 ; 1180948.696615602 ; 1.1918718041953005E7 ; 0.0
76 ; 20582.09520393452 ; 204251.57093606825 ; 1201499.4546859246 ; 1.2121366162798459E7 ; 0.0
77 ; 20767.512079967295 ; 205863.97057396377 ; 1222081.549889859 ; 1.2325617733734528E7 ; 0.0
78 ; 20725.033189877286 ; 207484.98976019816 ; 1242849.0619698262 ; 1.2531481704308491E7 ; 0.0
79 ; 20757.709991219628 ; 209114.30603654147 ; 1263574.0951597034 ; 1.2738966694068689E7 ; 0.0
80 ; 20930.248851350716 ; 210751.60433416747 ; 1284331.805150923 ; 1.294808100010523E7 ; 0.0
81 ; 20871.402663014418 ; 212396.5768202922 ; 1305262.0540022738 ; 1.3158832604439398E7 ; 0.0
82 ; 20910.96710691477 ; 214048.9227433695 ; 1326133.4566652882 ; 1.337122918125969E7 ; 0.0
83 ; 20557.27443515402 ; 215708.34827739387 ; 1347044.423772203 ; 1.3585278104003059E7 ; 0.0
84 ; 20662.737936802394 ; 217374.5663658095 ; 1367601.698207357 ; 1.3800986452280452E7 ; 0.0
85 ; 20730.625374873664 ; 219047.2965654766 ; 1388264.4361441594 ; 1.4018361018646263E7 ; 0.0
86 ; 20743.10659080242 ; 220726.2648910971 ; 1408995.061519033 ; 1.423740831521174E7 ; 0.0
87 ; 20805.203377236096 ; 222411.20366046316 ; 1429738.1681098354 ; 1.4458134580102837E7 ; 0.0
88 ; 20682.140979936634 ; 224101.85134084855 ; 1450543.3714870715 ; 1.46805457837633E7 ; 0.0
89 ; 20739.801545588776 ; 225797.95239682996 ; 1471225.512467008 ; 1.490464763510415E7 ; 0.0
90 ; 20704.385285193628 ; 227499.257139789 ; 1491965.3140125968 ; 1.513044558750098E7 ; 0.0
91 ; 20587.876542876795 ; 229205.52157931554 ; 1512669.6992977904 ; 1.5357944844640769E7 ; 0.0
92 ; 20481.425050789305 ; 230916.50727670486 ; 1533257.5758406671 ; 1.5587150366220085E7 ; 0.0
93 ; 20526.833047368997 ; 232631.98120071497 ; 1553739.0008914564 ; 1.581806687349679E7 ; 0.0
94 ; 20471.074599500254 ; 234351.7155857244 ; 1574265.8339388254 ; 1.6050698854697505E7 ; 0.0
95 ; 20308.059499625357 ; 236075.48779241228 ; 1594736.9085383257 ; 1.6285050570283229E7 ; 0.0
96 ; 20310.668048250925 ; 237803.0801710599 ; 1615044.968037951 ; 1.652112605807564E7 ; 0.0
97 ; 20413.0313355521 ; 239534.27992755553 ; 1635355.636086202 ; 1.67589291382467E7 ; 0.0
98 ; 20219.673321564354 ; 241268.87899216852 ; 1655768.667421754 ; 1.6998463418174256E7 ; 0.0
99 ; 20113.636021987346 ; 243006.67389114195 ; 1675988.3407433184 ; 1.7239732297166426E7 ; 0.0
100 ; 20079.679148690226 ; 244747.46562114288 ; 1696101.9767653057 ; 1.7482738971057568E7 ; 0.0
101 ; 19962.96596555166 ; 246491.0595265929 ; 1716181.655913996 ; 1.772748643667871E7 ; 0.0
102 ; 19938.555908149556 ; 248237.2651798945 ; 1736144.6218795476 ; 1.7973977496205304E7 ; 0.0
103 ; 19733.09100942515 ; 249985.89626455665 ; 1756083.1777876972 ; 1.82222147613852E7 ; 0.0
104 ; 19749.193200384463 ; 251736.77046121564 ; 1775816.2687971224 ; 1.8472200657649755E7 ; 0.0
105 ; 19527.127688220924 ; 253489.70933653865 ; 1795565.461997507 ; 1.8723937428110972E7 ; 0.0
106 ; 19375.62023068073 ; 255244.5382349913 ; 1815092.5896857278 ; 1.897742713744751E7 ; 0.0
107 ; 19351.16997120948 ; 257001.08617344397 ; 1834468.2099164086 ; 1.92326716756825E7 ; 0.0
108 ; 19340.307376346103 ; 258759.1857385859 ; 1853819.3798876181 ; 1.9489672761855945E7 ; 0.0
109 ; 19136.518389115645 ; 260518.67298711344 ; 1873159.6872639642 ; 1.974843194759453E7 ; 0.0
110 ; 18965.50133217416 ; 262279.38734865194 ; 1892296.2056530798 ; 2.0008950620581646E7 ; 0.0
111 ; 18892.67732651162 ; 264041.17153137 ; 1911261.7069852538 ; 2.0271230007930297E7 ; 0.0
112 ; 18847.97412225774 ; 265803.8714302401 ; 1930154.3843117654 ; 2.053527117946167E7 ; 0.0
113 ; 18763.92358748295 ; 267567.3360378977 ; 1949002.358434023 ; 2.080107505089191E7 ; 0.0
114 ; 18547.664742146804 ; 269331.4173580492 ; 1967766.282021506 ; 2.1068642386929806E7 ; 0.0
115 ; 18258.053193242107 ; 271095.97032137774 ; 1986313.9467636528 ; 2.1337973804287855E7 ; 0.0
116 ; 18180.796325558505 ; 272860.85270389233 ; 2004571.999956895 ; 2.160906977460923E7 ; 0.0
117 ; 18115.644171399385 ; 274625.92504766886 ; 2022752.7962824535 ; 2.1881930627313122E7 ; 0.0
118 ; 18054.615124908392 ; 276391.05058392545 ; 2040868.4404538528 ; 2.215655655236079E7 ; 0.0
119 ; 17782.48236393167 ; 278156.09515838034 ; 2058923.0555787613 ; 2.2432947602944717E7 ; 0.0
120 ; 17549.97712167013 ; 279920.9271588339 ; 2076705.5379426929 ; 2.2711103698103096E7 ; 0.0
121 ; 17502.861601894576 ; 281685.41744492087 ; 2094255.515064363 ; 2.299102462526193E7 ; 0.0
122 ; 17279.616494639016 ; 283449.4392799783 ; 2111758.3766662576 ; 2.327271004270685E7 ; 0.0
123 ; 17068.03066612782 ; 285212.86826497136 ; 2129037.9931608965 ; 2.355615948198683E7 ; 0.0
124 ; 16967.489157133405 ; 286975.58227442583 ; 2146106.0238270243 ; 2.38413723502518E7 ; 0.0
125 ; 16868.36836286131 ; 288737.46139430976 ; 2163073.5129841575 ; 2.4128347932526227E7 ; 0.0
126 ; 16394.91820067413 ; 290498.3878618131 ; 2179941.8813470188 ; 2.4417085393920537E7 ; 0.0
127 ; 16369.062953939449 ; 292258.2460069716 ; 2196336.7995476928 ; 2.470758378178235E7 ; 0.0
128 ; 16195.328182739428 ; 294016.9221960824 ; 2212705.8625016324 ; 2.4999842027789325E7 ; 0.0
129 ; 16090.800215827569 ; 295774.3047768614 ; 2228901.1906843716 ; 2.5293858949985407E7 ; 0.0
130 ; 15805.629943692014 ; 297530.2840252901 ; 2244991.9909001994 ; 2.558963325476227E7 ; 0.0
131 ; 15373.173100280117 ; 299284.75209410494 ; 2260797.6208438915 ; 2.588716353878756E7 ; 0.0
132 ; 15266.141799559873 ; 301037.60296287836 ; 2276170.7939441716 ; 2.6186448290881664E7 ; 0.0
133 ; 14961.801819141398 ; 302788.7323896467 ; 2291436.9357437314 ; 2.648748589384454E7 ; 0.0
134 ; 15003.167212859142 ; 304538.03786403575 ; 2306398.737562873 ; 2.679027462623419E7 ; 0.0
135 ; 14643.964340149176 ; 306285.41856184136 ; 2321401.904775732 ; 2.7094812664098226E7 ; 0.0
136 ; 14408.744719910566 ; 308030.77530101937 ; 2336045.869115881 ; 2.7401098082660068E7 ; 0.0
137 ; 14132.74724618229 ; 309774.01049904205 ; 2350454.6138357916 ; 2.770912885796109E7 ; 0.0
138 ; 13961.773538661824 ; 311515.02813157934 ; 2364587.3610819736 ; 2.801890286846013E7 ; 0.0
139 ; 13549.007569386957 ; 313253.7336924641 ; 2378549.1346206353 ; 2.8330417896591708E7 ; 0.0
140 ; 13447.692033682051 ; 314990.03415490023 ; 2392098.1421900224 ; 2.864367163028417E7 ; 0.0
141 ; 13029.562363850775 ; 316723.83793387655 ; 2405545.8342237044 ; 2.895866166443907E7 ; 0.0
142 ; 12758.857924364305 ; 318455.0548497482 ; 2418575.3965875553 ; 2.9275385502372947E7 ; 0.0
143 ; 12589.142512705052 ; 320183.5960929481 ; 2431334.25451192 ; 2.9593840557222694E7 ; 0.0
144 ; 12502.333966516508 ; 321909.3741897939 ; 2443923.397024625 ; 2.991402415331564E7 ; 0.0
145 ; 12365.321861718478 ; 323632.302969355 ; 2456425.7309911414 ; 3.0235933527505435E7 ; 0.0
146 ; 12360.586138855935 ; 325352.2975313472 ; 2468791.0528528597 ; 3.055956583047479E7 ; 0.0
147 ; 12352.880363817825 ; 327069.2742150205 ; 2481151.638991716 ; 3.0884918128006138E7 ; 0.0
148 ; 12238.371332947283 ; 328783.150569011 ; 2493504.5193555336 ; 3.121198740222116E7 ; 0.0
149 ; 12102.348052758402 ; 330493.8453221236 ; 2505742.890688481 ; 3.154077055279017E7 ; 0.0
150 ; 12073.156087880938 ; 332201.2783550174 ; 2517845.238741239 ; 3.1871264398112293E7 ; 0.0
151 ; 11933.068938255416 ; 333905.3706727652 ; 2529918.39482912 ; 3.220346567646731E7 ; 0.0
152 ; 12026.676959969322 ; 335606.04437825724 ; 2541851.4637673753 ; 3.2537371047140077E7 ; 0.0
153 ; 11786.19405261787 ; 337303.2226464248 ; 2553878.1407273444 ; 3.2872977091518335E7 ; 0.0
154 ; 11528.54201528281 ; 338996.8296992551 ; 2565664.3347799624 ; 3.321028031416476E7 ; 0.0
155 ; 11495.167540795926 ; 340686.7907815737 ; 2577192.8767952453 ; 3.3549277143864017E7 ; 0.0
156 ; 11453.036107005822 ; 342373.0321375689 ; 2588688.0443360414 ; 3.388996393464559E7 ; 0.0
157 ; 11506.972995257853 ; 344055.48098803486 ; 2600141.0804430475 ; 3.423233696678316E7 ; 0.0
158 ; 11161.193554653131 ; 345734.06550831 ; 2611648.0534383054 ; 3.457639244777119E7 ; 0.0
159 ; 11045.230051921853 ; 347408.71480688907 ; 2622809.2469929587 ; 3.4922126513279505E7 ; 0.0
160 ; 11260.354600834866 ; 349079.35890468635 ; 2633854.4770448804 ; 3.52695352280864E7 ; 0.0
161 ; 10987.443201464172 ; 350745.9287149301 ; 2645114.831645715 ; 3.561861458699109E7 ; 0.0
162 ; 11067.408309049279 ; 352408.356023667 ; 2656102.274847179 ; 3.596936051570602E7 ; 0.0
163 ; 10822.450546352291 ; 354066.5734708585 ; 2667169.6831562286 ; 3.632176887172969E7 ; 0.0
164 ; 10545.569751546946 ; 355720.51453204866 ; 2677992.133702581 ; 3.667583544520055E7 ; 0.0
165 ; 10524.334948112693 ; 357370.1135005857 ; 2688537.7034541275 ; 3.70315559597326E7 ; 0.0
166 ; 10507.464567746609 ; 359015.30547038105 ; 2699062.0384022403 ; 3.738892607323319E7 ; 0.0
167 ; 10299.681918528351 ; 360656.02631918556 ; 2709569.5029699868 ; 3.774794137870357E7 ; 0.0
168 ; 10274.053802417142 ; 362292.2126923702 ; 2719869.184888515 ; 3.8108597405022755E7 ; 0.0
169 ; 10120.238473343552 ; 363923.80198719184 ; 2730143.2386909323 ; 3.847088961771513E7 ; 0.0
170 ; 9980.01798318447 ; 365550.73233753105 ; 2740263.477164276 ; 3.883481341970232E7 ; 0.0
171 ; 9879.644006369705 ; 367172.94259908615 ; 2750243.4951474606 ; 3.9200364152039856E7 ; 0.0
172 ; 9875.466598079425 ; 368790.3723350083 ; 2760123.1391538302 ; 3.956753709463894E7 ; 0.0
173 ; 9678.55767331579 ; 370402.96180196444 ; 2769998.60575191 ; 3.993632746697395E7 ; 0.0
174 ; 9742.287535119067 ; 372010.65193661564 ; 2779677.1634252258 ; 4.0306730428775914E7 ; 0.0
175 ; 9918.571725062564 ; 373613.38434249494 ; 2789419.4509603446 ; 4.067874108071253E7 ; 0.0
176 ; 9740.905198007766 ; 375211.1012772747 ; 2799338.022685407 ; 4.105235446505502E7 ; 0.0
177 ; 9893.298074837374 ; 376803.7456404101 ; 2809078.927883415 ; 4.1427565566332296E7 ; 0.0
178 ; 9820.764620453449 ; 378391.2609611472 ; 2818972.2259582523 ; 4.180436931197271E7 ; 0.0
179 ; 9835.939506890478 ; 379973.59138688387 ; 2828792.990578706 ; 4.218276057293385E7 ; 0.0
180 ; 9759.230894808281 ; 381550.68167187285 ; 2838628.930085596 ; 4.256273416432074E7 ; 0.0
181 ; 9846.704519633506 ; 383122.4771662564 ; 2848388.1609804044 ; 4.294428484599261E7 ; 0.0
182 ; 9754.824589924327 ; 384688.9238054214 ; 2858234.865500038 ; 4.332740732315887E7 ; 0.0
183 ; 9694.553268079773 ; 386249.9680996663 ; 2867989.6900899624 ; 4.371209624696429E7 ; 0.0
184 ; 9892.199964006379 ; 387805.5571241687 ; 2877684.243358042 ; 4.409834621506396E7 ; 0.0
185 ; 9941.434252175397 ; 389355.6385092455 ; 2887576.4433220485 ; 4.448615177218813E7 ; 0.0
186 ; 9825.81273233591 ; 390900.1604308958 ; 2897517.877574224 ; 4.487550741069737E7 ; 0.0
187 ; 9814.263671000845 ; 392439.0716016182 ; 2907343.69030656 ; 4.5266407571128264E7 ; 0.0
188 ; 9824.003652548705 ; 393972.321261494 ; 2917157.953977561 ; 4.5658846642729886E7 ; 0.0
189 ; 9906.341866377474 ; 395499.85916952795 ; 2926981.95763011 ; 4.605281896399138E7 ; 0.0
190 ; 9907.918489269521 ; 397021.63559523877 ; 2936888.2994964872 ; 4.644831882316091E7 ; 0.0
191 ; 9852.399652638682 ; 398537.6013104921 ; 2946796.2179857567 ; 4.684534045875615E7 ; 0.0
192 ; 9868.525074060895 ; 400000.0 ; 2956648.617638395 ; 4.724387806006664E7 ; 0.0
193 ; 9870.545921939265 ; 400000.0 ; 2966517.142712456 ; 4.764387806006664E7 ; 0.0
194 ; 9849.935284102039 ; 400000.0 ; 2976387.6886343956 ; 4.804387806006664E7 ; 0.0
195 ; 9916.443820781169 ; 400000.0 ; 2986237.6239184975 ; 4.844387806006664E7 ; 0.0
196 ; 9970.129738578706 ; 400000.0 ; 2996154.0677392785 ; 4.884387806006664E7 ; 0.0
197 ; 9893.850685920632 ; 400000.0 ; 3006124.197477857 ; 4.924387806006664E7 ; 0.0
198 ; 10133.726781240926 ; 400000.0 ; 3016018.0481637777 ; 4.964387806006664E7 ; 0.0
199 ; 10189.364527579508 ; 400000.0 ; 3026151.774945019 ; 5.004387806006664E7 ; 0.0
200 ; 10231.720926999493 ; 400000.0 ; 3036341.139472598 ; 5.044387806006664E7 ; 0.0
201 ; 9872.779614820798 ; 400000.0 ; 3046572.860399598 ; 5.084387806006664E7 ; 0.0
202 ; 10068.469605949966 ; 400000.0 ; 3056445.6400144184 ; 5.124387806006664E7 ; 0.0
203 ; 10036.975166630486 ; 400000.0 ; 3066514.1096203686 ; 5.164387806006664E7 ; 0.0
204 ; 10091.756331126417 ; 400000.0 ; 3076551.084786999 ; 5.204387806006664E7 ; 0.0
205 ; 10081.3189586685 ; 400000.0 ; 3086642.8411181252 ; 5.244387806006664E7 ; 0.0
206 ; 10106.497491802886 ; 400000.0 ; 3096724.1600767937 ; 5.284387806006664E7 ; 0.0
207 ; 10027.339383069278 ; 400000.0 ; 3106830.657568597 ; 5.324387806006664E7 ; 0.0
208 ; 10145.633344250193 ; 400000.0 ; 3116857.996951666 ; 5.364387806006664E7 ; 0.0
209 ; 10342.003039876443 ; 400000.0 ; 3127003.6302959165 ; 5.404387806006664E7 ; 0.0
210 ; 10250.878358994632 ; 400000.0 ; 3137345.633335793 ; 5.444387806006664E7 ; 0.0
211 ; 10411.639281500611 ; 400000.0 ; 3147596.5116947875 ; 5.484387806006664E7 ; 0.0
212 ; 10327.249038651073 ; 400000.0 ; 3158008.150976288 ; 5.524387806006664E7 ; 0.0
213 ; 10307.226178078232 ; 400000.0 ; 3168335.4000149393 ; 5.564387806006664E7 ; 0.0
214 ; 10296.87483926247 ; 400000.0 ; 3178642.6261930177 ; 5.604387806006664E7 ; 0.0
