CSV File for the City 1 on Day 178
1 - Minute m 
2 - Power Consumed at minute m 
3 - Power Produced at minute m 
4 - Energy Consumed since the beginning of the day 
5 - Energy Produced since the beginning of the day 
6 - Energy Lost since the beginning of the day on lines starting from the city
 
0 ; 6289.151932842316 ; 2692.8486160314205 ; 0.0 ; 0.0 ; 0.0
1 ; 6969.963144443498 ; 2692.8486160314205 ; 6289.151932842316 ; 2692.8486160314205 ; 238.00000000000003
2 ; 7490.019832160522 ; 2692.8486160314205 ; 13259.115077285813 ; 5385.697232062841 ; 476.00000000000006
3 ; 7937.85809998433 ; 2692.8486160314205 ; 20749.134909446337 ; 8078.545848094262 ; 714.0000000000001
4 ; 8373.774896212184 ; 2692.8486160314205 ; 28686.993009430666 ; 10771.394464125682 ; 952.0000000000001
5 ; 8980.051012887096 ; 2692.8486160314205 ; 37060.767905642846 ; 13464.243080157103 ; 1190.0000000000002
6 ; 9683.967068354867 ; 2692.8486160314205 ; 46040.81891852994 ; 16157.091696188523 ; 1428.0000000000002
7 ; 10112.040968298246 ; 2692.8486160314205 ; 55724.78598688481 ; 18849.940312219944 ; 1666.0000000000002
8 ; 10511.066837099816 ; 2692.8486160314205 ; 65836.82695518306 ; 21542.788928251364 ; 1904.0000000000002
9 ; 10986.960228754788 ; 2692.8486160314205 ; 76347.89379228288 ; 24235.637544282785 ; 2142.0000000000005
10 ; 11540.838350070891 ; 2692.8486160314205 ; 87334.85402103767 ; 26928.486160314205 ; 2380.0000000000005
11 ; 12165.337930116311 ; 2692.8486160314205 ; 98875.69237110855 ; 29621.334776345626 ; 2618.0000000000005
12 ; 12541.850575401037 ; 2692.8486160314205 ; 111041.03030122486 ; 32314.183392377046 ; 2856.0000000000005
13 ; 13007.178176102245 ; 2692.8486160314205 ; 123582.8808766259 ; 35007.03200840847 ; 3094.0000000000005
14 ; 13390.150881669912 ; 2692.8486160314205 ; 136590.05905272815 ; 37699.88062443989 ; 3332.0000000000005
15 ; 13860.956930782726 ; 2692.8486160314205 ; 149980.20993439807 ; 40392.72924047131 ; 3570.0000000000005
16 ; 14451.137471542965 ; 2692.8486160314205 ; 163841.1668651808 ; 43085.57785650273 ; 3808.0000000000005
17 ; 14825.022643652757 ; 2692.8486160314205 ; 178292.30433672376 ; 45778.42647253415 ; 4046.0000000000005
18 ; 15121.307918699938 ; 2692.8486160314205 ; 193117.3269803765 ; 48471.27508856557 ; 4284.000000000001
19 ; 15637.302394985683 ; 2692.8486160314205 ; 208238.63489907642 ; 51164.12370459699 ; 4522.000000000001
20 ; 16154.893313221013 ; 2692.8486160314205 ; 223875.9372940621 ; 53856.97232062841 ; 4760.000000000001
21 ; 16425.72880980392 ; 2692.8486160314205 ; 240030.83060728313 ; 56549.82093665983 ; 4998.000000000001
22 ; 16992.473811171498 ; 2692.8486160314205 ; 256456.55941708706 ; 59242.66955269125 ; 5236.000000000001
23 ; 17444.44767629585 ; 2692.8486160314205 ; 273449.03322825854 ; 61935.51816872267 ; 5474.000000000001
24 ; 17718.955507534436 ; 2692.8486160314205 ; 290893.48090455437 ; 64628.36678475409 ; 5712.000000000001
25 ; 18318.234027192295 ; 2692.8486160314205 ; 308612.4364120888 ; 67321.21540078551 ; 5950.000000000001
26 ; 18482.545250040377 ; 2692.8486160314205 ; 326930.6704392811 ; 70014.06401681693 ; 6188.000000000001
27 ; 19034.288842632533 ; 2692.8486160314205 ; 345413.21568932146 ; 72706.91263284835 ; 6426.000000000001
28 ; 19384.487534966844 ; 2692.8486160314205 ; 364447.504531954 ; 75399.76124887977 ; 6664.000000000001
29 ; 19683.43179924566 ; 2692.8486160314205 ; 383831.99206692085 ; 78092.6098649112 ; 6902.000000000001
30 ; 20042.78996812258 ; 2692.8486160314205 ; 403515.4238661665 ; 80785.45848094262 ; 7140.000000000001
31 ; 20292.282886335666 ; 2692.8486160314205 ; 423558.21383428905 ; 83478.30709697404 ; 7378.000000000001
32 ; 20585.097145120417 ; 2692.8486160314205 ; 443850.49672062474 ; 86171.15571300546 ; 7616.000000000001
33 ; 21198.43986688919 ; 2692.8486160314205 ; 464435.5938657452 ; 88864.00432903688 ; 7854.000000000001
34 ; 21387.53771599725 ; 2692.8486160314205 ; 485634.0337326344 ; 91556.8529450683 ; 8092.000000000001
35 ; 21806.832713364984 ; 2692.8486160314205 ; 507021.57144863164 ; 94249.70156109972 ; 8330.000000000002
36 ; 21948.16380631696 ; 2692.8486160314205 ; 528828.4041619967 ; 96942.55017713114 ; 8568.000000000002
37 ; 22334.794798935567 ; 2692.8486160314205 ; 550776.5679683136 ; 99635.39879316256 ; 8806.000000000002
38 ; 22608.386368205684 ; 2692.8486160314205 ; 573111.3627672491 ; 102328.24740919398 ; 9044.000000000002
39 ; 22870.011752987964 ; 2692.8486160314205 ; 595719.7491354548 ; 105021.0960252254 ; 9282.000000000002
40 ; 23303.38673367408 ; 2692.8486160314205 ; 618589.7608884427 ; 107713.94464125682 ; 9520.000000000002
41 ; 23782.120347028907 ; 2692.8486160314205 ; 641893.1476221168 ; 110406.79325728824 ; 9758.000000000002
42 ; 23682.953271761748 ; 2692.8486160314205 ; 665675.2679691458 ; 113099.64187331966 ; 9996.000000000002
43 ; 24104.309785284153 ; 2692.8486160314205 ; 689358.2212409076 ; 115792.49048935108 ; 10234.000000000002
44 ; 24431.056554214392 ; 2692.8486160314205 ; 713462.5310261917 ; 118485.3391053825 ; 10472.000000000002
45 ; 24675.613553233743 ; 2692.8486160314205 ; 737893.5875804061 ; 121178.18772141392 ; 10710.000000000002
46 ; 24741.086002225456 ; 2692.8486160314205 ; 762569.2011336399 ; 123871.03633744534 ; 10948.000000000002
47 ; 24953.498098506585 ; 2692.8486160314205 ; 787310.2871358653 ; 126563.88495347677 ; 11186.000000000002
48 ; 25199.475560354767 ; 2692.8486160314205 ; 812263.7852343719 ; 129256.73356950819 ; 11424.000000000002
49 ; 25522.177434985468 ; 2692.8486160314205 ; 837463.2607947267 ; 131949.5821855396 ; 11662.000000000002
50 ; 25642.44022363964 ; 2692.8486160314205 ; 862985.4382297122 ; 134642.430801571 ; 11900.000000000002
51 ; 25932.390771440332 ; 2692.8486160314205 ; 888627.8784533518 ; 137335.2794176024 ; 12138.000000000002
52 ; 26064.654583340787 ; 2692.8486160314205 ; 914560.2692247921 ; 140028.1280336338 ; 12376.000000000002
53 ; 26241.20252522127 ; 2692.8486160314205 ; 940624.9238081329 ; 142720.97664966522 ; 12614.000000000002
54 ; 26620.103502565045 ; 2692.8486160314205 ; 966866.1263333542 ; 145413.82526569662 ; 12852.000000000002
55 ; 26830.419644498263 ; 2692.8486160314205 ; 993486.2298359192 ; 148106.67388172803 ; 13090.000000000002
56 ; 27021.56320667434 ; 2692.8486160314205 ; 1020316.6494804175 ; 150799.52249775943 ; 13328.000000000002
57 ; 27053.28828403064 ; 2692.8486160314205 ; 1047338.2126870918 ; 153492.37111379084 ; 13566.000000000002
58 ; 27215.156919753677 ; 2692.8486160314205 ; 1074391.5009711224 ; 156185.21972982225 ; 13804.000000000002
59 ; 27495.642886799644 ; 2692.8486160314205 ; 1101606.657890876 ; 158878.06834585365 ; 14042.000000000002
60 ; 27774.4431231868 ; 2692.8486160314205 ; 1129102.3007776756 ; 161570.91696188506 ; 14280.000000000002
61 ; 27814.141015615558 ; 2692.8486160314205 ; 1156876.7439008623 ; 164263.76557791646 ; 14518.000000000002
62 ; 27723.652862650513 ; 2692.8486160314205 ; 1184690.8849164778 ; 166956.61419394787 ; 14756.000000000002
63 ; 27990.22707220885 ; 2692.8486160314205 ; 1212414.5377791284 ; 169649.46280997928 ; 14994.000000000002
64 ; 28271.953568037196 ; 2692.8486160314205 ; 1240404.7648513373 ; 172342.31142601068 ; 15232.000000000002
65 ; 28326.720301015353 ; 2692.8486160314205 ; 1268676.7184193744 ; 175035.1600420421 ; 15470.000000000002
66 ; 28406.2835127213 ; 2692.8486160314205 ; 1297003.4387203897 ; 177728.0086580735 ; 15708.000000000002
67 ; 28530.267890966818 ; 2692.8486160314205 ; 1325409.722233111 ; 180420.8572741049 ; 15946.000000000002
68 ; 28578.014276991256 ; 2692.8486160314205 ; 1353939.9901240778 ; 183113.7058901363 ; 16184.000000000002
69 ; 28709.640092281006 ; 2692.8486160314205 ; 1382518.0044010691 ; 185806.5545061677 ; 16422.000000000004
70 ; 28698.504778665538 ; 2692.8486160314205 ; 1411227.64449335 ; 188499.40312219912 ; 16660.000000000004
71 ; 28915.191172721974 ; 2692.8486160314205 ; 1439926.1492720156 ; 191192.25173823052 ; 16898.000000000004
72 ; 28920.14675033367 ; 2692.8486160314205 ; 1468841.3404447376 ; 193885.10035426193 ; 17136.000000000004
73 ; 29024.179507974546 ; 2692.8486160314205 ; 1497761.4871950713 ; 196577.94897029334 ; 17374.000000000004
74 ; 29010.48555070513 ; 2692.8486160314205 ; 1526785.6667030458 ; 199270.79758632474 ; 17612.000000000004
75 ; 29012.127175063033 ; 2692.8486160314205 ; 1555796.152253751 ; 201963.64620235615 ; 17850.000000000004
76 ; 29066.361622002096 ; 2692.8486160314205 ; 1584808.279428814 ; 204656.49481838755 ; 18088.000000000004
77 ; 28975.845386069763 ; 2692.8486160314205 ; 1613874.6410508163 ; 207349.34343441896 ; 18326.000000000004
78 ; 29290.726872813866 ; 2692.8486160314205 ; 1642850.486436886 ; 210042.19205045037 ; 18564.000000000004
79 ; 29187.084076524003 ; 2692.8486160314205 ; 1672141.2133097 ; 212735.04066648177 ; 18802.000000000004
80 ; 29221.84008242528 ; 2692.8486160314205 ; 1701328.297386224 ; 215427.88928251318 ; 19040.000000000004
81 ; 29379.67873207219 ; 2692.8486160314205 ; 1730550.1374686493 ; 218120.73789854458 ; 19278.000000000004
82 ; 29164.715991931032 ; 2692.8486160314205 ; 1759929.8162007215 ; 220813.586514576 ; 19516.000000000004
83 ; 29171.782831659686 ; 2692.8486160314205 ; 1789094.5321926526 ; 223506.4351306074 ; 19754.000000000004
84 ; 29057.13692866251 ; 2692.8486160314205 ; 1818266.3150243124 ; 226199.2837466388 ; 19992.000000000004
85 ; 29414.297775400177 ; 2692.8486160314205 ; 1847323.4519529748 ; 228892.1323626702 ; 20230.000000000004
86 ; 29285.57048137497 ; 2692.8486160314205 ; 1876737.7497283749 ; 231584.9809787016 ; 20468.000000000004
87 ; 29055.25824447717 ; 2692.8486160314205 ; 1906023.3202097497 ; 234277.82959473302 ; 20706.000000000004
88 ; 29141.281129964256 ; 2692.8486160314205 ; 1935078.578454227 ; 236970.67821076442 ; 20944.000000000004
89 ; 29254.984011851644 ; 2692.8486160314205 ; 1964219.859584191 ; 239663.52682679583 ; 21182.000000000004
90 ; 29032.430985503957 ; 2692.8486160314205 ; 1993474.8435960428 ; 242356.37544282724 ; 21420.000000000004
91 ; 29094.848240527288 ; 2692.8486160314205 ; 2022507.274581547 ; 245049.22405885864 ; 21658.000000000004
92 ; 28874.163548725242 ; 2692.8486160314205 ; 2051602.1228220742 ; 247742.07267489005 ; 21896.000000000004
93 ; 28753.46314262056 ; 2692.8486160314205 ; 2080476.2863707994 ; 250434.92129092145 ; 22134.000000000004
94 ; 28764.79678412438 ; 2692.8486160314205 ; 2109229.74951342 ; 253127.76990695286 ; 22372.000000000004
95 ; 28826.92734462149 ; 2692.8486160314205 ; 2137994.546297544 ; 255820.61852298427 ; 22610.000000000004
96 ; 28711.08159546814 ; 2692.8486160314205 ; 2166821.473642166 ; 258513.46713901567 ; 22848.000000000004
97 ; 28578.709440749142 ; 2692.8486160314205 ; 2195532.555237634 ; 261206.31575504708 ; 23086.000000000004
98 ; 28415.310373923632 ; 2692.8486160314205 ; 2224111.2646783832 ; 263899.1643710785 ; 23324.000000000004
99 ; 28241.54545899511 ; 2692.8486160314205 ; 2252526.575052307 ; 266592.0129871099 ; 23562.000000000004
100 ; 28249.535092182974 ; 2692.8486160314205 ; 2280768.1205113023 ; 269284.8616031413 ; 23800.000000000004
101 ; 28103.78562474754 ; 2692.8486160314205 ; 2309017.655603485 ; 271977.7102191727 ; 24038.000000000004
102 ; 28019.765164006654 ; 2692.8486160314205 ; 2337121.441228233 ; 274670.5588352041 ; 24276.000000000004
103 ; 27836.412351804636 ; 2692.8486160314205 ; 2365141.2063922393 ; 277363.4074512355 ; 24514.000000000004
104 ; 27722.096243057094 ; 2692.8486160314205 ; 2392977.618744044 ; 280056.2560672669 ; 24752.000000000004
105 ; 27603.035272457917 ; 2692.8486160314205 ; 2420699.714987101 ; 282749.1046832983 ; 24990.000000000004
106 ; 27260.449790634168 ; 2692.8486160314205 ; 2448302.750259559 ; 285441.95329932973 ; 25228.000000000004
107 ; 27060.211853344033 ; 2692.8486160314205 ; 2475563.2000501934 ; 288134.80191536114 ; 25466.000000000004
108 ; 26827.00134213218 ; 2692.8486160314205 ; 2502623.4119035373 ; 290827.65053139254 ; 25704.000000000004
109 ; 26926.700990065463 ; 2692.8486160314205 ; 2529450.4132456696 ; 293520.49914742395 ; 25942.000000000004
110 ; 26723.3078801485 ; 2692.8486160314205 ; 2556377.114235735 ; 296213.34776345536 ; 26180.000000000004
111 ; 26604.079694849977 ; 2692.8486160314205 ; 2583100.4221158833 ; 298906.19637948676 ; 26418.000000000004
112 ; 26351.32098321095 ; 2692.8486160314205 ; 2609704.501810733 ; 301599.04499551817 ; 26656.000000000004
113 ; 25991.48448217477 ; 2692.8486160314205 ; 2636055.8227939443 ; 304291.8936115496 ; 26894.000000000004
114 ; 25929.944637474735 ; 2692.8486160314205 ; 2662047.307276119 ; 306984.742227581 ; 27132.000000000004
115 ; 25619.615727580895 ; 2692.8486160314205 ; 2687977.2519135936 ; 309677.5908436124 ; 27370.000000000004
116 ; 25330.961867318696 ; 2692.8486160314205 ; 2713596.8676411747 ; 312370.4394596438 ; 27608.000000000004
117 ; 25229.195885431476 ; 2692.8486160314205 ; 2738927.829508493 ; 315063.2880756752 ; 27846.000000000004
118 ; 25093.75223303458 ; 2692.8486160314205 ; 2764157.0253939247 ; 317756.1366917066 ; 28084.000000000004
119 ; 24671.526063370686 ; 2692.8486160314205 ; 2789250.777626959 ; 320448.985307738 ; 28322.000000000004
120 ; 24466.837653012422 ; 2692.8486160314205 ; 2813922.3036903297 ; 323141.8339237694 ; 28560.000000000004
121 ; 24163.958104900164 ; 2692.8486160314205 ; 2838389.141343342 ; 325834.6825398008 ; 28798.000000000004
122 ; 23987.85341325286 ; 2692.8486160314205 ; 2862553.099448242 ; 328527.5311558322 ; 29036.000000000004
123 ; 23703.90302947619 ; 2692.8486160314205 ; 2886540.9528614953 ; 331220.37977186363 ; 29274.000000000004
124 ; 23410.317527699885 ; 2692.8486160314205 ; 2910244.8558909716 ; 333913.22838789504 ; 29512.000000000004
125 ; 23083.437891231013 ; 2692.8486160314205 ; 2933655.1734186714 ; 336606.07700392645 ; 29750.000000000004
126 ; 22714.178649215133 ; 2692.8486160314205 ; 2956738.6113099023 ; 339298.92561995785 ; 29988.000000000004
127 ; 22589.75043071424 ; 2692.8486160314205 ; 2979452.7899591173 ; 341991.77423598926 ; 30226.000000000004
128 ; 22315.520895314956 ; 2692.8486160314205 ; 3002042.5403898316 ; 344684.62285202066 ; 30464.000000000004
129 ; 21998.268929854727 ; 2692.8486160314205 ; 3024358.0612851465 ; 347377.47146805207 ; 30702.000000000004
130 ; 21621.794619169552 ; 2692.8486160314205 ; 3046356.330215001 ; 350070.3200840835 ; 30940.000000000004
131 ; 21131.14913162403 ; 2692.8486160314205 ; 3067978.1248341706 ; 352763.1687001149 ; 31178.000000000004
132 ; 20672.172693484343 ; 2692.8486160314205 ; 3089109.2739657946 ; 355456.0173161463 ; 31416.000000000004
133 ; 20542.213437104347 ; 2692.8486160314205 ; 3109781.446659279 ; 358148.8659321777 ; 31654.000000000004
134 ; 20197.092619905863 ; 2692.8486160314205 ; 3130323.660096383 ; 360841.7145482091 ; 31892.000000000004
135 ; 19878.932619619638 ; 2692.8486160314205 ; 3150520.752716289 ; 363534.5631642405 ; 32130.000000000004
136 ; 19537.5685100481 ; 2692.8486160314205 ; 3170399.6853359086 ; 366227.4117802719 ; 32368.000000000004
137 ; 19117.677162928794 ; 2692.8486160314205 ; 3189937.2538459566 ; 368920.2603963033 ; 32606.000000000004
138 ; 18743.62331722118 ; 2692.8486160314205 ; 3209054.9310088856 ; 371613.1090123347 ; 32844.00000000001
139 ; 18438.404733834526 ; 2692.8486160314205 ; 3227798.554326107 ; 374305.95762836613 ; 33082.00000000001
140 ; 17742.22023789632 ; 2692.8486160314205 ; 3246236.959059941 ; 376998.80624439754 ; 33320.00000000001
141 ; 17372.44889746613 ; 2692.8486160314205 ; 3263979.1792978374 ; 379691.65486042894 ; 33558.00000000001
142 ; 17269.729630537153 ; 2692.8486160314205 ; 3281351.6281953035 ; 382384.50347646035 ; 33796.00000000001
143 ; 16491.481387595304 ; 2692.8486160314205 ; 3298621.357825841 ; 385077.35209249175 ; 34034.00000000001
144 ; 16347.96206773182 ; 2692.8486160314205 ; 3315112.839213436 ; 387770.20070852316 ; 34272.00000000001
145 ; 16410.034202186762 ; 2692.8486160314205 ; 3331460.8012811677 ; 390463.04932455457 ; 34510.00000000001
146 ; 16124.090167894008 ; 2692.8486160314205 ; 3347870.8354833545 ; 393155.897940586 ; 34748.00000000001
147 ; 16027.232721561171 ; 2692.8486160314205 ; 3363994.9256512485 ; 395848.7465566174 ; 34986.00000000001
148 ; 15841.697631680196 ; 2692.8486160314205 ; 3380022.1583728096 ; 398541.5951726488 ; 35224.00000000001
149 ; 15827.392065062166 ; 2692.8486160314205 ; 3395863.85600449 ; 401234.4437886802 ; 35462.00000000001
150 ; 15538.05638254826 ; 2692.8486160314205 ; 3411691.2480695522 ; 403927.2924047116 ; 35700.00000000001
151 ; 15216.198878735 ; 2692.8486160314205 ; 3427229.3044521003 ; 406620.141020743 ; 35938.00000000001
152 ; 15358.285616350933 ; 2692.8486160314205 ; 3442445.503330835 ; 409312.9896367744 ; 36176.00000000001
153 ; 15187.954788723699 ; 2692.8486160314205 ; 3457803.788947186 ; 412005.8382528058 ; 36414.00000000001
154 ; 15027.61200523442 ; 2692.8486160314205 ; 3472991.7437359095 ; 414698.6868688372 ; 36652.00000000001
155 ; 14871.789912803828 ; 2692.8486160314205 ; 3488019.3557411437 ; 417391.5354848686 ; 36890.00000000001
156 ; 14821.608870937278 ; 2692.8486160314205 ; 3502891.1456539477 ; 420084.38410090003 ; 37128.00000000001
157 ; 14573.00551255651 ; 2692.8486160314205 ; 3517712.754524885 ; 422777.23271693144 ; 37366.00000000001
158 ; 14553.09252278325 ; 2692.8486160314205 ; 3532285.7600374417 ; 425470.08133296284 ; 37604.00000000001
159 ; 14430.974176092855 ; 2692.8486160314205 ; 3546838.852560225 ; 428162.92994899425 ; 37842.00000000001
160 ; 14278.819660473362 ; 2692.8486160314205 ; 3561269.826736318 ; 430855.77856502566 ; 38080.00000000001
161 ; 14012.811320480025 ; 2692.8486160314205 ; 3575548.646396791 ; 433548.62718105706 ; 38318.00000000001
162 ; 14008.283407929528 ; 2692.8486160314205 ; 3589561.457717271 ; 436241.47579708847 ; 38556.00000000001
163 ; 13830.378204361816 ; 2692.8486160314205 ; 3603569.7411252004 ; 438934.3244131199 ; 38794.00000000001
164 ; 13547.391230753079 ; 2692.8486160314205 ; 3617400.1193295624 ; 441627.1730291513 ; 39032.00000000001
165 ; 13324.964662572731 ; 2692.8486160314205 ; 3630947.5105603156 ; 444320.0216451827 ; 39270.00000000001
166 ; 13165.118742969966 ; 2692.8486160314205 ; 3644272.4752228884 ; 447012.8702612141 ; 39508.00000000001
167 ; 12872.204359315456 ; 2692.8486160314205 ; 3657437.593965858 ; 449705.7188772455 ; 39746.00000000001
168 ; 12777.776978819686 ; 2692.8486160314205 ; 3670309.7983251736 ; 452398.5674932769 ; 39984.00000000001
169 ; 12680.464472102089 ; 2692.8486160314205 ; 3683087.575303993 ; 455091.4161093083 ; 40222.00000000001
170 ; 12573.22115003993 ; 2692.8486160314205 ; 3695768.039776095 ; 457784.2647253397 ; 40460.00000000001
171 ; 12392.236117605076 ; 2692.8486160314205 ; 3708341.2609261354 ; 460477.1133413711 ; 40698.00000000001
172 ; 12233.260772206204 ; 2692.8486160314205 ; 3720733.4970437405 ; 463169.9619574025 ; 40936.00000000001
173 ; 12057.583603321793 ; 2692.8486160314205 ; 3732966.757815947 ; 465862.81057343393 ; 41174.00000000001
174 ; 12150.88191061666 ; 2692.8486160314205 ; 3745024.3414192684 ; 468555.65918946534 ; 41412.00000000001
175 ; 12056.723347946454 ; 2692.8486160314205 ; 3757175.223329885 ; 471248.50780549675 ; 41650.00000000001
176 ; 12038.511746060061 ; 2692.8486160314205 ; 3769231.9466778315 ; 473941.35642152815 ; 41888.00000000001
177 ; 12276.652221364757 ; 2692.8486160314205 ; 3781270.4584238916 ; 476634.20503755956 ; 42126.00000000001
178 ; 12190.368739450729 ; 2692.8486160314205 ; 3793547.1106452565 ; 479327.05365359096 ; 42364.00000000001
179 ; 12417.390625272865 ; 2692.8486160314205 ; 3805737.4793847073 ; 482019.90226962237 ; 42602.00000000001
180 ; 12238.602155840561 ; 2692.8486160314205 ; 3818154.87000998 ; 484712.7508856538 ; 42840.00000000001
181 ; 12351.03635839545 ; 2692.8486160314205 ; 3830393.4721658207 ; 487405.5995016852 ; 43078.00000000001
182 ; 12390.619058349304 ; 2692.8486160314205 ; 3842744.5085242162 ; 490098.4481177166 ; 43316.00000000001
183 ; 12479.678398131584 ; 2692.8486160314205 ; 3855135.1275825654 ; 492791.296733748 ; 43554.00000000001
184 ; 12537.785828115202 ; 2692.8486160314205 ; 3867614.805980697 ; 495484.1453497794 ; 43792.00000000001
