CSV File for the City 1 on Day 205
1 - Minute m 
2 - Power Consumed at minute m 
3 - Power Produced at minute m 
4 - Energy Consumed since the beginning of the day 
5 - Energy Produced since the beginning of the day 
6 - Energy Lost since the beginning of the day on lines starting from the city
 
0 ; 5291.246287844091 ; 3758.390588582668 ; 0.0 ; 0.0 ; 0.0
1 ; 5810.916092287304 ; 3758.390588582668 ; 5291.246287844091 ; 3758.390588582668 ; 238.00000000000003
2 ; 6539.780459386214 ; 3758.390588582668 ; 11102.162380131394 ; 7516.781177165336 ; 476.00000000000006
3 ; 7038.977882079282 ; 3758.390588582668 ; 17641.942839517607 ; 11275.171765748004 ; 714.0000000000001
4 ; 7843.222115885789 ; 3758.390588582668 ; 24680.92072159689 ; 15033.562354330672 ; 952.0000000000001
5 ; 8317.437333356036 ; 3758.390588582668 ; 32524.14283748268 ; 18791.95294291334 ; 1190.0000000000002
6 ; 8840.14099940217 ; 3758.390588582668 ; 40841.580170838715 ; 22550.343531496008 ; 1428.0000000000002
7 ; 9417.485007259997 ; 3758.390588582668 ; 49681.72117024088 ; 26308.734120078676 ; 1666.0000000000002
8 ; 10130.527557843237 ; 3758.390588582668 ; 59099.20617750088 ; 30067.124708661344 ; 1904.0000000000002
9 ; 10832.43578359258 ; 3758.390588582668 ; 69229.73373534411 ; 33825.51529724401 ; 2142.0000000000005
10 ; 11184.469479641017 ; 3758.390588582668 ; 80062.16951893669 ; 37583.90588582668 ; 2380.0000000000005
11 ; 11748.502477495374 ; 3758.390588582668 ; 91246.6389985777 ; 41342.29647440935 ; 2618.0000000000005
12 ; 12407.549386071161 ; 3758.390588582668 ; 102995.14147607308 ; 45100.687062992016 ; 2856.0000000000005
13 ; 13011.369281166528 ; 3758.390588582668 ; 115402.69086214424 ; 48859.077651574684 ; 3094.0000000000005
14 ; 13595.90584747041 ; 3758.390588582668 ; 128414.06014331077 ; 52617.46824015735 ; 3332.0000000000005
15 ; 13974.887786273812 ; 3758.390588582668 ; 142009.96599078117 ; 56375.85882874002 ; 3570.0000000000005
16 ; 14405.466270683435 ; 3758.390588582668 ; 155984.853777055 ; 60134.24941732269 ; 3808.0000000000005
17 ; 15072.308947524598 ; 3758.390588582668 ; 170390.32004773844 ; 63892.640005905356 ; 4046.0000000000005
18 ; 15351.045645556647 ; 3758.390588582668 ; 185462.62899526305 ; 67651.03059448802 ; 4284.000000000001
19 ; 16130.095528495918 ; 3758.390588582668 ; 200813.6746408197 ; 71409.42118307069 ; 4522.000000000001
20 ; 16470.845651036827 ; 3758.390588582668 ; 216943.7701693156 ; 75167.81177165336 ; 4760.000000000001
21 ; 16990.36843083417 ; 3758.390588582668 ; 233414.61582035242 ; 78926.20236023603 ; 4998.000000000001
22 ; 17298.883277898316 ; 3758.390588582668 ; 250404.9842511866 ; 82684.5929488187 ; 5236.000000000001
23 ; 17779.57702109541 ; 3758.390588582668 ; 267703.8675290849 ; 86442.98353740136 ; 5474.000000000001
24 ; 18313.0225627499 ; 3758.390588582668 ; 285483.44455018034 ; 90201.37412598403 ; 5712.000000000001
25 ; 18827.726045922864 ; 3758.390588582668 ; 303796.46711293026 ; 93959.7647145667 ; 5950.000000000001
26 ; 19143.49678804094 ; 3758.390588582668 ; 322624.1931588531 ; 97718.15530314937 ; 6188.000000000001
27 ; 19639.371824367256 ; 3758.390588582668 ; 341767.68994689407 ; 101476.54589173204 ; 6426.000000000001
28 ; 20067.76695179437 ; 3758.390588582668 ; 361407.06177126133 ; 105234.9364803147 ; 6664.000000000001
29 ; 20447.909147781036 ; 3758.390588582668 ; 381474.8287230557 ; 108993.32706889737 ; 6902.000000000001
30 ; 20936.462828896718 ; 3758.390588582668 ; 401922.73787083675 ; 112751.71765748004 ; 7140.000000000001
31 ; 21258.54456954371 ; 3758.390588582668 ; 422859.20069973345 ; 116510.10824606271 ; 7378.000000000001
32 ; 21943.8565824763 ; 3758.390588582668 ; 444117.74526927713 ; 120268.49883464538 ; 7616.000000000001
33 ; 22052.5929682804 ; 3758.390588582668 ; 466061.6018517534 ; 124026.88942322804 ; 7854.000000000001
34 ; 22514.05421571687 ; 3758.390588582668 ; 488114.19482003385 ; 127785.28001181071 ; 8092.000000000001
35 ; 22912.408293968045 ; 3758.390588582668 ; 510628.24903575075 ; 131543.67060039338 ; 8330.000000000002
36 ; 23236.947646022614 ; 3758.390588582668 ; 533540.6573297188 ; 135302.06118897605 ; 8568.000000000002
37 ; 23522.819744350003 ; 3758.390588582668 ; 556777.6049757415 ; 139060.45177755872 ; 8806.000000000002
38 ; 24052.11292386168 ; 3758.390588582668 ; 580300.4247200915 ; 142818.84236614138 ; 9044.000000000002
39 ; 24324.777418193262 ; 3758.390588582668 ; 604352.5376439532 ; 146577.23295472405 ; 9282.000000000002
40 ; 24709.235451298766 ; 3758.390588582668 ; 628677.3150621465 ; 150335.62354330672 ; 9520.000000000002
41 ; 25109.994887920715 ; 3758.390588582668 ; 653386.5505134453 ; 154094.0141318894 ; 9758.000000000002
42 ; 25327.92906629844 ; 3758.390588582668 ; 678496.545401366 ; 157852.40472047206 ; 9996.000000000002
43 ; 25655.871181465416 ; 3758.390588582668 ; 703824.4744676644 ; 161610.79530905472 ; 10234.000000000002
44 ; 25974.82881579936 ; 3758.390588582668 ; 729480.3456491298 ; 165369.1858976374 ; 10472.000000000002
45 ; 26285.72083224553 ; 3758.390588582668 ; 755455.1744649292 ; 169127.57648622006 ; 10710.000000000002
46 ; 26454.778783427428 ; 3758.390588582668 ; 781740.8952971747 ; 172885.96707480273 ; 10948.000000000002
47 ; 26726.337513679544 ; 3758.390588582668 ; 808195.6740806021 ; 176644.3576633854 ; 11186.000000000002
48 ; 27155.510653426332 ; 3758.390588582668 ; 834922.0115942816 ; 180402.74825196806 ; 11424.000000000002
49 ; 27459.86801775843 ; 3758.390588582668 ; 862077.5222477079 ; 184161.13884055073 ; 11662.000000000002
50 ; 27472.6723225295 ; 3758.390588582668 ; 889537.3902654664 ; 187919.5294291334 ; 11900.000000000002
51 ; 27801.162292321063 ; 3758.390588582668 ; 917010.0625879959 ; 191677.92001771607 ; 12138.000000000002
52 ; 28188.913514866326 ; 3758.390588582668 ; 944811.224880317 ; 195436.31060629874 ; 12376.000000000002
53 ; 28265.073929474795 ; 3758.390588582668 ; 973000.1383951834 ; 199194.7011948814 ; 12614.000000000002
54 ; 28575.781657710897 ; 3758.390588582668 ; 1001265.2123246582 ; 202953.09178346407 ; 12852.000000000002
55 ; 28725.250448032664 ; 3758.390588582668 ; 1029840.9939823691 ; 206711.48237204674 ; 13090.000000000002
56 ; 29067.63993084068 ; 3758.390588582668 ; 1058566.2444304018 ; 210469.8729606294 ; 13328.000000000002
57 ; 29207.343625908223 ; 3758.390588582668 ; 1087633.8843612424 ; 214228.26354921208 ; 13566.000000000002
58 ; 29311.79533215066 ; 3758.390588582668 ; 1116841.2279871507 ; 217986.65413779474 ; 13804.000000000002
59 ; 29635.80668235112 ; 3758.390588582668 ; 1146153.0233193014 ; 221745.0447263774 ; 14042.000000000002
60 ; 29842.685060071242 ; 3758.390588582668 ; 1175788.8300016525 ; 225503.43531496008 ; 14280.000000000002
61 ; 30120.473957694627 ; 3758.390588582668 ; 1205631.5150617238 ; 229261.82590354275 ; 14518.000000000002
62 ; 30076.422129860017 ; 3758.390588582668 ; 1235751.9890194184 ; 233020.21649212542 ; 14756.000000000002
63 ; 30169.199284931143 ; 3758.390588582668 ; 1265828.4111492783 ; 236778.60708070808 ; 14994.000000000002
64 ; 30336.032925402862 ; 3758.390588582668 ; 1295997.6104342095 ; 240536.99766929075 ; 15232.000000000002
65 ; 30607.887988555176 ; 3758.390588582668 ; 1326333.6433596122 ; 244295.38825787342 ; 15470.000000000002
66 ; 30633.9381798572 ; 3758.390588582668 ; 1356941.5313481675 ; 248053.7788464561 ; 15708.000000000002
67 ; 30855.993406946764 ; 3758.390588582668 ; 1387575.4695280246 ; 251812.16943503876 ; 15946.000000000002
68 ; 30825.954805523015 ; 3758.390588582668 ; 1418431.4629349713 ; 255570.56002362142 ; 16184.000000000002
69 ; 31143.876746490467 ; 3758.390588582668 ; 1449257.4177404942 ; 259328.9506122041 ; 16422.000000000004
70 ; 31179.19103155913 ; 3758.390588582668 ; 1480401.2944869846 ; 263087.34120078676 ; 16660.000000000004
71 ; 31243.333764209965 ; 3758.390588582668 ; 1511580.4855185437 ; 266845.7317893694 ; 16898.000000000004
72 ; 31072.178638355606 ; 3758.390588582668 ; 1542823.8192827536 ; 270604.1223779521 ; 17136.000000000004
73 ; 31101.921710684113 ; 3758.390588582668 ; 1573895.9979211092 ; 274362.51296653476 ; 17374.000000000004
74 ; 31602.150458801305 ; 3758.390588582668 ; 1604997.9196317934 ; 278120.90355511743 ; 17612.000000000004
75 ; 31521.994595191776 ; 3758.390588582668 ; 1636600.0700905947 ; 281879.2941437001 ; 17850.000000000004
76 ; 31613.210984316527 ; 3758.390588582668 ; 1668122.0646857864 ; 285637.68473228277 ; 18088.000000000004
77 ; 31432.704788352246 ; 3758.390588582668 ; 1699735.2756701028 ; 289396.07532086544 ; 18326.000000000004
78 ; 31530.544198219 ; 3758.390588582668 ; 1731167.9804584552 ; 293154.4659094481 ; 18564.000000000004
79 ; 31576.378268199285 ; 3758.390588582668 ; 1762698.5246566741 ; 296912.8564980308 ; 18802.000000000004
80 ; 31826.065309587233 ; 3758.390588582668 ; 1794274.9029248734 ; 300671.24708661344 ; 19040.000000000004
81 ; 31678.508399814018 ; 3758.390588582668 ; 1826100.9682344606 ; 304429.6376751961 ; 19278.000000000004
82 ; 31818.476973021156 ; 3758.390588582668 ; 1857779.4766342747 ; 308188.0282637788 ; 19516.000000000004
83 ; 31656.376587678522 ; 3758.390588582668 ; 1889597.9536072959 ; 311946.41885236144 ; 19754.000000000004
84 ; 31684.820905124838 ; 3758.390588582668 ; 1921254.3301949743 ; 315704.8094409441 ; 19992.000000000004
85 ; 31738.567730259867 ; 3758.390588582668 ; 1952939.151100099 ; 319463.2000295268 ; 20230.000000000004
86 ; 31852.52882861506 ; 3758.390588582668 ; 1984677.718830359 ; 323221.59061810945 ; 20468.000000000004
87 ; 31721.965017872437 ; 3758.390588582668 ; 2016530.247658974 ; 326979.9812066921 ; 20706.000000000004
88 ; 31505.816444709642 ; 3758.390588582668 ; 2048252.2126768464 ; 330738.3717952748 ; 20944.000000000004
89 ; 31370.86209055516 ; 3758.390588582668 ; 2079758.029121556 ; 334496.76238385745 ; 21182.000000000004
90 ; 31452.021687609 ; 3758.390588582668 ; 2111128.8912121113 ; 338255.1529724401 ; 21420.000000000004
91 ; 31373.3723755115 ; 3758.390588582668 ; 2142580.9128997205 ; 342013.5435610228 ; 21658.000000000004
92 ; 31408.006037822084 ; 3758.390588582668 ; 2173954.285275232 ; 345771.93414960545 ; 21896.000000000004
93 ; 31276.194246524785 ; 3758.390588582668 ; 2205362.291313054 ; 349530.3247381881 ; 22134.000000000004
94 ; 31224.72967325342 ; 3758.390588582668 ; 2236638.485559579 ; 353288.7153267708 ; 22372.000000000004
95 ; 31203.456319915153 ; 3758.390588582668 ; 2267863.2152328324 ; 357047.10591535346 ; 22610.000000000004
96 ; 30920.98701301904 ; 3758.390588582668 ; 2299066.6715527475 ; 360805.4965039361 ; 22848.000000000004
97 ; 30776.404061887242 ; 3758.390588582668 ; 2329987.6585657666 ; 364563.8870925188 ; 23086.000000000004
98 ; 30845.78250625403 ; 3758.390588582668 ; 2360764.062627654 ; 368322.27768110146 ; 23324.000000000004
99 ; 30753.21056049016 ; 3758.390588582668 ; 2391609.845133908 ; 372080.66826968413 ; 23562.000000000004
100 ; 30461.979063425857 ; 3758.390588582668 ; 2422363.0556943985 ; 375839.0588582668 ; 23800.000000000004
101 ; 30486.466533967552 ; 3758.390588582668 ; 2452825.034757824 ; 379597.44944684947 ; 24038.000000000004
102 ; 30175.766412391935 ; 3758.390588582668 ; 2483311.501291792 ; 383355.84003543213 ; 24276.000000000004
103 ; 30122.2493776227 ; 3758.390588582668 ; 2513487.2677041837 ; 387114.2306240148 ; 24514.000000000004
104 ; 29956.094037038238 ; 3758.390588582668 ; 2543609.5170818064 ; 390872.62121259747 ; 24752.000000000004
105 ; 29720.70109503774 ; 3758.390588582668 ; 2573565.6111188447 ; 394631.01180118014 ; 24990.000000000004
106 ; 29492.200928299826 ; 3758.390588582668 ; 2603286.3122138823 ; 398389.4023897628 ; 25228.000000000004
107 ; 29351.70056860755 ; 3758.390588582668 ; 2632778.513142182 ; 402147.7929783455 ; 25466.000000000004
108 ; 29270.62586167113 ; 3758.390588582668 ; 2662130.2137107896 ; 405906.18356692814 ; 25704.000000000004
109 ; 28694.395642248037 ; 3758.390588582668 ; 2691400.839572461 ; 409664.5741555108 ; 25942.000000000004
110 ; 28851.75725762641 ; 3758.390588582668 ; 2720095.235214709 ; 413422.9647440935 ; 26180.000000000004
111 ; 28471.765584642308 ; 3758.390588582668 ; 2748946.992472335 ; 417181.35533267615 ; 26418.000000000004
112 ; 28243.102129227853 ; 3758.390588582668 ; 2777418.7580569778 ; 420939.7459212588 ; 26656.000000000004
113 ; 28014.656767566023 ; 3758.390588582668 ; 2805661.8601862057 ; 424698.1365098415 ; 26894.000000000004
114 ; 27834.80606452133 ; 3758.390588582668 ; 2833676.516953772 ; 428456.52709842415 ; 27132.000000000004
115 ; 27545.23271706486 ; 3758.390588582668 ; 2861511.3230182934 ; 432214.9176870068 ; 27370.000000000004
116 ; 27172.72331899589 ; 3758.390588582668 ; 2889056.555735358 ; 435973.3082755895 ; 27608.000000000004
117 ; 27041.393736777096 ; 3758.390588582668 ; 2916229.279054354 ; 439731.69886417215 ; 27846.000000000004
118 ; 26761.837526750896 ; 3758.390588582668 ; 2943270.672791131 ; 443490.0894527548 ; 28084.000000000004
119 ; 26472.11621259359 ; 3758.390588582668 ; 2970032.5103178816 ; 447248.4800413375 ; 28322.000000000004
120 ; 26140.90351268744 ; 3758.390588582668 ; 2996504.626530475 ; 451006.87062992016 ; 28560.000000000004
121 ; 25726.724812938675 ; 3758.390588582668 ; 3022645.5300431624 ; 454765.2612185028 ; 28798.000000000004
122 ; 25528.82293859228 ; 3758.390588582668 ; 3048372.2548561012 ; 458523.6518070855 ; 29036.000000000004
123 ; 25187.6677091122 ; 3758.390588582668 ; 3073901.0777946934 ; 462282.04239566816 ; 29274.000000000004
124 ; 24926.818292578413 ; 3758.390588582668 ; 3099088.7455038056 ; 466040.43298425083 ; 29512.000000000004
125 ; 24731.04258490933 ; 3758.390588582668 ; 3124015.563796384 ; 469798.8235728335 ; 29750.000000000004
126 ; 24259.822547608208 ; 3758.390588582668 ; 3148746.606381293 ; 473557.21416141617 ; 29988.000000000004
127 ; 23853.115492678797 ; 3758.390588582668 ; 3173006.428928901 ; 477315.60474999883 ; 30226.000000000004
128 ; 23521.490006002517 ; 3758.390588582668 ; 3196859.5444215797 ; 481073.9953385815 ; 30464.000000000004
129 ; 23237.550644867373 ; 3758.390588582668 ; 3220381.0344275823 ; 484832.38592716417 ; 30702.000000000004
130 ; 22925.818542106466 ; 3758.390588582668 ; 3243618.58507245 ; 488590.77651574684 ; 30940.000000000004
131 ; 22374.031641404992 ; 3758.390588582668 ; 3266544.4036145564 ; 492349.1671043295 ; 31178.000000000004
132 ; 22101.987513848882 ; 3758.390588582668 ; 3288918.4352559615 ; 496107.5576929122 ; 31416.000000000004
133 ; 21673.107801707636 ; 3758.390588582668 ; 3311020.4227698105 ; 499865.94828149484 ; 31654.000000000004
134 ; 21231.396847671713 ; 3758.390588582668 ; 3332693.530571518 ; 503624.3388700775 ; 31892.000000000004
135 ; 20969.448107418426 ; 3758.390588582668 ; 3353924.92741919 ; 507382.7294586602 ; 32130.000000000004
136 ; 20370.79841978571 ; 3758.390588582668 ; 3374894.3755266084 ; 511141.12004724285 ; 32368.000000000004
137 ; 20191.410537322223 ; 3758.390588582668 ; 3395265.173946394 ; 514899.5106358255 ; 32606.000000000004
138 ; 19428.653584227693 ; 3758.390588582668 ; 3415456.584483716 ; 518657.9012244082 ; 32844.00000000001
139 ; 19276.22716062439 ; 3758.390588582668 ; 3434885.238067944 ; 522416.29181299085 ; 33082.00000000001
140 ; 18781.9144804009 ; 3758.390588582668 ; 3454161.4652285683 ; 526174.6824015735 ; 33320.00000000001
141 ; 18350.656703531076 ; 3758.390588582668 ; 3472943.379708969 ; 529933.0729901562 ; 33558.00000000001
142 ; 17808.073668317644 ; 3758.390588582668 ; 3491294.0364125003 ; 533691.463578739 ; 33796.00000000001
143 ; 17379.78823004565 ; 3758.390588582668 ; 3509102.110080818 ; 537449.8541673217 ; 34034.00000000001
144 ; 16845.963921557042 ; 3758.390588582668 ; 3526481.898310864 ; 541208.2447559044 ; 34272.00000000001
145 ; 16675.36449761806 ; 3758.390588582668 ; 3543327.862232421 ; 544966.6353444871 ; 34510.00000000001
146 ; 16542.541164786147 ; 3758.390588582668 ; 3560003.2267300393 ; 548725.0259330699 ; 34748.00000000001
147 ; 16501.541234173525 ; 3758.390588582668 ; 3576545.7678948254 ; 552483.4165216526 ; 34986.00000000001
148 ; 16350.34849377241 ; 3758.390588582668 ; 3593047.309128999 ; 556241.8071102353 ; 35224.00000000001
149 ; 16207.465961588754 ; 3758.390588582668 ; 3609397.6576227713 ; 560000.197698818 ; 35462.00000000001
150 ; 16179.659863567565 ; 3758.390588582668 ; 3625605.12358436 ; 563758.5882874008 ; 35700.00000000001
151 ; 15855.739698463125 ; 3758.390588582668 ; 3641784.7834479273 ; 567516.9788759835 ; 35938.00000000001
152 ; 15831.815559323679 ; 3758.390588582668 ; 3657640.5231463904 ; 571275.3694645662 ; 36176.00000000001
153 ; 15545.68058707076 ; 3758.390588582668 ; 3673472.3387057143 ; 575033.760053149 ; 36414.00000000001
154 ; 15539.25412806325 ; 3758.390588582668 ; 3689018.019292785 ; 578792.1506417317 ; 36652.00000000001
155 ; 15312.287038031596 ; 3758.390588582668 ; 3704557.273420848 ; 582550.5412303144 ; 36890.00000000001
156 ; 15109.828334142585 ; 3758.390588582668 ; 3719869.5604588795 ; 586308.9318188971 ; 37128.00000000001
157 ; 14973.708570117746 ; 3758.390588582668 ; 3734979.388793022 ; 590067.3224074799 ; 37366.00000000001
158 ; 14874.808372692723 ; 3758.390588582668 ; 3749953.0973631395 ; 593825.7129960626 ; 37604.00000000001
159 ; 14673.411414390286 ; 3758.390588582668 ; 3764827.905735832 ; 597584.1035846453 ; 37842.00000000001
160 ; 14647.835935146468 ; 3758.390588582668 ; 3779501.3171502226 ; 601342.494173228 ; 38080.00000000001
161 ; 14433.23304841687 ; 3758.390588582668 ; 3794149.153085369 ; 605100.8847618108 ; 38318.00000000001
162 ; 14226.401984439417 ; 3758.390588582668 ; 3808582.386133786 ; 608859.2753503935 ; 38556.00000000001
163 ; 13932.1377735943 ; 3758.390588582668 ; 3822808.788118225 ; 612617.6659389762 ; 38794.00000000001
164 ; 13900.245426588785 ; 3758.390588582668 ; 3836740.9258918194 ; 616376.056527559 ; 39032.00000000001
165 ; 13497.442769937268 ; 3758.390588582668 ; 3850641.171318408 ; 620134.4471161417 ; 39270.00000000001
166 ; 13361.769564507644 ; 3758.390588582668 ; 3864138.6140883453 ; 623892.8377047244 ; 39508.00000000001
167 ; 13169.51920501551 ; 3758.390588582668 ; 3877500.383652853 ; 627651.2282933071 ; 39746.00000000001
168 ; 13008.674229398159 ; 3758.390588582668 ; 3890669.9028578685 ; 631409.6188818899 ; 39984.00000000001
169 ; 13101.644650909308 ; 3758.390588582668 ; 3903678.577087267 ; 635168.0094704726 ; 40222.00000000001
170 ; 12563.895285559036 ; 3758.390588582668 ; 3916780.221738176 ; 638926.4000590553 ; 40460.00000000001
171 ; 12468.424625119394 ; 3758.390588582668 ; 3929344.117023735 ; 642684.790647638 ; 40698.00000000001
172 ; 12182.666202357128 ; 3758.390588582668 ; 3941812.541648854 ; 646443.1812362208 ; 40936.00000000001
173 ; 12016.4925369453 ; 3758.390588582668 ; 3953995.207851211 ; 650201.5718248035 ; 41174.00000000001
174 ; 12031.112668599539 ; 3758.390588582668 ; 3966011.7003881563 ; 653959.9624133862 ; 41412.00000000001
175 ; 12197.73323378738 ; 3758.390588582668 ; 3978042.813056756 ; 657718.3530019689 ; 41650.00000000001
176 ; 12312.83450043265 ; 3758.390588582668 ; 3990240.5462905434 ; 661476.7435905517 ; 41888.00000000001
177 ; 12257.128903427449 ; 3758.390588582668 ; 4002553.380790976 ; 665235.1341791344 ; 42126.00000000001
178 ; 12262.174839213712 ; 3758.390588582668 ; 4014810.5096944035 ; 668993.5247677171 ; 42364.00000000001
179 ; 12372.804977867867 ; 3758.390588582668 ; 4027072.684533617 ; 672751.9153562998 ; 42602.00000000001
180 ; 12401.052215223765 ; 3758.390588582668 ; 4039445.4895114847 ; 676510.3059448826 ; 42840.00000000001
181 ; 12467.017548126498 ; 3758.390588582668 ; 4051846.5417267084 ; 680268.6965334653 ; 43078.00000000001
182 ; 12396.551313186601 ; 3758.390588582668 ; 4064313.559274835 ; 684027.087122048 ; 43316.00000000001
183 ; 12501.175378360793 ; 3758.390588582668 ; 4076710.1105880216 ; 687785.4777106307 ; 43554.00000000001
184 ; 12545.90512211198 ; 3758.390588582668 ; 4089211.2859663824 ; 691543.8682992135 ; 43792.00000000001
185 ; 12436.589402526846 ; 3758.390588582668 ; 4101757.1910884944 ; 695302.2588877962 ; 44030.00000000001
186 ; 12507.202811916743 ; 3758.390588582668 ; 4114193.780491021 ; 699060.6494763789 ; 44268.00000000001
