CSV File for the City 1 on Day 299
1 - Minute m 
2 - Power Consumed at minute m 
3 - Power Produced at minute m 
4 - Energy Consumed since the beginning of the day 
5 - Energy Produced since the beginning of the day 
6 - Energy Lost since the beginning of the day on lines starting from the city
 
0 ; 10535.019468140888 ; 11620.25447470957 ; 0.0 ; 0.0 ; 0.0
1 ; 11196.240638505245 ; 11620.25447470957 ; 10535.019468140888 ; 11620.25447470957 ; 238.00000000000003
2 ; 11497.201224182849 ; 11620.25447470957 ; 21731.260106646136 ; 23240.50894941914 ; 476.00000000000006
3 ; 11770.093192610344 ; 11620.25447470957 ; 33228.461330828985 ; 34860.763424128716 ; 714.0000000000001
4 ; 12340.235683917155 ; 11620.25447470957 ; 44998.55452343933 ; 46481.01789883828 ; 952.0000000000001
5 ; 12514.728999106092 ; 11620.25447470957 ; 57338.790207356484 ; 58101.27237354785 ; 1190.0000000000002
6 ; 12956.848296265262 ; 11620.25447470957 ; 69853.51920646257 ; 69721.52684825742 ; 1428.0000000000002
7 ; 13333.345735190913 ; 11620.25447470957 ; 82810.36750272784 ; 81341.78132296698 ; 1666.0000000000002
8 ; 13638.134981736539 ; 11620.25447470957 ; 96143.71323791875 ; 92962.03579767655 ; 1904.0000000000002
9 ; 14147.10393278369 ; 11620.25447470957 ; 109781.8482196553 ; 104582.29027238612 ; 2142.0000000000005
10 ; 14478.496083982205 ; 11620.25447470957 ; 123928.95215243899 ; 116202.54474709569 ; 2380.0000000000005
11 ; 14777.0127801236 ; 11620.25447470957 ; 138407.4482364212 ; 127822.79922180525 ; 2618.0000000000005
12 ; 15141.079970221475 ; 11620.25447470957 ; 153184.46101654478 ; 139443.05369651483 ; 2856.0000000000005
13 ; 15422.77072968407 ; 11620.25447470957 ; 168325.54098676625 ; 151063.3081712244 ; 3094.0000000000005
14 ; 15891.566199043515 ; 11620.25447470957 ; 183748.31171645032 ; 162683.56264593397 ; 3332.0000000000005
15 ; 16096.62672421173 ; 11620.25447470957 ; 199639.87791549382 ; 174303.81712064354 ; 3570.0000000000005
16 ; 16519.921617320946 ; 11620.25447470957 ; 215736.50463970556 ; 185924.0715953531 ; 3808.0000000000005
17 ; 16897.52591342056 ; 11620.25447470957 ; 232256.4262570265 ; 197544.32607006267 ; 4046.0000000000005
18 ; 17176.98840062754 ; 11620.25447470957 ; 249153.95217044707 ; 209164.58054477224 ; 4284.000000000001
19 ; 17542.01645558148 ; 11620.25447470957 ; 266330.9405710746 ; 220784.8350194818 ; 4522.000000000001
20 ; 17939.456879693087 ; 11620.25447470957 ; 283872.9570266561 ; 232405.08949419137 ; 4760.000000000001
21 ; 18211.690578659123 ; 11620.25447470957 ; 301812.41390634916 ; 244025.34396890094 ; 4998.000000000001
22 ; 18477.606781731836 ; 11620.25447470957 ; 320024.1044850083 ; 255645.5984436105 ; 5236.000000000001
23 ; 18479.06577903789 ; 11620.25447470957 ; 338501.7112667401 ; 267265.8529183201 ; 5474.000000000001
24 ; 19049.00618893083 ; 11620.25447470957 ; 356980.777045778 ; 278886.10739302967 ; 5712.000000000001
25 ; 19378.32464824629 ; 11620.25447470957 ; 376029.7832347088 ; 290506.36186773924 ; 5950.000000000001
26 ; 19775.185332620385 ; 11620.25447470957 ; 395408.1078829551 ; 302126.6163424488 ; 6188.000000000001
27 ; 19786.5328969439 ; 11620.25447470957 ; 415183.2932155755 ; 313746.8708171584 ; 6426.000000000001
28 ; 20192.51039277677 ; 11620.25447470957 ; 434969.8261125194 ; 325367.12529186794 ; 6664.000000000001
29 ; 20276.019215564473 ; 11620.25447470957 ; 455162.3365052962 ; 336987.3797665775 ; 6902.000000000001
30 ; 20593.811083372573 ; 11620.25447470957 ; 475438.35572086065 ; 348607.6342412871 ; 7140.000000000001
31 ; 20949.253822636103 ; 11620.25447470957 ; 496032.1668042332 ; 360227.88871599664 ; 7378.000000000001
32 ; 21321.348922182526 ; 11620.25447470957 ; 516981.4206268693 ; 371848.1431907062 ; 7616.000000000001
33 ; 21320.621491956113 ; 11620.25447470957 ; 538302.7695490519 ; 383468.3976654158 ; 7854.000000000001
34 ; 21598.87808467447 ; 11620.25447470957 ; 559623.3910410079 ; 395088.65214012534 ; 8092.000000000001
35 ; 21745.363178309795 ; 11620.25447470957 ; 581222.2691256824 ; 406708.9066148349 ; 8330.000000000002
36 ; 22008.120075009483 ; 11620.25447470957 ; 602967.6323039922 ; 418329.1610895445 ; 8568.000000000002
37 ; 22197.16288026312 ; 11620.25447470957 ; 624975.7523790017 ; 429949.41556425404 ; 8806.000000000002
38 ; 22611.56079635025 ; 11620.25447470957 ; 647172.9152592649 ; 441569.6700389636 ; 9044.000000000002
39 ; 22876.483383293187 ; 11620.25447470957 ; 669784.4760556151 ; 453189.9245136732 ; 9282.000000000002
40 ; 22954.044900312703 ; 11620.25447470957 ; 692660.9594389083 ; 464810.17898838274 ; 9520.000000000002
41 ; 23206.498736260044 ; 11620.25447470957 ; 715615.0043392209 ; 476430.4334630923 ; 9758.000000000002
42 ; 23301.988188847627 ; 11620.25447470957 ; 738821.5030754809 ; 488050.6879378019 ; 9996.000000000002
43 ; 23502.62055006993 ; 11620.25447470957 ; 762123.4912643286 ; 499670.94241251145 ; 10234.000000000002
44 ; 23767.33237808886 ; 11620.25447470957 ; 785626.1118143986 ; 511291.196887221 ; 10472.000000000002
45 ; 23967.667994507286 ; 11620.25447470957 ; 809393.4441924874 ; 522911.4513619306 ; 10710.000000000002
46 ; 23985.58599770199 ; 11620.25447470957 ; 833361.1121869946 ; 534531.7058366402 ; 10948.000000000002
47 ; 24034.951203920915 ; 11620.25447470957 ; 857346.6981846966 ; 546151.9603113498 ; 11186.000000000002
48 ; 24430.675084668223 ; 11620.25447470957 ; 881381.6493886175 ; 557772.2147860595 ; 11424.000000000002
49 ; 24583.65601621735 ; 11620.25447470957 ; 905812.3244732857 ; 569392.4692607691 ; 11662.000000000002
50 ; 24809.03454580233 ; 11620.25447470957 ; 930395.980489503 ; 581012.7237354787 ; 11900.000000000002
51 ; 24738.93196174801 ; 11620.25447470957 ; 955205.0150353053 ; 592632.9782101883 ; 12138.000000000002
52 ; 24965.856971987498 ; 11620.25447470957 ; 979943.9469970533 ; 604253.232684898 ; 12376.000000000002
53 ; 25038.75039839626 ; 11620.25447470957 ; 1004909.8039690409 ; 615873.4871596076 ; 12614.000000000002
54 ; 25348.11589467251 ; 11620.25447470957 ; 1029948.5543674371 ; 627493.7416343172 ; 12852.000000000002
55 ; 25358.43116341459 ; 11620.25447470957 ; 1055296.6702621097 ; 639113.9961090268 ; 13090.000000000002
56 ; 25551.113805579887 ; 11620.25447470957 ; 1080655.1014255243 ; 650734.2505837365 ; 13328.000000000002
57 ; 25761.013411881086 ; 11620.25447470957 ; 1106206.2152311043 ; 662354.5050584461 ; 13566.000000000002
58 ; 25918.51593785909 ; 11620.25447470957 ; 1131967.2286429855 ; 673974.7595331557 ; 13804.000000000002
59 ; 25974.618876114942 ; 11620.25447470957 ; 1157885.7445808447 ; 685595.0140078653 ; 14042.000000000002
60 ; 25966.044641507688 ; 11620.25447470957 ; 1183860.3634569596 ; 697215.268482575 ; 14280.000000000002
61 ; 26056.635183403945 ; 11620.25447470957 ; 1209826.4080984674 ; 708835.5229572846 ; 14518.000000000002
62 ; 26249.437074769652 ; 11620.25447470957 ; 1235883.0432818714 ; 720455.7774319942 ; 14756.000000000002
63 ; 26300.158934192394 ; 11620.25447470957 ; 1262132.480356641 ; 732076.0319067038 ; 14994.000000000002
64 ; 26396.995925429936 ; 11620.25447470957 ; 1288432.6392908336 ; 743696.2863814135 ; 15232.000000000002
65 ; 26461.00001641921 ; 11620.25447470957 ; 1314829.6352162636 ; 755316.5408561231 ; 15470.000000000002
66 ; 26544.514644462008 ; 11620.25447470957 ; 1341290.6352326828 ; 766936.7953308327 ; 15708.000000000002
67 ; 26573.073363142918 ; 11620.25447470957 ; 1367835.1498771447 ; 778557.0498055423 ; 15946.000000000002
68 ; 26898.308849186 ; 11620.25447470957 ; 1394408.2232402877 ; 790177.304280252 ; 16184.000000000002
69 ; 26780.197216350487 ; 11620.25447470957 ; 1421306.5320894737 ; 801797.5587549616 ; 16422.000000000004
70 ; 26922.147855386924 ; 11620.25447470957 ; 1448086.7293058243 ; 813417.8132296712 ; 16660.000000000004
71 ; 26729.248227322067 ; 11620.25447470957 ; 1475008.877161211 ; 825038.0677043808 ; 16898.000000000004
72 ; 26968.39610714575 ; 11620.25447470957 ; 1501738.125388533 ; 836658.3221790905 ; 17136.000000000004
73 ; 26942.516868918927 ; 11620.25447470957 ; 1528706.521495679 ; 848278.5766538001 ; 17374.000000000004
74 ; 27211.15794075191 ; 11620.25447470957 ; 1555649.0383645978 ; 859898.8311285097 ; 17612.000000000004
75 ; 27001.839900750976 ; 11620.25447470957 ; 1582860.1963053497 ; 871519.0856032193 ; 17850.000000000004
76 ; 27121.653107067395 ; 11620.25447470957 ; 1609862.0362061006 ; 883139.340077929 ; 18088.000000000004
77 ; 27011.550246147865 ; 11620.25447470957 ; 1636983.689313168 ; 894759.5945526386 ; 18326.000000000004
78 ; 27119.091112514187 ; 11620.25447470957 ; 1663995.2395593158 ; 906379.8490273482 ; 18564.000000000004
79 ; 27029.024487829032 ; 11620.25447470957 ; 1691114.33067183 ; 918000.1035020578 ; 18802.000000000004
80 ; 27089.293243685526 ; 11620.25447470957 ; 1718143.3551596592 ; 929620.3579767675 ; 19040.000000000004
81 ; 27199.121582499378 ; 11620.25447470957 ; 1745232.6484033447 ; 941240.6124514771 ; 19278.000000000004
82 ; 27080.744278339756 ; 11620.25447470957 ; 1772431.7699858441 ; 952860.8669261867 ; 19516.000000000004
83 ; 27153.24558309268 ; 11620.25447470957 ; 1799512.5142641838 ; 964481.1214008963 ; 19754.000000000004
84 ; 27206.3273023842 ; 11620.25447470957 ; 1826665.7598472766 ; 976101.375875606 ; 19992.000000000004
85 ; 27132.295274989476 ; 11620.25447470957 ; 1853872.0871496608 ; 987721.6303503156 ; 20230.000000000004
86 ; 26989.356886277947 ; 11620.25447470957 ; 1881004.3824246502 ; 999341.8848250252 ; 20468.000000000004
87 ; 27011.203940782398 ; 11620.25447470957 ; 1907993.7393109282 ; 1010962.1392997348 ; 20706.000000000004
88 ; 26720.00708474037 ; 11620.25447470957 ; 1935004.9432517106 ; 1022582.3937744445 ; 20944.000000000004
89 ; 27017.095988687975 ; 11620.25447470957 ; 1961724.950336451 ; 1034202.6482491541 ; 21182.000000000004
90 ; 26775.38240595888 ; 11620.25447470957 ; 1988742.046325139 ; 1045822.9027238637 ; 21420.000000000004
91 ; 26683.831034851675 ; 11620.25447470957 ; 2015517.4287310978 ; 1057443.1571985732 ; 21658.000000000004
92 ; 26764.70001147504 ; 11620.25447470957 ; 2042201.2597659496 ; 1069063.4116732827 ; 21896.000000000004
93 ; 26702.00083365295 ; 11620.25447470957 ; 2068965.9597774246 ; 1080683.6661479922 ; 22134.000000000004
94 ; 26667.079022392783 ; 11620.25447470957 ; 2095667.9606110775 ; 1092303.9206227018 ; 22372.000000000004
95 ; 26390.515301563253 ; 11620.25447470957 ; 2122335.03963347 ; 1103924.1750974113 ; 22610.000000000004
96 ; 26505.35260477017 ; 11620.25447470957 ; 2148725.5549350334 ; 1115544.4295721208 ; 22848.000000000004
97 ; 26399.07866380984 ; 11620.25447470957 ; 2175230.9075398035 ; 1127164.6840468303 ; 23086.000000000004
98 ; 26284.058055268557 ; 11620.25447470957 ; 2201629.986203613 ; 1138784.9385215398 ; 23324.000000000004
99 ; 26066.527679715393 ; 11620.25447470957 ; 2227914.044258882 ; 1150405.1929962493 ; 23562.000000000004
100 ; 26196.09063084857 ; 11620.25447470957 ; 2253980.571938597 ; 1162025.4474709588 ; 23800.000000000004
101 ; 26148.687213069134 ; 11620.25447470957 ; 2280176.6625694456 ; 1173645.7019456683 ; 24038.000000000004
102 ; 25934.04404239928 ; 11620.25447470957 ; 2306325.349782515 ; 1185265.9564203778 ; 24276.000000000004
103 ; 25854.693097522904 ; 11620.25447470957 ; 2332259.393824914 ; 1196886.2108950873 ; 24514.000000000004
104 ; 25651.462931806684 ; 11620.25447470957 ; 2358114.086922437 ; 1208506.4653697968 ; 24752.000000000004
105 ; 25452.832146639637 ; 11620.25447470957 ; 2383765.5498542436 ; 1220126.7198445064 ; 24990.000000000004
106 ; 25346.903343900518 ; 11620.25447470957 ; 2409218.382000883 ; 1231746.9743192159 ; 25228.000000000004
107 ; 25258.641353519302 ; 11620.25447470957 ; 2434565.2853447837 ; 1243367.2287939254 ; 25466.000000000004
108 ; 25309.482350424398 ; 11620.25447470957 ; 2459823.926698303 ; 1254987.4832686349 ; 25704.000000000004
109 ; 24863.673019207366 ; 11620.25447470957 ; 2485133.4090487272 ; 1266607.7377433444 ; 25942.000000000004
110 ; 24839.488190053744 ; 11620.25447470957 ; 2509997.082067935 ; 1278227.992218054 ; 26180.000000000004
111 ; 24707.445759077742 ; 11620.25447470957 ; 2534836.5702579888 ; 1289848.2466927634 ; 26418.000000000004
112 ; 24451.95114499353 ; 11620.25447470957 ; 2559544.0160170663 ; 1301468.501167473 ; 26656.000000000004
113 ; 24318.729493013318 ; 11620.25447470957 ; 2583995.9671620596 ; 1313088.7556421824 ; 26894.000000000004
114 ; 24035.020906107322 ; 11620.25447470957 ; 2608314.6966550727 ; 1324709.010116892 ; 27132.000000000004
115 ; 23987.119747958826 ; 11620.25447470957 ; 2632349.7175611802 ; 1336329.2645916014 ; 27370.000000000004
116 ; 23774.579812219494 ; 11620.25447470957 ; 2656336.837309139 ; 1347949.519066311 ; 27608.000000000004
117 ; 23613.096976199686 ; 11620.25447470957 ; 2680111.417121358 ; 1359569.7735410205 ; 27846.000000000004
118 ; 23405.608153046167 ; 11620.25447470957 ; 2703724.514097558 ; 1371190.02801573 ; 28084.000000000004
119 ; 23238.79129799979 ; 11620.25447470957 ; 2727130.122250604 ; 1382810.2824904395 ; 28322.000000000004
120 ; 23120.028091446322 ; 11620.25447470957 ; 2750368.9135486037 ; 1394430.536965149 ; 28560.000000000004
121 ; 22733.42386914297 ; 11620.25447470957 ; 2773488.94164005 ; 1406050.7914398585 ; 28798.000000000004
122 ; 22739.527651865697 ; 11620.25447470957 ; 2796222.365509193 ; 1417671.045914568 ; 29036.000000000004
123 ; 22467.911830979672 ; 11620.25447470957 ; 2818961.8931610584 ; 1429291.3003892775 ; 29274.000000000004
124 ; 22115.01309568562 ; 11620.25447470957 ; 2841429.8049920383 ; 1440911.554863987 ; 29512.000000000004
125 ; 22013.033555816863 ; 11620.25447470957 ; 2863544.818087724 ; 1452531.8093386965 ; 29750.000000000004
126 ; 21624.946839403867 ; 11620.25447470957 ; 2885557.851643541 ; 1464152.063813406 ; 29988.000000000004
127 ; 21467.58084699485 ; 11620.25447470957 ; 2907182.7984829447 ; 1475772.3182881156 ; 30226.000000000004
128 ; 21183.454109541173 ; 11620.25447470957 ; 2928650.3793299394 ; 1487392.572762825 ; 30464.000000000004
129 ; 20845.392275791488 ; 11620.25447470957 ; 2949833.8334394805 ; 1499012.8272375346 ; 30702.000000000004
130 ; 20582.44394580307 ; 11620.25447470957 ; 2970679.225715272 ; 1510633.081712244 ; 30940.000000000004
131 ; 20603.47919087083 ; 11620.25447470957 ; 2991261.6696610753 ; 1522253.3361869536 ; 31178.000000000004
132 ; 20281.319805176747 ; 11620.25447470957 ; 3011865.148851946 ; 1533873.590661663 ; 31416.000000000004
133 ; 19985.629570622594 ; 11620.25447470957 ; 3032146.468657123 ; 1545493.8451363726 ; 31654.000000000004
134 ; 19612.575230933162 ; 11620.25447470957 ; 3052132.0982277454 ; 1557114.099611082 ; 31892.000000000004
135 ; 19449.50344568204 ; 11620.25447470957 ; 3071744.6734586786 ; 1568734.3540857916 ; 32130.000000000004
136 ; 19207.684492450757 ; 11620.25447470957 ; 3091194.1769043608 ; 1580354.6085605011 ; 32368.000000000004
137 ; 18839.011339368994 ; 11620.25447470957 ; 3110401.8613968114 ; 1591974.8630352106 ; 32606.000000000004
138 ; 18500.017858515137 ; 11620.25447470957 ; 3129240.87273618 ; 1603595.1175099202 ; 32844.00000000001
139 ; 18086.980758947215 ; 11620.25447470957 ; 3147740.890594695 ; 1615215.3719846297 ; 33082.00000000001
140 ; 17864.74467743316 ; 11620.25447470957 ; 3165827.8713536425 ; 1626835.6264593392 ; 33320.00000000001
141 ; 17486.14593910885 ; 11620.25447470957 ; 3183692.616031076 ; 1638455.8809340487 ; 33558.00000000001
142 ; 17201.703988109613 ; 11620.25447470957 ; 3201178.7619701847 ; 1650076.1354087582 ; 33796.00000000001
143 ; 16860.817730622544 ; 11620.25447470957 ; 3218380.4659582945 ; 1661696.3898834677 ; 34034.00000000001
144 ; 16476.995028889687 ; 11620.25447470957 ; 3235241.283688917 ; 1673316.6443581772 ; 34272.00000000001
145 ; 16389.72385777454 ; 11620.25447470957 ; 3251718.2787178066 ; 1684936.8988328867 ; 34510.00000000001
146 ; 16650.145660877017 ; 11620.25447470957 ; 3268108.002575581 ; 1696557.1533075962 ; 34748.00000000001
147 ; 16324.614197297173 ; 11620.25447470957 ; 3284758.148236458 ; 1708177.4077823057 ; 34986.00000000001
148 ; 16170.07098540142 ; 11620.25447470957 ; 3301082.762433755 ; 1719797.6622570152 ; 35224.00000000001
149 ; 16008.692110553007 ; 11620.25447470957 ; 3317252.8334191567 ; 1731417.9167317247 ; 35462.00000000001
150 ; 16030.796837901997 ; 11620.25447470957 ; 3333261.5255297096 ; 1743038.1712064343 ; 35700.00000000001
151 ; 15860.783048658142 ; 11620.25447470957 ; 3349292.322367612 ; 1754658.4256811438 ; 35938.00000000001
152 ; 15838.372558461448 ; 11620.25447470957 ; 3365153.10541627 ; 1766278.6801558533 ; 36176.00000000001
153 ; 15765.671597421104 ; 11620.25447470957 ; 3380991.4779747315 ; 1777898.9346305628 ; 36414.00000000001
154 ; 15633.924382376385 ; 11620.25447470957 ; 3396757.1495721526 ; 1789519.1891052723 ; 36652.00000000001
155 ; 15730.49034339504 ; 11620.25447470957 ; 3412391.073954529 ; 1801139.4435799818 ; 36890.00000000001
156 ; 15293.192143106848 ; 11620.25447470957 ; 3428121.5642979243 ; 1812759.6980546913 ; 37128.00000000001
157 ; 15188.751167450917 ; 11620.25447470957 ; 3443414.756441031 ; 1824379.9525294008 ; 37366.00000000001
158 ; 15026.362347454271 ; 11620.25447470957 ; 3458603.507608482 ; 1836000.2070041103 ; 37604.00000000001
159 ; 15090.329396341067 ; 11620.25447470957 ; 3473629.8699559364 ; 1847620.4614788198 ; 37842.00000000001
160 ; 14790.817131954269 ; 11620.25447470957 ; 3488720.1993522774 ; 1859240.7159535293 ; 38080.00000000001
161 ; 14922.48210743201 ; 11620.25447470957 ; 3503511.0164842317 ; 1870860.9704282389 ; 38318.00000000001
162 ; 14481.732402968644 ; 11620.25447470957 ; 3518433.498591664 ; 1882481.2249029484 ; 38556.00000000001
163 ; 14494.445413267604 ; 11620.25447470957 ; 3532915.2309946325 ; 1894101.4793776579 ; 38794.00000000001
164 ; 14339.550611085693 ; 11620.25447470957 ; 3547409.6764079 ; 1905721.7338523674 ; 39032.00000000001
165 ; 14249.819495803555 ; 11620.25447470957 ; 3561749.227018986 ; 1917341.988327077 ; 39270.00000000001
166 ; 14054.840185573963 ; 11620.25447470957 ; 3575999.0465147896 ; 1928962.2428017864 ; 39508.00000000001
167 ; 14145.912733169454 ; 11620.25447470957 ; 3590053.8867003634 ; 1940582.497276496 ; 39746.00000000001
168 ; 13953.392601441641 ; 11620.25447470957 ; 3604199.7994335326 ; 1952202.7517512054 ; 39984.00000000001
169 ; 13678.171699489007 ; 11620.25447470957 ; 3618153.192034974 ; 1963823.006225915 ; 40222.00000000001
170 ; 13564.403031860487 ; 11620.25447470957 ; 3631831.363734463 ; 1975443.2607006244 ; 40460.00000000001
171 ; 13463.558833215226 ; 11620.25447470957 ; 3645395.7667663237 ; 1987063.515175334 ; 40698.00000000001
172 ; 13220.377452712695 ; 11620.25447470957 ; 3658859.325599539 ; 1998683.7696500435 ; 40936.00000000001
173 ; 12931.359935730197 ; 11620.25447470957 ; 3672079.7030522516 ; 2010304.024124753 ; 41174.00000000001
174 ; 13245.03355982369 ; 11620.25447470957 ; 3685011.062987982 ; 2021924.2785994625 ; 41412.00000000001
175 ; 13033.104477802844 ; 11620.25447470957 ; 3698256.0965478057 ; 2033544.533074172 ; 41650.00000000001
176 ; 13217.826634272345 ; 11620.25447470957 ; 3711289.2010256085 ; 2045164.7875488815 ; 41888.00000000001
177 ; 13297.187802297532 ; 11620.25447470957 ; 3724507.027659881 ; 2056785.042023591 ; 42126.00000000001
178 ; 13284.107057991354 ; 11620.25447470957 ; 3737804.2154621785 ; 2068405.2964983005 ; 42364.00000000001
179 ; 13091.75421679144 ; 11620.25447470957 ; 3751088.32252017 ; 2080025.55097301 ; 42602.00000000001
180 ; 13211.216936813762 ; 11620.25447470957 ; 3764180.0767369615 ; 2091645.8054477195 ; 42840.00000000001
181 ; 13111.067926404598 ; 11620.25447470957 ; 3777391.293673775 ; 2103266.0599224293 ; 43078.00000000001
182 ; 13283.038431060491 ; 11620.25447470957 ; 3790502.3616001797 ; 2114886.314397139 ; 43316.00000000001
183 ; 13274.025571923252 ; 11620.25447470957 ; 3803785.40003124 ; 2126506.5688718488 ; 43554.00000000001
184 ; 13430.27572376946 ; 11620.25447470957 ; 3817059.4256031634 ; 2138126.8233465585 ; 43792.00000000001
185 ; 13375.935726924763 ; 11620.25447470957 ; 3830489.7013269328 ; 2149747.0778212682 ; 44030.00000000001
