CSV File for the City 1 on Day 325
1 - Minute m 
2 - Power Consumed at minute m 
3 - Power Produced at minute m 
4 - Energy Consumed since the beginning of the day 
5 - Energy Produced since the beginning of the day 
6 - Energy Lost since the beginning of the day on lines starting from the city
 
0 ; 10916.3206489531 ; 23789.62405960173 ; 0.0 ; 0.0 ; 0.0
1 ; 11441.062022702175 ; 23789.62405960173 ; 10916.3206489531 ; 23789.62405960173 ; 238.00000000000003
2 ; 11687.952546016146 ; 23789.62405960173 ; 22357.382671655276 ; 47579.24811920346 ; 476.00000000000006
3 ; 12065.828969621152 ; 23789.62405960173 ; 34045.335217671425 ; 71368.87217880519 ; 714.0000000000001
4 ; 12406.356215386286 ; 23789.62405960173 ; 46111.164187292576 ; 95158.49623840692 ; 952.0000000000001
5 ; 12869.385855001266 ; 23789.62405960173 ; 58517.52040267886 ; 118948.12029800865 ; 1190.0000000000002
6 ; 13153.825610045673 ; 23789.62405960173 ; 71386.90625768012 ; 142737.74435761038 ; 1428.0000000000002
7 ; 13418.368461081569 ; 23789.62405960173 ; 84540.7318677258 ; 166527.3684172121 ; 1666.0000000000002
8 ; 13634.432427100428 ; 23789.62405960173 ; 97959.10032880737 ; 190316.99247681384 ; 1904.0000000000002
9 ; 13911.546043679366 ; 23789.62405960173 ; 111593.5327559078 ; 214106.6165364156 ; 2142.0000000000005
10 ; 14249.52978072876 ; 23789.62405960173 ; 125505.07879958717 ; 237896.24059601733 ; 2380.0000000000005
11 ; 14654.432500510979 ; 23789.62405960173 ; 139754.60858031592 ; 261685.86465561908 ; 2618.0000000000005
12 ; 14797.789206413294 ; 23789.62405960173 ; 154409.0410808269 ; 285475.4887152208 ; 2856.0000000000005
13 ; 15039.014675786859 ; 23789.62405960173 ; 169206.83028724018 ; 309265.11277482257 ; 3094.0000000000005
14 ; 15302.340450368114 ; 23789.62405960173 ; 184245.84496302705 ; 333054.7368344243 ; 3332.0000000000005
15 ; 15531.080391139096 ; 23789.62405960173 ; 199548.18541339517 ; 356844.36089402606 ; 3570.0000000000005
16 ; 15919.975178307926 ; 23789.62405960173 ; 215079.26580453425 ; 380633.9849536278 ; 3808.0000000000005
17 ; 16216.334032752997 ; 23789.62405960173 ; 230999.24098284217 ; 404423.60901322955 ; 4046.0000000000005
18 ; 16471.98489546055 ; 23789.62405960173 ; 247215.57501559515 ; 428213.2330728313 ; 4284.000000000001
19 ; 16822.253594303693 ; 23789.62405960173 ; 263687.5599110557 ; 452002.85713243304 ; 4522.000000000001
20 ; 17037.76537277425 ; 23789.62405960173 ; 280509.8135053594 ; 475792.4811920348 ; 4760.000000000001
21 ; 17324.13817229316 ; 23789.62405960173 ; 297547.5788781337 ; 499582.10525163653 ; 4998.000000000001
22 ; 17695.23885000949 ; 23789.62405960173 ; 314871.7170504268 ; 523371.7293112383 ; 5236.000000000001
23 ; 17899.604749136008 ; 23789.62405960173 ; 332566.9559004363 ; 547161.35337084 ; 5474.000000000001
24 ; 17938.5323697614 ; 23789.62405960173 ; 350466.56064957235 ; 570950.9774304416 ; 5712.000000000001
25 ; 18307.67212336262 ; 23789.62405960173 ; 368405.0930193337 ; 594740.6014900433 ; 5950.000000000001
26 ; 18463.89851839373 ; 23789.62405960173 ; 386712.7651426963 ; 618530.225549645 ; 6188.000000000001
27 ; 18601.07490296711 ; 23789.62405960173 ; 405176.6636610901 ; 642319.8496092467 ; 6426.000000000001
28 ; 18864.2135848628 ; 23789.62405960173 ; 423777.73856405716 ; 666109.4736688484 ; 6664.000000000001
29 ; 19105.801978178126 ; 23789.62405960173 ; 442641.95214892 ; 689899.0977284501 ; 6902.000000000001
30 ; 19225.92138461984 ; 23789.62405960173 ; 461747.75412709813 ; 713688.7217880518 ; 7140.000000000001
31 ; 19463.5614775165 ; 23789.62405960173 ; 480973.675511718 ; 737478.3458476535 ; 7378.000000000001
32 ; 19800.778490069446 ; 23789.62405960173 ; 500437.23698923446 ; 761267.9699072551 ; 7616.000000000001
33 ; 19960.356617700294 ; 23789.62405960173 ; 520238.0154793039 ; 785057.5939668568 ; 7854.000000000001
34 ; 20049.675296792873 ; 23789.62405960173 ; 540198.3720970042 ; 808847.2180264585 ; 8092.000000000001
35 ; 20246.472099996434 ; 23789.62405960173 ; 560248.0473937971 ; 832636.8420860602 ; 8330.000000000002
36 ; 20460.195332739277 ; 23789.62405960173 ; 580494.5194937935 ; 856426.4661456619 ; 8568.000000000002
37 ; 20695.130743695918 ; 23789.62405960173 ; 600954.7148265328 ; 880216.0902052636 ; 8806.000000000002
38 ; 20979.285942938866 ; 23789.62405960173 ; 621649.8455702286 ; 904005.7142648653 ; 9044.000000000002
39 ; 21169.004997025364 ; 23789.62405960173 ; 642629.1315131675 ; 927795.338324467 ; 9282.000000000002
40 ; 21243.457216132 ; 23789.62405960173 ; 663798.1365101929 ; 951584.9623840686 ; 9520.000000000002
41 ; 21433.448352802607 ; 23789.62405960173 ; 685041.5937263248 ; 975374.5864436703 ; 9758.000000000002
42 ; 21498.967923986813 ; 23789.62405960173 ; 706475.0420791275 ; 999164.210503272 ; 9996.000000000002
43 ; 21655.020951285944 ; 23789.62405960173 ; 727974.0100031144 ; 1022953.8345628737 ; 10234.000000000002
44 ; 21919.27040951681 ; 23789.62405960173 ; 749629.0309544003 ; 1046743.4586224754 ; 10472.000000000002
45 ; 22017.288913001546 ; 23789.62405960173 ; 771548.3013639171 ; 1070533.082682077 ; 10710.000000000002
46 ; 22225.08269410966 ; 23789.62405960173 ; 793565.5902769186 ; 1094322.7067416788 ; 10948.000000000002
47 ; 22279.04535007079 ; 23789.62405960173 ; 815790.6729710283 ; 1118112.3308012804 ; 11186.000000000002
48 ; 22641.33838175267 ; 23789.62405960173 ; 838069.7183210991 ; 1141901.9548608821 ; 11424.000000000002
49 ; 22653.970281927766 ; 23789.62405960173 ; 860711.0567028518 ; 1165691.5789204838 ; 11662.000000000002
50 ; 22597.49772933628 ; 23789.62405960173 ; 883365.0269847795 ; 1189481.2029800855 ; 11900.000000000002
51 ; 22900.72177611698 ; 23789.62405960173 ; 905962.5247141158 ; 1213270.8270396872 ; 12138.000000000002
52 ; 22874.081139855836 ; 23789.62405960173 ; 928863.2464902328 ; 1237060.4510992889 ; 12376.000000000002
53 ; 23244.47713999975 ; 23789.62405960173 ; 951737.3276300885 ; 1260850.0751588906 ; 12614.000000000002
54 ; 23111.024645859885 ; 23789.62405960173 ; 974981.8047700883 ; 1284639.6992184923 ; 12852.000000000002
55 ; 23181.080404493983 ; 23789.62405960173 ; 998092.8294159481 ; 1308429.323278094 ; 13090.000000000002
56 ; 23396.126205458946 ; 23789.62405960173 ; 1021273.9098204421 ; 1332218.9473376956 ; 13328.000000000002
57 ; 23570.32130757641 ; 23789.62405960173 ; 1044670.0360259011 ; 1356008.5713972973 ; 13566.000000000002
58 ; 23691.219825114436 ; 23789.62405960173 ; 1068240.3573334776 ; 1379798.195456899 ; 13804.000000000002
59 ; 23619.71279882737 ; 23789.62405960173 ; 1091931.577158592 ; 1403587.8195165007 ; 14042.000000000002
60 ; 23893.010077731175 ; 23789.62405960173 ; 1115551.2899574193 ; 1427377.4435761024 ; 14280.000000000002
61 ; 23691.266142873854 ; 23789.62405960173 ; 1139444.3000351505 ; 1451167.067635704 ; 14518.000000000002
62 ; 24074.644089593177 ; 23789.62405960173 ; 1163135.5661780243 ; 1474956.6916953058 ; 14756.000000000002
63 ; 23993.89619108405 ; 23789.62405960173 ; 1187210.2102676174 ; 1498746.3157549074 ; 14994.000000000002
64 ; 24072.368442780076 ; 23789.62405960173 ; 1211204.1064587014 ; 1522535.9398145091 ; 15232.000000000002
65 ; 24124.287029422267 ; 23789.62405960173 ; 1235276.4749014815 ; 1546325.5638741108 ; 15470.000000000002
66 ; 24289.795305540723 ; 23789.62405960173 ; 1259400.761930904 ; 1570115.1879337125 ; 15708.000000000002
67 ; 24298.744056170224 ; 23789.62405960173 ; 1283690.5572364447 ; 1593904.8119933142 ; 15946.000000000002
68 ; 24417.161863671667 ; 23789.62405960173 ; 1307989.301292615 ; 1617694.4360529159 ; 16184.000000000002
69 ; 24337.704285333344 ; 23789.62405960173 ; 1332406.4631562866 ; 1641484.0601125176 ; 16422.000000000004
70 ; 24428.873529474975 ; 23789.62405960173 ; 1356744.16744162 ; 1665273.6841721192 ; 16660.000000000004
71 ; 24496.242665034297 ; 23789.62405960173 ; 1381173.040971095 ; 1689063.308231721 ; 16898.000000000004
72 ; 24621.764484051455 ; 23789.62405960173 ; 1405669.2836361292 ; 1712852.9322913226 ; 17136.000000000004
73 ; 24559.813993820375 ; 23789.62405960173 ; 1430291.0481201806 ; 1736642.5563509243 ; 17374.000000000004
74 ; 24586.273042168195 ; 23789.62405960173 ; 1454850.862114001 ; 1760432.180410526 ; 17612.000000000004
75 ; 24484.90862682226 ; 23789.62405960173 ; 1479437.1351561693 ; 1784221.8044701277 ; 17850.000000000004
76 ; 24614.164083835505 ; 23789.62405960173 ; 1503922.0437829916 ; 1808011.4285297294 ; 18088.000000000004
77 ; 24549.07470195287 ; 23789.62405960173 ; 1528536.207866827 ; 1831801.052589331 ; 18326.000000000004
78 ; 24801.859873731133 ; 23789.62405960173 ; 1553085.28256878 ; 1855590.6766489327 ; 18564.000000000004
79 ; 24764.72630085897 ; 23789.62405960173 ; 1577887.1424425112 ; 1879380.3007085344 ; 18802.000000000004
80 ; 24757.30390929071 ; 23789.62405960173 ; 1602651.86874337 ; 1903169.924768136 ; 19040.000000000004
81 ; 24780.15061578912 ; 23789.62405960173 ; 1627409.1726526609 ; 1926959.5488277378 ; 19278.000000000004
82 ; 24712.01648169227 ; 23789.62405960173 ; 1652189.32326845 ; 1950749.1728873395 ; 19516.000000000004
83 ; 24735.58607709431 ; 23789.62405960173 ; 1676901.3397501423 ; 1974538.7969469412 ; 19754.000000000004
84 ; 24688.5432846447 ; 23789.62405960173 ; 1701636.9258272366 ; 1998328.4210065429 ; 19992.000000000004
85 ; 24772.104506508575 ; 23789.62405960173 ; 1726325.4691118812 ; 2022118.0450661446 ; 20230.000000000004
86 ; 24620.787343673805 ; 23789.62405960173 ; 1751097.57361839 ; 2045907.6691257462 ; 20468.000000000004
87 ; 24546.231225442232 ; 23789.62405960173 ; 1775718.3609620638 ; 2069697.293185348 ; 20706.000000000004
88 ; 24721.18688620816 ; 23789.62405960173 ; 1800264.592187506 ; 2093486.9172449496 ; 20944.000000000004
89 ; 24542.71526106715 ; 23789.62405960173 ; 1824985.779073714 ; 2117276.5413045515 ; 21182.000000000004
90 ; 24491.324880202912 ; 23789.62405960173 ; 1849528.4943347813 ; 2141066.165364153 ; 21420.000000000004
91 ; 24321.17340313075 ; 23789.62405960173 ; 1874019.8192149843 ; 2164855.789423755 ; 21658.000000000004
92 ; 24370.237012308327 ; 23789.62405960173 ; 1898340.9926181152 ; 2188645.4134833566 ; 21896.000000000004
93 ; 24336.702089999384 ; 23789.62405960173 ; 1922711.2296304235 ; 2212435.0375429583 ; 22134.000000000004
94 ; 24228.270345185912 ; 23789.62405960173 ; 1947047.9317204228 ; 2236224.66160256 ; 22372.000000000004
95 ; 24143.081721319577 ; 23789.62405960173 ; 1971276.2020656087 ; 2260014.2856621617 ; 22610.000000000004
96 ; 24125.76314261972 ; 23789.62405960173 ; 1995419.2837869283 ; 2283803.9097217633 ; 22848.000000000004
97 ; 24053.660614183453 ; 23789.62405960173 ; 2019545.046929548 ; 2307593.533781365 ; 23086.000000000004
98 ; 23989.432619712916 ; 23789.62405960173 ; 2043598.7075437314 ; 2331383.1578409667 ; 23324.000000000004
99 ; 23814.838072303544 ; 23789.62405960173 ; 2067588.1401634444 ; 2355172.7819005684 ; 23562.000000000004
100 ; 24012.1819138015 ; 23789.62405960173 ; 2091402.978235748 ; 2378962.40596017 ; 23800.000000000004
101 ; 23746.871021627496 ; 23789.62405960173 ; 2115415.1601495496 ; 2402752.030019772 ; 24038.000000000004
102 ; 23648.515845126654 ; 23789.62405960173 ; 2139162.031171177 ; 2426541.6540793735 ; 24276.000000000004
103 ; 23570.279856020945 ; 23789.62405960173 ; 2162810.5470163035 ; 2450331.278138975 ; 24514.000000000004
104 ; 23605.916968284168 ; 23789.62405960173 ; 2186380.8268723246 ; 2474120.902198577 ; 24752.000000000004
105 ; 23406.076326096663 ; 23789.62405960173 ; 2209986.7438406087 ; 2497910.5262581785 ; 24990.000000000004
106 ; 23315.845240806542 ; 23789.62405960173 ; 2233392.820166705 ; 2521700.15031778 ; 25228.000000000004
107 ; 23162.198102652103 ; 23789.62405960173 ; 2256708.665407512 ; 2545489.774377382 ; 25466.000000000004
108 ; 22975.895962472274 ; 23789.62405960173 ; 2279870.863510164 ; 2569279.3984369836 ; 25704.000000000004
109 ; 23055.348782679375 ; 23789.62405960173 ; 2302846.759472636 ; 2593069.0224965853 ; 25942.000000000004
110 ; 22849.517207769568 ; 23789.62405960173 ; 2325902.1082553156 ; 2616858.646556187 ; 26180.000000000004
111 ; 22740.846413478706 ; 23789.62405960173 ; 2348751.6254630852 ; 2640648.2706157886 ; 26418.000000000004
112 ; 22629.690173671563 ; 23789.62405960173 ; 2371492.471876564 ; 2664437.8946753903 ; 26656.000000000004
113 ; 22753.51456508173 ; 23789.62405960173 ; 2394122.1620502356 ; 2688227.518734992 ; 26894.000000000004
114 ; 22409.535237139815 ; 23789.62405960173 ; 2416875.6766153174 ; 2712017.1427945937 ; 27132.000000000004
115 ; 22141.58263970648 ; 23789.62405960173 ; 2439285.2118524574 ; 2735806.7668541954 ; 27370.000000000004
116 ; 22067.714663492985 ; 23789.62405960173 ; 2461426.7944921637 ; 2759596.390913797 ; 27608.000000000004
117 ; 21966.5729832143 ; 23789.62405960173 ; 2483494.5091556567 ; 2783386.0149733988 ; 27846.000000000004
118 ; 21802.664487078073 ; 23789.62405960173 ; 2505461.082138871 ; 2807175.6390330005 ; 28084.000000000004
119 ; 21683.296586188062 ; 23789.62405960173 ; 2527263.7466259487 ; 2830965.263092602 ; 28322.000000000004
120 ; 21524.679875202735 ; 23789.62405960173 ; 2548947.0432121367 ; 2854754.887152204 ; 28560.000000000004
121 ; 21315.483714978094 ; 23789.62405960173 ; 2570471.7230873397 ; 2878544.5112118055 ; 28798.000000000004
122 ; 21157.680138595108 ; 23789.62405960173 ; 2591787.206802318 ; 2902334.135271407 ; 29036.000000000004
123 ; 20901.22031818152 ; 23789.62405960173 ; 2612944.886940913 ; 2926123.759331009 ; 29274.000000000004
124 ; 20838.109538943376 ; 23789.62405960173 ; 2633846.1072590942 ; 2949913.3833906106 ; 29512.000000000004
125 ; 20473.632972771615 ; 23789.62405960173 ; 2654684.2167980378 ; 2973703.0074502123 ; 29750.000000000004
126 ; 20520.584972572342 ; 23789.62405960173 ; 2675157.8497708095 ; 2997492.631509814 ; 29988.000000000004
127 ; 20164.143426636158 ; 23789.62405960173 ; 2695678.434743382 ; 3021282.2555694156 ; 30226.000000000004
128 ; 19913.338623835498 ; 23789.62405960173 ; 2715842.5781700183 ; 3045071.8796290173 ; 30464.000000000004
129 ; 19764.726610152913 ; 23789.62405960173 ; 2735755.916793854 ; 3068861.503688619 ; 30702.000000000004
130 ; 19622.93762291599 ; 23789.62405960173 ; 2755520.643404007 ; 3092651.1277482207 ; 30940.000000000004
131 ; 19301.507034392744 ; 23789.62405960173 ; 2775143.581026923 ; 3116440.7518078224 ; 31178.000000000004
132 ; 19226.48909073252 ; 23789.62405960173 ; 2794445.0880613155 ; 3140230.375867424 ; 31416.000000000004
133 ; 19047.29561640868 ; 23789.62405960173 ; 2813671.577152048 ; 3164019.9999270258 ; 31654.000000000004
134 ; 18709.11274657749 ; 23789.62405960173 ; 2832718.8727684566 ; 3187809.6239866274 ; 31892.000000000004
135 ; 18621.77634703243 ; 23789.62405960173 ; 2851427.9855150343 ; 3211599.248046229 ; 32130.000000000004
136 ; 18455.55509464102 ; 23789.62405960173 ; 2870049.7618620666 ; 3235388.872105831 ; 32368.000000000004
137 ; 18083.436629439126 ; 23789.62405960173 ; 2888505.3169567077 ; 3259178.4961654325 ; 32606.000000000004
138 ; 17884.073597707087 ; 23789.62405960173 ; 2906588.753586147 ; 3282968.120225034 ; 32844.00000000001
139 ; 17615.434454196857 ; 23789.62405960173 ; 2924472.827183854 ; 3306757.744284636 ; 33082.00000000001
140 ; 17382.527598507822 ; 23789.62405960173 ; 2942088.261638051 ; 3330547.3683442376 ; 33320.00000000001
141 ; 17007.847425216736 ; 23789.62405960173 ; 2959470.7892365586 ; 3354336.9924038392 ; 33558.00000000001
142 ; 16884.917141691356 ; 23789.62405960173 ; 2976478.6366617754 ; 3378126.616463441 ; 33796.00000000001
143 ; 16543.09003664321 ; 23789.62405960173 ; 2993363.5538034667 ; 3401916.2405230426 ; 34034.00000000001
144 ; 16281.348975440167 ; 23789.62405960173 ; 3009906.64384011 ; 3425705.8645826443 ; 34272.00000000001
145 ; 16491.97586588469 ; 23789.62405960173 ; 3026187.99281555 ; 3449495.488642246 ; 34510.00000000001
146 ; 16233.764959691502 ; 23789.62405960173 ; 3042679.9686814346 ; 3473285.1127018477 ; 34748.00000000001
147 ; 16140.942075076091 ; 23789.62405960173 ; 3058913.733641126 ; 3497074.7367614494 ; 34986.00000000001
148 ; 16103.6221051767 ; 23789.62405960173 ; 3075054.6757162022 ; 3520864.360821051 ; 35224.00000000001
149 ; 16098.118919543955 ; 23789.62405960173 ; 3091158.297821379 ; 3544653.9848806527 ; 35462.00000000001
150 ; 15818.992468674174 ; 23789.62405960173 ; 3107256.4167409227 ; 3568443.6089402544 ; 35700.00000000001
151 ; 15883.507437165157 ; 23789.62405960173 ; 3123075.409209597 ; 3592233.232999856 ; 35938.00000000001
152 ; 15817.137273191598 ; 23789.62405960173 ; 3138958.9166467623 ; 3616022.857059458 ; 36176.00000000001
153 ; 15747.186869103689 ; 23789.62405960173 ; 3154776.0539199538 ; 3639812.4811190595 ; 36414.00000000001
154 ; 15370.104946901285 ; 23789.62405960173 ; 3170523.240789057 ; 3663602.105178661 ; 36652.00000000001
155 ; 15494.954890959332 ; 23789.62405960173 ; 3185893.3457359583 ; 3687391.729238263 ; 36890.00000000001
156 ; 15151.036578969612 ; 23789.62405960173 ; 3201388.3006269177 ; 3711181.3532978646 ; 37128.00000000001
157 ; 15333.626836116173 ; 23789.62405960173 ; 3216539.3372058873 ; 3734970.9773574662 ; 37366.00000000001
158 ; 15187.215110037187 ; 23789.62405960173 ; 3231872.9640420033 ; 3758760.601417068 ; 37604.00000000001
159 ; 15037.747118433857 ; 23789.62405960173 ; 3247060.1791520403 ; 3782550.2254766696 ; 37842.00000000001
160 ; 15088.85100520797 ; 23789.62405960173 ; 3262097.926270474 ; 3806339.8495362713 ; 38080.00000000001
161 ; 14783.80388720045 ; 23789.62405960173 ; 3277186.777275682 ; 3830129.473595873 ; 38318.00000000001
162 ; 14886.42529631963 ; 23789.62405960173 ; 3291970.5811628825 ; 3853919.0976554747 ; 38556.00000000001
163 ; 14873.840183876293 ; 23789.62405960173 ; 3306857.006459202 ; 3877708.7217150764 ; 38794.00000000001
164 ; 14460.047165868562 ; 23789.62405960173 ; 3321730.8466430786 ; 3901498.345774678 ; 39032.00000000001
165 ; 14403.559986534541 ; 23789.62405960173 ; 3336190.893808947 ; 3925287.9698342797 ; 39270.00000000001
166 ; 14386.665983037528 ; 23789.62405960173 ; 3350594.4537954815 ; 3949077.5938938814 ; 39508.00000000001
167 ; 14321.571976389334 ; 23789.62405960173 ; 3364981.119778519 ; 3972867.217953483 ; 39746.00000000001
168 ; 14211.543671573181 ; 23789.62405960173 ; 3379302.6917549083 ; 3996656.842013085 ; 39984.00000000001
169 ; 14034.236021768447 ; 23789.62405960173 ; 3393514.2354264813 ; 4020446.4660726865 ; 40222.00000000001
170 ; 13846.080790301487 ; 23789.62405960173 ; 3407548.4714482496 ; 4044236.090132288 ; 40460.00000000001
171 ; 13781.614141920012 ; 23789.62405960173 ; 3421394.552238551 ; 4068025.71419189 ; 40698.00000000001
172 ; 13619.335289607996 ; 23789.62405960173 ; 3435176.166380471 ; 4091815.3382514915 ; 40936.00000000001
173 ; 13488.825028045097 ; 23789.62405960173 ; 3448795.5016700793 ; 4115604.962311093 ; 41174.00000000001
174 ; 13459.902908346672 ; 23789.62405960173 ; 3462284.3266981244 ; 4139394.586370695 ; 41412.00000000001
175 ; 13629.651136951541 ; 23789.62405960173 ; 3475744.229606471 ; 4163184.2104302966 ; 41650.00000000001
176 ; 13583.549301633278 ; 23789.62405960173 ; 3489373.8807434225 ; 4186973.8344898983 ; 41888.00000000001
177 ; 13542.428083728932 ; 23789.62405960173 ; 3502957.4300450557 ; 4210763.4585495 ; 42126.00000000001
178 ; 13484.179513299625 ; 23789.62405960173 ; 3516499.8581287847 ; 4234553.082609102 ; 42364.00000000001
179 ; 13472.301755339176 ; 23789.62405960173 ; 3529984.0376420845 ; 4258342.706668704 ; 42602.00000000001
180 ; 13594.581397629947 ; 23789.62405960173 ; 3543456.339397424 ; 4282132.3307283055 ; 42840.00000000001
181 ; 13630.03235250134 ; 23789.62405960173 ; 3557050.9207950537 ; 4305921.954787907 ; 43078.00000000001
182 ; 13740.02081170884 ; 23789.62405960173 ; 3570680.9531475552 ; 4329711.578847509 ; 43316.00000000001
183 ; 13601.495452117042 ; 23789.62405960173 ; 3584420.973959264 ; 4353501.202907111 ; 43554.00000000001
184 ; 13666.938266807607 ; 23789.62405960173 ; 3598022.469411381 ; 4377290.826966712 ; 43792.00000000001
185 ; 13811.754348014403 ; 23789.62405960173 ; 3611689.4076781888 ; 4401080.451026314 ; 44030.00000000001
186 ; 13835.39263523351 ; 23789.62405960173 ; 3625501.1620262032 ; 4424870.075085916 ; 44268.00000000001
