CSV File for the City 3 on Day 130
1 - Minute m 
2 - Power Consumed at minute m 
3 - Power Produced at minute m 
4 - Energy Consumed since the beginning of the day 
5 - Energy Produced since the beginning of the day 
6 - Energy Lost since the beginning of the day on lines starting from the city
 
0 ; 7992.340359072466 ; 100236.56929321201 ; 0.0 ; 0.0 ; 0.0
1 ; 8386.035382143285 ; 99895.71118634596 ; 7992.340359072466 ; 100236.56929321201 ; 0.0
2 ; 8683.68178055927 ; 99589.67395115904 ; 16378.37574121575 ; 200132.280479558 ; 0.0
3 ; 8998.527540667974 ; 99318.80288082623 ; 25062.05752177502 ; 299721.95443071704 ; 0.0
4 ; 9274.599224252053 ; 99083.40708934494 ; 34060.585062442995 ; 399040.7573115433 ; 0.0
5 ; 9595.210633207551 ; 98883.75791085846 ; 43335.18428669505 ; 498124.1644008882 ; 0.0
6 ; 9788.746883532738 ; 98720.087469602 ; 52930.394919902596 ; 597007.9223117466 ; 0.0
7 ; 10040.465447878001 ; 98592.5874378607 ; 62719.141803435334 ; 695728.0097813486 ; 0.0
8 ; 10410.173773803193 ; 98501.40799736623 ; 72759.60725131334 ; 794320.5972192093 ; 0.0
9 ; 10722.311906261808 ; 98446.65701726594 ; 83169.78102511654 ; 892822.0052165756 ; 0.0
10 ; 10930.424675679214 ; 98428.39945920976 ; 93892.09293137834 ; 991268.6622338415 ; 0.0
11 ; 11238.231267836238 ; 98446.65701726594 ; 104822.51760705755 ; 1089697.0616930514 ; 0.0
12 ; 11489.896932383646 ; 98501.40799736623 ; 116060.74887489379 ; 1188143.7187103173 ; 0.0
13 ; 11703.574713351723 ; 98592.5874378607 ; 127550.64580727744 ; 1286645.1267076836 ; 0.0
14 ; 12054.372674117998 ; 98720.087469602 ; 139254.22052062917 ; 1385237.7141455442 ; 0.0
15 ; 12216.075741768103 ; 98883.75791085846 ; 151308.59319474717 ; 1483957.8016151462 ; 0.0
16 ; 12520.119787720803 ; 99083.40708934494 ; 163524.66893651529 ; 1582841.5595260046 ; 0.0
17 ; 12756.633836389195 ; 99318.80288082614 ; 176044.78872423607 ; 1681924.9666153495 ; 0.0
18 ; 13001.514072544542 ; 99589.67395115904 ; 188801.42256062527 ; 1781243.7694961757 ; 0.0
19 ; 13225.909215567155 ; 99895.71118634596 ; 201802.93663316983 ; 1880833.4434473347 ; 0.0
20 ; 13347.771446452927 ; 100236.5692932121 ; 215028.845848737 ; 1980729.1546336806 ; 0.0
21 ; 13688.042583756334 ; 100611.86855174098 ; 228376.61729518994 ; 2080965.7239268927 ; 0.0
22 ; 14011.460904899131 ; 101021.19669890284 ; 242064.65987894626 ; 2181577.592478634 ; 0.0
23 ; 14170.044536054325 ; 101464.11092302206 ; 256076.1207838454 ; 2282598.7891775365 ; 0.0
24 ; 14369.237180591852 ; 101940.13994732605 ; 270246.16531989974 ; 2384062.9001005585 ; 0.0
25 ; 14570.016063918365 ; 102448.78618130149 ; 284615.4025004916 ; 2486003.0400478845 ; 0.0
26 ; 14755.304972564867 ; 102989.5279188201 ; 299185.41856440995 ; 2588451.826229186 ; 0.0
27 ; 14883.669583410154 ; 103561.8215626577 ; 313940.7235369748 ; 2691441.354148006 ; 0.0
28 ; 14890.495568587092 ; 104165.10385597612 ; 328824.39312038495 ; 2795003.1757106637 ; 0.0
29 ; 15285.798293322257 ; 104798.79410252761 ; 343714.88868897205 ; 2899168.2795666396 ; 0.0
30 ; 15577.36956452079 ; 105462.29635872817 ; 359000.6869822943 ; 3003967.0736691672 ; 0.0
31 ; 15745.945229533658 ; 106155.00158228399 ; 374578.0565468151 ; 3109429.3700278956 ; 0.0
32 ; 15913.697512151914 ; 106876.28972370227 ; 390324.00177634874 ; 3215584.3716101795 ; 0.0
33 ; 15943.982496233219 ; 107625.53174872162 ; 406237.69928850065 ; 3322460.661333882 ; 0.0
34 ; 16158.632168945054 ; 108402.09158143224 ; 422181.68178473384 ; 3430086.1930826036 ; 0.0
35 ; 16510.429065376193 ; 109205.32795957071 ; 438340.3139536789 ; 3538488.284664036 ; 0.0
36 ; 16489.36208889693 ; 110034.59619514893 ; 454850.74301905505 ; 3647693.6126236063 ; 0.0
37 ; 16693.793544284814 ; 110889.24983517878 ; 471340.10510795197 ; 3757728.208818755 ; 0.0
38 ; 17024.895523191342 ; 111768.64221876342 ; 488033.8986522368 ; 3868617.458653934 ; 0.0
39 ; 16884.080172737024 ; 112672.12792822758 ; 505058.7941754281 ; 3980386.1008726973 ; 0.0
40 ; 17249.106730591444 ; 113599.06413323742 ; 521942.8743481651 ; 4093058.228800925 ; 0.0
41 ; 17409.27145235705 ; 114548.81182801333 ; 539191.9810787565 ; 4206657.292934163 ; 0.0
42 ; 17471.90198798616 ; 115520.73696275629 ; 556601.2525311136 ; 4321206.104762176 ; 0.0
43 ; 17533.405127095062 ; 116514.21147129463 ; 574073.1545190997 ; 4436726.841724932 ; 0.0
44 ; 17638.821521374673 ; 117528.61419771543 ; 591606.5596461948 ; 4553241.053196227 ; 0.0
45 ; 17741.524393260745 ; 118563.33172537363 ; 609245.3811675694 ; 4670769.667393942 ; 0.0
46 ; 17990.15070138558 ; 119617.75911218651 ; 626986.9055608301 ; 4789332.999119316 ; 0.0
47 ; 18197.80322239329 ; 120691.30053652209 ; 644977.0562622157 ; 4908950.758231503 ; 0.0
48 ; 18388.725563188935 ; 121783.36985829174 ; 663174.859484609 ; 5029642.058768025 ; 0.0
49 ; 18316.478384573064 ; 122893.39110006616 ; 681563.5850477979 ; 5151425.428626317 ; 0.0
50 ; 18586.973337605195 ; 124020.79885316259 ; 699880.0634323709 ; 5274318.819726382 ; 0.0
51 ; 18646.311116085395 ; 125165.03861370485 ; 718467.0367699761 ; 5398339.618579545 ; 0.0
52 ; 18864.045039263758 ; 126325.56705365477 ; 737113.3478860615 ; 5523504.65719325 ; 0.0
53 ; 18605.715819496505 ; 127501.85223174961 ; 755977.3929253253 ; 5649830.224246905 ; 0.0
54 ; 18924.04154005231 ; 128693.37374917933 ; 774583.1087448219 ; 5777332.0764786545 ; 0.0
55 ; 19085.103657560547 ; 129899.62285469449 ; 793507.1502848741 ; 5906025.450227834 ; 0.0
56 ; 19059.8242250234 ; 131120.1025036683 ; 812592.2539424347 ; 6035925.073082529 ; 0.0
57 ; 19212.67484722022 ; 132354.3273754396 ; 831652.0781674581 ; 6167045.1755861975 ; 0.0
58 ; 19447.581780636687 ; 133601.8238530588 ; 850864.7530146783 ; 6299399.502961637 ; 0.0
59 ; 19321.144246053937 ; 134862.1299693345 ; 870312.3347953149 ; 6433001.326814696 ; 0.0
60 ; 19368.87337967991 ; 136134.79532285206 ; 889633.4790413688 ; 6567863.45678403 ; 0.0
61 ; 19528.930279591394 ; 137419.3809674037 ; 909002.3524210487 ; 6703998.252106883 ; 0.0
62 ; 19620.455906854415 ; 138715.4592780382 ; 928531.28270064 ; 6841417.633074286 ; 0.0
63 ; 19631.183307419793 ; 140022.61379670998 ; 948151.7386074944 ; 6980133.092352324 ; 0.0
64 ; 19658.57097035772 ; 141340.43906028327 ; 967782.9219149142 ; 7120155.706149034 ; 0.0
65 ; 19655.105389417753 ; 142668.54041343095 ; 987441.4928852719 ; 7261496.145209317 ; 0.0
66 ; 19937.133657971583 ; 144006.53380875738 ; 1007096.5982746896 ; 7404164.685622748 ; 0.0
67 ; 20060.623934543197 ; 145354.04559627557 ; 1027033.7319326613 ; 7548171.219431506 ; 0.0
68 ; 20009.421002648476 ; 146710.712304179 ; 1047094.3558672045 ; 7693525.265027781 ; 0.0
69 ; 20108.306702919537 ; 148076.18041266882 ; 1067103.776869853 ; 7840235.97733196 ; 0.0
70 ; 20013.271965317952 ; 149450.10612242718 ; 1087212.0835727726 ; 7988312.157744628 ; 0.0
71 ; 19989.999585102218 ; 150832.15511917046 ; 1107225.3555380905 ; 8137762.263867056 ; 0.0
72 ; 19986.72337852282 ; 152222.00233556703 ; 1127215.3551231928 ; 8288594.418986226 ; 0.0
73 ; 20068.461185283926 ; 153619.33171166808 ; 1147202.0785017156 ; 8440816.421321794 ; 0.0
74 ; 20183.036533100552 ; 155023.83595487196 ; 1167270.5396869995 ; 8594435.753033463 ; 0.0
75 ; 20003.56449188582 ; 156435.21630032524 ; 1187453.5762201 ; 8749459.588988334 ; 0.0
76 ; 20224.207351391 ; 157853.18227255644 ; 1207457.1407119858 ; 8905894.80528866 ; 0.0
77 ; 20269.615044189195 ; 159277.45144903872 ; 1227681.3480633767 ; 9063747.987561217 ; 0.0
78 ; 20103.167972307572 ; 160707.7492262879 ; 1247950.9631075659 ; 9223025.439010255 ; 0.0
79 ; 20253.551984152742 ; 162143.8085890184 ; 1268054.1310798735 ; 9383733.188236542 ; 0.0
80 ; 20112.22056768428 ; 163585.36988280766 ; 1288307.6830640263 ; 9545876.99682556 ; 0.0
81 ; 20178.183022425936 ; 165032.18059064777 ; 1308419.9036317107 ; 9709462.366708368 ; 0.0
82 ; 20263.912529380097 ; 166483.99511370523 ; 1328598.0866541367 ; 9874494.547299016 ; 0.0
83 ; 20032.460817721596 ; 167940.574556552 ; 1348861.9991835167 ; 1.004097854241272E7 ; 0.0
84 ; 20197.558343290457 ; 169401.68651708314 ; 1368894.4600012384 ; 1.0208919116969272E7 ; 0.0
85 ; 20065.816892181512 ; 170867.10488129032 ; 1389092.0183445287 ; 1.0378320803486357E7 ; 0.0
86 ; 20015.80429141182 ; 172336.60962302177 ; 1409157.8352367103 ; 1.0549187908367647E7 ; 0.0
87 ; 20064.78428978785 ; 173809.9866088236 ; 1429173.639528122 ; 1.072152451799067E7 ; 0.0
88 ; 20216.760018778146 ; 175287.02740792587 ; 1449238.4238179098 ; 1.0895334504599493E7 ; 0.0
89 ; 20053.491379784125 ; 176767.5291074098 ; 1469455.1838366878 ; 1.1070621532007419E7 ; 0.0
90 ; 19863.05655654044 ; 178251.2941325668 ; 1489508.675216472 ; 1.1247389061114829E7 ; 0.0
91 ; 20000.901437955818 ; 179738.1300724402 ; 1509371.7317730126 ; 1.1425640355247395E7 ; 0.0
92 ; 20076.191381049248 ; 181227.849510521 ; 1529372.6332109685 ; 1.1605378485319836E7 ; 0.0
93 ; 19922.5855566721 ; 182720.26986055294 ; 1549448.8245920178 ; 1.1786606334830357E7 ; 0.0
94 ; 19701.42849476391 ; 184215.21320738856 ; 1569371.41014869 ; 1.196932660469091E7 ; 0.0
95 ; 19637.56821412343 ; 185712.5061528259 ; 1589072.838643454 ; 1.2153541817898298E7 ; 0.0
96 ; 19648.46932885517 ; 187211.97966634535 ; 1608710.4068575774 ; 1.2339254324051123E7 ; 0.0
97 ; 19547.167050806554 ; 188713.46894065785 ; 1628358.8761864325 ; 1.2526466303717468E7 ; 0.0
98 ; 19502.594214003057 ; 190216.81325196841 ; 1647906.0432372391 ; 1.2715179772658126E7 ; 0.0
99 ; 19407.80597923633 ; 191721.85582485364 ; 1667408.6374512422 ; 1.2905396585910095E7 ; 0.0
100 ; 19378.815346172836 ; 193228.44370164658 ; 1686816.4434304785 ; 1.309711844173495E7 ; 0.0
101 ; 19256.30174987466 ; 194736.4276162203 ; 1706195.2587766512 ; 1.3290346885436596E7 ; 0.0
102 ; 19028.56084826163 ; 196245.66187205637 ; 1725451.5605265258 ; 1.3485083313052816E7 ; 0.0
103 ; 19123.659103379516 ; 197756.00422448543 ; 1744480.1213747875 ; 1.3681328974924874E7 ; 0.0
104 ; 19179.122929546458 ; 199267.3157669839 ; 1763603.780478167 ; 1.3879084979149358E7 ; 0.0
105 ; 18836.87526114355 ; 200779.46082141134 ; 1782782.9034077136 ; 1.4078352294916343E7 ; 0.0
106 ; 19058.19358624015 ; 202292.30683207215 ; 1801619.7786688572 ; 1.4279131755737754E7 ; 0.0
107 ; 18858.963404047532 ; 203805.7242634876 ; 1820677.9722550972 ; 1.4481424062569825E7 ; 0.0
108 ; 18707.972618572847 ; 205319.58650176204 ; 1839536.9356591448 ; 1.4685229786833312E7 ; 0.0
109 ; 18725.67122910647 ; 206833.76975943148 ; 1858244.9082777177 ; 1.4890549373335075E7 ; 0.0
110 ; 18278.98693499269 ; 208348.15298368255 ; 1876970.579506824 ; 1.5097383143094506E7 ; 0.0
111 ; 18276.93303878056 ; 209862.6177678318 ; 1895249.5664418167 ; 1.5305731296078188E7 ; 0.0
112 ; 18258.58602114339 ; 211377.0482659575 ; 1913526.4994805972 ; 1.551559391384602E7 ; 0.0
113 ; 18074.561488997886 ; 212891.3311105785 ; 1931785.0855017407 ; 1.5726970962111978E7 ; 0.0
114 ; 18012.273067165 ; 214405.35533327627 ; 1949859.6469907386 ; 1.5939862293222556E7 ; 0.0
115 ; 17786.89686533766 ; 215919.0122881599 ; 1967871.9200579035 ; 1.6154267648555832E7 ; 0.0
116 ; 17750.793860420476 ; 217432.19557807426 ; 1985658.8169232411 ; 1.6370186660843993E7 ; 0.0
117 ; 17324.505701305974 ; 218944.800983457 ; 2003409.6107836617 ; 1.6587618856422067E7 ; 0.0
118 ; 17398.47657368073 ; 220456.7263937496 ; 2020734.1164849678 ; 1.6806563657405525E7 ; 0.0
119 ; 17225.722943986555 ; 221967.8717412724 ; 2038132.5930586485 ; 1.7027020383799274E7 ; 0.0
120 ; 17246.62904702284 ; 223478.13893747586 ; 2055358.316002635 ; 1.7248988255540546E7 ; 0.0
121 ; 16920.45225236589 ; 224987.43181148177 ; 2072604.945049658 ; 1.7472466394478023E7 ; 0.0
122 ; 16774.68676762901 ; 226495.65605083253 ; 2089525.3973020238 ; 1.7697453826289505E7 ; 0.0
123 ; 16690.937522298093 ; 228002.71914436753 ; 2106300.084069653 ; 1.7923949482340336E7 ; 0.0
124 ; 16580.143144173417 ; 229508.53032714984 ; 2122991.021591951 ; 1.8151952201484703E7 ; 0.0
125 ; 16275.37837581991 ; 231013.00052736732 ; 2139571.1647361247 ; 1.838146073181185E7 ; 0.0
126 ; 16315.757713387857 ; 232516.0423151365 ; 2155846.5431119446 ; 1.861247373233922E7 ; 0.0
127 ; 15920.63765132957 ; 234017.56985313832 ; 2172162.3008253323 ; 1.8844989774654355E7 ; 0.0
128 ; 15872.350257249416 ; 235517.4988490191 ; 2188082.9384766617 ; 1.9079007344507493E7 ; 0.0
129 ; 15616.655798351474 ; 237015.74650949019 ; 2203955.2887339112 ; 1.9314524843356512E7 ; 0.0
130 ; 15450.786103195025 ; 238512.23149606443 ; 2219571.9445322626 ; 1.9551540589866E7 ; 0.0
131 ; 15331.027301594444 ; 240006.8738823681 ; 2235022.7306354577 ; 1.9790052821362067E7 ; 0.0
132 ; 14931.312692235775 ; 241499.59511297024 ; 2250353.7579370523 ; 2.0030059695244435E7 ; 0.0
133 ; 14836.02406753802 ; 242990.31796367196 ; 2265285.070629288 ; 2.0271559290357407E7 ; 0.0
134 ; 14584.677052476358 ; 244478.96650320292 ; 2280121.094696826 ; 2.0514549608321078E7 ; 0.0
135 ; 14298.864408634818 ; 245965.46605627085 ; 2294705.7717493023 ; 2.075902857482428E7 ; 0.0
136 ; 14357.298792592082 ; 247449.74316791538 ; 2309004.636157937 ; 2.1004994040880553E7 ; 0.0
137 ; 14059.563892477296 ; 248931.72556911613 ; 2323361.934950529 ; 2.1252443784048468E7 ; 0.0
138 ; 13783.009018533612 ; 250411.34214360942 ; 2337421.4988430063 ; 2.1501375509617586E7 ; 0.0
139 ; 13582.985574350301 ; 251888.5228958683 ; 2351204.5078615397 ; 2.1751786851761196E7 ; 0.0
140 ; 13375.745334346502 ; 253363.19892020195 ; 2364787.49343589 ; 2.2003675374657065E7 ; 0.0
141 ; 13172.523390834776 ; 254835.30237093434 ; 2378163.2387702363 ; 2.2257038573577266E7 ; 0.0
142 ; 12971.538977216951 ; 256304.76643362004 ; 2391335.762161071 ; 2.2511873875948202E7 ; 0.0
143 ; 12575.518904141212 ; 257771.52529726087 ; 2404307.301138288 ; 2.276817864238182E7 ; 0.0
144 ; 12489.398705228385 ; 259235.51412748438 ; 2416882.820042429 ; 2.3025950167679083E7 ; 0.0
145 ; 12423.762141190575 ; 260696.66904064995 ; 2429372.2187476573 ; 2.3285185681806568E7 ; 0.0
146 ; 12236.464540814244 ; 262154.92707884713 ; 2441795.9808888477 ; 2.354588235084722E7 ; 0.0
147 ; 12285.706641186945 ; 263610.2261857542 ; 2454032.445429662 ; 2.3808037277926065E7 ; 0.0
148 ; 12351.844979225885 ; 265062.5051833247 ; 2466318.1520708487 ; 2.407164750411182E7 ; 0.0
149 ; 12040.847242950798 ; 266511.70374927175 ; 2478669.9970500744 ; 2.4336710009295143E7 ; 0.0
150 ; 11815.862603743364 ; 267957.7623953202 ; 2490710.8442930253 ; 2.4603221713044416E7 ; 0.0
151 ; 11948.648086499605 ; 269400.62244619976 ; 2502526.706896769 ; 2.4871179475439735E7 ; 0.0
152 ; 11722.992894068893 ; 270840.2260193505 ; 2514475.3549832683 ; 2.5140580097885933E7 ; 0.0
153 ; 11730.851213386697 ; 272276.5160053159 ; 2526198.347877337 ; 2.541142032390528E7 ; 0.0
154 ; 11657.703441628764 ; 273709.43604879733 ; 2537929.199090724 ; 2.5683696839910597E7 ; 0.0
155 ; 11689.036771581325 ; 275138.93053034757 ; 2549586.9025323526 ; 2.5957406275959395E7 ; 0.0
156 ; 11435.935088646078 ; 276564.94454867794 ; 2561275.939303934 ; 2.623254520648974E7 ; 0.0
157 ; 11368.800891579624 ; 277987.4239035584 ; 2572711.8743925802 ; 2.650911015103842E7 ; 0.0
158 ; 11262.334306339928 ; 279406.31507928943 ; 2584080.67528416 ; 2.6787097574941978E7 ; 0.0
159 ; 11034.512862791746 ; 280821.5652287234 ; 2595343.0095904996 ; 2.706650389002127E7 ; 0.0
160 ; 11108.07761550885 ; 282233.1221578177 ; 2606377.5224532913 ; 2.734732545524999E7 ; 0.0
161 ; 10777.754283775184 ; 283640.9343106991 ; 2617485.6000688 ; 2.7629558577407807E7 ; 0.0
162 ; 10796.43455208342 ; 285044.9507552217 ; 2628263.3543525753 ; 2.7913199511718508E7 ; 0.0
163 ; 10754.483660014806 ; 286445.1211690009 ; 2639059.7889046585 ; 2.8198244462473728E7 ; 0.0
164 ; 10672.166229907258 ; 287841.39582590625 ; 2649814.2725646733 ; 2.848468958364273E7 ; 0.0
165 ; 10710.111442288244 ; 289233.72558299673 ; 2660486.4387945808 ; 2.8772530979468636E7 ; 0.0
166 ; 10433.396232936906 ; 290622.06186788384 ; 2671196.550236869 ; 2.9061764705051634E7 ; 0.0
167 ; 10321.801588173543 ; 292006.35666650557 ; 2681629.946469806 ; 2.935238676691952E7 ; 0.0
168 ; 10270.710336220696 ; 293386.5625112986 ; 2691951.7480579796 ; 2.9644393123586025E7 ; 0.0
169 ; 10149.755992494245 ; 294762.6324697537 ; 2702222.4583942005 ; 2.9937779686097324E7 ; 0.0
170 ; 10058.98694755459 ; 296134.5201333415 ; 2712372.2143866946 ; 3.023254231856708E7 ; 0.0
171 ; 10043.632920179483 ; 297502.1796067953 ; 2722431.201334249 ; 3.052867683870042E7 ; 0.0
172 ; 9802.428976639892 ; 298865.5654977387 ; 2732474.8342544287 ; 3.0826179018307216E7 ; 0.0
173 ; 9635.117424953207 ; 300224.63290664565 ; 2742277.263231069 ; 3.1125044583804954E7 ; 0.0
174 ; 9824.000614752813 ; 301579.3374171228 ; 2751912.380656022 ; 3.14252692167116E7 ; 0.0
175 ; 9810.001516832805 ; 302929.635086501 ; 2761736.381270775 ; 3.172684855412872E7 ; 0.0
176 ; 9765.236158566206 ; 304275.48243672715 ; 2771546.382787608 ; 3.202977818921522E7 ; 0.0
177 ; 9750.367180853233 ; 305616.8364455449 ; 2781311.618946174 ; 3.233405367165195E7 ; 0.0
178 ; 9858.933677516268 ; 306953.65453795495 ; 2791061.9861270273 ; 3.2639670508097492E7 ; 0.0
179 ; 9790.464676866573 ; 308285.8945779455 ; 2800920.9198045437 ; 3.2946624162635446E7 ; 0.0
180 ; 9898.830835519462 ; 309613.51486048294 ; 2810711.3844814105 ; 3.3254910057213392E7 ; 0.0
181 ; 9810.75459515319 ; 310936.4741037546 ; 2820610.21531693 ; 3.356452357207388E7 ; 0.0
182 ; 9780.439564907225 ; 312254.73144165537 ; 2830420.969912083 ; 3.387546004617763E7 ; 0.0
183 ; 9882.69125170181 ; 313568.2464165088 ; 2840201.40947699 ; 3.418771477761929E7 ; 0.0
184 ; 9804.543884819617 ; 314876.97897201596 ; 2850084.1007286916 ; 3.45012830240358E7 ; 0.0
185 ; 9804.643033248973 ; 316180.88944642415 ; 2859888.6446135114 ; 3.4816160003007814E7 ; 0.0
186 ; 9841.51020834334 ; 317479.9385659075 ; 2869693.28764676 ; 3.513234089245424E7 ; 0.0
187 ; 9800.262955773003 ; 318774.08743815316 ; 2879534.7978551034 ; 3.544982083102015E7 ; 0.0
188 ; 9924.244516863446 ; 320063.2975461462 ; 2889335.0608108765 ; 3.57685949184583E7 ; 0.0
189 ; 9814.658684238519 ; 321347.5307421459 ; 2899259.30532774 ; 3.6088658216004446E7 ; 0.0
190 ; 9838.158144078832 ; 322626.74924184865 ; 2909073.9640119784 ; 3.641000574674659E7 ; 0.0
191 ; 9949.644434914993 ; 323900.91561872885 ; 2918912.122156057 ; 3.673263249598844E7 ; 0.0
192 ; 9943.674371178973 ; 325169.9927985553 ; 2928861.766590972 ; 3.7056533411607176E7 ; 0.0
193 ; 9965.59711993896 ; 326433.94405407354 ; 2938805.440962151 ; 3.738170340440573E7 ; 0.0
194 ; 9958.467578111495 ; 327692.732999853 ; 2948771.03808209 ; 3.77081373484598E7 ; 0.0
195 ; 9905.772085183724 ; 328946.32358728896 ; 2958729.505660202 ; 3.803583008145966E7 ; 0.0
196 ; 9923.991665405028 ; 330194.6800997586 ; 2968635.2777453857 ; 3.836477640504695E7 ; 0.0
197 ; 10003.998379968398 ; 331437.76714792324 ; 2978559.269410791 ; 3.86949710851467E7 ; 0.0
198 ; 9832.556847069696 ; 332675.54966517305 ; 2988563.2677907594 ; 3.9026408852294624E7 ; 0.0
199 ; 10023.291121606402 ; 333907.9929032105 ; 2998395.8246378293 ; 3.93590844019598E7 ; 0.0
200 ; 10060.93575544523 ; 335135.0624277664 ; 3008419.1157594356 ; 3.969299239486301E7 ; 0.0
201 ; 9985.979031930241 ; 336356.7241144455 ; 3018480.0515148807 ; 4.0028127457290776E7 ; 0.0
202 ; 9869.286651201934 ; 337572.9441446976 ; 3028466.030546811 ; 4.0364484181405224E7 ; 0.0
203 ; 9788.010283841566 ; 338783.68900190934 ; 3038335.317198013 ; 4.070205712554992E7 ; 0.0
204 ; 10018.187379918574 ; 339988.92546761327 ; 3048123.3274818547 ; 4.104084081455183E7 ; 0.0
205 ; 10125.075234971035 ; 341188.62061781116 ; 3058141.5148617732 ; 4.138082974001944E7 ; 0.0
206 ; 10015.422723363077 ; 342382.74181940674 ; 3068266.5900967442 ; 4.1722018360637255E7 ; 0.0
207 ; 9980.770362558482 ; 343571.25672674534 ; 3078282.0128201074 ; 4.206440110245666E7 ; 0.0
208 ; 9847.452520247025 ; 344754.13327825704 ; 3088262.7831826657 ; 4.24079723591834E7 ; 0.0
209 ; 10159.210332042743 ; 345931.33969319897 ; 3098110.235702913 ; 4.275272649246166E7 ; 0.0
210 ; 10108.172648000347 ; 347102.844468496 ; 3108269.4460349553 ; 4.3098657832154855E7 ; 0.0
211 ; 10147.092341720612 ; 348268.61637567385 ; 3118377.618682956 ; 4.344576067662335E7 ; 0.0
