CSV File for the City 1 on Day 193
1 - Minute m 
2 - Power Consumed at minute m 
3 - Power Produced at minute m 
4 - Energy Consumed since the beginning of the day 
5 - Energy Produced since the beginning of the day 
6 - Energy Lost since the beginning of the day on lines starting from the city
 
0 ; 5736.140474532717 ; 3624.962834792601 ; 0.0 ; 0.0 ; 0.0
1 ; 6180.116159992258 ; 3624.962834792601 ; 5736.140474532717 ; 3624.962834792601 ; 238.00000000000003
2 ; 6684.991173904618 ; 3624.962834792601 ; 11916.256634524976 ; 7249.925669585202 ; 476.00000000000006
3 ; 7509.2734390283085 ; 3624.962834792601 ; 18601.247808429594 ; 10874.888504377803 ; 714.0000000000001
4 ; 8082.932444528981 ; 3624.962834792601 ; 26110.521247457902 ; 14499.851339170404 ; 952.0000000000001
5 ; 8546.282110387734 ; 3624.962834792601 ; 34193.453691986884 ; 18124.814173963005 ; 1190.0000000000002
6 ; 9127.476783073182 ; 3624.962834792601 ; 42739.73580237462 ; 21749.777008755605 ; 1428.0000000000002
7 ; 9665.169424978572 ; 3624.962834792601 ; 51867.2125854478 ; 25374.739843548206 ; 1666.0000000000002
8 ; 10219.346679556927 ; 3624.962834792601 ; 61532.38201042637 ; 28999.702678340807 ; 1904.0000000000002
9 ; 10677.736555647272 ; 3624.962834792601 ; 71751.7286899833 ; 32624.66551313341 ; 2142.0000000000005
10 ; 11421.700936243247 ; 3624.962834792601 ; 82429.46524563056 ; 36249.62834792601 ; 2380.0000000000005
11 ; 11727.42983986975 ; 3624.962834792601 ; 93851.1661818738 ; 39874.59118271861 ; 2618.0000000000005
12 ; 12323.882612353438 ; 3624.962834792601 ; 105578.59602174355 ; 43499.55401751121 ; 2856.0000000000005
13 ; 12945.294931863802 ; 3624.962834792601 ; 117902.47863409699 ; 47124.516852303816 ; 3094.0000000000005
14 ; 13347.773352885502 ; 3624.962834792601 ; 130847.77356596079 ; 50749.47968709642 ; 3332.0000000000005
15 ; 13937.220002661807 ; 3624.962834792601 ; 144195.5469188463 ; 54374.442521889025 ; 3570.0000000000005
16 ; 14405.751280972994 ; 3624.962834792601 ; 158132.7669215081 ; 57999.40535668163 ; 3808.0000000000005
17 ; 14741.734750351749 ; 3624.962834792601 ; 172538.5182024811 ; 61624.368191474234 ; 4046.0000000000005
18 ; 15124.520510314545 ; 3624.962834792601 ; 187280.25295283285 ; 65249.33102626684 ; 4284.000000000001
19 ; 15717.578913861289 ; 3624.962834792601 ; 202404.7734631474 ; 68874.29386105944 ; 4522.000000000001
20 ; 16093.292208928777 ; 3624.962834792601 ; 218122.3523770087 ; 72499.25669585205 ; 4760.000000000001
21 ; 16603.363257352546 ; 3624.962834792601 ; 234215.6445859375 ; 76124.21953064465 ; 4998.000000000001
22 ; 17286.286316155398 ; 3624.962834792601 ; 250819.00784329005 ; 79749.18236543726 ; 5236.000000000001
23 ; 17616.786259866985 ; 3624.962834792601 ; 268105.29415944545 ; 83374.14520022986 ; 5474.000000000001
24 ; 18094.38966395748 ; 3624.962834792601 ; 285722.0804193124 ; 86999.10803502247 ; 5712.000000000001
25 ; 18467.648501365973 ; 3624.962834792601 ; 303816.4700832699 ; 90624.07086981507 ; 5950.000000000001
26 ; 18657.399489790627 ; 3624.962834792601 ; 322284.11858463584 ; 94249.03370460767 ; 6188.000000000001
27 ; 18971.867571870032 ; 3624.962834792601 ; 340941.51807442645 ; 97873.99653940028 ; 6426.000000000001
28 ; 19602.673739976548 ; 3624.962834792601 ; 359913.3856462965 ; 101498.95937419288 ; 6664.000000000001
29 ; 20028.86716263389 ; 3624.962834792601 ; 379516.05938627303 ; 105123.92220898549 ; 6902.000000000001
30 ; 20452.574366751447 ; 3624.962834792601 ; 399544.92654890695 ; 108748.8850437781 ; 7140.000000000001
31 ; 20643.617070482385 ; 3624.962834792601 ; 419997.5009156584 ; 112373.8478785707 ; 7378.000000000001
32 ; 21294.417681299892 ; 3624.962834792601 ; 440641.11798614083 ; 115998.8107133633 ; 7616.000000000001
33 ; 21583.63423452702 ; 3624.962834792601 ; 461935.53566744074 ; 119623.7735481559 ; 7854.000000000001
34 ; 21664.78152313406 ; 3624.962834792601 ; 483519.16990196775 ; 123248.73638294851 ; 8092.000000000001
35 ; 22247.151486652983 ; 3624.962834792601 ; 505183.9514251018 ; 126873.69921774112 ; 8330.000000000002
36 ; 22558.830078811516 ; 3624.962834792601 ; 527431.1029117547 ; 130498.66205253372 ; 8568.000000000002
37 ; 22870.748887568458 ; 3624.962834792601 ; 549989.9329905662 ; 134123.62488732632 ; 8806.000000000002
38 ; 23107.469362741915 ; 3624.962834792601 ; 572860.6818781347 ; 137748.58772211891 ; 9044.000000000002
39 ; 23600.92738590809 ; 3624.962834792601 ; 595968.1512408766 ; 141373.5505569115 ; 9282.000000000002
40 ; 23955.698709494733 ; 3624.962834792601 ; 619569.0786267847 ; 144998.5133917041 ; 9520.000000000002
41 ; 24142.826124170082 ; 3624.962834792601 ; 643524.7773362795 ; 148623.47622649668 ; 9758.000000000002
42 ; 24454.57779032958 ; 3624.962834792601 ; 667667.6034604496 ; 152248.43906128927 ; 9996.000000000002
43 ; 24802.18616299913 ; 3624.962834792601 ; 692122.1812507792 ; 155873.40189608186 ; 10234.000000000002
44 ; 24987.953656040405 ; 3624.962834792601 ; 716924.3674137783 ; 159498.36473087445 ; 10472.000000000002
45 ; 25465.89231509625 ; 3624.962834792601 ; 741912.3210698187 ; 163123.32756566704 ; 10710.000000000002
46 ; 25592.17280448396 ; 3624.962834792601 ; 767378.2133849149 ; 166748.29040045963 ; 10948.000000000002
47 ; 25920.926647793556 ; 3624.962834792601 ; 792970.3861893988 ; 170373.25323525222 ; 11186.000000000002
48 ; 26231.554110652956 ; 3624.962834792601 ; 818891.3128371923 ; 173998.21607004481 ; 11424.000000000002
49 ; 26374.288450386743 ; 3624.962834792601 ; 845122.8669478453 ; 177623.1789048374 ; 11662.000000000002
50 ; 26680.391499688863 ; 3624.962834792601 ; 871497.155398232 ; 181248.14173963 ; 11900.000000000002
51 ; 26656.013997640326 ; 3624.962834792601 ; 898177.5468979209 ; 184873.10457442258 ; 12138.000000000002
52 ; 27210.09836017613 ; 3624.962834792601 ; 924833.5608955612 ; 188498.06740921517 ; 12376.000000000002
53 ; 27306.662174174748 ; 3624.962834792601 ; 952043.6592557373 ; 192123.03024400776 ; 12614.000000000002
54 ; 27537.511612394064 ; 3624.962834792601 ; 979350.3214299121 ; 195747.99307880035 ; 12852.000000000002
55 ; 27508.032000137715 ; 3624.962834792601 ; 1006887.8330423061 ; 199372.95591359294 ; 13090.000000000002
56 ; 28025.525731257636 ; 3624.962834792601 ; 1034395.8650424439 ; 202997.91874838553 ; 13328.000000000002
57 ; 28240.670069577005 ; 3624.962834792601 ; 1062421.3907737015 ; 206622.88158317812 ; 13566.000000000002
58 ; 28309.119685057078 ; 3624.962834792601 ; 1090662.0608432784 ; 210247.84441797071 ; 13804.000000000002
59 ; 28451.47426368865 ; 3624.962834792601 ; 1118971.1805283355 ; 213872.8072527633 ; 14042.000000000002
60 ; 28679.577089275022 ; 3624.962834792601 ; 1147422.654792024 ; 217497.7700875559 ; 14280.000000000002
61 ; 28840.777272954532 ; 3624.962834792601 ; 1176102.231881299 ; 221122.73292234848 ; 14518.000000000002
62 ; 28997.56056930882 ; 3624.962834792601 ; 1204943.0091542536 ; 224747.69575714107 ; 14756.000000000002
63 ; 29012.019814530096 ; 3624.962834792601 ; 1233940.5697235626 ; 228372.65859193366 ; 14994.000000000002
64 ; 29241.192830179236 ; 3624.962834792601 ; 1262952.5895380927 ; 231997.62142672625 ; 15232.000000000002
65 ; 29409.187060834207 ; 3624.962834792601 ; 1292193.782368272 ; 235622.58426151884 ; 15470.000000000002
66 ; 29633.588680032586 ; 3624.962834792601 ; 1321602.9694291062 ; 239247.54709631143 ; 15708.000000000002
67 ; 29646.387962116893 ; 3624.962834792601 ; 1351236.5581091389 ; 242872.50993110402 ; 15946.000000000002
68 ; 29820.014032712286 ; 3624.962834792601 ; 1380882.9460712557 ; 246497.47276589661 ; 16184.000000000002
69 ; 29663.915875002258 ; 3624.962834792601 ; 1410702.960103968 ; 250122.4356006892 ; 16422.000000000004
70 ; 29855.770685033982 ; 3624.962834792601 ; 1440366.8759789702 ; 253747.3984354818 ; 16660.000000000004
71 ; 30082.826650782947 ; 3624.962834792601 ; 1470222.646664004 ; 257372.36127027438 ; 16898.000000000004
72 ; 29999.938165572923 ; 3624.962834792601 ; 1500305.473314787 ; 260997.32410506697 ; 17136.000000000004
73 ; 30040.042076273443 ; 3624.962834792601 ; 1530305.41148036 ; 264622.28693985956 ; 17374.000000000004
74 ; 30316.335490506473 ; 3624.962834792601 ; 1560345.4535566333 ; 268247.2497746522 ; 17612.000000000004
75 ; 30285.56271246709 ; 3624.962834792601 ; 1590661.7890471397 ; 271872.2126094448 ; 17850.000000000004
76 ; 30208.256955411936 ; 3624.962834792601 ; 1620947.3517596067 ; 275497.1754442374 ; 18088.000000000004
77 ; 30293.433050837808 ; 3624.962834792601 ; 1651155.6087150187 ; 279122.13827903004 ; 18326.000000000004
78 ; 30428.869496477124 ; 3624.962834792601 ; 1681449.0417658566 ; 282747.10111382266 ; 18564.000000000004
79 ; 30423.818139101866 ; 3624.962834792601 ; 1711877.9112623336 ; 286372.0639486153 ; 18802.000000000004
80 ; 30397.48942816854 ; 3624.962834792601 ; 1742301.7294014355 ; 289997.0267834079 ; 19040.000000000004
81 ; 30588.146207498285 ; 3624.962834792601 ; 1772699.218829604 ; 293621.9896182005 ; 19278.000000000004
82 ; 30616.05974396516 ; 3624.962834792601 ; 1803287.3650371025 ; 297246.95245299314 ; 19516.000000000004
83 ; 30532.264865934005 ; 3624.962834792601 ; 1833903.4247810678 ; 300871.91528778576 ; 19754.000000000004
84 ; 30629.4738767825 ; 3624.962834792601 ; 1864435.6896470017 ; 304496.8781225784 ; 19992.000000000004
85 ; 30349.01432995702 ; 3624.962834792601 ; 1895065.1635237841 ; 308121.840957371 ; 20230.000000000004
86 ; 30681.80807194804 ; 3624.962834792601 ; 1925414.1778537412 ; 311746.8037921636 ; 20468.000000000004
87 ; 30621.90282759487 ; 3624.962834792601 ; 1956095.9859256893 ; 315371.76662695623 ; 20706.000000000004
88 ; 30364.57432696239 ; 3624.962834792601 ; 1986717.8887532842 ; 318996.72946174885 ; 20944.000000000004
89 ; 30380.08517476198 ; 3624.962834792601 ; 2017082.4630802467 ; 322621.69229654147 ; 21182.000000000004
90 ; 30332.752797524576 ; 3624.962834792601 ; 2047462.5482550086 ; 326246.6551313341 ; 21420.000000000004
91 ; 30299.80208545625 ; 3624.962834792601 ; 2077795.3010525333 ; 329871.6179661267 ; 21658.000000000004
92 ; 30152.74281734435 ; 3624.962834792601 ; 2108095.1031379895 ; 333496.5808009193 ; 21896.000000000004
93 ; 30205.588164111592 ; 3624.962834792601 ; 2138247.8459553337 ; 337121.54363571195 ; 22134.000000000004
94 ; 30065.04258889608 ; 3624.962834792601 ; 2168453.4341194453 ; 340746.50647050457 ; 22372.000000000004
95 ; 29951.94974405085 ; 3624.962834792601 ; 2198518.4767083414 ; 344371.4693052972 ; 22610.000000000004
96 ; 29830.15855329721 ; 3624.962834792601 ; 2228470.4264523922 ; 347996.4321400898 ; 22848.000000000004
97 ; 29625.447560969988 ; 3624.962834792601 ; 2258300.5850056894 ; 351621.3949748824 ; 23086.000000000004
98 ; 29564.108311998716 ; 3624.962834792601 ; 2287926.0325666596 ; 355246.35780967504 ; 23324.000000000004
99 ; 29412.58605026336 ; 3624.962834792601 ; 2317490.1408786583 ; 358871.32064446766 ; 23562.000000000004
100 ; 29412.738175670842 ; 3624.962834792601 ; 2346902.7269289214 ; 362496.2834792603 ; 23800.000000000004
101 ; 29173.552502983013 ; 3624.962834792601 ; 2376315.465104592 ; 366121.2463140529 ; 24038.000000000004
102 ; 29020.174086303625 ; 3624.962834792601 ; 2405489.017607575 ; 369746.2091488455 ; 24276.000000000004
103 ; 29018.401510061572 ; 3624.962834792601 ; 2434509.1916938783 ; 373371.17198363814 ; 24514.000000000004
104 ; 28975.47870869036 ; 3624.962834792601 ; 2463527.59320394 ; 376996.13481843076 ; 24752.000000000004
105 ; 28675.528211153804 ; 3624.962834792601 ; 2492503.0719126305 ; 380621.0976532234 ; 24990.000000000004
106 ; 28411.8378115768 ; 3624.962834792601 ; 2521178.600123784 ; 384246.060488016 ; 25228.000000000004
107 ; 28291.298198512486 ; 3624.962834792601 ; 2549590.4379353607 ; 387871.0233228086 ; 25466.000000000004
108 ; 28221.855585888163 ; 3624.962834792601 ; 2577881.736133873 ; 391495.98615760123 ; 25704.000000000004
109 ; 28022.131169284796 ; 3624.962834792601 ; 2606103.591719761 ; 395120.94899239385 ; 25942.000000000004
110 ; 27680.734275682888 ; 3624.962834792601 ; 2634125.7228890457 ; 398745.9118271865 ; 26180.000000000004
111 ; 27500.593277627566 ; 3624.962834792601 ; 2661806.4571647285 ; 402370.8746619791 ; 26418.000000000004
112 ; 27208.853059441575 ; 3624.962834792601 ; 2689307.050442356 ; 405995.8374967717 ; 26656.000000000004
113 ; 27061.6127581358 ; 3624.962834792601 ; 2716515.903501798 ; 409620.8003315643 ; 26894.000000000004
114 ; 26979.07050985606 ; 3624.962834792601 ; 2743577.516259934 ; 413245.76316635695 ; 27132.000000000004
115 ; 26724.56182079282 ; 3624.962834792601 ; 2770556.58676979 ; 416870.72600114957 ; 27370.000000000004
116 ; 26374.152454618277 ; 3624.962834792601 ; 2797281.148590583 ; 420495.6888359422 ; 27608.000000000004
117 ; 26242.46165921092 ; 3624.962834792601 ; 2823655.3010452013 ; 424120.6516707348 ; 27846.000000000004
118 ; 25763.6934852329 ; 3624.962834792601 ; 2849897.762704412 ; 427745.6145055274 ; 28084.000000000004
119 ; 25614.078328043463 ; 3624.962834792601 ; 2875661.456189645 ; 431370.57734032004 ; 28322.000000000004
120 ; 25233.546327615702 ; 3624.962834792601 ; 2901275.5345176887 ; 434995.54017511266 ; 28560.000000000004
121 ; 24981.844583419763 ; 3624.962834792601 ; 2926509.0808453043 ; 438620.5030099053 ; 28798.000000000004
122 ; 24878.314261377458 ; 3624.962834792601 ; 2951490.925428724 ; 442245.4658446979 ; 29036.000000000004
123 ; 24680.822646575587 ; 3624.962834792601 ; 2976369.2396901012 ; 445870.4286794905 ; 29274.000000000004
124 ; 24163.78223443737 ; 3624.962834792601 ; 3001050.0623366768 ; 449495.39151428314 ; 29512.000000000004
125 ; 23849.81816274259 ; 3624.962834792601 ; 3025213.844571114 ; 453120.35434907576 ; 29750.000000000004
126 ; 23663.070457634654 ; 3624.962834792601 ; 3049063.6627338566 ; 456745.3171838684 ; 29988.000000000004
127 ; 23258.066042503917 ; 3624.962834792601 ; 3072726.733191491 ; 460370.280018661 ; 30226.000000000004
128 ; 22909.26962134268 ; 3624.962834792601 ; 3095984.799233995 ; 463995.2428534536 ; 30464.000000000004
129 ; 22607.98145306987 ; 3624.962834792601 ; 3118894.068855338 ; 467620.20568824623 ; 30702.000000000004
130 ; 22278.76057644878 ; 3624.962834792601 ; 3141502.0503084077 ; 471245.16852303885 ; 30940.000000000004
131 ; 21690.946764442404 ; 3624.962834792601 ; 3163780.8108848566 ; 474870.1313578315 ; 31178.000000000004
132 ; 21414.90660171119 ; 3624.962834792601 ; 3185471.757649299 ; 478495.0941926241 ; 31416.000000000004
133 ; 21098.179358145513 ; 3624.962834792601 ; 3206886.6642510104 ; 482120.0570274167 ; 31654.000000000004
134 ; 20758.32872852093 ; 3624.962834792601 ; 3227984.843609156 ; 485745.01986220933 ; 31892.000000000004
135 ; 20231.38191045495 ; 3624.962834792601 ; 3248743.172337677 ; 489369.98269700195 ; 32130.000000000004
136 ; 19958.200526660028 ; 3624.962834792601 ; 3268974.554248132 ; 492994.94553179457 ; 32368.000000000004
137 ; 19434.651081048043 ; 3624.962834792601 ; 3288932.7547747917 ; 496619.9083665872 ; 32606.000000000004
138 ; 19123.64349249147 ; 3624.962834792601 ; 3308367.4058558396 ; 500244.8712013798 ; 32844.00000000001
139 ; 18599.76792669695 ; 3624.962834792601 ; 3327491.049348331 ; 503869.8340361724 ; 33082.00000000001
140 ; 18191.691782917456 ; 3624.962834792601 ; 3346090.817275028 ; 507494.79687096504 ; 33320.00000000001
141 ; 17783.40030192773 ; 3624.962834792601 ; 3364282.5090579456 ; 511119.75970575766 ; 33558.00000000001
142 ; 17429.7689316156 ; 3624.962834792601 ; 3382065.9093598733 ; 514744.7225405503 ; 33796.00000000001
143 ; 16995.675124646175 ; 3624.962834792601 ; 3399495.678291489 ; 518369.6853753429 ; 34034.00000000001
144 ; 16668.37294568799 ; 3624.962834792601 ; 3416491.353416135 ; 521994.6482101355 ; 34272.00000000001
145 ; 16523.676643009974 ; 3624.962834792601 ; 3433159.7263618233 ; 525619.6110449281 ; 34510.00000000001
146 ; 16345.968999958415 ; 3624.962834792601 ; 3449683.403004833 ; 529244.5738797206 ; 34748.00000000001
147 ; 16151.69960639182 ; 3624.962834792601 ; 3466029.3720047916 ; 532869.5367145132 ; 34986.00000000001
148 ; 15903.881519395607 ; 3624.962834792601 ; 3482181.071611183 ; 536494.4995493058 ; 35224.00000000001
149 ; 15998.33248014744 ; 3624.962834792601 ; 3498084.9531305786 ; 540119.4623840983 ; 35462.00000000001
150 ; 15813.075783912813 ; 3624.962834792601 ; 3514083.285610726 ; 543744.4252188909 ; 35700.00000000001
151 ; 15824.2155921946 ; 3624.962834792601 ; 3529896.361394639 ; 547369.3880536834 ; 35938.00000000001
152 ; 15428.404327082522 ; 3624.962834792601 ; 3545720.576986834 ; 550994.350888476 ; 36176.00000000001
153 ; 15356.168590507787 ; 3624.962834792601 ; 3561148.9813139164 ; 554619.3137232686 ; 36414.00000000001
154 ; 15360.431308281268 ; 3624.962834792601 ; 3576505.1499044243 ; 558244.2765580611 ; 36652.00000000001
155 ; 15078.467575194049 ; 3624.962834792601 ; 3591865.5812127055 ; 561869.2393928537 ; 36890.00000000001
156 ; 14973.83339473378 ; 3624.962834792601 ; 3606944.0487878993 ; 565494.2022276463 ; 37128.00000000001
157 ; 14672.108922089965 ; 3624.962834792601 ; 3621917.882182633 ; 569119.1650624388 ; 37366.00000000001
158 ; 14597.874123272493 ; 3624.962834792601 ; 3636589.991104723 ; 572744.1278972314 ; 37604.00000000001
159 ; 14668.804883193665 ; 3624.962834792601 ; 3651187.8652279954 ; 576369.0907320239 ; 37842.00000000001
160 ; 14300.06697906405 ; 3624.962834792601 ; 3665856.670111189 ; 579994.0535668165 ; 38080.00000000001
161 ; 14101.513906687924 ; 3624.962834792601 ; 3680156.7370902533 ; 583619.016401609 ; 38318.00000000001
162 ; 14067.342992063283 ; 3624.962834792601 ; 3694258.2509969412 ; 587243.9792364016 ; 38556.00000000001
163 ; 13786.979754087863 ; 3624.962834792601 ; 3708325.5939890044 ; 590868.9420711942 ; 38794.00000000001
164 ; 13640.633615673069 ; 3624.962834792601 ; 3722112.5737430924 ; 594493.9049059867 ; 39032.00000000001
165 ; 13366.350345935489 ; 3624.962834792601 ; 3735753.2073587654 ; 598118.8677407793 ; 39270.00000000001
166 ; 13163.581432703902 ; 3624.962834792601 ; 3749119.557704701 ; 601743.8305755719 ; 39508.00000000001
167 ; 12908.782694530208 ; 3624.962834792601 ; 3762283.139137405 ; 605368.7934103644 ; 39746.00000000001
168 ; 12798.913203950497 ; 3624.962834792601 ; 3775191.921831935 ; 608993.756245157 ; 39984.00000000001
169 ; 12713.325911919488 ; 3624.962834792601 ; 3787990.8350358857 ; 612618.7190799495 ; 40222.00000000001
170 ; 12518.162854355356 ; 3624.962834792601 ; 3800704.1609478053 ; 616243.6819147421 ; 40460.00000000001
171 ; 12239.680065357288 ; 3624.962834792601 ; 3813222.3238021606 ; 619868.6447495347 ; 40698.00000000001
172 ; 12221.516433100325 ; 3624.962834792601 ; 3825462.0038675177 ; 623493.6075843272 ; 40936.00000000001
173 ; 12037.196155381049 ; 3624.962834792601 ; 3837683.520300618 ; 627118.5704191198 ; 41174.00000000001
174 ; 11816.891646786511 ; 3624.962834792601 ; 3849720.716455999 ; 630743.5332539123 ; 41412.00000000001
175 ; 12011.02711526803 ; 3624.962834792601 ; 3861537.6081027854 ; 634368.4960887049 ; 41650.00000000001
176 ; 12087.952174994454 ; 3624.962834792601 ; 3873548.6352180536 ; 637993.4589234975 ; 41888.00000000001
177 ; 12063.352952799542 ; 3624.962834792601 ; 3885636.587393048 ; 641618.42175829 ; 42126.00000000001
178 ; 12221.38963193042 ; 3624.962834792601 ; 3897699.940345848 ; 645243.3845930826 ; 42364.00000000001
179 ; 12160.631868337374 ; 3624.962834792601 ; 3909921.3299777783 ; 648868.3474278752 ; 42602.00000000001
180 ; 12175.744082415069 ; 3624.962834792601 ; 3922081.9618461155 ; 652493.3102626677 ; 42840.00000000001
181 ; 12303.00514202226 ; 3624.962834792601 ; 3934257.7059285305 ; 656118.2730974603 ; 43078.00000000001
182 ; 12225.13359276427 ; 3624.962834792601 ; 3946560.711070553 ; 659743.2359322528 ; 43316.00000000001
183 ; 12253.673861361574 ; 3624.962834792601 ; 3958785.8446633173 ; 663368.1987670454 ; 43554.00000000001
184 ; 12364.331891037353 ; 3624.962834792601 ; 3971039.518524679 ; 666993.161601838 ; 43792.00000000001
185 ; 12489.352841276297 ; 3624.962834792601 ; 3983403.8504157164 ; 670618.1244366305 ; 44030.00000000001
186 ; 12426.03274020514 ; 3624.962834792601 ; 3995893.2032569926 ; 674243.0872714231 ; 44268.00000000001
