CSV File for the City 3 on Day 225
1 - Minute m 
2 - Power Consumed at minute m 
3 - Power Produced at minute m 
4 - Energy Consumed since the beginning of the day 
5 - Energy Produced since the beginning of the day 
6 - Energy Lost since the beginning of the day on lines starting from the city
 
0 ; 4079.108908970619 ; 20881.375456247915 ; 0.0 ; 0.0 ; 0.0
1 ; 4460.958083806167 ; 19963.558520495873 ; 4079.108908970619 ; 20881.375456247915 ; 0.0
2 ; 4839.014236512293 ; 19104.8149135997 ; 8540.066992776787 ; 40844.93397674379 ; 0.0
3 ; 5115.351257188139 ; 18313.52637070479 ; 13379.08122928908 ; 59949.74889034349 ; 0.0
4 ; 5729.299860698 ; 17598.858183459502 ; 18494.43248647722 ; 78263.27526104829 ; 0.0
5 ; 6136.796530308801 ; 16970.55070109728 ; 24223.73234717522 ; 95862.13344450778 ; 0.0
6 ; 6748.3220914865515 ; 16438.55977329563 ; 30360.528877484023 ; 112832.68414560506 ; 0.0
7 ; 7046.212717424579 ; 16012.530463218964 ; 37108.850968970575 ; 129271.2439189007 ; 0.0
8 ; 7613.248889504337 ; 15701.124073788895 ; 44155.06368639515 ; 145283.77438211965 ; 0.0
9 ; 8024.1909233873175 ; 15511.26995246555 ; 51768.31257589949 ; 160984.89845590855 ; 0.0
10 ; 8513.60419796942 ; 15447.465105365749 ; 59792.5034992868 ; 176496.1684083741 ; 0.0
11 ; 8831.170511857374 ; 15511.26995246555 ; 68306.10769725623 ; 191943.63351373986 ; 0.0
12 ; 9347.056647800877 ; 15701.124073788895 ; 77137.2782091136 ; 207454.9034662054 ; 0.0
13 ; 9502.963641507971 ; 16012.530463218964 ; 86484.33485691447 ; 223156.0275399943 ; 0.0
14 ; 10050.095303660357 ; 16438.55977329536 ; 95987.29849842245 ; 239168.55800321326 ; 0.0
15 ; 10499.721657465683 ; 16970.55070109728 ; 106037.3938020828 ; 255607.11777650862 ; 0.0
16 ; 10890.501824162462 ; 17598.858183459502 ; 116537.11545954848 ; 272577.6684776059 ; 0.0
17 ; 11297.235810446185 ; 18313.52637070455 ; 127427.61728371095 ; 290176.5266610654 ; 0.0
18 ; 11609.37013956083 ; 19104.814913599934 ; 138724.85309415712 ; 308490.05303176993 ; 0.0
19 ; 12065.511202650796 ; 19963.558520495873 ; 150334.22323371796 ; 327594.86794536986 ; 0.0
20 ; 12350.723059956283 ; 20881.375456247915 ; 162399.73443636874 ; 347558.42646586575 ; 0.0
21 ; 12653.59363669648 ; 21850.75775445933 ; 174750.45749632502 ; 368439.80192211363 ; 0.0
22 ; 13056.469910414688 ; 22865.07893531817 ; 187404.0511330215 ; 390290.559676573 ; 0.0
23 ; 13411.22216375121 ; 23918.550284576577 ; 200460.5210434362 ; 413155.63861189113 ; 0.0
24 ; 13856.598779786436 ; 25006.149247270037 ; 213871.7432071874 ; 437074.18889646773 ; 0.0
25 ; 14210.184967001673 ; 26123.53612968849 ; 227728.34198697383 ; 462080.33814373775 ; 0.0
26 ; 14599.506703500565 ; 27266.96932457719 ; 241938.5269539755 ; 488203.87427342625 ; 0.0
27 ; 14830.809565597854 ; 28433.22492760585 ; 256538.03365747607 ; 515470.84359800344 ; 0.0
28 ; 15069.22905118901 ; 29619.5236933726 ; 271368.8432230739 ; 543904.0685256093 ; 0.0
29 ; 15441.433590518196 ; 30823.466445310958 ; 286438.07227426296 ; 573523.5922189819 ; 0.0
30 ; 15789.322851377257 ; 32042.97797838192 ; 301879.50586478115 ; 604347.0586642929 ; 0.0
31 ; 16200.179092205866 ; 33276.25891587182 ; 317668.8287161584 ; 636390.0366426748 ; 0.0
32 ; 16404.62975499863 ; 34521.74471430004 ; 333869.0078083643 ; 669666.2955585467 ; 0.0
33 ; 16633.329529405528 ; 35778.07092660455 ; 350273.6375633629 ; 704188.0402728467 ; 0.0
34 ; 16905.54850810318 ; 37044.043851795264 ; 366906.9670927684 ; 739966.1111994513 ; 0.0
35 ; 17387.383372415512 ; 38318.61576864085 ; 383812.5156008716 ; 777010.1550512465 ; 0.0
36 ; 17532.420801025968 ; 39600.86404173737 ; 401199.8989732871 ; 815328.7708198874 ; 0.0
37 ; 17872.057925975467 ; 40889.97348350067 ; 418732.3197743131 ; 854929.6348616248 ; 0.0
38 ; 17957.21494188075 ; 42185.22144628999 ; 436604.37770028855 ; 895819.6083451255 ; 0.0
39 ; 18364.37739847401 ; 43485.96520076678 ; 454561.5926421693 ; 938004.8297914155 ; 0.0
40 ; 18441.87886977894 ; 44791.63122825497 ; 472925.9700406433 ; 981490.7949921823 ; 0.0
41 ; 18846.06202879981 ; 46101.70611630026 ; 491367.84891042224 ; 1026282.4262204373 ; 0.0
42 ; 19035.13551727661 ; 47415.72879856347 ; 510213.910939222 ; 1072384.1323367376 ; 0.0
43 ; 19361.929630284278 ; 48733.28392370977 ; 529249.0464564987 ; 1119799.861135301 ; 0.0
44 ; 19501.360806528242 ; 50053.996174206724 ; 548610.976086783 ; 1168533.1450590107 ; 0.0
45 ; 19810.17525190639 ; 51377.52538602576 ; 568112.3368933112 ; 1218587.1412332174 ; 0.0
46 ; 19947.621114418027 ; 52703.56234514379 ; 587922.5121452176 ; 1269964.666619243 ; 0.0
47 ; 20157.338366374217 ; 54031.82515733685 ; 607870.1332596357 ; 1322668.228964387 ; 0.0
48 ; 20331.077231381256 ; 55362.05610478644 ; 628027.4716260099 ; 1376700.0541217239 ; 0.0
49 ; 20552.88779513406 ; 56694.01891710514 ; 648358.5488573911 ; 1432062.1102265103 ; 0.0
50 ; 20722.070094516894 ; 58027.4963960515 ; 668911.4366525252 ; 1488756.1291436155 ; 0.0
51 ; 20870.578528618633 ; 59362.2883428714 ; 689633.5067470421 ; 1546783.625539667 ; 0.0
52 ; 21079.415947039855 ; 60698.20974523629 ; 710504.0852756607 ; 1606145.9138825384 ; 0.0
53 ; 21224.67539498176 ; 62035.08918742674 ; 731583.5012227006 ; 1666844.1236277747 ; 0.0
54 ; 21535.77530448203 ; 63372.767452979795 ; 752808.1766176823 ; 1728879.2128152014 ; 0.0
55 ; 21726.82066355541 ; 64711.09629366977 ; 774343.9519221644 ; 1792251.980268181 ; 0.0
56 ; 21767.77685938689 ; 66049.93734258962 ; 796070.7725857198 ; 1856963.0765618507 ; 0.0
57 ; 21924.465473475906 ; 67389.16115236544 ; 817838.5494451068 ; 1923013.0139044404 ; 0.0
58 ; 22025.075942107727 ; 68728.64634228736 ; 839763.0149185826 ; 1990402.1750568058 ; 0.0
59 ; 22287.52183714398 ; 70068.27884045888 ; 861788.0908606903 ; 2059130.8213990931 ; 0.0
60 ; 22275.821908619077 ; 71407.95120902224 ; 884075.6126978343 ; 2129199.100239552 ; 0.0
61 ; 22762.105223214665 ; 72747.56204217784 ; 906351.4346064533 ; 2200607.0514485743 ; 0.0
62 ; 22733.169208508785 ; 74087.01542812497 ; 929113.539829668 ; 2273354.613490752 ; 0.0
63 ; 22723.54239840814 ; 75426.22046724585 ; 951846.7090381768 ; 2347441.628918877 ; 0.0
64 ; 22910.442283258133 ; 76765.09083988117 ; 974570.251436585 ; 2422867.8493861225 ; 0.0
65 ; 23054.727145599507 ; 78103.54441791549 ; 997480.6937198432 ; 2499632.9402260035 ; 0.0
66 ; 23032.68989943841 ; 79441.50291514021 ; 1020535.4208654427 ; 2577736.484643919 ; 0.0
67 ; 22981.97064392014 ; 80778.89157200506 ; 1043568.1107648811 ; 2657177.987559059 ; 0.0
68 ; 23149.844415672524 ; 82115.63887092039 ; 1066550.0814088013 ; 2737956.8791310643 ; 0.0
69 ; 23382.73492915292 ; 83451.67627874979 ; 1089699.9258244738 ; 2820072.518001985 ; 0.0
70 ; 23346.478595145163 ; 84786.93801354425 ; 1113082.6607536268 ; 2903524.1942807348 ; 0.0
71 ; 23355.84723577684 ; 86121.36083292545 ; 1136429.139348772 ; 2988311.132294279 ; 0.0
72 ; 23538.25323915093 ; 87454.88384183435 ; 1159784.9865845488 ; 3074432.4931272045 ; 0.0
73 ; 23568.193956990774 ; 88787.44831763108 ; 1183323.2398236997 ; 3161887.376969039 ; 0.0
74 ; 23555.334473243194 ; 90118.99755076464 ; 1206891.4337806904 ; 3250674.82528667 ; 0.0
75 ; 23548.462268577834 ; 91449.47669943704 ; 1230446.7682539336 ; 3340793.8228374347 ; 0.0
76 ; 23693.91795020104 ; 92778.8326568618 ; 1253995.2305225115 ; 3432243.2995368717 ; 0.0
77 ; 23683.057866493833 ; 94107.01392987672 ; 1277689.1484727126 ; 3525022.1321937335 ; 0.0
78 ; 23809.79446717898 ; 95433.97052780443 ; 1301372.2063392065 ; 3619129.14612361 ; 0.0
79 ; 23794.25605254702 ; 96759.65386057683 ; 1325182.0008063854 ; 3714563.1166514144 ; 0.0
80 ; 23760.407589602 ; 98084.01664524428 ; 1348976.2568589326 ; 3811322.7705119913 ; 0.0
81 ; 23757.256621661494 ; 99407.01282008382 ; 1372736.6644485346 ; 3909406.7871572357 ; 0.0
82 ; 23739.12981053398 ; 100728.59746560414 ; 1396493.9210701962 ; 4008813.7999773193 ; 0.0
83 ; 23897.235376365014 ; 102048.72673181647 ; 1420233.0508807302 ; 4109542.3974429234 ; 0.0
84 ; 23866.433908678937 ; 103367.35777120577 ; 1444130.2862570952 ; 4211591.12417474 ; 0.0
85 ; 23689.36499207743 ; 104684.44867689481 ; 1467996.720165774 ; 4314958.481945946 ; 0.0
86 ; 23846.295450772883 ; 105999.95842554214 ; 1491686.0851578515 ; 4419642.93062284 ; 0.0
87 ; 23803.525110427014 ; 107313.84682456285 ; 1515532.3806086243 ; 4525642.889048383 ; 0.0
88 ; 23769.646857251144 ; 108626.07446329988 ; 1539335.9057190514 ; 4632956.735872946 ; 0.0
89 ; 23757.404867966918 ; 109936.6026678096 ; 1563105.5525763026 ; 4741582.810336245 ; 0.0
90 ; 23598.92201712972 ; 111245.3934589575 ; 1586862.9574442694 ; 4851519.413004055 ; 0.0
91 ; 23766.508030194906 ; 112552.40951354968 ; 1610461.8794613993 ; 4962764.8064630125 ; 0.0
92 ; 23539.355828777207 ; 113857.61412824964 ; 1634228.387491594 ; 5075317.215976562 ; 0.0
93 ; 23417.927893371158 ; 115160.97118605452 ; 1657767.7433203713 ; 5189174.830104812 ; 0.0
94 ; 23436.484088006666 ; 116462.44512512445 ; 1681185.6712137423 ; 5304335.801290867 ; 0.0
95 ; 23506.01594793004 ; 117762.00090977855 ; 1704622.155301749 ; 5420798.246415991 ; 0.0
96 ; 23364.86114386311 ; 119059.60400348665 ; 1728128.171249679 ; 5538560.24732577 ; 0.0
97 ; 23303.792834564745 ; 120355.22034370145 ; 1751493.0323935421 ; 5657619.851329256 ; 0.0
98 ; 23075.65104344924 ; 121648.81631838938 ; 1774796.825228107 ; 5777975.071672957 ; 0.0
99 ; 22981.71443869218 ; 122940.35874413089 ; 1797872.4762715562 ; 5899623.887991346 ; 0.0
100 ; 22926.8884174368 ; 124229.81484567154 ; 1820854.1907102484 ; 6022564.246735477 ; 0.0
101 ; 22662.86161573403 ; 125517.15223681585 ; 1843781.0791276852 ; 6146794.061581149 ; 0.0
102 ; 22645.76866046054 ; 126802.33890256431 ; 1866443.940743419 ; 6272311.213817964 ; 0.0
103 ; 22468.71608602199 ; 128085.34318240292 ; 1889089.7094038797 ; 6399113.552720529 ; 0.0
104 ; 22432.539913526347 ; 129366.13375466182 ; 1911558.4254899018 ; 6527198.895902932 ; 0.0
105 ; 22418.529649845004 ; 130644.67962186606 ; 1933990.965403428 ; 6656565.029657594 ; 0.0
106 ; 22234.477881293114 ; 131920.95009700814 ; 1956409.4950532732 ; 6787209.70927946 ; 0.0
107 ; 22149.539284719394 ; 133194.91479067807 ; 1978643.9729345662 ; 6919130.6593764685 ; 0.0
108 ; 22035.266028745515 ; 134466.54359898984 ; 2000793.5122192856 ; 7052325.574167146 ; 0.0
109 ; 21714.655397207825 ; 135735.8066922511 ; 2022828.7782480312 ; 7186792.117766136 ; 0.0
110 ; 21521.511324909392 ; 137002.67450432363 ; 2044543.433645239 ; 7322527.924458387 ; 0.0
111 ; 21382.40943365107 ; 138267.1177226292 ; 2066064.9449701484 ; 7459530.598962711 ; 0.0
112 ; 21243.06230993528 ; 139529.1072787564 ; 2087447.3544037994 ; 7597797.716685341 ; 0.0
113 ; 21036.092509183138 ; 140788.61433962922 ; 2108690.4167137346 ; 7737326.823964098 ; 0.0
114 ; 20747.16745678571 ; 142045.61029919994 ; 2129726.5092229177 ; 7878115.438303727 ; 0.0
115 ; 20564.150784119807 ; 143300.06677063246 ; 2150473.6766797034 ; 8020161.048602927 ; 0.0
116 ; 20565.87874203344 ; 144551.95557894386 ; 2171037.8274638234 ; 8163461.115373559 ; 0.0
117 ; 20248.162903535027 ; 145801.24875407552 ; 2191603.706205857 ; 8308013.070952503 ; 0.0
118 ; 19992.050550311455 ; 147047.91852436538 ; 2211851.869109392 ; 8453814.319706578 ; 0.0
119 ; 19992.694935408766 ; 148291.9373103973 ; 2231843.9196597035 ; 8600862.238230944 ; 0.0
120 ; 19654.315945319253 ; 149533.27771920306 ; 2251836.6145951124 ; 8749154.175541341 ; 0.0
121 ; 19285.229825713315 ; 150771.91253879527 ; 2271490.9305404318 ; 8898687.453260545 ; 0.0
122 ; 19162.166162168036 ; 152007.8147330114 ; 2290776.160366145 ; 9049459.36579934 ; 0.0
123 ; 18959.092163316865 ; 153240.95743664913 ; 2309938.326528313 ; 9201467.180532351 ; 0.0
124 ; 18764.31103579523 ; 154471.31395087627 ; 2328897.41869163 ; 9354708.137969 ; 0.0
125 ; 18456.84745848985 ; 155698.85773889776 ; 2347661.729727425 ; 9509179.451919876 ; 0.0
126 ; 18187.672914438717 ; 156923.5624218657 ; 2366118.577185915 ; 9664878.309658773 ; 0.0
127 ; 17907.196363695315 ; 158145.40177501683 ; 2384306.2501003537 ; 9821801.872080639 ; 0.0
128 ; 17832.02794217383 ; 159364.349724025 ; 2402213.446464049 ; 9979947.273855656 ; 0.0
129 ; 17378.734617686383 ; 160580.3803415559 ; 2420045.474406223 ; 1.013931162357968E7 ; 0.0
130 ; 17287.179558368513 ; 161793.46784401187 ; 2437424.209023909 ; 1.0299892003921237E7 ; 0.0
131 ; 16835.8059315991 ; 163003.58658845714 ; 2454711.3885822776 ; 1.0461685471765248E7 ; 0.0
132 ; 16752.495348469594 ; 164210.71106971154 ; 2471547.1945138765 ; 1.0624689058353705E7 ; 0.0
133 ; 16369.635512512457 ; 165414.81591760498 ; 2488299.6898623463 ; 1.0788899769423418E7 ; 0.0
134 ; 16010.573513489366 ; 166615.8758943821 ; 2504669.325374859 ; 1.0954314585341023E7 ; 0.0
135 ; 15604.539637034484 ; 167813.86589225012 ; 2520679.898888348 ; 1.1120930461235406E7 ; 0.0
136 ; 15235.182645847099 ; 169008.7609310608 ; 2536284.4385253824 ; 1.1288744327127656E7 ; 0.0
137 ; 15172.606409623098 ; 170200.53615611995 ; 2551519.6211712295 ; 1.1457753088058718E7 ; 0.0
138 ; 14710.92413065474 ; 171389.16683611748 ; 2566692.227580853 ; 1.1627953624214837E7 ; 0.0
139 ; 14288.330156663607 ; 172574.6283611709 ; 2581403.1517115077 ; 1.1799342791050956E7 ; 0.0
140 ; 14047.402762448492 ; 173756.8962409769 ; 2595691.481868171 ; 1.1971917419412127E7 ; 0.0
141 ; 13727.366807810033 ; 174935.94610306475 ; 2609738.8846306195 ; 1.2145674315653104E7 ; 0.0
142 ; 13358.44923001856 ; 176111.7536911465 ; 2623466.2514384296 ; 1.2320610261756169E7 ; 0.0
143 ; 13080.075863041082 ; 177284.29486355843 ; 2636824.700668448 ; 1.2496722015447315E7 ; 0.0
144 ; 12639.796671453863 ; 178453.54559178953 ; 2649904.776531489 ; 1.2674006310310874E7 ; 0.0
145 ; 12435.740455521984 ; 179619.4819590919 ; 2662544.573202943 ; 1.2852459855902664E7 ; 0.0
146 ; 12529.727183329513 ; 180782.08015916953 ; 2674980.313658465 ; 1.3032079337861756E7 ; 0.0
147 ; 12353.030297767009 ; 181941.3164949405 ; 2687510.0408417946 ; 1.3212861418020925E7 ; 0.0
148 ; 12145.6731634662 ; 183097.16737737006 ; 2699863.0711395615 ; 1.3394802734515864E7 ; 0.0
149 ; 12183.908167149842 ; 184249.6093243699 ; 2712008.7443030276 ; 1.3577899901893234E7 ; 0.0
150 ; 11984.868808174682 ; 185398.61895976073 ; 2724192.6524701775 ; 1.3762149511217603E7 ; 0.0
151 ; 11883.416686727003 ; 186544.17301229513 ; 2736177.521278352 ; 1.3947548130177364E7 ; 0.0
152 ; 11837.088559118405 ; 187686.2483147377 ; 2748060.937965079 ; 1.413409230318966E7 ; 0.0
153 ; 11673.216955076738 ; 188824.82180299886 ; 2759898.026524198 ; 1.4321778551504398E7 ; 0.0
154 ; 11472.30836835799 ; 189959.87051532103 ; 2771571.2434792747 ; 1.4510603373307396E7 ; 0.0
155 ; 11451.944340217542 ; 191091.37159151334 ; 2783043.5518476325 ; 1.4700563243822716E7 ; 0.0
156 ; 11103.972660932242 ; 192219.3022722334 ; 2794495.49618785 ; 1.489165461541423E7 ; 0.0
157 ; 11254.23151672056 ; 193343.63989831312 ; 2805599.468848782 ; 1.5083873917686464E7 ; 0.0
158 ; 11280.666135191745 ; 194464.36191012705 ; 2816853.700365503 ; 1.5277217557584777E7 ; 0.0
159 ; 10859.904322464463 ; 195581.44584700104 ; 2828134.366500695 ; 1.5471681919494905E7 ; 0.0
160 ; 10784.408774698055 ; 196694.86934665905 ; 2838994.2708231593 ; 1.5667263365341906E7 ; 0.0
161 ; 10810.051369868794 ; 197804.6101447063 ; 2849778.6795978574 ; 1.5863958234688565E7 ; 0.0
162 ; 10608.117976984722 ; 198910.6460741476 ; 2860588.730967726 ; 1.6061762844833272E7 ; 0.0
163 ; 10555.2464001134 ; 200012.9550649385 ; 2871196.848944711 ; 1.626067349090742E7 ; 0.0
164 ; 10308.171922977612 ; 201111.515143568 ; 2881752.0953448243 ; 1.6460686445972359E7 ; 0.0
165 ; 10080.48238936054 ; 202206.3044326713 ; 2892060.267267802 ; 1.6661797961115927E7 ; 0.0
166 ; 10094.22416709511 ; 203297.30115067185 ; 2902140.7496571625 ; 1.6864004265548598E7 ; 0.0
167 ; 10007.776074325013 ; 204384.48361144945 ; 2912234.9738242575 ; 1.706730156669927E7 ; 0.0
168 ; 9686.216492967877 ; 205467.8302240359 ; 2922242.7498985827 ; 1.727168605031072E7 ; 0.0
169 ; 9554.687317670134 ; 206547.31949233427 ; 2931928.9663915504 ; 1.7477153880534757E7 ; 0.0
170 ; 9588.143491345283 ; 207622.93001486282 ; 2941483.6537092207 ; 1.768370120002709E7 ; 0.0
171 ; 9297.209936048312 ; 208694.64048452105 ; 2951071.797200566 ; 1.7891324130041953E7 ; 0.0
172 ; 9234.460427642582 ; 209762.42968837733 ; 2960369.0071366145 ; 1.8100018770526472E7 ; 0.0
173 ; 9073.005972275434 ; 210826.27650747754 ; 2969603.4675642573 ; 1.830978120021485E7 ; 0.0
174 ; 9128.294085549767 ; 211886.15991667294 ; 2978676.473536533 ; 1.852060747672233E7 ; 0.0
175 ; 9076.64329283419 ; 212942.05898446715 ; 2987804.7676220825 ; 1.8732493636639003E7 ; 0.0
176 ; 9254.562063312922 ; 213993.9528728807 ; 2996881.4109149165 ; 1.894543569562347E7 ; 0.0
177 ; 9269.801110907965 ; 215041.82083733307 ; 3006135.9729782296 ; 1.915942964849635E7 ; 0.0
178 ; 9050.723101975607 ; 216085.64222654083 ; 3015405.7740891376 ; 1.9374471469333682E7 ; 0.0
179 ; 9220.16281811312 ; 217125.39648243156 ; 3024456.497191113 ; 1.959055711156022E7 ; 0.0
180 ; 9123.880445253835 ; 218161.06314007242 ; 3033676.6600092263 ; 1.9807682508042652E7 ; 0.0
181 ; 9449.96506665114 ; 219192.62182761307 ; 3042800.5404544803 ; 2.0025843571182724E7 ; 0.0
182 ; 9187.257823675856 ; 220220.0522662423 ; 3052250.5055211317 ; 2.0245036193010338E7 ; 0.0
183 ; 9414.780699701716 ; 221243.3342701576 ; 3061437.7633448076 ; 2.046525624527658E7 ; 0.0
184 ; 9531.91760079184 ; 222262.4477465466 ; 3070852.544044509 ; 2.068649957954674E7 ; 0.0
185 ; 9691.076521387458 ; 223277.37269558132 ; 3080384.461645301 ; 2.0908762027293283E7 ; 0.0
186 ; 9364.125764481683 ; 224288.0892104229 ; 3090075.5381666883 ; 2.1132039399988864E7 ; 0.0
187 ; 9340.453107133366 ; 225294.5774772373 ; 3099439.66393117 ; 2.135632748919929E7 ; 0.0
188 ; 9407.619773163971 ; 226296.8177752215 ; 3108780.1170383035 ; 2.1581622066676527E7 ; 0.0
189 ; 9420.667183066162 ; 227294.79047663946 ; 3118187.7368114674 ; 2.1807918884451747E7 ; 0.0
190 ; 9513.04484828296 ; 228288.47604686735 ; 3127608.4039945337 ; 2.2035213674928386E7 ; 0.0
191 ; 9578.409350919837 ; 229277.8550444478 ; 3137121.4488428165 ; 2.2263502150975253E7 ; 0.0
192 ; 9725.799733776334 ; 230262.90812115278 ; 3146699.8581937365 ; 2.24927800060197E7 ; 0.0
193 ; 9703.769826325697 ; 231243.61602205448 ; 3156425.6579275127 ; 2.2723042914140854E7 ; 0.0
194 ; 9841.038352068495 ; 232219.95958560408 ; 3166129.4277538382 ; 2.2954286530162908E7 ; 0.0
195 ; 9708.986353450096 ; 233191.91974371817 ; 3175970.4661059068 ; 2.318650648974851E7 ; 0.0
196 ; 9903.399594881948 ; 234159.47752187157 ; 3185679.4524593567 ; 2.341969840949223E7 ; 0.0
197 ; 9728.029295551529 ; 235122.61403919777 ; 3195582.852054239 ; 2.36538578870141E7 ; 0.0
198 ; 9700.689318601879 ; 236081.31050859517 ; 3205310.8813497904 ; 2.3888980501053296E7 ; 0.0
199 ; 9675.950814651931 ; 237035.5482368399 ; 3215011.5706683923 ; 2.412506181156189E7 ; 0.0
200 ; 9773.219798189739 ; 237985.30862470396 ; 3224687.521483044 ; 2.436209735979873E7 ; 0.0
201 ; 9844.584737414438 ; 238930.57316707954 ; 3234460.7412812337 ; 2.4600082668423433E7 ; 0.0
202 ; 9917.047618461691 ; 239871.32345310814 ; 3244305.326018648 ; 2.483901324159051E7 ; 0.0
203 ; 10062.376282522151 ; 240807.54116631523 ; 3254222.37363711 ; 2.507888456504362E7 ; 0.0
204 ; 9952.097381972151 ; 241739.20808474897 ; 3264284.749919632 ; 2.5319692106209937E7 ; 0.0
205 ; 10035.936573798412 ; 242666.30608112435 ; 3274236.847301604 ; 2.5561431314294685E7 ; 0.0
206 ; 10010.19706055601 ; 243588.81712297126 ; 3284272.7838754025 ; 2.580409762037581E7 ; 0.0
207 ; 10007.73076103707 ; 244506.7232727862 ; 3294282.9809359587 ; 2.6047686437498778E7 ; 0.0
208 ; 9920.659682822772 ; 245420.00668818917 ; 3304290.711696996 ; 2.6292193160771564E7 ; 0.0
209 ; 10098.426009872788 ; 246328.64962208262 ; 3314211.371379819 ; 2.6537613167459752E7 ; 0.0
210 ; 10155.460872878191 ; 247232.63442281564 ; 3324309.7973896917 ; 2.6783941817081835E7 ; 0.0
211 ; 10205.128125201392 ; 248131.94353434996 ; 3334465.25826257 ; 2.703117445150465E7 ; 0.0
212 ; 10134.091724255339 ; 249026.55949643004 ; 3344670.3863877715 ; 2.7279306395039E7 ; 0.0
213 ; 10108.581918854408 ; 249916.46494475583 ; 3354804.4781120266 ; 2.752833295453543E7 ; 0.0
