CSV File for the City 2 on Day 109
1 - Minute m 
2 - Power Consumed at minute m 
3 - Power Produced at minute m 
4 - Energy Consumed since the beginning of the day 
5 - Energy Produced since the beginning of the day 
6 - Energy Lost since the beginning of the day on lines starting from the city
 
0 ; 9694.333410668252 ; 25510.551009965184 ; 0.0 ; 0.0 ; 0.0
1 ; 9990.07973102863 ; 25510.551009965184 ; 9694.333410668252 ; 25510.551009965184 ; 0.0
2 ; 10272.015290198822 ; 25510.551009965184 ; 19684.41314169688 ; 51021.10201993037 ; 0.0
3 ; 10730.415665719585 ; 25510.551009965184 ; 29956.428431895703 ; 76531.65302989555 ; 0.0
4 ; 10863.752161193222 ; 25510.551009965184 ; 40686.84409761529 ; 102042.20403986074 ; 0.0
5 ; 11086.790328200832 ; 25510.551009965184 ; 51550.59625880852 ; 127552.75504982592 ; 0.0
6 ; 11467.719707886907 ; 25510.551009965184 ; 62637.38658700935 ; 153063.3060597911 ; 0.0
7 ; 11855.913551889607 ; 25510.551009965184 ; 74105.10629489625 ; 178573.85706975628 ; 0.0
8 ; 11920.583875514842 ; 25510.551009965184 ; 85961.01984678586 ; 204084.40807972147 ; 0.0
9 ; 12169.921600324054 ; 25510.551009965184 ; 97881.6037223007 ; 229594.95908968666 ; 0.0
10 ; 12467.417967390384 ; 25510.551009965184 ; 110051.52532262476 ; 255105.51009965184 ; 0.0
11 ; 12778.092023329065 ; 25510.551009965184 ; 122518.94329001514 ; 280616.061109617 ; 0.0
12 ; 13053.434539660419 ; 25510.551009965184 ; 135297.0353133442 ; 306126.6121195822 ; 0.0
13 ; 13322.946842884412 ; 25510.551009965184 ; 148350.46985300462 ; 331637.1631295474 ; 0.0
14 ; 13574.01719185922 ; 25510.551009965184 ; 161673.41669588903 ; 357147.71413951257 ; 0.0
15 ; 13837.23437122053 ; 25510.551009965184 ; 175247.43388774825 ; 382658.26514947775 ; 0.0
16 ; 13998.493828428318 ; 25510.551009965184 ; 189084.66825896877 ; 408168.81615944294 ; 0.0
17 ; 14212.2010906051 ; 25510.551009965184 ; 203083.1620873971 ; 433679.3671694081 ; 0.0
18 ; 14483.61452826292 ; 25510.551009965184 ; 217295.36317800218 ; 459189.9181793733 ; 0.0
19 ; 14806.891671881445 ; 25510.551009965184 ; 231778.9777062651 ; 484700.4691893385 ; 0.0
20 ; 14915.712331724053 ; 25510.551009965184 ; 246585.86937814657 ; 510211.0201993037 ; 0.0
21 ; 15200.963418339807 ; 25510.551009965184 ; 261501.58170987063 ; 535721.5712092689 ; 0.0
22 ; 15334.57185473286 ; 25510.551009965184 ; 276702.54512821045 ; 561232.122219234 ; 0.0
23 ; 15776.168911003393 ; 25510.551009965184 ; 292037.1169829433 ; 586742.6732291991 ; 0.0
24 ; 15990.006743955262 ; 25510.551009965184 ; 307813.2858939467 ; 612253.2242391643 ; 0.0
25 ; 16144.481693541315 ; 25510.551009965184 ; 323803.29263790196 ; 637763.7752491294 ; 0.0
26 ; 16348.058795318077 ; 25510.551009965184 ; 339947.7743314433 ; 663274.3262590945 ; 0.0
27 ; 16487.710030789916 ; 25510.551009965184 ; 356295.83312676137 ; 688784.8772690597 ; 0.0
28 ; 16669.80730419418 ; 25510.551009965184 ; 372783.54315755126 ; 714295.4282790248 ; 0.0
29 ; 16853.033874049775 ; 25510.551009965184 ; 389453.35046174546 ; 739805.9792889899 ; 0.0
30 ; 17135.492369295676 ; 25510.551009965184 ; 406306.38433579524 ; 765316.530298955 ; 0.0
31 ; 17425.162495203647 ; 25510.551009965184 ; 423441.8767050909 ; 790827.0813089202 ; 0.0
32 ; 17489.453790203705 ; 25510.551009965184 ; 440867.0392002946 ; 816337.6323188853 ; 0.0
33 ; 17728.041079974155 ; 25510.551009965184 ; 458356.4929904983 ; 841848.1833288504 ; 0.0
34 ; 17681.562489918404 ; 25510.551009965184 ; 476084.53407047247 ; 867358.7343388156 ; 0.0
35 ; 18040.794268754715 ; 25510.551009965184 ; 493766.0965603909 ; 892869.2853487807 ; 0.0
36 ; 17951.12631165548 ; 25510.551009965184 ; 511806.8908291456 ; 918379.8363587458 ; 0.0
37 ; 18270.886829212912 ; 25510.551009965184 ; 529758.0171408011 ; 943890.387368711 ; 0.0
38 ; 18489.462752336833 ; 25510.551009965184 ; 548028.903970014 ; 969400.9383786761 ; 0.0
39 ; 18677.085515226194 ; 25510.551009965184 ; 566518.3667223508 ; 994911.4893886412 ; 0.0
40 ; 18879.266393996204 ; 25510.551009965184 ; 585195.4522375771 ; 1020422.0403986063 ; 0.0
41 ; 19030.45549184761 ; 25510.551009965184 ; 604074.7186315733 ; 1045932.5914085715 ; 0.0
42 ; 19102.543060904918 ; 25510.551009965184 ; 623105.1741234208 ; 1071443.1424185366 ; 0.0
43 ; 19149.928110875946 ; 25510.551009965184 ; 642207.7171843258 ; 1096953.6934285017 ; 0.0
44 ; 19310.795924915397 ; 25510.551009965184 ; 661357.6452952018 ; 1122464.2444384668 ; 0.0
45 ; 19415.91464832669 ; 25510.551009965184 ; 680668.4412201172 ; 1147974.795448432 ; 0.0
46 ; 19698.901234782254 ; 25510.551009965184 ; 700084.3558684438 ; 1173485.346458397 ; 0.0
47 ; 19720.557613580382 ; 25510.551009965184 ; 719783.2571032261 ; 1198995.8974683622 ; 0.0
48 ; 19791.725143056992 ; 25510.551009965184 ; 739503.8147168065 ; 1224506.4484783274 ; 0.0
49 ; 19882.370047425356 ; 25510.551009965184 ; 759295.5398598635 ; 1250016.9994882925 ; 0.0
50 ; 20161.1005598381 ; 25510.551009965184 ; 779177.9099072888 ; 1275527.5504982576 ; 0.0
51 ; 20209.308396321143 ; 25510.551009965184 ; 799339.010467127 ; 1301038.1015082228 ; 0.0
52 ; 20476.90145043406 ; 25510.551009965184 ; 819548.3188634481 ; 1326548.6525181879 ; 0.0
53 ; 20410.61804377808 ; 25510.551009965184 ; 840025.2203138822 ; 1352059.203528153 ; 0.0
54 ; 20353.928257358777 ; 25510.551009965184 ; 860435.8383576603 ; 1377569.7545381181 ; 0.0
55 ; 20526.29647641594 ; 25510.551009965184 ; 880789.7666150191 ; 1403080.3055480833 ; 0.0
56 ; 20542.880106082706 ; 25510.551009965184 ; 901316.063091435 ; 1428590.8565580484 ; 0.0
57 ; 20851.115942833516 ; 25510.551009965184 ; 921858.9431975177 ; 1454101.4075680135 ; 0.0
58 ; 20641.1972652438 ; 25510.551009965184 ; 942710.0591403511 ; 1479611.9585779787 ; 0.0
59 ; 20962.836036520377 ; 25510.551009965184 ; 963351.256405595 ; 1505122.5095879438 ; 0.0
60 ; 21090.435659041796 ; 25510.551009965184 ; 984314.0924421154 ; 1530633.060597909 ; 0.0
61 ; 21044.167505414098 ; 25510.551009965184 ; 1005404.5281011572 ; 1556143.611607874 ; 0.0
62 ; 21113.478493394658 ; 25510.551009965184 ; 1026448.6956065713 ; 1581654.1626178392 ; 0.0
63 ; 21346.617473294988 ; 25510.551009965184 ; 1047562.174099966 ; 1607164.7136278043 ; 0.0
64 ; 21222.340172274457 ; 25510.551009965184 ; 1068908.791573261 ; 1632675.2646377694 ; 0.0
65 ; 21390.563988548183 ; 25510.551009965184 ; 1090131.1317455354 ; 1658185.8156477346 ; 0.0
66 ; 21454.306021437227 ; 25510.551009965184 ; 1111521.6957340837 ; 1683696.3666576997 ; 0.0
67 ; 21483.97403088472 ; 25510.551009965184 ; 1132976.001755521 ; 1709206.9176676648 ; 0.0
68 ; 21410.595341610413 ; 25510.551009965184 ; 1154459.9757864056 ; 1734717.46867763 ; 0.0
69 ; 21529.98041649171 ; 25510.551009965184 ; 1175870.571128016 ; 1760228.019687595 ; 0.0
70 ; 21757.740573108957 ; 25510.551009965184 ; 1197400.5515445077 ; 1785738.5706975602 ; 0.0
71 ; 21888.143708085463 ; 25510.551009965184 ; 1219158.2921176166 ; 1811249.1217075253 ; 0.0
72 ; 21854.734944809516 ; 25510.551009965184 ; 1241046.435825702 ; 1836759.6727174905 ; 0.0
73 ; 21866.40691909087 ; 25510.551009965184 ; 1262901.1707705115 ; 1862270.2237274556 ; 0.0
74 ; 21950.195124447215 ; 25510.551009965184 ; 1284767.5776896023 ; 1887780.7747374207 ; 0.0
75 ; 21875.952720862817 ; 25510.551009965184 ; 1306717.7728140494 ; 1913291.3257473859 ; 0.0
76 ; 21732.482585429447 ; 25510.551009965184 ; 1328593.7255349122 ; 1938801.876757351 ; 0.0
77 ; 21843.53180939805 ; 25510.551009965184 ; 1350326.2081203416 ; 1964312.427767316 ; 0.0
78 ; 21754.782111019253 ; 25510.551009965184 ; 1372169.7399297396 ; 1989822.9787772812 ; 0.0
79 ; 21678.171292501072 ; 25510.551009965184 ; 1393924.522040759 ; 2015333.5297872464 ; 0.0
80 ; 21795.59255348761 ; 25510.551009965184 ; 1415602.69333326 ; 2040844.0807972115 ; 0.0
81 ; 21990.004855997828 ; 25510.551009965184 ; 1437398.2858867475 ; 2066354.6318071766 ; 0.0
82 ; 22023.172322270588 ; 25510.551009965184 ; 1459388.2907427454 ; 2091865.1828171418 ; 0.0
83 ; 21750.991836935158 ; 25510.551009965184 ; 1481411.463065016 ; 2117375.733827107 ; 0.0
84 ; 21996.11983133982 ; 25510.551009965184 ; 1503162.4549019511 ; 2142886.2848370722 ; 0.0
85 ; 21894.39625926474 ; 25510.551009965184 ; 1525158.574733291 ; 2168396.8358470374 ; 0.0
86 ; 21815.061262952753 ; 25510.551009965184 ; 1547052.9709925558 ; 2193907.3868570025 ; 0.0
87 ; 21742.154086751056 ; 25510.551009965184 ; 1568868.0322555087 ; 2219417.9378669676 ; 0.0
88 ; 21698.658567376806 ; 25510.551009965184 ; 1590610.1863422599 ; 2244928.4888769328 ; 0.0
89 ; 21538.428748005474 ; 25510.551009965184 ; 1612308.8449096368 ; 2270439.039886898 ; 0.0
90 ; 21727.31945972398 ; 25510.551009965184 ; 1633847.2736576423 ; 2295949.590896863 ; 0.0
91 ; 21641.69118902196 ; 25510.551009965184 ; 1655574.5931173663 ; 2321460.141906828 ; 0.0
92 ; 21379.75641425579 ; 25510.551009965184 ; 1677216.2843063883 ; 2346970.6929167933 ; 0.0
93 ; 21630.69700828795 ; 25510.551009965184 ; 1698596.0407206442 ; 2372481.2439267584 ; 0.0
94 ; 21514.258939609426 ; 25510.551009965184 ; 1720226.7377289322 ; 2397991.7949367235 ; 0.0
95 ; 21627.595193350153 ; 25510.551009965184 ; 1741740.9966685416 ; 2423502.3459466887 ; 0.0
96 ; 21377.25546721829 ; 25510.551009965184 ; 1763368.5918618918 ; 2449012.896956654 ; 0.0
97 ; 21350.600984564677 ; 25510.551009965184 ; 1784745.8473291101 ; 2474523.447966619 ; 0.0
98 ; 21187.67862567375 ; 25510.551009965184 ; 1806096.448313675 ; 2500033.998976584 ; 0.0
99 ; 21240.899845393986 ; 25510.551009965184 ; 1827284.1269393486 ; 2525544.549986549 ; 0.0
100 ; 21006.228459631235 ; 25510.551009965184 ; 1848525.0267847427 ; 2551055.1009965143 ; 0.0
101 ; 21137.606005325215 ; 25510.551009965184 ; 1869531.255244374 ; 2576565.6520064794 ; 0.0
102 ; 21186.45738832929 ; 25510.551009965184 ; 1890668.8612496993 ; 2602076.2030164446 ; 0.0
103 ; 20896.752942118484 ; 25510.551009965184 ; 1911855.3186380286 ; 2627586.7540264097 ; 0.0
104 ; 20962.97251188274 ; 25510.551009965184 ; 1932752.0715801471 ; 2653097.305036375 ; 0.0
105 ; 20758.20504780771 ; 25510.551009965184 ; 1953715.0440920298 ; 2678607.85604634 ; 0.0
106 ; 20752.943707733182 ; 25510.551009965184 ; 1974473.2491398375 ; 2704118.407056305 ; 0.0
107 ; 20528.999940787533 ; 25510.551009965184 ; 1995226.1928475706 ; 2729628.95806627 ; 0.0
108 ; 20381.690149145328 ; 25510.551009965184 ; 2015755.192788358 ; 2755139.5090762354 ; 0.0
109 ; 20492.594966348828 ; 25510.551009965184 ; 2036136.8829375035 ; 2780650.0600862005 ; 0.0
110 ; 20243.746850799147 ; 25510.551009965184 ; 2056629.4779038522 ; 2806160.6110961656 ; 0.0
111 ; 20014.6248060714 ; 25510.551009965184 ; 2076873.2247546513 ; 2831671.1621061307 ; 0.0
112 ; 19935.031016654106 ; 25510.551009965184 ; 2096887.8495607227 ; 2857181.713116096 ; 0.0
113 ; 19845.09049364196 ; 25510.551009965184 ; 2116822.880577377 ; 2882692.264126061 ; 0.0
114 ; 19695.264796596748 ; 25510.551009965184 ; 2136667.971071019 ; 2908202.815136026 ; 0.0
115 ; 19721.093293935126 ; 25510.551009965184 ; 2156363.235867616 ; 2933713.3661459913 ; 0.0
116 ; 19656.585345153726 ; 25510.551009965184 ; 2176084.329161551 ; 2959223.9171559564 ; 0.0
117 ; 19386.186494925274 ; 25510.551009965184 ; 2195740.9145067045 ; 2984734.4681659215 ; 0.0
118 ; 19259.889585540768 ; 25510.551009965184 ; 2215127.1010016296 ; 3010245.0191758866 ; 0.0
119 ; 19037.21818019429 ; 25510.551009965184 ; 2234386.9905871702 ; 3035755.570185852 ; 0.0
120 ; 19052.713174370325 ; 25510.551009965184 ; 2253424.2087673647 ; 3061266.121195817 ; 0.0
121 ; 19057.33694447454 ; 25510.551009965184 ; 2272476.921941735 ; 3086776.672205782 ; 0.0
122 ; 18689.12129800541 ; 25510.551009965184 ; 2291534.258886209 ; 3112287.223215747 ; 0.0
123 ; 18533.614979620044 ; 25510.551009965184 ; 2310223.3801842146 ; 3137797.7742257123 ; 0.0
124 ; 18381.9624894368 ; 25510.551009965184 ; 2328756.9951638347 ; 3163308.3252356774 ; 0.0
125 ; 18248.984715156395 ; 25510.551009965184 ; 2347138.9576532715 ; 3188818.8762456425 ; 0.0
126 ; 18011.697527906195 ; 25510.551009965184 ; 2365387.9423684278 ; 3214329.4272556077 ; 0.0
127 ; 17945.10920435406 ; 25510.551009965184 ; 2383399.639896334 ; 3239839.978265573 ; 0.0
128 ; 17706.77450142383 ; 25510.551009965184 ; 2401344.7491006884 ; 3265350.529275538 ; 0.0
129 ; 17466.48683590309 ; 25510.551009965184 ; 2419051.523602112 ; 3290861.080285503 ; 0.0
130 ; 17293.634902944235 ; 25510.551009965184 ; 2436518.010438015 ; 3316371.631295468 ; 0.0
131 ; 17123.908415656635 ; 25510.551009965184 ; 2453811.6453409595 ; 3341882.1823054333 ; 0.0
132 ; 16856.134037740936 ; 25510.551009965184 ; 2470935.553756616 ; 3367392.7333153985 ; 0.0
133 ; 16740.268113920883 ; 25510.551009965184 ; 2487791.687794357 ; 3392903.2843253636 ; 0.0
134 ; 16675.279827277307 ; 25510.551009965184 ; 2504531.955908278 ; 3418413.8353353287 ; 0.0
135 ; 16300.040351653775 ; 25510.551009965184 ; 2521207.235735555 ; 3443924.386345294 ; 0.0
136 ; 16112.664489550378 ; 25510.551009965184 ; 2537507.276087209 ; 3469434.937355259 ; 0.0
137 ; 15986.045492677242 ; 25510.551009965184 ; 2553619.9405767596 ; 3494945.488365224 ; 0.0
138 ; 15839.809934511417 ; 25510.551009965184 ; 2569605.9860694367 ; 3520456.039375189 ; 0.0
139 ; 15504.279242611725 ; 25510.551009965184 ; 2585445.796003948 ; 3545966.5903851544 ; 0.0
140 ; 15292.791666189009 ; 25510.551009965184 ; 2600950.07524656 ; 3571477.1413951195 ; 0.0
141 ; 15111.403607764483 ; 25510.551009965184 ; 2616242.866912749 ; 3596987.6924050846 ; 0.0
142 ; 14820.78953045615 ; 25510.551009965184 ; 2631354.2705205134 ; 3622498.2434150497 ; 0.0
143 ; 14660.891698779127 ; 25510.551009965184 ; 2646175.0600509695 ; 3648008.794425015 ; 0.0
144 ; 14374.656257036997 ; 25510.551009965184 ; 2660835.9517497486 ; 3673519.34543498 ; 0.0
145 ; 14304.586244073631 ; 25510.551009965184 ; 2675210.6080067856 ; 3699029.896444945 ; 0.0
146 ; 14143.739813988617 ; 25510.551009965184 ; 2689515.1942508593 ; 3724540.4474549103 ; 0.0
147 ; 14093.916964838154 ; 25510.551009965184 ; 2703658.934064848 ; 3750050.9984648754 ; 0.0
148 ; 14046.762311654455 ; 25510.551009965184 ; 2717752.851029686 ; 3775561.5494748405 ; 0.0
149 ; 14074.969697548951 ; 25510.551009965184 ; 2731799.613341341 ; 3801072.1004848056 ; 0.0
150 ; 14239.052517781909 ; 25510.551009965184 ; 2745874.58303889 ; 3826582.651494771 ; 0.0
151 ; 13824.342009930857 ; 25510.551009965184 ; 2760113.635556672 ; 3852093.202504736 ; 0.0
152 ; 13783.863823628655 ; 25510.551009965184 ; 2773937.9775666026 ; 3877603.753514701 ; 0.0
153 ; 13683.371922058317 ; 25510.551009965184 ; 2787721.841390231 ; 3903114.304524666 ; 0.0
154 ; 13619.016954860148 ; 25510.551009965184 ; 2801405.2133122897 ; 3928624.8555346313 ; 0.0
155 ; 13581.613401564913 ; 25510.551009965184 ; 2815024.23026715 ; 3954135.4065445964 ; 0.0
156 ; 13404.049555351598 ; 25510.551009965184 ; 2828605.8436687146 ; 3979645.9575545616 ; 0.0
157 ; 13264.473590290858 ; 25510.551009965184 ; 2842009.893224066 ; 4005156.5085645267 ; 0.0
158 ; 13210.03566872022 ; 25510.551009965184 ; 2855274.3668143568 ; 4030667.059574492 ; 0.0
159 ; 13243.947764690876 ; 25510.551009965184 ; 2868484.402483077 ; 4056177.610584457 ; 0.0
160 ; 13234.244111441167 ; 25510.551009965184 ; 2881728.3502477678 ; 4081688.161594422 ; 0.0
161 ; 13055.405050956397 ; 25510.551009965184 ; 2894962.594359209 ; 4107198.712604387 ; 0.0
162 ; 13015.381367925536 ; 25510.551009965184 ; 2908017.999410165 ; 4132709.2636143523 ; 0.0
163 ; 13034.097801276484 ; 25510.551009965184 ; 2921033.3807780906 ; 4158219.8146243175 ; 0.0
164 ; 12790.961153056673 ; 25510.551009965184 ; 2934067.478579367 ; 4183730.3656342826 ; 0.0
165 ; 12625.33757195882 ; 25510.551009965184 ; 2946858.4397324235 ; 4209240.916644248 ; 0.0
166 ; 12545.561787031602 ; 25510.551009965184 ; 2959483.7773043825 ; 4234751.467654213 ; 0.0
167 ; 12488.43155436393 ; 25510.551009965184 ; 2972029.339091414 ; 4260262.018664178 ; 0.0
168 ; 12237.402594582878 ; 25510.551009965184 ; 2984517.770645778 ; 4285772.569674144 ; 0.0
169 ; 12111.231305052046 ; 25510.551009965184 ; 2996755.1732403613 ; 4311283.120684109 ; 0.0
170 ; 12018.527845234275 ; 25510.551009965184 ; 3008866.4045454133 ; 4336793.671694074 ; 0.0
171 ; 12090.036216373386 ; 25510.551009965184 ; 3020884.9323906475 ; 4362304.222704039 ; 0.0
172 ; 11848.120984925139 ; 25510.551009965184 ; 3032974.968607021 ; 4387814.773714004 ; 0.0
173 ; 11987.066119406823 ; 25510.551009965184 ; 3044823.089591946 ; 4413325.324723969 ; 0.0
174 ; 11823.70955794139 ; 25510.551009965184 ; 3056810.155711353 ; 4438835.875733934 ; 0.0
175 ; 11585.732381744067 ; 25510.551009965184 ; 3068633.865269294 ; 4464346.4267438995 ; 0.0
176 ; 11831.509847561698 ; 25510.551009965184 ; 3080219.597651038 ; 4489856.977753865 ; 0.0
177 ; 11891.728802824924 ; 25510.551009965184 ; 3092051.1074985997 ; 4515367.52876383 ; 0.0
178 ; 11849.820604354305 ; 25510.551009965184 ; 3103942.8363014245 ; 4540878.079773795 ; 0.0
179 ; 11665.94891012257 ; 25510.551009965184 ; 3115792.6569057787 ; 4566388.63078376 ; 0.0
180 ; 11805.866469500232 ; 25510.551009965184 ; 3127458.6058159014 ; 4591899.181793725 ; 0.0
181 ; 11677.098802408775 ; 25510.551009965184 ; 3139264.4722854015 ; 4617409.73280369 ; 0.0
182 ; 11878.992605216927 ; 25510.551009965184 ; 3150941.57108781 ; 4642920.283813655 ; 0.0
183 ; 11931.73460561553 ; 25510.551009965184 ; 3162820.563693027 ; 4668430.8348236205 ; 0.0
184 ; 11709.19867461175 ; 25510.551009965184 ; 3174752.2982986425 ; 4693941.385833586 ; 0.0
185 ; 11933.685977460067 ; 25510.551009965184 ; 3186461.4969732543 ; 4719451.936843551 ; 0.0
186 ; 11869.083988442831 ; 25510.551009965184 ; 3198395.182950714 ; 4744962.487853516 ; 0.0
187 ; 11896.331668664741 ; 25510.551009965184 ; 3210264.266939157 ; 4770473.038863481 ; 0.0
188 ; 11934.70381903563 ; 25510.551009965184 ; 3222160.598607822 ; 4795983.589873446 ; 0.0
189 ; 11808.587511341662 ; 25510.551009965184 ; 3234095.3024268574 ; 4821494.140883411 ; 0.0
190 ; 11728.439392312795 ; 25510.551009965184 ; 3245903.889938199 ; 4847004.691893376 ; 0.0
191 ; 11809.955400845132 ; 25510.551009965184 ; 3257632.329330512 ; 4872515.242903342 ; 0.0
192 ; 11818.450774356475 ; 25510.551009965184 ; 3269442.284731357 ; 4898025.793913307 ; 0.0
193 ; 11900.327797894197 ; 25510.551009965184 ; 3281260.735505713 ; 4923536.344923272 ; 0.0
194 ; 11836.779038899429 ; 25510.551009965184 ; 3293161.0633036075 ; 4949046.895933237 ; 0.0
195 ; 11627.36904001066 ; 25510.551009965184 ; 3304997.842342507 ; 4974557.446943202 ; 0.0
196 ; 11882.760601861026 ; 25510.551009965184 ; 3316625.2113825176 ; 5000067.997953167 ; 0.0
197 ; 11860.043985541675 ; 25510.551009965184 ; 3328507.9719843785 ; 5025578.548963132 ; 0.0
198 ; 11768.0843536261 ; 25510.551009965184 ; 3340368.01596992 ; 5051089.099973097 ; 0.0
199 ; 11762.395147884756 ; 25510.551009965184 ; 3352136.100323546 ; 5076599.650983063 ; 0.0
200 ; 11718.772606151611 ; 25510.551009965184 ; 3363898.495471431 ; 5102110.201993028 ; 0.0
201 ; 11760.063679105266 ; 25510.551009965184 ; 3375617.2680775826 ; 5127620.753002993 ; 0.0
202 ; 11791.605771970755 ; 25510.551009965184 ; 3387377.3317566877 ; 5153131.304012958 ; 0.0
203 ; 11763.917376261345 ; 25510.551009965184 ; 3399168.9375286587 ; 5178641.855022923 ; 0.0
204 ; 11798.41605460131 ; 25510.551009965184 ; 3410932.85490492 ; 5204152.406032888 ; 0.0
205 ; 11770.723555388568 ; 25510.551009965184 ; 3422731.270959521 ; 5229662.957042853 ; 0.0
206 ; 11848.915672675063 ; 25510.551009965184 ; 3434501.9945149096 ; 5255173.5080528185 ; 0.0
207 ; 11984.37332247641 ; 25510.551009965184 ; 3446350.910187585 ; 5280684.059062784 ; 0.0
208 ; 11789.812359592925 ; 25510.551009965184 ; 3458335.2835100614 ; 5306194.610072749 ; 0.0
209 ; 11789.732078572544 ; 25510.551009965184 ; 3470125.0958696543 ; 5331705.161082714 ; 0.0
210 ; 11774.482836637493 ; 25510.551009965184 ; 3481914.827948227 ; 5357215.712092679 ; 0.0
211 ; 11783.423178011544 ; 25510.551009965184 ; 3493689.3107848647 ; 5382726.263102644 ; 0.0
212 ; 11878.01196661035 ; 25510.551009965184 ; 3505472.7339628763 ; 5408236.814112609 ; 0.0
213 ; 11720.630723515493 ; 25510.551009965184 ; 3517350.7459294866 ; 5433747.365122574 ; 0.0
