CSV File for the City 2 on Day 265
1 - Minute m 
2 - Power Consumed at minute m 
3 - Power Produced at minute m 
4 - Energy Consumed since the beginning of the day 
5 - Energy Produced since the beginning of the day 
6 - Energy Lost since the beginning of the day on lines starting from the city
 
0 ; 6553.634766670339 ; 31331.495424852357 ; 0.0 ; 0.0 ; 0.0
1 ; 6914.959674554253 ; 31331.495424852357 ; 6553.634766670339 ; 31331.495424852357 ; 0.0
2 ; 7424.076513692845 ; 31331.495424852357 ; 13468.594441224592 ; 62662.990849704714 ; 0.0
3 ; 7883.310100979192 ; 31331.495424852357 ; 20892.670954917437 ; 93994.48627455707 ; 0.0
4 ; 8413.93730623676 ; 31331.495424852357 ; 28775.981055896627 ; 125325.98169940943 ; 0.0
5 ; 8798.135040520932 ; 31331.495424852357 ; 37189.91836213339 ; 156657.4771242618 ; 0.0
6 ; 9077.014668828513 ; 31331.495424852357 ; 45988.05340265432 ; 187988.97254911414 ; 0.0
7 ; 9603.023101172017 ; 31331.495424852357 ; 55065.068071482834 ; 219320.4679739665 ; 0.0
8 ; 9994.505071043139 ; 31331.495424852357 ; 64668.09117265485 ; 250651.96339881886 ; 0.0
9 ; 10340.100361038047 ; 31331.495424852357 ; 74662.59624369799 ; 281983.4588236712 ; 0.0
10 ; 10782.81426017216 ; 31331.495424852357 ; 85002.69660473603 ; 313314.9542485236 ; 0.0
11 ; 11191.69937948253 ; 31331.495424852357 ; 95785.5108649082 ; 344646.44967337593 ; 0.0
12 ; 11716.377697922646 ; 31331.495424852357 ; 106977.21024439072 ; 375977.9450982283 ; 0.0
13 ; 11940.221996248007 ; 31331.495424852357 ; 118693.58794231337 ; 407309.44052308064 ; 0.0
14 ; 12412.218301126792 ; 31331.495424852357 ; 130633.80993856138 ; 438640.935947933 ; 0.0
15 ; 12908.394767338992 ; 31331.495424852357 ; 143046.02823968817 ; 469972.43137278536 ; 0.0
16 ; 13175.7456856766 ; 31331.495424852357 ; 155954.42300702716 ; 501303.9267976377 ; 0.0
17 ; 13403.35146562087 ; 31331.495424852357 ; 169130.16869270377 ; 532635.4222224901 ; 0.0
18 ; 13892.99576809303 ; 31331.495424852357 ; 182533.52015832462 ; 563966.9176473424 ; 0.0
19 ; 14252.563116650488 ; 31331.495424852357 ; 196426.51592641766 ; 595298.4130721948 ; 0.0
20 ; 14546.233260078661 ; 31331.495424852357 ; 210679.07904306814 ; 626629.9084970471 ; 0.0
21 ; 14923.935947214552 ; 31331.495424852357 ; 225225.3123031468 ; 657961.4039218995 ; 0.0
22 ; 15192.447032028746 ; 31331.495424852357 ; 240149.24825036136 ; 689292.8993467519 ; 0.0
23 ; 15604.953187147303 ; 31331.495424852357 ; 255341.6952823901 ; 720624.3947716042 ; 0.0
24 ; 15939.277541620115 ; 31331.495424852357 ; 270946.64846953744 ; 751955.8901964566 ; 0.0
25 ; 16197.493980964113 ; 31331.495424852357 ; 286885.9260111576 ; 783287.3856213089 ; 0.0
26 ; 16466.998870102732 ; 31331.495424852357 ; 303083.4199921217 ; 814618.8810461613 ; 0.0
27 ; 16889.513203580966 ; 31331.495424852357 ; 319550.41886222444 ; 845950.3764710136 ; 0.0
28 ; 17324.174211083267 ; 31331.495424852357 ; 336439.9320658054 ; 877281.871895866 ; 0.0
29 ; 17410.457773451457 ; 31331.495424852357 ; 353764.1062768887 ; 908613.3673207184 ; 0.0
30 ; 17785.492302648618 ; 31331.495424852357 ; 371174.56405034015 ; 939944.8627455707 ; 0.0
31 ; 18087.3591622169 ; 31331.495424852357 ; 388960.05635298876 ; 971276.3581704231 ; 0.0
32 ; 18574.000615565332 ; 31331.495424852357 ; 407047.41551520565 ; 1002607.8535952754 ; 0.0
33 ; 18581.43151954586 ; 31331.495424852357 ; 425621.416130771 ; 1033939.3490201278 ; 0.0
34 ; 18796.250178158236 ; 31331.495424852357 ; 444202.84765031683 ; 1065270.8444449801 ; 0.0
35 ; 19076.906734177242 ; 31331.495424852357 ; 462999.09782847506 ; 1096602.3398698326 ; 0.0
36 ; 19522.873120556953 ; 31331.495424852357 ; 482076.0045626523 ; 1127933.8352946849 ; 0.0
37 ; 19846.85137499278 ; 31331.495424852357 ; 501598.87768320926 ; 1159265.330719537 ; 0.0
38 ; 19885.284983709043 ; 31331.495424852357 ; 521445.729058202 ; 1190596.8261443893 ; 0.0
39 ; 20176.528995384066 ; 31331.495424852357 ; 541331.014041911 ; 1221928.3215692416 ; 0.0
40 ; 20511.843313118232 ; 31331.495424852357 ; 561507.5430372951 ; 1253259.8169940938 ; 0.0
41 ; 20818.782159598024 ; 31331.495424852357 ; 582019.3863504133 ; 1284591.312418946 ; 0.0
42 ; 20912.548001821866 ; 31331.495424852357 ; 602838.1685100114 ; 1315922.8078437983 ; 0.0
43 ; 21287.292264162326 ; 31331.495424852357 ; 623750.7165118332 ; 1347254.3032686505 ; 0.0
44 ; 21443.727773314637 ; 31331.495424852357 ; 645038.0087759956 ; 1378585.7986935028 ; 0.0
45 ; 21619.406775960702 ; 31331.495424852357 ; 666481.7365493103 ; 1409917.294118355 ; 0.0
46 ; 21889.454767069055 ; 31331.495424852357 ; 688101.143325271 ; 1441248.7895432073 ; 0.0
47 ; 22034.07086933643 ; 31331.495424852357 ; 709990.59809234 ; 1472580.2849680595 ; 0.0
48 ; 22148.343575993214 ; 31331.495424852357 ; 732024.6689616765 ; 1503911.7803929118 ; 0.0
49 ; 22202.926035468096 ; 31331.495424852357 ; 754173.0125376697 ; 1535243.275817764 ; 0.0
50 ; 22543.44333073376 ; 31331.495424852357 ; 776375.9385731379 ; 1566574.7712426162 ; 0.0
51 ; 22643.597627750692 ; 31331.495424852357 ; 798919.3819038717 ; 1597906.2666674685 ; 0.0
52 ; 22941.48710483324 ; 31331.495424852357 ; 821562.9795316224 ; 1629237.7620923207 ; 0.0
53 ; 22857.436589840472 ; 31331.495424852357 ; 844504.4666364556 ; 1660569.257517173 ; 0.0
54 ; 23176.530792949474 ; 31331.495424852357 ; 867361.9032262961 ; 1691900.7529420252 ; 0.0
55 ; 23222.45023511452 ; 31331.495424852357 ; 890538.4340192456 ; 1723232.2483668774 ; 0.0
56 ; 23500.546522790835 ; 31331.495424852357 ; 913760.8842543601 ; 1754563.7437917297 ; 0.0
57 ; 23672.89153100611 ; 31331.495424852357 ; 937261.4307771509 ; 1785895.239216582 ; 0.0
58 ; 23944.730167994578 ; 31331.495424852357 ; 960934.322308157 ; 1817226.7346414342 ; 0.0
59 ; 23958.73958455856 ; 31331.495424852357 ; 984879.0524761516 ; 1848558.2300662864 ; 0.0
60 ; 24048.569463310192 ; 31331.495424852357 ; 1008837.7920607101 ; 1879889.7254911386 ; 0.0
61 ; 23974.508428074983 ; 31331.495424852357 ; 1032886.3615240203 ; 1911221.2209159909 ; 0.0
62 ; 24096.558711471625 ; 31331.495424852357 ; 1056860.8699520952 ; 1942552.7163408431 ; 0.0
63 ; 24303.090192995824 ; 31331.495424852357 ; 1080957.428663567 ; 1973884.2117656954 ; 0.0
64 ; 24479.498031585044 ; 31331.495424852357 ; 1105260.5188565627 ; 2005215.7071905476 ; 0.0
65 ; 24422.075374290438 ; 31331.495424852357 ; 1129740.0168881477 ; 2036547.2026153998 ; 0.0
66 ; 24662.612913774276 ; 31331.495424852357 ; 1154162.092262438 ; 2067878.698040252 ; 0.0
67 ; 24727.593649352955 ; 31331.495424852357 ; 1178824.7051762124 ; 2099210.1934651043 ; 0.0
68 ; 24787.599789110307 ; 31331.495424852357 ; 1203552.2988255653 ; 2130541.6888899566 ; 0.0
69 ; 24742.966336674293 ; 31331.495424852357 ; 1228339.8986146755 ; 2161873.184314809 ; 0.0
70 ; 24948.61355230658 ; 31331.495424852357 ; 1253082.8649513498 ; 2193204.679739661 ; 0.0
71 ; 24907.130647403465 ; 31331.495424852357 ; 1278031.4785036563 ; 2224536.1751645133 ; 0.0
72 ; 25039.305870185643 ; 31331.495424852357 ; 1302938.6091510598 ; 2255867.6705893655 ; 0.0
73 ; 25131.070726622427 ; 31331.495424852357 ; 1327977.9150212454 ; 2287199.166014218 ; 0.0
74 ; 25184.79667296141 ; 31331.495424852357 ; 1353108.9857478677 ; 2318530.66143907 ; 0.0
75 ; 25087.18416098929 ; 31331.495424852357 ; 1378293.7824208292 ; 2349862.1568639223 ; 0.0
76 ; 25101.520269177825 ; 31331.495424852357 ; 1403380.9665818184 ; 2381193.6522887745 ; 0.0
77 ; 25227.507321042933 ; 31331.495424852357 ; 1428482.4868509963 ; 2412525.1477136267 ; 0.0
78 ; 25259.117425659155 ; 31331.495424852357 ; 1453709.9941720392 ; 2443856.643138479 ; 0.0
79 ; 25468.179056181514 ; 31331.495424852357 ; 1478969.1115976984 ; 2475188.138563331 ; 0.0
80 ; 25378.78244916038 ; 31331.495424852357 ; 1504437.29065388 ; 2506519.6339881835 ; 0.0
81 ; 25442.853541299693 ; 31331.495424852357 ; 1529816.0731030405 ; 2537851.1294130357 ; 0.0
82 ; 25376.735042005057 ; 31331.495424852357 ; 1555258.9266443402 ; 2569182.624837888 ; 0.0
83 ; 25329.62960626256 ; 31331.495424852357 ; 1580635.6616863452 ; 2600514.12026274 ; 0.0
84 ; 25425.97171269882 ; 31331.495424852357 ; 1605965.2912926078 ; 2631845.6156875924 ; 0.0
85 ; 25409.663461386255 ; 31331.495424852357 ; 1631391.2630053067 ; 2663177.1111124447 ; 0.0
86 ; 25184.62805808443 ; 31331.495424852357 ; 1656800.926466693 ; 2694508.606537297 ; 0.0
87 ; 25192.624765442026 ; 31331.495424852357 ; 1681985.5545247775 ; 2725840.101962149 ; 0.0
88 ; 25375.235405113555 ; 31331.495424852357 ; 1707178.1792902194 ; 2757171.5973870014 ; 0.0
89 ; 25259.066733266478 ; 31331.495424852357 ; 1732553.414695333 ; 2788503.0928118536 ; 0.0
90 ; 25263.468872155747 ; 31331.495424852357 ; 1757812.4814285995 ; 2819834.588236706 ; 0.0
91 ; 25084.001863577745 ; 31331.495424852357 ; 1783075.9503007552 ; 2851166.083661558 ; 0.0
92 ; 25150.903657620696 ; 31331.495424852357 ; 1808159.9521643328 ; 2882497.5790864103 ; 0.0
93 ; 24944.59402008405 ; 31331.495424852357 ; 1833310.8558219536 ; 2913829.0745112626 ; 0.0
94 ; 24914.59198098496 ; 31331.495424852357 ; 1858255.4498420376 ; 2945160.569936115 ; 0.0
95 ; 24882.598865468073 ; 31331.495424852357 ; 1883170.0418230225 ; 2976492.065360967 ; 0.0
96 ; 24784.770486962618 ; 31331.495424852357 ; 1908052.6406884906 ; 3007823.5607858193 ; 0.0
97 ; 25044.49193722093 ; 31331.495424852357 ; 1932837.411175453 ; 3039155.0562106716 ; 0.0
98 ; 24630.92969760554 ; 31331.495424852357 ; 1957881.9031126741 ; 3070486.551635524 ; 0.0
99 ; 24476.817541645643 ; 31331.495424852357 ; 1982512.8328102797 ; 3101818.047060376 ; 0.0
100 ; 24527.291969635313 ; 31331.495424852357 ; 2006989.6503519253 ; 3133149.5424852283 ; 0.0
101 ; 24231.557671011935 ; 31331.495424852357 ; 2031516.9423215606 ; 3164481.0379100805 ; 0.0
102 ; 24324.058705193795 ; 31331.495424852357 ; 2055748.4999925725 ; 3195812.5333349328 ; 0.0
103 ; 24101.83296361707 ; 31331.495424852357 ; 2080072.5586977662 ; 3227144.028759785 ; 0.0
104 ; 23903.89284223762 ; 31331.495424852357 ; 2104174.391661383 ; 3258475.5241846372 ; 0.0
105 ; 23893.269650833932 ; 31331.495424852357 ; 2128078.284503621 ; 3289807.0196094895 ; 0.0
106 ; 23576.48066823297 ; 31331.495424852357 ; 2151971.554154455 ; 3321138.5150343417 ; 0.0
107 ; 23673.345283198887 ; 31331.495424852357 ; 2175548.034822688 ; 3352470.010459194 ; 0.0
108 ; 23538.42200026254 ; 31331.495424852357 ; 2199221.380105887 ; 3383801.505884046 ; 0.0
109 ; 23409.451085409677 ; 31331.495424852357 ; 2222759.8021061495 ; 3415133.0013088984 ; 0.0
110 ; 23072.768927201687 ; 31331.495424852357 ; 2246169.253191559 ; 3446464.4967337507 ; 0.0
111 ; 23044.86685144372 ; 31331.495424852357 ; 2269242.0221187607 ; 3477795.992158603 ; 0.0
112 ; 22920.19545307058 ; 31331.495424852357 ; 2292286.8889702046 ; 3509127.487583455 ; 0.0
113 ; 22496.909779606034 ; 31331.495424852357 ; 2315207.084423275 ; 3540458.9830083074 ; 0.0
114 ; 22651.728339669855 ; 31331.495424852357 ; 2337703.994202881 ; 3571790.4784331596 ; 0.0
115 ; 22253.55254976519 ; 31331.495424852357 ; 2360355.722542551 ; 3603121.973858012 ; 0.0
116 ; 22125.417292698487 ; 31331.495424852357 ; 2382609.275092316 ; 3634453.469282864 ; 0.0
117 ; 21889.03704216894 ; 31331.495424852357 ; 2404734.692385014 ; 3665784.9647077164 ; 0.0
118 ; 21834.531380761742 ; 31331.495424852357 ; 2426623.729427183 ; 3697116.4601325686 ; 0.0
119 ; 21632.296917755735 ; 31331.495424852357 ; 2448458.260807945 ; 3728447.955557421 ; 0.0
120 ; 21488.693808292835 ; 31331.495424852357 ; 2470090.5577257005 ; 3759779.450982273 ; 0.0
121 ; 21063.77128863187 ; 31331.495424852357 ; 2491579.2515339935 ; 3791110.9464071253 ; 0.0
122 ; 20982.46508200293 ; 31331.495424852357 ; 2512643.0228226255 ; 3822442.4418319776 ; 0.0
123 ; 20565.997502207763 ; 31331.495424852357 ; 2533625.4879046283 ; 3853773.93725683 ; 0.0
124 ; 20408.638760963702 ; 31331.495424852357 ; 2554191.485406836 ; 3885105.432681682 ; 0.0
125 ; 20194.121602244464 ; 31331.495424852357 ; 2574600.1241678 ; 3916436.9281065343 ; 0.0
126 ; 19915.234006210863 ; 31331.495424852357 ; 2594794.2457700446 ; 3947768.4235313865 ; 0.0
127 ; 19849.753355413388 ; 31331.495424852357 ; 2614709.4797762553 ; 3979099.918956239 ; 0.0
128 ; 19480.73965656996 ; 31331.495424852357 ; 2634559.2331316685 ; 4010431.414381091 ; 0.0
129 ; 19121.4459949308 ; 31331.495424852357 ; 2654039.9727882384 ; 4041762.9098059433 ; 0.0
130 ; 19062.88124894263 ; 31331.495424852357 ; 2673161.4187831692 ; 4073094.4052307955 ; 0.0
131 ; 18796.31396665317 ; 31331.495424852357 ; 2692224.300032112 ; 4104425.9006556477 ; 0.0
132 ; 18404.79794063546 ; 31331.495424852357 ; 2711020.613998765 ; 4135757.3960805 ; 0.0
133 ; 17848.31161093489 ; 31331.495424852357 ; 2729425.4119394007 ; 4167088.891505352 ; 0.0
134 ; 17944.71712941955 ; 31331.495424852357 ; 2747273.7235503355 ; 4198420.386930205 ; 0.0
135 ; 17546.187039386128 ; 31331.495424852357 ; 2765218.440679755 ; 4229751.882355058 ; 0.0
136 ; 17322.302906746278 ; 31331.495424852357 ; 2782764.627719141 ; 4261083.37777991 ; 0.0
137 ; 17064.763837245355 ; 31331.495424852357 ; 2800086.9306258876 ; 4292414.873204763 ; 0.0
138 ; 16712.40200580476 ; 31331.495424852357 ; 2817151.694463133 ; 4323746.368629616 ; 0.0
139 ; 16205.100773522981 ; 31331.495424852357 ; 2833864.0964689376 ; 4355077.864054468 ; 0.0
140 ; 15999.615624635839 ; 31331.495424852357 ; 2850069.1972424607 ; 4386409.359479321 ; 0.0
141 ; 15609.25871547287 ; 31331.495424852357 ; 2866068.8128670966 ; 4417740.854904174 ; 0.0
142 ; 15365.813523301253 ; 31331.495424852357 ; 2881678.0715825693 ; 4449072.350329027 ; 0.0
143 ; 14967.189632783977 ; 31331.495424852357 ; 2897043.8851058707 ; 4480403.845753879 ; 0.0
144 ; 14740.420645462713 ; 31331.495424852357 ; 2912011.074738655 ; 4511735.341178732 ; 0.0
145 ; 14671.003461950819 ; 31331.495424852357 ; 2926751.4953841176 ; 4543066.836603585 ; 0.0
146 ; 14361.974876407998 ; 31331.495424852357 ; 2941422.4988460685 ; 4574398.332028437 ; 0.0
147 ; 14411.466060495148 ; 31331.495424852357 ; 2955784.4737224765 ; 4605729.82745329 ; 0.0
148 ; 14195.502008323365 ; 31331.495424852357 ; 2970195.9397829715 ; 4637061.322878143 ; 0.0
149 ; 14238.739270932378 ; 31331.495424852357 ; 2984391.441791295 ; 4668392.8183029955 ; 0.0
150 ; 14139.204163728975 ; 31331.495424852357 ; 2998630.1810622276 ; 4699724.313727848 ; 0.0
151 ; 14000.935203838288 ; 31331.495424852357 ; 3012769.3852259563 ; 4731055.809152701 ; 0.0
152 ; 13736.881666993151 ; 31331.495424852357 ; 3026770.3204297945 ; 4762387.304577554 ; 0.0
153 ; 13580.17184891121 ; 31331.495424852357 ; 3040507.2020967877 ; 4793718.800002406 ; 0.0
154 ; 13360.146841288173 ; 31331.495424852357 ; 3054087.373945699 ; 4825050.295427259 ; 0.0
155 ; 13304.198398723955 ; 31331.495424852357 ; 3067447.520786987 ; 4856381.790852112 ; 0.0
156 ; 13364.514189304446 ; 31331.495424852357 ; 3080751.719185711 ; 4887713.2862769645 ; 0.0
157 ; 13255.870077273723 ; 31331.495424852357 ; 3094116.233375015 ; 4919044.781701817 ; 0.0
158 ; 13217.911440380558 ; 31331.495424852357 ; 3107372.103452289 ; 4950376.27712667 ; 0.0
159 ; 13005.875465552688 ; 31331.495424852357 ; 3120590.0148926694 ; 4981707.772551523 ; 0.0
160 ; 12872.625711848152 ; 31331.495424852357 ; 3133595.890358222 ; 5013039.267976375 ; 0.0
161 ; 12748.887602172032 ; 31331.495424852357 ; 3146468.51607007 ; 5044370.763401228 ; 0.0
162 ; 12545.519400677553 ; 31331.495424852357 ; 3159217.403672242 ; 5075702.258826081 ; 0.0
163 ; 12566.739872482198 ; 31331.495424852357 ; 3171762.9230729197 ; 5107033.754250933 ; 0.0
164 ; 12379.938872296956 ; 31331.495424852357 ; 3184329.662945402 ; 5138365.249675786 ; 0.0
165 ; 12202.704584307749 ; 31331.495424852357 ; 3196709.6018176987 ; 5169696.745100639 ; 0.0
166 ; 12099.701378356185 ; 31331.495424852357 ; 3208912.3064020067 ; 5201028.240525492 ; 0.0
167 ; 11836.551246901552 ; 31331.495424852357 ; 3221012.007780363 ; 5232359.735950344 ; 0.0
168 ; 11988.674732447897 ; 31331.495424852357 ; 3232848.5590272644 ; 5263691.231375197 ; 0.0
169 ; 11728.043925786782 ; 31331.495424852357 ; 3244837.2337597124 ; 5295022.72680005 ; 0.0
170 ; 11570.240519449651 ; 31331.495424852357 ; 3256565.2776854993 ; 5326354.222224902 ; 0.0
171 ; 11447.852233852636 ; 31331.495424852357 ; 3268135.518204949 ; 5357685.717649755 ; 0.0
172 ; 11344.023116949094 ; 31331.495424852357 ; 3279583.3704388016 ; 5389017.213074608 ; 0.0
173 ; 11005.301695684917 ; 31331.495424852357 ; 3290927.3935557506 ; 5420348.7084994605 ; 0.0
174 ; 11163.263674275502 ; 31331.495424852357 ; 3301932.6952514355 ; 5451680.203924313 ; 0.0
175 ; 11194.50197874113 ; 31331.495424852357 ; 3313095.958925711 ; 5483011.699349166 ; 0.0
176 ; 11287.872587657981 ; 31331.495424852357 ; 3324290.460904452 ; 5514343.194774019 ; 0.0
177 ; 11231.938835293786 ; 31331.495424852357 ; 3335578.33349211 ; 5545674.690198871 ; 0.0
178 ; 11170.13924959335 ; 31331.495424852357 ; 3346810.272327404 ; 5577006.185623724 ; 0.0
179 ; 11454.960772115408 ; 31331.495424852357 ; 3357980.4115769975 ; 5608337.681048577 ; 0.0
180 ; 11208.028924165437 ; 31331.495424852357 ; 3369435.3723491128 ; 5639669.176473429 ; 0.0
181 ; 11264.549253444771 ; 31331.495424852357 ; 3380643.401273278 ; 5671000.671898282 ; 0.0
182 ; 11307.090473429045 ; 31331.495424852357 ; 3391907.9505267227 ; 5702332.167323135 ; 0.0
183 ; 11354.555244873478 ; 31331.495424852357 ; 3403215.0410001515 ; 5733663.662747988 ; 0.0
184 ; 11378.110090741786 ; 31331.495424852357 ; 3414569.596245025 ; 5764995.15817284 ; 0.0
185 ; 11365.248939394663 ; 31331.495424852357 ; 3425947.7063357667 ; 5796326.653597693 ; 0.0
186 ; 11413.261631702833 ; 31331.495424852357 ; 3437312.955275161 ; 5827658.149022546 ; 0.0
187 ; 11506.772471175724 ; 31331.495424852357 ; 3448726.216906864 ; 5858989.644447398 ; 0.0
188 ; 11554.435242244537 ; 31331.495424852357 ; 3460232.9893780397 ; 5890321.139872251 ; 0.0
189 ; 11476.178051465044 ; 31331.495424852357 ; 3471787.4246202842 ; 5921652.635297104 ; 0.0
190 ; 11575.210545913897 ; 31331.495424852357 ; 3483263.6026717494 ; 5952984.1307219565 ; 0.0
191 ; 11586.212818674448 ; 31331.495424852357 ; 3494838.813217663 ; 5984315.626146809 ; 0.0
192 ; 11565.285343148003 ; 31331.495424852357 ; 3506425.0260363375 ; 6015647.121571662 ; 0.0
193 ; 11557.604484425141 ; 31331.495424852357 ; 3517990.3113794853 ; 6046978.616996515 ; 0.0
194 ; 11759.212039615748 ; 31331.495424852357 ; 3529547.91586391 ; 6078310.112421367 ; 0.0
195 ; 11490.661011982622 ; 31331.495424852357 ; 3541307.127903526 ; 6109641.60784622 ; 0.0
196 ; 11625.342595396909 ; 31331.495424852357 ; 3552797.788915509 ; 6140973.103271073 ; 0.0
197 ; 11684.224459743315 ; 31331.495424852357 ; 3564423.131510906 ; 6172304.598695925 ; 0.0
198 ; 11630.194056109172 ; 31331.495424852357 ; 3576107.355970649 ; 6203636.094120778 ; 0.0
199 ; 11866.871587337762 ; 31331.495424852357 ; 3587737.550026758 ; 6234967.589545631 ; 0.0
200 ; 11640.106961398262 ; 31331.495424852357 ; 3599604.421614096 ; 6266299.084970484 ; 0.0
201 ; 11855.44195432771 ; 31331.495424852357 ; 3611244.5285754944 ; 6297630.580395336 ; 0.0
202 ; 11704.915664007855 ; 31331.495424852357 ; 3623099.970529822 ; 6328962.075820189 ; 0.0
203 ; 11837.711990524798 ; 31331.495424852357 ; 3634804.88619383 ; 6360293.571245042 ; 0.0
204 ; 11799.626040171066 ; 31331.495424852357 ; 3646642.598184355 ; 6391625.066669894 ; 0.0
205 ; 11762.491897595342 ; 31331.495424852357 ; 3658442.224224526 ; 6422956.562094747 ; 0.0
206 ; 12027.439969378041 ; 31331.495424852357 ; 3670204.716122121 ; 6454288.0575196 ; 0.0
207 ; 11859.719109980573 ; 31331.495424852357 ; 3682232.156091499 ; 6485619.5529444525 ; 0.0
208 ; 11695.665550575022 ; 31331.495424852357 ; 3694091.8752014795 ; 6516951.048369305 ; 0.0
209 ; 11787.360830904046 ; 31331.495424852357 ; 3705787.5407520547 ; 6548282.543794158 ; 0.0
210 ; 11955.423285200577 ; 31331.495424852357 ; 3717574.9015829586 ; 6579614.039219011 ; 0.0
211 ; 11853.426153233098 ; 31331.495424852357 ; 3729530.3248681594 ; 6610945.534643863 ; 0.0
212 ; 12019.483095034202 ; 31331.495424852357 ; 3741383.7510213926 ; 6642277.030068716 ; 0.0
213 ; 12032.419260953182 ; 31331.495424852357 ; 3753403.2341164267 ; 6673608.525493569 ; 0.0
