CSV File for the City 3 on Day 289
1 - Minute m 
2 - Power Consumed at minute m 
3 - Power Produced at minute m 
4 - Energy Consumed since the beginning of the day 
5 - Energy Produced since the beginning of the day 
6 - Energy Lost since the beginning of the day on lines starting from the city
 
0 ; 6981.990730091208 ; 144377.3870024865 ; 0.0 ; 0.0 ; 0.0
1 ; 7567.817916752068 ; 144021.152829948 ; 6981.990730091208 ; 144377.3870024865 ; 0.0
2 ; 7845.465827215737 ; 143701.5953285077 ; 14549.808646843278 ; 288398.5398324345 ; 0.0
3 ; 8133.192689325219 ; 143418.98407124294 ; 22395.274474059013 ; 432100.1351609422 ; 0.0
4 ; 8327.63891504131 ; 143173.55942375373 ; 30528.467163384234 ; 575519.1192321852 ; 0.0
5 ; 8719.044264549142 ; 142965.5316308888 ; 38856.106078425546 ; 718692.678655939 ; 0.0
6 ; 9067.739948790775 ; 142795.08000762618 ; 47575.15034297469 ; 861658.2102868278 ; 0.0
7 ; 9419.989481291455 ; 142662.35224137577 ; 56642.89029176546 ; 1004453.290294454 ; 0.0
8 ; 9583.06675794414 ; 142567.46381206444 ; 66062.87977305692 ; 1147115.6425358297 ; 0.0
9 ; 9962.930569382012 ; 142510.49753535856 ; 75645.94653100106 ; 1289683.106347894 ; 0.0
10 ; 10351.091455853071 ; 142491.50323328638 ; 85608.87710038306 ; 1432193.6038832527 ; 0.0
11 ; 10552.246409901118 ; 142510.49753535856 ; 95959.96855623613 ; 1574685.107116539 ; 0.0
12 ; 10820.228803651418 ; 142567.46381206444 ; 106512.21496613724 ; 1717195.6046518977 ; 0.0
13 ; 11133.240146248118 ; 142662.35224137577 ; 117332.44376978866 ; 1859763.068463962 ; 0.0
14 ; 11471.561875580184 ; 142795.0800076261 ; 128465.68391603678 ; 2002425.4207053378 ; 0.0
15 ; 11708.160831168865 ; 142965.5316308888 ; 139937.24579161697 ; 2145220.5007129638 ; 0.0
16 ; 12175.499720959015 ; 143173.55942375373 ; 151645.40662278584 ; 2288186.0323438523 ; 0.0
17 ; 12308.49959530789 ; 143418.98407124288 ; 163820.90634374486 ; 2431359.591767606 ; 0.0
18 ; 12478.84167944268 ; 143701.5953285078 ; 176129.40593905275 ; 2574778.575838849 ; 0.0
19 ; 12717.5538537459 ; 144021.15282994794 ; 188608.24761849543 ; 2718480.171167357 ; 0.0
20 ; 13186.464777187304 ; 144377.3870024865 ; 201325.80147224132 ; 2862501.323997305 ; 0.0
21 ; 13407.047913990924 ; 144770.00007495302 ; 214512.26624942862 ; 3006878.7109997915 ; 0.0
22 ; 13424.471467724896 ; 145198.66717486174 ; 227919.31416341953 ; 3151648.7110747444 ; 0.0
23 ; 13650.955341456054 ; 145663.0375033439 ; 241343.78563114442 ; 3296847.378249606 ; 0.0
24 ; 13951.493459320402 ; 146162.73557859487 ; 254994.74097260047 ; 3442510.41575295 ; 0.0
25 ; 14291.617519877189 ; 146697.3625379405 ; 268946.23443192086 ; 3588673.151331545 ; 0.0
26 ; 14416.519039166971 ; 147266.49748849592 ; 283237.8519517981 ; 3735370.5138694854 ; 0.0
27 ; 14514.291166005682 ; 147869.69889639426 ; 297654.37099096505 ; 3882637.0113579812 ; 0.0
28 ; 14927.391243940632 ; 148506.50600468245 ; 312168.6621569707 ; 4030506.7102543754 ; 0.0
29 ; 15116.352914332594 ; 149176.44027021734 ; 327096.05340091133 ; 4179013.2162590576 ; 0.0
30 ; 15275.526148010184 ; 149879.00681022808 ; 342212.4063152439 ; 4328189.656529275 ; 0.0
31 ; 15485.475887791528 ; 150613.69584963596 ; 357487.9324632541 ; 4478068.663339503 ; 0.0
32 ; 15601.156805523773 ; 151379.98416072608 ; 372973.4083510456 ; 4628682.359189139 ; 0.0
33 ; 15867.577100005565 ; 152177.3364873237 ; 388574.5651565694 ; 4780062.343349865 ; 0.0
34 ; 16269.970198298977 ; 153005.2069462482 ; 404442.142256575 ; 4932239.679837189 ; 0.0
35 ; 16371.087106516836 ; 153863.0403994655 ; 420712.112454874 ; 5085244.886783437 ; 0.0
36 ; 16526.54192371808 ; 154750.27379103444 ; 437083.1995613908 ; 5239107.927182903 ; 0.0
37 ; 16557.95756733434 ; 155666.33744363373 ; 453609.74148510885 ; 5393858.200973937 ; 0.0
38 ; 16934.374572599834 ; 156610.6563101414 ; 470167.6990524432 ; 5549524.538417571 ; 0.0
39 ; 17088.608453276953 ; 157582.65117642464 ; 487102.07362504303 ; 5706135.194727712 ; 0.0
40 ; 17108.71894200546 ; 158581.7398121573 ; 504190.68207832 ; 5863717.845904137 ; 0.0
41 ; 17482.003154555572 ; 159607.33806712631 ; 521299.4010203255 ; 6022299.585716294 ; 0.0
42 ; 17640.52783118154 ; 160658.86091109415 ; 538781.404174881 ; 6181906.923783421 ; 0.0
43 ; 17590.47621685721 ; 161735.7234158609 ; 556421.9320060626 ; 6342565.784694515 ; 0.0
44 ; 17941.405506512117 ; 162837.34167869994 ; 574012.4082229198 ; 6504301.508110376 ; 0.0
45 ; 17947.54004654848 ; 163963.13368683594 ; 591953.813729432 ; 6667138.849789076 ; 0.0
46 ; 18074.035681637437 ; 165112.52012307872 ; 609901.3537759804 ; 6831101.983475911 ; 0.0
47 ; 18302.35038244621 ; 166284.92511313068 ; 627975.3894576179 ; 6996214.50359899 ; 0.0
48 ; 18356.77919697966 ; 167479.7769154414 ; 646277.7398400641 ; 7162499.42871212 ; 0.0
49 ; 18595.46954593369 ; 168696.50855479695 ; 664634.5190370438 ; 7329979.205627562 ; 0.0
50 ; 18627.131046501585 ; 169934.558401103 ; 683229.9885829774 ; 7498675.714182358 ; 0.0
51 ; 18852.654123660235 ; 171193.37069504592 ; 701857.119629479 ; 7668610.272583461 ; 0.0
52 ; 19021.934438080898 ; 172472.39602251136 ; 720709.7737531392 ; 7839803.6432785075 ; 0.0
53 ; 18957.202435556483 ; 173771.0917397871 ; 739731.7081912201 ; 8012276.039301019 ; 0.0
54 ; 19150.30642105928 ; 175088.92235170183 ; 758688.9106267765 ; 8186047.131040806 ; 0.0
55 ; 19251.98661117581 ; 176425.35984493457 ; 777839.2170478358 ; 8361136.053392508 ; 0.0
56 ; 19265.992090676704 ; 177779.8839787942 ; 797091.2036590116 ; 8537561.413237443 ; 0.0
57 ; 19557.694097132346 ; 179151.98253579717 ; 816357.1957496883 ; 8715341.297216237 ; 0.0
58 ; 19531.909241088415 ; 180541.15153438738 ; 835914.8898468206 ; 8894493.279752035 ; 0.0
59 ; 19527.512080306595 ; 181946.89540613236 ; 855446.799087909 ; 9075034.431286423 ; 0.0
60 ; 19739.267020782867 ; 183368.72713970242 ; 874974.3111682157 ; 9256981.326692555 ; 0.0
61 ; 19832.47173437536 ; 184806.1683938999 ; 894713.5781889986 ; 9440350.053832257 ; 0.0
62 ; 19979.354640172965 ; 186258.7495819527 ; 914546.049923374 ; 9625156.222226158 ; 0.0
63 ; 19965.86418770933 ; 187726.00992922092 ; 934525.4045635469 ; 9811414.971808111 ; 0.0
64 ; 20209.131690490573 ; 189207.49750639254 ; 954491.2687512562 ; 9999140.981737332 ; 0.0
65 ; 20110.449461286706 ; 190702.76924016722 ; 974700.4004417467 ; 1.0188348479243726E7 ; 0.0
66 ; 20246.561632318633 ; 192211.39090334042 ; 994810.8499030333 ; 1.0379051248483893E7 ; 0.0
67 ; 20231.477609630772 ; 193732.93708611213 ; 1015057.411535352 ; 1.0571262639387233E7 ; 0.0
68 ; 20337.88392535607 ; 195266.99115035622 ; 1035288.8891449828 ; 1.0764995576473346E7 ; 0.0
69 ; 20571.669103836914 ; 196813.14516849158 ; 1055626.7730703389 ; 1.0960262567623703E7 ; 0.0
70 ; 20556.107400030854 ; 198370.99984850656 ; 1076198.4421741758 ; 1.1157075712792194E7 ; 0.0
71 ; 20229.569784689633 ; 199940.16444659507 ; 1096754.5495742066 ; 1.13554467126407E7 ; 0.0
72 ; 20541.534621975137 ; 201520.2566687732 ; 1116984.1193588963 ; 1.1555386877087295E7 ; 0.0
73 ; 20569.3837999571 ; 203110.90256275673 ; 1137525.6539808714 ; 1.1756907133756068E7 ; 0.0
74 ; 20552.42081368108 ; 204711.7364012927 ; 1158095.0377808285 ; 1.1960018036318824E7 ; 0.0
75 ; 20649.243837065136 ; 206322.400558056 ; 1178647.4585945096 ; 1.2164729772720117E7 ; 0.0
76 ; 20613.476098349325 ; 207942.54537714054 ; 1199296.7024315747 ; 1.2371052173278173E7 ; 0.0
77 ; 20463.118749730686 ; 209571.8290370976 ; 1219910.178529924 ; 1.2578994718655314E7 ; 0.0
78 ; 20575.599922103545 ; 211209.9174104008 ; 1240373.2972796548 ; 1.2788566547692413E7 ; 0.0
79 ; 20655.369188017874 ; 212856.4839191451 ; 1260948.8972017583 ; 1.2999776465102814E7 ; 0.0
80 ; 20776.974388748273 ; 214511.2093877224 ; 1281604.2663897763 ; 1.321263294902196E7 ; 0.0
81 ; 20639.497346095744 ; 216173.78189315257 ; 1302381.2407785244 ; 1.3427144158409681E7 ; 0.0
82 ; 20571.63956005304 ; 217843.8966136884 ; 1323020.7381246202 ; 1.3643317940302834E7 ; 0.0
83 ; 20602.51962308183 ; 219521.25567625868 ; 1343592.3776846733 ; 1.3861161836916523E7 ; 0.0
84 ; 20786.84866574745 ; 221205.56800325934 ; 1364194.8973077552 ; 1.4080683092592781E7 ; 0.0
85 ; 20623.213113337133 ; 222896.54915915497 ; 1384981.7459735028 ; 1.4301888660596041E7 ; 0.0
86 ; 20571.118544123052 ; 224593.9211973065 ; 1405604.9590868398 ; 1.4524785209755195E7 ; 0.0
87 ; 20417.80898405519 ; 226297.4125073982 ; 1426176.077630963 ; 1.4749379130952502E7 ; 0.0
88 ; 20493.05820609785 ; 228006.75766379718 ; 1446593.8866150181 ; 1.49756765434599E7 ; 0.0
89 ; 20569.21603868202 ; 229721.697275144 ; 1467086.944821116 ; 1.5203683301123697E7 ; 0.0
90 ; 20420.620352585363 ; 231441.97783543475 ; 1487656.160859798 ; 1.543340499839884E7 ; 0.0
91 ; 20436.15644138832 ; 233167.3515768289 ; 1508076.7812123834 ; 1.5664846976234276E7 ; 0.0
92 ; 20427.429261286623 ; 234897.57632438338 ; 1528512.9376537718 ; 1.5898014327811105E7 ; 0.0
93 ; 20434.683600474167 ; 236632.41535289094 ; 1548940.3669150583 ; 1.6132911904135488E7 ; 0.0
94 ; 20306.224598013396 ; 238371.6372459729 ; 1569375.0505155325 ; 1.6369544319488378E7 ; 0.0
95 ; 20288.353297217727 ; 240115.0157575578 ; 1589681.2751135458 ; 1.6607915956734352E7 ; 0.0
96 ; 20119.00068734665 ; 241862.3296758529 ; 1609969.6284107636 ; 1.684803097249191E7 ; 0.0
97 ; 20060.045658970597 ; 243613.3626899014 ; 1630088.6290981101 ; 1.7089893302167762E7 ; 0.0
98 ; 20039.220041265227 ; 245367.9032587974 ; 1650148.6747570806 ; 1.7333506664857663E7 ; 0.0
99 ; 19888.318792872542 ; 247125.74448361786 ; 1670187.8947983459 ; 1.757887456811646E7 ; 0.0
100 ; 19726.15274357638 ; 248886.6839821164 ; 1690076.2135912185 ; 1.7826000312600076E7 ; 0.0
101 ; 19867.728024060347 ; 250650.52376621027 ; 1709802.3663347948 ; 1.807488699658219E7 ; 0.0
102 ; 19792.35829604463 ; 252417.07012228156 ; 1729670.0943588552 ; 1.83255375203484E7 ; 0.0
103 ; 19669.65842337055 ; 254186.133494304 ; 1749462.4526548998 ; 1.8577954590470683E7 ; 0.0
104 ; 19476.08552480608 ; 255957.52836979533 ; 1769132.1110782702 ; 1.8832140723964985E7 ; 0.0
105 ; 19476.196309093215 ; 257731.07316859104 ; 1788608.1966030763 ; 1.908809825233478E7 ; 0.0
106 ; 19333.66951867351 ; 259506.59013442352 ; 1808084.3929121695 ; 1.934582932550337E7 ; 0.0
107 ; 19227.865629971755 ; 261283.90522928853 ; 1827418.062430843 ; 1.9605335915637795E7 ; 0.0
108 ; 19261.065221615354 ; 263062.84803057165 ; 1846645.9280608147 ; 1.9866619820867084E7 ; 0.0
109 ; 19163.274380376537 ; 264843.2516309057 ; 1865906.99328243 ; 2.0129682668897655E7 ; 0.0
110 ; 18798.27092934828 ; 266624.952540723 ; 1885070.2676628067 ; 2.039452592052856E7 ; 0.0
111 ; 18778.331203463356 ; 268407.7905934653 ; 1903868.5385921549 ; 2.0661150873069283E7 ; 0.0
112 ; 18657.578399678485 ; 270191.6088534081 ; 1922646.869795618 ; 2.0929558663662747E7 ; 0.0
113 ; 18489.363206085767 ; 271976.2535260559 ; 1941304.4481952966 ; 2.1199750272516154E7 ; 0.0
114 ; 18375.45877252845 ; 273761.5738710619 ; 1959793.8114013823 ; 2.1471726526042208E7 ; 0.0
115 ; 18399.41998211039 ; 275547.42211762274 ; 1978169.2701739108 ; 2.174548809991327E7 ; 0.0
116 ; 18199.58541531547 ; 277333.6533822986 ; 1996568.6901560212 ; 2.2021035522030894E7 ; 0.0
117 ; 18072.65289409226 ; 279120.12558920734 ; 2014768.2755713367 ; 2.229836917541319E7 ; 0.0
118 ; 17947.939639788307 ; 280906.6993925403 ; 2032840.928465429 ; 2.2577489301002398E7 ; 0.0
119 ; 17707.808409702724 ; 282693.238101347 ; 2050788.8681052173 ; 2.2858396000394937E7 ; 0.0
120 ; 17591.396205029963 ; 284479.60760653514 ; 2068496.67651492 ; 2.3141089238496285E7 ; 0.0
121 ; 17349.627159350202 ; 286265.6763100326 ; 2086088.07271995 ; 2.342556884610282E7 ; 0.0
122 ; 17158.692249508556 ; 288051.3150560574 ; 2103437.6998793003 ; 2.371183452241285E7 ; 0.0
123 ; 17005.026118001395 ; 289836.39706444275 ; 2120596.392128809 ; 2.3999885837468907E7 ; 0.0
124 ; 16998.31312462832 ; 291620.79786596313 ; 2137601.4182468103 ; 2.428972223453335E7 ; 0.0
125 ; 16687.892404349157 ; 293404.39523960924 ; 2154599.7313714386 ; 2.4581343032399315E7 ; 0.0
126 ; 16401.004973872594 ; 295187.0691517594 ; 2171287.6237757877 ; 2.4874747427638926E7 ; 0.0
127 ; 16362.66967348532 ; 296968.7016971947 ; 2187688.62874966 ; 2.5169934496790685E7 ; 0.0
128 ; 16069.378479638988 ; 298749.17704190867 ; 2204051.2984231454 ; 2.5466903198487878E7 ; 0.0
129 ; 15969.751746749684 ; 300528.381367659 ; 2220120.6769027845 ; 2.5765652375529785E7 ; 0.0
130 ; 15610.147730621584 ; 302306.20281821344 ; 2236090.428649534 ; 2.6066180756897442E7 ; 0.0
131 ; 15647.097573824043 ; 304082.531447241 ; 2251700.5763801555 ; 2.6368486959715657E7 ; 0.0
132 ; 15245.808078344131 ; 305857.2591677996 ; 2267347.6739539797 ; 2.6672569491162896E7 ; 0.0
133 ; 15112.283410496831 ; 307630.2797033753 ; 2282593.4820323237 ; 2.6978426750330694E7 ; 0.0
134 ; 14833.006970811615 ; 309401.48854042497 ; 2297705.7654428207 ; 2.728605703003407E7 ; 0.0
135 ; 14706.759554391478 ; 311170.78288238076 ; 2312538.7724136324 ; 2.7595458518574495E7 ; 0.0
136 ; 14374.169784584037 ; 312938.0616050694 ; 2327245.5319680236 ; 2.7906629301456876E7 ; 0.0
137 ; 14304.172250127443 ; 314703.225213505 ; 2341619.7017526077 ; 2.8219567363061946E7 ; 0.0
138 ; 13902.891972223859 ; 316466.1758000151 ; 2355923.874002735 ; 2.853427058827545E7 ; 0.0
139 ; 13708.95339149161 ; 318226.81700365664 ; 2369826.765974959 ; 2.8850736764075466E7 ; 0.0
140 ; 13426.656060859079 ; 319985.05397088395 ; 2383535.7193664503 ; 2.916896358107912E7 ; 0.0
141 ; 13224.389428761559 ; 321740.79331742966 ; 2396962.3754273094 ; 2.9488948635050006E7 ; 0.0
142 ; 13006.0262945317 ; 323493.94309136184 ; 2410186.764856071 ; 2.9810689428367436E7 ; 0.0
143 ; 12761.47781087311 ; 325244.4127372792 ; 2423192.791150603 ; 3.01341833714588E7 ; 0.0
144 ; 12568.310819949738 ; 326992.1130616107 ; 2435954.268961476 ; 3.045942778419608E7 ; 0.0
145 ; 12437.648503563514 ; 328736.9561989837 ; 2448522.579781426 ; 3.078641989725769E7 ; 0.0
146 ; 12253.012104273574 ; 330478.8555796275 ; 2460960.2282849895 ; 3.1115156853456672E7 ; 0.0
147 ; 12279.973735480879 ; 332217.72589778056 ; 2473213.2403892633 ; 3.1445635709036298E7 ; 0.0
148 ; 12180.440261798853 ; 333953.4830810687 ; 2485493.2141247443 ; 3.177785343493408E7 ; 0.0
149 ; 12026.659840680844 ; 335686.0442608244 ; 2497673.654386543 ; 3.211180691801515E7 ; 0.0
150 ; 12070.008845426111 ; 337415.3277433163 ; 2509700.314227224 ; 3.2447492962275974E7 ; 0.0
151 ; 11898.205451990052 ; 339141.2529818621 ; 2521770.32307265 ; 3.2784908290019292E7 ; 0.0
152 ; 11818.761950670176 ; 340863.74054979504 ; 2533668.52852464 ; 3.3124049543001156E7 ; 0.0
153 ; 11811.433591405908 ; 342582.71211425756 ; 2545487.2904753103 ; 3.346491328355095E7 ; 0.0
154 ; 11608.179426831264 ; 344298.09041079576 ; 2557298.724066716 ; 3.380749599566521E7 ; 0.0
155 ; 11674.104769767757 ; 346009.79921873 ; 2568906.9034935473 ; 3.415179408607601E7 ; 0.0
156 ; 11608.045836110372 ; 347717.7633372754 ; 2580581.008263315 ; 3.4497803885294735E7 ; 0.0
157 ; 11365.839356223467 ; 349421.9085623898 ; 2592189.0540994257 ; 3.484552164863201E7 ; 0.0
158 ; 11239.033091952138 ; 351122.1616643249 ; 2603554.8934556493 ; 3.5194943557194404E7 ; 0.0
159 ; 11244.452629489326 ; 352818.4503658604 ; 2614793.9265476014 ; 3.554606571885873E7 ; 0.0
160 ; 11139.771343812294 ; 354510.7033211957 ; 2626038.3791770907 ; 3.589888416922459E7 ; 0.0
161 ; 10944.160272465606 ; 356198.8500954818 ; 2637178.150520903 ; 3.6253394872545786E7 ; 0.0
162 ; 10803.702708078552 ; 357882.8211449716 ; 2648122.3107933686 ; 3.660959372264127E7 ; 0.0
163 ; 10764.982501611003 ; 359562.54779776826 ; 2658926.013501447 ; 3.6967476543786235E7 ; 0.0
164 ; 10698.962651409644 ; 361237.96223515423 ; 2669690.9960030583 ; 3.7327039091584004E7 ; 0.0
165 ; 10491.150913290447 ; 362908.9974734809 ; 2680389.958654468 ; 3.768827705381916E7 ; 0.0
166 ; 10381.744875291923 ; 364575.5873466027 ; 2690881.1095677586 ; 3.8051186051292636E7 ; 0.0
167 ; 10393.663360597506 ; 366237.6664888367 ; 2701262.8544430505 ; 3.841576163863924E7 ; 0.0
168 ; 10176.955259245515 ; 367895.17031843244 ; 2711656.517803648 ; 3.8781999305128075E7 ; 0.0
169 ; 10259.243211787392 ; 369548.0350215356 ; 2721833.4730628934 ; 3.914989447544651E7 ; 0.0
170 ; 9972.624094654155 ; 371196.19753662875 ; 2732092.7162746806 ; 3.951944251046804E7 ; 0.0
171 ; 9791.488085547253 ; 372839.59553943627 ; 2742065.340369335 ; 3.9890638708004676E7 ; 0.0
172 ; 9897.74466691289 ; 374478.1674282766 ; 2751856.8284548824 ; 4.026347830354411E7 ; 0.0
173 ; 9647.399744981121 ; 376111.8523098493 ; 2761754.5731217954 ; 4.063795647097239E7 ; 0.0
174 ; 9566.227454551108 ; 377740.5899854426 ; 2771401.9728667764 ; 4.101406832328224E7 ; 0.0
175 ; 9874.45560317583 ; 379364.32093754807 ; 2780968.2003213274 ; 4.139180891326769E7 ; 0.0
176 ; 9756.685831825363 ; 380982.9863168707 ; 2790842.655924503 ; 4.177117323420524E7 ; 0.0
177 ; 9890.643982421228 ; 382596.5279297203 ; 2800599.3417563285 ; 4.2152156220522106E7 ; 0.0
178 ; 9868.96640559639 ; 384204.88822577364 ; 2810489.9857387496 ; 4.253475274845183E7 ; 0.0
179 ; 9691.063319982051 ; 385808.01028619625 ; 2820358.952144346 ; 4.29189576366776E7 ; 0.0
180 ; 9695.217103790437 ; 387405.83781211055 ; 2830050.015464328 ; 4.33047656469638E7 ; 0.0
181 ; 9778.100599281728 ; 388998.3151134014 ; 2839745.2325681187 ; 4.369217148477591E7 ; 0.0
182 ; 9856.319231443022 ; 390585.3870978485 ; 2849523.3331674007 ; 4.408116979988931E7 ; 0.0
183 ; 9970.89300157404 ; 392166.9992605745 ; 2859379.652398844 ; 4.447175518698716E7 ; 0.0
184 ; 9780.209170464292 ; 393743.09767379967 ; 2869350.545400418 ; 4.4863922186247736E7 ; 0.0
185 ; 9893.61648315194 ; 395313.6289768941 ; 2879130.7545708823 ; 4.525766528392153E7 ; 0.0
186 ; 9944.536257394153 ; 396878.5403667176 ; 2889024.371054034 ; 4.565297891289843E7 ; 0.0
187 ; 9854.54012085208 ; 398437.77958823857 ; 2898968.9073114283 ; 4.6049857453265145E7 ; 0.0
188 ; 9909.323859673557 ; 399991.2949254234 ; 2908823.4474322805 ; 4.644829523285338E7 ; 0.0
189 ; 9955.977575823355 ; 400000.0 ; 2918732.771291954 ; 4.6848286527778804E7 ; 0.0
190 ; 9837.303733112623 ; 400000.0 ; 2928688.748867777 ; 4.7248286527778804E7 ; 0.0
191 ; 9952.344659058248 ; 400000.0 ; 2938526.05260089 ; 4.7648286527778804E7 ; 0.0
192 ; 9873.65456669959 ; 400000.0 ; 2948478.3972599483 ; 4.8048286527778804E7 ; 0.0
193 ; 10081.874204246466 ; 400000.0 ; 2958352.051826648 ; 4.8448286527778804E7 ; 0.0
194 ; 10047.798740476248 ; 400000.0 ; 2968433.9260308943 ; 4.8848286527778804E7 ; 0.0
195 ; 10036.776124088414 ; 400000.0 ; 2978481.7247713706 ; 4.9248286527778804E7 ; 0.0
196 ; 10018.235218636963 ; 400000.0 ; 2988518.500895459 ; 4.9648286527778804E7 ; 0.0
197 ; 10011.690764335826 ; 400000.0 ; 2998536.7361140964 ; 5.0048286527778804E7 ; 0.0
198 ; 10136.72886036117 ; 400000.0 ; 3008548.4268784323 ; 5.0448286527778804E7 ; 0.0
199 ; 9967.86831055875 ; 400000.0 ; 3018685.1557387933 ; 5.0848286527778804E7 ; 0.0
200 ; 10248.04030874445 ; 400000.0 ; 3028653.024049352 ; 5.1248286527778804E7 ; 0.0
201 ; 9997.546013459261 ; 400000.0 ; 3038901.0643580966 ; 5.1648286527778804E7 ; 0.0
202 ; 10177.225955847403 ; 400000.0 ; 3048898.6103715557 ; 5.2048286527778804E7 ; 0.0
203 ; 10065.887391347731 ; 400000.0 ; 3059075.836327403 ; 5.2448286527778804E7 ; 0.0
204 ; 10145.701010566936 ; 400000.0 ; 3069141.7237187508 ; 5.2848286527778804E7 ; 0.0
205 ; 10010.866009411346 ; 400000.0 ; 3079287.424729318 ; 5.3248286527778804E7 ; 0.0
206 ; 10250.950948557875 ; 400000.0 ; 3089298.2907387293 ; 5.3648286527778804E7 ; 0.0
207 ; 10133.770141114801 ; 400000.0 ; 3099549.241687287 ; 5.4048286527778804E7 ; 0.0
208 ; 10070.083485244008 ; 400000.0 ; 3109683.011828402 ; 5.4448286527778804E7 ; 0.0
209 ; 10200.596377135707 ; 400000.0 ; 3119753.095313646 ; 5.4848286527778804E7 ; 0.0
210 ; 10394.296037202581 ; 400000.0 ; 3129953.6916907816 ; 5.5248286527778804E7 ; 0.0
211 ; 10216.388991759266 ; 400000.0 ; 3140347.9877279843 ; 5.5648286527778804E7 ; 0.0
212 ; 10211.627711112646 ; 400000.0 ; 3150564.3767197435 ; 5.6048286527778804E7 ; 0.0
213 ; 10363.34078745585 ; 400000.0 ; 3160776.004430856 ; 5.6448286527778804E7 ; 0.0
214 ; 10355.781937847225 ; 400000.0 ; 3171139.345218312 ; 5.6848286527778804E7 ; 0.0
