CSV File for the City 2 on Day 222
1 - Minute m 
2 - Power Consumed at minute m 
3 - Power Produced at minute m 
4 - Energy Consumed since the beginning of the day 
5 - Energy Produced since the beginning of the day 
6 - Energy Lost since the beginning of the day on lines starting from the city
 
0 ; 4486.707992275866 ; 34079.7257600727 ; 0.0 ; 0.0 ; 0.0
1 ; 5201.4893997233485 ; 34079.7257600727 ; 4486.707992275866 ; 34079.7257600727 ; 0.0
2 ; 5865.955082225356 ; 34079.7257600727 ; 9688.197391999214 ; 68159.4515201454 ; 0.0
3 ; 6448.726344701864 ; 34079.7257600727 ; 15554.152474224571 ; 102239.17728021811 ; 0.0
4 ; 6885.313016378327 ; 34079.7257600727 ; 22002.878818926434 ; 136318.9030402908 ; 0.0
5 ; 7452.924068758491 ; 34079.7257600727 ; 28888.191835304762 ; 170398.6288003635 ; 0.0
6 ; 8064.218531313668 ; 34079.7257600727 ; 36341.115904063256 ; 204478.35456043622 ; 0.0
7 ; 8426.976128874843 ; 34079.7257600727 ; 44405.33443537692 ; 238558.08032050892 ; 0.0
8 ; 9096.258205876846 ; 34079.7257600727 ; 52832.31056425176 ; 272637.8060805816 ; 0.0
9 ; 9504.412448403182 ; 34079.7257600727 ; 61928.56877012861 ; 306717.5318406543 ; 0.0
10 ; 10049.050850553802 ; 34079.7257600727 ; 71432.98121853179 ; 340797.257600727 ; 0.0
11 ; 10408.131462946434 ; 34079.7257600727 ; 81482.03206908559 ; 374876.9833607997 ; 0.0
12 ; 10965.236418269245 ; 34079.7257600727 ; 91890.16353203202 ; 408956.70912087243 ; 0.0
13 ; 11534.133217513294 ; 34079.7257600727 ; 102855.39995030126 ; 443036.43488094513 ; 0.0
14 ; 12076.668543954547 ; 34079.7257600727 ; 114389.53316781456 ; 477116.16064101784 ; 0.0
15 ; 12557.416622299 ; 34079.7257600727 ; 126466.2017117691 ; 511195.88640109054 ; 0.0
16 ; 12930.740309947807 ; 34079.7257600727 ; 139023.6183340681 ; 545275.6121611632 ; 0.0
17 ; 13566.460409133766 ; 34079.7257600727 ; 151954.3586440159 ; 579355.337921236 ; 0.0
18 ; 13785.352394267393 ; 34079.7257600727 ; 165520.81905314967 ; 613435.0636813086 ; 0.0
19 ; 14363.146833270735 ; 34079.7257600727 ; 179306.17144741706 ; 647514.7894413813 ; 0.0
20 ; 14835.386236603286 ; 34079.7257600727 ; 193669.3182806878 ; 681594.515201454 ; 0.0
21 ; 15134.468496188234 ; 34079.7257600727 ; 208504.70451729107 ; 715674.2409615268 ; 0.0
22 ; 15546.842825657606 ; 34079.7257600727 ; 223639.1730134793 ; 749753.9667215995 ; 0.0
23 ; 15924.142109230344 ; 34079.7257600727 ; 239186.0158391369 ; 783833.6924816722 ; 0.0
24 ; 16252.90192345791 ; 34079.7257600727 ; 255110.15794836724 ; 817913.4182417449 ; 0.0
25 ; 16660.086135594065 ; 34079.7257600727 ; 271363.05987182516 ; 851993.1440018176 ; 0.0
26 ; 17146.825148364675 ; 34079.7257600727 ; 288023.1460074192 ; 886072.8697618903 ; 0.0
27 ; 17513.83217063977 ; 34079.7257600727 ; 305169.97115578386 ; 920152.595521963 ; 0.0
28 ; 17847.29143672032 ; 34079.7257600727 ; 322683.80332642363 ; 954232.3212820357 ; 0.0
29 ; 18204.864604293347 ; 34079.7257600727 ; 340531.0947631439 ; 988312.0470421084 ; 0.0
30 ; 18705.084290643696 ; 34079.7257600727 ; 358735.9593674373 ; 1022391.7728021811 ; 0.0
31 ; 18830.75036743293 ; 34079.7257600727 ; 377441.043658081 ; 1056471.4985622538 ; 0.0
32 ; 19344.581336835523 ; 34079.7257600727 ; 396271.7940255139 ; 1090551.2243223265 ; 0.0
33 ; 19782.376756338024 ; 34079.7257600727 ; 415616.37536234944 ; 1124630.9500823992 ; 0.0
34 ; 19907.599356301896 ; 34079.7257600727 ; 435398.7521186875 ; 1158710.675842472 ; 0.0
35 ; 20448.3590447086 ; 34079.7257600727 ; 455306.3514749894 ; 1192790.4016025446 ; 0.0
36 ; 20671.419037949414 ; 34079.7257600727 ; 475754.710519698 ; 1226870.1273626173 ; 0.0
37 ; 21000.428688324155 ; 34079.7257600727 ; 496426.1295576474 ; 1260949.85312269 ; 0.0
38 ; 21419.146467669147 ; 34079.7257600727 ; 517426.55824597157 ; 1295029.5788827627 ; 0.0
39 ; 21646.19502610278 ; 34079.7257600727 ; 538845.7047136407 ; 1329109.3046428354 ; 0.0
40 ; 21933.87209155155 ; 34079.7257600727 ; 560491.8997397436 ; 1363189.030402908 ; 0.0
41 ; 22249.74575647994 ; 34079.7257600727 ; 582425.7718312951 ; 1397268.7561629808 ; 0.0
42 ; 22455.52145116972 ; 34079.7257600727 ; 604675.517587775 ; 1431348.4819230535 ; 0.0
43 ; 22869.08537751393 ; 34079.7257600727 ; 627131.0390389448 ; 1465428.2076831262 ; 0.0
44 ; 23148.197861201385 ; 34079.7257600727 ; 650000.1244164587 ; 1499507.933443199 ; 0.0
45 ; 23272.423783417475 ; 34079.7257600727 ; 673148.32227766 ; 1533587.6592032716 ; 0.0
46 ; 23743.740621927154 ; 34079.7257600727 ; 696420.7460610775 ; 1567667.3849633443 ; 0.0
47 ; 23680.49984468164 ; 34079.7257600727 ; 720164.4866830047 ; 1601747.110723417 ; 0.0
48 ; 24022.11822350509 ; 34079.7257600727 ; 743844.9865276862 ; 1635826.8364834897 ; 0.0
49 ; 24212.97738343323 ; 34079.7257600727 ; 767867.1047511913 ; 1669906.5622435624 ; 0.0
50 ; 24515.07406409769 ; 34079.7257600727 ; 792080.0821346246 ; 1703986.2880036351 ; 0.0
51 ; 24772.103987901977 ; 34079.7257600727 ; 816595.1561987223 ; 1738066.0137637078 ; 0.0
52 ; 24749.601296907902 ; 34079.7257600727 ; 841367.2601866242 ; 1772145.7395237805 ; 0.0
53 ; 25105.225983375 ; 34079.7257600727 ; 866116.8614835321 ; 1806225.4652838532 ; 0.0
54 ; 25384.73941096649 ; 34079.7257600727 ; 891222.0874669071 ; 1840305.191043926 ; 0.0
55 ; 25622.715689208628 ; 34079.7257600727 ; 916606.8268778736 ; 1874384.9168039986 ; 0.0
56 ; 25661.169478043008 ; 34079.7257600727 ; 942229.5425670822 ; 1908464.6425640713 ; 0.0
57 ; 26076.451426024916 ; 34079.7257600727 ; 967890.7120451252 ; 1942544.368324144 ; 0.0
58 ; 26080.709898238398 ; 34079.7257600727 ; 993967.1634711501 ; 1976624.0940842167 ; 0.0
59 ; 26285.02434816126 ; 34079.7257600727 ; 1020047.8733693885 ; 2010703.8198442894 ; 0.0
60 ; 26600.54031290116 ; 34079.7257600727 ; 1046332.8977175498 ; 2044783.5456043622 ; 0.0
61 ; 26611.396387673525 ; 34079.7257600727 ; 1072933.438030451 ; 2078863.2713644349 ; 0.0
62 ; 26757.351745348074 ; 34079.7257600727 ; 1099544.8344181245 ; 2112942.9971245076 ; 0.0
63 ; 26745.18171262345 ; 34079.7257600727 ; 1126302.1861634725 ; 2147022.7228845805 ; 0.0
64 ; 26945.750355413344 ; 34079.7257600727 ; 1153047.367876096 ; 2181102.448644653 ; 0.0
65 ; 27071.79400986759 ; 34079.7257600727 ; 1179993.1182315093 ; 2215182.1744047254 ; 0.0
66 ; 27138.34737372102 ; 34079.7257600727 ; 1207064.912241377 ; 2249261.900164798 ; 0.0
67 ; 27188.481236460237 ; 34079.7257600727 ; 1234203.259615098 ; 2283341.6259248704 ; 0.0
68 ; 27531.07877209001 ; 34079.7257600727 ; 1261391.740851558 ; 2317421.351684943 ; 0.0
69 ; 27663.161119324173 ; 34079.7257600727 ; 1288922.819623648 ; 2351501.0774450153 ; 0.0
70 ; 27415.073814818872 ; 34079.7257600727 ; 1316585.980742972 ; 2385580.803205088 ; 0.0
71 ; 27730.922812212528 ; 34079.7257600727 ; 1344001.054557791 ; 2419660.5289651603 ; 0.0
72 ; 27779.681581835674 ; 34079.7257600727 ; 1371731.9773700035 ; 2453740.2547252327 ; 0.0
73 ; 27827.81459007697 ; 34079.7257600727 ; 1399511.6589518392 ; 2487819.980485305 ; 0.0
74 ; 27834.552775787255 ; 34079.7257600727 ; 1427339.473541916 ; 2521899.7062453777 ; 0.0
75 ; 27886.93368369175 ; 34079.7257600727 ; 1455174.0263177033 ; 2555979.43200545 ; 0.0
76 ; 28028.56619586687 ; 34079.7257600727 ; 1483060.960001395 ; 2590059.1577655226 ; 0.0
77 ; 28072.10078659827 ; 34079.7257600727 ; 1511089.5261972619 ; 2624138.883525595 ; 0.0
78 ; 28098.508746208856 ; 34079.7257600727 ; 1539161.62698386 ; 2658218.6092856675 ; 0.0
79 ; 28123.27849941882 ; 34079.7257600727 ; 1567260.135730069 ; 2692298.33504574 ; 0.0
80 ; 28028.15788282776 ; 34079.7257600727 ; 1595383.4142294878 ; 2726378.0608058125 ; 0.0
81 ; 28250.667469436765 ; 34079.7257600727 ; 1623411.5721123156 ; 2760457.786565885 ; 0.0
82 ; 28211.99124106053 ; 34079.7257600727 ; 1651662.2395817523 ; 2794537.5123259574 ; 0.0
83 ; 28114.210394491565 ; 34079.7257600727 ; 1679874.2308228128 ; 2828617.23808603 ; 0.0
84 ; 28185.133317210537 ; 34079.7257600727 ; 1707988.4412173044 ; 2862696.9638461024 ; 0.0
85 ; 28022.929494856155 ; 34079.7257600727 ; 1736173.574534515 ; 2896776.689606175 ; 0.0
86 ; 28223.455767447944 ; 34079.7257600727 ; 1764196.504029371 ; 2930856.4153662473 ; 0.0
87 ; 27895.27880164354 ; 34079.7257600727 ; 1792419.959796819 ; 2964936.1411263198 ; 0.0
88 ; 28128.251880565796 ; 34079.7257600727 ; 1820315.2385984624 ; 2999015.8668863922 ; 0.0
89 ; 27995.865127596975 ; 34079.7257600727 ; 1848443.4904790283 ; 3033095.5926464647 ; 0.0
90 ; 27932.46068225233 ; 34079.7257600727 ; 1876439.3556066253 ; 3067175.318406537 ; 0.0
91 ; 27946.847555316876 ; 34079.7257600727 ; 1904371.8162888777 ; 3101255.0441666096 ; 0.0
92 ; 27795.071585056972 ; 34079.7257600727 ; 1932318.6638441947 ; 3135334.769926682 ; 0.0
93 ; 27673.89851222517 ; 34079.7257600727 ; 1960113.7354292518 ; 3169414.4956867546 ; 0.0
94 ; 27682.133589081885 ; 34079.7257600727 ; 1987787.633941477 ; 3203494.221446827 ; 0.0
95 ; 27639.762040270176 ; 34079.7257600727 ; 2015469.7675305589 ; 3237573.9472068995 ; 0.0
96 ; 27416.18731839761 ; 34079.7257600727 ; 2043109.5295708291 ; 3271653.672966972 ; 0.0
97 ; 27265.477351283724 ; 34079.7257600727 ; 2070525.7168892268 ; 3305733.3987270445 ; 0.0
98 ; 27334.196099524575 ; 34079.7257600727 ; 2097791.1942405105 ; 3339813.124487117 ; 0.0
99 ; 27181.039572431444 ; 34079.7257600727 ; 2125125.390340035 ; 3373892.8502471894 ; 0.0
100 ; 27163.66677499594 ; 34079.7257600727 ; 2152306.429912466 ; 3407972.576007262 ; 0.0
101 ; 27005.03522208904 ; 34079.7257600727 ; 2179470.096687462 ; 3442052.3017673343 ; 0.0
102 ; 26848.507792825567 ; 34079.7257600727 ; 2206475.131909551 ; 3476132.027527407 ; 0.0
103 ; 26669.864228466835 ; 34079.7257600727 ; 2233323.6397023764 ; 3510211.7532874793 ; 0.0
104 ; 26484.207175957596 ; 34079.7257600727 ; 2259993.5039308434 ; 3544291.4790475518 ; 0.0
105 ; 26552.75877916142 ; 34079.7257600727 ; 2286477.711106801 ; 3578371.204807624 ; 0.0
106 ; 26263.836302507683 ; 34079.7257600727 ; 2313030.4698859625 ; 3612450.9305676967 ; 0.0
107 ; 25914.498073488896 ; 34079.7257600727 ; 2339294.30618847 ; 3646530.656327769 ; 0.0
108 ; 25941.750947349676 ; 34079.7257600727 ; 2365208.804261959 ; 3680610.3820878416 ; 0.0
109 ; 25706.30113803078 ; 34079.7257600727 ; 2391150.555209309 ; 3714690.107847914 ; 0.0
110 ; 25590.505542161343 ; 34079.7257600727 ; 2416856.8563473397 ; 3748769.8336079866 ; 0.0
111 ; 25149.88777769761 ; 34079.7257600727 ; 2442447.361889501 ; 3782849.559368059 ; 0.0
112 ; 25131.687995479057 ; 34079.7257600727 ; 2467597.249667199 ; 3816929.2851281315 ; 0.0
113 ; 24898.268127659343 ; 34079.7257600727 ; 2492728.937662678 ; 3851009.010888204 ; 0.0
114 ; 24743.56070988804 ; 34079.7257600727 ; 2517627.205790337 ; 3885088.7366482764 ; 0.0
115 ; 24199.008158793356 ; 34079.7257600727 ; 2542370.7665002253 ; 3919168.462408349 ; 0.0
116 ; 24286.339114466737 ; 34079.7257600727 ; 2566569.7746590185 ; 3953248.1881684214 ; 0.0
117 ; 23933.014148865263 ; 34079.7257600727 ; 2590856.113773485 ; 3987327.913928494 ; 0.0
118 ; 23849.454358183768 ; 34079.7257600727 ; 2614789.1279223505 ; 4021407.6396885663 ; 0.0
119 ; 23527.101603677773 ; 34079.7257600727 ; 2638638.5822805343 ; 4055487.365448639 ; 0.0
120 ; 23252.446750481264 ; 34079.7257600727 ; 2662165.6838842123 ; 4089567.0912087113 ; 0.0
121 ; 23077.959692421704 ; 34079.7257600727 ; 2685418.1306346934 ; 4123646.8169687837 ; 0.0
122 ; 22737.331180775167 ; 34079.7257600727 ; 2708496.0903271153 ; 4157726.542728856 ; 0.0
123 ; 22399.905515885173 ; 34079.7257600727 ; 2731233.4215078903 ; 4191806.2684889287 ; 0.0
124 ; 22120.036067989447 ; 34079.7257600727 ; 2753633.3270237753 ; 4225885.994249001 ; 0.0
125 ; 22023.152939769203 ; 34079.7257600727 ; 2775753.363091765 ; 4259965.720009074 ; 0.0
126 ; 21369.46866477004 ; 34079.7257600727 ; 2797776.516031534 ; 4294045.445769146 ; 0.0
127 ; 21311.92515413256 ; 34079.7257600727 ; 2819145.984696304 ; 4328125.171529219 ; 0.0
128 ; 20745.78862384541 ; 34079.7257600727 ; 2840457.9098504367 ; 4362204.897289291 ; 0.0
129 ; 20539.301539566426 ; 34079.7257600727 ; 2861203.698474282 ; 4396284.6230493635 ; 0.0
130 ; 20245.744351047702 ; 34079.7257600727 ; 2881743.0000138483 ; 4430364.348809436 ; 0.0
131 ; 19678.984672847946 ; 34079.7257600727 ; 2901988.744364896 ; 4464444.074569508 ; 0.0
132 ; 19497.00764649218 ; 34079.7257600727 ; 2921667.729037744 ; 4498523.800329581 ; 0.0
133 ; 19209.02182437176 ; 34079.7257600727 ; 2941164.736684236 ; 4532603.526089653 ; 0.0
134 ; 18711.589114234157 ; 34079.7257600727 ; 2960373.7585086077 ; 4566683.251849726 ; 0.0
135 ; 18447.306028418992 ; 34079.7257600727 ; 2979085.347622842 ; 4600762.977609798 ; 0.0
136 ; 17972.666324804202 ; 34079.7257600727 ; 2997532.6536512612 ; 4634842.703369871 ; 0.0
137 ; 17611.632858421013 ; 34079.7257600727 ; 3015505.3199760653 ; 4668922.429129943 ; 0.0
138 ; 17104.69439945033 ; 34079.7257600727 ; 3033116.9528344865 ; 4703002.154890016 ; 0.0
139 ; 16951.16268573665 ; 34079.7257600727 ; 3050221.647233937 ; 4737081.880650088 ; 0.0
140 ; 16439.03284766542 ; 34079.7257600727 ; 3067172.8099196735 ; 4771161.606410161 ; 0.0
141 ; 16411.86303531746 ; 34079.7257600727 ; 3083611.8427673387 ; 4805241.332170233 ; 0.0
142 ; 15863.939090072023 ; 34079.7257600727 ; 3100023.7058026562 ; 4839321.057930306 ; 0.0
143 ; 15215.337755577697 ; 34079.7257600727 ; 3115887.6448927284 ; 4873400.783690378 ; 0.0
144 ; 15005.875804967141 ; 34079.7257600727 ; 3131102.982648306 ; 4907480.509450451 ; 0.0
145 ; 14665.928321529793 ; 34079.7257600727 ; 3146108.8584532733 ; 4941560.235210523 ; 0.0
146 ; 14454.264395245285 ; 34079.7257600727 ; 3160774.786774803 ; 4975639.9609705955 ; 0.0
147 ; 14431.270086954186 ; 34079.7257600727 ; 3175229.0511700483 ; 5009719.686730668 ; 0.0
148 ; 14331.440991931917 ; 34079.7257600727 ; 3189660.3212570027 ; 5043799.41249074 ; 0.0
149 ; 14303.533156430567 ; 34079.7257600727 ; 3203991.7622489347 ; 5077879.138250813 ; 0.0
150 ; 14195.12639043295 ; 34079.7257600727 ; 3218295.295405365 ; 5111958.864010885 ; 0.0
151 ; 13895.072728801335 ; 34079.7257600727 ; 3232490.421795798 ; 5146038.589770958 ; 0.0
152 ; 14027.917521837686 ; 34079.7257600727 ; 3246385.4945245995 ; 5180118.31553103 ; 0.0
153 ; 13756.083490930874 ; 34079.7257600727 ; 3260413.412046437 ; 5214198.041291103 ; 0.0
154 ; 13658.784056183895 ; 34079.7257600727 ; 3274169.495537368 ; 5248277.767051175 ; 0.0
155 ; 13381.708780336596 ; 34079.7257600727 ; 3287828.279593552 ; 5282357.492811248 ; 0.0
156 ; 13323.446900798728 ; 34079.7257600727 ; 3301209.9883738887 ; 5316437.21857132 ; 0.0
157 ; 13130.63148674569 ; 34079.7257600727 ; 3314533.4352746876 ; 5350516.944331393 ; 0.0
158 ; 12913.717832575581 ; 34079.7257600727 ; 3327664.066761433 ; 5384596.670091465 ; 0.0
159 ; 12739.471982674746 ; 34079.7257600727 ; 3340577.7845940087 ; 5418676.395851538 ; 0.0
160 ; 12733.490917567506 ; 34079.7257600727 ; 3353317.2565766834 ; 5452756.12161161 ; 0.0
161 ; 12479.280867836906 ; 34079.7257600727 ; 3366050.747494251 ; 5486835.8473716825 ; 0.0
162 ; 12362.828366696034 ; 34079.7257600727 ; 3378530.028362088 ; 5520915.573131755 ; 0.0
163 ; 12291.237266585922 ; 34079.7257600727 ; 3390892.856728784 ; 5554995.298891827 ; 0.0
164 ; 12088.873920639038 ; 34079.7257600727 ; 3403184.0939953695 ; 5589075.0246519 ; 0.0
165 ; 11853.990172928694 ; 34079.7257600727 ; 3415272.9679160086 ; 5623154.750411972 ; 0.0
166 ; 11749.025218357892 ; 34079.7257600727 ; 3427126.958088937 ; 5657234.476172045 ; 0.0
167 ; 11594.719925887714 ; 34079.7257600727 ; 3438875.983307295 ; 5691314.201932117 ; 0.0
168 ; 11345.202589419727 ; 34079.7257600727 ; 3450470.703233183 ; 5725393.92769219 ; 0.0
169 ; 11158.554864064034 ; 34079.7257600727 ; 3461815.9058226026 ; 5759473.653452262 ; 0.0
170 ; 11111.54591219532 ; 34079.7257600727 ; 3472974.4606866664 ; 5793553.379212335 ; 0.0
171 ; 10887.77699930894 ; 34079.7257600727 ; 3484086.006598862 ; 5827633.104972407 ; 0.0
172 ; 10720.324282608688 ; 34079.7257600727 ; 3494973.7835981706 ; 5861712.83073248 ; 0.0
173 ; 10667.011222720912 ; 34079.7257600727 ; 3505694.107880779 ; 5895792.556492552 ; 0.0
174 ; 10685.110650723613 ; 34079.7257600727 ; 3516361.1191035 ; 5929872.282252625 ; 0.0
175 ; 10550.76582399943 ; 34079.7257600727 ; 3527046.229754224 ; 5963952.008012697 ; 0.0
176 ; 10591.014663177753 ; 34079.7257600727 ; 3537596.9955782234 ; 5998031.73377277 ; 0.0
177 ; 10660.279498871478 ; 34079.7257600727 ; 3548188.010241401 ; 6032111.459532842 ; 0.0
178 ; 10722.921255279198 ; 34079.7257600727 ; 3558848.2897402723 ; 6066191.1852929145 ; 0.0
179 ; 10655.698810218026 ; 34079.7257600727 ; 3569571.2109955517 ; 6100270.911052987 ; 0.0
180 ; 10760.214747203021 ; 34079.7257600727 ; 3580226.9098057696 ; 6134350.636813059 ; 0.0
181 ; 10871.771108057777 ; 34079.7257600727 ; 3590987.1245529726 ; 6168430.362573132 ; 0.0
182 ; 10935.168669522092 ; 34079.7257600727 ; 3601858.8956610304 ; 6202510.088333204 ; 0.0
183 ; 11066.989480831107 ; 34079.7257600727 ; 3612794.0643305527 ; 6236589.814093277 ; 0.0
184 ; 10887.618895596752 ; 34079.7257600727 ; 3623861.053811384 ; 6270669.539853349 ; 0.0
185 ; 10867.58437893049 ; 34079.7257600727 ; 3634748.6727069807 ; 6304749.265613422 ; 0.0
186 ; 10872.359776834508 ; 34079.7257600727 ; 3645616.257085911 ; 6338828.991373494 ; 0.0
187 ; 11139.023602523019 ; 34079.7257600727 ; 3656488.6168627455 ; 6372908.717133567 ; 0.0
188 ; 10949.54645705195 ; 34079.7257600727 ; 3667627.6404652684 ; 6406988.442893639 ; 0.0
189 ; 11068.888878773794 ; 34079.7257600727 ; 3678577.18692232 ; 6441068.168653712 ; 0.0
190 ; 11195.22438895265 ; 34079.7257600727 ; 3689646.075801094 ; 6475147.894413784 ; 0.0
191 ; 11259.554374469353 ; 34079.7257600727 ; 3700841.300190047 ; 6509227.620173857 ; 0.0
192 ; 11255.636419916418 ; 34079.7257600727 ; 3712100.8545645163 ; 6543307.345933929 ; 0.0
193 ; 11291.475100320247 ; 34079.7257600727 ; 3723356.490984433 ; 6577387.071694002 ; 0.0
194 ; 11431.614833825804 ; 34079.7257600727 ; 3734647.966084753 ; 6611466.797454074 ; 0.0
195 ; 11488.266576710965 ; 34079.7257600727 ; 3746079.580918579 ; 6645546.5232141465 ; 0.0
196 ; 11313.912705582821 ; 34079.7257600727 ; 3757567.84749529 ; 6679626.248974219 ; 0.0
197 ; 11457.151146920547 ; 34079.7257600727 ; 3768881.760200873 ; 6713705.974734291 ; 0.0
198 ; 11393.550579659643 ; 34079.7257600727 ; 3780338.9113477934 ; 6747785.700494364 ; 0.0
199 ; 11413.934211492044 ; 34079.7257600727 ; 3791732.461927453 ; 6781865.426254436 ; 0.0
200 ; 11496.488509774365 ; 34079.7257600727 ; 3803146.396138945 ; 6815945.152014509 ; 0.0
201 ; 11606.790768568533 ; 34079.7257600727 ; 3814642.8846487193 ; 6850024.877774581 ; 0.0
202 ; 11367.071476659647 ; 34079.7257600727 ; 3826249.6754172877 ; 6884104.603534654 ; 0.0
203 ; 11521.165062701502 ; 34079.7257600727 ; 3837616.7468939475 ; 6918184.329294726 ; 0.0
204 ; 11677.151517253642 ; 34079.7257600727 ; 3849137.911956649 ; 6952264.055054799 ; 0.0
205 ; 11574.474416297286 ; 34079.7257600727 ; 3860815.0634739026 ; 6986343.780814871 ; 0.0
206 ; 11681.410257783464 ; 34079.7257600727 ; 3872389.5378902 ; 7020423.506574944 ; 0.0
207 ; 11600.75792493039 ; 34079.7257600727 ; 3884070.9481479833 ; 7054503.232335016 ; 0.0
208 ; 11605.349108173883 ; 34079.7257600727 ; 3895671.7060729135 ; 7088582.958095089 ; 0.0
209 ; 11851.292689152267 ; 34079.7257600727 ; 3907277.0551810875 ; 7122662.683855161 ; 0.0
210 ; 11740.151120251117 ; 34079.7257600727 ; 3919128.3478702395 ; 7156742.409615234 ; 0.0
211 ; 11784.023885719518 ; 34079.7257600727 ; 3930868.4989904906 ; 7190822.135375306 ; 0.0
212 ; 11865.677982110608 ; 34079.7257600727 ; 3942652.52287621 ; 7224901.8611353785 ; 0.0
213 ; 11891.430729158938 ; 34079.7257600727 ; 3954518.2008583206 ; 7258981.586895451 ; 0.0
214 ; 11976.515077848906 ; 34079.7257600727 ; 3966409.6315874797 ; 7293061.312655523 ; 0.0
215 ; 11930.38591212027 ; 34079.7257600727 ; 3978386.1466653286 ; 7327141.038415596 ; 0.0
216 ; 12029.420104789106 ; 34079.7257600727 ; 3990316.532577449 ; 7361220.764175668 ; 0.0
217 ; 12197.715132519257 ; 34079.7257600727 ; 4002345.952682238 ; 7395300.489935741 ; 0.0
218 ; 12176.830192602829 ; 34079.7257600727 ; 4014543.667814757 ; 7429380.215695813 ; 0.0
