CSV File for the City 1 on Day 194
1 - Minute m 
2 - Power Consumed at minute m 
3 - Power Produced at minute m 
4 - Energy Consumed since the beginning of the day 
5 - Energy Produced since the beginning of the day 
6 - Energy Lost since the beginning of the day on lines starting from the city
 
0 ; 5573.351263537943 ; 3800.6599300773123 ; 0.0 ; 0.0 ; 0.0
1 ; 6228.231011071 ; 3800.6599300773123 ; 5573.351263537943 ; 3800.6599300773123 ; 238.00000000000003
2 ; 6818.308013337669 ; 3800.6599300773123 ; 11801.582274608943 ; 7601.319860154625 ; 476.00000000000006
3 ; 7461.856691349487 ; 3800.6599300773123 ; 18619.89028794661 ; 11401.979790231937 ; 714.0000000000001
4 ; 7886.438487652156 ; 3800.6599300773123 ; 26081.7469792961 ; 15202.63972030925 ; 952.0000000000001
5 ; 8361.275087089954 ; 3800.6599300773123 ; 33968.18546694826 ; 19003.29965038656 ; 1190.0000000000002
6 ; 9110.012541615597 ; 3800.6599300773123 ; 42329.46055403821 ; 22803.959580463874 ; 1428.0000000000002
7 ; 9535.412756150421 ; 3800.6599300773123 ; 51439.47309565381 ; 26604.619510541186 ; 1666.0000000000002
8 ; 10330.604123507317 ; 3800.6599300773123 ; 60974.88585180423 ; 30405.2794406185 ; 1904.0000000000002
9 ; 10802.804286087174 ; 3800.6599300773123 ; 71305.48997531155 ; 34205.93937069581 ; 2142.0000000000005
10 ; 11336.107260973235 ; 3800.6599300773123 ; 82108.29426139873 ; 38006.599300773116 ; 2380.0000000000005
11 ; 11837.994768995544 ; 3800.6599300773123 ; 93444.40152237196 ; 41807.259230850425 ; 2618.0000000000005
12 ; 12336.544584167497 ; 3800.6599300773123 ; 105282.3962913675 ; 45607.91916092773 ; 2856.0000000000005
13 ; 12914.50425780873 ; 3800.6599300773123 ; 117618.940875535 ; 49408.57909100504 ; 3094.0000000000005
14 ; 13430.962818443948 ; 3800.6599300773123 ; 130533.44513334373 ; 53209.23902108235 ; 3332.0000000000005
15 ; 13722.88253773107 ; 3800.6599300773123 ; 143964.40795178767 ; 57009.89895115966 ; 3570.0000000000005
16 ; 14234.421350426 ; 3800.6599300773123 ; 157687.29048951872 ; 60810.55888123697 ; 3808.0000000000005
17 ; 14827.944048769023 ; 3800.6599300773123 ; 171921.71183994474 ; 64611.21881131428 ; 4046.0000000000005
18 ; 15228.07034902247 ; 3800.6599300773123 ; 186749.65588871375 ; 68411.87874139159 ; 4284.000000000001
19 ; 15608.34726785814 ; 3800.6599300773123 ; 201977.72623773623 ; 72212.5386714689 ; 4522.000000000001
20 ; 16298.626375159876 ; 3800.6599300773123 ; 217586.07350559437 ; 76013.1986015462 ; 4760.000000000001
21 ; 16822.67929337069 ; 3800.6599300773123 ; 233884.69988075425 ; 79813.85853162351 ; 4998.000000000001
22 ; 17177.649726830954 ; 3800.6599300773123 ; 250707.37917412494 ; 83614.51846170082 ; 5236.000000000001
23 ; 17689.330960718315 ; 3800.6599300773123 ; 267885.0289009559 ; 87415.17839177813 ; 5474.000000000001
24 ; 18054.044634419097 ; 3800.6599300773123 ; 285574.35986167425 ; 91215.83832185544 ; 5712.000000000001
25 ; 18462.45349323075 ; 3800.6599300773123 ; 303628.40449609334 ; 95016.49825193275 ; 5950.000000000001
26 ; 18956.198496784695 ; 3800.6599300773123 ; 322090.8579893241 ; 98817.15818201005 ; 6188.000000000001
27 ; 19339.22406411367 ; 3800.6599300773123 ; 341047.0564861088 ; 102617.81811208736 ; 6426.000000000001
28 ; 19634.879274302068 ; 3800.6599300773123 ; 360386.2805502225 ; 106418.47804216467 ; 6664.000000000001
29 ; 20178.611709243087 ; 3800.6599300773123 ; 380021.15982452454 ; 110219.13797224198 ; 6902.000000000001
30 ; 20416.335905584987 ; 3800.6599300773123 ; 400199.77153376763 ; 114019.79790231929 ; 7140.000000000001
31 ; 21048.85808272559 ; 3800.6599300773123 ; 420616.1074393526 ; 117820.4578323966 ; 7378.000000000001
32 ; 21409.683384763302 ; 3800.6599300773123 ; 441664.9655220782 ; 121621.1177624739 ; 7616.000000000001
33 ; 21579.874939877307 ; 3800.6599300773123 ; 463074.6489068415 ; 125421.77769255122 ; 7854.000000000001
34 ; 22060.509232160388 ; 3800.6599300773123 ; 484654.52384671883 ; 129222.43762262852 ; 8092.000000000001
35 ; 22411.079890653695 ; 3800.6599300773123 ; 506715.03307887923 ; 133023.09755270585 ; 8330.000000000002
36 ; 22798.42745291602 ; 3800.6599300773123 ; 529126.112969533 ; 136823.75748278317 ; 8568.000000000002
37 ; 22914.993130067087 ; 3800.6599300773123 ; 551924.540422449 ; 140624.4174128605 ; 8806.000000000002
38 ; 23425.39122076861 ; 3800.6599300773123 ; 574839.5335525161 ; 144425.07734293782 ; 9044.000000000002
39 ; 23610.613298950408 ; 3800.6599300773123 ; 598264.9247732847 ; 148225.73727301514 ; 9282.000000000002
40 ; 23769.29041066896 ; 3800.6599300773123 ; 621875.5380722351 ; 152026.39720309246 ; 9520.000000000002
41 ; 24267.04808388333 ; 3800.6599300773123 ; 645644.828482904 ; 155827.0571331698 ; 9758.000000000002
42 ; 24697.05157698721 ; 3800.6599300773123 ; 669911.8765667874 ; 159627.7170632471 ; 9996.000000000002
43 ; 24905.14590176125 ; 3800.6599300773123 ; 694608.9281437746 ; 163428.37699332443 ; 10234.000000000002
44 ; 25169.731036299087 ; 3800.6599300773123 ; 719514.0740455359 ; 167229.03692340176 ; 10472.000000000002
45 ; 25379.398188589403 ; 3800.6599300773123 ; 744683.805081835 ; 171029.69685347908 ; 10710.000000000002
46 ; 25742.3853631661 ; 3800.6599300773123 ; 770063.2032704244 ; 174830.3567835564 ; 10948.000000000002
47 ; 26090.66854999341 ; 3800.6599300773123 ; 795805.5886335905 ; 178631.01671363373 ; 11186.000000000002
48 ; 26223.40976046893 ; 3800.6599300773123 ; 821896.2571835839 ; 182431.67664371105 ; 11424.000000000002
49 ; 26455.829784643927 ; 3800.6599300773123 ; 848119.6669440528 ; 186232.33657378837 ; 11662.000000000002
50 ; 26749.894376532684 ; 3800.6599300773123 ; 874575.4967286967 ; 190032.9965038657 ; 11900.000000000002
51 ; 27037.877126102037 ; 3800.6599300773123 ; 901325.3911052294 ; 193833.65643394302 ; 12138.000000000002
52 ; 27065.37591519469 ; 3800.6599300773123 ; 928363.2682313314 ; 197634.31636402034 ; 12376.000000000002
53 ; 27216.41262508485 ; 3800.6599300773123 ; 955428.6441465261 ; 201434.97629409767 ; 12614.000000000002
54 ; 27606.139699424686 ; 3800.6599300773123 ; 982645.056771611 ; 205235.636224175 ; 12852.000000000002
55 ; 27696.45320021152 ; 3800.6599300773123 ; 1010251.1964710357 ; 209036.2961542523 ; 13090.000000000002
56 ; 27944.111908330087 ; 3800.6599300773123 ; 1037947.6496712472 ; 212836.95608432963 ; 13328.000000000002
57 ; 28048.34842376515 ; 3800.6599300773123 ; 1065891.7615795773 ; 216637.61601440696 ; 13566.000000000002
58 ; 28308.205778318723 ; 3800.6599300773123 ; 1093940.1100033424 ; 220438.27594448428 ; 13804.000000000002
59 ; 28547.864742758746 ; 3800.6599300773123 ; 1122248.315781661 ; 224238.9358745616 ; 14042.000000000002
60 ; 28910.763102371395 ; 3800.6599300773123 ; 1150796.1805244198 ; 228039.59580463893 ; 14280.000000000002
61 ; 28587.718198862574 ; 3800.6599300773123 ; 1179706.9436267912 ; 231840.25573471625 ; 14518.000000000002
62 ; 29138.28797831491 ; 3800.6599300773123 ; 1208294.6618256539 ; 235640.91566479357 ; 14756.000000000002
63 ; 29219.03771074882 ; 3800.6599300773123 ; 1237432.949803969 ; 239441.5755948709 ; 14994.000000000002
64 ; 29421.401403456282 ; 3800.6599300773123 ; 1266651.9875147177 ; 243242.23552494822 ; 15232.000000000002
65 ; 29616.84518070475 ; 3800.6599300773123 ; 1296073.388918174 ; 247042.89545502554 ; 15470.000000000002
66 ; 29745.59323214714 ; 3800.6599300773123 ; 1325690.2340988787 ; 250843.55538510287 ; 15708.000000000002
67 ; 29542.718526595785 ; 3800.6599300773123 ; 1355435.8273310259 ; 254644.2153151802 ; 15946.000000000002
68 ; 29917.90873836067 ; 3800.6599300773123 ; 1384978.5458576216 ; 258444.8752452575 ; 16184.000000000002
69 ; 29910.71024872289 ; 3800.6599300773123 ; 1414896.4545959823 ; 262245.53517533484 ; 16422.000000000004
70 ; 30011.489999316156 ; 3800.6599300773123 ; 1444807.1648447053 ; 266046.19510541216 ; 16660.000000000004
71 ; 30100.116986653964 ; 3800.6599300773123 ; 1474818.6548440214 ; 269846.8550354895 ; 16898.000000000004
72 ; 29998.204327886153 ; 3800.6599300773123 ; 1504918.7718306754 ; 273647.5149655668 ; 17136.000000000004
73 ; 30367.10477384557 ; 3800.6599300773123 ; 1534916.9761585617 ; 277448.17489564413 ; 17374.000000000004
74 ; 30130.107438562456 ; 3800.6599300773123 ; 1565284.0809324072 ; 281248.83482572145 ; 17612.000000000004
75 ; 30431.17497640747 ; 3800.6599300773123 ; 1595414.1883709696 ; 285049.4947557988 ; 17850.000000000004
76 ; 30512.314221877976 ; 3800.6599300773123 ; 1625845.3633473772 ; 288850.1546858761 ; 18088.000000000004
77 ; 30400.94150049985 ; 3800.6599300773123 ; 1656357.6775692552 ; 292650.8146159534 ; 18326.000000000004
78 ; 30542.404535588015 ; 3800.6599300773123 ; 1686758.619069755 ; 296451.47454603075 ; 18564.000000000004
79 ; 30562.189432312603 ; 3800.6599300773123 ; 1717301.0236053432 ; 300252.13447610807 ; 18802.000000000004
80 ; 30605.677148987746 ; 3800.6599300773123 ; 1747863.2130376557 ; 304052.7944061854 ; 19040.000000000004
81 ; 30465.795869299858 ; 3800.6599300773123 ; 1778468.8901866435 ; 307853.4543362627 ; 19278.000000000004
82 ; 30725.217482820724 ; 3800.6599300773123 ; 1808934.6860559434 ; 311654.11426634004 ; 19516.000000000004
83 ; 30787.787525924785 ; 3800.6599300773123 ; 1839659.903538764 ; 315454.77419641736 ; 19754.000000000004
84 ; 30409.759045095005 ; 3800.6599300773123 ; 1870447.6910646888 ; 319255.4341264947 ; 19992.000000000004
85 ; 30583.095314035465 ; 3800.6599300773123 ; 1900857.4501097838 ; 323056.094056572 ; 20230.000000000004
86 ; 30533.447585656846 ; 3800.6599300773123 ; 1931440.5454238192 ; 326856.75398664933 ; 20468.000000000004
87 ; 30505.825014347636 ; 3800.6599300773123 ; 1961973.993009476 ; 330657.41391672665 ; 20706.000000000004
88 ; 30512.350659397678 ; 3800.6599300773123 ; 1992479.8180238237 ; 334458.073846804 ; 20944.000000000004
89 ; 30383.06949504054 ; 3800.6599300773123 ; 2022992.1686832213 ; 338258.7337768813 ; 21182.000000000004
90 ; 30185.728120384334 ; 3800.6599300773123 ; 2053375.2381782618 ; 342059.3937069586 ; 21420.000000000004
91 ; 30260.51054398508 ; 3800.6599300773123 ; 2083560.966298646 ; 345860.05363703595 ; 21658.000000000004
92 ; 30200.87421749839 ; 3800.6599300773123 ; 2113821.476842631 ; 349660.7135671133 ; 21896.000000000004
93 ; 30147.60263553321 ; 3800.6599300773123 ; 2144022.3510601297 ; 353461.3734971906 ; 22134.000000000004
94 ; 30227.222008506524 ; 3800.6599300773123 ; 2174169.953695663 ; 357262.0334272679 ; 22372.000000000004
95 ; 29886.89492429863 ; 3800.6599300773123 ; 2204397.175704169 ; 361062.69335734524 ; 22610.000000000004
96 ; 29883.49674351417 ; 3800.6599300773123 ; 2234284.070628468 ; 364863.35328742256 ; 22848.000000000004
97 ; 29821.54937613692 ; 3800.6599300773123 ; 2264167.567371982 ; 368664.0132174999 ; 23086.000000000004
98 ; 29638.601376000533 ; 3800.6599300773123 ; 2293989.1167481192 ; 372464.6731475772 ; 23324.000000000004
99 ; 29472.034113057714 ; 3800.6599300773123 ; 2323627.7181241196 ; 376265.33307765453 ; 23562.000000000004
100 ; 29475.065531032673 ; 3800.6599300773123 ; 2353099.7522371775 ; 380065.99300773186 ; 23800.000000000004
101 ; 28970.91143781148 ; 3800.6599300773123 ; 2382574.81776821 ; 383866.6529378092 ; 24038.000000000004
102 ; 29075.983196346315 ; 3800.6599300773123 ; 2411545.7292060214 ; 387667.3128678865 ; 24276.000000000004
103 ; 28953.275260310143 ; 3800.6599300773123 ; 2440621.7124023675 ; 391467.9727979638 ; 24514.000000000004
104 ; 28743.332591131424 ; 3800.6599300773123 ; 2469574.9876626777 ; 395268.63272804115 ; 24752.000000000004
105 ; 28725.7919608967 ; 3800.6599300773123 ; 2498318.320253809 ; 399069.2926581185 ; 24990.000000000004
106 ; 28758.651073732355 ; 3800.6599300773123 ; 2527044.112214706 ; 402869.9525881958 ; 25228.000000000004
107 ; 28608.156612348856 ; 3800.6599300773123 ; 2555802.7632884383 ; 406670.6125182731 ; 25466.000000000004
108 ; 28234.088094497634 ; 3800.6599300773123 ; 2584410.919900787 ; 410471.27244835044 ; 25704.000000000004
109 ; 27962.763738762103 ; 3800.6599300773123 ; 2612645.0079952846 ; 414271.93237842777 ; 25942.000000000004
110 ; 27697.18184596713 ; 3800.6599300773123 ; 2640607.7717340467 ; 418072.5923085051 ; 26180.000000000004
111 ; 27595.53379374486 ; 3800.6599300773123 ; 2668304.953580014 ; 421873.2522385824 ; 26418.000000000004
112 ; 27329.00829587169 ; 3800.6599300773123 ; 2695900.4873737586 ; 425673.91216865974 ; 26656.000000000004
113 ; 27193.94666154356 ; 3800.6599300773123 ; 2723229.4956696304 ; 429474.57209873706 ; 26894.000000000004
114 ; 26968.83788517425 ; 3800.6599300773123 ; 2750423.442331174 ; 433275.2320288144 ; 27132.000000000004
115 ; 26756.76550201091 ; 3800.6599300773123 ; 2777392.2802163484 ; 437075.8919588917 ; 27370.000000000004
116 ; 26571.265629603156 ; 3800.6599300773123 ; 2804149.0457183593 ; 440876.551888969 ; 27608.000000000004
117 ; 26211.922746160206 ; 3800.6599300773123 ; 2830720.3113479624 ; 444677.21181904635 ; 27846.000000000004
118 ; 25928.50573851999 ; 3800.6599300773123 ; 2856932.2340941224 ; 448477.8717491237 ; 28084.000000000004
119 ; 25639.902069943706 ; 3800.6599300773123 ; 2882860.7398326425 ; 452278.531679201 ; 28322.000000000004
120 ; 25455.125956255823 ; 3800.6599300773123 ; 2908500.641902586 ; 456079.1916092783 ; 28560.000000000004
121 ; 25102.68165554543 ; 3800.6599300773123 ; 2933955.767858842 ; 459879.85153935564 ; 28798.000000000004
122 ; 24687.32946338021 ; 3800.6599300773123 ; 2959058.449514387 ; 463680.51146943297 ; 29036.000000000004
123 ; 24554.26714529999 ; 3800.6599300773123 ; 2983745.7789777676 ; 467481.1713995103 ; 29274.000000000004
124 ; 24122.013971786764 ; 3800.6599300773123 ; 3008300.0461230674 ; 471281.8313295876 ; 29512.000000000004
125 ; 23831.94657631986 ; 3800.6599300773123 ; 3032422.0600948543 ; 475082.49125966494 ; 29750.000000000004
126 ; 23774.213251770634 ; 3800.6599300773123 ; 3056254.006671174 ; 478883.15118974226 ; 29988.000000000004
127 ; 23284.350405688758 ; 3800.6599300773123 ; 3080028.2199229444 ; 482683.8111198196 ; 30226.000000000004
128 ; 23047.791346608006 ; 3800.6599300773123 ; 3103312.5703286333 ; 486484.4710498969 ; 30464.000000000004
129 ; 22490.95010242516 ; 3800.6599300773123 ; 3126360.3616752415 ; 490285.13097997423 ; 30702.000000000004
130 ; 22308.471539257742 ; 3800.6599300773123 ; 3148851.3117776667 ; 494085.79091005155 ; 30940.000000000004
131 ; 21730.829159251185 ; 3800.6599300773123 ; 3171159.7833169242 ; 497886.4508401289 ; 31178.000000000004
132 ; 21539.670518614163 ; 3800.6599300773123 ; 3192890.6124761757 ; 501687.1107702062 ; 31416.000000000004
133 ; 21214.506675947065 ; 3800.6599300773123 ; 3214430.28299479 ; 505487.7707002835 ; 31654.000000000004
134 ; 20544.824369845544 ; 3800.6599300773123 ; 3235644.789670737 ; 509288.43063036085 ; 31892.000000000004
135 ; 20393.17986450106 ; 3800.6599300773123 ; 3256189.6140405824 ; 513089.09056043817 ; 32130.000000000004
136 ; 20064.760267334597 ; 3800.6599300773123 ; 3276582.7939050836 ; 516889.7504905155 ; 32368.000000000004
137 ; 19605.91851220393 ; 3800.6599300773123 ; 3296647.554172418 ; 520690.4104205928 ; 32606.000000000004
138 ; 19227.43102542351 ; 3800.6599300773123 ; 3316253.472684622 ; 524491.0703506701 ; 32844.00000000001
139 ; 18937.32835728087 ; 3800.6599300773123 ; 3335480.9037100454 ; 528291.7302807474 ; 33082.00000000001
140 ; 18411.406463704672 ; 3800.6599300773123 ; 3354418.232067326 ; 532092.3902108247 ; 33320.00000000001
141 ; 17931.28625445477 ; 3800.6599300773123 ; 3372829.6385310306 ; 535893.0501409019 ; 33558.00000000001
142 ; 17569.743978986608 ; 3800.6599300773123 ; 3390760.9247854855 ; 539693.7100709792 ; 33796.00000000001
143 ; 17089.118642016256 ; 3800.6599300773123 ; 3408330.668764472 ; 543494.3700010565 ; 34034.00000000001
144 ; 16667.252167494495 ; 3800.6599300773123 ; 3425419.7874064883 ; 547295.0299311337 ; 34272.00000000001
145 ; 16513.19397659102 ; 3800.6599300773123 ; 3442087.039573983 ; 551095.689861211 ; 34510.00000000001
146 ; 16209.864258369358 ; 3800.6599300773123 ; 3458600.2335505737 ; 554896.3497912883 ; 34748.00000000001
147 ; 16052.143672000324 ; 3800.6599300773123 ; 3474810.097808943 ; 558697.0097213655 ; 34986.00000000001
148 ; 16252.932974462312 ; 3800.6599300773123 ; 3490862.2414809433 ; 562497.6696514428 ; 35224.00000000001
149 ; 15989.992689031298 ; 3800.6599300773123 ; 3507115.1744554057 ; 566298.32958152 ; 35462.00000000001
150 ; 15844.190760979864 ; 3800.6599300773123 ; 3523105.167144437 ; 570098.9895115973 ; 35700.00000000001
151 ; 15830.083921686111 ; 3800.6599300773123 ; 3538949.3579054167 ; 573899.6494416746 ; 35938.00000000001
152 ; 15569.2650022883 ; 3800.6599300773123 ; 3554779.441827103 ; 577700.3093717518 ; 36176.00000000001
153 ; 15383.92987395396 ; 3800.6599300773123 ; 3570348.7068293914 ; 581500.9693018291 ; 36414.00000000001
154 ; 15267.237746456505 ; 3800.6599300773123 ; 3585732.6367033455 ; 585301.6292319064 ; 36652.00000000001
155 ; 15100.605595608575 ; 3800.6599300773123 ; 3600999.874449802 ; 589102.2891619836 ; 36890.00000000001
156 ; 14807.981739609388 ; 3800.6599300773123 ; 3616100.480045411 ; 592902.9490920609 ; 37128.00000000001
157 ; 14812.20404744031 ; 3800.6599300773123 ; 3630908.4617850203 ; 596703.6090221382 ; 37366.00000000001
158 ; 14716.67483197473 ; 3800.6599300773123 ; 3645720.6658324604 ; 600504.2689522154 ; 37604.00000000001
159 ; 14598.219664122487 ; 3800.6599300773123 ; 3660437.340664435 ; 604304.9288822927 ; 37842.00000000001
160 ; 14416.289868509757 ; 3800.6599300773123 ; 3675035.5603285576 ; 608105.58881237 ; 38080.00000000001
161 ; 14040.076350318623 ; 3800.6599300773123 ; 3689451.8501970675 ; 611906.2487424472 ; 38318.00000000001
162 ; 13972.691625116819 ; 3800.6599300773123 ; 3703491.926547386 ; 615706.9086725245 ; 38556.00000000001
163 ; 13748.400936237394 ; 3800.6599300773123 ; 3717464.618172503 ; 619507.5686026018 ; 38794.00000000001
164 ; 13652.83729905528 ; 3800.6599300773123 ; 3731213.0191087406 ; 623308.228532679 ; 39032.00000000001
165 ; 13400.331757786385 ; 3800.6599300773123 ; 3744865.856407796 ; 627108.8884627563 ; 39270.00000000001
166 ; 13347.724855573171 ; 3800.6599300773123 ; 3758266.1881655823 ; 630909.5483928336 ; 39508.00000000001
167 ; 13119.375739634614 ; 3800.6599300773123 ; 3771613.9130211556 ; 634710.2083229108 ; 39746.00000000001
168 ; 12840.150461177478 ; 3800.6599300773123 ; 3784733.28876079 ; 638510.8682529881 ; 39984.00000000001
169 ; 12615.191409132785 ; 3800.6599300773123 ; 3797573.4392219675 ; 642311.5281830654 ; 40222.00000000001
170 ; 12489.312654804799 ; 3800.6599300773123 ; 3810188.6306311004 ; 646112.1881131426 ; 40460.00000000001
171 ; 12288.012640890205 ; 3800.6599300773123 ; 3822677.9432859053 ; 649912.8480432199 ; 40698.00000000001
172 ; 12276.9965626251 ; 3800.6599300773123 ; 3834965.9559267955 ; 653713.5079732971 ; 40936.00000000001
173 ; 11892.543142053772 ; 3800.6599300773123 ; 3847242.952489421 ; 657514.1679033744 ; 41174.00000000001
174 ; 12097.07238792966 ; 3800.6599300773123 ; 3859135.4956314745 ; 661314.8278334517 ; 41412.00000000001
175 ; 12080.623380353472 ; 3800.6599300773123 ; 3871232.568019404 ; 665115.487763529 ; 41650.00000000001
176 ; 12158.246047868031 ; 3800.6599300773123 ; 3883313.1913997578 ; 668916.1476936062 ; 41888.00000000001
177 ; 12114.114511228832 ; 3800.6599300773123 ; 3895471.4374476257 ; 672716.8076236835 ; 42126.00000000001
178 ; 12113.260561359328 ; 3800.6599300773123 ; 3907585.5519588543 ; 676517.4675537607 ; 42364.00000000001
179 ; 12270.40945506641 ; 3800.6599300773123 ; 3919698.8125202134 ; 680318.127483838 ; 42602.00000000001
180 ; 12368.013680239648 ; 3800.6599300773123 ; 3931969.22197528 ; 684118.7874139153 ; 42840.00000000001
181 ; 12313.837465946574 ; 3800.6599300773123 ; 3944337.2356555196 ; 687919.4473439925 ; 43078.00000000001
182 ; 12461.605782684588 ; 3800.6599300773123 ; 3956651.073121466 ; 691720.1072740698 ; 43316.00000000001
183 ; 12373.214514393008 ; 3800.6599300773123 ; 3969112.6789041506 ; 695520.7672041471 ; 43554.00000000001
184 ; 12362.32272678172 ; 3800.6599300773123 ; 3981485.8934185435 ; 699321.4271342243 ; 43792.00000000001
