CSV File for the City 1 on Day 255
1 - Minute m 
2 - Power Consumed at minute m 
3 - Power Produced at minute m 
4 - Energy Consumed since the beginning of the day 
5 - Energy Produced since the beginning of the day 
6 - Energy Lost since the beginning of the day on lines starting from the city
 
0 ; 6266.455618386326 ; 3020.0588897035595 ; 0.0 ; 0.0 ; 0.0
1 ; 6875.929216667577 ; 3020.0588897035595 ; 6266.455618386326 ; 3020.0588897035595 ; 238.00000000000003
2 ; 7499.648971555911 ; 3020.0588897035595 ; 13142.384835053903 ; 6040.117779407119 ; 476.00000000000006
3 ; 8123.977391099336 ; 3020.0588897035595 ; 20642.033806609812 ; 9060.176669110679 ; 714.0000000000001
4 ; 8506.289518155078 ; 3020.0588897035595 ; 28766.011197709147 ; 12080.235558814238 ; 952.0000000000001
5 ; 9167.471149320416 ; 3020.0588897035595 ; 37272.30071586423 ; 15100.294448517798 ; 1190.0000000000002
6 ; 9585.783596837398 ; 3020.0588897035595 ; 46439.771865184644 ; 18120.353338221357 ; 1428.0000000000002
7 ; 10357.389581362007 ; 3020.0588897035595 ; 56025.55546202204 ; 21140.412227924917 ; 1666.0000000000002
8 ; 10669.925553724475 ; 3020.0588897035595 ; 66382.94504338405 ; 24160.471117628476 ; 1904.0000000000002
9 ; 11161.421790722457 ; 3020.0588897035595 ; 77052.87059710853 ; 27180.530007332036 ; 2142.0000000000005
10 ; 11578.634244286442 ; 3020.0588897035595 ; 88214.29238783098 ; 30200.588897035595 ; 2380.0000000000005
11 ; 12052.533134063498 ; 3020.0588897035595 ; 99792.92663211742 ; 33220.64778673915 ; 2618.0000000000005
12 ; 12500.245322529878 ; 3020.0588897035595 ; 111845.45976618092 ; 36240.706676442715 ; 2856.0000000000005
13 ; 13081.386479549295 ; 3020.0588897035595 ; 124345.7050887108 ; 39260.76556614628 ; 3094.0000000000005
14 ; 13609.53103635041 ; 3020.0588897035595 ; 137427.0915682601 ; 42280.82445584984 ; 3332.0000000000005
15 ; 13960.79046118068 ; 3020.0588897035595 ; 151036.62260461051 ; 45300.883345553404 ; 3570.0000000000005
16 ; 14434.45011265442 ; 3020.0588897035595 ; 164997.4130657912 ; 48320.94223525697 ; 3808.0000000000005
17 ; 14833.694443583961 ; 3020.0588897035595 ; 179431.8631784456 ; 51341.00112496053 ; 4046.0000000000005
18 ; 15404.103555884556 ; 3020.0588897035595 ; 194265.55762202956 ; 54361.06001466409 ; 4284.000000000001
19 ; 16017.881544107278 ; 3020.0588897035595 ; 209669.66117791412 ; 57381.11890436766 ; 4522.000000000001
20 ; 16193.696479232376 ; 3020.0588897035595 ; 225687.5427220214 ; 60401.17779407122 ; 4760.000000000001
21 ; 16819.767484565626 ; 3020.0588897035595 ; 241881.23920125377 ; 63421.23668377478 ; 4998.000000000001
22 ; 17020.767478219386 ; 3020.0588897035595 ; 258701.0066858194 ; 66441.29557347835 ; 5236.000000000001
23 ; 17324.138282815202 ; 3020.0588897035595 ; 275721.77416403877 ; 69461.35446318191 ; 5474.000000000001
24 ; 17695.1595917586 ; 3020.0588897035595 ; 293045.912446854 ; 72481.41335288547 ; 5712.000000000001
25 ; 18283.250849240845 ; 3020.0588897035595 ; 310741.0720386126 ; 75501.47224258904 ; 5950.000000000001
26 ; 18545.363268231482 ; 3020.0588897035595 ; 329024.3228878535 ; 78521.5311322926 ; 6188.000000000001
27 ; 18800.17766886461 ; 3020.0588897035595 ; 347569.686156085 ; 81541.59002199616 ; 6426.000000000001
28 ; 19449.482069327954 ; 3020.0588897035595 ; 366369.8638249496 ; 84561.64891169973 ; 6664.000000000001
29 ; 19709.7530467233 ; 3020.0588897035595 ; 385819.34589427756 ; 87581.70780140329 ; 6902.000000000001
30 ; 20046.25510844363 ; 3020.0588897035595 ; 405529.0989410009 ; 90601.76669110685 ; 7140.000000000001
31 ; 20506.33087211201 ; 3020.0588897035595 ; 425575.3540494445 ; 93621.82558081041 ; 7378.000000000001
32 ; 20865.243206353676 ; 3020.0588897035595 ; 446081.6849215565 ; 96641.88447051398 ; 7616.000000000001
33 ; 21030.601078188425 ; 3020.0588897035595 ; 466946.9281279102 ; 99661.94336021754 ; 7854.000000000001
34 ; 21262.952736278978 ; 3020.0588897035595 ; 487977.52920609864 ; 102682.0022499211 ; 8092.000000000001
35 ; 21570.94804691164 ; 3020.0588897035595 ; 509240.48194237764 ; 105702.06113962467 ; 8330.000000000002
36 ; 21962.166035573297 ; 3020.0588897035595 ; 530811.4299892893 ; 108722.12002932823 ; 8568.000000000002
37 ; 22370.733294647776 ; 3020.0588897035595 ; 552773.5960248626 ; 111742.1789190318 ; 8806.000000000002
38 ; 22801.480457083904 ; 3020.0588897035595 ; 575144.3293195104 ; 114762.23780873536 ; 9044.000000000002
39 ; 23137.11752761869 ; 3020.0588897035595 ; 597945.8097765943 ; 117782.29669843892 ; 9282.000000000002
40 ; 23363.76935842706 ; 3020.0588897035595 ; 621082.9273042129 ; 120802.35558814248 ; 9520.000000000002
41 ; 23484.724114427583 ; 3020.0588897035595 ; 644446.69666264 ; 123822.41447784605 ; 9758.000000000002
42 ; 23911.284558049712 ; 3020.0588897035595 ; 667931.4207770675 ; 126842.47336754961 ; 9996.000000000002
43 ; 24016.913419573644 ; 3020.0588897035595 ; 691842.7053351173 ; 129862.53225725317 ; 10234.000000000002
44 ; 24355.567072148613 ; 3020.0588897035595 ; 715859.618754691 ; 132882.59114695672 ; 10472.000000000002
45 ; 24718.963355116655 ; 3020.0588897035595 ; 740215.1858268396 ; 135902.65003666028 ; 10710.000000000002
46 ; 24701.444243483198 ; 3020.0588897035595 ; 764934.1491819563 ; 138922.70892636385 ; 10948.000000000002
47 ; 25257.016850507145 ; 3020.0588897035595 ; 789635.5934254396 ; 141942.7678160674 ; 11186.000000000002
48 ; 25379.21905963007 ; 3020.0588897035595 ; 814892.6102759467 ; 144962.82670577097 ; 11424.000000000002
49 ; 25657.197179227187 ; 3020.0588897035595 ; 840271.8293355767 ; 147982.88559547454 ; 11662.000000000002
50 ; 25750.831061346576 ; 3020.0588897035595 ; 865929.0265148039 ; 151002.9444851781 ; 11900.000000000002
51 ; 26106.94406155673 ; 3020.0588897035595 ; 891679.8575761504 ; 154023.00337488166 ; 12138.000000000002
52 ; 26438.745827604445 ; 3020.0588897035595 ; 917786.8016377072 ; 157043.06226458523 ; 12376.000000000002
53 ; 26503.478786355885 ; 3020.0588897035595 ; 944225.5474653116 ; 160063.1211542888 ; 12614.000000000002
54 ; 26767.64778433466 ; 3020.0588897035595 ; 970729.0262516675 ; 163083.18004399235 ; 12852.000000000002
55 ; 26748.658224312985 ; 3020.0588897035595 ; 997496.6740360021 ; 166103.23893369592 ; 13090.000000000002
56 ; 27084.53335714542 ; 3020.0588897035595 ; 1024245.3322603151 ; 169123.29782339948 ; 13328.000000000002
57 ; 26958.573924973836 ; 3020.0588897035595 ; 1051329.8656174606 ; 172143.35671310304 ; 13566.000000000002
58 ; 27288.470271113474 ; 3020.0588897035595 ; 1078288.4395424344 ; 175163.4156028066 ; 13804.000000000002
59 ; 27559.04229024965 ; 3020.0588897035595 ; 1105576.909813548 ; 178183.47449251017 ; 14042.000000000002
60 ; 27699.375220272286 ; 3020.0588897035595 ; 1133135.9521037976 ; 181203.53338221373 ; 14280.000000000002
61 ; 27655.519524408784 ; 3020.0588897035595 ; 1160835.3273240698 ; 184223.5922719173 ; 14518.000000000002
62 ; 28000.514339605124 ; 3020.0588897035595 ; 1188490.8468484785 ; 187243.65116162086 ; 14756.000000000002
63 ; 28132.06647480406 ; 3020.0588897035595 ; 1216491.3611880837 ; 190263.71005132442 ; 14994.000000000002
64 ; 28265.725539037954 ; 3020.0588897035595 ; 1244623.4276628876 ; 193283.76894102799 ; 15232.000000000002
65 ; 28382.343504523127 ; 3020.0588897035595 ; 1272889.1532019256 ; 196303.82783073155 ; 15470.000000000002
66 ; 28555.85462640568 ; 3020.0588897035595 ; 1301271.4967064487 ; 199323.8867204351 ; 15708.000000000002
67 ; 28680.496671762037 ; 3020.0588897035595 ; 1329827.3513328545 ; 202343.94561013867 ; 15946.000000000002
68 ; 28459.669714506043 ; 3020.0588897035595 ; 1358507.8480046166 ; 205364.00449984224 ; 16184.000000000002
69 ; 28497.419526033456 ; 3020.0588897035595 ; 1386967.5177191226 ; 208384.0633895458 ; 16422.000000000004
70 ; 28750.23353895601 ; 3020.0588897035595 ; 1415464.9372451562 ; 211404.12227924936 ; 16660.000000000004
71 ; 28987.659226712894 ; 3020.0588897035595 ; 1444215.170784112 ; 214424.18116895293 ; 16898.000000000004
72 ; 28922.358809699082 ; 3020.0588897035595 ; 1473202.830010825 ; 217444.2400586565 ; 17136.000000000004
73 ; 29013.052489559588 ; 3020.0588897035595 ; 1502125.1888205241 ; 220464.29894836005 ; 17374.000000000004
74 ; 29276.915749958072 ; 3020.0588897035595 ; 1531138.2413100838 ; 223484.35783806362 ; 17612.000000000004
75 ; 29240.60240564866 ; 3020.0588897035595 ; 1560415.1570600418 ; 226504.41672776718 ; 17850.000000000004
76 ; 29223.79914928187 ; 3020.0588897035595 ; 1589655.7594656905 ; 229524.47561747074 ; 18088.000000000004
77 ; 29298.169047483636 ; 3020.0588897035595 ; 1618879.5586149723 ; 232544.5345071743 ; 18326.000000000004
78 ; 29152.767327521684 ; 3020.0588897035595 ; 1648177.727662456 ; 235564.59339687787 ; 18564.000000000004
79 ; 29264.476542854853 ; 3020.0588897035595 ; 1677330.4949899777 ; 238584.65228658143 ; 18802.000000000004
80 ; 29334.440362346366 ; 3020.0588897035595 ; 1706594.9715328326 ; 241604.711176285 ; 19040.000000000004
81 ; 29273.92177518032 ; 3020.0588897035595 ; 1735929.411895179 ; 244624.77006598856 ; 19278.000000000004
82 ; 29336.86856106534 ; 3020.0588897035595 ; 1765203.3336703593 ; 247644.82895569212 ; 19516.000000000004
83 ; 29061.592539267003 ; 3020.0588897035595 ; 1794540.2022314246 ; 250664.8878453957 ; 19754.000000000004
84 ; 29156.96318154083 ; 3020.0588897035595 ; 1823601.7947706915 ; 253684.94673509925 ; 19992.000000000004
85 ; 29069.106646106382 ; 3020.0588897035595 ; 1852758.7579522324 ; 256705.0056248028 ; 20230.000000000004
86 ; 29191.505540830265 ; 3020.0588897035595 ; 1881827.8645983387 ; 259725.06451450638 ; 20468.000000000004
87 ; 29282.412237494613 ; 3020.0588897035595 ; 1911019.370139169 ; 262745.1234042099 ; 20706.000000000004
88 ; 29326.532518811426 ; 3020.0588897035595 ; 1940301.7823766638 ; 265765.18229391344 ; 20944.000000000004
89 ; 29263.04042167131 ; 3020.0588897035595 ; 1969628.3148954753 ; 268785.241183617 ; 21182.000000000004
90 ; 29006.32798327862 ; 3020.0588897035595 ; 1998891.3553171465 ; 271805.3000733205 ; 21420.000000000004
91 ; 29194.67439697193 ; 3020.0588897035595 ; 2027897.683300425 ; 274825.35896302405 ; 21658.000000000004
92 ; 28917.55184687949 ; 3020.0588897035595 ; 2057092.357697397 ; 277845.4178527276 ; 21896.000000000004
93 ; 28966.94789559516 ; 3020.0588897035595 ; 2086009.9095442765 ; 280865.4767424311 ; 22134.000000000004
94 ; 28753.809550855694 ; 3020.0588897035595 ; 2114976.857439872 ; 283885.53563213465 ; 22372.000000000004
95 ; 28648.466603263198 ; 3020.0588897035595 ; 2143730.6669907277 ; 286905.5945218382 ; 22610.000000000004
96 ; 28783.631726710668 ; 3020.0588897035595 ; 2172379.133593991 ; 289925.6534115417 ; 22848.000000000004
97 ; 28638.468527776426 ; 3020.0588897035595 ; 2201162.7653207015 ; 292945.71230124525 ; 23086.000000000004
98 ; 28517.901530554773 ; 3020.0588897035595 ; 2229801.233848478 ; 295965.7711909488 ; 23324.000000000004
99 ; 28326.815866638408 ; 3020.0588897035595 ; 2258319.135379033 ; 298985.8300806523 ; 23562.000000000004
100 ; 28247.568224573268 ; 3020.0588897035595 ; 2286645.9512456716 ; 302005.88897035585 ; 23800.000000000004
101 ; 28180.10786670214 ; 3020.0588897035595 ; 2314893.5194702446 ; 305025.9478600594 ; 24038.000000000004
102 ; 27940.432171105844 ; 3020.0588897035595 ; 2343073.627336947 ; 308046.0067497629 ; 24276.000000000004
103 ; 27910.78989528273 ; 3020.0588897035595 ; 2371014.0595080527 ; 311066.06563946645 ; 24514.000000000004
104 ; 27737.116306706135 ; 3020.0588897035595 ; 2398924.8494033352 ; 314086.12452917 ; 24752.000000000004
105 ; 27486.33107450692 ; 3020.0588897035595 ; 2426661.9657100416 ; 317106.1834188735 ; 24990.000000000004
106 ; 27413.871110832693 ; 3020.0588897035595 ; 2454148.2967845486 ; 320126.24230857706 ; 25228.000000000004
107 ; 27257.676019389783 ; 3020.0588897035595 ; 2481562.1678953813 ; 323146.3011982806 ; 25466.000000000004
108 ; 27110.23885575477 ; 3020.0588897035595 ; 2508819.843914771 ; 326166.3600879841 ; 25704.000000000004
109 ; 26888.024416029974 ; 3020.0588897035595 ; 2535930.082770526 ; 329186.41897768766 ; 25942.000000000004
110 ; 26729.55212456421 ; 3020.0588897035595 ; 2562818.107186556 ; 332206.4778673912 ; 26180.000000000004
111 ; 26555.53621617292 ; 3020.0588897035595 ; 2589547.65931112 ; 335226.5367570947 ; 26418.000000000004
112 ; 26315.313516917817 ; 3020.0588897035595 ; 2616103.195527293 ; 338246.59564679826 ; 26656.000000000004
113 ; 26302.234892837034 ; 3020.0588897035595 ; 2642418.5090442104 ; 341266.6545365018 ; 26894.000000000004
114 ; 25887.327237428464 ; 3020.0588897035595 ; 2668720.7439370477 ; 344286.71342620533 ; 27132.000000000004
115 ; 25839.824604774643 ; 3020.0588897035595 ; 2694608.0711744763 ; 347306.77231590886 ; 27370.000000000004
116 ; 25639.987790196978 ; 3020.0588897035595 ; 2720447.895779251 ; 350326.8312056124 ; 27608.000000000004
117 ; 25211.939282217394 ; 3020.0588897035595 ; 2746087.8835694483 ; 353346.89009531593 ; 27846.000000000004
118 ; 24918.41134531497 ; 3020.0588897035595 ; 2771299.822851666 ; 356366.94898501947 ; 28084.000000000004
119 ; 24845.2972616765 ; 3020.0588897035595 ; 2796218.234196981 ; 359387.007874723 ; 28322.000000000004
120 ; 24491.986969649897 ; 3020.0588897035595 ; 2821063.5314586572 ; 362407.06676442653 ; 28560.000000000004
121 ; 24437.590666469016 ; 3020.0588897035595 ; 2845555.518428307 ; 365427.12565413007 ; 28798.000000000004
122 ; 23805.368993520024 ; 3020.0588897035595 ; 2869993.109094776 ; 368447.1845438336 ; 29036.000000000004
123 ; 23676.644983473197 ; 3020.0588897035595 ; 2893798.478088296 ; 371467.24343353714 ; 29274.000000000004
124 ; 23376.19996722258 ; 3020.0588897035595 ; 2917475.1230717693 ; 374487.30232324067 ; 29512.000000000004
125 ; 23249.344041042452 ; 3020.0588897035595 ; 2940851.323038992 ; 377507.3612129442 ; 29750.000000000004
126 ; 22726.793419159127 ; 3020.0588897035595 ; 2964100.6670800345 ; 380527.42010264774 ; 29988.000000000004
127 ; 22551.635529785715 ; 3020.0588897035595 ; 2986827.4604991935 ; 383547.4789923513 ; 30226.000000000004
128 ; 22202.2949764704 ; 3020.0588897035595 ; 3009379.0960289794 ; 386567.5378820548 ; 30464.000000000004
129 ; 21876.172080022796 ; 3020.0588897035595 ; 3031581.39100545 ; 389587.59677175834 ; 30702.000000000004
130 ; 21771.73302076529 ; 3020.0588897035595 ; 3053457.5630854727 ; 392607.6556614619 ; 30940.000000000004
131 ; 21271.064967356702 ; 3020.0588897035595 ; 3075229.296106238 ; 395627.7145511654 ; 31178.000000000004
132 ; 20988.44976059172 ; 3020.0588897035595 ; 3096500.3610735945 ; 398647.77344086894 ; 31416.000000000004
133 ; 20790.547948671676 ; 3020.0588897035595 ; 3117488.810834186 ; 401667.8323305725 ; 31654.000000000004
134 ; 20362.83142056611 ; 3020.0588897035595 ; 3138279.3587828577 ; 404687.891220276 ; 31892.000000000004
135 ; 19837.98646283026 ; 3020.0588897035595 ; 3158642.1902034236 ; 407707.95010997955 ; 32130.000000000004
136 ; 19669.520730593576 ; 3020.0588897035595 ; 3178480.1766662537 ; 410728.0089996831 ; 32368.000000000004
137 ; 19304.994145538803 ; 3020.0588897035595 ; 3198149.6973968474 ; 413748.0678893866 ; 32606.000000000004
138 ; 18664.964771265364 ; 3020.0588897035595 ; 3217454.691542386 ; 416768.12677909015 ; 32844.00000000001
139 ; 18412.0101435465 ; 3020.0588897035595 ; 3236119.6563136512 ; 419788.1856687937 ; 33082.00000000001
140 ; 18064.620460652204 ; 3020.0588897035595 ; 3254531.6664571976 ; 422808.2445584972 ; 33320.00000000001
141 ; 17777.074717538235 ; 3020.0588897035595 ; 3272596.28691785 ; 425828.30344820075 ; 33558.00000000001
142 ; 17166.036478912378 ; 3020.0588897035595 ; 3290373.3616353883 ; 428848.3623379043 ; 33796.00000000001
143 ; 16910.560304314833 ; 3020.0588897035595 ; 3307539.398114301 ; 431868.4212276078 ; 34034.00000000001
144 ; 16287.816768450179 ; 3020.0588897035595 ; 3324449.9584186156 ; 434888.48011731135 ; 34272.00000000001
145 ; 16352.785460467148 ; 3020.0588897035595 ; 3340737.775187066 ; 437908.5390070149 ; 34510.00000000001
146 ; 16274.211443798016 ; 3020.0588897035595 ; 3357090.560647533 ; 440928.5978967184 ; 34748.00000000001
147 ; 16121.18316462838 ; 3020.0588897035595 ; 3373364.772091331 ; 443948.65678642195 ; 34986.00000000001
148 ; 16103.860030233238 ; 3020.0588897035595 ; 3389485.955255959 ; 446968.7156761255 ; 35224.00000000001
149 ; 15751.022125415795 ; 3020.0588897035595 ; 3405589.8152861926 ; 449988.774565829 ; 35462.00000000001
150 ; 15679.224383295024 ; 3020.0588897035595 ; 3421340.8374116085 ; 453008.83345553256 ; 35700.00000000001
151 ; 15763.419815937124 ; 3020.0588897035595 ; 3437020.0617949036 ; 456028.8923452361 ; 35938.00000000001
152 ; 15564.01070883428 ; 3020.0588897035595 ; 3452783.4816108407 ; 459048.9512349396 ; 36176.00000000001
153 ; 15477.573926533998 ; 3020.0588897035595 ; 3468347.492319675 ; 462069.01012464316 ; 36414.00000000001
154 ; 15280.394221258939 ; 3020.0588897035595 ; 3483825.066246209 ; 465089.0690143467 ; 36652.00000000001
155 ; 15060.89944203452 ; 3020.0588897035595 ; 3499105.460467468 ; 468109.1279040502 ; 36890.00000000001
156 ; 14876.54743500437 ; 3020.0588897035595 ; 3514166.3599095023 ; 471129.18679375376 ; 37128.00000000001
157 ; 14541.490935760903 ; 3020.0588897035595 ; 3529042.9073445066 ; 474149.2456834573 ; 37366.00000000001
158 ; 14515.040284813467 ; 3020.0588897035595 ; 3543584.3982802676 ; 477169.3045731608 ; 37604.00000000001
159 ; 14559.302972801464 ; 3020.0588897035595 ; 3558099.438565081 ; 480189.36346286436 ; 37842.00000000001
160 ; 14428.808704967192 ; 3020.0588897035595 ; 3572658.7415378825 ; 483209.4223525679 ; 38080.00000000001
161 ; 14202.505771701186 ; 3020.0588897035595 ; 3587087.5502428496 ; 486229.48124227143 ; 38318.00000000001
162 ; 13938.450581922476 ; 3020.0588897035595 ; 3601290.056014551 ; 489249.54013197497 ; 38556.00000000001
163 ; 13879.261578090342 ; 3020.0588897035595 ; 3615228.5065964735 ; 492269.5990216785 ; 38794.00000000001
164 ; 13844.664068025037 ; 3020.0588897035595 ; 3629107.768174564 ; 495289.65791138203 ; 39032.00000000001
165 ; 13476.550554041214 ; 3020.0588897035595 ; 3642952.432242589 ; 498309.71680108557 ; 39270.00000000001
166 ; 13541.759720085342 ; 3020.0588897035595 ; 3656428.9827966304 ; 501329.7756907891 ; 39508.00000000001
167 ; 13263.72926011432 ; 3020.0588897035595 ; 3669970.7425167155 ; 504349.83458049264 ; 39746.00000000001
168 ; 13135.251174568402 ; 3020.0588897035595 ; 3683234.47177683 ; 507369.89347019617 ; 39984.00000000001
169 ; 12920.96823537918 ; 3020.0588897035595 ; 3696369.722951398 ; 510389.9523598997 ; 40222.00000000001
170 ; 12770.936678831566 ; 3020.0588897035595 ; 3709290.6911867773 ; 513410.01124960324 ; 40460.00000000001
171 ; 12454.611194310724 ; 3020.0588897035595 ; 3722061.627865609 ; 516430.0701393068 ; 40698.00000000001
172 ; 12518.646981778511 ; 3020.0588897035595 ; 3734516.2390599195 ; 519450.1290290103 ; 40936.00000000001
173 ; 12128.929535994988 ; 3020.0588897035595 ; 3747034.886041698 ; 522470.18791871384 ; 41174.00000000001
174 ; 12429.017830534121 ; 3020.0588897035595 ; 3759163.815577693 ; 525490.2468084174 ; 41412.00000000001
175 ; 12615.628559711397 ; 3020.0588897035595 ; 3771592.8334082267 ; 528510.305698121 ; 41650.00000000001
176 ; 12133.962749260267 ; 3020.0588897035595 ; 3784208.461967938 ; 531530.3645878246 ; 41888.00000000001
177 ; 12466.849294016018 ; 3020.0588897035595 ; 3796342.4247171986 ; 534550.4234775282 ; 42126.00000000001
178 ; 12564.66807602774 ; 3020.0588897035595 ; 3808809.2740112147 ; 537570.4823672317 ; 42364.00000000001
179 ; 12400.523139395724 ; 3020.0588897035595 ; 3821373.9420872424 ; 540590.5412569353 ; 42602.00000000001
180 ; 12475.211536632503 ; 3020.0588897035595 ; 3833774.465226638 ; 543610.6001466389 ; 42840.00000000001
181 ; 12439.730039117503 ; 3020.0588897035595 ; 3846249.6767632705 ; 546630.6590363425 ; 43078.00000000001
182 ; 12625.007609421797 ; 3020.0588897035595 ; 3858689.406802388 ; 549650.7179260461 ; 43316.00000000001
183 ; 12647.267529942368 ; 3020.0588897035595 ; 3871314.4144118098 ; 552670.7768157497 ; 43554.00000000001
184 ; 12936.179974553217 ; 3020.0588897035595 ; 3883961.6819417523 ; 555690.8357054533 ; 43792.00000000001
