CSV File for the City 1 on Day 181
1 - Minute m 
2 - Power Consumed at minute m 
3 - Power Produced at minute m 
4 - Energy Consumed since the beginning of the day 
5 - Energy Produced since the beginning of the day 
6 - Energy Lost since the beginning of the day on lines starting from the city
 
0 ; 6267.240189490025 ; 3227.236003049784 ; 0.0 ; 0.0 ; 0.0
1 ; 6789.7294547809 ; 3227.236003049784 ; 6267.240189490025 ; 3227.236003049784 ; 238.00000000000003
2 ; 7217.708406072707 ; 3227.236003049784 ; 13056.969644270925 ; 6454.472006099568 ; 476.00000000000006
3 ; 7847.846019820511 ; 3227.236003049784 ; 20274.67805034363 ; 9681.708009149352 ; 714.0000000000001
4 ; 8458.969026046097 ; 3227.236003049784 ; 28122.52407016414 ; 12908.944012199136 ; 952.0000000000001
5 ; 8785.351996081708 ; 3227.236003049784 ; 36581.49309621024 ; 16136.18001524892 ; 1190.0000000000002
6 ; 9454.833848248516 ; 3227.236003049784 ; 45366.845092291944 ; 19363.416018298703 ; 1428.0000000000002
7 ; 9721.249083580335 ; 3227.236003049784 ; 54821.678940540456 ; 22590.652021348487 ; 1666.0000000000002
8 ; 10449.907924997678 ; 3227.236003049784 ; 64542.92802412079 ; 25817.88802439827 ; 1904.0000000000002
9 ; 10896.077920573369 ; 3227.236003049784 ; 74992.83594911847 ; 29045.124027448055 ; 2142.0000000000005
10 ; 11519.81674031559 ; 3227.236003049784 ; 85888.91386969184 ; 32272.36003049784 ; 2380.0000000000005
11 ; 11977.023878156104 ; 3227.236003049784 ; 97408.73061000742 ; 35499.59603354763 ; 2618.0000000000005
12 ; 12406.058013629925 ; 3227.236003049784 ; 109385.75448816353 ; 38726.83203659741 ; 2856.0000000000005
13 ; 13161.193798053291 ; 3227.236003049784 ; 121791.81250179345 ; 41954.06803964719 ; 3094.0000000000005
14 ; 13550.31880925836 ; 3227.236003049784 ; 134953.00629984675 ; 45181.30404269697 ; 3332.0000000000005
15 ; 13825.179863811618 ; 3227.236003049784 ; 148503.32510910512 ; 48408.54004574675 ; 3570.0000000000005
16 ; 14538.173867043586 ; 3227.236003049784 ; 162328.50497291674 ; 51635.77604879653 ; 3808.0000000000005
17 ; 14867.583177012697 ; 3227.236003049784 ; 176866.6788399603 ; 54863.01205184631 ; 4046.0000000000005
18 ; 15323.301220549632 ; 3227.236003049784 ; 191734.262016973 ; 58090.24805489609 ; 4284.000000000001
19 ; 15588.934147347421 ; 3227.236003049784 ; 207057.5632375226 ; 61317.48405794587 ; 4522.000000000001
20 ; 16102.148246816929 ; 3227.236003049784 ; 222646.49738487005 ; 64544.72006099565 ; 4760.000000000001
21 ; 16464.965342881238 ; 3227.236003049784 ; 238748.645631687 ; 67771.95606404543 ; 4998.000000000001
22 ; 16923.189024669922 ; 3227.236003049784 ; 255213.61097456823 ; 70999.19206709521 ; 5236.000000000001
23 ; 17415.931180703144 ; 3227.236003049784 ; 272136.79999923817 ; 74226.42807014499 ; 5474.000000000001
24 ; 17926.7718057613 ; 3227.236003049784 ; 289552.73117994133 ; 77453.66407319477 ; 5712.000000000001
25 ; 18195.572721038825 ; 3227.236003049784 ; 307479.50298570265 ; 80680.90007624455 ; 5950.000000000001
26 ; 18656.615611694244 ; 3227.236003049784 ; 325675.0757067415 ; 83908.13607929433 ; 6188.000000000001
27 ; 19054.932936983234 ; 3227.236003049784 ; 344331.6913184357 ; 87135.37208234411 ; 6426.000000000001
28 ; 19355.67408811777 ; 3227.236003049784 ; 363386.62425541895 ; 90362.60808539389 ; 6664.000000000001
29 ; 19870.251452287837 ; 3227.236003049784 ; 382742.29834353674 ; 93589.84408844367 ; 6902.000000000001
30 ; 19950.583607362736 ; 3227.236003049784 ; 402612.54979582457 ; 96817.08009149345 ; 7140.000000000001
31 ; 20552.161372153034 ; 3227.236003049784 ; 422563.1334031873 ; 100044.31609454323 ; 7378.000000000001
32 ; 20964.61293667473 ; 3227.236003049784 ; 443115.29477534036 ; 103271.55209759301 ; 7616.000000000001
33 ; 21274.434499427345 ; 3227.236003049784 ; 464079.9077120151 ; 106498.78810064279 ; 7854.000000000001
34 ; 21299.384722029994 ; 3227.236003049784 ; 485354.3422114424 ; 109726.02410369257 ; 8092.000000000001
35 ; 21820.45151111836 ; 3227.236003049784 ; 506653.72693347244 ; 112953.26010674235 ; 8330.000000000002
36 ; 22061.847257298723 ; 3227.236003049784 ; 528474.1784445908 ; 116180.49610979213 ; 8568.000000000002
37 ; 22421.828248274378 ; 3227.236003049784 ; 550536.0257018895 ; 119407.73211284191 ; 8806.000000000002
38 ; 22816.234050744213 ; 3227.236003049784 ; 572957.8539501639 ; 122634.9681158917 ; 9044.000000000002
39 ; 22968.2503041295 ; 3227.236003049784 ; 595774.0880009081 ; 125862.20411894147 ; 9282.000000000002
40 ; 23288.102598021178 ; 3227.236003049784 ; 618742.3383050377 ; 129089.44012199125 ; 9520.000000000002
41 ; 23692.575423977687 ; 3227.236003049784 ; 642030.4409030589 ; 132316.67612504103 ; 9758.000000000002
42 ; 24092.13436848905 ; 3227.236003049784 ; 665723.0163270365 ; 135543.91212809083 ; 9996.000000000002
43 ; 24199.13975282447 ; 3227.236003049784 ; 689815.1506955256 ; 138771.14813114062 ; 10234.000000000002
44 ; 24525.65409360274 ; 3227.236003049784 ; 714014.29044835 ; 141998.38413419042 ; 10472.000000000002
45 ; 24666.251773337553 ; 3227.236003049784 ; 738539.9445419528 ; 145225.6201372402 ; 10710.000000000002
46 ; 24941.96114466765 ; 3227.236003049784 ; 763206.1963152904 ; 148452.85614029 ; 10948.000000000002
47 ; 25120.408349287445 ; 3227.236003049784 ; 788148.1574599581 ; 151680.0921433398 ; 11186.000000000002
48 ; 25515.923961284832 ; 3227.236003049784 ; 813268.5658092456 ; 154907.3281463896 ; 11424.000000000002
49 ; 25669.105257321695 ; 3227.236003049784 ; 838784.4897705304 ; 158134.5641494394 ; 11662.000000000002
50 ; 26042.329905954244 ; 3227.236003049784 ; 864453.5950278521 ; 161361.8001524892 ; 11900.000000000002
51 ; 26088.50402915203 ; 3227.236003049784 ; 890495.9249338063 ; 164589.03615553898 ; 12138.000000000002
52 ; 26275.380873732196 ; 3227.236003049784 ; 916584.4289629583 ; 167816.27215858878 ; 12376.000000000002
53 ; 26524.3331744218 ; 3227.236003049784 ; 942859.8098366904 ; 171043.50816163857 ; 12614.000000000002
54 ; 26794.15773109971 ; 3227.236003049784 ; 969384.1430111122 ; 174270.74416468837 ; 12852.000000000002
55 ; 26903.493795336428 ; 3227.236003049784 ; 996178.300742212 ; 177497.98016773816 ; 13090.000000000002
56 ; 27272.05260144985 ; 3227.236003049784 ; 1023081.7945375484 ; 180725.21617078796 ; 13328.000000000002
57 ; 27275.99357522284 ; 3227.236003049784 ; 1050353.8471389983 ; 183952.45217383775 ; 13566.000000000002
58 ; 27586.14048651297 ; 3227.236003049784 ; 1077629.8407142211 ; 187179.68817688755 ; 13804.000000000002
59 ; 27643.621264316975 ; 3227.236003049784 ; 1105215.9812007342 ; 190406.92417993734 ; 14042.000000000002
60 ; 27886.126744165085 ; 3227.236003049784 ; 1132859.6024650512 ; 193634.16018298714 ; 14280.000000000002
61 ; 27847.070130846212 ; 3227.236003049784 ; 1160745.7292092163 ; 196861.39618603693 ; 14518.000000000002
62 ; 28207.605234329018 ; 3227.236003049784 ; 1188592.7993400625 ; 200088.63218908673 ; 14756.000000000002
63 ; 28452.34075418179 ; 3227.236003049784 ; 1216800.4045743917 ; 203315.86819213652 ; 14994.000000000002
64 ; 28206.476757048422 ; 3227.236003049784 ; 1245252.7453285735 ; 206543.10419518632 ; 15232.000000000002
65 ; 28481.07213913008 ; 3227.236003049784 ; 1273459.222085622 ; 209770.3401982361 ; 15470.000000000002
66 ; 28653.937389784554 ; 3227.236003049784 ; 1301940.2942247519 ; 212997.5762012859 ; 15708.000000000002
67 ; 28522.27278297446 ; 3227.236003049784 ; 1330594.2316145364 ; 216224.8122043357 ; 15946.000000000002
68 ; 28929.722227385624 ; 3227.236003049784 ; 1359116.5043975108 ; 219452.0482073855 ; 16184.000000000002
69 ; 28864.584443271073 ; 3227.236003049784 ; 1388046.2266248965 ; 222679.2842104353 ; 16422.000000000004
70 ; 29023.397327567556 ; 3227.236003049784 ; 1416910.8110681677 ; 225906.52021348508 ; 16660.000000000004
71 ; 29215.300243807487 ; 3227.236003049784 ; 1445934.2083957351 ; 229133.75621653488 ; 16898.000000000004
72 ; 29118.390665830448 ; 3227.236003049784 ; 1475149.5086395426 ; 232360.99221958467 ; 17136.000000000004
73 ; 29325.84062858878 ; 3227.236003049784 ; 1504267.899305373 ; 235588.22822263447 ; 17374.000000000004
74 ; 29443.825010353004 ; 3227.236003049784 ; 1533593.7399339618 ; 238815.46422568426 ; 17612.000000000004
75 ; 29330.272011362034 ; 3227.236003049784 ; 1563037.5649443148 ; 242042.70022873406 ; 17850.000000000004
76 ; 29523.41766324661 ; 3227.236003049784 ; 1592367.8369556768 ; 245269.93623178385 ; 18088.000000000004
77 ; 29551.934381197018 ; 3227.236003049784 ; 1621891.2546189234 ; 248497.17223483365 ; 18326.000000000004
78 ; 29517.79865396631 ; 3227.236003049784 ; 1651443.1890001204 ; 251724.40823788344 ; 18564.000000000004
79 ; 29506.10596398375 ; 3227.236003049784 ; 1680960.9876540867 ; 254951.64424093324 ; 18802.000000000004
80 ; 29606.45911939964 ; 3227.236003049784 ; 1710467.0936180705 ; 258178.88024398303 ; 19040.000000000004
81 ; 29639.113348732757 ; 3227.236003049784 ; 1740073.55273747 ; 261406.11624703283 ; 19278.000000000004
82 ; 29527.586779226032 ; 3227.236003049784 ; 1769712.6660862027 ; 264633.3522500826 ; 19516.000000000004
83 ; 29454.296569932754 ; 3227.236003049784 ; 1799240.2528654288 ; 267860.58825313236 ; 19754.000000000004
84 ; 29649.902582256887 ; 3227.236003049784 ; 1828694.5494353615 ; 271087.8242561821 ; 19992.000000000004
85 ; 29534.256118556423 ; 3227.236003049784 ; 1858344.4520176183 ; 274315.0602592319 ; 20230.000000000004
86 ; 29521.428711394226 ; 3227.236003049784 ; 1887878.7081361748 ; 277542.29626228166 ; 20468.000000000004
87 ; 29546.322774336448 ; 3227.236003049784 ; 1917400.1368475691 ; 280769.5322653314 ; 20706.000000000004
88 ; 29589.07204130269 ; 3227.236003049784 ; 1946946.4596219056 ; 283996.7682683812 ; 20944.000000000004
89 ; 29502.64074262684 ; 3227.236003049784 ; 1976535.5316632083 ; 287224.00427143095 ; 21182.000000000004
90 ; 29491.50318864915 ; 3227.236003049784 ; 2006038.172405835 ; 290451.2402744807 ; 21420.000000000004
91 ; 29358.645527313118 ; 3227.236003049784 ; 2035529.6755944842 ; 293678.4762775305 ; 21658.000000000004
92 ; 29217.838274675756 ; 3227.236003049784 ; 2064888.3211217974 ; 296905.71228058025 ; 21896.000000000004
93 ; 29082.50113213767 ; 3227.236003049784 ; 2094106.159396473 ; 300132.94828363 ; 22134.000000000004
94 ; 29297.661664310413 ; 3227.236003049784 ; 2123188.660528611 ; 303360.1842866798 ; 22372.000000000004
95 ; 28992.068243114783 ; 3227.236003049784 ; 2152486.3221929213 ; 306587.42028972955 ; 22610.000000000004
96 ; 28857.952585964773 ; 3227.236003049784 ; 2181478.390436036 ; 309814.6562927793 ; 22848.000000000004
97 ; 28848.076981774717 ; 3227.236003049784 ; 2210336.343022001 ; 313041.8922958291 ; 23086.000000000004
98 ; 28851.563962855445 ; 3227.236003049784 ; 2239184.4200037755 ; 316269.12829887884 ; 23324.000000000004
99 ; 28632.951056504506 ; 3227.236003049784 ; 2268035.983966631 ; 319496.3643019286 ; 23562.000000000004
100 ; 28661.943645292653 ; 3227.236003049784 ; 2296668.9350231355 ; 322723.6003049784 ; 23800.000000000004
101 ; 28441.20211724217 ; 3227.236003049784 ; 2325330.878668428 ; 325950.83630802814 ; 24038.000000000004
102 ; 28372.760042515656 ; 3227.236003049784 ; 2353772.0807856703 ; 329178.0723110779 ; 24276.000000000004
103 ; 28101.715581118086 ; 3227.236003049784 ; 2382144.840828186 ; 332405.3083141277 ; 24514.000000000004
104 ; 27964.797679430427 ; 3227.236003049784 ; 2410246.556409304 ; 335632.54431717744 ; 24752.000000000004
105 ; 27904.266795580454 ; 3227.236003049784 ; 2438211.3540887344 ; 338859.7803202272 ; 24990.000000000004
106 ; 27720.803593496737 ; 3227.236003049784 ; 2466115.6208843146 ; 342087.01632327697 ; 25228.000000000004
107 ; 27711.126764722438 ; 3227.236003049784 ; 2493836.4244778114 ; 345314.25232632674 ; 25466.000000000004
108 ; 27307.599981158608 ; 3227.236003049784 ; 2521547.551242534 ; 348541.4883293765 ; 25704.000000000004
109 ; 27319.4804446704 ; 3227.236003049784 ; 2548855.1512236926 ; 351768.72433242627 ; 25942.000000000004
110 ; 27124.519594525023 ; 3227.236003049784 ; 2576174.6316683628 ; 354995.96033547603 ; 26180.000000000004
111 ; 26859.132211819116 ; 3227.236003049784 ; 2603299.1512628878 ; 358223.1963385258 ; 26418.000000000004
112 ; 26606.680569650318 ; 3227.236003049784 ; 2630158.283474707 ; 361450.43234157556 ; 26656.000000000004
113 ; 26303.608732391884 ; 3227.236003049784 ; 2656764.964044357 ; 364677.66834462533 ; 26894.000000000004
114 ; 26271.990789903015 ; 3227.236003049784 ; 2683068.5727767493 ; 367904.9043476751 ; 27132.000000000004
115 ; 26031.990633856843 ; 3227.236003049784 ; 2709340.563566652 ; 371132.14035072486 ; 27370.000000000004
116 ; 25768.577729689754 ; 3227.236003049784 ; 2735372.554200509 ; 374359.3763537746 ; 27608.000000000004
117 ; 25347.762923311926 ; 3227.236003049784 ; 2761141.131930199 ; 377586.6123568244 ; 27846.000000000004
118 ; 25271.17725237298 ; 3227.236003049784 ; 2786488.894853511 ; 380813.84835987416 ; 28084.000000000004
119 ; 25251.07698188712 ; 3227.236003049784 ; 2811760.072105884 ; 384041.0843629239 ; 28322.000000000004
120 ; 24787.007895968338 ; 3227.236003049784 ; 2837011.1490877713 ; 387268.3203659737 ; 28560.000000000004
121 ; 24572.87188432096 ; 3227.236003049784 ; 2861798.1569837397 ; 390495.55636902346 ; 28798.000000000004
122 ; 24219.82171564649 ; 3227.236003049784 ; 2886371.0288680606 ; 393722.7923720732 ; 29036.000000000004
123 ; 24016.287723884026 ; 3227.236003049784 ; 2910590.850583707 ; 396950.028375123 ; 29274.000000000004
124 ; 23756.57824089468 ; 3227.236003049784 ; 2934607.138307591 ; 400177.26437817275 ; 29512.000000000004
125 ; 23433.84971170792 ; 3227.236003049784 ; 2958363.7165484857 ; 403404.5003812225 ; 29750.000000000004
126 ; 23141.568617275163 ; 3227.236003049784 ; 2981797.5662601935 ; 406631.7363842723 ; 29988.000000000004
127 ; 22889.907632389146 ; 3227.236003049784 ; 3004939.1348774685 ; 409858.97238732205 ; 30226.000000000004
128 ; 22493.97007041901 ; 3227.236003049784 ; 3027829.0425098576 ; 413086.2083903718 ; 30464.000000000004
129 ; 22115.641020839816 ; 3227.236003049784 ; 3050323.0125802765 ; 416313.4443934216 ; 30702.000000000004
130 ; 21890.788773495075 ; 3227.236003049784 ; 3072438.6536011165 ; 419540.68039647135 ; 30940.000000000004
131 ; 21512.384647354582 ; 3227.236003049784 ; 3094329.4423746117 ; 422767.9163995211 ; 31178.000000000004
132 ; 21141.068171634077 ; 3227.236003049784 ; 3115841.827021966 ; 425995.1524025709 ; 31416.000000000004
133 ; 20818.748322159103 ; 3227.236003049784 ; 3136982.8951936 ; 429222.38840562064 ; 31654.000000000004
134 ; 20482.18770681159 ; 3227.236003049784 ; 3157801.643515759 ; 432449.6244086704 ; 31892.000000000004
135 ; 20037.60990647288 ; 3227.236003049784 ; 3178283.831222571 ; 435676.8604117202 ; 32130.000000000004
136 ; 19796.43035422562 ; 3227.236003049784 ; 3198321.4411290437 ; 438904.09641476994 ; 32368.000000000004
137 ; 19324.468388395046 ; 3227.236003049784 ; 3218117.871483269 ; 442131.3324178197 ; 32606.000000000004
138 ; 19057.106981895566 ; 3227.236003049784 ; 3237442.339871664 ; 445358.5684208695 ; 32844.00000000001
139 ; 18499.230677022777 ; 3227.236003049784 ; 3256499.4468535595 ; 448585.80442391924 ; 33082.00000000001
140 ; 18254.652211795616 ; 3227.236003049784 ; 3274998.677530582 ; 451813.040426969 ; 33320.00000000001
141 ; 17880.039944673867 ; 3227.236003049784 ; 3293253.3297423776 ; 455040.27643001877 ; 33558.00000000001
142 ; 17351.280252330616 ; 3227.236003049784 ; 3311133.3696870515 ; 458267.51243306854 ; 33796.00000000001
143 ; 17096.94337006163 ; 3227.236003049784 ; 3328484.649939382 ; 461494.7484361183 ; 34034.00000000001
144 ; 16518.5590781387 ; 3227.236003049784 ; 3345581.5933094434 ; 464721.98443916807 ; 34272.00000000001
145 ; 16431.13641937445 ; 3227.236003049784 ; 3362100.152387582 ; 467949.22044221783 ; 34510.00000000001
146 ; 16319.92518522145 ; 3227.236003049784 ; 3378531.2888069567 ; 471176.4564452676 ; 34748.00000000001
147 ; 16232.634532231918 ; 3227.236003049784 ; 3394851.213992178 ; 474403.69244831736 ; 34986.00000000001
148 ; 15981.239376678663 ; 3227.236003049784 ; 3411083.84852441 ; 477630.92845136713 ; 35224.00000000001
149 ; 15982.249590902109 ; 3227.236003049784 ; 3427065.0879010884 ; 480858.1644544169 ; 35462.00000000001
150 ; 15846.672365716553 ; 3227.236003049784 ; 3443047.3374919905 ; 484085.40045746666 ; 35700.00000000001
151 ; 15534.268389080271 ; 3227.236003049784 ; 3458894.009857707 ; 487312.6364605164 ; 35938.00000000001
152 ; 15489.279666904507 ; 3227.236003049784 ; 3474428.2782467874 ; 490539.8724635662 ; 36176.00000000001
153 ; 15390.104941796564 ; 3227.236003049784 ; 3489917.5579136917 ; 493767.10846661596 ; 36414.00000000001
154 ; 15355.047659067384 ; 3227.236003049784 ; 3505307.6628554882 ; 496994.3444696657 ; 36652.00000000001
155 ; 15042.821320945419 ; 3227.236003049784 ; 3520662.7105145557 ; 500221.5804727155 ; 36890.00000000001
156 ; 15027.726258617406 ; 3227.236003049784 ; 3535705.531835501 ; 503448.81647576526 ; 37128.00000000001
157 ; 14872.582832500835 ; 3227.236003049784 ; 3550733.2580941184 ; 506676.052478815 ; 37366.00000000001
158 ; 14757.062538031525 ; 3227.236003049784 ; 3565605.8409266192 ; 509903.2884818648 ; 37604.00000000001
159 ; 14538.03953930024 ; 3227.236003049784 ; 3580362.9034646507 ; 513130.52448491455 ; 37842.00000000001
160 ; 14415.476076393352 ; 3227.236003049784 ; 3594900.943003951 ; 516357.7604879643 ; 38080.00000000001
161 ; 14179.541255755583 ; 3227.236003049784 ; 3609316.4190803445 ; 519584.9964910141 ; 38318.00000000001
162 ; 14222.294505808828 ; 3227.236003049784 ; 3623495.9603361003 ; 522812.23249406385 ; 38556.00000000001
163 ; 14030.985387752757 ; 3227.236003049784 ; 3637718.2548419093 ; 526039.4684971137 ; 38794.00000000001
164 ; 13795.44385070712 ; 3227.236003049784 ; 3651749.240229662 ; 529266.7045001634 ; 39032.00000000001
165 ; 13555.054897599115 ; 3227.236003049784 ; 3665544.6840803693 ; 532493.9405032132 ; 39270.00000000001
166 ; 13203.669728925528 ; 3227.236003049784 ; 3679099.738977968 ; 535721.176506263 ; 39508.00000000001
167 ; 13372.9619999941 ; 3227.236003049784 ; 3692303.4087068937 ; 538948.4125093127 ; 39746.00000000001
168 ; 13325.115766331131 ; 3227.236003049784 ; 3705676.370706888 ; 542175.6485123625 ; 39984.00000000001
169 ; 13051.264346477681 ; 3227.236003049784 ; 3719001.486473219 ; 545402.8845154123 ; 40222.00000000001
170 ; 12750.89992672536 ; 3227.236003049784 ; 3732052.7508196966 ; 548630.120518462 ; 40460.00000000001
171 ; 12447.653558859389 ; 3227.236003049784 ; 3744803.650746422 ; 551857.3565215118 ; 40698.00000000001
172 ; 12552.778354888505 ; 3227.236003049784 ; 3757251.3043052815 ; 555084.5925245616 ; 40936.00000000001
173 ; 12342.141159495364 ; 3227.236003049784 ; 3769804.08266017 ; 558311.8285276113 ; 41174.00000000001
174 ; 12232.239889113993 ; 3227.236003049784 ; 3782146.223819665 ; 561539.0645306611 ; 41412.00000000001
175 ; 12365.708908796274 ; 3227.236003049784 ; 3794378.4637087793 ; 564766.3005337109 ; 41650.00000000001
176 ; 12440.74948282814 ; 3227.236003049784 ; 3806744.1726175756 ; 567993.5365367606 ; 41888.00000000001
177 ; 12334.072244547853 ; 3227.236003049784 ; 3819184.922100404 ; 571220.7725398104 ; 42126.00000000001
178 ; 12569.135522540697 ; 3227.236003049784 ; 3831518.9943449516 ; 574448.0085428602 ; 42364.00000000001
179 ; 12389.976685418558 ; 3227.236003049784 ; 3844088.1298674922 ; 577675.2445459099 ; 42602.00000000001
180 ; 12584.470125342836 ; 3227.236003049784 ; 3856478.106552911 ; 580902.4805489597 ; 42840.00000000001
181 ; 12656.211593626602 ; 3227.236003049784 ; 3869062.5766782537 ; 584129.7165520095 ; 43078.00000000001
182 ; 12416.249409308008 ; 3227.236003049784 ; 3881718.7882718802 ; 587356.9525550592 ; 43316.00000000001
183 ; 12809.859461094746 ; 3227.236003049784 ; 3894135.0376811884 ; 590584.188558109 ; 43554.00000000001
184 ; 12733.924319602971 ; 3227.236003049784 ; 3906944.897142283 ; 593811.4245611588 ; 43792.00000000001
185 ; 12809.722290959144 ; 3227.236003049784 ; 3919678.821461886 ; 597038.6605642085 ; 44030.00000000001
186 ; 12760.345729308041 ; 3227.236003049784 ; 3932488.5437528454 ; 600265.8965672583 ; 44268.00000000001
