CSV File for the City 3 on Day 197
1 - Minute m 
2 - Power Consumed at minute m 
3 - Power Produced at minute m 
4 - Energy Consumed since the beginning of the day 
5 - Energy Produced since the beginning of the day 
6 - Energy Lost since the beginning of the day on lines starting from the city
 
0 ; 3928.4914559976296 ; 63725.35278765745 ; 0.0 ; 0.0 ; 0.0
1 ; 4417.470658179667 ; 63339.11299613706 ; 3928.4914559976296 ; 63725.35278765745 ; 0.0
2 ; 5000.93929146336 ; 62991.442927559714 ; 8345.962114177297 ; 127064.46578379451 ; 0.0
3 ; 5669.257492022694 ; 62683.0110442083 ; 13346.901405640656 ; 190055.90871135422 ; 0.0
4 ; 6032.163225909999 ; 62414.42270366165 ; 19016.15889766335 ; 252738.91975556253 ; 0.0
5 ; 6357.68605087482 ; 62186.214745980884 ; 25048.32212357335 ; 315153.34245922416 ; 0.0
6 ; 6733.81674894425 ; 61998.850537719605 ; 31406.008174448172 ; 377339.557205205 ; 0.0
7 ; 7235.484955070839 ; 61852.715575493436 ; 38139.82492339242 ; 439338.40774292464 ; 0.0
8 ; 7648.794252084987 ; 61748.113743973685 ; 45375.30987846326 ; 501191.12331841805 ; 0.0
9 ; 8153.349478744022 ; 61685.26431174397 ; 53024.10413054825 ; 562939.2370623917 ; 0.0
10 ; 8535.902604222048 ; 61664.29973376928 ; 61177.45360929227 ; 624624.5013741357 ; 0.0
11 ; 8853.950784474791 ; 61685.26431174397 ; 69713.35621351431 ; 686288.801107905 ; 0.0
12 ; 9269.965458109855 ; 61748.113743973685 ; 78567.3069979891 ; 747974.065419649 ; 0.0
13 ; 9753.969192249688 ; 61852.715575493436 ; 87837.27245609896 ; 809722.1791636227 ; 0.0
14 ; 9955.501753754499 ; 61998.85053771954 ; 97591.24164834864 ; 871574.8947391161 ; 0.0
15 ; 10391.006081255508 ; 62186.214745980884 ; 107546.74340210314 ; 933573.7452768356 ; 0.0
16 ; 10687.947227204273 ; 62414.42270366165 ; 117937.74948335864 ; 995759.9600228166 ; 0.0
17 ; 11272.474578532827 ; 62683.01104420822 ; 128625.69671056292 ; 1058174.3827264782 ; 0.0
18 ; 11581.869173402345 ; 62991.44292755978 ; 139898.17128909574 ; 1120857.3937706864 ; 0.0
19 ; 11943.213954195307 ; 63339.11299613698 ; 151480.0404624981 ; 1183848.8366982462 ; 0.0
20 ; 12348.345702751418 ; 63725.35278765745 ; 163423.2544166934 ; 1247187.9496943832 ; 0.0
21 ; 12567.141442615446 ; 64149.43649781809 ; 175771.60011944483 ; 1310913.3024820406 ; 0.0
22 ; 12930.102333132472 ; 64610.586985190086 ; 188338.74156206028 ; 1375062.7389798586 ; 0.0
23 ; 13401.645109485951 ; 65107.9819132471 ; 201268.84389519275 ; 1439673.3259650487 ; 0.0
24 ; 13622.457344877394 ; 65640.75992987165 ; 214670.4890046787 ; 1504781.307878296 ; 0.0
25 ; 13980.907080725228 ; 66208.02679248109 ; 228292.9463495561 ; 1570422.0678081675 ; 0.0
26 ; 14320.833001691759 ; 66808.86135651205 ; 242273.85343028134 ; 1636630.0946006486 ; 0.0
27 ; 14608.075386338762 ; 67442.32135585036 ; 256594.6864319731 ; 1703438.9559571606 ; 0.0
28 ; 14954.129248287345 ; 68107.44891533753 ; 271202.7618183119 ; 1770881.277313011 ; 0.0
29 ; 14995.198942281793 ; 68803.27574723457 ; 286156.89106659923 ; 1838988.7262283484 ; 0.0
30 ; 15421.090319728788 ; 69528.82799503562 ; 301152.090008881 ; 1907792.001975583 ; 0.0
31 ; 15860.001880828577 ; 70283.13069895626 ; 316573.1803286098 ; 1977320.8299706185 ; 0.0
32 ; 16021.758875687035 ; 71065.2118674929 ; 332433.18220943835 ; 2047603.9606695748 ; 0.0
33 ; 16165.67408395895 ; 71874.10614847302 ; 348454.9410851254 ; 2118669.172537068 ; 0.0
34 ; 16642.417809469072 ; 72708.85810087986 ; 364620.61516908434 ; 2190543.278685541 ; 0.0
35 ; 16650.04291182865 ; 73568.52507538257 ; 381263.03297855344 ; 2263252.136786421 ; 0.0
36 ; 17209.652612829297 ; 74452.17971695041 ; 397913.0758903821 ; 2336820.6618618034 ; 0.0
37 ; 17425.790031696783 ; 75358.9121072177 ; 415122.7285032114 ; 2411272.8415787537 ; 0.0
38 ; 17841.78811723535 ; 76287.83156748558 ; 432548.5185349082 ; 2486631.7536859713 ; 0.0
39 ; 17979.18536738017 ; 77238.06814549526 ; 450390.30665214354 ; 2562919.5852534566 ; 0.0
40 ; 17996.798585777447 ; 78208.77381050443 ; 468369.4920195237 ; 2640157.653398952 ; 0.0
41 ; 18375.401229211882 ; 79199.12338186851 ; 486366.29060530115 ; 2718366.4272094565 ; 0.0
42 ; 18778.570063899937 ; 80208.31521638228 ; 504741.69183451304 ; 2797565.550591325 ; 0.0
43 ; 18964.49161941613 ; 81235.5716792043 ; 523520.26189841295 ; 2877773.8658077074 ; 0.0
44 ; 18978.695172619504 ; 82280.13942235694 ; 542484.7535178291 ; 2959009.4374869117 ; 0.0
45 ; 19257.098504786827 ; 83341.28949367658 ; 561463.4486904487 ; 3041289.5769092687 ; 0.0
46 ; 19580.763611845356 ; 84418.3172977566 ; 580720.5471952355 ; 3124630.8664029455 ; 0.0
47 ; 19913.776362896988 ; 85510.54242895784 ; 600301.3108070808 ; 3209049.183700702 ; 0.0
48 ; 19822.21231382222 ; 86617.30839501065 ; 620215.0871699778 ; 3294559.72612966 ; 0.0
49 ; 19956.7826067334 ; 87737.9822481571 ; 640037.2994838001 ; 3381177.034524671 ; 0.0
50 ; 20382.92924031389 ; 88871.9541392101 ; 659994.0820905335 ; 3468915.016772828 ; 0.0
51 ; 20638.912442748966 ; 90018.6368083783 ; 680377.0113308474 ; 3557786.9709120383 ; 0.0
52 ; 20531.049070332487 ; 91177.46502523759 ; 701015.9237735964 ; 3647805.6077204165 ; 0.0
53 ; 20862.986156091683 ; 92347.89498884058 ; 721546.9728439288 ; 3738983.0727456543 ; 0.0
54 ; 20942.69921786674 ; 93529.40369765517 ; 742409.9590000205 ; 3831330.9677344947 ; 0.0
55 ; 21190.822943287465 ; 94721.48829781794 ; 763352.6582178873 ; 3924860.37143215 ; 0.0
56 ; 21368.686506173064 ; 95923.6654170825 ; 784543.4811611747 ; 4019581.8597299675 ; 0.0
57 ; 21323.73186244448 ; 97135.47049083072 ; 805912.1676673478 ; 4115505.52514705 ; 0.0
58 ; 21540.96908919374 ; 98356.45708560404 ; 827235.8995297923 ; 4212640.995637881 ; 0.0
59 ; 21594.86539366313 ; 99586.19622478925 ; 848776.868618986 ; 4310997.4527234845 ; 0.0
60 ; 21684.820935466883 ; 100824.27572035852 ; 870371.7340126492 ; 4410583.648948274 ; 0.0
61 ; 21728.738339157055 ; 102070.29951391177 ; 892056.5549481161 ; 4511407.924668632 ; 0.0
62 ; 22065.328792673292 ; 103323.88702969151 ; 913785.2932872731 ; 4613478.224182544 ; 0.0
63 ; 22185.21236824507 ; 104584.67254173425 ; 935850.6220799464 ; 4716802.111212236 ; 0.0
64 ; 22050.09870618901 ; 105852.30455687747 ; 958035.8344481916 ; 4821386.78375397 ; 0.0
65 ; 22470.558154631028 ; 107126.4452149576 ; 980085.9331543805 ; 4927239.088310847 ; 0.0
66 ; 22362.503613116183 ; 108406.76970719735 ; 1002556.4913090116 ; 5034365.533525805 ; 0.0
67 ; 22516.981088074754 ; 109692.96571349599 ; 1024918.9949221278 ; 5142772.303233002 ; 0.0
68 ; 22772.559388716385 ; 110984.73285908911 ; 1047435.9760102025 ; 5252465.268946499 ; 0.0
69 ; 22767.75632600014 ; 112281.78219083571 ; 1070208.535398919 ; 5363450.001805588 ; 0.0
70 ; 22842.03617251658 ; 113583.83567321344 ; 1092976.291724919 ; 5475731.783996424 ; 0.0
71 ; 22830.36267317471 ; 114890.62570395629 ; 1115818.3278974358 ; 5589315.619669637 ; 0.0
72 ; 22859.720279006746 ; 116201.89464914452 ; 1138648.6905706106 ; 5704206.245373593 ; 0.0
73 ; 22781.799836119513 ; 117517.39439745812 ; 1161508.4108496173 ; 5820408.140022737 ; 0.0
74 ; 23029.73600061199 ; 118836.88593322148 ; 1184290.2106857367 ; 5937925.534420195 ; 0.0
75 ; 23040.011907521188 ; 120160.13892780212 ; 1207319.9466863486 ; 6056762.420353416 ; 0.0
76 ; 23031.339291559467 ; 121486.93134887698 ; 1230359.9585938698 ; 6176922.559281219 ; 0.0
77 ; 22981.83948786864 ; 122817.04908703777 ; 1253391.2978854293 ; 6298409.490630096 ; 0.0
78 ; 23217.123583716504 ; 124150.28559918237 ; 1276373.137373298 ; 6421226.539717133 ; 0.0
79 ; 23117.035786789595 ; 125486.44156811599 ; 1299590.2609570145 ; 6545376.8253163155 ; 0.0
80 ; 23122.91180494475 ; 126825.32457777711 ; 1322707.2967438041 ; 6670863.266884431 ; 0.0
81 ; 23304.382339195574 ; 128166.74880349437 ; 1345830.2085487489 ; 6797688.591462208 ; 0.0
82 ; 23087.721861706934 ; 129510.53471668287 ; 1369134.5908879444 ; 6925855.340265702 ; 0.0
83 ; 23075.33574560025 ; 130856.50880339068 ; 1392222.3127496515 ; 7055365.874982385 ; 0.0
84 ; 23193.388102835077 ; 132204.50329611322 ; 1415297.6484952518 ; 7186222.383785776 ; 0.0
85 ; 23199.557553762406 ; 133554.35591830572 ; 1438491.0365980868 ; 7318426.887081889 ; 0.0
86 ; 23079.998205697608 ; 134905.90964103394 ; 1461690.5941518492 ; 7451981.243000195 ; 0.0
87 ; 23165.805711131015 ; 136259.0124512197 ; 1484770.5923575468 ; 7586887.152641229 ; 0.0
88 ; 23003.644309432726 ; 137613.51713095227 ; 1507936.3980686779 ; 7723146.165092449 ; 0.0
89 ; 22990.578439444027 ; 138969.28104735512 ; 1530940.0423781106 ; 7860759.682223401 ; 0.0
90 ; 23001.159770369897 ; 140326.1659525123 ; 1553930.6208175546 ; 7999728.963270756 ; 0.0
91 ; 22782.768328658636 ; 141684.03779298018 ; 1576931.7805879246 ; 8140055.1292232685 ; 0.0
92 ; 22971.552877051046 ; 143042.7665284256 ; 1599714.5489165832 ; 8281739.167016248 ; 0.0
93 ; 22779.99362851084 ; 144402.22595895143 ; 1622686.1017936342 ; 8424781.933544673 ; 0.0
94 ; 22872.08724053788 ; 145762.29356068792 ; 1645466.095422145 ; 8569184.159503624 ; 0.0
95 ; 22618.986274499493 ; 147122.85032924692 ; 1668338.1826626828 ; 8714946.453064311 ; 0.0
96 ; 22534.77310931082 ; 148483.7806306534 ; 1690957.1689371823 ; 8862069.303393558 ; 0.0
97 ; 22547.115120297785 ; 149844.9720593855 ; 1713491.942046493 ; 9010553.084024211 ; 0.0
98 ; 22402.600082185705 ; 151206.3153031721 ; 1736039.0571667908 ; 9160398.056083597 ; 0.0
99 ; 22411.161921114715 ; 152567.70401421344 ; 1758441.6572489766 ; 9311604.37138677 ; 0.0
100 ; 22255.379889056596 ; 153929.0346865047 ; 1780852.8191700913 ; 9464172.075400984 ; 0.0
101 ; 22305.123730336865 ; 155290.2065389594 ; 1803108.1990591479 ; 9618101.110087488 ; 0.0
102 ; 21995.098604096005 ; 156651.12140404366 ; 1825413.3227894846 ; 9773391.316626448 ; 0.0
103 ; 22040.5367115925 ; 158011.68362164585 ; 1847408.4213935807 ; 9930042.438030493 ; 0.0
104 ; 21833.76400947438 ; 159371.79993792134 ; 1869448.9581051732 ; 1.0088054121652137E7 ; 0.0
105 ; 21772.972705727974 ; 160731.37940886331 ; 1891282.7221146475 ; 1.0247425921590058E7 ; 0.0
106 ; 21644.740340691747 ; 162090.33330836438 ; 1913055.6948203754 ; 1.040815730099892E7 ; 0.0
107 ; 21369.493684085144 ; 163448.57504054505 ; 1934700.4351610672 ; 1.0570247634307286E7 ; 0.0
108 ; 21321.396699169432 ; 164806.0200561368 ; 1956069.9288451523 ; 1.0733696209347831E7 ; 0.0
109 ; 21057.9240507901 ; 166162.58577271755 ; 1977391.3255443217 ; 1.0898502229403967E7 ; 0.0
110 ; 20987.7643438978 ; 167518.19149860917 ; 1998449.2495951117 ; 1.1064664815176684E7 ; 0.0
111 ; 20905.452273661267 ; 168872.7583602546 ; 2019437.0139390095 ; 1.1232183006675294E7 ; 0.0
112 ; 20661.053914925888 ; 170226.2092329033 ; 2040342.4662126708 ; 1.140105576503555E7 ; 0.0
113 ; 20573.359682029655 ; 171578.4686744409 ; 2061003.5201275966 ; 1.1571281974268453E7 ; 0.0
114 ; 20407.87691591193 ; 172929.46286220895 ; 2081576.8798096261 ; 1.1742860442942895E7 ; 0.0
115 ; 19993.824036497026 ; 174279.11953266733 ; 2101984.756725538 ; 1.1915789905805103E7 ; 0.0
116 ; 19916.782694355497 ; 175627.36792376082 ; 2121978.580762035 ; 1.209006902533777E7 ; 0.0
117 ; 19853.13756050308 ; 176974.13871985688 ; 2141895.363456391 ; 1.2265696393261531E7 ; 0.0
118 ; 19633.728656908494 ; 178319.3639991298 ; 2161748.501016894 ; 1.2442670531981388E7 ; 0.0
119 ; 19348.044757315 ; 179662.97718327295 ; 2181382.2296738024 ; 1.2620989895980518E7 ; 0.0
120 ; 19197.767904089604 ; 181004.91298942536 ; 2200730.2744311173 ; 1.2800652873163791E7 ; 0.0
121 ; 18961.84848523694 ; 182345.10738420716 ; 2219928.042335207 ; 1.2981657786153216E7 ; 0.0
122 ; 18704.869117304763 ; 183683.49753976153 ; 2238889.890820444 ; 1.3164002893537423E7 ; 0.0
123 ; 18546.07283216438 ; 185020.02179170714 ; 2257594.759937749 ; 1.3347686391077185E7 ; 0.0
124 ; 18220.3942349122 ; 186354.61959891082 ; 2276140.832769913 ; 1.3532706412868893E7 ; 0.0
125 ; 18131.689013288247 ; 187687.23150499281 ; 2294361.227004825 ; 1.3719061032467803E7 ; 0.0
126 ; 17751.430759451796 ; 189017.7991014832 ; 2312492.9160181135 ; 1.3906748263972796E7 ; 0.0
127 ; 17694.501495869376 ; 190346.26499255127 ; 2330244.3467775653 ; 1.409576606307428E7 ; 0.0
128 ; 17257.03172499413 ; 191672.57276123445 ; 2347938.8482734347 ; 1.4286112328066831E7 ; 0.0
129 ; 17073.880709993504 ; 192996.66693709596 ; 2365195.8799984287 ; 1.4477784900828065E7 ; 0.0
130 ; 16755.828373530854 ; 194318.49296524483 ; 2382269.7607084224 ; 1.4670781567765161E7 ; 0.0
131 ; 16619.416409217672 ; 195637.99717665548 ; 2399025.5890819533 ; 1.4865100060730407E7 ; 0.0
132 ; 16324.635302329996 ; 196955.12675972583 ; 2415645.005491171 ; 1.5060738057907062E7 ; 0.0
133 ; 15840.37229109661 ; 198269.82973301818 ; 2431969.640793501 ; 1.5257693184666788E7 ; 0.0
134 ; 15509.039956197541 ; 199582.0549191272 ; 2447810.0130845974 ; 1.5455963014399806E7 ; 0.0
135 ; 15529.221921287222 ; 200891.75191962498 ; 2463319.053040795 ; 1.5655545069318933E7 ; 0.0
136 ; 14960.624766696215 ; 202198.87109103322 ; 2478848.274962082 ; 1.5856436821238559E7 ; 0.0
137 ; 14785.433403345047 ; 203503.3635217763 ; 2493808.8997287783 ; 1.6058635692329591E7 ; 0.0
138 ; 14542.025168954027 ; 204805.18101007142 ; 2508594.333132123 ; 1.6262139055851368E7 ; 0.0
139 ; 14183.82780531777 ; 206104.27604271346 ; 2523136.358301077 ; 1.646694423686144E7 ; 0.0
140 ; 13682.439144290309 ; 207400.60177471436 ; 2537320.186106395 ; 1.6673048512904152E7 ; 0.0
141 ; 13458.575470732343 ; 208694.11200975944 ; 2551002.6252506855 ; 1.6880449114678867E7 ; 0.0
142 ; 13230.480240281491 ; 209984.76118144463 ; 2564461.200721418 ; 1.7089143226688627E7 ; 0.0
143 ; 12773.555241050366 ; 211272.5043352595 ; 2577691.6809616997 ; 1.729912798787007E7 ; 0.0
144 ; 12633.514141474092 ; 212557.297111284 ; 2590465.23620275 ; 1.751040049220533E7 ; 0.0
145 ; 12279.790646481095 ; 213839.09572756762 ; 2603098.750344224 ; 1.7722957789316613E7 ; 0.0
146 ; 12182.479238419359 ; 215117.85696416107 ; 2615378.5409907047 ; 1.793679688504418E7 ; 0.0
147 ; 12217.53343621388 ; 216393.53814777225 ; 2627561.020229124 ; 1.815191474200834E7 ; 0.0
148 ; 12287.432681987473 ; 217666.09713702044 ; 2639778.553665338 ; 1.8368308280156113E7 ; 0.0
149 ; 11879.341103165027 ; 218935.49230826134 ; 2652065.9863473256 ; 1.8585974377293132E7 ; 0.0
150 ; 11830.572907304546 ; 220201.68254196024 ; 2663945.3274504906 ; 1.8804909869601395E7 ; 0.0
151 ; 11896.197136083605 ; 221464.62720958967 ; 2675775.900357795 ; 1.9025111552143354E7 ; 0.0
152 ; 11867.19153870183 ; 222724.28616102817 ; 2687672.0974938786 ; 1.9246576179352943E7 ; 0.0
153 ; 11726.712742749382 ; 223980.61971244065 ; 2699539.2890325803 ; 1.946930046551397E7 ; 0.0
154 ; 11411.188285104392 ; 225233.5886346193 ; 2711266.00177533 ; 1.9693281085226413E7 ; 0.0
155 ; 11333.859016862381 ; 226483.15414176593 ; 2722677.1900604344 ; 1.991851467386103E7 ; 0.0
156 ; 11349.184316262033 ; 227729.2778806975 ; 2734011.0490772966 ; 2.0144997828002796E7 ; 0.0
157 ; 11181.84619753892 ; 228971.92192045716 ; 2745360.2333935588 ; 2.0372727105883494E7 ; 0.0
158 ; 11149.274371835487 ; 230211.04874231454 ; 2756542.079591098 ; 2.060169902780395E7 ; 0.0
159 ; 10858.79846932116 ; 231446.62123013844 ; 2767691.353962933 ; 2.0831910076546263E7 ; 0.0
160 ; 10788.595715621957 ; 232678.60266112818 ; 2778550.1524322545 ; 2.10633566977764E7 ; 0.0
161 ; 10598.647459719543 ; 233906.9566968872 ; 2789338.7481478765 ; 2.129603530043753E7 ; 0.0
162 ; 10513.811660433594 ; 235131.64737482683 ; 2799937.395607596 ; 2.1529942257134415E7 ; 0.0
163 ; 10367.251393762474 ; 236352.63909988565 ; 2810451.2072680295 ; 2.1765073904509243E7 ; 0.0
164 ; 10204.104203114564 ; 237569.89663655235 ; 2820818.458661792 ; 2.2001426543609127E7 ; 0.0
165 ; 10243.634866525652 ; 238783.38510118012 ; 2831022.5628649066 ; 2.223899644024568E7 ; 0.0
166 ; 9966.47592780243 ; 239993.0699545806 ; 2841266.1977314325 ; 2.247777982534686E7 ; 0.0
167 ; 9963.843015310711 ; 241198.9169948866 ; 2851232.673659235 ; 2.2717772895301443E7 ; 0.0
168 ; 9619.097179307477 ; 242400.89235067263 ; 2861196.5166745456 ; 2.295897181229633E7 ; 0.0
169 ; 9605.525714299913 ; 243598.96247432372 ; 2870815.613853853 ; 2.3201372704647005E7 ; 0.0
170 ; 9366.21420143793 ; 244793.0941356425 ; 2880421.1395681533 ; 2.344497166712133E7 ; 0.0
171 ; 9213.346914222924 ; 245983.254415685 ; 2889787.353769591 ; 2.368976476125697E7 ; 0.0
172 ; 9310.64501056022 ; 247169.4107008171 ; 2899000.700683814 ; 2.3935748015672654E7 ; 0.0
173 ; 9070.72854182804 ; 248351.53067698205 ; 2908311.3456943743 ; 2.418291742637347E7 ; 0.0
174 ; 9162.236290572146 ; 249529.5823241721 ; 2917382.0742362025 ; 2.4431268957050454E7 ; 0.0
175 ; 9126.085985646221 ; 250703.53391109555 ; 2926544.3105267747 ; 2.4680798539374627E7 ; 0.0
176 ; 9164.541808579002 ; 251873.3539900322 ; 2935670.396512421 ; 2.493150207328572E7 ; 0.0
177 ; 9149.1002741562 ; 253039.0113918699 ; 2944834.938321 ; 2.5183375427275755E7 ; 0.0
178 ; 9210.591751644375 ; 254200.4752213159 ; 2953984.0385951563 ; 2.5436414438667625E7 ; 0.0
179 ; 9158.038149008033 ; 255357.71485227515 ; 2963194.6303468007 ; 2.5690614913888942E7 ; 0.0
180 ; 9289.433815329841 ; 256510.69992339116 ; 2972352.6684958087 ; 2.5945972628741216E7 ; 0.0
181 ; 9220.32952149961 ; 257659.40033374127 ; 2981642.1023111385 ; 2.620248332866461E7 ; 0.0
182 ; 9313.83942838033 ; 258803.7862386823 ; 2990862.431832638 ; 2.6460142728998348E7 ; 0.0
183 ; 9378.370275791534 ; 259943.82804584072 ; 3000176.2712610182 ; 2.671894651523703E7 ; 0.0
184 ; 9304.08391897835 ; 261079.49641124034 ; 3009554.64153681 ; 2.697889034328287E7 ; 0.0
185 ; 9404.167793057613 ; 262210.7622355655 ; 3018858.7254557884 ; 2.7239969839694113E7 ; 0.0
186 ; 9393.560395259046 ; 263337.59666055185 ; 3028262.893248846 ; 2.750218060192968E7 ; 0.0
187 ; 9411.592185160418 ; 264459.97106550203 ; 3037656.453644105 ; 2.776551819859023E7 ; 0.0
188 ; 9391.682968048413 ; 265577.85706392047 ; 3047068.0458292654 ; 2.8029978169655733E7 ; 0.0
189 ; 9532.996263291465 ; 266691.2265002645 ; 3056459.7287973138 ; 2.8295556026719652E7 ; 0.0
190 ; 9633.66247975202 ; 267800.05144680553 ; 3065992.7250606054 ; 2.8562247253219917E7 ; 0.0
191 ; 9571.512712468444 ; 268904.30420059845 ; 3075626.3875403577 ; 2.8830047304666724E7 ; 0.0
192 ; 9613.57277244148 ; 270003.95728055394 ; 3085197.900252826 ; 2.909895160886732E7 ; 0.0
193 ; 9585.10653546156 ; 271098.9834246104 ; 3094811.4730252675 ; 2.9368955566147875E7 ; 0.0
194 ; 9789.418563427187 ; 272189.35558700276 ; 3104396.579560729 ; 2.9640054549572486E7 ; 0.0
195 ; 9673.45871251858 ; 273275.04693562316 ; 3114185.9981241566 ; 2.991224390515949E7 ; 0.0
196 ; 9689.754236235503 ; 274356.0308494721 ; 3123859.4568366753 ; 3.018551895209511E7 ; 0.0
197 ; 9675.004577291045 ; 275432.280916195 ; 3133549.2110729106 ; 3.045987498294458E7 ; 0.0
198 ; 9746.301136321203 ; 276503.7709297032 ; 3143224.215650202 ; 3.0735307263860777E7 ; 0.0
199 ; 9776.627253308088 ; 277570.47488787456 ; 3152970.516786523 ; 3.101181103479048E7 ; 0.0
200 ; 9685.20062563541 ; 278632.3669903325 ; 3162747.144039831 ; 3.1289381509678353E7 ; 0.0
201 ; 9741.017538689017 ; 279689.42163629906 ; 3172432.3446654663 ; 3.1568013876668684E7 ; 0.0
202 ; 9797.473201135177 ; 280741.6134225215 ; 3182173.3622041554 ; 3.1847703298304982E7 ; 0.0
203 ; 9876.429180487681 ; 281788.9171412682 ; 3191970.8354052906 ; 3.2128444911727503E7 ; 0.0
204 ; 9841.59979847039 ; 282831.30777839164 ; 3201847.264585778 ; 3.2410233828868773E7 ; 0.0
205 ; 9907.325140771445 ; 283868.760511458 ; 3211688.8643842484 ; 3.2693065136647165E7 ; 0.0
206 ; 9978.288915684245 ; 284901.25070793834 ; 3221596.18952502 ; 3.2976933897158623E7 ; 0.0
207 ; 9957.036055123011 ; 285928.7539234614 ; 3231574.4784407043 ; 3.3261835147866562E7 ; 0.0
208 ; 10075.049805585539 ; 286951.2459001253 ; 3241531.5144958273 ; 3.3547763901790023E7 ; 0.0
209 ; 10143.816442702093 ; 287968.70256486506 ; 3251606.564301413 ; 3.383471514769015E7 ; 0.0
210 ; 10081.483729381167 ; 288981.10002787696 ; 3261750.380744115 ; 3.412268385025501E7 ; 0.0
211 ; 10142.334972533226 ; 289988.4145810939 ; 3271831.864473496 ; 3.441166495028289E7 ; 0.0
212 ; 10194.777221876768 ; 290990.62269671337 ; 3281974.1994460295 ; 3.470165336486398E7 ; 0.0
