CSV File for the City 1 on Day 144
1 - Minute m 
2 - Power Consumed at minute m 
3 - Power Produced at minute m 
4 - Energy Consumed since the beginning of the day 
5 - Energy Produced since the beginning of the day 
6 - Energy Lost since the beginning of the day on lines starting from the city
 
0 ; 9472.555677142915 ; 7715.807837679386 ; 0.0 ; 0.0 ; 0.0
1 ; 9803.136877268165 ; 7715.807837679386 ; 9472.555677142915 ; 7715.807837679386 ; 238.00000000000003
2 ; 10137.598381791158 ; 7715.807837679386 ; 19275.692554411078 ; 15431.615675358771 ; 476.00000000000006
3 ; 10663.389105527453 ; 7715.807837679386 ; 29413.290936202236 ; 23147.423513038157 ; 714.0000000000001
4 ; 11135.49585397277 ; 7715.807837679386 ; 40076.68004172969 ; 30863.231350717542 ; 952.0000000000001
5 ; 11639.39595575055 ; 7715.807837679386 ; 51212.17589570246 ; 38579.03918839693 ; 1190.0000000000002
6 ; 12178.710683066301 ; 7715.807837679386 ; 62851.57185145301 ; 46294.84702607631 ; 1428.0000000000002
7 ; 12421.957279466606 ; 7715.807837679386 ; 75030.28253451931 ; 54010.6548637557 ; 1666.0000000000002
8 ; 12874.271233305024 ; 7715.807837679386 ; 87452.23981398591 ; 61726.462701435084 ; 1904.0000000000002
9 ; 13126.249701826086 ; 7715.807837679386 ; 100326.51104729094 ; 69442.27053911447 ; 2142.0000000000005
10 ; 13738.495233100628 ; 7715.807837679386 ; 113452.76074911703 ; 77158.07837679386 ; 2380.0000000000005
11 ; 13990.679899501356 ; 7715.807837679386 ; 127191.25598221767 ; 84873.88621447324 ; 2618.0000000000005
12 ; 14535.045493557664 ; 7715.807837679386 ; 141181.93588171902 ; 92589.69405215263 ; 2856.0000000000005
13 ; 14689.98619731129 ; 7715.807837679386 ; 155716.9813752767 ; 100305.50188983201 ; 3094.0000000000005
14 ; 15239.271429964732 ; 7715.807837679386 ; 170406.96757258798 ; 108021.3097275114 ; 3332.0000000000005
15 ; 15537.947568479705 ; 7715.807837679386 ; 185646.2390025527 ; 115737.11756519078 ; 3570.0000000000005
16 ; 15940.737095420647 ; 7715.807837679386 ; 201184.1865710324 ; 123452.92540287017 ; 3808.0000000000005
17 ; 16151.196616179668 ; 7715.807837679386 ; 217124.92366645305 ; 131168.73324054957 ; 4046.0000000000005
18 ; 16614.9691864907 ; 7715.807837679386 ; 233276.1202826327 ; 138884.54107822897 ; 4284.000000000001
19 ; 16932.753219632752 ; 7715.807837679386 ; 249891.0894691234 ; 146600.34891590837 ; 4522.000000000001
20 ; 17266.245411982723 ; 7715.807837679386 ; 266823.8426887562 ; 154316.15675358777 ; 4760.000000000001
21 ; 17585.216599286217 ; 7715.807837679386 ; 284090.0881007389 ; 162031.96459126717 ; 4998.000000000001
22 ; 17950.653692498283 ; 7715.807837679386 ; 301675.3047000251 ; 169747.77242894657 ; 5236.000000000001
23 ; 18265.79467682443 ; 7715.807837679386 ; 319625.9583925234 ; 177463.58026662597 ; 5474.000000000001
24 ; 18653.654468592456 ; 7715.807837679386 ; 337891.7530693478 ; 185179.38810430537 ; 5712.000000000001
25 ; 19071.22938083456 ; 7715.807837679386 ; 356545.40753794025 ; 192895.19594198477 ; 5950.000000000001
26 ; 19459.94081315401 ; 7715.807837679386 ; 375616.6369187748 ; 200611.00377966417 ; 6188.000000000001
27 ; 19480.413740435106 ; 7715.807837679386 ; 395076.5777319288 ; 208326.81161734357 ; 6426.000000000001
28 ; 19921.982629931183 ; 7715.807837679386 ; 414556.9914723639 ; 216042.61945502297 ; 6664.000000000001
29 ; 20181.80991081902 ; 7715.807837679386 ; 434478.97410229506 ; 223758.42729270237 ; 6902.000000000001
30 ; 20456.23108611171 ; 7715.807837679386 ; 454660.78401311405 ; 231474.23513038177 ; 7140.000000000001
31 ; 20722.885633075875 ; 7715.807837679386 ; 475117.01509922574 ; 239190.04296806117 ; 7378.000000000001
32 ; 20977.486130317913 ; 7715.807837679386 ; 495839.90073230164 ; 246905.85080574057 ; 7616.000000000001
33 ; 21174.790178447103 ; 7715.807837679386 ; 516817.38686261955 ; 254621.65864341997 ; 7854.000000000001
34 ; 21371.893417079595 ; 7715.807837679386 ; 537992.1770410667 ; 262337.46648109937 ; 8092.000000000001
35 ; 21753.320358662953 ; 7715.807837679386 ; 559364.0704581463 ; 270053.2743187788 ; 8330.000000000002
36 ; 22087.49558617568 ; 7715.807837679386 ; 581117.3908168093 ; 277769.0821564582 ; 8568.000000000002
37 ; 22355.907798129192 ; 7715.807837679386 ; 603204.886402985 ; 285484.8899941376 ; 8806.000000000002
38 ; 22215.578088492945 ; 7715.807837679386 ; 625560.7942011142 ; 293200.697831817 ; 9044.000000000002
39 ; 22701.80530109944 ; 7715.807837679386 ; 647776.3722896072 ; 300916.5056694964 ; 9282.000000000002
40 ; 23076.971928565148 ; 7715.807837679386 ; 670478.1775907066 ; 308632.3135071758 ; 9520.000000000002
41 ; 23094.172104013163 ; 7715.807837679386 ; 693555.1495192718 ; 316348.1213448552 ; 9758.000000000002
42 ; 23316.739763743666 ; 7715.807837679386 ; 716649.321623285 ; 324063.9291825346 ; 9996.000000000002
43 ; 23678.91804326879 ; 7715.807837679386 ; 739966.0613870287 ; 331779.737020214 ; 10234.000000000002
44 ; 23680.401788322077 ; 7715.807837679386 ; 763644.9794302975 ; 339495.5448578934 ; 10472.000000000002
45 ; 24054.91909748831 ; 7715.807837679386 ; 787325.3812186195 ; 347211.3526955728 ; 10710.000000000002
46 ; 24170.9315541668 ; 7715.807837679386 ; 811380.3003161078 ; 354927.1605332522 ; 10948.000000000002
47 ; 24378.996490289635 ; 7715.807837679386 ; 835551.2318702746 ; 362642.9683709316 ; 11186.000000000002
48 ; 24465.943001150852 ; 7715.807837679386 ; 859930.2283605643 ; 370358.776208611 ; 11424.000000000002
49 ; 24784.187164486015 ; 7715.807837679386 ; 884396.1713617152 ; 378074.5840462904 ; 11662.000000000002
50 ; 24816.959435431138 ; 7715.807837679386 ; 909180.3585262012 ; 385790.3918839698 ; 11900.000000000002
51 ; 24967.451314651527 ; 7715.807837679386 ; 933997.3179616324 ; 393506.1997216492 ; 12138.000000000002
52 ; 25075.661183833294 ; 7715.807837679386 ; 958964.7692762839 ; 401222.0075593286 ; 12376.000000000002
53 ; 25548.753138141587 ; 7715.807837679386 ; 984040.4304601172 ; 408937.815397008 ; 12614.000000000002
54 ; 25567.13726735403 ; 7715.807837679386 ; 1009589.1835982588 ; 416653.6232346874 ; 12852.000000000002
55 ; 25731.160197332963 ; 7715.807837679386 ; 1035156.3208656128 ; 424369.4310723668 ; 13090.000000000002
56 ; 25772.887063380076 ; 7715.807837679386 ; 1060887.4810629457 ; 432085.2389100462 ; 13328.000000000002
57 ; 26004.89411196517 ; 7715.807837679386 ; 1086660.3681263258 ; 439801.0467477256 ; 13566.000000000002
58 ; 25905.099119049453 ; 7715.807837679386 ; 1112665.2622382909 ; 447516.854585405 ; 13804.000000000002
59 ; 26165.510392053115 ; 7715.807837679386 ; 1138570.3613573404 ; 455232.6624230844 ; 14042.000000000002
60 ; 26319.501848835287 ; 7715.807837679386 ; 1164735.8717493934 ; 462948.4702607638 ; 14280.000000000002
61 ; 26390.313079596843 ; 7715.807837679386 ; 1191055.3735982287 ; 470664.2780984432 ; 14518.000000000002
62 ; 26513.34789262985 ; 7715.807837679386 ; 1217445.6866778254 ; 478380.0859361226 ; 14756.000000000002
63 ; 26316.048618560802 ; 7715.807837679386 ; 1243959.0345704553 ; 486095.893773802 ; 14994.000000000002
64 ; 26679.00955535911 ; 7715.807837679386 ; 1270275.0831890162 ; 493811.7016114814 ; 15232.000000000002
65 ; 26761.31939558967 ; 7715.807837679386 ; 1296954.0927443753 ; 501527.5094491608 ; 15470.000000000002
66 ; 26745.00655592491 ; 7715.807837679386 ; 1323715.412139965 ; 509243.3172868402 ; 15708.000000000002
67 ; 26999.453707201275 ; 7715.807837679386 ; 1350460.4186958899 ; 516959.1251245196 ; 15946.000000000002
68 ; 26996.128696943673 ; 7715.807837679386 ; 1377459.872403091 ; 524674.932962199 ; 16184.000000000002
69 ; 27111.716675216372 ; 7715.807837679386 ; 1404456.0011000347 ; 532390.7407998784 ; 16422.000000000004
70 ; 27217.16526609868 ; 7715.807837679386 ; 1431567.717775251 ; 540106.5486375578 ; 16660.000000000004
71 ; 27306.289990538276 ; 7715.807837679386 ; 1458784.8830413497 ; 547822.3564752372 ; 16898.000000000004
72 ; 27281.32045626119 ; 7715.807837679386 ; 1486091.173031888 ; 555538.1643129166 ; 17136.000000000004
73 ; 27214.01069580858 ; 7715.807837679386 ; 1513372.4934881493 ; 563253.972150596 ; 17374.000000000004
74 ; 27409.998803269962 ; 7715.807837679386 ; 1540586.5041839578 ; 570969.7799882754 ; 17612.000000000004
75 ; 27427.6832755799 ; 7715.807837679386 ; 1567996.5029872279 ; 578685.5878259548 ; 17850.000000000004
76 ; 27461.551128977084 ; 7715.807837679386 ; 1595424.1862628078 ; 586401.3956636342 ; 18088.000000000004
77 ; 27488.911608029975 ; 7715.807837679386 ; 1622885.7373917848 ; 594117.2035013136 ; 18326.000000000004
78 ; 27340.575676956858 ; 7715.807837679386 ; 1650374.6489998149 ; 601833.011338993 ; 18564.000000000004
79 ; 27284.30084783381 ; 7715.807837679386 ; 1677715.2246767718 ; 609548.8191766724 ; 18802.000000000004
80 ; 27433.211816607578 ; 7715.807837679386 ; 1704999.5255246055 ; 617264.6270143518 ; 19040.000000000004
81 ; 27598.975942158173 ; 7715.807837679386 ; 1732432.737341213 ; 624980.4348520312 ; 19278.000000000004
82 ; 27516.834493123126 ; 7715.807837679386 ; 1760031.7132833712 ; 632696.2426897106 ; 19516.000000000004
83 ; 27574.178382086233 ; 7715.807837679386 ; 1787548.5477764944 ; 640412.05052739 ; 19754.000000000004
84 ; 27513.791687662273 ; 7715.807837679386 ; 1815122.7261585807 ; 648127.8583650694 ; 19992.000000000004
85 ; 27415.45485510584 ; 7715.807837679386 ; 1842636.517846243 ; 655843.6662027488 ; 20230.000000000004
86 ; 27497.105407010844 ; 7715.807837679386 ; 1870051.9727013488 ; 663559.4740404282 ; 20468.000000000004
87 ; 27276.57976686237 ; 7715.807837679386 ; 1897549.0781083596 ; 671275.2818781076 ; 20706.000000000004
88 ; 27241.551125418315 ; 7715.807837679386 ; 1924825.657875222 ; 678991.089715787 ; 20944.000000000004
89 ; 27283.364452524987 ; 7715.807837679386 ; 1952067.2090006403 ; 686706.8975534664 ; 21182.000000000004
90 ; 27360.98798409296 ; 7715.807837679386 ; 1979350.5734531654 ; 694422.7053911458 ; 21420.000000000004
91 ; 27199.071921649174 ; 7715.807837679386 ; 2006711.5614372583 ; 702138.5132288252 ; 21658.000000000004
92 ; 27156.3269541396 ; 7715.807837679386 ; 2033910.6333589074 ; 709854.3210665046 ; 21896.000000000004
93 ; 27032.512958234027 ; 7715.807837679386 ; 2061066.960313047 ; 717570.128904184 ; 22134.000000000004
94 ; 27063.17474484773 ; 7715.807837679386 ; 2088099.473271281 ; 725285.9367418634 ; 22372.000000000004
95 ; 27019.167083263797 ; 7715.807837679386 ; 2115162.6480161287 ; 733001.7445795428 ; 22610.000000000004
96 ; 26987.003862998157 ; 7715.807837679386 ; 2142181.8150993926 ; 740717.5524172222 ; 22848.000000000004
97 ; 26734.469187331353 ; 7715.807837679386 ; 2169168.8189623905 ; 748433.3602549016 ; 23086.000000000004
98 ; 26669.93630027401 ; 7715.807837679386 ; 2195903.288149722 ; 756149.168092581 ; 23324.000000000004
99 ; 26546.379845896896 ; 7715.807837679386 ; 2222573.224449996 ; 763864.9759302604 ; 23562.000000000004
100 ; 26510.2991576286 ; 7715.807837679386 ; 2249119.6042958926 ; 771580.7837679398 ; 23800.000000000004
101 ; 26442.760194388626 ; 7715.807837679386 ; 2275629.9034535214 ; 779296.5916056192 ; 24038.000000000004
102 ; 26199.12217708256 ; 7715.807837679386 ; 2302072.66364791 ; 787012.3994432986 ; 24276.000000000004
103 ; 26168.845416013868 ; 7715.807837679386 ; 2328271.7858249927 ; 794728.207280978 ; 24514.000000000004
104 ; 26169.043850178477 ; 7715.807837679386 ; 2354440.631241007 ; 802444.0151186574 ; 24752.000000000004
105 ; 25930.72344721592 ; 7715.807837679386 ; 2380609.675091185 ; 810159.8229563368 ; 24990.000000000004
106 ; 25824.837085144514 ; 7715.807837679386 ; 2406540.398538401 ; 817875.6307940162 ; 25228.000000000004
107 ; 25654.732014492918 ; 7715.807837679386 ; 2432365.2356235455 ; 825591.4386316956 ; 25466.000000000004
108 ; 25354.607560287262 ; 7715.807837679386 ; 2458019.9676380386 ; 833307.246469375 ; 25704.000000000004
109 ; 25313.904928485932 ; 7715.807837679386 ; 2483374.575198326 ; 841023.0543070544 ; 25942.000000000004
110 ; 25164.10729577854 ; 7715.807837679386 ; 2508688.4801268117 ; 848738.8621447338 ; 26180.000000000004
111 ; 25032.096214114536 ; 7715.807837679386 ; 2533852.5874225902 ; 856454.6699824132 ; 26418.000000000004
112 ; 24857.547509169384 ; 7715.807837679386 ; 2558884.683636705 ; 864170.4778200926 ; 26656.000000000004
113 ; 24648.53116748476 ; 7715.807837679386 ; 2583742.231145874 ; 871886.285657772 ; 26894.000000000004
114 ; 24414.000179292987 ; 7715.807837679386 ; 2608390.762313359 ; 879602.0934954514 ; 27132.000000000004
115 ; 24339.8968128362 ; 7715.807837679386 ; 2632804.762492652 ; 887317.9013331308 ; 27370.000000000004
116 ; 24034.891134587706 ; 7715.807837679386 ; 2657144.659305488 ; 895033.7091708102 ; 27608.000000000004
117 ; 23958.2615665862 ; 7715.807837679386 ; 2681179.550440076 ; 902749.5170084896 ; 27846.000000000004
118 ; 23673.786356898698 ; 7715.807837679386 ; 2705137.812006662 ; 910465.324846169 ; 28084.000000000004
119 ; 23421.13460692746 ; 7715.807837679386 ; 2728811.5983635606 ; 918181.1326838484 ; 28322.000000000004
120 ; 23444.302613728472 ; 7715.807837679386 ; 2752232.7329704883 ; 925896.9405215278 ; 28560.000000000004
121 ; 22940.48682786596 ; 7715.807837679386 ; 2775677.035584217 ; 933612.7483592072 ; 28798.000000000004
122 ; 22708.077386972152 ; 7715.807837679386 ; 2798617.522412083 ; 941328.5561968866 ; 29036.000000000004
123 ; 22754.89999054168 ; 7715.807837679386 ; 2821325.599799055 ; 949044.364034566 ; 29274.000000000004
124 ; 22502.405162435825 ; 7715.807837679386 ; 2844080.499789597 ; 956760.1718722454 ; 29512.000000000004
125 ; 22102.03391079337 ; 7715.807837679386 ; 2866582.904952033 ; 964475.9797099248 ; 29750.000000000004
126 ; 21962.48173990435 ; 7715.807837679386 ; 2888684.938862826 ; 972191.7875476042 ; 29988.000000000004
127 ; 21587.64545467208 ; 7715.807837679386 ; 2910647.4206027305 ; 979907.5953852836 ; 30226.000000000004
128 ; 21553.28825604793 ; 7715.807837679386 ; 2932235.0660574026 ; 987623.403222963 ; 30464.000000000004
129 ; 21193.303038183483 ; 7715.807837679386 ; 2953788.3543134504 ; 995339.2110606424 ; 30702.000000000004
130 ; 20890.08647162755 ; 7715.807837679386 ; 2974981.657351634 ; 1003055.0188983218 ; 30940.000000000004
131 ; 20528.058447598927 ; 7715.807837679386 ; 2995871.7438232615 ; 1010770.8267360012 ; 31178.000000000004
132 ; 20478.380107829536 ; 7715.807837679386 ; 3016399.8022708604 ; 1018486.6345736806 ; 31416.000000000004
133 ; 20189.509486873525 ; 7715.807837679386 ; 3036878.1823786898 ; 1026202.44241136 ; 31654.000000000004
134 ; 19683.11721572768 ; 7715.807837679386 ; 3057067.6918655634 ; 1033918.2502490394 ; 31892.000000000004
135 ; 19478.754359958315 ; 7715.807837679386 ; 3076750.809081291 ; 1041634.0580867188 ; 32130.000000000004
136 ; 19006.959893989966 ; 7715.807837679386 ; 3096229.563441249 ; 1049349.8659243982 ; 32368.000000000004
137 ; 18778.54691463107 ; 7715.807837679386 ; 3115236.523335239 ; 1057065.6737620775 ; 32606.000000000004
138 ; 18475.723083383797 ; 7715.807837679386 ; 3134015.07024987 ; 1064781.4815997567 ; 32844.00000000001
139 ; 18154.353703693843 ; 7715.807837679386 ; 3152490.793333254 ; 1072497.289437436 ; 33082.00000000001
140 ; 17970.678743183817 ; 7715.807837679386 ; 3170645.147036948 ; 1080213.0972751153 ; 33320.00000000001
141 ; 17435.833605547865 ; 7715.807837679386 ; 3188615.8257801314 ; 1087928.9051127946 ; 33558.00000000001
142 ; 17285.927564296806 ; 7715.807837679386 ; 3206051.6593856793 ; 1095644.712950474 ; 33796.00000000001
143 ; 16844.351884612708 ; 7715.807837679386 ; 3223337.586949976 ; 1103360.5207881532 ; 34034.00000000001
144 ; 16390.552610602084 ; 7715.807837679386 ; 3240181.938834589 ; 1111076.3286258325 ; 34272.00000000001
145 ; 16520.539219793198 ; 7715.807837679386 ; 3256572.491445191 ; 1118792.1364635117 ; 34510.00000000001
146 ; 16165.257556720939 ; 7715.807837679386 ; 3273093.0306649846 ; 1126507.944301191 ; 34748.00000000001
147 ; 16276.087718844985 ; 7715.807837679386 ; 3289258.2882217057 ; 1134223.7521388703 ; 34986.00000000001
148 ; 16090.207181028523 ; 7715.807837679386 ; 3305534.3759405506 ; 1141939.5599765496 ; 35224.00000000001
149 ; 16032.781192540915 ; 7715.807837679386 ; 3321624.583121579 ; 1149655.3678142289 ; 35462.00000000001
150 ; 15656.577019455604 ; 7715.807837679386 ; 3337657.3643141203 ; 1157371.1756519082 ; 35700.00000000001
151 ; 15600.035729654393 ; 7715.807837679386 ; 3353313.9413335756 ; 1165086.9834895874 ; 35938.00000000001
152 ; 15743.226658275356 ; 7715.807837679386 ; 3368913.9770632302 ; 1172802.7913272667 ; 36176.00000000001
153 ; 15623.58251827371 ; 7715.807837679386 ; 3384657.2037215056 ; 1180518.599164946 ; 36414.00000000001
154 ; 15437.260200029797 ; 7715.807837679386 ; 3400280.786239779 ; 1188234.4070026253 ; 36652.00000000001
155 ; 15266.316420455178 ; 7715.807837679386 ; 3415718.046439809 ; 1195950.2148403046 ; 36890.00000000001
156 ; 15016.271582570103 ; 7715.807837679386 ; 3430984.362860264 ; 1203666.0226779839 ; 37128.00000000001
157 ; 14747.014518568418 ; 7715.807837679386 ; 3446000.6344428337 ; 1211381.8305156631 ; 37366.00000000001
158 ; 14836.253646975092 ; 7715.807837679386 ; 3460747.648961402 ; 1219097.6383533424 ; 37604.00000000001
159 ; 14721.144354958038 ; 7715.807837679386 ; 3475583.902608377 ; 1226813.4461910217 ; 37842.00000000001
160 ; 14654.869286452118 ; 7715.807837679386 ; 3490305.046963335 ; 1234529.254028701 ; 38080.00000000001
161 ; 14671.231020571324 ; 7715.807837679386 ; 3504959.916249787 ; 1242245.0618663803 ; 38318.00000000001
162 ; 14311.858041070207 ; 7715.807837679386 ; 3519631.147270358 ; 1249960.8697040596 ; 38556.00000000001
163 ; 13956.342360955887 ; 7715.807837679386 ; 3533943.0053114286 ; 1257676.6775417388 ; 38794.00000000001
164 ; 14100.452704842723 ; 7715.807837679386 ; 3547899.347672384 ; 1265392.4853794181 ; 39032.00000000001
165 ; 13876.894966971933 ; 7715.807837679386 ; 3561999.800377227 ; 1273108.2932170974 ; 39270.00000000001
166 ; 13825.038167334647 ; 7715.807837679386 ; 3575876.695344199 ; 1280824.1010547767 ; 39508.00000000001
167 ; 13699.287547780768 ; 7715.807837679386 ; 3589701.7335115336 ; 1288539.908892456 ; 39746.00000000001
168 ; 13357.867231943977 ; 7715.807837679386 ; 3603401.0210593143 ; 1296255.7167301353 ; 39984.00000000001
169 ; 13190.545115861918 ; 7715.807837679386 ; 3616758.8882912584 ; 1303971.5245678145 ; 40222.00000000001
170 ; 13272.38919588226 ; 7715.807837679386 ; 3629949.4334071204 ; 1311687.3324054938 ; 40460.00000000001
171 ; 12934.632671134159 ; 7715.807837679386 ; 3643221.8226030027 ; 1319403.140243173 ; 40698.00000000001
172 ; 12771.71685770391 ; 7715.807837679386 ; 3656156.4552741367 ; 1327118.9480808524 ; 40936.00000000001
173 ; 12604.673450908766 ; 7715.807837679386 ; 3668928.1721318406 ; 1334834.7559185317 ; 41174.00000000001
174 ; 12867.695776440618 ; 7715.807837679386 ; 3681532.845582749 ; 1342550.563756211 ; 41412.00000000001
175 ; 12765.218328727859 ; 7715.807837679386 ; 3694400.54135919 ; 1350266.3715938902 ; 41650.00000000001
176 ; 12794.650655912586 ; 7715.807837679386 ; 3707165.759687918 ; 1357982.1794315695 ; 41888.00000000001
177 ; 12729.945038275851 ; 7715.807837679386 ; 3719960.4103438305 ; 1365697.9872692488 ; 42126.00000000001
178 ; 12602.655105374291 ; 7715.807837679386 ; 3732690.3553821063 ; 1373413.795106928 ; 42364.00000000001
179 ; 12663.795925962515 ; 7715.807837679386 ; 3745293.0104874806 ; 1381129.6029446074 ; 42602.00000000001
180 ; 12851.816567592548 ; 7715.807837679386 ; 3757956.8064134433 ; 1388845.4107822867 ; 42840.00000000001
181 ; 12893.515856517315 ; 7715.807837679386 ; 3770808.6229810356 ; 1396561.218619966 ; 43078.00000000001
182 ; 12756.728919368541 ; 7715.807837679386 ; 3783702.138837553 ; 1404277.0264576452 ; 43316.00000000001
183 ; 13021.626045075758 ; 7715.807837679386 ; 3796458.867756922 ; 1411992.8342953245 ; 43554.00000000001
184 ; 12828.573889886584 ; 7715.807837679386 ; 3809480.4938019975 ; 1419708.6421330038 ; 43792.00000000001
185 ; 13005.737294625902 ; 7715.807837679386 ; 3822309.067691884 ; 1427424.449970683 ; 44030.00000000001
186 ; 12958.778572999365 ; 7715.807837679386 ; 3835314.80498651 ; 1435140.2578083624 ; 44268.00000000001
