CSV File for the City 3 on Day 160
1 - Minute m 
2 - Power Consumed at minute m 
3 - Power Produced at minute m 
4 - Energy Consumed since the beginning of the day 
5 - Energy Produced since the beginning of the day 
6 - Energy Lost since the beginning of the day on lines starting from the city
 
0 ; 5859.837352896448 ; 93522.99640608173 ; 0.0 ; 0.0 ; 0.0
1 ; 6054.987496736932 ; 93179.89596668672 ; 5859.837352896448 ; 93522.99640608173 ; 0.0
2 ; 6593.383850297981 ; 92871.76641854609 ; 11914.82484963338 ; 186702.89237276843 ; 0.0
3 ; 6879.7381307089 ; 92598.98044005466 ; 18508.20869993136 ; 279574.6587913145 ; 0.0
4 ; 7309.117740026594 ; 92361.87204570737 ; 25387.946830640263 ; 372173.6392313692 ; 0.0
5 ; 7696.903140907527 ; 92160.73472600873 ; 32697.06457066686 ; 464535.51127707656 ; 0.0
6 ; 7981.439518356345 ; 91995.81978161803 ; 40393.96771157438 ; 556696.2460030853 ; 0.0
7 ; 8391.962815260831 ; 91867.33487347957 ; 48375.40722993073 ; 648692.0657847034 ; 0.0
8 ; 8845.688231700698 ; 91775.44280831191 ; 56767.370045191565 ; 740559.4006581829 ; 0.0
9 ; 8995.05229212407 ; 91720.26057600114 ; 65613.05827689226 ; 832334.8434664948 ; 0.0
10 ; 9225.727770116127 ; 91701.85865221561 ; 74608.11056901634 ; 924055.104042496 ; 0.0
11 ; 9642.956411595893 ; 91720.26057600114 ; 83833.83833913246 ; 1015756.9626947115 ; 0.0
12 ; 10001.986446602636 ; 91775.44280831191 ; 93476.79475072835 ; 1107477.2232707127 ; 0.0
13 ; 10357.457217153107 ; 91867.33487347957 ; 103478.78119733099 ; 1199252.6660790246 ; 0.0
14 ; 10729.020835401663 ; 91995.81978161793 ; 113836.23841448409 ; 1291120.000952504 ; 0.0
15 ; 10822.058713234017 ; 92160.73472600873 ; 124565.25924988576 ; 1383115.820734122 ; 0.0
16 ; 11226.792454616465 ; 92361.87204570737 ; 135387.31796311977 ; 1475276.5554601308 ; 0.0
17 ; 11569.463394004993 ; 92598.98044005466 ; 146614.11041773623 ; 1567638.4275058382 ; 0.0
18 ; 11840.449701088457 ; 92871.76641854619 ; 158183.57381174123 ; 1660237.4079458928 ; 0.0
19 ; 12112.788411517964 ; 93179.89596668661 ; 170024.02351282968 ; 1753109.174364439 ; 0.0
20 ; 12283.895143396598 ; 93522.99640608182 ; 182136.81192434765 ; 1846289.0703311255 ; 0.0
21 ; 12646.721197205636 ; 93900.65842514894 ; 194420.70706774425 ; 1939812.0667372074 ; 0.0
22 ; 13035.063998663283 ; 94312.43825547122 ; 207067.42826494988 ; 2033712.7251623564 ; 0.0
23 ; 13239.336898748043 ; 94757.8599679952 ; 220102.49226361315 ; 2128025.163417828 ; 0.0
24 ; 13633.320931094164 ; 95236.41786295394 ; 233341.8291623612 ; 2222783.023385823 ; 0.0
25 ; 13822.336499400106 ; 95747.57892757705 ; 246975.15009345536 ; 2318019.441248777 ; 0.0
26 ; 13998.19248941855 ; 96290.78533627541 ; 260797.48659285548 ; 2413767.020176354 ; 0.0
27 ; 14335.7646964571 ; 96865.4569690161 ; 274795.67908227403 ; 2510057.8055126294 ; 0.0
28 ; 14758.599410235382 ; 97470.99392498334 ; 289131.4437787311 ; 2606923.2624816457 ; 0.0
29 ; 14790.329949552492 ; 98106.77901028172 ; 303890.04318896646 ; 2704394.256406629 ; 0.0
30 ; 14979.099892062844 ; 98772.18018032526 ; 318680.37313851895 ; 2802501.035416911 ; 0.0
31 ; 15257.320992974383 ; 99466.5529196038 ; 333659.4730305818 ; 2901273.215597236 ; 0.0
32 ; 15437.479531560186 ; 100189.24254366446 ; 348916.79402355617 ; 3000739.76851684 ; 0.0
33 ; 15779.880614085541 ; 100939.58641033864 ; 364354.2735551164 ; 3100929.0110605042 ; 0.0
34 ; 15854.420426300067 ; 101716.91602943011 ; 380134.1541692019 ; 3201868.597470843 ; 0.0
35 ; 16176.184887488509 ; 102520.5590622138 ; 395988.574595502 ; 3303585.5135002728 ; 0.0
36 ; 16249.858640664284 ; 103349.84120414044 ; 412164.7594829905 ; 3406106.0725624864 ; 0.0
37 ; 16629.55661599106 ; 104204.08794606797 ; 428414.61812365474 ; 3509455.9137666267 ; 0.0
38 ; 16850.860965066484 ; 105082.62621112564 ; 445044.1747396458 ; 3613660.0017126948 ; 0.0
39 ; 16887.63838484059 ; 105984.78586594271 ; 461895.03570471227 ; 3718742.62792382 ; 0.0
40 ; 17131.596446002583 ; 106909.90110642498 ; 478782.67408955283 ; 3824727.413789763 ; 0.0
41 ; 17320.930624220622 ; 107857.31171955045 ; 495914.27053555544 ; 3931637.314896188 ; 0.0
42 ; 17497.740057209376 ; 108826.36422375387 ; 513235.2011597761 ; 4039494.6266157385 ; 0.0
43 ; 17838.960788401055 ; 109816.41289141291 ; 530732.9412169855 ; 4148320.9908394925 ; 0.0
44 ; 17920.823211647075 ; 110826.82065771484 ; 548571.9020053865 ; 4258137.403730906 ; 0.0
45 ; 18111.064050985166 ; 111856.95992080556 ; 566492.7252170336 ; 4368964.224388621 ; 0.0
46 ; 18191.416474794565 ; 112906.21323859376 ; 584603.7892680188 ; 4480821.184309427 ; 0.0
47 ; 18580.439562759882 ; 113973.9739279331 ; 602795.2057428134 ; 4593727.397548021 ; 0.0
48 ; 18440.734404021066 ; 115059.64657212867 ; 621375.6453055732 ; 4707701.371475954 ; 0.0
49 ; 18607.57438757376 ; 116162.64744284621 ; 639816.3797095943 ; 4822761.0180480825 ; 0.0
50 ; 18960.39658131207 ; 117282.40484253255 ; 658423.954097168 ; 4938923.665490929 ; 0.0
51 ; 19073.828203615558 ; 118418.35937341928 ; 677384.3506784801 ; 5056206.070333461 ; 0.0
52 ; 19109.7240679277 ; 119569.96413907477 ; 696458.1788820957 ; 5174624.429706881 ; 0.0
53 ; 19225.415498944105 ; 120736.68488431057 ; 715567.9029500234 ; 5294194.393845956 ; 0.0
54 ; 19295.885769432592 ; 121918.00007904932 ; 734793.3184489675 ; 5414931.078730267 ; 0.0
55 ; 19417.386115186095 ; 123113.40095152365 ; 754089.2042184002 ; 5536849.078809316 ; 0.0
56 ; 19625.40203861547 ; 124322.3914759215 ; 773506.5903335863 ; 5659962.47976084 ; 0.0
57 ; 19638.162282876845 ; 125544.48831931091 ; 793131.9923722018 ; 5784284.871236761 ; 0.0
58 ; 19863.77591547067 ; 126779.22075239349 ; 812770.1546550787 ; 5909829.359556072 ; 0.0
59 ; 19985.25439984307 ; 128026.1305283438 ; 832633.9305705493 ; 6036608.580308466 ; 0.0
60 ; 20101.214232679857 ; 129284.77173369359 ; 852619.1849703924 ; 6164634.71083681 ; 0.0
61 ; 20124.253401617596 ; 130554.71061493413 ; 872720.3992030722 ; 6293919.482570504 ; 0.0
62 ; 20184.48740072987 ; 131835.5253842221 ; 892844.6526046898 ; 6424474.193185438 ; 0.0
63 ; 20288.37709035736 ; 133126.80600729934 ; 913029.1400054197 ; 6556309.718569661 ; 0.0
64 ; 20464.78438914513 ; 134428.15397647215 ; 933317.5170957771 ; 6689436.52457696 ; 0.0
65 ; 20507.17159637514 ; 135739.18207124126 ; 953782.3014849222 ; 6823864.678553432 ; 0.0
66 ; 20500.7785210623 ; 137059.51410893432 ; 974289.4730812974 ; 6959603.860624674 ; 0.0
67 ; 20485.79979424742 ; 138388.78468746415 ; 994790.2516023597 ; 7096663.374733608 ; 0.0
68 ; 20833.887914456383 ; 139726.63892212682 ; 1015276.0513966071 ; 7235052.159421072 ; 0.0
69 ; 20801.748497452143 ; 141072.7321781498 ; 1036109.9393110635 ; 7374778.798343199 ; 0.0
70 ; 20830.09252922421 ; 142426.72980052128 ; 1056911.6878085157 ; 7515851.530521349 ; 0.0
71 ; 20836.954288615758 ; 143788.3068424562 ; 1077741.78033774 ; 7658278.26032187 ; 0.0
72 ; 20859.70091853171 ; 145157.14779369975 ; 1098578.7346263558 ; 7802066.567164327 ; 0.0
73 ; 21022.37316108275 ; 146532.9463097227 ; 1119438.4355448876 ; 7947223.714958027 ; 0.0
74 ; 21144.7194444817 ; 147915.40494273123 ; 1140460.8087059704 ; 8093756.66126775 ; 0.0
75 ; 21179.73737721014 ; 149304.23487529176 ; 1161605.528150452 ; 8241672.066210481 ; 0.0
76 ; 21023.737325585273 ; 150699.1556572621 ; 1182785.2655276621 ; 8390976.301085774 ; 0.0
77 ; 21082.36456144665 ; 152099.89494661978 ; 1203809.0028532473 ; 8541675.456743035 ; 0.0
78 ; 21223.151700036316 ; 153506.18825468875 ; 1224891.367414694 ; 8693775.351689655 ; 0.0
79 ; 21127.996114901678 ; 154917.77869618274 ; 1246114.5191147304 ; 8847281.539944343 ; 0.0
80 ; 21150.141005079815 ; 156334.41674441338 ; 1267242.5152296321 ; 9002199.318640526 ; 0.0
81 ; 21199.704042019996 ; 157755.85999194137 ; 1288392.6562347119 ; 9158533.73538494 ; 0.0
82 ; 21070.950746741637 ; 159181.87291689566 ; 1309592.360276732 ; 9316289.59537688 ; 0.0
83 ; 21082.754416522806 ; 160612.22665512926 ; 1330663.3110234735 ; 9475471.468293777 ; 0.0
84 ; 21274.55684199952 ; 162046.69877833597 ; 1351746.0654399963 ; 9636083.694948906 ; 0.0
85 ; 21195.162227836223 ; 163485.07307821288 ; 1373020.6222819958 ; 9798130.393727243 ; 0.0
86 ; 21171.76647694327 ; 164927.13935671482 ; 1394215.784509832 ; 9961615.466805456 ; 0.0
87 ; 21141.6023641778 ; 166372.69322241787 ; 1415387.5509867752 ; 1.0126542606162172E7 ; 0.0
88 ; 21113.32812763071 ; 167821.5358929806 ; 1436529.153350953 ; 1.029291529938459E7 ; 0.0
89 ; 20901.315854305318 ; 169273.47400366873 ; 1457642.4814785838 ; 1.046073683527757E7 ; 0.0
90 ; 21143.549886619883 ; 170728.31942188693 ; 1478543.7973328892 ; 1.063001030928124E7 ; 0.0
91 ; 21118.00553113599 ; 172185.88906764652 ; 1499687.347219509 ; 1.0800738628703127E7 ; 0.0
92 ; 20904.090705164585 ; 173646.00473988024 ; 1520805.352750645 ; 1.0972924517770773E7 ; 0.0
93 ; 20790.35832183264 ; 175108.4929485043 ; 1541709.4434558095 ; 1.1146570522510653E7 ; 0.0
94 ; 20902.591115334268 ; 176573.18475211764 ; 1562499.8017776422 ; 1.1321679015459158E7 ; 0.0
95 ; 20567.663248911333 ; 178039.91560121864 ; 1583402.3928929765 ; 1.1498252200211275E7 ; 0.0
96 ; 20736.686961619067 ; 179508.52518681434 ; 1603970.0561418878 ; 1.1676292115812493E7 ; 0.0
97 ; 20672.74769296523 ; 180978.85729428937 ; 1624706.743103507 ; 1.1855800640999308E7 ; 0.0
98 ; 20670.250237711614 ; 182450.7596624009 ; 1645379.4907964722 ; 1.2036779498293597E7 ; 0.0
99 ; 20438.690143765827 ; 183924.08384726004 ; 1666049.741034184 ; 1.2219230257955998E7 ; 0.0
100 ; 20373.08091033825 ; 185398.68509116003 ; 1686488.4311779498 ; 1.2403154341803258E7 ; 0.0
101 ; 20294.19649332518 ; 186874.42219610926 ; 1706861.512088288 ; 1.2588553026894419E7 ; 0.0
102 ; 20371.99886729427 ; 188351.15740192847 ; 1727155.7085816134 ; 1.2775427449090527E7 ; 0.0
103 ; 20182.010310772283 ; 189828.75626876953 ; 1747527.7074489077 ; 1.2963778606492456E7 ; 0.0
104 ; 20025.229233568836 ; 191307.0875639165 ; 1767709.71775968 ; 1.3153607362761226E7 ; 0.0
105 ; 19961.45406492961 ; 192786.0231527292 ; 1787734.9469932488 ; 1.3344914450325143E7 ; 0.0
106 ; 19849.52035408732 ; 194265.4378935928 ; 1807696.4010581784 ; 1.3537700473477872E7 ; 0.0
107 ; 19723.18980402779 ; 195745.20953673785 ; 1827545.9214122656 ; 1.3731965911371466E7 ; 0.0
108 ; 19710.40537393454 ; 197225.21862679825 ; 1847269.1112162934 ; 1.3927711120908204E7 ; 0.0
109 ; 19480.05822395523 ; 198705.3484089779 ; 1866979.5165902278 ; 1.4124936339535004E7 ; 0.0
110 ; 19405.515237665597 ; 200185.48473869817 ; 1886459.5748141832 ; 1.4323641687943982E7 ; 0.0
111 ; 19256.989994203126 ; 201665.51599460308 ; 1905865.0900518487 ; 1.452382717268268E7 ; 0.0
112 ; 19055.395625676152 ; 203145.33299480088 ; 1925122.0800460519 ; 1.4725492688677283E7 ; 0.0
113 ; 18840.94427000829 ; 204624.82891622483 ; 1944177.4756717281 ; 1.4928638021672083E7 ; 0.0
114 ; 18763.272562909533 ; 206103.89921699843 ; 1963018.4199417364 ; 1.5133262850588309E7 ; 0.0
115 ; 18754.45138495921 ; 207582.44156169554 ; 1981781.692504646 ; 1.5339366749805307E7 ; 0.0
116 ; 18375.4229215632 ; 209060.35574938593 ; 2000536.1438896053 ; 1.5546949191367002E7 ; 0.0
117 ; 18254.83195715505 ; 210537.5436443643 ; 2018911.5668111686 ; 1.5756009547116388E7 ; 0.0
118 ; 18261.88724349708 ; 212013.90910945993 ; 2037166.3987683237 ; 1.5966547090760753E7 ; 0.0
119 ; 17913.11804432105 ; 213489.35794183146 ; 2055428.286011821 ; 1.6178560999870213E7 ; 0.0
120 ; 17810.234580612927 ; 214963.79781115067 ; 2073341.4040561419 ; 1.6392050357812043E7 ; 0.0
121 ; 17580.574670007754 ; 216437.13820008616 ; 2091151.6386367548 ; 1.6607014155623194E7 ; 0.0
122 ; 17280.352661856872 ; 217909.29034699788 ; 2108732.2133067627 ; 1.682345129382328E7 ; 0.0
123 ; 17254.848678962764 ; 219380.16719075807 ; 2126012.5659686197 ; 1.704136058417028E7 ; 0.0
124 ; 17006.563739806177 ; 220849.68331761812 ; 2143267.4146475825 ; 1.7260740751361035E7 ; 0.0
125 ; 16879.866113281532 ; 222317.75491004036 ; 2160273.9783873884 ; 1.748159043467865E7 ; 0.0
126 ; 16697.90623158254 ; 223784.29969742184 ; 2177153.8445006697 ; 1.7703908189588692E7 ; 0.0
127 ; 16571.74628613577 ; 225249.23690863483 ; 2193851.7507322524 ; 1.7927692489286114E7 ; 0.0
128 ; 16342.19762655609 ; 226712.48722631548 ; 2210423.497018388 ; 1.8152941726194747E7 ; 0.0
129 ; 16020.16073360679 ; 228173.97274283195 ; 2226765.6946449443 ; 1.837965421342106E7 ; 0.0
130 ; 15889.404045194879 ; 229633.61691786762 ; 2242785.855378551 ; 1.8607828186163895E7 ; 0.0
131 ; 15671.074336678135 ; 231091.34453755716 ; 2258675.259423746 ; 1.8837461803081762E7 ; 0.0
132 ; 15494.159206086571 ; 232547.08167511472 ; 2274346.333760424 ; 1.906855314761932E7 ; 0.0
133 ; 14931.968270256602 ; 234000.75565289686 ; 2289840.492966511 ; 1.9301100229294434E7 ; 0.0
134 ; 14942.64914550488 ; 235452.29500584494 ; 2304772.4612367675 ; 1.953510098494733E7 ; 0.0
135 ; 14690.2046511833 ; 236901.62944625347 ; 2319715.1103822724 ; 1.9770553279953178E7 ; 0.0
136 ; 14357.182161215562 ; 238348.68982981305 ; 2334405.315033456 ; 2.000745490939943E7 ; 0.0
137 ; 14056.190003770549 ; 239793.4081228791 ; 2348762.4971946715 ; 2.0245803599229243E7 ; 0.0
138 ; 13744.453714700368 ; 241235.7173709188 ; 2362818.687198442 ; 2.048559700735212E7 ; 0.0
139 ; 13525.72199755166 ; 242675.5516680911 ; 2376563.1409131424 ; 2.072683272472304E7 ; 0.0
140 ; 13368.138771510972 ; 244112.84612791633 ; 2390088.862910694 ; 2.0969508276391134E7 ; 0.0
141 ; 13110.52203769939 ; 245547.53685499285 ; 2403457.001682205 ; 2.121362112251905E7 ; 0.0
142 ; 12776.539049840405 ; 246979.56091772197 ; 2416567.5237199045 ; 2.1459168659374043E7 ; 0.0
143 ; 12535.926468221518 ; 248408.85632200114 ; 2429344.062769745 ; 2.1706148220291764E7 ; 0.0
144 ; 12175.060505679978 ; 249835.36198584933 ; 2441879.9892379665 ; 2.1954557076613765E7 ; 0.0
145 ; 12108.295594563062 ; 251259.01771492875 ; 2454055.0497436463 ; 2.2204392438599616E7 ; 0.0
146 ; 11999.740637285182 ; 252679.76417892877 ; 2466163.3453382095 ; 2.2455651456314545E7 ; 0.0
147 ; 11802.376810028636 ; 254097.54288877937 ; 2478163.0859754947 ; 2.2708331220493473E7 ; 0.0
148 ; 11890.060574169453 ; 255512.2961746628 ; 2489965.4627855234 ; 2.2962428763382252E7 ; 0.0
149 ; 11808.445017502154 ; 256923.96716479326 ; 2501855.5233596927 ; 2.3217941059556916E7 ; 0.0
150 ; 11763.389066593149 ; 258332.4997649349 ; 2513663.968377195 ; 2.347486502672171E7 ; 0.0
151 ; 11682.33734307225 ; 259737.83863863206 ; 2525427.357443788 ; 2.3733197526486643E7 ; 0.0
152 ; 11450.601400396628 ; 261139.929188123 ; 2537109.69478686 ; 2.3992935365125276E7 ; 0.0
153 ; 11502.857331955716 ; 262538.7175359129 ; 2548560.296187257 ; 2.42540752943134E7 ; 0.0
154 ; 11336.200724407172 ; 263934.1505069812 ; 2560063.1535192127 ; 2.4516614011849314E7 ; 0.0
155 ; 11213.08940924648 ; 265326.1756115993 ; 2571399.35424362 ; 2.4780548162356295E7 ; 0.0
156 ; 11174.960991113638 ; 266714.74102873664 ; 2582612.4436528664 ; 2.5045874337967895E7 ; 0.0
157 ; 11145.279201391591 ; 268099.79559003207 ; 2593787.40464398 ; 2.5312589078996632E7 ; 0.0
158 ; 10946.642825280258 ; 269481.2887643113 ; 2604932.6838453715 ; 2.5580688874586664E7 ; 0.0
159 ; 10897.059152151367 ; 270859.1706426294 ; 2615879.326670652 ; 2.5850170163350977E7 ; 0.0
160 ; 10826.85928945392 ; 272233.39192381874 ; 2626776.3858228032 ; 2.6121029333993606E7 ; 0.0
161 ; 10813.621870772606 ; 273603.9039005243 ; 2637603.245112257 ; 2.6393262725917425E7 ; 0.0
162 ; 10544.233080135677 ; 274970.6584457094 ; 2648416.8669830295 ; 2.6666866629817948E7 ; 0.0
163 ; 10411.75383420257 ; 276333.6079996126 ; 2658961.100063165 ; 2.6941837288263656E7 ; 0.0
164 ; 10447.90452933962 ; 277692.7055571413 ; 2669372.8538973676 ; 2.7218170896263268E7 ; 0.0
165 ; 10190.55921298002 ; 279047.9046556857 ; 2679820.7584267072 ; 2.749586360182041E7 ; 0.0
166 ; 10280.83374602467 ; 280399.1593633375 ; 2690011.317639687 ; 2.7774911506476097E7 ; 0.0
167 ; 9989.519982238991 ; 281746.4242674995 ; 2700292.151385712 ; 2.8055310665839434E7 ; 0.0
168 ; 9763.349584538666 ; 283089.6544638706 ; 2710281.6713679507 ; 2.8337057090106934E7 ; 0.0
169 ; 9788.467715524488 ; 284428.80554579577 ; 2720045.020952489 ; 2.8620146744570807E7 ; 0.0
170 ; 9578.988206102751 ; 285763.8335939642 ; 2729833.488668014 ; 2.8904575550116602E7 ; 0.0
171 ; 9509.970563356072 ; 287094.69516644604 ; 2739412.476874117 ; 2.9190339383710567E7 ; 0.0
172 ; 9352.3389593767 ; 288421.34728905495 ; 2748922.447437473 ; 2.9477434078877013E7 ; 0.0
173 ; 9340.334904219708 ; 289743.7474460244 ; 2758274.78639685 ; 2.976585542616607E7 ; 0.0
174 ; 9268.46588827603 ; 291061.8535709873 ; 2767615.1213010694 ; 3.005559917361209E7 ; 0.0
175 ; 9233.073409418603 ; 292375.62403824815 ; 2776883.5871893456 ; 3.034666102718308E7 ; 0.0
176 ; 9365.486200261608 ; 293685.0176543376 ; 2786116.660598764 ; 3.0639036651221327E7 ; 0.0
177 ; 9535.22215411989 ; 294989.99364983896 ; 2795482.1467990256 ; 3.0932721668875664E7 ; 0.0
178 ; 9352.880854021401 ; 296290.5116714783 ; 2805017.3689531456 ; 3.1227711662525505E7 ; 0.0
179 ; 9303.598970388406 ; 297586.53177446814 ; 2814370.249807167 ; 3.1524002174196985E7 ; 0.0
180 ; 9448.100694065337 ; 298878.0144150961 ; 2823673.8487775554 ; 3.1821588705971453E7 ; 0.0
181 ; 9546.845379500308 ; 300164.9204435501 ; 2833121.949471621 ; 3.212046672038655E7 ; 0.0
182 ; 9587.378497237785 ; 301447.2110969729 ; 2842668.794851121 ; 3.24206316408301E7 ; 0.0
183 ; 9623.915610942922 ; 302724.8479927364 ; 2852256.173348359 ; 3.272207885192707E7 ; 0.0
184 ; 9527.341954659378 ; 303997.7931219294 ; 2861880.088959302 ; 3.302480369991981E7 ; 0.0
185 ; 9618.877998129743 ; 305266.00884305197 ; 2871407.430913961 ; 3.332880149304174E7 ; 0.0
186 ; 9546.88618971988 ; 306529.4578759079 ; 2881026.308912091 ; 3.363406750188479E7 ; 0.0
187 ; 9644.750119098491 ; 307788.10329568986 ; 2890573.1951018106 ; 3.3940596959760696E7 ; 0.0
188 ; 9682.508770531962 ; 309041.90852725046 ; 2900217.945220909 ; 3.424838506305639E7 ; 0.0
189 ; 9623.137007271249 ; 310290.8373395525 ; 2909900.453991441 ; 3.4557426971583635E7 ; 0.0
190 ; 9656.263248872125 ; 311534.8538402935 ; 2919523.5909987125 ; 3.4867717808923185E7 ; 0.0
191 ; 9695.198213455073 ; 312773.9224706967 ; 2929179.8542475845 ; 3.517925266276348E7 ; 0.0
192 ; 9631.702115596225 ; 314008.0080004658 ; 2938875.0524610397 ; 3.549202658523417E7 ; 0.0
193 ; 9728.219333376433 ; 315237.07552289555 ; 2948506.754576636 ; 3.5806034593234636E7 ; 0.0
194 ; 9688.011836124344 ; 316461.0904501341 ; 2958234.9739100123 ; 3.612127166875753E7 ; 0.0
195 ; 9630.34742133889 ; 317680.01850859256 ; 2967922.9857461364 ; 3.6437732759207666E7 ; 0.0
196 ; 9819.768226535676 ; 318893.82573449524 ; 2977553.333167475 ; 3.675541277771626E7 ; 0.0
197 ; 9819.26647165963 ; 320102.4784695687 ; 2987373.1013940107 ; 3.707430660345075E7 ; 0.0
198 ; 9782.60383906039 ; 321305.9433568621 ; 2997192.3678656705 ; 3.739440908192032E7 ; 0.0
199 ; 9857.752323723456 ; 322504.18733669684 ; 3006974.9717047308 ; 3.771571502527718E7 ; 0.0
200 ; 9859.48966583091 ; 323697.17764274013 ; 3016832.724028454 ; 3.803821921261388E7 ; 0.0
201 ; 9849.119056369816 ; 324884.8817981986 ; 3026692.213694285 ; 3.836191639025662E7 ; 0.0
202 ; 9841.497054775147 ; 326067.2676121288 ; 3036541.332750655 ; 3.868680127205482E7 ; 0.0
203 ; 10017.18760095641 ; 327244.3031758598 ; 3046382.82980543 ; 3.901286853966695E7 ; 0.0
204 ; 9821.075417229971 ; 328415.9568595251 ; 3056400.0174063863 ; 3.934011284284281E7 ; 0.0
205 ; 9940.128635961864 ; 329582.1973087002 ; 3066221.092823616 ; 3.966852879970233E7 ; 0.0
206 ; 9994.106840497789 ; 330742.9934411418 ; 3076161.2214595783 ; 3.999811099701103E7 ; 0.0
207 ; 10001.086584454568 ; 331898.31444362656 ; 3086155.328300076 ; 4.032885399045217E7 ; 0.0
208 ; 10027.376815373942 ; 333048.1297688855 ; 3096156.4148845305 ; 4.0660752304895796E7 ; 0.0
209 ; 10125.529603588904 ; 334192.40913263045 ; 3106183.7916999045 ; 4.099380043466468E7 ; 0.0
210 ; 10034.524468806037 ; 335331.1225106718 ; 3116309.3213034933 ; 4.132799284379731E7 ; 0.0
211 ; 10014.11647277274 ; 336464.2401361219 ; 3126343.8457722994 ; 4.166332396630798E7 ; 0.0
212 ; 10075.446151322727 ; 337591.7324966836 ; 3136357.9622450722 ; 4.199978820644411E7 ; 0.0
