CSV File for the City 3 on Day 232
1 - Minute m 
2 - Power Consumed at minute m 
3 - Power Produced at minute m 
4 - Energy Consumed since the beginning of the day 
5 - Energy Produced since the beginning of the day 
6 - Energy Lost since the beginning of the day on lines starting from the city
 
0 ; 4277.95879425457 ; 17463.402372169272 ; 0.0 ; 0.0 ; 0.0
1 ; 4593.905305804589 ; 16367.689772689328 ; 4277.95879425457 ; 17463.402372169272 ; 0.0
2 ; 4899.378943674516 ; 15320.788142900388 ; 8871.86410005916 ; 33831.0921448586 ; 0.0
3 ; 5557.988527671048 ; 14333.484965964999 ; 13771.243043733677 ; 49151.88028775899 ; 0.0
4 ; 6059.938738386348 ; 13419.024702239434 ; 19329.231571404725 ; 63485.36525372399 ; 0.0
5 ; 6445.247680971886 ; 12593.362540049371 ; 25389.170309791072 ; 76904.38995596343 ; 0.0
6 ; 6972.945648467944 ; 11875.104007017406 ; 31834.41799076296 ; 89497.7524960128 ; 0.0
7 ; 7332.724467482202 ; 11284.835296833855 ; 38807.363639230905 ; 101372.85650303021 ; 0.0
8 ; 7689.525134202512 ; 10843.52611611507 ; 46140.088106713105 ; 112657.69179986407 ; 0.0
9 ; 8201.036009891244 ; 10569.886078706557 ; 53829.61324091562 ; 123501.21791597914 ; 0.0
10 ; 8525.281480318876 ; 10477.082282928823 ; 62030.64925080686 ; 134071.1039946857 ; 0.0
11 ; 9036.083652228146 ; 10569.886078706557 ; 70555.93073112574 ; 144548.1862776145 ; 0.0
12 ; 9404.972139635232 ; 10843.52611611507 ; 79592.01438335389 ; 155118.07235632106 ; 0.0
13 ; 9663.974344370154 ; 11284.835296833855 ; 88996.98652298911 ; 165961.59847243613 ; 0.0
14 ; 10332.68929551147 ; 11875.104007017033 ; 98660.96086735927 ; 177246.43376927 ; 0.0
15 ; 10592.520831919119 ; 12593.362540049371 ; 108993.65016287075 ; 189121.53777628703 ; 0.0
16 ; 10884.085485847876 ; 13419.024702239434 ; 119586.17099478986 ; 201714.9003163364 ; 0.0
17 ; 11283.00552042421 ; 14333.484965964688 ; 130470.25648063773 ; 215133.92501857583 ; 0.0
18 ; 11783.146207083288 ; 15320.788142900676 ; 141753.26200106196 ; 229467.4099845405 ; 0.0
19 ; 12128.72530728765 ; 16367.689772689328 ; 153536.40820814524 ; 244788.1981274412 ; 0.0
20 ; 12474.228261681686 ; 17463.402372169527 ; 165665.13351543288 ; 261155.88790013053 ; 0.0
21 ; 12776.326680135646 ; 18599.225470754085 ; 178139.36177711457 ; 278619.2902723001 ; 0.0
22 ; 13181.824865173769 ; 19768.167499114894 ; 190915.68845725022 ; 297218.51574305416 ; 0.0
23 ; 13665.315683190553 ; 20964.60782964911 ; 204097.513322424 ; 316986.68324216903 ; 0.0
24 ; 13770.769795136202 ; 22184.014116868344 ; 217762.82900561456 ; 337951.29107181815 ; 0.0
25 ; 14222.437174149794 ; 23422.714233047674 ; 231533.59880075077 ; 360135.30518868647 ; 0.0
26 ; 14427.787178653756 ; 24677.715826278687 ; 245756.03597490056 ; 383558.01942173415 ; 0.0
27 ; 14897.992694829167 ; 25946.56498079459 ; 260183.82315355432 ; 408235.7352480128 ; 0.0
28 ; 15180.568643638253 ; 27227.23596018221 ; 275081.81584838347 ; 434182.3002288074 ; 0.0
29 ; 15455.034216867294 ; 28518.045228448318 ; 290262.38449202175 ; 461409.5361889896 ; 0.0
30 ; 15771.38829254772 ; 29817.584264922003 ; 305717.41870888905 ; 489927.5814174379 ; 0.0
31 ; 15980.2984759113 ; 31124.666875031708 ; 321488.80700143677 ; 519745.1656823599 ; 0.0
32 ; 16410.153342023397 ; 32438.28767913856 ; 337469.1054773481 ; 550869.8325573916 ; 0.0
33 ; 16732.68889902654 ; 33757.58923778926 ; 353879.25881937146 ; 583308.1202365302 ; 0.0
34 ; 16938.318438519786 ; 35081.835872219985 ; 370611.947718398 ; 617065.7094743195 ; 0.0
35 ; 17092.521084858454 ; 36410.39269759574 ; 387550.2661569178 ; 652147.5453465395 ; 0.0
36 ; 17473.379713939026 ; 37742.70873456877 ; 404642.78724177624 ; 688557.9380441352 ; 0.0
37 ; 17660.014416948306 ; 39078.30322831111 ; 422116.1669557153 ; 726300.646778704 ; 0.0
38 ; 17932.311422788858 ; 40416.75450378057 ; 439776.1813726636 ; 765378.9500070151 ; 0.0
39 ; 18299.863881137288 ; 41757.69083744657 ; 457708.4927954525 ; 805795.7045107957 ; 0.0
40 ; 18422.068236173032 ; 43100.78294098774 ; 476008.35667658976 ; 847553.3953482423 ; 0.0
41 ; 18773.344711165206 ; 44445.737740576566 ; 494430.42491276277 ; 890654.17828923 ; 0.0
42 ; 18916.14591295518 ; 45792.293202975656 ; 513203.769623928 ; 935099.9160298066 ; 0.0
43 ; 19146.602604013762 ; 47140.214011814 ; 532119.9155368832 ; 980892.2092327822 ; 0.0
44 ; 19416.947183601354 ; 48489.28793781265 ; 551266.5181408969 ; 1028032.4232445962 ; 0.0
45 ; 19560.99826555625 ; 49839.322778196 ; 570683.4653244982 ; 1076521.711182409 ; 0.0
46 ; 19868.172646747567 ; 51190.1437651536 ; 590244.4635900545 ; 1126361.033960605 ; 0.0
47 ; 19989.416196501876 ; 52541.59136259099 ; 610112.6362368021 ; 1177551.1777257586 ; 0.0
48 ; 20016.84300475331 ; 53893.519385721345 ; 630102.052433304 ; 1230092.7690883495 ; 0.0
49 ; 20437.152429114154 ; 55245.79339021842 ; 650118.8954380574 ; 1283986.2884740708 ; 0.0
50 ; 20654.957912936687 ; 56598.28928735822 ; 670556.0478671715 ; 1339232.0818642892 ; 0.0
51 ; 20584.917079106377 ; 57950.89214936322 ; 691211.0057801082 ; 1395830.3711516475 ; 0.0
52 ; 20930.47041598349 ; 59303.49517543597 ; 711795.9228592145 ; 1453781.2633010107 ; 0.0
53 ; 21152.57013334801 ; 60655.99879403994 ; 732726.393275198 ; 1513084.7584764466 ; 0.0
54 ; 21108.534484155192 ; 62008.30988110876 ; 753878.9634085459 ; 1573740.7572704866 ; 0.0
55 ; 21447.87821229926 ; 63360.34107722761 ; 774987.4978927012 ; 1635749.0671515954 ; 0.0
56 ; 21480.59851928906 ; 64712.01018958644 ; 796435.3761050005 ; 1699109.408228823 ; 0.0
57 ; 21619.137036334872 ; 66063.23966676701 ; 817915.9746242895 ; 1763821.4184184095 ; 0.0
58 ; 21851.55454040403 ; 67413.95613629796 ; 839535.1116606244 ; 1829884.6580851765 ; 0.0
59 ; 22013.829269315273 ; 68764.08999646062 ; 861386.6662010284 ; 1897298.6142214744 ; 0.0
60 ; 22041.198344051612 ; 70113.57505511351 ; 883400.4954703436 ; 1966062.704217935 ; 0.0
61 ; 22305.28836645008 ; 71462.34820938099 ; 905441.6938143952 ; 2036176.2792730485 ; 0.0
62 ; 22353.551550553362 ; 72810.34916094792 ; 927746.9821808453 ; 2107638.6274824296 ; 0.0
63 ; 22538.401799788764 ; 74157.52016245826 ; 950100.5337313988 ; 2180448.9766433774 ; 0.0
64 ; 22610.18559792653 ; 75503.80579114969 ; 972638.9355311876 ; 2254606.4968058355 ; 0.0
65 ; 22598.82638366944 ; 76849.15274639628 ; 995249.1211291141 ; 2330110.3025969854 ; 0.0
66 ; 22701.56807992863 ; 78193.5096682829 ; 1017847.9475127835 ; 2406959.4553433815 ; 0.0
67 ; 22708.19606048722 ; 79536.8269747232 ; 1040549.5155927121 ; 2485152.965011664 ; 0.0
68 ; 23089.32268649291 ; 80879.0567149633 ; 1063257.7116531993 ; 2564689.791986387 ; 0.0
69 ; 22979.8996840858 ; 82220.15243759184 ; 1086347.0343396922 ; 2645568.8487013504 ; 0.0
70 ; 23064.809753982627 ; 83560.06907142124 ; 1109326.934023778 ; 2727789.0011389423 ; 0.0
71 ; 23232.291013129558 ; 84898.76281780927 ; 1132391.7437777605 ; 2811349.0702103637 ; 0.0
72 ; 23133.450534878266 ; 86236.19105316917 ; 1155624.03479089 ; 2896247.833028173 ; 0.0
73 ; 23252.592541352416 ; 87572.31224057027 ; 1178757.4853257684 ; 2982484.0240813424 ; 0.0
74 ; 23488.04508691629 ; 88907.0858494634 ; 1202010.0778671207 ; 3070056.3363219127 ; 0.0
75 ; 23402.27368926283 ; 90240.47228268014 ; 1225498.122954037 ; 3158963.422171376 ; 0.0
76 ; 23469.983221946964 ; 91572.43280995607 ; 1248900.3966432998 ; 3249203.8944540564 ; 0.0
77 ; 23501.314865851662 ; 92902.92950731302 ; 1272370.3798652468 ; 3340776.3272640123 ; 0.0
78 ; 23556.818420268395 ; 94231.92520171446 ; 1295871.6947310986 ; 3433679.256771325 ; 0.0
79 ; 23492.325107168122 ; 95559.38342046997 ; 1319428.513151367 ; 3527911.1819730396 ; 0.0
80 ; 23535.017326717072 ; 96885.26834492708 ; 1342920.8382585351 ; 3623470.56539351 ; 0.0
81 ; 23549.36459173906 ; 98209.54476803645 ; 1366455.8555852522 ; 3720355.833738437 ; 0.0
82 ; 23455.243008333702 ; 99532.17805542288 ; 1390005.2201769913 ; 3818565.3785064733 ; 0.0
83 ; 23612.78137752181 ; 100853.1341096333 ; 1413460.463185325 ; 3918097.556561896 ; 0.0
84 ; 23689.813944571335 ; 102172.3793372669 ; 1437073.2445628468 ; 4018950.6906715296 ; 0.0
85 ; 23562.907192386734 ; 103489.88061872528 ; 1460763.0585074183 ; 4121123.0700087966 ; 0.0
86 ; 23313.25008482833 ; 104805.6052803445 ; 1484325.965699805 ; 4224612.950627522 ; 0.0
87 ; 23442.62074008058 ; 106119.52106869829 ; 1507639.2157846333 ; 4329418.555907866 ; 0.0
88 ; 23397.13834093056 ; 107431.5961268798 ; 1531081.8365247138 ; 4435538.076976565 ; 0.0
89 ; 23430.67757810155 ; 108741.7989725914 ; 1554478.9748656442 ; 4542969.673103444 ; 0.0
90 ; 23317.729084587863 ; 110050.09847788535 ; 1577909.6524437459 ; 4651711.472076036 ; 0.0
91 ; 23311.98345088031 ; 111356.46385041662 ; 1601227.3815283338 ; 4761761.570553921 ; 0.0
92 ; 23280.87841476002 ; 112660.86461608029 ; 1624539.364979214 ; 4873118.034404337 ; 0.0
93 ; 23165.155650676177 ; 113963.27060291878 ; 1647820.2433939741 ; 4985778.899020418 ; 0.0
94 ; 23034.162784672037 ; 115263.65192619457 ; 1670985.3990446504 ; 5099742.169623337 ; 0.0
95 ; 23072.90360944331 ; 116561.9789745344 ; 1694019.5618293225 ; 5215005.821549531 ; 0.0
96 ; 23108.474652908953 ; 117858.22239705859 ; 1717092.4654387657 ; 5331567.800524065 ; 0.0
97 ; 22861.869263304892 ; 119152.35309141761 ; 1740200.9400916747 ; 5449426.022921124 ; 0.0
98 ; 22910.374047952067 ; 120444.34219266447 ; 1763062.8093549795 ; 5568578.376012541 ; 0.0
99 ; 22799.168119626454 ; 121734.16106289861 ; 1785973.1834029316 ; 5689022.718205206 ; 0.0
100 ; 22681.4773736937 ; 123021.7812816214 ; 1808772.351522558 ; 5810756.879268105 ; 0.0
101 ; 22612.935033019086 ; 124307.17463675 ; 1831453.8288962515 ; 5933778.660549726 ; 0.0
102 ; 22538.091435623217 ; 125590.31311623921 ; 1854066.7639292707 ; 6058085.835186476 ; 0.0
103 ; 22193.13206838278 ; 126871.16890026684 ; 1876604.8553648938 ; 6183676.148302715 ; 0.0
104 ; 22327.55624624567 ; 128149.71435394078 ; 1898797.9874332766 ; 6310547.3172029825 ; 0.0
105 ; 22156.397620572534 ; 129425.92202048974 ; 1921125.5436795224 ; 6438697.031556923 ; 0.0
106 ; 21815.904088747153 ; 130699.76461490287 ; 1943281.9413000948 ; 6568122.953577412 ; 0.0
107 ; 21903.05979771643 ; 131971.2150179863 ; 1965097.845388842 ; 6698822.718192315 ; 0.0
108 ; 21708.18016907568 ; 133240.24627080676 ; 1987000.9051865584 ; 6830793.933210301 ; 0.0
109 ; 21468.395902926855 ; 134506.8315694953 ; 2008709.085355634 ; 6964034.179481108 ; 0.0
110 ; 21144.360284540962 ; 135770.94426038658 ; 2030177.481258561 ; 7098541.011050603 ; 0.0
111 ; 21322.72419856601 ; 137032.55783546992 ; 2051321.841543102 ; 7234311.95531099 ; 0.0
112 ; 21013.858707313088 ; 138291.6459281315 ; 2072644.565741668 ; 7371344.51314646 ; 0.0
113 ; 20911.23926298305 ; 139548.18230916758 ; 2093658.4244489812 ; 7509636.1590745915 ; 0.0
114 ; 20733.977352442624 ; 140802.14088305103 ; 2114569.663711964 ; 7649184.341383759 ; 0.0
115 ; 20366.543798652445 ; 142053.49568443405 ; 2135303.641064407 ; 7789986.48226681 ; 0.0
116 ; 20232.328149121877 ; 143302.22087487212 ; 2155670.1848630593 ; 7932039.9779512435 ; 0.0
117 ; 20108.37548859324 ; 144548.29073975392 ; 2175902.513012181 ; 8075342.198826116 ; 0.0
118 ; 19928.202503683635 ; 145791.6796854247 ; 2196010.8885007743 ; 8219890.48956587 ; 0.0
119 ; 19696.67689539904 ; 147032.36223649036 ; 2215939.091004458 ; 8365682.169251295 ; 0.0
120 ; 19652.152479907276 ; 148270.313033291 ; 2235635.767899857 ; 8512714.531487785 ; 0.0
121 ; 19224.498706710197 ; 149505.5068295328 ; 2255287.9203797644 ; 8660984.844521075 ; 0.0
122 ; 18886.110320914613 ; 150737.91849006922 ; 2274512.4190864745 ; 8810490.35135061 ; 0.0
123 ; 18767.923178608573 ; 151967.52298882123 ; 2293398.529407389 ; 8961228.269840678 ; 0.0
124 ; 18561.227902568222 ; 153194.29540682895 ; 2312166.4525859975 ; 9113195.792829499 ; 0.0
125 ; 18228.538411795103 ; 154418.21093042617 ; 2330727.680488566 ; 9266390.088236328 ; 0.0
126 ; 18165.506607068462 ; 155639.24484953046 ; 2348956.218900361 ; 9420808.299166754 ; 0.0
127 ; 18026.624221060523 ; 156857.37255604198 ; 2367121.7255074293 ; 9576447.544016285 ; 0.0
128 ; 17452.36866043739 ; 158072.5695423446 ; 2385148.3497284898 ; 9733304.916572327 ; 0.0
129 ; 17310.408404563554 ; 159284.8113999033 ; 2402600.718388927 ; 9891377.486114671 ; 0.0
130 ; 17003.68121032092 ; 160494.07381795143 ; 2419911.1267934907 ; 1.0050662297514575E7 ; 0.0
131 ; 16761.026880259502 ; 161700.33258226435 ; 2436914.8080038116 ; 1.0211156371332526E7 ; 0.0
132 ; 16570.091924445598 ; 162903.56357401243 ; 2453675.8348840713 ; 1.0372856703914791E7 ; 0.0
133 ; 16248.64217599876 ; 164103.74276869054 ; 2470245.926808517 ; 1.0535760267488804E7 ; 0.0
134 ; 15843.047451012506 ; 165300.84623511825 ; 2486494.5689845155 ; 1.0699864010257494E7 ; 0.0
135 ; 15499.30136905439 ; 166494.85013450822 ; 2502337.616435528 ; 1.0865164856492613E7 ; 0.0
136 ; 15310.868400698891 ; 167685.73071959746 ; 2517836.917804582 ; 1.1031659706627121E7 ; 0.0
137 ; 15031.277985558969 ; 168873.4643338392 ; 2533147.786205281 ; 1.119934543734672E7 ; 0.0
138 ; 14689.434673142598 ; 170058.02741065095 ; 2548179.06419084 ; 1.1368218901680559E7 ; 0.0
139 ; 14090.679471206813 ; 171239.3964727169 ; 2562868.4988639825 ; 1.153827692909121E7 ; 0.0
140 ; 13982.44094545322 ; 172417.5481313402 ; 2576959.1783351894 ; 1.1709516325563926E7 ; 0.0
141 ; 13699.089092839855 ; 173592.45908584353 ; 2590941.6192806424 ; 1.1881933873695267E7 ; 0.0
142 ; 13422.363738482718 ; 174764.1061230149 ; 2604640.7083734823 ; 1.205552633278111E7 ; 0.0
143 ; 12871.11393364588 ; 175932.4661165965 ; 2618063.072111965 ; 1.2230290438904125E7 ; 0.0
144 ; 12696.899578412007 ; 177097.5160268139 ; 2630934.186045611 ; 1.2406222905020721E7 ; 0.0
145 ; 12481.356903247482 ; 178259.23289994354 ; 2643631.085624023 ; 1.2583320421047535E7 ; 0.0
146 ; 12392.553942283337 ; 179417.5938679171 ; 2656112.4425272704 ; 1.2761579653947478E7 ; 0.0
147 ; 12350.376121034495 ; 180572.5761479598 ; 2668504.9964695536 ; 1.2940997247815395E7 ; 0.0
148 ; 12418.548869502332 ; 181724.15704226165 ; 2680855.372590588 ; 1.3121569823963355E7 ; 0.0
149 ; 12302.05181778794 ; 182872.3139376796 ; 2693273.92146009 ; 1.3303293981005616E7 ; 0.0
150 ; 12102.095434609933 ; 184017.02430546895 ; 2705575.973277878 ; 1.3486166294943295E7 ; 0.0
151 ; 12177.25237968448 ; 185158.26570104272 ; 2717678.068712488 ; 1.3670183319248764E7 ; 0.0
152 ; 11840.79580354186 ; 186296.01576375737 ; 2729855.3210921725 ; 1.3855341584949806E7 ; 0.0
153 ; 11739.839401807654 ; 187430.2522167234 ; 2741696.1168957143 ; 1.4041637600713564E7 ; 0.0
154 ; 11612.565891610371 ; 188560.95286663988 ; 2753435.956297522 ; 1.4229067852930287E7 ; 0.0
155 ; 11490.95075014175 ; 189688.09560365157 ; 2765048.5221891324 ; 1.4417628805796927E7 ; 0.0
156 ; 11273.91578419532 ; 190811.6584012274 ; 2776539.4729392743 ; 1.460731690140058E7 ; 0.0
157 ; 11370.808543242361 ; 191931.61931605908 ; 2787813.38872347 ; 1.4798128559801806E7 ; 0.0
158 ; 11108.896655033053 ; 193047.95648797913 ; 2799184.1972667123 ; 1.4990060179117864E7 ; 0.0
159 ; 11030.079622746924 ; 194160.6481398976 ; 2810293.093921745 ; 1.5183108135605844E7 ; 0.0
160 ; 11058.669907693315 ; 195269.67257775558 ; 2821323.173544492 ; 1.5377268783745741E7 ; 0.0
161 ; 10830.591591150629 ; 196375.00819049557 ; 2832381.8434521854 ; 1.5572538456323497E7 ; 0.0
162 ; 10672.814106010452 ; 197476.63345004758 ; 2843212.435043336 ; 1.5768913464513993E7 ; 0.0
163 ; 10616.117163979661 ; 198574.52691133018 ; 2853885.2491493463 ; 1.5966390097964041E7 ; 0.0
164 ; 10397.994601711915 ; 199668.66721226543 ; 2864501.3663133257 ; 1.616496462487537E7 ; 0.0
165 ; 10332.257139946463 ; 200759.03307380775 ; 2874899.360915038 ; 1.6364633292087635E7 ; 0.0
166 ; 10187.189602812352 ; 201845.60329998517 ; 2885231.618054984 ; 1.6565392325161442E7 ; 0.0
167 ; 10000.825920229288 ; 202928.3567779531 ; 2895418.8076577964 ; 1.6767237928461427E7 ; 0.0
168 ; 9979.382119509215 ; 204007.27247805937 ; 2905419.6335780257 ; 1.697016628523938E7 ; 0.0
169 ; 9759.096662689393 ; 205082.32945392048 ; 2915399.015697535 ; 1.717417355771744E7 ; 0.0
170 ; 9449.448737778872 ; 206153.50684250813 ; 2925158.1123602246 ; 1.7379255887171358E7 ; 0.0
171 ; 9588.694436216318 ; 207220.78386424575 ; 2934607.5610980033 ; 1.7585409394013867E7 ; 0.0
172 ; 9284.741672503023 ; 208284.13982311464 ; 2944196.2555342196 ; 1.779263017787811E7 ; 0.0
173 ; 9211.311700796992 ; 209343.55410676848 ; 2953480.9972067224 ; 1.8000914317701228E7 ; 0.0
174 ; 9175.665872114781 ; 210399.00618665727 ; 2962692.3089075196 ; 1.8210257871807996E7 ; 0.0
175 ; 9304.598072020768 ; 211450.47561815847 ; 2971867.9747796343 ; 1.8420656877994653E7 ; 0.0
176 ; 9363.147033302308 ; 212497.94204071627 ; 2981172.572851655 ; 1.863210735361281E7 ; 0.0
177 ; 9299.665452210254 ; 213541.385177988 ; 2990535.719884957 ; 1.8844605295653526E7 ; 0.0
178 ; 9402.098696650342 ; 214580.78483799784 ; 2999835.3853371674 ; 1.9058146680831514E7 ; 0.0
179 ; 9288.919434854666 ; 215616.1209132963 ; 3009237.484033818 ; 1.9272727465669513E7 ; 0.0
180 ; 9528.093432681659 ; 216647.37338112673 ; 3018526.4034686727 ; 1.948834358658281E7 ; 0.0
181 ; 9618.645052696533 ; 217674.52230359722 ; 3028054.4969013543 ; 1.9704990959963936E7 ; 0.0
182 ; 9429.505081802856 ; 218697.5478278585 ; 3037673.141954051 ; 1.9922665482267532E7 ; 0.0
183 ; 9497.096538596645 ; 219716.43018628683 ; 3047102.647035854 ; 2.014136303009539E7 ; 0.0
184 ; 9639.714741785381 ; 220731.1496966718 ; 3056599.7435744507 ; 2.0361079460281678E7 ; 0.0
185 ; 9715.94443707812 ; 221741.6867624096 ; 3066239.4583162363 ; 2.0581810609978348E7 ; 0.0
186 ; 9598.440636794534 ; 222748.02187269996 ; 3075955.4027533145 ; 2.080355229674076E7 ; 0.0
187 ; 9552.141238474767 ; 223750.13560274764 ; 3085553.843390109 ; 2.102630031861346E7 ; 0.0
188 ; 9570.134645142649 ; 224748.00861396833 ; 3095105.984628584 ; 2.1250050454216205E7 ; 0.0
189 ; 9526.479958780921 ; 225741.62165419792 ; 3104676.1192737264 ; 2.1474798462830175E7 ; 0.0
190 ; 9541.115759697266 ; 226730.9555579053 ; 3114202.5992325074 ; 2.1700540084484372E7 ; 0.0
191 ; 9715.62935264665 ; 227715.991246409 ; 3123743.7149922047 ; 2.1927271040042277E7 ; 0.0
192 ; 9669.180217383573 ; 228696.70972809658 ; 3133459.3443448516 ; 2.2154987031288687E7 ; 0.0
193 ; 9602.833325761589 ; 229673.0920986472 ; 3143128.524562235 ; 2.2383683741016783E7 ; 0.0
194 ; 9764.737410218626 ; 230645.11954125718 ; 3152731.3578879964 ; 2.261335683311543E7 ; 0.0
195 ; 9752.4677861606 ; 231612.7733268678 ; 3162496.095298215 ; 2.2844001952656686E7 ; 0.0
196 ; 9599.80981169091 ; 232576.03481439588 ; 3172248.5630843756 ; 2.3075614725983553E7 ; 0.0
197 ; 9771.372006918493 ; 233534.8854509668 ; 3181848.3728960664 ; 2.3308190760797948E7 ; 0.0
198 ; 10042.999184230033 ; 234489.30677214937 ; 3191619.7449029847 ; 2.3541725646248914E7 ; 0.0
199 ; 9970.14514691175 ; 235439.28040219288 ; 3201662.7440872146 ; 2.3776214953021064E7 ; 0.0
200 ; 9936.686368629411 ; 236384.78805426613 ; 3211632.8892341265 ; 2.401165423342326E7 ; 0.0
201 ; 9899.854876168314 ; 237325.81153069812 ; 3221569.575602756 ; 2.4248039021477524E7 ; 0.0
202 ; 10025.151806022557 ; 238262.3327232203 ; 3231469.4304789244 ; 2.4485364833008222E7 ; 0.0
203 ; 9895.23949517214 ; 239194.33361321042 ; 3241494.582284947 ; 2.472362716573144E7 ; 0.0
204 ; 10133.764802045149 ; 240121.79627193787 ; 3251389.821780119 ; 2.496282149934465E7 ; 0.0
205 ; 10080.413673803061 ; 241044.70286081004 ; 3261523.5865821643 ; 2.520294329561659E7 ; 0.0
206 ; 10048.00399019573 ; 241963.03563161995 ; 3271604.0002559675 ; 2.54439879984774E7 ; 0.0
207 ; 10172.603656287996 ; 242876.77692679493 ; 3281652.004246163 ; 2.568595103410902E7 ; 0.0
208 ; 10293.998720755866 ; 243785.9091796466 ; 3291824.607902451 ; 2.5928827811035812E7 ; 0.0
209 ; 10167.753769475827 ; 244690.4149146206 ; 3302118.6066232068 ; 2.617261372021546E7 ; 0.0
210 ; 10135.47678518638 ; 245590.27674754878 ; 3312286.3603926827 ; 2.6417304135130078E7 ; 0.0
211 ; 10266.848159894942 ; 246485.4773859005 ; 3322421.837177869 ; 2.6662894411877625E7 ; 0.0
212 ; 10193.47154921437 ; 247375.9996290353 ; 3332688.6853377637 ; 2.6909379889263526E7 ; 0.0
213 ; 10271.788013849602 ; 248261.82636845604 ; 3342882.156886978 ; 2.715675588889256E7 ; 0.0
