CSV File for the City 2 on Day 117
1 - Minute m 
2 - Power Consumed at minute m 
3 - Power Produced at minute m 
4 - Energy Consumed since the beginning of the day 
5 - Energy Produced since the beginning of the day 
6 - Energy Lost since the beginning of the day on lines starting from the city
 
0 ; 9965.314883343355 ; 26105.14467691618 ; 0.0 ; 0.0 ; 0.0
1 ; 10186.71365867521 ; 26105.14467691618 ; 9965.314883343355 ; 26105.14467691618 ; 0.0
2 ; 10571.41335270598 ; 26105.14467691618 ; 20152.028542018565 ; 52210.28935383236 ; 0.0
3 ; 11000.10273218016 ; 26105.14467691618 ; 30723.441894724543 ; 78315.43403074854 ; 0.0
4 ; 11169.149628613746 ; 26105.14467691618 ; 41723.5446269047 ; 104420.57870766472 ; 0.0
5 ; 11466.558733175667 ; 26105.14467691618 ; 52892.69425551845 ; 130525.72338458091 ; 0.0
6 ; 11783.551140949277 ; 26105.14467691618 ; 64359.25298869412 ; 156630.86806149708 ; 0.0
7 ; 12191.47629715633 ; 26105.14467691618 ; 76142.8041296434 ; 182736.01273841326 ; 0.0
8 ; 12603.652478250631 ; 26105.14467691618 ; 88334.28042679973 ; 208841.15741532945 ; 0.0
9 ; 12667.543091422773 ; 26105.14467691618 ; 100937.93290505036 ; 234946.30209224563 ; 0.0
10 ; 13011.884855784356 ; 26105.14467691618 ; 113605.47599647313 ; 261051.44676916182 ; 0.0
11 ; 13304.221182277111 ; 26105.14467691618 ; 126617.3608522575 ; 287156.591446078 ; 0.0
12 ; 13555.874085492977 ; 26105.14467691618 ; 139921.5820345346 ; 313261.73612299416 ; 0.0
13 ; 13705.643166134096 ; 26105.14467691618 ; 153477.45612002758 ; 339366.88079991034 ; 0.0
14 ; 13991.641219544063 ; 26105.14467691618 ; 167183.09928616168 ; 365472.02547682653 ; 0.0
15 ; 14209.273320822971 ; 26105.14467691618 ; 181174.74050570573 ; 391577.1701537427 ; 0.0
16 ; 14616.169334509774 ; 26105.14467691618 ; 195384.0138265287 ; 417682.3148306589 ; 0.0
17 ; 14881.818271593982 ; 26105.14467691618 ; 210000.1831610385 ; 443787.4595075751 ; 0.0
18 ; 15066.143949883555 ; 26105.14467691618 ; 224882.00143263247 ; 469892.60418449127 ; 0.0
19 ; 15441.189591886996 ; 26105.14467691618 ; 239948.14538251603 ; 495997.74886140745 ; 0.0
20 ; 15637.935373511174 ; 26105.14467691618 ; 255389.33497440303 ; 522102.89353832364 ; 0.0
21 ; 15800.600160069062 ; 26105.14467691618 ; 271027.2703479142 ; 548208.0382152398 ; 0.0
22 ; 16041.679245445559 ; 26105.14467691618 ; 286827.87050798326 ; 574313.182892156 ; 0.0
23 ; 16373.927384938206 ; 26105.14467691618 ; 302869.54975342884 ; 600418.3275690721 ; 0.0
24 ; 16552.355477259418 ; 26105.14467691618 ; 319243.4771383671 ; 626523.4722459883 ; 0.0
25 ; 16665.47152814168 ; 26105.14467691618 ; 335795.8326156265 ; 652628.6169229045 ; 0.0
26 ; 17108.879806820776 ; 26105.14467691618 ; 352461.3041437682 ; 678733.7615998207 ; 0.0
27 ; 17236.03644278473 ; 26105.14467691618 ; 369570.183950589 ; 704838.9062767369 ; 0.0
28 ; 17362.314407877486 ; 26105.14467691618 ; 386806.2203933737 ; 730944.0509536531 ; 0.0
29 ; 17653.49690890447 ; 26105.14467691618 ; 404168.5348012512 ; 757049.1956305692 ; 0.0
30 ; 17893.891068841578 ; 26105.14467691618 ; 421822.03171015566 ; 783154.3403074854 ; 0.0
31 ; 17942.58982817164 ; 26105.14467691618 ; 439715.9227789972 ; 809259.4849844016 ; 0.0
32 ; 18184.85297385564 ; 26105.14467691618 ; 457658.5126071689 ; 835364.6296613178 ; 0.0
33 ; 18505.275818515333 ; 26105.14467691618 ; 475843.3655810245 ; 861469.774338234 ; 0.0
34 ; 18562.576641588224 ; 26105.14467691618 ; 494348.64139953983 ; 887574.9190151502 ; 0.0
35 ; 18770.54956982977 ; 26105.14467691618 ; 512911.2180411281 ; 913680.0636920664 ; 0.0
36 ; 18980.640330865026 ; 26105.14467691618 ; 531681.7676109578 ; 939785.2083689825 ; 0.0
37 ; 19150.605737307127 ; 26105.14467691618 ; 550662.4079418229 ; 965890.3530458987 ; 0.0
38 ; 19324.251359016274 ; 26105.14467691618 ; 569813.01367913 ; 991995.4977228149 ; 0.0
39 ; 19435.054645912016 ; 26105.14467691618 ; 589137.2650381463 ; 1018100.6423997311 ; 0.0
40 ; 19601.21322201992 ; 26105.14467691618 ; 608572.3196840583 ; 1044205.7870766473 ; 0.0
41 ; 19714.876588492338 ; 26105.14467691618 ; 628173.5329060783 ; 1070310.9317535635 ; 0.0
42 ; 19919.572152457935 ; 26105.14467691618 ; 647888.4094945706 ; 1096416.0764304795 ; 0.0
43 ; 19999.14328411394 ; 26105.14467691618 ; 667807.9816470285 ; 1122521.2211073956 ; 0.0
44 ; 20288.587095717692 ; 26105.14467691618 ; 687807.1249311424 ; 1148626.3657843117 ; 0.0
45 ; 20253.542870110847 ; 26105.14467691618 ; 708095.7120268601 ; 1174731.5104612277 ; 0.0
46 ; 20543.25983405108 ; 26105.14467691618 ; 728349.2548969709 ; 1200836.6551381438 ; 0.0
47 ; 20538.433482172844 ; 26105.14467691618 ; 748892.5147310221 ; 1226941.7998150599 ; 0.0
48 ; 20776.574301553588 ; 26105.14467691618 ; 769430.948213195 ; 1253046.944491976 ; 0.0
49 ; 21047.218602890578 ; 26105.14467691618 ; 790207.5225147485 ; 1279152.089168892 ; 0.0
50 ; 21215.24295675196 ; 26105.14467691618 ; 811254.7411176391 ; 1305257.233845808 ; 0.0
51 ; 21035.171876053708 ; 26105.14467691618 ; 832469.9840743911 ; 1331362.3785227241 ; 0.0
52 ; 21168.749927540135 ; 26105.14467691618 ; 853505.1559504448 ; 1357467.5231996402 ; 0.0
53 ; 21422.61966676581 ; 26105.14467691618 ; 874673.9058779848 ; 1383572.6678765563 ; 0.0
54 ; 21393.118888725738 ; 26105.14467691618 ; 896096.5255447506 ; 1409677.8125534724 ; 0.0
55 ; 21618.189674365927 ; 26105.14467691618 ; 917489.6444334764 ; 1435782.9572303884 ; 0.0
56 ; 21614.486285006362 ; 26105.14467691618 ; 939107.8341078423 ; 1461888.1019073045 ; 0.0
57 ; 21939.631417052813 ; 26105.14467691618 ; 960722.3203928487 ; 1487993.2465842206 ; 0.0
58 ; 21809.995383047288 ; 26105.14467691618 ; 982661.9518099015 ; 1514098.3912611366 ; 0.0
59 ; 21841.363805165143 ; 26105.14467691618 ; 1004471.9471929488 ; 1540203.5359380527 ; 0.0
60 ; 21995.17776275681 ; 26105.14467691618 ; 1026313.310998114 ; 1566308.6806149688 ; 0.0
61 ; 22145.522227650967 ; 26105.14467691618 ; 1048308.4887608708 ; 1592413.8252918848 ; 0.0
62 ; 22234.87601112055 ; 26105.14467691618 ; 1070454.0109885216 ; 1618518.969968801 ; 0.0
63 ; 22362.03082571105 ; 26105.14467691618 ; 1092688.8869996422 ; 1644624.114645717 ; 0.0
64 ; 22223.216988617234 ; 26105.14467691618 ; 1115050.9178253533 ; 1670729.259322633 ; 0.0
65 ; 22489.396231607938 ; 26105.14467691618 ; 1137274.1348139707 ; 1696834.403999549 ; 0.0
66 ; 22477.730794583993 ; 26105.14467691618 ; 1159763.5310455787 ; 1722939.5486764652 ; 0.0
67 ; 22543.97471873836 ; 26105.14467691618 ; 1182241.2618401626 ; 1749044.6933533812 ; 0.0
68 ; 22619.917784267906 ; 26105.14467691618 ; 1204785.236558901 ; 1775149.8380302973 ; 0.0
69 ; 22567.860179484527 ; 26105.14467691618 ; 1227405.1543431687 ; 1801254.9827072134 ; 0.0
70 ; 22591.496086835446 ; 26105.14467691618 ; 1249973.0145226533 ; 1827360.1273841294 ; 0.0
71 ; 22805.237405933247 ; 26105.14467691618 ; 1272564.5106094887 ; 1853465.2720610455 ; 0.0
72 ; 22884.57947483364 ; 26105.14467691618 ; 1295369.748015422 ; 1879570.4167379616 ; 0.0
73 ; 22753.019453837085 ; 26105.14467691618 ; 1318254.3274902555 ; 1905675.5614148777 ; 0.0
74 ; 22891.85319478499 ; 26105.14467691618 ; 1341007.3469440925 ; 1931780.7060917937 ; 0.0
75 ; 22994.014214393206 ; 26105.14467691618 ; 1363899.2001388776 ; 1957885.8507687098 ; 0.0
76 ; 22790.292049320375 ; 26105.14467691618 ; 1386893.2143532708 ; 1983990.9954456259 ; 0.0
77 ; 22971.147078892285 ; 26105.14467691618 ; 1409683.5064025912 ; 2010096.140122542 ; 0.0
78 ; 22914.078447315158 ; 26105.14467691618 ; 1432654.6534814835 ; 2036201.284799458 ; 0.0
79 ; 22899.585760498263 ; 26105.14467691618 ; 1455568.7319287986 ; 2062306.429476374 ; 0.0
80 ; 23004.81981276835 ; 26105.14467691618 ; 1478468.3176892968 ; 2088411.5741532901 ; 0.0
81 ; 22904.005016328872 ; 26105.14467691618 ; 1501473.1375020652 ; 2114516.7188302064 ; 0.0
82 ; 23052.84360643202 ; 26105.14467691618 ; 1524377.142518394 ; 2140621.8635071227 ; 0.0
83 ; 22927.813002506005 ; 26105.14467691618 ; 1547429.986124826 ; 2166727.008184039 ; 0.0
84 ; 22982.67040183812 ; 26105.14467691618 ; 1570357.799127332 ; 2192832.1528609553 ; 0.0
85 ; 22938.0739908472 ; 26105.14467691618 ; 1593340.46952917 ; 2218937.2975378716 ; 0.0
86 ; 22807.081589930072 ; 26105.14467691618 ; 1616278.5435200173 ; 2245042.442214788 ; 0.0
87 ; 22868.442803698228 ; 26105.14467691618 ; 1639085.6251099473 ; 2271147.5868917042 ; 0.0
88 ; 22946.902663369066 ; 26105.14467691618 ; 1661954.0679136454 ; 2297252.7315686205 ; 0.0
89 ; 22702.115798173938 ; 26105.14467691618 ; 1684900.9705770144 ; 2323357.876245537 ; 0.0
90 ; 22908.322887724935 ; 26105.14467691618 ; 1707603.0863751883 ; 2349463.020922453 ; 0.0
91 ; 22869.491770124958 ; 26105.14467691618 ; 1730511.4092629133 ; 2375568.1655993694 ; 0.0
92 ; 22808.078230902418 ; 26105.14467691618 ; 1753380.9010330383 ; 2401673.3102762857 ; 0.0
93 ; 22730.636263176846 ; 26105.14467691618 ; 1776188.9792639406 ; 2427778.454953202 ; 0.0
94 ; 22633.699967832104 ; 26105.14467691618 ; 1798919.6155271174 ; 2453883.5996301183 ; 0.0
95 ; 22373.774813606808 ; 26105.14467691618 ; 1821553.3154949495 ; 2479988.7443070346 ; 0.0
96 ; 22518.43342692271 ; 26105.14467691618 ; 1843927.0903085563 ; 2506093.888983951 ; 0.0
97 ; 22577.72907747297 ; 26105.14467691618 ; 1866445.523735479 ; 2532199.0336608673 ; 0.0
98 ; 22248.336667247986 ; 26105.14467691618 ; 1889023.252812952 ; 2558304.1783377836 ; 0.0
99 ; 22397.986874636757 ; 26105.14467691618 ; 1911271.5894802 ; 2584409.3230147 ; 0.0
100 ; 22105.45840912713 ; 26105.14467691618 ; 1933669.5763548368 ; 2610514.467691616 ; 0.0
101 ; 22102.09054001773 ; 26105.14467691618 ; 1955775.034763964 ; 2636619.6123685325 ; 0.0
102 ; 22024.52519637838 ; 26105.14467691618 ; 1977877.1253039816 ; 2662724.7570454488 ; 0.0
103 ; 21864.86654510417 ; 26105.14467691618 ; 1999901.65050036 ; 2688829.901722365 ; 0.0
104 ; 21675.97980557468 ; 26105.14467691618 ; 2021766.5170454641 ; 2714935.0463992814 ; 0.0
105 ; 21808.9891252398 ; 26105.14467691618 ; 2043442.496851039 ; 2741040.1910761977 ; 0.0
106 ; 21764.512031913495 ; 26105.14467691618 ; 2065251.4859762788 ; 2767145.335753114 ; 0.0
107 ; 21391.46981221072 ; 26105.14467691618 ; 2087015.9980081923 ; 2793250.4804300303 ; 0.0
108 ; 21384.394488317237 ; 26105.14467691618 ; 2108407.467820403 ; 2819355.6251069466 ; 0.0
109 ; 21306.969082399646 ; 26105.14467691618 ; 2129791.8623087206 ; 2845460.769783863 ; 0.0
110 ; 21196.08085110449 ; 26105.14467691618 ; 2151098.8313911203 ; 2871565.914460779 ; 0.0
111 ; 21024.398880734778 ; 26105.14467691618 ; 2172294.912242225 ; 2897671.0591376955 ; 0.0
112 ; 20954.101639061348 ; 26105.14467691618 ; 2193319.3111229595 ; 2923776.203814612 ; 0.0
113 ; 20616.920298932542 ; 26105.14467691618 ; 2214273.4127620207 ; 2949881.348491528 ; 0.0
114 ; 20832.872727977847 ; 26105.14467691618 ; 2234890.3330609533 ; 2975986.4931684444 ; 0.0
115 ; 20479.42016437798 ; 26105.14467691618 ; 2255723.2057889313 ; 3002091.6378453607 ; 0.0
116 ; 20355.04302175298 ; 26105.14467691618 ; 2276202.6259533092 ; 3028196.782522277 ; 0.0
117 ; 20056.887973785608 ; 26105.14467691618 ; 2296557.668975062 ; 3054301.9271991933 ; 0.0
118 ; 19920.988065577938 ; 26105.14467691618 ; 2316614.5569488476 ; 3080407.0718761096 ; 0.0
119 ; 19738.80953470018 ; 26105.14467691618 ; 2336535.5450144256 ; 3106512.216553026 ; 0.0
120 ; 19647.40341129472 ; 26105.14467691618 ; 2356274.354549126 ; 3132617.361229942 ; 0.0
121 ; 19489.479813669175 ; 26105.14467691618 ; 2375921.7579604206 ; 3158722.5059068585 ; 0.0
122 ; 19311.671997997073 ; 26105.14467691618 ; 2395411.23777409 ; 3184827.650583775 ; 0.0
123 ; 19093.231447954902 ; 26105.14467691618 ; 2414722.909772087 ; 3210932.795260691 ; 0.0
124 ; 18993.140013132663 ; 26105.14467691618 ; 2433816.141220042 ; 3237037.9399376074 ; 0.0
125 ; 18834.980176717072 ; 26105.14467691618 ; 2452809.2812331747 ; 3263143.0846145237 ; 0.0
126 ; 18609.308329473108 ; 26105.14467691618 ; 2471644.261409892 ; 3289248.22929144 ; 0.0
127 ; 18478.618035454336 ; 26105.14467691618 ; 2490253.569739365 ; 3315353.3739683563 ; 0.0
128 ; 18330.998789517456 ; 26105.14467691618 ; 2508732.1877748193 ; 3341458.5186452726 ; 0.0
129 ; 18146.297060166617 ; 26105.14467691618 ; 2527063.186564337 ; 3367563.663322189 ; 0.0
130 ; 17995.291917375973 ; 26105.14467691618 ; 2545209.4836245035 ; 3393668.807999105 ; 0.0
131 ; 17543.75426176904 ; 26105.14467691618 ; 2563204.7755418792 ; 3419773.9526760215 ; 0.0
132 ; 17515.146347166552 ; 26105.14467691618 ; 2580748.529803648 ; 3445879.097352938 ; 0.0
133 ; 17260.294346418406 ; 26105.14467691618 ; 2598263.6761508146 ; 3471984.242029854 ; 0.0
134 ; 17002.348021269598 ; 26105.14467691618 ; 2615523.970497233 ; 3498089.3867067704 ; 0.0
135 ; 16792.292379614653 ; 26105.14467691618 ; 2632526.3185185026 ; 3524194.5313836867 ; 0.0
136 ; 16474.34766983577 ; 26105.14467691618 ; 2649318.610898117 ; 3550299.676060603 ; 0.0
137 ; 16513.131845698634 ; 26105.14467691618 ; 2665792.9585679527 ; 3576404.8207375193 ; 0.0
138 ; 16206.902073556876 ; 26105.14467691618 ; 2682306.0904136514 ; 3602509.9654144356 ; 0.0
139 ; 15895.943118492558 ; 26105.14467691618 ; 2698512.9924872085 ; 3628615.110091352 ; 0.0
140 ; 15664.0026975028 ; 26105.14467691618 ; 2714408.935605701 ; 3654720.254768268 ; 0.0
141 ; 15454.820311221752 ; 26105.14467691618 ; 2730072.938303204 ; 3680825.3994451845 ; 0.0
142 ; 15035.719037254119 ; 26105.14467691618 ; 2745527.7586144255 ; 3706930.544122101 ; 0.0
143 ; 14762.664463872245 ; 26105.14467691618 ; 2760563.47765168 ; 3733035.688799017 ; 0.0
144 ; 14493.394905655812 ; 26105.14467691618 ; 2775326.142115552 ; 3759140.8334759334 ; 0.0
145 ; 14483.932774075322 ; 26105.14467691618 ; 2789819.5370212076 ; 3785245.9781528497 ; 0.0
146 ; 14364.409419338663 ; 26105.14467691618 ; 2804303.469795283 ; 3811351.122829766 ; 0.0
147 ; 14252.961175926774 ; 26105.14467691618 ; 2818667.8792146216 ; 3837456.2675066823 ; 0.0
148 ; 14238.311245062765 ; 26105.14467691618 ; 2832920.8403905486 ; 3863561.4121835986 ; 0.0
149 ; 14225.799392547917 ; 26105.14467691618 ; 2847159.1516356114 ; 3889666.556860515 ; 0.0
150 ; 13946.753238585377 ; 26105.14467691618 ; 2861384.9510281594 ; 3915771.701537431 ; 0.0
151 ; 14036.131304908522 ; 26105.14467691618 ; 2875331.7042667447 ; 3941876.8462143475 ; 0.0
152 ; 13816.533779659545 ; 26105.14467691618 ; 2889367.835571653 ; 3967981.990891264 ; 0.0
153 ; 13874.476170641481 ; 26105.14467691618 ; 2903184.369351313 ; 3994087.13556818 ; 0.0
154 ; 13799.832105455984 ; 26105.14467691618 ; 2917058.8455219544 ; 4020192.2802450964 ; 0.0
155 ; 13735.93391117921 ; 26105.14467691618 ; 2930858.6776274103 ; 4046297.4249220127 ; 0.0
156 ; 13307.781929073373 ; 26105.14467691618 ; 2944594.6115385895 ; 4072402.569598929 ; 0.0
157 ; 13337.234317376415 ; 26105.14467691618 ; 2957902.393467663 ; 4098507.7142758453 ; 0.0
158 ; 13381.428230986849 ; 26105.14467691618 ; 2971239.627785039 ; 4124612.8589527616 ; 0.0
159 ; 13073.588221848053 ; 26105.14467691618 ; 2984621.056016026 ; 4150718.003629678 ; 0.0
160 ; 13151.066472312204 ; 26105.14467691618 ; 2997694.644237874 ; 4176823.148306594 ; 0.0
161 ; 12992.05996350352 ; 26105.14467691618 ; 3010845.7107101865 ; 4202928.2929835105 ; 0.0
162 ; 12701.701988652057 ; 26105.14467691618 ; 3023837.77067369 ; 4229033.437660427 ; 0.0
163 ; 12797.269057672629 ; 26105.14467691618 ; 3036539.472662342 ; 4255138.582337343 ; 0.0
164 ; 12540.23517902297 ; 26105.14467691618 ; 3049336.7417200143 ; 4281243.727014259 ; 0.0
165 ; 12454.634061531622 ; 26105.14467691618 ; 3061876.976899037 ; 4307348.871691176 ; 0.0
166 ; 12464.38297599121 ; 26105.14467691618 ; 3074331.6109605688 ; 4333454.016368092 ; 0.0
167 ; 12284.368005822786 ; 26105.14467691618 ; 3086795.99393656 ; 4359559.161045008 ; 0.0
168 ; 12202.545687650329 ; 26105.14467691618 ; 3099080.361942383 ; 4385664.305721925 ; 0.0
169 ; 12127.614837199113 ; 26105.14467691618 ; 3111282.9076300333 ; 4411769.450398841 ; 0.0
170 ; 11858.180140648159 ; 26105.14467691618 ; 3123410.5224672323 ; 4437874.595075757 ; 0.0
171 ; 11914.824977696599 ; 26105.14467691618 ; 3135268.7026078803 ; 4463979.739752674 ; 0.0
172 ; 11725.163880508138 ; 26105.14467691618 ; 3147183.5275855768 ; 4490084.88442959 ; 0.0
173 ; 11638.512225290753 ; 26105.14467691618 ; 3158908.6914660847 ; 4516190.029106506 ; 0.0
174 ; 11642.817216130186 ; 26105.14467691618 ; 3170547.2036913754 ; 4542295.173783422 ; 0.0
175 ; 11592.9760771886 ; 26105.14467691618 ; 3182190.0209075054 ; 4568400.318460339 ; 0.0
176 ; 11604.865167818274 ; 26105.14467691618 ; 3193782.996984694 ; 4594505.463137255 ; 0.0
177 ; 11768.651397427107 ; 26105.14467691618 ; 3205387.8621525127 ; 4620610.607814171 ; 0.0
178 ; 11686.026881010936 ; 26105.14467691618 ; 3217156.5135499397 ; 4646715.752491088 ; 0.0
179 ; 11707.271695035512 ; 26105.14467691618 ; 3228842.5404309505 ; 4672820.897168004 ; 0.0
180 ; 11648.798370838684 ; 26105.14467691618 ; 3240549.812125986 ; 4698926.04184492 ; 0.0
181 ; 11635.428074549509 ; 26105.14467691618 ; 3252198.6104968246 ; 4725031.186521837 ; 0.0
182 ; 11751.385374851447 ; 26105.14467691618 ; 3263834.038571374 ; 4751136.331198753 ; 0.0
183 ; 11886.787431135603 ; 26105.14467691618 ; 3275585.4239462256 ; 4777241.475875669 ; 0.0
184 ; 11686.641617230707 ; 26105.14467691618 ; 3287472.2113773613 ; 4803346.620552585 ; 0.0
185 ; 11571.864694231866 ; 26105.14467691618 ; 3299158.852994592 ; 4829451.765229502 ; 0.0
186 ; 11649.573946692573 ; 26105.14467691618 ; 3310730.7176888236 ; 4855556.909906418 ; 0.0
187 ; 11766.801824003975 ; 26105.14467691618 ; 3322380.291635516 ; 4881662.054583334 ; 0.0
188 ; 11692.609287923102 ; 26105.14467691618 ; 3334147.09345952 ; 4907767.199260251 ; 0.0
189 ; 11629.537260438196 ; 26105.14467691618 ; 3345839.702747443 ; 4933872.343937167 ; 0.0
190 ; 11578.991782068786 ; 26105.14467691618 ; 3357469.2400078815 ; 4959977.488614083 ; 0.0
191 ; 11785.09683592578 ; 26105.14467691618 ; 3369048.2317899503 ; 4986082.633291 ; 0.0
192 ; 11745.37089719166 ; 26105.14467691618 ; 3380833.328625876 ; 5012187.777967916 ; 0.0
193 ; 11820.671237856162 ; 26105.14467691618 ; 3392578.6995230676 ; 5038292.922644832 ; 0.0
194 ; 11713.29728326549 ; 26105.14467691618 ; 3404399.3707609237 ; 5064398.0673217485 ; 0.0
195 ; 11743.820922612007 ; 26105.14467691618 ; 3416112.668044189 ; 5090503.211998665 ; 0.0
196 ; 11834.265612447649 ; 26105.14467691618 ; 3427856.488966801 ; 5116608.356675581 ; 0.0
197 ; 11639.457861174567 ; 26105.14467691618 ; 3439690.754579249 ; 5142713.501352497 ; 0.0
198 ; 11745.546989809813 ; 26105.14467691618 ; 3451330.212440423 ; 5168818.646029414 ; 0.0
199 ; 11681.566526365774 ; 26105.14467691618 ; 3463075.759430233 ; 5194923.79070633 ; 0.0
200 ; 11908.608705046787 ; 26105.14467691618 ; 3474757.325956599 ; 5221028.935383246 ; 0.0
201 ; 11836.055135263974 ; 26105.14467691618 ; 3486665.9346616454 ; 5247134.080060163 ; 0.0
202 ; 11794.77956006405 ; 26105.14467691618 ; 3498501.9897969095 ; 5273239.224737079 ; 0.0
203 ; 11793.144191374278 ; 26105.14467691618 ; 3510296.7693569735 ; 5299344.369413995 ; 0.0
204 ; 11769.25559962246 ; 26105.14467691618 ; 3522089.9135483475 ; 5325449.5140909115 ; 0.0
205 ; 11963.843758589628 ; 26105.14467691618 ; 3533859.16914797 ; 5351554.658767828 ; 0.0
206 ; 11906.995634310633 ; 26105.14467691618 ; 3545823.0129065597 ; 5377659.803444744 ; 0.0
207 ; 12036.990135023352 ; 26105.14467691618 ; 3557730.00854087 ; 5403764.94812166 ; 0.0
208 ; 11828.747161053516 ; 26105.14467691618 ; 3569766.9986758935 ; 5429870.092798577 ; 0.0
209 ; 11786.21895822516 ; 26105.14467691618 ; 3581595.745836947 ; 5455975.237475493 ; 0.0
210 ; 11894.763591855673 ; 26105.14467691618 ; 3593381.964795172 ; 5482080.382152409 ; 0.0
211 ; 11818.674781587993 ; 26105.14467691618 ; 3605276.728387028 ; 5508185.526829326 ; 0.0
212 ; 11942.828159041828 ; 26105.14467691618 ; 3617095.403168616 ; 5534290.671506242 ; 0.0
213 ; 12062.796764488365 ; 26105.14467691618 ; 3629038.2313276576 ; 5560395.816183158 ; 0.0
214 ; 11679.269069666745 ; 26105.14467691618 ; 3641101.028092146 ; 5586500.9608600745 ; 0.0
215 ; 11756.08823817749 ; 26105.14467691618 ; 3652780.297161813 ; 5612606.105536991 ; 0.0
