CSV File for the City 3 on Day 250
1 - Minute m 
2 - Power Consumed at minute m 
3 - Power Produced at minute m 
4 - Energy Consumed since the beginning of the day 
5 - Energy Produced since the beginning of the day 
6 - Energy Lost since the beginning of the day on lines starting from the city
 
0 ; 4788.621958680275 ; 53761.67762406816 ; 0.0 ; 0.0 ; 0.0
1 ; 5072.9513750107535 ; 53338.38371698033 ; 4788.621958680275 ; 53761.67762406816 ; 0.0
2 ; 5532.715352113804 ; 52956.69161425939 ; 9861.573333691029 ; 107100.06134104848 ; 0.0
3 ; 5973.117802840429 ; 52617.53603345829 ; 15394.288685804833 ; 160056.75295530786 ; 0.0
4 ; 6426.628356233538 ; 52321.77021876818 ; 21367.40648864526 ; 212674.28898876614 ; 0.0
5 ; 6841.704019487494 ; 52070.15625221799 ; 27794.0348448788 ; 264996.0592075343 ; 0.0
6 ; 7000.813678507899 ; 51863.35602754489 ; 34635.73886436629 ; 317066.2154597523 ; 0.0
7 ; 7509.884449173738 ; 51701.92312250311 ; 41636.55254287419 ; 368929.5714872972 ; 0.0
8 ; 7895.335480576916 ; 51586.295793661586 ; 49146.43699204793 ; 420631.4946098003 ; 0.0
9 ; 8435.959516811447 ; 51516.79129544887 ; 57041.77247262484 ; 472217.7904034619 ; 0.0
10 ; 8742.650904568844 ; 51493.60169279972 ; 65477.73198943629 ; 523734.5816989108 ; 0.0
11 ; 9027.507984255044 ; 51516.79129544887 ; 74220.38289400513 ; 575228.1833917105 ; 0.0
12 ; 9427.038243460733 ; 51586.295793661586 ; 83247.89087826018 ; 626744.9746871594 ; 0.0
13 ; 9791.830004511781 ; 51701.92312250311 ; 92674.92912172091 ; 678331.270480821 ; 0.0
14 ; 10100.38085236899 ; 51863.3560275448 ; 102466.75912623269 ; 730033.1936033241 ; 0.0
15 ; 10416.810467694524 ; 52070.15625221799 ; 112567.13997860168 ; 781896.549630869 ; 0.0
16 ; 10863.126267739248 ; 52321.77021876818 ; 122983.9504462962 ; 833966.7058830869 ; 0.0
17 ; 11303.687049130065 ; 52617.536033458215 ; 133847.07671403544 ; 886288.476101855 ; 0.0
18 ; 11586.681328169563 ; 52956.69161425948 ; 145150.7637631655 ; 938906.0121353132 ; 0.0
19 ; 12010.124648221585 ; 53338.38371698025 ; 156737.44509133507 ; 991862.7037495727 ; 0.0
20 ; 12031.707216540806 ; 53761.67762406825 ; 168747.56973955667 ; 1045201.087466553 ; 0.0
21 ; 12497.093663507714 ; 54225.56725890681 ; 180779.27695609748 ; 1098962.7650906213 ; 0.0
22 ; 12958.546908470908 ; 54728.98549638263 ; 193276.3706196052 ; 1153188.332349528 ; 0.0
23 ; 12938.817444638775 ; 55270.81445641694 ; 206234.91752807613 ; 1207917.3178459108 ; 0.0
24 ; 13574.531970887367 ; 55849.895589290456 ; 219173.7349727149 ; 1263188.1323023278 ; 0.0
25 ; 13898.86017097758 ; 56465.03938808498 ; 232748.26694360227 ; 1319038.0278916182 ; 0.0
26 ; 14112.730289130846 ; 57115.03459254133 ; 246647.12711457984 ; 1375503.0672797032 ; 0.0
27 ; 14371.013360162531 ; 57798.65677840799 ; 260759.8574037107 ; 1432618.1018722446 ; 0.0
28 ; 14565.241038799912 ; 58514.676255444916 ; 275130.8707638732 ; 1490416.7586506526 ; 0.0
29 ; 14829.62409183283 ; 59261.865224508656 ; 289696.11180267314 ; 1548931.4349060976 ; 0.0
30 ; 15121.222372949938 ; 60039.00416871445 ; 304525.735894506 ; 1608193.3001306062 ; 0.0
31 ; 15353.382836416182 ; 60844.887475021926 ; 319646.9582674559 ; 1668232.3042993206 ; 0.0
32 ; 15638.750967173039 ; 61678.32830044813 ; 335000.3411038721 ; 1729077.1917743424 ; 0.0
33 ; 15861.72134578592 ; 62538.162711442805 ; 350639.09207104513 ; 1790755.5200747906 ; 0.0
34 ; 16200.366032967253 ; 63423.25313591397 ; 366500.8134168311 ; 1853293.6827862335 ; 0.0
35 ; 16564.6025228895 ; 64332.491175226736 ; 382701.1794497983 ; 1916716.9359221475 ; 0.0
36 ; 16797.07015085841 ; 65264.79982858491 ; 399265.7819726878 ; 1981049.427097374 ; 0.0
37 ; 17049.833078864955 ; 66219.13518492419 ; 416062.85212354624 ; 2046314.226925959 ; 0.0
38 ; 17140.804610606858 ; 67194.48763821703 ; 433112.6852024112 ; 2112533.3621108835 ; 0.0
39 ; 17503.08661266465 ; 68189.88268129835 ; 450253.48981301807 ; 2179727.8497491004 ; 0.0
40 ; 17693.869428546874 ; 69204.38133133487 ; 467756.5764256827 ; 2247917.732430399 ; 0.0
41 ; 17953.489543096995 ; 70237.0802372023 ; 485450.44585422956 ; 2317122.1137617338 ; 0.0
42 ; 18076.714259392385 ; 71287.11151558386 ; 503403.93539732654 ; 2387359.193998936 ; 0.0
43 ; 18313.83037960465 ; 72353.64235879284 ; 521480.64965671895 ; 2458646.30551452 ; 0.0
44 ; 18425.849582477666 ; 73435.87445333882 ; 539794.4800363235 ; 2530999.947873313 ; 0.0
45 ; 18637.688527714272 ; 74533.04324425431 ; 558220.3296188012 ; 2604435.822326652 ; 0.0
46 ; 19028.18723525544 ; 75644.41707628364 ; 576858.0181465155 ; 2678968.865570906 ; 0.0
47 ; 19134.228849653802 ; 76769.29623929551 ; 595886.205381771 ; 2754613.2826471897 ; 0.0
48 ; 19364.636738189132 ; 77907.01194176397 ; 615020.4342314248 ; 2831382.578886485 ; 0.0
49 ; 19307.26340342064 ; 79056.92523291407 ; 634385.070969614 ; 2909289.590828249 ; 0.0
50 ; 19612.642289940366 ; 80218.42589115794 ; 653692.3343730347 ; 2988346.5160611635 ; 0.0
51 ; 19946.472977896206 ; 81390.93129376078 ; 673304.976662975 ; 3068564.9419523217 ; 0.0
52 ; 19886.760784380233 ; 82573.88528028133 ; 693251.4496408713 ; 3149955.8732460826 ; 0.0
53 ; 20095.364353578458 ; 83766.75702019627 ; 713138.2104252515 ; 3232529.758526364 ; 0.0
54 ; 20174.14183646404 ; 84969.03989325007 ; 733233.5747788299 ; 3316296.5155465603 ; 0.0
55 ; 20355.408516692394 ; 86180.25038943485 ; 753407.716615294 ; 3401265.5554398103 ; 0.0
56 ; 20465.557500391886 ; 87399.9270340895 ; 773763.1251319863 ; 3487445.805829245 ; 0.0
57 ; 20648.758720599624 ; 88627.62934238641 ; 794228.6826323782 ; 3574845.7328633345 ; 0.0
58 ; 20843.660917857276 ; 89862.93680643382 ; 814877.4413529778 ; 3663473.362205721 ; 0.0
59 ; 20833.434823289295 ; 91105.44791733682 ; 835721.1022708351 ; 3753336.299012155 ; 0.0
60 ; 21119.696982370162 ; 92354.77922381475 ; 856554.5370941244 ; 3844441.7469294914 ; 0.0
61 ; 21172.620471886945 ; 93610.5644283502 ; 877674.2340764945 ; 3936796.526153306 ; 0.0
62 ; 21470.45936390782 ; 94872.4535213289 ; 898846.8545483814 ; 4030407.0905816564 ; 0.0
63 ; 21227.77412841516 ; 96140.11195320469 ; 920317.3139122892 ; 4125279.5441029854 ; 0.0
64 ; 21657.94918872512 ; 97413.21984438084 ; 941545.0880407044 ; 4221419.65605619 ; 0.0
65 ; 21514.942069128934 ; 98691.47123222222 ; 963203.0372294295 ; 4318832.87590057 ; 0.0
66 ; 21655.495686609338 ; 99974.57335439384 ; 984717.9792985584 ; 4417524.347132793 ; 0.0
67 ; 21656.722919983506 ; 101262.2459675541 ; 1006373.4749851677 ; 4517498.920487187 ; 0.0
68 ; 21792.9774438905 ; 102554.22070030356 ; 1028030.1979051513 ; 4618761.166454741 ; 0.0
69 ; 21925.38655823854 ; 103850.24043919699 ; 1049823.1753490418 ; 4721315.387155045 ; 0.0
70 ; 21888.540339454597 ; 105150.05874656483 ; 1071748.5619072805 ; 4825165.627594242 ; 0.0
71 ; 22053.687071282387 ; 106453.43930884951 ; 1093637.102246735 ; 4930315.686340807 ; 0.0
72 ; 22114.023072211956 ; 107760.15541414414 ; 1115690.7893180174 ; 5036769.125649656 ; 0.0
73 ; 21983.297964784444 ; 109069.98945761696 ; 1137804.8123902294 ; 5144529.281063801 ; 0.0
74 ; 22100.229291028583 ; 110382.73247351567 ; 1159788.110355014 ; 5253599.270521417 ; 0.0
75 ; 22202.27888522255 ; 111698.18369246382 ; 1181888.3396460426 ; 5363982.002994933 ; 0.0
76 ; 22129.655781594025 ; 113016.15012279285 ; 1204090.618531265 ; 5475680.186687397 ; 0.0
77 ; 22268.675218987668 ; 114336.44615468346 ; 1226220.2743128592 ; 5588696.336810189 ; 0.0
78 ; 22418.60367567916 ; 115658.8931859343 ; 1248488.949531847 ; 5703032.782964873 ; 0.0
79 ; 22374.74633614848 ; 116983.31926821213 ; 1270907.553207526 ; 5818691.676150807 ; 0.0
80 ; 22375.944135270853 ; 118309.558772688 ; 1293282.2995436746 ; 5935674.995419019 ; 0.0
81 ; 22360.78251476695 ; 119637.45207400573 ; 1315658.2436789453 ; 6053984.554191707 ; 0.0
82 ; 22349.23600938614 ; 120966.84525157796 ; 1338019.0261937124 ; 6173622.006265713 ; 0.0
83 ; 22416.747129367493 ; 122297.58980725096 ; 1360368.2622030985 ; 6294588.851517291 ; 0.0
84 ; 22263.830141387436 ; 123629.54239842488 ; 1382785.009332466 ; 6416886.441324541 ; 0.0
85 ; 22404.68593786071 ; 124962.56458576351 ; 1405048.8394738534 ; 6540515.983722966 ; 0.0
86 ; 22422.348098336814 ; 126296.52259467001 ; 1427453.525411714 ; 6665478.54830873 ; 0.0
87 ; 22296.97245074649 ; 127631.2870897497 ; 1449875.8735100508 ; 6791775.0709034 ; 0.0
88 ; 22200.171988823146 ; 128966.73296152175 ; 1472172.8459607973 ; 6919406.35799315 ; 0.0
89 ; 22045.37378592019 ; 130302.7391246829 ; 1494373.0179496205 ; 7048373.090954672 ; 0.0
90 ; 22267.88089547053 ; 131639.18832726355 ; 1516418.3917355407 ; 7178675.830079354 ; 0.0
91 ; 22036.36764346003 ; 132975.96697005423 ; 1538686.2726310112 ; 7310315.018406617 ; 0.0
92 ; 22174.348627571868 ; 134312.9649357163 ; 1560722.6402744711 ; 7443290.985376672 ; 0.0
93 ; 22060.735250956674 ; 135650.0754270223 ; 1582896.988902043 ; 7577603.950312388 ; 0.0
94 ; 21956.781125010242 ; 136987.19481370528 ; 1604957.7241529997 ; 7713254.025739411 ; 0.0
95 ; 21914.189542534317 ; 138324.22248742564 ; 1626914.50527801 ; 7850241.220553116 ; 0.0
96 ; 21978.999859015013 ; 139661.06072439242 ; 1648828.6948205442 ; 7988565.443040541 ; 0.0
97 ; 21670.53947380655 ; 140997.61455520373 ; 1670807.6946795592 ; 8128226.503764934 ; 0.0
98 ; 21765.82472212489 ; 142333.7916414961 ; 1692478.2341533657 ; 8269224.118320137 ; 0.0
99 ; 21776.882402060182 ; 143669.50215901673 ; 1714244.0588754907 ; 8411557.909961633 ; 0.0
100 ; 21562.905698669478 ; 145004.65868675604 ; 1736020.9412775508 ; 8555227.41212065 ; 0.0
101 ; 21499.674683681704 ; 146339.17610179802 ; 1757583.8469762201 ; 8700232.070807405 ; 0.0
102 ; 21307.101815599573 ; 147672.97147956767 ; 1779083.5216599018 ; 8846571.246909203 ; 0.0
103 ; 21251.24700366567 ; 149005.96399917244 ; 1800390.6234755013 ; 8994244.21838877 ; 0.0
104 ; 21299.688310391375 ; 150338.07485355387 ; 1821641.870479167 ; 9143250.182387942 ; 0.0
105 ; 21036.274149951845 ; 151669.22716418133 ; 1842941.5587895582 ; 9293588.257241497 ; 0.0
106 ; 20860.842945876357 ; 152999.34590003567 ; 1863977.83293951 ; 9445257.484405678 ; 0.0
107 ; 20802.119784723127 ; 154328.35780064695 ; 1884838.6758853863 ; 9598256.830305714 ; 0.0
108 ; 20683.45013249454 ; 155656.19130296184 ; 1905640.7956701093 ; 9752585.188106362 ; 0.0
109 ; 20584.973455489973 ; 156982.77647183192 ; 1926324.245802604 ; 9908241.379409324 ; 0.0
110 ; 20283.571291883643 ; 158308.0449339247 ; 1946909.219258094 ; 1.0065224155881157E7 ; 0.0
111 ; 20406.771305633134 ; 159631.9298148722 ; 1967192.7905499777 ; 1.0223532200815082E7 ; 0.0
112 ; 19953.14143318018 ; 160954.3656794808 ; 1987599.561855611 ; 1.0383164130629953E7 ; 0.0
113 ; 19859.410743135173 ; 162275.28847483898 ; 2007552.703288791 ; 1.0544118496309433E7 ; 0.0
114 ; 19665.120260638498 ; 163594.63547616647 ; 2027412.1140319263 ; 1.0706393784784272E7 ; 0.0
115 ; 19686.975690072133 ; 164912.34523525916 ; 2047077.2342925647 ; 1.0869988420260439E7 ; 0.0
116 ; 19345.880421546026 ; 166228.35753139225 ; 2066764.2099826369 ; 1.1034900765495697E7 ; 0.0
117 ; 19257.69894828875 ; 167542.61332455097 ; 2086110.090404183 ; 1.120112912302709E7 ; 0.0
118 ; 18869.360828481622 ; 168855.05471086723 ; 2105367.7893524715 ; 1.136867173635164E7 ; 0.0
119 ; 18812.694964788017 ; 170165.62488014647 ; 2124237.150180953 ; 1.1537526791062508E7 ; 0.0
120 ; 18712.62902815858 ; 171474.26807537596 ; 2143049.845145741 ; 1.1707692415942654E7 ; 0.0
121 ; 18443.96651661182 ; 172780.929554112 ; 2161762.4741738997 ; 1.187916668401803E7 ; 0.0
122 ; 18116.037735816248 ; 174085.5555516492 ; 2180206.4406905114 ; 1.2051947613572143E7 ; 0.0
123 ; 17960.564602459915 ; 175388.09324588015 ; 2198322.4784263275 ; 1.2226033169123793E7 ; 0.0
124 ; 17909.55686875858 ; 176688.49072376007 ; 2216283.0430287872 ; 1.2401421262369674E7 ; 0.0
125 ; 17754.179990618377 ; 177986.6969492938 ; 2234192.5998975458 ; 1.2578109753093434E7 ; 0.0
126 ; 17417.704707886074 ; 179282.66173296957 ; 2251946.7798881643 ; 1.2756096450042728E7 ; 0.0
127 ; 17243.971817949434 ; 180576.33570256573 ; 2269364.4845960503 ; 1.2935379111775698E7 ; 0.0
128 ; 16738.601324561812 ; 181867.67027526288 ; 2286608.4564139997 ; 1.3115955447478265E7 ; 0.0
129 ; 16777.87580194161 ; 183156.61763099572 ; 2303347.0577385616 ; 1.3297823117753528E7 ; 0.0
130 ; 16383.483316971417 ; 184443.13068698373 ; 2320124.933540503 ; 1.3480979735384524E7 ; 0.0
131 ; 16237.55205030886 ; 185727.1630733827 ; 2336508.4168574745 ; 1.3665422866071507E7 ; 0.0
132 ; 15915.881051825907 ; 187008.66911000203 ; 2352745.9689077833 ; 1.385115002914489E7 ; 0.0
133 ; 15632.216086919161 ; 188287.60378403653 ; 2368661.849959609 ; 1.4038158698254893E7 ; 0.0
134 ; 15423.867562672463 ; 189563.92272876264 ; 2384294.066046528 ; 1.4226446302038928E7 ; 0.0
135 ; 15263.254195467372 ; 190837.58220315372 ; 2399717.9336092006 ; 1.441601022476769E7 ; 0.0
136 ; 14860.219468695022 ; 192108.53907236955 ; 2414981.187804668 ; 1.4606847806970844E7 ; 0.0
137 ; 14518.967806154214 ; 193376.7507890789 ; 2429841.4072733633 ; 1.4798956346043214E7 ; 0.0
138 ; 14347.000733668572 ; 194642.1753755754 ; 2444360.3750795177 ; 1.4992333096832294E7 ; 0.0
139 ; 14007.923209694198 ; 195904.77140664958 ; 2458707.375813186 ; 1.518697527220787E7 ; 0.0
140 ; 13659.838878953806 ; 197164.49799318123 ; 2472715.2990228804 ; 1.5382880043614518E7 ; 0.0
141 ; 13313.857983921855 ; 198421.31476641897 ; 2486375.137901834 ; 1.5580044541607698E7 ; 0.0
142 ; 12988.788318795157 ; 199675.18186291482 ; 2499688.995885756 ; 1.5778465856374117E7 ; 0.0
143 ; 12810.015309401026 ; 200926.05991008354 ; 2512677.784204551 ; 1.5978141038237032E7 ; 0.0
144 ; 12525.492843968848 ; 202173.91001235816 ; 2525487.799513952 ; 1.6179067098147115E7 ; 0.0
145 ; 12248.081646359957 ; 203418.69373791458 ; 2538013.2923579207 ; 1.6381241008159474E7 ; 0.0
146 ; 12410.370424908515 ; 204660.37310593924 ; 2550261.3740042807 ; 1.6584659701897388E7 ; 0.0
147 ; 12292.30904297633 ; 205898.91057441468 ; 2562671.7444291892 ; 1.6789320075003326E7 ; 0.0
148 ; 11997.427483815145 ; 207134.26902840176 ; 2574964.0534721655 ; 1.699521898557774E7 ; 0.0
149 ; 12041.548478989856 ; 208366.41176879342 ; 2586961.4809559807 ; 1.7202353254606143E7 ; 0.0
150 ; 11906.24007446491 ; 209595.30250152122 ; 2599003.0294349706 ; 1.7410719666374937E7 ; 0.0
151 ; 11664.42319813175 ; 210820.9053271941 ; 2610909.2695094356 ; 1.762031496887646E7 ; 0.0
152 ; 11782.040580251143 ; 212043.18473114955 ; 2622573.6927075675 ; 1.7831135874203652E7 ; 0.0
153 ; 11755.493130230017 ; 213262.1055738998 ; 2634355.7332878187 ; 1.80431790589348E7 ; 0.0
154 ; 11534.059211267386 ; 214477.63308195627 ; 2646111.2264180486 ; 1.82564411645087E7 ; 0.0
155 ; 11274.25363274109 ; 215689.73283901438 ; 2657645.285629316 ; 1.8470918797590658E7 ; 0.0
156 ; 11150.838028760703 ; 216898.37077748487 ; 2668919.539262057 ; 1.8686608530429672E7 ; 0.0
157 ; 11307.575869659617 ; 218103.51317035547 ; 2680070.3772908174 ; 1.8903506901207156E7 ; 0.0
158 ; 11067.179908771202 ; 219305.12662336943 ; 2691377.953160477 ; 1.912161041437751E7 ; 0.0
159 ; 11185.962151559574 ; 220503.1780675076 ; 2702445.133069248 ; 1.934091554100088E7 ; 0.0
160 ; 10822.206793800045 ; 221697.63475176052 ; 2713631.0952208075 ; 1.956141871906839E7 ; 0.0
161 ; 10763.308009805818 ; 222888.46423617867 ; 2724453.3020146075 ; 1.978311635382015E7 ; 0.0
162 ; 10763.66687883006 ; 224075.63438518986 ; 2735216.610024413 ; 2.0006004818056326E7 ; 0.0
163 ; 10267.811754902874 ; 225259.11336117153 ; 2745980.2769032433 ; 2.0230080452441517E7 ; 0.0
164 ; 10413.623486717102 ; 226438.8696182679 ; 2756248.088658146 ; 2.045533956580269E7 ; 0.0
165 ; 10329.659339527843 ; 227614.87189644238 ; 2766661.7121448633 ; 2.0681778435420956E7 ; 0.0
166 ; 10171.389661671192 ; 228787.08921575433 ; 2776991.3714843914 ; 2.09093933073174E7 ; 0.0
167 ; 10076.87545777649 ; 229955.4908708524 ; 2787162.7611460625 ; 2.1138180396533154E7 ; 0.0
168 ; 10047.58134991625 ; 231120.04642567463 ; 2797239.636603839 ; 2.1368135887404006E7 ; 0.0
169 ; 9771.061451620726 ; 232280.7257083472 ; 2807287.2179537555 ; 2.159925593382968E7 ; 0.0
170 ; 9788.270143776828 ; 233437.49880627418 ; 2817058.2794053764 ; 2.1831536659538027E7 ; 0.0
171 ; 9416.762226825169 ; 234590.33606141005 ; 2826846.549549153 ; 2.2064974158344302E7 ; 0.0
172 ; 9509.956695865403 ; 235739.20806570855 ; 2836263.311775978 ; 2.2299564494405713E7 ; 0.0
173 ; 9152.269109377201 ; 236884.08565673913 ; 2845773.2684718436 ; 2.253530370247142E7 ; 0.0
174 ; 9272.0075730078 ; 238024.9399134669 ; 2854925.5375812207 ; 2.277218778812816E7 ; 0.0
175 ; 9309.879038399808 ; 239161.7421521874 ; 2864197.5451542283 ; 2.3010212728041627E7 ; 0.0
176 ; 9325.705339078298 ; 240294.46392261115 ; 2873507.4241926284 ; 2.3249374470193814E7 ; 0.0
177 ; 9350.031379250457 ; 241423.0770040918 ; 2882833.1295317067 ; 2.3489668934116427E7 ; 0.0
178 ; 9512.321805684616 ; 242547.55340199315 ; 2892183.160910957 ; 2.373109201112052E7 ; 0.0
179 ; 9470.910520550085 ; 243667.86534418806 ; 2901695.482716642 ; 2.3973639564522512E7 ; 0.0
180 ; 9242.84883097128 ; 244783.98527768572 ; 2911166.3932371917 ; 2.42173074298667E7 ; 0.0
181 ; 9341.606330549816 ; 245895.8858653814 ; 2920409.242068163 ; 2.4462091415144388E7 ; 0.0
182 ; 9588.256389960023 ; 247003.53998292447 ; 2929750.848398713 ; 2.470798730100977E7 ; 0.0
183 ; 9673.500546937046 ; 248106.92071570017 ; 2939339.104788673 ; 2.4954990840992697E7 ; 0.0
184 ; 9687.983428397487 ; 249206.00135592007 ; 2949012.60533561 ; 2.5203097761708397E7 ; 0.0
185 ; 9585.491194255583 ; 250300.75539981885 ; 2958700.5887640077 ; 2.5452303763064317E7 ; 0.0
186 ; 9596.750201732928 ; 251391.1565449512 ; 2968286.0799582633 ; 2.5702604518464137E7 ; 0.0
187 ; 9484.446961820573 ; 252477.17868758665 ; 2977882.830159996 ; 2.5953995675009087E7 ; 0.0
188 ; 9572.722528768689 ; 253558.79592019855 ; 2987367.2771218168 ; 2.6206472853696674E7 ; 0.0
189 ; 9844.669080409285 ; 254635.9825290427 ; 2996939.9996505855 ; 2.646003164961687E7 ; 0.0
190 ; 9657.257644989984 ; 255708.7129918236 ; 3006784.6687309947 ; 2.6714667632145915E7 ; 0.0
191 ; 9783.835142673006 ; 256776.96197544414 ; 3016441.9263759847 ; 2.6970376345137738E7 ; 0.0
192 ; 9790.654462136175 ; 257840.7043338362 ; 3026225.7615186577 ; 2.722715330711318E7 ; 0.0
193 ; 9848.515874437628 ; 258899.91510586877 ; 3036016.415980794 ; 2.748499401144702E7 ; 0.0
194 ; 9837.150326171075 ; 259954.5695133314 ; 3045864.9318552315 ; 2.7743893926552888E7 ; 0.0
195 ; 9965.052600650706 ; 261004.64295898963 ; 3055702.0821814025 ; 2.800384849606622E7 ; 0.0
196 ; 9709.04165214103 ; 262050.11102470985 ; 3065667.134782053 ; 2.826485313902521E7 ; 0.0
197 ; 9766.853624566776 ; 263090.9494696519 ; 3075376.176434194 ; 2.8526903250049923E7 ; 0.0
198 ; 9821.142820337005 ; 264127.13422852533 ; 3085143.030058761 ; 2.8789994199519575E7 ; 0.0
199 ; 9990.495285405661 ; 265158.64140990947 ; 3094964.172879098 ; 2.90541213337481E7 ; 0.0
200 ; 9978.906271906588 ; 266185.4472946321 ; 3104954.6681645038 ; 2.931927997515801E7 ; 0.0
201 ; 9924.730575681073 ; 267207.5283342074 ; 3114933.5744364103 ; 2.9585465422452644E7 ; 0.0
202 ; 10240.805414038183 ; 268224.86114932917 ; 3124858.3050120915 ; 2.985267295078685E7 ; 0.0
203 ; 10093.526967639238 ; 269237.4225284182 ; 3135099.11042613 ; 3.012089781193618E7 ; 0.0
204 ; 10132.255575209427 ; 270245.18942622194 ; 3145192.637393769 ; 3.03901352344646E7 ; 0.0
205 ; 9902.31349538717 ; 271248.1389624641 ; 3155324.8929689783 ; 3.066038042389082E7 ; 0.0
206 ; 10262.03955451144 ; 272246.24842054315 ; 3165227.2064643656 ; 3.0931628562853284E7 ; 0.0
207 ; 10192.534097862033 ; 273239.49524627713 ; 3175489.2460188773 ; 3.120387481127383E7 ; 0.0
208 ; 10313.73771950261 ; 274227.8570466943 ; 3185681.780116739 ; 3.1477114306520104E7 ; 0.0
209 ; 10275.023657915697 ; 275211.31158886675 ; 3195995.517836242 ; 3.1751342163566798E7 ; 0.0
210 ; 10236.817778411603 ; 276189.8367987866 ; 3206270.5414941576 ; 3.2026553475155666E7 ; 0.0
211 ; 10323.869943174725 ; 277163.4107602827 ; 3216507.3592725694 ; 3.2302743311954454E7 ; 0.0
212 ; 10408.295770531915 ; 278132.01171397656 ; 3226831.229215744 ; 3.2579906722714737E7 ; 0.0
