CSV File for the City 3 on Day 282
1 - Minute m 
2 - Power Consumed at minute m 
3 - Power Produced at minute m 
4 - Energy Consumed since the beginning of the day 
5 - Energy Produced since the beginning of the day 
6 - Energy Lost since the beginning of the day on lines starting from the city
 
0 ; 6844.474359819105 ; 132306.73007899369 ; 0.0 ; 0.0 ; 0.0
1 ; 7202.138635048421 ; 131958.36842597226 ; 6844.474359819105 ; 132306.73007899369 ; 0.0
2 ; 7458.153708426917 ; 131645.82352238055 ; 14046.612994867526 ; 264265.09850496595 ; 0.0
3 ; 7820.864619189863 ; 131369.37488659818 ; 21504.766703294445 ; 395910.9220273465 ; 0.0
4 ; 8238.387407053735 ; 131129.27192826406 ; 29325.631322484307 ; 527280.2969139447 ; 0.0
5 ; 8522.3106184481 ; 130925.73293908396 ; 37564.018729538046 ; 658409.5688422087 ; 0.0
6 ; 8653.144079402322 ; 130758.94419740932 ; 46086.329347986146 ; 789335.3017812927 ; 0.0
7 ; 8980.855621461613 ; 130629.05919514043 ; 54739.47342738847 ; 920094.245978702 ; 0.0
8 ; 9399.647960735158 ; 130536.19799445753 ; 63720.32904885008 ; 1050723.3051738425 ; 0.0
9 ; 9728.990350334794 ; 130480.4467207104 ; 73119.97700958524 ; 1181259.5031683 ; 0.0
10 ; 10096.356968419794 ; 130461.85719651257 ; 82848.96735992003 ; 1311739.9498890105 ; 0.0
11 ; 10261.516288842566 ; 130480.4467207104 ; 92945.32432833983 ; 1442201.8070855231 ; 0.0
12 ; 10628.427788965564 ; 130536.19799445753 ; 103206.8406171824 ; 1572682.2538062336 ; 0.0
13 ; 11010.88974749789 ; 130629.05919514043 ; 113835.26840614797 ; 1703218.4518006912 ; 0.0
14 ; 11355.88390819299 ; 130758.94419740925 ; 124846.15815364585 ; 1833847.5109958316 ; 0.0
15 ; 11476.40648598497 ; 130925.73293908396 ; 136202.04206183885 ; 1964606.455193241 ; 0.0
16 ; 11728.472914718788 ; 131129.27192826406 ; 147678.44854782382 ; 2095532.188132325 ; 0.0
17 ; 11963.103915176916 ; 131369.3748865981 ; 159406.9214625426 ; 2226661.460060589 ; 0.0
18 ; 12385.456437355278 ; 131645.82352238064 ; 171370.02537771952 ; 2358030.834947187 ; 0.0
19 ; 12661.967801953504 ; 131958.3684259722 ; 183755.4818150748 ; 2489676.6584695675 ; 0.0
20 ; 12888.969462427744 ; 132306.73007899374 ; 196417.4496170283 ; 2621635.02689554 ; 0.0
21 ; 13106.957096131004 ; 132690.59996784563 ; 209306.41907945604 ; 2753941.7569745337 ; 0.0
22 ; 13472.405652195863 ; 133109.64179135865 ; 222413.37617558704 ; 2886632.3569423794 ; 0.0
23 ; 13727.958454293559 ; 133563.49275180118 ; 235885.7818277829 ; 3019741.998733738 ; 0.0
24 ; 13864.711783091234 ; 134051.76491805102 ; 249613.74028207644 ; 3153305.4914855394 ; 0.0
25 ; 14149.020102013761 ; 134574.04664949057 ; 263478.45206516766 ; 3287357.2564035906 ; 0.0
26 ; 14457.194040287559 ; 135129.9040690926 ; 277627.47216718143 ; 3421931.303053081 ; 0.0
27 ; 14722.624522128857 ; 135718.88257422965 ; 292084.666207469 ; 3557061.2071221736 ; 0.0
28 ; 14792.373686765046 ; 136340.50837394773 ; 306807.29072959785 ; 3692780.089696403 ; 0.0
29 ; 15054.349935819902 ; 136994.29004178272 ; 321599.6644163629 ; 3829120.598070351 ; 0.0
30 ; 15198.369750748234 ; 137679.72007365464 ; 336654.0143521828 ; 3966114.888112134 ; 0.0
31 ; 15650.9016862103 ; 138396.27644093084 ; 351852.384102931 ; 4103794.6081857886 ; 0.0
32 ; 15800.814710305114 ; 139143.42412939086 ; 367503.2857891413 ; 4242190.884626719 ; 0.0
33 ; 16005.801932976556 ; 139920.61665553268 ; 383304.10049944645 ; 4381334.30875611 ; 0.0
34 ; 16098.508697391608 ; 140727.2975524215 ; 399309.902432423 ; 4521254.9254116425 ; 0.0
35 ; 16353.279130068766 ; 141562.90181807568 ; 415408.41112981463 ; 4661982.222964064 ; 0.0
36 ; 16611.9561866373 ; 142426.85732019763 ; 431761.6902598834 ; 4803545.124782139 ; 0.0
37 ; 16810.0053604767 ; 143318.5861518767 ; 448373.6464465207 ; 4945971.982102337 ; 0.0
38 ; 16803.310673510852 ; 144237.50593370356 ; 465183.65180699737 ; 5089290.568254214 ; 0.0
39 ; 17224.84475534938 ; 145183.0310585262 ; 481986.9624805082 ; 5233528.074187918 ; 0.0
40 ; 17206.557750571752 ; 146154.57387584232 ; 499211.8072358576 ; 5378711.105246444 ; 0.0
41 ; 17411.73559865922 ; 147151.54581355146 ; 516418.36498642934 ; 5524865.679122287 ; 0.0
42 ; 17689.98088283279 ; 148173.3584354704 ; 533830.1005850886 ; 5672017.224935838 ; 0.0
43 ; 17644.42735227707 ; 149219.4244336555 ; 551520.0814679214 ; 5820190.583371309 ; 0.0
44 ; 17828.639883475254 ; 150289.15855515367 ; 569164.5088201985 ; 5969410.007804964 ; 0.0
45 ; 18191.093043328292 ; 151381.97846333956 ; 586993.1487036737 ; 6119699.1663601175 ; 0.0
46 ; 18489.07491302544 ; 152497.30553446434 ; 605184.241747002 ; 6271081.144823457 ; 0.0
47 ; 18441.08610309013 ; 153634.56559046652 ; 623673.3166600275 ; 6423578.450357921 ; 0.0
48 ; 18496.775095883557 ; 154793.18956945554 ; 642114.4027631176 ; 6577213.015948388 ; 0.0
49 ; 18654.02515286794 ; 155972.6141355953 ; 660611.1778590011 ; 6732006.205517843 ; 0.0
50 ; 18930.882757493346 ; 157172.28223037528 ; 679265.203011869 ; 6887978.819653438 ; 0.0
51 ; 19011.156004010427 ; 158391.6435674724 ; 698196.0857693623 ; 7045151.101883814 ; 0.0
52 ; 19081.125295549384 ; 159630.15507357861 ; 717207.2417733727 ; 7203542.745451286 ; 0.0
53 ; 19332.21191562254 ; 160887.28127769902 ; 736288.3670689221 ; 7363172.900524865 ; 0.0
54 ; 19201.777595599746 ; 162162.4946515183 ; 755620.5789845447 ; 7524060.181802564 ; 0.0
55 ; 19537.39336713659 ; 163455.2759034927 ; 774822.3565801445 ; 7686222.676454082 ; 0.0
56 ; 19567.97844274368 ; 164765.11422935597 ; 794359.7499472811 ; 7849677.952357575 ; 0.0
57 ; 19824.209634187126 ; 166091.50752172782 ; 813927.7283900247 ; 8014443.066586931 ; 0.0
58 ; 19830.09376956062 ; 167433.96254149568 ; 833751.9380242119 ; 8180534.574108659 ; 0.0
59 ; 19766.326542061106 ; 168791.9950536004 ; 853582.0317937725 ; 8347968.536650155 ; 0.0
60 ; 19913.894543867355 ; 170165.12992979822 ; 873348.3583358335 ; 8516760.531703755 ; 0.0
61 ; 20080.777370848275 ; 171552.9012209023 ; 893262.2528797009 ; 8686925.661633553 ; 0.0
62 ; 20272.67440571989 ; 172954.85220092357 ; 913343.0302505491 ; 8858478.562854456 ; 0.0
63 ; 20279.914618634626 ; 174370.5353854402 ; 933615.7046562689 ; 9031433.41505538 ; 0.0
64 ; 20168.828044968748 ; 175799.5125264251 ; 953895.6192749036 ; 9205803.95044082 ; 0.0
65 ; 20301.507693879073 ; 177241.35458565995 ; 974064.4473198723 ; 9381603.462967245 ; 0.0
66 ; 20428.96561554615 ; 178695.64168875464 ; 994365.9550137514 ; 9558844.817552906 ; 0.0
67 ; 20720.2515980295 ; 180161.9630616837 ; 1014794.9206292975 ; 9737540.45924166 ; 0.0
68 ; 20592.63253248875 ; 181639.91695164258 ; 1035515.172227327 ; 9917702.422303343 ; 0.0
69 ; 20719.885198856406 ; 183129.11053391604 ; 1056107.8047598158 ; 1.0099342339254986E7 ; 0.0
70 ; 20807.95306613335 ; 184629.15980634454 ; 1076827.6899586723 ; 1.0282471449788902E7 ; 0.0
71 ; 20799.716109071644 ; 186139.68947286846 ; 1097635.6430248057 ; 1.0467100609595247E7 ; 0.0
72 ; 20791.989336504746 ; 187660.33281752834 ; 1118435.3591338773 ; 1.0653240299068116E7 ; 0.0
73 ; 20870.510555537094 ; 189190.7315701991 ; 1139227.3484703822 ; 1.0840900631885644E7 ; 0.0
74 ; 20896.30627210951 ; 190730.5357652405 ; 1160097.8590259193 ; 1.1030091363455843E7 ; 0.0
75 ; 20894.48923729832 ; 192279.4035941555 ; 1180994.1652980288 ; 1.1220821899221083E7 ; 0.0
76 ; 20995.70585017848 ; 193837.00125325963 ; 1201888.654535327 ; 1.1413101302815238E7 ; 0.0
77 ; 20948.26842073575 ; 195403.00278728208 ; 1222884.3603855055 ; 1.1606938304068498E7 ; 0.0
78 ; 20932.246396289487 ; 196977.08992974056 ; 1243832.6288062413 ; 1.1802341306855781E7 ; 0.0
79 ; 21068.079261408522 ; 198558.95194085682 ; 1264764.8752025308 ; 1.1999318396785522E7 ; 0.0
80 ; 21035.289944741886 ; 200148.28544371173 ; 1285832.9544639392 ; 1.2197877348726379E7 ; 0.0
81 ; 20991.7894370754 ; 201744.79425927054 ; 1306868.244408681 ; 1.239802563417009E7 ; 0.0
82 ; 20992.0742003761 ; 203348.1892408509 ; 1327860.0338457564 ; 1.2599770428429361E7 ; 0.0
83 ; 20855.04089843194 ; 204958.18810854672 ; 1348852.1080461326 ; 1.2803118617670212E7 ; 0.0
84 ; 20910.86971483817 ; 206574.51528406807 ; 1369707.1489445646 ; 1.3008076805778759E7 ; 0.0
85 ; 20960.607268251024 ; 208196.9017264095 ; 1390618.0186594028 ; 1.3214651321062827E7 ; 0.0
86 ; 20881.559570656264 ; 209825.0847687116 ; 1411578.6259276539 ; 1.3422848222789237E7 ; 0.0
87 ; 20775.43632737924 ; 211458.80795663965 ; 1432460.18549831 ; 1.3632673307557948E7 ; 0.0
88 ; 20996.632704602645 ; 213097.82088856312 ; 1453235.6218256892 ; 1.3844132115514588E7 ; 0.0
89 ; 20920.773730369972 ; 214741.87905778672 ; 1474232.2545302918 ; 1.4057229936403152E7 ; 0.0
90 ; 20848.100315916607 ; 216390.74369704613 ; 1495153.0282606618 ; 1.4271971815460939E7 ; 0.0
91 ; 20788.929473620967 ; 218044.1816254568 ; 1516001.1285765783 ; 1.4488362559157984E7 ; 0.0
92 ; 20798.2615381618 ; 219701.96509807298 ; 1536790.0580501994 ; 1.4706406740783442E7 ; 0.0
93 ; 20753.237921043343 ; 221363.8716581911 ; 1557588.3195883613 ; 1.4926108705881516E7 ; 0.0
94 ; 20507.891301284853 ; 223029.68399250705 ; 1578341.5575094046 ; 1.5147472577539707E7 ; 0.0
95 ; 20732.33628608109 ; 224699.18978921903 ; 1598849.4488106894 ; 1.5370502261532214E7 ; 0.0
96 ; 20519.677308889797 ; 226372.18159914596 ; 1619581.7850967704 ; 1.5595201451321432E7 ; 0.0
97 ; 20428.22774145179 ; 228048.4566999168 ; 1640101.4624056602 ; 1.5821573632920578E7 ; 0.0
98 ; 20404.269724360136 ; 229727.8169632695 ; 1660529.690147112 ; 1.6049622089620495E7 ; 0.0
99 ; 20273.55837727202 ; 231410.06872548556 ; 1680933.959871472 ; 1.6279349906583766E7 ; 0.0
100 ; 20228.34778098877 ; 233095.0226609735 ; 1701207.518248744 ; 1.651075997530925E7 ; 0.0
101 ; 20243.89839282646 ; 234782.49365900425 ; 1721435.8660297329 ; 1.6743854997970225E7 ; 0.0
102 ; 20168.670848060392 ; 236472.3007035906 ; 1741679.7644225594 ; 1.6978637491629228E7 ; 0.0
103 ; 20031.025504060926 ; 238164.26675649555 ; 1761848.4352706198 ; 1.7215109792332817E7 ; 0.0
104 ; 19948.23289712103 ; 239858.21864334628 ; 1781879.4607746808 ; 1.7453274059089314E7 ; 0.0
105 ; 19925.632651245334 ; 241553.98694282342 ; 1801827.6936718018 ; 1.769313227773266E7 ; 0.0
106 ; 19853.740944686448 ; 243251.4058788906 ; 1821753.326323047 ; 1.7934686264675483E7 ; 0.0
107 ; 19627.564431095652 ; 244950.3132160233 ; 1841607.0672677334 ; 1.8177937670554373E7 ; 0.0
108 ; 19505.5995665047 ; 246650.55015739138 ; 1861234.6316988291 ; 1.8422887983770397E7 ; 0.0
109 ; 19448.591850548815 ; 248351.96124594766 ; 1880740.2312653337 ; 1.8669538533927787E7 ; 0.0
110 ; 19259.110329111423 ; 250054.39426837 ; 1900188.8231158825 ; 1.8917890495173734E7 ; 0.0
111 ; 19091.997762179704 ; 251757.70016180264 ; 1919447.9334449938 ; 1.9167944889442105E7 ; 0.0
112 ; 18853.44052832062 ; 253461.73292334043 ; 1938539.9312071735 ; 1.941970258960391E7 ; 0.0
113 ; 18910.473430195485 ; 255166.3495221975 ; 1957393.3717354941 ; 1.967316432252725E7 ; 0.0
114 ; 18767.32662656199 ; 256871.40981450063 ; 1976303.8451656897 ; 1.9928330672049444E7 ; 0.0
115 ; 18701.19880946942 ; 258576.77646064773 ; 1995071.1717922518 ; 2.0185202081863943E7 ; 0.0
116 ; 18608.364820549687 ; 260282.31484516914 ; 2013772.370601721 ; 2.044377885832459E7 ; 0.0
117 ; 18140.66177948524 ; 261987.89299903042 ; 2032380.7354222708 ; 2.0704061173169762E7 ; 0.0
118 ; 18000.270789435584 ; 263693.38152431545 ; 2050521.397201756 ; 2.0966049066168793E7 ; 0.0
119 ; 17875.738950141513 ; 265398.65352122724 ; 2068521.6679911916 ; 2.122974244769311E7 ; 0.0
120 ; 17969.826830906874 ; 267103.5845173459 ; 2086397.406941333 ; 2.1495141101214338E7 ; 0.0
121 ; 17584.938795073293 ; 268808.05239908147 ; 2104367.23377224 ; 2.1762244685731683E7 ; 0.0
122 ; 17388.11561217368 ; 270511.93734526273 ; 2121952.1725673135 ; 2.2031052738130763E7 ; 0.0
123 ; 17186.532763363903 ; 272215.1217628003 ; 2139340.288179487 ; 2.2301564675476026E7 ; 0.0
124 ; 17188.12457805874 ; 273917.49022436654 ; 2156526.820942851 ; 2.2573779797238827E7 ; 0.0
125 ; 16981.759628613996 ; 275618.9294080327 ; 2173714.9455209095 ; 2.2847697287463192E7 ; 0.0
126 ; 16721.20275881056 ; 277319.32803880743 ; 2190696.7051495234 ; 2.3123316216871224E7 ; 0.0
127 ; 16508.3786488791 ; 279018.57683201943 ; 2207417.907908334 ; 2.3400635544910032E7 ; 0.0
128 ; 16515.475862320996 ; 280716.5684384893 ; 2223926.286557213 ; 2.367965412174205E7 ; 0.0
129 ; 16043.550500196661 ; 282413.19739143684 ; 2240441.762419534 ; 2.396037069018054E7 ; 0.0
130 ; 15922.904402310694 ; 284108.3600550711 ; 2256485.312919731 ; 2.4242783887571976E7 ; 0.0
131 ; 15806.019199852779 ; 285801.9545748106 ; 2272408.2173220413 ; 2.4526892247627046E7 ; 0.0
132 ; 15452.724570712242 ; 287493.8808290844 ; 2288214.236521894 ; 2.481269420220186E7 ; 0.0
133 ; 15209.809087075892 ; 289184.0403826646 ; 2303666.961092606 ; 2.5100188083030943E7 ; 0.0
134 ; 15097.097004214042 ; 290872.336441481 ; 2318876.770179682 ; 2.5389372123413607E7 ; 0.0
135 ; 14886.590805623693 ; 292558.6738088735 ; 2333973.867183896 ; 2.5680244459855087E7 ; 0.0
136 ; 14598.69282319609 ; 294242.95884323434 ; 2348860.4579895195 ; 2.597280313366396E7 ; 0.0
137 ; 14466.107673389952 ; 295925.09941699763 ; 2363459.1508127158 ; 2.6267046092507195E7 ; 0.0
138 ; 14014.156780316735 ; 297605.00487693254 ; 2377925.2584861056 ; 2.6562971191924192E7 ; 0.0
139 ; 13825.165369626557 ; 299282.5860056978 ; 2391939.4152664226 ; 2.6860576196801126E7 ; 0.0
140 ; 13556.811593858509 ; 300957.75498461805 ; 2405764.580636049 ; 2.7159858782806825E7 ; 0.0
141 ; 13427.709526479826 ; 302630.42535764154 ; 2419321.3922299077 ; 2.7460816537791442E7 ; 0.0
142 ; 13015.43414984235 ; 304300.51199644123 ; 2432749.1017563874 ; 2.7763446963149082E7 ; 0.0
143 ; 12918.893026819907 ; 305967.9310666228 ; 2445764.5359062296 ; 2.8067747475145523E7 ; 0.0
144 ; 12525.601540116599 ; 307632.59999500256 ; 2458683.4289330496 ; 2.8373715406212144E7 ; 0.0
145 ; 12415.246166899087 ; 309294.4374379211 ; 2471209.030473166 ; 2.8681348006207146E7 ; 0.0
146 ; 12333.31241473139 ; 310953.3632505583 ; 2483624.276640065 ; 2.8990642443645068E7 ; 0.0
147 ; 12371.227968677102 ; 312609.29845721787 ; 2495957.5890547964 ; 2.9301595806895625E7 ; 0.0
148 ; 12178.836599831226 ; 314262.1652225484 ; 2508328.8170234733 ; 2.961420510535284E7 ; 0.0
149 ; 12273.480785348656 ; 315911.88682367204 ; 2520507.6536233043 ; 2.992846727057539E7 ; 0.0
150 ; 11963.873331134211 ; 317558.38762318826 ; 2532781.134408653 ; 3.0244379157399062E7 ; 0.0
151 ; 12056.186778717818 ; 319201.5930430274 ; 2544745.007739787 ; 3.056193754502225E7 ; 0.0
152 ; 11903.98380357096 ; 320841.42953912343 ; 2556801.1945185047 ; 3.0881139138065275E7 ; 0.0
153 ; 11838.64291215712 ; 322477.8245768804 ; 2568705.1783220754 ; 3.1201980567604396E7 ; 0.0
154 ; 11720.07582086122 ; 324110.7066074054 ; 2580543.8212342327 ; 3.1524458392181277E7 ; 0.0
155 ; 11613.916518337852 ; 325740.00504448486 ; 2592263.897055094 ; 3.1848569098788682E7 ; 0.0
156 ; 11819.23078569263 ; 327365.6502422776 ; 2603877.813573432 ; 3.217430910383317E7 ; 0.0
157 ; 11507.775954300629 ; 328987.5734737018 ; 2615697.0443591247 ; 3.2501674754075445E7 ; 0.0
158 ; 11275.941628145494 ; 330605.70690949424 ; 2627204.8203134253 ; 3.283066232754915E7 ; 0.0
159 ; 11258.813028787936 ; 332219.9835979185 ; 2638480.761941571 ; 3.316126803445864E7 ; 0.0
160 ; 11228.105352904913 ; 333830.3374451009 ; 2649739.5749703585 ; 3.349348801805656E7 ; 0.0
161 ; 11086.508473914488 ; 335436.7031959747 ; 2660967.6803232636 ; 3.382731835550166E7 ; 0.0
162 ; 10934.052978449216 ; 337039.0164158113 ; 2672054.188797178 ; 3.416275505869763E7 ; 0.0
163 ; 10865.751727338858 ; 338637.2134723209 ; 2682988.2417756272 ; 3.4499794075113446E7 ; 0.0
164 ; 10805.244300279264 ; 340231.2315183015 ; 2693853.993502966 ; 3.483843128858577E7 ; 0.0
165 ; 10719.44139564738 ; 341821.0084748217 ; 2704659.2378032454 ; 3.5178662520104066E7 ; 0.0
166 ; 10669.622529346158 ; 343406.4830149175 ; 2715378.679198893 ; 3.5520483528578885E7 ; 0.0
167 ; 10416.06707714613 ; 344987.59454778634 ; 2726048.301728239 ; 3.5863890011593804E7 ; 0.0
168 ; 10403.006680815148 ; 346564.2832034644 ; 2736464.3688053847 ; 3.620887760614159E7 ; 0.0
169 ; 10065.28768813233 ; 348136.4898179689 ; 2746867.3754861997 ; 3.655544188934506E7 ; 0.0
170 ; 10007.664706989699 ; 349704.1559188919 ; 2756932.663174332 ; 3.690357837916303E7 ; 0.0
171 ; 10013.528856520184 ; 351267.22371143126 ; 2766940.327881322 ; 3.7253282535081916E7 ; 0.0
172 ; 9748.5998520695 ; 352825.6360648433 ; 2776953.856737842 ; 3.760454975879335E7 ; 0.0
173 ; 9857.62408998537 ; 354379.3364993042 ; 2786702.456589911 ; 3.795737539485819E7 ; 0.0
174 ; 9741.192325349943 ; 355928.26917316817 ; 2796560.0806798963 ; 3.831175473135749E7 ; 0.0
175 ; 9824.011946165307 ; 357472.37887060776 ; 2806301.273005246 ; 3.866768300053066E7 ; 0.0
176 ; 9723.271801539724 ; 359011.61098962475 ; 2816125.2849514117 ; 3.902515537940127E7 ; 0.0
177 ; 9814.935836050674 ; 360545.9115304213 ; 2825848.5567529514 ; 3.938416699039089E7 ; 0.0
178 ; 9905.659713968489 ; 362075.2270841167 ; 2835663.492589002 ; 3.974471290192131E7 ; 0.0
179 ; 9951.23301188793 ; 363599.5048218024 ; 2845569.1523029706 ; 4.0106788129005425E7 ; 0.0
180 ; 9898.58070081886 ; 365118.69248392124 ; 2855520.3853148585 ; 4.0470387633827224E7 ; 0.0
181 ; 10044.527302652079 ; 366632.7383699631 ; 2865418.9660156774 ; 4.083550632631115E7 ; 0.0
182 ; 9958.085944829265 ; 368141.59132846544 ; 2875463.4933183296 ; 4.120213906468111E7 ; 0.0
183 ; 9958.352778707294 ; 369645.20074730995 ; 2885421.5792631586 ; 4.157028065600958E7 ; 0.0
184 ; 9945.758599284029 ; 371143.5165443054 ; 2895379.932041866 ; 4.193992585675689E7 ; 0.0
185 ; 9920.794864297097 ; 372636.48915804806 ; 2905325.69064115 ; 4.231106937330119E7 ; 0.0
186 ; 9937.103484157857 ; 374124.06953905104 ; 2915246.485505447 ; 4.268370586245924E7 ; 0.0
187 ; 10112.496190308566 ; 375606.2091411336 ; 2925183.5889896047 ; 4.305782993199829E7 ; 0.0
188 ; 10148.167048524096 ; 377082.85991306306 ; 2935296.0851799133 ; 4.3433436141139425E7 ; 0.0
189 ; 10147.961473534622 ; 378553.9742904412 ; 2945444.2522284375 ; 4.381051900105249E7 ; 0.0
190 ; 10037.83303722861 ; 380019.50518782664 ; 2955592.2137019723 ; 4.418907297534293E7 ; 0.0
191 ; 9981.854657953367 ; 381479.40599108784 ; 2965630.046739201 ; 4.4569092480530754E7 ; 0.0
192 ; 9873.380149457013 ; 382933.63054997724 ; 2975611.901397154 ; 4.495057188652184E7 ; 0.0
193 ; 10092.004782917244 ; 384382.1331709218 ; 2985485.2815466113 ; 4.533350551707181E7 ; 0.0
194 ; 10171.718644898041 ; 385824.86861002166 ; 2995577.286329529 ; 4.571788765024274E7 ; 0.0
195 ; 10107.620158824993 ; 387261.79206625215 ; 3005749.0049744267 ; 4.610371251885276E7 ; 0.0
196 ; 10237.828300911768 ; 388692.8591748607 ; 3015856.625133252 ; 4.649097431091902E7 ; 0.0
197 ; 10343.957326801208 ; 390118.02600095543 ; 3026094.4534341637 ; 4.687966717009388E7 ; 0.0
198 ; 10081.153908724267 ; 391537.249033277 ; 3036438.4107609647 ; 4.726978519609483E7 ; 0.0
199 ; 10193.267303588835 ; 392950.48517814995 ; 3046519.564669689 ; 4.766132244512811E7 ; 0.0
200 ; 10239.154303508136 ; 394357.6917536071 ; 3056712.831973278 ; 4.805427293030626E7 ; 0.0
201 ; 10343.569475593893 ; 395758.8264836823 ; 3066951.9862767863 ; 4.844863062205987E7 ; 0.0
202 ; 10170.262341584024 ; 397153.84749286587 ; 3077295.5557523803 ; 4.884438944854355E7 ; 0.0
203 ; 10163.557702796035 ; 398542.7133007187 ; 3087465.8180939644 ; 4.9241543296036415E7 ; 0.0
204 ; 10262.58683469844 ; 399925.3828166394 ; 3097629.3757967604 ; 4.9640086009337135E7 ; 0.0
205 ; 10292.954105470086 ; 400000.0 ; 3107891.962631459 ; 5.004001139215378E7 ; 0.0
206 ; 10380.139174301155 ; 400000.0 ; 3118184.9167369287 ; 5.044001139215378E7 ; 0.0
207 ; 10401.78407944901 ; 400000.0 ; 3128565.05591123 ; 5.084001139215378E7 ; 0.0
208 ; 10414.307236122522 ; 400000.0 ; 3138966.8399906787 ; 5.124001139215378E7 ; 0.0
209 ; 10280.797222570265 ; 400000.0 ; 3149381.147226801 ; 5.164001139215378E7 ; 0.0
210 ; 10417.889257091298 ; 400000.0 ; 3159661.944449371 ; 5.204001139215378E7 ; 0.0
211 ; 10531.312307925271 ; 400000.0 ; 3170079.8337064623 ; 5.244001139215378E7 ; 0.0
212 ; 10207.1908171941 ; 400000.0 ; 3180611.1460143877 ; 5.284001139215378E7 ; 0.0
