CSV File for the City 2 on Day 238
1 - Minute m 
2 - Power Consumed at minute m 
3 - Power Produced at minute m 
4 - Energy Consumed since the beginning of the day 
5 - Energy Produced since the beginning of the day 
6 - Energy Lost since the beginning of the day on lines starting from the city
 
0 ; 5135.934574373544 ; 33294.02132349472 ; 0.0 ; 0.0 ; 0.0
1 ; 5347.8191826960465 ; 33294.02132349472 ; 5135.934574373544 ; 33294.02132349472 ; 0.0
2 ; 6183.087474627632 ; 33294.02132349472 ; 10483.75375706959 ; 66588.04264698944 ; 0.0
3 ; 6298.252872405468 ; 33294.02132349472 ; 16666.84123169722 ; 99882.06397048416 ; 0.0
4 ; 6990.193154057964 ; 33294.02132349472 ; 22965.09410410269 ; 133176.0852939789 ; 0.0
5 ; 7451.544455279226 ; 33294.02132349472 ; 29955.287258160653 ; 166470.10661747362 ; 0.0
6 ; 7929.611098878237 ; 33294.02132349472 ; 37406.83171343988 ; 199764.12794096835 ; 0.0
7 ; 8493.671552846707 ; 33294.02132349472 ; 45336.44281231812 ; 233058.14926446308 ; 0.0
8 ; 8979.820384482678 ; 33294.02132349472 ; 53830.11436516483 ; 266352.1705879578 ; 0.0
9 ; 9432.892448590897 ; 33294.02132349472 ; 62809.93474964751 ; 299646.1919114525 ; 0.0
10 ; 10001.062464388238 ; 33294.02132349472 ; 72242.8271982384 ; 332940.21323494724 ; 0.0
11 ; 10438.875359471549 ; 33294.02132349472 ; 82243.88966262664 ; 366234.23455844197 ; 0.0
12 ; 10824.138323404017 ; 33294.02132349472 ; 92682.76502209819 ; 399528.2558819367 ; 0.0
13 ; 11401.709017382682 ; 33294.02132349472 ; 103506.9033455022 ; 432822.2772054314 ; 0.0
14 ; 11760.472641265058 ; 33294.02132349472 ; 114908.61236288489 ; 466116.29852892616 ; 0.0
15 ; 12468.67169975071 ; 33294.02132349472 ; 126669.08500414995 ; 499410.3198524209 ; 0.0
16 ; 12678.764671703928 ; 33294.02132349472 ; 139137.75670390067 ; 532704.3411759156 ; 0.0
17 ; 12951.171043526765 ; 33294.02132349472 ; 151816.52137560459 ; 565998.3624994103 ; 0.0
18 ; 13614.538522096065 ; 33294.02132349472 ; 164767.69241913134 ; 599292.383822905 ; 0.0
19 ; 13897.11197763218 ; 33294.02132349472 ; 178382.2309412274 ; 632586.4051463997 ; 0.0
20 ; 14273.362247887178 ; 33294.02132349472 ; 192279.3429188596 ; 665880.4264698945 ; 0.0
21 ; 14759.083387970755 ; 33294.02132349472 ; 206552.70516674677 ; 699174.4477933892 ; 0.0
22 ; 15157.887532301665 ; 33294.02132349472 ; 221311.78855471752 ; 732468.4691168839 ; 0.0
23 ; 15407.119755047552 ; 33294.02132349472 ; 236469.67608701918 ; 765762.4904403787 ; 0.0
24 ; 15868.252771204634 ; 33294.02132349472 ; 251876.79584206673 ; 799056.5117638734 ; 0.0
25 ; 16327.237520393242 ; 33294.02132349472 ; 267745.0486132714 ; 832350.5330873681 ; 0.0
26 ; 16680.23206095685 ; 33294.02132349472 ; 284072.2861336646 ; 865644.5544108629 ; 0.0
27 ; 17055.687459964087 ; 33294.02132349472 ; 300752.5181946214 ; 898938.5757343576 ; 0.0
28 ; 17462.689506303424 ; 33294.02132349472 ; 317808.2056545855 ; 932232.5970578523 ; 0.0
29 ; 17566.193358933047 ; 33294.02132349472 ; 335270.8951608889 ; 965526.618381347 ; 0.0
30 ; 18017.940165697117 ; 33294.02132349472 ; 352837.08851982193 ; 998820.6397048418 ; 0.0
31 ; 18423.495733081443 ; 33294.02132349472 ; 370855.02868551906 ; 1032114.6610283365 ; 0.0
32 ; 18729.08253365944 ; 33294.02132349472 ; 389278.5244186005 ; 1065408.682351831 ; 0.0
33 ; 18960.088652438575 ; 33294.02132349472 ; 408007.6069522599 ; 1098702.7036753257 ; 0.0
34 ; 19417.1287665543 ; 33294.02132349472 ; 426967.6956046985 ; 1131996.7249988203 ; 0.0
35 ; 19530.27340439329 ; 33294.02132349472 ; 446384.8243712528 ; 1165290.746322315 ; 0.0
36 ; 19848.226782079037 ; 33294.02132349472 ; 465915.0977756461 ; 1198584.7676458096 ; 0.0
37 ; 20181.596974384753 ; 33294.02132349472 ; 485763.3245577251 ; 1231878.7889693042 ; 0.0
38 ; 20577.313465980922 ; 33294.02132349472 ; 505944.92153210985 ; 1265172.8102927988 ; 0.0
39 ; 20690.17259346843 ; 33294.02132349472 ; 526522.2349980908 ; 1298466.8316162934 ; 0.0
40 ; 20883.951821931223 ; 33294.02132349472 ; 547212.4075915592 ; 1331760.852939788 ; 0.0
41 ; 21238.075230970277 ; 33294.02132349472 ; 568096.3594134904 ; 1365054.8742632826 ; 0.0
42 ; 21697.44617622059 ; 33294.02132349472 ; 589334.4346444607 ; 1398348.8955867772 ; 0.0
43 ; 21791.438005959535 ; 33294.02132349472 ; 611031.8808206812 ; 1431642.9169102719 ; 0.0
44 ; 21929.622522016594 ; 33294.02132349472 ; 632823.3188266407 ; 1464936.9382337665 ; 0.0
45 ; 22430.15286012314 ; 33294.02132349472 ; 654752.9413486574 ; 1498230.959557261 ; 0.0
46 ; 22524.752659884864 ; 33294.02132349472 ; 677183.0942087804 ; 1531524.9808807557 ; 0.0
47 ; 22792.29889990224 ; 33294.02132349472 ; 699707.8468686653 ; 1564819.0022042503 ; 0.0
48 ; 22786.18813912171 ; 33294.02132349472 ; 722500.1457685676 ; 1598113.023527745 ; 0.0
49 ; 23262.801265443133 ; 33294.02132349472 ; 745286.3339076893 ; 1631407.0448512395 ; 0.0
50 ; 23414.11127587874 ; 33294.02132349472 ; 768549.1351731324 ; 1664701.0661747342 ; 0.0
51 ; 23804.197275572737 ; 33294.02132349472 ; 791963.2464490111 ; 1697995.0874982288 ; 0.0
52 ; 24019.862321953686 ; 33294.02132349472 ; 815767.4437245838 ; 1731289.1088217234 ; 0.0
53 ; 23953.921064787435 ; 33294.02132349472 ; 839787.3060465375 ; 1764583.130145218 ; 0.0
54 ; 24163.734565264167 ; 33294.02132349472 ; 863741.2271113249 ; 1797877.1514687126 ; 0.0
55 ; 24450.760803594167 ; 33294.02132349472 ; 887904.9616765891 ; 1831171.1727922072 ; 0.0
56 ; 24740.362129785844 ; 33294.02132349472 ; 912355.7224801832 ; 1864465.1941157018 ; 0.0
57 ; 24791.48067312523 ; 33294.02132349472 ; 937096.084609969 ; 1897759.2154391964 ; 0.0
58 ; 25087.703441438407 ; 33294.02132349472 ; 961887.5652830943 ; 1931053.236762691 ; 0.0
59 ; 25144.77624559257 ; 33294.02132349472 ; 986975.2687245327 ; 1964347.2580861857 ; 0.0
60 ; 25178.155646321364 ; 33294.02132349472 ; 1012120.0449701252 ; 1997641.2794096803 ; 0.0
61 ; 25283.233136933883 ; 33294.02132349472 ; 1037298.2006164466 ; 2030935.300733175 ; 0.0
62 ; 25642.40578011975 ; 33294.02132349472 ; 1062581.4337533806 ; 2064229.3220566695 ; 0.0
63 ; 25796.255916932834 ; 33294.02132349472 ; 1088223.8395335004 ; 2097523.3433801644 ; 0.0
64 ; 25620.47895275411 ; 33294.02132349472 ; 1114020.0954504332 ; 2130817.364703659 ; 0.0
65 ; 25951.923563690827 ; 33294.02132349472 ; 1139640.5744031873 ; 2164111.3860271536 ; 0.0
66 ; 26091.52314028618 ; 33294.02132349472 ; 1165592.497966878 ; 2197405.407350648 ; 0.0
67 ; 26224.05334188141 ; 33294.02132349472 ; 1191684.0211071642 ; 2230699.428674143 ; 0.0
68 ; 26148.15035239936 ; 33294.02132349472 ; 1217908.0744490456 ; 2263993.4499976374 ; 0.0
69 ; 26294.529715871056 ; 33294.02132349472 ; 1244056.224801445 ; 2297287.471321132 ; 0.0
70 ; 26387.32532358529 ; 33294.02132349472 ; 1270350.754517316 ; 2330581.4926446266 ; 0.0
71 ; 26433.570027768164 ; 33294.02132349472 ; 1296738.079840901 ; 2363875.5139681213 ; 0.0
72 ; 26459.075323452023 ; 33294.02132349472 ; 1323171.6498686692 ; 2397169.535291616 ; 0.0
73 ; 26646.258264824202 ; 33294.02132349472 ; 1349630.7251921212 ; 2430463.5566151105 ; 0.0
74 ; 26905.559003169215 ; 33294.02132349472 ; 1376276.9834569455 ; 2463757.577938605 ; 0.0
75 ; 26725.807292638598 ; 33294.02132349472 ; 1403182.5424601147 ; 2497051.5992620997 ; 0.0
76 ; 26711.84988763298 ; 33294.02132349472 ; 1429908.3497527533 ; 2530345.6205855943 ; 0.0
77 ; 26648.753262015573 ; 33294.02132349472 ; 1456620.1996403863 ; 2563639.641909089 ; 0.0
78 ; 26733.638775810447 ; 33294.02132349472 ; 1483268.9529024018 ; 2596933.6632325836 ; 0.0
79 ; 26887.651959082134 ; 33294.02132349472 ; 1510002.5916782122 ; 2630227.684556078 ; 0.0
80 ; 26828.62009798955 ; 33294.02132349472 ; 1536890.2436372943 ; 2663521.705879573 ; 0.0
81 ; 27008.56312543844 ; 33294.02132349472 ; 1563718.8637352837 ; 2696815.7272030674 ; 0.0
82 ; 27003.97578004051 ; 33294.02132349472 ; 1590727.4268607222 ; 2730109.748526562 ; 0.0
83 ; 26837.82658537243 ; 33294.02132349472 ; 1617731.4026407627 ; 2763403.7698500566 ; 0.0
84 ; 26900.1816100404 ; 33294.02132349472 ; 1644569.2292261352 ; 2796697.791173551 ; 0.0
85 ; 26832.723996946002 ; 33294.02132349472 ; 1671469.4108361755 ; 2829991.812497046 ; 0.0
86 ; 26864.610214083026 ; 33294.02132349472 ; 1698302.1348331214 ; 2863285.8338205405 ; 0.0
87 ; 26818.816308286627 ; 33294.02132349472 ; 1725166.7450472044 ; 2896579.855144035 ; 0.0
88 ; 26851.27395100226 ; 33294.02132349472 ; 1751985.5613554912 ; 2929873.8764675297 ; 0.0
89 ; 26518.50292680093 ; 33294.02132349472 ; 1778836.8353064933 ; 2963167.8977910243 ; 0.0
90 ; 26928.92508529133 ; 33294.02132349472 ; 1805355.3382332942 ; 2996461.919114519 ; 0.0
91 ; 26658.34017389471 ; 33294.02132349472 ; 1832284.2633185855 ; 3029755.9404380135 ; 0.0
92 ; 26546.140863611286 ; 33294.02132349472 ; 1858942.6034924802 ; 3063049.961761508 ; 0.0
93 ; 26522.369959262352 ; 33294.02132349472 ; 1885488.7443560916 ; 3096343.9830850028 ; 0.0
94 ; 26407.533970927463 ; 33294.02132349472 ; 1912011.114315354 ; 3129638.0044084974 ; 0.0
95 ; 26266.961507319724 ; 33294.02132349472 ; 1938418.6482862814 ; 3162932.025731992 ; 0.0
96 ; 26484.135575678858 ; 33294.02132349472 ; 1964685.609793601 ; 3196226.0470554866 ; 0.0
97 ; 26238.458317871973 ; 33294.02132349472 ; 1991169.74536928 ; 3229520.068378981 ; 0.0
98 ; 26232.740916052968 ; 33294.02132349472 ; 2017408.203687152 ; 3262814.089702476 ; 0.0
99 ; 25958.09375322282 ; 33294.02132349472 ; 2043640.944603205 ; 3296108.1110259704 ; 0.0
100 ; 25962.515825669285 ; 33294.02132349472 ; 2069599.0383564278 ; 3329402.132349465 ; 0.0
101 ; 25854.95464514681 ; 33294.02132349472 ; 2095561.554182097 ; 3362696.1536729597 ; 0.0
102 ; 25814.851515215076 ; 33294.02132349472 ; 2121416.508827244 ; 3395990.1749964543 ; 0.0
103 ; 25502.50632128651 ; 33294.02132349472 ; 2147231.360342459 ; 3429284.196319949 ; 0.0
104 ; 25213.044365512458 ; 33294.02132349472 ; 2172733.866663745 ; 3462578.2176434435 ; 0.0
105 ; 25313.137040291364 ; 33294.02132349472 ; 2197946.911029258 ; 3495872.238966938 ; 0.0
106 ; 25106.89512849222 ; 33294.02132349472 ; 2223260.0480695493 ; 3529166.2602904327 ; 0.0
107 ; 24846.139915069885 ; 33294.02132349472 ; 2248366.9431980415 ; 3562460.2816139273 ; 0.0
108 ; 24652.778876169068 ; 33294.02132349472 ; 2273213.0831131116 ; 3595754.302937422 ; 0.0
109 ; 24648.746560545296 ; 33294.02132349472 ; 2297865.8619892807 ; 3629048.3242609166 ; 0.0
110 ; 24473.133136552755 ; 33294.02132349472 ; 2322514.608549826 ; 3662342.345584411 ; 0.0
111 ; 24366.327278758898 ; 33294.02132349472 ; 2346987.7416863786 ; 3695636.366907906 ; 0.0
112 ; 24027.296098377683 ; 33294.02132349472 ; 2371354.0689651375 ; 3728930.3882314004 ; 0.0
113 ; 23850.4268880288 ; 33294.02132349472 ; 2395381.365063515 ; 3762224.409554895 ; 0.0
114 ; 23688.075780019542 ; 33294.02132349472 ; 2419231.7919515437 ; 3795518.4308783896 ; 0.0
115 ; 23490.493843782147 ; 33294.02132349472 ; 2442919.8677315633 ; 3828812.4522018842 ; 0.0
116 ; 23401.253600778782 ; 33294.02132349472 ; 2466410.3615753455 ; 3862106.473525379 ; 0.0
117 ; 23148.733138643576 ; 33294.02132349472 ; 2489811.6151761245 ; 3895400.4948488735 ; 0.0
118 ; 22860.516828199456 ; 33294.02132349472 ; 2512960.348314768 ; 3928694.516172368 ; 0.0
119 ; 22665.718196534457 ; 33294.02132349472 ; 2535820.8651429676 ; 3961988.5374958627 ; 0.0
120 ; 22342.984426324536 ; 33294.02132349472 ; 2558486.583339502 ; 3995282.5588193573 ; 0.0
121 ; 22169.688883931703 ; 33294.02132349472 ; 2580829.567765827 ; 4028576.580142852 ; 0.0
122 ; 21939.033595781537 ; 33294.02132349472 ; 2602999.2566497587 ; 4061870.6014663465 ; 0.0
123 ; 21671.676233045404 ; 33294.02132349472 ; 2624938.29024554 ; 4095164.622789841 ; 0.0
124 ; 21284.89022044809 ; 33294.02132349472 ; 2646609.9664785853 ; 4128458.6441133358 ; 0.0
125 ; 21140.74470346609 ; 33294.02132349472 ; 2667894.856699033 ; 4161752.6654368304 ; 0.0
126 ; 20862.335531800018 ; 33294.02132349472 ; 2689035.6014024992 ; 4195046.686760325 ; 0.0
127 ; 20393.653128134094 ; 33294.02132349472 ; 2709897.9369342993 ; 4228340.70808382 ; 0.0
128 ; 20176.69177364168 ; 33294.02132349472 ; 2730291.5900624334 ; 4261634.729407314 ; 0.0
129 ; 19959.63718329856 ; 33294.02132349472 ; 2750468.2818360752 ; 4294928.750730809 ; 0.0
130 ; 19658.943397711206 ; 33294.02132349472 ; 2770427.9190193736 ; 4328222.772054303 ; 0.0
131 ; 19262.387249834283 ; 33294.02132349472 ; 2790086.8624170846 ; 4361516.793377798 ; 0.0
132 ; 18969.292959295228 ; 33294.02132349472 ; 2809349.249666919 ; 4394810.814701293 ; 0.0
133 ; 18563.113051191427 ; 33294.02132349472 ; 2828318.542626214 ; 4428104.836024787 ; 0.0
134 ; 18271.34184086144 ; 33294.02132349472 ; 2846881.6556774057 ; 4461398.857348282 ; 0.0
135 ; 17895.51163890549 ; 33294.02132349472 ; 2865152.997518267 ; 4494692.8786717765 ; 0.0
136 ; 17714.995835481885 ; 33294.02132349472 ; 2883048.5091571724 ; 4527986.899995271 ; 0.0
137 ; 17351.83938153015 ; 33294.02132349472 ; 2900763.504992654 ; 4561280.921318766 ; 0.0
138 ; 16883.5019307533 ; 33294.02132349472 ; 2918115.344374184 ; 4594574.94264226 ; 0.0
139 ; 16470.204638703734 ; 33294.02132349472 ; 2934998.8463049373 ; 4627868.963965755 ; 0.0
140 ; 16302.037731030738 ; 33294.02132349472 ; 2951469.050943641 ; 4661162.98528925 ; 0.0
141 ; 15838.383066866736 ; 33294.02132349472 ; 2967771.088674672 ; 4694457.006612744 ; 0.0
142 ; 15487.81382209394 ; 33294.02132349472 ; 2983609.4717415385 ; 4727751.027936239 ; 0.0
143 ; 15138.928724668167 ; 33294.02132349472 ; 2999097.2855636324 ; 4761045.049259733 ; 0.0
144 ; 14666.557558265178 ; 33294.02132349472 ; 3014236.2142883004 ; 4794339.070583228 ; 0.0
145 ; 14474.801781700131 ; 33294.02132349472 ; 3028902.7718465654 ; 4827633.091906723 ; 0.0
146 ; 14546.765142985887 ; 33294.02132349472 ; 3043377.5736282654 ; 4860927.113230217 ; 0.0
147 ; 14226.241838330643 ; 33294.02132349472 ; 3057924.3387712515 ; 4894221.134553712 ; 0.0
148 ; 14281.557513853759 ; 33294.02132349472 ; 3072150.5806095824 ; 4927515.1558772065 ; 0.0
149 ; 14208.749194624066 ; 33294.02132349472 ; 3086432.138123436 ; 4960809.177200701 ; 0.0
150 ; 13790.215877496265 ; 33294.02132349472 ; 3100640.88731806 ; 4994103.198524196 ; 0.0
151 ; 13708.52781392761 ; 33294.02132349472 ; 3114431.103195556 ; 5027397.21984769 ; 0.0
152 ; 13790.906384561426 ; 33294.02132349472 ; 3128139.6310094837 ; 5060691.241171185 ; 0.0
153 ; 13533.670994116477 ; 33294.02132349472 ; 3141930.537394045 ; 5093985.26249468 ; 0.0
154 ; 13507.349668251256 ; 33294.02132349472 ; 3155464.2083881614 ; 5127279.283818174 ; 0.0
155 ; 13341.60830229191 ; 33294.02132349472 ; 3168971.5580564127 ; 5160573.305141669 ; 0.0
156 ; 13355.264478026626 ; 33294.02132349472 ; 3182313.1663587047 ; 5193867.326465163 ; 0.0
157 ; 13226.129727006395 ; 33294.02132349472 ; 3195668.430836731 ; 5227161.347788658 ; 0.0
158 ; 12936.751246863945 ; 33294.02132349472 ; 3208894.5605637375 ; 5260455.369112153 ; 0.0
159 ; 12862.757251407871 ; 33294.02132349472 ; 3221831.3118106015 ; 5293749.390435647 ; 0.0
160 ; 12774.839183436528 ; 33294.02132349472 ; 3234694.0690620095 ; 5327043.411759142 ; 0.0
161 ; 12588.478934304614 ; 33294.02132349472 ; 3247468.908245446 ; 5360337.433082636 ; 0.0
162 ; 12417.86462037205 ; 33294.02132349472 ; 3260057.387179751 ; 5393631.454406131 ; 0.0
163 ; 12556.536236150354 ; 33294.02132349472 ; 3272475.251800123 ; 5426925.475729626 ; 0.0
164 ; 12149.337840333994 ; 33294.02132349472 ; 3285031.7880362733 ; 5460219.49705312 ; 0.0
165 ; 11912.672880092061 ; 33294.02132349472 ; 3297181.1258766074 ; 5493513.518376615 ; 0.0
166 ; 11872.679392770215 ; 33294.02132349472 ; 3309093.7987566995 ; 5526807.5397001095 ; 0.0
167 ; 11606.021616211357 ; 33294.02132349472 ; 3320966.47814947 ; 5560101.561023604 ; 0.0
168 ; 11542.38615628931 ; 33294.02132349472 ; 3332572.499765681 ; 5593395.582347099 ; 0.0
169 ; 11453.64252527435 ; 33294.02132349472 ; 3344114.8859219705 ; 5626689.603670593 ; 0.0
170 ; 11138.573449762993 ; 33294.02132349472 ; 3355568.528447245 ; 5659983.624994088 ; 0.0
171 ; 11094.089632065043 ; 33294.02132349472 ; 3366707.101897008 ; 5693277.646317583 ; 0.0
172 ; 10781.216295309008 ; 33294.02132349472 ; 3377801.191529073 ; 5726571.667641077 ; 0.0
173 ; 10731.633858658206 ; 33294.02132349472 ; 3388582.4078243817 ; 5759865.688964572 ; 0.0
174 ; 10788.771765965703 ; 33294.02132349472 ; 3399314.04168304 ; 5793159.710288066 ; 0.0
175 ; 10668.03322643669 ; 33294.02132349472 ; 3410102.8134490056 ; 5826453.731611561 ; 0.0
176 ; 11035.340563484597 ; 33294.02132349472 ; 3420770.846675442 ; 5859747.752935056 ; 0.0
177 ; 10878.182472912766 ; 33294.02132349472 ; 3431806.1872389265 ; 5893041.77425855 ; 0.0
178 ; 10832.279326261789 ; 33294.02132349472 ; 3442684.369711839 ; 5926335.795582045 ; 0.0
179 ; 10874.424286870479 ; 33294.02132349472 ; 3453516.649038101 ; 5959629.8169055395 ; 0.0
180 ; 10964.620340554942 ; 33294.02132349472 ; 3464391.0733249714 ; 5992923.838229034 ; 0.0
181 ; 10857.454532664346 ; 33294.02132349472 ; 3475355.6936655263 ; 6026217.859552529 ; 0.0
182 ; 11085.184427684022 ; 33294.02132349472 ; 3486213.1481981906 ; 6059511.880876023 ; 0.0
183 ; 10989.318114013524 ; 33294.02132349472 ; 3497298.332625875 ; 6092805.902199518 ; 0.0
184 ; 11037.478410937738 ; 33294.02132349472 ; 3508287.650739888 ; 6126099.923523013 ; 0.0
185 ; 11109.466863424283 ; 33294.02132349472 ; 3519325.129150826 ; 6159393.944846507 ; 0.0
186 ; 11181.69739307027 ; 33294.02132349472 ; 3530434.59601425 ; 6192687.966170002 ; 0.0
187 ; 10928.533058928717 ; 33294.02132349472 ; 3541616.2934073205 ; 6225981.987493496 ; 0.0
188 ; 11157.117238574723 ; 33294.02132349472 ; 3552544.8264662493 ; 6259276.008816991 ; 0.0
189 ; 11298.740003238603 ; 33294.02132349472 ; 3563701.943704824 ; 6292570.030140486 ; 0.0
190 ; 11202.352982421282 ; 33294.02132349472 ; 3575000.6837080624 ; 6325864.05146398 ; 0.0
191 ; 11208.050064757223 ; 33294.02132349472 ; 3586203.036690484 ; 6359158.072787475 ; 0.0
192 ; 11333.190043041866 ; 33294.02132349472 ; 3597411.086755241 ; 6392452.094110969 ; 0.0
193 ; 11279.647469839929 ; 33294.02132349472 ; 3608744.2767982827 ; 6425746.115434464 ; 0.0
194 ; 11335.094781600601 ; 33294.02132349472 ; 3620023.9242681228 ; 6459040.136757959 ; 0.0
195 ; 11395.311840725459 ; 33294.02132349472 ; 3631359.019049723 ; 6492334.158081453 ; 0.0
196 ; 11484.736347730814 ; 33294.02132349472 ; 3642754.3308904488 ; 6525628.179404948 ; 0.0
197 ; 11504.77065954694 ; 33294.02132349472 ; 3654239.0672381795 ; 6558922.2007284425 ; 0.0
198 ; 11642.093566130954 ; 33294.02132349472 ; 3665743.8378977263 ; 6592216.222051937 ; 0.0
199 ; 11603.617079861308 ; 33294.02132349472 ; 3677385.931463857 ; 6625510.243375432 ; 0.0
200 ; 11832.69821676014 ; 33294.02132349472 ; 3688989.5485437186 ; 6658804.264698926 ; 0.0
201 ; 11544.017204462569 ; 33294.02132349472 ; 3700822.2467604787 ; 6692098.286022421 ; 0.0
202 ; 11563.03261760162 ; 33294.02132349472 ; 3712366.2639649413 ; 6725392.307345916 ; 0.0
203 ; 11683.163787869378 ; 33294.02132349472 ; 3723929.296582543 ; 6758686.32866941 ; 0.0
204 ; 11753.837139695352 ; 33294.02132349472 ; 3735612.460370412 ; 6791980.349992905 ; 0.0
205 ; 11812.9972340264 ; 33294.02132349472 ; 3747366.2975101075 ; 6825274.371316399 ; 0.0
206 ; 11594.907501136558 ; 33294.02132349472 ; 3759179.294744134 ; 6858568.392639894 ; 0.0
207 ; 11941.627464762321 ; 33294.02132349472 ; 3770774.2022452704 ; 6891862.413963389 ; 0.0
208 ; 11966.717142828928 ; 33294.02132349472 ; 3782715.829710033 ; 6925156.435286883 ; 0.0
209 ; 11822.4502897648 ; 33294.02132349472 ; 3794682.5468528615 ; 6958450.456610378 ; 0.0
210 ; 11939.264704610821 ; 33294.02132349472 ; 3806504.9971426264 ; 6991744.4779338725 ; 0.0
211 ; 12099.240112822723 ; 33294.02132349472 ; 3818444.261847237 ; 7025038.499257367 ; 0.0
212 ; 11889.827904431708 ; 33294.02132349472 ; 3830543.5019600596 ; 7058332.520580862 ; 0.0
213 ; 12126.143189289658 ; 33294.02132349472 ; 3842433.3298644912 ; 7091626.541904356 ; 0.0
214 ; 12023.460933839984 ; 33294.02132349472 ; 3854559.473053781 ; 7124920.563227851 ; 0.0
215 ; 11941.050711085563 ; 33294.02132349472 ; 3866582.9339876208 ; 7158214.584551346 ; 0.0
216 ; 12038.079605573957 ; 33294.02132349472 ; 3878523.9846987063 ; 7191508.60587484 ; 0.0
