CSV File for the City 1 on Day 226
1 - Minute m 
2 - Power Consumed at minute m 
3 - Power Produced at minute m 
4 - Energy Consumed since the beginning of the day 
5 - Energy Produced since the beginning of the day 
6 - Energy Lost since the beginning of the day on lines starting from the city
 
0 ; 5339.787140842863 ; 4007.138462858493 ; 0.0 ; 0.0 ; 0.0
1 ; 5869.094928648268 ; 4007.138462858493 ; 5339.787140842863 ; 4007.138462858493 ; 238.00000000000003
2 ; 6409.2295907253465 ; 4007.138462858493 ; 11208.88206949113 ; 8014.276925716986 ; 476.00000000000006
3 ; 7172.035906611974 ; 4007.138462858493 ; 17618.111660216477 ; 12021.415388575479 ; 714.0000000000001
4 ; 7833.701373353562 ; 4007.138462858493 ; 24790.14756682845 ; 16028.553851433971 ; 952.0000000000001
5 ; 8401.729593728169 ; 4007.138462858493 ; 32623.84894018201 ; 20035.692314292464 ; 1190.0000000000002
6 ; 9091.460195840657 ; 4007.138462858493 ; 41025.57853391018 ; 24042.830777150957 ; 1428.0000000000002
7 ; 9520.557257285836 ; 4007.138462858493 ; 50117.038729750835 ; 28049.96924000945 ; 1666.0000000000002
8 ; 10133.629400119398 ; 4007.138462858493 ; 59637.59598703667 ; 32057.107702867943 ; 1904.0000000000002
9 ; 10664.003185222593 ; 4007.138462858493 ; 69771.22538715607 ; 36064.246165726436 ; 2142.0000000000005
10 ; 11201.953773793346 ; 4007.138462858493 ; 80435.22857237866 ; 40071.38462858493 ; 2380.0000000000005
11 ; 11835.03291461362 ; 4007.138462858493 ; 91637.182346172 ; 44078.52309144342 ; 2618.0000000000005
12 ; 12218.997049419248 ; 4007.138462858493 ; 103472.21526078563 ; 48085.661554301914 ; 2856.0000000000005
13 ; 12878.208496853973 ; 4007.138462858493 ; 115691.21231020488 ; 52092.80001716041 ; 3094.0000000000005
14 ; 13418.745227026162 ; 4007.138462858493 ; 128569.42080705885 ; 56099.9384800189 ; 3332.0000000000005
15 ; 13947.98801671709 ; 4007.138462858493 ; 141988.166034085 ; 60107.07694287739 ; 3570.0000000000005
16 ; 14322.551189349364 ; 4007.138462858493 ; 155936.15405080208 ; 64114.215405735886 ; 3808.0000000000005
17 ; 14886.51453157981 ; 4007.138462858493 ; 170258.70524015144 ; 68121.35386859438 ; 4046.0000000000005
18 ; 15488.647527095647 ; 4007.138462858493 ; 185145.21977173124 ; 72128.49233145287 ; 4284.000000000001
19 ; 16063.972225259722 ; 4007.138462858493 ; 200633.8672988269 ; 76135.63079431136 ; 4522.000000000001
20 ; 16557.53423338702 ; 4007.138462858493 ; 216697.83952408662 ; 80142.76925716986 ; 4760.000000000001
21 ; 17131.21556850637 ; 4007.138462858493 ; 233255.37375747366 ; 84149.90772002835 ; 4998.000000000001
22 ; 17400.572541066245 ; 4007.138462858493 ; 250386.58932598002 ; 88157.04618288684 ; 5236.000000000001
23 ; 18014.40248720455 ; 4007.138462858493 ; 267787.16186704626 ; 92164.18464574534 ; 5474.000000000001
24 ; 18382.055979176446 ; 4007.138462858493 ; 285801.5643542508 ; 96171.32310860383 ; 5712.000000000001
25 ; 18728.026349081734 ; 4007.138462858493 ; 304183.6203334272 ; 100178.46157146232 ; 5950.000000000001
26 ; 19368.573869425647 ; 4007.138462858493 ; 322911.64668250893 ; 104185.60003432081 ; 6188.000000000001
27 ; 19731.822560652457 ; 4007.138462858493 ; 342280.22055193456 ; 108192.7384971793 ; 6426.000000000001
28 ; 20052.453816853907 ; 4007.138462858493 ; 362012.043112587 ; 112199.8769600378 ; 6664.000000000001
29 ; 20496.86126096944 ; 4007.138462858493 ; 382064.49692944094 ; 116207.0154228963 ; 6902.000000000001
30 ; 21091.241439404923 ; 4007.138462858493 ; 402561.35819041036 ; 120214.15388575479 ; 7140.000000000001
31 ; 21410.68456358471 ; 4007.138462858493 ; 423652.59962981526 ; 124221.29234861328 ; 7378.000000000001
32 ; 21880.862765991995 ; 4007.138462858493 ; 445063.28419339994 ; 128228.43081147177 ; 7616.000000000001
33 ; 22092.0721009162 ; 4007.138462858493 ; 466944.14695939195 ; 132235.56927433028 ; 7854.000000000001
34 ; 22566.62191672806 ; 4007.138462858493 ; 489036.2190603081 ; 136242.7077371888 ; 8092.000000000001
35 ; 22994.630608585918 ; 4007.138462858493 ; 511602.84097703616 ; 140249.8462000473 ; 8330.000000000002
36 ; 23459.95805168111 ; 4007.138462858493 ; 534597.471585622 ; 144256.9846629058 ; 8568.000000000002
37 ; 23791.25994756872 ; 4007.138462858493 ; 558057.4296373031 ; 148264.1231257643 ; 8806.000000000002
38 ; 23945.617692961412 ; 4007.138462858493 ; 581848.6895848719 ; 152271.26158862282 ; 9044.000000000002
39 ; 24271.22204469294 ; 4007.138462858493 ; 605794.3072778332 ; 156278.40005148132 ; 9282.000000000002
40 ; 24648.306160460794 ; 4007.138462858493 ; 630065.5293225262 ; 160285.53851433983 ; 9520.000000000002
41 ; 25011.03947940372 ; 4007.138462858493 ; 654713.835482987 ; 164292.67697719834 ; 9758.000000000002
42 ; 25230.786514819654 ; 4007.138462858493 ; 679724.8749623907 ; 168299.81544005685 ; 9996.000000000002
43 ; 25714.657798044886 ; 4007.138462858493 ; 704955.6614772103 ; 172306.95390291535 ; 10234.000000000002
44 ; 26012.253607765255 ; 4007.138462858493 ; 730670.3192752552 ; 176314.09236577386 ; 10472.000000000002
45 ; 26328.514424535726 ; 4007.138462858493 ; 756682.5728830205 ; 180321.23082863237 ; 10710.000000000002
46 ; 26416.85815093445 ; 4007.138462858493 ; 783011.0873075562 ; 184328.36929149088 ; 10948.000000000002
47 ; 26762.386790021545 ; 4007.138462858493 ; 809427.9454584906 ; 188335.50775434938 ; 11186.000000000002
48 ; 27042.574266330554 ; 4007.138462858493 ; 836190.3322485122 ; 192342.6462172079 ; 11424.000000000002
49 ; 27288.645361453528 ; 4007.138462858493 ; 863232.9065148428 ; 196349.7846800664 ; 11662.000000000002
50 ; 27564.534498700898 ; 4007.138462858493 ; 890521.5518762963 ; 200356.9231429249 ; 11900.000000000002
51 ; 27819.132881704754 ; 4007.138462858493 ; 918086.0863749972 ; 204364.0616057834 ; 12138.000000000002
52 ; 28051.422810382577 ; 4007.138462858493 ; 945905.2192567019 ; 208371.20006864192 ; 12376.000000000002
53 ; 28344.648460879715 ; 4007.138462858493 ; 973956.6420670844 ; 212378.33853150043 ; 12614.000000000002
54 ; 28621.690418137223 ; 4007.138462858493 ; 1002301.2905279641 ; 216385.47699435893 ; 12852.000000000002
55 ; 29036.914879856668 ; 4007.138462858493 ; 1030922.9809461014 ; 220392.61545721744 ; 13090.000000000002
56 ; 28825.216377607925 ; 4007.138462858493 ; 1059959.895825958 ; 224399.75392007595 ; 13328.000000000002
57 ; 29295.25014475272 ; 4007.138462858493 ; 1088785.1122035661 ; 228406.89238293446 ; 13566.000000000002
58 ; 29305.251511847335 ; 4007.138462858493 ; 1118080.3623483188 ; 232414.03084579296 ; 13804.000000000002
59 ; 29507.85432051632 ; 4007.138462858493 ; 1147385.6138601662 ; 236421.16930865147 ; 14042.000000000002
60 ; 29652.254894301303 ; 4007.138462858493 ; 1176893.4681806825 ; 240428.30777150998 ; 14280.000000000002
61 ; 30019.6106293959 ; 4007.138462858493 ; 1206545.7230749838 ; 244435.4462343685 ; 14518.000000000002
62 ; 30114.0987653697 ; 4007.138462858493 ; 1236565.3337043796 ; 248442.584697227 ; 14756.000000000002
63 ; 30336.79028372232 ; 4007.138462858493 ; 1266679.4324697494 ; 252449.7231600855 ; 14994.000000000002
64 ; 30220.038414264618 ; 4007.138462858493 ; 1297016.2227534717 ; 256456.861622944 ; 15232.000000000002
65 ; 30549.964939879792 ; 4007.138462858493 ; 1327236.2611677363 ; 260464.00008580252 ; 15470.000000000002
66 ; 30594.612100277038 ; 4007.138462858493 ; 1357786.226107616 ; 264471.138548661 ; 15708.000000000002
67 ; 30790.555666181783 ; 4007.138462858493 ; 1388380.838207893 ; 268478.27701151953 ; 15946.000000000002
68 ; 30856.066860212737 ; 4007.138462858493 ; 1419171.3938740748 ; 272485.41547437804 ; 16184.000000000002
69 ; 31017.558390148646 ; 4007.138462858493 ; 1450027.4607342875 ; 276492.55393723655 ; 16422.000000000004
70 ; 31066.712017627528 ; 4007.138462858493 ; 1481045.0191244362 ; 280499.69240009505 ; 16660.000000000004
71 ; 31213.431201924526 ; 4007.138462858493 ; 1512111.7311420636 ; 284506.83086295356 ; 16898.000000000004
72 ; 31329.920122044274 ; 4007.138462858493 ; 1543325.1623439882 ; 288513.96932581207 ; 17136.000000000004
73 ; 31389.901870603473 ; 4007.138462858493 ; 1574655.0824660324 ; 292521.1077886706 ; 17374.000000000004
74 ; 31462.03934019865 ; 4007.138462858493 ; 1606044.9843366358 ; 296528.2462515291 ; 17612.000000000004
75 ; 31325.33066002222 ; 4007.138462858493 ; 1637507.0236768345 ; 300535.3847143876 ; 17850.000000000004
76 ; 31487.505952764168 ; 4007.138462858493 ; 1668832.3543368569 ; 304542.5231772461 ; 18088.000000000004
77 ; 31523.50459158131 ; 4007.138462858493 ; 1700319.860289621 ; 308549.6616401046 ; 18326.000000000004
78 ; 31705.489972945605 ; 4007.138462858493 ; 1731843.3648812023 ; 312556.8001029631 ; 18564.000000000004
79 ; 31573.21689484319 ; 4007.138462858493 ; 1763548.8548541479 ; 316563.9385658216 ; 18802.000000000004
80 ; 31667.434238983416 ; 4007.138462858493 ; 1795122.071748991 ; 320571.0770286801 ; 19040.000000000004
81 ; 31646.92488428043 ; 4007.138462858493 ; 1826789.5059879743 ; 324578.21549153863 ; 19278.000000000004
82 ; 31486.12580631337 ; 4007.138462858493 ; 1858436.4308722548 ; 328585.35395439714 ; 19516.000000000004
83 ; 31738.375253994724 ; 4007.138462858493 ; 1889922.5566785682 ; 332592.49241725565 ; 19754.000000000004
84 ; 31515.493059356417 ; 4007.138462858493 ; 1921660.931932563 ; 336599.63088011416 ; 19992.000000000004
85 ; 31579.787750921827 ; 4007.138462858493 ; 1953176.4249919194 ; 340606.76934297266 ; 20230.000000000004
86 ; 31516.098256811674 ; 4007.138462858493 ; 1984756.2127428413 ; 344613.9078058312 ; 20468.000000000004
87 ; 31789.044347135354 ; 4007.138462858493 ; 2016272.310999653 ; 348621.0462686897 ; 20706.000000000004
88 ; 31642.125287778083 ; 4007.138462858493 ; 2048061.3553467884 ; 352628.1847315482 ; 20944.000000000004
89 ; 31633.619520656666 ; 4007.138462858493 ; 2079703.4806345664 ; 356635.3231944067 ; 21182.000000000004
90 ; 31558.81660704359 ; 4007.138462858493 ; 2111337.100155223 ; 360642.4616572652 ; 21420.000000000004
91 ; 31401.65501599018 ; 4007.138462858493 ; 2142895.916762267 ; 364649.6001201237 ; 21658.000000000004
92 ; 31303.143458727154 ; 4007.138462858493 ; 2174297.571778257 ; 368656.7385829822 ; 21896.000000000004
93 ; 31332.486230810195 ; 4007.138462858493 ; 2205600.715236984 ; 372663.8770458407 ; 22134.000000000004
94 ; 31349.948177258655 ; 4007.138462858493 ; 2236933.2014677944 ; 376671.01550869923 ; 22372.000000000004
95 ; 30987.04567505034 ; 4007.138462858493 ; 2268283.149645053 ; 380678.15397155774 ; 22610.000000000004
96 ; 31040.686184019094 ; 4007.138462858493 ; 2299270.1953201033 ; 384685.29243441625 ; 22848.000000000004
97 ; 30867.82228389047 ; 4007.138462858493 ; 2330310.8815041226 ; 388692.43089727475 ; 23086.000000000004
98 ; 30765.104699128762 ; 4007.138462858493 ; 2361178.703788013 ; 392699.56936013326 ; 23324.000000000004
99 ; 30444.089880195104 ; 4007.138462858493 ; 2391943.808487142 ; 396706.70782299177 ; 23562.000000000004
100 ; 30268.955280695027 ; 4007.138462858493 ; 2422387.898367337 ; 400713.8462858503 ; 23800.000000000004
101 ; 30257.809652999294 ; 4007.138462858493 ; 2452656.853648032 ; 404720.9847487088 ; 24038.000000000004
102 ; 30270.459795859213 ; 4007.138462858493 ; 2482914.6633010316 ; 408728.1232115673 ; 24276.000000000004
103 ; 30045.474229480948 ; 4007.138462858493 ; 2513185.1230968907 ; 412735.2616744258 ; 24514.000000000004
104 ; 29963.493971982298 ; 4007.138462858493 ; 2543230.597326372 ; 416742.4001372843 ; 24752.000000000004
105 ; 29670.138016752942 ; 4007.138462858493 ; 2573194.0912983543 ; 420749.5386001428 ; 24990.000000000004
106 ; 29479.487796494916 ; 4007.138462858493 ; 2602864.229315107 ; 424756.6770630013 ; 25228.000000000004
107 ; 29287.796062294095 ; 4007.138462858493 ; 2632343.717111602 ; 428763.8155258598 ; 25466.000000000004
108 ; 29145.288911258544 ; 4007.138462858493 ; 2661631.513173896 ; 432770.95398871833 ; 25704.000000000004
109 ; 28969.915695747935 ; 4007.138462858493 ; 2690776.802085154 ; 436778.09245157684 ; 25942.000000000004
110 ; 28770.368094908314 ; 4007.138462858493 ; 2719746.717780902 ; 440785.23091443535 ; 26180.000000000004
111 ; 28548.147252718172 ; 4007.138462858493 ; 2748517.0858758106 ; 444792.36937729386 ; 26418.000000000004
112 ; 28366.32723559117 ; 4007.138462858493 ; 2777065.2331285286 ; 448799.50784015236 ; 26656.000000000004
113 ; 28075.708911551144 ; 4007.138462858493 ; 2805431.5603641197 ; 452806.6463030109 ; 26894.000000000004
114 ; 27954.245232493882 ; 4007.138462858493 ; 2833507.269275671 ; 456813.7847658694 ; 27132.000000000004
115 ; 27503.83675452715 ; 4007.138462858493 ; 2861461.514508165 ; 460820.9232287279 ; 27370.000000000004
116 ; 27286.80032133951 ; 4007.138462858493 ; 2888965.351262692 ; 464828.0616915864 ; 27608.000000000004
117 ; 27039.306641129475 ; 4007.138462858493 ; 2916252.1515840315 ; 468835.2001544449 ; 27846.000000000004
118 ; 26868.640691559776 ; 4007.138462858493 ; 2943291.458225161 ; 472842.3386173034 ; 28084.000000000004
119 ; 26320.22098968482 ; 4007.138462858493 ; 2970160.0989167206 ; 476849.4770801619 ; 28322.000000000004
120 ; 26099.7525997671 ; 4007.138462858493 ; 2996480.3199064056 ; 480856.6155430204 ; 28560.000000000004
121 ; 25898.863796486552 ; 4007.138462858493 ; 3022580.0725061726 ; 484863.75400587893 ; 28798.000000000004
122 ; 25569.74321864141 ; 4007.138462858493 ; 3048478.936302659 ; 488870.89246873744 ; 29036.000000000004
123 ; 25400.74157330175 ; 4007.138462858493 ; 3074048.6795213004 ; 492878.03093159595 ; 29274.000000000004
124 ; 24999.41268425854 ; 4007.138462858493 ; 3099449.421094602 ; 496885.16939445445 ; 29512.000000000004
125 ; 24434.764225601983 ; 4007.138462858493 ; 3124448.8337788605 ; 500892.30785731296 ; 29750.000000000004
126 ; 24378.451283818307 ; 4007.138462858493 ; 3148883.5980044627 ; 504899.44632017147 ; 29988.000000000004
127 ; 23927.34605771421 ; 4007.138462858493 ; 3173262.049288281 ; 508906.58478303 ; 30226.000000000004
128 ; 23547.316633107253 ; 4007.138462858493 ; 3197189.395345995 ; 512913.7232458885 ; 30464.000000000004
129 ; 23271.237283019804 ; 4007.138462858493 ; 3220736.7119791023 ; 516920.861708747 ; 30702.000000000004
130 ; 22692.39675720462 ; 4007.138462858493 ; 3244007.949262122 ; 520928.0001716055 ; 30940.000000000004
131 ; 22423.08510523291 ; 4007.138462858493 ; 3266700.3460193267 ; 524935.138634464 ; 31178.000000000004
132 ; 22173.10314958771 ; 4007.138462858493 ; 3289123.4311245596 ; 528942.2770973225 ; 31416.000000000004
133 ; 21650.752424033402 ; 4007.138462858493 ; 3311296.5342741474 ; 532949.415560181 ; 31654.000000000004
134 ; 21431.745917339413 ; 4007.138462858493 ; 3332947.2866981807 ; 536956.5540230395 ; 31892.000000000004
135 ; 20732.43804934267 ; 4007.138462858493 ; 3354379.03261552 ; 540963.692485898 ; 32130.000000000004
136 ; 20640.677642627124 ; 4007.138462858493 ; 3375111.4706648625 ; 544970.8309487565 ; 32368.000000000004
137 ; 20046.587812866426 ; 4007.138462858493 ; 3395752.1483074897 ; 548977.969411615 ; 32606.000000000004
138 ; 19483.05312749506 ; 4007.138462858493 ; 3415798.7361203562 ; 552985.1078744736 ; 32844.00000000001
139 ; 19088.734407107437 ; 4007.138462858493 ; 3435281.7892478514 ; 556992.2463373321 ; 33082.00000000001
140 ; 18794.49605078071 ; 4007.138462858493 ; 3454370.5236549587 ; 560999.3848001906 ; 33320.00000000001
141 ; 18476.50098412604 ; 4007.138462858493 ; 3473165.0197057393 ; 565006.5232630491 ; 33558.00000000001
142 ; 17788.72293803199 ; 4007.138462858493 ; 3491641.5206898656 ; 569013.6617259076 ; 33796.00000000001
143 ; 17323.501546172465 ; 4007.138462858493 ; 3509430.2436278975 ; 573020.8001887661 ; 34034.00000000001
144 ; 16905.25347886978 ; 4007.138462858493 ; 3526753.74517407 ; 577027.9386516246 ; 34272.00000000001
145 ; 16707.031869306447 ; 4007.138462858493 ; 3543658.9986529397 ; 581035.0771144831 ; 34510.00000000001
146 ; 16733.50627713852 ; 4007.138462858493 ; 3560366.030522246 ; 585042.2155773416 ; 34748.00000000001
147 ; 16532.788773190015 ; 4007.138462858493 ; 3577099.5367993843 ; 589049.3540402001 ; 34986.00000000001
148 ; 16416.977015569464 ; 4007.138462858493 ; 3593632.3255725745 ; 593056.4925030586 ; 35224.00000000001
149 ; 16136.63651907794 ; 4007.138462858493 ; 3610049.302588144 ; 597063.6309659171 ; 35462.00000000001
150 ; 16126.756998490902 ; 4007.138462858493 ; 3626185.939107222 ; 601070.7694287756 ; 35700.00000000001
151 ; 15845.030506795116 ; 4007.138462858493 ; 3642312.696105713 ; 605077.9078916342 ; 35938.00000000001
152 ; 15744.369151431183 ; 4007.138462858493 ; 3658157.7266125083 ; 609085.0463544927 ; 36176.00000000001
153 ; 15748.06202082338 ; 4007.138462858493 ; 3673902.0957639394 ; 613092.1848173512 ; 36414.00000000001
154 ; 15417.087191917104 ; 4007.138462858493 ; 3689650.157784763 ; 617099.3232802097 ; 36652.00000000001
155 ; 15448.149592879276 ; 4007.138462858493 ; 3705067.24497668 ; 621106.4617430682 ; 36890.00000000001
156 ; 15264.740052886553 ; 4007.138462858493 ; 3720515.394569559 ; 625113.6002059267 ; 37128.00000000001
157 ; 15117.529092790648 ; 4007.138462858493 ; 3735780.134622446 ; 629120.7386687852 ; 37366.00000000001
158 ; 14816.4017321372 ; 4007.138462858493 ; 3750897.6637152364 ; 633127.8771316437 ; 37604.00000000001
159 ; 14683.795338638203 ; 4007.138462858493 ; 3765714.065447374 ; 637135.0155945022 ; 37842.00000000001
160 ; 14634.311352694913 ; 4007.138462858493 ; 3780397.860786012 ; 641142.1540573607 ; 38080.00000000001
161 ; 14396.32172973805 ; 4007.138462858493 ; 3795032.172138707 ; 645149.2925202192 ; 38318.00000000001
162 ; 14159.95962874967 ; 4007.138462858493 ; 3809428.493868445 ; 649156.4309830777 ; 38556.00000000001
163 ; 14046.06698833635 ; 4007.138462858493 ; 3823588.4534971947 ; 653163.5694459362 ; 38794.00000000001
164 ; 13805.25476947506 ; 4007.138462858493 ; 3837634.520485531 ; 657170.7079087947 ; 39032.00000000001
165 ; 13681.258183837928 ; 4007.138462858493 ; 3851439.7752550063 ; 661177.8463716533 ; 39270.00000000001
166 ; 13464.831407028878 ; 4007.138462858493 ; 3865121.033438844 ; 665184.9848345118 ; 39508.00000000001
167 ; 13290.82408057456 ; 4007.138462858493 ; 3878585.864845873 ; 669192.1232973703 ; 39746.00000000001
168 ; 13111.723825083864 ; 4007.138462858493 ; 3891876.6889264476 ; 673199.2617602288 ; 39984.00000000001
169 ; 12709.376910254996 ; 4007.138462858493 ; 3904988.4127515317 ; 677206.4002230873 ; 40222.00000000001
170 ; 12612.282633033208 ; 4007.138462858493 ; 3917697.7896617865 ; 681213.5386859458 ; 40460.00000000001
171 ; 12436.901151972754 ; 4007.138462858493 ; 3930310.0722948196 ; 685220.6771488043 ; 40698.00000000001
172 ; 12205.739562623536 ; 4007.138462858493 ; 3942746.9734467925 ; 689227.8156116628 ; 40936.00000000001
173 ; 12153.169856025888 ; 4007.138462858493 ; 3954952.713009416 ; 693234.9540745213 ; 41174.00000000001
174 ; 12189.78260997467 ; 4007.138462858493 ; 3967105.882865442 ; 697242.0925373798 ; 41412.00000000001
175 ; 12259.121289532752 ; 4007.138462858493 ; 3979295.6654754165 ; 701249.2310002383 ; 41650.00000000001
176 ; 12133.524559918553 ; 4007.138462858493 ; 3991554.786764949 ; 705256.3694630968 ; 41888.00000000001
177 ; 12061.006285815212 ; 4007.138462858493 ; 4003688.3113248674 ; 709263.5079259553 ; 42126.00000000001
178 ; 12270.511581891597 ; 4007.138462858493 ; 4015749.3176106825 ; 713270.6463888139 ; 42364.00000000001
179 ; 12343.436021555794 ; 4007.138462858493 ; 4028019.829192574 ; 717277.7848516724 ; 42602.00000000001
180 ; 12497.458927376461 ; 4007.138462858493 ; 4040363.26521413 ; 721284.9233145309 ; 42840.00000000001
181 ; 12452.759486536179 ; 4007.138462858493 ; 4052860.7241415065 ; 725292.0617773894 ; 43078.00000000001
182 ; 12476.84125799835 ; 4007.138462858493 ; 4065313.4836280425 ; 729299.2002402479 ; 43316.00000000001
183 ; 12419.001960022872 ; 4007.138462858493 ; 4077790.3248860408 ; 733306.3387031064 ; 43554.00000000001
184 ; 12597.15019733647 ; 4007.138462858493 ; 4090209.3268460636 ; 737313.4771659649 ; 43792.00000000001
185 ; 12648.104210985359 ; 4007.138462858493 ; 4102806.4770434 ; 741320.6156288234 ; 44030.00000000001
186 ; 12749.523375537248 ; 4007.138462858493 ; 4115454.5812543854 ; 745327.7540916819 ; 44268.00000000001
