CSV File for the City 1 on Day 156
1 - Minute m 
2 - Power Consumed at minute m 
3 - Power Produced at minute m 
4 - Energy Consumed since the beginning of the day 
5 - Energy Produced since the beginning of the day 
6 - Energy Lost since the beginning of the day on lines starting from the city
 
0 ; 8219.927798915072 ; 2995.387769901412 ; 0.0 ; 0.0 ; 0.0
1 ; 8438.868186541773 ; 2995.387769901412 ; 8219.927798915072 ; 2995.387769901412 ; 238.00000000000003
2 ; 9061.349186577974 ; 2995.387769901412 ; 16658.795985456847 ; 5990.775539802824 ; 476.00000000000006
3 ; 9455.092769477815 ; 2995.387769901412 ; 25720.14517203482 ; 8986.163309704236 ; 714.0000000000001
4 ; 10083.40418467765 ; 2995.387769901412 ; 35175.237941512634 ; 11981.551079605648 ; 952.0000000000001
5 ; 10572.067351855647 ; 2995.387769901412 ; 45258.64212619029 ; 14976.93884950706 ; 1190.0000000000002
6 ; 10926.736770627003 ; 2995.387769901412 ; 55830.70947804593 ; 17972.32661940847 ; 1428.0000000000002
7 ; 11303.5043952927 ; 2995.387769901412 ; 66757.44624867293 ; 20967.714389309884 ; 1666.0000000000002
8 ; 11673.03552727098 ; 2995.387769901412 ; 78060.95064396563 ; 23963.102159211296 ; 1904.0000000000002
9 ; 12256.269018405454 ; 2995.387769901412 ; 89733.98617123661 ; 26958.489929112708 ; 2142.0000000000005
10 ; 12704.98639308377 ; 2995.387769901412 ; 101990.25518964206 ; 29953.87769901412 ; 2380.0000000000005
11 ; 13245.815502345258 ; 2995.387769901412 ; 114695.24158272584 ; 32949.26546891553 ; 2618.0000000000005
12 ; 13529.870154913651 ; 2995.387769901412 ; 127941.0570850711 ; 35944.65323881694 ; 2856.0000000000005
13 ; 13959.73759393285 ; 2995.387769901412 ; 141470.92723998474 ; 38940.041008718355 ; 3094.0000000000005
14 ; 14206.420540955804 ; 2995.387769901412 ; 155430.6648339176 ; 41935.42877861977 ; 3332.0000000000005
15 ; 14720.954627597965 ; 2995.387769901412 ; 169637.0853748734 ; 44930.81654852118 ; 3570.0000000000005
16 ; 15321.33145862255 ; 2995.387769901412 ; 184358.04000247136 ; 47926.20431842259 ; 3808.0000000000005
17 ; 15632.562354438598 ; 2995.387769901412 ; 199679.37146109392 ; 50921.592088324 ; 4046.0000000000005
18 ; 15978.559678774118 ; 2995.387769901412 ; 215311.9338155325 ; 53916.979858225415 ; 4284.000000000001
19 ; 16394.50334995696 ; 2995.387769901412 ; 231290.49349430663 ; 56912.36762812683 ; 4522.000000000001
20 ; 16740.473067121966 ; 2995.387769901412 ; 247684.9968442636 ; 59907.75539802824 ; 4760.000000000001
21 ; 17089.547105391244 ; 2995.387769901412 ; 264425.46991138556 ; 62903.14316792965 ; 4998.000000000001
22 ; 17649.471437159664 ; 2995.387769901412 ; 281515.0170167768 ; 65898.53093783106 ; 5236.000000000001
23 ; 17901.177310033978 ; 2995.387769901412 ; 299164.4884539364 ; 68893.91870773248 ; 5474.000000000001
24 ; 18178.618435229615 ; 2995.387769901412 ; 317065.6657639704 ; 71889.30647763389 ; 5712.000000000001
25 ; 18503.01706848981 ; 2995.387769901412 ; 335244.28419920005 ; 74884.6942475353 ; 5950.000000000001
26 ; 19001.953546442674 ; 2995.387769901412 ; 353747.30126768985 ; 77880.08201743671 ; 6188.000000000001
27 ; 19110.73763229658 ; 2995.387769901412 ; 372749.2548141325 ; 80875.46978733812 ; 6426.000000000001
28 ; 19611.929499897557 ; 2995.387769901412 ; 391859.9924464291 ; 83870.85755723953 ; 6664.000000000001
29 ; 19935.30327873564 ; 2995.387769901412 ; 411471.9219463267 ; 86866.24532714095 ; 6902.000000000001
30 ; 20032.84744364871 ; 2995.387769901412 ; 431407.22522506234 ; 89861.63309704236 ; 7140.000000000001
31 ; 20601.915692976236 ; 2995.387769901412 ; 451440.0726687111 ; 92857.02086694377 ; 7378.000000000001
32 ; 20792.072943032592 ; 2995.387769901412 ; 472041.9883616873 ; 95852.40863684518 ; 7616.000000000001
33 ; 21281.602619575002 ; 2995.387769901412 ; 492834.0613047199 ; 98847.7964067466 ; 7854.000000000001
34 ; 21313.121541120032 ; 2995.387769901412 ; 514115.6639242949 ; 101843.184176648 ; 8092.000000000001
35 ; 21735.7157075813 ; 2995.387769901412 ; 535428.7854654149 ; 104838.57194654942 ; 8330.000000000002
36 ; 22024.14198903118 ; 2995.387769901412 ; 557164.5011729961 ; 107833.95971645083 ; 8568.000000000002
37 ; 22260.042654072447 ; 2995.387769901412 ; 579188.6431620274 ; 110829.34748635224 ; 8806.000000000002
38 ; 22359.530170555543 ; 2995.387769901412 ; 601448.6858160998 ; 113824.73525625365 ; 9044.000000000002
39 ; 22689.978292506356 ; 2995.387769901412 ; 623808.2159866553 ; 116820.12302615507 ; 9282.000000000002
40 ; 22914.219253693205 ; 2995.387769901412 ; 646498.1942791616 ; 119815.51079605648 ; 9520.000000000002
41 ; 23258.46172367886 ; 2995.387769901412 ; 669412.4135328549 ; 122810.89856595789 ; 9758.000000000002
42 ; 23523.376397677865 ; 2995.387769901412 ; 692670.8752565337 ; 125806.2863358593 ; 9996.000000000002
43 ; 23669.656360508816 ; 2995.387769901412 ; 716194.2516542115 ; 128801.67410576071 ; 10234.000000000002
44 ; 24049.84438087286 ; 2995.387769901412 ; 739863.9080147203 ; 131797.06187566213 ; 10472.000000000002
45 ; 24027.4411693655 ; 2995.387769901412 ; 763913.7523955932 ; 134792.44964556355 ; 10710.000000000002
46 ; 24140.545416992474 ; 2995.387769901412 ; 787941.1935649588 ; 137787.83741546498 ; 10948.000000000002
47 ; 24666.295915611066 ; 2995.387769901412 ; 812081.7389819513 ; 140783.2251853664 ; 11186.000000000002
48 ; 24728.523554138894 ; 2995.387769901412 ; 836748.0348975623 ; 143778.61295526783 ; 11424.000000000002
49 ; 24940.50634657486 ; 2995.387769901412 ; 861476.5584517012 ; 146774.00072516926 ; 11662.000000000002
50 ; 25346.63845049122 ; 2995.387769901412 ; 886417.064798276 ; 149769.38849507069 ; 11900.000000000002
51 ; 25289.26159413063 ; 2995.387769901412 ; 911763.7032487673 ; 152764.7762649721 ; 12138.000000000002
52 ; 25307.27803057697 ; 2995.387769901412 ; 937052.964842898 ; 155760.16403487354 ; 12376.000000000002
53 ; 25734.709996533846 ; 2995.387769901412 ; 962360.242873475 ; 158755.55180477496 ; 12614.000000000002
54 ; 25870.047194092327 ; 2995.387769901412 ; 988094.9528700088 ; 161750.9395746764 ; 12852.000000000002
55 ; 25920.191012834315 ; 2995.387769901412 ; 1013965.0000641011 ; 164746.32734457782 ; 13090.000000000002
56 ; 26144.807237386984 ; 2995.387769901412 ; 1039885.1910769354 ; 167741.71511447924 ; 13328.000000000002
57 ; 26345.236315708295 ; 2995.387769901412 ; 1066029.9983143224 ; 170737.10288438067 ; 13566.000000000002
58 ; 26585.98551261883 ; 2995.387769901412 ; 1092375.2346300308 ; 173732.4906542821 ; 13804.000000000002
59 ; 26590.94676491802 ; 2995.387769901412 ; 1118961.2201426497 ; 176727.87842418352 ; 14042.000000000002
60 ; 26822.947211481864 ; 2995.387769901412 ; 1145552.1669075678 ; 179723.26619408495 ; 14280.000000000002
61 ; 27171.111559083 ; 2995.387769901412 ; 1172375.1141190496 ; 182718.65396398638 ; 14518.000000000002
62 ; 26959.593334096633 ; 2995.387769901412 ; 1199546.2256781326 ; 185714.0417338878 ; 14756.000000000002
63 ; 27215.343327493945 ; 2995.387769901412 ; 1226505.8190122293 ; 188709.42950378923 ; 14994.000000000002
64 ; 27248.732285168026 ; 2995.387769901412 ; 1253721.1623397232 ; 191704.81727369066 ; 15232.000000000002
65 ; 27458.791686391676 ; 2995.387769901412 ; 1280969.8946248912 ; 194700.20504359208 ; 15470.000000000002
66 ; 27394.579216899343 ; 2995.387769901412 ; 1308428.686311283 ; 197695.5928134935 ; 15708.000000000002
67 ; 27509.204198012358 ; 2995.387769901412 ; 1335823.2655281823 ; 200690.98058339494 ; 15946.000000000002
68 ; 27678.200419634893 ; 2995.387769901412 ; 1363332.4697261946 ; 203686.36835329636 ; 16184.000000000002
69 ; 27585.113298124284 ; 2995.387769901412 ; 1391010.6701458294 ; 206681.7561231978 ; 16422.000000000004
70 ; 27835.244729400263 ; 2995.387769901412 ; 1418595.7834439538 ; 209677.14389309922 ; 16660.000000000004
71 ; 27853.392915727767 ; 2995.387769901412 ; 1446431.028173354 ; 212672.53166300064 ; 16898.000000000004
72 ; 27996.962378188986 ; 2995.387769901412 ; 1474284.4210890818 ; 215667.91943290207 ; 17136.000000000004
73 ; 27943.790485910093 ; 2995.387769901412 ; 1502281.3834672708 ; 218663.3072028035 ; 17374.000000000004
74 ; 28168.48648420117 ; 2995.387769901412 ; 1530225.173953181 ; 221658.69497270492 ; 17612.000000000004
75 ; 27896.700926135258 ; 2995.387769901412 ; 1558393.660437382 ; 224654.08274260635 ; 17850.000000000004
76 ; 28059.342405009185 ; 2995.387769901412 ; 1586290.3613635174 ; 227649.47051250777 ; 18088.000000000004
77 ; 27959.58864817345 ; 2995.387769901412 ; 1614349.7037685264 ; 230644.8582824092 ; 18326.000000000004
78 ; 28031.420500871376 ; 2995.387769901412 ; 1642309.2924167 ; 233640.24605231063 ; 18564.000000000004
79 ; 28230.368540160052 ; 2995.387769901412 ; 1670340.7129175714 ; 236635.63382221205 ; 18802.000000000004
80 ; 28225.44746385669 ; 2995.387769901412 ; 1698571.0814577315 ; 239631.02159211348 ; 19040.000000000004
81 ; 28309.875728669005 ; 2995.387769901412 ; 1726796.5289215883 ; 242626.4093620149 ; 19278.000000000004
82 ; 28226.803450544605 ; 2995.387769901412 ; 1755106.4046502574 ; 245621.79713191633 ; 19516.000000000004
83 ; 28145.042912752364 ; 2995.387769901412 ; 1783333.208100802 ; 248617.18490181776 ; 19754.000000000004
84 ; 28173.324948767193 ; 2995.387769901412 ; 1811478.2510135544 ; 251612.5726717192 ; 19992.000000000004
85 ; 28176.67964085744 ; 2995.387769901412 ; 1839651.5759623216 ; 254607.9604416206 ; 20230.000000000004
86 ; 28070.20848725589 ; 2995.387769901412 ; 1867828.255603179 ; 257603.34821152204 ; 20468.000000000004
87 ; 28063.085053809227 ; 2995.387769901412 ; 1895898.464090435 ; 260598.73598142347 ; 20706.000000000004
88 ; 28204.171537992584 ; 2995.387769901412 ; 1923961.5491442443 ; 263594.1237513249 ; 20944.000000000004
89 ; 28357.65852947814 ; 2995.387769901412 ; 1952165.7206822368 ; 266589.5115212263 ; 21182.000000000004
90 ; 27993.869658751268 ; 2995.387769901412 ; 1980523.379211715 ; 269584.89929112775 ; 21420.000000000004
91 ; 28041.911386107 ; 2995.387769901412 ; 2008517.2488704661 ; 272580.2870610292 ; 21658.000000000004
92 ; 27782.39028783659 ; 2995.387769901412 ; 2036559.1602565732 ; 275575.6748309306 ; 21896.000000000004
93 ; 27787.031192069855 ; 2995.387769901412 ; 2064341.5505444098 ; 278571.062600832 ; 22134.000000000004
94 ; 27656.307908002786 ; 2995.387769901412 ; 2092128.5817364797 ; 281566.45037073345 ; 22372.000000000004
95 ; 27705.952945385383 ; 2995.387769901412 ; 2119784.8896444826 ; 284561.8381406349 ; 22610.000000000004
96 ; 27611.91676239679 ; 2995.387769901412 ; 2147490.842589868 ; 287557.2259105363 ; 22848.000000000004
97 ; 27538.389407859097 ; 2995.387769901412 ; 2175102.759352265 ; 290552.61368043773 ; 23086.000000000004
98 ; 27423.489410130438 ; 2995.387769901412 ; 2202641.148760124 ; 293548.00145033916 ; 23324.000000000004
99 ; 27339.447741651486 ; 2995.387769901412 ; 2230064.6381702544 ; 296543.3892202406 ; 23562.000000000004
100 ; 27182.813188265747 ; 2995.387769901412 ; 2257404.085911906 ; 299538.776990142 ; 23800.000000000004
101 ; 26937.28686261218 ; 2995.387769901412 ; 2284586.8991001714 ; 302534.16476004344 ; 24038.000000000004
102 ; 26946.594345899888 ; 2995.387769901412 ; 2311524.1859627836 ; 305529.55252994486 ; 24276.000000000004
103 ; 26821.900920880937 ; 2995.387769901412 ; 2338470.7803086834 ; 308524.9402998463 ; 24514.000000000004
104 ; 26525.45654985872 ; 2995.387769901412 ; 2365292.6812295644 ; 311520.3280697477 ; 24752.000000000004
105 ; 26516.459722256674 ; 2995.387769901412 ; 2391818.137779423 ; 314515.71583964914 ; 24990.000000000004
106 ; 26518.541037016577 ; 2995.387769901412 ; 2418334.59750168 ; 317511.10360955057 ; 25228.000000000004
107 ; 26276.962871952837 ; 2995.387769901412 ; 2444853.1385386963 ; 320506.491379452 ; 25466.000000000004
108 ; 26172.87021995055 ; 2995.387769901412 ; 2471130.1014106493 ; 323501.8791493534 ; 25704.000000000004
109 ; 26086.01402989877 ; 2995.387769901412 ; 2497302.9716306 ; 326497.26691925485 ; 25942.000000000004
110 ; 25760.694880757674 ; 2995.387769901412 ; 2523388.9856604985 ; 329492.6546891563 ; 26180.000000000004
111 ; 25488.105509177338 ; 2995.387769901412 ; 2549149.680541256 ; 332488.0424590577 ; 26418.000000000004
112 ; 25334.15632178737 ; 2995.387769901412 ; 2574637.7860504333 ; 335483.4302289591 ; 26656.000000000004
113 ; 25171.54274967983 ; 2995.387769901412 ; 2599971.9423722206 ; 338478.81799886056 ; 26894.000000000004
114 ; 25206.37470823175 ; 2995.387769901412 ; 2625143.4851219 ; 341474.205768762 ; 27132.000000000004
115 ; 24720.040789493098 ; 2995.387769901412 ; 2650349.8598301318 ; 344469.5935386634 ; 27370.000000000004
116 ; 24702.8586587511 ; 2995.387769901412 ; 2675069.9006196246 ; 347464.98130856483 ; 27608.000000000004
117 ; 24405.231703722395 ; 2995.387769901412 ; 2699772.7592783757 ; 350460.36907846626 ; 27846.000000000004
118 ; 24245.721088306975 ; 2995.387769901412 ; 2724177.990982098 ; 353455.7568483677 ; 28084.000000000004
119 ; 23778.536512999763 ; 2995.387769901412 ; 2748423.712070405 ; 356451.1446182691 ; 28322.000000000004
120 ; 23508.00406459815 ; 2995.387769901412 ; 2772202.248583405 ; 359446.53238817054 ; 28560.000000000004
121 ; 23749.09851769393 ; 2995.387769901412 ; 2795710.252648003 ; 362441.92015807197 ; 28798.000000000004
122 ; 23184.180994516148 ; 2995.387769901412 ; 2819459.351165697 ; 365437.3079279734 ; 29036.000000000004
123 ; 22900.547223329264 ; 2995.387769901412 ; 2842643.532160213 ; 368432.6956978748 ; 29274.000000000004
124 ; 22652.34090296984 ; 2995.387769901412 ; 2865544.0793835423 ; 371428.08346777625 ; 29512.000000000004
125 ; 22381.79746310976 ; 2995.387769901412 ; 2888196.420286512 ; 374423.4712376777 ; 29750.000000000004
126 ; 22370.129947842837 ; 2995.387769901412 ; 2910578.2177496217 ; 377418.8590075791 ; 29988.000000000004
127 ; 21872.72930137803 ; 2995.387769901412 ; 2932948.3476974647 ; 380414.2467774805 ; 30226.000000000004
128 ; 21811.197676715474 ; 2995.387769901412 ; 2954821.076998843 ; 383409.63454738195 ; 30464.000000000004
129 ; 21459.794936187853 ; 2995.387769901412 ; 2976632.2746755583 ; 386405.0223172834 ; 30702.000000000004
130 ; 21190.99961889859 ; 2995.387769901412 ; 2998092.0696117464 ; 389400.4100871848 ; 30940.000000000004
131 ; 20767.13718628127 ; 2995.387769901412 ; 3019283.069230645 ; 392395.79785708623 ; 31178.000000000004
132 ; 20399.82059248216 ; 2995.387769901412 ; 3040050.2064169263 ; 395391.18562698766 ; 31416.000000000004
133 ; 20199.280826219234 ; 2995.387769901412 ; 3060450.0270094085 ; 398386.5733968891 ; 31654.000000000004
134 ; 19852.581870814625 ; 2995.387769901412 ; 3080649.307835628 ; 401381.9611667905 ; 31892.000000000004
135 ; 19549.16902642343 ; 2995.387769901412 ; 3100501.8897064426 ; 404377.34893669194 ; 32130.000000000004
136 ; 19414.822165028974 ; 2995.387769901412 ; 3120051.058732866 ; 407372.73670659336 ; 32368.000000000004
137 ; 18983.544307526292 ; 2995.387769901412 ; 3139465.880897895 ; 410368.1244764948 ; 32606.000000000004
138 ; 18634.350144820604 ; 2995.387769901412 ; 3158449.425205421 ; 413363.5122463962 ; 32844.00000000001
139 ; 18349.47382782431 ; 2995.387769901412 ; 3177083.775350242 ; 416358.90001629764 ; 33082.00000000001
140 ; 17788.844870778103 ; 2995.387769901412 ; 3195433.2491780664 ; 419354.2877861991 ; 33320.00000000001
141 ; 17581.349334366314 ; 2995.387769901412 ; 3213222.0940488447 ; 422349.6755561005 ; 33558.00000000001
142 ; 17385.66393545941 ; 2995.387769901412 ; 3230803.443383211 ; 425345.0633260019 ; 33796.00000000001
143 ; 16732.25040830788 ; 2995.387769901412 ; 3248189.10731867 ; 428340.45109590335 ; 34034.00000000001
144 ; 16505.379226386976 ; 2995.387769901412 ; 3264921.3577269777 ; 431335.8388658048 ; 34272.00000000001
145 ; 16181.69132216706 ; 2995.387769901412 ; 3281426.7369533647 ; 434331.2266357062 ; 34510.00000000001
146 ; 16346.340941399607 ; 2995.387769901412 ; 3297608.4282755316 ; 437326.61440560763 ; 34748.00000000001
147 ; 16114.78831349614 ; 2995.387769901412 ; 3313954.7692169314 ; 440322.00217550906 ; 34986.00000000001
148 ; 16063.730652067694 ; 2995.387769901412 ; 3330069.5575304274 ; 443317.3899454105 ; 35224.00000000001
149 ; 15816.67079929882 ; 2995.387769901412 ; 3346133.288182495 ; 446312.7777153119 ; 35462.00000000001
150 ; 15864.933382280573 ; 2995.387769901412 ; 3361949.958981794 ; 449308.16548521334 ; 35700.00000000001
151 ; 15648.88968977704 ; 2995.387769901412 ; 3377814.8923640745 ; 452303.55325511476 ; 35938.00000000001
152 ; 15622.848438845258 ; 2995.387769901412 ; 3393463.7820538515 ; 455298.9410250162 ; 36176.00000000001
153 ; 15503.542344278634 ; 2995.387769901412 ; 3409086.630492697 ; 458294.3287949176 ; 36414.00000000001
154 ; 15381.028462689519 ; 2995.387769901412 ; 3424590.1728369757 ; 461289.71656481904 ; 36652.00000000001
155 ; 15170.471016027905 ; 2995.387769901412 ; 3439971.201299665 ; 464285.10433472047 ; 36890.00000000001
156 ; 15133.789386187183 ; 2995.387769901412 ; 3455141.672315693 ; 467280.4921046219 ; 37128.00000000001
157 ; 14821.936825358674 ; 2995.387769901412 ; 3470275.46170188 ; 470275.8798745233 ; 37366.00000000001
158 ; 14809.554017563147 ; 2995.387769901412 ; 3485097.398527239 ; 473271.26764442475 ; 37604.00000000001
159 ; 14772.132855512387 ; 2995.387769901412 ; 3499906.9525448023 ; 476266.6554143262 ; 37842.00000000001
160 ; 14648.53809043663 ; 2995.387769901412 ; 3514679.0854003145 ; 479262.0431842276 ; 38080.00000000001
161 ; 14468.106437889446 ; 2995.387769901412 ; 3529327.6234907513 ; 482257.430954129 ; 38318.00000000001
162 ; 14132.103179082078 ; 2995.387769901412 ; 3543795.7299286406 ; 485252.81872403045 ; 38556.00000000001
163 ; 14313.756205769676 ; 2995.387769901412 ; 3557927.833107723 ; 488248.2064939319 ; 38794.00000000001
164 ; 13990.543347286406 ; 2995.387769901412 ; 3572241.5893134926 ; 491243.5942638333 ; 39032.00000000001
165 ; 13803.639419044503 ; 2995.387769901412 ; 3586232.132660779 ; 494238.98203373473 ; 39270.00000000001
166 ; 13626.436119854863 ; 2995.387769901412 ; 3600035.7720798235 ; 497234.36980363616 ; 39508.00000000001
167 ; 13443.829572132861 ; 2995.387769901412 ; 3613662.2081996785 ; 500229.7575735376 ; 39746.00000000001
168 ; 13193.500068110301 ; 2995.387769901412 ; 3627106.0377718112 ; 503225.145343439 ; 39984.00000000001
169 ; 13336.48990207807 ; 2995.387769901412 ; 3640299.5378399217 ; 506220.53311334044 ; 40222.00000000001
170 ; 13087.19708564106 ; 2995.387769901412 ; 3653636.027742 ; 509215.92088324187 ; 40460.00000000001
171 ; 12923.532761056844 ; 2995.387769901412 ; 3666723.2248276407 ; 512211.3086531433 ; 40698.00000000001
172 ; 12764.517418128136 ; 2995.387769901412 ; 3679646.7575886976 ; 515206.6964230447 ; 40936.00000000001
173 ; 12827.039398049215 ; 2995.387769901412 ; 3692411.2750068256 ; 518202.08419294615 ; 41174.00000000001
174 ; 12642.296792231435 ; 2995.387769901412 ; 3705238.3144048746 ; 521197.4719628476 ; 41412.00000000001
175 ; 12769.132237923122 ; 2995.387769901412 ; 3717880.611197106 ; 524192.859732749 ; 41650.00000000001
176 ; 12628.610078424865 ; 2995.387769901412 ; 3730649.7434350294 ; 527188.2475026504 ; 41888.00000000001
177 ; 12779.053090825239 ; 2995.387769901412 ; 3743278.353513454 ; 530183.6352725518 ; 42126.00000000001
178 ; 12780.350851771595 ; 2995.387769901412 ; 3756057.4066042793 ; 533179.0230424532 ; 42364.00000000001
179 ; 12632.649782654367 ; 2995.387769901412 ; 3768837.7574560507 ; 536174.4108123546 ; 42602.00000000001
180 ; 12605.03786219049 ; 2995.387769901412 ; 3781470.407238705 ; 539169.7985822561 ; 42840.00000000001
181 ; 12834.427387816395 ; 2995.387769901412 ; 3794075.4451008956 ; 542165.1863521575 ; 43078.00000000001
182 ; 12691.031932293376 ; 2995.387769901412 ; 3806909.872488712 ; 545160.5741220589 ; 43316.00000000001
183 ; 12874.951715430385 ; 2995.387769901412 ; 3819600.9044210054 ; 548155.9618919604 ; 43554.00000000001
184 ; 12922.86101980866 ; 2995.387769901412 ; 3832475.8561364356 ; 551151.3496618618 ; 43792.00000000001
185 ; 12824.456402847378 ; 2995.387769901412 ; 3845398.7171562444 ; 554146.7374317632 ; 44030.00000000001
186 ; 12810.166397659874 ; 2995.387769901412 ; 3858223.173559092 ; 557142.1252016646 ; 44268.00000000001
