CSV File for the City 1 on Day 308
1 - Minute m 
2 - Power Consumed at minute m 
3 - Power Produced at minute m 
4 - Energy Consumed since the beginning of the day 
5 - Energy Produced since the beginning of the day 
6 - Energy Lost since the beginning of the day on lines starting from the city
 
0 ; 11619.9842140794 ; 16139.693358835913 ; 0.0 ; 0.0 ; 0.0
1 ; 11974.140231059882 ; 16139.693358835913 ; 11619.9842140794 ; 16139.693358835913 ; 238.00000000000003
2 ; 12444.730392324318 ; 16139.693358835913 ; 23594.124445139285 ; 32279.386717671827 ; 476.00000000000006
3 ; 12841.711315239534 ; 16139.693358835913 ; 36038.8548374636 ; 48419.080076507744 ; 714.0000000000001
4 ; 13373.652836663341 ; 16139.693358835913 ; 48880.56615270313 ; 64558.77343534365 ; 952.0000000000001
5 ; 13450.40581168167 ; 16139.693358835913 ; 62254.218989366476 ; 80698.46679417956 ; 1190.0000000000002
6 ; 13871.001841205429 ; 16139.693358835913 ; 75704.62480104815 ; 96838.16015301547 ; 1428.0000000000002
7 ; 14419.781118618466 ; 16139.693358835913 ; 89575.62664225358 ; 112977.85351185138 ; 1666.0000000000002
8 ; 14785.981171071397 ; 16139.693358835913 ; 103995.40776087205 ; 129117.54687068729 ; 1904.0000000000002
9 ; 15069.463236076439 ; 16139.693358835913 ; 118781.38893194345 ; 145257.24022952322 ; 2142.0000000000005
10 ; 15368.465098740377 ; 16139.693358835913 ; 133850.8521680199 ; 161396.93358835913 ; 2380.0000000000005
11 ; 15734.726244625257 ; 16139.693358835913 ; 149219.31726676028 ; 177536.62694719504 ; 2618.0000000000005
12 ; 16008.173260761714 ; 16139.693358835913 ; 164954.04351138553 ; 193676.32030603095 ; 2856.0000000000005
13 ; 16437.73838214391 ; 16139.693358835913 ; 180962.21677214725 ; 209816.01366486686 ; 3094.0000000000005
14 ; 16690.147794869677 ; 16139.693358835913 ; 197399.95515429115 ; 225955.70702370277 ; 3332.0000000000005
15 ; 17099.356476608402 ; 16139.693358835913 ; 214090.10294916082 ; 242095.40038253868 ; 3570.0000000000005
16 ; 17182.859346718167 ; 16139.693358835913 ; 231189.45942576922 ; 258235.09374137459 ; 3808.0000000000005
17 ; 17552.266343808627 ; 16139.693358835913 ; 248372.3187724874 ; 274374.7871002105 ; 4046.0000000000005
18 ; 17906.664420528108 ; 16139.693358835913 ; 265924.585116296 ; 290514.48045904643 ; 4284.000000000001
19 ; 18193.980171822877 ; 16139.693358835913 ; 283831.2495368241 ; 306654.1738178824 ; 4522.000000000001
20 ; 18443.084963906385 ; 16139.693358835913 ; 302025.229708647 ; 322793.8671767183 ; 4760.000000000001
21 ; 18772.883496872633 ; 16139.693358835913 ; 320468.3146725534 ; 338933.56053555425 ; 4998.000000000001
22 ; 19091.129831874092 ; 16139.693358835913 ; 339241.198169426 ; 355073.2538943902 ; 5236.000000000001
23 ; 19418.84390120101 ; 16139.693358835913 ; 358332.3280013001 ; 371212.9472532261 ; 5474.000000000001
24 ; 19698.32813926043 ; 16139.693358835913 ; 377751.17190250114 ; 387352.64061206207 ; 5712.000000000001
25 ; 19940.909529887133 ; 16139.693358835913 ; 397449.50004176155 ; 403492.333970898 ; 5950.000000000001
26 ; 20090.145655648186 ; 16139.693358835913 ; 417390.4095716487 ; 419632.02732973394 ; 6188.000000000001
27 ; 20367.76115366083 ; 16139.693358835913 ; 437480.5552272969 ; 435771.7206885699 ; 6426.000000000001
28 ; 20490.103287859685 ; 16139.693358835913 ; 457848.3163809577 ; 451911.4140474058 ; 6664.000000000001
29 ; 20765.629120054266 ; 16139.693358835913 ; 478338.4196688174 ; 468051.10740624176 ; 6902.000000000001
30 ; 20935.026953271932 ; 16139.693358835913 ; 499104.0487888717 ; 484190.8007650777 ; 7140.000000000001
31 ; 21385.934273413208 ; 16139.693358835913 ; 520039.0757421436 ; 500330.49412391364 ; 7378.000000000001
32 ; 21655.821623932025 ; 16139.693358835913 ; 541425.0100155568 ; 516470.1874827496 ; 7616.000000000001
33 ; 21843.31386500132 ; 16139.693358835913 ; 563080.8316394888 ; 532609.8808415855 ; 7854.000000000001
34 ; 21937.40199653159 ; 16139.693358835913 ; 584924.1455044901 ; 548749.5742004213 ; 8092.000000000001
35 ; 22227.34227816595 ; 16139.693358835913 ; 606861.5475010218 ; 564889.2675592572 ; 8330.000000000002
36 ; 22385.606072173017 ; 16139.693358835913 ; 629088.8897791877 ; 581028.9609180931 ; 8568.000000000002
37 ; 22607.89930309416 ; 16139.693358835913 ; 651474.4958513607 ; 597168.654276929 ; 8806.000000000002
38 ; 22839.509104289282 ; 16139.693358835913 ; 674082.3951544549 ; 613308.3476357649 ; 9044.000000000002
39 ; 23130.225605796273 ; 16139.693358835913 ; 696921.9042587441 ; 629448.0409946007 ; 9282.000000000002
40 ; 23364.81308228131 ; 16139.693358835913 ; 720052.1298645404 ; 645587.7343534366 ; 9520.000000000002
41 ; 23271.63942020746 ; 16139.693358835913 ; 743416.9429468217 ; 661727.4277122725 ; 9758.000000000002
42 ; 23633.26147055683 ; 16139.693358835913 ; 766688.5823670292 ; 677867.1210711084 ; 9996.000000000002
43 ; 23674.77694834934 ; 16139.693358835913 ; 790321.843837586 ; 694006.8144299443 ; 10234.000000000002
44 ; 24149.49522529827 ; 16139.693358835913 ; 813996.6207859353 ; 710146.5077887801 ; 10472.000000000002
45 ; 23995.120732602 ; 16139.693358835913 ; 838146.1160112335 ; 726286.201147616 ; 10710.000000000002
46 ; 24003.180777694353 ; 16139.693358835913 ; 862141.2367438355 ; 742425.8945064519 ; 10948.000000000002
47 ; 24395.758329404056 ; 16139.693358835913 ; 886144.4175215298 ; 758565.5878652878 ; 11186.000000000002
48 ; 24688.685355060774 ; 16139.693358835913 ; 910540.1758509339 ; 774705.2812241237 ; 11424.000000000002
49 ; 24720.983591163793 ; 16139.693358835913 ; 935228.8612059946 ; 790844.9745829595 ; 11662.000000000002
50 ; 24948.711762159117 ; 16139.693358835913 ; 959949.8447971584 ; 806984.6679417954 ; 11900.000000000002
51 ; 25005.933915843747 ; 16139.693358835913 ; 984898.5565593175 ; 823124.3613006313 ; 12138.000000000002
52 ; 25193.12231365381 ; 16139.693358835913 ; 1009904.4904751612 ; 839264.0546594672 ; 12376.000000000002
53 ; 25442.820786065593 ; 16139.693358835913 ; 1035097.612788815 ; 855403.7480183031 ; 12614.000000000002
54 ; 25391.747387378382 ; 16139.693358835913 ; 1060540.4335748807 ; 871543.441377139 ; 12852.000000000002
55 ; 25415.533149330222 ; 16139.693358835913 ; 1085932.1809622592 ; 887683.1347359748 ; 13090.000000000002
56 ; 25803.684170649045 ; 16139.693358835913 ; 1111347.7141115894 ; 903822.8280948107 ; 13328.000000000002
57 ; 25843.50191993329 ; 16139.693358835913 ; 1137151.3982822385 ; 919962.5214536466 ; 13566.000000000002
58 ; 25958.91811306039 ; 16139.693358835913 ; 1162994.9002021719 ; 936102.2148124825 ; 13804.000000000002
59 ; 25922.940686605045 ; 16139.693358835913 ; 1188953.8183152322 ; 952241.9081713184 ; 14042.000000000002
60 ; 26218.97129237267 ; 16139.693358835913 ; 1214876.759001837 ; 968381.6015301542 ; 14280.000000000002
61 ; 26176.106860268203 ; 16139.693358835913 ; 1241095.7302942097 ; 984521.2948889901 ; 14518.000000000002
62 ; 26354.376591420856 ; 16139.693358835913 ; 1267271.8371544778 ; 1000660.988247826 ; 14756.000000000002
63 ; 26444.70375129009 ; 16139.693358835913 ; 1293626.2137458988 ; 1016800.6816066619 ; 14994.000000000002
64 ; 26448.941850541454 ; 16139.693358835913 ; 1320070.9174971888 ; 1032940.3749654978 ; 15232.000000000002
65 ; 26614.58562922371 ; 16139.693358835913 ; 1346519.8593477302 ; 1049080.0683243338 ; 15470.000000000002
66 ; 26624.96325475561 ; 16139.693358835913 ; 1373134.4449769538 ; 1065219.7616831698 ; 15708.000000000002
67 ; 26712.167681132683 ; 16139.693358835913 ; 1399759.4082317094 ; 1081359.4550420057 ; 15946.000000000002
68 ; 26678.465331990108 ; 16139.693358835913 ; 1426471.575912842 ; 1097499.1484008417 ; 16184.000000000002
69 ; 26729.764613353393 ; 16139.693358835913 ; 1453150.041244832 ; 1113638.8417596777 ; 16422.000000000004
70 ; 26698.91894819555 ; 16139.693358835913 ; 1479879.8058581855 ; 1129778.5351185137 ; 16660.000000000004
71 ; 26745.361644101504 ; 16139.693358835913 ; 1506578.7248063812 ; 1145918.2284773497 ; 16898.000000000004
72 ; 26928.106203845484 ; 16139.693358835913 ; 1533324.0864504827 ; 1162057.9218361857 ; 17136.000000000004
73 ; 26847.830027615135 ; 16139.693358835913 ; 1560252.1926543282 ; 1178197.6151950217 ; 17374.000000000004
74 ; 27033.483431236178 ; 16139.693358835913 ; 1587100.0226819434 ; 1194337.3085538577 ; 17612.000000000004
75 ; 27156.872299765775 ; 16139.693358835913 ; 1614133.5061131795 ; 1210477.0019126937 ; 17850.000000000004
76 ; 26993.287681659072 ; 16139.693358835913 ; 1641290.3784129452 ; 1226616.6952715297 ; 18088.000000000004
77 ; 26990.26406817052 ; 16139.693358835913 ; 1668283.6660946042 ; 1242756.3886303657 ; 18326.000000000004
78 ; 27199.31910410263 ; 16139.693358835913 ; 1695273.9301627746 ; 1258896.0819892017 ; 18564.000000000004
79 ; 27012.91581800314 ; 16139.693358835913 ; 1722473.2492668773 ; 1275035.7753480377 ; 18802.000000000004
80 ; 27192.230071569145 ; 16139.693358835913 ; 1749486.1650848805 ; 1291175.4687068737 ; 19040.000000000004
81 ; 26772.444438557526 ; 16139.693358835913 ; 1776678.3951564496 ; 1307315.1620657097 ; 19278.000000000004
82 ; 26877.6841322303 ; 16139.693358835913 ; 1803450.8395950072 ; 1323454.8554245457 ; 19516.000000000004
83 ; 26992.30476555659 ; 16139.693358835913 ; 1830328.5237272375 ; 1339594.5487833817 ; 19754.000000000004
84 ; 26948.854421887612 ; 16139.693358835913 ; 1857320.8284927942 ; 1355734.2421422177 ; 19992.000000000004
85 ; 26990.274841749117 ; 16139.693358835913 ; 1884269.6829146817 ; 1371873.9355010537 ; 20230.000000000004
86 ; 26983.185089683182 ; 16139.693358835913 ; 1911259.9577564308 ; 1388013.6288598897 ; 20468.000000000004
87 ; 27016.519338106384 ; 16139.693358835913 ; 1938243.142846114 ; 1404153.3222187257 ; 20706.000000000004
88 ; 26733.389490697667 ; 16139.693358835913 ; 1965259.6621842203 ; 1420293.0155775617 ; 20944.000000000004
89 ; 26907.350054867744 ; 16139.693358835913 ; 1991993.051674918 ; 1436432.7089363977 ; 21182.000000000004
90 ; 26660.030480995003 ; 16139.693358835913 ; 2018900.4017297858 ; 1452572.4022952337 ; 21420.000000000004
91 ; 26730.14375169894 ; 16139.693358835913 ; 2045560.432210781 ; 1468712.0956540697 ; 21658.000000000004
92 ; 26607.771669396534 ; 16139.693358835913 ; 2072290.57596248 ; 1484851.7890129057 ; 21896.000000000004
93 ; 26462.598792706645 ; 16139.693358835913 ; 2098898.3476318764 ; 1500991.4823717417 ; 22134.000000000004
94 ; 26553.63415734073 ; 16139.693358835913 ; 2125360.946424583 ; 1517131.1757305777 ; 22372.000000000004
95 ; 26252.25272729963 ; 16139.693358835913 ; 2151914.5805819235 ; 1533270.8690894137 ; 22610.000000000004
96 ; 26308.299753009047 ; 16139.693358835913 ; 2178166.833309223 ; 1549410.5624482497 ; 22848.000000000004
97 ; 26096.031511476354 ; 16139.693358835913 ; 2204475.133062232 ; 1565550.2558070857 ; 23086.000000000004
98 ; 25839.007645189857 ; 16139.693358835913 ; 2230571.164573708 ; 1581689.9491659217 ; 23324.000000000004
99 ; 26020.524575007596 ; 16139.693358835913 ; 2256410.172218898 ; 1597829.6425247577 ; 23562.000000000004
100 ; 25826.54985851851 ; 16139.693358835913 ; 2282430.6967939055 ; 1613969.3358835937 ; 23800.000000000004
101 ; 25744.66708570731 ; 16139.693358835913 ; 2308257.246652424 ; 1630109.0292424296 ; 24038.000000000004
102 ; 25598.77318486285 ; 16139.693358835913 ; 2334001.913738131 ; 1646248.7226012656 ; 24276.000000000004
103 ; 25745.921749120724 ; 16139.693358835913 ; 2359600.686922994 ; 1662388.4159601016 ; 24514.000000000004
104 ; 25669.26535979993 ; 16139.693358835913 ; 2385346.6086721146 ; 1678528.1093189376 ; 24752.000000000004
105 ; 25323.398776612215 ; 16139.693358835913 ; 2411015.8740319144 ; 1694667.8026777736 ; 24990.000000000004
106 ; 25228.27476259528 ; 16139.693358835913 ; 2436339.2728085266 ; 1710807.4960366096 ; 25228.000000000004
107 ; 24939.75160593855 ; 16139.693358835913 ; 2461567.5475711217 ; 1726947.1893954456 ; 25466.000000000004
108 ; 24830.269566659998 ; 16139.693358835913 ; 2486507.2991770604 ; 1743086.8827542816 ; 25704.000000000004
109 ; 24804.952236512603 ; 16139.693358835913 ; 2511337.56874372 ; 1759226.5761131176 ; 25942.000000000004
110 ; 24717.744595366727 ; 16139.693358835913 ; 2536142.520980233 ; 1775366.2694719536 ; 26180.000000000004
111 ; 24672.614697057692 ; 16139.693358835913 ; 2560860.2655755994 ; 1791505.9628307896 ; 26418.000000000004
112 ; 24232.9941933025 ; 16139.693358835913 ; 2585532.880272657 ; 1807645.6561896256 ; 26656.000000000004
113 ; 24160.508412935596 ; 16139.693358835913 ; 2609765.8744659596 ; 1823785.3495484616 ; 26894.000000000004
114 ; 23941.071635025364 ; 16139.693358835913 ; 2633926.3828788954 ; 1839925.0429072976 ; 27132.000000000004
115 ; 23838.925164729146 ; 16139.693358835913 ; 2657867.454513921 ; 1856064.7362661336 ; 27370.000000000004
116 ; 23721.70575458685 ; 16139.693358835913 ; 2681706.3796786503 ; 1872204.4296249696 ; 27608.000000000004
117 ; 23580.411793408806 ; 16139.693358835913 ; 2705428.0854332373 ; 1888344.1229838056 ; 27846.000000000004
118 ; 23249.17843526492 ; 16139.693358835913 ; 2729008.497226646 ; 1904483.8163426416 ; 28084.000000000004
119 ; 23205.49748922791 ; 16139.693358835913 ; 2752257.6756619113 ; 1920623.5097014776 ; 28322.000000000004
120 ; 22971.522874518494 ; 16139.693358835913 ; 2775463.173151139 ; 1936763.2030603136 ; 28560.000000000004
121 ; 22789.864566491993 ; 16139.693358835913 ; 2798434.6960256575 ; 1952902.8964191496 ; 28798.000000000004
122 ; 22405.81692036422 ; 16139.693358835913 ; 2821224.5605921494 ; 1969042.5897779856 ; 29036.000000000004
123 ; 22473.081644060007 ; 16139.693358835913 ; 2843630.3775125137 ; 1985182.2831368216 ; 29274.000000000004
124 ; 22112.262558964238 ; 16139.693358835913 ; 2866103.4591565738 ; 2001321.9764956576 ; 29512.000000000004
125 ; 21980.498582193035 ; 16139.693358835913 ; 2888215.721715538 ; 2017461.6698544936 ; 29750.000000000004
126 ; 21685.91641051388 ; 16139.693358835913 ; 2910196.220297731 ; 2033601.3632133296 ; 29988.000000000004
127 ; 21384.437379057166 ; 16139.693358835913 ; 2931882.1367082447 ; 2049741.0565721656 ; 30226.000000000004
128 ; 21249.312210281245 ; 16139.693358835913 ; 2953266.5740873017 ; 2065880.7499310016 ; 30464.000000000004
129 ; 21162.093360158266 ; 16139.693358835913 ; 2974515.886297583 ; 2082020.4432898376 ; 30702.000000000004
130 ; 20885.604735071844 ; 16139.693358835913 ; 2995677.9796577413 ; 2098160.1366486736 ; 30940.000000000004
131 ; 20586.64091588043 ; 16139.693358835913 ; 3016563.584392813 ; 2114299.8300075093 ; 31178.000000000004
132 ; 20311.494410793446 ; 16139.693358835913 ; 3037150.2253086935 ; 2130439.523366345 ; 31416.000000000004
133 ; 19906.469647616508 ; 16139.693358835913 ; 3057461.719719487 ; 2146579.216725181 ; 31654.000000000004
134 ; 19766.638523443162 ; 16139.693358835913 ; 3077368.1893671034 ; 2162718.9100840166 ; 31892.000000000004
135 ; 19619.93125682097 ; 16139.693358835913 ; 3097134.8278905465 ; 2178858.6034428524 ; 32130.000000000004
136 ; 19202.377330101517 ; 16139.693358835913 ; 3116754.7591473674 ; 2194998.296801688 ; 32368.000000000004
137 ; 18823.160134472622 ; 16139.693358835913 ; 3135957.136477469 ; 2211137.990160524 ; 32606.000000000004
138 ; 18639.507378886137 ; 16139.693358835913 ; 3154780.2966119414 ; 2227277.6835193597 ; 32844.00000000001
139 ; 18336.104279724495 ; 16139.693358835913 ; 3173419.8039908274 ; 2243417.3768781954 ; 33082.00000000001
140 ; 18094.301456600788 ; 16139.693358835913 ; 3191755.908270552 ; 2259557.070237031 ; 33320.00000000001
141 ; 17804.464106003896 ; 16139.693358835913 ; 3209850.2097271527 ; 2275696.763595867 ; 33558.00000000001
142 ; 17476.344028729647 ; 16139.693358835913 ; 3227654.6738331565 ; 2291836.4569547027 ; 33796.00000000001
143 ; 17333.771040548487 ; 16139.693358835913 ; 3245131.017861886 ; 2307976.1503135385 ; 34034.00000000001
144 ; 16888.032895167216 ; 16139.693358835913 ; 3262464.7889024345 ; 2324115.8436723743 ; 34272.00000000001
145 ; 16911.43532393297 ; 16139.693358835913 ; 3279352.821797602 ; 2340255.53703121 ; 34510.00000000001
146 ; 16821.737521376086 ; 16139.693358835913 ; 3296264.257121535 ; 2356395.230390046 ; 34748.00000000001
147 ; 16527.180432691886 ; 16139.693358835913 ; 3313085.994642911 ; 2372534.9237488816 ; 34986.00000000001
148 ; 16522.135742793896 ; 16139.693358835913 ; 3329613.1750756027 ; 2388674.6171077173 ; 35224.00000000001
149 ; 16467.246355428506 ; 16139.693358835913 ; 3346135.3108183965 ; 2404814.310466553 ; 35462.00000000001
150 ; 16193.350249973408 ; 16139.693358835913 ; 3362602.557173825 ; 2420954.003825389 ; 35700.00000000001
151 ; 16336.667427372764 ; 16139.693358835913 ; 3378795.9074237985 ; 2437093.6971842246 ; 35938.00000000001
152 ; 16188.265082895094 ; 16139.693358835913 ; 3395132.574851171 ; 2453233.3905430604 ; 36176.00000000001
153 ; 16067.582781463369 ; 16139.693358835913 ; 3411320.8399340664 ; 2469373.083901896 ; 36414.00000000001
154 ; 15911.392918814106 ; 16139.693358835913 ; 3427388.42271553 ; 2485512.777260732 ; 36652.00000000001
155 ; 15804.718994194298 ; 16139.693358835913 ; 3443299.815634344 ; 2501652.4706195677 ; 36890.00000000001
156 ; 15599.22795541444 ; 16139.693358835913 ; 3459104.534628538 ; 2517792.1639784034 ; 37128.00000000001
157 ; 15739.345175335453 ; 16139.693358835913 ; 3474703.7625839524 ; 2533931.857337239 ; 37366.00000000001
158 ; 15383.484103352437 ; 16139.693358835913 ; 3490443.107759288 ; 2550071.550696075 ; 37604.00000000001
159 ; 15322.792977185754 ; 16139.693358835913 ; 3505826.5918626403 ; 2566211.2440549107 ; 37842.00000000001
160 ; 15053.801975868748 ; 16139.693358835913 ; 3521149.3848398263 ; 2582350.9374137465 ; 38080.00000000001
161 ; 14980.656384734468 ; 16139.693358835913 ; 3536203.186815695 ; 2598490.6307725823 ; 38318.00000000001
162 ; 14921.318388924712 ; 16139.693358835913 ; 3551183.8432004293 ; 2614630.324131418 ; 38556.00000000001
163 ; 14903.543335640012 ; 16139.693358835913 ; 3566105.1615893543 ; 2630770.017490254 ; 38794.00000000001
164 ; 14707.643952680388 ; 16139.693358835913 ; 3581008.704924994 ; 2646909.7108490895 ; 39032.00000000001
165 ; 14638.375021472562 ; 16139.693358835913 ; 3595716.3488776744 ; 2663049.4042079253 ; 39270.00000000001
166 ; 14490.226994541163 ; 16139.693358835913 ; 3610354.723899147 ; 2679189.097566761 ; 39508.00000000001
167 ; 14276.85034116702 ; 16139.693358835913 ; 3624844.950893688 ; 2695328.790925597 ; 39746.00000000001
168 ; 14207.704047525061 ; 16139.693358835913 ; 3639121.801234855 ; 2711468.4842844326 ; 39984.00000000001
169 ; 13915.40475498245 ; 16139.693358835913 ; 3653329.5052823797 ; 2727608.1776432684 ; 40222.00000000001
170 ; 13969.012452727475 ; 16139.693358835913 ; 3667244.910037362 ; 2743747.871002104 ; 40460.00000000001
171 ; 13771.678709134141 ; 16139.693358835913 ; 3681213.9224900897 ; 2759887.56436094 ; 40698.00000000001
172 ; 13709.76408625096 ; 16139.693358835913 ; 3694985.6011992237 ; 2776027.2577197757 ; 40936.00000000001
173 ; 13481.288673004192 ; 16139.693358835913 ; 3708695.365285475 ; 2792166.9510786114 ; 41174.00000000001
174 ; 13607.746586744757 ; 16139.693358835913 ; 3722176.653958479 ; 2808306.644437447 ; 41412.00000000001
175 ; 13462.76522010857 ; 16139.693358835913 ; 3735784.4005452236 ; 2824446.337796283 ; 41650.00000000001
176 ; 13517.356998660223 ; 16139.693358835913 ; 3749247.165765332 ; 2840586.0311551187 ; 41888.00000000001
177 ; 13476.936285428234 ; 16139.693358835913 ; 3762764.522763992 ; 2856725.7245139545 ; 42126.00000000001
178 ; 13657.963393216933 ; 16139.693358835913 ; 3776241.4590494204 ; 2872865.4178727902 ; 42364.00000000001
179 ; 13524.641110265991 ; 16139.693358835913 ; 3789899.4224426374 ; 2889005.111231626 ; 42602.00000000001
180 ; 13608.473863100598 ; 16139.693358835913 ; 3803424.0635529035 ; 2905144.804590462 ; 42840.00000000001
181 ; 13661.93814755969 ; 16139.693358835913 ; 3817032.537416004 ; 2921284.4979492975 ; 43078.00000000001
182 ; 13348.327606681421 ; 16139.693358835913 ; 3830694.475563564 ; 2937424.1913081333 ; 43316.00000000001
183 ; 13598.353297381225 ; 16139.693358835913 ; 3844042.803170245 ; 2953563.884666969 ; 43554.00000000001
