CSV File for the City 3 on Day 208
1 - Minute m 
2 - Power Consumed at minute m 
3 - Power Produced at minute m 
4 - Energy Consumed since the beginning of the day 
5 - Energy Produced since the beginning of the day 
6 - Energy Lost since the beginning of the day on lines starting from the city
 
0 ; 4016.0132714739616 ; 48234.01395871861 ; 0.0 ; 0.0 ; 0.0
1 ; 4478.8073463511155 ; 47780.62185599192 ; 4016.0132714739616 ; 48234.01395871861 ; 0.0
2 ; 4814.672262373092 ; 47371.18310769245 ; 8494.820617825077 ; 96014.63581471053 ; 0.0
3 ; 5435.5293923076815 ; 47006.87781237781 ; 13309.49288019817 ; 143385.81892240298 ; 0.0
4 ; 5870.081650591048 ; 46688.79053087664 ; 18745.022272505852 ; 190392.6967347808 ; 0.0
5 ; 6592.475873456843 ; 46417.895874023125 ; 24615.1039230969 ; 237081.48726565743 ; 0.0
6 ; 6849.902403805327 ; 46195.044873183215 ; 31207.579796553742 ; 283499.38313968055 ; 0.0
7 ; 7288.820391151218 ; 46020.95254727417 ; 38057.48220035907 ; 329694.42801286373 ; 0.0
8 ; 7687.625937054347 ; 45896.18706954308 ; 45346.302591510284 ; 375715.3805601379 ; 0.0
9 ; 8234.81387750057 ; 45821.160904833385 ; 53033.92852856463 ; 421611.56762968097 ; 0.0
10 ; 8592.219600448496 ; 45796.12423361793 ; 61268.742406065205 ; 467432.7285345144 ; 0.0
11 ; 8830.508558984511 ; 45821.160904833385 ; 69860.9620065137 ; 513228.8527681323 ; 0.0
12 ; 9380.599023975126 ; 45896.18706954308 ; 78691.47056549821 ; 559050.0136729657 ; 0.0
13 ; 9831.068675058412 ; 46020.95254727417 ; 88072.06958947334 ; 604946.2007425088 ; 0.0
14 ; 10303.27723293905 ; 46195.044873183215 ; 97903.13826453175 ; 650967.1532897829 ; 0.0
15 ; 10670.832103208231 ; 46417.895874023125 ; 108206.41549747079 ; 697162.1981629662 ; 0.0
16 ; 11096.139957132084 ; 46688.79053087664 ; 118877.24760067902 ; 743580.0940369893 ; 0.0
17 ; 11516.11121778203 ; 47006.877812377716 ; 129973.3875578111 ; 790268.8845678659 ; 0.0
18 ; 11998.369553523211 ; 47371.18310769254 ; 141489.49877559312 ; 837275.7623802436 ; 0.0
19 ; 12227.135910178555 ; 47780.62185599183 ; 153487.86832911632 ; 884646.9454879361 ; 0.0
20 ; 12653.764976843184 ; 48234.01395871871 ; 165715.00423929488 ; 932427.5673439279 ; 0.0
21 ; 12932.253397385286 ; 48730.098571055845 ; 178368.76921613805 ; 980661.5813026467 ; 0.0
22 ; 13313.521018316145 ; 49267.54889667025 ; 191301.02261352335 ; 1029391.6798737025 ; 0.0
23 ; 13620.576129501012 ; 49844.9866511631 ; 204614.5436318395 ; 1078659.2287703727 ; 0.0
24 ; 13909.020982515378 ; 50460.99591035371 ; 218235.11976134052 ; 1128504.2154215358 ; 0.0
25 ; 14181.838478189653 ; 51114.13611529584 ; 232144.1407438559 ; 1178965.2113318895 ; 0.0
26 ; 14717.5239770625 ; 51802.95406285376 ; 246325.97922204557 ; 1230079.3474471853 ; 0.0
27 ; 15095.639037204992 ; 52525.99476550147 ; 261043.50319910806 ; 1281882.301510039 ; 0.0
28 ; 15360.046930295084 ; 53281.81111428232 ; 276139.142236313 ; 1334408.2962755405 ; 0.0
29 ; 15520.939876001017 ; 54068.97232289574 ; 291499.1891666081 ; 1387690.1073898228 ; 0.0
30 ; 15936.260263214564 ; 54886.07116774414 ; 307020.1290426091 ; 1441759.0797127185 ; 0.0
31 ; 16219.694803823224 ; 55731.73006819446 ; 322956.3893058237 ; 1496645.1508804627 ; 0.0
32 ; 16579.29833053296 ; 56604.606073497875 ; 339176.08410964697 ; 1552376.8809486572 ; 0.0
33 ; 16746.680452148306 ; 57503.39483835192 ; 355755.38244017994 ; 1608981.487022155 ; 0.0
34 ; 17104.864225195597 ; 58426.833678786425 ; 372502.06289232825 ; 1666484.881860507 ; 0.0
35 ; 17495.94765136301 ; 59373.703804820674 ; 389606.92711752385 ; 1724911.7155392934 ; 0.0
36 ; 17640.647521335588 ; 60342.83182712551 ; 407102.8747688869 ; 1784285.4193441141 ; 0.0
37 ; 17994.94615462843 ; 61333.090632622334 ; 424743.52229022246 ; 1844628.2511712397 ; 0.0
38 ; 18187.272020631222 ; 62343.399719384295 ; 442738.4684448509 ; 1905961.341803862 ; 0.0
39 ; 18547.347517977407 ; 63372.72507508267 ; 460925.7404654821 ; 1968304.7415232463 ; 0.0
40 ; 18817.24464147566 ; 64420.078676130885 ; 479473.0879834595 ; 2031677.466598329 ; 0.0
41 ; 19000.337663559647 ; 65484.517677108255 ; 498290.3326249352 ; 2096097.5452744598 ; 0.0
42 ; 19227.608450097767 ; 66565.14335235598 ; 517290.67028849485 ; 2161582.062951568 ; 0.0
43 ; 19501.519418667307 ; 67661.09984411499 ; 536518.2787385926 ; 2228147.206303924 ; 0.0
44 ; 19635.753629434552 ; 68771.5727644024 ; 556019.7981572599 ; 2295808.3061480387 ; 0.0
45 ; 20129.86520697354 ; 69895.7876911484 ; 575655.5517866944 ; 2364579.878912441 ; 0.0
46 ; 20018.4917100991 ; 71033.00859299202 ; 595785.416993668 ; 2434475.6666035894 ; 0.0
47 ; 20265.716051884036 ; 72182.5362116194 ; 615803.908703767 ; 2505508.6751965815 ; 0.0
48 ; 20576.68742634597 ; 73343.70642561055 ; 636069.624755651 ; 2577691.211408201 ; 0.0
49 ; 20775.045271457402 ; 74515.88861543425 ; 656646.312181997 ; 2651034.9178338116 ; 0.0
50 ; 20934.508094001394 ; 75698.48404546006 ; 677421.3574534544 ; 2725550.8064492457 ; 0.0
51 ; 21225.2440052121 ; 76890.92427559783 ; 698355.8655474558 ; 2801249.2904947056 ; 0.0
52 ; 21323.922556838465 ; 78092.66961239178 ; 719581.109552668 ; 2878140.2147703036 ; 0.0
53 ; 21508.21415815653 ; 79303.2076070305 ; 740905.0321095064 ; 2956232.8843826954 ; 0.0
54 ; 21610.211666886742 ; 80522.05160574574 ; 762413.246267663 ; 3035536.091989726 ; 0.0
55 ; 21735.838285879527 ; 81748.7393564149 ; 784023.4579345497 ; 3116058.1435954715 ; 0.0
56 ; 21879.105451776835 ; 82982.83167380965 ; 805759.2962204292 ; 3197806.8829518864 ; 0.0
57 ; 22231.649776123006 ; 84223.91116481165 ; 827638.4016722061 ; 3280789.714625696 ; 0.0
58 ; 22166.897399153695 ; 85471.58101400468 ; 849870.0514483291 ; 3365013.625790508 ; 0.0
59 ; 22279.708699262832 ; 86725.4638293264 ; 872036.9488474828 ; 3450485.2068045125 ; 0.0
60 ; 22574.04011807281 ; 87985.2005468878 ; 894316.6575467456 ; 3537210.670633839 ; 0.0
61 ; 22739.495757890203 ; 89250.4493936218 ; 916890.6976648184 ; 3625195.8711807267 ; 0.0
62 ; 22843.92428324783 ; 90520.8849060887 ; 939630.1934227085 ; 3714446.3205743483 ; 0.0
63 ; 23058.779087778108 ; 91796.19700351385 ; 962474.1177059563 ; 3804967.205480437 ; 0.0
64 ; 23116.404197412183 ; 93076.09011296397 ; 985532.8967937344 ; 3896763.402483951 ; 0.0
65 ; 23116.136272715336 ; 94360.28234445084 ; 1008649.3009911466 ; 3989839.492596915 ; 0.0
66 ; 23199.444324929427 ; 95648.5047136896 ; 1031765.4372638619 ; 4084199.7749413657 ; 0.0
67 ; 23318.648521123807 ; 96940.50041021148 ; 1054964.8815887913 ; 4179848.279655055 ; 0.0
68 ; 23323.4038554424 ; 98236.02410853887 ; 1078283.5301099152 ; 4276788.780065266 ; 0.0
69 ; 23523.972954027824 ; 99534.841320159 ; 1101606.9339653575 ; 4375024.804173805 ; 0.0
70 ; 23615.573022635715 ; 100836.72778408362 ; 1125130.9069193853 ; 4474559.645493964 ; 0.0
71 ; 23554.870629207544 ; 102141.46889384459 ; 1148746.479942021 ; 4575396.373278047 ; 0.0
72 ; 23725.380728925415 ; 103448.85915884943 ; 1172301.3505712284 ; 4677537.842171892 ; 0.0
73 ; 23739.388852510765 ; 104758.7016981031 ; 1196026.7313001538 ; 4780986.701330741 ; 0.0
74 ; 23797.05059425255 ; 106070.80776438629 ; 1219766.1201526646 ; 4885745.403028844 ; 0.0
75 ; 23950.136421649095 ; 107384.99629707134 ; 1243563.1707469171 ; 4991816.210793231 ; 0.0
76 ; 23735.494649584693 ; 108701.09350184516 ; 1267513.3071685662 ; 5099201.207090302 ; 0.0
77 ; 23815.57396678576 ; 110018.93245569887 ; 1291248.8018181508 ; 5207902.300592148 ; 0.0
78 ; 24062.698603939363 ; 111338.35273563255 ; 1315064.3757849366 ; 5317921.233047847 ; 0.0
79 ; 24089.612432896763 ; 112659.20006960804 ; 1339127.0743888759 ; 5429259.585783479 ; 0.0
80 ; 23924.037878410814 ; 113981.32600837007 ; 1363216.6868217727 ; 5541918.785853087 ; 0.0
81 ; 24088.156899466227 ; 115304.58761683253 ; 1387140.7247001836 ; 5655900.111861457 ; 0.0
82 ; 24018.6898212298 ; 116628.84718380841 ; 1411228.8815996498 ; 5771204.69947829 ; 0.0
83 ; 24166.17471182998 ; 117953.97194893386 ; 1435247.5714208796 ; 5887833.546662099 ; 0.0
84 ; 23985.327095643937 ; 119279.83384570731 ; 1459413.7461327096 ; 6005787.5186110325 ; 0.0
85 ; 23995.245338548706 ; 120606.30925963374 ; 1483399.0732283534 ; 6125067.35245674 ; 0.0
86 ; 24147.29945396529 ; 121933.2788005254 ; 1507394.318566902 ; 6245673.661716374 ; 0.0
87 ; 24016.763832934685 ; 123260.62708807204 ; 1531541.6180208675 ; 6367606.940516899 ; 0.0
88 ; 23919.108229562895 ; 124588.24254984861 ; 1555558.3818538021 ; 6490867.567604971 ; 0.0
89 ; 23808.693957657746 ; 125916.01723098471 ; 1579477.490083365 ; 6615455.81015482 ; 0.0
90 ; 23899.559429245128 ; 127243.8466147654 ; 1603286.1840410228 ; 6741371.827385805 ; 0.0
91 ; 23826.255178029904 ; 128571.62945348531 ; 1627185.7434702679 ; 6868615.67400057 ; 0.0
92 ; 23867.366805533096 ; 129899.26760891799 ; 1651011.9986482977 ; 6997187.3034540545 ; 0.0
93 ; 23742.04319268073 ; 131226.66590180589 ; 1674879.365453831 ; 7127086.571062973 ; 0.0
94 ; 23584.958225417427 ; 132553.73196981396 ; 1698621.4086465116 ; 7258313.236964779 ; 0.0
95 ; 23616.4258270444 ; 133880.37613342752 ; 1722206.366871929 ; 7390866.968934593 ; 0.0
96 ; 23503.168652548982 ; 135206.51126930653 ; 1745822.7926989733 ; 7524747.345068021 ; 0.0
97 ; 23443.398918827923 ; 136532.05269064236 ; 1769325.9613515222 ; 7659953.8563373275 ; 0.0
98 ; 23277.063743123133 ; 137856.91803409116 ; 1792769.3602703502 ; 7796485.909027969 ; 0.0
99 ; 23191.857605789428 ; 139181.02715288635 ; 1816046.4240134733 ; 7934342.827062061 ; 0.0
100 ; 23224.870214137 ; 140504.3020157575 ; 1839238.2816192626 ; 8073523.854214948 ; 0.0
101 ; 23081.99288655415 ; 141826.66661130873 ; 1862463.1518333997 ; 8214028.156230705 ; 0.0
102 ; 22884.510150274407 ; 143148.0468575294 ; 1885545.1447199539 ; 8355854.822842014 ; 0.0
103 ; 22790.741645080972 ; 144468.3705161338 ; 1908429.6548702284 ; 8499002.869699543 ; 0.0
104 ; 22779.960721614938 ; 145787.56711144373 ; 1931220.3965153093 ; 8643471.240215678 ; 0.0
105 ; 22443.6593607238 ; 147105.56785354737 ; 1954000.3572369243 ; 8789258.807327121 ; 0.0
106 ; 22382.31022508774 ; 148422.30556548442 ; 1976444.0165976482 ; 8936364.37518067 ; 0.0
107 ; 22274.01538161919 ; 149737.7146142231 ; 1998826.3268227358 ; 9084786.680746153 ; 0.0
108 ; 22025.225954784186 ; 151051.73084521 ; 2021100.342204355 ; 9234524.395360377 ; 0.0
109 ; 21947.00070017176 ; 152364.29152028685 ; 2043125.568159139 ; 9385576.126205586 ; 0.0
110 ; 21709.99939804475 ; 153675.3352587819 ; 2065072.5688593108 ; 9537940.417725872 ; 0.0
111 ; 21576.6424347215 ; 154984.8019815952 ; 2086782.5682573556 ; 9691615.752984654 ; 0.0
112 ; 21583.263286388923 ; 156292.63285810783 ; 2108359.210692077 ; 9846600.554966249 ; 0.0
113 ; 21237.56011184663 ; 157598.77025575706 ; 2129942.473978466 ; 1.0002893187824357E7 ; 0.0
114 ; 21100.055975326697 ; 158903.15769212757 ; 2151180.0340903127 ; 1.0160491958080115E7 ; 0.0
115 ; 20825.04544940729 ; 160205.7397894189 ; 2172280.0900656395 ; 1.0319395115772242E7 ; 0.0
116 ; 20569.505451998375 ; 161506.46223115802 ; 2193105.135515047 ; 1.047960085556166E7 ; 0.0
117 ; 20455.263641762765 ; 162805.27172103288 ; 2213674.640967045 ; 1.0641107317792818E7 ; 0.0
118 ; 20218.561559223228 ; 164102.1159437317 ; 2234129.9046088075 ; 1.0803912589513851E7 ; 0.0
119 ; 19965.573137009487 ; 165396.94352767826 ; 2254348.4661680306 ; 1.0968014705457583E7 ; 0.0
120 ; 19742.036071058923 ; 166689.7040095613 ; 2274314.03930504 ; 1.1133411648985261E7 ; 0.0
121 ; 19484.559390813745 ; 167980.347800561 ; 2294056.075376099 ; 1.1300101352994822E7 ; 0.0
122 ; 19375.688365118534 ; 169268.82615418267 ; 2313540.6347669126 ; 1.1468081700795382E7 ; 0.0
123 ; 19272.097666091795 ; 170555.09113561123 ; 2332916.323132031 ; 1.1637350526949566E7 ; 0.0
124 ; 18712.546169042686 ; 171839.09559250725 ; 2352188.420798123 ; 1.1807905618085178E7 ; 0.0
125 ; 18737.48361067582 ; 173120.79312716812 ; 2370900.9669671655 ; 1.1979744713677686E7 ; 0.0
126 ; 18477.63737832 ; 174400.13806998334 ; 2389638.450577841 ; 1.2152865506804854E7 ; 0.0
127 ; 18076.67796936654 ; 175677.0854541168 ; 2408116.0879561612 ; 1.2327265644874837E7 ; 0.0
128 ; 17835.363768176296 ; 176951.5909913531 ; 2426192.7659255276 ; 1.2502942730328955E7 ; 0.0
129 ; 17421.670233980327 ; 178223.61104904715 ; 2444028.1296937037 ; 1.2679894321320308E7 ; 0.0
130 ; 17136.964891786844 ; 179493.1026281222 ; 2461449.799927684 ; 1.2858117932369355E7 ; 0.0
131 ; 16969.95613507679 ; 180760.02334206208 ; 2478586.7648194707 ; 1.3037611034997478E7 ; 0.0
132 ; 16720.313669506475 ; 182024.3313968482 ; 2495556.7209545476 ; 1.321837105833954E7 ; 0.0
133 ; 16247.532345041254 ; 183285.98557179337 ; 2512277.034624054 ; 1.3400395389736388E7 ; 0.0
134 ; 16096.252951684437 ; 184544.94520122843 ; 2528524.5669690953 ; 1.3583681375308182E7 ; 0.0
135 ; 15853.622457924625 ; 185801.17015699914 ; 2544620.8199207797 ; 1.3768226320509411E7 ; 0.0
136 ; 15484.150768922724 ; 187054.62083173316 ; 2560474.4423787044 ; 1.395402749066641E7 ; 0.0
137 ; 15131.478746845749 ; 188305.25812284002 ; 2575958.593147627 ; 1.4141082111498144E7 ; 0.0
138 ; 14756.48316728367 ; 189553.0434172078 ; 2591090.071894473 ; 1.4329387369620984E7 ; 0.0
139 ; 14328.774876570102 ; 190797.93857656347 ; 2605846.5550617566 ; 1.4518940413038192E7 ; 0.0
140 ; 14236.469775708894 ; 192039.90592346416 ; 2620175.329938327 ; 1.4709738351614757E7 ; 0.0
141 ; 13613.930987926196 ; 193278.90822788986 ; 2634411.799714036 ; 1.490177825753822E7 ; 0.0
142 ; 13354.963038244958 ; 194514.9086944085 ; 2648025.730701962 ; 1.509505716576611E7 ; 0.0
143 ; 13023.063795755692 ; 195747.87094988674 ; 2661380.693740207 ; 1.528957207446052E7 ; 0.0
144 ; 12797.117954208734 ; 196977.75903172037 ; 2674403.7575359624 ; 1.5485319945410406E7 ; 0.0
145 ; 12647.70552473652 ; 198204.53737656015 ; 2687200.875490171 ; 1.5682297704442127E7 ; 0.0
146 ; 12633.640356050722 ; 199428.17080951034 ; 2699848.5810149075 ; 1.5880502241818687E7 ; 0.0
147 ; 12481.05942989634 ; 200648.62453377756 ; 2712482.2213709583 ; 1.6079930412628198E7 ; 0.0
148 ; 12399.431738988984 ; 201865.86412074981 ; 2724963.280800855 ; 1.6280579037161976E7 ; 0.0
149 ; 12199.740487979298 ; 203079.85550048543 ; 2737362.7125398437 ; 1.6482444901282726E7 ; 0.0
150 ; 12230.054854721257 ; 204290.56495259368 ; 2749562.453027823 ; 1.6685524756783212E7 ; 0.0
151 ; 11999.015067536006 ; 205497.95909748928 ; 2761792.5078825443 ; 1.6889815321735807E7 ; 0.0
152 ; 11923.406866055157 ; 206702.0048880038 ; 2773791.52295008 ; 1.7095313280833296E7 ; 0.0
153 ; 11786.949676468226 ; 207902.669601338 ; 2785714.929816135 ; 1.7302015285721302E7 ; 0.0
154 ; 11544.66260597531 ; 209099.9208313403 ; 2797501.8794926032 ; 1.7509917955322642E7 ; 0.0
155 ; 11551.37381073463 ; 210293.7264810964 ; 2809046.5420985785 ; 1.7719017876153983E7 ; 0.0
156 ; 11517.339504218146 ; 211484.05475581673 ; 2820597.915909313 ; 1.7929311602635078E7 ; 0.0
157 ; 11209.663431609868 ; 212670.87415600847 ; 2832115.2554135313 ; 1.8140795657390896E7 ; 0.0
158 ; 11168.432686209058 ; 213854.15347091982 ; 2843324.9188451413 ; 1.8353466531546906E7 ; 0.0
159 ; 11099.681788361848 ; 215033.86177224494 ; 2854493.3515313505 ; 1.8567320685017824E7 ; 0.0
160 ; 11005.476984529423 ; 216209.9684080777 ; 2865593.033319712 ; 1.878235454679007E7 ; 0.0
161 ; 10713.227489236458 ; 217382.4429971042 ; 2876598.5103042414 ; 1.899856451519815E7 ; 0.0
162 ; 10641.865819936433 ; 218551.25542302383 ; 2887311.7377934777 ; 1.9215946958195254E7 ; 0.0
163 ; 10391.35443705866 ; 219716.37582918847 ; 2897953.6036134143 ; 1.943449821361828E7 ; 0.0
164 ; 10322.701179524043 ; 220877.77461345142 ; 2908344.958050473 ; 1.965421458944747E7 ; 0.0
165 ; 10199.770735489143 ; 222035.42242321675 ; 2918667.659229997 ; 1.987509236406092E7 ; 0.0
166 ; 10054.141923073574 ; 223189.2901506814 ; 2928867.4299654863 ; 2.0097127786484137E7 ; 0.0
167 ; 9990.927263520505 ; 224339.34892826047 ; 2938921.57188856 ; 2.0320317076634817E7 ; 0.0
168 ; 9836.162793105645 ; 225485.57012419018 ; 2948912.4991520806 ; 2.054465642556308E7 ; 0.0
169 ; 9736.113903338502 ; 226627.92533829922 ; 2958748.661945186 ; 2.077014199568727E7 ; 0.0
170 ; 9514.5062441832 ; 227766.386397943 ; 2968484.7758485246 ; 2.0996769921025567E7 ; 0.0
171 ; 9284.019554482531 ; 228900.92535409355 ; 2977999.2820927077 ; 2.122453630742351E7 ; 0.0
172 ; 8992.87496015278 ; 230031.5144775787 ; 2987283.30164719 ; 2.1453437232777603E7 ; 0.0
173 ; 8998.651757182011 ; 231158.1262554645 ; 2996276.176607343 ; 2.168346874725518E7 ; 0.0
174 ; 9030.959225284805 ; 232280.73338757554 ; 3005274.828364525 ; 2.1914626873510644E7 ; 0.0
175 ; 9161.395250562919 ; 233399.3087831472 ; 3014305.78758981 ; 2.214690760689822E7 ; 0.0
176 ; 9128.269796103723 ; 234513.82555760446 ; 3023467.182840373 ; 2.2380306915681366E7 ; 0.0
177 ; 9124.722621861136 ; 235624.257029463 ; 3032595.4526364766 ; 2.261482074123897E7 ; 0.0
178 ; 9244.895306555614 ; 236730.5767173469 ; 3041720.1752583375 ; 2.2850444998268433E7 ; 0.0
179 ; 9333.088427029674 ; 237832.75833711858 ; 3050965.070564893 ; 2.308717557498578E7 ; 0.0
180 ; 9201.4867572913 ; 238930.7757991171 ; 3060298.1589919226 ; 2.3325008333322898E7 ; 0.0
181 ; 9322.308794882796 ; 240024.60320549997 ; 3069499.645749214 ; 2.3563939109122016E7 ; 0.0
182 ; 9342.753037610792 ; 241114.21484768472 ; 3078821.9545440967 ; 2.3803963712327514E7 ; 0.0
183 ; 9508.841552004378 ; 242199.5852038862 ; 3088164.7075817077 ; 2.4045077927175198E7 ; 0.0
184 ; 9272.118214618942 ; 243280.68893674636 ; 3097673.549133712 ; 2.4287277512379084E7 ; 0.0
185 ; 9359.65748760281 ; 244357.50089105245 ; 3106945.667348331 ; 2.453055820131583E7 ; 0.0
186 ; 9492.497623829171 ; 245429.99609154038 ; 3116305.3248359337 ; 2.4774915702206884E7 ; 0.0
187 ; 9427.504070192394 ; 246498.14974078065 ; 3125797.822459763 ; 2.5020345698298424E7 ; 0.0
188 ; 9553.415825735241 ; 247561.9372171421 ; 3135225.3265299555 ; 2.5266843848039206E7 ; 0.0
189 ; 9593.759876361964 ; 248621.33407283307 ; 3144778.742355691 ; 2.551440578525635E7 ; 0.0
190 ; 9513.796182625836 ; 249676.3160320142 ; 3154372.502232053 ; 2.576302711932918E7 ; 0.0
191 ; 9666.553241322483 ; 250726.8589889827 ; 3163886.298414679 ; 2.6012703435361195E7 ; 0.0
192 ; 9657.4980943074 ; 251772.93900642358 ; 3173552.851656001 ; 2.6263430294350177E7 ; 0.0
193 ; 9672.692362882488 ; 252814.5323137263 ; 3183210.3497503083 ; 2.6515203233356602E7 ; 0.0
194 ; 9770.415193069417 ; 253851.6153053648 ; 3192883.042113191 ; 2.676801776567033E7 ; 0.0
195 ; 9791.476179812817 ; 254884.16453933693 ; 3202653.4573062602 ; 2.7021869380975693E7 ; 0.0
196 ; 9773.425733657441 ; 255912.15673566295 ; 3212444.9334860733 ; 2.727675354551503E7 ; 0.0
197 ; 9805.478052779259 ; 256935.56877494007 ; 3222218.359219731 ; 2.7532665702250693E7 ; 0.0
198 ; 9893.328470683175 ; 257954.37769695054 ; 3232023.83727251 ; 2.778960127102563E7 ; 0.0
199 ; 9829.66620222109 ; 258968.56069932267 ; 3241917.165743193 ; 2.804755564872258E7 ; 0.0
200 ; 9920.438452888073 ; 259978.0951362413 ; 3251746.831945414 ; 2.8306524209421903E7 ; 0.0
201 ; 9858.596150258554 ; 260982.95851720712 ; 3261667.2703983025 ; 2.8566502304558143E7 ; 0.0
202 ; 9937.622068294531 ; 261983.12850584253 ; 3271525.866548561 ; 2.882748526307535E7 ; 0.0
203 ; 10094.488309136925 ; 262978.58291874273 ; 3281463.4886168553 ; 2.9089468391581193E7 ; 0.0
204 ; 10101.002523572983 ; 263969.29972436937 ; 3291557.9769259924 ; 2.9352446974499937E7 ; 0.0
205 ; 10245.335491464994 ; 264955.2570419873 ; 3301658.9794495655 ; 2.9616416274224307E7 ; 0.0
206 ; 10118.91745519056 ; 265936.4331406408 ; 3311904.3149410305 ; 2.9881371531266294E7 ; 0.0
207 ; 10248.682329672318 ; 266912.8064381685 ; 3322023.232396221 ; 3.0147307964406934E7 ; 0.0
208 ; 10235.943517146754 ; 267884.3555002568 ; 3332271.914725893 ; 3.04142207708451E7 ; 0.0
209 ; 10164.90938632763 ; 268851.0590395287 ; 3342507.85824304 ; 3.068210512634536E7 ; 0.0
210 ; 10223.15043754968 ; 269812.8959146679 ; 3352672.7676293673 ; 3.095095618538489E7 ; 0.0
211 ; 10347.827748758402 ; 270769.84512957634 ; 3362895.918066917 ; 3.1220769081299555E7 ; 0.0
212 ; 10260.74011061582 ; 271721.88583256485 ; 3373243.7458156752 ; 3.149153892642913E7 ; 0.0
