CSV File for the City 3 on Day 196
1 - Minute m 
2 - Power Consumed at minute m 
3 - Power Produced at minute m 
4 - Energy Consumed since the beginning of the day 
5 - Energy Produced since the beginning of the day 
6 - Energy Lost since the beginning of the day on lines starting from the city
 
0 ; 3914.4881859986685 ; 64969.71717006499 ; 0.0 ; 0.0 ; 0.0
1 ; 4512.446883013974 ; 64586.95533347192 ; 3914.4881859986685 ; 64969.71717006499 ; 0.0
2 ; 5071.456069495538 ; 64242.47223442463 ; 8426.935069012643 ; 129556.67250353692 ; 0.0
3 ; 5486.126051902505 ; 63936.913027314935 ; 13498.391138508181 ; 193799.14473796156 ; 0.0
4 ; 5900.133238456339 ; 63670.86152970627 ; 18984.517190410686 ; 257736.0577652765 ; 0.0
5 ; 6350.222812874578 ; 63444.83513770678 ; 24884.650428867026 ; 321406.91929498274 ; 0.0
6 ; 6808.542570288578 ; 63259.2801778909 ; 31234.873241741603 ; 384851.7544326895 ; 0.0
7 ; 7229.793059496242 ; 63114.56778968519 ; 38043.41581203018 ; 448111.0346105804 ; 0.0
8 ; 7722.100022060887 ; 63010.99042471776 ; 45273.208871526425 ; 511225.60240026563 ; 0.0
9 ; 8023.368788461598 ; 62948.75903904361 ; 52995.30889358731 ; 574236.5928249834 ; 0.0
10 ; 8457.051525800853 ; 62928.001040692536 ; 61018.67768204891 ; 637185.351864027 ; 0.0
11 ; 8940.809354993147 ; 62948.75903904361 ; 69475.72920784977 ; 700113.3529047195 ; 0.0
12 ; 9298.686270218503 ; 63010.99042471776 ; 78416.53856284292 ; 763062.1119437631 ; 0.0
13 ; 9732.171111961414 ; 63114.56778968519 ; 87715.22483306142 ; 826073.1023684809 ; 0.0
14 ; 10120.374177230504 ; 63259.28017789082 ; 97447.39594502284 ; 889187.6701581661 ; 0.0
15 ; 10401.010064703067 ; 63444.83513770678 ; 107567.77012225335 ; 952446.9503360569 ; 0.0
16 ; 10812.049822385143 ; 63670.86152970627 ; 117968.78018695641 ; 1015891.7854737637 ; 0.0
17 ; 11204.680693666798 ; 63936.91302731487 ; 128780.83000934156 ; 1079562.64700347 ; 0.0
18 ; 11409.775895617537 ; 64242.4722344247 ; 139985.51070300836 ; 1143499.560030785 ; 0.0
19 ; 11776.166073885246 ; 64586.955333471844 ; 151395.28659862588 ; 1207742.0322652096 ; 0.0
20 ; 12147.6577748387 ; 64969.71717006506 ; 163171.45267251114 ; 1272328.9875986814 ; 0.0
21 ; 12572.7640105925 ; 65390.05667607985 ; 175319.11044734984 ; 1337298.7047687464 ; 0.0
22 ; 12862.633197812755 ; 65847.22253213795 ; 187891.87445794235 ; 1402688.7614448261 ; 0.0
23 ; 13309.228794445615 ; 66340.41897234929 ; 200754.5076557551 ; 1468535.9839769641 ; 0.0
24 ; 13666.56233217256 ; 66868.8116387538 ; 214063.7364502007 ; 1534876.4029493134 ; 0.0
25 ; 14002.817006310355 ; 67431.53339964859 ; 227730.29878237325 ; 1601745.2145880673 ; 0.0
26 ; 14353.924590019638 ; 68027.69005442807 ; 241733.11578868362 ; 1669176.7479877158 ; 0.0
27 ; 14486.56675983533 ; 68656.36585721493 ; 256087.04037870324 ; 1737204.4380421438 ; 0.0
28 ; 14934.666851110824 ; 69316.62880192685 ; 270573.60713853856 ; 1805860.8038993587 ; 0.0
29 ; 15116.815332181424 ; 70007.53562206248 ; 285508.2739896494 ; 1875177.4327012855 ; 0.0
30 ; 15294.018944021405 ; 70728.13646900056 ; 300625.0893218308 ; 1945184.9683233479 ; 0.0
31 ; 15794.080237532855 ; 71477.47924267066 ; 315919.1082658522 ; 2015913.1047923483 ; 0.0
32 ; 15982.617110185669 ; 72254.61355780117 ; 331713.18850338506 ; 2087390.584035019 ; 0.0
33 ; 16190.314846424753 ; 73058.59433740689 ; 347695.80561357073 ; 2159645.19759282 ; 0.0
34 ; 16538.057488708513 ; 73888.48503261888 ; 363886.12045999547 ; 2232703.791930227 ; 0.0
35 ; 16751.092202844604 ; 74743.36047432417 ; 380424.177948704 ; 2306592.276962846 ; 0.0
36 ; 17219.771795244622 ; 75622.30936736817 ; 397175.2701515486 ; 2381335.6374371704 ; 0.0
37 ; 17293.269308638002 ; 76524.43644230679 ; 414395.0419467932 ; 2456957.9468045384 ; 0.0
38 ; 17534.968446376868 ; 77448.86428294494 ; 431688.3112554312 ; 2533482.383246845 ; 0.0
39 ; 17892.16518438193 ; 78394.73485024848 ; 449223.27970180806 ; 2610931.24752979 ; 0.0
40 ; 18026.752782719457 ; 79361.21072476509 ; 467115.44488619 ; 2689325.982380038 ; 0.0
41 ; 18216.003801207728 ; 80347.47609054734 ; 485142.19766890944 ; 2768687.193104803 ; 0.0
42 ; 18456.54087732434 ; 81352.73748383661 ; 503358.2014701172 ; 2849034.6691953503 ; 0.0
43 ; 18881.37790546797 ; 82376.22432955298 ; 521814.74234744156 ; 2930387.406679187 ; 0.0
44 ; 18872.00846039931 ; 83417.18928803093 ; 540696.1202529095 ; 3012763.63100874 ; 0.0
45 ; 19209.00938195519 ; 84474.90843353975 ; 559568.1287133088 ; 3096180.820296771 ; 0.0
46 ; 19339.944293386307 ; 85548.68128500272 ; 578777.138095264 ; 3180655.7287303107 ; 0.0
47 ; 19592.569963638547 ; 86637.83070805254 ; 598117.0823886503 ; 3266204.4100153134 ; 0.0
48 ; 19879.116090287618 ; 87741.70270618792 ; 617709.6523522888 ; 3352842.240723366 ; 0.0
49 ; 19896.973803553898 ; 88859.66611737567 ; 637588.7684425764 ; 3440583.943429554 ; 0.0
50 ; 20328.648748798936 ; 89991.11223101398 ; 657485.7422461302 ; 3529443.6095469296 ; 0.0
51 ; 20441.179013804885 ; 91135.45433876223 ; 677814.3909949292 ; 3619434.7217779434 ; 0.0
52 ; 20500.686408101803 ; 92292.12723138327 ; 698255.5700087341 ; 3710570.176116706 ; 0.0
53 ; 20690.629893563662 ; 93460.58665244016 ; 718756.2564168359 ; 3802862.303348089 ; 0.0
54 ; 20721.881782329885 ; 94640.30871846467 ; 739446.8863103996 ; 3896322.890000529 ; 0.0
55 ; 21187.525531664323 ; 95830.78931407 ; 760168.7680927295 ; 3990963.198718994 ; 0.0
56 ; 21244.6660403985 ; 97031.54346942318 ; 781356.2936243939 ; 4086793.9880330637 ; 0.0
57 ; 21327.93534632754 ; 98242.10472652008 ; 802600.9596647924 ; 4183825.5315024867 ; 0.0
58 ; 21493.540806754536 ; 99462.02449982383 ; 823928.8950111199 ; 4282067.636229007 ; 0.0
59 ; 21721.100074806214 ; 100690.87143602918 ; 845422.4358178744 ; 4381529.660728831 ; 0.0
60 ; 21667.480316890025 ; 101928.230776994 ; 867143.5358926806 ; 4482220.53216486 ; 0.0
61 ; 21923.42637041395 ; 103173.70372924006 ; 888811.0162095707 ; 4584148.762941853 ; 0.0
62 ; 21987.99078488355 ; 104426.90684285287 ; 910734.4425799847 ; 4687322.466671093 ; 0.0
63 ; 22063.44572586786 ; 105687.47140210633 ; 932722.4333648682 ; 4791749.373513946 ; 0.0
64 ; 22209.376059691305 ; 106955.0428296931 ; 954785.879090736 ; 4897436.844916052 ; 0.0
65 ; 22442.481625157343 ; 108229.28010605538 ; 976995.2551504273 ; 5004391.8877457455 ; 0.0
66 ; 22471.60707889027 ; 109509.855204969 ; 999437.7367755846 ; 5112621.167851801 ; 0.0
67 ; 22474.444426545942 ; 110796.45254624436 ; 1021909.343854475 ; 5222131.02305677 ; 0.0
68 ; 22489.568614940144 ; 112088.76846615248 ; 1044383.7882810209 ; 5332927.475603014 ; 0.0
69 ; 22619.41927439871 ; 113386.51070596954 ; 1066873.356895961 ; 5445016.2440691665 ; 0.0
70 ; 22858.41403585573 ; 114689.39791884994 ; 1089492.77617036 ; 5558402.754775136 ; 0.0
71 ; 22805.26974088314 ; 115997.15919507976 ; 1112351.1902062157 ; 5673092.152693986 ; 0.0
72 ; 22850.22709469214 ; 117309.53360563534 ; 1135156.4599470987 ; 5789089.311889065 ; 0.0
73 ; 22846.466794762004 ; 118626.26976386084 ; 1158006.687041791 ; 5906398.845494701 ; 0.0
74 ; 22887.47432627324 ; 119947.12540499022 ; 1180853.153836553 ; 6025025.115258561 ; 0.0
75 ; 23089.76075796654 ; 121271.8669831666 ; 1203740.6281628262 ; 6144972.240663552 ; 0.0
76 ; 22995.01163888556 ; 122600.2692855543 ; 1226830.3889207926 ; 6266244.107646719 ; 0.0
77 ; 23156.01083700487 ; 123932.11506309194 ; 1249825.4005596782 ; 6388844.376932273 ; 0.0
78 ; 23107.738836024208 ; 125267.19467740366 ; 1272981.4113966832 ; 6512776.491995364 ; 0.0
79 ; 23203.714111993148 ; 126605.305763355 ; 1296089.1502327074 ; 6638043.686672768 ; 0.0
80 ; 23237.30617001497 ; 127946.25290672849 ; 1319292.8643447005 ; 6764648.992436123 ; 0.0
81 ; 23009.151468005988 ; 129289.84733647737 ; 1342530.1705147154 ; 6892595.245342852 ; 0.0
82 ; 23212.872010445437 ; 130635.90663101498 ; 1365539.3219827213 ; 7021885.092679329 ; 0.0
83 ; 23048.083559425893 ; 131984.25443799456 ; 1388752.1939931668 ; 7152520.999310344 ; 0.0
84 ; 23238.969971898463 ; 133334.7202070377 ; 1411800.2775525926 ; 7284505.253748339 ; 0.0
85 ; 23187.952625397695 ; 134687.13893487735 ; 1435039.247524491 ; 7417839.973955376 ; 0.0
86 ; 23174.122016872472 ; 136041.350922389 ; 1458227.2001498886 ; 7552527.112890254 ; 0.0
87 ; 23178.318753149335 ; 137397.20154299622 ; 1481401.3221667612 ; 7688568.463812643 ; 0.0
88 ; 22989.361529272093 ; 138754.5410219481 ; 1504579.6409199105 ; 7825965.665355639 ; 0.0
89 ; 23155.89790332887 ; 140113.22422598294 ; 1527569.0024491826 ; 7964720.206377586 ; 0.0
90 ; 23065.61032541889 ; 141473.11046290395 ; 1550724.9003525113 ; 8104833.430603569 ; 0.0
91 ; 22874.567395369417 ; 142834.06329061175 ; 1573790.5106779302 ; 8246306.541066473 ; 0.0
92 ; 22932.567599369962 ; 144195.95033515355 ; 1596665.0780732997 ; 8389140.604357084 ; 0.0
93 ; 22933.428370949056 ; 145558.6431173643 ; 1619597.6456726696 ; 8533336.554692239 ; 0.0
94 ; 22717.46999722824 ; 146922.01688769387 ; 1642531.0740436187 ; 8678895.197809603 ; 0.0
95 ; 22646.707300555372 ; 148285.95046882855 ; 1665248.544040847 ; 8825817.214697298 ; 0.0
96 ; 22700.700731027508 ; 149650.3261057335 ; 1687895.2513414025 ; 8974103.165166127 ; 0.0
97 ; 22719.056292021385 ; 151015.02932275707 ; 1710595.95207243 ; 9123753.49127186 ; 0.0
98 ; 22513.067103670866 ; 152379.94878745527 ; 1733315.0083644514 ; 9274768.520594617 ; 0.0
99 ; 22425.667369549057 ; 153744.97618080897 ; 1755828.0754681223 ; 9427148.469382072 ; 0.0
100 ; 22339.80820939278 ; 155110.006073522 ; 1778253.7428376714 ; 9580893.44556288 ; 0.0
101 ; 22099.41632204284 ; 156474.93580810254 ; 1800593.5510470641 ; 9736003.451636402 ; 0.0
102 ; 22004.594375114935 ; 157839.66538644387 ; 1822692.967369107 ; 9892478.387444504 ; 0.0
103 ; 21812.23879170855 ; 159204.0973626353 ; 1844697.561744222 ; 1.0050318052830948E7 ; 0.0
104 ; 21958.365385780122 ; 160568.1367407455 ; 1866509.8005359306 ; 1.0209522150193583E7 ; 0.0
105 ; 21554.732871039036 ; 161931.6908773342 ; 1888468.1659217107 ; 1.037009028693433E7 ; 0.0
106 ; 21739.631215797657 ; 163294.66938845947 ; 1910022.8987927497 ; 1.0532021977811662E7 ; 0.0
107 ; 21417.570322294017 ; 164656.98406096027 ; 1931762.5300085475 ; 1.0695316647200122E7 ; 0.0
108 ; 21401.006066545044 ; 166018.54876780283 ; 1953180.1003308415 ; 1.0859973631261082E7 ; 0.0
109 ; 20879.549912327257 ; 167379.27938729286 ; 1974581.1063973866 ; 1.1025992180028886E7 ; 0.0
110 ; 21122.819103439448 ; 168739.09372596323 ; 1995460.6563097138 ; 1.1193371459416179E7 ; 0.0
111 ; 20753.28362811774 ; 170097.9114449573 ; 2016583.4754131532 ; 1.1362110553142142E7 ; 0.0
112 ; 20698.07268769843 ; 171455.65398973698 ; 2037336.759041271 ; 1.1532208464587098E7 ; 0.0
113 ; 20481.686645887385 ; 172812.2445229531 ; 2058034.8317289695 ; 1.1703664118576836E7 ; 0.0
114 ; 20233.106012981894 ; 174167.60786032482 ; 2078516.5183748568 ; 1.187647636309979E7 ; 0.0
115 ; 20173.63714415721 ; 175521.6704093809 ; 2098749.624387839 ; 1.2050643970960114E7 ; 0.0
116 ; 20046.748566041035 ; 176874.3601109246 ; 2118923.261531996 ; 1.2226165641369496E7 ; 0.0
117 ; 19630.749846781866 ; 178225.60638309116 ; 2138970.0100980373 ; 1.2403040001480421E7 ; 0.0
118 ; 19665.068404865844 ; 179575.34006787091 ; 2158600.7599448194 ; 1.2581265607863512E7 ; 0.0
119 ; 19330.409029331764 ; 180923.49337998233 ; 2178265.8283496853 ; 1.2760840947931383E7 ; 0.0
120 ; 19119.964341710667 ; 182269.9998579796 ; 2197596.2373790173 ; 1.2941764441311365E7 ; 0.0
121 ; 18945.650790636253 ; 183614.79431748975 ; 2216716.201720728 ; 1.3124034441169344E7 ; 0.0
122 ; 18783.12401654941 ; 184957.81280647748 ; 2235661.8525113645 ; 1.3307649235486833E7 ; 0.0
123 ; 18475.16197125893 ; 186298.9925624407 ; 2254444.976527914 ; 1.3492607048293311E7 ; 0.0
124 ; 18318.950417306834 ; 187638.27197144672 ; 2272920.138499173 ; 1.3678906040855752E7 ; 0.0
125 ; 18042.941837380895 ; 188975.59052892117 ; 2291239.0889164796 ; 1.38665443128272E7 ; 0.0
126 ; 17836.503158106127 ; 190310.88880210803 ; 2309282.0307538607 ; 1.405551990335612E7 ; 0.0
127 ; 17594.732522046947 ; 191644.10839412222 ; 2327118.5339119667 ; 1.4245830792158227E7 ; 0.0
128 ; 17435.236669084028 ; 192975.19190952065 ; 2344713.266434014 ; 1.443747490055235E7 ; 0.0
129 ; 17086.933580499677 ; 194304.08292132147 ; 2362148.503103098 ; 1.463045009246187E7 ; 0.0
130 ; 16719.178764895107 ; 195630.72593940352 ; 2379235.4366835975 ; 1.482475417538319E7 ; 0.0
131 ; 16466.604545955975 ; 196955.066380224 ; 2395954.6154484926 ; 1.5020384901322594E7 ; 0.0
132 ; 16174.080373190076 ; 198277.05053779212 ; 2412421.2199944486 ; 1.5217339967702817E7 ; 0.0
133 ; 16048.081647545368 ; 199596.62555584285 ; 2428595.3003676385 ; 1.541561701824061E7 ; 0.0
134 ; 15547.262574850287 ; 200913.73940115492 ; 2444643.382015184 ; 1.5615213643796453E7 ; 0.0
135 ; 15418.945490312242 ; 202228.34083796202 ; 2460190.644590034 ; 1.5816127383197607E7 ; 0.0
136 ; 15081.261517254668 ; 203540.37940340742 ; 2475609.5900803464 ; 1.601835572403557E7 ; 0.0
137 ; 14701.554268794529 ; 204849.80538399523 ; 2490690.851597601 ; 1.6221896103438977E7 ; 0.0
138 ; 14530.603972749894 ; 206156.56979299372 ; 2505392.4058663957 ; 1.6426745908822972E7 ; 0.0
139 ; 14148.908121792489 ; 207460.62434874824 ; 2519923.0098391455 ; 1.6632902478615966E7 ; 0.0
140 ; 13868.77875916052 ; 208761.92145386332 ; 2534071.917960938 ; 1.6840363102964714E7 ; 0.0
141 ; 13501.741259464558 ; 210060.41417521547 ; 2547940.6967200986 ; 1.7049125024418578E7 ; 0.0
142 ; 13199.188864605334 ; 211356.05622476028 ; 2561442.437979563 ; 1.7259185438593794E7 ; 0.0
143 ; 12786.42995877548 ; 212648.80194109937 ; 2574641.6268441686 ; 1.7470541494818553E7 ; 0.0
144 ; 12511.491336681198 ; 213938.60627177297 ; 2587428.0568029443 ; 1.7683190296759654E7 ; 0.0
145 ; 12404.546125074938 ; 215225.42475624764 ; 2599939.5481396257 ; 1.7897128903031427E7 ; 0.0
146 ; 12342.292056161166 ; 216509.2135095689 ; 2612344.0942647005 ; 1.8112354327787675E7 ; 0.0
147 ; 12167.514934916984 ; 217789.9292066496 ; 2624686.3863208615 ; 1.8328863541297242E7 ; 0.0
148 ; 12235.046876973616 ; 219067.52906716763 ; 2636853.9012557785 ; 1.8546653470503893E7 ; 0.0
149 ; 12044.934819865148 ; 220341.97084104616 ; 2649088.948132752 ; 1.876572099957106E7 ; 0.0
150 ; 11826.657796664704 ; 221613.212794492 ; 2661133.882952617 ; 1.8986062970412105E7 ; 0.0
151 ; 11700.23457093653 ; 222881.2136965689 ; 2672960.5407492816 ; 1.9207676183206595E7 ; 0.0
152 ; 11605.77429854161 ; 224145.93280628242 ; 2684660.775320218 ; 1.9430557396903165E7 ; 0.0
153 ; 11530.899680674858 ; 225407.32986015582 ; 2696266.5496187597 ; 1.9654703329709448E7 ; 0.0
154 ; 11314.47810597883 ; 226665.36506027533 ; 2707797.4492994347 ; 1.9880110659569602E7 ; 0.0
155 ; 11522.95268256207 ; 227919.9990627871 ; 2719111.9274054137 ; 2.0106776024629876E7 ; 0.0
156 ; 11281.147665661721 ; 229171.19296682515 ; 2730634.880087976 ; 2.0334696023692664E7 ; 0.0
157 ; 11012.813476324329 ; 230418.90830385388 ; 2741916.0277536376 ; 2.056386721665949E7 ; 0.0
158 ; 10977.05946831784 ; 231663.10702740756 ; 2752928.841229962 ; 2.0794286124963343E7 ; 0.0
159 ; 10893.93550035387 ; 232903.75150321124 ; 2763905.90069828 ; 2.102594923199075E7 ; 0.0
160 ; 10780.486472410608 ; 234140.80449966673 ; 2774799.836198634 ; 2.125885298349396E7 ; 0.0
161 ; 10516.707856946165 ; 235374.22917868936 ; 2785580.3226710446 ; 2.149299378799363E7 ; 0.0
162 ; 10572.907011012547 ; 236603.98908688157 ; 2796097.030527991 ; 2.1728368017172318E7 ; 0.0
163 ; 10383.428768353768 ; 237830.04814702933 ; 2806669.9375390033 ; 2.19649720062592E7 ; 0.0
164 ; 10265.730453216014 ; 239052.3706499089 ; 2817053.366307357 ; 2.220280205440623E7 ; 0.0
165 ; 10021.544756217623 ; 240270.92124639152 ; 2827319.096760573 ; 2.2441854425056137E7 ; 0.0
166 ; 9939.971051510049 ; 241485.66493983404 ; 2837340.6415167903 ; 2.2682125346302528E7 ; 0.0
167 ; 9852.780008293557 ; 242696.56707874456 ; 2847280.6125683 ; 2.2923611011242364E7 ; 0.0
168 ; 9777.352501178195 ; 243903.59334971188 ; 2857133.392576594 ; 2.3166307578321107E7 ; 0.0
169 ; 9493.882160500698 ; 245106.70977058876 ; 2866910.745077772 ; 2.3410211171670817E7 ; 0.0
170 ; 9410.872254544509 ; 246305.88268391916 ; 2876404.6272382727 ; 2.3655317881441407E7 ; 0.0
171 ; 9325.551721969665 ; 247501.07875059987 ; 2885815.499492817 ; 2.3901623764125325E7 ; 0.0
172 ; 9165.91436319797 ; 248692.26494376737 ; 2895141.0512147867 ; 2.4149124842875924E7 ; 0.0
173 ; 9117.865588818071 ; 249879.4085429013 ; 2904306.9655779847 ; 2.439781710781969E7 ; 0.0
174 ; 8940.243228540156 ; 251062.477128137 ; 2913424.831166803 ; 2.4647696516362593E7 ; 0.0
175 ; 8953.433157355938 ; 252241.43857477768 ; 2922365.074395343 ; 2.489875899349073E7 ; 0.0
176 ; 8993.647353961833 ; 253416.2610480002 ; 2931318.507552699 ; 2.5151000432065506E7 ; 0.0
177 ; 9149.143267782918 ; 254586.912997746 ; 2940312.1549066612 ; 2.5404416693113506E7 ; 0.0
178 ; 9161.768069860156 ; 255753.36315379106 ; 2949461.298174444 ; 2.565900360611125E7 ; 0.0
179 ; 9131.911451592076 ; 256915.58052098737 ; 2958623.066244304 ; 2.5914756969265044E7 ; 0.0
180 ; 9051.420946196904 ; 258073.5343746705 ; 2967754.9776958963 ; 2.617167254978603E7 ; 0.0
181 ; 9268.038322787186 ; 259227.19425622578 ; 2976806.3986420934 ; 2.64297460841607E7 ; 0.0
182 ; 9154.167576063837 ; 260376.52996880873 ; 2986074.4369648807 ; 2.6688973278416928E7 ; 0.0
183 ; 9225.903372303634 ; 261521.511573213 ; 2995228.6045409446 ; 2.6949349808385737E7 ; 0.0
184 ; 9378.984572087695 ; 262662.1093838807 ; 3004454.507913248 ; 2.721087131995895E7 ; 0.0
185 ; 9236.541264269146 ; 263798.2939650496 ; 3013833.492485336 ; 2.7473533429342832E7 ; 0.0
186 ; 9353.24996447646 ; 264930.0361270338 ; 3023070.033749605 ; 2.773733172330788E7 ; 0.0
187 ; 9391.888064561084 ; 266057.30692262994 ; 3032423.2837140816 ; 2.8002261759434916E7 ; 0.0
188 ; 9376.492793829782 ; 267180.07764364785 ; 3041815.1717786426 ; 2.8268319066357546E7 ; 0.0
189 ; 9511.756969117336 ; 268298.3198175585 ; 3051191.664572472 ; 2.8535499144001193E7 ; 0.0
190 ; 9449.18774744693 ; 269412.00520425703 ; 3060703.42154159 ; 2.880379746381875E7 ; 0.0
191 ; 9640.511062284828 ; 270521.10579293506 ; 3070152.6092890366 ; 2.9073209469023008E7 ; 0.0
192 ; 9576.562183916652 ; 271625.5937990593 ; 3079793.1203513215 ; 2.9343730574815944E7 ; 0.0
193 ; 9554.85053361926 ; 272725.4416614532 ; 3089369.682535238 ; 2.9615356168615002E7 ; 0.0
194 ; 9687.548868375881 ; 273820.6220394764 ; 3098924.533068857 ; 2.9888081610276457E7 ; 0.0
195 ; 9723.510530618407 ; 274911.1078103002 ; 3108612.081937233 ; 3.0161902232315935E7 ; 0.0
196 ; 9636.170663900111 ; 275996.87206627463 ; 3118335.5924678515 ; 3.0436813340126235E7 ; 0.0
197 ; 9703.847348654304 ; 277077.8881123845 ; 3127971.7631317517 ; 3.071281021219251E7 ; 0.0
198 ; 9669.557490227264 ; 278154.1294637908 ; 3137675.610480406 ; 3.0989888100304894E7 ; 0.0
199 ; 9884.132042832955 ; 279225.5698434551 ; 3147345.167970633 ; 3.1268042229768686E7 ; 0.0
200 ; 9847.08358733642 ; 280292.18317984365 ; 3157229.3000134663 ; 3.1547267799612142E7 ; 0.0
201 ; 9851.481783481488 ; 281353.9436047082 ; 3167076.3836008026 ; 3.1827559982791986E7 ; 0.0
202 ; 9889.34318379029 ; 282410.8254509418 ; 3176927.865384284 ; 3.2108913926396694E7 ; 0.0
203 ; 9958.355551771296 ; 283462.8032505065 ; 3186817.2085680743 ; 3.2391324751847636E7 ; 0.0
204 ; 9966.167596415376 ; 284509.8517324296 ; 3196775.5641198456 ; 3.2674787555098142E7 ; 0.0
205 ; 10083.644398455084 ; 285551.94582086796 ; 3206741.731716261 ; 3.295929740683057E7 ; 0.0
206 ; 9980.848988098553 ; 286589.06063323654 ; 3216825.376114716 ; 3.324484935265144E7 ; 0.0
207 ; 9905.432444994269 ; 287621.1714783998 ; 3226806.2251028144 ; 3.3531438413284674E7 ; 0.0
208 ; 9977.95000165374 ; 288648.25385492336 ; 3236711.6575478087 ; 3.381905958476307E7 ; 0.0
209 ; 10053.705023932225 ; 289670.2834493842 ; 3246689.6075494625 ; 3.4107707838617995E7 ; 0.0
210 ; 10016.692539579883 ; 290687.2361347376 ; 3256743.3125733947 ; 3.439737812206738E7 ; 0.0
211 ; 10192.22013145184 ; 291699.0879687381 ; 3266760.0051129744 ; 3.4688065358202115E7 ; 0.0
212 ; 10253.95585168781 ; 292705.815192414 ; 3276952.225244426 ; 3.497976444617085E7 ; 0.0
