CSV File for the City 1 on Day 211
1 - Minute m 
2 - Power Consumed at minute m 
3 - Power Produced at minute m 
4 - Energy Consumed since the beginning of the day 
5 - Energy Produced since the beginning of the day 
6 - Energy Lost since the beginning of the day on lines starting from the city
 
0 ; 5184.4630091291765 ; 3605.5406454451695 ; 0.0 ; 0.0 ; 0.0
1 ; 5656.260581012533 ; 3605.5406454451695 ; 5184.4630091291765 ; 3605.5406454451695 ; 238.00000000000003
2 ; 6474.526391765282 ; 3605.5406454451695 ; 10840.72359014171 ; 7211.081290890339 ; 476.00000000000006
3 ; 7212.548669633366 ; 3605.5406454451695 ; 17315.249981906993 ; 10816.621936335509 ; 714.0000000000001
4 ; 7778.279212811284 ; 3605.5406454451695 ; 24527.79865154036 ; 14422.162581780678 ; 952.0000000000001
5 ; 8450.838745221146 ; 3605.5406454451695 ; 32306.077864351646 ; 18027.703227225848 ; 1190.0000000000002
6 ; 8936.05229753739 ; 3605.5406454451695 ; 40756.91660957279 ; 21633.243872671017 ; 1428.0000000000002
7 ; 9482.928376208412 ; 3605.5406454451695 ; 49692.96890711018 ; 25238.784518116187 ; 1666.0000000000002
8 ; 10021.559848420087 ; 3605.5406454451695 ; 59175.8972833186 ; 28844.325163561356 ; 1904.0000000000002
9 ; 10857.162020016878 ; 3605.5406454451695 ; 69197.45713173869 ; 32449.865809006526 ; 2142.0000000000005
10 ; 11454.9134987953 ; 3605.5406454451695 ; 80054.61915175557 ; 36055.406454451695 ; 2380.0000000000005
11 ; 11898.367723746982 ; 3605.5406454451695 ; 91509.53265055087 ; 39660.94709989686 ; 2618.0000000000005
12 ; 12437.167961230387 ; 3605.5406454451695 ; 103407.90037429785 ; 43266.487745342034 ; 2856.0000000000005
13 ; 13152.040198988063 ; 3605.5406454451695 ; 115845.06833552824 ; 46872.02839078721 ; 3094.0000000000005
14 ; 13722.218580046767 ; 3605.5406454451695 ; 128997.1085345163 ; 50477.56903623238 ; 3332.0000000000005
15 ; 14166.932584798114 ; 3605.5406454451695 ; 142719.32711456306 ; 54083.10968167755 ; 3570.0000000000005
16 ; 14661.882667736441 ; 3605.5406454451695 ; 156886.25969936117 ; 57688.65032712273 ; 3808.0000000000005
17 ; 15155.631119443839 ; 3605.5406454451695 ; 171548.1423670976 ; 61294.1909725679 ; 4046.0000000000005
18 ; 15773.419171583031 ; 3605.5406454451695 ; 186703.77348654144 ; 64899.73161801307 ; 4284.000000000001
19 ; 16271.599749683368 ; 3605.5406454451695 ; 202477.19265812446 ; 68505.27226345825 ; 4522.000000000001
20 ; 16814.493439731777 ; 3605.5406454451695 ; 218748.79240780784 ; 72110.81290890342 ; 4760.000000000001
21 ; 17324.964930523704 ; 3605.5406454451695 ; 235563.2858475396 ; 75716.35355434859 ; 4998.000000000001
22 ; 17860.60858092482 ; 3605.5406454451695 ; 252888.25077806332 ; 79321.89419979377 ; 5236.000000000001
23 ; 18212.832027888595 ; 3605.5406454451695 ; 270748.8593589881 ; 82927.43484523894 ; 5474.000000000001
24 ; 18794.533327617984 ; 3605.5406454451695 ; 288961.69138687674 ; 86532.97549068411 ; 5712.000000000001
25 ; 19300.528732682717 ; 3605.5406454451695 ; 307756.2247144947 ; 90138.51613612928 ; 5950.000000000001
26 ; 19687.63716659754 ; 3605.5406454451695 ; 327056.7534471774 ; 93744.05678157446 ; 6188.000000000001
27 ; 20132.22721865883 ; 3605.5406454451695 ; 346744.39061377494 ; 97349.59742701963 ; 6426.000000000001
28 ; 20616.668737638785 ; 3605.5406454451695 ; 366876.6178324338 ; 100955.1380724648 ; 6664.000000000001
29 ; 20993.550248503267 ; 3605.5406454451695 ; 387493.2865700726 ; 104560.67871790998 ; 6902.000000000001
30 ; 21364.32636436975 ; 3605.5406454451695 ; 408486.83681857586 ; 108166.21936335515 ; 7140.000000000001
31 ; 21822.33311335092 ; 3605.5406454451695 ; 429851.16318294563 ; 111771.76000880032 ; 7378.000000000001
32 ; 22185.58309293854 ; 3605.5406454451695 ; 451673.49629629654 ; 115377.3006542455 ; 7616.000000000001
33 ; 22470.41745300428 ; 3605.5406454451695 ; 473859.07938923506 ; 118982.84129969067 ; 7854.000000000001
34 ; 23022.29512330951 ; 3605.5406454451695 ; 496329.49684223934 ; 122588.38194513584 ; 8092.000000000001
35 ; 23296.742475758096 ; 3605.5406454451695 ; 519351.7919655489 ; 126193.92259058102 ; 8330.000000000002
36 ; 23588.713751892465 ; 3605.5406454451695 ; 542648.534441307 ; 129799.46323602619 ; 8568.000000000002
37 ; 24118.877588790987 ; 3605.5406454451695 ; 566237.2481931994 ; 133405.00388147135 ; 8806.000000000002
38 ; 24431.750589106054 ; 3605.5406454451695 ; 590356.1257819904 ; 137010.54452691652 ; 9044.000000000002
39 ; 24675.1324878154 ; 3605.5406454451695 ; 614787.8763710964 ; 140616.0851723617 ; 9282.000000000002
40 ; 25325.016593620505 ; 3605.5406454451695 ; 639463.0088589118 ; 144221.62581780687 ; 9520.000000000002
41 ; 25720.85941184388 ; 3605.5406454451695 ; 664788.0254525323 ; 147827.16646325204 ; 9758.000000000002
42 ; 25866.369803869668 ; 3605.5406454451695 ; 690508.8848643763 ; 151432.7071086972 ; 9996.000000000002
43 ; 26074.35441688735 ; 3605.5406454451695 ; 716375.2546682459 ; 155038.2477541424 ; 10234.000000000002
44 ; 26436.411751914115 ; 3605.5406454451695 ; 742449.6090851333 ; 158643.78839958756 ; 10472.000000000002
45 ; 26523.9275415571 ; 3605.5406454451695 ; 768886.0208370474 ; 162249.32904503273 ; 10710.000000000002
46 ; 26991.975920644665 ; 3605.5406454451695 ; 795409.9483786045 ; 165854.8696904779 ; 10948.000000000002
47 ; 27425.230417073788 ; 3605.5406454451695 ; 822401.9242992492 ; 169460.41033592308 ; 11186.000000000002
48 ; 27732.975956267826 ; 3605.5406454451695 ; 849827.154716323 ; 173065.95098136825 ; 11424.000000000002
49 ; 27918.853621923685 ; 3605.5406454451695 ; 877560.1306725908 ; 176671.49162681343 ; 11662.000000000002
50 ; 27874.641585531765 ; 3605.5406454451695 ; 905478.9842945145 ; 180277.0322722586 ; 11900.000000000002
51 ; 28577.393224879517 ; 3605.5406454451695 ; 933353.6258800463 ; 183882.57291770377 ; 12138.000000000002
52 ; 28678.286520165027 ; 3605.5406454451695 ; 961931.0191049258 ; 187488.11356314895 ; 12376.000000000002
53 ; 28835.819376427862 ; 3605.5406454451695 ; 990609.3056250908 ; 191093.65420859412 ; 12614.000000000002
54 ; 29101.55933292344 ; 3605.5406454451695 ; 1019445.1250015188 ; 194699.1948540393 ; 12852.000000000002
55 ; 29311.059899740063 ; 3605.5406454451695 ; 1048546.6843344423 ; 198304.73549948446 ; 13090.000000000002
56 ; 29459.06913313151 ; 3605.5406454451695 ; 1077857.7442341824 ; 201910.27614492964 ; 13328.000000000002
57 ; 29585.174780256708 ; 3605.5406454451695 ; 1107316.813367314 ; 205515.8167903748 ; 13566.000000000002
58 ; 29969.092856129293 ; 3605.5406454451695 ; 1136901.9881475708 ; 209121.35743581998 ; 13804.000000000002
59 ; 30129.1800800246 ; 3605.5406454451695 ; 1166871.0810037002 ; 212726.89808126516 ; 14042.000000000002
60 ; 30255.395266440024 ; 3605.5406454451695 ; 1197000.2610837247 ; 216332.43872671033 ; 14280.000000000002
61 ; 30526.363513493303 ; 3605.5406454451695 ; 1227255.6563501647 ; 219937.9793721555 ; 14518.000000000002
62 ; 30668.103524271664 ; 3605.5406454451695 ; 1257782.019863658 ; 223543.52001760068 ; 14756.000000000002
63 ; 30859.616689872088 ; 3605.5406454451695 ; 1288450.1233879295 ; 227149.06066304585 ; 14994.000000000002
64 ; 30991.09236308669 ; 3605.5406454451695 ; 1319309.7400778015 ; 230754.60130849102 ; 15232.000000000002
65 ; 31204.09054112266 ; 3605.5406454451695 ; 1350300.8324408883 ; 234360.1419539362 ; 15470.000000000002
66 ; 31225.801914004882 ; 3605.5406454451695 ; 1381504.922982011 ; 237965.68259938137 ; 15708.000000000002
67 ; 31357.769077437533 ; 3605.5406454451695 ; 1412730.7248960158 ; 241571.22324482654 ; 15946.000000000002
68 ; 31544.62597531196 ; 3605.5406454451695 ; 1444088.4939734533 ; 245176.76389027172 ; 16184.000000000002
69 ; 31511.872944405906 ; 3605.5406454451695 ; 1475633.1199487653 ; 248782.3045357169 ; 16422.000000000004
70 ; 31695.70792186175 ; 3605.5406454451695 ; 1507144.9928931713 ; 252387.84518116206 ; 16660.000000000004
71 ; 31650.566472197013 ; 3605.5406454451695 ; 1538840.700815033 ; 255993.38582660723 ; 16898.000000000004
72 ; 31899.109828026427 ; 3605.5406454451695 ; 1570491.26728723 ; 259598.9264720524 ; 17136.000000000004
73 ; 32089.74546006172 ; 3605.5406454451695 ; 1602390.3771152564 ; 263204.4671174976 ; 17374.000000000004
74 ; 31928.89728711048 ; 3605.5406454451695 ; 1634480.1225753182 ; 266810.00776294275 ; 17612.000000000004
75 ; 32019.527972907938 ; 3605.5406454451695 ; 1666409.0198624288 ; 270415.5484083879 ; 17850.000000000004
76 ; 32100.795804736314 ; 3605.5406454451695 ; 1698428.5478353368 ; 274021.0890538331 ; 18088.000000000004
77 ; 32238.53503824745 ; 3605.5406454451695 ; 1730529.343640073 ; 277626.6296992783 ; 18326.000000000004
78 ; 32370.176987678013 ; 3605.5406454451695 ; 1762767.8786783204 ; 281232.17034472345 ; 18564.000000000004
79 ; 32264.144252983937 ; 3605.5406454451695 ; 1795138.0556659985 ; 284837.7109901686 ; 18802.000000000004
80 ; 32457.215262324622 ; 3605.5406454451695 ; 1827402.1999189823 ; 288443.2516356138 ; 19040.000000000004
81 ; 32239.96840159611 ; 3605.5406454451695 ; 1859859.415181307 ; 292048.79228105897 ; 19278.000000000004
82 ; 32224.359418990516 ; 3605.5406454451695 ; 1892099.383582903 ; 295654.33292650414 ; 19516.000000000004
83 ; 32529.634033590206 ; 3605.5406454451695 ; 1924323.7430018936 ; 299259.8735719493 ; 19754.000000000004
84 ; 32195.860394203202 ; 3605.5406454451695 ; 1956853.3770354837 ; 302865.4142173945 ; 19992.000000000004
85 ; 32237.255014539838 ; 3605.5406454451695 ; 1989049.2374296868 ; 306470.95486283966 ; 20230.000000000004
86 ; 32337.893523140705 ; 3605.5406454451695 ; 2021286.4924442268 ; 310076.49550828483 ; 20468.000000000004
87 ; 32099.462872710505 ; 3605.5406454451695 ; 2053624.3859673676 ; 313682.03615373 ; 20706.000000000004
88 ; 32211.167881843183 ; 3605.5406454451695 ; 2085723.848840078 ; 317287.5767991752 ; 20944.000000000004
89 ; 32017.805124458315 ; 3605.5406454451695 ; 2117935.0167219215 ; 320893.11744462035 ; 21182.000000000004
90 ; 32019.246919122226 ; 3605.5406454451695 ; 2149952.82184638 ; 324498.6580900655 ; 21420.000000000004
91 ; 32057.56679572971 ; 3605.5406454451695 ; 2181972.068765502 ; 328104.1987355107 ; 21658.000000000004
92 ; 31868.548093525038 ; 3605.5406454451695 ; 2214029.6355612315 ; 331709.73938095587 ; 21896.000000000004
93 ; 31976.915235997887 ; 3605.5406454451695 ; 2245898.1836547568 ; 335315.28002640104 ; 22134.000000000004
94 ; 31785.121969885302 ; 3605.5406454451695 ; 2277875.098890755 ; 338920.8206718462 ; 22372.000000000004
95 ; 31664.744974159916 ; 3605.5406454451695 ; 2309660.22086064 ; 342526.3613172914 ; 22610.000000000004
96 ; 31542.140394677543 ; 3605.5406454451695 ; 2341324.9658348 ; 346131.90196273656 ; 22848.000000000004
97 ; 31463.042225028792 ; 3605.5406454451695 ; 2372867.1062294776 ; 349737.44260818174 ; 23086.000000000004
98 ; 31344.120622068574 ; 3605.5406454451695 ; 2404330.1484545064 ; 353342.9832536269 ; 23324.000000000004
99 ; 31159.63707103911 ; 3605.5406454451695 ; 2435674.269076575 ; 356948.5238990721 ; 23562.000000000004
100 ; 31055.285701827364 ; 3605.5406454451695 ; 2466833.906147614 ; 360554.06454451726 ; 23800.000000000004
101 ; 30920.463092963313 ; 3605.5406454451695 ; 2497889.1918494413 ; 364159.6051899624 ; 24038.000000000004
102 ; 30626.73329404608 ; 3605.5406454451695 ; 2528809.6549424045 ; 367765.1458354076 ; 24276.000000000004
103 ; 30472.1313043074 ; 3605.5406454451695 ; 2559436.3882364505 ; 371370.6864808528 ; 24514.000000000004
104 ; 30404.45903686628 ; 3605.5406454451695 ; 2589908.519540758 ; 374976.22712629795 ; 24752.000000000004
105 ; 30180.777720003676 ; 3605.5406454451695 ; 2620312.978577624 ; 378581.7677717431 ; 24990.000000000004
106 ; 30023.51986342059 ; 3605.5406454451695 ; 2650493.756297628 ; 382187.3084171883 ; 25228.000000000004
107 ; 29964.56684528868 ; 3605.5406454451695 ; 2680517.2761610486 ; 385792.84906263347 ; 25466.000000000004
108 ; 29646.362469933745 ; 3605.5406454451695 ; 2710481.843006337 ; 389398.38970807864 ; 25704.000000000004
109 ; 29386.024256855722 ; 3605.5406454451695 ; 2740128.205476271 ; 393003.9303535238 ; 25942.000000000004
110 ; 29319.760549937313 ; 3605.5406454451695 ; 2769514.2297331267 ; 396609.470998969 ; 26180.000000000004
111 ; 29020.710596509452 ; 3605.5406454451695 ; 2798833.990283064 ; 400215.01164441416 ; 26418.000000000004
112 ; 28697.57884772595 ; 3605.5406454451695 ; 2827854.7008795734 ; 403820.55228985933 ; 26656.000000000004
113 ; 28546.072971199912 ; 3605.5406454451695 ; 2856552.279727299 ; 407426.0929353045 ; 26894.000000000004
114 ; 28305.84740455438 ; 3605.5406454451695 ; 2885098.3526984993 ; 411031.6335807497 ; 27132.000000000004
115 ; 27857.706505198978 ; 3605.5406454451695 ; 2913404.200103054 ; 414637.17422619485 ; 27370.000000000004
116 ; 27572.04369845714 ; 3605.5406454451695 ; 2941261.906608253 ; 418242.71487164 ; 27608.000000000004
117 ; 27485.7608801723 ; 3605.5406454451695 ; 2968833.95030671 ; 421848.2555170852 ; 27846.000000000004
118 ; 27268.48642854475 ; 3605.5406454451695 ; 2996319.711186882 ; 425453.7961625304 ; 28084.000000000004
119 ; 27007.71846678778 ; 3605.5406454451695 ; 3023588.197615427 ; 429059.33680797555 ; 28322.000000000004
120 ; 26646.96498952398 ; 3605.5406454451695 ; 3050595.9160822146 ; 432664.8774534207 ; 28560.000000000004
121 ; 26174.769244967378 ; 3605.5406454451695 ; 3077242.8810717384 ; 436270.4180988659 ; 28798.000000000004
122 ; 26042.302087542503 ; 3605.5406454451695 ; 3103417.650316706 ; 439875.95874431106 ; 29036.000000000004
123 ; 25783.335253294175 ; 3605.5406454451695 ; 3129459.9524042485 ; 443481.49938975624 ; 29274.000000000004
124 ; 25576.735028704396 ; 3605.5406454451695 ; 3155243.2876575426 ; 447087.0400352014 ; 29512.000000000004
125 ; 24991.514392518715 ; 3605.5406454451695 ; 3180820.022686247 ; 450692.5806806466 ; 29750.000000000004
126 ; 24599.167348825806 ; 3605.5406454451695 ; 3205811.5370787657 ; 454298.12132609176 ; 29988.000000000004
127 ; 24294.883088896822 ; 3605.5406454451695 ; 3230410.7044275915 ; 457903.66197153693 ; 30226.000000000004
128 ; 23851.821126414514 ; 3605.5406454451695 ; 3254705.5875164885 ; 461509.2026169821 ; 30464.000000000004
129 ; 23544.600734800613 ; 3605.5406454451695 ; 3278557.408642903 ; 465114.7432624273 ; 30702.000000000004
130 ; 23252.816438256552 ; 3605.5406454451695 ; 3302102.0093777035 ; 468720.28390787245 ; 30940.000000000004
131 ; 22722.983286116163 ; 3605.5406454451695 ; 3325354.8258159603 ; 472325.8245533176 ; 31178.000000000004
132 ; 22352.189655181675 ; 3605.5406454451695 ; 3348077.8091020766 ; 475931.3651987628 ; 31416.000000000004
133 ; 22121.056283172784 ; 3605.5406454451695 ; 3370429.998757258 ; 479536.90584420797 ; 31654.000000000004
134 ; 21546.18237716451 ; 3605.5406454451695 ; 3392551.0550404307 ; 483142.44648965314 ; 31892.000000000004
135 ; 21165.458461413567 ; 3605.5406454451695 ; 3414097.2374175955 ; 486747.9871350983 ; 32130.000000000004
136 ; 20725.85630240425 ; 3605.5406454451695 ; 3435262.695879009 ; 490353.5277805435 ; 32368.000000000004
137 ; 20164.55685769607 ; 3605.5406454451695 ; 3455988.5521814134 ; 493959.06842598866 ; 32606.000000000004
138 ; 19901.99483776095 ; 3605.5406454451695 ; 3476153.1090391097 ; 497564.60907143384 ; 32844.00000000001
139 ; 19511.39836111596 ; 3605.5406454451695 ; 3496055.1038768706 ; 501170.149716879 ; 33082.00000000001
140 ; 19046.668996048866 ; 3605.5406454451695 ; 3515566.502237987 ; 504775.6903623242 ; 33320.00000000001
141 ; 18544.275844380267 ; 3605.5406454451695 ; 3534613.171234036 ; 508381.23100776935 ; 33558.00000000001
142 ; 17924.130042604957 ; 3605.5406454451695 ; 3553157.447078416 ; 511986.7716532145 ; 33796.00000000001
143 ; 17514.98889197612 ; 3605.5406454451695 ; 3571081.577121021 ; 515592.3122986597 ; 34034.00000000001
144 ; 17035.78992812567 ; 3605.5406454451695 ; 3588596.566012997 ; 519197.8529441049 ; 34272.00000000001
145 ; 16979.8462251365 ; 3605.5406454451695 ; 3605632.355941123 ; 522803.39358955005 ; 34510.00000000001
146 ; 16768.922849726318 ; 3605.5406454451695 ; 3622612.2021662593 ; 526408.9342349952 ; 34748.00000000001
147 ; 16597.968684931657 ; 3605.5406454451695 ; 3639381.1250159857 ; 530014.4748804403 ; 34986.00000000001
148 ; 16534.02686440531 ; 3605.5406454451695 ; 3655979.0937009174 ; 533620.0155258854 ; 35224.00000000001
149 ; 16410.926870280015 ; 3605.5406454451695 ; 3672513.1205653227 ; 537225.5561713305 ; 35462.00000000001
150 ; 16369.888979816282 ; 3605.5406454451695 ; 3688924.0474356026 ; 540831.0968167756 ; 35700.00000000001
151 ; 16115.36526580698 ; 3605.5406454451695 ; 3705293.936415419 ; 544436.6374622207 ; 35938.00000000001
152 ; 16018.261844373654 ; 3605.5406454451695 ; 3721409.301681226 ; 548042.1781076659 ; 36176.00000000001
153 ; 15757.62962016692 ; 3605.5406454451695 ; 3737427.5635256 ; 551647.718753111 ; 36414.00000000001
154 ; 15592.938713118654 ; 3605.5406454451695 ; 3753185.193145767 ; 555253.2593985561 ; 36652.00000000001
155 ; 15366.901127683563 ; 3605.5406454451695 ; 3768778.1318588853 ; 558858.8000440012 ; 36890.00000000001
156 ; 15326.173431492392 ; 3605.5406454451695 ; 3784145.0329865688 ; 562464.3406894463 ; 37128.00000000001
157 ; 15087.46801626982 ; 3605.5406454451695 ; 3799471.206418061 ; 566069.8813348914 ; 37366.00000000001
158 ; 14871.344050801888 ; 3605.5406454451695 ; 3814558.674434331 ; 569675.4219803365 ; 37604.00000000001
159 ; 14807.9105043374 ; 3605.5406454451695 ; 3829430.0184851326 ; 573280.9626257817 ; 37842.00000000001
160 ; 14679.790975368685 ; 3605.5406454451695 ; 3844237.92898947 ; 576886.5032712268 ; 38080.00000000001
161 ; 14492.494011593533 ; 3605.5406454451695 ; 3858917.7199648386 ; 580492.0439166719 ; 38318.00000000001
162 ; 14224.655880646022 ; 3605.5406454451695 ; 3873410.213976432 ; 584097.584562117 ; 38556.00000000001
163 ; 13854.215802446075 ; 3605.5406454451695 ; 3887634.869857078 ; 587703.1252075621 ; 38794.00000000001
164 ; 13766.252731627683 ; 3605.5406454451695 ; 3901489.085659524 ; 591308.6658530072 ; 39032.00000000001
165 ; 13678.21005220094 ; 3605.5406454451695 ; 3915255.3383911517 ; 594914.2064984523 ; 39270.00000000001
166 ; 13464.911301469117 ; 3605.5406454451695 ; 3928933.548443353 ; 598519.7471438975 ; 39508.00000000001
167 ; 13265.427859625144 ; 3605.5406454451695 ; 3942398.459744822 ; 602125.2877893426 ; 39746.00000000001
168 ; 13290.16899022608 ; 3605.5406454451695 ; 3955663.887604447 ; 605730.8284347877 ; 39984.00000000001
169 ; 12972.818943126194 ; 3605.5406454451695 ; 3968954.056594673 ; 609336.3690802328 ; 40222.00000000001
170 ; 12627.107725684911 ; 3605.5406454451695 ; 3981926.875537799 ; 612941.9097256779 ; 40460.00000000001
171 ; 12485.174427606187 ; 3605.5406454451695 ; 3994553.983263484 ; 616547.450371123 ; 40698.00000000001
172 ; 12002.642260645924 ; 3605.5406454451695 ; 4007039.1576910904 ; 620152.9910165682 ; 40936.00000000001
173 ; 12077.400207374081 ; 3605.5406454451695 ; 4019041.7999517363 ; 623758.5316620133 ; 41174.00000000001
174 ; 12178.324956669474 ; 3605.5406454451695 ; 4031119.2001591106 ; 627364.0723074584 ; 41412.00000000001
175 ; 12153.0860457062 ; 3605.5406454451695 ; 4043297.52511578 ; 630969.6129529035 ; 41650.00000000001
176 ; 12265.756243895386 ; 3605.5406454451695 ; 4055450.6111614862 ; 634575.1535983486 ; 41888.00000000001
177 ; 12242.076748408565 ; 3605.5406454451695 ; 4067716.3674053815 ; 638180.6942437937 ; 42126.00000000001
178 ; 12332.725410630075 ; 3605.5406454451695 ; 4079958.44415379 ; 641786.2348892388 ; 42364.00000000001
179 ; 12273.888872083538 ; 3605.5406454451695 ; 4092291.16956442 ; 645391.775534684 ; 42602.00000000001
180 ; 12380.817728022808 ; 3605.5406454451695 ; 4104565.0584365036 ; 648997.3161801291 ; 42840.00000000001
181 ; 12413.835314278918 ; 3605.5406454451695 ; 4116945.876164526 ; 652602.8568255742 ; 43078.00000000001
182 ; 12529.29337056893 ; 3605.5406454451695 ; 4129359.711478805 ; 656208.3974710193 ; 43316.00000000001
183 ; 12418.165747927336 ; 3605.5406454451695 ; 4141889.0048493743 ; 659813.9381164644 ; 43554.00000000001
184 ; 12593.508822805059 ; 3605.5406454451695 ; 4154307.170597302 ; 663419.4787619095 ; 43792.00000000001
