CSV File for the City 1 on Day 199
1 - Minute m 
2 - Power Consumed at minute m 
3 - Power Produced at minute m 
4 - Energy Consumed since the beginning of the day 
5 - Energy Produced since the beginning of the day 
6 - Energy Lost since the beginning of the day on lines starting from the city
 
0 ; 5445.0030356322695 ; 4456.385476870437 ; 0.0 ; 0.0 ; 0.0
1 ; 6224.175623012025 ; 4456.385476870437 ; 5445.0030356322695 ; 4456.385476870437 ; 238.00000000000003
2 ; 6735.129165908809 ; 4456.385476870437 ; 11669.178658644294 ; 8912.770953740874 ; 476.00000000000006
3 ; 7371.592163656063 ; 4456.385476870437 ; 18404.307824553103 ; 13369.15643061131 ; 714.0000000000001
4 ; 7990.144263672303 ; 4456.385476870437 ; 25775.899988209167 ; 17825.541907481747 ; 952.0000000000001
5 ; 8627.240034645562 ; 4456.385476870437 ; 33766.04425188147 ; 22281.927384352184 ; 1190.0000000000002
6 ; 9138.290848963903 ; 4456.385476870437 ; 42393.28428652703 ; 26738.31286122262 ; 1428.0000000000002
7 ; 9545.735057813516 ; 4456.385476870437 ; 51531.57513549093 ; 31194.698338093058 ; 1666.0000000000002
8 ; 10319.756849657979 ; 4456.385476870437 ; 61077.310193304445 ; 35651.083814963495 ; 1904.0000000000002
9 ; 10970.382415511394 ; 4456.385476870437 ; 71397.06704296243 ; 40107.46929183393 ; 2142.0000000000005
10 ; 11473.402612532947 ; 4456.385476870437 ; 82367.44945847383 ; 44563.85476870436 ; 2380.0000000000005
11 ; 12011.496131268486 ; 4456.385476870437 ; 93840.85207100678 ; 49020.240245574794 ; 2618.0000000000005
12 ; 12518.095293857961 ; 4456.385476870437 ; 105852.34820227527 ; 53476.62572244523 ; 2856.0000000000005
13 ; 13137.085143038761 ; 4456.385476870437 ; 118370.44349613323 ; 57933.01119931566 ; 3094.0000000000005
14 ; 13604.168168348184 ; 4456.385476870437 ; 131507.528639172 ; 62389.396676186094 ; 3332.0000000000005
15 ; 14127.22728954496 ; 4456.385476870437 ; 145111.69680752017 ; 66845.78215305653 ; 3570.0000000000005
16 ; 14623.703445029814 ; 4456.385476870437 ; 159238.92409706514 ; 71302.16762992696 ; 3808.0000000000005
17 ; 14936.502496090323 ; 4456.385476870437 ; 173862.62754209497 ; 75758.5531067974 ; 4046.0000000000005
18 ; 15431.398178417312 ; 4456.385476870437 ; 188799.13003818528 ; 80214.93858366783 ; 4284.000000000001
19 ; 16095.11492247293 ; 4456.385476870437 ; 204230.5282166026 ; 84671.32406053826 ; 4522.000000000001
20 ; 16590.663151877467 ; 4456.385476870437 ; 220325.64313907555 ; 89127.7095374087 ; 4760.000000000001
21 ; 17040.335048916368 ; 4456.385476870437 ; 236916.306290953 ; 93584.09501427913 ; 4998.000000000001
22 ; 17468.412088465608 ; 4456.385476870437 ; 253956.64133986938 ; 98040.48049114956 ; 5236.000000000001
23 ; 17991.966539802852 ; 4456.385476870437 ; 271425.053428335 ; 102496.86596801999 ; 5474.000000000001
24 ; 18518.48488606498 ; 4456.385476870437 ; 289417.01996813784 ; 106953.25144489043 ; 5712.000000000001
25 ; 18840.568677290015 ; 4456.385476870437 ; 307935.50485420285 ; 111409.63692176086 ; 5950.000000000001
26 ; 19143.495608182227 ; 4456.385476870437 ; 326776.07353149285 ; 115866.02239863129 ; 6188.000000000001
27 ; 19548.316828349656 ; 4456.385476870437 ; 345919.56913967506 ; 120322.40787550173 ; 6426.000000000001
28 ; 20114.95863761437 ; 4456.385476870437 ; 365467.8859680247 ; 124778.79335237216 ; 6664.000000000001
29 ; 20739.883049497545 ; 4456.385476870437 ; 385582.8446056391 ; 129235.17882924259 ; 6902.000000000001
30 ; 20992.600981954954 ; 4456.385476870437 ; 406322.72765513667 ; 133691.56430611302 ; 7140.000000000001
31 ; 21313.58503514131 ; 4456.385476870437 ; 427315.3286370916 ; 138147.94978298346 ; 7378.000000000001
32 ; 21603.763348678283 ; 4456.385476870437 ; 448628.91367223294 ; 142604.3352598539 ; 7616.000000000001
33 ; 21980.349531725842 ; 4456.385476870437 ; 470232.67702091124 ; 147060.72073672432 ; 7854.000000000001
34 ; 22624.097566503096 ; 4456.385476870437 ; 492213.0265526371 ; 151517.10621359476 ; 8092.000000000001
35 ; 22652.128026124203 ; 4456.385476870437 ; 514837.1241191402 ; 155973.4916904652 ; 8330.000000000002
36 ; 23054.925066346612 ; 4456.385476870437 ; 537489.2521452644 ; 160429.87716733562 ; 8568.000000000002
37 ; 23604.69834060281 ; 4456.385476870437 ; 560544.1772116111 ; 164886.26264420606 ; 8806.000000000002
38 ; 23790.094310026732 ; 4456.385476870437 ; 584148.8755522139 ; 169342.6481210765 ; 9044.000000000002
39 ; 23929.98986572643 ; 4456.385476870437 ; 607938.9698622406 ; 173799.03359794692 ; 9282.000000000002
40 ; 24447.00080249263 ; 4456.385476870437 ; 631868.959727967 ; 178255.41907481736 ; 9520.000000000002
41 ; 24714.924651491372 ; 4456.385476870437 ; 656315.9605304596 ; 182711.8045516878 ; 9758.000000000002
42 ; 24939.598875096148 ; 4456.385476870437 ; 681030.885181951 ; 187168.19002855822 ; 9996.000000000002
43 ; 25423.588962076326 ; 4456.385476870437 ; 705970.4840570472 ; 191624.57550542866 ; 10234.000000000002
44 ; 25714.77074758708 ; 4456.385476870437 ; 731394.0730191235 ; 196080.9609822991 ; 10472.000000000002
45 ; 25991.954871313013 ; 4456.385476870437 ; 757108.8437667106 ; 200537.34645916952 ; 10710.000000000002
46 ; 26162.74046779172 ; 4456.385476870437 ; 783100.7986380237 ; 204993.73193603996 ; 10948.000000000002
47 ; 26537.609902402917 ; 4456.385476870437 ; 809263.5391058153 ; 209450.1174129104 ; 11186.000000000002
48 ; 26748.45486838637 ; 4456.385476870437 ; 835801.1490082183 ; 213906.50288978082 ; 11424.000000000002
49 ; 27053.289174035483 ; 4456.385476870437 ; 862549.6038766047 ; 218362.88836665126 ; 11662.000000000002
50 ; 27276.617729136622 ; 4456.385476870437 ; 889602.8930506401 ; 222819.2738435217 ; 11900.000000000002
51 ; 27601.799528530017 ; 4456.385476870437 ; 916879.5107797767 ; 227275.65932039212 ; 12138.000000000002
52 ; 27577.33351403249 ; 4456.385476870437 ; 944481.3103083067 ; 231732.04479726256 ; 12376.000000000002
53 ; 28134.653446754328 ; 4456.385476870437 ; 972058.6438223392 ; 236188.430274133 ; 12614.000000000002
54 ; 28076.984856251718 ; 4456.385476870437 ; 1000193.2972690936 ; 240644.81575100342 ; 12852.000000000002
55 ; 28511.73383395202 ; 4456.385476870437 ; 1028270.2821253453 ; 245101.20122787385 ; 13090.000000000002
56 ; 28640.55426969046 ; 4456.385476870437 ; 1056782.0159592973 ; 249557.5867047443 ; 13328.000000000002
57 ; 28830.033829203006 ; 4456.385476870437 ; 1085422.5702289878 ; 254013.97218161472 ; 13566.000000000002
58 ; 28764.016526788182 ; 4456.385476870437 ; 1114252.604058191 ; 258470.35765848515 ; 13804.000000000002
59 ; 29045.27049530579 ; 4456.385476870437 ; 1143016.6205849792 ; 262926.7431353556 ; 14042.000000000002
60 ; 29357.101109989242 ; 4456.385476870437 ; 1172061.891080285 ; 267383.12861222605 ; 14280.000000000002
61 ; 29447.369475933076 ; 4456.385476870437 ; 1201418.9921902742 ; 271839.5140890965 ; 14518.000000000002
62 ; 29483.425976177994 ; 4456.385476870437 ; 1230866.3616662072 ; 276295.899565967 ; 14756.000000000002
63 ; 29964.02416920393 ; 4456.385476870437 ; 1260349.787642385 ; 280752.28504283744 ; 14994.000000000002
64 ; 29914.849385962265 ; 4456.385476870437 ; 1290313.811811589 ; 285208.6705197079 ; 15232.000000000002
65 ; 30097.389203739483 ; 4456.385476870437 ; 1320228.6611975513 ; 289665.05599657836 ; 15470.000000000002
66 ; 30070.90540639292 ; 4456.385476870437 ; 1350326.0504012909 ; 294121.4414734488 ; 15708.000000000002
67 ; 30305.53603677796 ; 4456.385476870437 ; 1380396.9558076838 ; 298577.8269503193 ; 15946.000000000002
68 ; 30435.98223506048 ; 4456.385476870437 ; 1410702.4918444618 ; 303034.21242718975 ; 16184.000000000002
69 ; 30519.557131434743 ; 4456.385476870437 ; 1441138.4740795223 ; 307490.5979040602 ; 16422.000000000004
70 ; 30722.152234825993 ; 4456.385476870437 ; 1471658.031210957 ; 311946.9833809307 ; 16660.000000000004
71 ; 30714.549656822022 ; 4456.385476870437 ; 1502380.183445783 ; 316403.36885780114 ; 16898.000000000004
72 ; 30862.06313801107 ; 4456.385476870437 ; 1533094.7331026052 ; 320859.7543346716 ; 17136.000000000004
73 ; 30850.019961105052 ; 4456.385476870437 ; 1563956.7962406164 ; 325316.13981154206 ; 17374.000000000004
74 ; 30958.43347856304 ; 4456.385476870437 ; 1594806.8162017213 ; 329772.5252884125 ; 17612.000000000004
75 ; 31019.307979960748 ; 4456.385476870437 ; 1625765.2496802844 ; 334228.910765283 ; 17850.000000000004
76 ; 31083.151613703052 ; 4456.385476870437 ; 1656784.557660245 ; 338685.29624215345 ; 18088.000000000004
77 ; 31236.262074159495 ; 4456.385476870437 ; 1687867.709273948 ; 343141.6817190239 ; 18326.000000000004
78 ; 30906.488736281342 ; 4456.385476870437 ; 1719103.9713481076 ; 347598.0671958944 ; 18564.000000000004
79 ; 31034.660397480533 ; 4456.385476870437 ; 1750010.460084389 ; 352054.45267276483 ; 18802.000000000004
80 ; 30969.796639219538 ; 4456.385476870437 ; 1781045.1204818694 ; 356510.8381496353 ; 19040.000000000004
81 ; 31188.922010165017 ; 4456.385476870437 ; 1812014.917121089 ; 360967.22362650576 ; 19278.000000000004
82 ; 31089.79429973806 ; 4456.385476870437 ; 1843203.839131254 ; 365423.6091033762 ; 19516.000000000004
83 ; 31423.20989668131 ; 4456.385476870437 ; 1874293.633430992 ; 369879.9945802467 ; 19754.000000000004
84 ; 31102.765731155487 ; 4456.385476870437 ; 1905716.8433276734 ; 374336.38005711715 ; 19992.000000000004
85 ; 31187.272633047985 ; 4456.385476870437 ; 1936819.6090588288 ; 378792.7655339876 ; 20230.000000000004
86 ; 31248.309334282487 ; 4456.385476870437 ; 1968006.8816918768 ; 383249.15101085807 ; 20468.000000000004
87 ; 31152.471353270947 ; 4456.385476870437 ; 1999255.1910261593 ; 387705.53648772853 ; 20706.000000000004
88 ; 31083.027513434543 ; 4456.385476870437 ; 2030407.6623794304 ; 392161.921964599 ; 20944.000000000004
89 ; 31058.525672252967 ; 4456.385476870437 ; 2061490.689892865 ; 396618.30744146946 ; 21182.000000000004
90 ; 30952.72125711305 ; 4456.385476870437 ; 2092549.215565118 ; 401074.6929183399 ; 21420.000000000004
91 ; 31068.07893674149 ; 4456.385476870437 ; 2123501.936822231 ; 405531.0783952104 ; 21658.000000000004
92 ; 30781.228326263896 ; 4456.385476870437 ; 2154570.0157589726 ; 409987.46387208084 ; 21896.000000000004
93 ; 30705.548162015308 ; 4456.385476870437 ; 2185351.2440852365 ; 414443.8493489513 ; 22134.000000000004
94 ; 30656.71996843244 ; 4456.385476870437 ; 2216056.7922472516 ; 418900.23482582177 ; 22372.000000000004
95 ; 30544.365460235473 ; 4456.385476870437 ; 2246713.512215684 ; 423356.62030269223 ; 22610.000000000004
96 ; 30368.757116953093 ; 4456.385476870437 ; 2277257.87767592 ; 427813.0057795627 ; 22848.000000000004
97 ; 30365.11633891317 ; 4456.385476870437 ; 2307626.6347928727 ; 432269.39125643315 ; 23086.000000000004
98 ; 30167.073631323696 ; 4456.385476870437 ; 2337991.751131786 ; 436725.7767333036 ; 23324.000000000004
99 ; 30112.149409796115 ; 4456.385476870437 ; 2368158.82476311 ; 441182.1622101741 ; 23562.000000000004
100 ; 29973.47827929941 ; 4456.385476870437 ; 2398270.974172906 ; 445638.54768704454 ; 23800.000000000004
101 ; 29744.841431995043 ; 4456.385476870437 ; 2428244.4524522056 ; 450094.933163915 ; 24038.000000000004
102 ; 29433.036611973308 ; 4456.385476870437 ; 2457989.2938842005 ; 454551.31864078547 ; 24276.000000000004
103 ; 29415.796388860585 ; 4456.385476870437 ; 2487422.330496174 ; 459007.7041176559 ; 24514.000000000004
104 ; 29130.83646824201 ; 4456.385476870437 ; 2516838.1268850346 ; 463464.0895945264 ; 24752.000000000004
105 ; 29218.180962741906 ; 4456.385476870437 ; 2545968.9633532767 ; 467920.47507139685 ; 24990.000000000004
106 ; 29094.861345025765 ; 4456.385476870437 ; 2575187.1443160186 ; 472376.8605482673 ; 25228.000000000004
107 ; 28598.94516680284 ; 4456.385476870437 ; 2604282.0056610443 ; 476833.2460251378 ; 25466.000000000004
108 ; 28612.928935949996 ; 4456.385476870437 ; 2632880.9508278472 ; 481289.63150200824 ; 25704.000000000004
109 ; 28403.308790035975 ; 4456.385476870437 ; 2661493.8797637974 ; 485746.0169788787 ; 25942.000000000004
110 ; 28010.30983547738 ; 4456.385476870437 ; 2689897.1885538334 ; 490202.40245574916 ; 26180.000000000004
111 ; 28014.940286359797 ; 4456.385476870437 ; 2717907.4983893107 ; 494658.7879326196 ; 26418.000000000004
112 ; 28001.96993195711 ; 4456.385476870437 ; 2745922.4386756704 ; 499115.1734094901 ; 26656.000000000004
113 ; 27593.140752988027 ; 4456.385476870437 ; 2773924.4086076277 ; 503571.55888636055 ; 26894.000000000004
114 ; 27379.575766530223 ; 4456.385476870437 ; 2801517.5493606157 ; 508027.944363231 ; 27132.000000000004
115 ; 27096.994699282408 ; 4456.385476870437 ; 2828897.125127146 ; 512484.3298401015 ; 27370.000000000004
116 ; 26803.197263579328 ; 4456.385476870437 ; 2855994.1198264286 ; 516940.71531697194 ; 27608.000000000004
117 ; 26596.573275074566 ; 4456.385476870437 ; 2882797.317090008 ; 521397.1007938424 ; 27846.000000000004
118 ; 26290.61017996558 ; 4456.385476870437 ; 2909393.8903650823 ; 525853.4862707128 ; 28084.000000000004
119 ; 25968.33322551882 ; 4456.385476870437 ; 2935684.5005450477 ; 530309.8717475833 ; 28322.000000000004
120 ; 25722.806179418738 ; 4456.385476870437 ; 2961652.8337705666 ; 534766.2572244537 ; 28560.000000000004
121 ; 25370.053761143183 ; 4456.385476870437 ; 2987375.6399499853 ; 539222.6427013242 ; 28798.000000000004
122 ; 25150.898919678628 ; 4456.385476870437 ; 3012745.6937111286 ; 543679.0281781947 ; 29036.000000000004
123 ; 24954.491317911437 ; 4456.385476870437 ; 3037896.5926308073 ; 548135.4136550651 ; 29274.000000000004
124 ; 24437.12524979858 ; 4456.385476870437 ; 3062851.083948719 ; 552591.7991319356 ; 29512.000000000004
125 ; 24124.472542148585 ; 4456.385476870437 ; 3087288.2091985173 ; 557048.184608806 ; 29750.000000000004
126 ; 23999.090138876014 ; 4456.385476870437 ; 3111412.681740666 ; 561504.5700856765 ; 29988.000000000004
127 ; 23391.718169403066 ; 4456.385476870437 ; 3135411.7718795417 ; 565960.955562547 ; 30226.000000000004
128 ; 23038.839761128234 ; 4456.385476870437 ; 3158803.490048945 ; 570417.3410394174 ; 30464.000000000004
129 ; 22910.43535965208 ; 4456.385476870437 ; 3181842.329810073 ; 574873.7265162879 ; 30702.000000000004
130 ; 22448.925760407652 ; 4456.385476870437 ; 3204752.7651697253 ; 579330.1119931584 ; 30940.000000000004
131 ; 22031.048088816453 ; 4456.385476870437 ; 3227201.6909301328 ; 583786.4974700288 ; 31178.000000000004
132 ; 21863.059411114693 ; 4456.385476870437 ; 3249232.739018949 ; 588242.8829468993 ; 31416.000000000004
133 ; 21429.969353668945 ; 4456.385476870437 ; 3271095.7984300638 ; 592699.2684237697 ; 31654.000000000004
134 ; 21208.31826611395 ; 4456.385476870437 ; 3292525.7677837326 ; 597155.6539006402 ; 31892.000000000004
135 ; 20422.435474324444 ; 4456.385476870437 ; 3313734.0860498464 ; 601612.0393775107 ; 32130.000000000004
136 ; 20167.813182853402 ; 4456.385476870437 ; 3334156.521524171 ; 606068.4248543811 ; 32368.000000000004
137 ; 19811.178573106474 ; 4456.385476870437 ; 3354324.3347070245 ; 610524.8103312516 ; 32606.000000000004
138 ; 19445.010489034936 ; 4456.385476870437 ; 3374135.513280131 ; 614981.195808122 ; 32844.00000000001
139 ; 18950.795969636478 ; 4456.385476870437 ; 3393580.523769166 ; 619437.5812849925 ; 33082.00000000001
140 ; 18528.58610735193 ; 4456.385476870437 ; 3412531.3197388025 ; 623893.966761863 ; 33320.00000000001
141 ; 18067.87921388413 ; 4456.385476870437 ; 3431059.9058461543 ; 628350.3522387334 ; 33558.00000000001
142 ; 17658.468154019298 ; 4456.385476870437 ; 3449127.7850600383 ; 632806.7377156039 ; 33796.00000000001
143 ; 17071.165720216577 ; 4456.385476870437 ; 3466786.2532140575 ; 637263.1231924744 ; 34034.00000000001
144 ; 16823.04834331794 ; 4456.385476870437 ; 3483857.418934274 ; 641719.5086693448 ; 34272.00000000001
145 ; 16485.57231360795 ; 4456.385476870437 ; 3500680.467277592 ; 646175.8941462153 ; 34510.00000000001
146 ; 16302.299491984637 ; 4456.385476870437 ; 3517166.0395912 ; 650632.2796230857 ; 34748.00000000001
147 ; 16394.498273309637 ; 4456.385476870437 ; 3533468.339083185 ; 655088.6650999562 ; 34986.00000000001
148 ; 16174.216793760905 ; 4456.385476870437 ; 3549862.8373564947 ; 659545.0505768267 ; 35224.00000000001
149 ; 16016.227094200196 ; 4456.385476870437 ; 3566037.054150256 ; 664001.4360536971 ; 35462.00000000001
150 ; 16067.548089808293 ; 4456.385476870437 ; 3582053.281244456 ; 668457.8215305676 ; 35700.00000000001
151 ; 15797.079741351597 ; 4456.385476870437 ; 3598120.829334264 ; 672914.2070074381 ; 35938.00000000001
152 ; 15648.018159333928 ; 4456.385476870437 ; 3613917.909075616 ; 677370.5924843085 ; 36176.00000000001
153 ; 15429.906498769382 ; 4456.385476870437 ; 3629565.92723495 ; 681826.977961179 ; 36414.00000000001
154 ; 15243.896118175266 ; 4456.385476870437 ; 3644995.8337337193 ; 686283.3634380494 ; 36652.00000000001
155 ; 15128.719310522474 ; 4456.385476870437 ; 3660239.7298518945 ; 690739.7489149199 ; 36890.00000000001
156 ; 15156.219365682806 ; 4456.385476870437 ; 3675368.449162417 ; 695196.1343917904 ; 37128.00000000001
157 ; 14793.685324395545 ; 4456.385476870437 ; 3690524.6685281 ; 699652.5198686608 ; 37366.00000000001
158 ; 14784.710048338313 ; 4456.385476870437 ; 3705318.3538524956 ; 704108.9053455313 ; 37604.00000000001
159 ; 14640.524051648199 ; 4456.385476870437 ; 3720103.063900834 ; 708565.2908224018 ; 37842.00000000001
160 ; 14455.69649658893 ; 4456.385476870437 ; 3734743.587952482 ; 713021.6762992722 ; 38080.00000000001
161 ; 14245.15229632559 ; 4456.385476870437 ; 3749199.284449071 ; 717478.0617761427 ; 38318.00000000001
162 ; 13962.959345567295 ; 4456.385476870437 ; 3763444.436745397 ; 721934.4472530131 ; 38556.00000000001
163 ; 13710.644744206134 ; 4456.385476870437 ; 3777407.3960909643 ; 726390.8327298836 ; 38794.00000000001
164 ; 13772.546990707307 ; 4456.385476870437 ; 3791118.0408351705 ; 730847.2182067541 ; 39032.00000000001
165 ; 13421.101146040883 ; 4456.385476870437 ; 3804890.587825878 ; 735303.6036836245 ; 39270.00000000001
166 ; 13190.511313999166 ; 4456.385476870437 ; 3818311.688971919 ; 739759.989160495 ; 39508.00000000001
167 ; 13257.568745902941 ; 4456.385476870437 ; 3831502.200285918 ; 744216.3746373655 ; 39746.00000000001
168 ; 12897.388262669263 ; 4456.385476870437 ; 3844759.769031821 ; 748672.7601142359 ; 39984.00000000001
169 ; 12912.494975786485 ; 4456.385476870437 ; 3857657.15729449 ; 753129.1455911064 ; 40222.00000000001
170 ; 12428.861888157091 ; 4456.385476870437 ; 3870569.6522702766 ; 757585.5310679768 ; 40460.00000000001
171 ; 12484.536092535345 ; 4456.385476870437 ; 3882998.514158434 ; 762041.9165448473 ; 40698.00000000001
172 ; 12222.456886015869 ; 4456.385476870437 ; 3895483.050250969 ; 766498.3020217178 ; 40936.00000000001
173 ; 11902.2968689552 ; 4456.385476870437 ; 3907705.5071369847 ; 770954.6874985882 ; 41174.00000000001
174 ; 12044.821135940601 ; 4456.385476870437 ; 3919607.80400594 ; 775411.0729754587 ; 41412.00000000001
175 ; 12035.879128464756 ; 4456.385476870437 ; 3931652.6251418805 ; 779867.4584523292 ; 41650.00000000001
176 ; 12117.352219853987 ; 4456.385476870437 ; 3943688.5042703454 ; 784323.8439291996 ; 41888.00000000001
177 ; 12136.538678423287 ; 4456.385476870437 ; 3955805.8564901995 ; 788780.2294060701 ; 42126.00000000001
178 ; 12327.611337642356 ; 4456.385476870437 ; 3967942.395168623 ; 793236.6148829405 ; 42364.00000000001
179 ; 12174.125826954545 ; 4456.385476870437 ; 3980270.006506265 ; 797693.000359811 ; 42602.00000000001
180 ; 12227.891263275429 ; 4456.385476870437 ; 3992444.1323332195 ; 802149.3858366815 ; 42840.00000000001
181 ; 12355.43824399747 ; 4456.385476870437 ; 4004672.023596495 ; 806605.7713135519 ; 43078.00000000001
182 ; 12315.850081603803 ; 4456.385476870437 ; 4017027.461840492 ; 811062.1567904224 ; 43316.00000000001
183 ; 12404.35498548516 ; 4456.385476870437 ; 4029343.311922096 ; 815518.5422672929 ; 43554.00000000001
184 ; 12394.456400767991 ; 4456.385476870437 ; 4041747.6669075815 ; 819974.9277441633 ; 43792.00000000001
185 ; 12311.764619749574 ; 4456.385476870437 ; 4054142.1233083494 ; 824431.3132210338 ; 44030.00000000001
186 ; 12503.702420112248 ; 4456.385476870437 ; 4066453.887928099 ; 828887.6986979042 ; 44268.00000000001
