CSV File for the City 1 on Day 154
1 - Minute m 
2 - Power Consumed at minute m 
3 - Power Produced at minute m 
4 - Energy Consumed since the beginning of the day 
5 - Energy Produced since the beginning of the day 
6 - Energy Lost since the beginning of the day on lines starting from the city
 
0 ; 8429.082397128586 ; 3891.4237717755313 ; 0.0 ; 0.0 ; 0.0
1 ; 8833.145653336023 ; 3891.4237717755313 ; 8429.082397128586 ; 3891.4237717755313 ; 238.00000000000003
2 ; 9413.005630386424 ; 3891.4237717755313 ; 17262.22805046461 ; 7782.847543551063 ; 476.00000000000006
3 ; 9812.497490414915 ; 3891.4237717755313 ; 26675.233680851037 ; 11674.271315326594 ; 714.0000000000001
4 ; 10270.084431252064 ; 3891.4237717755313 ; 36487.73117126595 ; 15565.695087102125 ; 952.0000000000001
5 ; 10715.994577071371 ; 3891.4237717755313 ; 46757.815602518014 ; 19457.118858877657 ; 1190.0000000000002
6 ; 11323.3350897482 ; 3891.4237717755313 ; 57473.81017958939 ; 23348.542630653188 ; 1428.0000000000002
7 ; 11601.374163584229 ; 3891.4237717755313 ; 68797.14526933759 ; 27239.96640242872 ; 1666.0000000000002
8 ; 12280.612513326198 ; 3891.4237717755313 ; 80398.51943292182 ; 31131.39017420425 ; 1904.0000000000002
9 ; 12560.227827005067 ; 3891.4237717755313 ; 92679.13194624802 ; 35022.81394597978 ; 2142.0000000000005
10 ; 12951.8240996187 ; 3891.4237717755313 ; 105239.35977325309 ; 38914.23771775531 ; 2380.0000000000005
11 ; 13396.62780721887 ; 3891.4237717755313 ; 118191.18387287178 ; 42805.661489530845 ; 2618.0000000000005
12 ; 13751.828871045076 ; 3891.4237717755313 ; 131587.81168009064 ; 46697.085261306376 ; 2856.0000000000005
13 ; 14208.176567189303 ; 3891.4237717755313 ; 145339.64055113573 ; 50588.50903308191 ; 3094.0000000000005
14 ; 14543.384834461489 ; 3891.4237717755313 ; 159547.81711832504 ; 54479.93280485744 ; 3332.0000000000005
15 ; 15130.98557479751 ; 3891.4237717755313 ; 174091.20195278653 ; 58371.35657663297 ; 3570.0000000000005
16 ; 15319.422365119744 ; 3891.4237717755313 ; 189222.18752758406 ; 62262.7803484085 ; 3808.0000000000005
17 ; 15615.66830703456 ; 3891.4237717755313 ; 204541.6098927038 ; 66154.20412018403 ; 4046.0000000000005
18 ; 16209.227288040081 ; 3891.4237717755313 ; 220157.27819973836 ; 70045.62789195956 ; 4284.000000000001
19 ; 16366.527216374403 ; 3891.4237717755313 ; 236366.50548777843 ; 73937.0516637351 ; 4522.000000000001
20 ; 16701.063455010226 ; 3891.4237717755313 ; 252733.03270415284 ; 77828.47543551063 ; 4760.000000000001
21 ; 17233.4748573559 ; 3891.4237717755313 ; 269434.09615916305 ; 81719.89920728616 ; 4998.000000000001
22 ; 17615.1016001411 ; 3891.4237717755313 ; 286667.5710165189 ; 85611.32297906169 ; 5236.000000000001
23 ; 18033.10516902174 ; 3891.4237717755313 ; 304282.67261666 ; 89502.74675083722 ; 5474.000000000001
24 ; 18355.99880433773 ; 3891.4237717755313 ; 322315.77778568177 ; 93394.17052261275 ; 5712.000000000001
25 ; 18601.4726346682 ; 3891.4237717755313 ; 340671.7765900195 ; 97285.59429438828 ; 5950.000000000001
26 ; 18850.34101919129 ; 3891.4237717755313 ; 359273.2492246877 ; 101177.01806616382 ; 6188.000000000001
27 ; 19289.30047529904 ; 3891.4237717755313 ; 378123.590243879 ; 105068.44183793935 ; 6426.000000000001
28 ; 19656.16994190461 ; 3891.4237717755313 ; 397412.890719178 ; 108959.86560971488 ; 6664.000000000001
29 ; 19898.712114312944 ; 3891.4237717755313 ; 417069.0606610826 ; 112851.28938149041 ; 6902.000000000001
30 ; 20176.581280560098 ; 3891.4237717755313 ; 436967.77277539554 ; 116742.71315326594 ; 7140.000000000001
31 ; 20268.512580712297 ; 3891.4237717755313 ; 457144.35405595566 ; 120634.13692504147 ; 7378.000000000001
32 ; 20734.99040773085 ; 3891.4237717755313 ; 477412.866636668 ; 124525.560696817 ; 7616.000000000001
33 ; 20987.843534823034 ; 3891.4237717755313 ; 498147.85704439884 ; 128416.98446859253 ; 7854.000000000001
34 ; 21404.85098639538 ; 3891.4237717755313 ; 519135.7005792219 ; 132308.40824036807 ; 8092.000000000001
35 ; 21510.852627568063 ; 3891.4237717755313 ; 540540.5515656173 ; 136199.8320121436 ; 8330.000000000002
36 ; 22065.249325307126 ; 3891.4237717755313 ; 562051.4041931854 ; 140091.25578391913 ; 8568.000000000002
37 ; 22147.075893725498 ; 3891.4237717755313 ; 584116.6535184925 ; 143982.67955569466 ; 8806.000000000002
38 ; 22509.236120834033 ; 3891.4237717755313 ; 606263.729412218 ; 147874.1033274702 ; 9044.000000000002
39 ; 22640.08147330864 ; 3891.4237717755313 ; 628772.965533052 ; 151765.52709924572 ; 9282.000000000002
40 ; 23051.91110848875 ; 3891.4237717755313 ; 651413.0470063606 ; 155656.95087102125 ; 9520.000000000002
41 ; 23177.417394707685 ; 3891.4237717755313 ; 674464.9581148494 ; 159548.37464279679 ; 9758.000000000002
42 ; 23415.383972920143 ; 3891.4237717755313 ; 697642.3755095571 ; 163439.79841457232 ; 9996.000000000002
43 ; 23579.58398477768 ; 3891.4237717755313 ; 721057.7594824772 ; 167331.22218634785 ; 10234.000000000002
44 ; 23991.961550589625 ; 3891.4237717755313 ; 744637.3434672549 ; 171222.64595812338 ; 10472.000000000002
45 ; 24042.458471090937 ; 3891.4237717755313 ; 768629.3050178445 ; 175114.0697298989 ; 10710.000000000002
46 ; 24258.05638403724 ; 3891.4237717755313 ; 792671.7634889354 ; 179005.49350167444 ; 10948.000000000002
47 ; 24603.925289912713 ; 3891.4237717755313 ; 816929.8198729727 ; 182896.91727344997 ; 11186.000000000002
48 ; 24798.120075103616 ; 3891.4237717755313 ; 841533.7451628854 ; 186788.3410452255 ; 11424.000000000002
49 ; 24929.08465811184 ; 3891.4237717755313 ; 866331.865237989 ; 190679.76481700104 ; 11662.000000000002
50 ; 25201.016095631287 ; 3891.4237717755313 ; 891260.9498961008 ; 194571.18858877657 ; 11900.000000000002
51 ; 25122.433287495816 ; 3891.4237717755313 ; 916461.9659917321 ; 198462.6123605521 ; 12138.000000000002
52 ; 25386.480671514782 ; 3891.4237717755313 ; 941584.399279228 ; 202354.03613232763 ; 12376.000000000002
53 ; 25602.054478508788 ; 3891.4237717755313 ; 966970.8799507427 ; 206245.45990410316 ; 12614.000000000002
54 ; 25751.105003262284 ; 3891.4237717755313 ; 992572.9344292515 ; 210136.8836758787 ; 12852.000000000002
55 ; 25933.577005904164 ; 3891.4237717755313 ; 1018324.0394325138 ; 214028.30744765422 ; 13090.000000000002
56 ; 25980.58813412903 ; 3891.4237717755313 ; 1044257.6164384179 ; 217919.73121942976 ; 13328.000000000002
57 ; 26160.31492177569 ; 3891.4237717755313 ; 1070238.204572547 ; 221811.1549912053 ; 13566.000000000002
58 ; 26299.9683696886 ; 3891.4237717755313 ; 1096398.5194943226 ; 225702.57876298082 ; 13804.000000000002
59 ; 26598.042724302664 ; 3891.4237717755313 ; 1122698.4878640112 ; 229594.00253475635 ; 14042.000000000002
60 ; 26864.496351568683 ; 3891.4237717755313 ; 1149296.530588314 ; 233485.42630653188 ; 14280.000000000002
61 ; 26663.118385167243 ; 3891.4237717755313 ; 1176161.0269398827 ; 237376.8500783074 ; 14518.000000000002
62 ; 27041.541187655963 ; 3891.4237717755313 ; 1202824.14532505 ; 241268.27385008294 ; 14756.000000000002
63 ; 26926.784497072866 ; 3891.4237717755313 ; 1229865.6865127059 ; 245159.69762185848 ; 14994.000000000002
64 ; 27034.87100309775 ; 3891.4237717755313 ; 1256792.4710097788 ; 249051.121393634 ; 15232.000000000002
65 ; 27139.058829733007 ; 3891.4237717755313 ; 1283827.3420128766 ; 252942.54516540954 ; 15470.000000000002
66 ; 27317.690173116018 ; 3891.4237717755313 ; 1310966.4008426096 ; 256833.96893718507 ; 15708.000000000002
67 ; 27363.03229482997 ; 3891.4237717755313 ; 1338284.0910157256 ; 260725.3927089606 ; 15946.000000000002
68 ; 27669.490640212513 ; 3891.4237717755313 ; 1365647.1233105557 ; 264616.81648073613 ; 16184.000000000002
69 ; 27606.03296490835 ; 3891.4237717755313 ; 1393316.6139507683 ; 268508.2402525117 ; 16422.000000000004
70 ; 27690.546402345786 ; 3891.4237717755313 ; 1420922.6469156765 ; 272399.66402428725 ; 16660.000000000004
71 ; 27742.69675209435 ; 3891.4237717755313 ; 1448613.1933180224 ; 276291.0877960628 ; 16898.000000000004
72 ; 27472.38574009715 ; 3891.4237717755313 ; 1476355.8900701168 ; 280182.5115678384 ; 17136.000000000004
73 ; 27731.76018802867 ; 3891.4237717755313 ; 1503828.275810214 ; 284073.93533961393 ; 17374.000000000004
74 ; 27812.37135969412 ; 3891.4237717755313 ; 1531560.0359982427 ; 287965.3591113895 ; 17612.000000000004
75 ; 27898.409567070266 ; 3891.4237717755313 ; 1559372.4073579367 ; 291856.78288316505 ; 17850.000000000004
76 ; 28024.334967130966 ; 3891.4237717755313 ; 1587270.816925007 ; 295748.2066549406 ; 18088.000000000004
77 ; 28115.87896755757 ; 3891.4237717755313 ; 1615295.151892138 ; 299639.6304267162 ; 18326.000000000004
78 ; 28003.700315271497 ; 3891.4237717755313 ; 1643411.0308596955 ; 303531.05419849174 ; 18564.000000000004
79 ; 28207.081997576825 ; 3891.4237717755313 ; 1671414.731174967 ; 307422.4779702673 ; 18802.000000000004
80 ; 28160.51109552226 ; 3891.4237717755313 ; 1699621.813172544 ; 311313.90174204286 ; 19040.000000000004
81 ; 27996.828096286332 ; 3891.4237717755313 ; 1727782.324268066 ; 315205.3255138184 ; 19278.000000000004
82 ; 28079.502796911805 ; 3891.4237717755313 ; 1755779.1523643525 ; 319096.749285594 ; 19516.000000000004
83 ; 28089.381354323006 ; 3891.4237717755313 ; 1783858.6551612644 ; 322988.17305736954 ; 19754.000000000004
84 ; 28132.354862639848 ; 3891.4237717755313 ; 1811948.0365155875 ; 326879.5968291451 ; 19992.000000000004
85 ; 27946.021556321233 ; 3891.4237717755313 ; 1840080.3913782274 ; 330771.02060092066 ; 20230.000000000004
86 ; 28015.659910460476 ; 3891.4237717755313 ; 1868026.4129345487 ; 334662.4443726962 ; 20468.000000000004
87 ; 28194.354201688257 ; 3891.4237717755313 ; 1896042.0728450092 ; 338553.8681444718 ; 20706.000000000004
88 ; 27883.623292538563 ; 3891.4237717755313 ; 1924236.4270466974 ; 342445.29191624734 ; 20944.000000000004
89 ; 27808.50613024374 ; 3891.4237717755313 ; 1952120.050339236 ; 346336.7156880229 ; 21182.000000000004
90 ; 27708.327361317955 ; 3891.4237717755313 ; 1979928.5564694796 ; 350228.13945979846 ; 21420.000000000004
91 ; 27770.890842592285 ; 3891.4237717755313 ; 2007636.8838307976 ; 354119.563231574 ; 21658.000000000004
92 ; 27706.66378148079 ; 3891.4237717755313 ; 2035407.77467339 ; 358010.9870033496 ; 21896.000000000004
93 ; 27669.97402964502 ; 3891.4237717755313 ; 2063114.4384548708 ; 361902.41077512514 ; 22134.000000000004
94 ; 27390.94686890333 ; 3891.4237717755313 ; 2090784.412484516 ; 365793.8345469007 ; 22372.000000000004
95 ; 27558.19490514218 ; 3891.4237717755313 ; 2118175.3593534194 ; 369685.25831867626 ; 22610.000000000004
96 ; 27247.805169851967 ; 3891.4237717755313 ; 2145733.5542585617 ; 373576.6820904518 ; 22848.000000000004
97 ; 27339.807945014316 ; 3891.4237717755313 ; 2172981.3594284137 ; 377468.1058622274 ; 23086.000000000004
98 ; 27369.53969292285 ; 3891.4237717755313 ; 2200321.167373428 ; 381359.52963400295 ; 23324.000000000004
99 ; 27235.54566683627 ; 3891.4237717755313 ; 2227690.707066351 ; 385250.9534057785 ; 23562.000000000004
100 ; 27109.90843231221 ; 3891.4237717755313 ; 2254926.2527331873 ; 389142.37717755407 ; 23800.000000000004
101 ; 26990.795194829116 ; 3891.4237717755313 ; 2282036.1611654996 ; 393033.8009493296 ; 24038.000000000004
102 ; 26983.962699497602 ; 3891.4237717755313 ; 2309026.956360329 ; 396925.2247211052 ; 24276.000000000004
103 ; 26454.386591312632 ; 3891.4237717755313 ; 2336010.9190598265 ; 400816.64849288075 ; 24514.000000000004
104 ; 26542.50606696767 ; 3891.4237717755313 ; 2362465.305651139 ; 404708.0722646563 ; 24752.000000000004
105 ; 26373.610873279053 ; 3891.4237717755313 ; 2389007.8117181067 ; 408599.49603643187 ; 24990.000000000004
106 ; 26260.280243558132 ; 3891.4237717755313 ; 2415381.422591386 ; 412490.9198082074 ; 25228.000000000004
107 ; 26234.52135223362 ; 3891.4237717755313 ; 2441641.7028349442 ; 416382.343579983 ; 25466.000000000004
108 ; 25873.082149077258 ; 3891.4237717755313 ; 2467876.224187178 ; 420273.76735175855 ; 25704.000000000004
109 ; 25778.76921708018 ; 3891.4237717755313 ; 2493749.3063362553 ; 424165.1911235341 ; 25942.000000000004
110 ; 25378.085481838712 ; 3891.4237717755313 ; 2519528.0755533352 ; 428056.61489530967 ; 26180.000000000004
111 ; 25542.32718223617 ; 3891.4237717755313 ; 2544906.161035174 ; 431948.03866708523 ; 26418.000000000004
112 ; 25280.750145549668 ; 3891.4237717755313 ; 2570448.48821741 ; 435839.4624388608 ; 26656.000000000004
113 ; 25050.65379873161 ; 3891.4237717755313 ; 2595729.23836296 ; 439730.88621063635 ; 26894.000000000004
114 ; 24783.35033571782 ; 3891.4237717755313 ; 2620779.8921616916 ; 443622.3099824119 ; 27132.000000000004
115 ; 24772.13281917288 ; 3891.4237717755313 ; 2645563.242497409 ; 447513.7337541875 ; 27370.000000000004
116 ; 24546.003014348087 ; 3891.4237717755313 ; 2670335.375316582 ; 451405.15752596303 ; 27608.000000000004
117 ; 24319.52153821987 ; 3891.4237717755313 ; 2694881.37833093 ; 455296.5812977386 ; 27846.000000000004
118 ; 24052.72211295763 ; 3891.4237717755313 ; 2719200.89986915 ; 459188.00506951415 ; 28084.000000000004
119 ; 23967.48953572836 ; 3891.4237717755313 ; 2743253.621982108 ; 463079.4288412897 ; 28322.000000000004
120 ; 23605.220894326274 ; 3891.4237717755313 ; 2767221.1115178363 ; 466970.8526130653 ; 28560.000000000004
121 ; 23457.50347019856 ; 3891.4237717755313 ; 2790826.332412163 ; 470862.27638484084 ; 28798.000000000004
122 ; 23232.61801735797 ; 3891.4237717755313 ; 2814283.8358823615 ; 474753.7001566164 ; 29036.000000000004
123 ; 22985.488775116253 ; 3891.4237717755313 ; 2837516.4538997193 ; 478645.12392839196 ; 29274.000000000004
124 ; 22393.288486269706 ; 3891.4237717755313 ; 2860501.9426748357 ; 482536.5477001675 ; 29512.000000000004
125 ; 22412.978891619554 ; 3891.4237717755313 ; 2882895.2311611054 ; 486427.9714719431 ; 29750.000000000004
126 ; 22117.549798545297 ; 3891.4237717755313 ; 2905308.210052725 ; 490319.39524371864 ; 29988.000000000004
127 ; 21955.577134745334 ; 3891.4237717755313 ; 2927425.7598512704 ; 494210.8190154942 ; 30226.000000000004
128 ; 21472.14146973609 ; 3891.4237717755313 ; 2949381.3369860156 ; 498102.24278726976 ; 30464.000000000004
129 ; 21283.407523984897 ; 3891.4237717755313 ; 2970853.4784557517 ; 501993.6665590453 ; 30702.000000000004
130 ; 20887.14175538443 ; 3891.4237717755313 ; 2992136.8859797367 ; 505885.0903308209 ; 30940.000000000004
131 ; 20557.34612859594 ; 3891.4237717755313 ; 3013024.027735121 ; 509776.51410259644 ; 31178.000000000004
132 ; 20507.629563007984 ; 3891.4237717755313 ; 3033581.373863717 ; 513667.937874372 ; 31416.000000000004
133 ; 20084.113677230718 ; 3891.4237717755313 ; 3054089.003426725 ; 517559.36164614756 ; 31654.000000000004
134 ; 19732.945173919998 ; 3891.4237717755313 ; 3074173.1171039557 ; 521450.7854179231 ; 31892.000000000004
135 ; 19573.585224252638 ; 3891.4237717755313 ; 3093906.062277876 ; 525342.2091896987 ; 32130.000000000004
136 ; 19271.885650435983 ; 3891.4237717755313 ; 3113479.6475021285 ; 529233.6329614742 ; 32368.000000000004
137 ; 19044.681285777366 ; 3891.4237717755313 ; 3132751.5331525644 ; 533125.0567332498 ; 32606.000000000004
138 ; 18607.039685075433 ; 3891.4237717755313 ; 3151796.214438342 ; 537016.4805050254 ; 32844.00000000001
139 ; 18171.507488581065 ; 3891.4237717755313 ; 3170403.2541234177 ; 540907.9042768009 ; 33082.00000000001
140 ; 17984.525691872506 ; 3891.4237717755313 ; 3188574.7616119985 ; 544799.3280485765 ; 33320.00000000001
141 ; 17461.224419836344 ; 3891.4237717755313 ; 3206559.287303871 ; 548690.751820352 ; 33558.00000000001
142 ; 17156.601228971533 ; 3891.4237717755313 ; 3224020.5117237074 ; 552582.1755921276 ; 33796.00000000001
143 ; 16911.60851216958 ; 3891.4237717755313 ; 3241177.112952679 ; 556473.5993639032 ; 34034.00000000001
144 ; 16542.904353060545 ; 3891.4237717755313 ; 3258088.7214648486 ; 560365.0231356787 ; 34272.00000000001
145 ; 16398.238407859888 ; 3891.4237717755313 ; 3274631.6258179094 ; 564256.4469074543 ; 34510.00000000001
146 ; 16217.897521251516 ; 3891.4237717755313 ; 3291029.8642257694 ; 568147.8706792298 ; 34748.00000000001
147 ; 16067.277163739373 ; 3891.4237717755313 ; 3307247.7617470208 ; 572039.2944510054 ; 34986.00000000001
148 ; 15950.992321329384 ; 3891.4237717755313 ; 3323315.03891076 ; 575930.718222781 ; 35224.00000000001
149 ; 15895.324580483835 ; 3891.4237717755313 ; 3339266.0312320893 ; 579822.1419945565 ; 35462.00000000001
150 ; 15759.639522114874 ; 3891.4237717755313 ; 3355161.355812573 ; 583713.5657663321 ; 35700.00000000001
151 ; 15524.61118756617 ; 3891.4237717755313 ; 3370920.9953346876 ; 587604.9895381076 ; 35938.00000000001
152 ; 15499.067812540514 ; 3891.4237717755313 ; 3386445.6065222537 ; 591496.4133098832 ; 36176.00000000001
153 ; 15416.7364880592 ; 3891.4237717755313 ; 3401944.6743347943 ; 595387.8370816588 ; 36414.00000000001
154 ; 15219.743860335959 ; 3891.4237717755313 ; 3417361.4108228534 ; 599279.2608534343 ; 36652.00000000001
155 ; 15282.145594121659 ; 3891.4237717755313 ; 3432581.1546831895 ; 603170.6846252099 ; 36890.00000000001
156 ; 15026.112928315293 ; 3891.4237717755313 ; 3447863.3002773114 ; 607062.1083969855 ; 37128.00000000001
157 ; 14854.9307677415 ; 3891.4237717755313 ; 3462889.4132056264 ; 610953.532168761 ; 37366.00000000001
158 ; 14847.536372252847 ; 3891.4237717755313 ; 3477744.343973368 ; 614844.9559405366 ; 37604.00000000001
159 ; 14606.81593252627 ; 3891.4237717755313 ; 3492591.8803456207 ; 618736.3797123121 ; 37842.00000000001
160 ; 14567.801082096024 ; 3891.4237717755313 ; 3507198.696278147 ; 622627.8034840877 ; 38080.00000000001
161 ; 14394.685676049085 ; 3891.4237717755313 ; 3521766.497360243 ; 626519.2272558633 ; 38318.00000000001
162 ; 14167.016489927653 ; 3891.4237717755313 ; 3536161.183036292 ; 630410.6510276388 ; 38556.00000000001
163 ; 14226.36549118986 ; 3891.4237717755313 ; 3550328.1995262196 ; 634302.0747994144 ; 38794.00000000001
164 ; 14065.429598415045 ; 3891.4237717755313 ; 3564554.5650174096 ; 638193.4985711899 ; 39032.00000000001
165 ; 13831.704761632192 ; 3891.4237717755313 ; 3578619.994615825 ; 642084.9223429655 ; 39270.00000000001
166 ; 13595.391064455864 ; 3891.4237717755313 ; 3592451.699377457 ; 645976.346114741 ; 39508.00000000001
167 ; 13533.815557937789 ; 3891.4237717755313 ; 3606047.090441913 ; 649867.7698865166 ; 39746.00000000001
168 ; 13304.282050841133 ; 3891.4237717755313 ; 3619580.9059998505 ; 653759.1936582922 ; 39984.00000000001
169 ; 13469.5808622883 ; 3891.4237717755313 ; 3632885.1880506915 ; 657650.6174300677 ; 40222.00000000001
170 ; 12959.007751004603 ; 3891.4237717755313 ; 3646354.76891298 ; 661542.0412018433 ; 40460.00000000001
171 ; 12889.565096027723 ; 3891.4237717755313 ; 3659313.7766639846 ; 665433.4649736189 ; 40698.00000000001
172 ; 12918.202269556077 ; 3891.4237717755313 ; 3672203.3417600123 ; 669324.8887453944 ; 40936.00000000001
173 ; 12744.018468927392 ; 3891.4237717755313 ; 3685121.5440295683 ; 673216.31251717 ; 41174.00000000001
174 ; 12497.325409393045 ; 3891.4237717755313 ; 3697865.562498496 ; 677107.7362889455 ; 41412.00000000001
175 ; 12693.381315451881 ; 3891.4237717755313 ; 3710362.8879078887 ; 680999.1600607211 ; 41650.00000000001
176 ; 12733.149817225958 ; 3891.4237717755313 ; 3723056.269223341 ; 684890.5838324967 ; 41888.00000000001
177 ; 12661.462348993578 ; 3891.4237717755313 ; 3735789.419040567 ; 688782.0076042722 ; 42126.00000000001
178 ; 12869.454470310626 ; 3891.4237717755313 ; 3748450.88138956 ; 692673.4313760478 ; 42364.00000000001
179 ; 12759.43443286726 ; 3891.4237717755313 ; 3761320.335859871 ; 696564.8551478233 ; 42602.00000000001
180 ; 12897.431426815901 ; 3891.4237717755313 ; 3774079.7702927385 ; 700456.2789195989 ; 42840.00000000001
181 ; 12876.349634212003 ; 3891.4237717755313 ; 3786977.201719554 ; 704347.7026913745 ; 43078.00000000001
182 ; 12868.253440117544 ; 3891.4237717755313 ; 3799853.551353766 ; 708239.12646315 ; 43316.00000000001
183 ; 12941.419315799934 ; 3891.4237717755313 ; 3812721.8047938836 ; 712130.5502349256 ; 43554.00000000001
184 ; 12973.113689416898 ; 3891.4237717755313 ; 3825663.2241096837 ; 716021.9740067011 ; 43792.00000000001
