CSV File for the City 1 on Day 195
1 - Minute m 
2 - Power Consumed at minute m 
3 - Power Produced at minute m 
4 - Energy Consumed since the beginning of the day 
5 - Energy Produced since the beginning of the day 
6 - Energy Lost since the beginning of the day on lines starting from the city
 
0 ; 5564.872165587221 ; 3984.8274555450807 ; 0.0 ; 0.0 ; 0.0
1 ; 6129.263666938237 ; 3984.8274555450807 ; 5564.872165587221 ; 3984.8274555450807 ; 238.00000000000003
2 ; 6889.665654457443 ; 3984.8274555450807 ; 11694.135832525459 ; 7969.6549110901615 ; 476.00000000000006
3 ; 7348.0084243281 ; 3984.8274555450807 ; 18583.801486982902 ; 11954.482366635242 ; 714.0000000000001
4 ; 7969.636381678867 ; 3984.8274555450807 ; 25931.809911311 ; 15939.309822180323 ; 952.0000000000001
5 ; 8444.817464954169 ; 3984.8274555450807 ; 33901.446292989865 ; 19924.137277725404 ; 1190.0000000000002
6 ; 9065.11146061164 ; 3984.8274555450807 ; 42346.263757944034 ; 23908.964733270484 ; 1428.0000000000002
7 ; 9767.543872345728 ; 3984.8274555450807 ; 51411.37521855567 ; 27893.792188815565 ; 1666.0000000000002
8 ; 10082.057332834633 ; 3984.8274555450807 ; 61178.9190909014 ; 31878.619644360646 ; 1904.0000000000002
9 ; 10849.363025861436 ; 3984.8274555450807 ; 71260.97642373604 ; 35863.44709990572 ; 2142.0000000000005
10 ; 11246.098345169517 ; 3984.8274555450807 ; 82110.33944959746 ; 39848.2745554508 ; 2380.0000000000005
11 ; 11969.319710691712 ; 3984.8274555450807 ; 93356.43779476699 ; 43833.10201099588 ; 2618.0000000000005
12 ; 12532.079814089248 ; 3984.8274555450807 ; 105325.75750545869 ; 47817.929466540954 ; 2856.0000000000005
13 ; 12808.732568883048 ; 3984.8274555450807 ; 117857.83731954794 ; 51802.75692208603 ; 3094.0000000000005
14 ; 13164.734254126755 ; 3984.8274555450807 ; 130666.56988843098 ; 55787.58437763111 ; 3332.0000000000005
15 ; 13846.790052151588 ; 3984.8274555450807 ; 143831.30414255772 ; 59772.411833176186 ; 3570.0000000000005
16 ; 14346.860503010643 ; 3984.8274555450807 ; 157678.09419470932 ; 63757.23928872126 ; 3808.0000000000005
17 ; 14916.318942109965 ; 3984.8274555450807 ; 172024.95469771998 ; 67742.06674426634 ; 4046.0000000000005
18 ; 15249.69890577576 ; 3984.8274555450807 ; 186941.27363982995 ; 71726.89419981142 ; 4284.000000000001
19 ; 15758.415707281336 ; 3984.8274555450807 ; 202190.9725456057 ; 75711.7216553565 ; 4522.000000000001
20 ; 16180.883170503728 ; 3984.8274555450807 ; 217949.38825288703 ; 79696.54911090157 ; 4760.000000000001
21 ; 16767.00461341051 ; 3984.8274555450807 ; 234130.27142339075 ; 83681.37656644665 ; 4998.000000000001
22 ; 16961.737735988758 ; 3984.8274555450807 ; 250897.27603680125 ; 87666.20402199173 ; 5236.000000000001
23 ; 17665.417889264925 ; 3984.8274555450807 ; 267859.01377279003 ; 91651.0314775368 ; 5474.000000000001
24 ; 18102.550073063423 ; 3984.8274555450807 ; 285524.43166205497 ; 95635.85893308188 ; 5712.000000000001
25 ; 18422.416447206448 ; 3984.8274555450807 ; 303626.9817351184 ; 99620.68638862696 ; 5950.000000000001
26 ; 18968.828600539313 ; 3984.8274555450807 ; 322049.39818232483 ; 103605.51384417203 ; 6188.000000000001
27 ; 19421.208494024148 ; 3984.8274555450807 ; 341018.22678286413 ; 107590.34129971711 ; 6426.000000000001
28 ; 19647.522342785895 ; 3984.8274555450807 ; 360439.4352768883 ; 111575.16875526219 ; 6664.000000000001
29 ; 20172.643622450003 ; 3984.8274555450807 ; 380086.9576196742 ; 115559.99621080727 ; 6902.000000000001
30 ; 20448.056867061227 ; 3984.8274555450807 ; 400259.6012421242 ; 119544.82366635234 ; 7140.000000000001
31 ; 20925.91632500216 ; 3984.8274555450807 ; 420707.65810918546 ; 123529.65112189742 ; 7378.000000000001
32 ; 21240.67742696025 ; 3984.8274555450807 ; 441633.5744341876 ; 127514.4785774425 ; 7616.000000000001
33 ; 21601.003037739294 ; 3984.8274555450807 ; 462874.2518611479 ; 131499.30603298757 ; 7854.000000000001
34 ; 21966.594736068735 ; 3984.8274555450807 ; 484475.2548988872 ; 135484.13348853265 ; 8092.000000000001
35 ; 22248.765909097103 ; 3984.8274555450807 ; 506441.8496349559 ; 139468.96094407773 ; 8330.000000000002
36 ; 22657.42780065546 ; 3984.8274555450807 ; 528690.615544053 ; 143453.7883996228 ; 8568.000000000002
37 ; 22982.723857122914 ; 3984.8274555450807 ; 551348.0433447085 ; 147438.61585516788 ; 8806.000000000002
38 ; 23233.77322316621 ; 3984.8274555450807 ; 574330.7672018314 ; 151423.44331071296 ; 9044.000000000002
39 ; 23413.333053638453 ; 3984.8274555450807 ; 597564.5404249977 ; 155408.27076625804 ; 9282.000000000002
40 ; 24013.527986674802 ; 3984.8274555450807 ; 620977.8734786361 ; 159393.0982218031 ; 9520.000000000002
41 ; 24429.536157169012 ; 3984.8274555450807 ; 644991.401465311 ; 163377.9256773482 ; 9758.000000000002
42 ; 24797.527734673124 ; 3984.8274555450807 ; 669420.93762248 ; 167362.75313289327 ; 9996.000000000002
43 ; 24824.80756316951 ; 3984.8274555450807 ; 694218.4653571531 ; 171347.58058843834 ; 10234.000000000002
44 ; 25179.398666898054 ; 3984.8274555450807 ; 719043.2729203226 ; 175332.40804398342 ; 10472.000000000002
45 ; 25492.757062815228 ; 3984.8274555450807 ; 744222.6715872206 ; 179317.2354995285 ; 10710.000000000002
46 ; 25527.65072917867 ; 3984.8274555450807 ; 769715.4286500359 ; 183302.06295507358 ; 10948.000000000002
47 ; 25948.532367380038 ; 3984.8274555450807 ; 795243.0793792146 ; 187286.89041061865 ; 11186.000000000002
48 ; 26182.567079858145 ; 3984.8274555450807 ; 821191.6117465945 ; 191271.71786616373 ; 11424.000000000002
49 ; 26512.800547049446 ; 3984.8274555450807 ; 847374.1788264527 ; 195256.5453217088 ; 11662.000000000002
50 ; 26650.697722521745 ; 3984.8274555450807 ; 873886.9793735022 ; 199241.37277725388 ; 11900.000000000002
51 ; 27054.849717799818 ; 3984.8274555450807 ; 900537.6770960239 ; 203226.20023279896 ; 12138.000000000002
52 ; 27264.153443520343 ; 3984.8274555450807 ; 927592.5268138237 ; 207211.02768834404 ; 12376.000000000002
53 ; 27417.56627489226 ; 3984.8274555450807 ; 954856.680257344 ; 211195.85514388912 ; 12614.000000000002
54 ; 27607.142970857545 ; 3984.8274555450807 ; 982274.2465322363 ; 215180.6825994342 ; 12852.000000000002
55 ; 28020.914768946404 ; 3984.8274555450807 ; 1009881.3895030939 ; 219165.51005497927 ; 13090.000000000002
56 ; 28137.957749402613 ; 3984.8274555450807 ; 1037902.3042720403 ; 223150.33751052435 ; 13328.000000000002
57 ; 28313.676818921424 ; 3984.8274555450807 ; 1066040.2620214429 ; 227135.16496606942 ; 13566.000000000002
58 ; 28482.652084172052 ; 3984.8274555450807 ; 1094353.9388403643 ; 231119.9924216145 ; 13804.000000000002
59 ; 28660.77196670816 ; 3984.8274555450807 ; 1122836.5909245363 ; 235104.81987715958 ; 14042.000000000002
60 ; 28970.29565809801 ; 3984.8274555450807 ; 1151497.3628912445 ; 239089.64733270466 ; 14280.000000000002
61 ; 29086.671373198857 ; 3984.8274555450807 ; 1180467.6585493425 ; 243074.47478824973 ; 14518.000000000002
62 ; 29087.454045972645 ; 3984.8274555450807 ; 1209554.3299225415 ; 247059.3022437948 ; 14756.000000000002
63 ; 29475.080379743267 ; 3984.8274555450807 ; 1238641.783968514 ; 251044.1296993399 ; 14994.000000000002
64 ; 29406.415179578464 ; 3984.8274555450807 ; 1268116.8643482574 ; 255028.95715488496 ; 15232.000000000002
65 ; 29546.47058704198 ; 3984.8274555450807 ; 1297523.2795278358 ; 259013.78461043004 ; 15470.000000000002
66 ; 29831.11098188227 ; 3984.8274555450807 ; 1327069.7501148777 ; 262998.61206597515 ; 15708.000000000002
67 ; 29877.335564028166 ; 3984.8274555450807 ; 1356900.86109676 ; 266983.4395215202 ; 15946.000000000002
68 ; 30077.15450472052 ; 3984.8274555450807 ; 1386778.1966607883 ; 270968.2669770653 ; 16184.000000000002
69 ; 29960.83810041782 ; 3984.8274555450807 ; 1416855.3511655089 ; 274953.0944326104 ; 16422.000000000004
70 ; 30327.2258642994 ; 3984.8274555450807 ; 1446816.1892659266 ; 278937.92188815546 ; 16660.000000000004
71 ; 30281.974069621047 ; 3984.8274555450807 ; 1477143.415130226 ; 282922.74934370053 ; 16898.000000000004
72 ; 30445.05825340749 ; 3984.8274555450807 ; 1507425.389199847 ; 286907.5767992456 ; 17136.000000000004
73 ; 30415.651580449212 ; 3984.8274555450807 ; 1537870.4474532544 ; 290892.4042547907 ; 17374.000000000004
74 ; 30462.727981525913 ; 3984.8274555450807 ; 1568286.0990337036 ; 294877.23171033576 ; 17612.000000000004
75 ; 30552.38075516747 ; 3984.8274555450807 ; 1598748.8270152295 ; 298862.05916588084 ; 17850.000000000004
76 ; 30783.817213878217 ; 3984.8274555450807 ; 1629301.207770397 ; 302846.8866214259 ; 18088.000000000004
77 ; 30486.58050658066 ; 3984.8274555450807 ; 1660085.0249842752 ; 306831.714076971 ; 18326.000000000004
78 ; 30575.306899481715 ; 3984.8274555450807 ; 1690571.6054908559 ; 310816.5415325161 ; 18564.000000000004
79 ; 30888.0080221577 ; 3984.8274555450807 ; 1721146.9123903376 ; 314801.36898806115 ; 18802.000000000004
80 ; 30727.623777448738 ; 3984.8274555450807 ; 1752034.9204124953 ; 318786.1964436062 ; 19040.000000000004
81 ; 31025.726546297385 ; 3984.8274555450807 ; 1782762.544189944 ; 322771.0238991513 ; 19278.000000000004
82 ; 30797.38631823392 ; 3984.8274555450807 ; 1813788.2707362412 ; 326755.8513546964 ; 19516.000000000004
83 ; 30956.8656571309 ; 3984.8274555450807 ; 1844585.6570544753 ; 330740.67881024146 ; 19754.000000000004
84 ; 30726.518206378358 ; 3984.8274555450807 ; 1875542.5227116062 ; 334725.50626578653 ; 19992.000000000004
85 ; 30813.310668438186 ; 3984.8274555450807 ; 1906269.0409179847 ; 338710.3337213316 ; 20230.000000000004
86 ; 30913.591162733468 ; 3984.8274555450807 ; 1937082.3515864229 ; 342695.1611768767 ; 20468.000000000004
87 ; 30696.74493737869 ; 3984.8274555450807 ; 1967995.9427491564 ; 346679.98863242177 ; 20706.000000000004
88 ; 30741.075650381197 ; 3984.8274555450807 ; 1998692.687686535 ; 350664.81608796684 ; 20944.000000000004
89 ; 30355.534724713096 ; 3984.8274555450807 ; 2029433.7633369162 ; 354649.6435435119 ; 21182.000000000004
90 ; 30618.167926007318 ; 3984.8274555450807 ; 2059789.2980616293 ; 358634.470999057 ; 21420.000000000004
91 ; 30533.162953720617 ; 3984.8274555450807 ; 2090407.4659876367 ; 362619.2984546021 ; 21658.000000000004
92 ; 30546.657764078656 ; 3984.8274555450807 ; 2120940.628941357 ; 366604.12591014715 ; 21896.000000000004
93 ; 30390.57034918354 ; 3984.8274555450807 ; 2151487.2867054357 ; 370588.9533656922 ; 22134.000000000004
94 ; 30359.685199140164 ; 3984.8274555450807 ; 2181877.857054619 ; 374573.7808212373 ; 22372.000000000004
95 ; 30153.399716353902 ; 3984.8274555450807 ; 2212237.542253759 ; 378558.6082767824 ; 22610.000000000004
96 ; 30184.211924806 ; 3984.8274555450807 ; 2242390.941970113 ; 382543.43573232746 ; 22848.000000000004
97 ; 29981.82680444617 ; 3984.8274555450807 ; 2272575.153894919 ; 386528.26318787254 ; 23086.000000000004
98 ; 29847.757491770833 ; 3984.8274555450807 ; 2302556.980699365 ; 390513.0906434176 ; 23324.000000000004
99 ; 29861.626323332108 ; 3984.8274555450807 ; 2332404.7381911357 ; 394497.9180989627 ; 23562.000000000004
100 ; 29667.65975813929 ; 3984.8274555450807 ; 2362266.364514468 ; 398482.74555450777 ; 23800.000000000004
101 ; 29663.340649317313 ; 3984.8274555450807 ; 2391934.024272607 ; 402467.57301005285 ; 24038.000000000004
102 ; 29405.04649543506 ; 3984.8274555450807 ; 2421597.3649219247 ; 406452.4004655979 ; 24276.000000000004
103 ; 29449.12915331212 ; 3984.8274555450807 ; 2451002.4114173595 ; 410437.227921143 ; 24514.000000000004
104 ; 28972.070681099547 ; 3984.8274555450807 ; 2480451.5405706717 ; 414422.0553766881 ; 24752.000000000004
105 ; 28844.81369401628 ; 3984.8274555450807 ; 2509423.6112517715 ; 418406.88283223315 ; 24990.000000000004
106 ; 28802.60466530474 ; 3984.8274555450807 ; 2538268.4249457875 ; 422391.71028777823 ; 25228.000000000004
107 ; 28566.880913040066 ; 3984.8274555450807 ; 2567071.029611092 ; 426376.5377433233 ; 25466.000000000004
108 ; 28524.518933614298 ; 3984.8274555450807 ; 2595637.910524132 ; 430361.3651988684 ; 25704.000000000004
109 ; 28209.38285701473 ; 3984.8274555450807 ; 2624162.4294577464 ; 434346.19265441346 ; 25942.000000000004
110 ; 28057.321982563528 ; 3984.8274555450807 ; 2652371.8123147613 ; 438331.02010995854 ; 26180.000000000004
111 ; 27942.21900131876 ; 3984.8274555450807 ; 2680429.134297325 ; 442315.8475655036 ; 26418.000000000004
112 ; 27438.41365019279 ; 3984.8274555450807 ; 2708371.3532986436 ; 446300.6750210487 ; 26656.000000000004
113 ; 27365.156366717718 ; 3984.8274555450807 ; 2735809.7669488364 ; 450285.50247659377 ; 26894.000000000004
114 ; 26985.03112350837 ; 3984.8274555450807 ; 2763174.923315554 ; 454270.32993213885 ; 27132.000000000004
115 ; 26906.418838817677 ; 3984.8274555450807 ; 2790159.954439062 ; 458255.1573876839 ; 27370.000000000004
116 ; 26571.843536505512 ; 3984.8274555450807 ; 2817066.37327788 ; 462239.984843229 ; 27608.000000000004
117 ; 26426.56747351431 ; 3984.8274555450807 ; 2843638.2168143853 ; 466224.8122987741 ; 27846.000000000004
118 ; 26290.69707246663 ; 3984.8274555450807 ; 2870064.7842878997 ; 470209.63975431916 ; 28084.000000000004
119 ; 25781.3127729872 ; 3984.8274555450807 ; 2896355.4813603666 ; 474194.46720986423 ; 28322.000000000004
120 ; 25592.520175295933 ; 3984.8274555450807 ; 2922136.794133354 ; 478179.2946654093 ; 28560.000000000004
121 ; 25236.506554127995 ; 3984.8274555450807 ; 2947729.31430865 ; 482164.1221209544 ; 28798.000000000004
122 ; 25042.081885284766 ; 3984.8274555450807 ; 2972965.820862778 ; 486148.94957649946 ; 29036.000000000004
123 ; 24801.311851324328 ; 3984.8274555450807 ; 2998007.9027480627 ; 490133.77703204454 ; 29274.000000000004
124 ; 24416.040502356773 ; 3984.8274555450807 ; 3022809.2145993873 ; 494118.6044875896 ; 29512.000000000004
125 ; 24152.446251305606 ; 3984.8274555450807 ; 3047225.255101744 ; 498103.4319431347 ; 29750.000000000004
126 ; 23747.83321134047 ; 3984.8274555450807 ; 3071377.70135305 ; 502088.2593986798 ; 29988.000000000004
127 ; 23442.738043003912 ; 3984.8274555450807 ; 3095125.5345643903 ; 506073.08685422485 ; 30226.000000000004
128 ; 23013.41886272273 ; 3984.8274555450807 ; 3118568.272607394 ; 510057.9143097699 ; 30464.000000000004
129 ; 22629.371157096604 ; 3984.8274555450807 ; 3141581.691470117 ; 514042.741765315 ; 30702.000000000004
130 ; 22358.09727763888 ; 3984.8274555450807 ; 3164211.0626272135 ; 518027.5692208601 ; 30940.000000000004
131 ; 22034.26859999143 ; 3984.8274555450807 ; 3186569.1599048525 ; 522012.39667640516 ; 31178.000000000004
132 ; 21682.662830400124 ; 3984.8274555450807 ; 3208603.4285048437 ; 525997.2241319503 ; 31416.000000000004
133 ; 21280.764674759874 ; 3984.8274555450807 ; 3230286.091335244 ; 529982.0515874954 ; 31654.000000000004
134 ; 20759.002269605142 ; 3984.8274555450807 ; 3251566.856010004 ; 533966.8790430404 ; 31892.000000000004
135 ; 20430.0315984677 ; 3984.8274555450807 ; 3272325.858279609 ; 537951.7064985855 ; 32130.000000000004
136 ; 20218.58395713142 ; 3984.8274555450807 ; 3292755.889878077 ; 541936.5339541306 ; 32368.000000000004
137 ; 19721.15997401951 ; 3984.8274555450807 ; 3312974.4738352085 ; 545921.3614096757 ; 32606.000000000004
138 ; 19214.246186479377 ; 3984.8274555450807 ; 3332695.633809228 ; 549906.1888652208 ; 32844.00000000001
139 ; 18915.040118792876 ; 3984.8274555450807 ; 3351909.8799957074 ; 553891.0163207658 ; 33082.00000000001
140 ; 18406.238869589426 ; 3984.8274555450807 ; 3370824.9201145004 ; 557875.8437763109 ; 33320.00000000001
141 ; 17963.835628663543 ; 3984.8274555450807 ; 3389231.1589840897 ; 561860.671231856 ; 33558.00000000001
142 ; 17417.508318746863 ; 3984.8274555450807 ; 3407194.9946127534 ; 565845.4986874011 ; 33796.00000000001
143 ; 17020.357935881486 ; 3984.8274555450807 ; 3424612.5029315003 ; 569830.3261429461 ; 34034.00000000001
144 ; 16716.722357602503 ; 3984.8274555450807 ; 3441632.860867382 ; 573815.1535984912 ; 34272.00000000001
145 ; 16569.757479177104 ; 3984.8274555450807 ; 3458349.5832249844 ; 577799.9810540363 ; 34510.00000000001
146 ; 16649.127887301864 ; 3984.8274555450807 ; 3474919.3407041617 ; 581784.8085095814 ; 34748.00000000001
147 ; 16375.278383187779 ; 3984.8274555450807 ; 3491568.4685914638 ; 585769.6359651265 ; 34986.00000000001
148 ; 16116.310243956665 ; 3984.8274555450807 ; 3507943.7469746517 ; 589754.4634206715 ; 35224.00000000001
149 ; 15962.527808007242 ; 3984.8274555450807 ; 3524060.0572186084 ; 593739.2908762166 ; 35462.00000000001
150 ; 15724.399820504757 ; 3984.8274555450807 ; 3540022.5850266158 ; 597724.1183317617 ; 35700.00000000001
151 ; 15835.374809686135 ; 3984.8274555450807 ; 3555746.9848471205 ; 601708.9457873068 ; 35938.00000000001
152 ; 15682.719035079188 ; 3984.8274555450807 ; 3571582.3596568066 ; 605693.7732428518 ; 36176.00000000001
153 ; 15518.174575359455 ; 3984.8274555450807 ; 3587265.078691886 ; 609678.6006983969 ; 36414.00000000001
154 ; 15435.35317515653 ; 3984.8274555450807 ; 3602783.2532672454 ; 613663.428153942 ; 36652.00000000001
155 ; 15095.430402412054 ; 3984.8274555450807 ; 3618218.606442402 ; 617648.2556094871 ; 36890.00000000001
156 ; 14879.419936680517 ; 3984.8274555450807 ; 3633314.036844814 ; 621633.0830650321 ; 37128.00000000001
157 ; 14774.733342096968 ; 3984.8274555450807 ; 3648193.456781495 ; 625617.9105205772 ; 37366.00000000001
158 ; 14778.755744362083 ; 3984.8274555450807 ; 3662968.190123592 ; 629602.7379761223 ; 37604.00000000001
159 ; 14617.1041320644 ; 3984.8274555450807 ; 3677746.9458679543 ; 633587.5654316674 ; 37842.00000000001
160 ; 14476.175491218102 ; 3984.8274555450807 ; 3692364.050000019 ; 637572.3928872125 ; 38080.00000000001
161 ; 14243.538705824061 ; 3984.8274555450807 ; 3706840.225491237 ; 641557.2203427575 ; 38318.00000000001
162 ; 14008.438500218144 ; 3984.8274555450807 ; 3721083.764197061 ; 645542.0477983026 ; 38556.00000000001
163 ; 13945.240696801351 ; 3984.8274555450807 ; 3735092.202697279 ; 649526.8752538477 ; 38794.00000000001
164 ; 13581.4896656645 ; 3984.8274555450807 ; 3749037.4433940803 ; 653511.7027093928 ; 39032.00000000001
165 ; 13560.327494042818 ; 3984.8274555450807 ; 3762618.9330597445 ; 657496.5301649378 ; 39270.00000000001
166 ; 13463.941967700957 ; 3984.8274555450807 ; 3776179.2605537875 ; 661481.3576204829 ; 39508.00000000001
167 ; 13157.192358218173 ; 3984.8274555450807 ; 3789643.2025214885 ; 665466.185076028 ; 39746.00000000001
168 ; 12788.71430379059 ; 3984.8274555450807 ; 3802800.3948797067 ; 669451.0125315731 ; 39984.00000000001
169 ; 12883.292458572132 ; 3984.8274555450807 ; 3815589.1091834973 ; 673435.8399871181 ; 40222.00000000001
170 ; 12451.61163657875 ; 3984.8274555450807 ; 3828472.401642069 ; 677420.6674426632 ; 40460.00000000001
171 ; 12503.821034233424 ; 3984.8274555450807 ; 3840924.013278648 ; 681405.4948982083 ; 40698.00000000001
172 ; 12288.881651530513 ; 3984.8274555450807 ; 3853427.8343128813 ; 685390.3223537534 ; 40936.00000000001
173 ; 12202.100835416672 ; 3984.8274555450807 ; 3865716.715964412 ; 689375.1498092985 ; 41174.00000000001
174 ; 12125.77984930367 ; 3984.8274555450807 ; 3877918.8167998283 ; 693359.9772648435 ; 41412.00000000001
175 ; 12017.21033623115 ; 3984.8274555450807 ; 3890044.596649132 ; 697344.8047203886 ; 41650.00000000001
176 ; 12076.088194939932 ; 3984.8274555450807 ; 3902061.8069853634 ; 701329.6321759337 ; 41888.00000000001
177 ; 12247.349376350146 ; 3984.8274555450807 ; 3914137.895180303 ; 705314.4596314788 ; 42126.00000000001
178 ; 12304.905181296643 ; 3984.8274555450807 ; 3926385.2445566533 ; 709299.2870870238 ; 42364.00000000001
179 ; 12329.68062780687 ; 3984.8274555450807 ; 3938690.14973795 ; 713284.1145425689 ; 42602.00000000001
180 ; 12367.380957488698 ; 3984.8274555450807 ; 3951019.830365757 ; 717268.941998114 ; 42840.00000000001
181 ; 12463.608239248548 ; 3984.8274555450807 ; 3963387.211323246 ; 721253.7694536591 ; 43078.00000000001
182 ; 12462.58077343371 ; 3984.8274555450807 ; 3975850.8195624943 ; 725238.5969092041 ; 43316.00000000001
183 ; 12469.757514800447 ; 3984.8274555450807 ; 3988313.400335928 ; 729223.4243647492 ; 43554.00000000001
184 ; 12407.494597573243 ; 3984.8274555450807 ; 4000783.1578507284 ; 733208.2518202943 ; 43792.00000000001
