CSV File for the City 3 on Day 306
1 - Minute m 
2 - Power Consumed at minute m 
3 - Power Produced at minute m 
4 - Energy Consumed since the beginning of the day 
5 - Energy Produced since the beginning of the day 
6 - Energy Lost since the beginning of the day on lines starting from the city
 
0 ; 8524.734202190466 ; 159294.00003722648 ; 0.0 ; 0.0 ; 0.0
1 ; 8865.620819880476 ; 158925.639569278 ; 8524.734202190466 ; 159294.00003722648 ; 0.0
2 ; 9287.824647644484 ; 158595.25308667132 ; 17390.355022070944 ; 318219.63960650447 ; 0.0
3 ; 9473.475827413164 ; 158303.1035833351 ; 26678.179669715428 ; 476814.8926931758 ; 0.0
4 ; 9639.118542181628 ; 158049.42540367236 ; 36151.655497128595 ; 635117.9962765109 ; 0.0
5 ; 10164.676323624464 ; 157834.42340646198 ; 45790.77403931022 ; 793167.4216801833 ; 0.0
6 ; 10400.311196696723 ; 157658.2722251336 ; 55955.45036293469 ; 951001.8450866452 ; 0.0
7 ; 10487.572196507732 ; 157521.115630666 ; 66355.76155963141 ; 1108660.117311779 ; 0.0
8 ; 10854.54831570609 ; 157423.06600256122 ; 76843.33375613915 ; 1266181.232942445 ; 0.0
9 ; 11151.70261454336 ; 157364.20391248248 ; 87697.88207184525 ; 1423604.2989450062 ; 0.0
10 ; 11455.87395745604 ; 157344.57782419887 ; 98849.58468638861 ; 1580968.5028574886 ; 0.0
11 ; 11688.343559875975 ; 157364.20391248248 ; 110305.45864384466 ; 1738313.0806816875 ; 0.0
12 ; 11905.27545372853 ; 157423.06600256122 ; 121993.80220372064 ; 1895677.2845941698 ; 0.0
13 ; 12143.283639338486 ; 157521.115630666 ; 133899.07765744918 ; 2053100.350596731 ; 0.0
14 ; 12272.954997778335 ; 157658.2722251336 ; 146042.36129678765 ; 2210621.466227397 ; 0.0
15 ; 12597.789936712297 ; 157834.42340646198 ; 158315.316294566 ; 2368279.7384525305 ; 0.0
16 ; 12826.612044308895 ; 158049.42540367236 ; 170913.1062312783 ; 2526114.1618589927 ; 0.0
17 ; 13083.821216824443 ; 158303.10358333497 ; 183739.7182755872 ; 2684163.587262665 ; 0.0
18 ; 13252.8137499174 ; 158595.25308667132 ; 196823.53949241163 ; 2842466.690846 ; 0.0
19 ; 13523.901044748407 ; 158925.63956927788 ; 210076.35324232903 ; 3001061.943932671 ; 0.0
20 ; 13735.297281899115 ; 159294.00003722648 ; 223600.25428707743 ; 3159987.583501949 ; 0.0
21 ; 13965.4511851442 ; 159700.04377260368 ; 237335.55156897655 ; 3319281.5835391753 ; 0.0
22 ; 14255.000249068062 ; 160143.45334095942 ; 251301.00275412074 ; 3478981.627311779 ; 0.0
23 ; 14444.954350337452 ; 160623.88567264966 ; 265556.0030031888 ; 3639125.0806527385 ; 0.0
24 ; 14513.83798194089 ; 161140.97320968358 ; 280000.95735352626 ; 3799748.9663253883 ; 0.0
25 ; 14603.089300320931 ; 161694.32510942325 ; 294514.79533546715 ; 3960889.939535072 ; 0.0
26 ; 14893.172225447135 ; 162283.52849633372 ; 309117.8846357881 ; 4122584.264644495 ; 0.0
27 ; 15235.739081105217 ; 162908.14975293452 ; 324011.05686123524 ; 4284867.793140829 ; 0.0
28 ; 15331.9093505389 ; 163567.73584116623 ; 339246.79594234045 ; 4447775.942893763 ; 0.0
29 ; 15332.001666231065 ; 164261.81564553702 ; 354578.7052928794 ; 4611343.678734929 ; 0.0
30 ; 15701.030500036231 ; 164989.90132966015 ; 369910.70695911045 ; 4775605.494380467 ; 0.0
31 ; 15984.51468476682 ; 165751.48969811274 ; 385611.7374591467 ; 4940595.3957101265 ; 0.0
32 ; 16125.186400326793 ; 166546.06355593976 ; 401596.25214391353 ; 5106346.885408239 ; 0.0
33 ; 16247.732378948263 ; 167373.0930585738 ; 417721.4385442403 ; 5272892.9489641795 ; 0.0
34 ; 16334.317520140066 ; 168232.03704544302 ; 433969.17092318856 ; 5440266.0420227535 ; 0.0
35 ; 16622.66101156187 ; 169122.34435107157 ; 450303.48844332865 ; 5608498.079068197 ; 0.0
36 ; 16612.851546174254 ; 170043.45508804158 ; 466926.1494548905 ; 5777620.423419269 ; 0.0
37 ; 16899.57735365468 ; 170994.80189676478 ; 483539.0010010648 ; 5947663.8785073105 ; 0.0
38 ; 17203.085097426832 ; 171975.81115759994 ; 500438.57835471944 ; 6118658.680404075 ; 0.0
39 ; 17020.73492292207 ; 172985.9041614407 ; 517641.6634521463 ; 6290634.491561675 ; 0.0
40 ; 17239.371089434997 ; 174024.49823547452 ; 534662.3983750683 ; 6463620.395723117 ; 0.0
41 ; 17577.31670921472 ; 175091.00782138202 ; 551901.7694645033 ; 6637644.893958591 ; 0.0
42 ; 17721.137034001214 ; 176184.84550378477 ; 569479.086173718 ; 6812735.901779973 ; 0.0
43 ; 17834.437733686605 ; 177305.42298727029 ; 587200.2232077192 ; 6988920.747283758 ; 0.0
44 ; 17914.419389412065 ; 178452.15202080848 ; 605034.6609414058 ; 7166226.170271028 ; 0.0
45 ; 17879.609086648 ; 179624.44526883034 ; 622949.0803308178 ; 7344678.322291836 ; 0.0
46 ; 18115.72466270266 ; 180821.71712865916 ; 640828.6894174658 ; 7524302.767560666 ; 0.0
47 ; 18352.396166672796 ; 182043.38449436694 ; 658944.4140801685 ; 7705124.484689326 ; 0.0
48 ; 18314.206128917784 ; 183288.8674674775 ; 677296.8102468413 ; 7887167.869183693 ; 0.0
49 ; 18376.060474537248 ; 184557.59001524464 ; 695611.016375759 ; 8070456.736651171 ; 0.0
50 ; 18599.336334812066 ; 185848.98057750936 ; 713987.0768502962 ; 8255014.326666416 ; 0.0
51 ; 18697.165333261615 ; 187162.47262337274 ; 732586.4131851083 ; 8440863.307243925 ; 0.0
52 ; 18729.29578653939 ; 188497.50515912994 ; 751283.5785183699 ; 8628025.779867297 ; 0.0
53 ; 18948.72471301595 ; 189853.52318907357 ; 770012.8743049094 ; 8816523.285026427 ; 0.0
54 ; 19116.398803958244 ; 191229.97813092082 ; 788961.5990179253 ; 9006376.8082155 ; 0.0
55 ; 18999.62905730056 ; 192626.32818772283 ; 808077.9978218835 ; 9197606.786346423 ; 0.0
56 ; 19098.623907010253 ; 194042.03867820476 ; 827077.626879184 ; 9390233.114534145 ; 0.0
57 ; 19353.816662160254 ; 195476.5823275389 ; 846176.2507861943 ; 9584275.15321235 ; 0.0
58 ; 19420.169366979735 ; 196929.43952059574 ; 865530.0674483546 ; 9779751.735539889 ; 0.0
59 ; 19455.371478185218 ; 198400.09851973233 ; 884950.2368153343 ; 9976681.175060485 ; 0.0
60 ; 19624.250950777074 ; 199888.05564918037 ; 904405.6082935195 ; 1.0175081273580218E7 ; 0.0
61 ; 19534.692336538075 ; 201392.81544807908 ; 924029.8592442966 ; 1.0374969329229398E7 ; 0.0
62 ; 19711.308809145376 ; 202913.8907941717 ; 943564.5515808347 ; 1.0576362144677477E7 ; 0.0
63 ; 19737.972268620688 ; 204450.80300014364 ; 963275.86038998 ; 1.0779276035471648E7 ; 0.0
64 ; 19676.557747320014 ; 206003.0818845301 ; 983013.8326586008 ; 1.098372683847179E7 ; 0.0
65 ; 19811.33793073725 ; 207570.26581906618 ; 1002690.3904059208 ; 1.118972992035632E7 ; 0.0
66 ; 19713.229468151985 ; 209151.90175428466 ; 1022501.7283366581 ; 1.1397300186175385E7 ; 0.0
67 ; 20006.607233416802 ; 210747.54522510158 ; 1042214.95780481 ; 1.160645208792967E7 ; 0.0
68 ; 19862.991191433695 ; 212356.76033805363 ; 1062221.5650382268 ; 1.1817199633154772E7 ; 0.0
69 ; 19880.608060552193 ; 213979.11974177716 ; 1082084.5562296605 ; 1.2029556393492825E7 ; 0.0
70 ; 20097.497825392813 ; 215614.20458224183 ; 1101965.1642902128 ; 1.2243535513234602E7 ; 0.0
71 ; 20089.211390026416 ; 217261.60444417095 ; 1122062.6621156055 ; 1.2459149717816845E7 ; 0.0
72 ; 19945.82858447856 ; 218920.91728000538 ; 1142151.873505632 ; 1.2676411322261015E7 ; 0.0
73 ; 20087.90306931354 ; 220591.74932768743 ; 1162097.7020901104 ; 1.289533223954102E7 ; 0.0
74 ; 20056.920860467046 ; 222273.7150184654 ; 1182185.605159424 ; 1.3115923988868708E7 ; 0.0
75 ; 20106.379420986726 ; 223966.43687584338 ; 1202242.526019891 ; 1.3338197703887174E7 ; 0.0
76 ; 20049.45592852961 ; 225669.54540672826 ; 1222348.9054408777 ; 1.3562164140763016E7 ; 0.0
77 ; 20018.672359541226 ; 227382.67898575365 ; 1242398.3613694073 ; 1.3787833686169745E7 ; 0.0
78 ; 20213.212741931085 ; 229105.4837336937 ; 1262417.0337289486 ; 1.40152163651555E7 ; 0.0
79 ; 20077.183411819286 ; 230837.61339080974 ; 1282630.2464708798 ; 1.4244321848889193E7 ; 0.0
80 ; 19940.33432972491 ; 232578.72918591497 ; 1302707.4298826992 ; 1.4475159462280001E7 ; 0.0
81 ; 20089.36457088119 ; 234328.49970187628 ; 1322647.7642124242 ; 1.4707738191465916E7 ; 0.0
82 ; 20264.59789307824 ; 236086.6007382203 ; 1342737.1287833054 ; 1.4942066691167792E7 ; 0.0
83 ; 20063.73735779285 ; 237852.71517145107 ; 1363001.7266763838 ; 1.5178153291906012E7 ; 0.0
84 ; 20075.760442154213 ; 239626.53281364022 ; 1383065.4640341767 ; 1.5416006007077463E7 ; 0.0
85 ; 20057.812109285536 ; 241407.7502697984 ; 1403141.224476331 ; 1.5655632539891103E7 ; 0.0
86 ; 19982.003208444792 ; 243196.07079449305 ; 1423199.0365856164 ; 1.5897040290160902E7 ; 0.0
87 ; 20010.31136081765 ; 244991.20414813372 ; 1443181.039794061 ; 1.6140236360955395E7 ; 0.0
88 ; 20141.30859318799 ; 246792.86645330687 ; 1463191.3511548787 ; 1.6385227565103529E7 ; 0.0
89 ; 20065.029713780394 ; 248600.78005150455 ; 1483332.6597480667 ; 1.6632020431556836E7 ; 0.0
90 ; 19854.00046706511 ; 250414.6733605558 ; 1503397.689461847 ; 1.688062121160834E7 ; 0.0
91 ; 19914.44927504737 ; 252234.28073303768 ; 1523251.689928912 ; 1.7131035884968895E7 ; 0.0
92 ; 19818.38717202162 ; 254059.34231591344 ; 1543166.1392039594 ; 1.7383270165701933E7 ; 0.0
93 ; 19673.55039724547 ; 255889.60391161568 ; 1562984.526375981 ; 1.7637329508017845E7 ; 0.0
94 ; 19689.685350897 ; 257724.81684076847 ; 1582658.0767732265 ; 1.789321911192946E7 ; 0.0
95 ; 19654.37137826548 ; 259564.73780671714 ; 1602347.7621241235 ; 1.815094392877023E7 ; 0.0
96 ; 19640.078412163057 ; 261409.12876201395 ; 1622002.133502389 ; 1.8410508666576948E7 ; 0.0
97 ; 19434.99408197918 ; 263257.7567769857 ; 1641642.2119145521 ; 1.8671917795338962E7 ; 0.0
98 ; 19447.138841088887 ; 265110.3939104937 ; 1661077.2059965313 ; 1.8935175552115947E7 ; 0.0
99 ; 19519.451144429713 ; 266966.8170829759 ; 1680524.3448376202 ; 1.920028594602644E7 ; 0.0
100 ; 19258.90163917721 ; 268826.8079518501 ; 1700043.7959820498 ; 1.9467252763109416E7 ; 0.0
101 ; 19235.718330332376 ; 270690.15278933855 ; 1719302.697621227 ; 1.9736079571061265E7 ; 0.0
102 ; 19280.817990474134 ; 272556.6423627641 ; 1738538.4159515593 ; 2.0006769723850604E7 ; 0.0
103 ; 19116.096471421635 ; 274426.07181735645 ; 1757819.2339420335 ; 2.0279326366213366E7 ; 0.0
104 ; 19238.56328337233 ; 276298.2405615947 ; 1776935.3304134551 ; 2.0553752438030723E7 ; 0.0
105 ; 18923.99215766968 ; 278172.9521551048 ; 1796173.8936968276 ; 2.0830050678592317E7 ; 0.0
106 ; 18889.361516150504 ; 280050.0141991209 ; 1815097.8858544973 ; 2.1108223630747423E7 ; 0.0
107 ; 18759.436234356122 ; 281929.23822951264 ; 1833987.2473706477 ; 2.1388273644946545E7 ; 0.0
108 ; 18460.475009652164 ; 283810.4396123713 ; 1852746.6836050039 ; 2.167020288317606E7 ; 0.0
109 ; 18350.663262387865 ; 285693.4374421458 ; 1871207.158614656 ; 2.195401332278843E7 ; 0.0
110 ; 18484.371709818613 ; 287578.05444230896 ; 1889557.821877044 ; 2.2239706760230575E7 ; 0.0
111 ; 18295.7111716108 ; 289464.1168685351 ; 1908042.1935868626 ; 2.2527284814672884E7 ; 0.0
112 ; 18140.11606764223 ; 291351.4544143594 ; 1926337.9047584734 ; 2.281674893154142E7 ; 0.0
113 ; 18062.255628408762 ; 293239.90011929226 ; 1944478.0208261157 ; 2.310810038595578E7 ; 0.0
114 ; 17871.747867255704 ; 295129.2902793531 ; 1962540.2764545246 ; 2.3401340286075074E7 ; 0.0
115 ; 17854.70355184558 ; 297019.4643599901 ; 1980412.0243217803 ; 2.369646957635443E7 ; 0.0
116 ; 17874.04851191301 ; 298910.26491134486 ; 1998266.727873626 ; 2.399348904071442E7 ; 0.0
117 ; 17361.338730061394 ; 300801.537485824 ; 2016140.776385539 ; 2.4292399305625767E7 ; 0.0
118 ; 17376.097623904156 ; 302693.1305579335 ; 2033502.1151156004 ; 2.459320084311159E7 ; 0.0
119 ; 17465.913104160983 ; 304584.89544633374 ; 2050878.2127395046 ; 2.489589397366952E7 ; 0.0
120 ; 17256.563792399513 ; 306476.68623807025 ; 2068344.1258436656 ; 2.5200478869115856E7 ; 0.0
121 ; 17083.35169649376 ; 308368.3597149337 ; 2085600.6896360652 ; 2.5506955555353925E7 ; 0.0
122 ; 16839.641356190066 ; 310259.7752819041 ; 2102684.0413325587 ; 2.5815323915068857E7 ; 0.0
123 ; 16630.497483808067 ; 312150.79489763174 ; 2119523.682688749 ; 2.612558369035076E7 ; 0.0
124 ; 16593.54685590125 ; 314041.28300690826 ; 2136154.180172557 ; 2.643773448524839E7 ; 0.0
125 ; 16350.844836330729 ; 315931.10647508054 ; 2152747.7270284584 ; 2.6751775768255297E7 ; 0.0
126 ; 16072.850963958517 ; 317820.13452436007 ; 2169098.571864789 ; 2.706770687473038E7 ; 0.0
127 ; 15931.743611858628 ; 319708.2386719815 ; 2185171.4228287474 ; 2.738552700925474E7 ; 0.0
128 ; 15895.688920221537 ; 321595.29267016315 ; 2201103.166440606 ; 2.770523524792672E7 ; 0.0
129 ; 15766.318233159087 ; 323481.17244782386 ; 2216998.855360828 ; 2.8026830540596884E7 ; 0.0
130 ; 15332.82858804695 ; 325365.75605400826 ; 2232765.173593987 ; 2.8350311713044707E7 ; 0.0
131 ; 15321.022047104105 ; 327248.9236029784 ; 2248098.002182034 ; 2.8675677469098713E7 ; 0.0
132 ; 15032.162735596452 ; 329130.5572209244 ; 2263419.024229138 ; 2.9002926392701693E7 ; 0.0
133 ; 14857.9914078461 ; 331010.5409942505 ; 2278451.1869647345 ; 2.9332056949922618E7 ; 0.0
134 ; 14829.63161911681 ; 332888.7609193939 ; 2293309.1783725806 ; 2.9663067490916867E7 ; 0.0
135 ; 14458.299753259998 ; 334765.1048541335 ; 2308138.8099916973 ; 2.999595625183626E7 ; 0.0
136 ; 14428.294261164774 ; 336639.4624703457 ; 2322597.109744957 ; 3.0330721356690392E7 ; 0.0
137 ; 14224.430150036178 ; 338511.72520816786 ; 2337025.404006122 ; 3.0667360819160737E7 ; 0.0
138 ; 13969.389889773074 ; 340381.7862315273 ; 2351249.8341561584 ; 3.1005872544368904E7 ; 0.0
139 ; 13503.347469130951 ; 342249.5403849984 ; 2365219.2240459314 ; 3.1346254330600433E7 ; 0.0
140 ; 13577.122373792057 ; 344114.8841519482 ; 2378722.5715150624 ; 3.168850387098543E7 ; 0.0
141 ; 13254.486173299621 ; 345977.7156139321 ; 2392299.6938888542 ; 3.2032618755137376E7 ; 0.0
142 ; 13065.636843270857 ; 347837.93441130494 ; 2405554.180062154 ; 3.2378596470751308E7 ; 0.0
143 ; 12666.276075252756 ; 349695.44170501025 ; 2418619.816905425 ; 3.2726434405162614E7 ; 0.0
144 ; 12512.033290793173 ; 351550.1401395126 ; 2431286.0929806777 ; 3.3076129846867625E7 ; 0.0
145 ; 12442.54907595277 ; 353401.93380683963 ; 2443798.126271471 ; 3.3427679987007137E7 ; 0.0
146 ; 12426.235042409347 ; 355250.7282116999 ; 2456240.6753474236 ; 3.378108192081398E7 ; 0.0
147 ; 12378.074977065726 ; 357096.4302376453 ; 2468666.910389833 ; 3.413633264902568E7 ; 0.0
148 ; 12283.441019088114 ; 358938.94811424456 ; 2481044.985366899 ; 3.449342907926332E7 ; 0.0
149 ; 12168.191156074136 ; 360778.19138523994 ; 2493328.426385987 ; 3.485236802737757E7 ; 0.0
150 ; 12142.494127121709 ; 362614.07087765465 ; 2505496.617542061 ; 3.521314621876281E7 ; 0.0
151 ; 12020.519758178756 ; 364446.4986718239 ; 2517639.111669183 ; 3.5575760289640464E7 ; 0.0
152 ; 11994.995754892065 ; 366275.38807232055 ; 2529659.6314273616 ; 3.5940206788312286E7 ; 0.0
153 ; 11872.105612471798 ; 368100.6535797486 ; 2541654.6271822536 ; 3.6306482176384605E7 ; 0.0
154 ; 11859.688052479863 ; 369922.21086337714 ; 2553526.7327947253 ; 3.6674582829964355E7 ; 0.0
155 ; 11744.694223680011 ; 371739.9767345901 ; 2565386.420847205 ; 3.704450504082773E7 ; 0.0
156 ; 11560.429214740896 ; 373553.869121126 ; 2577131.115070885 ; 3.741624501756232E7 ; 0.0
157 ; 11654.289662312898 ; 375363.8070420833 ; 2588691.544285626 ; 3.778979888668345E7 ; 0.0
158 ; 11535.853935694913 ; 377169.7105836684 ; 2600345.833947939 ; 3.8165162693725534E7 ; 0.0
159 ; 11356.371837075829 ; 378971.5008756636 ; 2611881.6878836337 ; 3.8542332404309206E7 ; 0.0
160 ; 11297.670047848707 ; 380769.1000685917 ; 2623238.0597207095 ; 3.892130390518487E7 ; 0.0
161 ; 11097.553529370178 ; 382562.4313115567 ; 2634535.729768558 ; 3.9302073005253464E7 ; 0.0
162 ; 11028.03934999655 ; 384351.4187307402 ; 2645633.283297928 ; 3.968463543656502E7 ; 0.0
163 ; 10872.490809124456 ; 386135.9874085316 ; 2656661.3226479245 ; 4.006898685529576E7 ; 0.0
164 ; 10786.606741709667 ; 387916.06336327444 ; 2667533.813457049 ; 4.0455122842704296E7 ; 0.0
165 ; 10861.181088465883 ; 389691.57352960896 ; 2678320.4201987586 ; 4.084303890606757E7 ; 0.0
166 ; 10595.68016553427 ; 391462.4457393922 ; 2689181.6012872243 ; 4.123273047959718E7 ; 0.0
167 ; 10597.513315530423 ; 393228.6087031788 ; 2699777.2814527587 ; 4.162419292533657E7 ; 0.0
168 ; 10555.742215500166 ; 394989.9919922445 ; 2710374.794768289 ; 4.201742153403975E7 ; 0.0
169 ; 10129.667358789577 ; 396746.5260211357 ; 2720930.5369837894 ; 4.241241152603199E7 ; 0.0
170 ; 10198.033278840692 ; 398498.14203072886 ; 2731060.204342579 ; 4.280915805205313E7 ; 0.0
171 ; 10070.67730068944 ; 400000.0 ; 2741258.2376214196 ; 4.320765619408386E7 ; 0.0
172 ; 9992.741776128261 ; 400000.0 ; 2751328.914922109 ; 4.360765619408386E7 ; 0.0
173 ; 9849.726231993782 ; 400000.0 ; 2761321.656698237 ; 4.400765619408386E7 ; 0.0
174 ; 9999.705787201226 ; 400000.0 ; 2771171.382930231 ; 4.440765619408386E7 ; 0.0
175 ; 9877.970400086211 ; 400000.0 ; 2781171.088717432 ; 4.480765619408386E7 ; 0.0
176 ; 9969.390461323124 ; 400000.0 ; 2791049.0591175184 ; 4.520765619408386E7 ; 0.0
177 ; 10033.971557672516 ; 400000.0 ; 2801018.4495788417 ; 4.560765619408386E7 ; 0.0
178 ; 9988.388524454007 ; 400000.0 ; 2811052.4211365143 ; 4.600765619408386E7 ; 0.0
179 ; 9989.685693497022 ; 400000.0 ; 2821040.8096609684 ; 4.640765619408386E7 ; 0.0
180 ; 10058.530523807885 ; 400000.0 ; 2831030.495354465 ; 4.680765619408386E7 ; 0.0
181 ; 10028.251415065351 ; 400000.0 ; 2841089.025878273 ; 4.720765619408386E7 ; 0.0
182 ; 9973.885858941214 ; 400000.0 ; 2851117.2772933384 ; 4.760765619408386E7 ; 0.0
183 ; 10018.660379211207 ; 400000.0 ; 2861091.16315228 ; 4.800765619408386E7 ; 0.0
184 ; 9915.30224473099 ; 400000.0 ; 2871109.823531491 ; 4.840765619408386E7 ; 0.0
185 ; 9953.737726142848 ; 400000.0 ; 2881025.125776222 ; 4.880765619408386E7 ; 0.0
186 ; 10030.37755678311 ; 400000.0 ; 2890978.8635023646 ; 4.920765619408386E7 ; 0.0
187 ; 9870.445004625539 ; 400000.0 ; 2901009.2410591478 ; 4.960765619408386E7 ; 0.0
188 ; 10115.447720377642 ; 400000.0 ; 2910879.6860637735 ; 5.000765619408386E7 ; 0.0
189 ; 10177.429364566158 ; 400000.0 ; 2920995.133784151 ; 5.040765619408386E7 ; 0.0
190 ; 10061.378930610566 ; 400000.0 ; 2931172.5631487174 ; 5.080765619408386E7 ; 0.0
191 ; 10177.875955806356 ; 400000.0 ; 2941233.942079328 ; 5.120765619408386E7 ; 0.0
192 ; 9964.057671641054 ; 400000.0 ; 2951411.8180351346 ; 5.160765619408386E7 ; 0.0
193 ; 10237.092770327778 ; 400000.0 ; 2961375.8757067756 ; 5.200765619408386E7 ; 0.0
194 ; 10040.689964860874 ; 400000.0 ; 2971612.9684771034 ; 5.240765619408386E7 ; 0.0
195 ; 10010.938596273165 ; 400000.0 ; 2981653.658441964 ; 5.280765619408386E7 ; 0.0
196 ; 10172.819819354965 ; 400000.0 ; 2991664.5970382374 ; 5.320765619408386E7 ; 0.0
197 ; 10303.496985145552 ; 400000.0 ; 3001837.4168575923 ; 5.360765619408386E7 ; 0.0
198 ; 10160.553111842471 ; 400000.0 ; 3012140.9138427377 ; 5.400765619408386E7 ; 0.0
199 ; 10246.610412738479 ; 400000.0 ; 3022301.46695458 ; 5.440765619408386E7 ; 0.0
200 ; 10201.364324685328 ; 400000.0 ; 3032548.0773673183 ; 5.480765619408386E7 ; 0.0
201 ; 10171.12589144372 ; 400000.0 ; 3042749.4416920035 ; 5.520765619408386E7 ; 0.0
202 ; 10370.3028380395 ; 400000.0 ; 3052920.5675834473 ; 5.560765619408386E7 ; 0.0
203 ; 10221.47744052273 ; 400000.0 ; 3063290.870421487 ; 5.600765619408386E7 ; 0.0
204 ; 10211.29551797832 ; 400000.0 ; 3073512.3478620094 ; 5.640765619408386E7 ; 0.0
205 ; 10082.754679041638 ; 400000.0 ; 3083723.6433799877 ; 5.680765619408386E7 ; 0.0
206 ; 10292.202422188173 ; 400000.0 ; 3093806.398059029 ; 5.720765619408386E7 ; 0.0
207 ; 10143.753389004238 ; 400000.0 ; 3104098.6004812173 ; 5.760765619408386E7 ; 0.0
208 ; 10227.295319994388 ; 400000.0 ; 3114242.3538702214 ; 5.800765619408386E7 ; 0.0
209 ; 10290.66878906039 ; 400000.0 ; 3124469.649190216 ; 5.840765619408386E7 ; 0.0
210 ; 10243.456633617128 ; 400000.0 ; 3134760.317979276 ; 5.880765619408386E7 ; 0.0
211 ; 10291.742022021721 ; 400000.0 ; 3145003.7746128934 ; 5.920765619408386E7 ; 0.0
212 ; 10112.17240612547 ; 400000.0 ; 3155295.516634915 ; 5.960765619408386E7 ; 0.0
213 ; 10207.894098988161 ; 400000.0 ; 3165407.6890410404 ; 6.000765619408386E7 ; 0.0
214 ; 10248.64905456059 ; 400000.0 ; 3175615.5831400286 ; 6.040765619408386E7 ; 0.0
215 ; 10320.439958192617 ; 400000.0 ; 3185864.2321945895 ; 6.080765619408386E7 ; 0.0
