CSV File for the City 1 on Day 182
1 - Minute m 
2 - Power Consumed at minute m 
3 - Power Produced at minute m 
4 - Energy Consumed since the beginning of the day 
5 - Energy Produced since the beginning of the day 
6 - Energy Lost since the beginning of the day on lines starting from the city
 
0 ; 6303.6722696871275 ; 3076.1959552714834 ; 0.0 ; 0.0 ; 0.0
1 ; 6747.29860550397 ; 3076.1959552714834 ; 6303.6722696871275 ; 3076.1959552714834 ; 238.00000000000003
2 ; 7272.547236735821 ; 3076.1959552714834 ; 13050.970875191098 ; 6152.391910542967 ; 476.00000000000006
3 ; 7865.85504610588 ; 3076.1959552714834 ; 20323.51811192692 ; 9228.58786581445 ; 714.0000000000001
4 ; 8529.23176011775 ; 3076.1959552714834 ; 28189.3731580328 ; 12304.783821085934 ; 952.0000000000001
5 ; 9002.282445122717 ; 3076.1959552714834 ; 36718.60491815055 ; 15380.979776357417 ; 1190.0000000000002
6 ; 9546.017576016533 ; 3076.1959552714834 ; 45720.88736327327 ; 18457.1757316289 ; 1428.0000000000002
7 ; 10052.134445907588 ; 3076.1959552714834 ; 55266.9049392898 ; 21533.371686900384 ; 1666.0000000000002
8 ; 10614.75670582927 ; 3076.1959552714834 ; 65319.03938519739 ; 24609.567642171867 ; 1904.0000000000002
9 ; 10969.935604653901 ; 3076.1959552714834 ; 75933.79609102666 ; 27685.76359744335 ; 2142.0000000000005
10 ; 11592.28777252433 ; 3076.1959552714834 ; 86903.73169568056 ; 30761.959552714834 ; 2380.0000000000005
11 ; 12198.02755676561 ; 3076.1959552714834 ; 98496.01946820489 ; 33838.15550798632 ; 2618.0000000000005
12 ; 12426.215875771164 ; 3076.1959552714834 ; 110694.0470249705 ; 36914.3514632578 ; 2856.0000000000005
13 ; 12798.85821168914 ; 3076.1959552714834 ; 123120.26290074165 ; 39990.547418529284 ; 3094.0000000000005
14 ; 13626.567268967163 ; 3076.1959552714834 ; 135919.1211124308 ; 43066.74337380077 ; 3332.0000000000005
15 ; 13942.200301388973 ; 3076.1959552714834 ; 149545.68838139795 ; 46142.93932907225 ; 3570.0000000000005
16 ; 14473.323866429768 ; 3076.1959552714834 ; 163487.88868278693 ; 49219.135284343734 ; 3808.0000000000005
17 ; 14935.864295209307 ; 3076.1959552714834 ; 177961.2125492167 ; 52295.33123961522 ; 4046.0000000000005
18 ; 15351.865101528572 ; 3076.1959552714834 ; 192897.076844426 ; 55371.5271948867 ; 4284.000000000001
19 ; 15782.285683077085 ; 3076.1959552714834 ; 208248.94194595458 ; 58447.723150158185 ; 4522.000000000001
20 ; 16069.881782172282 ; 3076.1959552714834 ; 224031.22762903167 ; 61523.91910542967 ; 4760.000000000001
21 ; 16574.04958034455 ; 3076.1959552714834 ; 240101.10941120394 ; 64600.11506070115 ; 4998.000000000001
22 ; 17144.317936466927 ; 3076.1959552714834 ; 256675.1589915485 ; 67676.31101597263 ; 5236.000000000001
23 ; 17693.69430018086 ; 3076.1959552714834 ; 273819.4769280154 ; 70752.50697124412 ; 5474.000000000001
24 ; 18214.65839011054 ; 3076.1959552714834 ; 291513.1712281963 ; 73828.7029265156 ; 5712.000000000001
25 ; 18368.930651298826 ; 3076.1959552714834 ; 309727.82961830683 ; 76904.89888178708 ; 5950.000000000001
26 ; 18671.660979838824 ; 3076.1959552714834 ; 328096.7602696057 ; 79981.09483705857 ; 6188.000000000001
27 ; 18938.202762790614 ; 3076.1959552714834 ; 346768.4212494445 ; 83057.29079233005 ; 6426.000000000001
28 ; 19529.659064349118 ; 3076.1959552714834 ; 365706.6240122351 ; 86133.48674760154 ; 6664.000000000001
29 ; 19901.085962856545 ; 3076.1959552714834 ; 385236.2830765842 ; 89209.68270287302 ; 6902.000000000001
30 ; 20141.141528772616 ; 3076.1959552714834 ; 405137.36903944076 ; 92285.8786581445 ; 7140.000000000001
31 ; 20574.829312023998 ; 3076.1959552714834 ; 425278.51056821336 ; 95362.07461341599 ; 7378.000000000001
32 ; 20903.328896174957 ; 3076.1959552714834 ; 445853.33988023736 ; 98438.27056868747 ; 7616.000000000001
33 ; 21304.77956397978 ; 3076.1959552714834 ; 466756.6687764123 ; 101514.46652395895 ; 7854.000000000001
34 ; 21494.779729102298 ; 3076.1959552714834 ; 488061.4483403921 ; 104590.66247923044 ; 8092.000000000001
35 ; 22044.344715956573 ; 3076.1959552714834 ; 509556.22806949436 ; 107666.85843450192 ; 8330.000000000002
36 ; 22340.557527010704 ; 3076.1959552714834 ; 531600.572785451 ; 110743.0543897734 ; 8568.000000000002
37 ; 22769.443950339908 ; 3076.1959552714834 ; 553941.1303124616 ; 113819.25034504489 ; 8806.000000000002
38 ; 23009.038211215247 ; 3076.1959552714834 ; 576710.5742628016 ; 116895.44630031637 ; 9044.000000000002
39 ; 23278.92130000378 ; 3076.1959552714834 ; 599719.6124740168 ; 119971.64225558785 ; 9282.000000000002
40 ; 23561.918608576503 ; 3076.1959552714834 ; 622998.5337740206 ; 123047.83821085934 ; 9520.000000000002
41 ; 23775.04874614154 ; 3076.1959552714834 ; 646560.4523825971 ; 126124.03416613082 ; 9758.000000000002
42 ; 24138.77081193452 ; 3076.1959552714834 ; 670335.5011287386 ; 129200.2301214023 ; 9996.000000000002
43 ; 24337.38410039599 ; 3076.1959552714834 ; 694474.2719406731 ; 132276.4260766738 ; 10234.000000000002
44 ; 24644.95167954285 ; 3076.1959552714834 ; 718811.6560410691 ; 135352.62203194527 ; 10472.000000000002
45 ; 24890.75672458764 ; 3076.1959552714834 ; 743456.607720612 ; 138428.81798721675 ; 10710.000000000002
46 ; 25084.695880797455 ; 3076.1959552714834 ; 768347.3644451996 ; 141505.01394248824 ; 10948.000000000002
47 ; 25626.903482837934 ; 3076.1959552714834 ; 793432.0603259971 ; 144581.20989775972 ; 11186.000000000002
48 ; 25569.669479990378 ; 3076.1959552714834 ; 819058.963808835 ; 147657.4058530312 ; 11424.000000000002
49 ; 26011.144010114833 ; 3076.1959552714834 ; 844628.6332888254 ; 150733.6018083027 ; 11662.000000000002
50 ; 26115.23324536155 ; 3076.1959552714834 ; 870639.7772989402 ; 153809.79776357417 ; 11900.000000000002
51 ; 26330.56766042189 ; 3076.1959552714834 ; 896755.0105443018 ; 156885.99371884565 ; 12138.000000000002
52 ; 26551.72812462731 ; 3076.1959552714834 ; 923085.5782047238 ; 159962.18967411714 ; 12376.000000000002
53 ; 27002.82633324857 ; 3076.1959552714834 ; 949637.306329351 ; 163038.38562938862 ; 12614.000000000002
54 ; 26712.69820369159 ; 3076.1959552714834 ; 976640.1326625996 ; 166114.5815846601 ; 12852.000000000002
55 ; 27203.796332463346 ; 3076.1959552714834 ; 1003352.8308662912 ; 169190.7775399316 ; 13090.000000000002
56 ; 27359.207125123474 ; 3076.1959552714834 ; 1030556.6271987546 ; 172266.97349520307 ; 13328.000000000002
57 ; 27551.753427204465 ; 3076.1959552714834 ; 1057915.834323878 ; 175343.16945047455 ; 13566.000000000002
58 ; 27622.60307714731 ; 3076.1959552714834 ; 1085467.5877510824 ; 178419.36540574604 ; 13804.000000000002
59 ; 27773.245266290596 ; 3076.1959552714834 ; 1113090.1908282298 ; 181495.56136101752 ; 14042.000000000002
60 ; 27877.098171517893 ; 3076.1959552714834 ; 1140863.4360945204 ; 184571.757316289 ; 14280.000000000002
61 ; 28172.155761632628 ; 3076.1959552714834 ; 1168740.5342660383 ; 187647.9532715605 ; 14518.000000000002
62 ; 28231.41210072334 ; 3076.1959552714834 ; 1196912.690027671 ; 190724.14922683197 ; 14756.000000000002
63 ; 28419.465006661867 ; 3076.1959552714834 ; 1225144.1021283942 ; 193800.34518210345 ; 14994.000000000002
64 ; 28630.1775649556 ; 3076.1959552714834 ; 1253563.567135056 ; 196876.54113737494 ; 15232.000000000002
65 ; 28848.31990808417 ; 3076.1959552714834 ; 1282193.7447000116 ; 199952.73709264642 ; 15470.000000000002
66 ; 28679.30985319327 ; 3076.1959552714834 ; 1311042.0646080957 ; 203028.9330479179 ; 15708.000000000002
67 ; 28863.88086524667 ; 3076.1959552714834 ; 1339721.374461289 ; 206105.1290031894 ; 15946.000000000002
68 ; 29108.441343770635 ; 3076.1959552714834 ; 1368585.2553265358 ; 209181.32495846087 ; 16184.000000000002
69 ; 29082.423719775536 ; 3076.1959552714834 ; 1397693.6966703064 ; 212257.52091373235 ; 16422.000000000004
70 ; 29045.62222646609 ; 3076.1959552714834 ; 1426776.120390082 ; 215333.71686900384 ; 16660.000000000004
71 ; 29290.003977298864 ; 3076.1959552714834 ; 1455821.7426165482 ; 218409.91282427532 ; 16898.000000000004
72 ; 29357.435813536453 ; 3076.1959552714834 ; 1485111.7465938472 ; 221486.1087795468 ; 17136.000000000004
73 ; 29466.14355640155 ; 3076.1959552714834 ; 1514469.1824073836 ; 224562.3047348183 ; 17374.000000000004
74 ; 29643.411484142212 ; 3076.1959552714834 ; 1543935.3259637852 ; 227638.50069008977 ; 17612.000000000004
75 ; 29666.34923663445 ; 3076.1959552714834 ; 1573578.7374479275 ; 230714.69664536125 ; 17850.000000000004
76 ; 29730.75945821506 ; 3076.1959552714834 ; 1603245.086684562 ; 233790.89260063274 ; 18088.000000000004
77 ; 29826.677186539982 ; 3076.1959552714834 ; 1632975.846142777 ; 236867.08855590422 ; 18326.000000000004
78 ; 29785.73223540263 ; 3076.1959552714834 ; 1662802.523329317 ; 239943.2845111757 ; 18564.000000000004
79 ; 29651.823364154545 ; 3076.1959552714834 ; 1692588.2555647197 ; 243019.4804664472 ; 18802.000000000004
80 ; 29756.77666093601 ; 3076.1959552714834 ; 1722240.078928874 ; 246095.67642171867 ; 19040.000000000004
81 ; 29628.6437701449 ; 3076.1959552714834 ; 1751996.85558981 ; 249171.87237699016 ; 19278.000000000004
82 ; 29853.687879875768 ; 3076.1959552714834 ; 1781625.4993599548 ; 252248.06833226164 ; 19516.000000000004
83 ; 29780.74866456224 ; 3076.1959552714834 ; 1811479.1872398306 ; 255324.26428753312 ; 19754.000000000004
84 ; 29885.574330000756 ; 3076.1959552714834 ; 1841259.935904393 ; 258400.4602428046 ; 19992.000000000004
85 ; 29638.86968421745 ; 3076.1959552714834 ; 1871145.5102343936 ; 261476.6561980761 ; 20230.000000000004
86 ; 29797.991729971447 ; 3076.1959552714834 ; 1900784.3799186111 ; 264552.8521533476 ; 20468.000000000004
87 ; 29638.77132713118 ; 3076.1959552714834 ; 1930582.3716485826 ; 267629.04810861906 ; 20706.000000000004
88 ; 29780.755293102877 ; 3076.1959552714834 ; 1960221.1429757138 ; 270705.24406389054 ; 20944.000000000004
89 ; 29628.157977514795 ; 3076.1959552714834 ; 1990001.8982688168 ; 273781.440019162 ; 21182.000000000004
90 ; 29619.77339808861 ; 3076.1959552714834 ; 2019630.0562463317 ; 276857.6359744335 ; 21420.000000000004
91 ; 29631.219493596356 ; 3076.1959552714834 ; 2049249.8296444202 ; 279933.831929705 ; 21658.000000000004
92 ; 29467.57359420331 ; 3076.1959552714834 ; 2078881.0491380165 ; 283010.0278849765 ; 21896.000000000004
93 ; 29352.502970916383 ; 3076.1959552714834 ; 2108348.6227322198 ; 286086.22384024796 ; 22134.000000000004
94 ; 29304.234349046 ; 3076.1959552714834 ; 2137701.125703136 ; 289162.41979551944 ; 22372.000000000004
95 ; 29215.764799809207 ; 3076.1959552714834 ; 2167005.360052182 ; 292238.6157507909 ; 22610.000000000004
96 ; 29242.95522315018 ; 3076.1959552714834 ; 2196221.124851991 ; 295314.8117060624 ; 22848.000000000004
97 ; 29205.04864847924 ; 3076.1959552714834 ; 2225464.080075141 ; 298391.0076613339 ; 23086.000000000004
98 ; 29029.447427548344 ; 3076.1959552714834 ; 2254669.1287236204 ; 301467.2036166054 ; 23324.000000000004
99 ; 28801.124827711174 ; 3076.1959552714834 ; 2283698.576151169 ; 304543.39957187686 ; 23562.000000000004
100 ; 28642.658573423807 ; 3076.1959552714834 ; 2312499.7009788803 ; 307619.59552714834 ; 23800.000000000004
101 ; 28731.38249650561 ; 3076.1959552714834 ; 2341142.3595523043 ; 310695.7914824198 ; 24038.000000000004
102 ; 28518.145161757235 ; 3076.1959552714834 ; 2369873.74204881 ; 313771.9874376913 ; 24276.000000000004
103 ; 28341.644351849045 ; 3076.1959552714834 ; 2398391.887210567 ; 316848.1833929628 ; 24514.000000000004
104 ; 28050.606289310643 ; 3076.1959552714834 ; 2426733.531562416 ; 319924.3793482343 ; 24752.000000000004
105 ; 28116.21375831426 ; 3076.1959552714834 ; 2454784.1378517267 ; 323000.57530350576 ; 24990.000000000004
106 ; 27714.460314334447 ; 3076.1959552714834 ; 2482900.351610041 ; 326076.77125877724 ; 25228.000000000004
107 ; 27592.969418055134 ; 3076.1959552714834 ; 2510614.8119243756 ; 329152.9672140487 ; 25466.000000000004
108 ; 27476.758683484928 ; 3076.1959552714834 ; 2538207.7813424305 ; 332229.1631693202 ; 25704.000000000004
109 ; 27244.97016624068 ; 3076.1959552714834 ; 2565684.5400259155 ; 335305.3591245917 ; 25942.000000000004
110 ; 27137.851679646956 ; 3076.1959552714834 ; 2592929.5101921563 ; 338381.5550798632 ; 26180.000000000004
111 ; 27127.580613816583 ; 3076.1959552714834 ; 2620067.361871803 ; 341457.75103513466 ; 26418.000000000004
112 ; 26614.034707480536 ; 3076.1959552714834 ; 2647194.94248562 ; 344533.94699040614 ; 26656.000000000004
113 ; 26469.24849010978 ; 3076.1959552714834 ; 2673808.9771931004 ; 347610.1429456776 ; 26894.000000000004
114 ; 26412.382106127472 ; 3076.1959552714834 ; 2700278.22568321 ; 350686.3389009491 ; 27132.000000000004
115 ; 25927.275315054143 ; 3076.1959552714834 ; 2726690.6077893376 ; 353762.5348562206 ; 27370.000000000004
116 ; 25873.596708226254 ; 3076.1959552714834 ; 2752617.883104392 ; 356838.7308114921 ; 27608.000000000004
117 ; 25774.745461090675 ; 3076.1959552714834 ; 2778491.4798126183 ; 359914.92676676356 ; 27846.000000000004
118 ; 25369.195531819514 ; 3076.1959552714834 ; 2804266.225273709 ; 362991.12272203504 ; 28084.000000000004
119 ; 25241.89685840925 ; 3076.1959552714834 ; 2829635.4208055283 ; 366067.3186773065 ; 28322.000000000004
120 ; 24815.58523718621 ; 3076.1959552714834 ; 2854877.3176639373 ; 369143.514632578 ; 28560.000000000004
121 ; 24502.001833050996 ; 3076.1959552714834 ; 2879692.9029011237 ; 372219.7105878495 ; 28798.000000000004
122 ; 24248.098352021367 ; 3076.1959552714834 ; 2904194.9047341747 ; 375295.906543121 ; 29036.000000000004
123 ; 24053.10202753862 ; 3076.1959552714834 ; 2928443.0030861963 ; 378372.10249839246 ; 29274.000000000004
124 ; 23855.383681586813 ; 3076.1959552714834 ; 2952496.105113735 ; 381448.29845366394 ; 29512.000000000004
125 ; 23287.487220310584 ; 3076.1959552714834 ; 2976351.488795322 ; 384524.4944089354 ; 29750.000000000004
126 ; 23133.652540631272 ; 3076.1959552714834 ; 2999638.9760156325 ; 387600.6903642069 ; 29988.000000000004
127 ; 22735.59424304046 ; 3076.1959552714834 ; 3022772.6285562636 ; 390676.8863194784 ; 30226.000000000004
128 ; 22624.682494694756 ; 3076.1959552714834 ; 3045508.222799304 ; 393753.0822747499 ; 30464.000000000004
129 ; 22278.091728585474 ; 3076.1959552714834 ; 3068132.905293999 ; 396829.27823002136 ; 30702.000000000004
130 ; 21932.880628475956 ; 3076.1959552714834 ; 3090410.997022584 ; 399905.47418529284 ; 30940.000000000004
131 ; 21520.55311047001 ; 3076.1959552714834 ; 3112343.87765106 ; 402981.6701405643 ; 31178.000000000004
132 ; 21252.38454059786 ; 3076.1959552714834 ; 3133864.43076153 ; 406057.8660958358 ; 31416.000000000004
133 ; 20834.533109665765 ; 3076.1959552714834 ; 3155116.815302128 ; 409134.0620511073 ; 31654.000000000004
134 ; 20612.958191423808 ; 3076.1959552714834 ; 3175951.348411794 ; 412210.2580063788 ; 31892.000000000004
135 ; 20012.335823411126 ; 3076.1959552714834 ; 3196564.3066032175 ; 415286.45396165026 ; 32130.000000000004
136 ; 19823.46660279342 ; 3076.1959552714834 ; 3216576.6424266286 ; 418362.64991692174 ; 32368.000000000004
137 ; 19484.462694329493 ; 3076.1959552714834 ; 3236400.109029422 ; 421438.8458721932 ; 32606.000000000004
138 ; 19144.167527171274 ; 3076.1959552714834 ; 3255884.5717237517 ; 424515.0418274647 ; 32844.00000000001
139 ; 18641.00094276748 ; 3076.1959552714834 ; 3275028.739250923 ; 427591.2377827362 ; 33082.00000000001
140 ; 18419.19526946275 ; 3076.1959552714834 ; 3293669.7401936906 ; 430667.4337380077 ; 33320.00000000001
141 ; 17891.1358697151 ; 3076.1959552714834 ; 3312088.9354631533 ; 433743.62969327916 ; 33558.00000000001
142 ; 17661.718136669355 ; 3076.1959552714834 ; 3329980.071332868 ; 436819.82564855064 ; 33796.00000000001
143 ; 16943.161892664328 ; 3076.1959552714834 ; 3347641.7894695373 ; 439896.0216038221 ; 34034.00000000001
144 ; 16610.41426886668 ; 3076.1959552714834 ; 3364584.9513622015 ; 442972.2175590936 ; 34272.00000000001
145 ; 16240.55458651299 ; 3076.1959552714834 ; 3381195.365631068 ; 446048.4135143651 ; 34510.00000000001
146 ; 16427.66026820848 ; 3076.1959552714834 ; 3397435.920217581 ; 449124.6094696366 ; 34748.00000000001
147 ; 16446.93378709522 ; 3076.1959552714834 ; 3413863.5804857896 ; 452200.80542490806 ; 34986.00000000001
148 ; 16078.762431220424 ; 3076.1959552714834 ; 3430310.514272885 ; 455277.00138017954 ; 35224.00000000001
149 ; 16088.634433366751 ; 3076.1959552714834 ; 3446389.2767041055 ; 458353.197335451 ; 35462.00000000001
150 ; 15830.72734598715 ; 3076.1959552714834 ; 3462477.9111374724 ; 461429.3932907225 ; 35700.00000000001
151 ; 15893.871654344295 ; 3076.1959552714834 ; 3478308.6384834596 ; 464505.589245994 ; 35938.00000000001
152 ; 15651.037093029187 ; 3076.1959552714834 ; 3494202.510137804 ; 467581.7852012655 ; 36176.00000000001
153 ; 15539.174741437679 ; 3076.1959552714834 ; 3509853.547230833 ; 470657.98115653696 ; 36414.00000000001
154 ; 15431.019742865155 ; 3076.1959552714834 ; 3525392.721972271 ; 473734.17711180844 ; 36652.00000000001
155 ; 15253.191282346692 ; 3076.1959552714834 ; 3540823.741715136 ; 476810.3730670799 ; 36890.00000000001
156 ; 15061.046950057473 ; 3076.1959552714834 ; 3556076.932997483 ; 479886.5690223514 ; 37128.00000000001
157 ; 14966.660511441754 ; 3076.1959552714834 ; 3571137.9799475404 ; 482962.7649776229 ; 37366.00000000001
158 ; 14689.512504658815 ; 3076.1959552714834 ; 3586104.640458982 ; 486038.9609328944 ; 37604.00000000001
159 ; 14762.456239879659 ; 3076.1959552714834 ; 3600794.1529636406 ; 489115.15688816586 ; 37842.00000000001
160 ; 14687.686216640252 ; 3076.1959552714834 ; 3615556.60920352 ; 492191.35284343734 ; 38080.00000000001
161 ; 14233.243470072332 ; 3076.1959552714834 ; 3630244.2954201605 ; 495267.5487987088 ; 38318.00000000001
162 ; 14302.813985873609 ; 3076.1959552714834 ; 3644477.538890233 ; 498343.7447539803 ; 38556.00000000001
163 ; 14039.177919308311 ; 3076.1959552714834 ; 3658780.3528761063 ; 501419.9407092518 ; 38794.00000000001
164 ; 14011.336499513141 ; 3076.1959552714834 ; 3672819.5307954145 ; 504496.1366645233 ; 39032.00000000001
165 ; 13738.468093464078 ; 3076.1959552714834 ; 3686830.8672949276 ; 507572.33261979476 ; 39270.00000000001
166 ; 13486.08496934456 ; 3076.1959552714834 ; 3700569.3353883917 ; 510648.52857506624 ; 39508.00000000001
167 ; 13595.504710558345 ; 3076.1959552714834 ; 3714055.4203577363 ; 513724.7245303377 ; 39746.00000000001
168 ; 13256.752885694405 ; 3076.1959552714834 ; 3727650.9250682946 ; 516800.9204856092 ; 39984.00000000001
169 ; 13081.434675945357 ; 3076.1959552714834 ; 3740907.6779539892 ; 519877.1164408807 ; 40222.00000000001
170 ; 12987.151262390118 ; 3076.1959552714834 ; 3753989.1126299347 ; 522953.3123961522 ; 40460.00000000001
171 ; 12830.170986414345 ; 3076.1959552714834 ; 3766976.2638923246 ; 526029.5083514237 ; 40698.00000000001
172 ; 12327.038185123145 ; 3076.1959552714834 ; 3779806.434878739 ; 529105.7043066951 ; 40936.00000000001
173 ; 12518.511067176203 ; 3076.1959552714834 ; 3792133.4730638624 ; 532181.9002619666 ; 41174.00000000001
174 ; 12453.870968927708 ; 3076.1959552714834 ; 3804651.9841310387 ; 535258.0962172381 ; 41412.00000000001
175 ; 12606.469496679343 ; 3076.1959552714834 ; 3817105.8550999663 ; 538334.2921725096 ; 41650.00000000001
176 ; 12517.194226920948 ; 3076.1959552714834 ; 3829712.324596646 ; 541410.4881277811 ; 41888.00000000001
177 ; 12243.193920329064 ; 3076.1959552714834 ; 3842229.518823567 ; 544486.6840830526 ; 42126.00000000001
178 ; 12634.589955491141 ; 3076.1959552714834 ; 3854472.712743896 ; 547562.880038324 ; 42364.00000000001
179 ; 12617.539857965223 ; 3076.1959552714834 ; 3867107.302699387 ; 550639.0759935955 ; 42602.00000000001
180 ; 12576.57394562157 ; 3076.1959552714834 ; 3879724.8425573525 ; 553715.271948867 ; 42840.00000000001
181 ; 12438.221722101549 ; 3076.1959552714834 ; 3892301.416502974 ; 556791.4679041385 ; 43078.00000000001
182 ; 12669.267590304897 ; 3076.1959552714834 ; 3904739.6382250753 ; 559867.66385941 ; 43316.00000000001
183 ; 12775.916715469044 ; 3076.1959552714834 ; 3917408.90581538 ; 562943.8598146815 ; 43554.00000000001
184 ; 12825.647728986358 ; 3076.1959552714834 ; 3930184.8225308494 ; 566020.055769953 ; 43792.00000000001
