CSV File for the City 2 on Day 267
1 - Minute m 
2 - Power Consumed at minute m 
3 - Power Produced at minute m 
4 - Energy Consumed since the beginning of the day 
5 - Energy Produced since the beginning of the day 
6 - Energy Lost since the beginning of the day on lines starting from the city
 
0 ; 6623.465221046072 ; 31130.747329147904 ; 0.0 ; 0.0 ; 0.0
1 ; 7184.854109915239 ; 31130.747329147904 ; 6623.465221046072 ; 31130.747329147904 ; 0.0
2 ; 7650.271150768747 ; 31130.747329147904 ; 13808.31933096131 ; 62261.49465829581 ; 0.0
3 ; 7971.411027617192 ; 31130.747329147904 ; 21458.590481730058 ; 93392.2419874437 ; 0.0
4 ; 8416.615859061269 ; 31130.747329147904 ; 29430.00150934725 ; 124522.98931659161 ; 0.0
5 ; 8576.62894556183 ; 31130.747329147904 ; 37846.61736840852 ; 155653.73664573953 ; 0.0
6 ; 9206.297610737041 ; 31130.747329147904 ; 46423.246313970354 ; 186784.48397488744 ; 0.0
7 ; 9654.848397028762 ; 31130.747329147904 ; 55629.543924707395 ; 217915.23130403535 ; 0.0
8 ; 10079.015452737138 ; 31130.747329147904 ; 65284.39232173616 ; 249045.97863318326 ; 0.0
9 ; 10458.480547961024 ; 31130.747329147904 ; 75363.4077744733 ; 280176.72596233117 ; 0.0
10 ; 10949.86709173349 ; 31130.747329147904 ; 85821.88832243432 ; 311307.47329147905 ; 0.0
11 ; 11187.536058336615 ; 31130.747329147904 ; 96771.7554141678 ; 342438.22062062693 ; 0.0
12 ; 11659.778024319536 ; 31130.747329147904 ; 107959.29147250441 ; 373568.9679497748 ; 0.0
13 ; 12020.698160605398 ; 31130.747329147904 ; 119619.06949682394 ; 404699.7152789227 ; 0.0
14 ; 12420.351031625922 ; 31130.747329147904 ; 131639.76765742933 ; 435830.4626080706 ; 0.0
15 ; 12964.692676345136 ; 31130.747329147904 ; 144060.11868905526 ; 466961.20993721846 ; 0.0
16 ; 13262.233557752437 ; 31130.747329147904 ; 157024.8113654004 ; 498091.95726636634 ; 0.0
17 ; 13463.924775646103 ; 31130.747329147904 ; 170287.04492315286 ; 529222.7045955142 ; 0.0
18 ; 14005.256997052085 ; 31130.747329147904 ; 183750.96969879896 ; 560353.4519246621 ; 0.0
19 ; 14312.256746268735 ; 31130.747329147904 ; 197756.22669585104 ; 591484.19925381 ; 0.0
20 ; 14586.80707120498 ; 31130.747329147904 ; 212068.4834421198 ; 622614.9465829579 ; 0.0
21 ; 14817.495184077292 ; 31130.747329147904 ; 226655.29051332476 ; 653745.6939121058 ; 0.0
22 ; 15146.40564653969 ; 31130.747329147904 ; 241472.78569740205 ; 684876.4412412536 ; 0.0
23 ; 15515.632489536214 ; 31130.747329147904 ; 256619.19134394175 ; 716007.1885704015 ; 0.0
24 ; 15865.602464506603 ; 31130.747329147904 ; 272134.823833478 ; 747137.9358995494 ; 0.0
25 ; 16143.781210587002 ; 31130.747329147904 ; 288000.42629798455 ; 778268.6832286973 ; 0.0
26 ; 16558.539608266845 ; 31130.747329147904 ; 304144.20750857156 ; 809399.4305578452 ; 0.0
27 ; 16769.573927469388 ; 31130.747329147904 ; 320702.7471168384 ; 840530.177886993 ; 0.0
28 ; 17141.524686951587 ; 31130.747329147904 ; 337472.3210443078 ; 871660.9252161409 ; 0.0
29 ; 17392.741738119563 ; 31130.747329147904 ; 354613.8457312594 ; 902791.6725452888 ; 0.0
30 ; 17593.459821864762 ; 31130.747329147904 ; 372006.58746937895 ; 933922.4198744367 ; 0.0
31 ; 17979.186489870805 ; 31130.747329147904 ; 389600.04729124374 ; 965053.1672035846 ; 0.0
32 ; 18173.867953087632 ; 31130.747329147904 ; 407579.23378111457 ; 996183.9145327325 ; 0.0
33 ; 18695.821778574056 ; 31130.747329147904 ; 425753.1017342022 ; 1027314.6618618803 ; 0.0
34 ; 18735.145120330253 ; 31130.747329147904 ; 444448.92351277627 ; 1058445.4091910282 ; 0.0
35 ; 19075.86275840805 ; 31130.747329147904 ; 463184.06863310654 ; 1089576.1565201762 ; 0.0
36 ; 19460.174171081708 ; 31130.747329147904 ; 482259.9313915146 ; 1120706.9038493242 ; 0.0
37 ; 19624.8220597441 ; 31130.747329147904 ; 501720.1055625963 ; 1151837.6511784722 ; 0.0
38 ; 19868.952583456507 ; 31130.747329147904 ; 521344.9276223404 ; 1182968.3985076202 ; 0.0
39 ; 20132.836827934152 ; 31130.747329147904 ; 541213.8802057969 ; 1214099.1458367682 ; 0.0
40 ; 20481.822720107477 ; 31130.747329147904 ; 561346.717033731 ; 1245229.8931659162 ; 0.0
41 ; 20594.36962519875 ; 31130.747329147904 ; 581828.5397538386 ; 1276360.6404950642 ; 0.0
42 ; 20818.4188531124 ; 31130.747329147904 ; 602422.9093790373 ; 1307491.3878242122 ; 0.0
43 ; 21031.441350092828 ; 31130.747329147904 ; 623241.3282321497 ; 1338622.1351533602 ; 0.0
44 ; 21280.25130486984 ; 31130.747329147904 ; 644272.7695822426 ; 1369752.8824825082 ; 0.0
45 ; 21494.659856629318 ; 31130.747329147904 ; 665553.0208871125 ; 1400883.6298116562 ; 0.0
46 ; 21740.386896943557 ; 31130.747329147904 ; 687047.6807437418 ; 1432014.3771408042 ; 0.0
47 ; 21821.08192666607 ; 31130.747329147904 ; 708788.0676406854 ; 1463145.1244699522 ; 0.0
48 ; 22127.927303528882 ; 31130.747329147904 ; 730609.1495673514 ; 1494275.8717991002 ; 0.0
49 ; 22126.211571283187 ; 31130.747329147904 ; 752737.0768708803 ; 1525406.6191282482 ; 0.0
50 ; 22300.667918326497 ; 31130.747329147904 ; 774863.2884421635 ; 1556537.3664573962 ; 0.0
51 ; 22579.905492109563 ; 31130.747329147904 ; 797163.95636049 ; 1587668.1137865442 ; 0.0
52 ; 22774.189890939524 ; 31130.747329147904 ; 819743.8618525995 ; 1618798.8611156922 ; 0.0
53 ; 22722.979637345226 ; 31130.747329147904 ; 842518.051743539 ; 1649929.6084448402 ; 0.0
54 ; 23133.714750513533 ; 31130.747329147904 ; 865241.0313808842 ; 1681060.3557739882 ; 0.0
55 ; 23153.632335515133 ; 31130.747329147904 ; 888374.7461313978 ; 1712191.1031031362 ; 0.0
56 ; 23381.365753563397 ; 31130.747329147904 ; 911528.3784669129 ; 1743321.8504322842 ; 0.0
57 ; 23448.80300067353 ; 31130.747329147904 ; 934909.7442204762 ; 1774452.5977614322 ; 0.0
58 ; 23725.33099794116 ; 31130.747329147904 ; 958358.5472211498 ; 1805583.3450905802 ; 0.0
59 ; 23582.04605514047 ; 31130.747329147904 ; 982083.878219091 ; 1836714.0924197282 ; 0.0
60 ; 23916.62433561891 ; 31130.747329147904 ; 1005665.9242742314 ; 1867844.8397488762 ; 0.0
61 ; 24135.831264400054 ; 31130.747329147904 ; 1029582.5486098503 ; 1898975.5870780242 ; 0.0
62 ; 23925.022239445727 ; 31130.747329147904 ; 1053718.3798742504 ; 1930106.3344071722 ; 0.0
63 ; 24215.59583353034 ; 31130.747329147904 ; 1077643.402113696 ; 1961237.0817363202 ; 0.0
64 ; 24188.567097388877 ; 31130.747329147904 ; 1101858.9979472265 ; 1992367.8290654682 ; 0.0
65 ; 24238.614811146363 ; 31130.747329147904 ; 1126047.5650446154 ; 2023498.5763946162 ; 0.0
66 ; 24345.403623723814 ; 31130.747329147904 ; 1150286.1798557618 ; 2054629.3237237642 ; 0.0
67 ; 24433.62293292145 ; 31130.747329147904 ; 1174631.5834794857 ; 2085760.0710529122 ; 0.0
68 ; 24777.019835863048 ; 31130.747329147904 ; 1199065.206412407 ; 2116890.81838206 ; 0.0
69 ; 24682.21654360124 ; 31130.747329147904 ; 1223842.2262482701 ; 2148021.565711208 ; 0.0
70 ; 24784.413420305973 ; 31130.747329147904 ; 1248524.4427918713 ; 2179152.313040356 ; 0.0
71 ; 24852.976811104574 ; 31130.747329147904 ; 1273308.8562121773 ; 2210283.060369504 ; 0.0
72 ; 24699.46876500287 ; 31130.747329147904 ; 1298161.833023282 ; 2241413.807698652 ; 0.0
73 ; 24930.093151802226 ; 31130.747329147904 ; 1322861.301788285 ; 2272544.5550278 ; 0.0
74 ; 25057.55931836151 ; 31130.747329147904 ; 1347791.394940087 ; 2303675.302356948 ; 0.0
75 ; 25037.048930972796 ; 31130.747329147904 ; 1372848.9542584487 ; 2334806.049686096 ; 0.0
76 ; 25079.658019399234 ; 31130.747329147904 ; 1397886.0031894215 ; 2365936.797015244 ; 0.0
77 ; 25208.0560535353 ; 31130.747329147904 ; 1422965.6612088208 ; 2397067.544344392 ; 0.0
78 ; 24890.980581126947 ; 31130.747329147904 ; 1448173.717262356 ; 2428198.29167354 ; 0.0
79 ; 25061.780507731342 ; 31130.747329147904 ; 1473064.697843483 ; 2459329.039002688 ; 0.0
80 ; 24872.290352334447 ; 31130.747329147904 ; 1498126.4783512142 ; 2490459.786331836 ; 0.0
81 ; 25052.29751878506 ; 31130.747329147904 ; 1522998.7687035487 ; 2521590.533660984 ; 0.0
82 ; 25013.48966208931 ; 31130.747329147904 ; 1548051.0662223338 ; 2552721.280990132 ; 0.0
83 ; 25111.728729630075 ; 31130.747329147904 ; 1573064.5558844232 ; 2583852.02831928 ; 0.0
84 ; 25123.198511766106 ; 31130.747329147904 ; 1598176.2846140533 ; 2614982.775648428 ; 0.0
85 ; 24949.47416312581 ; 31130.747329147904 ; 1623299.4831258194 ; 2646113.522977576 ; 0.0
86 ; 24936.924599786358 ; 31130.747329147904 ; 1648248.957288945 ; 2677244.270306724 ; 0.0
87 ; 24918.43878438232 ; 31130.747329147904 ; 1673185.8818887314 ; 2708375.017635872 ; 0.0
88 ; 24866.166065761852 ; 31130.747329147904 ; 1698104.3206731137 ; 2739505.76496502 ; 0.0
89 ; 24931.85216264974 ; 31130.747329147904 ; 1722970.4867388755 ; 2770636.512294168 ; 0.0
90 ; 24938.118811632816 ; 31130.747329147904 ; 1747902.3389015254 ; 2801767.259623316 ; 0.0
91 ; 24693.10828290829 ; 31130.747329147904 ; 1772840.457713158 ; 2832898.006952464 ; 0.0
92 ; 24778.792652031963 ; 31130.747329147904 ; 1797533.5659960664 ; 2864028.754281612 ; 0.0
93 ; 24701.216070649087 ; 31130.747329147904 ; 1822312.3586480983 ; 2895159.50161076 ; 0.0
94 ; 24659.290837476234 ; 31130.747329147904 ; 1847013.5747187473 ; 2926290.248939908 ; 0.0
95 ; 24791.892600684532 ; 31130.747329147904 ; 1871672.8655562236 ; 2957420.996269056 ; 0.0
96 ; 24600.53825205435 ; 31130.747329147904 ; 1896464.758156908 ; 2988551.743598204 ; 0.0
97 ; 24429.005946738467 ; 31130.747329147904 ; 1921065.2964089622 ; 3019682.490927352 ; 0.0
98 ; 24265.10629936714 ; 31130.747329147904 ; 1945494.3023557006 ; 3050813.2382565 ; 0.0
99 ; 24335.93836941505 ; 31130.747329147904 ; 1969759.4086550677 ; 3081943.985585648 ; 0.0
100 ; 24210.760726139528 ; 31130.747329147904 ; 1994095.3470244827 ; 3113074.732914796 ; 0.0
101 ; 23989.228855194473 ; 31130.747329147904 ; 2018306.107750622 ; 3144205.480243944 ; 0.0
102 ; 23822.766568155555 ; 31130.747329147904 ; 2042295.3366058166 ; 3175336.227573092 ; 0.0
103 ; 23846.085187427467 ; 31130.747329147904 ; 2066118.103173972 ; 3206466.97490224 ; 0.0
104 ; 23727.66779591286 ; 31130.747329147904 ; 2089964.1883613996 ; 3237597.722231388 ; 0.0
105 ; 23702.82803130513 ; 31130.747329147904 ; 2113691.8561573126 ; 3268728.469560536 ; 0.0
106 ; 23573.595427311866 ; 31130.747329147904 ; 2137394.684188618 ; 3299859.216889684 ; 0.0
107 ; 23272.62334351705 ; 31130.747329147904 ; 2160968.27961593 ; 3330989.964218832 ; 0.0
108 ; 23199.05410737249 ; 31130.747329147904 ; 2184240.902959447 ; 3362120.71154798 ; 0.0
109 ; 23045.335797804888 ; 31130.747329147904 ; 2207439.9570668195 ; 3393251.458877128 ; 0.0
110 ; 22890.53434921667 ; 31130.747329147904 ; 2230485.2928646244 ; 3424382.206206276 ; 0.0
111 ; 22658.63790805979 ; 31130.747329147904 ; 2253375.827213841 ; 3455512.953535424 ; 0.0
112 ; 22658.664744041118 ; 31130.747329147904 ; 2276034.4651219007 ; 3486643.700864572 ; 0.0
113 ; 22464.06041181563 ; 31130.747329147904 ; 2298693.1298659416 ; 3517774.44819372 ; 0.0
114 ; 22127.959128230552 ; 31130.747329147904 ; 2321157.190277757 ; 3548905.195522868 ; 0.0
115 ; 22002.174590360562 ; 31130.747329147904 ; 2343285.1494059875 ; 3580035.942852016 ; 0.0
116 ; 21821.059818437636 ; 31130.747329147904 ; 2365287.323996348 ; 3611166.690181164 ; 0.0
117 ; 21664.043215925383 ; 31130.747329147904 ; 2387108.3838147856 ; 3642297.437510312 ; 0.0
118 ; 21466.29491138343 ; 31130.747329147904 ; 2408772.427030711 ; 3673428.18483946 ; 0.0
119 ; 21357.230329831906 ; 31130.747329147904 ; 2430238.7219420946 ; 3704558.932168608 ; 0.0
120 ; 21015.450359165174 ; 31130.747329147904 ; 2451595.9522719267 ; 3735689.679497756 ; 0.0
121 ; 20748.571243540086 ; 31130.747329147904 ; 2472611.402631092 ; 3766820.426826904 ; 0.0
122 ; 20637.033775156466 ; 31130.747329147904 ; 2493359.973874632 ; 3797951.174156052 ; 0.0
123 ; 20453.901735245472 ; 31130.747329147904 ; 2513997.007649788 ; 3829081.9214852 ; 0.0
124 ; 20194.13397269896 ; 31130.747329147904 ; 2534450.9093850334 ; 3860212.668814348 ; 0.0
125 ; 19975.141884302993 ; 31130.747329147904 ; 2554645.0433577322 ; 3891343.416143496 ; 0.0
126 ; 19662.94829280112 ; 31130.747329147904 ; 2574620.1852420354 ; 3922474.163472644 ; 0.0
127 ; 19511.916969478112 ; 31130.747329147904 ; 2594283.1335348366 ; 3953604.910801792 ; 0.0
128 ; 18998.37951144393 ; 31130.747329147904 ; 2613795.0505043147 ; 3984735.65813094 ; 0.0
129 ; 18972.449976668526 ; 31130.747329147904 ; 2632793.4300157586 ; 4015866.405460088 ; 0.0
130 ; 18679.046542507305 ; 31130.747329147904 ; 2651765.8799924273 ; 4046997.152789236 ; 0.0
131 ; 18521.73187192453 ; 31130.747329147904 ; 2670444.9265349344 ; 4078127.900118384 ; 0.0
132 ; 18052.393098018776 ; 31130.747329147904 ; 2688966.658406859 ; 4109258.647447532 ; 0.0
133 ; 17875.204003519746 ; 31130.747329147904 ; 2707019.0515048774 ; 4140389.39477668 ; 0.0
134 ; 17584.12865666869 ; 31130.747329147904 ; 2724894.2555083972 ; 4171520.142105828 ; 0.0
135 ; 17399.888507823547 ; 31130.747329147904 ; 2742478.384165066 ; 4202650.889434976 ; 0.0
136 ; 17002.3436102159 ; 31130.747329147904 ; 2759878.2726728893 ; 4233781.636764123 ; 0.0
137 ; 16686.37695491049 ; 31130.747329147904 ; 2776880.616283105 ; 4264912.384093271 ; 0.0
138 ; 16344.181486711299 ; 31130.747329147904 ; 2793566.9932380156 ; 4296043.131422418 ; 0.0
139 ; 16153.914670489929 ; 31130.747329147904 ; 2809911.174724727 ; 4327173.878751566 ; 0.0
140 ; 15629.3338376814 ; 31130.747329147904 ; 2826065.0893952167 ; 4358304.626080713 ; 0.0
141 ; 15581.858679528897 ; 31130.747329147904 ; 2841694.423232898 ; 4389435.373409861 ; 0.0
142 ; 15056.2880530092 ; 31130.747329147904 ; 2857276.281912427 ; 4420566.120739008 ; 0.0
143 ; 14704.68521827446 ; 31130.747329147904 ; 2872332.569965436 ; 4451696.868068156 ; 0.0
144 ; 14517.674483232964 ; 31130.747329147904 ; 2887037.2551837107 ; 4482827.615397303 ; 0.0
145 ; 14330.734266785807 ; 31130.747329147904 ; 2901554.929666944 ; 4513958.362726451 ; 0.0
146 ; 14222.877929182847 ; 31130.747329147904 ; 2915885.6639337298 ; 4545089.110055598 ; 0.0
147 ; 13938.814124138702 ; 31130.747329147904 ; 2930108.5418629125 ; 4576219.857384746 ; 0.0
148 ; 13962.069184185953 ; 31130.747329147904 ; 2944047.355987051 ; 4607350.6047138935 ; 0.0
149 ; 13856.702487463703 ; 31130.747329147904 ; 2958009.425171237 ; 4638481.352043041 ; 0.0
150 ; 13885.23448875771 ; 31130.747329147904 ; 2971866.1276587006 ; 4669612.099372189 ; 0.0
151 ; 13734.797291032988 ; 31130.747329147904 ; 2985751.3621474584 ; 4700742.846701336 ; 0.0
152 ; 13630.293219571458 ; 31130.747329147904 ; 2999486.1594384913 ; 4731873.594030484 ; 0.0
153 ; 13623.05501580065 ; 31130.747329147904 ; 3013116.452658063 ; 4763004.341359631 ; 0.0
154 ; 13547.228794707089 ; 31130.747329147904 ; 3026739.5076738633 ; 4794135.088688779 ; 0.0
155 ; 13196.5420802692 ; 31130.747329147904 ; 3040286.7364685703 ; 4825265.836017926 ; 0.0
156 ; 13132.441698503242 ; 31130.747329147904 ; 3053483.2785488395 ; 4856396.583347074 ; 0.0
157 ; 13042.22724330869 ; 31130.747329147904 ; 3066615.7202473427 ; 4887527.330676221 ; 0.0
158 ; 12952.245524152357 ; 31130.747329147904 ; 3079657.9474906516 ; 4918658.078005369 ; 0.0
159 ; 12902.129374864435 ; 31130.747329147904 ; 3092610.193014804 ; 4949788.825334516 ; 0.0
160 ; 12781.555276810235 ; 31130.747329147904 ; 3105512.3223896683 ; 4980919.572663664 ; 0.0
161 ; 12500.363799866644 ; 31130.747329147904 ; 3118293.8776664785 ; 5012050.319992811 ; 0.0
162 ; 12522.339935141206 ; 31130.747329147904 ; 3130794.2414663453 ; 5043181.067321959 ; 0.0
163 ; 12348.810280345373 ; 31130.747329147904 ; 3143316.5814014864 ; 5074311.8146511065 ; 0.0
164 ; 12201.112325689153 ; 31130.747329147904 ; 3155665.391681832 ; 5105442.561980254 ; 0.0
165 ; 11963.293348725228 ; 31130.747329147904 ; 3167866.504007521 ; 5136573.309309402 ; 0.0
166 ; 11978.422320124644 ; 31130.747329147904 ; 3179829.7973562465 ; 5167704.056638549 ; 0.0
167 ; 11788.338014495339 ; 31130.747329147904 ; 3191808.219676371 ; 5198834.803967697 ; 0.0
168 ; 11696.850549490553 ; 31130.747329147904 ; 3203596.5576908668 ; 5229965.551296844 ; 0.0
169 ; 11473.54006767716 ; 31130.747329147904 ; 3215293.4082403574 ; 5261096.298625992 ; 0.0
170 ; 11406.246005524623 ; 31130.747329147904 ; 3226766.948308035 ; 5292227.045955139 ; 0.0
171 ; 11040.45056197192 ; 31130.747329147904 ; 3238173.194313559 ; 5323357.793284287 ; 0.0
172 ; 10991.819988843812 ; 31130.747329147904 ; 3249213.644875531 ; 5354488.540613434 ; 0.0
173 ; 10885.747384103404 ; 31130.747329147904 ; 3260205.464864375 ; 5385619.287942582 ; 0.0
174 ; 10975.472558433186 ; 31130.747329147904 ; 3271091.2122484786 ; 5416750.035271729 ; 0.0
175 ; 10936.249279667274 ; 31130.747329147904 ; 3282066.6848069117 ; 5447880.782600877 ; 0.0
176 ; 11007.61449733655 ; 31130.747329147904 ; 3293002.934086579 ; 5479011.529930024 ; 0.0
177 ; 10982.422617887098 ; 31130.747329147904 ; 3304010.5485839155 ; 5510142.277259172 ; 0.0
178 ; 10961.908776498884 ; 31130.747329147904 ; 3314992.9712018026 ; 5541273.0245883195 ; 0.0
179 ; 11194.182712943617 ; 31130.747329147904 ; 3325954.8799783015 ; 5572403.771917467 ; 0.0
180 ; 11004.68994832444 ; 31130.747329147904 ; 3337149.062691245 ; 5603534.519246615 ; 0.0
181 ; 11057.730315631861 ; 31130.747329147904 ; 3348153.75263957 ; 5634665.266575762 ; 0.0
182 ; 11083.81433480316 ; 31130.747329147904 ; 3359211.4829552015 ; 5665796.01390491 ; 0.0
183 ; 11300.06983127338 ; 31130.747329147904 ; 3370295.297290005 ; 5696926.761234057 ; 0.0
184 ; 11171.259558130743 ; 31130.747329147904 ; 3381595.3671212783 ; 5728057.508563205 ; 0.0
185 ; 11268.925362936963 ; 31130.747329147904 ; 3392766.626679409 ; 5759188.255892352 ; 0.0
186 ; 11243.214469126808 ; 31130.747329147904 ; 3404035.552042346 ; 5790319.0032215 ; 0.0
187 ; 11355.078212984099 ; 31130.747329147904 ; 3415278.766511473 ; 5821449.750550647 ; 0.0
188 ; 11484.957054250895 ; 31130.747329147904 ; 3426633.844724457 ; 5852580.497879795 ; 0.0
189 ; 11292.474483816011 ; 31130.747329147904 ; 3438118.8017787077 ; 5883711.245208942 ; 0.0
190 ; 11299.321254600905 ; 31130.747329147904 ; 3449411.2762625236 ; 5914841.99253809 ; 0.0
191 ; 11221.930118944965 ; 31130.747329147904 ; 3460710.5975171244 ; 5945972.739867237 ; 0.0
192 ; 11379.480680505296 ; 31130.747329147904 ; 3471932.5276360693 ; 5977103.487196385 ; 0.0
193 ; 11401.066524513539 ; 31130.747329147904 ; 3483312.0083165746 ; 6008234.234525532 ; 0.0
194 ; 11315.880294420818 ; 31130.747329147904 ; 3494713.074841088 ; 6039364.98185468 ; 0.0
195 ; 11288.698066812285 ; 31130.747329147904 ; 3506028.955135509 ; 6070495.7291838275 ; 0.0
196 ; 11448.709144989021 ; 31130.747329147904 ; 3517317.6532023214 ; 6101626.476512975 ; 0.0
197 ; 11619.49975355454 ; 31130.747329147904 ; 3528766.3623473104 ; 6132757.223842123 ; 0.0
198 ; 11574.143212773619 ; 31130.747329147904 ; 3540385.8621008648 ; 6163887.97117127 ; 0.0
199 ; 11727.426396815514 ; 31130.747329147904 ; 3551960.0053136386 ; 6195018.718500418 ; 0.0
200 ; 11524.042019412993 ; 31130.747329147904 ; 3563687.431710454 ; 6226149.465829565 ; 0.0
201 ; 11701.832878273408 ; 31130.747329147904 ; 3575211.473729867 ; 6257280.213158713 ; 0.0
202 ; 11681.234154508134 ; 31130.747329147904 ; 3586913.3066081405 ; 6288410.96048786 ; 0.0
203 ; 11669.63845453954 ; 31130.747329147904 ; 3598594.5407626485 ; 6319541.707817008 ; 0.0
204 ; 11854.852678027715 ; 31130.747329147904 ; 3610264.179217188 ; 6350672.455146155 ; 0.0
205 ; 11626.929663340601 ; 31130.747329147904 ; 3622119.031895216 ; 6381803.202475303 ; 0.0
206 ; 11868.85205931844 ; 31130.747329147904 ; 3633745.9615585566 ; 6412933.94980445 ; 0.0
207 ; 11759.960306527235 ; 31130.747329147904 ; 3645614.813617875 ; 6444064.697133598 ; 0.0
208 ; 11721.414825874306 ; 31130.747329147904 ; 3657374.773924402 ; 6475195.444462745 ; 0.0
209 ; 11959.343632617089 ; 31130.747329147904 ; 3669096.1887502763 ; 6506326.191791893 ; 0.0
210 ; 11789.450618458963 ; 31130.747329147904 ; 3681055.5323828934 ; 6537456.9391210405 ; 0.0
211 ; 11885.211705818194 ; 31130.747329147904 ; 3692844.9830013523 ; 6568587.686450188 ; 0.0
212 ; 11770.906708580751 ; 31130.747329147904 ; 3704730.1947071706 ; 6599718.433779336 ; 0.0
213 ; 11934.226072346342 ; 31130.747329147904 ; 3716501.1014157515 ; 6630849.181108483 ; 0.0
214 ; 12027.59269569122 ; 31130.747329147904 ; 3728435.327488098 ; 6661979.928437631 ; 0.0
