CSV File for the City 3 on Day 156
1 - Minute m 
2 - Power Consumed at minute m 
3 - Power Produced at minute m 
4 - Energy Consumed since the beginning of the day 
5 - Energy Produced since the beginning of the day 
6 - Energy Lost since the beginning of the day on lines starting from the city
 
0 ; 6041.861289868772 ; 95112.18077395919 ; 0.0 ; 0.0 ; 0.0
1 ; 6422.470776444552 ; 94769.777192114 ; 6041.861289868772 ; 95112.18077395919 ; 0.0
2 ; 6787.247367139484 ; 94462.29367507591 ; 12464.332066313324 ; 189881.95796607318 ; 0.0
3 ; 7107.023894503416 ; 94190.09573510384 ; 19251.579433452807 ; 284344.2516411491 ; 0.0
4 ; 7510.13917778224 ; 93953.5108673417 ; 26358.603327956225 ; 378534.34737625293 ; 0.0
5 ; 7941.529020807098 ; 93752.82675870183 ; 33868.74250573847 ; 472487.85824359464 ; 0.0
6 ; 8186.1837522992255 ; 93588.28968478012 ; 41810.27152654556 ; 566240.6850022965 ; 0.0
7 ; 8541.223957204049 ; 93460.10311536503 ; 49996.45527884479 ; 659828.9746870766 ; 0.0
8 ; 8867.143248246692 ; 93368.42654683966 ; 58537.67923604884 ; 753289.0778024417 ; 0.0
9 ; 9254.805635400191 ; 93313.37457708975 ; 67404.82248429552 ; 846657.5043492813 ; 0.0
10 ; 9416.74890489399 ; 93295.0162354792 ; 76659.62811969571 ; 939970.8789263711 ; 0.0
11 ; 9820.21764763815 ; 93313.37457708975 ; 86076.3770245897 ; 1033265.8951618503 ; 0.0
12 ; 10012.369766879521 ; 93368.42654683966 ; 95896.59467222786 ; 1126579.26973894 ; 0.0
13 ; 10405.937836604216 ; 93460.10311536503 ; 105908.96443910738 ; 1219947.6962857798 ; 0.0
14 ; 10681.962363675431 ; 93588.28968478003 ; 116314.9022757116 ; 1313407.799401145 ; 0.0
15 ; 11149.209203684266 ; 93752.82675870183 ; 126996.86463938703 ; 1406996.089085925 ; 0.0
16 ; 11385.365208496905 ; 93953.5108673417 ; 138146.0738430713 ; 1500748.9158446267 ; 0.0
17 ; 11532.03558227443 ; 94190.09573510384 ; 149531.4390515682 ; 1594702.4267119684 ; 0.0
18 ; 11855.517777119288 ; 94462.29367507591 ; 161063.47463384262 ; 1688892.5224470722 ; 0.0
19 ; 12279.923826694885 ; 94769.7771921139 ; 172918.99241096192 ; 1783354.8161221482 ; 0.0
20 ; 12647.6304625918 ; 95112.18077395929 ; 185198.9162376568 ; 1878124.593314262 ; 0.0
21 ; 12764.333005169816 ; 95489.10284803376 ; 197846.5467002486 ; 1973236.7740882214 ; 0.0
22 ; 12962.38100966185 ; 95900.10788023905 ; 210610.87970541843 ; 2068725.876936255 ; 0.0
23 ; 13182.210887692396 ; 96344.72859126881 ; 223573.26071508028 ; 2164625.984816494 ; 0.0
24 ; 13486.284555112297 ; 96822.4682655973 ; 236755.47160277268 ; 2260970.713407763 ; 0.0
25 ; 13752.951164019214 ; 97332.80312842902 ; 250241.75615788499 ; 2357793.18167336 ; 0.0
26 ; 14089.244411576168 ; 97875.18476643748 ; 263994.7073219042 ; 2455125.9848017893 ; 0.0
27 ; 14244.573935050359 ; 98449.04256904697 ; 278083.9517334804 ; 2553001.1695682267 ; 0.0
28 ; 14466.513305028 ; 99053.7861682673 ; 292328.5256685307 ; 2651450.2121372735 ; 0.0
29 ; 14687.139247127545 ; 99688.80785662473 ; 306795.03897355875 ; 2750503.998305541 ; 0.0
30 ; 14964.517411152276 ; 100353.48496447944 ; 321482.17822068627 ; 2850192.806162166 ; 0.0
31 ; 15118.100990053914 ; 101047.18217992951 ; 336446.6956318385 ; 2950546.291126645 ; 0.0
32 ; 15384.094593271355 ; 101769.25379651198 ; 351564.7966218924 ; 3051593.473306575 ; 0.0
33 ; 15592.24192939272 ; 102519.0458759708 ; 366948.8912151638 ; 3153362.7271030867 ; 0.0
34 ; 15986.298608198267 ; 103295.89831542918 ; 382541.13314455654 ; 3255881.7729790574 ; 0.0
35 ; 16176.942683485264 ; 104099.14681032169 ; 398527.43175275484 ; 3359177.6712944866 ; 0.0
36 ; 16539.395367584482 ; 104928.12470639446 ; 414704.3744362401 ; 3463276.818104808 ; 0.0
37 ; 16592.531097715957 ; 105782.16473591837 ; 431243.7698038246 ; 3568204.9428112027 ; 0.0
38 ; 16903.03468002228 ; 106660.60063497744 ; 447836.30090154056 ; 3673987.107547121 ; 0.0
39 ; 16928.2612361051 ; 107562.76864026143 ; 464739.33558156283 ; 3780647.7081820983 ; 0.0
40 ; 17171.357603216882 ; 108488.00886520093 ; 481667.59681766795 ; 3888210.47682236 ; 0.0
41 ; 17381.727693589703 ; 109435.66655653832 ; 498838.95442088484 ; 3996698.485687561 ; 0.0
42 ; 17667.061710476384 ; 110405.09323350727 ; 516220.68211447453 ; 4106134.1522440994 ; 0.0
43 ; 17659.85223996867 ; 111395.64771272648 ; 533887.7438249509 ; 4216539.245477607 ; 0.0
44 ; 17843.20533361007 ; 112406.6970226781 ; 551547.5960649196 ; 4327934.893190333 ; 0.0
45 ; 17980.41350175119 ; 113437.6172122689 ; 569390.8013985297 ; 4440341.590213011 ; 0.0
46 ; 18313.539337417995 ; 114487.79405846026 ; 587371.2149002808 ; 4553779.20742528 ; 0.0
47 ; 18314.077278813045 ; 115556.62367831367 ; 605684.7542376989 ; 4668267.001483739 ; 0.0
48 ; 18600.174970550954 ; 116643.51305105098 ; 623998.8315165119 ; 4783823.625162053 ; 0.0
49 ; 18740.379394184794 ; 117747.88045587623 ; 642599.0064870628 ; 4900467.138213104 ; 0.0
50 ; 18730.411536423286 ; 118869.15583137059 ; 661339.3858812476 ; 5018215.018668979 ; 0.0
51 ; 19068.26924739609 ; 120006.78106225282 ; 680069.7974176708 ; 5137084.17450035 ; 0.0
52 ; 19223.25872540288 ; 121160.21019922633 ; 699138.0666650669 ; 5257090.955562603 ; 0.0
53 ; 19192.26384950329 ; 122328.90961749553 ; 718361.3253904697 ; 5378251.165761829 ; 0.0
54 ; 19500.015846089635 ; 123512.35811936356 ; 737553.589239973 ; 5500580.075379325 ; 0.0
55 ; 19381.58010422959 ; 124710.04698611208 ; 757053.6050860626 ; 5624092.433498689 ; 0.0
56 ; 19576.852322026793 ; 125921.47998412928 ; 776435.1851902922 ; 5748802.480484801 ; 0.0
57 ; 19832.36893736426 ; 127146.17332999635 ; 796012.0375123189 ; 5874723.96046893 ; 0.0
58 ; 19728.027914276125 ; 128383.65561897766 ; 815844.4064496832 ; 6001870.133798926 ; 0.0
59 ; 19983.896919428273 ; 129633.46772108268 ; 835572.4343639594 ; 6130253.789417904 ; 0.0
60 ; 20021.274041676406 ; 130895.1626485947 ; 855556.3312833876 ; 6259887.257138986 ; 0.0
61 ; 20104.208314559157 ; 132168.30539868178 ; 875577.605325064 ; 6390782.419787581 ; 0.0
62 ; 20192.723118882062 ; 133452.47277443664 ; 895681.8136396232 ; 6522950.725186263 ; 0.0
63 ; 20141.91872231885 ; 134747.2531874285 ; 915874.5367585053 ; 6656403.1979607 ; 0.0
64 ; 20264.136003058855 ; 136052.24644459295 ; 936016.4554808241 ; 6791150.451148128 ; 0.0
65 ; 20487.27730483793 ; 137367.06352204326 ; 956280.591483883 ; 6927202.697592721 ; 0.0
66 ; 20477.769609867515 ; 138691.3263281537 ; 976767.8687887209 ; 7064569.761114765 ; 0.0
67 ; 20535.39133312733 ; 140024.66745804326 ; 997245.6383985884 ; 7203261.087442919 ; 0.0
68 ; 20525.49971390225 ; 141366.72994138493 ; 1017781.0297317157 ; 7343285.754900962 ; 0.0
69 ; 20702.908405397713 ; 142717.16698526667 ; 1038306.5294456179 ; 7484652.484842347 ; 0.0
70 ; 20854.93698821549 ; 144075.6417136533 ; 1059009.4378510157 ; 7627369.651827614 ; 0.0
71 ; 20760.838935316435 ; 145441.82690482817 ; 1079864.3748392311 ; 7771445.2935412675 ; 0.0
72 ; 20789.636859622886 ; 146815.40472803786 ; 1100625.2137745477 ; 7916887.120446095 ; 0.0
73 ; 20846.4653758857 ; 148196.06648042248 ; 1121414.8506341705 ; 8063702.5251741335 ; 0.0
74 ; 20907.192771822498 ; 149583.51232517883 ; 1142261.316010056 ; 8211898.591654556 ; 0.0
75 ; 20773.59276302157 ; 150977.45103178624 ; 1163168.5087818785 ; 8361482.103979735 ; 0.0
76 ; 20898.154707579673 ; 152377.59971901405 ; 1183942.1015449 ; 8512459.55501152 ; 0.0
77 ; 20969.817161826148 ; 153783.68360132904 ; 1204840.2562524797 ; 8664837.154730534 ; 0.0
78 ; 20866.62614456079 ; 155195.4357392331 ; 1225810.073414306 ; 8818620.838331863 ; 0.0
79 ; 20972.55432882413 ; 156612.59679397545 ; 1246676.6995588667 ; 8973816.274071096 ; 0.0
80 ; 21055.358146716662 ; 158034.91478701477 ; 1267649.2538876908 ; 9130428.870865071 ; 0.0
81 ; 20980.41413522164 ; 159462.14486453636 ; 1288704.6120344074 ; 9288463.785652086 ; 0.0
82 ; 21013.584924175877 ; 160894.04906727283 ; 1309685.026169629 ; 9447925.930516623 ; 0.0
83 ; 21121.420712146602 ; 162330.39610582186 ; 1330698.611093805 ; 9608819.979583897 ; 0.0
84 ; 20897.8074498468 ; 163770.96114160947 ; 1351820.0318059516 ; 9771150.375689719 ; 0.0
85 ; 21001.64998422874 ; 165215.52557360355 ; 1372717.8392557984 ; 9934921.336831328 ; 0.0
86 ; 20892.529688229646 ; 166663.87683084694 ; 1393719.489240027 ; 1.0100136862404931E7 ; 0.0
87 ; 21023.106233058552 ; 168115.8081708461 ; 1414612.0189282566 ; 1.0266800739235777E7 ; 0.0
88 ; 20894.343048461506 ; 169571.1184838227 ; 1435635.125161315 ; 1.0434916547406623E7 ; 0.0
89 ; 20997.09807754406 ; 171029.61210281288 ; 1456529.4682097766 ; 1.0604487665890446E7 ; 0.0
90 ; 20889.27629385436 ; 172491.0986195735 ; 1477526.5662873206 ; 1.0775517277993258E7 ; 0.0
91 ; 20814.343211207055 ; 173955.39270624 ; 1498415.842581175 ; 1.094800837661283E7 ; 0.0
92 ; 20866.346373084947 ; 175422.31394266288 ; 1519230.185792382 ; 1.112196376931907E7 ; 0.0
93 ; 20688.390654327275 ; 176891.68664933593 ; 1540096.532165467 ; 1.1297386083261734E7 ; 0.0
94 ; 20699.285478811194 ; 178363.3397258192 ; 1560784.9228197944 ; 1.147427776991107E7 ; 0.0
95 ; 20571.349075316364 ; 179837.1064945498 ; 1581484.2082986056 ; 1.1652641109636888E7 ; 0.0
96 ; 20707.949483745084 ; 181312.82454992557 ; 1602055.557373922 ; 1.1832478216131438E7 ; 0.0
97 ; 20552.44091543333 ; 182790.33561254092 ; 1622763.5068576671 ; 1.2013791040681364E7 ; 0.0
98 ; 20624.758041310273 ; 184269.48538844968 ; 1643315.9477731003 ; 1.2196581376293905E7 ; 0.0
99 ; 20451.26983410352 ; 185750.1234333247 ; 1663940.7058144107 ; 1.2380850861682355E7 ; 0.0
100 ; 20373.549017908335 ; 187232.10302138343 ; 1684391.9756485142 ; 1.256660098511568E7 ; 0.0
101 ; 20105.64973974953 ; 188715.28101894507 ; 1704765.5246664225 ; 1.2753833088137064E7 ; 0.0
102 ; 20007.257023719703 ; 190199.51776248516 ; 1724871.174406172 ; 1.2942548369156009E7 ; 0.0
103 ; 20216.72359308174 ; 191684.67694105298 ; 1744878.4314298916 ; 1.3132747886918494E7 ; 0.0
104 ; 19908.399226194797 ; 193170.62548291724 ; 1765095.1550229734 ; 1.3324432563859547E7 ; 0.0
105 ; 19711.955335312567 ; 194657.233446307 ; 1785003.5542491681 ; 1.3517603189342463E7 ; 0.0
106 ; 19750.476442978183 ; 196144.3739141157 ; 1804715.5095844807 ; 1.371226042278877E7 ; 0.0
107 ; 19321.270490633502 ; 197631.92289243842 ; 1824465.986027459 ; 1.3908404796702886E7 ; 0.0
108 ; 19649.048320371294 ; 199119.75921281317 ; 1843787.2565180925 ; 1.4106036719595324E7 ; 0.0
109 ; 19423.83635160578 ; 200607.76443804184 ; 1863436.3048384637 ; 1.4305156478808137E7 ; 0.0
110 ; 19313.554141699762 ; 202095.82277146648 ; 1882860.1411900695 ; 1.450576424324618E7 ; 0.0
111 ; 18973.52813725823 ; 203583.82096958096 ; 1902173.6953317693 ; 1.4707860066017646E7 ; 0.0
112 ; 19121.027194727238 ; 205071.6482578599 ; 1921147.2234690276 ; 1.4911443886987228E7 ; 0.0
113 ; 18729.806569797638 ; 206559.19624969026 ; 1940268.2506637548 ; 1.5116515535245087E7 ; 0.0
114 ; 18748.86561496166 ; 208046.3588682945 ; 1958998.0572335524 ; 1.5323074731494777E7 ; 0.0
115 ; 18672.439751020633 ; 209533.03227153607 ; 1977746.922848514 ; 1.5531121090363072E7 ; 0.0
116 ; 18304.498255094066 ; 211019.11477950242 ; 1996419.3625995347 ; 1.5740654122634608E7 ; 0.0
117 ; 18322.513612778883 ; 212504.50680476302 ; 2014723.8608546287 ; 1.595167323741411E7 ; 0.0
118 ; 18106.138132456043 ; 213989.11078520323 ; 2033046.3744674076 ; 1.6164177744218873E7 ; 0.0
119 ; 17906.43947514626 ; 215472.8311193391 ; 2051152.5125998636 ; 1.6378166855004076E7 ; 0.0
120 ; 17600.91510496687 ; 216955.574104019 ; 2069058.95207501 ; 1.6593639686123416E7 ; 0.0
121 ; 17848.554177352853 ; 218437.24787442325 ; 2086659.8671799768 ; 1.6810595260227434E7 ; 0.0
122 ; 17385.38414870659 ; 219917.76234627553 ; 2104508.4213573295 ; 1.702903250810186E7 ; 0.0
123 ; 17321.9600199916 ; 221397.02916018106 ; 2121893.805506036 ; 1.7248950270448133E7 ; 0.0
124 ; 17028.1272198485 ; 222874.96162801245 ; 2139215.765526028 ; 1.7470347299608313E7 ; 0.0
125 ; 16965.931820599188 ; 224351.4746812646 ; 2156243.892745876 ; 1.7693222261236325E7 ; 0.0
126 ; 16673.109240078553 ; 225826.4848213035 ; 2173209.8245664756 ; 1.791757373591759E7 ; 0.0
127 ; 16528.163275678795 ; 227299.9100714369 ; 2189882.933806554 ; 1.8143400220738895E7 ; 0.0
128 ; 16162.866703658288 ; 228771.6699307378 ; 2206411.0970822326 ; 1.837070013081033E7 ; 0.0
129 ; 16048.391174933464 ; 230241.68532955262 ; 2222573.963785891 ; 1.859947180074107E7 ; 0.0
130 ; 16035.04960342234 ; 231709.87858663034 ; 2238622.3549608244 ; 1.882971348607062E7 ; 0.0
131 ; 15761.254200313988 ; 233176.17336781038 ; 2254657.4045642465 ; 1.9061423364657253E7 ; 0.0
132 ; 15438.401110545292 ; 234640.49464620923 ; 2270418.6587645607 ; 1.9294599538025063E7 ; 0.0
133 ; 15162.763815307444 ; 236102.76866384895 ; 2285857.059875106 ; 1.9529240032671273E7 ; 0.0
134 ; 14755.837789879391 ; 237562.92289467118 ; 2301019.8236904135 ; 1.9765342801335122E7 ; 0.0
135 ; 14698.811740642654 ; 239020.88600888546 ; 2315775.6614802927 ; 2.0002905724229794E7 ; 0.0
136 ; 14493.326857254382 ; 240476.5878385987 ; 2330474.4732209356 ; 2.024192661023868E7 ; 0.0
137 ; 14115.956508010042 ; 241929.95934467806 ; 2344967.80007819 ; 2.0482403198077276E7 ; 0.0
138 ; 13951.483297219313 ; 243380.93258480003 ; 2359083.7565862 ; 2.0724333157421954E7 ; 0.0
139 ; 13743.237984433172 ; 244829.4406826399 ; 2373035.2398834196 ; 2.0967714090006754E7 ; 0.0
140 ; 13352.512614569157 ; 246275.4177981583 ; 2386778.477867853 ; 2.1212543530689392E7 ; 0.0
141 ; 13124.301937598568 ; 247718.79909894353 ; 2400130.990482422 ; 2.145881894848755E7 ; 0.0
142 ; 12997.385855990093 ; 249159.52073256823 ; 2413255.292420021 ; 2.1706537747586492E7 ; 0.0
143 ; 12616.2372241785 ; 250597.51979992396 ; 2426252.678276011 ; 2.195569726831906E7 ; 0.0
144 ; 12355.277247156806 ; 252032.7343294941 ; 2438868.915500189 ; 2.2206294788118985E7 ; 0.0
145 ; 12264.460900420909 ; 253465.10325253164 ; 2451224.192747346 ; 2.245832752244848E7 ; 0.0
146 ; 12141.078606476858 ; 254894.56637910646 ; 2463488.653647767 ; 2.271179262570101E7 ; 0.0
147 ; 11966.946743334602 ; 256321.06437498963 ; 2475629.732254244 ; 2.2966687192080118E7 ; 0.0
148 ; 11943.154291727826 ; 257744.53873934364 ; 2487596.6789975786 ; 2.322300825645511E7 ; 0.0
149 ; 12043.472621596937 ; 259164.93178318758 ; 2499539.8332893066 ; 2.348075279519445E7 ; 0.0
150 ; 11796.6217431307 ; 260582.1866086084 ; 2511583.3059109035 ; 2.373991772697764E7 ; 0.0
151 ; 11700.444927515011 ; 261996.2470886913 ; 2523379.927654034 ; 2.4000499913586248E7 ; 0.0
152 ; 11781.029467470084 ; 263407.0578481408 ; 2535080.372581549 ; 2.426249616067494E7 ; 0.0
153 ; 11604.370725023115 ; 264814.5642445677 ; 2546861.402049019 ; 2.452590321852308E7 ; 0.0
154 ; 11587.515709203139 ; 266218.7123504181 ; 2558465.772774042 ; 2.479071778276765E7 ; 0.0
155 ; 11427.897949372315 ; 267619.4489355182 ; 2570053.2884832453 ; 2.5056936495118067E7 ; 0.0
156 ; 11398.24169067386 ; 269016.72145021544 ; 2581481.1864326177 ; 2.5324555944053587E7 ; 0.0
157 ; 11203.317742228657 ; 270410.4780090903 ; 2592879.4281232916 ; 2.5593572665503804E7 ; 0.0
158 ; 11002.348634312872 ; 271800.6673752216 ; 2604082.74586552 ; 2.5863983143512893E7 ; 0.0
159 ; 11075.318697469733 ; 273187.23894498183 ; 2615085.094499833 ; 2.6135783810888115E7 ; 0.0
160 ; 10784.350788021096 ; 274570.1427333453 ; 2626160.4131973027 ; 2.6408971049833097E7 ; 0.0
161 ; 10788.786801462305 ; 275949.32935968897 ; 2636944.7639853237 ; 2.6683541192566443E7 ; 0.0
162 ; 10701.735755063059 ; 277324.7500340692 ; 2647733.5507867862 ; 2.695949052192613E7 ; 0.0
163 ; 10620.546936022285 ; 278696.3565439565 ; 2658435.2865418494 ; 2.72368152719602E7 ; 0.0
164 ; 10402.946242414351 ; 280064.1012414116 ; 2669055.8334778715 ; 2.7515511628504157E7 ; 0.0
165 ; 10498.543926314682 ; 281427.93703068787 ; 2679458.779720286 ; 2.7795575729745567E7 ; 0.0
166 ; 10180.688065064025 ; 282787.8173562433 ; 2689957.3236466004 ; 2.8077003666776255E7 ; 0.0
167 ; 10055.673331469412 ; 284143.6961911493 ; 2700138.0117116645 ; 2.83597914841325E7 ; 0.0
168 ; 9957.76723373828 ; 285495.52802588016 ; 2710193.685043134 ; 2.864393518032365E7 ; 0.0
169 ; 9803.937354247653 ; 286843.26785747084 ; 2720151.452276872 ; 2.892943070834953E7 ; 0.0
170 ; 9791.815180653528 ; 288186.87117903 ; 2729955.3896311196 ; 2.9216273976207E7 ; 0.0
171 ; 9709.140601034369 ; 289526.29396959516 ; 2739747.2048117733 ; 2.950446084738603E7 ; 0.0
172 ; 9503.626323736342 ; 290861.49268431816 ; 2749456.3454128075 ; 2.9793987141355623E7 ; 0.0
173 ; 9473.888968718862 ; 292192.42424496956 ; 2758959.971736544 ; 3.0084848634039942E7 ; 0.0
174 ; 9290.07632178679 ; 293519.0460307504 ; 2768433.8607052625 ; 3.0377041058284912E7 ; 0.0
175 ; 9501.883975552657 ; 294841.3158694009 ; 2777723.9370270493 ; 3.067056010431566E7 ; 0.0
176 ; 9502.559937934624 ; 296159.19202859554 ; 2787225.821002602 ; 3.0965401420185063E7 ; 0.0
177 ; 9651.953867326749 ; 297472.6332076147 ; 2796728.380940537 ; 3.126156061221366E7 ; 0.0
178 ; 9431.807050169644 ; 298781.59852928336 ; 2806380.334807864 ; 3.1559033245421275E7 ; 0.0
179 ; 9445.415852870163 ; 300086.0475321673 ; 2815812.1418580334 ; 3.185781484395056E7 ; 0.0
180 ; 9426.69683286042 ; 301385.94016301865 ; 2825257.5577109037 ; 3.2157900891482726E7 ; 0.0
181 ; 9598.803293090139 ; 302681.23676946096 ; 2834684.254543764 ; 3.2459286831645746E7 ; 0.0
182 ; 9415.252126487901 ; 303971.89809290745 ; 2844283.0578368544 ; 3.2761968068415206E7 ; 0.0
183 ; 9593.952727596065 ; 305257.8852617027 ; 2853698.3099633423 ; 3.3065939966508113E7 ; 0.0
184 ; 9635.433647396314 ; 306539.15978448134 ; 2863292.2626909385 ; 3.3371197851769816E7 ; 0.0
185 ; 9739.42488659317 ; 307815.6835437357 ; 2872927.696338335 ; 3.36777370115543E7 ; 0.0
186 ; 9595.627664779451 ; 309087.4187895862 ; 2882667.121224928 ; 3.3985552695098035E7 ; 0.0
187 ; 9718.869463060415 ; 310354.32813374687 ; 2892262.7488897075 ; 3.429464011388762E7 ; 0.0
188 ; 9621.14839429511 ; 311616.3745436792 ; 2901981.618352768 ; 3.460499444202137E7 ; 0.0
189 ; 9746.901326275296 ; 312873.5213369295 ; 2911602.766747063 ; 3.491661081656505E7 ; 0.0
190 ; 9708.435229317844 ; 314125.7321756427 ; 2921349.6680733385 ; 3.522948433790198E7 ; 0.0
191 ; 9692.907560377595 ; 315372.97106124536 ; 2931058.103302656 ; 3.554361007007762E7 ; 0.0
192 ; 9849.108238073566 ; 316615.20232929545 ; 2940751.0108630336 ; 3.5858983041138865E7 ; 0.0
193 ; 9792.88019210386 ; 317852.3906444905 ; 2950600.119101107 ; 3.617559824346816E7 ; 0.0
194 ; 9790.770424958471 ; 319084.50099583046 ; 2960392.999293211 ; 3.649345063411265E7 ; 0.0
195 ; 9754.173434929757 ; 320311.4986919295 ; 2970183.7697181692 ; 3.681253513510848E7 ; 0.0
196 ; 9877.904262595113 ; 321533.34935647255 ; 2979937.943153099 ; 3.713284663380041E7 ; 0.0
197 ; 9901.696302610737 ; 322750.01892381103 ; 2989815.8474156945 ; 3.745437998315688E7 ; 0.0
198 ; 9838.26996855429 ; 323961.47363469366 ; 2999717.5437183054 ; 3.7777130002080694E7 ; 0.0
199 ; 9969.026280773005 ; 325167.6800321285 ; 3009555.81368686 ; 3.8101091475715384E7 ; 0.0
200 ; 9863.116320070287 ; 326368.6049573711 ; 3019524.8399676327 ; 3.842625915574751E7 ; 0.0
201 ; 9870.196950191297 ; 327564.21554603457 ; 3029387.956287703 ; 3.875262776070488E7 ; 0.0
202 ; 10120.378549105562 ; 328754.4792243192 ; 3039258.153237894 ; 3.908019197625092E7 ; 0.0
203 ; 9948.277147948342 ; 329939.3637053559 ; 3049378.5317869997 ; 3.940894645547523E7 ; 0.0
204 ; 9869.854204228426 ; 331118.8369856609 ; 3059326.808934948 ; 3.973888581918059E7 ; 0.0
205 ; 9878.50028288171 ; 332292.86734169803 ; 3069196.6631391766 ; 4.0070004656166255E7 ; 0.0
206 ; 9941.984097090028 ; 333461.4233265452 ; 3079075.1634220583 ; 4.040229752350795E7 ; 0.0
207 ; 10002.175560720902 ; 334624.4737666612 ; 3089017.1475191484 ; 4.07357589468345E7 ; 0.0
208 ; 10032.063620552579 ; 335781.9877587503 ; 3099019.323079869 ; 4.107038342060116E7 ; 0.0
209 ; 10194.84679706516 ; 336933.93466672185 ; 3109051.3867004216 ; 4.140616540835991E7 ; 0.0
210 ; 10038.087217301905 ; 338080.2841187406 ; 3119246.233497487 ; 4.174309934302663E7 ; 0.0
211 ; 10125.464629137723 ; 339221.0060043665 ; 3129284.320714789 ; 4.208117962714537E7 ; 0.0
212 ; 10117.477484532574 ; 340356.07047177973 ; 3139409.785343927 ; 4.2420400633149736E7 ; 0.0
