CSV File for the City 2 on Day 226
1 - Minute m 
2 - Power Consumed at minute m 
3 - Power Produced at minute m 
4 - Energy Consumed since the beginning of the day 
5 - Energy Produced since the beginning of the day 
6 - Energy Lost since the beginning of the day on lines starting from the city
 
0 ; 4521.295412139193 ; 33934.83219477056 ; 0.0 ; 0.0 ; 0.0
1 ; 4911.5069228846605 ; 33934.83219477056 ; 4521.295412139193 ; 33934.83219477056 ; 0.0
2 ; 5686.854980936838 ; 33934.83219477056 ; 9432.802335023855 ; 67869.66438954113 ; 0.0
3 ; 6194.6950777804 ; 33934.83219477056 ; 15119.657315960692 ; 101804.49658431168 ; 0.0
4 ; 6667.904303076643 ; 33934.83219477056 ; 21314.352393741094 ; 135739.32877908225 ; 0.0
5 ; 7362.357417400634 ; 33934.83219477056 ; 27982.256696817738 ; 169674.16097385282 ; 0.0
6 ; 7625.985073657498 ; 33934.83219477056 ; 35344.61411421837 ; 203608.9931686234 ; 0.0
7 ; 8255.496900789081 ; 33934.83219477056 ; 42970.599187875865 ; 237543.82536339396 ; 0.0
8 ; 8794.37992456795 ; 33934.83219477056 ; 51226.09608866495 ; 271478.6575581645 ; 0.0
9 ; 8954.687537229285 ; 33934.83219477056 ; 60020.476013232896 ; 305413.4897529351 ; 0.0
10 ; 9756.084802370402 ; 33934.83219477056 ; 68975.16355046218 ; 339348.32194770564 ; 0.0
11 ; 10248.769075599808 ; 33934.83219477056 ; 78731.24835283258 ; 373283.1541424762 ; 0.0
12 ; 10802.546052768936 ; 33934.83219477056 ; 88980.01742843239 ; 407217.9863372468 ; 0.0
13 ; 11214.191064613753 ; 33934.83219477056 ; 99782.56348120133 ; 441152.81853201735 ; 0.0
14 ; 11809.220046066612 ; 33934.83219477056 ; 110996.75454581509 ; 475087.6507267879 ; 0.0
15 ; 11968.233108143188 ; 33934.83219477056 ; 122805.97459188169 ; 509022.4829215585 ; 0.0
16 ; 12474.959622398077 ; 33934.83219477056 ; 134774.20770002488 ; 542957.315116329 ; 0.0
17 ; 13043.180699984277 ; 33934.83219477056 ; 147249.16732242296 ; 576892.1473110996 ; 0.0
18 ; 13455.635292605446 ; 33934.83219477056 ; 160292.34802240724 ; 610826.9795058701 ; 0.0
19 ; 13761.770734077776 ; 33934.83219477056 ; 173747.98331501268 ; 644761.8117006407 ; 0.0
20 ; 14364.828331986613 ; 33934.83219477056 ; 187509.75404909046 ; 678696.6438954113 ; 0.0
21 ; 14889.659970474402 ; 33934.83219477056 ; 201874.58238107708 ; 712631.4760901819 ; 0.0
22 ; 15160.879994826166 ; 33934.83219477056 ; 216764.24235155148 ; 746566.3082849524 ; 0.0
23 ; 15736.433497181948 ; 33934.83219477056 ; 231925.12234637764 ; 780501.140479723 ; 0.0
24 ; 15921.611164496026 ; 33934.83219477056 ; 247661.5558435596 ; 814435.9726744936 ; 0.0
25 ; 16355.298501918838 ; 33934.83219477056 ; 263583.1670080556 ; 848370.8048692641 ; 0.0
26 ; 16731.583875813638 ; 33934.83219477056 ; 279938.46550997446 ; 882305.6370640347 ; 0.0
27 ; 17242.86975342676 ; 33934.83219477056 ; 296670.0493857881 ; 916240.4692588053 ; 0.0
28 ; 17558.419984216227 ; 33934.83219477056 ; 313912.91913921485 ; 950175.3014535758 ; 0.0
29 ; 17904.330199994205 ; 33934.83219477056 ; 331471.33912343107 ; 984110.1336483464 ; 0.0
30 ; 18325.106612865206 ; 33934.83219477056 ; 349375.6693234253 ; 1018044.965843117 ; 0.0
31 ; 18657.071050403127 ; 33934.83219477056 ; 367700.7759362905 ; 1051979.7980378876 ; 0.0
32 ; 18892.398162372963 ; 33934.83219477056 ; 386357.8469866936 ; 1085914.630232658 ; 0.0
33 ; 19420.422825110832 ; 33934.83219477056 ; 405250.24514906656 ; 1119849.4624274285 ; 0.0
34 ; 19586.31185671209 ; 33934.83219477056 ; 424670.6679741774 ; 1153784.294622199 ; 0.0
35 ; 20107.24981217522 ; 33934.83219477056 ; 444256.9798308895 ; 1187719.1268169694 ; 0.0
36 ; 20242.068898429094 ; 33934.83219477056 ; 464364.2296430647 ; 1221653.9590117398 ; 0.0
37 ; 20424.672194321243 ; 33934.83219477056 ; 484606.29854149383 ; 1255588.7912065103 ; 0.0
38 ; 20934.096194762977 ; 33934.83219477056 ; 505030.97073581506 ; 1289523.6234012807 ; 0.0
39 ; 21279.720004770203 ; 33934.83219477056 ; 525965.0669305781 ; 1323458.4555960512 ; 0.0
40 ; 21450.338047263842 ; 33934.83219477056 ; 547244.7869353483 ; 1357393.2877908216 ; 0.0
41 ; 21734.536657530953 ; 33934.83219477056 ; 568695.1249826121 ; 1391328.119985592 ; 0.0
42 ; 21995.152945216672 ; 33934.83219477056 ; 590429.661640143 ; 1425262.9521803625 ; 0.0
43 ; 22408.914471639484 ; 33934.83219477056 ; 612424.8145853597 ; 1459197.784375133 ; 0.0
44 ; 22651.190878023237 ; 33934.83219477056 ; 634833.7290569991 ; 1493132.6165699034 ; 0.0
45 ; 23074.024372807475 ; 33934.83219477056 ; 657484.9199350224 ; 1527067.448764674 ; 0.0
46 ; 23238.41821017225 ; 33934.83219477056 ; 680558.9443078298 ; 1561002.2809594444 ; 0.0
47 ; 23471.169105355257 ; 33934.83219477056 ; 703797.362518002 ; 1594937.1131542148 ; 0.0
48 ; 23650.00031562104 ; 33934.83219477056 ; 727268.5316233573 ; 1628871.9453489853 ; 0.0
49 ; 23820.73871354198 ; 33934.83219477056 ; 750918.5319389784 ; 1662806.7775437557 ; 0.0
50 ; 24258.35258678651 ; 33934.83219477056 ; 774739.2706525204 ; 1696741.6097385262 ; 0.0
51 ; 24249.536398416472 ; 33934.83219477056 ; 798997.6232393068 ; 1730676.4419332966 ; 0.0
52 ; 24494.23316362967 ; 33934.83219477056 ; 823247.1596377234 ; 1764611.274128067 ; 0.0
53 ; 24723.571994933456 ; 33934.83219477056 ; 847741.392801353 ; 1798546.1063228375 ; 0.0
54 ; 24936.29381515056 ; 33934.83219477056 ; 872464.9647962864 ; 1832480.938517608 ; 0.0
55 ; 25257.07295420514 ; 33934.83219477056 ; 897401.2586114369 ; 1866415.7707123784 ; 0.0
56 ; 25280.85622321242 ; 33934.83219477056 ; 922658.331565642 ; 1900350.602907149 ; 0.0
57 ; 25271.35431363285 ; 33934.83219477056 ; 947939.1877888545 ; 1934285.4351019193 ; 0.0
58 ; 25715.748431542743 ; 33934.83219477056 ; 973210.5421024873 ; 1968220.2672966898 ; 0.0
59 ; 25835.55673917305 ; 33934.83219477056 ; 998926.2905340301 ; 2002155.0994914602 ; 0.0
60 ; 25876.332770567926 ; 33934.83219477056 ; 1024761.8472732031 ; 2036089.9316862307 ; 0.0
61 ; 26190.18937057698 ; 33934.83219477056 ; 1050638.180043771 ; 2070024.7638810012 ; 0.0
62 ; 26091.78588227635 ; 33934.83219477056 ; 1076828.369414348 ; 2103959.596075772 ; 0.0
63 ; 26334.487896731633 ; 33934.83219477056 ; 1102920.1552966242 ; 2137894.4282705425 ; 0.0
64 ; 26546.73387827628 ; 33934.83219477056 ; 1129254.6431933558 ; 2171829.260465313 ; 0.0
65 ; 26722.02170205397 ; 33934.83219477056 ; 1155801.377071632 ; 2205764.092660084 ; 0.0
66 ; 26520.26627110922 ; 33934.83219477056 ; 1182523.398773686 ; 2239698.9248548546 ; 0.0
67 ; 27042.598202001285 ; 33934.83219477056 ; 1209043.6650447953 ; 2273633.7570496253 ; 0.0
68 ; 26959.76568908268 ; 33934.83219477056 ; 1236086.2632467966 ; 2307568.589244396 ; 0.0
69 ; 27039.648869082583 ; 33934.83219477056 ; 1263046.0289358792 ; 2341503.4214391666 ; 0.0
70 ; 27001.399616869818 ; 33934.83219477056 ; 1290085.6778049618 ; 2375438.2536339373 ; 0.0
71 ; 27262.572365490298 ; 33934.83219477056 ; 1317087.0774218317 ; 2409373.085828708 ; 0.0
72 ; 27088.46189917284 ; 33934.83219477056 ; 1344349.649787322 ; 2443307.9180234787 ; 0.0
73 ; 27209.990002846935 ; 33934.83219477056 ; 1371438.1116864947 ; 2477242.7502182494 ; 0.0
74 ; 27549.66646400176 ; 33934.83219477056 ; 1398648.1016893417 ; 2511177.58241302 ; 0.0
75 ; 27509.524410454567 ; 33934.83219477056 ; 1426197.7681533436 ; 2545112.4146077908 ; 0.0
76 ; 27464.273023228965 ; 33934.83219477056 ; 1453707.2925637981 ; 2579047.2468025615 ; 0.0
77 ; 27633.71822872277 ; 33934.83219477056 ; 1481171.565587027 ; 2612982.078997332 ; 0.0
78 ; 27517.080159912068 ; 33934.83219477056 ; 1508805.2838157497 ; 2646916.911192103 ; 0.0
79 ; 27554.455886306165 ; 33934.83219477056 ; 1536322.3639756618 ; 2680851.7433868735 ; 0.0
80 ; 27499.978680074644 ; 33934.83219477056 ; 1563876.819861968 ; 2714786.575581644 ; 0.0
81 ; 27425.434036138908 ; 33934.83219477056 ; 1591376.7985420427 ; 2748721.407776415 ; 0.0
82 ; 27805.19974516525 ; 33934.83219477056 ; 1618802.2325781817 ; 2782656.2399711856 ; 0.0
83 ; 27540.262999561197 ; 33934.83219477056 ; 1646607.4323233468 ; 2816591.0721659563 ; 0.0
84 ; 27664.621746837005 ; 33934.83219477056 ; 1674147.695322908 ; 2850525.904360727 ; 0.0
85 ; 27682.689880298774 ; 33934.83219477056 ; 1701812.317069745 ; 2884460.7365554976 ; 0.0
86 ; 27729.36235692565 ; 33934.83219477056 ; 1729495.0069500436 ; 2918395.5687502683 ; 0.0
87 ; 27547.898995697018 ; 33934.83219477056 ; 1757224.3693069692 ; 2952330.400945039 ; 0.0
88 ; 27554.46223022118 ; 33934.83219477056 ; 1784772.2683026663 ; 2986265.2331398097 ; 0.0
89 ; 27442.12741098118 ; 33934.83219477056 ; 1812326.7305328874 ; 3020200.0653345804 ; 0.0
90 ; 27379.256565015457 ; 33934.83219477056 ; 1839768.8579438685 ; 3054134.897529351 ; 0.0
91 ; 27633.82415598363 ; 33934.83219477056 ; 1867148.114508884 ; 3088069.7297241217 ; 0.0
92 ; 27499.132292884646 ; 33934.83219477056 ; 1894781.9386648675 ; 3122004.5619188924 ; 0.0
93 ; 27196.13596063963 ; 33934.83219477056 ; 1922281.0709577522 ; 3155939.394113663 ; 0.0
94 ; 27183.07887207734 ; 33934.83219477056 ; 1949477.2069183919 ; 3189874.226308434 ; 0.0
95 ; 27105.00394333169 ; 33934.83219477056 ; 1976660.2857904693 ; 3223809.0585032045 ; 0.0
96 ; 26989.901206357546 ; 33934.83219477056 ; 2003765.289733801 ; 3257743.890697975 ; 0.0
97 ; 26883.984305930244 ; 33934.83219477056 ; 2030755.1909401587 ; 3291678.722892746 ; 0.0
98 ; 26770.345513631688 ; 33934.83219477056 ; 2057639.175246089 ; 3325613.5550875165 ; 0.0
99 ; 26582.093430082004 ; 33934.83219477056 ; 2084409.5207597206 ; 3359548.3872822872 ; 0.0
100 ; 26518.697497977588 ; 33934.83219477056 ; 2110991.6141898027 ; 3393483.219477058 ; 0.0
101 ; 26477.185880034976 ; 33934.83219477056 ; 2137510.31168778 ; 3427418.0516718286 ; 0.0
102 ; 26392.885594716725 ; 33934.83219477056 ; 2163987.4975678152 ; 3461352.8838665993 ; 0.0
103 ; 26193.583589385806 ; 33934.83219477056 ; 2190380.383162532 ; 3495287.71606137 ; 0.0
104 ; 26106.79075318854 ; 33934.83219477056 ; 2216573.9667519177 ; 3529222.5482561407 ; 0.0
105 ; 25966.38896221678 ; 33934.83219477056 ; 2242680.7575051063 ; 3563157.3804509114 ; 0.0
106 ; 25831.393814703537 ; 33934.83219477056 ; 2268647.146467323 ; 3597092.212645682 ; 0.0
107 ; 25600.421395968413 ; 33934.83219477056 ; 2294478.5402820264 ; 3631027.0448404527 ; 0.0
108 ; 25446.093861944766 ; 33934.83219477056 ; 2320078.9616779946 ; 3664961.8770352234 ; 0.0
109 ; 25256.409113371403 ; 33934.83219477056 ; 2345525.0555399396 ; 3698896.709229994 ; 0.0
110 ; 25183.00987523335 ; 33934.83219477056 ; 2370781.464653311 ; 3732831.541424765 ; 0.0
111 ; 24863.708316651784 ; 33934.83219477056 ; 2395964.474528544 ; 3766766.3736195355 ; 0.0
112 ; 24655.373267203882 ; 33934.83219477056 ; 2420828.1828451958 ; 3800701.205814306 ; 0.0
113 ; 24291.270557170392 ; 33934.83219477056 ; 2445483.5561124 ; 3834636.038009077 ; 0.0
114 ; 24245.169534002503 ; 33934.83219477056 ; 2469774.82666957 ; 3868570.8702038475 ; 0.0
115 ; 24010.860504070206 ; 33934.83219477056 ; 2494019.9962035725 ; 3902505.702398618 ; 0.0
116 ; 23970.41006075091 ; 33934.83219477056 ; 2518030.856707643 ; 3936440.534593389 ; 0.0
117 ; 23673.311302465107 ; 33934.83219477056 ; 2542001.2667683936 ; 3970375.3667881596 ; 0.0
118 ; 23371.938220752992 ; 33934.83219477056 ; 2565674.5780708585 ; 4004310.1989829303 ; 0.0
119 ; 23004.347656646525 ; 33934.83219477056 ; 2589046.5162916114 ; 4038245.031177701 ; 0.0
120 ; 22601.26212758005 ; 33934.83219477056 ; 2612050.863948258 ; 4072179.8633724716 ; 0.0
121 ; 22718.07991809188 ; 33934.83219477056 ; 2634652.126075838 ; 4106114.6955672423 ; 0.0
122 ; 22325.043960548628 ; 33934.83219477056 ; 2657370.20599393 ; 4140049.527762013 ; 0.0
123 ; 21924.479737187005 ; 33934.83219477056 ; 2679695.2499544783 ; 4173984.3599567837 ; 0.0
124 ; 21679.09093757955 ; 33934.83219477056 ; 2701619.729691665 ; 4207919.192151554 ; 0.0
125 ; 21506.1745259624 ; 33934.83219477056 ; 2723298.8206292447 ; 4241854.024346325 ; 0.0
126 ; 21176.38100577835 ; 33934.83219477056 ; 2744804.995155207 ; 4275788.856541095 ; 0.0
127 ; 20839.64913211517 ; 33934.83219477056 ; 2765981.3761609853 ; 4309723.688735866 ; 0.0
128 ; 20406.92572029326 ; 33934.83219477056 ; 2786821.0252931006 ; 4343658.520930637 ; 0.0
129 ; 20097.151118125774 ; 33934.83219477056 ; 2807227.9510133937 ; 4377593.353125407 ; 0.0
130 ; 19771.74620689166 ; 33934.83219477056 ; 2827325.1021315195 ; 4411528.185320178 ; 0.0
131 ; 19694.801694164205 ; 33934.83219477056 ; 2847096.848338411 ; 4445463.017514949 ; 0.0
132 ; 19128.085041564136 ; 33934.83219477056 ; 2866791.6500325752 ; 4479397.849709719 ; 0.0
133 ; 18826.453621896777 ; 33934.83219477056 ; 2885919.735074139 ; 4513332.68190449 ; 0.0
134 ; 18564.705854396823 ; 33934.83219477056 ; 2904746.188696036 ; 4547267.514099261 ; 0.0
135 ; 18213.46516631272 ; 33934.83219477056 ; 2923310.894550433 ; 4581202.3462940315 ; 0.0
136 ; 17740.837726573693 ; 33934.83219477056 ; 2941524.3597167456 ; 4615137.178488802 ; 0.0
137 ; 17268.711405252674 ; 33934.83219477056 ; 2959265.1974433195 ; 4649072.010683573 ; 0.0
138 ; 17012.42000795043 ; 33934.83219477056 ; 2976533.908848572 ; 4683006.842878344 ; 0.0
139 ; 16553.525317467273 ; 33934.83219477056 ; 2993546.3288565227 ; 4716941.675073114 ; 0.0
140 ; 16303.433865257595 ; 33934.83219477056 ; 3010099.85417399 ; 4750876.507267885 ; 0.0
141 ; 15779.203761243842 ; 33934.83219477056 ; 3026403.2880392475 ; 4784811.339462656 ; 0.0
142 ; 15458.455570521208 ; 33934.83219477056 ; 3042182.491800491 ; 4818746.171657426 ; 0.0
143 ; 15137.372178805676 ; 33934.83219477056 ; 3057640.9473710125 ; 4852681.003852197 ; 0.0
144 ; 14730.801919003223 ; 33934.83219477056 ; 3072778.319549818 ; 4886615.836046968 ; 0.0
145 ; 14828.971911886592 ; 33934.83219477056 ; 3087509.121468821 ; 4920550.668241738 ; 0.0
146 ; 14330.717458829193 ; 33934.83219477056 ; 3102338.093380708 ; 4954485.500436509 ; 0.0
147 ; 14359.83572340265 ; 33934.83219477056 ; 3116668.810839537 ; 4988420.33263128 ; 0.0
148 ; 14306.521288392942 ; 33934.83219477056 ; 3131028.6465629395 ; 5022355.16482605 ; 0.0
149 ; 14080.672150276196 ; 33934.83219477056 ; 3145335.1678513326 ; 5056289.997020821 ; 0.0
150 ; 13892.751057084664 ; 33934.83219477056 ; 3159415.8400016087 ; 5090224.829215592 ; 0.0
151 ; 13651.516503891331 ; 33934.83219477056 ; 3173308.5910586934 ; 5124159.661410362 ; 0.0
152 ; 13821.861554372554 ; 33934.83219477056 ; 3186960.107562585 ; 5158094.493605133 ; 0.0
153 ; 13555.087422225874 ; 33934.83219477056 ; 3200781.9691169574 ; 5192029.325799904 ; 0.0
154 ; 13445.552226156498 ; 33934.83219477056 ; 3214337.0565391835 ; 5225964.1579946745 ; 0.0
155 ; 13418.059647310154 ; 33934.83219477056 ; 3227782.60876534 ; 5259898.990189445 ; 0.0
156 ; 13176.383874620049 ; 33934.83219477056 ; 3241200.66841265 ; 5293833.822384216 ; 0.0
157 ; 13249.941242493893 ; 33934.83219477056 ; 3254377.05228727 ; 5327768.654578987 ; 0.0
158 ; 13061.410881431126 ; 33934.83219477056 ; 3267626.9935297635 ; 5361703.486773757 ; 0.0
159 ; 12781.61862058901 ; 33934.83219477056 ; 3280688.404411195 ; 5395638.318968528 ; 0.0
160 ; 12669.913761525562 ; 33934.83219477056 ; 3293470.0230317838 ; 5429573.151163299 ; 0.0
161 ; 12402.211595183691 ; 33934.83219477056 ; 3306139.936793309 ; 5463507.983358069 ; 0.0
162 ; 12290.464276916466 ; 33934.83219477056 ; 3318542.148388493 ; 5497442.81555284 ; 0.0
163 ; 12319.008608176046 ; 33934.83219477056 ; 3330832.612665409 ; 5531377.647747611 ; 0.0
164 ; 12009.575316388604 ; 33934.83219477056 ; 3343151.621273585 ; 5565312.479942381 ; 0.0
165 ; 11838.446845909279 ; 33934.83219477056 ; 3355161.1965899738 ; 5599247.312137152 ; 0.0
166 ; 11582.267200705299 ; 33934.83219477056 ; 3366999.643435883 ; 5633182.144331923 ; 0.0
167 ; 11355.128024174637 ; 33934.83219477056 ; 3378581.910636588 ; 5667116.976526693 ; 0.0
168 ; 11302.43464871107 ; 33934.83219477056 ; 3389937.038660763 ; 5701051.808721464 ; 0.0
169 ; 11025.51613668603 ; 33934.83219477056 ; 3401239.473309474 ; 5734986.640916235 ; 0.0
170 ; 11007.529752627981 ; 33934.83219477056 ; 3412264.98944616 ; 5768921.4731110055 ; 0.0
171 ; 10613.3098363062 ; 33934.83219477056 ; 3423272.519198788 ; 5802856.305305776 ; 0.0
172 ; 10821.692415409418 ; 33934.83219477056 ; 3433885.829035094 ; 5836791.137500547 ; 0.0
173 ; 10569.037765862375 ; 33934.83219477056 ; 3444707.5214505033 ; 5870725.969695318 ; 0.0
174 ; 10703.458639115586 ; 33934.83219477056 ; 3455276.5592163657 ; 5904660.801890088 ; 0.0
175 ; 10517.775353286137 ; 33934.83219477056 ; 3465980.0178554812 ; 5938595.634084859 ; 0.0
176 ; 10626.011726703251 ; 33934.83219477056 ; 3476497.793208767 ; 5972530.46627963 ; 0.0
177 ; 10600.656257525152 ; 33934.83219477056 ; 3487123.80493547 ; 6006465.2984744 ; 0.0
178 ; 10744.002129808941 ; 33934.83219477056 ; 3497724.4611929953 ; 6040400.130669171 ; 0.0
179 ; 10535.41029061206 ; 33934.83219477056 ; 3508468.4633228043 ; 6074334.962863942 ; 0.0
180 ; 10829.341469877489 ; 33934.83219477056 ; 3519003.873613416 ; 6108269.795058712 ; 0.0
181 ; 10813.373544271073 ; 33934.83219477056 ; 3529833.2150832936 ; 6142204.627253483 ; 0.0
182 ; 10786.759191090392 ; 33934.83219477056 ; 3540646.5886275647 ; 6176139.459448254 ; 0.0
183 ; 10670.86312654012 ; 33934.83219477056 ; 3551433.347818655 ; 6210074.291643024 ; 0.0
184 ; 10917.593071302588 ; 33934.83219477056 ; 3562104.210945195 ; 6244009.123837795 ; 0.0
185 ; 10831.616978454409 ; 33934.83219477056 ; 3573021.8040164975 ; 6277943.956032566 ; 0.0
186 ; 10875.913314399819 ; 33934.83219477056 ; 3583853.420994952 ; 6311878.7882273365 ; 0.0
187 ; 10931.141366349224 ; 33934.83219477056 ; 3594729.3343093516 ; 6345813.620422107 ; 0.0
188 ; 10968.290575630966 ; 33934.83219477056 ; 3605660.4756757007 ; 6379748.452616878 ; 0.0
189 ; 11155.958059776223 ; 33934.83219477056 ; 3616628.7662513317 ; 6413683.284811649 ; 0.0
190 ; 11070.686260447981 ; 33934.83219477056 ; 3627784.724311108 ; 6447618.117006419 ; 0.0
191 ; 11059.375049576089 ; 33934.83219477056 ; 3638855.4105715556 ; 6481552.94920119 ; 0.0
192 ; 11358.482535000569 ; 33934.83219477056 ; 3649914.785621132 ; 6515487.781395961 ; 0.0
193 ; 11248.472274267957 ; 33934.83219477056 ; 3661273.268156132 ; 6549422.613590731 ; 0.0
194 ; 11359.005099555561 ; 33934.83219477056 ; 3672521.7404304002 ; 6583357.445785502 ; 0.0
195 ; 11268.595092416894 ; 33934.83219477056 ; 3683880.7455299557 ; 6617292.277980273 ; 0.0
196 ; 11351.704075178373 ; 33934.83219477056 ; 3695149.3406223725 ; 6651227.110175043 ; 0.0
197 ; 11206.502656939627 ; 33934.83219477056 ; 3706501.044697551 ; 6685161.942369814 ; 0.0
198 ; 11349.478108312154 ; 33934.83219477056 ; 3717707.5473544905 ; 6719096.774564585 ; 0.0
199 ; 11369.178758631642 ; 33934.83219477056 ; 3729057.0254628025 ; 6753031.606759355 ; 0.0
200 ; 11414.870699003142 ; 33934.83219477056 ; 3740426.204221434 ; 6786966.438954126 ; 0.0
201 ; 11462.831579162641 ; 33934.83219477056 ; 3751841.0749204373 ; 6820901.271148897 ; 0.0
202 ; 11319.78576721005 ; 33934.83219477056 ; 3763303.9064996 ; 6854836.103343667 ; 0.0
203 ; 11617.385339793806 ; 33934.83219477056 ; 3774623.69226681 ; 6888770.935538438 ; 0.0
204 ; 11694.791074598208 ; 33934.83219477056 ; 3786241.077606604 ; 6922705.767733209 ; 0.0
205 ; 11524.55923894974 ; 33934.83219477056 ; 3797935.868681202 ; 6956640.5999279795 ; 0.0
206 ; 11473.832412548905 ; 33934.83219477056 ; 3809460.427920152 ; 6990575.43212275 ; 0.0
207 ; 11564.538012988169 ; 33934.83219477056 ; 3820934.260332701 ; 7024510.264317521 ; 0.0
208 ; 11673.63764281078 ; 33934.83219477056 ; 3832498.798345689 ; 7058445.096512292 ; 0.0
209 ; 11590.294456860036 ; 33934.83219477056 ; 3844172.4359885 ; 7092379.928707062 ; 0.0
210 ; 11887.910066640248 ; 33934.83219477056 ; 3855762.73044536 ; 7126314.760901833 ; 0.0
211 ; 11838.700209738987 ; 33934.83219477056 ; 3867650.6405120003 ; 7160249.593096604 ; 0.0
212 ; 11882.396180054999 ; 33934.83219477056 ; 3879489.3407217395 ; 7194184.425291374 ; 0.0
213 ; 12041.524648903553 ; 33934.83219477056 ; 3891371.7369017946 ; 7228119.257486145 ; 0.0
214 ; 11867.595349995083 ; 33934.83219477056 ; 3903413.261550698 ; 7262054.089680916 ; 0.0
215 ; 12095.39799910299 ; 33934.83219477056 ; 3915280.856900693 ; 7295988.921875686 ; 0.0
216 ; 11913.186886005835 ; 33934.83219477056 ; 3927376.254899796 ; 7329923.754070457 ; 0.0
