CSV File for the City 3 on Day 302
1 - Minute m 
2 - Power Consumed at minute m 
3 - Power Produced at minute m 
4 - Energy Consumed since the beginning of the day 
5 - Energy Produced since the beginning of the day 
6 - Energy Lost since the beginning of the day on lines starting from the city
 
0 ; 8272.296006135626 ; 157811.0229286847 ; 0.0 ; 0.0 ; 0.0
1 ; 8681.711132873148 ; 157443.96747856305 ; 8272.296006135626 ; 157811.0229286847 ; 0.0
2 ; 9003.10770619684 ; 157114.74725385866 ; 16954.007139008776 ; 315254.99040724774 ; 0.0
3 ; 9282.268374435167 ; 156823.62568179227 ; 25957.114845205615 ; 472369.7376611064 ; 0.0
4 ; 9477.758939037001 ; 156570.83750632618 ; 35239.38321964078 ; 629193.3633428987 ; 0.0
5 ; 9829.67616216907 ; 156356.5879459066 ; 44717.14215867779 ; 785764.2008492248 ; 0.0
6 ; 10174.783877508613 ; 156181.05194820167 ; 54546.818320846854 ; 942120.7887951314 ; 0.0
7 ; 10319.283164635506 ; 156044.3735481631 ; 64721.60219835547 ; 1098301.840743333 ; 0.0
8 ; 10650.478334454743 ; 155946.6653349395 ; 75040.88536299097 ; 1254346.2142914962 ; 0.0
9 ; 10800.363659837873 ; 155888.00803228898 ; 85691.36369744572 ; 1410292.8796264357 ; 0.0
10 ; 11136.898093016962 ; 155868.4501961838 ; 96491.72735728358 ; 1566180.8876587246 ; 0.0
11 ; 11434.614198769903 ; 155888.00803228898 ; 107628.62545030055 ; 1722049.3378549083 ; 0.0
12 ; 11611.850870100778 ; 155946.6653349395 ; 119063.23964907046 ; 1877937.3458871972 ; 0.0
13 ; 11945.242877088262 ; 156044.3735481631 ; 130675.09051917124 ; 2033884.0112221367 ; 0.0
14 ; 12232.325943525666 ; 156181.05194820167 ; 142620.3333962595 ; 2189928.3847703 ; 0.0
15 ; 12471.259008925874 ; 156356.5879459066 ; 154852.65933978517 ; 2346109.4367185016 ; 0.0
16 ; 12725.783220814927 ; 156570.83750632618 ; 167323.91834871104 ; 2502466.024664408 ; 0.0
17 ; 13065.464369051162 ; 156823.6256817922 ; 180049.70156952596 ; 2659036.8621707344 ; 0.0
18 ; 13212.87625214878 ; 157114.7472538587 ; 193115.16593857712 ; 2815860.487852527 ; 0.0
19 ; 13312.94688115798 ; 157443.96747856296 ; 206328.04219072592 ; 2972975.2351063853 ; 0.0
20 ; 13783.317750764858 ; 157811.02292868472 ; 219640.9890718839 ; 3130419.2025849484 ; 0.0
21 ; 13804.007527141837 ; 158215.6224259758 ; 233424.30682264877 ; 3288230.2255136333 ; 0.0
22 ; 14112.948640636294 ; 158657.4480557357 ; 247228.3143497906 ; 3446445.847939609 ; 0.0
23 ; 14373.552643497465 ; 159136.15625561998 ; 261341.26299042688 ; 3605103.295995345 ; 0.0
24 ; 14537.35389568188 ; 159651.37897019094 ; 275714.8156339243 ; 3764239.452250965 ; 0.0
25 ; 14727.671452152295 ; 160202.72486245935 ; 290252.1695296062 ; 3923890.831221156 ; 0.0
26 ; 14895.315232860992 ; 160789.78057351476 ; 304979.8409817585 ; 4084093.556083615 ; 0.0
27 ; 15153.393293781028 ; 161412.11202130307 ; 319875.15621461946 ; 4244883.336657129 ; 0.0
28 ; 15302.684747487072 ; 162069.2657296715 ; 335028.5495084005 ; 4406295.448678432 ; 0.0
29 ; 15538.716578573483 ; 162760.77017896553 ; 350331.23425588757 ; 4568364.714408103 ; 0.0
30 ; 15739.402645826956 ; 163486.13716970853 ; 365869.950834461 ; 4731125.484587069 ; 0.0
31 ; 16058.391121571183 ; 164244.86319122856 ; 381609.353480288 ; 4894611.621756777 ; 0.0
32 ; 16022.23038230916 ; 165036.4307874952 ; 397667.7446018592 ; 5058856.4849480055 ; 0.0
33 ; 16351.50983262513 ; 165860.3099128863 ; 413689.97498416837 ; 5223892.915735501 ; 0.0
34 ; 16502.246819586762 ; 166715.9592711156 ; 430041.48481679347 ; 5389753.225648387 ; 0.0
35 ; 16647.398290684127 ; 167602.82763109464 ; 446543.73163638025 ; 5556469.184919503 ; 0.0
36 ; 16573.087857822782 ; 168520.35511407332 ; 463191.1299270644 ; 5724072.012550597 ; 0.0
37 ; 17068.0375393874 ; 169467.97444699437 ; 479764.2177848872 ; 5892592.367664671 ; 0.0
38 ; 16927.08360137844 ; 170445.11217759256 ; 496832.2553242746 ; 6062060.342111665 ; 0.0
39 ; 17158.051416750845 ; 171451.18984736304 ; 513759.338925653 ; 6232505.4542892575 ; 0.0
40 ; 17414.175372237 ; 172485.62511911144 ; 530917.3903424039 ; 6403956.644136621 ; 0.0
41 ; 17455.65379060623 ; 173547.83285636743 ; 548331.5657146409 ; 6576442.269255732 ; 0.0
42 ; 17694.623654299357 ; 174637.22615249266 ; 565787.2195052471 ; 6749990.1021120995 ; 0.0
43 ; 17683.181095958116 ; 175753.21730783643 ; 583481.8431595464 ; 6924627.328264592 ; 0.0
44 ; 17999.137764654115 ; 176895.2187537825 ; 601165.0242555045 ; 7100380.545572429 ; 0.0
45 ; 18078.715709240085 ; 178062.64392299158 ; 619164.1620201586 ; 7277275.764326211 ; 0.0
46 ; 18433.424498075176 ; 179254.90806556251 ; 637242.8777293987 ; 7455338.408249203 ; 0.0
47 ; 18320.22472610984 ; 180471.42901122448 ; 655676.3022274738 ; 7634593.316314765 ; 0.0
48 ; 18646.396799705548 ; 181711.6278780165 ; 673996.5269535837 ; 7815064.74532599 ; 0.0
49 ; 18613.652047072595 ; 182974.9297282224 ; 692642.9237532893 ; 7996776.373204007 ; 0.0
50 ; 18845.036486210454 ; 184260.76417260277 ; 711256.5758003618 ; 8179751.302932229 ; 0.0
51 ; 18819.559696990556 ; 185568.56592419825 ; 730101.6122865722 ; 8364012.067104831 ; 0.0
52 ; 19033.89710623923 ; 186897.77530318522 ; 748921.1719835628 ; 8549580.633029029 ; 0.0
53 ; 19158.93562686928 ; 188247.83869442908 ; 767955.069089802 ; 8736478.408332214 ; 0.0
54 ; 19258.380552970455 ; 189618.20895952042 ; 787114.0047166713 ; 8924726.247026643 ; 0.0
55 ; 19308.248102815905 ; 191008.34580518783 ; 806372.3852696418 ; 9114344.455986163 ; 0.0
56 ; 19272.31033128188 ; 192417.71611006215 ; 825680.6333724577 ; 9305352.801791351 ; 0.0
57 ; 19427.21527882363 ; 193845.79421182536 ; 844952.9437037396 ; 9497770.517901413 ; 0.0
58 ; 19466.568058998833 ; 195292.06215681153 ; 864380.1589825632 ; 9691616.312113238 ; 0.0
59 ; 19518.15352318144 ; 196756.00991414595 ; 883846.727041562 ; 9886908.37427005 ; 0.0
60 ; 19753.27086607092 ; 198237.1355565025 ; 903364.8805647434 ; 1.0083664384184197E7 ; 0.0
61 ; 19588.499770939918 ; 199734.94540954626 ; 923118.1514308143 ; 1.0281901519740699E7 ; 0.0
62 ; 19907.79593090359 ; 201248.9541720956 ; 942706.6512017542 ; 1.0481636465150245E7 ; 0.0
63 ; 19930.848036589607 ; 202778.6850089963 ; 962614.4471326579 ; 1.068288541932234E7 ; 0.0
64 ; 19839.346465097933 ; 204323.6696186494 ; 982545.2951692474 ; 1.0885664104331337E7 ; 0.0
65 ; 20058.99050943497 ; 205883.44827707633 ; 1002384.6416343454 ; 1.1089987773949986E7 ; 0.0
66 ; 20216.81560853857 ; 207457.5698603355 ; 1022443.6321437804 ; 1.1295871222227063E7 ; 0.0
67 ; 20129.841445686445 ; 209045.59184703807 ; 1042660.4477523189 ; 1.1503328792087398E7 ; 0.0
68 ; 20210.552615675384 ; 210647.08030263355 ; 1062790.2891980053 ; 1.1712374383934436E7 ; 0.0
69 ; 20184.270037850725 ; 212261.6098470594 ; 1083000.8418136807 ; 1.192302146423707E7 ; 0.0
70 ; 20276.219173822683 ; 213888.76360727026 ; 1103185.1118515315 ; 1.213528307408413E7 ; 0.0
71 ; 20135.55475268695 ; 215528.13315608294 ; 1123461.3310253543 ; 1.23491718376914E7 ; 0.0
72 ; 20465.79060508091 ; 217179.31843869347 ; 1143596.8857780413 ; 1.2564699970847484E7 ; 0.0
73 ; 20347.187855416698 ; 218841.92768814365 ; 1164062.6763831223 ; 1.2781879289286178E7 ; 0.0
74 ; 20503.79432089197 ; 220515.5773309376 ; 1184409.864238539 ; 1.3000721216974322E7 ; 0.0
75 ; 20516.330867058212 ; 222199.89188393092 ; 1204913.658559431 ; 1.322123679430526E7 ; 0.0
76 ; 20383.96857567774 ; 223894.5038435431 ; 1225429.9894264892 ; 1.344343668618919E7 ; 0.0
77 ; 20482.269386809097 ; 225599.05356827032 ; 1245813.958002167 ; 1.3667331190032732E7 ; 0.0
78 ; 20599.725623108865 ; 227313.18915540833 ; 1266296.2273889761 ; 1.3892930243601002E7 ; 0.0
79 ; 20370.259112106483 ; 229036.56631282598 ; 1286895.953012085 ; 1.412024343275641E7 ; 0.0
80 ; 20526.93126618444 ; 230768.84822657 ; 1307266.2121241915 ; 1.4349279999069236E7 ; 0.0
81 ; 20499.146887000636 ; 232509.70542501728 ; 1327793.143390376 ; 1.4580048847295806E7 ; 0.0
82 ; 20499.54397168386 ; 234258.81564023686 ; 1348292.2902773765 ; 1.4812558552720822E7 ; 0.0
83 ; 20476.02678581994 ; 236015.8636671656 ; 1368791.8342490604 ; 1.504681736836106E7 ; 0.0
84 ; 20298.925263018275 ; 237780.5412211536 ; 1389267.8610348804 ; 1.5282833232028225E7 ; 0.0
85 ; 20397.62353924543 ; 239552.54679438428 ; 1409566.7862978987 ; 1.5520613773249378E7 ; 0.0
86 ; 20408.583671014887 ; 241331.58551162918 ; 1429964.4098371442 ; 1.5760166320043763E7 ; 0.0
87 ; 20338.238466113387 ; 243117.3689857554 ; 1450372.9935081592 ; 1.6001497905555392E7 ; 0.0
88 ; 20373.55136561702 ; 244909.61517336185 ; 1470711.2319742725 ; 1.6244615274541147E7 ; 0.0
89 ; 20336.83645436087 ; 246708.04823088655 ; 1491084.7833398895 ; 1.648952488971451E7 ; 0.0
90 ; 20228.476839771258 ; 248512.39837148684 ; 1511421.6197942505 ; 1.6736232937945396E7 ; 0.0
91 ; 20318.767873509783 ; 250322.4017229683 ; 1531650.0966340217 ; 1.6984745336316884E7 ; 0.0
92 ; 20182.072210012444 ; 252137.8001870036 ; 1551968.8645075315 ; 1.723506773803985E7 ; 0.0
93 ; 20143.128439645778 ; 253958.3412998566 ; 1572150.936717544 ; 1.7487205538226854E7 ; 0.0
94 ; 20123.536538681175 ; 255783.77809480138 ; 1592294.0651571897 ; 1.7741163879526712E7 ; 0.0
95 ; 20132.464038709426 ; 257613.86896640155 ; 1612417.601695871 ; 1.7996947657621514E7 ; 0.0
96 ; 19877.58729715155 ; 259448.37753679417 ; 1632550.0657345804 ; 1.8254561526587915E7 ; 0.0
97 ; 19923.190542737986 ; 261287.07252410185 ; 1652427.653031732 ; 1.8514009904124707E7 ; 0.0
98 ; 19857.215791947863 ; 263129.72761307884 ; 1672350.84357447 ; 1.8775296976648808E7 ; 0.0
99 ; 19787.917548185207 ; 264976.1213280802 ; 1692208.0593664178 ; 1.9038426704261888E7 ; 0.0
100 ; 19869.22408373576 ; 266826.0369084269 ; 1711995.976914603 ; 1.930340282558997E7 ; 0.0
101 ; 19530.66575575049 ; 268679.2621862273 ; 1731865.2009983389 ; 1.9570228862498395E7 ; 0.0
102 ; 19442.030172614974 ; 270535.58946670144 ; 1751395.8667540892 ; 1.983890812468462E7 ; 0.0
103 ; 19331.410965486175 ; 272394.815411043 ; 1770837.8969267043 ; 2.0109443714151323E7 ; 0.0
104 ; 19299.157160799703 ; 274256.740921845 ; 1790169.3078921905 ; 2.0381838529562365E7 ; 0.0
105 ; 19286.778685075926 ; 276121.1710311044 ; 1809468.4650529902 ; 2.065609527048421E7 ; 0.0
106 ; 19112.164960338403 ; 277987.9147908123 ; 1828755.2437380662 ; 2.093221644151531E7 ; 0.0
107 ; 19059.578779403128 ; 279856.78516612976 ; 1847867.4086984047 ; 2.1210204356306124E7 ; 0.0
108 ; 18842.28628534926 ; 281727.59893114184 ; 1866926.9874778078 ; 2.1490061141472254E7 ; 0.0
109 ; 18862.37145505493 ; 283600.1765671767 ; 1885769.273763157 ; 2.1771788740403395E7 ; 0.0
110 ; 18841.392482782576 ; 285474.3421636713 ; 1904631.645218212 ; 2.2055388916970573E7 ; 0.0
111 ; 18697.32394237544 ; 287349.9233215591 ; 1923473.0377009944 ; 2.2340863259134244E7 ; 0.0
112 ; 18497.588075499592 ; 289226.7510591547 ; 1942170.3616433698 ; 2.2628213182455804E7 ; 0.0
113 ; 18421.538999454096 ; 291104.6597205011 ; 1960667.9497188693 ; 2.291743993351496E7 ; 0.0
114 ; 18284.97685804843 ; 292983.4868861477 ; 1979089.4887183234 ; 2.3208544593235463E7 ; 0.0
115 ; 18191.293312529786 ; 294863.0732863208 ; 1997374.4655763719 ; 2.350152808012161E7 ; 0.0
116 ; 17936.40698315268 ; 296743.2627164471 ; 2015565.7588889017 ; 2.379639115340793E7 ; 0.0
117 ; 17938.883278342444 ; 298623.9019549895 ; 2033502.1658720544 ; 2.4093134416124377E7 ; 0.0
118 ; 17792.42384606123 ; 300504.8406835509 ; 2051441.0491503968 ; 2.4391758318079367E7 ; 0.0
119 ; 17568.89314579091 ; 302385.93140920345 ; 2069233.4729964582 ; 2.4692263158762917E7 ; 0.0
120 ; 17377.562234113295 ; 304267.0293889954 ; 2086802.3661422492 ; 2.499464909017212E7 ; 0.0
121 ; 17328.719389962967 ; 306147.99255659146 ; 2104179.9283763627 ; 2.5298916119561113E7 ; 0.0
122 ; 17239.50476434412 ; 308028.68145099876 ; 2121508.6477663256 ; 2.5605064112117704E7 ; 0.0
123 ; 17017.835327685407 ; 309908.95914733026 ; 2138748.1525306697 ; 2.5913092793568704E7 ; 0.0
124 ; 16878.33517722699 ; 311788.69118956005 ; 2155765.987858355 ; 2.6223001752716035E7 ; 0.0
125 ; 16704.366184258637 ; 313667.7455252209 ; 2172644.323035582 ; 2.6534790443905596E7 ; 0.0
126 ; 16381.005978937985 ; 315545.9924419977 ; 2189348.689219841 ; 2.6848458189430818E7 ; 0.0
127 ; 16336.63518669824 ; 317423.3045061689 ; 2205729.695198779 ; 2.7164004181872815E7 ; 0.0
128 ; 15894.417385960409 ; 319299.5565028488 ; 2222066.3303854773 ; 2.7481427486378983E7 ; 0.0
129 ; 15942.462165160963 ; 321174.62537798507 ; 2237960.7477714377 ; 2.780072704288183E7 ; 0.0
130 ; 15732.703363331848 ; 323048.3901820626 ; 2253903.209936599 ; 2.8121901668259818E7 ; 0.0
131 ; 15610.297992498376 ; 324920.73201547173 ; 2269635.9132999307 ; 2.844495005844188E7 ; 0.0
132 ; 15319.23382171623 ; 326791.5339754928 ; 2285246.211292429 ; 2.8769870790457353E7 ; 0.0
133 ; 14977.505055922647 ; 328660.6811048543 ; 2300565.445114145 ; 2.9096662324432846E7 ; 0.0
134 ; 14932.31016936319 ; 330528.0603418197 ; 2315542.9501700676 ; 2.94253230055377E7 ; 0.0
135 ; 14686.966253555394 ; 332393.5604717626 ; 2330475.260339431 ; 2.975585106587952E7 ; 0.0
136 ; 14313.398263058907 ; 334257.07208018436 ; 2345162.2265929864 ; 3.0088244626351282E7 ; 0.0
137 ; 14465.908814941242 ; 336118.48750713683 ; 2359475.6248560455 ; 3.0422501698431466E7 ; 0.0
138 ; 14065.88424298852 ; 337977.70080300723 ; 2373941.5336709865 ; 3.0758620185938604E7 ; 0.0
139 ; 13987.505489741088 ; 339834.607685627 ; 2388007.417913975 ; 3.1096597886741612E7 ; 0.0
140 ; 13501.169003233326 ; 341689.1054986654 ; 2401994.923403716 ; 3.1436432494427238E7 ; 0.0
141 ; 13439.862557880884 ; 343541.09317127045 ; 2415496.0924069495 ; 3.17781215999259E7 ; 0.0
142 ; 13273.556369129357 ; 345390.4711789197 ; 2428935.9549648305 ; 3.212166269309717E7 ; 0.0
143 ; 13011.861940985147 ; 347237.1415054472 ; 2442209.51133396 ; 3.246705316427609E7 ; 0.0
144 ; 12807.22890659254 ; 349081.0076062077 ; 2455221.373274945 ; 3.2814290305781536E7 ; 0.0
145 ; 12770.65298512333 ; 350921.97437234776 ; 2468028.6021815375 ; 3.3163371313387744E7 ; 0.0
146 ; 12495.1168413625 ; 352759.94809614884 ; 2480799.255166661 ; 3.351429328776009E7 ; 0.0
147 ; 12444.997725608753 ; 354594.8364374092 ; 2493294.3720080233 ; 3.386705323585624E7 ; 0.0
148 ; 12361.766597811293 ; 356426.5483908356 ; 2505739.369733632 ; 3.4221648072293654E7 ; 0.0
149 ; 12332.851215306979 ; 358254.9942544112 ; 2518101.136331443 ; 3.457807462068449E7 ; 0.0
150 ; 12167.814303295783 ; 360080.0855987122 ; 2530433.9875467503 ; 3.49363296149389E7 ; 0.0
151 ; 12117.593577187223 ; 361901.73523714364 ; 2542601.801850046 ; 3.5296409700537615E7 ; 0.0
152 ; 12090.873665441844 ; 363719.8571970651 ; 2554719.395427233 ; 3.565831143577476E7 ; 0.0
153 ; 11886.463203861058 ; 365534.36669178103 ; 2566810.269092675 ; 3.602203129297183E7 ; 0.0
154 ; 11904.733801226916 ; 367345.18009336723 ; 2578696.7322965357 ; 3.638756565966361E7 ; 0.0
155 ; 11785.700816439832 ; 369152.2149063094 ; 2590601.466097763 ; 3.675491083975698E7 ; 0.0
156 ; 11879.559331158569 ; 370955.38974192756 ; 2602387.1669142027 ; 3.712406305466329E7 ; 0.0
157 ; 11763.247637775788 ; 372754.6242935626 ; 2614266.7262453614 ; 3.749501844440522E7 ; 0.0
158 ; 11535.067174876283 ; 374549.83931250125 ; 2626029.973883137 ; 3.7867773068698786E7 ; 0.0
159 ; 11485.877295006727 ; 376340.9565846176 ; 2637565.041058013 ; 3.824232290801129E7 ; 0.0
160 ; 11455.408079476123 ; 378127.8989077076 ; 2649050.9183530197 ; 3.8618663864595905E7 ; 0.0
161 ; 11232.821621823545 ; 379910.59006949543 ; 2660506.326432496 ; 3.899679176350361E7 ; 0.0
162 ; 11204.483141526789 ; 381688.9548262929 ; 2671739.1480543194 ; 3.9376702353573106E7 ; 0.0
163 ; 11099.001119740815 ; 383462.9188822882 ; 2682943.631195846 ; 3.97583913083994E7 ; 0.0
164 ; 10918.615328708313 ; 385232.40886944823 ; 2694042.632315587 ; 4.014185422728169E7 ; 0.0
165 ; 10926.534530562694 ; 386997.35232801246 ; 2704961.247644295 ; 4.0527086636151135E7 ; 0.0
166 ; 10864.343883155718 ; 388757.6776875625 ; 2715887.782174858 ; 4.0914083988479145E7 ; 0.0
167 ; 10671.202136146281 ; 390513.3142486476 ; 2726752.1260580136 ; 4.130284166616671E7 ; 0.0
168 ; 10526.118019954558 ; 392264.1921649508 ; 2737423.32819416 ; 4.169335498041536E7 ; 0.0
169 ; 10693.708779863344 ; 394010.2424259766 ; 2747949.446214115 ; 4.208561917258031E7 ; 0.0
170 ; 10407.486136777623 ; 395751.3968402474 ; 2758643.1549939783 ; 4.247962941500629E7 ; 0.0
171 ; 10421.39169952145 ; 397487.5880189897 ; 2769050.641130756 ; 4.287538081184653E7 ; 0.0
172 ; 10272.361778964529 ; 399218.74936029717 ; 2779472.0328302775 ; 4.327286839986552E7 ; 0.0
173 ; 10021.877339692423 ; 400000.0 ; 2789744.394609242 ; 4.367208714922582E7 ; 0.0
174 ; 10132.235225489447 ; 400000.0 ; 2799766.2719489345 ; 4.407208714922582E7 ; 0.0
175 ; 10105.491528014863 ; 400000.0 ; 2809898.507174424 ; 4.447208714922582E7 ; 0.0
176 ; 10144.290455900627 ; 400000.0 ; 2820003.9987024385 ; 4.487208714922582E7 ; 0.0
177 ; 10221.878455927577 ; 400000.0 ; 2830148.289158339 ; 4.527208714922582E7 ; 0.0
178 ; 10108.08594019194 ; 400000.0 ; 2840370.1676142667 ; 4.567208714922582E7 ; 0.0
179 ; 10061.324944075259 ; 400000.0 ; 2850478.2535544587 ; 4.607208714922582E7 ; 0.0
180 ; 10259.6586925353 ; 400000.0 ; 2860539.578498534 ; 4.647208714922582E7 ; 0.0
181 ; 10127.399965355224 ; 400000.0 ; 2870799.2371910694 ; 4.687208714922582E7 ; 0.0
182 ; 10062.418054626352 ; 400000.0 ; 2880926.6371564246 ; 4.727208714922582E7 ; 0.0
183 ; 10241.745586275838 ; 400000.0 ; 2890989.055211051 ; 4.767208714922582E7 ; 0.0
184 ; 10095.040681742383 ; 400000.0 ; 2901230.800797327 ; 4.807208714922582E7 ; 0.0
185 ; 10129.211679590786 ; 400000.0 ; 2911325.8414790696 ; 4.847208714922582E7 ; 0.0
186 ; 10087.256763613092 ; 400000.0 ; 2921455.0531586604 ; 4.887208714922582E7 ; 0.0
187 ; 10189.862386231134 ; 400000.0 ; 2931542.3099222737 ; 4.927208714922582E7 ; 0.0
188 ; 10375.475637430516 ; 400000.0 ; 2941732.172308505 ; 4.967208714922582E7 ; 0.0
189 ; 10329.09570042903 ; 400000.0 ; 2952107.6479459354 ; 5.007208714922582E7 ; 0.0
190 ; 10186.536633124084 ; 400000.0 ; 2962436.743646364 ; 5.047208714922582E7 ; 0.0
191 ; 10096.291041794164 ; 400000.0 ; 2972623.2802794883 ; 5.087208714922582E7 ; 0.0
192 ; 10324.830142421097 ; 400000.0 ; 2982719.5713212825 ; 5.127208714922582E7 ; 0.0
193 ; 10301.113466582838 ; 400000.0 ; 2993044.4014637037 ; 5.167208714922582E7 ; 0.0
194 ; 10395.522091157569 ; 400000.0 ; 3003345.5149302864 ; 5.207208714922582E7 ; 0.0
195 ; 10267.718327808956 ; 400000.0 ; 3013741.037021444 ; 5.247208714922582E7 ; 0.0
196 ; 10393.072420899334 ; 400000.0 ; 3024008.7553492533 ; 5.287208714922582E7 ; 0.0
197 ; 10475.259334930528 ; 400000.0 ; 3034401.8277701526 ; 5.327208714922582E7 ; 0.0
198 ; 10247.635189409464 ; 400000.0 ; 3044877.0871050833 ; 5.367208714922582E7 ; 0.0
199 ; 10478.230287161387 ; 400000.0 ; 3055124.7222944926 ; 5.407208714922582E7 ; 0.0
200 ; 10488.765777122746 ; 400000.0 ; 3065602.952581654 ; 5.447208714922582E7 ; 0.0
201 ; 10551.470691730152 ; 400000.0 ; 3076091.7183587765 ; 5.487208714922582E7 ; 0.0
202 ; 10425.174545707332 ; 400000.0 ; 3086643.189050507 ; 5.527208714922582E7 ; 0.0
203 ; 10365.125061850333 ; 400000.0 ; 3097068.363596214 ; 5.567208714922582E7 ; 0.0
204 ; 10435.617851153753 ; 400000.0 ; 3107433.4886580645 ; 5.607208714922582E7 ; 0.0
205 ; 10439.73182097934 ; 400000.0 ; 3117869.1065092185 ; 5.647208714922582E7 ; 0.0
206 ; 10417.505079201577 ; 400000.0 ; 3128308.8383301976 ; 5.687208714922582E7 ; 0.0
207 ; 10366.479932686021 ; 400000.0 ; 3138726.343409399 ; 5.727208714922582E7 ; 0.0
208 ; 10404.549061155145 ; 400000.0 ; 3149092.823342085 ; 5.767208714922582E7 ; 0.0
209 ; 10462.338994316295 ; 400000.0 ; 3159497.37240324 ; 5.807208714922582E7 ; 0.0
210 ; 10532.956445899003 ; 400000.0 ; 3169959.711397556 ; 5.847208714922582E7 ; 0.0
211 ; 10385.85353377402 ; 400000.0 ; 3180492.667843455 ; 5.887208714922582E7 ; 0.0
212 ; 10509.933139605188 ; 400000.0 ; 3190878.521377229 ; 5.927208714922582E7 ; 0.0
213 ; 10645.786869205958 ; 400000.0 ; 3201388.454516834 ; 5.967208714922582E7 ; 0.0
214 ; 10505.888716473242 ; 400000.0 ; 3212034.24138604 ; 6.007208714922582E7 ; 0.0
215 ; 10628.177930850334 ; 400000.0 ; 3222540.1301025134 ; 6.047208714922582E7 ; 0.0
