CSV File for the City 3 on Day 202
1 - Minute m 
2 - Power Consumed at minute m 
3 - Power Produced at minute m 
4 - Energy Consumed since the beginning of the day 
5 - Energy Produced since the beginning of the day 
6 - Energy Lost since the beginning of the day on lines starting from the city
 
0 ; 3952.637582912059 ; 57088.97776561264 ; 0.0 ; 0.0 ; 0.0
1 ; 4498.865036734548 ; 56680.13211587906 ; 3952.637582912059 ; 57088.97776561264 ; 0.0
2 ; 4915.016252338623 ; 56311.72230543898 ; 8451.502619646606 ; 113769.10988149169 ; 0.0
3 ; 5386.6107666224925 ; 55984.57492378974 ; 13366.51887198523 ; 170080.83218693067 ; 0.0
4 ; 5803.365361200984 ; 55699.44214755999 ; 18753.129638607723 ; 226065.4071107204 ; 0.0
5 ; 6260.414040939319 ; 55456.99390125264 ; 24556.494999808707 ; 281764.8492582804 ; 0.0
6 ; 6679.156247989902 ; 55257.81060413743 ; 30816.909040748025 ; 337221.84315953305 ; 0.0
7 ; 7196.809954632161 ; 55102.376677717635 ; 37496.065288737926 ; 392479.6537636705 ; 0.0
8 ; 7576.500015659999 ; 54991.07497764193 ; 44692.87524337009 ; 447582.03044138814 ; 0.0
9 ; 7978.522333376022 ; 54924.18229624907 ; 52269.37525903009 ; 502573.10541903006 ; 0.0
10 ; 8494.232289232083 ; 54901.86605755132 ; 60247.89759240611 ; 557497.2877152791 ; 0.0
11 ; 8799.232722334364 ; 54924.18229624907 ; 68742.12988163819 ; 612399.1537728305 ; 0.0
12 ; 9241.41646087312 ; 54991.07497764193 ; 77541.36260397255 ; 667323.3360690796 ; 0.0
13 ; 9598.792354004368 ; 55102.376677717635 ; 86782.77906484567 ; 722314.4110467215 ; 0.0
14 ; 10122.350882354911 ; 55257.81060413735 ; 96381.57141885004 ; 777416.7877244392 ; 0.0
15 ; 10591.644446892044 ; 55456.99390125264 ; 106503.92230120495 ; 832674.5983285765 ; 0.0
16 ; 10895.882153222827 ; 55699.44214755999 ; 117095.56674809699 ; 888131.5922298292 ; 0.0
17 ; 11188.570820418205 ; 55984.57492378967 ; 127991.44890131982 ; 943831.0343773891 ; 0.0
18 ; 11728.205703264965 ; 56311.72230543906 ; 139180.01972173803 ; 999815.6093011788 ; 0.0
19 ; 12082.384136125607 ; 56680.13211587898 ; 150908.225425003 ; 1056127.331606618 ; 0.0
20 ; 12204.36802101405 ; 57088.97776561271 ; 162990.60956112863 ; 1112807.4637224968 ; 0.0
21 ; 12728.430880866517 ; 57537.36649978557 ; 175194.9775821427 ; 1169896.4414881095 ; 0.0
22 ; 12941.97181644005 ; 58024.347879185436 ; 187923.4084630092 ; 1227433.807987895 ; 0.0
23 ; 13413.813434569996 ; 58548.92232892851 ; 200865.38027944925 ; 1285458.1558670804 ; 0.0
24 ; 13665.087280990983 ; 59110.0496027571 ; 214279.19371401926 ; 1344007.078196009 ; 0.0
25 ; 13988.377059747234 ; 59706.65702821053 ; 227944.28099501025 ; 1403117.1277987661 ; 0.0
26 ; 14275.657609799731 ; 60337.64741764994 ; 241932.65805475748 ; 1462823.7848269767 ; 0.0
27 ; 14658.020360456225 ; 61001.90655106588 ; 256208.31566455722 ; 1523161.4322446266 ; 0.0
28 ; 14980.684416655748 ; 61698.31015772022 ; 270866.3360250134 ; 1584163.3387956924 ; 0.0
29 ; 15479.289639044777 ; 62425.73034409686 ; 285847.02044166916 ; 1645861.6489534127 ; 0.0
30 ; 15740.226898959589 ; 63183.041434656676 ; 301326.31008071394 ; 1708287.3792975096 ; 0.0
31 ; 15810.008804298184 ; 63969.12520901403 ; 317066.53697967355 ; 1771470.4207321662 ; 0.0
32 ; 16113.64410253177 ; 64782.87553406093 ; 332876.5457839717 ; 1835439.54594118 ; 0.0
33 ; 16585.60872232674 ; 65623.2024020985 ; 348990.1898865035 ; 1900222.421475241 ; 0.0
34 ; 16846.560464420552 ; 66489.0353961958 ; 365575.79860883026 ; 1965845.6238773395 ; 0.0
35 ; 17008.072865923696 ; 67379.32661186115 ; 382422.3590732508 ; 2032334.6592735352 ; 0.0
36 ; 17346.606185885244 ; 68293.05306986278 ; 399430.4319391745 ; 2099713.9858853966 ; 0.0
37 ; 17569.96047969328 ; 69229.2186588982 ; 416777.03812505974 ; 2168007.0389552596 ; 0.0
38 ; 17812.052001509415 ; 70186.85564903296 ; 434346.998604753 ; 2237236.2576141576 ; 0.0
39 ; 18079.741339084652 ; 71165.0258176756 ; 452159.0506062624 ; 2307423.1132631907 ; 0.0
40 ; 18339.857553637245 ; 72162.82122957973 ; 470238.79194534704 ; 2378588.1390808662 ; 0.0
41 ; 18576.848629569482 ; 73179.36471121009 ; 488578.6494989843 ; 2450750.960310446 ; 0.0
42 ; 18808.827606556715 ; 74213.81005798656 ; 507155.49812855374 ; 2523930.325021656 ; 0.0
43 ; 19124.583267257312 ; 75265.34201063142 ; 525964.3257351104 ; 2598144.1350796428 ; 0.0
44 ; 19363.32563705591 ; 76333.17603423627 ; 545088.9090023678 ; 2673409.477090274 ; 0.0
45 ; 19573.174250622047 ; 77416.55793088961 ; 564452.2346394237 ; 2749742.6531245103 ; 0.0
46 ; 19589.171865236058 ; 78514.76331385478 ; 584025.4088900457 ; 2827159.2110554 ; 0.0
47 ; 19892.94383243441 ; 79627.0969684613 ; 603614.5807552817 ; 2905673.9743692544 ; 0.0
48 ; 20154.747238914555 ; 80752.89212212189 ; 623507.5245877161 ; 2985301.0713377157 ; 0.0
49 ; 20150.94103523153 ; 81891.5096432723 ; 643662.2718266307 ; 3066053.9634598377 ; 0.0
50 ; 20538.66010495089 ; 83042.33718657275 ; 663813.2128618623 ; 3147945.47310311 ; 0.0
51 ; 20640.239613981354 ; 84204.788299431 ; 684351.8729668132 ; 3230987.810289683 ; 0.0
52 ; 20826.331839323586 ; 85378.30150282606 ; 704992.1125807945 ; 3315192.598589114 ; 0.0
53 ; 21124.64945051787 ; 86562.33935751487 ; 725818.4444201181 ; 3400570.90009194 ; 0.0
54 ; 21170.928196253277 ; 87756.38752500675 ; 746943.093870636 ; 3487133.239449455 ; 0.0
55 ; 21261.975455713426 ; 88959.95383117022 ; 768114.0220668892 ; 3574889.6269744616 ; 0.0
56 ; 21302.23135958595 ; 90172.56733899486 ; 789375.9975226027 ; 3663849.580805632 ; 0.0
57 ; 21557.23167899408 ; 91393.77743584705 ; 810678.2288821887 ; 3754022.1481446265 ; 0.0
58 ; 21788.15517449422 ; 92623.15293952668 ; 832235.4605611828 ; 3845415.9255804736 ; 0.0
59 ; 21959.673290436145 ; 93860.2812265355 ; 854023.6157356771 ; 3938039.0785200004 ; 0.0
60 ; 22038.176768921767 ; 95104.76738519315 ; 875983.2890261132 ; 4031899.359746536 ; 0.0
61 ; 22206.565818050774 ; 96356.23339557475 ; 898021.465795035 ; 4127004.127131729 ; 0.0
62 ; 22283.478116444563 ; 97614.31733767795 ; 920228.0316130858 ; 4223360.360527304 ; 0.0
63 ; 22353.784313326767 ; 98878.67262875047 ; 942511.5097295303 ; 4320974.677864982 ; 0.0
64 ; 22506.37560301567 ; 100148.96729030651 ; 964865.2940428571 ; 4419853.350493732 ; 0.0
65 ; 22696.020090751892 ; 101424.88324502732 ; 987371.6696458728 ; 4520002.317784038 ; 0.0
66 ; 22803.353060975296 ; 102706.11564346409 ; 1010067.6897366247 ; 4621427.201029066 ; 0.0
67 ; 22869.960276746646 ; 103992.37222023541 ; 1032871.0427976 ; 4724133.31667253 ; 0.0
68 ; 22952.925319640646 ; 105283.37267923247 ; 1055741.0030743466 ; 4828125.688892765 ; 0.0
69 ; 22810.47081768396 ; 106578.84810719482 ; 1078693.9283939872 ; 4933409.061571998 ; 0.0
70 ; 22982.396708754903 ; 107878.54041491382 ; 1101504.3992116712 ; 5039987.909679192 ; 0.0
71 ; 23039.011111149586 ; 109182.20180522936 ; 1124486.795920426 ; 5147866.450094106 ; 0.0
72 ; 23164.125450803695 ; 110489.59426692563 ; 1147525.8070315756 ; 5257048.651899335 ; 0.0
73 ; 23257.47475068455 ; 111800.48909358913 ; 1170689.9324823793 ; 5367538.246166261 ; 0.0
74 ; 23184.475022386825 ; 113114.66642646096 ; 1193947.4072330638 ; 5479338.73525985 ; 0.0
75 ; 23372.403275786965 ; 114431.91482030589 ; 1217131.8822554506 ; 5592453.401686311 ; 0.0
76 ; 23371.57277739612 ; 115752.03083131449 ; 1240504.2855312375 ; 5706885.316506617 ; 0.0
77 ; 23487.85748316287 ; 117074.81862606146 ; 1263875.8583086336 ; 5822637.347337931 ; 0.0
78 ; 23517.681857303232 ; 118400.08961055739 ; 1287363.7157917963 ; 5939712.1659639925 ; 0.0
79 ; 23484.73362817366 ; 119727.66207844691 ; 1310881.3976490996 ; 6058112.25557455 ; 0.0
80 ; 23599.33216614426 ; 121057.36087743439 ; 1334366.1312772732 ; 6177839.917652996 ; 0.0
81 ; 23430.341025589085 ; 122389.01709303934 ; 1357965.4634434173 ; 6298897.278530431 ; 0.0
82 ; 23436.64002022269 ; 123722.46774881752 ; 1381395.8044690064 ; 6421286.29562347 ; 0.0
83 ; 23553.340508503403 ; 125057.55552221285 ; 1404832.444489229 ; 6545008.763372287 ; 0.0
84 ; 23256.03501183575 ; 126394.12847523655 ; 1428385.7849977324 ; 6670066.3188945 ; 0.0
85 ; 23433.272833984633 ; 127732.03979920509 ; 1451641.8200095682 ; 6796460.447369737 ; 0.0
86 ; 23348.237708463443 ; 129071.14757279969 ; 1475075.0928435528 ; 6924192.487168942 ; 0.0
87 ; 23492.408405577968 ; 130411.31453274413 ; 1498423.3305520162 ; 7053263.634741741 ; 0.0
88 ; 23298.436069842057 ; 131752.4078564297 ; 1521915.7389575941 ; 7183674.949274485 ; 0.0
89 ; 23459.157685794842 ; 133094.29895584937 ; 1545214.175027436 ; 7315427.357130915 ; 0.0
90 ; 23309.652465664756 ; 134436.86328223272 ; 1568673.332713231 ; 7448521.656086764 ; 0.0
91 ; 23239.743987520924 ; 135779.98014080533 ; 1591982.9851788958 ; 7582958.519368997 ; 0.0
92 ; 23143.343370773917 ; 137123.53251512517 ; 1615222.7291664167 ; 7718738.499509802 ; 0.0
93 ; 23015.567463248255 ; 138467.40690047626 ; 1638366.0725371905 ; 7855862.032024927 ; 0.0
94 ; 23125.031360109802 ; 139811.4931458288 ; 1661381.6400004388 ; 7994329.438925404 ; 0.0
95 ; 23127.127773725497 ; 141155.68430389932 ; 1684506.6713605486 ; 8134140.932071233 ; 0.0
96 ; 23054.156147597154 ; 142499.8764888706 ; 1707633.799134274 ; 8275296.616375132 ; 0.0
97 ; 22856.17808177638 ; 143843.9687413552 ; 1730687.9552818711 ; 8417796.492864003 ; 0.0
98 ; 22795.86029145199 ; 145187.86290020787 ; 1753544.1333636476 ; 8561640.461605359 ; 0.0
99 ; 22672.77327458387 ; 146531.46348081552 ; 1776339.9936550995 ; 8706828.324505568 ; 0.0
100 ; 22663.95031485146 ; 147874.67755951284 ; 1799012.7669296835 ; 8853359.787986383 ; 0.0
101 ; 22526.67359739689 ; 149217.41466379154 ; 1821676.717244535 ; 9001234.465545896 ; 0.0
102 ; 22306.41275469123 ; 150559.5866679898 ; 1844203.3908419318 ; 9150451.880209688 ; 0.0
103 ; 22166.769480398823 ; 151901.10769416604 ; 1866509.803596623 ; 9301011.466877678 ; 0.0
104 ; 22082.972632093202 ; 153241.8940178778 ; 1888676.5730770219 ; 9452912.574571844 ; 0.0
105 ; 22030.231520518366 ; 154581.8639786018 ; 1910759.545709115 ; 9606154.468589721 ; 0.0
106 ; 21793.068967220708 ; 155920.93789454663 ; 1932789.7772296334 ; 9760736.332568323 ; 0.0
107 ; 21706.228137090442 ; 157259.03798162364 ; 1954582.846196854 ; 9916657.27046287 ; 0.0
108 ; 21627.801172891785 ; 158596.0882763536 ; 1976289.0743339444 ; 1.0073916308444494E7 ; 0.0
109 ; 21446.00145402155 ; 159932.01456250116 ; 1997916.8755068362 ; 1.0232512396720847E7 ; 0.0
110 ; 21320.836557396455 ; 161266.7443012388 ; 2019362.8769608578 ; 1.0392444411283348E7 ; 0.0
111 ; 20977.569867861865 ; 162600.20656465527 ; 2040683.7135182542 ; 1.0553711155584587E7 ; 0.0
112 ; 20816.632540573235 ; 163932.33197243157 ; 2061661.2833861161 ; 1.0716311362149242E7 ; 0.0
113 ; 20710.580865658394 ; 165263.05263151965 ; 2082477.9159266893 ; 1.0880243694121674E7 ; 0.0
114 ; 20567.23901129751 ; 166592.30207866654 ; 2103188.4967923476 ; 1.1045506746753193E7 ; 0.0
115 ; 20422.798373023612 ; 167920.01522563663 ; 2123755.735803645 ; 1.121209904883186E7 ; 0.0
116 ; 20169.731793570147 ; 169246.12830699258 ; 2144178.5341766686 ; 1.1380019064057495E7 ; 0.0
117 ; 19905.387346456926 ; 170570.5788303025 ; 2164348.265970239 ; 1.1549265192364488E7 ; 0.0
118 ; 19740.266377693966 ; 171893.30552864965 ; 2184253.6533166957 ; 1.171983577119479E7 ; 0.0
119 ; 19521.389643457667 ; 173214.24831532684 ; 2203993.9196943897 ; 1.189172907672344E7 ; 0.0
120 ; 19481.312143450123 ; 174533.34824060425 ; 2223515.3093378474 ; 1.2064943325038766E7 ; 0.0
121 ; 19179.62835624753 ; 175850.54745046608 ; 2242996.6214812975 ; 1.2239476673279371E7 ; 0.0
122 ; 18975.59183334268 ; 177165.78914721694 ; 2262176.249837545 ; 1.2415327220729837E7 ; 0.0
123 ; 18826.82200784181 ; 178479.01755186365 ; 2281151.841670888 ; 1.2592493009877054E7 ; 0.0
124 ; 18511.499560711884 ; 179790.17786818443 ; 2299978.66367873 ; 1.2770972027428918E7 ; 0.0
125 ; 18141.77766543101 ; 181099.2162484015 ; 2318490.163239442 ; 1.2950762205297101E7 ; 0.0
126 ; 17903.00182472197 ; 182406.07976037756 ; 2336631.940904873 ; 1.3131861421545504E7 ; 0.0
127 ; 17627.78889843847 ; 183710.71635626155 ; 2354534.942729595 ; 1.3314267501305882E7 ; 0.0
128 ; 17414.58097587885 ; 185013.07484251243 ; 2372162.731628034 ; 1.3497978217662143E7 ; 0.0
129 ; 17342.081694724515 ; 186313.10485123418 ; 2389577.312603913 ; 1.3682991292504655E7 ; 0.0
130 ; 16685.025380350202 ; 187610.75681275764 ; 2406919.3942986373 ; 1.386930439735589E7 ; 0.0
131 ; 16559.403641097702 ; 188905.98192941034 ; 2423604.4196789875 ; 1.4056915154168647E7 ; 0.0
132 ; 16352.435324993128 ; 190198.73215041574 ; 2440163.823320085 ; 1.4245821136098057E7 ; 0.0
133 ; 16059.639748293754 ; 191488.96014786954 ; 2456516.258645078 ; 1.4436019868248472E7 ; 0.0
134 ; 15791.107821902795 ; 192776.61929374 ; 2472575.898393372 ; 1.462750882839634E7 ; 0.0
135 ; 15512.67061570558 ; 194061.66363784566 ; 2488367.006215275 ; 1.482028544769008E7 ; 0.0
136 ; 15214.902824000746 ; 195344.04788676326 ; 2503879.6768309805 ; 1.5014347111327926E7 ; 0.0
137 ; 14877.604200830296 ; 196623.72738362235 ; 2519094.5796549814 ; 1.5209691159214688E7 ; 0.0
138 ; 14492.870492288563 ; 197900.65808874616 ; 2533972.1838558116 ; 1.5406314886598311E7 ; 0.0
139 ; 14237.571941834725 ; 199174.7965610984 ; 2548465.0543481 ; 1.5604215544687057E7 ; 0.0
140 ; 13904.384704099533 ; 200446.09994049938 ; 2562702.626289935 ; 1.5803390341248155E7 ; 0.0
141 ; 13480.42641200522 ; 201714.52593057603 ; 2576607.0109940344 ; 1.6003836441188654E7 ; 0.0
142 ; 13257.077979640753 ; 202980.03278241213 ; 2590087.43740604 ; 1.620555096711923E7 ; 0.0
143 ; 12901.519568983955 ; 204242.57927886766 ; 2603344.5153856804 ; 1.6408530999901641E7 ; 0.0
144 ; 12493.650177437105 ; 205502.1247195354 ; 2616246.0349546643 ; 1.6612773579180509E7 ; 0.0
145 ; 12443.509526637146 ; 206758.628906308 ; 2628739.685132101 ; 1.6818275703900043E7 ; 0.0
146 ; 12271.81715542268 ; 208012.05212952697 ; 2641183.194658738 ; 1.7025034332806353E7 ; 0.0
147 ; 12182.675597500434 ; 209262.3551546876 ; 2653455.0118141607 ; 1.723304638493588E7 ; 0.0
148 ; 12350.675500544203 ; 210509.4992096765 ; 2665637.6874116613 ; 1.7442308740090568E7 ; 0.0
149 ; 12005.420509227728 ; 211753.44597251638 ; 2677988.3629122055 ; 1.7652818239300244E7 ; 0.0
150 ; 11781.774347496685 ; 212994.1575595971 ; 2689993.783421433 ; 1.786457168527276E7 ; 0.0
151 ; 11867.891367817909 ; 214231.59651437154 ; 2701775.5577689297 ; 1.8077565842832357E7 ; 0.0
152 ; 11768.24240353166 ; 215465.7257964959 ; 2713643.4491367475 ; 1.8291797439346727E7 ; 0.0
153 ; 11787.205148385054 ; 216696.5087713946 ; 2725411.691540279 ; 1.850726316514322E7 ; 0.0
154 ; 11644.940473404793 ; 217923.9092002334 ; 2737198.896688664 ; 1.8723959673914615E7 ; 0.0
155 ; 11303.203038094274 ; 219147.8912302808 ; 2748843.8371620686 ; 1.8941883583114848E7 ; 0.0
156 ; 11233.1920492801 ; 220368.4193856431 ; 2760147.0402001627 ; 1.916103147434513E7 ; 0.0
157 ; 11226.261959664474 ; 221585.4585583562 ; 2771380.232249443 ; 1.938139989373077E7 ; 0.0
158 ; 10946.017786637309 ; 222798.9739998197 ; 2782606.4942091075 ; 1.9602985352289125E7 ; 0.0
159 ; 11102.412214872937 ; 224008.93131255856 ; 2793552.511995745 ; 1.9825784326288946E7 ; 0.0
160 ; 10662.66859809846 ; 225215.29644229866 ; 2804654.924210618 ; 2.0049793257601503E7 ; 0.0
161 ; 10690.495446621584 ; 226418.03567034318 ; 2815317.5928087165 ; 2.0275008554043803E7 ; 0.0
162 ; 10585.139103859367 ; 227617.11560623778 ; 2826008.088255338 ; 2.0501426589714147E7 ; 0.0
163 ; 10293.165636207936 ; 228812.50318071217 ; 2836593.227359197 ; 2.0729043705320384E7 ; 0.0
164 ; 10312.705012404176 ; 230004.16563888662 ; 2846886.392995405 ; 2.0957856208501097E7 ; 0.0
165 ; 10047.017789900108 ; 231192.0705337334 ; 2857199.0980078094 ; 2.1187860374139983E7 ; 0.0
166 ; 9867.998516298165 ; 232376.1857197819 ; 2867246.1157977097 ; 2.1419052444673717E7 ; 0.0
167 ; 9790.209724459353 ; 233556.47934705802 ; 2877114.114314008 ; 2.1651428630393498E7 ; 0.0
168 ; 9710.111960164882 ; 234732.91985524853 ; 2886904.3240384674 ; 2.1884985109740555E7 ; 0.0
169 ; 9692.02386869972 ; 235905.4759680808 ; 2896614.435998632 ; 2.2119718029595803E7 ; 0.0
170 ; 9413.100986467654 ; 237074.11668791002 ; 2906306.4598673317 ; 2.2355623505563885E7 ; 0.0
171 ; 9187.110508123518 ; 238238.8112905054 ; 2915719.5608537993 ; 2.2592697622251794E7 ; 0.0
172 ; 9060.003729533184 ; 239399.52932002716 ; 2924906.6713619228 ; 2.28309364335423E7 ; 0.0
173 ; 9127.943915305179 ; 240556.24058418715 ; 2933966.675091456 ; 2.3070335962862328E7 ; 0.0
174 ; 8967.782473199179 ; 241708.915149586 ; 2943094.6190067613 ; 2.3310892203446515E7 ; 0.0
175 ; 8996.845631947304 ; 242857.52333721987 ; 2952062.4014799604 ; 2.35526011185961E7 ; 0.0
176 ; 9088.09259001712 ; 244002.0357181494 ; 2961059.2471119077 ; 2.379545864193332E7 ; 0.0
177 ; 8995.05532914403 ; 245142.42310932616 ; 2970147.339701925 ; 2.403946067765147E7 ; 0.0
178 ; 9014.54620843029 ; 246278.65656956926 ; 2979142.395031069 ; 2.4284603100760795E7 ; 0.0
179 ; 9258.928697118154 ; 247410.70739568674 ; 2988156.941239499 ; 2.4530881757330365E7 ; 0.0
180 ; 9181.55035763256 ; 248538.54711873646 ; 2997415.869936617 ; 2.4778292464726053E7 ; 0.0
181 ; 9333.745832243683 ; 249662.1475004206 ; 3006597.4202942494 ; 2.502683101184479E7 ; 0.0
182 ; 9412.411190722894 ; 250781.48052960957 ; 3015931.166126493 ; 2.5276493159345213E7 ; 0.0
183 ; 9138.042304972292 ; 251896.51841898984 ; 3025343.577317216 ; 2.5527274639874823E7 ; 0.0
184 ; 9336.086367348385 ; 253007.23360183078 ; 3034481.619622188 ; 2.5779171158293813E7 ; 0.0
185 ; 9323.770228343657 ; 254113.59872886722 ; 3043817.7059895364 ; 2.6032178391895644E7 ; 0.0
186 ; 9365.757260042052 ; 255215.58666529195 ; 3053141.47621788 ; 2.628629199062451E7 ; 0.0
187 ; 9315.861938745424 ; 256313.17048785518 ; 3062507.233477922 ; 2.65415075772898E7 ; 0.0
188 ; 9463.617085610442 ; 257406.32348206677 ; 3071823.0954166674 ; 2.6797820747777656E7 ; 0.0
189 ; 9517.072153968344 ; 258495.0191394967 ; 3081286.712502278 ; 2.7055227071259722E7 ; 0.0
190 ; 9371.37384468659 ; 259579.23115517173 ; 3090803.784656246 ; 2.731372209039922E7 ; 0.0
191 ; 9484.956456980724 ; 260658.9334250629 ; 3100175.1585009326 ; 2.7573301321554393E7 ; 0.0
192 ; 9623.919226568636 ; 261734.1000436622 ; 3109660.1149579133 ; 2.7833960254979454E7 ; 0.0
193 ; 9522.588948900975 ; 262804.70530164376 ; 3119284.034184482 ; 2.8095694355023116E7 ; 0.0
194 ; 9697.0060575823 ; 263870.723683608 ; 3128806.6231333828 ; 2.835849906032476E7 ; 0.0
195 ; 9587.45731049382 ; 264932.1298659043 ; 3138503.629190965 ; 2.8622369784008365E7 ; 0.0
196 ; 9577.625913715448 ; 265988.89871453046 ; 3148091.086501459 ; 2.888730191387427E7 ; 0.0
197 ; 9565.203094381905 ; 267041.00528310565 ; 3157668.7124151746 ; 2.91532908125888E7 ; 0.0
198 ; 9610.737620658781 ; 268088.4248109142 ; 3167233.9155095564 ; 2.9420331817871906E7 ; 0.0
199 ; 9741.248609174956 ; 269131.13272101834 ; 3176844.653130215 ; 2.968842024268282E7 ; 0.0
200 ; 9875.249567144278 ; 270169.10461843666 ; 3186585.90173939 ; 2.9957551375403836E7 ; 0.0
201 ; 9943.378487504357 ; 271202.3162883865 ; 3196461.151306534 ; 3.0227720480022274E7 ; 0.0
202 ; 9821.455205863007 ; 272230.7436945877 ; 3206404.5297940387 ; 3.049892279631066E7 ; 0.0
203 ; 9905.419660793805 ; 273254.36297762615 ; 3216225.9849999016 ; 3.0771153540005248E7 ; 0.0
204 ; 9915.711851034137 ; 274273.1504533739 ; 3226131.404660695 ; 3.1044407902982876E7 ; 0.0
205 ; 10018.02408639741 ; 275287.0826114655 ; 3236047.1165117295 ; 3.131868105343625E7 ; 0.0
206 ; 10122.713572859157 ; 276296.1361138269 ; 3246065.140598127 ; 3.1593968136047713E7 ; 0.0
207 ; 9896.257970603194 ; 277300.28779325634 ; 3256187.8541709865 ; 3.187026427216154E7 ; 0.0
208 ; 9941.269233372257 ; 278299.5146520554 ; 3266084.1121415896 ; 3.2147564559954796E7 ; 0.0
209 ; 10004.900741131723 ; 279293.793860707 ; 3276025.3813749617 ; 3.242586407460685E7 ; 0.0
210 ; 10180.517641023474 ; 280283.102756601 ; 3286030.282116093 ; 3.270515786846756E7 ; 0.0
211 ; 10159.329759180475 ; 281267.41884280415 ; 3296210.7997571165 ; 3.298544097122416E7 ; 0.0
212 ; 10230.539546836426 ; 282246.71978687297 ; 3306370.129516297 ; 3.3266708390066963E7 ; 0.0
