CSV File for the City 1 on Day 122
1 - Minute m 
2 - Power Consumed at minute m 
3 - Power Produced at minute m 
4 - Energy Consumed since the beginning of the day 
5 - Energy Produced since the beginning of the day 
6 - Energy Lost since the beginning of the day on lines starting from the city
 
0 ; 11369.34162833978 ; 18473.362758872932 ; 0.0 ; 0.0 ; 0.0
1 ; 11840.050035397646 ; 18473.362758872932 ; 11369.34162833978 ; 18473.362758872932 ; 238.00000000000003
2 ; 12156.147989494952 ; 18473.362758872932 ; 23209.391663737428 ; 36946.725517745865 ; 476.00000000000006
3 ; 12429.133349149415 ; 18473.362758872932 ; 35365.53965323238 ; 55420.0882766188 ; 714.0000000000001
4 ; 12848.11703624684 ; 18473.362758872932 ; 47794.673002381795 ; 73893.45103549173 ; 952.0000000000001
5 ; 13130.867262405982 ; 18473.362758872932 ; 60642.790038628635 ; 92366.81379436466 ; 1190.0000000000002
6 ; 13585.970690795559 ; 18473.362758872932 ; 73773.65730103462 ; 110840.17655323759 ; 1428.0000000000002
7 ; 14019.078427638195 ; 18473.362758872932 ; 87359.62799183017 ; 129313.53931211052 ; 1666.0000000000002
8 ; 14371.099390668956 ; 18473.362758872932 ; 101378.70641946836 ; 147786.90207098346 ; 1904.0000000000002
9 ; 14691.778900922398 ; 18473.362758872932 ; 115749.80581013732 ; 166260.2648298564 ; 2142.0000000000005
10 ; 15053.485001405737 ; 18473.362758872932 ; 130441.58471105971 ; 184733.62758872935 ; 2380.0000000000005
11 ; 15388.454996549794 ; 18473.362758872932 ; 145495.06971246545 ; 203206.9903476023 ; 2618.0000000000005
12 ; 15713.568391628873 ; 18473.362758872932 ; 160883.52470901524 ; 221680.35310647523 ; 2856.0000000000005
13 ; 16026.434985003056 ; 18473.362758872932 ; 176597.09310064412 ; 240153.71586534817 ; 3094.0000000000005
14 ; 16317.10537221971 ; 18473.362758872932 ; 192623.52808564718 ; 258627.07862422112 ; 3332.0000000000005
15 ; 16812.016741909378 ; 18473.362758872932 ; 208940.6334578669 ; 277100.44138309406 ; 3570.0000000000005
16 ; 17023.175866874957 ; 18473.362758872932 ; 225752.65019977628 ; 295573.804141967 ; 3808.0000000000005
17 ; 17251.149191880726 ; 18473.362758872932 ; 242775.82606665124 ; 314047.1669008399 ; 4046.0000000000005
18 ; 17605.141388132703 ; 18473.362758872932 ; 260026.97525853195 ; 332520.5296597128 ; 4284.000000000001
19 ; 18018.973955305548 ; 18473.362758872932 ; 277632.1166466647 ; 350993.8924185857 ; 4522.000000000001
20 ; 18210.287946640605 ; 18473.362758872932 ; 295651.0906019702 ; 369467.25517745863 ; 4760.000000000001
21 ; 18526.730949567027 ; 18473.362758872932 ; 313861.37854861084 ; 387940.61793633155 ; 4998.000000000001
22 ; 18464.29205578282 ; 18473.362758872932 ; 332388.1094981779 ; 406413.98069520446 ; 5236.000000000001
23 ; 18946.796745994525 ; 18473.362758872932 ; 350852.4015539607 ; 424887.3434540774 ; 5474.000000000001
24 ; 19281.996539328225 ; 18473.362758872932 ; 369799.1982999552 ; 443360.7062129503 ; 5712.000000000001
25 ; 19568.93033973843 ; 18473.362758872932 ; 389081.1948392835 ; 461834.0689718232 ; 5950.000000000001
26 ; 19628.614475415685 ; 18473.362758872932 ; 408650.1251790219 ; 480307.4317306961 ; 6188.000000000001
27 ; 19901.21692153178 ; 18473.362758872932 ; 428278.7396544376 ; 498780.79448956903 ; 6426.000000000001
28 ; 20463.466284520775 ; 18473.362758872932 ; 448179.95657596935 ; 517254.15724844194 ; 6664.000000000001
29 ; 20513.887756010652 ; 18473.362758872932 ; 468643.4228604901 ; 535727.5200073149 ; 6902.000000000001
30 ; 20935.487352956003 ; 18473.362758872932 ; 489157.31061650073 ; 554200.8827661878 ; 7140.000000000001
31 ; 21228.0371889561 ; 18473.362758872932 ; 510092.79796945676 ; 572674.2455250607 ; 7378.000000000001
32 ; 21032.379523669635 ; 18473.362758872932 ; 531320.8351584128 ; 591147.6082839336 ; 7616.000000000001
33 ; 21582.330321776237 ; 18473.362758872932 ; 552353.2146820824 ; 609620.9710428065 ; 7854.000000000001
34 ; 21651.693731620424 ; 18473.362758872932 ; 573935.5450038586 ; 628094.3338016794 ; 8092.000000000001
35 ; 21950.00492246274 ; 18473.362758872932 ; 595587.2387354791 ; 646567.6965605523 ; 8330.000000000002
36 ; 22168.08153932646 ; 18473.362758872932 ; 617537.2436579418 ; 665041.0593194253 ; 8568.000000000002
37 ; 22422.245682811143 ; 18473.362758872932 ; 639705.3251972683 ; 683514.4220782982 ; 8806.000000000002
38 ; 22450.31890474108 ; 18473.362758872932 ; 662127.5708800794 ; 701987.7848371711 ; 9044.000000000002
39 ; 22700.08228626841 ; 18473.362758872932 ; 684577.8897848205 ; 720461.147596044 ; 9282.000000000002
40 ; 22901.100244304544 ; 18473.362758872932 ; 707277.9720710889 ; 738934.5103549169 ; 9520.000000000002
41 ; 23047.779597975226 ; 18473.362758872932 ; 730179.0723153934 ; 757407.8731137898 ; 9758.000000000002
42 ; 23209.377295685546 ; 18473.362758872932 ; 753226.8519133686 ; 775881.2358726627 ; 9996.000000000002
43 ; 23556.149297159747 ; 18473.362758872932 ; 776436.2292090541 ; 794354.5986315357 ; 10234.000000000002
44 ; 23640.97337222548 ; 18473.362758872932 ; 799992.3785062139 ; 812827.9613904086 ; 10472.000000000002
45 ; 23700.78630715567 ; 18473.362758872932 ; 823633.3518784394 ; 831301.3241492815 ; 10710.000000000002
46 ; 23833.708626772375 ; 18473.362758872932 ; 847334.138185595 ; 849774.6869081544 ; 10948.000000000002
47 ; 23897.48453813395 ; 18473.362758872932 ; 871167.8468123674 ; 868248.0496670273 ; 11186.000000000002
48 ; 24164.367481218855 ; 18473.362758872932 ; 895065.3313505014 ; 886721.4124259002 ; 11424.000000000002
49 ; 24294.533759098187 ; 18473.362758872932 ; 919229.6988317203 ; 905194.7751847731 ; 11662.000000000002
50 ; 24443.038121536247 ; 18473.362758872932 ; 943524.2325908184 ; 923668.137943646 ; 11900.000000000002
51 ; 24631.78877894611 ; 18473.362758872932 ; 967967.2707123547 ; 942141.500702519 ; 12138.000000000002
52 ; 24617.957908026496 ; 18473.362758872932 ; 992599.0594913008 ; 960614.8634613919 ; 12376.000000000002
53 ; 24910.622045639873 ; 18473.362758872932 ; 1017217.0173993274 ; 979088.2262202648 ; 12614.000000000002
54 ; 24837.155207201675 ; 18473.362758872932 ; 1042127.6394449673 ; 997561.5889791377 ; 12852.000000000002
55 ; 25146.500129587625 ; 18473.362758872932 ; 1066964.7946521689 ; 1016034.9517380106 ; 13090.000000000002
56 ; 25271.87650777902 ; 18473.362758872932 ; 1092111.2947817566 ; 1034508.3144968835 ; 13328.000000000002
57 ; 25393.43995664993 ; 18473.362758872932 ; 1117383.1712895357 ; 1052981.6772557565 ; 13566.000000000002
58 ; 25288.36300159653 ; 18473.362758872932 ; 1142776.6112461856 ; 1071455.0400146295 ; 13804.000000000002
59 ; 25512.455876479282 ; 18473.362758872932 ; 1168064.974247782 ; 1089928.4027735025 ; 14042.000000000002
60 ; 25697.16972102991 ; 18473.362758872932 ; 1193577.4301242614 ; 1108401.7655323755 ; 14280.000000000002
61 ; 25751.223729693385 ; 18473.362758872932 ; 1219274.5998452913 ; 1126875.1282912486 ; 14518.000000000002
62 ; 25768.8033100303 ; 18473.362758872932 ; 1245025.8235749847 ; 1145348.4910501216 ; 14756.000000000002
63 ; 26165.68153902157 ; 18473.362758872932 ; 1270794.626885015 ; 1163821.8538089946 ; 14994.000000000002
64 ; 26086.074606045888 ; 18473.362758872932 ; 1296960.3084240367 ; 1182295.2165678677 ; 15232.000000000002
65 ; 26046.039724954844 ; 18473.362758872932 ; 1323046.3830300826 ; 1200768.5793267407 ; 15470.000000000002
66 ; 26228.94571988141 ; 18473.362758872932 ; 1349092.4227550374 ; 1219241.9420856137 ; 15708.000000000002
67 ; 26138.668392367894 ; 18473.362758872932 ; 1375321.3684749189 ; 1237715.3048444868 ; 15946.000000000002
68 ; 26164.97290121616 ; 18473.362758872932 ; 1401460.0368672868 ; 1256188.6676033598 ; 16184.000000000002
69 ; 26247.75426959175 ; 18473.362758872932 ; 1427625.009768503 ; 1274662.0303622328 ; 16422.000000000004
70 ; 26519.51325661803 ; 18473.362758872932 ; 1453872.7640380948 ; 1293135.3931211059 ; 16660.000000000004
71 ; 26486.898944030672 ; 18473.362758872932 ; 1480392.2772947128 ; 1311608.7558799789 ; 16898.000000000004
72 ; 26409.623386134575 ; 18473.362758872932 ; 1506879.1762387436 ; 1330082.118638852 ; 17136.000000000004
73 ; 26607.344178990992 ; 18473.362758872932 ; 1533288.7996248782 ; 1348555.481397725 ; 17374.000000000004
74 ; 26429.525326425137 ; 18473.362758872932 ; 1559896.1438038691 ; 1367028.844156598 ; 17612.000000000004
75 ; 26480.914385585784 ; 18473.362758872932 ; 1586325.6691302944 ; 1385502.206915471 ; 17850.000000000004
76 ; 26389.70003160918 ; 18473.362758872932 ; 1612806.5835158802 ; 1403975.569674344 ; 18088.000000000004
77 ; 26490.900028101245 ; 18473.362758872932 ; 1639196.2835474894 ; 1422448.932433217 ; 18326.000000000004
78 ; 26717.379500323023 ; 18473.362758872932 ; 1665687.1835755906 ; 1440922.29519209 ; 18564.000000000004
79 ; 26550.389406734655 ; 18473.362758872932 ; 1692404.5630759136 ; 1459395.6579509631 ; 18802.000000000004
80 ; 26532.278921591114 ; 18473.362758872932 ; 1718954.9524826482 ; 1477869.0207098362 ; 19040.000000000004
81 ; 26619.25161505277 ; 18473.362758872932 ; 1745487.2314042393 ; 1496342.3834687092 ; 19278.000000000004
82 ; 26501.17702926757 ; 18473.362758872932 ; 1772106.4830192921 ; 1514815.7462275822 ; 19516.000000000004
83 ; 26237.34142653494 ; 18473.362758872932 ; 1798607.6600485598 ; 1533289.1089864552 ; 19754.000000000004
84 ; 26560.21935170039 ; 18473.362758872932 ; 1824845.0014750948 ; 1551762.4717453283 ; 19992.000000000004
85 ; 26528.23727101369 ; 18473.362758872932 ; 1851405.2208267953 ; 1570235.8345042013 ; 20230.000000000004
86 ; 26403.73111443816 ; 18473.362758872932 ; 1877933.458097809 ; 1588709.1972630743 ; 20468.000000000004
87 ; 26407.818885823774 ; 18473.362758872932 ; 1904337.1892122473 ; 1607182.5600219474 ; 20706.000000000004
88 ; 26479.374804703868 ; 18473.362758872932 ; 1930745.008098071 ; 1625655.9227808204 ; 20944.000000000004
89 ; 26271.715168163424 ; 18473.362758872932 ; 1957224.382902775 ; 1644129.2855396934 ; 21182.000000000004
90 ; 26317.00605896082 ; 18473.362758872932 ; 1983496.0980709384 ; 1662602.6482985665 ; 21420.000000000004
91 ; 26209.173966762854 ; 18473.362758872932 ; 2009813.1041298993 ; 1681076.0110574395 ; 21658.000000000004
92 ; 25978.74736108803 ; 18473.362758872932 ; 2036022.2780966621 ; 1699549.3738163125 ; 21896.000000000004
93 ; 26066.886236950577 ; 18473.362758872932 ; 2062001.02545775 ; 1718022.7365751856 ; 22134.000000000004
94 ; 26050.13497916578 ; 18473.362758872932 ; 2088067.9116947006 ; 1736496.0993340586 ; 22372.000000000004
95 ; 26120.99280841843 ; 18473.362758872932 ; 2114118.0466738665 ; 1754969.4620929316 ; 22610.000000000004
96 ; 25923.564369766078 ; 18473.362758872932 ; 2140239.039482285 ; 1773442.8248518046 ; 22848.000000000004
97 ; 25927.262551918244 ; 18473.362758872932 ; 2166162.603852051 ; 1791916.1876106777 ; 23086.000000000004
98 ; 25699.872963522444 ; 18473.362758872932 ; 2192089.866403969 ; 1810389.5503695507 ; 23324.000000000004
99 ; 25539.199743910907 ; 18473.362758872932 ; 2217789.7393674916 ; 1828862.9131284237 ; 23562.000000000004
100 ; 25532.80920982253 ; 18473.362758872932 ; 2243328.9391114023 ; 1847336.2758872968 ; 23800.000000000004
101 ; 25468.15234447135 ; 18473.362758872932 ; 2268861.748321225 ; 1865809.6386461698 ; 24038.000000000004
102 ; 25476.739245669036 ; 18473.362758872932 ; 2294329.9006656962 ; 1884283.0014050428 ; 24276.000000000004
103 ; 25238.983258775534 ; 18473.362758872932 ; 2319806.639911365 ; 1902756.3641639159 ; 24514.000000000004
104 ; 25010.47826425361 ; 18473.362758872932 ; 2345045.6231701407 ; 1921229.726922789 ; 24752.000000000004
105 ; 24935.257724846622 ; 18473.362758872932 ; 2370056.1014343943 ; 1939703.089681662 ; 24990.000000000004
106 ; 24688.186161379916 ; 18473.362758872932 ; 2394991.359159241 ; 1958176.452440535 ; 25228.000000000004
107 ; 24597.509896702857 ; 18473.362758872932 ; 2419679.5453206208 ; 1976649.815199408 ; 25466.000000000004
108 ; 24692.264401887027 ; 18473.362758872932 ; 2444277.055217324 ; 1995123.177958281 ; 25704.000000000004
109 ; 24318.893372522132 ; 18473.362758872932 ; 2468969.319619211 ; 2013596.540717154 ; 25942.000000000004
110 ; 24201.904369213687 ; 18473.362758872932 ; 2493288.212991733 ; 2032069.903476027 ; 26180.000000000004
111 ; 24168.89845810798 ; 18473.362758872932 ; 2517490.1173609467 ; 2050543.2662349 ; 26418.000000000004
112 ; 24008.4825680817 ; 18473.362758872932 ; 2541659.0158190546 ; 2069016.6289937731 ; 26656.000000000004
113 ; 23639.434503244112 ; 18473.362758872932 ; 2565667.4983871365 ; 2087489.9917526462 ; 26894.000000000004
114 ; 23705.833056240408 ; 18473.362758872932 ; 2589306.9328903807 ; 2105963.354511519 ; 27132.000000000004
115 ; 23509.120487900786 ; 18473.362758872932 ; 2613012.765946621 ; 2124436.717270392 ; 27370.000000000004
116 ; 23323.35619603341 ; 18473.362758872932 ; 2636521.886434522 ; 2142910.080029265 ; 27608.000000000004
117 ; 23209.889624309722 ; 18473.362758872932 ; 2659845.2426305553 ; 2161383.442788138 ; 27846.000000000004
118 ; 23078.59062856005 ; 18473.362758872932 ; 2683055.132254865 ; 2179856.805547011 ; 28084.000000000004
119 ; 22900.37402629777 ; 18473.362758872932 ; 2706133.722883425 ; 2198330.168305884 ; 28322.000000000004
120 ; 22658.773488587023 ; 18473.362758872932 ; 2729034.096909723 ; 2216803.531064757 ; 28560.000000000004
121 ; 22464.468476493443 ; 18473.362758872932 ; 2751692.87039831 ; 2235276.89382363 ; 28798.000000000004
122 ; 21955.37545489539 ; 18473.362758872932 ; 2774157.3388748034 ; 2253750.256582503 ; 29036.000000000004
123 ; 21904.546345878152 ; 18473.362758872932 ; 2796112.7143296986 ; 2272223.6193413762 ; 29274.000000000004
124 ; 21676.800688727122 ; 18473.362758872932 ; 2818017.2606755765 ; 2290696.9821002493 ; 29512.000000000004
125 ; 21625.05276426387 ; 18473.362758872932 ; 2839694.061364304 ; 2309170.3448591223 ; 29750.000000000004
126 ; 21466.659527700976 ; 18473.362758872932 ; 2861319.1141285677 ; 2327643.7076179953 ; 29988.000000000004
127 ; 21123.637179522313 ; 18473.362758872932 ; 2882785.7736562686 ; 2346117.0703768684 ; 30226.000000000004
128 ; 20818.075125211213 ; 18473.362758872932 ; 2903909.410835791 ; 2364590.4331357414 ; 30464.000000000004
129 ; 20593.85579356287 ; 18473.362758872932 ; 2924727.4859610023 ; 2383063.7958946144 ; 30702.000000000004
130 ; 20425.037862767902 ; 18473.362758872932 ; 2945321.341754565 ; 2401537.1586534875 ; 30940.000000000004
131 ; 20091.47961975853 ; 18473.362758872932 ; 2965746.379617333 ; 2420010.5214123605 ; 31178.000000000004
132 ; 19669.527286966546 ; 18473.362758872932 ; 2985837.8592370916 ; 2438483.8841712335 ; 31416.000000000004
133 ; 19543.815327619704 ; 18473.362758872932 ; 3005507.386524058 ; 2456957.2469301065 ; 31654.000000000004
134 ; 19353.466045498648 ; 18473.362758872932 ; 3025051.2018516776 ; 2475430.6096889796 ; 31892.000000000004
135 ; 19140.195522050035 ; 18473.362758872932 ; 3044404.6678971765 ; 2493903.9724478526 ; 32130.000000000004
136 ; 19063.181522421866 ; 18473.362758872932 ; 3063544.8634192264 ; 2512377.3352067256 ; 32368.000000000004
137 ; 18695.71213552534 ; 18473.362758872932 ; 3082608.0449416484 ; 2530850.6979655987 ; 32606.000000000004
138 ; 18278.38391129699 ; 18473.362758872932 ; 3101303.757077174 ; 2549324.0607244717 ; 32844.00000000001
139 ; 17882.033139709616 ; 18473.362758872932 ; 3119582.140988471 ; 2567797.4234833447 ; 33082.00000000001
140 ; 17688.202435554085 ; 18473.362758872932 ; 3137464.1741281804 ; 2586270.7862422178 ; 33320.00000000001
141 ; 17386.070696678944 ; 18473.362758872932 ; 3155152.3765637344 ; 2604744.149001091 ; 33558.00000000001
142 ; 17263.12678706295 ; 18473.362758872932 ; 3172538.4472604133 ; 2623217.511759964 ; 33796.00000000001
143 ; 16970.613184493504 ; 18473.362758872932 ; 3189801.574047476 ; 2641690.874518837 ; 34034.00000000001
144 ; 16282.050107393467 ; 18473.362758872932 ; 3206772.1872319696 ; 2660164.23727771 ; 34272.00000000001
145 ; 16256.122045815642 ; 18473.362758872932 ; 3223054.237339363 ; 2678637.600036583 ; 34510.00000000001
146 ; 16487.12191816983 ; 18473.362758872932 ; 3239310.3593851784 ; 2697110.962795456 ; 34748.00000000001
147 ; 16316.83599788007 ; 18473.362758872932 ; 3255797.481303348 ; 2715584.325554329 ; 34986.00000000001
148 ; 16373.173445166412 ; 18473.362758872932 ; 3272114.317301228 ; 2734057.688313202 ; 35224.00000000001
149 ; 16061.990754966027 ; 18473.362758872932 ; 3288487.4907463947 ; 2752531.051072075 ; 35462.00000000001
150 ; 16016.08362557041 ; 18473.362758872932 ; 3304549.481501361 ; 2771004.413830948 ; 35700.00000000001
151 ; 15665.109218022328 ; 18473.362758872932 ; 3320565.5651269313 ; 2789477.776589821 ; 35938.00000000001
152 ; 15788.336450380613 ; 18473.362758872932 ; 3336230.6743449536 ; 2807951.139348694 ; 36176.00000000001
153 ; 15677.81229916958 ; 18473.362758872932 ; 3352019.0107953344 ; 2826424.502107567 ; 36414.00000000001
154 ; 15497.369540938607 ; 18473.362758872932 ; 3367696.823094504 ; 2844897.86486644 ; 36652.00000000001
155 ; 15478.006925656582 ; 18473.362758872932 ; 3383194.1926354426 ; 2863371.227625313 ; 36890.00000000001
156 ; 15276.32222648192 ; 18473.362758872932 ; 3398672.199561099 ; 2881844.5903841862 ; 37128.00000000001
157 ; 15148.675257587656 ; 18473.362758872932 ; 3413948.521787581 ; 2900317.9531430593 ; 37366.00000000001
158 ; 15001.180642371422 ; 18473.362758872932 ; 3429097.197045169 ; 2918791.3159019323 ; 37604.00000000001
159 ; 14961.546145621558 ; 18473.362758872932 ; 3444098.3776875404 ; 2937264.6786608053 ; 37842.00000000001
160 ; 14734.41138647419 ; 18473.362758872932 ; 3459059.923833162 ; 2955738.0414196784 ; 38080.00000000001
161 ; 14651.985456673658 ; 18473.362758872932 ; 3473794.335219636 ; 2974211.4041785514 ; 38318.00000000001
162 ; 14678.152544411048 ; 18473.362758872932 ; 3488446.3206763095 ; 2992684.7669374244 ; 38556.00000000001
163 ; 14417.24653853471 ; 18473.362758872932 ; 3503124.4732207204 ; 3011158.1296962975 ; 38794.00000000001
164 ; 14129.668979563676 ; 18473.362758872932 ; 3517541.719759255 ; 3029631.4924551705 ; 39032.00000000001
165 ; 14129.196063747142 ; 18473.362758872932 ; 3531671.388738819 ; 3048104.8552140435 ; 39270.00000000001
166 ; 14048.255489243878 ; 18473.362758872932 ; 3545800.584802566 ; 3066578.2179729166 ; 39508.00000000001
167 ; 13947.972445069392 ; 18473.362758872932 ; 3559848.8402918098 ; 3085051.5807317896 ; 39746.00000000001
168 ; 13599.913534411742 ; 18473.362758872932 ; 3573796.812736879 ; 3103524.9434906626 ; 39984.00000000001
169 ; 13521.989849353324 ; 18473.362758872932 ; 3587396.726271291 ; 3121998.3062495356 ; 40222.00000000001
170 ; 13495.718137379105 ; 18473.362758872932 ; 3600918.716120644 ; 3140471.6690084087 ; 40460.00000000001
171 ; 13277.511554314528 ; 18473.362758872932 ; 3614414.4342580233 ; 3158945.0317672817 ; 40698.00000000001
172 ; 13137.0919698149 ; 18473.362758872932 ; 3627691.945812338 ; 3177418.3945261547 ; 40936.00000000001
173 ; 13169.194707492374 ; 18473.362758872932 ; 3640829.037782153 ; 3195891.7572850278 ; 41174.00000000001
174 ; 13358.769990192934 ; 18473.362758872932 ; 3653998.2324896455 ; 3214365.120043901 ; 41412.00000000001
175 ; 13130.760135919169 ; 18473.362758872932 ; 3667357.002479838 ; 3232838.482802774 ; 41650.00000000001
176 ; 13193.353648329603 ; 18473.362758872932 ; 3680487.7626157575 ; 3251311.845561647 ; 41888.00000000001
177 ; 13190.219364371565 ; 18473.362758872932 ; 3693681.116264087 ; 3269785.20832052 ; 42126.00000000001
178 ; 13177.505131937889 ; 18473.362758872932 ; 3706871.3356284588 ; 3288258.571079393 ; 42364.00000000001
179 ; 13249.257037073916 ; 18473.362758872932 ; 3720048.840760397 ; 3306731.933838266 ; 42602.00000000001
180 ; 12992.117179110068 ; 18473.362758872932 ; 3733298.0977974706 ; 3325205.296597139 ; 42840.00000000001
181 ; 12972.552409140459 ; 18473.362758872932 ; 3746290.214976581 ; 3343678.659356012 ; 43078.00000000001
182 ; 13234.692305793873 ; 18473.362758872932 ; 3759262.767385721 ; 3362152.022114885 ; 43316.00000000001
183 ; 13278.086942600808 ; 18473.362758872932 ; 3772497.459691515 ; 3380625.384873758 ; 43554.00000000001
184 ; 13224.983105273051 ; 18473.362758872932 ; 3785775.546634116 ; 3399098.747632631 ; 43792.00000000001
