CSV File for the City 1 on Day 112
1 - Minute m 
2 - Power Consumed at minute m 
3 - Power Produced at minute m 
4 - Energy Consumed since the beginning of the day 
5 - Energy Produced since the beginning of the day 
6 - Energy Lost since the beginning of the day on lines starting from the city
 
0 ; 11193.808305961284 ; 23335.978729750244 ; 0.0 ; 0.0 ; 0.0
1 ; 11689.823074018452 ; 23335.978729750244 ; 11193.808305961284 ; 23335.978729750244 ; 238.00000000000003
2 ; 12032.117554122355 ; 23335.978729750244 ; 22883.631379979735 ; 46671.95745950049 ; 476.00000000000006
3 ; 12376.834813962665 ; 23335.978729750244 ; 34915.74893410209 ; 70007.93618925073 ; 714.0000000000001
4 ; 12602.524876418498 ; 23335.978729750244 ; 47292.58374806476 ; 93343.91491900098 ; 952.0000000000001
5 ; 12950.77757719759 ; 23335.978729750244 ; 59895.108624483255 ; 116679.89364875123 ; 1190.0000000000002
6 ; 13233.605545404176 ; 23335.978729750244 ; 72845.88620168084 ; 140015.87237850146 ; 1428.0000000000002
7 ; 13394.374629672457 ; 23335.978729750244 ; 86079.49174708502 ; 163351.8511082517 ; 1666.0000000000002
8 ; 13737.562532446618 ; 23335.978729750244 ; 99473.86637675748 ; 186687.82983800193 ; 1904.0000000000002
9 ; 14161.845864304543 ; 23335.978729750244 ; 113211.4289092041 ; 210023.80856775216 ; 2142.0000000000005
10 ; 14413.697372571387 ; 23335.978729750244 ; 127373.27477350865 ; 233359.7872975024 ; 2380.0000000000005
11 ; 14723.525086129906 ; 23335.978729750244 ; 141786.97214608002 ; 256695.76602725263 ; 2618.0000000000005
12 ; 15122.198845345423 ; 23335.978729750244 ; 156510.49723220992 ; 280031.74475700286 ; 2856.0000000000005
13 ; 15559.247322355068 ; 23335.978729750244 ; 171632.69607755533 ; 303367.7234867531 ; 3094.0000000000005
14 ; 15754.315203423621 ; 23335.978729750244 ; 187191.9433999104 ; 326703.7022165034 ; 3332.0000000000005
15 ; 16013.48006179194 ; 23335.978729750244 ; 202946.25860333402 ; 350039.68094625365 ; 3570.0000000000005
16 ; 16235.582278723596 ; 23335.978729750244 ; 218959.73866512597 ; 373375.6596760039 ; 3808.0000000000005
17 ; 16622.39622737167 ; 23335.978729750244 ; 235195.32094384957 ; 396711.6384057542 ; 4046.0000000000005
18 ; 16988.37613165547 ; 23335.978729750244 ; 251817.71717122124 ; 420047.61713550444 ; 4284.000000000001
19 ; 17260.370258719086 ; 23335.978729750244 ; 268806.0933028767 ; 443383.5958652547 ; 4522.000000000001
20 ; 17472.047020506707 ; 23335.978729750244 ; 286066.46356159577 ; 466719.57459500496 ; 4760.000000000001
21 ; 17654.40073433365 ; 23335.978729750244 ; 303538.51058210246 ; 490055.5533247552 ; 4998.000000000001
22 ; 18099.077842843493 ; 23335.978729750244 ; 321192.91131643613 ; 513391.5320545055 ; 5236.000000000001
23 ; 18107.295987920435 ; 23335.978729750244 ; 339291.9891592796 ; 536727.5107842557 ; 5474.000000000001
24 ; 18319.455014543448 ; 23335.978729750244 ; 357399.28514720005 ; 560063.489514006 ; 5712.000000000001
25 ; 18824.44365178351 ; 23335.978729750244 ; 375718.7401617435 ; 583399.4682437562 ; 5950.000000000001
26 ; 18969.18125713945 ; 23335.978729750244 ; 394543.183813527 ; 606735.4469735065 ; 6188.000000000001
27 ; 19136.927612412783 ; 23335.978729750244 ; 413512.3650706664 ; 630071.4257032567 ; 6426.000000000001
28 ; 19413.370643472168 ; 23335.978729750244 ; 432649.2926830792 ; 653407.404433007 ; 6664.000000000001
29 ; 19672.158371477268 ; 23335.978729750244 ; 452062.6633265514 ; 676743.3831627573 ; 6902.000000000001
30 ; 20000.49477912993 ; 23335.978729750244 ; 471734.82169802865 ; 700079.3618925075 ; 7140.000000000001
31 ; 20056.053383059218 ; 23335.978729750244 ; 491735.3164771586 ; 723415.3406222578 ; 7378.000000000001
32 ; 20254.059737930995 ; 23335.978729750244 ; 511791.3698602178 ; 746751.319352008 ; 7616.000000000001
33 ; 20612.307641546504 ; 23335.978729750244 ; 532045.4295981488 ; 770087.2980817583 ; 7854.000000000001
34 ; 20733.243400900366 ; 23335.978729750244 ; 552657.7372396953 ; 793423.2768115086 ; 8092.000000000001
35 ; 21009.176791996608 ; 23335.978729750244 ; 573390.9806405957 ; 816759.2555412588 ; 8330.000000000002
36 ; 21184.337575277357 ; 23335.978729750244 ; 594400.1574325922 ; 840095.2342710091 ; 8568.000000000002
37 ; 21313.46774396726 ; 23335.978729750244 ; 615584.4950078696 ; 863431.2130007594 ; 8806.000000000002
38 ; 21424.58980293471 ; 23335.978729750244 ; 636897.9627518369 ; 886767.1917305096 ; 9044.000000000002
39 ; 21676.78145773159 ; 23335.978729750244 ; 658322.5525547715 ; 910103.1704602599 ; 9282.000000000002
40 ; 21873.767021930416 ; 23335.978729750244 ; 679999.3340125032 ; 933439.1491900102 ; 9520.000000000002
41 ; 22013.73094255211 ; 23335.978729750244 ; 701873.1010344336 ; 956775.1279197604 ; 9758.000000000002
42 ; 22313.931801173843 ; 23335.978729750244 ; 723886.8319769857 ; 980111.1066495107 ; 9996.000000000002
43 ; 22506.069661530524 ; 23335.978729750244 ; 746200.7637781595 ; 1003447.0853792609 ; 10234.000000000002
44 ; 22657.16744432875 ; 23335.978729750244 ; 768706.8334396901 ; 1026783.0641090112 ; 10472.000000000002
45 ; 22793.165584500122 ; 23335.978729750244 ; 791364.0008840188 ; 1050119.0428387614 ; 10710.000000000002
46 ; 22887.8679050885 ; 23335.978729750244 ; 814157.166468519 ; 1073455.0215685116 ; 10948.000000000002
47 ; 23282.592850358436 ; 23335.978729750244 ; 837045.0343736075 ; 1096791.0002982619 ; 11186.000000000002
48 ; 23157.452494515568 ; 23335.978729750244 ; 860327.627223966 ; 1120126.9790280121 ; 11424.000000000002
49 ; 23269.432973703897 ; 23335.978729750244 ; 883485.0797184815 ; 1143462.9577577624 ; 11662.000000000002
50 ; 23140.82139851815 ; 23335.978729750244 ; 906754.5126921855 ; 1166798.9364875127 ; 11900.000000000002
51 ; 23482.994170588307 ; 23335.978729750244 ; 929895.3340907036 ; 1190134.915217263 ; 12138.000000000002
52 ; 23755.555985569998 ; 23335.978729750244 ; 953378.328261292 ; 1213470.8939470132 ; 12376.000000000002
53 ; 23690.056403906976 ; 23335.978729750244 ; 977133.8842468619 ; 1236806.8726767635 ; 12614.000000000002
54 ; 24053.516185884968 ; 23335.978729750244 ; 1000823.9406507689 ; 1260142.8514065137 ; 12852.000000000002
55 ; 23994.410239602956 ; 23335.978729750244 ; 1024877.4568366539 ; 1283478.830136264 ; 13090.000000000002
56 ; 24335.573835798503 ; 23335.978729750244 ; 1048871.8670762568 ; 1306814.8088660142 ; 13328.000000000002
57 ; 24175.55442565158 ; 23335.978729750244 ; 1073207.4409120553 ; 1330150.7875957645 ; 13566.000000000002
58 ; 24281.656814750844 ; 23335.978729750244 ; 1097382.995337707 ; 1353486.7663255148 ; 13804.000000000002
59 ; 24531.29212392766 ; 23335.978729750244 ; 1121664.6521524577 ; 1376822.745055265 ; 14042.000000000002
60 ; 24562.433396731405 ; 23335.978729750244 ; 1146195.9442763855 ; 1400158.7237850153 ; 14280.000000000002
61 ; 24576.65117438189 ; 23335.978729750244 ; 1170758.377673117 ; 1423494.7025147656 ; 14518.000000000002
62 ; 24579.89218806611 ; 23335.978729750244 ; 1195335.0288474988 ; 1446830.6812445158 ; 14756.000000000002
63 ; 24921.95763773052 ; 23335.978729750244 ; 1219914.921035565 ; 1470166.659974266 ; 14994.000000000002
64 ; 24906.122719696163 ; 23335.978729750244 ; 1244836.8786732955 ; 1493502.6387040163 ; 15232.000000000002
65 ; 24978.83926744297 ; 23335.978729750244 ; 1269743.0013929917 ; 1516838.6174337666 ; 15470.000000000002
66 ; 24966.10728076704 ; 23335.978729750244 ; 1294721.8406604347 ; 1540174.5961635169 ; 15708.000000000002
67 ; 25176.078299653083 ; 23335.978729750244 ; 1319687.9479412017 ; 1563510.5748932671 ; 15946.000000000002
68 ; 25238.934138609864 ; 23335.978729750244 ; 1344864.0262408548 ; 1586846.5536230174 ; 16184.000000000002
69 ; 25127.093994278624 ; 23335.978729750244 ; 1370102.9603794646 ; 1610182.5323527677 ; 16422.000000000004
70 ; 25202.932868928434 ; 23335.978729750244 ; 1395230.0543737432 ; 1633518.511082518 ; 16660.000000000004
71 ; 25457.688789954645 ; 23335.978729750244 ; 1420432.9872426717 ; 1656854.4898122682 ; 16898.000000000004
72 ; 25306.720396028286 ; 23335.978729750244 ; 1445890.6760326263 ; 1680190.4685420184 ; 17136.000000000004
73 ; 25246.31842694468 ; 23335.978729750244 ; 1471197.3964286547 ; 1703526.4472717687 ; 17374.000000000004
74 ; 25254.817862978245 ; 23335.978729750244 ; 1496443.7148555994 ; 1726862.426001519 ; 17612.000000000004
75 ; 25468.76136454445 ; 23335.978729750244 ; 1521698.5327185777 ; 1750198.4047312692 ; 17850.000000000004
76 ; 25370.487797345286 ; 23335.978729750244 ; 1547167.2940831222 ; 1773534.3834610195 ; 18088.000000000004
77 ; 25776.848903915878 ; 23335.978729750244 ; 1572537.7818804674 ; 1796870.3621907698 ; 18326.000000000004
78 ; 25363.838499591977 ; 23335.978729750244 ; 1598314.6307843833 ; 1820206.34092052 ; 18564.000000000004
79 ; 25623.464676590087 ; 23335.978729750244 ; 1623678.4692839752 ; 1843542.3196502703 ; 18802.000000000004
80 ; 25495.54732638621 ; 23335.978729750244 ; 1649301.9339605654 ; 1866878.2983800205 ; 19040.000000000004
81 ; 25479.91894035848 ; 23335.978729750244 ; 1674797.4812869516 ; 1890214.2771097708 ; 19278.000000000004
82 ; 25553.26297760703 ; 23335.978729750244 ; 1700277.4002273101 ; 1913550.255839521 ; 19516.000000000004
83 ; 25315.172551429685 ; 23335.978729750244 ; 1725830.6632049172 ; 1936886.2345692713 ; 19754.000000000004
84 ; 25454.210743923075 ; 23335.978729750244 ; 1751145.8357563468 ; 1960222.2132990216 ; 19992.000000000004
85 ; 25272.936479962675 ; 23335.978729750244 ; 1776600.0465002698 ; 1983558.1920287719 ; 20230.000000000004
86 ; 25570.28029378831 ; 23335.978729750244 ; 1801872.9829802325 ; 2006894.170758522 ; 20468.000000000004
87 ; 25227.812034472714 ; 23335.978729750244 ; 1827443.2632740207 ; 2030230.1494882724 ; 20706.000000000004
88 ; 25383.250888524795 ; 23335.978729750244 ; 1852671.0753084936 ; 2053566.1282180226 ; 20944.000000000004
89 ; 25414.170122470157 ; 23335.978729750244 ; 1878054.3261970184 ; 2076902.106947773 ; 21182.000000000004
90 ; 25241.660069841637 ; 23335.978729750244 ; 1903468.4963194886 ; 2100238.085677523 ; 21420.000000000004
91 ; 25096.85505220531 ; 23335.978729750244 ; 1928710.1563893303 ; 2123574.064407273 ; 21658.000000000004
92 ; 25112.4606335315 ; 23335.978729750244 ; 1953807.0114415355 ; 2146910.043137023 ; 21896.000000000004
93 ; 25017.519835033036 ; 23335.978729750244 ; 1978919.472075067 ; 2170246.0218667733 ; 22134.000000000004
94 ; 25102.39681340373 ; 23335.978729750244 ; 2003936.9919101 ; 2193582.0005965233 ; 22372.000000000004
95 ; 24927.770428703527 ; 23335.978729750244 ; 2029039.3887235038 ; 2216917.9793262733 ; 22610.000000000004
96 ; 25075.87863317427 ; 23335.978729750244 ; 2053967.1591522074 ; 2240253.9580560233 ; 22848.000000000004
97 ; 24788.59939497872 ; 23335.978729750244 ; 2079043.0377853818 ; 2263589.9367857734 ; 23086.000000000004
98 ; 24851.40480810114 ; 23335.978729750244 ; 2103831.6371803605 ; 2286925.9155155234 ; 23324.000000000004
99 ; 24688.64266841904 ; 23335.978729750244 ; 2128683.0419884617 ; 2310261.8942452734 ; 23562.000000000004
100 ; 24752.60810417537 ; 23335.978729750244 ; 2153371.684656881 ; 2333597.8729750235 ; 23800.000000000004
101 ; 24554.53717342582 ; 23335.978729750244 ; 2178124.292761056 ; 2356933.8517047735 ; 24038.000000000004
102 ; 24460.56701495632 ; 23335.978729750244 ; 2202678.829934482 ; 2380269.8304345235 ; 24276.000000000004
103 ; 24464.442508237214 ; 23335.978729750244 ; 2227139.3969494384 ; 2403605.8091642736 ; 24514.000000000004
104 ; 24559.851886877823 ; 23335.978729750244 ; 2251603.839457676 ; 2426941.7878940236 ; 24752.000000000004
105 ; 24017.366592937975 ; 23335.978729750244 ; 2276163.6913445536 ; 2450277.7666237736 ; 24990.000000000004
106 ; 24248.45949763454 ; 23335.978729750244 ; 2300181.0579374917 ; 2473613.7453535236 ; 25228.000000000004
107 ; 24032.191799295222 ; 23335.978729750244 ; 2324429.517435126 ; 2496949.7240832737 ; 25466.000000000004
108 ; 23851.02773465723 ; 23335.978729750244 ; 2348461.709234421 ; 2520285.7028130237 ; 25704.000000000004
109 ; 23766.00123876347 ; 23335.978729750244 ; 2372312.7369690784 ; 2543621.6815427737 ; 25942.000000000004
110 ; 23700.66458758647 ; 23335.978729750244 ; 2396078.7382078418 ; 2566957.6602725238 ; 26180.000000000004
111 ; 23453.93082949562 ; 23335.978729750244 ; 2419779.4027954284 ; 2590293.639002274 ; 26418.000000000004
112 ; 23439.326517488276 ; 23335.978729750244 ; 2443233.333624924 ; 2613629.617732024 ; 26656.000000000004
113 ; 23265.0647909077 ; 23335.978729750244 ; 2466672.6601424124 ; 2636965.596461774 ; 26894.000000000004
114 ; 23138.111179965264 ; 23335.978729750244 ; 2489937.72493332 ; 2660301.575191524 ; 27132.000000000004
115 ; 23014.635481686193 ; 23335.978729750244 ; 2513075.8361132853 ; 2683637.553921274 ; 27370.000000000004
116 ; 22729.50438917341 ; 23335.978729750244 ; 2536090.4715949716 ; 2706973.532651024 ; 27608.000000000004
117 ; 22636.09074187903 ; 23335.978729750244 ; 2558819.975984145 ; 2730309.511380774 ; 27846.000000000004
118 ; 22475.521675469256 ; 23335.978729750244 ; 2581456.066726024 ; 2753645.490110524 ; 28084.000000000004
119 ; 22246.189164932668 ; 23335.978729750244 ; 2603931.588401493 ; 2776981.468840274 ; 28322.000000000004
120 ; 22151.470794957753 ; 23335.978729750244 ; 2626177.777566426 ; 2800317.447570024 ; 28560.000000000004
121 ; 22068.91500712927 ; 23335.978729750244 ; 2648329.2483613836 ; 2823653.426299774 ; 28798.000000000004
122 ; 21856.538742006516 ; 23335.978729750244 ; 2670398.163368513 ; 2846989.405029524 ; 29036.000000000004
123 ; 21649.199743985977 ; 23335.978729750244 ; 2692254.702110519 ; 2870325.383759274 ; 29274.000000000004
124 ; 21424.739843556956 ; 23335.978729750244 ; 2713903.9018545053 ; 2893661.362489024 ; 29512.000000000004
125 ; 21263.228543824476 ; 23335.978729750244 ; 2735328.6416980624 ; 2916997.341218774 ; 29750.000000000004
126 ; 21085.64372423064 ; 23335.978729750244 ; 2756591.870241887 ; 2940333.3199485242 ; 29988.000000000004
127 ; 20778.02777663821 ; 23335.978729750244 ; 2777677.5139661175 ; 2963669.2986782743 ; 30226.000000000004
128 ; 20594.013659875985 ; 23335.978729750244 ; 2798455.5417427556 ; 2987005.2774080243 ; 30464.000000000004
129 ; 20474.606372104314 ; 23335.978729750244 ; 2819049.5554026314 ; 3010341.2561377743 ; 30702.000000000004
130 ; 20226.309453151403 ; 23335.978729750244 ; 2839524.161774736 ; 3033677.2348675244 ; 30940.000000000004
131 ; 20079.189086405622 ; 23335.978729750244 ; 2859750.471227887 ; 3057013.2135972744 ; 31178.000000000004
132 ; 19599.724765796334 ; 23335.978729750244 ; 2879829.6603142926 ; 3080349.1923270244 ; 31416.000000000004
133 ; 19627.066675258273 ; 23335.978729750244 ; 2899429.385080089 ; 3103685.1710567744 ; 31654.000000000004
134 ; 19308.81868462999 ; 23335.978729750244 ; 2919056.451755347 ; 3127021.1497865245 ; 31892.000000000004
135 ; 19288.82603598841 ; 23335.978729750244 ; 2938365.2704399773 ; 3150357.1285162745 ; 32130.000000000004
136 ; 18841.646049307623 ; 23335.978729750244 ; 2957654.096475966 ; 3173693.1072460245 ; 32368.000000000004
137 ; 18513.245125337464 ; 23335.978729750244 ; 2976495.7425252735 ; 3197029.0859757746 ; 32606.000000000004
138 ; 18299.872463616965 ; 23335.978729750244 ; 2995008.987650611 ; 3220365.0647055246 ; 32844.00000000001
139 ; 18206.54334514969 ; 23335.978729750244 ; 3013308.860114228 ; 3243701.0434352746 ; 33082.00000000001
140 ; 17838.935018593787 ; 23335.978729750244 ; 3031515.4034593776 ; 3267037.0221650247 ; 33320.00000000001
141 ; 17699.684816144592 ; 23335.978729750244 ; 3049354.3384779715 ; 3290373.0008947747 ; 33558.00000000001
142 ; 17284.73405880162 ; 23335.978729750244 ; 3067054.023294116 ; 3313708.9796245247 ; 33796.00000000001
143 ; 17170.771682260493 ; 23335.978729750244 ; 3084338.7573529175 ; 3337044.9583542747 ; 34034.00000000001
144 ; 16588.4945647418 ; 23335.978729750244 ; 3101509.529035178 ; 3360380.937084025 ; 34272.00000000001
145 ; 16687.26427168224 ; 23335.978729750244 ; 3118098.02359992 ; 3383716.915813775 ; 34510.00000000001
146 ; 16522.610240322556 ; 23335.978729750244 ; 3134785.287871602 ; 3407052.894543525 ; 34748.00000000001
147 ; 16508.23877999567 ; 23335.978729750244 ; 3151307.8981119245 ; 3430388.873273275 ; 34986.00000000001
148 ; 16354.081788795464 ; 23335.978729750244 ; 3167816.13689192 ; 3453724.852003025 ; 35224.00000000001
149 ; 16298.972762186531 ; 23335.978729750244 ; 3184170.2186807157 ; 3477060.830732775 ; 35462.00000000001
150 ; 16200.989425272212 ; 23335.978729750244 ; 3200469.191442902 ; 3500396.809462525 ; 35700.00000000001
151 ; 16049.706393785073 ; 23335.978729750244 ; 3216670.1808681744 ; 3523732.788192275 ; 35938.00000000001
152 ; 15829.227978941237 ; 23335.978729750244 ; 3232719.8872619593 ; 3547068.766922025 ; 36176.00000000001
153 ; 15842.210571172582 ; 23335.978729750244 ; 3248549.1152409003 ; 3570404.745651775 ; 36414.00000000001
154 ; 15647.905929510227 ; 23335.978729750244 ; 3264391.325812073 ; 3593740.724381525 ; 36652.00000000001
155 ; 15718.111097519632 ; 23335.978729750244 ; 3280039.231741583 ; 3617076.703111275 ; 36890.00000000001
156 ; 15454.347466647305 ; 23335.978729750244 ; 3295757.3428391027 ; 3640412.681841025 ; 37128.00000000001
157 ; 15407.51553455021 ; 23335.978729750244 ; 3311211.69030575 ; 3663748.660570775 ; 37366.00000000001
158 ; 15387.824636619061 ; 23335.978729750244 ; 3326619.2058403003 ; 3687084.639300525 ; 37604.00000000001
159 ; 15233.937328578946 ; 23335.978729750244 ; 3342007.0304769194 ; 3710420.618030275 ; 37842.00000000001
160 ; 14995.193050275753 ; 23335.978729750244 ; 3357240.9678054983 ; 3733756.5967600252 ; 38080.00000000001
161 ; 15049.221107569649 ; 23335.978729750244 ; 3372236.160855774 ; 3757092.5754897753 ; 38318.00000000001
162 ; 14941.560150217912 ; 23335.978729750244 ; 3387285.3819633434 ; 3780428.5542195253 ; 38556.00000000001
163 ; 14577.723349821961 ; 23335.978729750244 ; 3402226.942113561 ; 3803764.5329492753 ; 38794.00000000001
164 ; 14466.081074559603 ; 23335.978729750244 ; 3416804.665463383 ; 3827100.5116790254 ; 39032.00000000001
165 ; 14442.875721290231 ; 23335.978729750244 ; 3431270.7465379424 ; 3850436.4904087754 ; 39270.00000000001
166 ; 14368.300632063758 ; 23335.978729750244 ; 3445713.6222592327 ; 3873772.4691385254 ; 39508.00000000001
167 ; 14119.46637327764 ; 23335.978729750244 ; 3460081.9228912964 ; 3897108.4478682755 ; 39746.00000000001
168 ; 13979.862561137374 ; 23335.978729750244 ; 3474201.3892645743 ; 3920444.4265980255 ; 39984.00000000001
169 ; 13823.901066984205 ; 23335.978729750244 ; 3488181.2518257117 ; 3943780.4053277755 ; 40222.00000000001
170 ; 13789.234953480161 ; 23335.978729750244 ; 3502005.1528926957 ; 3967116.3840575255 ; 40460.00000000001
171 ; 13490.485278952281 ; 23335.978729750244 ; 3515794.387846176 ; 3990452.3627872756 ; 40698.00000000001
172 ; 13631.874663594086 ; 23335.978729750244 ; 3529284.8731251284 ; 4013788.3415170256 ; 40936.00000000001
173 ; 13365.55357370364 ; 23335.978729750244 ; 3542916.7477887226 ; 4037124.3202467756 ; 41174.00000000001
174 ; 13428.657107732168 ; 23335.978729750244 ; 3556282.3013624265 ; 4060460.2989765257 ; 41412.00000000001
175 ; 13484.022106413851 ; 23335.978729750244 ; 3569710.9584701587 ; 4083796.2777062757 ; 41650.00000000001
176 ; 13314.66732729672 ; 23335.978729750244 ; 3583194.9805765725 ; 4107132.2564360257 ; 41888.00000000001
177 ; 13144.746628198825 ; 23335.978729750244 ; 3596509.6479038694 ; 4130468.2351657758 ; 42126.00000000001
178 ; 13514.094541232856 ; 23335.978729750244 ; 3609654.394532068 ; 4153804.213895526 ; 42364.00000000001
179 ; 13213.727975231068 ; 23335.978729750244 ; 3623168.489073301 ; 4177140.192625276 ; 42602.00000000001
180 ; 13268.986107746987 ; 23335.978729750244 ; 3636382.2170485323 ; 4200476.171355026 ; 42840.00000000001
181 ; 13350.188337021833 ; 23335.978729750244 ; 3649651.2031562794 ; 4223812.150084776 ; 43078.00000000001
182 ; 13401.298292660653 ; 23335.978729750244 ; 3663001.3914933014 ; 4247148.128814526 ; 43316.00000000001
183 ; 13472.803579860287 ; 23335.978729750244 ; 3676402.689785962 ; 4270484.107544276 ; 43554.00000000001
184 ; 13521.33395641751 ; 23335.978729750244 ; 3689875.4933658224 ; 4293820.086274026 ; 43792.00000000001
