CSV File for the City 3 on Day 234
1 - Minute m 
2 - Power Consumed at minute m 
3 - Power Produced at minute m 
4 - Energy Consumed since the beginning of the day 
5 - Energy Produced since the beginning of the day 
6 - Energy Lost since the beginning of the day on lines starting from the city
 
0 ; 4233.005974292098 ; 19205.620461305487 ; 0.0 ; 0.0 ; 0.0
1 ; 4540.64060121047 ; 18209.405657576208 ; 4233.005974292098 ; 19205.620461305487 ; 0.0
2 ; 5012.9278480537405 ; 17269.190611091246 ; 8773.646575502567 ; 37415.026118881695 ; 0.0
3 ; 5474.8950764212 ; 16394.690222367524 ; 13786.574423556307 ; 54684.21672997294 ; 0.0
4 ; 5823.302100894823 ; 15597.033874342736 ; 19261.46949997751 ; 71078.90695234046 ; 0.0
5 ; 6210.342706245853 ; 14888.642727169838 ; 25084.771600872333 ; 86675.9408266832 ; 0.0
6 ; 6924.167857612426 ; 14282.862522255999 ; 31295.114307118187 ; 101564.58355385304 ; 0.0
7 ; 7337.211508655738 ; 13793.268291059874 ; 38219.28216473061 ; 115847.44607610903 ; 0.0
8 ; 7709.600614065821 ; 13432.609352622856 ; 45556.49367338635 ; 129640.7143671689 ; 0.0
9 ; 8106.660595463734 ; 13211.47763185786 ; 53266.09428745217 ; 143073.32371979175 ; 0.0
10 ; 8486.252756023961 ; 13136.938015660366 ; 61372.754882915906 ; 156284.8013516496 ; 0.0
11 ; 8792.642020254585 ; 13211.47763185786 ; 69859.00763893986 ; 169421.73936730996 ; 0.0
12 ; 9454.106220286429 ; 13432.609352622856 ; 78651.64965919445 ; 182633.2169991678 ; 0.0
13 ; 9841.842490719431 ; 13793.268291059874 ; 88105.75587948087 ; 196065.82635179066 ; 0.0
14 ; 10162.090655720447 ; 14282.862522255999 ; 97947.5983702003 ; 209859.09464285054 ; 0.0
15 ; 10441.65643883422 ; 14888.642727169838 ; 108109.68902592074 ; 224141.95716510655 ; 0.0
16 ; 10834.717388291634 ; 15597.033874342736 ; 118551.34546475497 ; 239030.5998922764 ; 0.0
17 ; 11321.216026571883 ; 16394.690222367524 ; 129386.0628530466 ; 254627.63376661914 ; 0.0
18 ; 11666.448795949369 ; 17269.190611091504 ; 140707.27887961848 ; 271022.32398898667 ; 0.0
19 ; 11995.660432024615 ; 18209.405657576208 ; 152373.72767556785 ; 288291.51460007817 ; 0.0
20 ; 12311.717138024233 ; 19205.620461305487 ; 164369.38810759247 ; 306500.9202576544 ; 0.0
21 ; 12738.727380988297 ; 20249.501587766073 ; 176681.1052456167 ; 325706.5407189599 ; 0.0
22 ; 12949.086624226495 ; 21333.97969535066 ; 189419.832626605 ; 345956.0423067259 ; 0.0
23 ; 13458.481247977681 ; 22453.096630670952 ; 202368.9192508315 ; 367290.0220020766 ; 0.0
24 ; 13777.890093131029 ; 23601.8465122831 ; 215827.40049880918 ; 389743.11863274756 ; 0.0
25 ; 14177.388537683362 ; 24776.026560446116 ; 229605.2905919402 ; 413344.96514503064 ; 0.0
26 ; 14456.177127285431 ; 25972.104697925814 ; 243782.67912962355 ; 438120.9917054768 ; 0.0
27 ; 14344.042443857985 ; 27187.105901407005 ; 258238.85625690897 ; 464093.09640340257 ; 0.0
28 ; 14812.275026085988 ; 28418.516640073216 ; 272582.89870076696 ; 491280.2023048096 ; 0.0
29 ; 15215.35494053573 ; 29664.20553650309 ; 287395.1737268529 ; 519698.7189448828 ; 0.0
30 ; 15506.371344489107 ; 30922.357989041255 ; 302610.52866738866 ; 549362.9244813859 ; 0.0
31 ; 15873.458466100044 ; 32191.422514426682 ; 318116.90001187776 ; 580285.2824704271 ; 0.0
32 ; 16088.603556066353 ; 33470.06677962092 ; 333990.3584779778 ; 612476.7049848537 ; 0.0
33 ; 16452.315992297954 ; 34757.14156960201 ; 350078.96203404415 ; 645946.7717644747 ; 0.0
34 ; 16722.997311881627 ; 36051.65122063114 ; 366531.2780263421 ; 680703.9133340768 ; 0.0
35 ; 16783.133293015202 ; 37352.729307233225 ; 383254.2753382237 ; 716755.5645547078 ; 0.0
36 ; 17379.24259440527 ; 38659.6185951561 ; 400037.4086312389 ; 754108.2938619411 ; 0.0
37 ; 17600.933362048683 ; 39971.65446037978 ; 417416.65122564416 ; 792767.9124570972 ; 0.0
38 ; 17706.70231646124 ; 41288.25112862376 ; 435017.58458769287 ; 832739.566917477 ; 0.0
39 ; 18011.001525438154 ; 42608.89021514245 ; 452724.2869041541 ; 874027.8180461007 ; 0.0
40 ; 18232.87998754997 ; 43933.11114560945 ; 470735.28842959227 ; 916636.7082612431 ; 0.0
41 ; 18476.079942543052 ; 45260.50311994221 ; 488968.16841714224 ; 960569.8194068525 ; 0.0
42 ; 18777.953716208413 ; 46590.6983458119 ; 507444.2483596853 ; 1005830.3225267946 ; 0.0
43 ; 18973.999122558864 ; 47923.36632051854 ; 526222.2020758938 ; 1052421.0208726064 ; 0.0
44 ; 19157.238051904187 ; 49258.208981487136 ; 545196.2011984526 ; 1100344.387193125 ; 0.0
45 ; 19544.027956250917 ; 50594.956578982 ; 564353.4392503568 ; 1149602.5961746122 ; 0.0
46 ; 19556.34200543824 ; 51933.364151413116 ; 583897.4672066077 ; 1200197.5527535942 ; 0.0
47 ; 19902.325120638412 ; 53273.20850517414 ; 603453.809212046 ; 1252130.9169050073 ; 0.0
48 ; 19944.331722140065 ; 54614.28561836019 ; 623356.1343326843 ; 1305404.1254101815 ; 0.0
49 ; 20216.536626281526 ; 55956.40840181175 ; 643300.4660548244 ; 1360018.4110285416 ; 0.0
50 ; 20426.844101365474 ; 57299.4047623782 ; 663517.002681106 ; 1415974.8194303534 ; 0.0
51 ; 20513.05365747766 ; 58643.11592262217 ; 683943.8467824714 ; 1473274.2241927315 ; 0.0
52 ; 20755.94119877973 ; 59987.394958809935 ; 704456.900439949 ; 1531917.3401153537 ; 0.0
53 ; 20991.96908278642 ; 61332.10552528215 ; 725212.8416387287 ; 1591904.7350741636 ; 0.0
54 ; 20941.543128971472 ; 62677.12073844115 ; 746204.8107215152 ; 1653236.8405994459 ; 0.0
55 ; 21223.549187773817 ; 64022.32219783339 ; 767146.3538504867 ; 1715913.961337887 ; 0.0
56 ; 21367.815363851172 ; 65367.59912531807 ; 788369.9030382605 ; 1779936.2835357203 ; 0.0
57 ; 21604.26824842125 ; 66712.84760622759 ; 809737.7184021117 ; 1845303.8826610383 ; 0.0
58 ; 21631.08912214522 ; 68057.96991885625 ; 831341.9866505329 ; 1912016.7302672658 ; 0.0
59 ; 21641.580202532532 ; 69402.87394064282 ; 852973.0757726781 ; 1980074.700186122 ; 0.0
60 ; 22010.283589774994 ; 70747.47262111156 ; 874614.6559752107 ; 2049477.574126765 ; 0.0
61 ; 22063.559376905774 ; 72091.68351306656 ; 896624.9395649857 ; 2120225.0467478763 ; 0.0
62 ; 22040.83059728618 ; 73435.4283547389 ; 918688.4989418915 ; 2192316.730260943 ; 0.0
63 ; 22256.387070852037 ; 74778.6326966026 ; 940729.3295391777 ; 2265752.158615682 ; 0.0
64 ; 22287.38566212868 ; 76121.22556743807 ; 962985.7166100297 ; 2340530.7913122843 ; 0.0
65 ; 22318.741035248586 ; 77463.13917495585 ; 985273.1022721584 ; 2416652.0168797225 ; 0.0
66 ; 22573.65800581345 ; 78804.3086369153 ; 1007591.843307407 ; 2494115.1560546784 ; 0.0
67 ; 22573.600363696693 ; 80144.67173920698 ; 1030165.5013132205 ; 2572919.464691594 ; 0.0
68 ; 22713.29731774548 ; 81484.16871782498 ; 1052739.1016769172 ; 2653064.136430801 ; 0.0
69 ; 22714.23217636827 ; 82822.74206204394 ; 1075452.3989946626 ; 2734548.3051486257 ; 0.0
70 ; 22813.296811011605 ; 84160.3363364547 ; 1098166.631171031 ; 2817371.0472106696 ; 0.0
71 ; 22789.86523007096 ; 85496.89801980252 ; 1120979.9279820425 ; 2901531.3835471245 ; 0.0
72 ; 23163.56292889554 ; 86832.3753588203 ; 1143769.7932121134 ; 2987028.281566927 ; 0.0
73 ; 23112.351120003455 ; 88166.71823546977 ; 1166933.356141009 ; 3073860.6569257476 ; 0.0
74 ; 23156.545832579508 ; 89499.8780461893 ; 1190045.7072610124 ; 3162027.3751612175 ; 0.0
75 ; 22998.05400887669 ; 90831.80759191162 ; 1213202.253093592 ; 3251527.253207407 ; 0.0
76 ; 23122.102266639507 ; 92162.46097775758 ; 1236200.3071024686 ; 3342359.0607993184 ; 0.0
77 ; 23199.79902275985 ; 93491.79352143667 ; 1259322.409369108 ; 3434521.5217770757 ; 0.0
78 ; 23110.96760790218 ; 94819.76166949308 ; 1282522.2083918678 ; 3528013.3152985126 ; 0.0
79 ; 23212.48664504667 ; 96146.32292063227 ; 1305633.17599977 ; 3622833.076968006 ; 0.0
80 ; 23430.42828465101 ; 97471.43575544684 ; 1328845.6626448166 ; 3718979.399888638 ; 0.0
81 ; 23259.481814651026 ; 98795.05957193291 ; 1352276.0909294675 ; 3816450.835644085 ; 0.0
82 ; 23364.782922374274 ; 100117.15462625472 ; 1375535.5727441185 ; 3915245.895216018 ; 0.0
83 ; 23326.822757796384 ; 101437.68197827088 ; 1398900.3556664928 ; 4015363.049842273 ; 0.0
84 ; 23178.609087321795 ; 102756.60344138715 ; 1422227.1784242892 ; 4116800.7318205438 ; 0.0
85 ; 23235.751926746867 ; 104073.88153634481 ; 1445405.7875116111 ; 4219557.335261931 ; 0.0
86 ; 23479.23493084715 ; 105389.47944859388 ; 1468641.539438358 ; 4323631.216798276 ; 0.0
87 ; 23124.510757062984 ; 106703.36098893479 ; 1492120.774369205 ; 4429020.69624687 ; 0.0
88 ; 23257.051562867353 ; 108015.49055714444 ; 1515245.2851262682 ; 4535724.057235804 ; 0.0
89 ; 23273.097121392257 ; 109325.83310832964 ; 1538502.3366891355 ; 4643739.547792949 ; 0.0
90 ; 23248.16391711088 ; 110634.35412177592 ; 1561775.4338105277 ; 4753065.380901278 ; 0.0
91 ; 23131.470366292582 ; 111941.0195720821 ; 1585023.5977276384 ; 4863699.735023054 ; 0.0
92 ; 23050.01536429656 ; 113245.79590239105 ; 1608155.068093931 ; 4975640.754595136 ; 0.0
93 ; 23010.089432072193 ; 114548.64999954382 ; 1631205.0834582276 ; 5088886.550497527 ; 0.0
94 ; 22927.057013199486 ; 115849.5491710013 ; 1654215.1728902997 ; 5203435.200497071 ; 0.0
95 ; 22770.646131391084 ; 117148.46112339172 ; 1677142.2299034991 ; 5319284.749668073 ; 0.0
96 ; 22878.16486034442 ; 118445.35394255433 ; 1699912.8760348903 ; 5436433.210791465 ; 0.0
97 ; 22591.243558535094 ; 119740.19607496179 ; 1722791.0408952348 ; 5554878.564734019 ; 0.0
98 ; 22587.610811604645 ; 121032.95631041462 ; 1745382.28445377 ; 5674618.760808981 ; 0.0
99 ; 22560.78023093759 ; 122323.60376590918 ; 1767969.8952653746 ; 5795651.717119396 ; 0.0
100 ; 22347.614723160685 ; 123612.10787059033 ; 1790530.675496312 ; 5917975.320885305 ; 0.0
101 ; 22426.519724419824 ; 124898.4383517072 ; 1812878.2902194727 ; 6041587.428755895 ; 0.0
102 ; 22247.368023843825 ; 126182.56522149658 ; 1835304.8099438925 ; 6166485.867107603 ; 0.0
103 ; 22149.21392818697 ; 127464.45876492672 ; 1857552.1779677363 ; 6292668.4323291 ; 0.0
104 ; 21925.00933635943 ; 128744.08952823735 ; 1879701.3918959233 ; 6420132.891094026 ; 0.0
105 ; 21891.873041683422 ; 130021.42830821955 ; 1901626.4012322826 ; 6548876.980622264 ; 0.0
106 ; 21862.78127839775 ; 131296.4461421816 ; 1923518.274273966 ; 6678898.408930483 ; 0.0
107 ; 21573.183675872497 ; 132569.1142985531 ; 1945381.0555523636 ; 6810194.855072665 ; 0.0
108 ; 21288.047360637527 ; 133839.4042680814 ; 1966954.239228236 ; 6942763.969371218 ; 0.0
109 ; 21333.450821851642 ; 135107.2877555803 ; 1988242.2865888735 ; 7076603.3736392995 ; 0.0
110 ; 20995.595391311504 ; 136372.73667219232 ; 2009575.737410725 ; 7211710.66139488 ; 0.0
111 ; 20902.758154824 ; 137635.72312812982 ; 2030571.3328020365 ; 7348083.398067072 ; 0.0
112 ; 20950.99046152521 ; 138896.21942586233 ; 2051474.0909568605 ; 7485719.121195202 ; 0.0
113 ; 20646.185524584198 ; 140154.1980537204 ; 2072425.0814183857 ; 7624615.340621064 ; 0.0
114 ; 20464.28127797199 ; 141409.63167988835 ; 2093071.26694297 ; 7764769.538674785 ; 0.0
115 ; 20293.319412044013 ; 142662.4931467603 ; 2113535.548220942 ; 7906179.170354674 ; 0.0
116 ; 20084.548827620063 ; 143912.75546563588 ; 2133828.8676329856 ; 8048841.663501434 ; 0.0
117 ; 19933.359233472172 ; 145160.39181173334 ; 2153913.416460606 ; 8192754.41896707 ; 0.0
118 ; 19738.416187219045 ; 146405.37551950026 ; 2173846.775694078 ; 8337914.810778803 ; 0.0
119 ; 19551.365359158484 ; 147647.68007820265 ; 2193585.1918812967 ; 8484320.186298303 ; 0.0
120 ; 19266.30504972108 ; 148887.27912777496 ; 2213136.557240455 ; 8631967.866376506 ; 0.0
121 ; 19088.934138680404 ; 150124.14645491462 ; 2232402.862290176 ; 8780855.14550428 ; 0.0
122 ; 18851.621290295556 ; 151358.2559894063 ; 2251491.7964288564 ; 8930979.291959196 ; 0.0
123 ; 18474.40915405006 ; 152589.58180066146 ; 2270343.417719152 ; 9082337.547948603 ; 0.0
124 ; 18393.055866663002 ; 153818.0980944602 ; 2288817.826873202 ; 9234927.129749265 ; 0.0
125 ; 18105.329248935253 ; 155043.77920988333 ; 2307210.8827398648 ; 9388745.227843724 ; 0.0
126 ; 17941.974052105412 ; 156266.59961642284 ; 2325316.2119888 ; 9543789.007053608 ; 0.0
127 ; 17700.02698372033 ; 157486.53391126083 ; 2343258.186040906 ; 9700055.606670031 ; 0.0
128 ; 17535.656598258043 ; 158703.55681670635 ; 2360958.213024626 ; 9857542.140581293 ; 0.0
129 ; 17196.40229664488 ; 159917.6431777812 ; 2378493.869622884 ; 1.0016245697398E7 ; 0.0
130 ; 16740.46973514243 ; 161128.7679599461 ; 2395690.271919529 ; 1.017616334057578E7 ; 0.0
131 ; 16735.85366588928 ; 162336.906246959 ; 2412430.7416546713 ; 1.0337292108535727E7 ; 0.0
132 ; 16296.942338445317 ; 163542.03323885772 ; 2429166.5953205605 ; 1.0499629014782686E7 ; 0.0
133 ; 16111.523318260577 ; 164744.12425006076 ; 2445463.5376590057 ; 1.0663171048021544E7 ; 0.0
134 ; 15751.580245609015 ; 165943.15470757833 ; 2461575.060977266 ; 1.0827915172271604E7 ; 0.0
135 ; 15497.445223440245 ; 167139.1001493285 ; 2477326.641222875 ; 1.0993858326979183E7 ; 0.0
136 ; 15125.459185699323 ; 168331.93622255232 ; 2492824.0864463155 ; 1.116099742712851E7 ; 0.0
137 ; 14996.839968241633 ; 169521.6386823218 ; 2507949.545632015 ; 1.1329329363351062E7 ; 0.0
138 ; 14544.914526559685 ; 170708.1833901368 ; 2522946.3856002567 ; 1.1498851002033385E7 ; 0.0
139 ; 14242.813071066637 ; 171891.5463126053 ; 2537491.3001268166 ; 1.1669559185423521E7 ; 0.0
140 ; 13888.241655847822 ; 173071.7035202022 ; 2551734.113197883 ; 1.1841450731736127E7 ; 0.0
141 ; 13542.642431680215 ; 174248.63118610336 ; 2565622.354853731 ; 1.201452243525633E7 ; 0.0
142 ; 13183.78458137083 ; 175422.3055850902 ; 2579164.997285411 ; 1.2188771066442434E7 ; 0.0
143 ; 12987.414219662865 ; 176592.70309252114 ; 2592348.781866782 ; 1.2364193372027524E7 ; 0.0
144 ; 12684.219139460749 ; 177759.80018336672 ; 2605336.196086445 ; 1.2540786075120045E7 ; 0.0
145 ; 12619.408032005354 ; 178923.57343130477 ; 2618020.415225906 ; 1.2718545875303412E7 ; 0.0
146 ; 12398.735819284178 ; 180083.99950787236 ; 2630639.823257911 ; 1.2897469448734717E7 ; 0.0
147 ; 12347.47550405521 ; 181241.05518167195 ; 2643038.5590771954 ; 1.307755344824259E7 ; 0.0
148 ; 12254.523925315081 ; 182394.71731762914 ; 2655386.0345812505 ; 1.3258794503424263E7 ; 0.0
149 ; 12107.480535267543 ; 183544.96287629826 ; 2667640.5585065656 ; 1.3441189220741892E7 ; 0.0
150 ; 12037.363201392847 ; 184691.76891321476 ; 2679748.039041833 ; 1.362473418361819E7 ; 0.0
151 ; 11932.383275794942 ; 185835.11257829124 ; 2691785.402243226 ; 1.3809425952531405E7 ; 0.0
152 ; 11844.120137313894 ; 186974.97111525483 ; 2703717.7855190206 ; 1.3995261065109696E7 ; 0.0
153 ; 11674.06791759863 ; 188111.3218611244 ; 2715561.9056563345 ; 1.4182236036224952E7 ; 0.0
154 ; 11526.68761596517 ; 189244.14224572515 ; 2727235.973573933 ; 1.4370347358086076E7 ; 0.0
155 ; 11351.688777536021 ; 190373.40979123893 ; 2738762.661189898 ; 1.45595915003318E7 ; 0.0
156 ; 11280.999100498217 ; 191499.1021117884 ; 2750114.349967434 ; 1.4749964910123039E7 ; 0.0
157 ; 11119.546253860599 ; 192621.19691305346 ; 2761395.3490679325 ; 1.4941464012234828E7 ; 0.0
158 ; 11063.411369418098 ; 193739.67199191827 ; 2772514.895321793 ; 1.5134085209147882E7 ; 0.0
159 ; 10967.828492487253 ; 194854.5052361476 ; 2783578.306691211 ; 1.53278248811398E7 ; 0.0
160 ; 10796.504200068895 ; 195965.6746240908 ; 2794546.1351836985 ; 1.5522679386375947E7 ; 0.0
161 ; 10832.371502806935 ; 197073.1582244121 ; 2805342.6393837673 ; 1.5718645061000038E7 ; 0.0
162 ; 10643.794538570393 ; 198176.9341958461 ; 2816175.010886574 ; 1.591571821922445E7 ; 0.0
163 ; 10456.301260542292 ; 199276.9807869773 ; 2826818.8054251447 ; 1.6113895153420296E7 ; 0.0
164 ; 10171.821690202582 ; 200373.27633604215 ; 2837275.106685687 ; 1.6313172134207273E7 ; 0.0
165 ; 10169.644956252665 ; 201465.7992707528 ; 2847446.9283758895 ; 1.6513545410543315E7 ; 0.0
166 ; 9934.641196628148 ; 202554.5281081419 ; 2857616.573332142 ; 1.6715011209814068E7 ; 0.0
167 ; 9991.027946515911 ; 203639.44145442641 ; 2867551.21452877 ; 1.691756573792221E7 ; 0.0
168 ; 9850.627956233644 ; 204720.51800489082 ; 2877542.242475286 ; 1.7121205179376636E7 ; 0.0
169 ; 9714.621223023245 ; 205797.7365437873 ; 2887392.8704315196 ; 1.7325925697381526E7 ; 0.0
170 ; 9561.589107034511 ; 206871.07594425412 ; 2897107.4916545427 ; 1.7531723433925312E7 ; 0.0
171 ; 9324.45780664352 ; 207940.5151682489 ; 2906669.0807615775 ; 1.7738594509869564E7 ; 0.0
172 ; 9137.027849813223 ; 209006.0332664986 ; 2915993.538568221 ; 1.7946535025037814E7 ; 0.0
173 ; 9080.26426946737 ; 210067.6093784628 ; 2925130.566418034 ; 1.8155541058304314E7 ; 0.0
174 ; 9055.195265577913 ; 211125.22273231245 ; 2934210.8306875015 ; 1.8365608667682778E7 ; 0.0
175 ; 9166.957510686861 ; 212178.8526449209 ; 2943266.0259530796 ; 1.857673389041509E7 ; 0.0
176 ; 9179.75512680724 ; 213228.47852186818 ; 2952432.9834637665 ; 1.878891274306001E7 ; 0.0
177 ; 9191.225425959366 ; 214274.07985745723 ; 2961612.738590574 ; 1.900214122158188E7 ; 0.0
178 ; 9324.240528382765 ; 215315.63623474157 ; 2970803.9640165335 ; 1.9216415301439337E7 ; 0.0
179 ; 9324.289446811144 ; 216353.12732556468 ; 2980128.2045449163 ; 1.943173093767408E7 ; 0.0
180 ; 9435.893149345029 ; 217386.53289060883 ; 2989452.4939917275 ; 1.9648084064999644E7 ; 0.0
181 ; 9323.729360566296 ; 218415.8327794546 ; 2998888.3871410727 ; 1.9865470597890254E7 ; 0.0
182 ; 9332.644359433287 ; 219441.00693064986 ; 3008212.116501639 ; 2.008388643066971E7 ; 0.0
183 ; 9369.528294485859 ; 220462.03537178793 ; 3017544.760861072 ; 2.030332743760036E7 ; 0.0
184 ; 9461.710175737107 ; 221478.89821959363 ; 3026914.289155558 ; 2.0523789472972147E7 ; 0.0
185 ; 9474.439830279494 ; 222491.5756800188 ; 3036375.9993312955 ; 2.074526837119174E7 ; 0.0
186 ; 9547.728484138035 ; 223500.04804834485 ; 3045850.439161575 ; 2.0967759946871758E7 ; 0.0
187 ; 9367.50953071733 ; 224504.2957092927 ; 3055398.167645713 ; 2.11912599949201E7 ; 0.0
188 ; 9527.479905471719 ; 225504.29913714045 ; 3064765.6771764304 ; 2.1415764290629394E7 ; 0.0
189 ; 9601.649098591452 ; 226500.03889584736 ; 3074293.157081902 ; 2.1641268589766536E7 ; 0.0
190 ; 9501.853997839167 ; 227491.4956391843 ; 3083894.8061804934 ; 2.1867768628662385E7 ; 0.0
191 ; 9504.442756663882 ; 228478.6501108707 ; 3093396.6601783326 ; 2.2095260124301568E7 ; 0.0
192 ; 9580.69110311064 ; 229461.48314471668 ; 3102901.1029349966 ; 2.232373877441244E7 ; 0.0
193 ; 9739.638709520894 ; 230439.9756647715 ; 3112481.794038107 ; 2.2553200257557154E7 ; 0.0
194 ; 9716.464663582288 ; 231414.1086854766 ; 3122221.432747628 ; 2.2783640233221926E7 ; 0.0
195 ; 9685.992015672377 ; 232383.86331182395 ; 3131937.8974112105 ; 2.30150543419074E7 ; 0.0
196 ; 9677.535748945676 ; 233349.2207395193 ; 3141623.889426883 ; 2.3247438205219224E7 ; 0.0
197 ; 9695.648934158124 ; 234310.16225514968 ; 3151301.4251758284 ; 2.3480787425958745E7 ; 0.0
198 ; 9856.77202060677 ; 235266.66923635505 ; 3160997.0741099864 ; 2.3715097588213895E7 ; 0.0
199 ; 9807.138443315333 ; 236218.72315200453 ; 3170853.846130593 ; 2.395036425745025E7 ; 0.0
200 ; 9701.587565414964 ; 237166.30556237596 ; 3180660.9845739086 ; 2.4186582980602253E7 ; 0.0
201 ; 9990.729009748939 ; 238109.3981193393 ; 3190362.5721393237 ; 2.442374928616463E7 ; 0.0
202 ; 9901.633377328812 ; 239047.98256654348 ; 3200353.3011490726 ; 2.4661858684283968E7 ; 0.0
203 ; 9912.05211838743 ; 239982.04073960637 ; 3210254.9345264016 ; 2.490090666685051E7 ; 0.0
204 ; 10023.703999374444 ; 240911.55456630804 ; 3220166.986644789 ; 2.5140888707590118E7 ; 0.0
205 ; 10069.04776718574 ; 241836.50606678668 ; 3230190.6906441636 ; 2.5381800262156427E7 ; 0.0
206 ; 10084.97358147307 ; 242756.87735373733 ; 3240259.7384113492 ; 2.5623636768223215E7 ; 0.0
207 ; 10046.179054629003 ; 243672.65063261322 ; 3250344.711992822 ; 2.5866393645576954E7 ; 0.0
208 ; 10194.531333689181 ; 244583.8082018295 ; 3260390.891047451 ; 2.6110066296209566E7 ; 0.0
209 ; 10144.145754320827 ; 245490.33245296904 ; 3270585.4223811403 ; 2.6354650104411397E7 ; 0.0
210 ; 10189.245042086608 ; 246392.20587099073 ; 3280729.5681354613 ; 2.6600140436864365E7 ; 0.0
211 ; 10310.322883055998 ; 247289.41103443943 ; 3290918.813177548 ; 2.6846532642735355E7 ; 0.0
212 ; 10246.683188515222 ; 248181.93061565785 ; 3301229.136060604 ; 2.7093822053769793E7 ; 0.0
213 ; 10166.60498359855 ; 249069.7473810002 ; 3311475.819249119 ; 2.734200398438545E7 ; 0.0
