CSV File for the City 1 on Day 301
1 - Minute m 
2 - Power Consumed at minute m 
3 - Power Produced at minute m 
4 - Energy Consumed since the beginning of the day 
5 - Energy Produced since the beginning of the day 
6 - Energy Lost since the beginning of the day on lines starting from the city
 
0 ; 10992.824494964783 ; 12406.907058483088 ; 0.0 ; 0.0 ; 0.0
1 ; 11396.486658936728 ; 12406.907058483088 ; 10992.824494964783 ; 12406.907058483088 ; 238.00000000000003
2 ; 11778.968591259632 ; 12406.907058483088 ; 22389.31115390151 ; 24813.814116966176 ; 476.00000000000006
3 ; 12070.226065804494 ; 12406.907058483088 ; 34168.27974516114 ; 37220.72117544926 ; 714.0000000000001
4 ; 12613.890608039896 ; 12406.907058483088 ; 46238.50581096564 ; 49627.62823393235 ; 952.0000000000001
5 ; 13024.822476015535 ; 12406.907058483088 ; 58852.396419005534 ; 62034.53529241544 ; 1190.0000000000002
6 ; 13331.51564341707 ; 12406.907058483088 ; 71877.21889502107 ; 74441.44235089853 ; 1428.0000000000002
7 ; 13719.537959513178 ; 12406.907058483088 ; 85208.73453843813 ; 86848.34940938163 ; 1666.0000000000002
8 ; 13951.21552117459 ; 12406.907058483088 ; 98928.27249795132 ; 99255.25646786472 ; 1904.0000000000002
9 ; 14289.160896129582 ; 12406.907058483088 ; 112879.4880191259 ; 111662.16352634781 ; 2142.0000000000005
10 ; 14868.921745437196 ; 12406.907058483088 ; 127168.64891525549 ; 124069.0705848309 ; 2380.0000000000005
11 ; 15128.324742179651 ; 12406.907058483088 ; 142037.57066069267 ; 136475.977643314 ; 2618.0000000000005
12 ; 15421.342507842983 ; 12406.907058483088 ; 157165.89540287232 ; 148882.88470179707 ; 2856.0000000000005
13 ; 15752.369197642709 ; 12406.907058483088 ; 172587.2379107153 ; 161289.79176028015 ; 3094.0000000000005
14 ; 16067.220859904339 ; 12406.907058483088 ; 188339.60710835803 ; 173696.69881876322 ; 3332.0000000000005
15 ; 16505.931382525323 ; 12406.907058483088 ; 204406.82796826237 ; 186103.6058772463 ; 3570.0000000000005
16 ; 16875.094287651442 ; 12406.907058483088 ; 220912.7593507877 ; 198510.51293572938 ; 3808.0000000000005
17 ; 17075.998381112953 ; 12406.907058483088 ; 237787.85363843915 ; 210917.41999421245 ; 4046.0000000000005
18 ; 17465.39916538274 ; 12406.907058483088 ; 254863.8520195521 ; 223324.32705269553 ; 4284.000000000001
19 ; 17736.76350529586 ; 12406.907058483088 ; 272329.25118493487 ; 235731.2341111786 ; 4522.000000000001
20 ; 18117.901374401114 ; 12406.907058483088 ; 290066.0146902307 ; 248138.14116966169 ; 4760.000000000001
21 ; 18254.211796664935 ; 12406.907058483088 ; 308183.91606463183 ; 260545.04822814476 ; 4998.000000000001
22 ; 18623.34657872793 ; 12406.907058483088 ; 326438.12786129676 ; 272951.95528662787 ; 5236.000000000001
23 ; 19051.70653380614 ; 12406.907058483088 ; 345061.4744400247 ; 285358.862345111 ; 5474.000000000001
24 ; 19107.675075969295 ; 12406.907058483088 ; 364113.18097383087 ; 297765.7694035941 ; 5712.000000000001
25 ; 19603.497795651623 ; 12406.907058483088 ; 383220.8560498002 ; 310172.6764620772 ; 5950.000000000001
26 ; 19811.84815466492 ; 12406.907058483088 ; 402824.3538454518 ; 322579.5835205603 ; 6188.000000000001
27 ; 20076.453726586733 ; 12406.907058483088 ; 422636.2020001167 ; 334986.4905790434 ; 6426.000000000001
28 ; 20258.629806044624 ; 12406.907058483088 ; 442712.6557267034 ; 347393.3976375265 ; 6664.000000000001
29 ; 20530.937341912817 ; 12406.907058483088 ; 462971.28553274804 ; 359800.3046960096 ; 6902.000000000001
30 ; 20834.53714203127 ; 12406.907058483088 ; 483502.22287466086 ; 372207.2117544927 ; 7140.000000000001
31 ; 21074.351208935037 ; 12406.907058483088 ; 504336.7600166921 ; 384614.1188129758 ; 7378.000000000001
32 ; 21291.88615800325 ; 12406.907058483088 ; 525411.1112256271 ; 397021.0258714589 ; 7616.000000000001
33 ; 21504.095994234824 ; 12406.907058483088 ; 546702.9973836304 ; 409427.93292994204 ; 7854.000000000001
34 ; 21809.34931666616 ; 12406.907058483088 ; 568207.0933778652 ; 421834.83998842514 ; 8092.000000000001
35 ; 21979.887000665454 ; 12406.907058483088 ; 590016.4426945313 ; 434241.74704690825 ; 8330.000000000002
36 ; 22326.31821249151 ; 12406.907058483088 ; 611996.3296951967 ; 446648.65410539135 ; 8568.000000000002
37 ; 22421.55018041913 ; 12406.907058483088 ; 634322.6479076882 ; 459055.56116387446 ; 8806.000000000002
38 ; 22654.960838793526 ; 12406.907058483088 ; 656744.1980881073 ; 471462.46822235757 ; 9044.000000000002
39 ; 22985.14326406191 ; 12406.907058483088 ; 679399.1589269008 ; 483869.3752808407 ; 9282.000000000002
40 ; 23192.857550389283 ; 12406.907058483088 ; 702384.3021909627 ; 496276.2823393238 ; 9520.000000000002
41 ; 23277.18149754308 ; 12406.907058483088 ; 725577.159741352 ; 508683.1893978069 ; 9758.000000000002
42 ; 23374.513267810857 ; 12406.907058483088 ; 748854.3412388951 ; 521090.09645629 ; 9996.000000000002
43 ; 23547.64652723302 ; 12406.907058483088 ; 772228.8545067059 ; 533497.0035147731 ; 10234.000000000002
44 ; 23892.741813336386 ; 12406.907058483088 ; 795776.501033939 ; 545903.9105732562 ; 10472.000000000002
45 ; 24133.05987570528 ; 12406.907058483088 ; 819669.2428472753 ; 558310.8176317393 ; 10710.000000000002
46 ; 24177.924388994168 ; 12406.907058483088 ; 843802.3027229806 ; 570717.7246902224 ; 10948.000000000002
47 ; 24354.728296407073 ; 12406.907058483088 ; 867980.2271119747 ; 583124.6317487055 ; 11186.000000000002
48 ; 24525.866630775552 ; 12406.907058483088 ; 892334.9554083818 ; 595531.5388071886 ; 11424.000000000002
49 ; 24630.688166792268 ; 12406.907058483088 ; 916860.8220391573 ; 607938.4458656717 ; 11662.000000000002
50 ; 24835.46402733838 ; 12406.907058483088 ; 941491.5102059495 ; 620345.3529241548 ; 11900.000000000002
51 ; 24987.88917553566 ; 12406.907058483088 ; 966326.974233288 ; 632752.259982638 ; 12138.000000000002
52 ; 25097.63993354937 ; 12406.907058483088 ; 991314.8634088236 ; 645159.167041121 ; 12376.000000000002
53 ; 25223.00793544691 ; 12406.907058483088 ; 1016412.503342373 ; 657566.0740996042 ; 12614.000000000002
54 ; 25485.662776048594 ; 12406.907058483088 ; 1041635.5112778199 ; 669972.9811580873 ; 12852.000000000002
55 ; 25337.60341489488 ; 12406.907058483088 ; 1067121.1740538685 ; 682379.8882165704 ; 13090.000000000002
56 ; 25685.16510541858 ; 12406.907058483088 ; 1092458.7774687633 ; 694786.7952750535 ; 13328.000000000002
57 ; 25821.172400604133 ; 12406.907058483088 ; 1118143.9425741818 ; 707193.7023335366 ; 13566.000000000002
58 ; 25779.78334956156 ; 12406.907058483088 ; 1143965.114974786 ; 719600.6093920197 ; 13804.000000000002
59 ; 26036.25519255183 ; 12406.907058483088 ; 1169744.8983243476 ; 732007.5164505028 ; 14042.000000000002
60 ; 26224.19462725546 ; 12406.907058483088 ; 1195781.1535168993 ; 744414.4235089859 ; 14280.000000000002
61 ; 26181.94916218208 ; 12406.907058483088 ; 1222005.3481441548 ; 756821.330567469 ; 14518.000000000002
62 ; 26186.0547479758 ; 12406.907058483088 ; 1248187.297306337 ; 769228.2376259521 ; 14756.000000000002
63 ; 26394.50400869403 ; 12406.907058483088 ; 1274373.3520543128 ; 781635.1446844352 ; 14994.000000000002
64 ; 26443.59807118012 ; 12406.907058483088 ; 1300767.856063007 ; 794042.0517429183 ; 15232.000000000002
65 ; 26637.09617715468 ; 12406.907058483088 ; 1327211.454134187 ; 806448.9588014014 ; 15470.000000000002
66 ; 26515.906199255005 ; 12406.907058483088 ; 1353848.5503113416 ; 818855.8658598845 ; 15708.000000000002
67 ; 26776.21424764885 ; 12406.907058483088 ; 1380364.4565105967 ; 831262.7729183676 ; 15946.000000000002
68 ; 26830.653234157453 ; 12406.907058483088 ; 1407140.6707582455 ; 843669.6799768507 ; 16184.000000000002
69 ; 26715.362755266695 ; 12406.907058483088 ; 1433971.323992403 ; 856076.5870353339 ; 16422.000000000004
70 ; 26818.57609551003 ; 12406.907058483088 ; 1460686.6867476697 ; 868483.494093817 ; 16660.000000000004
71 ; 26980.889187593508 ; 12406.907058483088 ; 1487505.2628431797 ; 880890.4011523001 ; 16898.000000000004
72 ; 26930.04727403845 ; 12406.907058483088 ; 1514486.1520307732 ; 893297.3082107832 ; 17136.000000000004
73 ; 27015.511380252006 ; 12406.907058483088 ; 1541416.1993048117 ; 905704.2152692663 ; 17374.000000000004
74 ; 27007.342353972865 ; 12406.907058483088 ; 1568431.7106850636 ; 918111.1223277494 ; 17612.000000000004
75 ; 27037.286102380698 ; 12406.907058483088 ; 1595439.0530390365 ; 930518.0293862325 ; 17850.000000000004
76 ; 27121.437136893554 ; 12406.907058483088 ; 1622476.339141417 ; 942924.9364447156 ; 18088.000000000004
77 ; 27093.900299412468 ; 12406.907058483088 ; 1649597.7762783107 ; 955331.8435031987 ; 18326.000000000004
78 ; 27131.219132457172 ; 12406.907058483088 ; 1676691.6765777231 ; 967738.7505616818 ; 18564.000000000004
79 ; 27137.27426415758 ; 12406.907058483088 ; 1703822.8957101803 ; 980145.6576201649 ; 18802.000000000004
80 ; 27107.27574146338 ; 12406.907058483088 ; 1730960.1699743378 ; 992552.564678648 ; 19040.000000000004
81 ; 27074.63412389061 ; 12406.907058483088 ; 1758067.445715801 ; 1004959.4717371311 ; 19278.000000000004
82 ; 27160.09643972222 ; 12406.907058483088 ; 1785142.0798396918 ; 1017366.3787956142 ; 19516.000000000004
83 ; 27166.9935564005 ; 12406.907058483088 ; 1812302.176279414 ; 1029773.2858540973 ; 19754.000000000004
84 ; 27176.094457563955 ; 12406.907058483088 ; 1839469.1698358145 ; 1042180.1929125804 ; 19992.000000000004
85 ; 27218.053759416274 ; 12406.907058483088 ; 1866645.2642933785 ; 1054587.0999710634 ; 20230.000000000004
86 ; 27225.41240584175 ; 12406.907058483088 ; 1893863.3180527948 ; 1066994.0070295464 ; 20468.000000000004
87 ; 26968.326788380997 ; 12406.907058483088 ; 1921088.7304586365 ; 1079400.9140880294 ; 20706.000000000004
88 ; 26848.16467081172 ; 12406.907058483088 ; 1948057.0572470175 ; 1091807.8211465124 ; 20944.000000000004
89 ; 27079.773577217707 ; 12406.907058483088 ; 1974905.2219178292 ; 1104214.7282049954 ; 21182.000000000004
90 ; 27114.307312842924 ; 12406.907058483088 ; 2001984.995495047 ; 1116621.6352634784 ; 21420.000000000004
91 ; 26964.31966110995 ; 12406.907058483088 ; 2029099.3028078899 ; 1129028.5423219614 ; 21658.000000000004
92 ; 26930.173829436684 ; 12406.907058483088 ; 2056063.6224689998 ; 1141435.4493804444 ; 21896.000000000004
93 ; 26653.013849300663 ; 12406.907058483088 ; 2082993.7962984366 ; 1153842.3564389274 ; 22134.000000000004
94 ; 26792.19692106229 ; 12406.907058483088 ; 2109646.810147737 ; 1166249.2634974103 ; 22372.000000000004
95 ; 26555.52123486322 ; 12406.907058483088 ; 2136439.0070687993 ; 1178656.1705558933 ; 22610.000000000004
96 ; 26540.25502033176 ; 12406.907058483088 ; 2162994.528303663 ; 1191063.0776143763 ; 22848.000000000004
97 ; 26521.378849759756 ; 12406.907058483088 ; 2189534.7833239944 ; 1203469.9846728593 ; 23086.000000000004
98 ; 26402.584492626043 ; 12406.907058483088 ; 2216056.162173754 ; 1215876.8917313423 ; 23324.000000000004
99 ; 26279.870890488448 ; 12406.907058483088 ; 2242458.74666638 ; 1228283.7987898253 ; 23562.000000000004
100 ; 26090.773943412616 ; 12406.907058483088 ; 2268738.6175568686 ; 1240690.7058483083 ; 23800.000000000004
101 ; 25988.975848573413 ; 12406.907058483088 ; 2294829.391500281 ; 1253097.6129067913 ; 24038.000000000004
102 ; 25984.340354715037 ; 12406.907058483088 ; 2320818.3673488544 ; 1265504.5199652743 ; 24276.000000000004
103 ; 25866.667351603806 ; 12406.907058483088 ; 2346802.7077035694 ; 1277911.4270237572 ; 24514.000000000004
104 ; 25750.455375042955 ; 12406.907058483088 ; 2372669.3750551734 ; 1290318.3340822402 ; 24752.000000000004
105 ; 25579.077587378448 ; 12406.907058483088 ; 2398419.830430216 ; 1302725.2411407232 ; 24990.000000000004
106 ; 25637.01230280212 ; 12406.907058483088 ; 2423998.908017595 ; 1315132.1481992062 ; 25228.000000000004
107 ; 25095.394267444597 ; 12406.907058483088 ; 2449635.920320397 ; 1327539.0552576892 ; 25466.000000000004
108 ; 25244.96652416149 ; 12406.907058483088 ; 2474731.3145878413 ; 1339945.9623161722 ; 25704.000000000004
109 ; 25099.993774839222 ; 12406.907058483088 ; 2499976.2811120027 ; 1352352.8693746552 ; 25942.000000000004
110 ; 24715.363614308753 ; 12406.907058483088 ; 2525076.274886842 ; 1364759.7764331382 ; 26180.000000000004
111 ; 24719.25043224399 ; 12406.907058483088 ; 2549791.6385011505 ; 1377166.6834916212 ; 26418.000000000004
112 ; 24490.175756352437 ; 12406.907058483088 ; 2574510.8889333946 ; 1389573.5905501042 ; 26656.000000000004
113 ; 24515.572002810433 ; 12406.907058483088 ; 2599001.064689747 ; 1401980.4976085871 ; 26894.000000000004
114 ; 24240.503133597755 ; 12406.907058483088 ; 2623516.6366925575 ; 1414387.4046670701 ; 27132.000000000004
115 ; 23958.076170061613 ; 12406.907058483088 ; 2647757.1398261553 ; 1426794.3117255531 ; 27370.000000000004
116 ; 23823.00225724231 ; 12406.907058483088 ; 2671715.215996217 ; 1439201.218784036 ; 27608.000000000004
117 ; 23744.41347189987 ; 12406.907058483088 ; 2695538.2182534593 ; 1451608.125842519 ; 27846.000000000004
118 ; 23491.19214511909 ; 12406.907058483088 ; 2719282.6317253592 ; 1464015.032901002 ; 28084.000000000004
119 ; 23371.1378081375 ; 12406.907058483088 ; 2742773.823870478 ; 1476421.939959485 ; 28322.000000000004
120 ; 23328.166683590276 ; 12406.907058483088 ; 2766144.961678616 ; 1488828.847017968 ; 28560.000000000004
121 ; 23047.841716633764 ; 12406.907058483088 ; 2789473.1283622063 ; 1501235.754076451 ; 28798.000000000004
122 ; 22678.39004353795 ; 12406.907058483088 ; 2812520.97007884 ; 1513642.661134934 ; 29036.000000000004
123 ; 22542.20848385644 ; 12406.907058483088 ; 2835199.360122378 ; 1526049.568193417 ; 29274.000000000004
124 ; 22374.270245419426 ; 12406.907058483088 ; 2857741.5686062346 ; 1538456.4752519 ; 29512.000000000004
125 ; 22189.033441932435 ; 12406.907058483088 ; 2880115.838851654 ; 1550863.382310383 ; 29750.000000000004
126 ; 21977.577722546186 ; 12406.907058483088 ; 2902304.8722935864 ; 1563270.289368866 ; 29988.000000000004
127 ; 21673.938216706767 ; 12406.907058483088 ; 2924282.4500161326 ; 1575677.196427349 ; 30226.000000000004
128 ; 21249.950310699518 ; 12406.907058483088 ; 2945956.3882328393 ; 1588084.103485832 ; 30464.000000000004
129 ; 21180.890353952786 ; 12406.907058483088 ; 2967206.338543539 ; 1600491.010544315 ; 30702.000000000004
130 ; 20920.627913264823 ; 12406.907058483088 ; 2988387.228897492 ; 1612897.917602798 ; 30940.000000000004
131 ; 20439.083700530748 ; 12406.907058483088 ; 3009307.856810757 ; 1625304.824661281 ; 31178.000000000004
132 ; 20460.065881989532 ; 12406.907058483088 ; 3029746.9405112877 ; 1637711.731719764 ; 31416.000000000004
133 ; 19971.70978413717 ; 12406.907058483088 ; 3050207.006393277 ; 1650118.638778247 ; 31654.000000000004
134 ; 19881.326894670394 ; 12406.907058483088 ; 3070178.716177414 ; 1662525.54583673 ; 31892.000000000004
135 ; 19594.02496913257 ; 12406.907058483088 ; 3090060.0430720844 ; 1674932.452895213 ; 32130.000000000004
136 ; 19480.304263731912 ; 12406.907058483088 ; 3109654.068041217 ; 1687339.359953696 ; 32368.000000000004
137 ; 19000.401969404124 ; 12406.907058483088 ; 3129134.372304949 ; 1699746.267012179 ; 32606.000000000004
138 ; 18756.308202796074 ; 12406.907058483088 ; 3148134.774274353 ; 1712153.174070662 ; 32844.00000000001
139 ; 18279.645496257748 ; 12406.907058483088 ; 3166891.082477149 ; 1724560.0811291449 ; 33082.00000000001
140 ; 17937.288599522923 ; 12406.907058483088 ; 3185170.7279734067 ; 1736966.9881876279 ; 33320.00000000001
141 ; 17975.792182707377 ; 12406.907058483088 ; 3203108.0165729295 ; 1749373.8952461109 ; 33558.00000000001
142 ; 17418.177989334425 ; 12406.907058483088 ; 3221083.8087556367 ; 1761780.8023045938 ; 33796.00000000001
143 ; 17158.89112219685 ; 12406.907058483088 ; 3238501.986744971 ; 1774187.7093630768 ; 34034.00000000001
144 ; 16761.236014895843 ; 12406.907058483088 ; 3255660.877867168 ; 1786594.6164215598 ; 34272.00000000001
145 ; 16719.885632426725 ; 12406.907058483088 ; 3272422.113882064 ; 1799001.5234800428 ; 34510.00000000001
146 ; 16676.10255075289 ; 12406.907058483088 ; 3289141.999514491 ; 1811408.4305385258 ; 34748.00000000001
147 ; 16472.26911851503 ; 12406.907058483088 ; 3305818.1020652438 ; 1823815.3375970088 ; 34986.00000000001
148 ; 16359.077330757016 ; 12406.907058483088 ; 3322290.3711837586 ; 1836222.2446554918 ; 35224.00000000001
149 ; 16314.996610588463 ; 12406.907058483088 ; 3338649.4485145155 ; 1848629.1517139748 ; 35462.00000000001
150 ; 16195.30227465554 ; 12406.907058483088 ; 3354964.445125104 ; 1861036.0587724578 ; 35700.00000000001
151 ; 16173.588609143195 ; 12406.907058483088 ; 3371159.7473997595 ; 1873442.9658309408 ; 35938.00000000001
152 ; 16020.653822639899 ; 12406.907058483088 ; 3387333.3360089026 ; 1885849.8728894237 ; 36176.00000000001
153 ; 15910.373995241951 ; 12406.907058483088 ; 3403353.9898315426 ; 1898256.7799479067 ; 36414.00000000001
154 ; 15666.192705895537 ; 12406.907058483088 ; 3419264.363826785 ; 1910663.6870063897 ; 36652.00000000001
155 ; 15583.462190422591 ; 12406.907058483088 ; 3434930.5565326805 ; 1923070.5940648727 ; 36890.00000000001
156 ; 15462.715611458263 ; 12406.907058483088 ; 3450514.018723103 ; 1935477.5011233557 ; 37128.00000000001
157 ; 15247.04008002715 ; 12406.907058483088 ; 3465976.7343345615 ; 1947884.4081818387 ; 37366.00000000001
158 ; 15316.917441555928 ; 12406.907058483088 ; 3481223.7744145887 ; 1960291.3152403217 ; 37604.00000000001
159 ; 15132.318753158886 ; 12406.907058483088 ; 3496540.6918561445 ; 1972698.2222988047 ; 37842.00000000001
160 ; 15283.475848756038 ; 12406.907058483088 ; 3511673.010609303 ; 1985105.1293572877 ; 38080.00000000001
161 ; 14883.869576171754 ; 12406.907058483088 ; 3526956.4864580594 ; 1997512.0364157706 ; 38318.00000000001
162 ; 14793.51480193107 ; 12406.907058483088 ; 3541840.3560342314 ; 2009918.9434742536 ; 38556.00000000001
163 ; 14657.594770503623 ; 12406.907058483088 ; 3556633.8708361625 ; 2022325.8505327366 ; 38794.00000000001
164 ; 14576.379479954643 ; 12406.907058483088 ; 3571291.465606666 ; 2034732.7575912196 ; 39032.00000000001
165 ; 14232.661256557163 ; 12406.907058483088 ; 3585867.8450866207 ; 2047139.6646497026 ; 39270.00000000001
166 ; 14238.846574359233 ; 12406.907058483088 ; 3600100.506343178 ; 2059546.5717081856 ; 39508.00000000001
167 ; 14017.123736421281 ; 12406.907058483088 ; 3614339.352917537 ; 2071953.4787666686 ; 39746.00000000001
168 ; 14066.784554026406 ; 12406.907058483088 ; 3628356.476653958 ; 2084360.3858251516 ; 39984.00000000001
169 ; 13777.147178118998 ; 12406.907058483088 ; 3642423.2612079848 ; 2096767.2928836346 ; 40222.00000000001
170 ; 13794.189805226586 ; 12406.907058483088 ; 3656200.408386104 ; 2109174.1999421176 ; 40460.00000000001
171 ; 13661.263942609568 ; 12406.907058483088 ; 3669994.59819133 ; 2121581.1070006005 ; 40698.00000000001
172 ; 13449.505168246533 ; 12406.907058483088 ; 3683655.8621339398 ; 2133988.0140590835 ; 40936.00000000001
173 ; 13240.377983714137 ; 12406.907058483088 ; 3697105.3673021863 ; 2146394.9211175665 ; 41174.00000000001
174 ; 13211.792164507071 ; 12406.907058483088 ; 3710345.7452859003 ; 2158801.8281760495 ; 41412.00000000001
175 ; 13475.811530481451 ; 12406.907058483088 ; 3723557.537450407 ; 2171208.7352345325 ; 41650.00000000001
176 ; 13360.112580109151 ; 12406.907058483088 ; 3737033.3489808887 ; 2183615.6422930155 ; 41888.00000000001
177 ; 13450.314730205275 ; 12406.907058483088 ; 3750393.4615609976 ; 2196022.5493514985 ; 42126.00000000001
178 ; 13352.773122920904 ; 12406.907058483088 ; 3763843.7762912028 ; 2208429.4564099815 ; 42364.00000000001
179 ; 13459.821103155511 ; 12406.907058483088 ; 3777196.549414124 ; 2220836.3634684645 ; 42602.00000000001
180 ; 13441.362685110578 ; 12406.907058483088 ; 3790656.3705172795 ; 2233243.2705269475 ; 42840.00000000001
181 ; 13161.113725531428 ; 12406.907058483088 ; 3804097.73320239 ; 2245650.1775854304 ; 43078.00000000001
182 ; 13394.208528029336 ; 12406.907058483088 ; 3817258.8469279213 ; 2258057.0846439134 ; 43316.00000000001
183 ; 13347.968261640588 ; 12406.907058483088 ; 3830653.0554559506 ; 2270463.9917023964 ; 43554.00000000001
184 ; 13539.44693029087 ; 12406.907058483088 ; 3844001.023717591 ; 2282870.8987608794 ; 43792.00000000001
