CSV File for the City 1 on Day 229
1 - Minute m 
2 - Power Consumed at minute m 
3 - Power Produced at minute m 
4 - Energy Consumed since the beginning of the day 
5 - Energy Produced since the beginning of the day 
6 - Energy Lost since the beginning of the day on lines starting from the city
 
0 ; 5504.795145653775 ; 3935.927917400757 ; 0.0 ; 0.0 ; 0.0
1 ; 5995.971953033055 ; 3935.927917400757 ; 5504.795145653775 ; 3935.927917400757 ; 238.00000000000003
2 ; 6673.534479936596 ; 3935.927917400757 ; 11500.767098686829 ; 7871.855834801514 ; 476.00000000000006
3 ; 7347.490401548967 ; 3935.927917400757 ; 18174.301578623425 ; 11807.783752202271 ; 714.0000000000001
4 ; 8017.101473336074 ; 3935.927917400757 ; 25521.79198017239 ; 15743.711669603028 ; 952.0000000000001
5 ; 8595.506784481482 ; 3935.927917400757 ; 33538.89345350846 ; 19679.639587003785 ; 1190.0000000000002
6 ; 9177.05182505811 ; 3935.927917400757 ; 42134.40023798995 ; 23615.567504404542 ; 1428.0000000000002
7 ; 9761.734131549107 ; 3935.927917400757 ; 51311.452063048055 ; 27551.4954218053 ; 1666.0000000000002
8 ; 10396.176391537163 ; 3935.927917400757 ; 61073.18619459716 ; 31487.423339206056 ; 1904.0000000000002
9 ; 10985.16736973926 ; 3935.927917400757 ; 71469.36258613432 ; 35423.35125660681 ; 2142.0000000000005
10 ; 11401.29273041454 ; 3935.927917400757 ; 82454.52995587357 ; 39359.27917400756 ; 2380.0000000000005
11 ; 12032.265728630593 ; 3935.927917400757 ; 93855.82268628811 ; 43295.207091408316 ; 2618.0000000000005
12 ; 12431.34030167171 ; 3935.927917400757 ; 105888.0884149187 ; 47231.13500880907 ; 2856.0000000000005
13 ; 13057.896844322082 ; 3935.927917400757 ; 118319.42871659041 ; 51167.06292620982 ; 3094.0000000000005
14 ; 13566.953997244855 ; 3935.927917400757 ; 131377.3255609125 ; 55102.990843610576 ; 3332.0000000000005
15 ; 14069.39712719146 ; 3935.927917400757 ; 144944.27955815734 ; 59038.91876101133 ; 3570.0000000000005
16 ; 14604.880169536145 ; 3935.927917400757 ; 159013.6766853488 ; 62974.84667841208 ; 3808.0000000000005
17 ; 15365.953475045066 ; 3935.927917400757 ; 173618.55685488493 ; 66910.77459581284 ; 4046.0000000000005
18 ; 15808.790518731828 ; 3935.927917400757 ; 188984.51032993 ; 70846.70251321359 ; 4284.000000000001
19 ; 16063.558291784833 ; 3935.927917400757 ; 204793.30084866183 ; 74782.63043061434 ; 4522.000000000001
20 ; 16641.868590680355 ; 3935.927917400757 ; 220856.85914044667 ; 78718.5583480151 ; 4760.000000000001
21 ; 17032.99782603866 ; 3935.927917400757 ; 237498.72773112703 ; 82654.48626541585 ; 4998.000000000001
22 ; 17722.361891925935 ; 3935.927917400757 ; 254531.7255571657 ; 86590.4141828166 ; 5236.000000000001
23 ; 18218.685125380907 ; 3935.927917400757 ; 272254.0874490916 ; 90526.34210021736 ; 5474.000000000001
24 ; 18551.289557151096 ; 3935.927917400757 ; 290472.77257447253 ; 94462.27001761811 ; 5712.000000000001
25 ; 18908.945861995355 ; 3935.927917400757 ; 309024.0621316236 ; 98398.19793501886 ; 5950.000000000001
26 ; 19352.470456560357 ; 3935.927917400757 ; 327933.00799361896 ; 102334.12585241962 ; 6188.000000000001
27 ; 20000.94593609303 ; 3935.927917400757 ; 347285.47845017933 ; 106270.05376982037 ; 6426.000000000001
28 ; 20247.857749152918 ; 3935.927917400757 ; 367286.4243862724 ; 110205.98168722112 ; 6664.000000000001
29 ; 20631.998536303843 ; 3935.927917400757 ; 387534.2821354253 ; 114141.90960462188 ; 6902.000000000001
30 ; 20945.217917243717 ; 3935.927917400757 ; 408166.2806717291 ; 118077.83752202263 ; 7140.000000000001
31 ; 21513.382691504983 ; 3935.927917400757 ; 429111.49858897284 ; 122013.76543942338 ; 7378.000000000001
32 ; 21739.74555373282 ; 3935.927917400757 ; 450624.8812804778 ; 125949.69335682414 ; 7616.000000000001
33 ; 22267.879246771405 ; 3935.927917400757 ; 472364.6268342106 ; 129885.62127422489 ; 7854.000000000001
34 ; 22747.30839248599 ; 3935.927917400757 ; 494632.506080982 ; 133821.54919162564 ; 8092.000000000001
35 ; 23100.218227880272 ; 3935.927917400757 ; 517379.814473468 ; 137757.4771090264 ; 8330.000000000002
36 ; 23377.28302885745 ; 3935.927917400757 ; 540480.0327013483 ; 141693.40502642715 ; 8568.000000000002
37 ; 23674.62316421154 ; 3935.927917400757 ; 563857.3157302057 ; 145629.3329438279 ; 8806.000000000002
38 ; 24148.30307684425 ; 3935.927917400757 ; 587531.9388944173 ; 149565.26086122866 ; 9044.000000000002
39 ; 24404.20110158297 ; 3935.927917400757 ; 611680.2419712615 ; 153501.1887786294 ; 9282.000000000002
40 ; 24695.998196278848 ; 3935.927917400757 ; 636084.4430728444 ; 157437.11669603016 ; 9520.000000000002
41 ; 24950.275671207015 ; 3935.927917400757 ; 660780.4412691232 ; 161373.04461343092 ; 9758.000000000002
42 ; 25347.7748827568 ; 3935.927917400757 ; 685730.7169403302 ; 165308.97253083167 ; 9996.000000000002
43 ; 25672.070512904473 ; 3935.927917400757 ; 711078.491823087 ; 169244.90044823242 ; 10234.000000000002
44 ; 25997.43454684026 ; 3935.927917400757 ; 736750.5623359914 ; 173180.82836563318 ; 10472.000000000002
45 ; 26378.103852954435 ; 3935.927917400757 ; 762747.9968828317 ; 177116.75628303393 ; 10710.000000000002
46 ; 26640.05651608663 ; 3935.927917400757 ; 789126.1007357861 ; 181052.68420043468 ; 10948.000000000002
47 ; 26960.18165185588 ; 3935.927917400757 ; 815766.1572518728 ; 184988.61211783544 ; 11186.000000000002
48 ; 27022.609255994637 ; 3935.927917400757 ; 842726.3389037288 ; 188924.5400352362 ; 11424.000000000002
49 ; 27458.701069596835 ; 3935.927917400757 ; 869748.9481597234 ; 192860.46795263694 ; 11662.000000000002
50 ; 27450.251714657057 ; 3935.927917400757 ; 897207.6492293202 ; 196796.3958700377 ; 11900.000000000002
51 ; 27949.452148831 ; 3935.927917400757 ; 924657.9009439773 ; 200732.32378743845 ; 12138.000000000002
52 ; 28066.036753185224 ; 3935.927917400757 ; 952607.3530928083 ; 204668.2517048392 ; 12376.000000000002
53 ; 28172.65017437754 ; 3935.927917400757 ; 980673.3898459935 ; 208604.17962223996 ; 12614.000000000002
54 ; 28697.705290063786 ; 3935.927917400757 ; 1008846.040020371 ; 212540.1075396407 ; 12852.000000000002
55 ; 29038.132495059064 ; 3935.927917400757 ; 1037543.7453104347 ; 216476.03545704146 ; 13090.000000000002
56 ; 29159.99943226479 ; 3935.927917400757 ; 1066581.8778054938 ; 220411.96337444222 ; 13328.000000000002
57 ; 29206.32585448715 ; 3935.927917400757 ; 1095741.8772377586 ; 224347.89129184297 ; 13566.000000000002
58 ; 29458.623700469103 ; 3935.927917400757 ; 1124948.2030922459 ; 228283.81920924372 ; 13804.000000000002
59 ; 29603.90082894941 ; 3935.927917400757 ; 1154406.826792715 ; 232219.74712664448 ; 14042.000000000002
60 ; 29823.895398849363 ; 3935.927917400757 ; 1184010.7276216643 ; 236155.67504404523 ; 14280.000000000002
61 ; 29786.751915437508 ; 3935.927917400757 ; 1213834.6230205137 ; 240091.60296144598 ; 14518.000000000002
62 ; 29901.251330577623 ; 3935.927917400757 ; 1243621.374935951 ; 244027.53087884674 ; 14756.000000000002
63 ; 30390.566127200364 ; 3935.927917400757 ; 1273522.6262665286 ; 247963.4587962475 ; 14994.000000000002
64 ; 30384.917653166005 ; 3935.927917400757 ; 1303913.192393729 ; 251899.38671364824 ; 15232.000000000002
65 ; 30554.36756692183 ; 3935.927917400757 ; 1334298.110046895 ; 255835.314631049 ; 15470.000000000002
66 ; 30576.753136146002 ; 3935.927917400757 ; 1364852.4776138167 ; 259771.24254844975 ; 15708.000000000002
67 ; 30897.003569371715 ; 3935.927917400757 ; 1395429.2307499629 ; 263707.1704658505 ; 15946.000000000002
68 ; 30769.648418833098 ; 3935.927917400757 ; 1426326.2343193346 ; 267643.0983832513 ; 16184.000000000002
69 ; 31042.54291364019 ; 3935.927917400757 ; 1457095.8827381677 ; 271579.02630065207 ; 16422.000000000004
70 ; 30963.431050333125 ; 3935.927917400757 ; 1488138.4256518078 ; 275514.95421805285 ; 16660.000000000004
71 ; 31297.255460068154 ; 3935.927917400757 ; 1519101.856702141 ; 279450.88213545363 ; 16898.000000000004
72 ; 31243.186544009008 ; 3935.927917400757 ; 1550399.112162209 ; 283386.8100528544 ; 17136.000000000004
73 ; 31371.55158431331 ; 3935.927917400757 ; 1581642.2987062181 ; 287322.7379702552 ; 17374.000000000004
74 ; 31472.879675860873 ; 3935.927917400757 ; 1613013.8502905315 ; 291258.665887656 ; 17612.000000000004
75 ; 31603.09106171524 ; 3935.927917400757 ; 1644486.7299663925 ; 295194.59380505676 ; 17850.000000000004
76 ; 31581.40971923509 ; 3935.927917400757 ; 1676089.8210281078 ; 299130.52172245755 ; 18088.000000000004
77 ; 31501.76547625158 ; 3935.927917400757 ; 1707671.2307473428 ; 303066.4496398583 ; 18326.000000000004
78 ; 31742.50298814524 ; 3935.927917400757 ; 1739172.9962235943 ; 307002.3775572591 ; 18564.000000000004
79 ; 31593.0833499271 ; 3935.927917400757 ; 1770915.4992117395 ; 310938.3054746599 ; 18802.000000000004
80 ; 31686.023659222545 ; 3935.927917400757 ; 1802508.5825616666 ; 314874.2333920607 ; 19040.000000000004
81 ; 31597.06521704952 ; 3935.927917400757 ; 1834194.6062208891 ; 318810.16130946146 ; 19278.000000000004
82 ; 31621.129763012857 ; 3935.927917400757 ; 1865791.6714379387 ; 322746.08922686224 ; 19516.000000000004
83 ; 31514.444462037543 ; 3935.927917400757 ; 1897412.8012009514 ; 326682.017144263 ; 19754.000000000004
84 ; 31677.260439267557 ; 3935.927917400757 ; 1928927.245662989 ; 330617.9450616638 ; 19992.000000000004
85 ; 31740.338646371452 ; 3935.927917400757 ; 1960604.5061022567 ; 334553.8729790646 ; 20230.000000000004
86 ; 31549.969115081956 ; 3935.927917400757 ; 1992344.844748628 ; 338489.8008964654 ; 20468.000000000004
87 ; 31474.6868625781 ; 3935.927917400757 ; 2023894.81386371 ; 342425.72881386615 ; 20706.000000000004
88 ; 31431.34283636688 ; 3935.927917400757 ; 2055369.5007262882 ; 346361.65673126694 ; 20944.000000000004
89 ; 31473.492524523463 ; 3935.927917400757 ; 2086800.8435626552 ; 350297.5846486677 ; 21182.000000000004
90 ; 31403.839542416343 ; 3935.927917400757 ; 2118274.3360871784 ; 354233.5125660685 ; 21420.000000000004
91 ; 31444.362965764823 ; 3935.927917400757 ; 2149678.175629595 ; 358169.4404834693 ; 21658.000000000004
92 ; 31394.886883632964 ; 3935.927917400757 ; 2181122.53859536 ; 362105.36840087007 ; 21896.000000000004
93 ; 31261.05399359987 ; 3935.927917400757 ; 2212517.4254789925 ; 366041.29631827085 ; 22134.000000000004
94 ; 30951.374344976666 ; 3935.927917400757 ; 2243778.4794725925 ; 369977.22423567163 ; 22372.000000000004
95 ; 31019.245291423013 ; 3935.927917400757 ; 2274729.853817569 ; 373913.1521530724 ; 22610.000000000004
96 ; 30887.645034103327 ; 3935.927917400757 ; 2305749.099108992 ; 377849.0800704732 ; 22848.000000000004
97 ; 30829.51638837394 ; 3935.927917400757 ; 2336636.7441430953 ; 381785.007987874 ; 23086.000000000004
98 ; 30636.117010091217 ; 3935.927917400757 ; 2367466.2605314692 ; 385720.93590527476 ; 23324.000000000004
99 ; 30441.17663465304 ; 3935.927917400757 ; 2398102.3775415607 ; 389656.86382267554 ; 23562.000000000004
100 ; 30289.096917068517 ; 3935.927917400757 ; 2428543.5541762137 ; 393592.7917400763 ; 23800.000000000004
101 ; 30352.4781029444 ; 3935.927917400757 ; 2458832.6510932823 ; 397528.7196574771 ; 24038.000000000004
102 ; 30332.290854044513 ; 3935.927917400757 ; 2489185.1291962266 ; 401464.6475748779 ; 24276.000000000004
103 ; 29960.48626712147 ; 3935.927917400757 ; 2519517.4200502713 ; 405400.5754922787 ; 24514.000000000004
104 ; 29683.49051144305 ; 3935.927917400757 ; 2549477.906317393 ; 409336.50340967946 ; 24752.000000000004
105 ; 29652.558976988832 ; 3935.927917400757 ; 2579161.396828836 ; 413272.43132708024 ; 24990.000000000004
106 ; 29449.0232468537 ; 3935.927917400757 ; 2608813.9558058246 ; 417208.359244481 ; 25228.000000000004
107 ; 29124.23661031182 ; 3935.927917400757 ; 2638262.979052678 ; 421144.2871618818 ; 25466.000000000004
108 ; 28995.77727578442 ; 3935.927917400757 ; 2667387.21566299 ; 425080.2150792826 ; 25704.000000000004
109 ; 28842.46944557301 ; 3935.927917400757 ; 2696382.9929387746 ; 429016.14299668337 ; 25942.000000000004
110 ; 28623.053451224394 ; 3935.927917400757 ; 2725225.462384348 ; 432952.07091408415 ; 26180.000000000004
111 ; 28472.050563769426 ; 3935.927917400757 ; 2753848.515835572 ; 436887.99883148493 ; 26418.000000000004
112 ; 28102.346114613152 ; 3935.927917400757 ; 2782320.5663993414 ; 440823.9267488857 ; 26656.000000000004
113 ; 28151.59422377921 ; 3935.927917400757 ; 2810422.9125139546 ; 444759.8546662865 ; 26894.000000000004
114 ; 27625.539685475687 ; 3935.927917400757 ; 2838574.5067377337 ; 448695.7825836873 ; 27132.000000000004
115 ; 27637.715151704622 ; 3935.927917400757 ; 2866200.0464232094 ; 452631.71050108806 ; 27370.000000000004
116 ; 27194.602413731558 ; 3935.927917400757 ; 2893837.761574914 ; 456567.63841848884 ; 27608.000000000004
117 ; 26949.047077458185 ; 3935.927917400757 ; 2921032.363988646 ; 460503.5663358896 ; 27846.000000000004
118 ; 26875.056847029966 ; 3935.927917400757 ; 2947981.411066104 ; 464439.4942532904 ; 28084.000000000004
119 ; 26505.875896771435 ; 3935.927917400757 ; 2974856.467913134 ; 468375.4221706912 ; 28322.000000000004
120 ; 26071.671217969644 ; 3935.927917400757 ; 3001362.3438099055 ; 472311.350088092 ; 28560.000000000004
121 ; 25829.366066685147 ; 3935.927917400757 ; 3027434.015027875 ; 476247.27800549276 ; 28798.000000000004
122 ; 25745.492934832404 ; 3935.927917400757 ; 3053263.38109456 ; 480183.20592289354 ; 29036.000000000004
123 ; 25339.388357449065 ; 3935.927917400757 ; 3079008.8740293924 ; 484119.1338402943 ; 29274.000000000004
124 ; 24931.04963378221 ; 3935.927917400757 ; 3104348.2623868412 ; 488055.0617576951 ; 29512.000000000004
125 ; 24757.99124196994 ; 3935.927917400757 ; 3129279.3120206236 ; 491990.9896750959 ; 29750.000000000004
126 ; 24222.163068294336 ; 3935.927917400757 ; 3154037.3032625937 ; 495926.91759249667 ; 29988.000000000004
127 ; 23760.59032726196 ; 3935.927917400757 ; 3178259.466330888 ; 499862.84550989745 ; 30226.000000000004
128 ; 23528.463246834624 ; 3935.927917400757 ; 3202020.05665815 ; 503798.77342729823 ; 30464.000000000004
129 ; 23329.789393041883 ; 3935.927917400757 ; 3225548.5199049846 ; 507734.701344699 ; 30702.000000000004
130 ; 22770.427376167223 ; 3935.927917400757 ; 3248878.3092980264 ; 511670.6292620998 ; 30940.000000000004
131 ; 22415.682131395806 ; 3935.927917400757 ; 3271648.7366741938 ; 515606.5571795006 ; 31178.000000000004
132 ; 22109.18880896728 ; 3935.927917400757 ; 3294064.4188055894 ; 519542.48509690136 ; 31416.000000000004
133 ; 21543.485188704908 ; 3935.927917400757 ; 3316173.607614557 ; 523478.41301430215 ; 31654.000000000004
134 ; 21327.579515621368 ; 3935.927917400757 ; 3337717.0928032617 ; 527414.3409317029 ; 31892.000000000004
135 ; 20935.822930049035 ; 3935.927917400757 ; 3359044.6723188832 ; 531350.2688491036 ; 32130.000000000004
136 ; 20426.69858454817 ; 3935.927917400757 ; 3379980.4952489324 ; 535286.1967665043 ; 32368.000000000004
137 ; 20269.263494779138 ; 3935.927917400757 ; 3400407.1938334806 ; 539222.124683905 ; 32606.000000000004
138 ; 19685.184279141846 ; 3935.927917400757 ; 3420676.45732826 ; 543158.0526013058 ; 32844.00000000001
139 ; 19224.820847076204 ; 3935.927917400757 ; 3440361.641607402 ; 547093.9805187065 ; 33082.00000000001
140 ; 18763.011759159766 ; 3935.927917400757 ; 3459586.4624544783 ; 551029.9084361072 ; 33320.00000000001
141 ; 18347.657712217664 ; 3935.927917400757 ; 3478349.474213638 ; 554965.8363535079 ; 33558.00000000001
142 ; 18043.03021411367 ; 3935.927917400757 ; 3496697.1319258558 ; 558901.7642709087 ; 33796.00000000001
143 ; 17514.51028044693 ; 3935.927917400757 ; 3514740.1621399694 ; 562837.6921883094 ; 34034.00000000001
144 ; 16963.42039682144 ; 3935.927917400757 ; 3532254.6724204165 ; 566773.6201057101 ; 34272.00000000001
145 ; 16704.857576643644 ; 3935.927917400757 ; 3549218.092817238 ; 570709.5480231108 ; 34510.00000000001
146 ; 16670.154414836652 ; 3935.927917400757 ; 3565922.9503938816 ; 574645.4759405116 ; 34748.00000000001
147 ; 16607.132868877834 ; 3935.927917400757 ; 3582593.1048087184 ; 578581.4038579123 ; 34986.00000000001
148 ; 16615.88449370175 ; 3935.927917400757 ; 3599200.237677596 ; 582517.331775313 ; 35224.00000000001
149 ; 16432.314952913985 ; 3935.927917400757 ; 3615816.1221712977 ; 586453.2596927137 ; 35462.00000000001
150 ; 16111.93006262906 ; 3935.927917400757 ; 3632248.437124212 ; 590389.1876101145 ; 35700.00000000001
151 ; 15987.496119586336 ; 3935.927917400757 ; 3648360.367186841 ; 594325.1155275152 ; 35938.00000000001
152 ; 15820.9482904346 ; 3935.927917400757 ; 3664347.8633064274 ; 598261.0434449159 ; 36176.00000000001
153 ; 15601.77926750077 ; 3935.927917400757 ; 3680168.811596862 ; 602196.9713623166 ; 36414.00000000001
154 ; 15557.980420919492 ; 3935.927917400757 ; 3695770.5908643627 ; 606132.8992797174 ; 36652.00000000001
155 ; 15537.853147701802 ; 3935.927917400757 ; 3711328.5712852823 ; 610068.8271971181 ; 36890.00000000001
156 ; 15369.47046317879 ; 3935.927917400757 ; 3726866.424432984 ; 614004.7551145188 ; 37128.00000000001
157 ; 15162.856333027707 ; 3935.927917400757 ; 3742235.8948961627 ; 617940.6830319195 ; 37366.00000000001
158 ; 15064.441639968038 ; 3935.927917400757 ; 3757398.7512291903 ; 621876.6109493203 ; 37604.00000000001
159 ; 14889.187322943597 ; 3935.927917400757 ; 3772463.1928691585 ; 625812.538866721 ; 37842.00000000001
160 ; 14687.643152952012 ; 3935.927917400757 ; 3787352.380192102 ; 629748.4667841217 ; 38080.00000000001
161 ; 14494.714886213686 ; 3935.927917400757 ; 3802040.023345054 ; 633684.3947015224 ; 38318.00000000001
162 ; 14346.976484855906 ; 3935.927917400757 ; 3816534.738231268 ; 637620.3226189232 ; 38556.00000000001
163 ; 14120.881171236546 ; 3935.927917400757 ; 3830881.714716124 ; 641556.2505363239 ; 38794.00000000001
164 ; 14029.15054226146 ; 3935.927917400757 ; 3845002.5958873606 ; 645492.1784537246 ; 39032.00000000001
165 ; 13823.584524737395 ; 3935.927917400757 ; 3859031.746429622 ; 649428.1063711253 ; 39270.00000000001
166 ; 13707.655389112464 ; 3935.927917400757 ; 3872855.3309543594 ; 653364.034288526 ; 39508.00000000001
167 ; 13370.963091530388 ; 3935.927917400757 ; 3886562.986343472 ; 657299.9622059268 ; 39746.00000000001
168 ; 13173.152000190432 ; 3935.927917400757 ; 3899933.949435002 ; 661235.8901233275 ; 39984.00000000001
169 ; 13045.609257805812 ; 3935.927917400757 ; 3913107.1014351924 ; 665171.8180407282 ; 40222.00000000001
170 ; 12845.59281885654 ; 3935.927917400757 ; 3926152.710692998 ; 669107.745958129 ; 40460.00000000001
171 ; 12609.407248673917 ; 3935.927917400757 ; 3938998.3035118547 ; 673043.6738755297 ; 40698.00000000001
172 ; 12442.491922172268 ; 3935.927917400757 ; 3951607.7107605287 ; 676979.6017929304 ; 40936.00000000001
173 ; 12297.834351772626 ; 3935.927917400757 ; 3964050.202682701 ; 680915.5297103311 ; 41174.00000000001
174 ; 12432.7680793519 ; 3935.927917400757 ; 3976348.0370344734 ; 684851.4576277318 ; 41412.00000000001
175 ; 12588.294920692457 ; 3935.927917400757 ; 3988780.8051138255 ; 688787.3855451326 ; 41650.00000000001
176 ; 12415.390326111792 ; 3935.927917400757 ; 4001369.100034518 ; 692723.3134625333 ; 41888.00000000001
177 ; 12414.307461604489 ; 3935.927917400757 ; 4013784.4903606297 ; 696659.241379934 ; 42126.00000000001
178 ; 12543.287159262178 ; 3935.927917400757 ; 4026198.797822234 ; 700595.1692973347 ; 42364.00000000001
179 ; 12454.132892785225 ; 3935.927917400757 ; 4038742.0849814964 ; 704531.0972147355 ; 42602.00000000001
180 ; 12549.28835167792 ; 3935.927917400757 ; 4051196.2178742816 ; 708467.0251321362 ; 42840.00000000001
181 ; 12547.265101491143 ; 3935.927917400757 ; 4063745.5062259594 ; 712402.9530495369 ; 43078.00000000001
182 ; 12567.427049971699 ; 3935.927917400757 ; 4076292.7713274504 ; 716338.8809669376 ; 43316.00000000001
183 ; 12658.36951150552 ; 3935.927917400757 ; 4088860.198377422 ; 720274.8088843384 ; 43554.00000000001
184 ; 12785.025762837617 ; 3935.927917400757 ; 4101518.5678889276 ; 724210.7368017391 ; 43792.00000000001
185 ; 13033.878933170581 ; 3935.927917400757 ; 4114303.5936517655 ; 728146.6647191398 ; 44030.00000000001
186 ; 12800.176552911555 ; 3935.927917400757 ; 4127337.4725849363 ; 732082.5926365405 ; 44268.00000000001
