CSV File for the City 1 on Day 324
1 - Minute m 
2 - Power Consumed at minute m 
3 - Power Produced at minute m 
4 - Energy Consumed since the beginning of the day 
5 - Energy Produced since the beginning of the day 
6 - Energy Lost since the beginning of the day on lines starting from the city
 
0 ; 11030.135523977202 ; 23264.520805990513 ; 0.0 ; 0.0 ; 0.0
1 ; 11445.045095038118 ; 23264.520805990513 ; 11030.135523977202 ; 23264.520805990513 ; 238.00000000000003
2 ; 11833.139489734758 ; 23264.520805990513 ; 22475.180619015322 ; 46529.041611981025 ; 476.00000000000006
3 ; 12004.090403686332 ; 23264.520805990513 ; 34308.32010875008 ; 69793.56241797154 ; 714.0000000000001
4 ; 12347.914552524744 ; 23264.520805990513 ; 46312.410512436414 ; 93058.08322396205 ; 952.0000000000001
5 ; 12720.751802852948 ; 23264.520805990513 ; 58660.32506496116 ; 116322.60402995256 ; 1190.0000000000002
6 ; 13081.744453979032 ; 23264.520805990513 ; 71381.0768678141 ; 139587.12483594308 ; 1428.0000000000002
7 ; 13408.51191805672 ; 23264.520805990513 ; 84462.82132179313 ; 162851.6456419336 ; 1666.0000000000002
8 ; 13745.529472690752 ; 23264.520805990513 ; 97871.33323984986 ; 186116.1664479241 ; 1904.0000000000002
9 ; 13844.788740052965 ; 23264.520805990513 ; 111616.8627125406 ; 209380.6872539146 ; 2142.0000000000005
10 ; 14252.372813076192 ; 23264.520805990513 ; 125461.65145259356 ; 232645.2080599051 ; 2380.0000000000005
11 ; 14679.333880445649 ; 23264.520805990513 ; 139714.02426566975 ; 255909.7288658956 ; 2618.0000000000005
12 ; 14857.905703851078 ; 23264.520805990513 ; 154393.3581461154 ; 279174.2496718861 ; 2856.0000000000005
13 ; 15042.464015352201 ; 23264.520805990513 ; 169251.2638499665 ; 302438.7704778766 ; 3094.0000000000005
14 ; 15354.035630416254 ; 23264.520805990513 ; 184293.72786531868 ; 325703.2912838671 ; 3332.0000000000005
15 ; 15737.133256387078 ; 23264.520805990513 ; 199647.76349573492 ; 348967.8120898576 ; 3570.0000000000005
16 ; 16117.230172284946 ; 23264.520805990513 ; 215384.896752122 ; 372232.3328958481 ; 3808.0000000000005
17 ; 16310.14026066102 ; 23264.520805990513 ; 231502.12692440694 ; 395496.8537018386 ; 4046.0000000000005
18 ; 16623.20460515498 ; 23264.520805990513 ; 247812.26718506796 ; 418761.3745078291 ; 4284.000000000001
19 ; 16854.877084286123 ; 23264.520805990513 ; 264435.4717902229 ; 442025.8953138196 ; 4522.000000000001
20 ; 17138.860812170704 ; 23264.520805990513 ; 281290.34887450904 ; 465290.4161198101 ; 4760.000000000001
21 ; 17312.09688602312 ; 23264.520805990513 ; 298429.20968667977 ; 488554.9369258006 ; 4998.000000000001
22 ; 17543.76905308041 ; 23264.520805990513 ; 315741.3065727029 ; 511819.4577317911 ; 5236.000000000001
23 ; 17939.930208924467 ; 23264.520805990513 ; 333285.0756257833 ; 535083.9785377816 ; 5474.000000000001
24 ; 17913.476043041366 ; 23264.520805990513 ; 351225.00583470776 ; 558348.4993437722 ; 5712.000000000001
25 ; 18153.631913467452 ; 23264.520805990513 ; 369138.48187774915 ; 581613.0201497627 ; 5950.000000000001
26 ; 18435.89079764157 ; 23264.520805990513 ; 387292.1137912166 ; 604877.5409557533 ; 6188.000000000001
27 ; 18821.20645068911 ; 23264.520805990513 ; 405728.00458885817 ; 628142.0617617439 ; 6426.000000000001
28 ; 19033.715177748727 ; 23264.520805990513 ; 424549.2110395473 ; 651406.5825677344 ; 6664.000000000001
29 ; 19365.64226107094 ; 23264.520805990513 ; 443582.926217296 ; 674671.103373725 ; 6902.000000000001
30 ; 19489.964040660463 ; 23264.520805990513 ; 462948.56847836694 ; 697935.6241797155 ; 7140.000000000001
31 ; 19609.587861652646 ; 23264.520805990513 ; 482438.5325190274 ; 721200.1449857061 ; 7378.000000000001
32 ; 19668.990190924396 ; 23264.520805990513 ; 502048.1203806801 ; 744464.6657916966 ; 7616.000000000001
33 ; 20140.99649191244 ; 23264.520805990513 ; 521717.11057160445 ; 767729.1865976872 ; 7854.000000000001
34 ; 20302.42441617799 ; 23264.520805990513 ; 541858.1070635169 ; 790993.7074036777 ; 8092.000000000001
35 ; 20549.552483597396 ; 23264.520805990513 ; 562160.5314796949 ; 814258.2282096683 ; 8330.000000000002
36 ; 20722.79857519031 ; 23264.520805990513 ; 582710.0839632923 ; 837522.7490156589 ; 8568.000000000002
37 ; 20863.287637519188 ; 23264.520805990513 ; 603432.8825384827 ; 860787.2698216494 ; 8806.000000000002
38 ; 20973.33965461819 ; 23264.520805990513 ; 624296.1701760018 ; 884051.79062764 ; 9044.000000000002
39 ; 21329.340430408905 ; 23264.520805990513 ; 645269.50983062 ; 907316.3114336305 ; 9282.000000000002
40 ; 21402.910098371274 ; 23264.520805990513 ; 666598.850261029 ; 930580.8322396211 ; 9520.000000000002
41 ; 21587.87246896046 ; 23264.520805990513 ; 688001.7603594003 ; 953845.3530456116 ; 9758.000000000002
42 ; 21660.430965677842 ; 23264.520805990513 ; 709589.6328283608 ; 977109.8738516022 ; 9996.000000000002
43 ; 21856.232597454826 ; 23264.520805990513 ; 731250.0637940386 ; 1000374.3946575928 ; 10234.000000000002
44 ; 22012.372103136946 ; 23264.520805990513 ; 753106.2963914934 ; 1023638.9154635833 ; 10472.000000000002
45 ; 22049.468422336766 ; 23264.520805990513 ; 775118.6684946304 ; 1046903.4362695739 ; 10710.000000000002
46 ; 22416.220354982717 ; 23264.520805990513 ; 797168.1369169671 ; 1070167.9570755644 ; 10948.000000000002
47 ; 22311.731450362706 ; 23264.520805990513 ; 819584.3572719499 ; 1093432.477881555 ; 11186.000000000002
48 ; 22760.604427561335 ; 23264.520805990513 ; 841896.0887223126 ; 1116696.9986875455 ; 11424.000000000002
49 ; 22796.88389869707 ; 23264.520805990513 ; 864656.6931498739 ; 1139961.519493536 ; 11662.000000000002
50 ; 22673.496161233026 ; 23264.520805990513 ; 887453.577048571 ; 1163226.0402995266 ; 11900.000000000002
51 ; 22996.581171401387 ; 23264.520805990513 ; 910127.073209804 ; 1186490.5611055172 ; 12138.000000000002
52 ; 23073.44420083948 ; 23264.520805990513 ; 933123.6543812054 ; 1209755.0819115078 ; 12376.000000000002
53 ; 23272.87007462367 ; 23264.520805990513 ; 956197.098582045 ; 1233019.6027174983 ; 12614.000000000002
54 ; 23156.46797415439 ; 23264.520805990513 ; 979469.9686566686 ; 1256284.1235234889 ; 12852.000000000002
55 ; 23383.69406247317 ; 23264.520805990513 ; 1002626.436630823 ; 1279548.6443294794 ; 13090.000000000002
56 ; 23483.609851851263 ; 23264.520805990513 ; 1026010.1306932961 ; 1302813.16513547 ; 13328.000000000002
57 ; 23668.13145829392 ; 23264.520805990513 ; 1049493.7405451473 ; 1326077.6859414605 ; 13566.000000000002
58 ; 23810.36141480522 ; 23264.520805990513 ; 1073161.8720034412 ; 1349342.206747451 ; 13804.000000000002
59 ; 23865.765417207414 ; 23264.520805990513 ; 1096972.2334182465 ; 1372606.7275534417 ; 14042.000000000002
60 ; 23842.991200289835 ; 23264.520805990513 ; 1120837.998835454 ; 1395871.2483594322 ; 14280.000000000002
61 ; 23952.789358053815 ; 23264.520805990513 ; 1144680.990035744 ; 1419135.7691654228 ; 14518.000000000002
62 ; 24080.88909378948 ; 23264.520805990513 ; 1168633.7793937977 ; 1442400.2899714133 ; 14756.000000000002
63 ; 24016.400563812917 ; 23264.520805990513 ; 1192714.6684875872 ; 1465664.8107774039 ; 14994.000000000002
64 ; 24402.419490457836 ; 23264.520805990513 ; 1216731.0690514 ; 1488929.3315833944 ; 15232.000000000002
65 ; 24260.02492967796 ; 23264.520805990513 ; 1241133.4885418578 ; 1512193.852389385 ; 15470.000000000002
66 ; 24450.96128054062 ; 23264.520805990513 ; 1265393.5134715359 ; 1535458.3731953755 ; 15708.000000000002
67 ; 24399.74853820568 ; 23264.520805990513 ; 1289844.4747520764 ; 1558722.894001366 ; 15946.000000000002
68 ; 24533.863807332407 ; 23264.520805990513 ; 1314244.223290282 ; 1581987.4148073567 ; 16184.000000000002
69 ; 24459.948530952403 ; 23264.520805990513 ; 1338778.0870976145 ; 1605251.9356133472 ; 16422.000000000004
70 ; 24545.298015377004 ; 23264.520805990513 ; 1363238.035628567 ; 1628516.4564193378 ; 16660.000000000004
71 ; 24419.93051078855 ; 23264.520805990513 ; 1387783.333643944 ; 1651780.9772253283 ; 16898.000000000004
72 ; 24707.53957235859 ; 23264.520805990513 ; 1412203.2641547325 ; 1675045.498031319 ; 17136.000000000004
73 ; 24604.52905677911 ; 23264.520805990513 ; 1436910.803727091 ; 1698310.0188373094 ; 17374.000000000004
74 ; 24671.025865702017 ; 23264.520805990513 ; 1461515.3327838702 ; 1721574.5396433 ; 17612.000000000004
75 ; 24651.240581885442 ; 23264.520805990513 ; 1486186.3586495721 ; 1744839.0604492906 ; 17850.000000000004
76 ; 24913.259939515414 ; 23264.520805990513 ; 1510837.5992314576 ; 1768103.581255281 ; 18088.000000000004
77 ; 24760.539202147684 ; 23264.520805990513 ; 1535750.859170973 ; 1791368.1020612717 ; 18326.000000000004
78 ; 24775.63189104906 ; 23264.520805990513 ; 1560511.3983731207 ; 1814632.6228672622 ; 18564.000000000004
79 ; 24757.206152499926 ; 23264.520805990513 ; 1585287.0302641697 ; 1837897.1436732528 ; 18802.000000000004
80 ; 24803.1061813287 ; 23264.520805990513 ; 1610044.2364166696 ; 1861161.6644792433 ; 19040.000000000004
81 ; 24721.13700124071 ; 23264.520805990513 ; 1634847.3425979982 ; 1884426.185285234 ; 19278.000000000004
82 ; 24755.62834739544 ; 23264.520805990513 ; 1659568.4795992388 ; 1907690.7060912244 ; 19516.000000000004
83 ; 24878.39380641055 ; 23264.520805990513 ; 1684324.1079466343 ; 1930955.226897215 ; 19754.000000000004
84 ; 24683.87102845493 ; 23264.520805990513 ; 1709202.5017530448 ; 1954219.7477032056 ; 19992.000000000004
85 ; 24783.321846828956 ; 23264.520805990513 ; 1733886.3727814998 ; 1977484.2685091961 ; 20230.000000000004
86 ; 24865.391646235435 ; 23264.520805990513 ; 1758669.6946283288 ; 2000748.7893151867 ; 20468.000000000004
87 ; 24859.637004883367 ; 23264.520805990513 ; 1783535.0862745643 ; 2024013.3101211772 ; 20706.000000000004
88 ; 24551.60871941102 ; 23264.520805990513 ; 1808394.7232794475 ; 2047277.8309271678 ; 20944.000000000004
89 ; 24461.49342877634 ; 23264.520805990513 ; 1832946.3319988586 ; 2070542.3517331583 ; 21182.000000000004
90 ; 24405.25669950034 ; 23264.520805990513 ; 1857407.8254276349 ; 2093806.872539149 ; 21420.000000000004
91 ; 24556.228488390945 ; 23264.520805990513 ; 1881813.0821271352 ; 2117071.3933451395 ; 21658.000000000004
92 ; 24606.881959944025 ; 23264.520805990513 ; 1906369.3106155263 ; 2140335.91415113 ; 21896.000000000004
93 ; 24422.079037494375 ; 23264.520805990513 ; 1930976.1925754703 ; 2163600.43495712 ; 22134.000000000004
94 ; 24503.723352920508 ; 23264.520805990513 ; 1955398.2716129646 ; 2186864.9557631104 ; 22372.000000000004
95 ; 24366.179618865208 ; 23264.520805990513 ; 1979901.994965885 ; 2210129.4765691007 ; 22610.000000000004
96 ; 24539.812168463974 ; 23264.520805990513 ; 2004268.1745847503 ; 2233393.997375091 ; 22848.000000000004
97 ; 24203.121760268965 ; 23264.520805990513 ; 2028807.9867532144 ; 2256658.5181810814 ; 23086.000000000004
98 ; 23891.36928653011 ; 23264.520805990513 ; 2053011.1085134833 ; 2279923.0389870717 ; 23324.000000000004
99 ; 24108.4309535249 ; 23264.520805990513 ; 2076902.4778000135 ; 2303187.559793062 ; 23562.000000000004
100 ; 23973.4669154524 ; 23264.520805990513 ; 2101010.9087535385 ; 2326452.0805990524 ; 23800.000000000004
101 ; 23853.728229536264 ; 23264.520805990513 ; 2124984.375668991 ; 2349716.6014050427 ; 24038.000000000004
102 ; 23835.383991106693 ; 23264.520805990513 ; 2148838.103898527 ; 2372981.122211033 ; 24276.000000000004
103 ; 23719.122357218374 ; 23264.520805990513 ; 2172673.487889634 ; 2396245.6430170233 ; 24514.000000000004
104 ; 23737.025667855614 ; 23264.520805990513 ; 2196392.6102468525 ; 2419510.1638230137 ; 24752.000000000004
105 ; 23526.148225113193 ; 23264.520805990513 ; 2220129.635914708 ; 2442774.684629004 ; 24990.000000000004
106 ; 23628.26371307012 ; 23264.520805990513 ; 2243655.7841398213 ; 2466039.2054349943 ; 25228.000000000004
107 ; 23488.06114489681 ; 23264.520805990513 ; 2267284.0478528915 ; 2489303.7262409846 ; 25466.000000000004
108 ; 23184.62150413021 ; 23264.520805990513 ; 2290772.1089977883 ; 2512568.247046975 ; 25704.000000000004
109 ; 23163.05040902278 ; 23264.520805990513 ; 2313956.7305019186 ; 2535832.7678529653 ; 25942.000000000004
110 ; 23140.96684506251 ; 23264.520805990513 ; 2337119.7809109413 ; 2559097.2886589556 ; 26180.000000000004
111 ; 22810.896210559105 ; 23264.520805990513 ; 2360260.747756004 ; 2582361.809464946 ; 26418.000000000004
112 ; 22731.374314784607 ; 23264.520805990513 ; 2383071.643966563 ; 2605626.3302709362 ; 26656.000000000004
113 ; 22522.90234775324 ; 23264.520805990513 ; 2405803.0182813476 ; 2628890.8510769266 ; 26894.000000000004
114 ; 22697.365187149237 ; 23264.520805990513 ; 2428325.920629101 ; 2652155.371882917 ; 27132.000000000004
115 ; 22320.879544585292 ; 23264.520805990513 ; 2451023.28581625 ; 2675419.892688907 ; 27370.000000000004
116 ; 22202.431778811333 ; 23264.520805990513 ; 2473344.1653608354 ; 2698684.4134948975 ; 27608.000000000004
117 ; 22049.692135189263 ; 23264.520805990513 ; 2495546.5971396468 ; 2721948.934300888 ; 27846.000000000004
118 ; 21866.31181432187 ; 23264.520805990513 ; 2517596.289274836 ; 2745213.455106878 ; 28084.000000000004
119 ; 21817.53036518358 ; 23264.520805990513 ; 2539462.6010891576 ; 2768477.9759128685 ; 28322.000000000004
120 ; 21574.290327096052 ; 23264.520805990513 ; 2561280.131454341 ; 2791742.496718859 ; 28560.000000000004
121 ; 21485.19411871216 ; 23264.520805990513 ; 2582854.421781437 ; 2815007.017524849 ; 28798.000000000004
122 ; 21307.938267496185 ; 23264.520805990513 ; 2604339.615900149 ; 2838271.5383308395 ; 29036.000000000004
123 ; 20972.26415723284 ; 23264.520805990513 ; 2625647.5541676455 ; 2861536.05913683 ; 29274.000000000004
124 ; 20820.81799598877 ; 23264.520805990513 ; 2646619.8183248783 ; 2884800.57994282 ; 29512.000000000004
125 ; 20870.475552172215 ; 23264.520805990513 ; 2667440.636320867 ; 2908065.1007488105 ; 29750.000000000004
126 ; 20716.787168354975 ; 23264.520805990513 ; 2688311.1118730395 ; 2931329.621554801 ; 29988.000000000004
127 ; 20343.869093252015 ; 23264.520805990513 ; 2709027.8990413947 ; 2954594.142360791 ; 30226.000000000004
128 ; 20145.447125431376 ; 23264.520805990513 ; 2729371.7681346466 ; 2977858.6631667814 ; 30464.000000000004
129 ; 19896.44861290252 ; 23264.520805990513 ; 2749517.2152600777 ; 3001123.1839727717 ; 30702.000000000004
130 ; 19800.18843053304 ; 23264.520805990513 ; 2769413.66387298 ; 3024387.704778762 ; 30940.000000000004
131 ; 19706.277327101347 ; 23264.520805990513 ; 2789213.852303513 ; 3047652.2255847524 ; 31178.000000000004
132 ; 19254.705873394658 ; 23264.520805990513 ; 2808920.129630614 ; 3070916.7463907427 ; 31416.000000000004
133 ; 19146.460595683446 ; 23264.520805990513 ; 2828174.835504009 ; 3094181.267196733 ; 31654.000000000004
134 ; 18861.65285857237 ; 23264.520805990513 ; 2847321.2960996926 ; 3117445.7880027234 ; 31892.000000000004
135 ; 18785.6350829184 ; 23264.520805990513 ; 2866182.948958265 ; 3140710.3088087137 ; 32130.000000000004
136 ; 18537.58428865635 ; 23264.520805990513 ; 2884968.5840411833 ; 3163974.829614704 ; 32368.000000000004
137 ; 18249.912604230758 ; 23264.520805990513 ; 2903506.1683298396 ; 3187239.3504206943 ; 32606.000000000004
138 ; 17908.690214558 ; 23264.520805990513 ; 2921756.0809340705 ; 3210503.8712266847 ; 32844.00000000001
139 ; 17805.547770971458 ; 23264.520805990513 ; 2939664.7711486286 ; 3233768.392032675 ; 33082.00000000001
140 ; 17557.566696635942 ; 23264.520805990513 ; 2957470.3189196 ; 3257032.9128386653 ; 33320.00000000001
141 ; 17323.343262338392 ; 23264.520805990513 ; 2975027.885616236 ; 3280297.4336446556 ; 33558.00000000001
142 ; 17149.639335122924 ; 23264.520805990513 ; 2992351.2288785744 ; 3303561.954450646 ; 33796.00000000001
143 ; 16633.786976044736 ; 23264.520805990513 ; 3009500.8682136973 ; 3326826.4752566363 ; 34034.00000000001
144 ; 16497.16917257566 ; 23264.520805990513 ; 3026134.655189742 ; 3350090.9960626266 ; 34272.00000000001
145 ; 16438.935020868463 ; 23264.520805990513 ; 3042631.8243623176 ; 3373355.516868617 ; 34510.00000000001
146 ; 16298.155892504938 ; 23264.520805990513 ; 3059070.759383186 ; 3396620.0376746072 ; 34748.00000000001
147 ; 16069.278279631053 ; 23264.520805990513 ; 3075368.915275691 ; 3419884.5584805976 ; 34986.00000000001
148 ; 16183.56257754154 ; 23264.520805990513 ; 3091438.193555322 ; 3443149.079286588 ; 35224.00000000001
149 ; 15887.922548594173 ; 23264.520805990513 ; 3107621.7561328635 ; 3466413.600092578 ; 35462.00000000001
150 ; 15815.55685595219 ; 23264.520805990513 ; 3123509.6786814574 ; 3489678.1208985685 ; 35700.00000000001
151 ; 15775.882948644545 ; 23264.520805990513 ; 3139325.23553741 ; 3512942.641704559 ; 35938.00000000001
152 ; 15991.48454343185 ; 23264.520805990513 ; 3155101.1184860542 ; 3536207.162510549 ; 36176.00000000001
153 ; 15729.360741534083 ; 23264.520805990513 ; 3171092.6030294863 ; 3559471.6833165395 ; 36414.00000000001
154 ; 15634.923495527875 ; 23264.520805990513 ; 3186821.9637710205 ; 3582736.20412253 ; 36652.00000000001
155 ; 15432.155757356702 ; 23264.520805990513 ; 3202456.8872665484 ; 3606000.72492852 ; 36890.00000000001
156 ; 15578.016420574984 ; 23264.520805990513 ; 3217889.0430239053 ; 3629265.2457345105 ; 37128.00000000001
157 ; 15283.33099151627 ; 23264.520805990513 ; 3233467.05944448 ; 3652529.766540501 ; 37366.00000000001
158 ; 15292.894625829711 ; 23264.520805990513 ; 3248750.3904359965 ; 3675794.287346491 ; 37604.00000000001
159 ; 15277.665537869274 ; 23264.520805990513 ; 3264043.285061826 ; 3699058.8081524814 ; 37842.00000000001
160 ; 15049.4447708782 ; 23264.520805990513 ; 3279320.950599695 ; 3722323.328958472 ; 38080.00000000001
161 ; 14807.400901730029 ; 23264.520805990513 ; 3294370.3953705733 ; 3745587.849764462 ; 38318.00000000001
162 ; 14747.5457286789 ; 23264.520805990513 ; 3309177.7962723034 ; 3768852.3705704524 ; 38556.00000000001
163 ; 14635.88090322482 ; 23264.520805990513 ; 3323925.3420009823 ; 3792116.8913764427 ; 38794.00000000001
164 ; 14536.458153419664 ; 23264.520805990513 ; 3338561.222904207 ; 3815381.412182433 ; 39032.00000000001
165 ; 14606.578936342696 ; 23264.520805990513 ; 3353097.681057627 ; 3838645.9329884234 ; 39270.00000000001
166 ; 14497.259089407326 ; 23264.520805990513 ; 3367704.2599939695 ; 3861910.4537944137 ; 39508.00000000001
167 ; 14246.474611454812 ; 23264.520805990513 ; 3382201.519083377 ; 3885174.974600404 ; 39746.00000000001
168 ; 14202.192483391445 ; 23264.520805990513 ; 3396447.9936948316 ; 3908439.4954063944 ; 39984.00000000001
169 ; 14097.384365264099 ; 23264.520805990513 ; 3410650.186178223 ; 3931704.0162123847 ; 40222.00000000001
170 ; 13745.012668065181 ; 23264.520805990513 ; 3424747.5705434876 ; 3954968.537018375 ; 40460.00000000001
171 ; 13758.360639483788 ; 23264.520805990513 ; 3438492.583211553 ; 3978233.0578243653 ; 40698.00000000001
172 ; 13660.13509815268 ; 23264.520805990513 ; 3452250.9438510365 ; 4001497.5786303557 ; 40936.00000000001
173 ; 13873.774335813481 ; 23264.520805990513 ; 3465911.0789491893 ; 4024762.099436346 ; 41174.00000000001
174 ; 13445.783742806747 ; 23264.520805990513 ; 3479784.853285003 ; 4048026.6202423363 ; 41412.00000000001
175 ; 13544.37840965021 ; 23264.520805990513 ; 3493230.63702781 ; 4071291.1410483266 ; 41650.00000000001
176 ; 13650.064224519916 ; 23264.520805990513 ; 3506775.01543746 ; 4094555.661854317 ; 41888.00000000001
177 ; 13361.238859897552 ; 23264.520805990513 ; 3520425.07966198 ; 4117820.1826603073 ; 42126.00000000001
178 ; 13584.318587037375 ; 23264.520805990513 ; 3533786.3185218773 ; 4141084.7034662976 ; 42364.00000000001
179 ; 13644.333196947578 ; 23264.520805990513 ; 3547370.6371089146 ; 4164349.224272288 ; 42602.00000000001
180 ; 13547.498780884363 ; 23264.520805990513 ; 3561014.970305862 ; 4187613.7450782782 ; 42840.00000000001
181 ; 13607.03943052223 ; 23264.520805990513 ; 3574562.469086746 ; 4210878.265884269 ; 43078.00000000001
182 ; 13670.29195533545 ; 23264.520805990513 ; 3588169.5085172686 ; 4234142.786690259 ; 43316.00000000001
183 ; 13570.582399428326 ; 23264.520805990513 ; 3601839.800472604 ; 4257407.30749625 ; 43554.00000000001
184 ; 13706.02934342122 ; 23264.520805990513 ; 3615410.3828720325 ; 4280671.82830224 ; 43792.00000000001
