CSV File for the City 3 on Day 207
1 - Minute m 
2 - Power Consumed at minute m 
3 - Power Produced at minute m 
4 - Energy Consumed since the beginning of the day 
5 - Energy Produced since the beginning of the day 
6 - Energy Lost since the beginning of the day on lines starting from the city
 
0 ; 4120.052622010155 ; 49774.15577028764 ; 0.0 ; 0.0 ; 0.0
1 ; 4516.280057212737 ; 49330.02850187703 ; 4120.052622010155 ; 49774.15577028764 ; 0.0
2 ; 5067.313314767684 ; 48929.14247780897 ; 8636.33267922289 ; 99104.18427216467 ; 0.0
3 ; 5411.752162788239 ; 48572.59924334501 ; 13703.645993990574 ; 148033.32674997364 ; 0.0
4 ; 5973.646608321747 ; 48261.40901693866 ; 19115.398156778814 ; 196605.92599331864 ; 0.0
5 ; 6416.173860838285 ; 47996.47786615177 ; 25089.04476510056 ; 244867.33501025732 ; 0.0
6 ; 6779.085718514285 ; 47778.59563733552 ; 31505.218625938844 ; 292863.8128764091 ; 0.0
7 ; 7258.925628953038 ; 47608.42498986289 ; 38284.30434445313 ; 340642.4085137446 ; 0.0
8 ; 7663.561430326803 ; 47486.49187410287 ; 45543.22997340617 ; 388250.8335036075 ; 0.0
9 ; 8225.631542777475 ; 47413.17776292118 ; 53206.79140373297 ; 435737.32537771034 ; 0.0
10 ; 8569.990811179036 ; 47388.713899642775 ; 61432.42294651044 ; 483150.50314063154 ; 0.0
11 ; 8977.892697418065 ; 47413.17776292118 ; 70002.41375768947 ; 530539.2170402743 ; 0.0
12 ; 9383.484684791043 ; 47486.49187410287 ; 78980.30645510754 ; 577952.3948031955 ; 0.0
13 ; 9876.205038825436 ; 47608.42498986289 ; 88363.79113989857 ; 625438.8866772983 ; 0.0
14 ; 10325.93406215859 ; 47778.59563733543 ; 98239.99617872402 ; 673047.3116671613 ; 0.0
15 ; 10531.239288987304 ; 47996.47786615177 ; 108565.9302408826 ; 720825.9073044967 ; 0.0
16 ; 10963.736253911267 ; 48261.40901693866 ; 119097.1695298699 ; 768822.3851706485 ; 0.0
17 ; 11377.07186871955 ; 48572.59924334492 ; 130060.90578378117 ; 817083.7941875871 ; 0.0
18 ; 11795.86917091945 ; 48929.142477809066 ; 141437.97765250073 ; 865656.3934309321 ; 0.0
19 ; 12145.599240893334 ; 49330.028501876935 ; 153233.84682342017 ; 914585.5359087412 ; 0.0
20 ; 12483.379402846454 ; 49774.15577028773 ; 165379.4460643135 ; 963915.5644106182 ; 0.0
21 ; 12935.981985629925 ; 50260.344643243036 ; 177862.82546715994 ; 1013689.7201809059 ; 0.0
22 ; 13284.664381867287 ; 50787.350701136216 ; 190798.80745278986 ; 1063950.064824149 ; 0.0
23 ; 13563.668397548312 ; 51353.87784763536 ; 204083.47183465713 ; 1114737.4155252853 ; 0.0
24 ; 13783.63177013848 ; 51958.59094705565 ; 217647.14023220545 ; 1166091.2933729207 ; 0.0
25 ; 14134.909686267674 ; 52600.127787043435 ; 231430.77200234393 ; 1218049.8843199764 ; 0.0
26 ; 14611.788847635775 ; 53277.11020456566 ; 245565.6816886116 ; 1270650.0121070198 ; 0.0
27 ; 14912.69083739885 ; 53988.15425932467 ; 260177.47053624736 ; 1323927.1223115853 ; 0.0
28 ; 15276.661006735842 ; 54731.87938185643 ; 275090.16137364623 ; 1377915.2765709101 ; 0.0
29 ; 15563.982306840493 ; 55506.91646216438 ; 290366.8223803821 ; 1432647.1559527665 ; 0.0
30 ; 15694.85599671988 ; 56311.914877839794 ; 305930.8046872226 ; 1488154.072414931 ; 0.0
31 ; 16216.919888799423 ; 57145.54848779543 ; 321625.66068394243 ; 1544465.9872927708 ; 0.0
32 ; 16503.93563582381 ; 58006.520638988266 ; 337842.58057274186 ; 1601611.5357805663 ; 0.0
33 ; 16844.601188814217 ; 58893.5682491554 ; 354346.5162085657 ; 1659618.0564195546 ; 0.0
34 ; 17155.613355217534 ; 59805.46503918337 ; 371191.1173973799 ; 1718511.62466871 ; 0.0
35 ; 17462.540301630514 ; 60741.02399494885 ; 388346.73075259745 ; 1778317.0897078933 ; 0.0
36 ; 17659.93193202243 ; 61699.0991410414 ; 405809.27105422795 ; 1839058.1137028423 ; 0.0
37 ; 17793.442560377087 ; 62678.58670843124 ; 423469.2029862504 ; 1900757.2128438838 ; 0.0
38 ; 18057.078283181705 ; 63678.42577556375 ; 441262.64554662746 ; 1963435.799552315 ; 0.0
39 ; 18498.43058440258 ; 64697.598458149034 ; 459319.72382980917 ; 2027114.2253278787 ; 0.0
40 ; 18672.15123691877 ; 65735.12971760442 ; 477818.15441421175 ; 2091811.8237860277 ; 0.0
41 ; 18916.119982192573 ; 66790.08685213336 ; 496490.3056511305 ; 2157546.953503632 ; 0.0
42 ; 18968.94177793085 ; 67861.57872813537 ; 515406.4256333231 ; 2224337.0403557653 ; 0.0
43 ; 19418.810925403577 ; 68948.75480331437 ; 534375.367411254 ; 2292198.6190839005 ; 0.0
44 ; 19401.755076905116 ; 70050.80398668553 ; 553794.1783366576 ; 2361147.373887215 ; 0.0
45 ; 19910.16336401357 ; 71166.95337482124 ; 573195.9334135627 ; 2431198.1778739 ; 0.0
46 ; 19840.49219515043 ; 72296.46689821368 ; 593106.0967775763 ; 2502365.1312487214 ; 0.0
47 ; 20154.633876189582 ; 73438.64390662638 ; 612946.5889727267 ; 2574661.598146935 ; 0.0
48 ; 20589.128687283377 ; 74592.8177177822 ; 633101.2228489163 ; 2648100.2420535614 ; 0.0
49 ; 20665.739968303693 ; 75758.35414969218 ; 653690.3515361997 ; 2722693.0597713436 ; 0.0
50 ; 20817.35075601401 ; 76934.65005336114 ; 674356.0915045034 ; 2798451.413921036 ; 0.0
51 ; 20995.416591576315 ; 78121.1318594792 ; 695173.4422605174 ; 2875386.063974397 ; 0.0
52 ; 21122.642054629054 ; 79317.25414999922 ; 716168.8588520937 ; 2953507.195833876 ; 0.0
53 ; 21318.925179619393 ; 80522.49826317027 ; 737291.5009067227 ; 3032824.449983875 ; 0.0
54 ; 21443.28771599917 ; 81736.3709386065 ; 758610.4260863421 ; 3113346.9482470453 ; 0.0
55 ; 21841.87178751779 ; 82958.40300729177 ; 780053.7138023413 ; 3195083.319185652 ; 0.0
56 ; 21845.99545214045 ; 84188.14813000409 ; 801895.585589859 ; 3278041.7221929436 ; 0.0
57 ; 22047.52178037344 ; 85425.18158647083 ; 823741.5810419995 ; 3362229.870322948 ; 0.0
58 ; 22178.983254032046 ; 86669.09911659201 ; 845789.1028223729 ; 3447655.051909419 ; 0.0
59 ; 22485.66704007687 ; 87919.51581427992 ; 867968.086076405 ; 3534324.151026011 ; 0.0
60 ; 22654.789050142903 ; 89176.06507381816 ; 890453.7531164819 ; 3622243.666840291 ; 0.0
61 ; 22678.172102623208 ; 90438.39758813502 ; 913108.5421666248 ; 3711419.731914109 ; 0.0
62 ; 22744.75950134976 ; 91706.18039798319 ; 935786.714269248 ; 3801858.1295022443 ; 0.0
63 ; 22913.760030072153 ; 92979.09599070785 ; 958531.4737705977 ; 3893564.3099002275 ; 0.0
64 ; 22887.971641187345 ; 94256.84144705454 ; 981445.2338006699 ; 3986543.405890935 ; 0.0
65 ; 22996.51597802046 ; 95539.12763429945 ; 1004333.2054418572 ; 4080800.2473379895 ; 0.0
66 ; 23081.56669874569 ; 96825.67844386882 ; 1027329.7214198777 ; 4176339.374972289 ; 0.0
67 ; 23223.913473524066 ; 98116.23007154379 ; 1050411.2881186234 ; 4273165.053416158 ; 0.0
68 ; 23239.895212448533 ; 99410.53033830992 ; 1073635.2015921476 ; 4371281.283487702 ; 0.0
69 ; 23319.490992188064 ; 100708.33804990147 ; 1096875.096804596 ; 4470691.8138260115 ; 0.0
70 ; 23496.42552058732 ; 102009.42239310639 ; 1120194.587796784 ; 4571400.151875913 ; 0.0
71 ; 23648.817813078018 ; 103313.56236692806 ; 1143691.0133173713 ; 4673409.574269019 ; 0.0
72 ; 23688.156870206636 ; 104620.54624674593 ; 1167339.8311304492 ; 4776723.136635947 ; 0.0
73 ; 23546.75043520021 ; 105930.17107967407 ; 1191027.9880006558 ; 4881343.682882693 ; 0.0
74 ; 23687.446090525922 ; 107242.24220937701 ; 1214574.738435856 ; 4987273.8539623665 ; 0.0
75 ; 23689.816210060348 ; 108556.57282867284 ; 1238262.184526382 ; 5094516.096171743 ; 0.0
76 ; 23859.60956682471 ; 109872.98355832431 ; 1261952.0007364424 ; 5203072.669000416 ; 0.0
77 ; 23903.21261003069 ; 111191.30205049142 ; 1285811.6103032671 ; 5312945.65255874 ; 0.0
78 ; 23854.457122475415 ; 112511.36261539452 ; 1309714.822913298 ; 5424136.954609232 ; 0.0
79 ; 23898.74511472451 ; 113833.0058698084 ; 1333569.2800357733 ; 5536648.317224626 ; 0.0
80 ; 23771.465130944503 ; 115156.07840608332 ; 1357468.025150498 ; 5650481.323094435 ; 0.0
81 ; 23867.435056878585 ; 116480.43248045625 ; 1381239.4902814424 ; 5765637.401500518 ; 0.0
82 ; 23985.7915905513 ; 117805.92571948853 ; 1405106.925338321 ; 5882117.833980975 ; 0.0
83 ; 23983.99348775282 ; 119132.42084352914 ; 1429092.7169288723 ; 5999923.759700463 ; 0.0
84 ; 23926.07369245867 ; 120459.78540616875 ; 1453076.710416625 ; 6119056.180543993 ; 0.0
85 ; 23840.254734064973 ; 121787.89154871019 ; 1477002.7841090837 ; 6239515.965950161 ; 0.0
86 ; 23854.535030488743 ; 123116.61576873901 ; 1500843.0388431486 ; 6361303.857498871 ; 0.0
87 ; 23805.980142381624 ; 124445.83870193362 ; 1524697.5738736375 ; 6484420.47326761 ; 0.0
88 ; 23800.026724081916 ; 125775.44491630713 ; 1548503.5540160192 ; 6608866.311969544 ; 0.0
89 ; 23782.6263278592 ; 127105.32271812257 ; 1572303.5807401012 ; 6734641.756885851 ; 0.0
90 ; 23677.84007006002 ; 128435.36396876954 ; 1596086.2070679604 ; 6861747.079603974 ; 0.0
91 ; 23634.259009207486 ; 129765.4639119364 ; 1619764.0471380204 ; 6990182.443572743 ; 0.0
92 ; 23793.623465347926 ; 131095.52101045215 ; 1643398.306147228 ; 7119947.9074846795 ; 0.0
93 ; 23451.596537489473 ; 132425.436792212 ; 1667191.929612576 ; 7251043.428495131 ; 0.0
94 ; 23591.981963225637 ; 133755.11570463792 ; 1690643.5261500655 ; 7383468.865287343 ; 0.0
95 ; 23540.69143531473 ; 135084.46497715966 ; 1714235.508113291 ; 7517223.980991981 ; 0.0
96 ; 23338.107471388328 ; 136413.3944912344 ; 1737776.1995486058 ; 7652308.445969141 ; 0.0
97 ; 23087.09460307748 ; 137741.8166574535 ; 1761114.3070199941 ; 7788721.840460376 ; 0.0
98 ; 23139.924343748713 ; 139069.6462993138 ; 1784201.4016230716 ; 7926463.65711783 ; 0.0
99 ; 22866.12532385489 ; 140396.8005432568 ; 1807341.3259668204 ; 8065533.303417143 ; 0.0
100 ; 22999.266515741423 ; 141723.1987146053 ; 1830207.4512906752 ; 8205930.1039604 ; 0.0
101 ; 22913.42273322114 ; 143048.7622390493 ; 1853206.7178064166 ; 8347653.302675006 ; 0.0
102 ; 22679.115646200422 ; 144373.41454935563 ; 1876120.1405396378 ; 8490702.064914055 ; 0.0
103 ; 22722.487115748423 ; 145697.08099699568 ; 1898799.2561858383 ; 8635075.479463411 ; 0.0
104 ; 22484.148182132813 ; 147019.68876840555 ; 1921521.7433015867 ; 8780772.560460407 ; 0.0
105 ; 22317.191964503065 ; 148341.16680561012 ; 1944005.8914837195 ; 8927792.249228813 ; 0.0
106 ; 22239.26698678855 ; 149661.44573095936 ; 1966323.0834482226 ; 9076133.416034423 ; 0.0
107 ; 22159.795015986063 ; 150980.45777574152 ; 1988562.350435011 ; 9225794.861765383 ; 0.0
108 ; 22056.95818400311 ; 152298.1367124514 ; 2010722.1454509972 ; 9376775.319541125 ; 0.0
109 ; 21879.707935473984 ; 153614.4177905066 ; 2032779.1036350003 ; 9529073.456253575 ; 0.0
110 ; 21797.252668720514 ; 154929.2376752168 ; 2054658.8115704742 ; 9682687.874044081 ; 0.0
111 ; 21547.382900803364 ; 156242.53438982344 ; 2076456.0642391946 ; 9837617.111719297 ; 0.0
112 ; 21333.84185038241 ; 157554.24726043796 ; 2098003.447139998 ; 9993859.64610912 ; 0.0
113 ; 20970.543419160313 ; 158864.31686371742 ; 2119337.2889903802 ; 1.015141389336956E7 ; 0.0
114 ; 21010.260307284832 ; 160172.6849771265 ; 2140307.8324095407 ; 1.0310278210233277E7 ; 0.0
115 ; 20733.75446392541 ; 161479.29453164322 ; 2161318.0927168257 ; 1.0470450895210404E7 ; 0.0
116 ; 20577.886601986538 ; 162784.08956677478 ; 2182051.847180751 ; 1.0631930189742047E7 ; 0.0
117 ; 20506.887286757064 ; 164087.01518775825 ; 2202629.7337827375 ; 1.0794714279308822E7 ; 0.0
118 ; 20180.385808783747 ; 165388.01752482698 ; 2223136.6210694946 ; 1.0958801294496581E7 ; 0.0
119 ; 20009.34800784285 ; 166687.0436944329 ; 2243317.006878278 ; 1.1124189312021408E7 ; 0.0
120 ; 19740.817046583426 ; 167984.0417623188 ; 2263326.354886121 ; 1.1290876355715841E7 ; 0.0
121 ; 19503.724208188876 ; 169278.96070834287 ; 2283067.1719327047 ; 1.145886039747816E7 ; 0.0
122 ; 19276.095611976925 ; 170571.75039296292 ; 2302570.8961408935 ; 1.1628139358186502E7 ; 0.0
123 ; 18926.78044435957 ; 171862.36152529216 ; 2321846.9917528704 ; 1.1798711108579464E7 ; 0.0
124 ; 18763.74531037681 ; 173150.74563264564 ; 2340773.77219723 ; 1.1970573470104756E7 ; 0.0
125 ; 18690.06077856184 ; 174436.8550314981 ; 2359537.5175076067 ; 1.21437242157374E7 ; 0.0
126 ; 18290.03450571092 ; 175720.64279978222 ; 2378227.5782861686 ; 1.2318161070768898E7 ; 0.0
127 ; 17963.03831145852 ; 177002.06275045624 ; 2396517.6127918796 ; 1.249388171356868E7 ; 0.0
128 ; 17668.931738332936 ; 178281.0694062781 ; 2414480.651103338 ; 1.2670883776319137E7 ; 0.0
129 ; 17399.55418332671 ; 179557.61797572317 ; 2432149.582841671 ; 1.2849164845725415E7 ; 0.0
130 ; 17237.10671163365 ; 180831.66432998833 ; 2449549.1370249977 ; 1.3028722463701138E7 ; 0.0
131 ; 16864.45583906251 ; 182103.16498102815 ; 2466786.2437366312 ; 1.3209554128031127E7 ; 0.0
132 ; 16461.636873909065 ; 183372.07706057106 ; 2483650.699575694 ; 1.3391657293012155E7 ; 0.0
133 ; 16363.338016960937 ; 184638.35830006693 ; 2500112.336449603 ; 1.3575029370072726E7 ; 0.0
134 ; 16033.883416231762 ; 185901.96701152006 ; 2516475.674466564 ; 1.3759667728372794E7 ; 0.0
135 ; 15784.840798754823 ; 187162.86206916432 ; 2532509.5578827956 ; 1.3945569695384314E7 ; 0.0
136 ; 15530.163702424514 ; 188421.00289193887 ; 2548294.3986815503 ; 1.4132732557453478E7 ; 0.0
137 ; 14974.35428909401 ; 189676.3494267256 ; 2563824.562383975 ; 1.4321153560345417E7 ; 0.0
138 ; 14677.35486063537 ; 190928.86213231212 ; 2578798.916673069 ; 1.4510829909772143E7 ; 0.0
139 ; 14380.041324240216 ; 192178.50196404444 ; 2593476.2715337044 ; 1.4701758771904455E7 ; 0.0
140 ; 13902.95077060076 ; 193425.23035913732 ; 2607856.3128579445 ; 1.48939372738685E7 ; 0.0
141 ; 13751.877563562715 ; 194669.00922261024 ; 2621759.263628545 ; 1.5087362504227636E7 ; 0.0
142 ; 13409.324660765133 ; 195909.8009138202 ; 2635511.141192108 ; 1.5282031513450246E7 ; 0.0
143 ; 13002.470395233202 ; 197147.56823356252 ; 2648920.465852873 ; 1.5477941314364066E7 ; 0.0
144 ; 12776.198364503896 ; 198382.27441171408 ; 2661922.936248106 ; 1.5675088882597629E7 ; 0.0
145 ; 12535.739045425194 ; 199613.88309539258 ; 2674699.1346126096 ; 1.5873471157009343E7 ; 0.0
146 ; 12493.927120469856 ; 200842.3583376091 ; 2687234.873658035 ; 1.6073085040104736E7 ; 0.0
147 ; 12440.851743169937 ; 202067.6645863904 ; 2699728.800778505 ; 1.6273927398442345E7 ; 0.0
148 ; 12276.483879787564 ; 203289.76667435034 ; 2712169.652521675 ; 1.6475995063028736E7 ; 0.0
149 ; 12168.77948396262 ; 204508.62980868915 ; 2724446.1364014624 ; 1.6679284829703087E7 ; 0.0
150 ; 12190.877248642973 ; 205724.21956160193 ; 2736614.915885425 ; 1.6883793459511776E7 ; 0.0
151 ; 11897.965123126787 ; 206936.50186107718 ; 2748805.793134068 ; 1.708951767907338E7 ; 0.0
152 ; 11709.48223131317 ; 208145.4429820691 ; 2760703.758257195 ; 1.7296454180934455E7 ; 0.0
153 ; 11923.352570423574 ; 209351.00953802542 ; 2772413.2404885083 ; 1.7504599623916525E7 ; 0.0
154 ; 11585.426157928869 ; 210553.16847275663 ; 2784336.5930589316 ; 1.771395063345455E7 ; 0.0
155 ; 11301.665014167418 ; 211751.88705263066 ; 2795922.0192168606 ; 1.7924503801927306E7 ; 0.0
156 ; 11342.622429135114 ; 212947.1328590788 ; 2807223.684231028 ; 1.8136255688979935E7 ; 0.0
157 ; 11236.36221088247 ; 214138.87378139954 ; 2818566.306660163 ; 1.8349202821839012E7 ; 0.0
158 ; 11140.037456824279 ; 215327.0780098472 ; 2829802.6688710456 ; 1.856334169562041E7 ; 0.0
159 ; 11117.201869205912 ; 216511.71402899374 ; 2840942.70632787 ; 1.8778668773630258E7 ; 0.0
160 ; 10786.248636202454 ; 217692.75061135067 ; 2852059.908197076 ; 1.8995180487659253E7 ; 0.0
161 ; 10767.706096515867 ; 218870.15681124144 ; 2862846.1568332785 ; 1.9212873238270603E7 ; 0.0
162 ; 10700.601476784012 ; 220043.90195891276 ; 2873613.8629297945 ; 1.9431743395081844E7 ; 0.0
163 ; 10515.827395405264 ; 221213.95565487494 ; 2884314.4644065783 ; 1.9651787297040757E7 ; 0.0
164 ; 10375.222363934361 ; 222380.28776446183 ; 2894830.2918019835 ; 1.987300125269563E7 ; 0.0
165 ; 10253.983826472202 ; 223542.86841260098 ; 2905205.514165918 ; 2.0095381540460095E7 ; 0.0
166 ; 10085.244501478768 ; 224701.66797878552 ; 2915459.4979923903 ; 2.0318924408872698E7 ; 0.0
167 ; 9848.449461684502 ; 225856.65709223863 ; 2925544.7424938693 ; 2.0543626076851483E7 ; 0.0
168 ; 9844.869698230348 ; 227007.80662726404 ; 2935393.191955554 ; 2.0769482733943723E7 ; 0.0
169 ; 9535.969849743351 ; 228155.08769877354 ; 2945238.061653784 ; 2.0996490540570986E7 ; 0.0
170 ; 9445.795088173627 ; 229298.47165798506 ; 2954774.0315035274 ; 2.1224645628269758E7 ; 0.0
171 ; 9412.128599951093 ; 230437.93008828422 ; 2964219.8265917012 ; 2.1453944099927742E7 ; 0.0
172 ; 9077.603216381303 ; 231573.4348012429 ; 2973631.9551916523 ; 2.1684382030016027E7 ; 0.0
173 ; 9066.363939411971 ; 232704.95783278774 ; 2982709.5584080336 ; 2.191595546481727E7 ; 0.0
174 ; 9050.463800503405 ; 233832.4714395139 ; 2991775.9223474455 ; 2.2148660422650058E7 ; 0.0
175 ; 9042.888691424381 ; 234955.94809513714 ; 3000826.386147949 ; 2.2382492894089572E7 ; 0.0
176 ; 9101.05509628 ; 236075.36048707884 ; 3009869.2748393733 ; 2.2617448842184708E7 ; 0.0
177 ; 9169.77771378195 ; 237190.68151317985 ; 3018970.329935653 ; 2.2853524202671785E7 ; 0.0
178 ; 9128.641512196225 ; 238301.88427853637 ; 3028140.1076494353 ; 2.3090714884184964E7 ; 0.0
179 ; 9389.102091743973 ; 239408.94209245447 ; 3037268.7491616313 ; 2.33290167684635E7 ; 0.0
180 ; 9137.49868625167 ; 240511.82846551808 ; 3046657.8512533754 ; 2.3568425710555956E7 ; 0.0
181 ; 9345.51626429635 ; 241610.51710676565 ; 3055795.349939627 ; 2.3808937539021473E7 ; 0.0
182 ; 9228.28301662673 ; 242704.98192097252 ; 3065140.8662039232 ; 2.4050548056128237E7 ; 0.0
183 ; 9270.367247471439 ; 243795.1970060333 ; 3074369.14922055 ; 2.429325303804921E7 ; 0.0
184 ; 9293.035755124143 ; 244881.1366504417 ; 3083639.5164680216 ; 2.453704823505524E7 ; 0.0
185 ; 9314.198656535056 ; 245962.7753308637 ; 3092932.5522231455 ; 2.4781929371705685E7 ; 0.0
186 ; 9338.170959366027 ; 247040.0877098001 ; 3102246.7508796807 ; 2.502789214703655E7 ; 0.0
187 ; 9433.773585630825 ; 248113.0486333358 ; 3111584.9218390468 ; 2.5274932234746348E7 ; 0.0
188 ; 9613.230060321768 ; 249181.6331289718 ; 3121018.695424678 ; 2.5523045283379685E7 ; 0.0
189 ; 9623.017979168839 ; 250245.81640353758 ; 3130631.9254849995 ; 2.5772226916508656E7 ; 0.0
190 ; 9448.521422545567 ; 251305.57384118033 ; 3140254.9434641683 ; 2.6022472732912194E7 ; 0.0
191 ; 9807.188561651748 ; 252360.88100142786 ; 3149703.464886714 ; 2.6273778306753375E7 ; 0.0
192 ; 9456.735170375152 ; 253411.71361732355 ; 3159510.6534483656 ; 2.6526139187754802E7 ; 0.0
193 ; 9580.258182449637 ; 254458.0475936295 ; 3168967.3886187407 ; 2.6779550901372127E7 ; 0.0
194 ; 9670.587549580237 ; 255499.8590050964 ; 3178547.6468011905 ; 2.7034008948965758E7 ; 0.0
195 ; 9698.233775723076 ; 256537.1240947963 ; 3188218.2343507707 ; 2.7289508807970855E7 ; 0.0
196 ; 9699.627222292269 ; 257569.81927251795 ; 3197916.468126494 ; 2.754604593206565E7 ; 0.0
197 ; 9745.663879365016 ; 258597.92111322028 ; 3207616.095348786 ; 2.780361575133817E7 ; 0.0
198 ; 9684.008839691713 ; 259621.4063555436 ; 3217361.7592281513 ; 2.8062213672451388E7 ; 0.0
199 ; 9787.055898565392 ; 260640.25190037547 ; 3227045.768067843 ; 2.8321835078806933E7 ; 0.0
200 ; 9781.1609368406 ; 261654.43480946985 ; 3236832.823966408 ; 2.8582475330707308E7 ; 0.0
201 ; 9753.651009379882 ; 262663.9323041168 ; 3246613.984903249 ; 2.8844129765516777E7 ; 0.0
202 ; 9801.284851343466 ; 263668.7217638621 ; 3256367.635912629 ; 2.9106793697820894E7 ; 0.0
203 ; 9815.97180591823 ; 264668.780725274 ; 3266168.920763972 ; 2.9370462419584755E7 ; 0.0
204 ; 9961.46014381277 ; 265664.08688075555 ; 3275984.8925698902 ; 2.963513120031003E7 ; 0.0
205 ; 9959.372123084484 ; 266654.61807740194 ; 3285946.352713703 ; 2.9900795287190784E7 ; 0.0
206 ; 10103.420229418898 ; 267640.35231589945 ; 3295905.7248367877 ; 3.0167449905268185E7 ; 0.0
207 ; 9959.328947169906 ; 268621.26774946606 ; 3306009.1450662063 ; 3.0435090257584084E7 ; 0.0
208 ; 9906.421214966722 ; 269597.34268283204 ; 3315968.474013376 ; 3.070371152533355E7 ; 0.0
209 ; 9958.76057632708 ; 270568.55557125795 ; 3325874.8952283426 ; 3.097330886801638E7 ; 0.0
210 ; 9967.58111886632 ; 271534.88501959026 ; 3335833.6558046695 ; 3.124387742358764E7 ; 0.0
211 ; 9899.100701600251 ; 272496.3097813525 ; 3345801.236923536 ; 3.1515412308607228E7 ; 0.0
212 ; 10232.032954342892 ; 273452.80875787063 ; 3355700.337625136 ; 3.1787908618388582E7 ; 0.0
