CSV File for the City 3 on Day 193
1 - Minute m 
2 - Power Consumed at minute m 
3 - Power Produced at minute m 
4 - Energy Consumed since the beginning of the day 
5 - Energy Produced since the beginning of the day 
6 - Energy Lost since the beginning of the day on lines starting from the city
 
0 ; 4308.860392016532 ; 68538.03984789414 ; 0.0 ; 0.0 ; 0.0
1 ; 4669.439245983024 ; 68164.14347293781 ; 4308.860392016532 ; 68538.03984789414 ; 0.0
2 ; 5063.884975302584 ; 67827.78051035684 ; 8978.299637999557 ; 136702.18332083194 ; 0.0
3 ; 5469.656758947542 ; 67529.53761397213 ; 14042.18461330214 ; 204529.9638311888 ; 0.0
4 ; 6031.3482443627645 ; 67269.94465487072 ; 19511.841372249684 ; 272059.50144516095 ; 0.0
5 ; 6507.993968531216 ; 67049.47042558053 ; 25543.18961661245 ; 339329.44610003167 ; 0.0
6 ; 6941.5373117737845 ; 66868.51872906726 ; 32051.183585143666 ; 406378.9165256122 ; 0.0
7 ; 7267.141563032977 ; 66727.42492625314 ; 38992.72089691745 ; 473247.4352546794 ; 0.0
8 ; 7657.827001089474 ; 66626.45300948543 ; 46259.86245995043 ; 539974.8601809326 ; 0.0
9 ; 8128.293408467496 ; 66565.7932608071 ; 53917.6894610399 ; 606601.313190418 ; 0.0
10 ; 8598.969253414583 ; 66545.56054323216 ; 62045.982869507396 ; 673167.106451225 ; 0.0
11 ; 8826.354550721107 ; 66565.7932608071 ; 70644.95212292198 ; 739712.6669944571 ; 0.0
12 ; 9272.62707110644 ; 66626.45300948543 ; 79471.30667364309 ; 806278.4602552642 ; 0.0
13 ; 9582.38725409728 ; 66727.42492625314 ; 88743.93374474953 ; 872904.9132647496 ; 0.0
14 ; 10036.838470656532 ; 66868.51872906719 ; 98326.32099884682 ; 939632.3381910027 ; 0.0
15 ; 10357.789820135247 ; 67049.47042558053 ; 108363.15946950334 ; 1006500.8569200699 ; 0.0
16 ; 10685.580932554023 ; 67269.94465487072 ; 118720.9492896386 ; 1073550.3273456504 ; 0.0
17 ; 11180.177906764311 ; 67529.53761397213 ; 129406.53022219261 ; 1140820.2720005212 ; 0.0
18 ; 11563.513827784973 ; 67827.78051035691 ; 140586.70812895693 ; 1208349.8096144933 ; 0.0
19 ; 11929.454426990596 ; 68164.14347293775 ; 152150.2219567419 ; 1276177.5901248502 ; 0.0
20 ; 12298.702900973123 ; 68538.03984789421 ; 164079.6763837325 ; 1344341.733597788 ; 0.0
21 ; 12554.596935022324 ; 68948.83080174025 ; 176378.37928470562 ; 1412879.7734456821 ; 0.0
22 ; 12808.395660825168 ; 69395.8301525362 ; 188932.97621972795 ; 1481828.6042474224 ; 0.0
23 ; 13126.038857407797 ; 69878.30935087142 ; 201741.3718805531 ; 1551224.4343999587 ; 0.0
24 ; 13445.659160776082 ; 70395.50253499213 ; 214867.41073796092 ; 1621102.7437508302 ; 0.0
25 ; 13897.520033202085 ; 70946.61158894298 ; 228313.069898737 ; 1691498.2462858222 ; 0.0
26 ; 14313.496276943848 ; 71530.81113849622 ; 242210.5899319391 ; 1762444.8578747653 ; 0.0
27 ; 14481.634096417045 ; 72147.2534266168 ; 256524.08620888295 ; 1833975.6690132616 ; 0.0
28 ; 14857.356367197166 ; 72795.07301790366 ; 271005.72030529997 ; 1906122.9224398783 ; 0.0
29 ; 15070.071280944341 ; 73473.39128952209 ; 285863.07667249715 ; 1978917.995457782 ; 0.0
30 ; 15409.303710670263 ; 74181.32067429285 ; 300933.1479534415 ; 2052391.3867473041 ; 0.0
31 ; 15583.520698846958 ; 74917.96862957961 ; 316342.45166411175 ; 2126572.707421597 ; 0.0
32 ; 15934.055516445847 ; 75682.44131318692 ; 331925.9723629587 ; 2201490.6760511766 ; 0.0
33 ; 16127.578265202688 ; 76473.84695448892 ; 347860.02787940454 ; 2277173.1173643637 ; 0.0
34 ; 16485.108361005863 ; 77291.29891533378 ; 363987.60614460724 ; 2353646.964318853 ; 0.0
35 ; 16640.068172543244 ; 78133.91844083152 ; 380472.7145056131 ; 2430938.2632341865 ; 0.0
36 ; 16998.24383681207 ; 79000.83710490334 ; 397112.78267815633 ; 2509072.181675018 ; 0.0
37 ; 17291.502778117745 ; 79891.19895944434 ; 414111.0265149684 ; 2588073.0187799213 ; 0.0
38 ; 17530.827756767983 ; 80804.16239915603 ; 431402.52929308615 ; 2667964.2177393655 ; 0.0
39 ; 17742.645469519804 ; 81738.90175658655 ; 448933.3570498541 ; 2748768.3801385215 ; 0.0
40 ; 17999.0273175533 ; 82694.60864373067 ; 466676.0025193739 ; 2830507.281895108 ; 0.0
41 ; 18300.892248346914 ; 83670.49305777226 ; 484675.0298369272 ; 2913201.8905388387 ; 0.0
42 ; 18395.697370895406 ; 84665.78426925378 ; 502975.9220852741 ; 2996872.3835966107 ; 0.0
43 ; 18828.21087267546 ; 85679.73151122723 ; 521371.61945616954 ; 3081538.1678658645 ; 0.0
44 ; 18905.149944570298 ; 86711.60448783345 ; 540199.830328845 ; 3167217.899377092 ; 0.0
45 ; 19215.824844731836 ; 87760.69372035864 ; 559104.9802734152 ; 3253929.5038649254 ; 0.0
46 ; 19556.482657940753 ; 88826.31074817566 ; 578320.805118147 ; 3341690.197585284 ; 0.0
47 ; 19485.66473937605 ; 89907.7882011641 ; 597877.2877760878 ; 3430516.5083334595 ; 0.0
48 ; 19780.736736708186 ; 91004.47975925794 ; 617362.9525154638 ; 3520424.2965346235 ; 0.0
49 ; 19748.188838873328 ; 92115.76001374154 ; 637143.689252172 ; 3611428.7762938812 ; 0.0
50 ; 20151.486196845108 ; 93241.02424383833 ; 656891.8780910453 ; 3703544.5363076227 ; 0.0
51 ; 20128.56200239645 ; 94379.68812103858 ; 677043.3642878904 ; 3796785.560551461 ; 0.0
52 ; 20384.223068746353 ; 95531.18735252605 ; 697171.9262902868 ; 3891165.2486724993 ; 0.0
53 ; 20576.602714309538 ; 96694.97727399581 ; 717556.1493590332 ; 3986696.4360250253 ; 0.0
54 ; 20731.31660222887 ; 97870.53240113083 ; 738132.7520733428 ; 4083391.4132990213 ; 0.0
55 ; 20847.412180543273 ; 99057.34594802922 ; 758864.0686755717 ; 4181261.9457001523 ; 0.0
56 ; 20908.90359644441 ; 100254.9293199552 ; 779711.480856115 ; 4280319.291648181 ; 0.0
57 ; 21163.17465158278 ; 101462.81158692909 ; 800620.3844525594 ; 4380574.220968137 ; 0.0
58 ; 21315.854642847527 ; 102680.53894387891 ; 821783.5591041421 ; 4482037.032555066 ; 0.0
59 ; 21518.112609938464 ; 103907.67416234827 ; 843099.4137469897 ; 4584717.571498945 ; 0.0
60 ; 21551.87543929147 ; 105143.79603808903 ; 864617.5263569282 ; 4688625.245661294 ; 0.0
61 ; 21626.47319192656 ; 106388.49883826407 ; 886169.4017962196 ; 4793769.041699383 ; 0.0
62 ; 21696.44023856266 ; 107641.39175144212 ; 907795.8749881462 ; 4900157.540537648 ; 0.0
63 ; 21819.426848301126 ; 108902.09834307802 ; 929492.3152267089 ; 5007798.93228909 ; 0.0
64 ; 22098.143714871643 ; 110170.25601873438 ; 951311.74207501 ; 5116701.030632168 ; 0.0
65 ; 22171.86365201309 ; 111445.51549691588 ; 973409.8857898816 ; 5226871.286650903 ; 0.0
66 ; 22268.572479529423 ; 112727.54029304264 ; 995581.7494418947 ; 5338316.802147819 ; 0.0
67 ; 22329.654072998495 ; 114016.00621578758 ; 1017850.3219214241 ; 5451044.342440861 ; 0.0
68 ; 22347.56882388381 ; 115310.60087674121 ; 1040179.9759944226 ; 5565060.348656649 ; 0.0
69 ; 22546.13153331907 ; 116611.02321413295 ; 1062527.5448183063 ; 5680370.94953339 ; 0.0
70 ; 22645.172951290988 ; 117916.98303114217 ; 1085073.6763516255 ; 5796981.972747522 ; 0.0
71 ; 22699.015415759048 ; 119228.20054915684 ; 1107718.8493029166 ; 5914898.955778665 ; 0.0
72 ; 22657.51601039656 ; 120544.40597619138 ; 1130417.8647186756 ; 6034127.156327821 ; 0.0
73 ; 22627.76282624732 ; 121865.33909054902 ; 1153075.3807290723 ; 6154671.5623040125 ; 0.0
74 ; 22709.01174379991 ; 123190.74883970633 ; 1175703.1435553196 ; 6276536.901394562 ; 0.0
75 ; 22682.9261271707 ; 124520.39295430844 ; 1198412.1552991197 ; 6399727.650234268 ; 0.0
76 ; 22877.986535619064 ; 125854.03757708846 ; 1221095.0814262903 ; 6524248.043188577 ; 0.0
77 ; 22906.433498363207 ; 127191.45690646309 ; 1243973.0679619093 ; 6650102.080765665 ; 0.0
78 ; 22899.322010513406 ; 128532.43285450652 ; 1266879.5014602726 ; 6777293.537672128 ; 0.0
79 ; 22930.406282657656 ; 129876.75471896345 ; 1289778.823470786 ; 6905825.970526634 ; 0.0
80 ; 22969.231442980923 ; 131224.2188689323 ; 1312709.2297534437 ; 7035702.725245597 ; 0.0
81 ; 23066.705812012988 ; 132574.62844382445 ; 1335678.4611964247 ; 7166926.9441145295 ; 0.0
82 ; 22797.22114454979 ; 133927.7930651883 ; 1358745.1670084377 ; 7299501.572558354 ; 0.0
83 ; 23086.0621604705 ; 135283.52856097484 ; 1381542.3881529875 ; 7433429.365623542 ; 0.0
84 ; 22895.914620946543 ; 136641.6567018145 ; 1404628.450313458 ; 7568712.894184517 ; 0.0
85 ; 22856.997774648615 ; 138002.00494887112 ; 1427524.3649344046 ; 7705354.550886331 ; 0.0
86 ; 22958.35429639653 ; 139364.40621283944 ; 1450381.3627090533 ; 7843356.555835202 ; 0.0
87 ; 22918.6124412975 ; 140728.69862365501 ; 1473339.7170054498 ; 7982720.962048042 ; 0.0
88 ; 22828.301027550162 ; 142094.72531049076 ; 1496258.3294467472 ; 8123449.660671697 ; 0.0
89 ; 22989.356202619718 ; 143462.33419162186 ; 1519086.6304742973 ; 8265544.385982187 ; 0.0
90 ; 22762.8823633227 ; 144831.3777737481 ; 1542075.986676917 ; 8409006.72017381 ; 0.0
91 ; 22738.56934567408 ; 146201.71296037355 ; 1564838.8690402396 ; 8553838.097947558 ; 0.0
92 ; 22653.199139523298 ; 147573.20086885474 ; 1587577.4383859136 ; 8700039.810907932 ; 0.0
93 ; 22581.324831179594 ; 148945.70665573797 ; 1610230.637525437 ; 8847613.011776786 ; 0.0
94 ; 22580.109549974313 ; 150319.09935002096 ; 1632811.9623566165 ; 8996558.718432525 ; 0.0
95 ; 22380.696359171838 ; 151693.25169398385 ; 1655392.0719065908 ; 9146877.817782545 ; 0.0
96 ; 22351.483187749396 ; 153068.0399912498 ; 1677772.7682657626 ; 9298571.06947653 ; 0.0
97 ; 22399.223770576657 ; 154443.3439617452 ; 1700124.2514535119 ; 9451639.10946778 ; 0.0
98 ; 22169.889210488316 ; 155819.04660324522 ; 1722523.4752240886 ; 9606082.453429526 ; 0.0
99 ; 22186.430414919578 ; 157195.0340591999 ; 1744693.364434577 ; 9761901.500032771 ; 0.0
100 ; 22108.46136185306 ; 158571.1954925513 ; 1766879.7948494966 ; 9919096.534091972 ; 0.0
101 ; 21928.594284204315 ; 159947.42296526226 ; 1788988.2562113497 ; 1.0077667729584523E7 ; 0.0
102 ; 21887.64299374099 ; 161323.6113232899 ; 1810916.850495554 ; 1.0237615152549785E7 ; 0.0
103 ; 21657.261082863537 ; 162699.65808674952 ; 1832804.493489295 ; 1.0398938763873074E7 ; 0.0
104 ; 21674.07655319139 ; 164075.4633450244 ; 1854461.7545721584 ; 1.0561638421959823E7 ; 0.0
105 ; 21789.322528076784 ; 165450.92965658876 ; 1876135.8311253497 ; 1.0725713885304848E7 ; 0.0
106 ; 21403.55416649907 ; 166825.96195332188 ; 1897925.1536534266 ; 1.0891164814961437E7 ; 0.0
107 ; 21183.504477386 ; 168200.4674491014 ; 1919328.7078199256 ; 1.1057990776914759E7 ; 0.0
108 ; 21164.77547420438 ; 169574.35555247287 ; 1940512.2122973115 ; 1.122619124436386E7 ; 0.0
109 ; 21053.431135715673 ; 170947.53778320402 ; 1961676.987771516 ; 1.1395765599916331E7 ; 0.0
110 ; 20829.38636283971 ; 172319.92769253903 ; 1982730.4189072317 ; 1.1566713137699535E7 ; 0.0
111 ; 20641.010368314222 ; 173691.44078697872 ; 2003559.8052700714 ; 1.1739033065392073E7 ; 0.0
112 ; 20567.2037282394 ; 175061.9944554197 ; 2024200.8156383857 ; 1.1912724506179051E7 ; 0.0
113 ; 20342.274301559744 ; 176431.5078994943 ; 2044768.0193666252 ; 1.2087786500634471E7 ; 0.0
114 ; 20314.84848229157 ; 177799.90206695962 ; 2065110.293668185 ; 1.2264218008533966E7 ; 0.0
115 ; 19951.924823838068 ; 179167.0995879934 ; 2085425.1421504766 ; 1.2442017910600925E7 ; 0.0
116 ; 19863.136639835717 ; 180533.02471425914 ; 2105377.066974315 ; 1.2621185010188919E7 ; 0.0
117 ; 19663.350912163347 ; 181897.60326061057 ; 2125240.2036141506 ; 1.2801718034903178E7 ; 0.0
118 ; 19467.8347554693 ; 183260.7625493123 ; 2144903.554526314 ; 1.2983615638163788E7 ; 0.0
119 ; 19328.565923776157 ; 184622.43135665878 ; 2164371.3892817833 ; 1.3166876400713101E7 ; 0.0
120 ; 18972.75049839339 ; 185982.53986187995 ; 2183699.9552055593 ; 1.335149883206976E7 ; 0.0
121 ; 18887.503827147408 ; 187341.0195982267 ; 2202672.705703953 ; 1.353748137193164E7 ; 0.0
122 ; 18755.299516088264 ; 188697.80340613588 ; 2221560.2095311 ; 1.3724822391529867E7 ; 0.0
123 ; 18314.000534082552 ; 190052.82538837768 ; 2240315.5090471883 ; 1.3913520194936004E7 ; 0.0
124 ; 18309.689975628113 ; 191406.02086709495 ; 2258629.509581271 ; 1.4103573020324381E7 ; 0.0
125 ; 18041.030471158065 ; 192757.3263426462 ; 2276939.1995568993 ; 1.4294979041191475E7 ; 0.0
126 ; 17548.59403366177 ; 194106.67945417098 ; 2294980.2300280575 ; 1.4487736367534121E7 ; 0.0
127 ; 17431.205388185885 ; 195454.01894179735 ; 2312528.8240617192 ; 1.4681843046988292E7 ; 0.0
128 ; 17307.90546052882 ; 196799.28461041825 ; 2329960.0294499053 ; 1.4877297065930089E7 ; 0.0
129 ; 16779.38293536469 ; 198142.41729496428 ; 2347267.9349104343 ; 1.5074096350540508E7 ; 0.0
130 ; 16716.061723409133 ; 199483.35882710523 ; 2364047.317845799 ; 1.5272238767835472E7 ; 0.0
131 ; 16447.06326692444 ; 200822.05200331716 ; 2380763.3795692082 ; 1.5471722126662577E7 ; 0.0
132 ; 16154.461967328583 ; 202158.44055425198 ; 2397210.442836133 ; 1.5672544178665893E7 ; 0.0
133 ; 15846.032604356775 ; 203492.46911535217 ; 2413364.9048034614 ; 1.5874702619220145E7 ; 0.0
134 ; 15563.136710508496 ; 204824.08319865513 ; 2429210.937407818 ; 1.6078195088335497E7 ; 0.0
135 ; 15246.280832015835 ; 206153.22916573402 ; 2444774.074118327 ; 1.6283019171534153E7 ; 0.0
136 ; 15123.295130340928 ; 207479.85420172452 ; 2460020.354950343 ; 1.6489172400699887E7 ; 0.0
137 ; 14823.785132079101 ; 208803.90629039 ; 2475143.6500806836 ; 1.6696652254901612E7 ; 0.0
138 ; 14261.838960486217 ; 210125.33419017974 ; 2489967.4352127626 ; 1.6905456161192004E7 ; 0.0
139 ; 14255.400727235483 ; 211444.08741123587 ; 2504229.2741732486 ; 1.7115581495382182E7 ; 0.0
140 ; 13765.913007460838 ; 212760.1161933083 ; 2518484.6749004843 ; 1.732702558279342E7 ; 0.0
141 ; 13484.292714006273 ; 214073.3714845382 ; 2532250.5879079453 ; 1.7539785698986728E7 ; 0.0
142 ; 13062.07992477163 ; 215383.8049210722 ; 2545734.8806219515 ; 1.7753859070471264E7 ; 0.0
143 ; 12743.126641627334 ; 216691.36880747203 ; 2558796.960546723 ; 1.7969242875392336E7 ; 0.0
144 ; 12274.574877543118 ; 217996.0160978843 ; 2571540.0871883505 ; 1.818593424419981E7 ; 0.0
145 ; 12265.091973178362 ; 219297.70037793982 ; 2583814.6620658934 ; 1.8403930260297693E7 ; 0.0
146 ; 12282.210616413084 ; 220596.37584734953 ; 2596079.754039072 ; 1.8623227960675634E7 ; 0.0
147 ; 12082.508964446492 ; 221891.9973031687 ; 2608361.964655485 ; 1.8843824336522985E7 ; 0.0
148 ; 12033.19508118728 ; 223184.52012370122 ; 2620444.4736199314 ; 1.9065716333826154E7 ; 0.0
149 ; 12039.672223533706 ; 224473.90025301598 ; 2632477.668701119 ; 1.9288900853949856E7 ; 0.0
150 ; 11859.141501723603 ; 225760.0941860511 ; 2644517.3409246523 ; 1.9513374754202873E7 ; 0.0
151 ; 11883.9107332618 ; 227043.0589542807 ; 2656376.482426376 ; 1.9739134848388925E7 ; 0.0
152 ; 11543.817841048833 ; 228322.7521119211 ; 2668260.3931596377 ; 1.9966177907343205E7 ; 0.0
153 ; 11507.40859333454 ; 229599.1317226541 ; 2679804.2110006865 ; 2.0194500659455128E7 ; 0.0
154 ; 11443.558187003464 ; 230872.1563468461 ; 2691311.6195940212 ; 2.0424099791177783E7 ; 0.0
155 ; 11322.175343336503 ; 232141.7850292431 ; 2702755.1777810245 ; 2.065497194752463E7 ; 0.0
156 ; 11199.938283827145 ; 233407.97728712123 ; 2714077.353124361 ; 2.0887113732553873E7 ; 0.0
157 ; 11063.26065515217 ; 234670.69309887546 ; 2725277.291408188 ; 2.1120521709840994E7 ; 0.0
158 ; 11035.209579566683 ; 235929.89289302775 ; 2736340.5520633403 ; 2.135519240293987E7 ; 0.0
159 ; 10759.269548004506 ; 237185.53753763883 ; 2747375.761642907 ; 2.15911222958329E7 ; 0.0
160 ; 10912.770969120484 ; 238437.58833010605 ; 2758135.0311909113 ; 2.1828307833370537E7 ; 0.0
161 ; 10566.021689824449 ; 239686.00698733327 ; 2769047.8021600316 ; 2.206674542170064E7 ; 0.0
162 ; 10460.337934637777 ; 240930.75563625697 ; 2779613.823849856 ; 2.2306431428687975E7 ; 0.0
163 ; 10477.425028332464 ; 242171.79680471533 ; 2790074.161784494 ; 2.254736218432423E7 ; 0.0
164 ; 10179.94833729822 ; 243409.0934126453 ; 2800551.5868128263 ; 2.2789533981128946E7 ; 0.0
165 ; 9958.488396870776 ; 244642.6087635973 ; 2810731.5351501247 ; 2.303294307454159E7 ; 0.0
166 ; 9796.91157426532 ; 245872.30653655215 ; 2820690.0235469956 ; 2.327758568330519E7 ; 0.0
167 ; 9848.626114902898 ; 247098.1507780309 ; 2830486.935121261 ; 2.352345798984174E7 ; 0.0
168 ; 9821.37748302476 ; 248320.1058944847 ; 2840335.561236164 ; 2.377055614061977E7 ; 0.0
169 ; 9581.75322005 ; 249538.1366449546 ; 2850156.938719189 ; 2.4018876246514253E7 ; 0.0
170 ; 9325.504267838967 ; 250752.20813399067 ; 2859738.691939239 ; 2.426841438315921E7 ; 0.0
171 ; 9330.082843719378 ; 251962.2858048207 ; 2869064.1962070777 ; 2.45191665912932E7 ; 0.0
172 ; 9096.214711766786 ; 253168.33543275882 ; 2878394.279050797 ; 2.477112887709802E7 ; 0.0
173 ; 9114.512148715701 ; 254370.32311884442 ; 2887490.493762564 ; 2.502429721253078E7 ; 0.0
174 ; 9013.725457464112 ; 255568.21528370408 ; 2896605.0059112795 ; 2.5278667535649624E7 ; 0.0
175 ; 9048.150610255721 ; 256761.97866162652 ; 2905618.731368744 ; 2.5534235750933327E7 ; 0.0
176 ; 9164.042329195923 ; 257951.58029484324 ; 2914666.8819789994 ; 2.5790997729594953E7 ; 0.0
177 ; 9116.181481220065 ; 259136.9875280078 ; 2923830.9243081952 ; 2.6048949309889797E7 ; 0.0
178 ; 9169.957434846223 ; 260318.16800286493 ; 2932947.1057894155 ; 2.6308086297417805E7 ; 0.0
179 ; 9084.073964750081 ; 261495.089653104 ; 2942117.0632242616 ; 2.656840446542067E7 ; 0.0
180 ; 9231.792720758021 ; 262667.72069938877 ; 2951201.1371890116 ; 2.6829899555073775E7 ; 0.0
181 ; 9357.02138512444 ; 263836.02964455745 ; 2960432.9299097694 ; 2.7092567275773164E7 ; 0.0
182 ; 9346.07706101457 ; 264999.98526898725 ; 2969789.951294894 ; 2.735640330541772E7 ; 0.0
183 ; 9244.896121143844 ; 266159.55662611674 ; 2979136.0283559086 ; 2.7621403290686708E7 ; 0.0
184 ; 9479.67948898547 ; 267314.7130381202 ; 2988380.9244770524 ; 2.7887562847312823E7 ; 0.0
185 ; 9274.94683322826 ; 268465.42409172957 ; 2997860.6039660377 ; 2.8154877560350943E7 ; 0.0
186 ; 9493.168606335945 ; 269611.65963419725 ; 3007135.550799266 ; 2.8423342984442674E7 ; 0.0
187 ; 9354.721028437501 ; 270753.3897693957 ; 3016628.7194056017 ; 2.8692954644076873E7 ; 0.0
188 ; 9336.720019553399 ; 271890.58485404856 ; 3025983.440434039 ; 2.8963708033846267E7 ; 0.0
189 ; 9371.215371072523 ; 273023.2154940883 ; 3035320.1604535924 ; 2.9235598618700314E7 ; 0.0
190 ; 9467.891766245912 ; 274151.252541137 ; 3044691.3758246647 ; 2.9508621834194403E7 ; 0.0
191 ; 9647.44579222588 ; 275274.66708910424 ; 3054159.2675909107 ; 2.978277308673554E7 ; 0.0
192 ; 9423.079078065804 ; 276393.43047089956 ; 3063806.7133831363 ; 3.0058047753824644E7 ; 0.0
193 ; 9462.711028306661 ; 277507.5142552544 ; 3073229.792461202 ; 3.0334441184295543E7 ; 0.0
194 ; 9574.194481794511 ; 278616.89024365036 ; 3082692.5034895088 ; 3.0611948698550798E7 ; 0.0
195 ; 9665.018249311019 ; 279721.5304673495 ; 3092266.6979713035 ; 3.0890565588794447E7 ; 0.0
196 ; 9615.644161328119 ; 280821.40718452353 ; 3101931.7162206145 ; 3.1170287119261798E7 ; 0.0
197 ; 9716.00147597868 ; 281916.4928774787 ; 3111547.3603819427 ; 3.145110852644632E7 ; 0.0
198 ; 9664.291648707327 ; 283006.7602499719 ; 3121263.3618579214 ; 3.17330250193238E7 ; 0.0
199 ; 9721.62596920179 ; 284092.1822246166 ; 3130927.6535066287 ; 3.2016031779573772E7 ; 0.0
200 ; 9556.420723003734 ; 285172.7319403741 ; 3140649.2794758305 ; 3.230012396179839E7 ; 0.0
201 ; 9685.889671124187 ; 286248.38275012776 ; 3150205.7001988343 ; 3.2585296693738762E7 ; 0.0
202 ; 9820.290339873669 ; 287319.1082183375 ; 3159891.5898699583 ; 3.287154507648889E7 ; 0.0
203 ; 9959.627767329428 ; 288384.8821187715 ; 3169711.880209832 ; 3.3158864184707228E7 ; 0.0
204 ; 9755.338387894188 ; 289445.6784323124 ; 3179671.5079771616 ; 3.3447249066826E7 ; 0.0
205 ; 9900.393978154387 ; 290501.4713448367 ; 3189426.8463650555 ; 3.373669474525832E7 ; 0.0
206 ; 10008.706317655138 ; 291552.2352451629 ; 3199327.24034321 ; 3.402719621660315E7 ; 0.0
207 ; 9908.111631622218 ; 292597.9447230674 ; 3209335.946660865 ; 3.431874845184831E7 ; 0.0
208 ; 10010.448667504172 ; 293638.5745673662 ; 3219244.058292487 ; 3.461134639657138E7 ; 0.0
209 ; 9900.579888148166 ; 294674.0997640586 ; 3229254.5069599915 ; 3.4904984971138746E7 ; 0.0
210 ; 10016.092596049164 ; 295704.49549453316 ; 3239155.0868481398 ; 3.51996590709028E7 ; 0.0
211 ; 10107.525330851606 ; 296729.73713383113 ; 3249171.1794441887 ; 3.549536356639733E7 ; 0.0
212 ; 10111.684811665487 ; 297749.8002489682 ; 3259278.7047750405 ; 3.579209330353116E7 ; 0.0
