CSV File for the City 2 on Day 225
1 - Minute m 
2 - Power Consumed at minute m 
3 - Power Produced at minute m 
4 - Energy Consumed since the beginning of the day 
5 - Energy Produced since the beginning of the day 
6 - Energy Lost since the beginning of the day on lines starting from the city
 
0 ; 4444.709561246302 ; 33854.39742111858 ; 0.0 ; 0.0 ; 0.0
1 ; 5017.888574653192 ; 33854.39742111858 ; 4444.709561246302 ; 33854.39742111858 ; 0.0
2 ; 5679.486661943262 ; 33854.39742111858 ; 9462.598135899494 ; 67708.79484223716 ; 0.0
3 ; 6166.787833832573 ; 33854.39742111858 ; 15142.084797842756 ; 101563.19226335574 ; 0.0
4 ; 6771.2134018676425 ; 33854.39742111858 ; 21308.872631675327 ; 135417.5896844743 ; 0.0
5 ; 7025.511502409843 ; 33854.39742111858 ; 28080.086033542968 ; 169271.98710559288 ; 0.0
6 ; 7653.796591368426 ; 33854.39742111858 ; 35105.59753595281 ; 203126.38452671145 ; 0.0
7 ; 8335.500277706713 ; 33854.39742111858 ; 42759.39412732123 ; 236980.78194783002 ; 0.0
8 ; 8856.222591060045 ; 33854.39742111858 ; 51094.894405027946 ; 270835.1793689486 ; 0.0
9 ; 9296.158368772733 ; 33854.39742111858 ; 59951.11699608799 ; 304689.5767900672 ; 0.0
10 ; 9831.082274521885 ; 33854.39742111858 ; 69247.27536486072 ; 338543.97421118576 ; 0.0
11 ; 10265.401369110506 ; 33854.39742111858 ; 79078.35763938261 ; 372398.37163230433 ; 0.0
12 ; 10681.56581196099 ; 33854.39742111858 ; 89343.75900849311 ; 406252.7690534229 ; 0.0
13 ; 11297.049953942585 ; 33854.39742111858 ; 100025.3248204541 ; 440107.1664745415 ; 0.0
14 ; 11652.897436934349 ; 33854.39742111858 ; 111322.37477439668 ; 473961.56389566005 ; 0.0
15 ; 12299.527219354854 ; 33854.39742111858 ; 122975.27221133103 ; 507815.9613167786 ; 0.0
16 ; 12663.2924493143 ; 33854.39742111858 ; 135274.79943068587 ; 541670.3587378972 ; 0.0
17 ; 13109.652836507075 ; 33854.39742111858 ; 147938.09188000017 ; 575524.7561590158 ; 0.0
18 ; 13672.875066972823 ; 33854.39742111858 ; 161047.74471650724 ; 609379.1535801344 ; 0.0
19 ; 13994.54822821515 ; 33854.39742111858 ; 174720.61978348007 ; 643233.551001253 ; 0.0
20 ; 14597.424894679038 ; 33854.39742111858 ; 188715.1680116952 ; 677087.9484223715 ; 0.0
21 ; 14981.549805278088 ; 33854.39742111858 ; 203312.59290637425 ; 710942.3458434901 ; 0.0
22 ; 15297.658353614077 ; 33854.39742111858 ; 218294.14271165233 ; 744796.7432646087 ; 0.0
23 ; 15534.18973744417 ; 33854.39742111858 ; 233591.8010652664 ; 778651.1406857272 ; 0.0
24 ; 16190.435301004243 ; 33854.39742111858 ; 249125.99080271056 ; 812505.5381068458 ; 0.0
25 ; 16495.532888135804 ; 33854.39742111858 ; 265316.4261037148 ; 846359.9355279644 ; 0.0
26 ; 16903.913930461353 ; 33854.39742111858 ; 281811.9589918506 ; 880214.332949083 ; 0.0
27 ; 17232.3286295122 ; 33854.39742111858 ; 298715.87292231194 ; 914068.7303702015 ; 0.0
28 ; 17722.99402679574 ; 33854.39742111858 ; 315948.20155182417 ; 947923.1277913201 ; 0.0
29 ; 18150.73315091812 ; 33854.39742111858 ; 333671.1955786199 ; 981777.5252124387 ; 0.0
30 ; 18289.68592275765 ; 33854.39742111858 ; 351821.928729538 ; 1015631.9226335572 ; 0.0
31 ; 18674.968936409376 ; 33854.39742111858 ; 370111.61465229566 ; 1049486.320054676 ; 0.0
32 ; 19244.576358169477 ; 33854.39742111858 ; 388786.58358870505 ; 1083340.7174757945 ; 0.0
33 ; 19437.467060746 ; 33854.39742111858 ; 408031.15994687454 ; 1117195.114896913 ; 0.0
34 ; 19760.415603437457 ; 33854.39742111858 ; 427468.6270076205 ; 1151049.5123180316 ; 0.0
35 ; 20191.160671108304 ; 33854.39742111858 ; 447229.042611058 ; 1184903.9097391502 ; 0.0
36 ; 20599.53737616346 ; 33854.39742111858 ; 467420.2032821663 ; 1218758.3071602688 ; 0.0
37 ; 20685.7702883557 ; 33854.39742111858 ; 488019.74065832974 ; 1252612.7045813873 ; 0.0
38 ; 21138.26019713159 ; 33854.39742111858 ; 508705.51094668545 ; 1286467.102002506 ; 0.0
39 ; 21201.63629277027 ; 33854.39742111858 ; 529843.771143817 ; 1320321.4994236245 ; 0.0
40 ; 21554.425294168883 ; 33854.39742111858 ; 551045.4074365873 ; 1354175.896844743 ; 0.0
41 ; 22047.05018023447 ; 33854.39742111858 ; 572599.8327307561 ; 1388030.2942658616 ; 0.0
42 ; 22278.58284326013 ; 33854.39742111858 ; 594646.8829109906 ; 1421884.6916869802 ; 0.0
43 ; 22497.254790461968 ; 33854.39742111858 ; 616925.4657542508 ; 1455739.0891080988 ; 0.0
44 ; 22850.742376137794 ; 33854.39742111858 ; 639422.7205447127 ; 1489593.4865292173 ; 0.0
45 ; 22896.22309586648 ; 33854.39742111858 ; 662273.4629208505 ; 1523447.883950336 ; 0.0
46 ; 23218.82212790282 ; 33854.39742111858 ; 685169.686016717 ; 1557302.2813714545 ; 0.0
47 ; 23546.023056799397 ; 33854.39742111858 ; 708388.5081446198 ; 1591156.678792573 ; 0.0
48 ; 23758.99547303322 ; 33854.39742111858 ; 731934.5312014192 ; 1625011.0762136916 ; 0.0
49 ; 23987.299172469928 ; 33854.39742111858 ; 755693.5266744524 ; 1658865.4736348102 ; 0.0
50 ; 24204.651330699868 ; 33854.39742111858 ; 779680.8258469222 ; 1692719.8710559288 ; 0.0
51 ; 24477.419353560428 ; 33854.39742111858 ; 803885.4771776221 ; 1726574.2684770473 ; 0.0
52 ; 24718.335728251568 ; 33854.39742111858 ; 828362.8965311826 ; 1760428.665898166 ; 0.0
53 ; 24704.151982494626 ; 33854.39742111858 ; 853081.2322594342 ; 1794283.0633192845 ; 0.0
54 ; 24920.159879057333 ; 33854.39742111858 ; 877785.3842419288 ; 1828137.460740403 ; 0.0
55 ; 25094.52460307667 ; 33854.39742111858 ; 902705.5441209861 ; 1861991.8581615216 ; 0.0
56 ; 25417.350432074658 ; 33854.39742111858 ; 927800.0687240628 ; 1895846.2555826402 ; 0.0
57 ; 25654.002909324518 ; 33854.39742111858 ; 953217.4191561374 ; 1929700.6530037588 ; 0.0
58 ; 25894.45777405187 ; 33854.39742111858 ; 978871.4220654619 ; 1963555.0504248773 ; 0.0
59 ; 25931.200842842787 ; 33854.39742111858 ; 1004765.8798395137 ; 1997409.447845996 ; 0.0
60 ; 25987.110827146407 ; 33854.39742111858 ; 1030697.0806823565 ; 2031263.8452671145 ; 0.0
61 ; 26156.73045391942 ; 33854.39742111858 ; 1056684.191509503 ; 2065118.242688233 ; 0.0
62 ; 26348.217503864173 ; 33854.39742111858 ; 1082840.9219634223 ; 2098972.640109352 ; 0.0
63 ; 26466.919864802043 ; 33854.39742111858 ; 1109189.1394672864 ; 2132827.0375304706 ; 0.0
64 ; 26536.303446713813 ; 33854.39742111858 ; 1135656.0593320886 ; 2166681.4349515894 ; 0.0
65 ; 26831.586432935954 ; 33854.39742111858 ; 1162192.3627788024 ; 2200535.8323727082 ; 0.0
66 ; 26760.58778671773 ; 33854.39742111858 ; 1189023.9492117383 ; 2234390.229793827 ; 0.0
67 ; 26933.356468067042 ; 33854.39742111858 ; 1215784.536998456 ; 2268244.627214946 ; 0.0
68 ; 26963.38973965563 ; 33854.39742111858 ; 1242717.8934665231 ; 2302099.0246360647 ; 0.0
69 ; 27171.964059377933 ; 33854.39742111858 ; 1269681.2832061788 ; 2335953.4220571835 ; 0.0
70 ; 27200.86004181724 ; 33854.39742111858 ; 1296853.2472655568 ; 2369807.8194783023 ; 0.0
71 ; 27313.0475642141 ; 33854.39742111858 ; 1324054.107307374 ; 2403662.216899421 ; 0.0
72 ; 27310.017012764165 ; 33854.39742111858 ; 1351367.154871588 ; 2437516.61432054 ; 0.0
73 ; 27418.580978650814 ; 33854.39742111858 ; 1378677.1718843523 ; 2471371.0117416587 ; 0.0
74 ; 27594.725536204645 ; 33854.39742111858 ; 1406095.7528630032 ; 2505225.4091627775 ; 0.0
75 ; 27661.106870325846 ; 33854.39742111858 ; 1433690.4783992078 ; 2539079.8065838963 ; 0.0
76 ; 27683.543031534293 ; 33854.39742111858 ; 1461351.5852695336 ; 2572934.204005015 ; 0.0
77 ; 27605.555830512825 ; 33854.39742111858 ; 1489035.1283010677 ; 2606788.601426134 ; 0.0
78 ; 27648.895169932504 ; 33854.39742111858 ; 1516640.6841315806 ; 2640642.9988472527 ; 0.0
79 ; 27663.110944279586 ; 33854.39742111858 ; 1544289.579301513 ; 2674497.3962683715 ; 0.0
80 ; 27644.264575037574 ; 33854.39742111858 ; 1571952.6902457927 ; 2708351.7936894903 ; 0.0
81 ; 27966.36531167557 ; 33854.39742111858 ; 1599596.9548208304 ; 2742206.191110609 ; 0.0
82 ; 27818.010745168092 ; 33854.39742111858 ; 1627563.3201325058 ; 2776060.588531728 ; 0.0
83 ; 27771.248807209635 ; 33854.39742111858 ; 1655381.330877674 ; 2809914.9859528467 ; 0.0
84 ; 27931.252110206166 ; 33854.39742111858 ; 1683152.5796848836 ; 2843769.3833739655 ; 0.0
85 ; 27604.093170263965 ; 33854.39742111858 ; 1711083.8317950896 ; 2877623.7807950843 ; 0.0
86 ; 27725.60699555858 ; 33854.39742111858 ; 1738687.9249653537 ; 2911478.178216203 ; 0.0
87 ; 27694.525462650257 ; 33854.39742111858 ; 1766413.5319609123 ; 2945332.575637322 ; 0.0
88 ; 27566.996126818733 ; 33854.39742111858 ; 1794108.0574235625 ; 2979186.9730584407 ; 0.0
89 ; 27799.843201749078 ; 33854.39742111858 ; 1821675.0535503812 ; 3013041.3704795595 ; 0.0
90 ; 27489.819524220627 ; 33854.39742111858 ; 1849474.8967521302 ; 3046895.7679006783 ; 0.0
91 ; 27542.937785946146 ; 33854.39742111858 ; 1876964.716276351 ; 3080750.165321797 ; 0.0
92 ; 27566.80390132787 ; 33854.39742111858 ; 1904507.654062297 ; 3114604.562742916 ; 0.0
93 ; 27358.418970689483 ; 33854.39742111858 ; 1932074.4579636247 ; 3148458.9601640347 ; 0.0
94 ; 27295.177884153964 ; 33854.39742111858 ; 1959432.8769343141 ; 3182313.3575851535 ; 0.0
95 ; 27161.957308654146 ; 33854.39742111858 ; 1986728.0548184682 ; 3216167.7550062723 ; 0.0
96 ; 27055.38102054174 ; 33854.39742111858 ; 2013890.0121271224 ; 3250022.152427391 ; 0.0
97 ; 27055.162835206436 ; 33854.39742111858 ; 2040945.3931476641 ; 3283876.54984851 ; 0.0
98 ; 27058.263956326886 ; 33854.39742111858 ; 2068000.5559828705 ; 3317730.9472696288 ; 0.0
99 ; 26943.434335551694 ; 33854.39742111858 ; 2095058.8199391975 ; 3351585.3446907476 ; 0.0
100 ; 26709.67530794368 ; 33854.39742111858 ; 2122002.254274749 ; 3385439.7421118664 ; 0.0
101 ; 26635.03523146799 ; 33854.39742111858 ; 2148711.9295826927 ; 3419294.139532985 ; 0.0
102 ; 26448.572472884603 ; 33854.39742111858 ; 2175346.9648141605 ; 3453148.536954104 ; 0.0
103 ; 26368.892741271542 ; 33854.39742111858 ; 2201795.5372870453 ; 3487002.934375223 ; 0.0
104 ; 26095.596125680226 ; 33854.39742111858 ; 2228164.430028317 ; 3520857.3317963416 ; 0.0
105 ; 25991.077790971176 ; 33854.39742111858 ; 2254260.026153997 ; 3554711.7292174604 ; 0.0
106 ; 25878.86825180817 ; 33854.39742111858 ; 2280251.1039449684 ; 3588566.126638579 ; 0.0
107 ; 25816.40393505626 ; 33854.39742111858 ; 2306129.9721967764 ; 3622420.524059698 ; 0.0
108 ; 25584.330050123506 ; 33854.39742111858 ; 2331946.3761318326 ; 3656274.921480817 ; 0.0
109 ; 25298.774498292398 ; 33854.39742111858 ; 2357530.706181956 ; 3690129.3189019356 ; 0.0
110 ; 25054.188451351973 ; 33854.39742111858 ; 2382829.4806802482 ; 3723983.7163230544 ; 0.0
111 ; 25001.65233829744 ; 33854.39742111858 ; 2407883.6691316003 ; 3757838.113744173 ; 0.0
112 ; 24711.891570691743 ; 33854.39742111858 ; 2432885.321469898 ; 3791692.511165292 ; 0.0
113 ; 24592.999909990318 ; 33854.39742111858 ; 2457597.21304059 ; 3825546.908586411 ; 0.0
114 ; 24221.59383284112 ; 33854.39742111858 ; 2482190.2129505803 ; 3859401.3060075296 ; 0.0
115 ; 24029.445837070787 ; 33854.39742111858 ; 2506411.8067834214 ; 3893255.7034286484 ; 0.0
116 ; 23799.111973091625 ; 33854.39742111858 ; 2530441.252620492 ; 3927110.100849767 ; 0.0
117 ; 23814.69150836403 ; 33854.39742111858 ; 2554240.3645935836 ; 3960964.498270886 ; 0.0
118 ; 23490.95102098309 ; 33854.39742111858 ; 2578055.0561019476 ; 3994818.895692005 ; 0.0
119 ; 23269.404657476894 ; 33854.39742111858 ; 2601546.0071229306 ; 4028673.2931131236 ; 0.0
120 ; 22854.56491052041 ; 33854.39742111858 ; 2624815.4117804077 ; 4062527.6905342424 ; 0.0
121 ; 22545.24453168671 ; 33854.39742111858 ; 2647669.976690928 ; 4096382.087955361 ; 0.0
122 ; 22326.87968906819 ; 33854.39742111858 ; 2670215.221222615 ; 4130236.48537648 ; 0.0
123 ; 22023.932099697588 ; 33854.39742111858 ; 2692542.100911683 ; 4164090.882797599 ; 0.0
124 ; 22067.22979293516 ; 33854.39742111858 ; 2714566.0330113806 ; 4197945.280218718 ; 0.0
125 ; 21505.28333597412 ; 33854.39742111858 ; 2736633.262804316 ; 4231799.677639836 ; 0.0
126 ; 21100.04419496899 ; 33854.39742111858 ; 2758138.54614029 ; 4265654.075060955 ; 0.0
127 ; 20894.877525532236 ; 33854.39742111858 ; 2779238.5903352587 ; 4299508.472482074 ; 0.0
128 ; 20616.01042878973 ; 33854.39742111858 ; 2800133.467860791 ; 4333362.869903193 ; 0.0
129 ; 20247.865072760764 ; 33854.39742111858 ; 2820749.4782895804 ; 4367217.267324312 ; 0.0
130 ; 19930.15915786043 ; 33854.39742111858 ; 2840997.343362341 ; 4401071.66474543 ; 0.0
131 ; 19700.30843988828 ; 33854.39742111858 ; 2860927.5025202017 ; 4434926.062166549 ; 0.0
132 ; 19170.864644023983 ; 33854.39742111858 ; 2880627.81096009 ; 4468780.459587668 ; 0.0
133 ; 19095.27867500365 ; 33854.39742111858 ; 2899798.675604114 ; 4502634.857008787 ; 0.0
134 ; 18697.23617495276 ; 33854.39742111858 ; 2918893.9542791173 ; 4536489.254429906 ; 0.0
135 ; 18229.790869492797 ; 33854.39742111858 ; 2937591.19045407 ; 4570343.6518510245 ; 0.0
136 ; 17834.07792151536 ; 33854.39742111858 ; 2955820.9813235626 ; 4604198.049272143 ; 0.0
137 ; 17443.59300746579 ; 33854.39742111858 ; 2973655.059245078 ; 4638052.446693262 ; 0.0
138 ; 17172.561188769214 ; 33854.39742111858 ; 2991098.6522525437 ; 4671906.844114381 ; 0.0
139 ; 16857.234162583467 ; 33854.39742111858 ; 3008271.213441313 ; 4705761.2415355 ; 0.0
140 ; 16419.825116140935 ; 33854.39742111858 ; 3025128.4476038963 ; 4739615.6389566185 ; 0.0
141 ; 15983.772779928053 ; 33854.39742111858 ; 3041548.272720037 ; 4773470.036377737 ; 0.0
142 ; 15561.12252416096 ; 33854.39742111858 ; 3057532.045499965 ; 4807324.433798856 ; 0.0
143 ; 15168.621468052104 ; 33854.39742111858 ; 3073093.168024126 ; 4841178.831219975 ; 0.0
144 ; 14706.97283599837 ; 33854.39742111858 ; 3088261.7894921782 ; 4875033.228641094 ; 0.0
145 ; 14520.902740360722 ; 33854.39742111858 ; 3102968.7623281768 ; 4908887.6260622125 ; 0.0
146 ; 14415.827939411058 ; 33854.39742111858 ; 3117489.6650685375 ; 4942742.023483331 ; 0.0
147 ; 14210.780153729324 ; 33854.39742111858 ; 3131905.4930079486 ; 4976596.42090445 ; 0.0
148 ; 14199.79948235341 ; 33854.39742111858 ; 3146116.273161678 ; 5010450.818325569 ; 0.0
149 ; 14131.138966901655 ; 33854.39742111858 ; 3160316.0726440316 ; 5044305.215746688 ; 0.0
150 ; 14117.912359738762 ; 33854.39742111858 ; 3174447.2116109333 ; 5078159.6131678065 ; 0.0
151 ; 14045.846978593163 ; 33854.39742111858 ; 3188565.123970672 ; 5112014.010588925 ; 0.0
152 ; 13700.553674691411 ; 33854.39742111858 ; 3202610.970949265 ; 5145868.408010044 ; 0.0
153 ; 13435.52670506668 ; 33854.39742111858 ; 3216311.5246239565 ; 5179722.805431163 ; 0.0
154 ; 13684.65767539008 ; 33854.39742111858 ; 3229747.051329023 ; 5213577.202852282 ; 0.0
155 ; 13551.496046136703 ; 33854.39742111858 ; 3243431.7090044133 ; 5247431.600273401 ; 0.0
156 ; 13214.07168889708 ; 33854.39742111858 ; 3256983.20505055 ; 5281285.997694519 ; 0.0
157 ; 13267.189585259785 ; 33854.39742111858 ; 3270197.276739447 ; 5315140.395115638 ; 0.0
158 ; 13054.816873361096 ; 33854.39742111858 ; 3283464.4663247066 ; 5348994.792536757 ; 0.0
159 ; 12821.242928614502 ; 33854.39742111858 ; 3296519.2831980675 ; 5382849.189957876 ; 0.0
160 ; 12536.455448311981 ; 33854.39742111858 ; 3309340.526126682 ; 5416703.587378995 ; 0.0
161 ; 12362.415478527553 ; 33854.39742111858 ; 3321876.9815749936 ; 5450557.984800113 ; 0.0
162 ; 12410.164207341411 ; 33854.39742111858 ; 3334239.397053521 ; 5484412.382221232 ; 0.0
163 ; 12209.173296656858 ; 33854.39742111858 ; 3346649.5612608627 ; 5518266.779642351 ; 0.0
164 ; 12006.636734010855 ; 33854.39742111858 ; 3358858.7345575197 ; 5552121.17706347 ; 0.0
165 ; 11826.062548374945 ; 33854.39742111858 ; 3370865.3712915303 ; 5585975.574484589 ; 0.0
166 ; 11727.559136980473 ; 33854.39742111858 ; 3382691.433839905 ; 5619829.971905707 ; 0.0
167 ; 11682.402656890496 ; 33854.39742111858 ; 3394418.9929768858 ; 5653684.369326826 ; 0.0
168 ; 11273.126500711867 ; 33854.39742111858 ; 3406101.395633776 ; 5687538.766747945 ; 0.0
169 ; 11211.496307902005 ; 33854.39742111858 ; 3417374.522134488 ; 5721393.164169064 ; 0.0
170 ; 10930.6772797874 ; 33854.39742111858 ; 3428586.01844239 ; 5755247.561590183 ; 0.0
171 ; 10757.364293423037 ; 33854.39742111858 ; 3439516.6957221776 ; 5789101.959011301 ; 0.0
172 ; 10636.064407281308 ; 33854.39742111858 ; 3450274.0600156006 ; 5822956.35643242 ; 0.0
173 ; 10572.40236980677 ; 33854.39742111858 ; 3460910.1244228818 ; 5856810.753853539 ; 0.0
174 ; 10641.889273340514 ; 33854.39742111858 ; 3471482.5267926883 ; 5890665.151274658 ; 0.0
175 ; 10507.326965071978 ; 33854.39742111858 ; 3482124.4160660286 ; 5924519.548695777 ; 0.0
176 ; 10542.744113202672 ; 33854.39742111858 ; 3492631.743031101 ; 5958373.946116895 ; 0.0
177 ; 10660.842842920429 ; 33854.39742111858 ; 3503174.4871443035 ; 5992228.343538014 ; 0.0
178 ; 10493.624770814491 ; 33854.39742111858 ; 3513835.3299872237 ; 6026082.740959133 ; 0.0
179 ; 10493.328384792496 ; 33854.39742111858 ; 3524328.9547580383 ; 6059937.138380252 ; 0.0
180 ; 10807.544923237301 ; 33854.39742111858 ; 3534822.2831428307 ; 6093791.535801371 ; 0.0
181 ; 10999.233419998072 ; 33854.39742111858 ; 3545629.8280660682 ; 6127645.933222489 ; 0.0
182 ; 10770.850831397236 ; 33854.39742111858 ; 3556629.0614860663 ; 6161500.330643608 ; 0.0
183 ; 10827.536080207869 ; 33854.39742111858 ; 3567399.9123174637 ; 6195354.728064727 ; 0.0
184 ; 10736.650910494567 ; 33854.39742111858 ; 3578227.4483976713 ; 6229209.125485846 ; 0.0
185 ; 10985.522796463343 ; 33854.39742111858 ; 3588964.0993081657 ; 6263063.522906965 ; 0.0
186 ; 10884.402556032046 ; 33854.39742111858 ; 3599949.622104629 ; 6296917.920328083 ; 0.0
187 ; 10966.997437037715 ; 33854.39742111858 ; 3610834.024660661 ; 6330772.317749202 ; 0.0
188 ; 10920.392244534289 ; 33854.39742111858 ; 3621801.0220976984 ; 6364626.715170321 ; 0.0
189 ; 11084.991619472548 ; 33854.39742111858 ; 3632721.4143422325 ; 6398481.11259144 ; 0.0
190 ; 11051.658783578476 ; 33854.39742111858 ; 3643806.405961705 ; 6432335.510012559 ; 0.0
191 ; 11097.412981651349 ; 33854.39742111858 ; 3654858.064745283 ; 6466189.907433677 ; 0.0
192 ; 11146.914203916824 ; 33854.39742111858 ; 3665955.4777269345 ; 6500044.304854796 ; 0.0
193 ; 11171.171077510025 ; 33854.39742111858 ; 3677102.391930851 ; 6533898.702275915 ; 0.0
194 ; 11310.140359628724 ; 33854.39742111858 ; 3688273.563008361 ; 6567753.099697034 ; 0.0
195 ; 11107.776713231511 ; 33854.39742111858 ; 3699583.70336799 ; 6601607.497118153 ; 0.0
196 ; 11560.051892963176 ; 33854.39742111858 ; 3710691.4800812216 ; 6635461.8945392715 ; 0.0
197 ; 11403.48020004099 ; 33854.39742111858 ; 3722251.531974185 ; 6669316.29196039 ; 0.0
198 ; 11497.128166372197 ; 33854.39742111858 ; 3733655.012174226 ; 6703170.689381509 ; 0.0
199 ; 11675.631164549392 ; 33854.39742111858 ; 3745152.1403405983 ; 6737025.086802628 ; 0.0
200 ; 11456.123325464314 ; 33854.39742111858 ; 3756827.7715051477 ; 6770879.484223747 ; 0.0
201 ; 11605.726234935502 ; 33854.39742111858 ; 3768283.894830612 ; 6804733.8816448655 ; 0.0
202 ; 11613.719748746264 ; 33854.39742111858 ; 3779889.6210655477 ; 6838588.279065984 ; 0.0
203 ; 11395.87575025672 ; 33854.39742111858 ; 3791503.340814294 ; 6872442.676487103 ; 0.0
204 ; 11526.92686767414 ; 33854.39742111858 ; 3802899.2165645505 ; 6906297.073908222 ; 0.0
205 ; 11533.388778919929 ; 33854.39742111858 ; 3814426.1434322246 ; 6940151.471329341 ; 0.0
206 ; 11751.560191525547 ; 33854.39742111858 ; 3825959.5322111445 ; 6974005.8687504595 ; 0.0
207 ; 11739.464300200783 ; 33854.39742111858 ; 3837711.09240267 ; 7007860.266171578 ; 0.0
208 ; 11702.505486053311 ; 33854.39742111858 ; 3849450.556702871 ; 7041714.663592697 ; 0.0
209 ; 11629.706526749693 ; 33854.39742111858 ; 3861153.0621889243 ; 7075569.061013816 ; 0.0
210 ; 11812.028441707971 ; 33854.39742111858 ; 3872782.768715674 ; 7109423.458434935 ; 0.0
211 ; 12015.136541460435 ; 33854.39742111858 ; 3884594.797157382 ; 7143277.8558560535 ; 0.0
212 ; 11905.75518033889 ; 33854.39742111858 ; 3896609.933698843 ; 7177132.253277172 ; 0.0
213 ; 12059.233156854201 ; 33854.39742111858 ; 3908515.6888791816 ; 7210986.650698291 ; 0.0
214 ; 11960.037302906743 ; 33854.39742111858 ; 3920574.922036036 ; 7244841.04811941 ; 0.0
215 ; 11939.331773904178 ; 33854.39742111858 ; 3932534.9593389425 ; 7278695.445540529 ; 0.0
216 ; 11886.482220525353 ; 33854.39742111858 ; 3944474.2911128467 ; 7312549.842961648 ; 0.0
