CSV File for the City 2 on Day 177
1 - Minute m 
2 - Power Consumed at minute m 
3 - Power Produced at minute m 
4 - Energy Consumed since the beginning of the day 
5 - Energy Produced since the beginning of the day 
6 - Energy Lost since the beginning of the day on lines starting from the city
 
0 ; 5716.221274916856 ; 32249.288101902584 ; 0.0 ; 0.0 ; 0.0
1 ; 6143.254939191034 ; 32249.288101902584 ; 5716.221274916856 ; 32249.288101902584 ; 0.0
2 ; 6481.038104072353 ; 32249.288101902584 ; 11859.47621410789 ; 64498.57620380517 ; 0.0
3 ; 6842.101357800469 ; 32249.288101902584 ; 18340.51431818024 ; 96747.86430570776 ; 0.0
4 ; 7419.211699599402 ; 32249.288101902584 ; 25182.61567598071 ; 128997.15240761034 ; 0.0
5 ; 7797.607034657323 ; 32249.288101902584 ; 32601.827375580113 ; 161246.44050951293 ; 0.0
6 ; 8290.337587507738 ; 32249.288101902584 ; 40399.43441023744 ; 193495.7286114155 ; 0.0
7 ; 8694.031664426375 ; 32249.288101902584 ; 48689.77199774518 ; 225745.0167133181 ; 0.0
8 ; 9210.934516179517 ; 32249.288101902584 ; 57383.80366217155 ; 257994.30481522068 ; 0.0
9 ; 9804.337662351716 ; 32249.288101902584 ; 66594.73817835106 ; 290243.5929171233 ; 0.0
10 ; 10227.66818409215 ; 32249.288101902584 ; 76399.07584070278 ; 322492.88101902587 ; 0.0
11 ; 10727.474332356986 ; 32249.288101902584 ; 86626.74402479493 ; 354742.16912092845 ; 0.0
12 ; 11064.889688677764 ; 32249.288101902584 ; 97354.21835715191 ; 386991.457222831 ; 0.0
13 ; 11252.504121009068 ; 32249.288101902584 ; 108419.10804582968 ; 419240.7453247336 ; 0.0
14 ; 11924.722574848405 ; 32249.288101902584 ; 119671.61216683875 ; 451490.0334266362 ; 0.0
15 ; 12161.518249872242 ; 32249.288101902584 ; 131596.33474168717 ; 483739.32152853877 ; 0.0
16 ; 12588.081085004225 ; 32249.288101902584 ; 143757.85299155943 ; 515988.60963044135 ; 0.0
17 ; 12927.411171552258 ; 32249.288101902584 ; 156345.93407656366 ; 548237.897732344 ; 0.0
18 ; 13378.131719793553 ; 32249.288101902584 ; 169273.34524811592 ; 580487.1858342466 ; 0.0
19 ; 13684.581252586091 ; 32249.288101902584 ; 182651.47696790946 ; 612736.4739361492 ; 0.0
20 ; 14094.905625602532 ; 32249.288101902584 ; 196336.05822049556 ; 644985.7620380517 ; 0.0
21 ; 14575.09372063426 ; 32249.288101902584 ; 210430.96384609808 ; 677235.0501399543 ; 0.0
22 ; 15021.72490013835 ; 32249.288101902584 ; 225006.05756673234 ; 709484.3382418569 ; 0.0
23 ; 15317.995407945346 ; 32249.288101902584 ; 240027.7824668707 ; 741733.6263437595 ; 0.0
24 ; 15768.875450369454 ; 32249.288101902584 ; 255345.77787481603 ; 773982.914445662 ; 0.0
25 ; 15891.680041745545 ; 32249.288101902584 ; 271114.65332518547 ; 806232.2025475646 ; 0.0
26 ; 16181.705471447249 ; 32249.288101902584 ; 287006.333366931 ; 838481.4906494672 ; 0.0
27 ; 16486.089695996063 ; 32249.288101902584 ; 303188.03883837827 ; 870730.7787513698 ; 0.0
28 ; 16783.574568837994 ; 32249.288101902584 ; 319674.12853437435 ; 902980.0668532724 ; 0.0
29 ; 17264.961271095934 ; 32249.288101902584 ; 336457.70310321235 ; 935229.354955175 ; 0.0
30 ; 17487.95576816273 ; 32249.288101902584 ; 353722.6643743083 ; 967478.6430570775 ; 0.0
31 ; 17924.128495818593 ; 32249.288101902584 ; 371210.62014247105 ; 999727.9311589801 ; 0.0
32 ; 18073.49241638957 ; 32249.288101902584 ; 389134.74863828963 ; 1031977.2192608827 ; 0.0
33 ; 18350.64805560027 ; 32249.288101902584 ; 407208.2410546792 ; 1064226.5073627853 ; 0.0
34 ; 18680.534724373923 ; 32249.288101902584 ; 425558.8891102795 ; 1096475.795464688 ; 0.0
35 ; 19168.793574172334 ; 32249.288101902584 ; 444239.42383465345 ; 1128725.0835665907 ; 0.0
36 ; 19244.58656470828 ; 32249.288101902584 ; 463408.21740882576 ; 1160974.3716684934 ; 0.0
37 ; 19556.050263034078 ; 32249.288101902584 ; 482652.803973534 ; 1193223.659770396 ; 0.0
38 ; 19820.25138523363 ; 32249.288101902584 ; 502208.8542365681 ; 1225472.9478722988 ; 0.0
39 ; 19958.42530644519 ; 32249.288101902584 ; 522029.10562180175 ; 1257722.2359742015 ; 0.0
40 ; 20344.10545281467 ; 32249.288101902584 ; 541987.5309282469 ; 1289971.5240761042 ; 0.0
41 ; 20707.679976723288 ; 32249.288101902584 ; 562331.6363810616 ; 1322220.8121780069 ; 0.0
42 ; 20744.985012997087 ; 32249.288101902584 ; 583039.3163577849 ; 1354470.1002799096 ; 0.0
43 ; 21071.487749865657 ; 32249.288101902584 ; 603784.301370782 ; 1386719.3883818123 ; 0.0
44 ; 21237.84931428981 ; 32249.288101902584 ; 624855.7891206476 ; 1418968.676483715 ; 0.0
45 ; 21383.761421036783 ; 32249.288101902584 ; 646093.6384349375 ; 1451217.9645856177 ; 0.0
46 ; 21702.17971533599 ; 32249.288101902584 ; 667477.3998559742 ; 1483467.2526875203 ; 0.0
47 ; 21890.189963971206 ; 32249.288101902584 ; 689179.5795713102 ; 1515716.540789423 ; 0.0
48 ; 22168.163830105073 ; 32249.288101902584 ; 711069.7695352815 ; 1547965.8288913257 ; 0.0
49 ; 22284.833748826833 ; 32249.288101902584 ; 733237.9333653866 ; 1580215.1169932284 ; 0.0
50 ; 22381.666818888174 ; 32249.288101902584 ; 755522.7671142134 ; 1612464.4050951311 ; 0.0
51 ; 22786.382493835838 ; 32249.288101902584 ; 777904.4339331016 ; 1644713.6931970338 ; 0.0
52 ; 22990.545952645632 ; 32249.288101902584 ; 800690.8164269375 ; 1676962.9812989365 ; 0.0
53 ; 23202.053299178253 ; 32249.288101902584 ; 823681.3623795831 ; 1709212.2694008392 ; 0.0
54 ; 23203.162951124876 ; 32249.288101902584 ; 846883.4156787613 ; 1741461.557502742 ; 0.0
55 ; 23484.25342633009 ; 32249.288101902584 ; 870086.5786298861 ; 1773710.8456046446 ; 0.0
56 ; 23750.795152625025 ; 32249.288101902584 ; 893570.8320562162 ; 1805960.1337065473 ; 0.0
57 ; 23612.942076166364 ; 32249.288101902584 ; 917321.6272088413 ; 1838209.42180845 ; 0.0
58 ; 23830.954604151775 ; 32249.288101902584 ; 940934.5692850077 ; 1870458.7099103527 ; 0.0
59 ; 24063.47240738761 ; 32249.288101902584 ; 964765.5238891594 ; 1902707.9980122554 ; 0.0
60 ; 24180.166086055153 ; 32249.288101902584 ; 988828.996296547 ; 1934957.286114158 ; 0.0
61 ; 24188.187472152997 ; 32249.288101902584 ; 1013009.1623826021 ; 1967206.5742160608 ; 0.0
62 ; 24318.91241821876 ; 32249.288101902584 ; 1037197.3498547551 ; 1999455.8623179635 ; 0.0
63 ; 24482.274203814635 ; 32249.288101902584 ; 1061516.2622729738 ; 2031705.1504198662 ; 0.0
64 ; 24637.969965333636 ; 32249.288101902584 ; 1085998.5364767883 ; 2063954.438521769 ; 0.0
65 ; 25003.675729992534 ; 32249.288101902584 ; 1110636.506442122 ; 2096203.7266236716 ; 0.0
66 ; 24902.57889323097 ; 32249.288101902584 ; 1135640.1821721145 ; 2128453.0147255743 ; 0.0
67 ; 24842.53490849601 ; 32249.288101902584 ; 1160542.7610653455 ; 2160702.302827477 ; 0.0
68 ; 25121.53212784028 ; 32249.288101902584 ; 1185385.2959738416 ; 2192951.5909293797 ; 0.0
69 ; 25132.737831082723 ; 32249.288101902584 ; 1210506.8281016818 ; 2225200.8790312824 ; 0.0
70 ; 25138.642928491965 ; 32249.288101902584 ; 1235639.5659327644 ; 2257450.167133185 ; 0.0
71 ; 25205.674590754446 ; 32249.288101902584 ; 1260778.2088612565 ; 2289699.455235088 ; 0.0
72 ; 25312.342304647813 ; 32249.288101902584 ; 1285983.883452011 ; 2321948.7433369905 ; 0.0
73 ; 25341.60118054152 ; 32249.288101902584 ; 1311296.225756659 ; 2354198.031438893 ; 0.0
74 ; 25438.152930022436 ; 32249.288101902584 ; 1336637.8269372005 ; 2386447.319540796 ; 0.0
75 ; 25465.719289489203 ; 32249.288101902584 ; 1362075.979867223 ; 2418696.6076426986 ; 0.0
76 ; 25477.63166242779 ; 32249.288101902584 ; 1387541.699156712 ; 2450945.8957446013 ; 0.0
77 ; 25369.27435889592 ; 32249.288101902584 ; 1413019.3308191397 ; 2483195.183846504 ; 0.0
78 ; 25402.327236636313 ; 32249.288101902584 ; 1438388.6051780356 ; 2515444.4719484067 ; 0.0
79 ; 25621.07328860302 ; 32249.288101902584 ; 1463790.9324146719 ; 2547693.7600503094 ; 0.0
80 ; 25671.977258429673 ; 32249.288101902584 ; 1489412.0057032749 ; 2579943.048152212 ; 0.0
81 ; 25489.54426391021 ; 32249.288101902584 ; 1515083.9829617045 ; 2612192.3362541148 ; 0.0
82 ; 25867.79636725676 ; 32249.288101902584 ; 1540573.5272256148 ; 2644441.6243560174 ; 0.0
83 ; 25774.489486016755 ; 32249.288101902584 ; 1566441.3235928714 ; 2676690.91245792 ; 0.0
84 ; 25849.86960892233 ; 32249.288101902584 ; 1592215.8130788882 ; 2708940.200559823 ; 0.0
85 ; 25653.436289393587 ; 32249.288101902584 ; 1618065.6826878106 ; 2741189.4886617255 ; 0.0
86 ; 25482.556229118694 ; 32249.288101902584 ; 1643719.1189772042 ; 2773438.7767636282 ; 0.0
87 ; 25598.380736609768 ; 32249.288101902584 ; 1669201.675206323 ; 2805688.064865531 ; 0.0
88 ; 25460.482834376155 ; 32249.288101902584 ; 1694800.0559429326 ; 2837937.3529674336 ; 0.0
89 ; 25396.877804828746 ; 32249.288101902584 ; 1720260.5387773088 ; 2870186.6410693363 ; 0.0
90 ; 25438.82443104454 ; 32249.288101902584 ; 1745657.4165821376 ; 2902435.929171239 ; 0.0
91 ; 25204.489534939472 ; 32249.288101902584 ; 1771096.241013182 ; 2934685.2172731417 ; 0.0
92 ; 25504.659624483236 ; 32249.288101902584 ; 1796300.7305481215 ; 2966934.5053750444 ; 0.0
93 ; 25235.913783821936 ; 32249.288101902584 ; 1821805.3901726047 ; 2999183.793476947 ; 0.0
94 ; 25300.873915512133 ; 32249.288101902584 ; 1847041.3039564267 ; 3031433.08157885 ; 0.0
95 ; 25044.526054815688 ; 32249.288101902584 ; 1872342.1778719388 ; 3063682.3696807525 ; 0.0
96 ; 25256.36425639162 ; 32249.288101902584 ; 1897386.7039267544 ; 3095931.657782655 ; 0.0
97 ; 24888.650399555238 ; 32249.288101902584 ; 1922643.068183146 ; 3128180.945884558 ; 0.0
98 ; 24879.268573550802 ; 32249.288101902584 ; 1947531.7185827012 ; 3160430.2339864606 ; 0.0
99 ; 24679.196009638894 ; 32249.288101902584 ; 1972410.987156252 ; 3192679.5220883633 ; 0.0
100 ; 24642.066996662008 ; 32249.288101902584 ; 1997090.1831658909 ; 3224928.810190266 ; 0.0
101 ; 24736.148556417047 ; 32249.288101902584 ; 2021732.2501625528 ; 3257178.0982921687 ; 0.0
102 ; 24435.244888665766 ; 32249.288101902584 ; 2046468.39871897 ; 3289427.3863940714 ; 0.0
103 ; 24236.329730407946 ; 32249.288101902584 ; 2070903.6436076357 ; 3321676.674495974 ; 0.0
104 ; 24298.98387206922 ; 32249.288101902584 ; 2095139.9733380438 ; 3353925.962597877 ; 0.0
105 ; 24069.753596370047 ; 32249.288101902584 ; 2119438.957210113 ; 3386175.2506997795 ; 0.0
106 ; 23875.04794176138 ; 32249.288101902584 ; 2143508.710806483 ; 3418424.538801682 ; 0.0
107 ; 23712.012841163752 ; 32249.288101902584 ; 2167383.7587482445 ; 3450673.826903585 ; 0.0
108 ; 23757.486364229568 ; 32249.288101902584 ; 2191095.771589408 ; 3482923.1150054876 ; 0.0
109 ; 23382.233594997677 ; 32249.288101902584 ; 2214853.2579536377 ; 3515172.4031073903 ; 0.0
110 ; 23193.82672040177 ; 32249.288101902584 ; 2238235.4915486355 ; 3547421.691209293 ; 0.0
111 ; 23109.71962720714 ; 32249.288101902584 ; 2261429.318269037 ; 3579670.9793111957 ; 0.0
112 ; 22927.51021784617 ; 32249.288101902584 ; 2284539.0378962443 ; 3611920.2674130984 ; 0.0
113 ; 22778.578305902527 ; 32249.288101902584 ; 2307466.5481140907 ; 3644169.555515001 ; 0.0
114 ; 22713.649999104862 ; 32249.288101902584 ; 2330245.126419993 ; 3676418.8436169038 ; 0.0
115 ; 22435.074179118037 ; 32249.288101902584 ; 2352958.776419098 ; 3708668.1317188065 ; 0.0
116 ; 22274.580235112466 ; 32249.288101902584 ; 2375393.850598216 ; 3740917.419820709 ; 0.0
117 ; 22062.00960303558 ; 32249.288101902584 ; 2397668.4308333285 ; 3773166.707922612 ; 0.0
118 ; 21836.948047191996 ; 32249.288101902584 ; 2419730.440436364 ; 3805415.9960245145 ; 0.0
119 ; 21499.490345057086 ; 32249.288101902584 ; 2441567.388483556 ; 3837665.2841264172 ; 0.0
120 ; 21331.86757325867 ; 32249.288101902584 ; 2463066.878828613 ; 3869914.57222832 ; 0.0
121 ; 21038.337311894757 ; 32249.288101902584 ; 2484398.7464018716 ; 3902163.8603302226 ; 0.0
122 ; 20895.14030599495 ; 32249.288101902584 ; 2505437.083713766 ; 3934413.1484321253 ; 0.0
123 ; 20552.717131209054 ; 32249.288101902584 ; 2526332.224019761 ; 3966662.436534028 ; 0.0
124 ; 20301.421534217636 ; 32249.288101902584 ; 2546884.9411509703 ; 3998911.7246359307 ; 0.0
125 ; 20220.348065387283 ; 32249.288101902584 ; 2567186.3626851877 ; 4031161.0127378334 ; 0.0
126 ; 19905.931975989086 ; 32249.288101902584 ; 2587406.710750575 ; 4063410.300839736 ; 0.0
127 ; 19662.47570048523 ; 32249.288101902584 ; 2607312.6427265643 ; 4095659.588941639 ; 0.0
128 ; 19360.607055193923 ; 32249.288101902584 ; 2626975.1184270494 ; 4127908.8770435415 ; 0.0
129 ; 19289.935244249806 ; 32249.288101902584 ; 2646335.725482243 ; 4160158.165145444 ; 0.0
130 ; 18821.546449110563 ; 32249.288101902584 ; 2665625.6607264928 ; 4192407.453247347 ; 0.0
131 ; 18564.334582042018 ; 32249.288101902584 ; 2684447.207175603 ; 4224656.741349249 ; 0.0
132 ; 18255.4823196045 ; 32249.288101902584 ; 2703011.541757645 ; 4256906.029451151 ; 0.0
133 ; 17818.252044897097 ; 32249.288101902584 ; 2721267.0240772497 ; 4289155.317553054 ; 0.0
134 ; 17507.046342931626 ; 32249.288101902584 ; 2739085.2761221468 ; 4321404.605654956 ; 0.0
135 ; 17337.37358037144 ; 32249.288101902584 ; 2756592.3224650784 ; 4353653.893756858 ; 0.0
136 ; 16983.06147226136 ; 32249.288101902584 ; 2773929.69604545 ; 4385903.18185876 ; 0.0
137 ; 16747.96180910274 ; 32249.288101902584 ; 2790912.7575177113 ; 4418152.469960663 ; 0.0
138 ; 16479.702148355653 ; 32249.288101902584 ; 2807660.719326814 ; 4450401.758062565 ; 0.0
139 ; 16022.70252443336 ; 32249.288101902584 ; 2824140.4214751697 ; 4482651.046164467 ; 0.0
140 ; 15829.80491074272 ; 32249.288101902584 ; 2840163.123999603 ; 4514900.334266369 ; 0.0
141 ; 15486.29593518019 ; 32249.288101902584 ; 2855992.928910346 ; 4547149.622368271 ; 0.0
142 ; 15078.625431998335 ; 32249.288101902584 ; 2871479.224845526 ; 4579398.910470174 ; 0.0
143 ; 14729.618918579941 ; 32249.288101902584 ; 2886557.850277524 ; 4611648.198572076 ; 0.0
144 ; 14450.545489062395 ; 32249.288101902584 ; 2901287.469196104 ; 4643897.486673978 ; 0.0
145 ; 14121.190341549605 ; 32249.288101902584 ; 2915738.0146851665 ; 4676146.77477588 ; 0.0
146 ; 14069.815648971511 ; 32249.288101902584 ; 2929859.205026716 ; 4708396.062877783 ; 0.0
147 ; 14074.669226598911 ; 32249.288101902584 ; 2943929.0206756876 ; 4740645.350979685 ; 0.0
148 ; 13853.765563064479 ; 32249.288101902584 ; 2958003.6899022865 ; 4772894.639081587 ; 0.0
149 ; 13659.510815823167 ; 32249.288101902584 ; 2971857.4554653508 ; 4805143.927183489 ; 0.0
150 ; 13857.303478329502 ; 32249.288101902584 ; 2985516.9662811738 ; 4837393.215285392 ; 0.0
151 ; 13835.968080942022 ; 32249.288101902584 ; 2999374.269759503 ; 4869642.503387294 ; 0.0
152 ; 13493.546440627755 ; 32249.288101902584 ; 3013210.2378404452 ; 4901891.791489196 ; 0.0
153 ; 13215.906122816315 ; 32249.288101902584 ; 3026703.784281073 ; 4934141.079591098 ; 0.0
154 ; 13256.105859937488 ; 32249.288101902584 ; 3039919.6904038894 ; 4966390.3676930005 ; 0.0
155 ; 13070.090999974786 ; 32249.288101902584 ; 3053175.796263827 ; 4998639.655794903 ; 0.0
156 ; 12823.445274886217 ; 32249.288101902584 ; 3066245.887263802 ; 5030888.943896805 ; 0.0
157 ; 12817.531572851349 ; 32249.288101902584 ; 3079069.332538688 ; 5063138.231998707 ; 0.0
158 ; 12865.667260593678 ; 32249.288101902584 ; 3091886.8641115394 ; 5095387.520100609 ; 0.0
159 ; 12767.015967230343 ; 32249.288101902584 ; 3104752.531372133 ; 5127636.808202512 ; 0.0
160 ; 12513.509368577852 ; 32249.288101902584 ; 3117519.5473393635 ; 5159886.096304414 ; 0.0
161 ; 12412.107602447611 ; 32249.288101902584 ; 3130033.0567079415 ; 5192135.384406316 ; 0.0
162 ; 12161.24321043133 ; 32249.288101902584 ; 3142445.164310389 ; 5224384.672508218 ; 0.0
163 ; 12082.140674787797 ; 32249.288101902584 ; 3154606.4075208204 ; 5256633.960610121 ; 0.0
164 ; 12034.116061255983 ; 32249.288101902584 ; 3166688.548195608 ; 5288883.248712023 ; 0.0
165 ; 11841.281733677599 ; 32249.288101902584 ; 3178722.6642568638 ; 5321132.536813925 ; 0.0
166 ; 11631.410802121529 ; 32249.288101902584 ; 3190563.9459905415 ; 5353381.824915827 ; 0.0
167 ; 11608.089045714802 ; 32249.288101902584 ; 3202195.356792663 ; 5385631.1130177295 ; 0.0
168 ; 11374.281999659637 ; 32249.288101902584 ; 3213803.445838378 ; 5417880.401119632 ; 0.0
169 ; 11263.550163622323 ; 32249.288101902584 ; 3225177.7278380375 ; 5450129.689221534 ; 0.0
170 ; 11011.479362730457 ; 32249.288101902584 ; 3236441.27800166 ; 5482378.977323436 ; 0.0
171 ; 10928.428735427566 ; 32249.288101902584 ; 3247452.7573643904 ; 5514628.265425338 ; 0.0
172 ; 10550.328453886883 ; 32249.288101902584 ; 3258381.186099818 ; 5546877.553527241 ; 0.0
173 ; 10619.803466467449 ; 32249.288101902584 ; 3268931.5145537048 ; 5579126.841629143 ; 0.0
174 ; 10663.953777347302 ; 32249.288101902584 ; 3279551.3180201724 ; 5611376.129731045 ; 0.0
175 ; 10815.911602478625 ; 32249.288101902584 ; 3290215.2717975196 ; 5643625.417832947 ; 0.0
176 ; 10837.160131873405 ; 32249.288101902584 ; 3301031.183399998 ; 5675874.70593485 ; 0.0
177 ; 10750.931950760594 ; 32249.288101902584 ; 3311868.3435318717 ; 5708123.994036752 ; 0.0
178 ; 10869.2007848963 ; 32249.288101902584 ; 3322619.275482632 ; 5740373.282138654 ; 0.0
179 ; 10667.154063081995 ; 32249.288101902584 ; 3333488.4762675287 ; 5772622.570240556 ; 0.0
180 ; 10819.103988067523 ; 32249.288101902584 ; 3344155.6303306106 ; 5804871.8583424585 ; 0.0
181 ; 10936.972266904237 ; 32249.288101902584 ; 3354974.7343186783 ; 5837121.146444361 ; 0.0
182 ; 10966.625941380844 ; 32249.288101902584 ; 3365911.7065855823 ; 5869370.434546263 ; 0.0
183 ; 10986.052699801332 ; 32249.288101902584 ; 3376878.332526963 ; 5901619.722648165 ; 0.0
184 ; 10947.601946997398 ; 32249.288101902584 ; 3387864.3852267647 ; 5933869.010750067 ; 0.0
185 ; 10957.041156547193 ; 32249.288101902584 ; 3398811.987173762 ; 5966118.29885197 ; 0.0
186 ; 11109.13360951834 ; 32249.288101902584 ; 3409769.0283303093 ; 5998367.586953872 ; 0.0
187 ; 11116.670435941003 ; 32249.288101902584 ; 3420878.1619398277 ; 6030616.875055774 ; 0.0
188 ; 11150.329186516487 ; 32249.288101902584 ; 3431994.8323757686 ; 6062866.163157676 ; 0.0
189 ; 11114.770558818864 ; 32249.288101902584 ; 3443145.161562285 ; 6095115.451259579 ; 0.0
190 ; 11317.786648185916 ; 32249.288101902584 ; 3454259.9321211036 ; 6127364.739361481 ; 0.0
191 ; 11155.285301267679 ; 32249.288101902584 ; 3465577.7187692896 ; 6159614.027463383 ; 0.0
192 ; 11219.216536647958 ; 32249.288101902584 ; 3476733.004070557 ; 6191863.315565285 ; 0.0
193 ; 11166.060184062355 ; 32249.288101902584 ; 3487952.2206072053 ; 6224112.6036671875 ; 0.0
194 ; 11150.618582731151 ; 32249.288101902584 ; 3499118.2807912678 ; 6256361.89176909 ; 0.0
195 ; 11394.182633742796 ; 32249.288101902584 ; 3510268.899373999 ; 6288611.179870992 ; 0.0
196 ; 11258.571333746588 ; 32249.288101902584 ; 3521663.0820077416 ; 6320860.467972894 ; 0.0
197 ; 11226.604039287318 ; 32249.288101902584 ; 3532921.653341488 ; 6353109.756074796 ; 0.0
198 ; 11484.875756782412 ; 32249.288101902584 ; 3544148.257380775 ; 6385359.044176699 ; 0.0
199 ; 11467.37264437297 ; 32249.288101902584 ; 3555633.1331375577 ; 6417608.332278601 ; 0.0
200 ; 11483.55092683772 ; 32249.288101902584 ; 3567100.5057819304 ; 6449857.620380503 ; 0.0
201 ; 11402.248965493125 ; 32249.288101902584 ; 3578584.056708768 ; 6482106.908482405 ; 0.0
202 ; 11532.09432625666 ; 32249.288101902584 ; 3589986.305674261 ; 6514356.196584308 ; 0.0
203 ; 11545.423764085568 ; 32249.288101902584 ; 3601518.4000005177 ; 6546605.48468621 ; 0.0
204 ; 11617.882910508462 ; 32249.288101902584 ; 3613063.823764603 ; 6578854.772788112 ; 0.0
205 ; 11629.00378502975 ; 32249.288101902584 ; 3624681.706675112 ; 6611104.060890014 ; 0.0
206 ; 11818.283379515671 ; 32249.288101902584 ; 3636310.7104601413 ; 6643353.3489919165 ; 0.0
207 ; 11722.020902361202 ; 32249.288101902584 ; 3648128.993839657 ; 6675602.637093819 ; 0.0
208 ; 11930.619348402868 ; 32249.288101902584 ; 3659851.014742018 ; 6707851.925195721 ; 0.0
209 ; 11829.792954460074 ; 32249.288101902584 ; 3671781.6340904213 ; 6740101.213297623 ; 0.0
210 ; 11740.973899353414 ; 32249.288101902584 ; 3683611.4270448815 ; 6772350.501399525 ; 0.0
211 ; 11898.87483233455 ; 32249.288101902584 ; 3695352.400944235 ; 6804599.789501428 ; 0.0
212 ; 11853.793147995646 ; 32249.288101902584 ; 3707251.2757765693 ; 6836849.07760333 ; 0.0
213 ; 11869.568580005802 ; 32249.288101902584 ; 3719105.068924565 ; 6869098.365705232 ; 0.0
