CSV File for the City 3 on Day 189
1 - Minute m 
2 - Power Consumed at minute m 
3 - Power Produced at minute m 
4 - Energy Consumed since the beginning of the day 
5 - Energy Produced since the beginning of the day 
6 - Energy Lost since the beginning of the day on lines starting from the city
 
0 ; 4192.266446408855 ; 72917.80117121697 ; 0.0 ; 0.0 ; 0.0
1 ; 4606.0330125844475 ; 72552.82577649756 ; 4192.266446408855 ; 72917.80117121697 ; 0.0
2 ; 5134.204736366 ; 72224.630340174 ; 8798.299458993302 ; 145470.62694771454 ; 0.0
3 ; 5536.632494912505 ; 71933.74343782765 ; 13932.504195359303 ; 217695.25728788855 ; 0.0
4 ; 5923.14163720488 ; 71680.64155117446 ; 19469.136690271807 ; 289629.00072571624 ; 0.0
5 ; 6398.035687384681 ; 71465.74550456733 ; 25392.278327476688 ; 361309.6422768907 ; 0.0
6 ; 6874.665454546392 ; 71289.41723426056 ; 31790.314014861367 ; 432775.38778145803 ; 0.0
7 ; 7243.876863042777 ; 71151.9569467098 ; 38664.97946940776 ; 504064.80501571856 ; 0.0
8 ; 7646.105496897936 ; 71053.60071704145 ; 45908.85633245054 ; 575216.7619624283 ; 0.0
9 ; 8066.259467937218 ; 70994.51857207395 ; 53554.961829348475 ; 646270.3626794697 ; 0.0
10 ; 8556.021043384797 ; 70974.81309408155 ; 61621.221297285694 ; 717264.8812515438 ; 0.0
11 ; 8968.786521427257 ; 70994.51857207395 ; 70177.24234067049 ; 788239.6943456254 ; 0.0
12 ; 9164.714394784267 ; 71053.60071704145 ; 79146.02886209775 ; 859234.2129176992 ; 0.0
13 ; 9682.914307002166 ; 71151.9569467098 ; 88310.74325688202 ; 930287.8136347407 ; 0.0
14 ; 10281.753226155948 ; 71289.4172342605 ; 97993.65756388419 ; 1001439.7705814504 ; 0.0
15 ; 10382.812637109299 ; 71465.74550456733 ; 108275.41079004014 ; 1072729.187815711 ; 0.0
16 ; 10748.29021323322 ; 71680.64155117446 ; 118658.22342714944 ; 1144194.9333202783 ; 0.0
17 ; 11140.727141294376 ; 71933.74343782761 ; 129406.51364038266 ; 1215875.5748714528 ; 0.0
18 ; 11528.664583432119 ; 72224.63034017407 ; 140547.24078167704 ; 1287809.3183092803 ; 0.0
19 ; 11766.750058720769 ; 72552.8257764975 ; 152075.90536510915 ; 1360033.9486494544 ; 0.0
20 ; 12013.632319204165 ; 72917.80117121703 ; 163842.6554238299 ; 1432586.774425952 ; 0.0
21 ; 12448.009670969972 ; 73318.97969143541 ; 175856.28774303407 ; 1505504.575597169 ; 0.0
22 ; 12815.24712574142 ; 73755.74029508019 ; 188304.29741400405 ; 1578823.5552886045 ; 0.0
23 ; 13123.686833784295 ; 74227.42192908145 ; 201119.54453974546 ; 1652579.2955836847 ; 0.0
24 ; 13398.57332755211 ; 74733.3278174403 ; 214243.23137352976 ; 1726806.7175127661 ; 0.0
25 ; 13743.42177030706 ; 75272.72978179893 ; 227641.80470108188 ; 1801540.0453302064 ; 0.0
26 ; 13911.725300057697 ; 75844.87254100325 ; 241385.22647138895 ; 1876812.7751120054 ; 0.0
27 ; 14468.006245030418 ; 76448.9779409317 ; 255296.95177144665 ; 1952657.6476530086 ; 0.0
28 ; 14542.113663428361 ; 77084.24907130208 ; 269764.95801647706 ; 2029106.6255939403 ; 0.0
29 ; 14932.537324632744 ; 77749.87423202903 ; 284307.0716799054 ; 2106190.874665242 ; 0.0
30 ; 15262.494562722928 ; 78445.03071776498 ; 299239.60900453816 ; 2183940.748897271 ; 0.0
31 ; 15574.11217810345 ; 79168.888395322 ; 314502.1035672611 ; 2262385.779615036 ; 0.0
32 ; 15865.114360243766 ; 79920.61305456338 ; 330076.21574536455 ; 2341554.6680103582 ; 0.0
33 ; 16082.357335497083 ; 80699.36951893821 ; 345941.33010560833 ; 2421475.2810649215 ; 0.0
34 ; 16300.208522405323 ; 81504.32450699883 ; 362023.68744110543 ; 2502174.6505838595 ; 0.0
35 ; 16658.06426511034 ; 82334.64924091018 ; 378323.89596351073 ; 2583678.9750908585 ; 0.0
36 ; 16925.03015068803 ; 83189.52180208864 ; 394981.9602286211 ; 2666013.6243317686 ; 0.0
37 ; 17075.41622141637 ; 84068.12923766617 ; 411906.9903793091 ; 2749203.1461338573 ; 0.0
38 ; 17330.272915014735 ; 84969.66942447142 ; 428982.4066007255 ; 2833271.2753715236 ; 0.0
39 ; 17605.47416238793 ; 85893.35269965904 ; 446312.67951574025 ; 2918240.944795995 ; 0.0
40 ; 17602.42587755705 ; 86838.40326904114 ; 463918.1536781282 ; 3004134.297495654 ; 0.0
41 ; 17932.99305853538 ; 87804.06040561636 ; 481520.5795556853 ; 3090972.700764695 ; 0.0
42 ; 18065.107154045167 ; 88789.57945180022 ; 499453.57261422067 ; 3178776.7611703114 ; 0.0
43 ; 18407.7807250199 ; 89794.23263948834 ; 517518.6797682658 ; 3267566.3406221117 ; 0.0
44 ; 18681.512610927773 ; 90817.30974237673 ; 535926.4604932857 ; 3357360.5732616 ; 0.0
45 ; 19059.72215381482 ; 91858.11857498168 ; 554607.9731042135 ; 3448177.8830039767 ; 0.0
46 ; 19017.168073517645 ; 92915.98535258364 ; 573667.6952580283 ; 3540036.0015789582 ; 0.0
47 ; 19273.069903479125 ; 93990.25492591862 ; 592684.863331546 ; 3632951.986931542 ; 0.0
48 ; 19347.46410656866 ; 95080.29090389115 ; 611957.933235025 ; 3726942.2418574607 ; 0.0
49 ; 19511.46033772101 ; 96185.47567692699 ; 631305.3973415936 ; 3822022.5327613517 ; 0.0
50 ; 19899.895558769225 ; 97305.2103528514 ; 650816.8576793147 ; 3918208.0084382785 ; 0.0
51 ; 20007.434149066026 ; 98438.91461639188 ; 670716.7532380839 ; 4015513.21879113 ; 0.0
52 ; 20086.86299128443 ; 99586.02652259967 ; 690724.1873871499 ; 4113952.133407522 ; 0.0
53 ; 20183.613458976404 ; 100746.00223366292 ; 710811.0503784344 ; 4213538.159930122 ; 0.0
54 ; 20530.967806042518 ; 101918.31570777939 ; 730994.6638374107 ; 4314284.162163785 ; 0.0
55 ; 20459.97641859111 ; 103102.45834796496 ; 751525.6316434533 ; 4416202.477871564 ; 0.0
56 ; 20683.448850014607 ; 104297.9386179185 ; 771985.6080620444 ; 4519304.936219529 ; 0.0
57 ; 20811.799661290755 ; 105504.2816313378 ; 792669.056912059 ; 4623602.874837448 ; 0.0
58 ; 20950.225359993507 ; 106721.02872040244 ; 813480.8565733497 ; 4729107.156468785 ; 0.0
59 ; 21106.9552827833 ; 107947.73698850018 ; 834431.0819333432 ; 4835828.1851891875 ; 0.0
60 ; 21121.882095745714 ; 109183.97885168358 ; 855538.0372161265 ; 4943775.922177687 ; 0.0
61 ; 21350.35290208633 ; 110429.34157279463 ; 876659.9193118722 ; 5052959.901029371 ; 0.0
62 ; 21450.57669076642 ; 111683.42679169787 ; 898010.2722139586 ; 5163389.242602166 ; 0.0
63 ; 21629.240290088426 ; 112945.8500546043 ; 919460.8489047249 ; 5275072.6693938635 ; 0.0
64 ; 21833.5442633633 ; 114216.24034505438 ; 941090.0891948134 ; 5388018.5194484675 ; 0.0
65 ; 21706.82583953713 ; 115494.23961875631 ; 962923.6334581767 ; 5502234.759793522 ; 0.0
66 ; 22010.30702806492 ; 116779.50234413872 ; 984630.4592977138 ; 5617728.999412278 ; 0.0
67 ; 21999.700727433228 ; 118071.69505017699 ; 1006640.7663257788 ; 5734508.501756417 ; 0.0
68 ; 22131.346178401305 ; 119370.4958827866 ; 1028640.467053212 ; 5852580.196806594 ; 0.0
69 ; 22181.064661528155 ; 120675.59417083711 ; 1050771.8132316133 ; 5971950.692689381 ; 0.0
70 ; 22095.131259730177 ; 121986.69000263422 ; 1072952.8778931415 ; 6092626.286860217 ; 0.0
71 ; 22277.885872169823 ; 123303.49381353102 ; 1095048.0091528716 ; 6214612.9768628515 ; 0.0
72 ; 22344.015392338082 ; 124625.72598516954 ; 1117325.8950250414 ; 6337916.470676383 ; 0.0
73 ; 22475.71145512676 ; 125953.11645671388 ; 1139669.9104173796 ; 6462542.196661552 ; 0.0
74 ; 22520.67813351805 ; 127285.40434831339 ; 1162145.6218725063 ; 6588495.313118266 ; 0.0
75 ; 22375.37134938497 ; 128622.33759693117 ; 1184666.3000060243 ; 6715780.71746658 ; 0.0
76 ; 22397.72980858744 ; 129963.67260458149 ; 1207041.6713554093 ; 6844403.055063511 ; 0.0
77 ; 22688.791171134137 ; 131309.17389894478 ; 1229439.4011639967 ; 6974366.727668093 ; 0.0
78 ; 22611.763691106316 ; 132658.6138062638 ; 1252128.1923351309 ; 7105675.901567037 ; 0.0
79 ; 22500.94378603742 ; 134011.77213636905 ; 1274739.9560262372 ; 7238334.515373301 ; 0.0
80 ; 22626.813457598197 ; 135368.4358796386 ; 1297240.8998122746 ; 7372346.28750967 ; 0.0
81 ; 22655.30613598962 ; 136728.39891565853 ; 1319867.7132698728 ; 7507714.723389308 ; 0.0
82 ; 22816.75841460068 ; 138091.46173332227 ; 1342523.0194058625 ; 7644443.122304967 ; 0.0
83 ; 22633.87480368808 ; 139457.43116208166 ; 1365339.7778204633 ; 7782534.584038289 ; 0.0
84 ; 22695.778002880867 ; 140826.12011404522 ; 1387973.6526241514 ; 7921992.015200371 ; 0.0
85 ; 22657.176223359078 ; 142197.34733660633 ; 1410669.4306270324 ; 8062818.135314416 ; 0.0
86 ; 22630.186442971866 ; 143570.9371752722 ; 1433326.6068503915 ; 8205015.482651022 ; 0.0
87 ; 22743.395726358558 ; 144946.7193463609 ; 1455956.7932933634 ; 8348586.419826294 ; 0.0
88 ; 22607.465598527095 ; 146324.5287192281 ; 1478700.189019722 ; 8493533.139172655 ; 0.0
89 ; 22649.869366721206 ; 147704.20510768768 ; 1501307.654618249 ; 8639857.667891882 ; 0.0
90 ; 22548.468847709402 ; 149085.59307028723 ; 1523957.5239849703 ; 8787561.87299957 ; 0.0
91 ; 22348.320145262933 ; 150468.54171910786 ; 1546505.9928326798 ; 8936647.466069857 ; 0.0
92 ; 22362.429075028103 ; 151852.9045367579 ; 1568854.3129779426 ; 9087116.007788964 ; 0.0
93 ; 22447.690033349707 ; 153238.53920123912 ; 1591216.7420529707 ; 9238968.912325721 ; 0.0
94 ; 22256.676149727162 ; 154625.3074183687 ; 1613664.4320863204 ; 9392207.45152696 ; 0.0
95 ; 22110.348610513884 ; 156013.07476144985 ; 1635921.1082360474 ; 9546832.75894533 ; 0.0
96 ; 22125.580745940242 ; 157401.71051789037 ; 1658031.4568465613 ; 9702845.83370678 ; 0.0
97 ; 22163.321328938026 ; 158791.08754247814 ; 1680157.0375925016 ; 9860247.54422467 ; 0.0
98 ; 21984.207596482865 ; 160181.08211703127 ; 1702320.3589214396 ; 1.0019038631767148E7 ; 0.0
99 ; 22010.803751747073 ; 161571.57381615043 ; 1724304.5665179226 ; 1.0179219713884179E7 ; 0.0
100 ; 21897.83619740536 ; 162962.4453788091 ; 1746315.3702696697 ; 1.0340791287700329E7 ; 0.0
101 ; 21691.287313868597 ; 164353.58258552806 ; 1768213.206467075 ; 1.0503753733079137E7 ; 0.0
102 ; 21480.500035924924 ; 165744.87414088915 ; 1789904.4937809436 ; 1.0668107315664666E7 ; 0.0
103 ; 21543.104997662682 ; 167136.211561153 ; 1811384.9938168684 ; 1.0833852189805554E7 ; 0.0
104 ; 21513.14656907928 ; 168527.48906675447 ; 1832928.098814531 ; 1.1000988401366707E7 ; 0.0
105 ; 21340.06822514978 ; 169918.60347945863 ; 1854441.2453836103 ; 1.116951589043346E7 ; 0.0
106 ; 21256.65773897099 ; 171309.45412396934 ; 1875781.31360876 ; 1.1339434493912918E7 ; 0.0
107 ; 20990.335117797997 ; 172699.94273379055 ; 1897037.971347731 ; 1.1510743948036889E7 ; 0.0
108 ; 20888.314774898925 ; 174089.9733611492 ; 1918028.3064655291 ; 1.168344389077068E7 ; 0.0
109 ; 20691.813952934273 ; 175479.45229079697 ; 1938916.621240428 ; 1.1857533864131829E7 ; 0.0
110 ; 20559.181513048792 ; 176868.2879575158 ; 1959608.4351933622 ; 1.2033013316422626E7 ; 0.0
111 ; 20665.38881246205 ; 178256.39086716002 ; 1980167.616706411 ; 1.2209881604380142E7 ; 0.0
112 ; 20337.345657840604 ; 179643.67352107487 ; 2000833.005518873 ; 1.2388137995247303E7 ; 0.0
113 ; 20149.666300968885 ; 181030.05034373893 ; 2021170.3511767136 ; 1.2567781668768378E7 ; 0.0
114 ; 19895.41637718804 ; 182415.43761348474 ; 2041320.0174776826 ; 1.2748811719112117E7 ; 0.0
115 ; 19807.011802220197 ; 183799.75339615802 ; 2061215.4338548705 ; 1.2931227156725602E7 ; 0.0
116 ; 19714.4459308108 ; 185182.91748158276 ; 2081022.4456570907 ; 1.311502691012176E7 ; 0.0
117 ; 19333.52485046097 ; 186564.8513227057 ; 2100736.8915879014 ; 1.3300209827603342E7 ; 0.0
118 ; 19325.7360449231 ; 187945.47797729843 ; 2120070.4164383626 ; 1.3486774678926047E7 ; 0.0
119 ; 19042.569546189516 ; 189324.7220521028 ; 2139396.152483286 ; 1.3674720156903345E7 ; 0.0
120 ; 18915.91159518611 ; 190702.50964930863 ; 2158438.7220294755 ; 1.3864044878955448E7 ; 0.0
121 ; 18643.285154027468 ; 192078.76831525963 ; 2177354.6336246617 ; 1.4054747388604756E7 ; 0.0
122 ; 18258.486862040274 ; 193453.42699128695 ; 2195997.918778689 ; 1.4246826156920016E7 ; 0.0
123 ; 18055.03407211742 ; 194826.41596657538 ; 2214256.4056407292 ; 1.4440279583911303E7 ; 0.0
124 ; 18037.098264442408 ; 196197.66683297092 ; 2232311.4397128467 ; 1.463510599987788E7 ; 0.0
125 ; 17697.5009869432 ; 197567.11244164372 ; 2250348.537977289 ; 1.483130366671085E7 ; 0.0
126 ; 17530.26034524674 ; 198934.68686152317 ; 2268046.038964232 ; 1.5028870779152494E7 ; 0.0
127 ; 17193.144152453846 ; 200300.3253394266 ; 2285576.2993094786 ; 1.5227805466014016E7 ; 0.0
128 ; 17033.49303546457 ; 201663.96426180727 ; 2302769.4434619322 ; 1.5428105791353444E7 ; 0.0
129 ; 16809.54530144651 ; 203025.54111804877 ; 2319802.936497397 ; 1.5629769755615251E7 ; 0.0
130 ; 16442.431859629225 ; 204384.99446523908 ; 2336612.4817988435 ; 1.58327952967333E7 ; 0.0
131 ; 16109.659520218729 ; 205742.26389435853 ; 2353054.9136584727 ; 1.6037180291198539E7 ; 0.0
132 ; 15958.223349263351 ; 207097.2899978198 ; 2369164.5731786913 ; 1.6242922555092897E7 ; 0.0
133 ; 15688.762880645789 ; 208450.01433830155 ; 2385122.7965279547 ; 1.6450019845090717E7 ; 0.0
134 ; 15322.835923857136 ; 209800.37941881805 ; 2400811.5594086004 ; 1.6658469859429019E7 ; 0.0
135 ; 15201.649094074466 ; 211148.3286539732 ; 2416134.3953324575 ; 1.6868270238847837E7 ; 0.0
136 ; 14780.938170791133 ; 212493.80634234566 ; 2431336.044426532 ; 1.707941856750181E7 ; 0.0
137 ; 14456.429164021763 ; 213836.75763995756 ; 2446116.982597323 ; 1.7291912373844154E7 ; 0.0
138 ; 14271.517032162068 ; 215177.1285347804 ; 2460573.411761345 ; 1.750574913148411E7 ; 0.0
139 ; 14084.261981691841 ; 216514.86582223268 ; 2474844.928793507 ; 1.772092626001889E7 ; 0.0
140 ; 13762.796311856277 ; 217849.91708162823 ; 2488929.190775199 ; 1.7937441125841122E7 ; 0.0
141 ; 13312.296711169232 ; 219182.23065353392 ; 2502691.987087055 ; 1.815529104292275E7 ; 0.0
142 ; 13041.601671507598 ; 220511.75561799866 ; 2516004.2837982243 ; 1.8374473273576286E7 ; 0.0
143 ; 12657.955345840574 ; 221838.44177361685 ; 2529045.885469732 ; 1.8594985029194284E7 ; 0.0
144 ; 12379.219379736243 ; 223162.2396173916 ; 2541703.8408155725 ; 1.88168234709679E7 ; 0.0
145 ; 12431.747463436994 ; 224483.1003253631 ; 2554083.0601953086 ; 1.9039985710585292E7 ; 0.0
146 ; 12072.912946349905 ; 225800.97573397175 ; 2566514.8076587454 ; 1.9264468810910657E7 ; 0.0
147 ; 12093.125444046043 ; 227115.81832212437 ; 2578587.7206050954 ; 1.949026978664463E7 ; 0.0
148 ; 12079.751547205771 ; 228427.58119393504 ; 2590680.8460491416 ; 1.9717385604966756E7 ; 0.0
149 ; 11806.256512903627 ; 229736.2180621123 ; 2602760.5975963473 ; 1.994581318616069E7 ; 0.0
150 ; 11892.778908538628 ; 231041.68323196613 ; 2614566.854109251 ; 2.0175549404222805E7 ; 0.0
151 ; 11587.098061108649 ; 232343.93158601038 ; 2626459.6330177896 ; 2.040659108745477E7 ; 0.0
152 ; 11710.637377638763 ; 233642.91856913498 ; 2638046.731078898 ; 2.063893501904078E7 ; 0.0
153 ; 11402.600691982054 ; 234938.60017432514 ; 2649757.368456537 ; 2.0872577937609915E7 ; 0.0
154 ; 11295.523192097098 ; 236230.9329289067 ; 2661159.969148519 ; 2.110751653778424E7 ; 0.0
155 ; 11275.691056018535 ; 237519.87388129448 ; 2672455.492340616 ; 2.1343747470713146E7 ; 0.0
156 ; 11206.917979919628 ; 238805.3805882249 ; 2683731.1833966346 ; 2.158126734459444E7 ; 0.0
157 ; 11160.593854989158 ; 240087.41110245296 ; 2694938.1013765545 ; 2.1820072725182667E7 ; 0.0
158 ; 10941.092926946094 ; 241365.92396089504 ; 2706098.695231544 ; 2.206016013628512E7 ; 0.0
159 ; 10692.240276763749 ; 242640.8781732003 ; 2717039.78815849 ; 2.2301526060246013E7 ; 0.0
160 ; 10696.190265514877 ; 243912.23321073322 ; 2727732.0284352535 ; 2.254416693841921E7 ; 0.0
161 ; 10634.307592898416 ; 245179.9489959511 ; 2738428.2187007684 ; 2.2788079171629947E7 ; 0.0
162 ; 10435.453978858952 ; 246443.9858921622 ; 2749062.526293667 ; 2.30332591206259E7 ; 0.0
163 ; 10428.455332539652 ; 247704.30469364757 ; 2759497.980272526 ; 2.327970310651806E7 ; 0.0
164 ; 10210.278982950733 ; 248960.86661613474 ; 2769926.4356050654 ; 2.3527407411211707E7 ; 0.0
165 ; 10100.040138801738 ; 250213.63328760775 ; 2780136.7145880163 ; 2.377636827782784E7 ; 0.0
166 ; 9844.843263358163 ; 251462.56673944197 ; 2790236.754726818 ; 2.402658191111545E7 ; 0.0
167 ; 9818.305162713348 ; 252707.62939785034 ; 2800081.597990176 ; 2.4278044477854893E7 ; 0.0
168 ; 9634.204478765156 ; 253948.78407562943 ; 2809899.9031528896 ; 2.4530752107252743E7 ; 0.0
169 ; 9450.595338295461 ; 255185.9939641939 ; 2819534.107631655 ; 2.4784700891328372E7 ; 0.0
170 ; 9495.782716624668 ; 256419.2226258889 ; 2828984.7029699506 ; 2.5039886885292567E7 ; 0.0
171 ; 9297.520934907281 ; 257648.43398656865 ; 2838480.485686575 ; 2.5296306107918456E7 ; 0.0
172 ; 9199.222486911098 ; 258873.5923284326 ; 2847778.0066214823 ; 2.5553954541905023E7 ; 0.0
173 ; 9123.702375041168 ; 260094.66228310863 ; 2856977.229108393 ; 2.5812828134233456E7 ; 0.0
174 ; 8968.982664664061 ; 261311.60882497433 ; 2866100.9314834345 ; 2.6072922796516564E7 ; 0.0
175 ; 8978.591065468298 ; 262524.3972647079 ; 2875069.914148099 ; 2.633423440534154E7 ; 0.0
176 ; 9127.61823658734 ; 263732.993243059 ; 2884048.505213567 ; 2.6596758802606247E7 ; 0.0
177 ; 9061.53596213344 ; 264937.362724833 ; 2893176.1234501544 ; 2.6860491795849305E7 ; 0.0
178 ; 9181.307789558818 ; 266137.47199307947 ; 2902237.659412288 ; 2.7125429158574138E7 ; 0.0
179 ; 9193.329820031853 ; 267333.2876434784 ; 2911418.967201847 ; 2.739156663056722E7 ; 0.0
180 ; 9159.607223905357 ; 268524.77657891624 ; 2920612.297021879 ; 2.7658899918210696E7 ; 0.0
181 ; 9229.627199009446 ; 269711.9060042449 ; 2929771.904245784 ; 2.792742469478961E7 ; 0.0
182 ; 9252.375016758688 ; 270894.6434212181 ; 2939001.5314447936 ; 2.8197136600793857E7 ; 0.0
183 ; 9352.524392716146 ; 272072.9566235969 ; 2948253.9064615523 ; 2.8468031244215075E7 ; 0.0
184 ; 9301.02273728381 ; 273246.81369242014 ; 2957606.4308542684 ; 2.874010420083867E7 ; 0.0
185 ; 9421.804693983024 ; 274416.18299143284 ; 2966907.453591552 ; 2.901335101453109E7 ; 0.0
186 ; 9537.68673539585 ; 275581.03316266683 ; 2976329.258285535 ; 2.9287767197522525E7 ; 0.0
187 ; 9359.952623382933 ; 276741.33312216896 ; 2985866.945020931 ; 2.9563348230685193E7 ; 0.0
188 ; 9419.786871530843 ; 277897.0520558713 ; 2995226.897644314 ; 2.984008956380736E7 ; 0.0
189 ; 9336.74331644505 ; 279048.15941559785 ; 3004646.684515845 ; 3.0117986615863234E7 ; 0.0
190 ; 9575.904366640629 ; 280194.6249152039 ; 3013983.42783229 ; 3.0397034775278833E7 ; 0.0
191 ; 9561.105426302918 ; 281336.41852684255 ; 3023559.332198931 ; 3.0677229400194038E7 ; 0.0
192 ; 9660.811844073123 ; 282473.51047735434 ; 3033120.437625234 ; 3.095856581872088E7 ; 0.0
193 ; 9620.74883640348 ; 283605.8712447758 ; 3042781.2494693073 ; 3.1241039329198234E7 ; 0.0
194 ; 9628.396143506856 ; 284733.4715549627 ; 3052401.998305711 ; 3.152464520044301E7 ; 0.0
195 ; 9585.373769161728 ; 285856.2823783239 ; 3062030.3944492177 ; 3.180937867199797E7 ; 0.0
196 ; 9652.488279690411 ; 286974.27492666204 ; 3071615.7682183795 ; 3.2095234954376295E7 ; 0.0
197 ; 9754.195169746188 ; 288087.4206501179 ; 3081268.25649807 ; 3.2382209229302958E7 ; 0.0
198 ; 9760.378708618417 ; 289195.69123421377 ; 3091022.4516678164 ; 3.2670296649953075E7 ; 0.0
199 ; 9738.168986910101 ; 290299.05859699403 ; 3100782.8303764346 ; 3.2959492341187287E7 ; 0.0
200 ; 9744.049108977928 ; 291397.494886258 ; 3110520.9993633446 ; 3.324979139978428E7 ; 0.0
201 ; 9893.007322577374 ; 292490.9724768832 ; 3120265.0484723225 ; 3.354118889467054E7 ; 0.0
202 ; 9893.501301910834 ; 293579.4639682355 ; 3130158.0557949 ; 3.383367986714742E7 ; 0.0
203 ; 9846.59524406069 ; 294662.9421816627 ; 3140051.5570968105 ; 3.4127259331115656E7 ; 0.0
204 ; 9976.336390655251 ; 295741.3801580702 ; 3149898.1523408713 ; 3.442192227329732E7 ; 0.0
205 ; 10073.522083759675 ; 296814.75115557417 ; 3159874.4887315263 ; 3.4717663653455384E7 ; 0.0
206 ; 9981.9769354758 ; 297883.0286472312 ; 3169948.010815286 ; 3.501447840461096E7 ; 0.0
207 ; 9973.831145152952 ; 298946.1863188411 ; 3179929.9877507617 ; 3.531236143325819E7 ; 0.0
208 ; 10067.896344248891 ; 300004.19806682057 ; 3189903.8188959146 ; 3.5611307619577035E7 ; 0.0
209 ; 10037.45913252787 ; 301057.03799614514 ; 3199971.7152401633 ; 3.591131181764386E7 ; 0.0
210 ; 10114.904602180402 ; 302104.68041835836 ; 3210009.174372691 ; 3.621236885564E7 ; 0.0
211 ; 10046.334732260751 ; 303147.099849644 ; 3220124.0789748714 ; 3.651447353605836E7 ; 0.0
212 ; 10116.639411695116 ; 304184.2710089609 ; 3230170.413707132 ; 3.6817620635908E7 ; 0.0
