CSV File for the City 1 on Day 282
1 - Minute m 
2 - Power Consumed at minute m 
3 - Power Produced at minute m 
4 - Energy Consumed since the beginning of the day 
5 - Energy Produced since the beginning of the day 
6 - Energy Lost since the beginning of the day on lines starting from the city
 
0 ; 9174.902562791027 ; 3544.2801589328446 ; 0.0 ; 0.0 ; 0.0
1 ; 9659.22063202285 ; 3544.2801589328446 ; 9174.902562791027 ; 3544.2801589328446 ; 238.00000000000003
2 ; 10025.058524486452 ; 3544.2801589328446 ; 18834.123194813877 ; 7088.560317865689 ; 476.00000000000006
3 ; 10454.153245735473 ; 3544.2801589328446 ; 28859.18171930033 ; 10632.840476798534 ; 714.0000000000001
4 ; 10783.1511715831 ; 3544.2801589328446 ; 39313.3349650358 ; 14177.120635731379 ; 952.0000000000001
5 ; 11427.57698047692 ; 3544.2801589328446 ; 50096.4861366189 ; 17721.400794664223 ; 1190.0000000000002
6 ; 11731.919223978377 ; 3544.2801589328446 ; 61524.06311709582 ; 21265.680953597068 ; 1428.0000000000002
7 ; 12266.977180844282 ; 3544.2801589328446 ; 73255.9823410742 ; 24809.961112529912 ; 1666.0000000000002
8 ; 12611.027704720062 ; 3544.2801589328446 ; 85522.95952191847 ; 28354.241271462757 ; 1904.0000000000002
9 ; 13271.244197110238 ; 3544.2801589328446 ; 98133.98722663854 ; 31898.5214303956 ; 2142.0000000000005
10 ; 13430.27616716297 ; 3544.2801589328446 ; 111405.23142374877 ; 35442.80158932845 ; 2380.0000000000005
11 ; 13792.697312033857 ; 3544.2801589328446 ; 124835.50759091174 ; 38987.08174826129 ; 2618.0000000000005
12 ; 14256.126858607531 ; 3544.2801589328446 ; 138628.2049029456 ; 42531.361907194136 ; 2856.0000000000005
13 ; 14590.548216768177 ; 3544.2801589328446 ; 152884.33176155313 ; 46075.64206612698 ; 3094.0000000000005
14 ; 15081.774796735375 ; 3544.2801589328446 ; 167474.87997832132 ; 49619.922225059825 ; 3332.0000000000005
15 ; 15359.740881130409 ; 3544.2801589328446 ; 182556.6547750567 ; 53164.20238399267 ; 3570.0000000000005
16 ; 15815.86122782977 ; 3544.2801589328446 ; 197916.39565618712 ; 56708.482542925514 ; 3808.0000000000005
17 ; 16029.230468843045 ; 3544.2801589328446 ; 213732.25688401688 ; 60252.76270185836 ; 4046.0000000000005
18 ; 16540.36623414602 ; 3544.2801589328446 ; 229761.48735285993 ; 63797.0428607912 ; 4284.000000000001
19 ; 17115.385029636 ; 3544.2801589328446 ; 246301.85358700596 ; 67341.32301972405 ; 4522.000000000001
20 ; 17235.421632137535 ; 3544.2801589328446 ; 263417.23861664196 ; 70885.6031786569 ; 4760.000000000001
21 ; 17627.28799348221 ; 3544.2801589328446 ; 280652.6602487795 ; 74429.88333758974 ; 4998.000000000001
22 ; 18047.207570353097 ; 3544.2801589328446 ; 298279.9482422617 ; 77974.16349652258 ; 5236.000000000001
23 ; 18419.185521791453 ; 3544.2801589328446 ; 316327.15581261483 ; 81518.44365545543 ; 5474.000000000001
24 ; 18695.60197121953 ; 3544.2801589328446 ; 334746.3413344063 ; 85062.72381438827 ; 5712.000000000001
25 ; 18953.035564496517 ; 3544.2801589328446 ; 353441.9433056258 ; 88607.00397332112 ; 5950.000000000001
26 ; 19289.53570923626 ; 3544.2801589328446 ; 372394.97887012234 ; 92151.28413225396 ; 6188.000000000001
27 ; 19473.169505927974 ; 3544.2801589328446 ; 391684.5145793586 ; 95695.5642911868 ; 6426.000000000001
28 ; 19901.697400093646 ; 3544.2801589328446 ; 411157.6840852866 ; 99239.84445011965 ; 6664.000000000001
29 ; 20002.83147129304 ; 3544.2801589328446 ; 431059.38148538023 ; 102784.1246090525 ; 6902.000000000001
30 ; 20459.284494170475 ; 3544.2801589328446 ; 451062.2129566733 ; 106328.40476798534 ; 7140.000000000001
31 ; 20710.395773442204 ; 3544.2801589328446 ; 471521.49745084374 ; 109872.68492691818 ; 7378.000000000001
32 ; 21216.94303334739 ; 3544.2801589328446 ; 492231.893224286 ; 113416.96508585103 ; 7616.000000000001
33 ; 21341.481558738302 ; 3544.2801589328446 ; 513448.83625763335 ; 116961.24524478387 ; 7854.000000000001
34 ; 21586.643098358352 ; 3544.2801589328446 ; 534790.3178163717 ; 120505.52540371672 ; 8092.000000000001
35 ; 21977.478777939785 ; 3544.2801589328446 ; 556376.96091473 ; 124049.80556264956 ; 8330.000000000002
36 ; 22081.783392359568 ; 3544.2801589328446 ; 578354.4396926698 ; 127594.0857215824 ; 8568.000000000002
37 ; 22361.80525412052 ; 3544.2801589328446 ; 600436.2230850294 ; 131138.36588051525 ; 8806.000000000002
38 ; 22645.853880401373 ; 3544.2801589328446 ; 622798.0283391499 ; 134682.6460394481 ; 9044.000000000002
39 ; 22984.55450262757 ; 3544.2801589328446 ; 645443.8822195512 ; 138226.92619838094 ; 9282.000000000002
40 ; 23220.073815090134 ; 3544.2801589328446 ; 668428.4367221788 ; 141771.2063573138 ; 9520.000000000002
41 ; 23475.234210144128 ; 3544.2801589328446 ; 691648.510537269 ; 145315.48651624663 ; 9758.000000000002
42 ; 23569.892820935864 ; 3544.2801589328446 ; 715123.7447474131 ; 148859.76667517947 ; 9996.000000000002
43 ; 23831.590475266872 ; 3544.2801589328446 ; 738693.6375683489 ; 152404.04683411232 ; 10234.000000000002
44 ; 24002.439513658534 ; 3544.2801589328446 ; 762525.2280436158 ; 155948.32699304516 ; 10472.000000000002
45 ; 24351.260108270475 ; 3544.2801589328446 ; 786527.6675572743 ; 159492.607151978 ; 10710.000000000002
46 ; 24436.036113434624 ; 3544.2801589328446 ; 810878.9276655448 ; 163036.88731091085 ; 10948.000000000002
47 ; 24786.77895678584 ; 3544.2801589328446 ; 835314.9637789794 ; 166581.1674698437 ; 11186.000000000002
48 ; 24798.394151683013 ; 3544.2801589328446 ; 860101.7427357652 ; 170125.44762877654 ; 11424.000000000002
49 ; 25096.026224702502 ; 3544.2801589328446 ; 884900.1368874481 ; 173669.7277877094 ; 11662.000000000002
50 ; 25366.45815672072 ; 3544.2801589328446 ; 909996.1631121506 ; 177214.00794664223 ; 11900.000000000002
51 ; 25530.620882329305 ; 3544.2801589328446 ; 935362.6212688714 ; 180758.28810557508 ; 12138.000000000002
52 ; 25562.976747781784 ; 3544.2801589328446 ; 960893.2421512007 ; 184302.56826450792 ; 12376.000000000002
53 ; 25752.865837333247 ; 3544.2801589328446 ; 986456.2188989824 ; 187846.84842344077 ; 12614.000000000002
54 ; 26068.92905223669 ; 3544.2801589328446 ; 1012209.0847363156 ; 191391.1285823736 ; 12852.000000000002
55 ; 25992.207204954684 ; 3544.2801589328446 ; 1038278.0137885524 ; 194935.40874130646 ; 13090.000000000002
56 ; 26254.604637807963 ; 3544.2801589328446 ; 1064270.220993507 ; 198479.6889002393 ; 13328.000000000002
57 ; 26439.6307590237 ; 3544.2801589328446 ; 1090524.825631315 ; 202023.96905917214 ; 13566.000000000002
58 ; 26464.35414597238 ; 3544.2801589328446 ; 1116964.4563903385 ; 205568.249218105 ; 13804.000000000002
59 ; 26548.269468235514 ; 3544.2801589328446 ; 1143428.8105363108 ; 209112.52937703783 ; 14042.000000000002
60 ; 26716.29368552382 ; 3544.2801589328446 ; 1169977.0800045463 ; 212656.80953597068 ; 14280.000000000002
61 ; 26872.253053927565 ; 3544.2801589328446 ; 1196693.3736900701 ; 216201.08969490352 ; 14518.000000000002
62 ; 27035.914726794537 ; 3544.2801589328446 ; 1223565.6267439977 ; 219745.36985383637 ; 14756.000000000002
63 ; 26974.22176937431 ; 3544.2801589328446 ; 1250601.5414707921 ; 223289.6500127692 ; 14994.000000000002
64 ; 27179.096080362804 ; 3544.2801589328446 ; 1277575.7632401665 ; 226833.93017170206 ; 15232.000000000002
65 ; 27300.632923634454 ; 3544.2801589328446 ; 1304754.8593205293 ; 230378.2103306349 ; 15470.000000000002
66 ; 27362.830648955853 ; 3544.2801589328446 ; 1332055.4922441638 ; 233922.49048956775 ; 15708.000000000002
67 ; 27550.392561365803 ; 3544.2801589328446 ; 1359418.3228931196 ; 237466.7706485006 ; 15946.000000000002
68 ; 27340.20387902193 ; 3544.2801589328446 ; 1386968.7154544855 ; 241011.05080743344 ; 16184.000000000002
69 ; 27608.913252412898 ; 3544.2801589328446 ; 1414308.9193335075 ; 244555.33096636628 ; 16422.000000000004
70 ; 27822.94067684152 ; 3544.2801589328446 ; 1441917.8325859203 ; 248099.61112529912 ; 16660.000000000004
71 ; 27764.64287118562 ; 3544.2801589328446 ; 1469740.7732627618 ; 251643.89128423197 ; 16898.000000000004
72 ; 27812.245230691202 ; 3544.2801589328446 ; 1497505.4161339474 ; 255188.1714431648 ; 17136.000000000004
73 ; 27902.52125041251 ; 3544.2801589328446 ; 1525317.6613646387 ; 258732.45160209766 ; 17374.000000000004
74 ; 27914.4209827065 ; 3544.2801589328446 ; 1553220.1826150513 ; 262276.7317610305 ; 17612.000000000004
75 ; 28081.72390317319 ; 3544.2801589328446 ; 1581134.6035977579 ; 265821.01191996335 ; 17850.000000000004
76 ; 27930.770738906613 ; 3544.2801589328446 ; 1609216.327500931 ; 269365.2920788962 ; 18088.000000000004
77 ; 28111.134629268177 ; 3544.2801589328446 ; 1637147.0982398377 ; 272909.57223782904 ; 18326.000000000004
78 ; 28166.48954083686 ; 3544.2801589328446 ; 1665258.2328691059 ; 276453.8523967619 ; 18564.000000000004
79 ; 28148.199807384914 ; 3544.2801589328446 ; 1693424.7224099427 ; 279998.1325556947 ; 18802.000000000004
80 ; 28155.45681769364 ; 3544.2801589328446 ; 1721572.9222173276 ; 283542.4127146276 ; 19040.000000000004
81 ; 28060.305063598225 ; 3544.2801589328446 ; 1749728.3790350212 ; 287086.6928735604 ; 19278.000000000004
82 ; 28183.605721329484 ; 3544.2801589328446 ; 1777788.6840986195 ; 290630.97303249326 ; 19516.000000000004
83 ; 28001.75655368016 ; 3544.2801589328446 ; 1805972.289819949 ; 294175.2531914261 ; 19754.000000000004
84 ; 28016.500049757626 ; 3544.2801589328446 ; 1833974.0463736292 ; 297719.53335035895 ; 19992.000000000004
85 ; 27915.577422114296 ; 3544.2801589328446 ; 1861990.5464233868 ; 301263.8135092918 ; 20230.000000000004
86 ; 28077.508559539565 ; 3544.2801589328446 ; 1889906.123845501 ; 304808.09366822464 ; 20468.000000000004
87 ; 28002.80972680392 ; 3544.2801589328446 ; 1917983.6324050408 ; 308352.3738271575 ; 20706.000000000004
88 ; 27933.61971406613 ; 3544.2801589328446 ; 1945986.4421318448 ; 311896.6539860903 ; 20944.000000000004
89 ; 27853.92236178817 ; 3544.2801589328446 ; 1973920.061845911 ; 315440.9341450232 ; 21182.000000000004
90 ; 27834.431513847656 ; 3544.2801589328446 ; 2001773.984207699 ; 318985.214303956 ; 21420.000000000004
91 ; 27876.585377669482 ; 3544.2801589328446 ; 2029608.4157215466 ; 322529.49446288886 ; 21658.000000000004
92 ; 27853.75738466186 ; 3544.2801589328446 ; 2057485.001099216 ; 326073.7746218217 ; 21896.000000000004
93 ; 27746.316621816848 ; 3544.2801589328446 ; 2085338.7584838779 ; 329618.05478075455 ; 22134.000000000004
94 ; 27659.89940250713 ; 3544.2801589328446 ; 2113085.0751056946 ; 333162.3349396874 ; 22372.000000000004
95 ; 27494.030517090585 ; 3544.2801589328446 ; 2140744.9745082017 ; 336706.61509862024 ; 22610.000000000004
96 ; 27629.404501326946 ; 3544.2801589328446 ; 2168239.0050252923 ; 340250.8952575531 ; 22848.000000000004
97 ; 27438.10500528585 ; 3544.2801589328446 ; 2195868.409526619 ; 343795.17541648593 ; 23086.000000000004
98 ; 27311.879133845614 ; 3544.2801589328446 ; 2223306.514531905 ; 347339.4555754188 ; 23324.000000000004
99 ; 27322.9652496051 ; 3544.2801589328446 ; 2250618.3936657505 ; 350883.7357343516 ; 23562.000000000004
100 ; 27070.5398908993 ; 3544.2801589328446 ; 2277941.3589153555 ; 354428.01589328446 ; 23800.000000000004
101 ; 27143.24978404721 ; 3544.2801589328446 ; 2305011.898806255 ; 357972.2960522173 ; 24038.000000000004
102 ; 26822.390409129133 ; 3544.2801589328446 ; 2332155.148590302 ; 361516.57621115015 ; 24276.000000000004
103 ; 27087.67431233971 ; 3544.2801589328446 ; 2358977.5389994313 ; 365060.856370083 ; 24514.000000000004
104 ; 26496.67663169643 ; 3544.2801589328446 ; 2386065.213311771 ; 368605.13652901584 ; 24752.000000000004
105 ; 26627.16769377624 ; 3544.2801589328446 ; 2412561.8899434675 ; 372149.4166879487 ; 24990.000000000004
106 ; 26421.230454951703 ; 3544.2801589328446 ; 2439189.0576372435 ; 375693.69684688153 ; 25228.000000000004
107 ; 26392.008468740863 ; 3544.2801589328446 ; 2465610.288092195 ; 379237.9770058144 ; 25466.000000000004
108 ; 26109.88560468402 ; 3544.2801589328446 ; 2492002.296560936 ; 382782.2571647472 ; 25704.000000000004
109 ; 26032.155598121946 ; 3544.2801589328446 ; 2518112.1821656204 ; 386326.53732368007 ; 25942.000000000004
110 ; 25897.761806592196 ; 3544.2801589328446 ; 2544144.3377637425 ; 389870.8174826129 ; 26180.000000000004
111 ; 25481.685222717708 ; 3544.2801589328446 ; 2570042.099570335 ; 393415.09764154576 ; 26418.000000000004
112 ; 25563.670165958043 ; 3544.2801589328446 ; 2595523.784793053 ; 396959.3778004786 ; 26656.000000000004
113 ; 25260.581271299307 ; 3544.2801589328446 ; 2621087.4549590107 ; 400503.65795941144 ; 26894.000000000004
114 ; 25043.93630902939 ; 3544.2801589328446 ; 2646348.03623031 ; 404047.9381183443 ; 27132.000000000004
115 ; 24887.750718539162 ; 3544.2801589328446 ; 2671391.972539339 ; 407592.21827727713 ; 27370.000000000004
116 ; 24606.88417878084 ; 3544.2801589328446 ; 2696279.7232578783 ; 411136.49843621 ; 27608.000000000004
117 ; 24639.960109923915 ; 3544.2801589328446 ; 2720886.6074366593 ; 414680.7785951428 ; 27846.000000000004
118 ; 24264.41128736465 ; 3544.2801589328446 ; 2745526.5675465832 ; 418225.05875407567 ; 28084.000000000004
119 ; 24323.848890779445 ; 3544.2801589328446 ; 2769790.978833948 ; 421769.3389130085 ; 28322.000000000004
120 ; 23823.34468846397 ; 3544.2801589328446 ; 2794114.8277247273 ; 425313.61907194136 ; 28560.000000000004
121 ; 23679.359413690447 ; 3544.2801589328446 ; 2817938.1724131913 ; 428857.8992308742 ; 28798.000000000004
122 ; 23424.702298600056 ; 3544.2801589328446 ; 2841617.5318268817 ; 432402.17938980705 ; 29036.000000000004
123 ; 23027.529772594764 ; 3544.2801589328446 ; 2865042.234125482 ; 435946.4595487399 ; 29274.000000000004
124 ; 23005.754326731705 ; 3544.2801589328446 ; 2888069.7638980765 ; 439490.73970767274 ; 29512.000000000004
125 ; 22678.93267070562 ; 3544.2801589328446 ; 2911075.5182248084 ; 443035.0198666056 ; 29750.000000000004
126 ; 22276.232719291085 ; 3544.2801589328446 ; 2933754.450895514 ; 446579.3000255384 ; 29988.000000000004
127 ; 22195.53900917757 ; 3544.2801589328446 ; 2956030.683614805 ; 450123.58018447127 ; 30226.000000000004
128 ; 21830.33537450031 ; 3544.2801589328446 ; 2978226.2226239825 ; 453667.8603434041 ; 30464.000000000004
129 ; 21592.289929577226 ; 3544.2801589328446 ; 3000056.5579984826 ; 457212.14050233696 ; 30702.000000000004
130 ; 21385.009202665362 ; 3544.2801589328446 ; 3021648.8479280598 ; 460756.4206612698 ; 30940.000000000004
131 ; 21077.886912708927 ; 3544.2801589328446 ; 3043033.857130725 ; 464300.70082020265 ; 31178.000000000004
132 ; 20973.549809034816 ; 3544.2801589328446 ; 3064111.744043434 ; 467844.9809791355 ; 31416.000000000004
133 ; 20325.75597566917 ; 3544.2801589328446 ; 3085085.293852469 ; 471389.26113806834 ; 31654.000000000004
134 ; 20170.74552699113 ; 3544.2801589328446 ; 3105411.049828138 ; 474933.5412970012 ; 31892.000000000004
135 ; 19867.179233505696 ; 3544.2801589328446 ; 3125581.7953551295 ; 478477.821455934 ; 32130.000000000004
136 ; 19509.71781597064 ; 3544.2801589328446 ; 3145448.9745886354 ; 482022.1016148669 ; 32368.000000000004
137 ; 19297.9090359534 ; 3544.2801589328446 ; 3164958.692404606 ; 485566.3817737997 ; 32606.000000000004
138 ; 19088.00332785153 ; 3544.2801589328446 ; 3184256.601440559 ; 489110.66193273256 ; 32844.00000000001
139 ; 18761.704258446727 ; 3544.2801589328446 ; 3203344.604768411 ; 492654.9420916654 ; 33082.00000000001
140 ; 18533.48562006747 ; 3544.2801589328446 ; 3222106.3090268574 ; 496199.22225059825 ; 33320.00000000001
141 ; 17700.13059386055 ; 3544.2801589328446 ; 3240639.794646925 ; 499743.5024095311 ; 33558.00000000001
142 ; 17590.678231289057 ; 3544.2801589328446 ; 3258339.9252407853 ; 503287.78256846394 ; 33796.00000000001
143 ; 17026.194095753344 ; 3544.2801589328446 ; 3275930.6034720745 ; 506832.0627273968 ; 34034.00000000001
144 ; 16863.26935545315 ; 3544.2801589328446 ; 3292956.7975678276 ; 510376.3428863296 ; 34272.00000000001
145 ; 16587.17053290054 ; 3544.2801589328446 ; 3309820.0669232807 ; 513920.6230452625 ; 34510.00000000001
146 ; 16673.309628321025 ; 3544.2801589328446 ; 3326407.237456181 ; 517464.9032041953 ; 34748.00000000001
147 ; 16435.293935115915 ; 3544.2801589328446 ; 3343080.547084502 ; 521009.18336312816 ; 34986.00000000001
148 ; 16613.971135552125 ; 3544.2801589328446 ; 3359515.841019618 ; 524553.463522061 ; 35224.00000000001
149 ; 16295.673732658712 ; 3544.2801589328446 ; 3376129.81215517 ; 528097.7436809938 ; 35462.00000000001
150 ; 16009.740767806437 ; 3544.2801589328446 ; 3392425.4858878287 ; 531642.0238399266 ; 35700.00000000001
151 ; 16126.070892383657 ; 3544.2801589328446 ; 3408435.226655635 ; 535186.3039988594 ; 35938.00000000001
152 ; 16081.584043785675 ; 3544.2801589328446 ; 3424561.297548019 ; 538730.5841577922 ; 36176.00000000001
153 ; 15888.420868021203 ; 3544.2801589328446 ; 3440642.8815918043 ; 542274.8643167249 ; 36414.00000000001
154 ; 15577.079388877788 ; 3544.2801589328446 ; 3456531.3024598258 ; 545819.1444756577 ; 36652.00000000001
155 ; 15445.989825018785 ; 3544.2801589328446 ; 3472108.3818487036 ; 549363.4246345905 ; 36890.00000000001
156 ; 15418.399625059614 ; 3544.2801589328446 ; 3487554.3716737223 ; 552907.7047935233 ; 37128.00000000001
157 ; 15277.792876370877 ; 3544.2801589328446 ; 3502972.771298782 ; 556451.9849524561 ; 37366.00000000001
158 ; 15223.929525267027 ; 3544.2801589328446 ; 3518250.5641751527 ; 559996.2651113889 ; 37604.00000000001
159 ; 15232.134692666732 ; 3544.2801589328446 ; 3533474.4937004196 ; 563540.5452703217 ; 37842.00000000001
160 ; 14972.79489617507 ; 3544.2801589328446 ; 3548706.628393086 ; 567084.8254292544 ; 38080.00000000001
161 ; 14813.767810119618 ; 3544.2801589328446 ; 3563679.4232892613 ; 570629.1055881872 ; 38318.00000000001
162 ; 14763.224939041282 ; 3544.2801589328446 ; 3578493.191099381 ; 574173.38574712 ; 38556.00000000001
163 ; 14716.009449035579 ; 3544.2801589328446 ; 3593256.4160384224 ; 577717.6659060528 ; 38794.00000000001
164 ; 14368.308355360712 ; 3544.2801589328446 ; 3607972.425487458 ; 581261.9460649856 ; 39032.00000000001
165 ; 14418.374780327784 ; 3544.2801589328446 ; 3622340.7338428185 ; 584806.2262239184 ; 39270.00000000001
166 ; 14049.261093888104 ; 3544.2801589328446 ; 3636759.1086231465 ; 588350.5063828512 ; 39508.00000000001
167 ; 14134.347261670906 ; 3544.2801589328446 ; 3650808.3697170345 ; 591894.786541784 ; 39746.00000000001
168 ; 13814.367751803444 ; 3544.2801589328446 ; 3664942.7169787055 ; 595439.0667007167 ; 39984.00000000001
169 ; 13668.748399189508 ; 3544.2801589328446 ; 3678757.0847305087 ; 598983.3468596495 ; 40222.00000000001
170 ; 13564.61506355891 ; 3544.2801589328446 ; 3692425.8331296984 ; 602527.6270185823 ; 40460.00000000001
171 ; 13394.37436638215 ; 3544.2801589328446 ; 3705990.448193257 ; 606071.9071775151 ; 40698.00000000001
172 ; 13124.849771775645 ; 3544.2801589328446 ; 3719384.8225596393 ; 609616.1873364479 ; 40936.00000000001
173 ; 13123.210555822217 ; 3544.2801589328446 ; 3732509.672331415 ; 613160.4674953807 ; 41174.00000000001
174 ; 13118.766420543749 ; 3544.2801589328446 ; 3745632.8828872372 ; 616704.7476543135 ; 41412.00000000001
175 ; 13311.160415725926 ; 3544.2801589328446 ; 3758751.649307781 ; 620249.0278132462 ; 41650.00000000001
176 ; 13211.96581311628 ; 3544.2801589328446 ; 3772062.8097235067 ; 623793.307972179 ; 41888.00000000001
177 ; 13163.564318028428 ; 3544.2801589328446 ; 3785274.775536623 ; 627337.5881311118 ; 42126.00000000001
178 ; 13059.073053990396 ; 3544.2801589328446 ; 3798438.339854651 ; 630881.8682900446 ; 42364.00000000001
179 ; 13300.263667892485 ; 3544.2801589328446 ; 3811497.4129086416 ; 634426.1484489774 ; 42602.00000000001
180 ; 13252.099430851358 ; 3544.2801589328446 ; 3824797.6765765343 ; 637970.4286079102 ; 42840.00000000001
181 ; 13194.88452337759 ; 3544.2801589328446 ; 3838049.7760073855 ; 641514.708766843 ; 43078.00000000001
182 ; 13341.12887288853 ; 3544.2801589328446 ; 3851244.660530763 ; 645058.9889257757 ; 43316.00000000001
183 ; 13344.118236164304 ; 3544.2801589328446 ; 3864585.789403652 ; 648603.2690847085 ; 43554.00000000001
184 ; 13440.516065769061 ; 3544.2801589328446 ; 3877929.907639816 ; 652147.5492436413 ; 43792.00000000001
