CSV File for the City 2 on Day 300
1 - Minute m 
2 - Power Consumed at minute m 
3 - Power Produced at minute m 
4 - Energy Consumed since the beginning of the day 
5 - Energy Produced since the beginning of the day 
6 - Energy Lost since the beginning of the day on lines starting from the city
 
0 ; 9355.921157530609 ; 27434.982751255982 ; 0.0 ; 0.0 ; 0.0
1 ; 9745.022146986346 ; 27434.982751255982 ; 9355.921157530609 ; 27434.982751255982 ; 0.0
2 ; 10144.687075116492 ; 27434.982751255982 ; 19100.943304516957 ; 54869.965502511965 ; 0.0
3 ; 10574.54550256382 ; 27434.982751255982 ; 29245.630379633447 ; 82304.94825376794 ; 0.0
4 ; 10896.618216179597 ; 27434.982751255982 ; 39820.17588219727 ; 109739.93100502393 ; 0.0
5 ; 10965.363852849507 ; 27434.982751255982 ; 50716.794098376864 ; 137174.91375627992 ; 0.0
6 ; 11434.10346771571 ; 27434.982751255982 ; 61682.15795122637 ; 164609.8965075359 ; 0.0
7 ; 11905.841010834243 ; 27434.982751255982 ; 73116.26141894209 ; 192044.87925879186 ; 0.0
8 ; 12221.967862528723 ; 27434.982751255982 ; 85022.10242977634 ; 219479.86201004783 ; 0.0
9 ; 12390.15876973684 ; 27434.982751255982 ; 97244.07029230506 ; 246914.8447613038 ; 0.0
10 ; 12858.17224951048 ; 27434.982751255982 ; 109634.2290620419 ; 274349.8275125598 ; 0.0
11 ; 13148.004649985576 ; 27434.982751255982 ; 122492.40131155237 ; 301784.81026381574 ; 0.0
12 ; 13506.498156740483 ; 27434.982751255982 ; 135640.40596153794 ; 329219.7930150717 ; 0.0
13 ; 13614.218531372051 ; 27434.982751255982 ; 149146.9041182784 ; 356654.7757663277 ; 0.0
14 ; 14092.075032337094 ; 27434.982751255982 ; 162761.12264965047 ; 384089.75851758366 ; 0.0
15 ; 14349.594619191941 ; 27434.982751255982 ; 176853.19768198757 ; 411524.7412688396 ; 0.0
16 ; 14664.419939108968 ; 27434.982751255982 ; 191202.79230117952 ; 438959.7240200956 ; 0.0
17 ; 14975.708604323883 ; 27434.982751255982 ; 205867.2122402885 ; 466394.7067713516 ; 0.0
18 ; 15214.380819104195 ; 27434.982751255982 ; 220842.92084461238 ; 493829.68952260754 ; 0.0
19 ; 15361.974114753857 ; 27434.982751255982 ; 236057.3016637166 ; 521264.6722738635 ; 0.0
20 ; 15607.29455891769 ; 27434.982751255982 ; 251419.27577847044 ; 548699.6550251195 ; 0.0
21 ; 16005.867067723822 ; 27434.982751255982 ; 267026.57033738814 ; 576134.6377763755 ; 0.0
22 ; 16245.236711766318 ; 27434.982751255982 ; 283032.43740511197 ; 603569.6205276315 ; 0.0
23 ; 16547.472228052167 ; 27434.982751255982 ; 299277.6741168783 ; 631004.6032788875 ; 0.0
24 ; 16679.758370907595 ; 27434.982751255982 ; 315825.14634493046 ; 658439.5860301434 ; 0.0
25 ; 16892.67495634455 ; 27434.982751255982 ; 332504.904715838 ; 685874.5687813994 ; 0.0
26 ; 17288.395739271462 ; 27434.982751255982 ; 349397.57967218256 ; 713309.5515326554 ; 0.0
27 ; 17501.065679856292 ; 27434.982751255982 ; 366685.97541145404 ; 740744.5342839113 ; 0.0
28 ; 17808.06495145237 ; 27434.982751255982 ; 384187.0410913103 ; 768179.5170351673 ; 0.0
29 ; 18039.915737351257 ; 27434.982751255982 ; 401995.1060427627 ; 795614.4997864233 ; 0.0
30 ; 18173.77429200146 ; 27434.982751255982 ; 420035.0217801139 ; 823049.4825376793 ; 0.0
31 ; 18380.307917453734 ; 27434.982751255982 ; 438208.79607211536 ; 850484.4652889352 ; 0.0
32 ; 18644.43730812691 ; 27434.982751255982 ; 456589.1039895691 ; 877919.4480401912 ; 0.0
33 ; 18869.061602372476 ; 27434.982751255982 ; 475233.541297696 ; 905354.4307914472 ; 0.0
34 ; 19002.299213553866 ; 27434.982751255982 ; 494102.6029000685 ; 932789.4135427031 ; 0.0
35 ; 19254.898969888345 ; 27434.982751255982 ; 513104.9021136224 ; 960224.3962939591 ; 0.0
36 ; 19270.747014969314 ; 27434.982751255982 ; 532359.8010835107 ; 987659.3790452151 ; 0.0
37 ; 19552.284730212727 ; 27434.982751255982 ; 551630.5480984801 ; 1015094.361796471 ; 0.0
38 ; 19782.198156435767 ; 27434.982751255982 ; 571182.8328286929 ; 1042529.344547727 ; 0.0
39 ; 19849.882780156855 ; 27434.982751255982 ; 590965.0309851286 ; 1069964.327298983 ; 0.0
40 ; 19985.47767324199 ; 27434.982751255982 ; 610814.9137652854 ; 1097399.310050239 ; 0.0
41 ; 20166.302899823833 ; 27434.982751255982 ; 630800.3914385274 ; 1124834.2928014952 ; 0.0
42 ; 20507.873055804044 ; 27434.982751255982 ; 650966.6943383513 ; 1152269.2755527513 ; 0.0
43 ; 20632.633021001762 ; 27434.982751255982 ; 671474.5673941553 ; 1179704.2583040074 ; 0.0
44 ; 20814.90287243481 ; 27434.982751255982 ; 692107.200415157 ; 1207139.2410552634 ; 0.0
45 ; 20939.373004132085 ; 27434.982751255982 ; 712922.1032875918 ; 1234574.2238065195 ; 0.0
46 ; 21057.780481581987 ; 27434.982751255982 ; 733861.4762917239 ; 1262009.2065577756 ; 0.0
47 ; 21376.290571014117 ; 27434.982751255982 ; 754919.2567733059 ; 1289444.1893090317 ; 0.0
48 ; 21414.664790354298 ; 27434.982751255982 ; 776295.5473443201 ; 1316879.1720602878 ; 0.0
49 ; 21637.176788459525 ; 27434.982751255982 ; 797710.2121346744 ; 1344314.1548115439 ; 0.0
50 ; 21740.659725260943 ; 27434.982751255982 ; 819347.388923134 ; 1371749.1375628 ; 0.0
51 ; 21995.600433820615 ; 27434.982751255982 ; 841088.0486483949 ; 1399184.120314056 ; 0.0
52 ; 21781.998482724728 ; 27434.982751255982 ; 863083.6490822155 ; 1426619.1030653121 ; 0.0
53 ; 22031.230360712936 ; 27434.982751255982 ; 884865.6475649403 ; 1454054.0858165682 ; 0.0
54 ; 22244.94528921943 ; 27434.982751255982 ; 906896.8779256532 ; 1481489.0685678243 ; 0.0
55 ; 22306.291912938912 ; 27434.982751255982 ; 929141.8232148726 ; 1508924.0513190804 ; 0.0
56 ; 22475.063623340004 ; 27434.982751255982 ; 951448.1151278116 ; 1536359.0340703365 ; 0.0
57 ; 22744.582973808538 ; 27434.982751255982 ; 973923.1787511515 ; 1563794.0168215926 ; 0.0
58 ; 22628.36816447916 ; 27434.982751255982 ; 996667.7617249601 ; 1591228.9995728487 ; 0.0
59 ; 22793.461774832725 ; 27434.982751255982 ; 1019296.1298894392 ; 1618663.9823241048 ; 0.0
60 ; 22831.905809150383 ; 27434.982751255982 ; 1042089.5916642719 ; 1646098.9650753608 ; 0.0
61 ; 22989.122326832345 ; 27434.982751255982 ; 1064921.4974734222 ; 1673533.947826617 ; 0.0
62 ; 23066.72885403769 ; 27434.982751255982 ; 1087910.6198002545 ; 1700968.930577873 ; 0.0
63 ; 22995.49147896299 ; 27434.982751255982 ; 1110977.348654292 ; 1728403.913329129 ; 0.0
64 ; 23205.822252685804 ; 27434.982751255982 ; 1133972.840133255 ; 1755838.8960803852 ; 0.0
65 ; 23087.51220431174 ; 27434.982751255982 ; 1157178.662385941 ; 1783273.8788316413 ; 0.0
66 ; 23307.44208503557 ; 27434.982751255982 ; 1180266.1745902528 ; 1810708.8615828974 ; 0.0
67 ; 23281.830283423456 ; 27434.982751255982 ; 1203573.6166752884 ; 1838143.8443341535 ; 0.0
68 ; 23469.996349852405 ; 27434.982751255982 ; 1226855.4469587118 ; 1865578.8270854095 ; 0.0
69 ; 23211.642539524273 ; 27434.982751255982 ; 1250325.4433085641 ; 1893013.8098366656 ; 0.0
70 ; 23344.574814486874 ; 27434.982751255982 ; 1273537.0858480884 ; 1920448.7925879217 ; 0.0
71 ; 23605.869812228557 ; 27434.982751255982 ; 1296881.6606625752 ; 1947883.7753391778 ; 0.0
72 ; 23483.62053418287 ; 27434.982751255982 ; 1320487.5304748036 ; 1975318.758090434 ; 0.0
73 ; 23444.710909114725 ; 27434.982751255982 ; 1343971.1510089864 ; 2002753.74084169 ; 0.0
74 ; 23606.47567679834 ; 27434.982751255982 ; 1367415.861918101 ; 2030188.723592946 ; 0.0
75 ; 23715.11223175266 ; 27434.982751255982 ; 1391022.3375948993 ; 2057623.7063442022 ; 0.0
76 ; 23739.658687591567 ; 27434.982751255982 ; 1414737.449826652 ; 2085058.6890954582 ; 0.0
77 ; 23639.944797449083 ; 27434.982751255982 ; 1438477.1085142435 ; 2112493.6718467143 ; 0.0
78 ; 23767.024920355718 ; 27434.982751255982 ; 1462117.0533116926 ; 2139928.65459797 ; 0.0
79 ; 23616.718115356358 ; 27434.982751255982 ; 1485884.0782320483 ; 2167363.637349226 ; 0.0
80 ; 23751.126420728822 ; 27434.982751255982 ; 1509500.7963474046 ; 2194798.620100482 ; 0.0
81 ; 23701.494387329174 ; 27434.982751255982 ; 1533251.9227681335 ; 2222233.6028517378 ; 0.0
82 ; 23768.656625029464 ; 27434.982751255982 ; 1556953.4171554625 ; 2249668.5856029936 ; 0.0
83 ; 23728.794982306677 ; 27434.982751255982 ; 1580722.073780492 ; 2277103.5683542495 ; 0.0
84 ; 23620.24020205781 ; 27434.982751255982 ; 1604450.8687627986 ; 2304538.5511055053 ; 0.0
85 ; 23559.94816157465 ; 27434.982751255982 ; 1628071.1089648565 ; 2331973.533856761 ; 0.0
86 ; 23659.513590681636 ; 27434.982751255982 ; 1651631.057126431 ; 2359408.516608017 ; 0.0
87 ; 23654.229915029784 ; 27434.982751255982 ; 1675290.5707171126 ; 2386843.499359273 ; 0.0
88 ; 23525.304219653288 ; 27434.982751255982 ; 1698944.8006321425 ; 2414278.4821105287 ; 0.0
89 ; 23683.750985466748 ; 27434.982751255982 ; 1722470.1048517958 ; 2441713.4648617846 ; 0.0
90 ; 23591.23181903815 ; 27434.982751255982 ; 1746153.8558372625 ; 2469148.4476130405 ; 0.0
91 ; 23516.77887435792 ; 27434.982751255982 ; 1769745.0876563005 ; 2496583.4303642963 ; 0.0
92 ; 23332.058078945156 ; 27434.982751255982 ; 1793261.8665306584 ; 2524018.413115552 ; 0.0
93 ; 23205.725152270992 ; 27434.982751255982 ; 1816593.9246096036 ; 2551453.395866808 ; 0.0
94 ; 23331.046152569237 ; 27434.982751255982 ; 1839799.6497618747 ; 2578888.378618064 ; 0.0
95 ; 23233.5307194691 ; 27434.982751255982 ; 1863130.695914444 ; 2606323.3613693197 ; 0.0
96 ; 23070.762283890712 ; 27434.982751255982 ; 1886364.2266339131 ; 2633758.3441205756 ; 0.0
97 ; 23062.534414173457 ; 27434.982751255982 ; 1909434.9889178039 ; 2661193.3268718314 ; 0.0
98 ; 22932.07155153803 ; 27434.982751255982 ; 1932497.5233319774 ; 2688628.3096230873 ; 0.0
99 ; 22895.987860667396 ; 27434.982751255982 ; 1955429.5948835155 ; 2716063.292374343 ; 0.0
100 ; 22917.320838390096 ; 27434.982751255982 ; 1978325.5827441828 ; 2743498.275125599 ; 0.0
101 ; 22807.289691984282 ; 27434.982751255982 ; 2001242.903582573 ; 2770933.257876855 ; 0.0
102 ; 22655.246365385898 ; 27434.982751255982 ; 2024050.1932745571 ; 2798368.2406281107 ; 0.0
103 ; 22645.848435429834 ; 27434.982751255982 ; 2046705.439639943 ; 2825803.2233793666 ; 0.0
104 ; 22449.73158317398 ; 27434.982751255982 ; 2069351.2880753728 ; 2853238.2061306224 ; 0.0
105 ; 22233.072170267667 ; 27434.982751255982 ; 2091801.019658547 ; 2880673.1888818783 ; 0.0
106 ; 22323.024906525017 ; 27434.982751255982 ; 2114034.0918288147 ; 2908108.171633134 ; 0.0
107 ; 22255.136467471515 ; 27434.982751255982 ; 2136357.1167353396 ; 2935543.15438439 ; 0.0
108 ; 21884.11523370861 ; 27434.982751255982 ; 2158612.2532028113 ; 2962978.137135646 ; 0.0
109 ; 22015.94571735127 ; 27434.982751255982 ; 2180496.36843652 ; 2990413.1198869017 ; 0.0
110 ; 21737.47578250948 ; 27434.982751255982 ; 2202512.314153871 ; 3017848.1026381576 ; 0.0
111 ; 21706.107017427228 ; 27434.982751255982 ; 2224249.7899363805 ; 3045283.0853894134 ; 0.0
112 ; 21284.002638590475 ; 27434.982751255982 ; 2245955.8969538077 ; 3072718.0681406693 ; 0.0
113 ; 21253.04539283835 ; 27434.982751255982 ; 2267239.899592398 ; 3100153.050891925 ; 0.0
114 ; 21239.98104802161 ; 27434.982751255982 ; 2288492.9449852365 ; 3127588.033643181 ; 0.0
115 ; 21014.352473991126 ; 27434.982751255982 ; 2309732.926033258 ; 3155023.016394437 ; 0.0
116 ; 20827.457732413444 ; 27434.982751255982 ; 2330747.278507249 ; 3182457.9991456927 ; 0.0
117 ; 20567.06229577499 ; 27434.982751255982 ; 2351574.7362396624 ; 3209892.9818969485 ; 0.0
118 ; 20485.238189807606 ; 27434.982751255982 ; 2372141.7985354373 ; 3237327.9646482044 ; 0.0
119 ; 20408.754225918092 ; 27434.982751255982 ; 2392627.036725245 ; 3264762.9473994602 ; 0.0
120 ; 20199.48000559421 ; 27434.982751255982 ; 2413035.790951163 ; 3292197.930150716 ; 0.0
121 ; 19901.897608690375 ; 27434.982751255982 ; 2433235.2709567575 ; 3319632.912901972 ; 0.0
122 ; 19801.74263836697 ; 27434.982751255982 ; 2453137.168565448 ; 3347067.895653228 ; 0.0
123 ; 19496.860631864136 ; 27434.982751255982 ; 2472938.9112038147 ; 3374502.8784044837 ; 0.0
124 ; 19520.965395359388 ; 27434.982751255982 ; 2492435.7718356787 ; 3401937.8611557395 ; 0.0
125 ; 19170.929583214016 ; 27434.982751255982 ; 2511956.737231038 ; 3429372.8439069954 ; 0.0
126 ; 19125.873340478338 ; 27434.982751255982 ; 2531127.6668142523 ; 3456807.826658251 ; 0.0
127 ; 18802.927773994234 ; 27434.982751255982 ; 2550253.5401547304 ; 3484242.809409507 ; 0.0
128 ; 18617.808716000636 ; 27434.982751255982 ; 2569056.467928725 ; 3511677.792160763 ; 0.0
129 ; 18474.72728930948 ; 27434.982751255982 ; 2587674.2766447254 ; 3539112.774912019 ; 0.0
130 ; 18022.616955618505 ; 27434.982751255982 ; 2606149.0039340346 ; 3566547.7576632746 ; 0.0
131 ; 17975.23362460125 ; 27434.982751255982 ; 2624171.620889653 ; 3593982.7404145305 ; 0.0
132 ; 17633.003001875157 ; 27434.982751255982 ; 2642146.8545142543 ; 3621417.7231657864 ; 0.0
133 ; 17593.15333682562 ; 27434.982751255982 ; 2659779.8575161295 ; 3648852.705917042 ; 0.0
134 ; 17174.848435127577 ; 27434.982751255982 ; 2677373.0108529553 ; 3676287.688668298 ; 0.0
135 ; 16969.869285694658 ; 27434.982751255982 ; 2694547.859288083 ; 3703722.671419554 ; 0.0
136 ; 16768.332929701548 ; 27434.982751255982 ; 2711517.7285737777 ; 3731157.65417081 ; 0.0
137 ; 16483.62525090732 ; 27434.982751255982 ; 2728286.0615034793 ; 3758592.6369220656 ; 0.0
138 ; 16259.936319211602 ; 27434.982751255982 ; 2744769.6867543864 ; 3786027.6196733215 ; 0.0
139 ; 16001.022483226083 ; 27434.982751255982 ; 2761029.623073598 ; 3813462.6024245773 ; 0.0
140 ; 15872.46915750707 ; 27434.982751255982 ; 2777030.645556824 ; 3840897.585175833 ; 0.0
141 ; 15538.350967141876 ; 27434.982751255982 ; 2792903.114714331 ; 3868332.567927089 ; 0.0
142 ; 15192.760556051131 ; 27434.982751255982 ; 2808441.465681473 ; 3895767.550678345 ; 0.0
143 ; 14791.298945875838 ; 27434.982751255982 ; 2823634.226237524 ; 3923202.5334296008 ; 0.0
144 ; 14538.949404499084 ; 27434.982751255982 ; 2838425.5251833997 ; 3950637.5161808566 ; 0.0
145 ; 14570.387050265357 ; 27434.982751255982 ; 2852964.4745878987 ; 3978072.4989321125 ; 0.0
146 ; 14576.852154025955 ; 27434.982751255982 ; 2867534.861638164 ; 4005507.4816833683 ; 0.0
147 ; 14335.071417317455 ; 27434.982751255982 ; 2882111.71379219 ; 4032942.464434624 ; 0.0
148 ; 14305.53340641335 ; 27434.982751255982 ; 2896446.785209507 ; 4060377.44718588 ; 0.0
149 ; 14431.0146820472 ; 27434.982751255982 ; 2910752.3186159204 ; 4087812.429937136 ; 0.0
150 ; 14192.515514165718 ; 27434.982751255982 ; 2925183.3332979674 ; 4115247.4126883917 ; 0.0
151 ; 14052.862930546695 ; 27434.982751255982 ; 2939375.848812133 ; 4142682.3954396476 ; 0.0
152 ; 13852.660498224053 ; 27434.982751255982 ; 2953428.7117426796 ; 4170117.3781909035 ; 0.0
153 ; 13784.766572446742 ; 27434.982751255982 ; 2967281.372240904 ; 4197552.36094216 ; 0.0
154 ; 13832.81557543007 ; 27434.982751255982 ; 2981066.1388133503 ; 4224987.343693416 ; 0.0
155 ; 13629.312404880297 ; 27434.982751255982 ; 2994898.9543887805 ; 4252422.3264446715 ; 0.0
156 ; 13412.36217921552 ; 27434.982751255982 ; 3008528.266793661 ; 4279857.309195927 ; 0.0
157 ; 13403.729132888075 ; 27434.982751255982 ; 3021940.6289728764 ; 4307292.291947183 ; 0.0
158 ; 13192.764467774628 ; 27434.982751255982 ; 3035344.3581057643 ; 4334727.274698439 ; 0.0
159 ; 13271.33206336987 ; 27434.982751255982 ; 3048537.1225735387 ; 4362162.257449695 ; 0.0
160 ; 13221.299005650553 ; 27434.982751255982 ; 3061808.4546369086 ; 4389597.240200951 ; 0.0
161 ; 12890.463320623632 ; 27434.982751255982 ; 3075029.753642559 ; 4417032.222952207 ; 0.0
162 ; 12912.341936535591 ; 27434.982751255982 ; 3087920.2169631827 ; 4444467.2057034625 ; 0.0
163 ; 12844.200321923141 ; 27434.982751255982 ; 3100832.5588997183 ; 4471902.188454718 ; 0.0
164 ; 12779.020423057513 ; 27434.982751255982 ; 3113676.7592216413 ; 4499337.171205974 ; 0.0
165 ; 12518.590265994026 ; 27434.982751255982 ; 3126455.779644699 ; 4526772.15395723 ; 0.0
166 ; 12351.376629813076 ; 27434.982751255982 ; 3138974.369910693 ; 4554207.136708486 ; 0.0
167 ; 12302.321386987853 ; 27434.982751255982 ; 3151325.746540506 ; 4581642.119459742 ; 0.0
168 ; 11874.29416812792 ; 27434.982751255982 ; 3163628.0679274937 ; 4609077.102210998 ; 0.0
169 ; 11928.354171548237 ; 27434.982751255982 ; 3175502.3620956214 ; 4636512.084962253 ; 0.0
170 ; 11853.981902892196 ; 27434.982751255982 ; 3187430.7162671695 ; 4663947.067713509 ; 0.0
171 ; 11740.06148717447 ; 27434.982751255982 ; 3199284.6981700617 ; 4691382.050464765 ; 0.0
172 ; 11457.702466163433 ; 27434.982751255982 ; 3211024.7596572363 ; 4718817.033216021 ; 0.0
173 ; 11467.073718050775 ; 27434.982751255982 ; 3222482.4621233996 ; 4746252.015967277 ; 0.0
174 ; 11664.679422376961 ; 27434.982751255982 ; 3233949.5358414506 ; 4773686.998718533 ; 0.0
175 ; 11782.143138428522 ; 27434.982751255982 ; 3245614.2152638277 ; 4801121.981469789 ; 0.0
176 ; 11462.724248577824 ; 27434.982751255982 ; 3257396.3584022564 ; 4828556.964221044 ; 0.0
177 ; 11486.022296262448 ; 27434.982751255982 ; 3268859.082650834 ; 4855991.9469723 ; 0.0
178 ; 11682.010522754465 ; 27434.982751255982 ; 3280345.1049470967 ; 4883426.929723556 ; 0.0
179 ; 11471.989790797425 ; 27434.982751255982 ; 3292027.115469851 ; 4910861.912474812 ; 0.0
180 ; 11618.215065450342 ; 27434.982751255982 ; 3303499.1052606483 ; 4938296.895226068 ; 0.0
181 ; 11534.705579260686 ; 27434.982751255982 ; 3315117.3203260987 ; 4965731.877977324 ; 0.0
182 ; 11658.467568119393 ; 27434.982751255982 ; 3326652.0259053595 ; 4993166.86072858 ; 0.0
183 ; 11729.483288010015 ; 27434.982751255982 ; 3338310.493473479 ; 5020601.843479835 ; 0.0
184 ; 11534.318450785717 ; 27434.982751255982 ; 3350039.976761489 ; 5048036.826231091 ; 0.0
185 ; 11624.979734698089 ; 27434.982751255982 ; 3361574.295212275 ; 5075471.808982347 ; 0.0
186 ; 11708.112027814568 ; 27434.982751255982 ; 3373199.274946973 ; 5102906.791733603 ; 0.0
187 ; 11630.395236856044 ; 27434.982751255982 ; 3384907.386974788 ; 5130341.774484859 ; 0.0
188 ; 11697.355615198183 ; 27434.982751255982 ; 3396537.7822116436 ; 5157776.757236115 ; 0.0
189 ; 11927.715018168958 ; 27434.982751255982 ; 3408235.137826842 ; 5185211.739987371 ; 0.0
190 ; 11794.138873033487 ; 27434.982751255982 ; 3420162.852845011 ; 5212646.722738626 ; 0.0
191 ; 11818.498099953722 ; 27434.982751255982 ; 3431956.9917180445 ; 5240081.705489882 ; 0.0
192 ; 11725.059928246452 ; 27434.982751255982 ; 3443775.4898179984 ; 5267516.688241138 ; 0.0
193 ; 11816.374660055833 ; 27434.982751255982 ; 3455500.5497462447 ; 5294951.670992394 ; 0.0
194 ; 11647.619066846157 ; 27434.982751255982 ; 3467316.9244063003 ; 5322386.65374365 ; 0.0
195 ; 11877.870069869417 ; 27434.982751255982 ; 3478964.5434731464 ; 5349821.636494906 ; 0.0
196 ; 11774.169588048879 ; 27434.982751255982 ; 3490842.4135430157 ; 5377256.619246162 ; 0.0
197 ; 11827.792124123793 ; 27434.982751255982 ; 3502616.5831310647 ; 5404691.601997417 ; 0.0
198 ; 11687.900399776876 ; 27434.982751255982 ; 3514444.3752551884 ; 5432126.584748673 ; 0.0
199 ; 12036.540298432252 ; 27434.982751255982 ; 3526132.2756549655 ; 5459561.567499929 ; 0.0
200 ; 11821.457584454887 ; 27434.982751255982 ; 3538168.8159533977 ; 5486996.550251185 ; 0.0
201 ; 11816.398971123805 ; 27434.982751255982 ; 3549990.2735378523 ; 5514431.533002441 ; 0.0
202 ; 11984.292590696501 ; 27434.982751255982 ; 3561806.672508976 ; 5541866.515753697 ; 0.0
203 ; 11982.22218293875 ; 27434.982751255982 ; 3573790.9650996723 ; 5569301.4985049525 ; 0.0
204 ; 11838.613584910268 ; 27434.982751255982 ; 3585773.187282611 ; 5596736.481256208 ; 0.0
205 ; 11884.201755331755 ; 27434.982751255982 ; 3597611.800867521 ; 5624171.464007464 ; 0.0
206 ; 12092.982336582832 ; 27434.982751255982 ; 3609496.002622853 ; 5651606.44675872 ; 0.0
207 ; 12130.883712333103 ; 27434.982751255982 ; 3621588.9849594356 ; 5679041.429509976 ; 0.0
208 ; 11841.453064695514 ; 27434.982751255982 ; 3633719.868671769 ; 5706476.412261232 ; 0.0
209 ; 11891.305204156406 ; 27434.982751255982 ; 3645561.3217364643 ; 5733911.395012488 ; 0.0
210 ; 12158.940749951315 ; 27434.982751255982 ; 3657452.6269406206 ; 5761346.3777637435 ; 0.0
211 ; 11988.655252693707 ; 27434.982751255982 ; 3669611.567690572 ; 5788781.360514999 ; 0.0
212 ; 12057.469468015002 ; 27434.982751255982 ; 3681600.2229432655 ; 5816216.343266255 ; 0.0
213 ; 11843.460705121483 ; 27434.982751255982 ; 3693657.6924112802 ; 5843651.326017511 ; 0.0
