CSV File for the City 1 on Day 190
1 - Minute m 
2 - Power Consumed at minute m 
3 - Power Produced at minute m 
4 - Energy Consumed since the beginning of the day 
5 - Energy Produced since the beginning of the day 
6 - Energy Lost since the beginning of the day on lines starting from the city
 
0 ; 5786.2003120612 ; 3735.9981099283577 ; 0.0 ; 0.0 ; 0.0
1 ; 6405.349424871098 ; 3735.9981099283577 ; 5786.2003120612 ; 3735.9981099283577 ; 238.00000000000003
2 ; 6793.279441742652 ; 3735.9981099283577 ; 12191.549736932298 ; 7471.9962198567155 ; 476.00000000000006
3 ; 7422.343178664729 ; 3735.9981099283577 ; 18984.82917867495 ; 11207.994329785073 ; 714.0000000000001
4 ; 8049.546173814867 ; 3735.9981099283577 ; 26407.17235733968 ; 14943.992439713431 ; 952.0000000000001
5 ; 8488.124377844833 ; 3735.9981099283577 ; 34456.71853115455 ; 18679.99054964179 ; 1190.0000000000002
6 ; 9218.60731484524 ; 3735.9981099283577 ; 42944.84290899938 ; 22415.988659570146 ; 1428.0000000000002
7 ; 9749.352296300303 ; 3735.9981099283577 ; 52163.45022384462 ; 26151.986769498504 ; 1666.0000000000002
8 ; 10180.415819825499 ; 3735.9981099283577 ; 61912.80252014493 ; 29887.984879426862 ; 1904.0000000000002
9 ; 10590.017822516089 ; 3735.9981099283577 ; 72093.21833997042 ; 33623.98298935522 ; 2142.0000000000005
10 ; 11422.52954956715 ; 3735.9981099283577 ; 82683.23616248652 ; 37359.981099283585 ; 2380.0000000000005
11 ; 11759.930223367162 ; 3735.9981099283577 ; 94105.76571205366 ; 41095.979209211946 ; 2618.0000000000005
12 ; 12365.111702016986 ; 3735.9981099283577 ; 105865.69593542082 ; 44831.97731914031 ; 2856.0000000000005
13 ; 12724.707708966575 ; 3735.9981099283577 ; 118230.80763743781 ; 48567.97542906867 ; 3094.0000000000005
14 ; 13479.277789797343 ; 3735.9981099283577 ; 130955.51534640438 ; 52303.97353899703 ; 3332.0000000000005
15 ; 13770.504190841048 ; 3735.9981099283577 ; 144434.79313620174 ; 56039.97164892539 ; 3570.0000000000005
16 ; 14154.32758374048 ; 3735.9981099283577 ; 158205.2973270428 ; 59775.96975885375 ; 3808.0000000000005
17 ; 14706.081142585015 ; 3735.9981099283577 ; 172359.62491078326 ; 63511.967868782114 ; 4046.0000000000005
18 ; 15377.329708853502 ; 3735.9981099283577 ; 187065.70605336828 ; 67247.96597871048 ; 4284.000000000001
19 ; 15864.800174814083 ; 3735.9981099283577 ; 202443.03576222179 ; 70983.96408863884 ; 4522.000000000001
20 ; 16327.889659058037 ; 3735.9981099283577 ; 218307.83593703588 ; 74719.9621985672 ; 4760.000000000001
21 ; 16583.605678783413 ; 3735.9981099283577 ; 234635.72559609392 ; 78455.96030849556 ; 4998.000000000001
22 ; 16952.166229680108 ; 3735.9981099283577 ; 251219.33127487733 ; 82191.95841842392 ; 5236.000000000001
23 ; 17602.5257939411 ; 3735.9981099283577 ; 268171.4975045574 ; 85927.95652835228 ; 5474.000000000001
24 ; 17806.74391102115 ; 3735.9981099283577 ; 285774.02329849853 ; 89663.95463828064 ; 5712.000000000001
25 ; 18306.0809039988 ; 3735.9981099283577 ; 303580.7672095197 ; 93399.952748209 ; 5950.000000000001
26 ; 18682.757839708236 ; 3735.9981099283577 ; 321886.8481135185 ; 97135.95085813737 ; 6188.000000000001
27 ; 19212.689896668395 ; 3735.9981099283577 ; 340569.60595322674 ; 100871.94896806573 ; 6426.000000000001
28 ; 19662.640027841895 ; 3735.9981099283577 ; 359782.2958498951 ; 104607.94707799409 ; 6664.000000000001
29 ; 19866.142616268524 ; 3735.9981099283577 ; 379444.935877737 ; 108343.94518792245 ; 6902.000000000001
30 ; 20337.449408894914 ; 3735.9981099283577 ; 399311.07849400555 ; 112079.94329785081 ; 7140.000000000001
31 ; 20784.400086549318 ; 3735.9981099283577 ; 419648.5279029005 ; 115815.94140777917 ; 7378.000000000001
32 ; 21050.900055421756 ; 3735.9981099283577 ; 440432.9279894498 ; 119551.93951770753 ; 7616.000000000001
33 ; 21528.32959442908 ; 3735.9981099283577 ; 461483.82804487157 ; 123287.9376276359 ; 7854.000000000001
34 ; 21888.850352301084 ; 3735.9981099283577 ; 483012.1576393006 ; 127023.93573756426 ; 8092.000000000001
35 ; 22173.41691039437 ; 3735.9981099283577 ; 504901.0079916017 ; 130759.93384749262 ; 8330.000000000002
36 ; 22412.097496014612 ; 3735.9981099283577 ; 527074.424901996 ; 134495.93195742098 ; 8568.000000000002
37 ; 22740.46067430223 ; 3735.9981099283577 ; 549486.5223980106 ; 138231.93006734934 ; 8806.000000000002
38 ; 23262.27477326013 ; 3735.9981099283577 ; 572226.9830723128 ; 141967.9281772777 ; 9044.000000000002
39 ; 23538.181420273682 ; 3735.9981099283577 ; 595489.2578455729 ; 145703.92628720606 ; 9282.000000000002
40 ; 23740.910347000652 ; 3735.9981099283577 ; 619027.4392658466 ; 149439.92439713443 ; 9520.000000000002
41 ; 24091.00755264873 ; 3735.9981099283577 ; 642768.3496128473 ; 153175.9225070628 ; 9758.000000000002
42 ; 24568.713984636186 ; 3735.9981099283577 ; 666859.3571654961 ; 156911.92061699115 ; 9996.000000000002
43 ; 24756.470269123296 ; 3735.9981099283577 ; 691428.0711501323 ; 160647.9187269195 ; 10234.000000000002
44 ; 24834.849345171406 ; 3735.9981099283577 ; 716184.5414192557 ; 164383.91683684787 ; 10472.000000000002
45 ; 25153.58645926524 ; 3735.9981099283577 ; 741019.390764427 ; 168119.91494677623 ; 10710.000000000002
46 ; 25477.76147656361 ; 3735.9981099283577 ; 766172.9772236922 ; 171855.9130567046 ; 10948.000000000002
47 ; 25774.27045087906 ; 3735.9981099283577 ; 791650.7387002559 ; 175591.91116663296 ; 11186.000000000002
48 ; 25955.000388327633 ; 3735.9981099283577 ; 817425.0091511349 ; 179327.90927656132 ; 11424.000000000002
49 ; 26286.129675191947 ; 3735.9981099283577 ; 843380.0095394625 ; 183063.90738648968 ; 11662.000000000002
50 ; 26682.348145984204 ; 3735.9981099283577 ; 869666.1392146545 ; 186799.90549641804 ; 11900.000000000002
51 ; 26629.403446019154 ; 3735.9981099283577 ; 896348.4873606387 ; 190535.9036063464 ; 12138.000000000002
52 ; 27112.85771373538 ; 3735.9981099283577 ; 922977.8908066578 ; 194271.90171627476 ; 12376.000000000002
53 ; 27042.73536082048 ; 3735.9981099283577 ; 950090.7485203933 ; 198007.89982620312 ; 12614.000000000002
54 ; 27354.08333635721 ; 3735.9981099283577 ; 977133.4838812137 ; 201743.89793613149 ; 12852.000000000002
55 ; 27645.36610414967 ; 3735.9981099283577 ; 1004487.567217571 ; 205479.89604605985 ; 13090.000000000002
56 ; 27803.762329331974 ; 3735.9981099283577 ; 1032132.9333217207 ; 209215.8941559882 ; 13328.000000000002
57 ; 28019.132064540176 ; 3735.9981099283577 ; 1059936.6956510528 ; 212951.89226591657 ; 13566.000000000002
58 ; 28137.93483171094 ; 3735.9981099283577 ; 1087955.827715593 ; 216687.89037584493 ; 13804.000000000002
59 ; 28223.793472615016 ; 3735.9981099283577 ; 1116093.762547304 ; 220423.8884857733 ; 14042.000000000002
60 ; 28545.897514803146 ; 3735.9981099283577 ; 1144317.556019919 ; 224159.88659570165 ; 14280.000000000002
61 ; 28552.631755682156 ; 3735.9981099283577 ; 1172863.453534722 ; 227895.88470563001 ; 14518.000000000002
62 ; 28860.91863425182 ; 3735.9981099283577 ; 1201416.0852904043 ; 231631.88281555838 ; 14756.000000000002
63 ; 28975.886163645322 ; 3735.9981099283577 ; 1230277.0039246562 ; 235367.88092548674 ; 14994.000000000002
64 ; 29114.23117822437 ; 3735.9981099283577 ; 1259252.8900883016 ; 239103.8790354151 ; 15232.000000000002
65 ; 29297.382885086994 ; 3735.9981099283577 ; 1288367.121266526 ; 242839.87714534346 ; 15470.000000000002
66 ; 29507.40676818932 ; 3735.9981099283577 ; 1317664.504151613 ; 246575.87525527182 ; 15708.000000000002
67 ; 29340.082569512324 ; 3735.9981099283577 ; 1347171.9109198023 ; 250311.87336520018 ; 15946.000000000002
68 ; 29388.335825841918 ; 3735.9981099283577 ; 1376511.9934893146 ; 254047.87147512854 ; 16184.000000000002
69 ; 29670.64881305228 ; 3735.9981099283577 ; 1405900.3293151564 ; 257783.8695850569 ; 16422.000000000004
70 ; 29719.490029133183 ; 3735.9981099283577 ; 1435570.9781282088 ; 261519.86769498527 ; 16660.000000000004
71 ; 29868.67441134784 ; 3735.9981099283577 ; 1465290.468157342 ; 265255.8658049136 ; 16898.000000000004
72 ; 30082.750007471088 ; 3735.9981099283577 ; 1495159.1425686898 ; 268991.86391484196 ; 17136.000000000004
73 ; 29825.419837909896 ; 3735.9981099283577 ; 1525241.8925761608 ; 272727.8620247703 ; 17374.000000000004
74 ; 30034.62271598531 ; 3735.9981099283577 ; 1555067.3124140708 ; 276463.8601346986 ; 17612.000000000004
75 ; 30135.636169149715 ; 3735.9981099283577 ; 1585101.9351300562 ; 280199.85824462696 ; 17850.000000000004
76 ; 30221.97656875131 ; 3735.9981099283577 ; 1615237.571299206 ; 283935.8563545553 ; 18088.000000000004
77 ; 30272.6871973498 ; 3735.9981099283577 ; 1645459.5478679573 ; 287671.8544644836 ; 18326.000000000004
78 ; 30204.322780715418 ; 3735.9981099283577 ; 1675732.235065307 ; 291407.85257441195 ; 18564.000000000004
79 ; 30364.137456443 ; 3735.9981099283577 ; 1705936.5578460223 ; 295143.8506843403 ; 18802.000000000004
80 ; 30150.21288576335 ; 3735.9981099283577 ; 1736300.6953024652 ; 298879.8487942686 ; 19040.000000000004
81 ; 30256.669485107075 ; 3735.9981099283577 ; 1766450.9081882285 ; 302615.84690419695 ; 19278.000000000004
82 ; 30293.96090934548 ; 3735.9981099283577 ; 1796707.5776733356 ; 306351.8450141253 ; 19516.000000000004
83 ; 30187.865684360422 ; 3735.9981099283577 ; 1827001.538582681 ; 310087.8431240536 ; 19754.000000000004
84 ; 30278.255636171547 ; 3735.9981099283577 ; 1857189.4042670415 ; 313823.84123398195 ; 19992.000000000004
85 ; 30253.8076283769 ; 3735.9981099283577 ; 1887467.659903213 ; 317559.8393439103 ; 20230.000000000004
86 ; 30204.783719556835 ; 3735.9981099283577 ; 1917721.4675315898 ; 321295.8374538386 ; 20468.000000000004
87 ; 30065.88906393085 ; 3735.9981099283577 ; 1947926.2512511467 ; 325031.83556376694 ; 20706.000000000004
88 ; 30115.819668391392 ; 3735.9981099283577 ; 1977992.1403150775 ; 328767.8336736953 ; 20944.000000000004
89 ; 30284.924822178364 ; 3735.9981099283577 ; 2008107.959983469 ; 332503.8317836236 ; 21182.000000000004
90 ; 30162.016147849612 ; 3735.9981099283577 ; 2038392.8848056474 ; 336239.82989355194 ; 21420.000000000004
91 ; 29934.984312161418 ; 3735.9981099283577 ; 2068554.900953497 ; 339975.8280034803 ; 21658.000000000004
92 ; 29851.336127282648 ; 3735.9981099283577 ; 2098489.8852656586 ; 343711.8261134086 ; 21896.000000000004
93 ; 29893.757797442955 ; 3735.9981099283577 ; 2128341.221392941 ; 347447.82422333694 ; 22134.000000000004
94 ; 29729.77503294443 ; 3735.9981099283577 ; 2158234.979190384 ; 351183.82233326527 ; 22372.000000000004
95 ; 29684.751775800494 ; 3735.9981099283577 ; 2187964.7542233285 ; 354919.8204431936 ; 22610.000000000004
96 ; 29556.621467513643 ; 3735.9981099283577 ; 2217649.5059991293 ; 358655.81855312194 ; 22848.000000000004
97 ; 29475.233797087312 ; 3735.9981099283577 ; 2247206.1274666428 ; 362391.81666305027 ; 23086.000000000004
98 ; 29423.47298285432 ; 3735.9981099283577 ; 2276681.36126373 ; 366127.8147729786 ; 23324.000000000004
99 ; 29238.339828071337 ; 3735.9981099283577 ; 2306104.834246584 ; 369863.81288290693 ; 23562.000000000004
100 ; 29293.8605160457 ; 3735.9981099283577 ; 2335343.1740746554 ; 373599.81099283526 ; 23800.000000000004
101 ; 29037.801758007983 ; 3735.9981099283577 ; 2364637.034590701 ; 377335.8091027636 ; 24038.000000000004
102 ; 28817.5214941795 ; 3735.9981099283577 ; 2393674.836348709 ; 381071.8072126919 ; 24276.000000000004
103 ; 28874.7381871688 ; 3735.9981099283577 ; 2422492.3578428887 ; 384807.80532262026 ; 24514.000000000004
104 ; 28553.30490706919 ; 3735.9981099283577 ; 2451367.0960300574 ; 388543.8034325486 ; 24752.000000000004
105 ; 28481.217503754517 ; 3735.9981099283577 ; 2479920.4009371265 ; 392279.8015424769 ; 24990.000000000004
106 ; 28386.178504359246 ; 3735.9981099283577 ; 2508401.618440881 ; 396015.79965240526 ; 25228.000000000004
107 ; 27973.893817740107 ; 3735.9981099283577 ; 2536787.7969452403 ; 399751.7977623336 ; 25466.000000000004
108 ; 27755.95243693546 ; 3735.9981099283577 ; 2564761.6907629804 ; 403487.7958722619 ; 25704.000000000004
109 ; 27650.42939565095 ; 3735.9981099283577 ; 2592517.643199916 ; 407223.79398219025 ; 25942.000000000004
110 ; 27669.327820022612 ; 3735.9981099283577 ; 2620168.072595567 ; 410959.7920921186 ; 26180.000000000004
111 ; 27069.352997606074 ; 3735.9981099283577 ; 2647837.4004155896 ; 414695.7902020469 ; 26418.000000000004
112 ; 27064.243338450466 ; 3735.9981099283577 ; 2674906.7534131957 ; 418431.78831197525 ; 26656.000000000004
113 ; 26782.11452952595 ; 3735.9981099283577 ; 2701970.996751646 ; 422167.7864219036 ; 26894.000000000004
114 ; 26684.826587514337 ; 3735.9981099283577 ; 2728753.111281172 ; 425903.7845318319 ; 27132.000000000004
115 ; 26464.739960699735 ; 3735.9981099283577 ; 2755437.9378686864 ; 429639.78264176025 ; 27370.000000000004
116 ; 26192.986315248276 ; 3735.9981099283577 ; 2781902.677829386 ; 433375.7807516886 ; 27608.000000000004
117 ; 26005.974917006042 ; 3735.9981099283577 ; 2808095.6641446343 ; 437111.7788616169 ; 27846.000000000004
118 ; 25625.311879485795 ; 3735.9981099283577 ; 2834101.6390616405 ; 440847.77697154525 ; 28084.000000000004
119 ; 25314.144890255375 ; 3735.9981099283577 ; 2859726.9509411263 ; 444583.7750814736 ; 28322.000000000004
120 ; 25031.810109539576 ; 3735.9981099283577 ; 2885041.0958313816 ; 448319.7731914019 ; 28560.000000000004
121 ; 24830.61906153646 ; 3735.9981099283577 ; 2910072.905940921 ; 452055.77130133024 ; 28798.000000000004
122 ; 24648.518409480683 ; 3735.9981099283577 ; 2934903.5250024577 ; 455791.7694112586 ; 29036.000000000004
123 ; 24321.413152989022 ; 3735.9981099283577 ; 2959552.0434119385 ; 459527.7675211869 ; 29274.000000000004
124 ; 23926.425687567724 ; 3735.9981099283577 ; 2983873.4565649275 ; 463263.76563111524 ; 29512.000000000004
125 ; 23751.7263290955 ; 3735.9981099283577 ; 3007799.8822524953 ; 466999.7637410436 ; 29750.000000000004
126 ; 23175.727102751844 ; 3735.9981099283577 ; 3031551.608581591 ; 470735.7618509719 ; 29988.000000000004
127 ; 23006.902833326105 ; 3735.9981099283577 ; 3054727.335684343 ; 474471.75996090024 ; 30226.000000000004
128 ; 22654.379627296486 ; 3735.9981099283577 ; 3077734.238517669 ; 478207.75807082857 ; 30464.000000000004
129 ; 22578.219808163863 ; 3735.9981099283577 ; 3100388.6181449657 ; 481943.7561807569 ; 30702.000000000004
130 ; 21964.93753234853 ; 3735.9981099283577 ; 3122966.83795313 ; 485679.75429068523 ; 30940.000000000004
131 ; 21833.009040606164 ; 3735.9981099283577 ; 3144931.7754854783 ; 489415.75240061356 ; 31178.000000000004
132 ; 21363.780967427243 ; 3735.9981099283577 ; 3166764.7845260845 ; 493151.7505105419 ; 31416.000000000004
133 ; 21121.35803649865 ; 3735.9981099283577 ; 3188128.565493512 ; 496887.7486204702 ; 31654.000000000004
134 ; 20744.237345022222 ; 3735.9981099283577 ; 3209249.9235300105 ; 500623.74673039856 ; 31892.000000000004
135 ; 20159.141176242032 ; 3735.9981099283577 ; 3229994.1608750327 ; 504359.7448403269 ; 32130.000000000004
136 ; 19738.1920066106 ; 3735.9981099283577 ; 3250153.3020512746 ; 508095.7429502552 ; 32368.000000000004
137 ; 19364.49670098749 ; 3735.9981099283577 ; 3269891.4940578854 ; 511831.74106018356 ; 32606.000000000004
138 ; 18839.12787216103 ; 3735.9981099283577 ; 3289255.990758873 ; 515567.7391701119 ; 32844.00000000001
139 ; 18644.883349192685 ; 3735.9981099283577 ; 3308095.118631034 ; 519303.7372800402 ; 33082.00000000001
140 ; 18217.487434481263 ; 3735.9981099283577 ; 3326740.001980227 ; 523039.73538996855 ; 33320.00000000001
141 ; 18025.768453682216 ; 3735.9981099283577 ; 3344957.489414708 ; 526775.733499897 ; 33558.00000000001
142 ; 17573.25746002504 ; 3735.9981099283577 ; 3362983.2578683905 ; 530511.7316098253 ; 33796.00000000001
143 ; 16911.322945931228 ; 3735.9981099283577 ; 3380556.5153284157 ; 534247.7297197536 ; 34034.00000000001
144 ; 16282.582660541733 ; 3735.9981099283577 ; 3397467.8382743467 ; 537983.727829682 ; 34272.00000000001
145 ; 16367.483764968592 ; 3735.9981099283577 ; 3413750.4209348885 ; 541719.7259396103 ; 34510.00000000001
146 ; 16051.47366986801 ; 3735.9981099283577 ; 3430117.9046998573 ; 545455.7240495386 ; 34748.00000000001
147 ; 16140.655437147148 ; 3735.9981099283577 ; 3446169.3783697253 ; 549191.7221594669 ; 34986.00000000001
148 ; 15989.490032738559 ; 3735.9981099283577 ; 3462310.0338068726 ; 552927.7202693953 ; 35224.00000000001
149 ; 15762.315301809109 ; 3735.9981099283577 ; 3478299.523839611 ; 556663.7183793236 ; 35462.00000000001
150 ; 15624.54852043288 ; 3735.9981099283577 ; 3494061.83914142 ; 560399.7164892519 ; 35700.00000000001
151 ; 15790.459482334578 ; 3735.9981099283577 ; 3509686.387661853 ; 564135.7145991803 ; 35938.00000000001
152 ; 15411.708707431078 ; 3735.9981099283577 ; 3525476.8471441874 ; 567871.7127091086 ; 36176.00000000001
153 ; 15453.041326154611 ; 3735.9981099283577 ; 3540888.5558516183 ; 571607.7108190369 ; 36414.00000000001
154 ; 15219.06289574856 ; 3735.9981099283577 ; 3556341.597177773 ; 575343.7089289653 ; 36652.00000000001
155 ; 15147.107095689418 ; 3735.9981099283577 ; 3571560.6600735215 ; 579079.7070388936 ; 36890.00000000001
156 ; 14932.957374091098 ; 3735.9981099283577 ; 3586707.767169211 ; 582815.7051488219 ; 37128.00000000001
157 ; 14610.75091460487 ; 3735.9981099283577 ; 3601640.7245433023 ; 586551.7032587503 ; 37366.00000000001
158 ; 14533.133465512321 ; 3735.9981099283577 ; 3616251.475457907 ; 590287.7013686786 ; 37604.00000000001
159 ; 14399.1137899003 ; 3735.9981099283577 ; 3630784.6089234194 ; 594023.6994786069 ; 37842.00000000001
160 ; 14345.380513811246 ; 3735.9981099283577 ; 3645183.7227133196 ; 597759.6975885353 ; 38080.00000000001
161 ; 14130.148374273609 ; 3735.9981099283577 ; 3659529.1032271306 ; 601495.6956984636 ; 38318.00000000001
162 ; 13962.706025525544 ; 3735.9981099283577 ; 3673659.251601404 ; 605231.6938083919 ; 38556.00000000001
163 ; 13713.346520745386 ; 3735.9981099283577 ; 3687621.9576269295 ; 608967.6919183203 ; 38794.00000000001
164 ; 13437.511287003106 ; 3735.9981099283577 ; 3701335.3041476747 ; 612703.6900282486 ; 39032.00000000001
165 ; 13376.903466743095 ; 3735.9981099283577 ; 3714772.815434678 ; 616439.6881381769 ; 39270.00000000001
166 ; 13200.505995841027 ; 3735.9981099283577 ; 3728149.718901421 ; 620175.6862481053 ; 39508.00000000001
167 ; 12881.045306536133 ; 3735.9981099283577 ; 3741350.224897262 ; 623911.6843580336 ; 39746.00000000001
168 ; 12855.82406547109 ; 3735.9981099283577 ; 3754231.270203798 ; 627647.6824679619 ; 39984.00000000001
169 ; 12635.323532674021 ; 3735.9981099283577 ; 3767087.094269269 ; 631383.6805778902 ; 40222.00000000001
170 ; 12515.24639850689 ; 3735.9981099283577 ; 3779722.417801943 ; 635119.6786878186 ; 40460.00000000001
171 ; 12488.768758653028 ; 3735.9981099283577 ; 3792237.66420045 ; 638855.6767977469 ; 40698.00000000001
172 ; 12114.344515476505 ; 3735.9981099283577 ; 3804726.432959103 ; 642591.6749076752 ; 40936.00000000001
173 ; 12093.929604647608 ; 3735.9981099283577 ; 3816840.7774745794 ; 646327.6730176036 ; 41174.00000000001
174 ; 12117.137968187868 ; 3735.9981099283577 ; 3828934.707079227 ; 650063.6711275319 ; 41412.00000000001
175 ; 12076.66378401086 ; 3735.9981099283577 ; 3841051.845047415 ; 653799.6692374602 ; 41650.00000000001
176 ; 12179.92911183733 ; 3735.9981099283577 ; 3853128.5088314256 ; 657535.6673473886 ; 41888.00000000001
177 ; 12042.239731591206 ; 3735.9981099283577 ; 3865308.437943263 ; 661271.6654573169 ; 42126.00000000001
178 ; 12115.656521246045 ; 3735.9981099283577 ; 3877350.677674854 ; 665007.6635672452 ; 42364.00000000001
179 ; 12223.283748956805 ; 3735.9981099283577 ; 3889466.3341961 ; 668743.6616771736 ; 42602.00000000001
180 ; 12381.561725610803 ; 3735.9981099283577 ; 3901689.617945057 ; 672479.6597871019 ; 42840.00000000001
181 ; 12365.514681798208 ; 3735.9981099283577 ; 3914071.1796706677 ; 676215.6578970302 ; 43078.00000000001
182 ; 12555.013338429817 ; 3735.9981099283577 ; 3926436.694352466 ; 679951.6560069586 ; 43316.00000000001
183 ; 12270.21486734922 ; 3735.9981099283577 ; 3938991.707690896 ; 683687.6541168869 ; 43554.00000000001
184 ; 12460.58572275544 ; 3735.9981099283577 ; 3951261.9225582452 ; 687423.6522268152 ; 43792.00000000001
