CSV File for the City 3 on Day 175
1 - Minute m 
2 - Power Consumed at minute m 
3 - Power Produced at minute m 
4 - Energy Consumed since the beginning of the day 
5 - Energy Produced since the beginning of the day 
6 - Energy Lost since the beginning of the day on lines starting from the city
 
0 ; 4976.091675759548 ; 85091.55492543547 ; 0.0 ; 0.0 ; 0.0
1 ; 5363.928154449264 ; 84742.72628493093 ; 4976.091675759548 ; 85091.55492543547 ; 0.0
2 ; 5638.474070618238 ; 84429.32305776716 ; 10340.019830208812 ; 169834.2812103664 ; 0.0
3 ; 6239.985275131905 ; 84151.76503559457 ; 15978.49390082705 ; 254263.60426813358 ; 0.0
4 ; 6466.304505481128 ; 83910.42915728835 ; 22218.479175958957 ; 338415.36930372816 ; 0.0
5 ; 6911.279841128065 ; 83705.64717517102 ; 28684.783681440087 ; 422325.7984610165 ; 0.0
6 ; 7391.028801161395 ; 83537.7035567199 ; 35596.063522568154 ; 506031.4456361875 ; 0.0
7 ; 7713.253917192743 ; 83406.83365214882 ; 42987.09232372955 ; 589569.1491929074 ; 0.0
8 ; 8112.612924580698 ; 83313.22215510349 ; 50700.34624092229 ; 672975.9828450562 ; 0.0
9 ; 8313.665091071814 ; 83257.00187985721 ; 58812.95916550299 ; 756289.2050001597 ; 0.0
10 ; 8796.329254851342 ; 83238.25287390628 ; 67126.6242565748 ; 839546.206880017 ; 0.0
11 ; 9338.308795478704 ; 83257.00187985721 ; 75922.95351142614 ; 922784.4597539232 ; 0.0
12 ; 9532.205301474225 ; 83313.22215510349 ; 85261.26230690484 ; 1006041.4616337805 ; 0.0
13 ; 9933.5525774782 ; 83406.83365214882 ; 94793.46760837907 ; 1089354.683788884 ; 0.0
14 ; 10111.751274518154 ; 83537.7035567198 ; 104727.02018585727 ; 1172761.5174410327 ; 0.0
15 ; 10521.918938946117 ; 83705.64717517102 ; 114838.77146037543 ; 1256299.2209977524 ; 0.0
16 ; 10988.010287755525 ; 83910.42915728835 ; 125360.69039932155 ; 1340004.8681729233 ; 0.0
17 ; 11234.734316344813 ; 84151.76503559446 ; 136348.70068707707 ; 1423915.2973302116 ; 0.0
18 ; 11540.095993882476 ; 84429.32305776716 ; 147583.43500342188 ; 1508067.0623658062 ; 0.0
19 ; 11814.042241402352 ; 84742.72628493083 ; 159123.53099730436 ; 1592496.3854235734 ; 0.0
20 ; 12055.276546695408 ; 85091.55492543547 ; 170937.5732387067 ; 1677239.1117085041 ; 0.0
21 ; 12525.742014423924 ; 85475.34887136421 ; 182992.84978540213 ; 1762330.6666339396 ; 0.0
22 ; 12823.221472670355 ; 85893.61040342582 ; 195518.59179982604 ; 1847806.0155053039 ; 0.0
23 ; 12996.503239796086 ; 86345.8070290982 ; 208341.8132724964 ; 1933699.6259087296 ; 0.0
24 ; 13366.34563273269 ; 86831.37441885234 ; 221338.31651229248 ; 2020045.432937828 ; 0.0
25 ; 13598.381273690662 ; 87349.71940596 ; 234704.66214502518 ; 2106876.8073566803 ; 0.0
26 ; 13997.81992041472 ; 87900.223016695 ; 248303.04341871585 ; 2194226.52676264 ; 0.0
27 ; 14212.870067268808 ; 88482.24349959265 ; 262300.8633391306 ; 2282126.749779335 ; 0.0
28 ; 14528.468495738432 ; 89095.11932473832 ; 276513.7334063994 ; 2370608.993278928 ; 0.0
29 ; 14843.236951664427 ; 89738.17212671855 ; 291042.20190213784 ; 2459704.1126036663 ; 0.0
30 ; 15106.157847210336 ; 90410.70956777621 ; 305885.4388538023 ; 2549442.2847303846 ; 0.0
31 ; 15259.478394184984 ; 91112.02810078036 ; 320991.59670101263 ; 2639852.994298161 ; 0.0
32 ; 15529.448923974798 ; 91841.41561475414 ; 336251.0750951976 ; 2730965.022398941 ; 0.0
33 ; 15743.334010632729 ; 92598.15394881576 ; 351780.5240191724 ; 2822806.438013695 ; 0.0
34 ; 16069.9927872688 ; 93381.52126342477 ; 367523.8580298051 ; 2915404.5919625107 ; 0.0
35 ; 16243.682763692153 ; 94190.79426070611 ; 383593.85081707395 ; 3008786.1132259355 ; 0.0
36 ; 16479.38629997378 ; 95025.2502483261 ; 399837.5335807661 ; 3102976.907486642 ; 0.0
37 ; 16887.47579407126 ; 95884.16904386361 ; 416316.9198807399 ; 3198002.157734968 ; 0.0
38 ; 16893.667298226315 ; 96766.8347188475 ; 433204.39567481115 ; 3293886.3267788314 ; 0.0
39 ; 17274.256502215445 ; 97672.5371835951 ; 450098.0629730375 ; 3390653.161497679 ; 0.0
40 ; 17459.23943004121 ; 98600.57361568541 ; 467372.31947525294 ; 3488325.698681274 ; 0.0
41 ; 17432.873352630468 ; 99550.2497363424 ; 484831.55890529417 ; 3586926.2722969595 ; 0.0
42 ; 17732.91323789654 ; 100520.88094018654 ; 502264.43225792464 ; 3686476.522033302 ; 0.0
43 ; 18132.263751766877 ; 101511.79328476396 ; 519997.34549582115 ; 3786997.4029734884 ; 0.0
44 ; 18381.851475093412 ; 102522.3243469881 ; 538129.6092475881 ; 3888509.1962582525 ; 0.0
45 ; 18385.33328000447 ; 103551.82395415717 ; 556511.4607226815 ; 3991031.5206052405 ; 0.0
46 ; 18426.475363406895 ; 104599.65479755706 ; 574896.7940026859 ; 4094583.3445593975 ; 0.0
47 ; 18706.725102455937 ; 105665.19293684892 ; 593323.2693660929 ; 4199182.999356954 ; 0.0
48 ; 19070.929190916722 ; 106747.82820349297 ; 612029.9944685488 ; 4304848.192293803 ; 0.0
49 ; 19181.82558564184 ; 107846.96451139821 ; 631100.9236594655 ; 4411596.020497296 ; 0.0
50 ; 19345.67694301129 ; 108962.02008282725 ; 650282.7492451074 ; 4519442.985008694 ; 0.0
51 ; 19565.627116487027 ; 110092.42759734788 ; 669628.4261881188 ; 4628405.005091522 ; 0.0
52 ; 19476.02882427448 ; 111237.63427132547 ; 689194.0533046058 ; 4738497.43268887 ; 0.0
53 ; 19699.47249937277 ; 112397.1018751016 ; 708670.0821288802 ; 4849735.066960195 ; 0.0
54 ; 20053.000895485053 ; 113570.30669462688 ; 728369.554628253 ; 4962132.168835296 ; 0.0
55 ; 20018.350790227567 ; 114756.73944391134 ; 748422.555523738 ; 5075702.475529923 ; 0.0
56 ; 20136.70257933498 ; 115955.90513424201 ; 768440.9063139656 ; 5190459.214973834 ; 0.0
57 ; 20214.21920454989 ; 117167.32290569556 ; 788577.6088933005 ; 5306415.120108076 ; 0.0
58 ; 20422.6488885406 ; 118390.52582605711 ; 808791.8280978504 ; 5423582.443013772 ; 0.0
59 ; 20682.62368703969 ; 119625.06066184504 ; 829214.476986391 ; 5541972.96883983 ; 0.0
60 ; 20581.1272285689 ; 120870.48762574361 ; 849897.1006734307 ; 5661598.029501675 ; 0.0
61 ; 20910.238911560227 ; 122126.38010436088 ; 870478.2279019996 ; 5782468.517127418 ; 0.0
62 ; 20755.366574565243 ; 123392.32436986483 ; 891388.4668135599 ; 5904594.897231779 ; 0.0
63 ; 21063.909816621035 ; 124667.91927870353 ; 912143.8333881252 ; 6027987.221601644 ; 0.0
64 ; 21093.063201300305 ; 125952.77596029037 ; 933207.7432047462 ; 6152655.140880347 ; 0.0
65 ; 21156.749414698177 ; 127246.5174982305 ; 954300.8064060465 ; 6278607.916840638 ; 0.0
66 ; 21164.087182493808 ; 128548.77860638105 ; 975457.5558207447 ; 6405854.434338869 ; 0.0
67 ; 21293.385306169846 ; 129859.20530177682 ; 996621.6430032385 ; 6534403.21294525 ; 0.0
68 ; 21448.458962996654 ; 131177.45457621114 ; 1017915.0283094083 ; 6664262.418247026 ; 0.0
69 ; 21417.853853487217 ; 132503.1940680401 ; 1039363.487272405 ; 6795439.872823237 ; 0.0
70 ; 21477.14658284234 ; 133836.10173557632 ; 1060781.3411258922 ; 6927943.066891277 ; 0.0
71 ; 21607.832241801905 ; 135175.86553325548 ; 1082258.4877087346 ; 7061779.168626853 ; 0.0
72 ; 21670.811351706976 ; 136522.1830915895 ; 1103866.3199505366 ; 7196955.034160108 ; 0.0
73 ; 21613.966995942268 ; 137874.76140177302 ; 1125537.1313022436 ; 7333477.217251698 ; 0.0
74 ; 21800.96193730211 ; 139233.31650567107 ; 1147151.0982981857 ; 7471351.978653471 ; 0.0
75 ; 21684.063072228855 ; 140597.57319179596 ; 1168952.0602354878 ; 7610585.295159142 ; 0.0
76 ; 21840.540391398397 ; 141967.26469777277 ; 1190636.1233077166 ; 7751182.868350938 ; 0.0
77 ; 21754.782549340678 ; 143342.13241969372 ; 1212476.663699115 ; 7893150.13304871 ; 0.0
78 ; 21871.552138133637 ; 144721.92562868004 ; 1234231.4462484557 ; 8036492.265468404 ; 0.0
79 ; 21892.32217065927 ; 146106.40119488837 ; 1256102.9983865893 ; 8181214.1910970835 ; 0.0
80 ; 21968.139580833376 ; 147495.3233191369 ; 1277995.3205572485 ; 8327320.592291972 ; 0.0
81 ; 21946.736851490936 ; 148888.4632722638 ; 1299963.460138082 ; 8474815.915611109 ; 0.0
82 ; 21897.69932690005 ; 150285.59914228253 ; 1321910.196989573 ; 8623704.378883373 ; 0.0
83 ; 21871.398493643865 ; 151686.51558935063 ; 1343807.8963164731 ; 8773989.978025656 ; 0.0
84 ; 21854.51841594638 ; 153091.00360853272 ; 1365679.294810117 ; 8925676.493615007 ; 0.0
85 ; 21850.53000484546 ; 154498.86030030472 ; 1387533.8132260633 ; 9078767.49722354 ; 0.0
86 ; 21757.086257663294 ; 155909.88864871644 ; 1409384.3432309087 ; 9233266.357523844 ; 0.0
87 ; 21834.29105085429 ; 157323.8973071084 ; 1431141.429488572 ; 9389176.24617256 ; 0.0
88 ; 21808.250156851493 ; 158740.70039125602 ; 1452975.7205394264 ; 9546500.14347967 ; 0.0
89 ; 21752.792517844628 ; 160160.1172798006 ; 1474783.970696278 ; 9705240.843870925 ; 0.0
90 ; 21777.383250922754 ; 161581.97242180922 ; 1496536.7632141225 ; 9865400.961150724 ; 0.0
91 ; 21611.90634567197 ; 163006.09515129868 ; 1518314.1464650452 ; 1.0026982933572534E7 ; 0.0
92 ; 21586.103729395818 ; 164432.31950854725 ; 1539926.0528107171 ; 1.0189989028723832E7 ; 0.0
93 ; 21789.77990276164 ; 165860.48406801285 ; 1561512.156540113 ; 1.035442134823238E7 ; 0.0
94 ; 21640.683308079075 ; 167290.43177267065 ; 1583301.9364428746 ; 1.0520281832300393E7 ; 0.0
95 ; 21416.486715282274 ; 168722.00977458133 ; 1604942.6197509537 ; 1.0687572264073063E7 ; 0.0
96 ; 21500.26484169578 ; 170155.0692814984 ; 1626359.106466236 ; 1.0856294273847643E7 ; 0.0
97 ; 21365.819925535794 ; 171589.46540932238 ; 1647859.3713079318 ; 1.1026449343129141E7 ; 0.0
98 ; 21264.357267093765 ; 173025.05704021078 ; 1669225.1912334675 ; 1.1198038808538463E7 ; 0.0
99 ; 21263.539346443238 ; 174461.70668615415 ; 1690489.5485005614 ; 1.1371063865578674E7 ; 0.0
100 ; 21100.029114167854 ; 175899.28035782932 ; 1711753.0878470046 ; 1.1545525572264828E7 ; 0.0
101 ; 21257.5727989269 ; 177337.64743854542 ; 1732853.1169611725 ; 1.1721424852622658E7 ; 0.0
102 ; 20996.981128861098 ; 178776.68056310003 ; 1754110.6897600994 ; 1.1898762500061203E7 ; 0.0
103 ; 20958.23379286203 ; 180216.2555013666 ; 1775107.6708889606 ; 1.2077539180624302E7 ; 0.0
104 ; 20697.148174608657 ; 181656.2510464395 ; 1796065.9046818225 ; 1.225775543612567E7 ; 0.0
105 ; 20611.00215455595 ; 183096.54890716533 ; 1816763.052856431 ; 1.243941168717211E7 ; 0.0
106 ; 20621.069973351856 ; 184537.03360489532 ; 1837374.055010987 ; 1.2622508236079274E7 ; 0.0
107 ; 20454.955331406494 ; 185977.59237429712 ; 1857995.1249843389 ; 1.280704526968417E7 ; 0.0
108 ; 20104.917356721013 ; 187418.1150680692 ; 1878450.0803157454 ; 1.2993022862058466E7 ; 0.0
109 ; 20058.022694742223 ; 188858.49406540644 ; 1898554.9976724666 ; 1.3180440977126535E7 ; 0.0
110 ; 19936.115331149467 ; 190298.62418406972 ; 1918613.0203672089 ; 1.336929947119194E7 ; 0.0
111 ; 19805.051641203874 ; 191738.4025959173 ; 1938549.1356983583 ; 1.3559598095376011E7 ; 0.0
112 ; 19717.800069579403 ; 193177.7287457604 ; 1958354.1873395622 ; 1.3751336497971928E7 ; 0.0
113 ; 19561.306424346658 ; 194616.50427341097 ; 1978071.9874091416 ; 1.3944514226717688E7 ; 0.0
114 ; 19301.758496731156 ; 196054.63293879278 ; 1997633.2938334884 ; 1.4139130730991099E7 ; 0.0
115 ; 19281.88588341153 ; 197492.0205499937 ; 2016935.0523302194 ; 1.4335185363929892E7 ; 0.0
116 ; 19093.549003079253 ; 198928.57489413963 ; 2036216.938213631 ; 1.4532677384479886E7 ; 0.0
117 ; 18944.5954565761 ; 200364.20567097596 ; 2055310.4872167103 ; 1.4731605959374025E7 ; 0.0
118 ; 18788.115240332372 ; 201798.8244290471 ; 2074255.0826732866 ; 1.4931970165045E7 ; 0.0
119 ; 18664.709179425572 ; 203232.34450436765 ; 2093043.197913619 ; 1.5133768989474047E7 ; 0.0
120 ; 18447.02356957491 ; 204664.6809614846 ; 2111707.9070930444 ; 1.5337001333978415E7 ; 0.0
121 ; 18180.393029901865 ; 206095.75053683197 ; 2130154.9306626194 ; 1.5541666014939899E7 ; 0.0
122 ; 17825.362797656864 ; 207525.4715842854 ; 2148335.323692521 ; 1.574776176547673E7 ; 0.0
123 ; 17612.81949086813 ; 208953.76402282558 ; 2166160.686490178 ; 1.5955287237061014E7 ; 0.0
124 ; 17666.155221200846 ; 210380.5492862254 ; 2183773.5059810462 ; 1.616424100108384E7 ; 0.0
125 ; 17336.120672917594 ; 211805.7502746772 ; 2201439.6612022473 ; 1.6374621550370065E7 ; 0.0
126 ; 17196.989562602714 ; 213229.2913082814 ; 2218775.7818751647 ; 1.6586427300644742E7 ; 0.0
127 ; 16898.546631235702 ; 214651.0980823195 ; 2235972.7714377674 ; 1.6799656591953024E7 ; 0.0
128 ; 16712.294738368168 ; 216071.09762424047 ; 2252871.318069003 ; 1.7014307690035343E7 ; 0.0
129 ; 16498.69007544079 ; 217489.2182522877 ; 2269583.612807371 ; 1.7230378787659585E7 ; 0.0
130 ; 16204.513205890988 ; 218905.38953570247 ; 2286082.302882812 ; 1.744786800591187E7 ; 0.0
131 ; 16010.188670900465 ; 220319.54225643777 ; 2302286.816088703 ; 1.7666773395447575E7 ; 0.0
132 ; 15729.504426416237 ; 221731.60837232144 ; 2318297.0047596036 ; 1.788709293770401E7 ; 0.0
133 ; 15521.313463782479 ; 223141.52098161072 ; 2334026.5091860197 ; 1.8108824546076335E7 ; 0.0
134 ; 15252.099831053909 ; 224549.21428888018 ; 2349547.822649802 ; 1.8331966067057945E7 ; 0.0
135 ; 15094.81600350915 ; 225954.62357219026 ; 2364799.922480856 ; 1.8556515281346824E7 ; 0.0
136 ; 14898.375424307938 ; 227357.68515148398 ; 2379894.7384843654 ; 1.8782469904919013E7 ; 0.0
137 ; 14499.02618053003 ; 228758.3363581624 ; 2394793.113908673 ; 1.9009827590070497E7 ; 0.0
138 ; 14084.436105415418 ; 230156.51550579164 ; 2409292.140089203 ; 1.923858592642866E7 ; 0.0
139 ; 13859.854925894639 ; 231552.16186189573 ; 2423376.5761946184 ; 1.946874244193445E7 ; 0.0
140 ; 13476.72528339427 ; 232945.21562079157 ; 2437236.431120513 ; 1.9700294603796348E7 ; 0.0
141 ; 13433.61542825435 ; 234335.61787742467 ; 2450713.156403907 ; 1.993323981941714E7 ; 0.0
142 ; 12988.093272204524 ; 235723.31060216567 ; 2464146.7718321616 ; 2.0167575437294565E7 ; 0.0
143 ; 12716.028823684388 ; 237108.23661652932 ; 2477134.865104366 ; 2.040329874789673E7 ; 0.0
144 ; 12332.504177212712 ; 238490.33956977908 ; 2489850.8939280505 ; 2.064040698451326E7 ; 0.0
145 ; 12200.377159178286 ; 239869.563916383 ; 2502183.3981052632 ; 2.0878897324083038E7 ; 0.0
146 ; 12164.152467457781 ; 241245.85489428605 ; 2514383.7752644415 ; 2.111876688799942E7 ; 0.0
147 ; 12283.981945036681 ; 242619.158503968 ; 2526547.927731899 ; 2.1360012742893707E7 ; 0.0
148 ; 12085.153523951918 ; 243989.42148825573 ; 2538831.909676936 ; 2.1602631901397675E7 ; 0.0
149 ; 11995.928947399421 ; 245356.5913128593 ; 2550917.0632008878 ; 2.184662132288593E7 ; 0.0
150 ; 12050.133956425343 ; 246720.61614760512 ; 2562912.992148287 ; 2.209197791419879E7 ; 0.0
151 ; 11803.8670132556 ; 248081.44484833837 ; 2574963.1261047125 ; 2.2338698530346394E7 ; 0.0
152 ; 11613.73519300357 ; 249439.02693946855 ; 2586766.993117968 ; 2.2586779975194734E7 ; 0.0
153 ; 11417.233441692211 ; 250793.3125971331 ; 2598380.7283109715 ; 2.2836219002134204E7 ; 0.0
154 ; 11520.452653914976 ; 252144.2526329564 ; 2609797.961752664 ; 2.3087012314731337E7 ; 0.0
155 ; 11443.292970924593 ; 253491.79847838005 ; 2621318.414406579 ; 2.3339156567364294E7 ; 0.0
156 ; 11362.830002755007 ; 254835.90216954303 ; 2632761.7073775036 ; 2.3592648365842674E7 ; 0.0
157 ; 11134.2391308265 ; 256176.51633269066 ; 2644124.5373802586 ; 2.384748426801222E7 ; 0.0
158 ; 11124.550724798077 ; 257513.59417009228 ; 2655258.776511085 ; 2.4103660784344908E7 ; 0.0
159 ; 10940.537946280167 ; 258847.08944644878 ; 2666383.327235883 ; 2.4361174378515E7 ; 0.0
160 ; 10819.366661155105 ; 260176.95647577036 ; 2677323.865182163 ; 2.462002146796145E7 ; 0.0
161 ; 10702.733991432293 ; 261503.1501087079 ; 2688143.2318433183 ; 2.488019842443722E7 ; 0.0
162 ; 10603.54618921711 ; 262825.6257203203 ; 2698845.965834751 ; 2.5141701574545927E7 ; 0.0
163 ; 10496.790197109476 ; 264144.33919826214 ; 2709449.5120239677 ; 2.540452720026625E7 ; 0.0
164 ; 10491.68809044854 ; 265459.2469313745 ; 2719946.302221077 ; 2.566867153946451E7 ; 0.0
165 ; 10364.089992058394 ; 266770.30579866597 ; 2730437.9903115258 ; 2.5934130786395885E7 ; 0.0
166 ; 10095.360123681006 ; 268077.47315866826 ; 2740802.080303584 ; 2.620090109219455E7 ; 0.0
167 ; 9986.467927521688 ; 269380.7068391515 ; 2750897.440427265 ; 2.646897856535322E7 ; 0.0
168 ; 9914.314185245968 ; 270679.9651271893 ; 2760883.9083547867 ; 2.673835927219237E7 ; 0.0
169 ; 9706.854168596428 ; 271975.2067595565 ; 2770798.2225400326 ; 2.700903923731956E7 ; 0.0
170 ; 9579.188365923896 ; 273266.3909134511 ; 2780505.076708629 ; 2.7281014444079116E7 ; 0.0
171 ; 9445.198977278249 ; 274553.47719752655 ; 2790084.2650745525 ; 2.7554280834992565E7 ; 0.0
172 ; 9279.516920326714 ; 275836.4256432235 ; 2799529.4640518306 ; 2.7828834312190093E7 ; 0.0
173 ; 9361.515635843385 ; 277115.19669639075 ; 2808808.9809721573 ; 2.8104670737833317E7 ; 0.0
174 ; 9326.115289617492 ; 278389.751209184 ; 2818170.4966080007 ; 2.8381785934529707E7 ; 0.0
175 ; 9421.024022121508 ; 279660.0504322339 ; 2827496.611897618 ; 2.866017568573889E7 ; 0.0
176 ; 9297.35153767905 ; 280926.05600707186 ; 2836917.6359197395 ; 2.8939835736171126E7 ; 0.0
177 ; 9206.974218990319 ; 282187.7299588063 ; 2846214.9874574183 ; 2.92207617921782E7 ; 0.0
178 ; 9481.112705757378 ; 283445.0346890388 ; 2855421.9616764085 ; 2.9502949522137005E7 ; 0.0
179 ; 9397.937810929896 ; 284697.9329690133 ; 2864903.074382166 ; 2.9786394556826044E7 ; 0.0
180 ; 9519.7993711274 ; 285946.3879329887 ; 2874301.012193096 ; 3.007109248979506E7 ; 0.0
181 ; 9487.175268969098 ; 287190.3630718275 ; 2883820.8115642234 ; 3.035703887772805E7 ; 0.0
182 ; 9558.426717701801 ; 288429.82222679345 ; 2893307.9868331924 ; 3.0644229240799878E7 ; 0.0
183 ; 9350.646438458103 ; 289664.7295835502 ; 2902866.4135508942 ; 3.093265906302667E7 ; 0.0
184 ; 9619.627854644805 ; 290895.049666354 ; 2912217.0599893522 ; 3.122232379261022E7 ; 0.0
185 ; 9491.473790007112 ; 292120.74733243434 ; 2921836.687843997 ; 3.1513218842276573E7 ; 0.0
186 ; 9716.209808155654 ; 293341.78776655556 ; 2931328.161634004 ; 3.180533958960901E7 ; 0.0
187 ; 9643.057145819863 ; 294558.1364757527 ; 2941044.3714421596 ; 3.2098681377375565E7 ; 0.0
188 ; 9524.024462576988 ; 295769.7592842369 ; 2950687.4285879796 ; 3.239323951385132E7 ; 0.0
189 ; 9666.109686713524 ; 296976.62232846353 ; 2960211.4530505566 ; 3.2689009273135554E7 ; 0.0
190 ; 9696.314125991034 ; 298178.692052358 ; 2969877.5627372703 ; 3.2985985895464018E7 ; 0.0
191 ; 9589.413006545306 ; 299375.9352026929 ; 2979573.876863261 ; 3.3284164587516375E7 ; 0.0
192 ; 9748.890729316656 ; 300568.31882461347 ; 2989163.2898698067 ; 3.358354052271907E7 ; 0.0
193 ; 9661.813994117536 ; 301755.8102573035 ; 2998912.1805991232 ; 3.388410884154368E7 ; 0.0
194 ; 9732.130388104168 ; 302938.3771297901 ; 3008573.994593241 ; 3.418586465180098E7 ; 0.0
195 ; 9665.533169641434 ; 304115.9873568798 ; 3018306.124981345 ; 3.4488803028930776E7 ; 0.0
196 ; 9600.10668340456 ; 305288.60913522355 ; 3027971.658150987 ; 3.4792919016287655E7 ; 0.0
197 ; 9941.980862799055 ; 306456.21093950537 ; 3037571.7648343914 ; 3.509820762542288E7 ; 0.0
198 ; 9856.38471859767 ; 307618.761518751 ; 3047513.7456971905 ; 3.5404663836362384E7 ; 0.0
199 ; 9895.357929307733 ; 308776.22989275225 ; 3057370.1304157884 ; 3.571228259788114E7 ; 0.0
200 ; 9987.499581898837 ; 309928.58534860355 ; 3067265.488345096 ; 3.602105882777389E7 ; 0.0
201 ; 10010.799847674145 ; 311075.7974373466 ; 3077252.987926995 ; 3.63309874131225E7 ; 0.0
202 ; 9930.015503543793 ; 312217.8359707201 ; 3087263.787774669 ; 3.6642063210559845E7 ; 0.0
203 ; 9904.271920819207 ; 313354.67101801065 ; 3097193.803278213 ; 3.695428104653057E7 ; 0.0
204 ; 9882.708836996086 ; 314486.27290300187 ; 3107098.075199032 ; 3.726763571754858E7 ; 0.0
205 ; 10092.091054751423 ; 315612.6122010181 ; 3116980.784036028 ; 3.758212199045158E7 ; 0.0
206 ; 10108.483060236409 ; 316733.65973606036 ; 3127072.8750907797 ; 3.78977346026526E7 ; 0.0
207 ; 9987.853892265268 ; 317849.38657803094 ; 3137181.3581510163 ; 3.821446826238866E7 ; 0.0
208 ; 10109.456489969813 ; 318959.76404004364 ; 3147169.2120432816 ; 3.853231764896669E7 ; 0.0
209 ; 10248.662583677287 ; 320064.7636758179 ; 3157278.6685332516 ; 3.885127741300674E7 ; 0.0
210 ; 10041.85042750536 ; 321164.357277153 ; 3167527.3311169287 ; 3.9171342176682554E7 ; 0.0
211 ; 10241.229497813467 ; 322258.5168714807 ; 3177569.1815444343 ; 3.949250653395971E7 ; 0.0
212 ; 10132.777626657959 ; 323347.2147194923 ; 3187810.411042248 ; 3.981476505083119E7 ; 0.0
