CSV File for the City 2 on Day 270
1 - Minute m 
2 - Power Consumed at minute m 
3 - Power Produced at minute m 
4 - Energy Consumed since the beginning of the day 
5 - Energy Produced since the beginning of the day 
6 - Energy Lost since the beginning of the day on lines starting from the city
 
0 ; 6850.147370912788 ; 30744.71305181663 ; 0.0 ; 0.0 ; 0.0
1 ; 7333.498254145937 ; 30744.71305181663 ; 6850.147370912788 ; 30744.71305181663 ; 0.0
2 ; 7842.584973547149 ; 30744.71305181663 ; 14183.645625058725 ; 61489.42610363326 ; 0.0
3 ; 8332.786201090945 ; 30744.71305181663 ; 22026.230598605875 ; 92234.1391554499 ; 0.0
4 ; 8690.148885523413 ; 30744.71305181663 ; 30359.01679969682 ; 122978.85220726652 ; 0.0
5 ; 9092.100727498644 ; 30744.71305181663 ; 39049.16568522023 ; 153723.56525908315 ; 0.0
6 ; 9448.136349567896 ; 30744.71305181663 ; 48141.26641271888 ; 184468.27831089977 ; 0.0
7 ; 9755.499993610705 ; 30744.71305181663 ; 57589.40276228677 ; 215212.9913627164 ; 0.0
8 ; 10327.27099099556 ; 30744.71305181663 ; 67344.90275589748 ; 245957.70441453301 ; 0.0
9 ; 10628.881224255772 ; 30744.71305181663 ; 77672.17374689304 ; 276702.41746634967 ; 0.0
10 ; 11197.0148679466 ; 30744.71305181663 ; 88301.05497114881 ; 307447.1305181663 ; 0.0
11 ; 11367.816839827166 ; 30744.71305181663 ; 99498.0698390954 ; 338191.8435699829 ; 0.0
12 ; 12056.00177454636 ; 30744.71305181663 ; 110865.88667892257 ; 368936.55662179954 ; 0.0
13 ; 12170.392893457827 ; 30744.71305181663 ; 122921.88845346893 ; 399681.26967361616 ; 0.0
14 ; 12444.593310600187 ; 30744.71305181663 ; 135092.28134692676 ; 430425.9827254328 ; 0.0
15 ; 12735.771760268895 ; 30744.71305181663 ; 147536.87465752693 ; 461170.6957772494 ; 0.0
16 ; 13199.423042223949 ; 30744.71305181663 ; 160272.64641779583 ; 491915.40882906603 ; 0.0
17 ; 13581.818022555975 ; 30744.71305181663 ; 173472.06946001976 ; 522660.12188088265 ; 0.0
18 ; 13822.480646303027 ; 30744.71305181663 ; 187053.88748257572 ; 553404.8349326993 ; 0.0
19 ; 14397.906361673355 ; 30744.71305181663 ; 200876.36812887876 ; 584149.547984516 ; 0.0
20 ; 14706.923608142366 ; 30744.71305181663 ; 215274.2744905521 ; 614894.2610363327 ; 0.0
21 ; 15007.30353138913 ; 30744.71305181663 ; 229981.19809869447 ; 645638.9740881494 ; 0.0
22 ; 15120.547274347386 ; 30744.71305181663 ; 244988.5016300836 ; 676383.6871399661 ; 0.0
23 ; 15603.894436529152 ; 30744.71305181663 ; 260109.048904431 ; 707128.4001917827 ; 0.0
24 ; 16060.384528095123 ; 30744.71305181663 ; 275712.94334096013 ; 737873.1132435994 ; 0.0
25 ; 16425.39726423099 ; 30744.71305181663 ; 291773.32786905527 ; 768617.8262954161 ; 0.0
26 ; 16640.464152286208 ; 30744.71305181663 ; 308198.72513328627 ; 799362.5393472328 ; 0.0
27 ; 16867.758898885204 ; 30744.71305181663 ; 324839.1892855725 ; 830107.2523990495 ; 0.0
28 ; 16983.084741326307 ; 30744.71305181663 ; 341706.9481844577 ; 860851.9654508661 ; 0.0
29 ; 17497.093864269416 ; 30744.71305181663 ; 358690.032925784 ; 891596.6785026828 ; 0.0
30 ; 17795.341395173135 ; 30744.71305181663 ; 376187.12679005344 ; 922341.3915544995 ; 0.0
31 ; 17953.564750184083 ; 30744.71305181663 ; 393982.46818522655 ; 953086.1046063162 ; 0.0
32 ; 18441.39034509098 ; 30744.71305181663 ; 411936.0329354106 ; 983830.8176581329 ; 0.0
33 ; 18373.516674013707 ; 30744.71305181663 ; 430377.4232805016 ; 1014575.5307099496 ; 0.0
34 ; 19075.897490884825 ; 30744.71305181663 ; 448750.9399545153 ; 1045320.2437617662 ; 0.0
35 ; 19049.771799204264 ; 30744.71305181663 ; 467826.83744540013 ; 1076064.956813583 ; 0.0
36 ; 19393.667376636215 ; 30744.71305181663 ; 486876.6092446044 ; 1106809.6698653996 ; 0.0
37 ; 19661.93902771437 ; 30744.71305181663 ; 506270.27662124066 ; 1137554.3829172163 ; 0.0
38 ; 20042.498590644725 ; 30744.71305181663 ; 525932.215648955 ; 1168299.095969033 ; 0.0
39 ; 20164.98456383269 ; 30744.71305181663 ; 545974.7142395996 ; 1199043.8090208496 ; 0.0
40 ; 20376.286941596758 ; 30744.71305181663 ; 566139.6988034323 ; 1229788.5220726663 ; 0.0
41 ; 20596.423275715697 ; 30744.71305181663 ; 586515.9857450291 ; 1260533.235124483 ; 0.0
42 ; 20786.377957044308 ; 30744.71305181663 ; 607112.4090207447 ; 1291277.9481762997 ; 0.0
43 ; 20908.05338432078 ; 30744.71305181663 ; 627898.786977789 ; 1322022.6612281164 ; 0.0
44 ; 21090.85034067194 ; 30744.71305181663 ; 648806.8403621098 ; 1352767.374279933 ; 0.0
45 ; 21431.18115889483 ; 30744.71305181663 ; 669897.6907027818 ; 1383512.0873317497 ; 0.0
46 ; 21521.504722946804 ; 30744.71305181663 ; 691328.8718616766 ; 1414256.8003835664 ; 0.0
47 ; 21645.737550845086 ; 30744.71305181663 ; 712850.3765846234 ; 1445001.513435383 ; 0.0
48 ; 21914.391004048946 ; 30744.71305181663 ; 734496.1141354685 ; 1475746.2264871998 ; 0.0
49 ; 22085.54576240278 ; 30744.71305181663 ; 756410.5051395175 ; 1506490.9395390165 ; 0.0
50 ; 22383.308658777176 ; 30744.71305181663 ; 778496.0509019203 ; 1537235.6525908331 ; 0.0
51 ; 22670.209382553392 ; 30744.71305181663 ; 800879.3595606975 ; 1567980.3656426498 ; 0.0
52 ; 22561.428992033972 ; 30744.71305181663 ; 823549.5689432508 ; 1598725.0786944665 ; 0.0
53 ; 22755.79495239374 ; 30744.71305181663 ; 846110.9979352847 ; 1629469.7917462832 ; 0.0
54 ; 23002.450169720858 ; 30744.71305181663 ; 868866.7928876785 ; 1660214.5047980999 ; 0.0
55 ; 23127.594077896345 ; 30744.71305181663 ; 891869.2430573993 ; 1690959.2178499165 ; 0.0
56 ; 23297.470975478038 ; 30744.71305181663 ; 914996.8371352956 ; 1721703.9309017332 ; 0.0
57 ; 23192.69428932804 ; 30744.71305181663 ; 938294.3081107737 ; 1752448.64395355 ; 0.0
58 ; 23465.624194529188 ; 30744.71305181663 ; 961487.0024001017 ; 1783193.3570053666 ; 0.0
59 ; 23675.370481486596 ; 30744.71305181663 ; 984952.6265946309 ; 1813938.0700571833 ; 0.0
60 ; 23580.345451744834 ; 30744.71305181663 ; 1008627.9970761174 ; 1844682.783109 ; 0.0
61 ; 23735.262307082365 ; 30744.71305181663 ; 1032208.3425278623 ; 1875427.4961608166 ; 0.0
62 ; 23934.246439872677 ; 30744.71305181663 ; 1055943.6048349447 ; 1906172.2092126333 ; 0.0
63 ; 24063.83909446816 ; 30744.71305181663 ; 1079877.8512748175 ; 1936916.92226445 ; 0.0
64 ; 24264.080805272846 ; 30744.71305181663 ; 1103941.6903692856 ; 1967661.6353162667 ; 0.0
65 ; 24285.511349662436 ; 30744.71305181663 ; 1128205.7711745584 ; 1998406.3483680834 ; 0.0
66 ; 24329.359110032583 ; 30744.71305181663 ; 1152491.2825242209 ; 2029151.0614199 ; 0.0
67 ; 24429.24458466256 ; 30744.71305181663 ; 1176820.6416342536 ; 2059895.7744717167 ; 0.0
68 ; 24490.611239245885 ; 30744.71305181663 ; 1201249.8862189162 ; 2090640.4875235334 ; 0.0
69 ; 24601.8122761846 ; 30744.71305181663 ; 1225740.497458162 ; 2121385.20057535 ; 0.0
70 ; 24765.888681621378 ; 30744.71305181663 ; 1250342.3097343466 ; 2152129.9136271663 ; 0.0
71 ; 24718.584334594 ; 30744.71305181663 ; 1275108.1984159679 ; 2182874.6266789827 ; 0.0
72 ; 24708.20858787416 ; 30744.71305181663 ; 1299826.7827505618 ; 2213619.339730799 ; 0.0
73 ; 24832.56766787121 ; 30744.71305181663 ; 1324534.991338436 ; 2244364.0527826156 ; 0.0
74 ; 24976.412452095905 ; 30744.71305181663 ; 1349367.5590063073 ; 2275108.765834432 ; 0.0
75 ; 24922.016924666725 ; 30744.71305181663 ; 1374343.9714584032 ; 2305853.4788862485 ; 0.0
76 ; 25039.3185819132 ; 30744.71305181663 ; 1399265.9883830699 ; 2336598.191938065 ; 0.0
77 ; 24862.278072038793 ; 30744.71305181663 ; 1424305.306964983 ; 2367342.9049898814 ; 0.0
78 ; 25025.005283009803 ; 30744.71305181663 ; 1449167.585037022 ; 2398087.618041698 ; 0.0
79 ; 25026.640455169574 ; 30744.71305181663 ; 1474192.5903200316 ; 2428832.3310935143 ; 0.0
80 ; 24898.351887685818 ; 30744.71305181663 ; 1499219.2307752012 ; 2459577.044145331 ; 0.0
81 ; 24956.442661942016 ; 30744.71305181663 ; 1524117.582662887 ; 2490321.7571971472 ; 0.0
82 ; 25039.71932006456 ; 30744.71305181663 ; 1549074.025324829 ; 2521066.4702489637 ; 0.0
83 ; 25009.70853064841 ; 30744.71305181663 ; 1574113.7446448936 ; 2551811.18330078 ; 0.0
84 ; 25026.529703798995 ; 30744.71305181663 ; 1599123.453175542 ; 2582555.8963525966 ; 0.0
85 ; 24862.157306130553 ; 30744.71305181663 ; 1624149.9828793409 ; 2613300.609404413 ; 0.0
86 ; 25083.76830694182 ; 30744.71305181663 ; 1649012.1401854714 ; 2644045.3224562295 ; 0.0
87 ; 24776.838148336887 ; 30744.71305181663 ; 1674095.9084924131 ; 2674790.035508046 ; 0.0
88 ; 24767.68080273653 ; 30744.71305181663 ; 1698872.74664075 ; 2705534.7485598624 ; 0.0
89 ; 24748.236639628714 ; 30744.71305181663 ; 1723640.4274434864 ; 2736279.461611679 ; 0.0
90 ; 24812.894791724808 ; 30744.71305181663 ; 1748388.664083115 ; 2767024.1746634953 ; 0.0
91 ; 24946.009732200597 ; 30744.71305181663 ; 1773201.55887484 ; 2797768.8877153117 ; 0.0
92 ; 24773.82830384091 ; 30744.71305181663 ; 1798147.5686070404 ; 2828513.600767128 ; 0.0
93 ; 24556.284372123526 ; 30744.71305181663 ; 1822921.3969108814 ; 2859258.3138189446 ; 0.0
94 ; 24567.918746812935 ; 30744.71305181663 ; 1847477.6812830048 ; 2890003.026870761 ; 0.0
95 ; 24591.530216709478 ; 30744.71305181663 ; 1872045.6000298178 ; 2920747.7399225775 ; 0.0
96 ; 24491.19782748551 ; 30744.71305181663 ; 1896637.1302465273 ; 2951492.452974394 ; 0.0
97 ; 24347.575942290547 ; 30744.71305181663 ; 1921128.3280740129 ; 2982237.1660262104 ; 0.0
98 ; 24383.522974166302 ; 30744.71305181663 ; 1945475.9040163034 ; 3012981.879078027 ; 0.0
99 ; 24136.883684237793 ; 30744.71305181663 ; 1969859.4269904697 ; 3043726.5921298433 ; 0.0
100 ; 24189.869024142445 ; 30744.71305181663 ; 1993996.3106747074 ; 3074471.3051816598 ; 0.0
101 ; 23997.18607047694 ; 30744.71305181663 ; 2018186.1796988498 ; 3105216.018233476 ; 0.0
102 ; 23976.25212610972 ; 30744.71305181663 ; 2042183.3657693267 ; 3135960.7312852927 ; 0.0
103 ; 23922.795721359296 ; 30744.71305181663 ; 2066159.6178954365 ; 3166705.444337109 ; 0.0
104 ; 23788.912298581174 ; 30744.71305181663 ; 2090082.4136167958 ; 3197450.1573889256 ; 0.0
105 ; 23359.907880714687 ; 30744.71305181663 ; 2113871.325915377 ; 3228194.870440742 ; 0.0
106 ; 23455.626349188882 ; 30744.71305181663 ; 2137231.2337960918 ; 3258939.5834925584 ; 0.0
107 ; 23369.02306479536 ; 30744.71305181663 ; 2160686.8601452806 ; 3289684.296544375 ; 0.0
108 ; 23085.138825065318 ; 30744.71305181663 ; 2184055.883210076 ; 3320429.0095961913 ; 0.0
109 ; 22951.086933076258 ; 30744.71305181663 ; 2207141.0220351415 ; 3351173.722648008 ; 0.0
110 ; 22912.23987144778 ; 30744.71305181663 ; 2230092.108968218 ; 3381918.4356998242 ; 0.0
111 ; 22522.320615942393 ; 30744.71305181663 ; 2253004.3488396658 ; 3412663.1487516407 ; 0.0
112 ; 22519.56654935187 ; 30744.71305181663 ; 2275526.6694556084 ; 3443407.861803457 ; 0.0
113 ; 22528.538252816346 ; 30744.71305181663 ; 2298046.2360049603 ; 3474152.5748552736 ; 0.0
114 ; 22110.601752574392 ; 30744.71305181663 ; 2320574.774257777 ; 3504897.28790709 ; 0.0
115 ; 21844.884619881555 ; 30744.71305181663 ; 2342685.3760103513 ; 3535642.0009589065 ; 0.0
116 ; 21721.313988132966 ; 30744.71305181663 ; 2364530.2606302327 ; 3566386.714010723 ; 0.0
117 ; 21751.12530395344 ; 30744.71305181663 ; 2386251.5746183656 ; 3597131.4270625394 ; 0.0
118 ; 21428.50194263538 ; 30744.71305181663 ; 2408002.699922319 ; 3627876.140114356 ; 0.0
119 ; 21208.401529020626 ; 30744.71305181663 ; 2429431.2018649545 ; 3658620.8531661723 ; 0.0
120 ; 20875.960224457238 ; 30744.71305181663 ; 2450639.603393975 ; 3689365.5662179887 ; 0.0
121 ; 20765.634744045572 ; 30744.71305181663 ; 2471515.5636184323 ; 3720110.279269805 ; 0.0
122 ; 20680.96583871848 ; 30744.71305181663 ; 2492281.198362478 ; 3750854.9923216216 ; 0.0
123 ; 20432.754275222058 ; 30744.71305181663 ; 2512962.1642011967 ; 3781599.705373438 ; 0.0
124 ; 20153.411150602853 ; 30744.71305181663 ; 2533394.9184764186 ; 3812344.4184252545 ; 0.0
125 ; 19861.355555423434 ; 30744.71305181663 ; 2553548.329627021 ; 3843089.131477071 ; 0.0
126 ; 19663.151048303534 ; 30744.71305181663 ; 2573409.6851824448 ; 3873833.8445288874 ; 0.0
127 ; 19509.923665132814 ; 30744.71305181663 ; 2593072.8362307483 ; 3904578.557580704 ; 0.0
128 ; 19077.263617166223 ; 30744.71305181663 ; 2612582.759895881 ; 3935323.2706325203 ; 0.0
129 ; 18888.416946269543 ; 30744.71305181663 ; 2631660.0235130475 ; 3966067.9836843368 ; 0.0
130 ; 18646.384039215256 ; 30744.71305181663 ; 2650548.440459317 ; 3996812.696736153 ; 0.0
131 ; 18456.237653836597 ; 30744.71305181663 ; 2669194.8244985323 ; 4027557.4097879697 ; 0.0
132 ; 17980.666132393995 ; 30744.71305181663 ; 2687651.062152369 ; 4058302.122839786 ; 0.0
133 ; 17927.354554907793 ; 30744.71305181663 ; 2705631.728284763 ; 4089046.8358916026 ; 0.0
134 ; 17668.2387939499 ; 30744.71305181663 ; 2723559.082839671 ; 4119791.548943419 ; 0.0
135 ; 17456.851809929954 ; 30744.71305181663 ; 2741227.321633621 ; 4150536.2619952355 ; 0.0
136 ; 17008.073134923823 ; 30744.71305181663 ; 2758684.173443551 ; 4181280.975047052 ; 0.0
137 ; 16711.782003877517 ; 30744.71305181663 ; 2775692.246578475 ; 4212025.688098868 ; 0.0
138 ; 16370.122115800667 ; 30744.71305181663 ; 2792404.0285823527 ; 4242770.401150685 ; 0.0
139 ; 16262.810602230664 ; 30744.71305181663 ; 2808774.1506981533 ; 4273515.114202501 ; 0.0
140 ; 15781.760133456428 ; 30744.71305181663 ; 2825036.961300384 ; 4304259.827254318 ; 0.0
141 ; 15338.532936402873 ; 30744.71305181663 ; 2840818.72143384 ; 4335004.540306134 ; 0.0
142 ; 15043.179685178935 ; 30744.71305181663 ; 2856157.2543702433 ; 4365749.253357951 ; 0.0
143 ; 14822.8086212402 ; 30744.71305181663 ; 2871200.4340554224 ; 4396493.966409767 ; 0.0
144 ; 14386.122429507543 ; 30744.71305181663 ; 2886023.2426766627 ; 4427238.6794615835 ; 0.0
145 ; 14471.764139722096 ; 30744.71305181663 ; 2900409.36510617 ; 4457983.3925134 ; 0.0
146 ; 14066.691327857396 ; 30744.71305181663 ; 2914881.129245892 ; 4488728.105565216 ; 0.0
147 ; 14246.35344336353 ; 30744.71305181663 ; 2928947.8205737495 ; 4519472.818617033 ; 0.0
148 ; 14046.421734609927 ; 30744.71305181663 ; 2943194.174017113 ; 4550217.531668849 ; 0.0
149 ; 14002.169869602372 ; 30744.71305181663 ; 2957240.5957517233 ; 4580962.244720666 ; 0.0
150 ; 13883.163315767788 ; 30744.71305181663 ; 2971242.7656213255 ; 4611706.957772482 ; 0.0
151 ; 13854.323968438428 ; 30744.71305181663 ; 2985125.9289370934 ; 4642451.670824299 ; 0.0
152 ; 13653.681617988821 ; 30744.71305181663 ; 2998980.252905532 ; 4673196.383876115 ; 0.0
153 ; 13581.27564160163 ; 30744.71305181663 ; 3012633.9345235205 ; 4703941.0969279315 ; 0.0
154 ; 13427.585536760627 ; 30744.71305181663 ; 3026215.210165122 ; 4734685.809979748 ; 0.0
155 ; 13262.65321855521 ; 30744.71305181663 ; 3039642.795701883 ; 4765430.523031564 ; 0.0
156 ; 13381.178288759422 ; 30744.71305181663 ; 3052905.448920438 ; 4796175.236083381 ; 0.0
157 ; 13177.56318034602 ; 30744.71305181663 ; 3066286.6272091973 ; 4826919.949135197 ; 0.0
158 ; 13053.779116443528 ; 30744.71305181663 ; 3079464.1903895433 ; 4857664.662187014 ; 0.0
159 ; 13056.46262005221 ; 30744.71305181663 ; 3092517.9695059867 ; 4888409.37523883 ; 0.0
160 ; 12809.25601038288 ; 30744.71305181663 ; 3105574.4321260387 ; 4919154.088290647 ; 0.0
161 ; 12689.646417437483 ; 30744.71305181663 ; 3118383.6881364216 ; 4949898.801342463 ; 0.0
162 ; 12504.90428292052 ; 30744.71305181663 ; 3131073.334553859 ; 4980643.51439428 ; 0.0
163 ; 12484.18476269604 ; 30744.71305181663 ; 3143578.2388367797 ; 5011388.227446096 ; 0.0
164 ; 12238.834904948279 ; 30744.71305181663 ; 3156062.423599476 ; 5042132.9404979125 ; 0.0
165 ; 11999.613741866428 ; 30744.71305181663 ; 3168301.2585044242 ; 5072877.653549729 ; 0.0
166 ; 12115.200870663908 ; 30744.71305181663 ; 3180300.8722462906 ; 5103622.366601545 ; 0.0
167 ; 11651.289656288709 ; 30744.71305181663 ; 3192416.0731169544 ; 5134367.079653362 ; 0.0
168 ; 11835.362734586672 ; 30744.71305181663 ; 3204067.3627732433 ; 5165111.792705178 ; 0.0
169 ; 11529.156577625705 ; 30744.71305181663 ; 3215902.72550783 ; 5195856.505756995 ; 0.0
170 ; 11310.675671367382 ; 30744.71305181663 ; 3227431.8820854556 ; 5226601.218808811 ; 0.0
171 ; 11356.219072833257 ; 30744.71305181663 ; 3238742.557756823 ; 5257345.931860628 ; 0.0
172 ; 11079.866498609576 ; 30744.71305181663 ; 3250098.776829656 ; 5288090.644912444 ; 0.0
173 ; 11201.085467403827 ; 30744.71305181663 ; 3261178.6433282658 ; 5318835.3579642605 ; 0.0
174 ; 10998.34695830599 ; 30744.71305181663 ; 3272379.7287956695 ; 5349580.071016077 ; 0.0
175 ; 11053.169204135516 ; 30744.71305181663 ; 3283378.0757539757 ; 5380324.784067893 ; 0.0
176 ; 11305.792319387325 ; 30744.71305181663 ; 3294431.244958111 ; 5411069.49711971 ; 0.0
177 ; 11156.407005311981 ; 30744.71305181663 ; 3305737.0372774983 ; 5441814.210171526 ; 0.0
178 ; 11340.564462958999 ; 30744.71305181663 ; 3316893.44428281 ; 5472558.923223343 ; 0.0
179 ; 11215.507589375584 ; 30744.71305181663 ; 3328234.008745769 ; 5503303.636275159 ; 0.0
180 ; 11246.09325963261 ; 30744.71305181663 ; 3339449.5163351446 ; 5534048.349326976 ; 0.0
181 ; 11413.959354671138 ; 30744.71305181663 ; 3350695.609594777 ; 5564793.062378792 ; 0.0
182 ; 11196.85460704959 ; 30744.71305181663 ; 3362109.5689494484 ; 5595537.775430609 ; 0.0
183 ; 11245.909479445347 ; 30744.71305181663 ; 3373306.423556498 ; 5626282.488482425 ; 0.0
184 ; 11331.90366976692 ; 30744.71305181663 ; 3384552.333035943 ; 5657027.201534241 ; 0.0
185 ; 11232.912570960669 ; 30744.71305181663 ; 3395884.23670571 ; 5687771.914586058 ; 0.0
186 ; 11357.525138160816 ; 30744.71305181663 ; 3407117.149276671 ; 5718516.627637874 ; 0.0
187 ; 11234.218125879706 ; 30744.71305181663 ; 3418474.6744148317 ; 5749261.340689691 ; 0.0
188 ; 11561.763043968962 ; 30744.71305181663 ; 3429708.8925407114 ; 5780006.053741507 ; 0.0
189 ; 11389.98903353926 ; 30744.71305181663 ; 3441270.6555846804 ; 5810750.766793324 ; 0.0
190 ; 11375.92851255144 ; 30744.71305181663 ; 3452660.6446182197 ; 5841495.47984514 ; 0.0
191 ; 11459.618249722811 ; 30744.71305181663 ; 3464036.573130771 ; 5872240.192896957 ; 0.0
192 ; 11402.983213933547 ; 30744.71305181663 ; 3475496.191380494 ; 5902984.905948773 ; 0.0
193 ; 11466.864009103301 ; 30744.71305181663 ; 3486899.1745944275 ; 5933729.6190005895 ; 0.0
194 ; 11407.970703776395 ; 30744.71305181663 ; 3498366.0386035307 ; 5964474.332052406 ; 0.0
195 ; 11556.114240805755 ; 30744.71305181663 ; 3509774.009307307 ; 5995219.045104222 ; 0.0
196 ; 11624.147276757676 ; 30744.71305181663 ; 3521330.123548113 ; 6025963.758156039 ; 0.0
197 ; 11674.829501121581 ; 30744.71305181663 ; 3532954.2708248706 ; 6056708.471207855 ; 0.0
198 ; 11923.374760601988 ; 30744.71305181663 ; 3544629.1003259923 ; 6087453.184259672 ; 0.0
199 ; 11595.716431487388 ; 30744.71305181663 ; 3556552.4750865945 ; 6118197.897311488 ; 0.0
200 ; 11714.843543936879 ; 30744.71305181663 ; 3568148.191518082 ; 6148942.610363305 ; 0.0
201 ; 11685.825863947228 ; 30744.71305181663 ; 3579863.035062019 ; 6179687.323415121 ; 0.0
202 ; 11805.107638549727 ; 30744.71305181663 ; 3591548.860925966 ; 6210432.0364669375 ; 0.0
203 ; 11839.35748673907 ; 30744.71305181663 ; 3603353.9685645155 ; 6241176.749518754 ; 0.0
204 ; 11774.76856256108 ; 30744.71305181663 ; 3615193.3260512548 ; 6271921.46257057 ; 0.0
205 ; 11727.650986205112 ; 30744.71305181663 ; 3626968.0946138157 ; 6302666.175622387 ; 0.0
206 ; 11762.577525241459 ; 30744.71305181663 ; 3638695.745600021 ; 6333410.888674203 ; 0.0
207 ; 11937.10270405656 ; 30744.71305181663 ; 3650458.3231252623 ; 6364155.60172602 ; 0.0
208 ; 11830.208650643506 ; 30744.71305181663 ; 3662395.425829319 ; 6394900.314777836 ; 0.0
209 ; 11828.91404468578 ; 30744.71305181663 ; 3674225.6344799623 ; 6425645.027829653 ; 0.0
210 ; 11965.987103570224 ; 30744.71305181663 ; 3686054.548524648 ; 6456389.740881469 ; 0.0
211 ; 11955.147569272627 ; 30744.71305181663 ; 3698020.535628218 ; 6487134.453933286 ; 0.0
212 ; 12051.655498214808 ; 30744.71305181663 ; 3709975.683197491 ; 6517879.166985102 ; 0.0
213 ; 12056.794471887679 ; 30744.71305181663 ; 3722027.338695706 ; 6548623.880036918 ; 0.0
214 ; 12060.041983176148 ; 30744.71305181663 ; 3734084.1331675937 ; 6579368.593088735 ; 0.0
215 ; 12175.262063612014 ; 30744.71305181663 ; 3746144.1751507698 ; 6610113.306140551 ; 0.0
216 ; 12168.67551714377 ; 30744.71305181663 ; 3758319.437214382 ; 6640858.019192368 ; 0.0
