CSV File for the City 2 on Day 204
1 - Minute m 
2 - Power Consumed at minute m 
3 - Power Produced at minute m 
4 - Energy Consumed since the beginning of the day 
5 - Energy Produced since the beginning of the day 
6 - Energy Lost since the beginning of the day on lines starting from the city
 
0 ; 4539.443233525603 ; 33848.84875722785 ; 0.0 ; 0.0 ; 0.0
1 ; 5150.972100608961 ; 33848.84875722785 ; 4539.443233525603 ; 33848.84875722785 ; 0.0
2 ; 5667.758140458127 ; 33848.84875722785 ; 9690.415334134565 ; 67697.6975144557 ; 0.0
3 ; 6211.524949761578 ; 33848.84875722785 ; 15358.173474592691 ; 101546.54627168353 ; 0.0
4 ; 6730.272786749184 ; 33848.84875722785 ; 21569.69842435427 ; 135395.3950289114 ; 0.0
5 ; 7284.069063605063 ; 33848.84875722785 ; 28299.971211103453 ; 169244.24378613924 ; 0.0
6 ; 7881.118612550835 ; 33848.84875722785 ; 35584.04027470852 ; 203093.0925433671 ; 0.0
7 ; 8380.832371493549 ; 33848.84875722785 ; 43465.15888725935 ; 236941.94130059495 ; 0.0
8 ; 8897.630969174998 ; 33848.84875722785 ; 51845.991258752896 ; 270790.7900578228 ; 0.0
9 ; 9496.530083852926 ; 33848.84875722785 ; 60743.622227927895 ; 304639.6388150506 ; 0.0
10 ; 9764.196484253134 ; 33848.84875722785 ; 70240.15231178082 ; 338488.4875722784 ; 0.0
11 ; 10388.542090099105 ; 33848.84875722785 ; 80004.34879603396 ; 372337.33632950624 ; 0.0
12 ; 10785.137026964365 ; 33848.84875722785 ; 90392.89088613306 ; 406186.18508673407 ; 0.0
13 ; 11266.944163786111 ; 33848.84875722785 ; 101178.02791309742 ; 440035.0338439619 ; 0.0
14 ; 11716.539065247827 ; 33848.84875722785 ; 112444.97207688354 ; 473883.8826011897 ; 0.0
15 ; 12387.1591699835 ; 33848.84875722785 ; 124161.51114213136 ; 507732.73135841754 ; 0.0
16 ; 12639.80640492575 ; 33848.84875722785 ; 136548.67031211487 ; 541581.5801156454 ; 0.0
17 ; 13125.537980899058 ; 33848.84875722785 ; 149188.4767170406 ; 575430.4288728733 ; 0.0
18 ; 13528.763166745446 ; 33848.84875722785 ; 162314.01469793968 ; 609279.2776301012 ; 0.0
19 ; 14074.103003449165 ; 33848.84875722785 ; 175842.77786468514 ; 643128.1263873291 ; 0.0
20 ; 14486.48584307939 ; 33848.84875722785 ; 189916.8808681343 ; 676976.975144557 ; 0.0
21 ; 14774.741232626571 ; 33848.84875722785 ; 204403.3667112137 ; 710825.8239017848 ; 0.0
22 ; 15355.661791674976 ; 33848.84875722785 ; 219178.10794384027 ; 744674.6726590127 ; 0.0
23 ; 15751.582194967754 ; 33848.84875722785 ; 234533.76973551523 ; 778523.5214162406 ; 0.0
24 ; 16051.035469086155 ; 33848.84875722785 ; 250285.35193048298 ; 812372.3701734685 ; 0.0
25 ; 16459.341300865475 ; 33848.84875722785 ; 266336.38739956915 ; 846221.2189306964 ; 0.0
26 ; 16831.021083225492 ; 33848.84875722785 ; 282795.7287004346 ; 880070.0676879243 ; 0.0
27 ; 17285.21044227989 ; 33848.84875722785 ; 299626.7497836601 ; 913918.9164451521 ; 0.0
28 ; 17548.893551419707 ; 33848.84875722785 ; 316911.96022594 ; 947767.76520238 ; 0.0
29 ; 17916.55732904766 ; 33848.84875722785 ; 334460.8537773597 ; 981616.6139596079 ; 0.0
30 ; 18393.360196646263 ; 33848.84875722785 ; 352377.41110640735 ; 1015465.4627168358 ; 0.0
31 ; 18790.3218983712 ; 33848.84875722785 ; 370770.7713030536 ; 1049314.3114740637 ; 0.0
32 ; 18927.681082945623 ; 33848.84875722785 ; 389561.0932014248 ; 1083163.1602312915 ; 0.0
33 ; 19263.348874506744 ; 33848.84875722785 ; 408488.7742843704 ; 1117012.0089885194 ; 0.0
34 ; 19681.466996130424 ; 33848.84875722785 ; 427752.12315887713 ; 1150860.8577457473 ; 0.0
35 ; 20015.782581083942 ; 33848.84875722785 ; 447433.59015500755 ; 1184709.7065029752 ; 0.0
36 ; 20436.157057220276 ; 33848.84875722785 ; 467449.3727360915 ; 1218558.555260203 ; 0.0
37 ; 20565.132669541897 ; 33848.84875722785 ; 487885.5297933118 ; 1252407.404017431 ; 0.0
38 ; 21000.017066951747 ; 33848.84875722785 ; 508450.6624628537 ; 1286256.2527746588 ; 0.0
39 ; 21221.458165630178 ; 33848.84875722785 ; 529450.6795298054 ; 1320105.1015318867 ; 0.0
40 ; 21717.60517759002 ; 33848.84875722785 ; 550672.1376954357 ; 1353953.9502891146 ; 0.0
41 ; 21986.96429239296 ; 33848.84875722785 ; 572389.7428730257 ; 1387802.7990463425 ; 0.0
42 ; 22342.14804121427 ; 33848.84875722785 ; 594376.7071654187 ; 1421651.6478035704 ; 0.0
43 ; 22403.01339285362 ; 33848.84875722785 ; 616718.855206633 ; 1455500.4965607983 ; 0.0
44 ; 22650.725470027253 ; 33848.84875722785 ; 639121.8685994867 ; 1489349.3453180261 ; 0.0
45 ; 22897.687860774502 ; 33848.84875722785 ; 661772.594069514 ; 1523198.194075254 ; 0.0
46 ; 23084.261173938186 ; 33848.84875722785 ; 684670.2819302884 ; 1557047.042832482 ; 0.0
47 ; 23486.912736814047 ; 33848.84875722785 ; 707754.5431042266 ; 1590895.8915897098 ; 0.0
48 ; 23664.50172007534 ; 33848.84875722785 ; 731241.4558410406 ; 1624744.7403469377 ; 0.0
49 ; 24000.101725431225 ; 33848.84875722785 ; 754905.957561116 ; 1658593.5891041656 ; 0.0
50 ; 24310.453701909675 ; 33848.84875722785 ; 778906.0592865472 ; 1692442.4378613934 ; 0.0
51 ; 24291.407404410875 ; 33848.84875722785 ; 803216.5129884569 ; 1726291.2866186213 ; 0.0
52 ; 24689.284121327382 ; 33848.84875722785 ; 827507.9203928678 ; 1760140.1353758492 ; 0.0
53 ; 24669.324531156228 ; 33848.84875722785 ; 852197.2045141951 ; 1793988.984133077 ; 0.0
54 ; 24830.76949753008 ; 33848.84875722785 ; 876866.5290453513 ; 1827837.832890305 ; 0.0
55 ; 25216.68802055333 ; 33848.84875722785 ; 901697.2985428814 ; 1861686.6816475329 ; 0.0
56 ; 25457.26816778565 ; 33848.84875722785 ; 926913.9865634347 ; 1895535.5304047607 ; 0.0
57 ; 25709.31834657337 ; 33848.84875722785 ; 952371.2547312203 ; 1929384.3791619886 ; 0.0
58 ; 25559.76751778762 ; 33848.84875722785 ; 978080.5730777937 ; 1963233.2279192165 ; 0.0
59 ; 25916.881891254667 ; 33848.84875722785 ; 1003640.3405955813 ; 1997082.0766764444 ; 0.0
60 ; 25844.455268248705 ; 33848.84875722785 ; 1029557.222486836 ; 2030930.9254336723 ; 0.0
61 ; 26204.675446625424 ; 33848.84875722785 ; 1055401.6777550848 ; 2064779.7741909001 ; 0.0
62 ; 26190.468246004348 ; 33848.84875722785 ; 1081606.3532017102 ; 2098628.622948128 ; 0.0
63 ; 26521.441151865747 ; 33848.84875722785 ; 1107796.8214477145 ; 2132477.4717053557 ; 0.0
64 ; 26638.80128084446 ; 33848.84875722785 ; 1134318.2625995802 ; 2166326.3204625836 ; 0.0
65 ; 26763.37149010651 ; 33848.84875722785 ; 1160957.0638804247 ; 2200175.1692198114 ; 0.0
66 ; 26703.915066104462 ; 33848.84875722785 ; 1187720.4353705312 ; 2234024.0179770393 ; 0.0
67 ; 26966.33923696854 ; 33848.84875722785 ; 1214424.3504366355 ; 2267872.866734267 ; 0.0
68 ; 27012.02005844695 ; 33848.84875722785 ; 1241390.689673604 ; 2301721.715491495 ; 0.0
69 ; 27007.45220954292 ; 33848.84875722785 ; 1268402.709732051 ; 2335570.564248723 ; 0.0
70 ; 27269.290713336286 ; 33848.84875722785 ; 1295410.161941594 ; 2369419.413005951 ; 0.0
71 ; 27327.841622132633 ; 33848.84875722785 ; 1322679.4526549303 ; 2403268.2617631787 ; 0.0
72 ; 27307.84055356501 ; 33848.84875722785 ; 1350007.2942770629 ; 2437117.1105204066 ; 0.0
73 ; 27492.915386886427 ; 33848.84875722785 ; 1377315.1348306278 ; 2470965.9592776345 ; 0.0
74 ; 27479.46507911271 ; 33848.84875722785 ; 1404808.0502175142 ; 2504814.8080348624 ; 0.0
75 ; 27466.05149558963 ; 33848.84875722785 ; 1432287.5152966268 ; 2538663.6567920903 ; 0.0
76 ; 27585.59338169358 ; 33848.84875722785 ; 1459753.5667922164 ; 2572512.505549318 ; 0.0
77 ; 27584.357589403546 ; 33848.84875722785 ; 1487339.16017391 ; 2606361.354306546 ; 0.0
78 ; 27661.153558302136 ; 33848.84875722785 ; 1514923.5177633136 ; 2640210.203063774 ; 0.0
79 ; 27702.78978978153 ; 33848.84875722785 ; 1542584.6713216158 ; 2674059.051821002 ; 0.0
80 ; 27744.553402479145 ; 33848.84875722785 ; 1570287.4611113972 ; 2707907.9005782297 ; 0.0
81 ; 27728.361815181972 ; 33848.84875722785 ; 1598032.0145138763 ; 2741756.7493354576 ; 0.0
82 ; 27806.244841495034 ; 33848.84875722785 ; 1625760.3763290583 ; 2775605.5980926855 ; 0.0
83 ; 27854.890713476383 ; 33848.84875722785 ; 1653566.6211705534 ; 2809454.4468499133 ; 0.0
84 ; 27678.658943551967 ; 33848.84875722785 ; 1681421.5118840297 ; 2843303.295607141 ; 0.0
85 ; 27688.763689017265 ; 33848.84875722785 ; 1709100.1708275818 ; 2877152.144364369 ; 0.0
86 ; 27603.615862634255 ; 33848.84875722785 ; 1736788.934516599 ; 2911000.993121597 ; 0.0
87 ; 27667.067071188514 ; 33848.84875722785 ; 1764392.5503792332 ; 2944849.841878825 ; 0.0
88 ; 27567.73018349543 ; 33848.84875722785 ; 1792059.6174504217 ; 2978698.6906360528 ; 0.0
89 ; 27664.514281846954 ; 33848.84875722785 ; 1819627.3476339171 ; 3012547.5393932806 ; 0.0
90 ; 27514.006739092638 ; 33848.84875722785 ; 1847291.8619157642 ; 3046396.3881505085 ; 0.0
91 ; 27508.675822920337 ; 33848.84875722785 ; 1874805.8686548567 ; 3080245.2369077364 ; 0.0
92 ; 27101.0238469504 ; 33848.84875722785 ; 1902314.544477777 ; 3114094.0856649643 ; 0.0
93 ; 27288.174086896524 ; 33848.84875722785 ; 1929415.5683247275 ; 3147942.934422192 ; 0.0
94 ; 27173.697135779286 ; 33848.84875722785 ; 1956703.742411624 ; 3181791.78317942 ; 0.0
95 ; 27175.08525763236 ; 33848.84875722785 ; 1983877.4395474032 ; 3215640.631936648 ; 0.0
96 ; 26987.64564979146 ; 33848.84875722785 ; 2011052.5248050357 ; 3249489.480693876 ; 0.0
97 ; 27004.02266953427 ; 33848.84875722785 ; 2038040.1704548271 ; 3283338.3294511037 ; 0.0
98 ; 26851.864293628405 ; 33848.84875722785 ; 2065044.1931243613 ; 3317187.1782083316 ; 0.0
99 ; 26771.55669071225 ; 33848.84875722785 ; 2091896.0574179897 ; 3351036.0269655595 ; 0.0
100 ; 26494.1962686522 ; 33848.84875722785 ; 2118667.614108702 ; 3384884.8757227873 ; 0.0
101 ; 26331.920784022353 ; 33848.84875722785 ; 2145161.8103773543 ; 3418733.724480015 ; 0.0
102 ; 26409.05446456386 ; 33848.84875722785 ; 2171493.7311613765 ; 3452582.573237243 ; 0.0
103 ; 26331.76248246429 ; 33848.84875722785 ; 2197902.78562594 ; 3486431.421994471 ; 0.0
104 ; 26036.453342154266 ; 33848.84875722785 ; 2224234.5481084045 ; 3520280.270751699 ; 0.0
105 ; 25875.76920599894 ; 33848.84875722785 ; 2250271.0014505587 ; 3554129.1195089268 ; 0.0
106 ; 25738.455199705524 ; 33848.84875722785 ; 2276146.7706565578 ; 3587977.9682661546 ; 0.0
107 ; 25460.714967077365 ; 33848.84875722785 ; 2301885.225856263 ; 3621826.8170233825 ; 0.0
108 ; 25413.094427054446 ; 33848.84875722785 ; 2327345.940823341 ; 3655675.6657806104 ; 0.0
109 ; 25239.547111139593 ; 33848.84875722785 ; 2352759.035250395 ; 3689524.5145378383 ; 0.0
110 ; 24973.122038198653 ; 33848.84875722785 ; 2377998.5823615347 ; 3723373.363295066 ; 0.0
111 ; 25021.9090184546 ; 33848.84875722785 ; 2402971.7043997333 ; 3757222.212052294 ; 0.0
112 ; 24578.451432244754 ; 33848.84875722785 ; 2427993.613418188 ; 3791071.060809522 ; 0.0
113 ; 24443.283781554004 ; 33848.84875722785 ; 2452572.064850433 ; 3824919.90956675 ; 0.0
114 ; 24254.854093836155 ; 33848.84875722785 ; 2477015.348631987 ; 3858768.7583239777 ; 0.0
115 ; 24016.17414501342 ; 33848.84875722785 ; 2501270.202725823 ; 3892617.6070812056 ; 0.0
116 ; 23817.21028881499 ; 33848.84875722785 ; 2525286.3768708366 ; 3926466.4558384335 ; 0.0
117 ; 23594.69075634496 ; 33848.84875722785 ; 2549103.587159652 ; 3960315.3045956613 ; 0.0
118 ; 23497.126007599778 ; 33848.84875722785 ; 2572698.277915997 ; 3994164.153352889 ; 0.0
119 ; 23026.79681023481 ; 33848.84875722785 ; 2596195.4039235967 ; 4028013.002110117 ; 0.0
120 ; 22784.41969239763 ; 33848.84875722785 ; 2619222.2007338316 ; 4061861.850867345 ; 0.0
121 ; 22583.0395801486 ; 33848.84875722785 ; 2642006.620426229 ; 4095710.699624573 ; 0.0
122 ; 22347.12778034087 ; 33848.84875722785 ; 2664589.660006378 ; 4129559.5483818008 ; 0.0
123 ; 21934.235748684187 ; 33848.84875722785 ; 2686936.787786719 ; 4163408.3971390286 ; 0.0
124 ; 21792.174757967096 ; 33848.84875722785 ; 2708871.023535403 ; 4197257.2458962565 ; 0.0
125 ; 21455.350256270583 ; 33848.84875722785 ; 2730663.19829337 ; 4231106.094653484 ; 0.0
126 ; 21303.319845522517 ; 33848.84875722785 ; 2752118.548549641 ; 4264954.943410712 ; 0.0
127 ; 20809.836357345965 ; 33848.84875722785 ; 2773421.868395163 ; 4298803.79216794 ; 0.0
128 ; 20632.471680930037 ; 33848.84875722785 ; 2794231.704752509 ; 4332652.640925168 ; 0.0
129 ; 20129.899278374538 ; 33848.84875722785 ; 2814864.176433439 ; 4366501.489682396 ; 0.0
130 ; 19848.20633283242 ; 33848.84875722785 ; 2834994.0757118133 ; 4400350.338439624 ; 0.0
131 ; 19686.962145197205 ; 33848.84875722785 ; 2854842.282044646 ; 4434199.187196852 ; 0.0
132 ; 19134.788219020178 ; 33848.84875722785 ; 2874529.244189843 ; 4468048.03595408 ; 0.0
133 ; 19023.4400796857 ; 33848.84875722785 ; 2893664.0324088633 ; 4501896.8847113075 ; 0.0
134 ; 18623.68159666133 ; 33848.84875722785 ; 2912687.472488549 ; 4535745.733468535 ; 0.0
135 ; 18256.77367194956 ; 33848.84875722785 ; 2931311.1540852105 ; 4569594.582225763 ; 0.0
136 ; 17724.603061737293 ; 33848.84875722785 ; 2949567.9277571603 ; 4603443.430982991 ; 0.0
137 ; 17380.93832266271 ; 33848.84875722785 ; 2967292.5308188978 ; 4637292.279740219 ; 0.0
138 ; 17107.219940134684 ; 33848.84875722785 ; 2984673.4691415606 ; 4671141.128497447 ; 0.0
139 ; 16758.597934842724 ; 33848.84875722785 ; 3001780.6890816954 ; 4704989.977254675 ; 0.0
140 ; 16256.169575529277 ; 33848.84875722785 ; 3018539.287016538 ; 4738838.826011903 ; 0.0
141 ; 15957.516559039419 ; 33848.84875722785 ; 3034795.456592067 ; 4772687.674769131 ; 0.0
142 ; 15433.691967858147 ; 33848.84875722785 ; 3050752.9731511064 ; 4806536.523526358 ; 0.0
143 ; 15351.060612382551 ; 33848.84875722785 ; 3066186.6651189644 ; 4840385.372283586 ; 0.0
144 ; 14730.163242607574 ; 33848.84875722785 ; 3081537.7257313468 ; 4874234.221040814 ; 0.0
145 ; 14711.107021364745 ; 33848.84875722785 ; 3096267.888973954 ; 4908083.069798042 ; 0.0
146 ; 14304.933761451806 ; 33848.84875722785 ; 3110978.995995319 ; 4941931.91855527 ; 0.0
147 ; 14500.803468912161 ; 33848.84875722785 ; 3125283.929756771 ; 4975780.767312498 ; 0.0
148 ; 14269.356069845953 ; 33848.84875722785 ; 3139784.733225683 ; 5009629.616069726 ; 0.0
149 ; 14310.262037716759 ; 33848.84875722785 ; 3154054.0892955293 ; 5043478.464826954 ; 0.0
150 ; 13985.75566577319 ; 33848.84875722785 ; 3168364.351333246 ; 5077327.3135841815 ; 0.0
151 ; 13785.871676065177 ; 33848.84875722785 ; 3182350.106999019 ; 5111176.162341409 ; 0.0
152 ; 13910.21386366754 ; 33848.84875722785 ; 3196135.978675084 ; 5145025.011098637 ; 0.0
153 ; 13687.092263145345 ; 33848.84875722785 ; 3210046.1925387518 ; 5178873.859855865 ; 0.0
154 ; 13515.52853602869 ; 33848.84875722785 ; 3223733.284801897 ; 5212722.708613093 ; 0.0
155 ; 13363.063604051484 ; 33848.84875722785 ; 3237248.813337926 ; 5246571.557370321 ; 0.0
156 ; 13296.574691177679 ; 33848.84875722785 ; 3250611.8769419775 ; 5280420.406127549 ; 0.0
157 ; 13105.971506736563 ; 33848.84875722785 ; 3263908.4516331553 ; 5314269.254884777 ; 0.0
158 ; 12911.573490885023 ; 33848.84875722785 ; 3277014.423139892 ; 5348118.103642005 ; 0.0
159 ; 12852.163813317818 ; 33848.84875722785 ; 3289925.996630777 ; 5381966.952399232 ; 0.0
160 ; 12727.991729273686 ; 33848.84875722785 ; 3302778.160444095 ; 5415815.80115646 ; 0.0
161 ; 12456.75281602481 ; 33848.84875722785 ; 3315506.1521733683 ; 5449664.649913688 ; 0.0
162 ; 12258.771029975904 ; 33848.84875722785 ; 3327962.904989393 ; 5483513.498670916 ; 0.0
163 ; 12179.744082400764 ; 33848.84875722785 ; 3340221.6760193687 ; 5517362.347428144 ; 0.0
164 ; 12005.524699703596 ; 33848.84875722785 ; 3352401.4201017693 ; 5551211.196185372 ; 0.0
165 ; 11890.838440079338 ; 33848.84875722785 ; 3364406.944801473 ; 5585060.0449426 ; 0.0
166 ; 11785.768876505772 ; 33848.84875722785 ; 3376297.7832415523 ; 5618908.893699828 ; 0.0
167 ; 11589.897315308768 ; 33848.84875722785 ; 3388083.552118058 ; 5652757.7424570555 ; 0.0
168 ; 11319.30024730871 ; 33848.84875722785 ; 3399673.449433367 ; 5686606.591214283 ; 0.0
169 ; 11059.401478283171 ; 33848.84875722785 ; 3410992.7496806756 ; 5720455.439971511 ; 0.0
170 ; 11145.31498016056 ; 33848.84875722785 ; 3422052.1511589587 ; 5754304.288728739 ; 0.0
171 ; 10742.311691934523 ; 33848.84875722785 ; 3433197.466139119 ; 5788153.137485967 ; 0.0
172 ; 10717.23642434816 ; 33848.84875722785 ; 3443939.777831054 ; 5822001.986243195 ; 0.0
173 ; 10439.861922897773 ; 33848.84875722785 ; 3454657.014255402 ; 5855850.835000423 ; 0.0
174 ; 10601.988133062856 ; 33848.84875722785 ; 3465096.8761783 ; 5889699.683757651 ; 0.0
175 ; 10771.952349096544 ; 33848.84875722785 ; 3475698.864311363 ; 5923548.532514879 ; 0.0
176 ; 10676.046682656623 ; 33848.84875722785 ; 3486470.8166604596 ; 5957397.381272106 ; 0.0
177 ; 10752.768609171007 ; 33848.84875722785 ; 3497146.8633431164 ; 5991246.230029334 ; 0.0
178 ; 10684.48391181514 ; 33848.84875722785 ; 3507899.631952287 ; 6025095.078786562 ; 0.0
179 ; 10793.330767283214 ; 33848.84875722785 ; 3518584.1158641023 ; 6058943.92754379 ; 0.0
180 ; 10739.776886289965 ; 33848.84875722785 ; 3529377.4466313855 ; 6092792.776301018 ; 0.0
181 ; 10796.000092725024 ; 33848.84875722785 ; 3540117.2235176754 ; 6126641.625058246 ; 0.0
182 ; 10739.696146627879 ; 33848.84875722785 ; 3550913.2236104 ; 6160490.473815474 ; 0.0
183 ; 10976.030273757175 ; 33848.84875722785 ; 3561652.919757028 ; 6194339.322572702 ; 0.0
184 ; 10828.67966069381 ; 33848.84875722785 ; 3572628.950030785 ; 6228188.1713299295 ; 0.0
185 ; 10993.304074437232 ; 33848.84875722785 ; 3583457.629691479 ; 6262037.020087157 ; 0.0
186 ; 11133.911840785757 ; 33848.84875722785 ; 3594450.933765916 ; 6295885.868844385 ; 0.0
187 ; 11072.642478364665 ; 33848.84875722785 ; 3605584.845606702 ; 6329734.717601613 ; 0.0
188 ; 11055.703413848261 ; 33848.84875722785 ; 3616657.4880850664 ; 6363583.566358841 ; 0.0
189 ; 10830.944866962906 ; 33848.84875722785 ; 3627713.1914989147 ; 6397432.415116069 ; 0.0
190 ; 11103.737022140245 ; 33848.84875722785 ; 3638544.1363658775 ; 6431281.263873297 ; 0.0
191 ; 11053.275517219092 ; 33848.84875722785 ; 3649647.8733880175 ; 6465130.112630525 ; 0.0
192 ; 11191.245465326208 ; 33848.84875722785 ; 3660701.1489052367 ; 6498978.961387753 ; 0.0
193 ; 11242.325824864116 ; 33848.84875722785 ; 3671892.394370563 ; 6532827.81014498 ; 0.0
194 ; 11351.227529284823 ; 33848.84875722785 ; 3683134.720195427 ; 6566676.658902208 ; 0.0
195 ; 11270.591616732998 ; 33848.84875722785 ; 3694485.947724712 ; 6600525.507659436 ; 0.0
196 ; 11285.058482691786 ; 33848.84875722785 ; 3705756.539341445 ; 6634374.356416664 ; 0.0
197 ; 11560.25657075971 ; 33848.84875722785 ; 3717041.5978241367 ; 6668223.205173892 ; 0.0
198 ; 11461.174126967311 ; 33848.84875722785 ; 3728601.8543948964 ; 6702072.05393112 ; 0.0
199 ; 11280.394627219806 ; 33848.84875722785 ; 3740063.0285218637 ; 6735920.902688348 ; 0.0
200 ; 11437.857920553175 ; 33848.84875722785 ; 3751343.4231490837 ; 6769769.751445576 ; 0.0
201 ; 11486.80650821294 ; 33848.84875722785 ; 3762781.281069637 ; 6803618.6002028035 ; 0.0
202 ; 11531.205452963368 ; 33848.84875722785 ; 3774268.0875778496 ; 6837467.448960031 ; 0.0
203 ; 11638.582366950473 ; 33848.84875722785 ; 3785799.293030813 ; 6871316.297717259 ; 0.0
204 ; 11601.307805883542 ; 33848.84875722785 ; 3797437.875397763 ; 6905165.146474487 ; 0.0
205 ; 11646.644525614529 ; 33848.84875722785 ; 3809039.183203647 ; 6939013.995231715 ; 0.0
206 ; 11695.37243757942 ; 33848.84875722785 ; 3820685.8277292615 ; 6972862.843988943 ; 0.0
207 ; 11895.503878357458 ; 33848.84875722785 ; 3832381.200166841 ; 7006711.692746171 ; 0.0
208 ; 11737.046068789534 ; 33848.84875722785 ; 3844276.7040451984 ; 7040560.541503399 ; 0.0
209 ; 11858.855468292762 ; 33848.84875722785 ; 3856013.750113988 ; 7074409.390260627 ; 0.0
210 ; 11874.092369363289 ; 33848.84875722785 ; 3867872.6055822806 ; 7108258.239017854 ; 0.0
211 ; 11807.238103114863 ; 33848.84875722785 ; 3879746.6979516437 ; 7142107.087775082 ; 0.0
212 ; 11827.320956949508 ; 33848.84875722785 ; 3891553.9360547587 ; 7175955.93653231 ; 0.0
213 ; 11946.442406821845 ; 33848.84875722785 ; 3903381.2570117083 ; 7209804.785289538 ; 0.0
214 ; 12036.796888530049 ; 33848.84875722785 ; 3915327.6994185303 ; 7243653.634046766 ; 0.0
215 ; 12013.10385787224 ; 33848.84875722785 ; 3927364.4963070606 ; 7277502.482803994 ; 0.0
216 ; 12060.688474671275 ; 33848.84875722785 ; 3939377.6001649327 ; 7311351.331561222 ; 0.0
