CSV File for the City 1 on Day 279
1 - Minute m 
2 - Power Consumed at minute m 
3 - Power Produced at minute m 
4 - Energy Consumed since the beginning of the day 
5 - Energy Produced since the beginning of the day 
6 - Energy Lost since the beginning of the day on lines starting from the city
 
0 ; 8605.469395214159 ; 2971.2665989887755 ; 0.0 ; 0.0 ; 0.0
1 ; 9130.93434082928 ; 2971.2665989887755 ; 8605.469395214159 ; 2971.2665989887755 ; 238.00000000000003
2 ; 9653.348331746904 ; 2971.2665989887755 ; 17736.403736043438 ; 5942.533197977551 ; 476.00000000000006
3 ; 10080.28268823571 ; 2971.2665989887755 ; 27389.75206779034 ; 8913.799796966327 ; 714.0000000000001
4 ; 10474.544533095286 ; 2971.2665989887755 ; 37470.03475602605 ; 11885.066395955102 ; 952.0000000000001
5 ; 10906.379916148064 ; 2971.2665989887755 ; 47944.579289121335 ; 14856.332994943878 ; 1190.0000000000002
6 ; 11243.19021897475 ; 2971.2665989887755 ; 58850.9592052694 ; 17827.599593932653 ; 1428.0000000000002
7 ; 11894.200279211944 ; 2971.2665989887755 ; 70094.14942424415 ; 20798.86619292143 ; 1666.0000000000002
8 ; 12236.772200359706 ; 2971.2665989887755 ; 81988.3497034561 ; 23770.132791910204 ; 1904.0000000000002
9 ; 12737.734421918398 ; 2971.2665989887755 ; 94225.1219038158 ; 26741.39939089898 ; 2142.0000000000005
10 ; 13079.503893317462 ; 2971.2665989887755 ; 106962.8563257342 ; 29712.665989887755 ; 2380.0000000000005
11 ; 13573.645476989996 ; 2971.2665989887755 ; 120042.36021905167 ; 32683.93258887653 ; 2618.0000000000005
12 ; 13861.125266607665 ; 2971.2665989887755 ; 133616.00569604166 ; 35655.199187865306 ; 2856.0000000000005
13 ; 14415.17450013977 ; 2971.2665989887755 ; 147477.13096264933 ; 38626.46578685408 ; 3094.0000000000005
14 ; 14727.011705390294 ; 2971.2665989887755 ; 161892.3054627891 ; 41597.73238584286 ; 3332.0000000000005
15 ; 15142.730702426516 ; 2971.2665989887755 ; 176619.3171681794 ; 44568.99898483163 ; 3570.0000000000005
16 ; 15508.128993248716 ; 2971.2665989887755 ; 191762.04787060592 ; 47540.26558382041 ; 3808.0000000000005
17 ; 15906.743240891328 ; 2971.2665989887755 ; 207270.17686385463 ; 50511.532182809184 ; 4046.0000000000005
18 ; 16223.992880836859 ; 2971.2665989887755 ; 223176.92010474595 ; 53482.79878179796 ; 4284.000000000001
19 ; 16544.954032679467 ; 2971.2665989887755 ; 239400.9129855828 ; 56454.065380786735 ; 4522.000000000001
20 ; 16764.469661941523 ; 2971.2665989887755 ; 255945.86701826227 ; 59425.33197977551 ; 4760.000000000001
21 ; 17362.727914595846 ; 2971.2665989887755 ; 272710.3366802038 ; 62396.598578764286 ; 4998.000000000001
22 ; 17623.033976075305 ; 2971.2665989887755 ; 290073.06459479965 ; 65367.86517775306 ; 5236.000000000001
23 ; 18090.18121706437 ; 2971.2665989887755 ; 307696.09857087495 ; 68339.13177674184 ; 5474.000000000001
24 ; 18431.33482611529 ; 2971.2665989887755 ; 325786.27978793933 ; 71310.39837573061 ; 5712.000000000001
25 ; 18832.80079472339 ; 2971.2665989887755 ; 344217.6146140546 ; 74281.66497471939 ; 5950.000000000001
26 ; 19187.59341499286 ; 2971.2665989887755 ; 363050.415408778 ; 77252.93157370816 ; 6188.000000000001
27 ; 19126.69420152896 ; 2971.2665989887755 ; 382238.00882377086 ; 80224.19817269694 ; 6426.000000000001
28 ; 19595.909691186374 ; 2971.2665989887755 ; 401364.7030252998 ; 83195.46477168571 ; 6664.000000000001
29 ; 20028.17363826243 ; 2971.2665989887755 ; 420960.6127164862 ; 86166.73137067449 ; 6902.000000000001
30 ; 20332.722313075297 ; 2971.2665989887755 ; 440988.78635474865 ; 89137.99796966327 ; 7140.000000000001
31 ; 20636.03826515229 ; 2971.2665989887755 ; 461321.508667824 ; 92109.26456865204 ; 7378.000000000001
32 ; 20876.53507681201 ; 2971.2665989887755 ; 481957.5469329763 ; 95080.53116764082 ; 7616.000000000001
33 ; 21099.968365357036 ; 2971.2665989887755 ; 502834.0820097883 ; 98051.79776662959 ; 7854.000000000001
34 ; 21370.505708802426 ; 2971.2665989887755 ; 523934.05037514534 ; 101023.06436561837 ; 8092.000000000001
35 ; 21711.52436249482 ; 2971.2665989887755 ; 545304.5560839478 ; 103994.33096460714 ; 8330.000000000002
36 ; 21927.142293402558 ; 2971.2665989887755 ; 567016.0804464426 ; 106965.59756359592 ; 8568.000000000002
37 ; 22387.5439670592 ; 2971.2665989887755 ; 588943.2227398452 ; 109936.8641625847 ; 8806.000000000002
38 ; 22533.164047823597 ; 2971.2665989887755 ; 611330.7667069044 ; 112908.13076157347 ; 9044.000000000002
39 ; 22972.73918249724 ; 2971.2665989887755 ; 633863.930754728 ; 115879.39736056225 ; 9282.000000000002
40 ; 22933.72288937682 ; 2971.2665989887755 ; 656836.6699372253 ; 118850.66395955102 ; 9520.000000000002
41 ; 23397.545840058603 ; 2971.2665989887755 ; 679770.3928266021 ; 121821.9305585398 ; 9758.000000000002
42 ; 23459.240396818408 ; 2971.2665989887755 ; 703167.9386666607 ; 124793.19715752857 ; 9996.000000000002
43 ; 23560.066870933737 ; 2971.2665989887755 ; 726627.1790634791 ; 127764.46375651735 ; 10234.000000000002
44 ; 24207.54084672999 ; 2971.2665989887755 ; 750187.2459344128 ; 130735.73035550612 ; 10472.000000000002
45 ; 24388.311308428096 ; 2971.2665989887755 ; 774394.7867811428 ; 133706.9969544949 ; 10710.000000000002
46 ; 24298.49240758002 ; 2971.2665989887755 ; 798783.0980895709 ; 136678.2635534837 ; 10948.000000000002
47 ; 24593.774719152607 ; 2971.2665989887755 ; 823081.5904971509 ; 139649.5301524725 ; 11186.000000000002
48 ; 24950.682593486385 ; 2971.2665989887755 ; 847675.3652163035 ; 142620.79675146128 ; 11424.000000000002
49 ; 24954.510312021597 ; 2971.2665989887755 ; 872626.0478097899 ; 145592.06335045007 ; 11662.000000000002
50 ; 25148.08923788619 ; 2971.2665989887755 ; 897580.5581218115 ; 148563.32994943886 ; 11900.000000000002
51 ; 25340.261861401632 ; 2971.2665989887755 ; 922728.6473596976 ; 151534.59654842765 ; 12138.000000000002
52 ; 25338.80403340706 ; 2971.2665989887755 ; 948068.9092210992 ; 154505.86314741644 ; 12376.000000000002
53 ; 25644.342983963048 ; 2971.2665989887755 ; 973407.7132545062 ; 157477.12974640523 ; 12614.000000000002
54 ; 25837.383095404453 ; 2971.2665989887755 ; 999052.0562384693 ; 160448.39634539402 ; 12852.000000000002
55 ; 25922.235173803132 ; 2971.2665989887755 ; 1024889.4393338738 ; 163419.6629443828 ; 13090.000000000002
56 ; 26149.724821346077 ; 2971.2665989887755 ; 1050811.6745076769 ; 166390.9295433716 ; 13328.000000000002
57 ; 26343.68832273337 ; 2971.2665989887755 ; 1076961.399329023 ; 169362.1961423604 ; 13566.000000000002
58 ; 26526.79711668374 ; 2971.2665989887755 ; 1103305.0876517564 ; 172333.46274134918 ; 13804.000000000002
59 ; 26467.121026108623 ; 2971.2665989887755 ; 1129831.8847684402 ; 175304.72934033797 ; 14042.000000000002
60 ; 26758.32119978308 ; 2971.2665989887755 ; 1156299.005794549 ; 178275.99593932676 ; 14280.000000000002
61 ; 26608.408637063134 ; 2971.2665989887755 ; 1183057.326994332 ; 181247.26253831555 ; 14518.000000000002
62 ; 26983.925115490565 ; 2971.2665989887755 ; 1209665.7356313951 ; 184218.52913730434 ; 14756.000000000002
63 ; 27188.65265977428 ; 2971.2665989887755 ; 1236649.6607468857 ; 187189.79573629313 ; 14994.000000000002
64 ; 27354.744812824734 ; 2971.2665989887755 ; 1263838.31340666 ; 190161.06233528192 ; 15232.000000000002
65 ; 27307.712635412543 ; 2971.2665989887755 ; 1291193.0582194848 ; 193132.3289342707 ; 15470.000000000002
66 ; 27309.52938172607 ; 2971.2665989887755 ; 1318500.7708548973 ; 196103.5955332595 ; 15708.000000000002
67 ; 27593.058479404262 ; 2971.2665989887755 ; 1345810.3002366235 ; 199074.8621322483 ; 15946.000000000002
68 ; 27672.726622589686 ; 2971.2665989887755 ; 1373403.3587160278 ; 202046.12873123708 ; 16184.000000000002
69 ; 27615.21359637758 ; 2971.2665989887755 ; 1401076.0853386174 ; 205017.39533022587 ; 16422.000000000004
70 ; 27920.3854889207 ; 2971.2665989887755 ; 1428691.298934995 ; 207988.66192921466 ; 16660.000000000004
71 ; 27854.63534941397 ; 2971.2665989887755 ; 1456611.6844239156 ; 210959.92852820345 ; 16898.000000000004
72 ; 27825.285885999856 ; 2971.2665989887755 ; 1484466.3197733297 ; 213931.19512719224 ; 17136.000000000004
73 ; 27818.685735182757 ; 2971.2665989887755 ; 1512291.6056593296 ; 216902.46172618103 ; 17374.000000000004
74 ; 27887.351534524652 ; 2971.2665989887755 ; 1540110.2913945124 ; 219873.72832516982 ; 17612.000000000004
75 ; 27998.660433968038 ; 2971.2665989887755 ; 1567997.642929037 ; 222844.99492415861 ; 17850.000000000004
76 ; 28034.73834884093 ; 2971.2665989887755 ; 1595996.3033630052 ; 225816.2615231474 ; 18088.000000000004
77 ; 27905.577968679077 ; 2971.2665989887755 ; 1624031.0417118461 ; 228787.5281221362 ; 18326.000000000004
78 ; 27996.78483733222 ; 2971.2665989887755 ; 1651936.6196805253 ; 231758.79472112498 ; 18564.000000000004
79 ; 27800.71490777479 ; 2971.2665989887755 ; 1679933.4045178576 ; 234730.06132011377 ; 18802.000000000004
80 ; 28006.722579335965 ; 2971.2665989887755 ; 1707734.1194256323 ; 237701.32791910256 ; 19040.000000000004
81 ; 28069.525582504517 ; 2971.2665989887755 ; 1735740.8420049683 ; 240672.59451809135 ; 19278.000000000004
82 ; 28003.142924104115 ; 2971.2665989887755 ; 1763810.3675874728 ; 243643.86111708015 ; 19516.000000000004
83 ; 28036.39778954301 ; 2971.2665989887755 ; 1791813.510511577 ; 246615.12771606894 ; 19754.000000000004
84 ; 27990.049213512943 ; 2971.2665989887755 ; 1819849.90830112 ; 249586.39431505773 ; 19992.000000000004
85 ; 28070.37797400014 ; 2971.2665989887755 ; 1847839.957514633 ; 252557.66091404652 ; 20230.000000000004
86 ; 28134.549255473183 ; 2971.2665989887755 ; 1875910.335488633 ; 255528.9275130353 ; 20468.000000000004
87 ; 27972.42566511452 ; 2971.2665989887755 ; 1904044.884744106 ; 258500.1941120241 ; 20706.000000000004
88 ; 27928.46251533967 ; 2971.2665989887755 ; 1932017.3104092206 ; 261471.46071101289 ; 20944.000000000004
89 ; 27845.814110623447 ; 2971.2665989887755 ; 1959945.7729245604 ; 264442.7273100017 ; 21182.000000000004
90 ; 27960.526592315604 ; 2971.2665989887755 ; 1987791.5870351838 ; 267413.99390899047 ; 21420.000000000004
91 ; 27665.135247762217 ; 2971.2665989887755 ; 2015752.1136274994 ; 270385.26050797926 ; 21658.000000000004
92 ; 27621.366824770583 ; 2971.2665989887755 ; 2043417.2488752618 ; 273356.52710696805 ; 21896.000000000004
93 ; 27703.17489264302 ; 2971.2665989887755 ; 2071038.6157000323 ; 276327.79370595684 ; 22134.000000000004
94 ; 27488.37392831493 ; 2971.2665989887755 ; 2098741.7905926756 ; 279299.0603049456 ; 22372.000000000004
95 ; 27517.123681863246 ; 2971.2665989887755 ; 2126230.1645209906 ; 282270.3269039344 ; 22610.000000000004
96 ; 27441.721526746052 ; 2971.2665989887755 ; 2153747.288202854 ; 285241.5935029232 ; 22848.000000000004
97 ; 27333.65253104211 ; 2971.2665989887755 ; 2181189.0097296 ; 288212.860101912 ; 23086.000000000004
98 ; 27294.47503520854 ; 2971.2665989887755 ; 2208522.6622606423 ; 291184.1267009008 ; 23324.000000000004
99 ; 27216.0763418553 ; 2971.2665989887755 ; 2235817.137295851 ; 294155.3932998896 ; 23562.000000000004
100 ; 27085.293830569866 ; 2971.2665989887755 ; 2263033.2136377064 ; 297126.65989887837 ; 23800.000000000004
101 ; 26971.472481059387 ; 2971.2665989887755 ; 2290118.507468276 ; 300097.92649786716 ; 24038.000000000004
102 ; 26822.729604644966 ; 2971.2665989887755 ; 2317089.9799493356 ; 303069.19309685595 ; 24276.000000000004
103 ; 26472.822656154192 ; 2971.2665989887755 ; 2343912.7095539807 ; 306040.45969584474 ; 24514.000000000004
104 ; 26574.86804714524 ; 2971.2665989887755 ; 2370385.532210135 ; 309011.7262948335 ; 24752.000000000004
105 ; 26424.168388565413 ; 2971.2665989887755 ; 2396960.40025728 ; 311982.9928938223 ; 24990.000000000004
106 ; 26266.761839586412 ; 2971.2665989887755 ; 2423384.5686458456 ; 314954.2594928111 ; 25228.000000000004
107 ; 26114.866218413907 ; 2971.2665989887755 ; 2449651.330485432 ; 317925.5260917999 ; 25466.000000000004
108 ; 25911.145826172804 ; 2971.2665989887755 ; 2475766.1967038456 ; 320896.7926907887 ; 25704.000000000004
109 ; 25670.80329374354 ; 2971.2665989887755 ; 2501677.3425300186 ; 323868.0592897775 ; 25942.000000000004
110 ; 25665.619113731285 ; 2971.2665989887755 ; 2527348.1458237623 ; 326839.32588876627 ; 26180.000000000004
111 ; 25457.685544856406 ; 2971.2665989887755 ; 2553013.7649374935 ; 329810.59248775506 ; 26418.000000000004
112 ; 25357.801329276102 ; 2971.2665989887755 ; 2578471.45048235 ; 332781.85908674385 ; 26656.000000000004
113 ; 25124.087309316117 ; 2971.2665989887755 ; 2603829.251811626 ; 335753.12568573264 ; 26894.000000000004
114 ; 24752.324315062593 ; 2971.2665989887755 ; 2628953.339120942 ; 338724.3922847214 ; 27132.000000000004
115 ; 24537.995221368645 ; 2971.2665989887755 ; 2653705.663436005 ; 341695.6588837102 ; 27370.000000000004
116 ; 24649.478569772866 ; 2971.2665989887755 ; 2678243.6586573734 ; 344666.925482699 ; 27608.000000000004
117 ; 24352.78207563996 ; 2971.2665989887755 ; 2702893.1372271464 ; 347638.1920816878 ; 27846.000000000004
118 ; 24108.39110991937 ; 2971.2665989887755 ; 2727245.9193027862 ; 350609.4586806766 ; 28084.000000000004
119 ; 23896.894516107383 ; 2971.2665989887755 ; 2751354.3104127054 ; 353580.7252796654 ; 28322.000000000004
120 ; 23720.43502011265 ; 2971.2665989887755 ; 2775251.2049288126 ; 356551.99187865417 ; 28560.000000000004
121 ; 23529.066768584977 ; 2971.2665989887755 ; 2798971.639948925 ; 359523.25847764296 ; 28798.000000000004
122 ; 23287.24982523002 ; 2971.2665989887755 ; 2822500.70671751 ; 362494.52507663175 ; 29036.000000000004
123 ; 22787.411649795817 ; 2971.2665989887755 ; 2845787.9565427396 ; 365465.79167562054 ; 29274.000000000004
124 ; 22697.04655192843 ; 2971.2665989887755 ; 2868575.3681925354 ; 368437.0582746093 ; 29512.000000000004
125 ; 22366.66816701557 ; 2971.2665989887755 ; 2891272.4147444637 ; 371408.3248735981 ; 29750.000000000004
126 ; 22329.46446274104 ; 2971.2665989887755 ; 2913639.0829114793 ; 374379.5914725869 ; 29988.000000000004
127 ; 22025.376611854095 ; 2971.2665989887755 ; 2935968.54737422 ; 377350.8580715757 ; 30226.000000000004
128 ; 21872.492989784303 ; 2971.2665989887755 ; 2957993.923986074 ; 380322.1246705645 ; 30464.000000000004
129 ; 21600.529063543152 ; 2971.2665989887755 ; 2979866.416975858 ; 383293.3912695533 ; 30702.000000000004
130 ; 20967.64761173016 ; 2971.2665989887755 ; 3001466.9460394015 ; 386264.65786854207 ; 30940.000000000004
131 ; 20889.32411634007 ; 2971.2665989887755 ; 3022434.5936511317 ; 389235.92446753086 ; 31178.000000000004
132 ; 20459.642103899518 ; 2971.2665989887755 ; 3043323.9177674716 ; 392207.19106651965 ; 31416.000000000004
133 ; 20281.604766236484 ; 2971.2665989887755 ; 3063783.5598713714 ; 395178.45766550844 ; 31654.000000000004
134 ; 20056.600325795134 ; 2971.2665989887755 ; 3084065.164637608 ; 398149.7242644972 ; 31892.000000000004
135 ; 19535.24043802758 ; 2971.2665989887755 ; 3104121.7649634033 ; 401120.990863486 ; 32130.000000000004
136 ; 19313.44154881867 ; 2971.2665989887755 ; 3123657.005401431 ; 404092.2574624748 ; 32368.000000000004
137 ; 18816.915420654754 ; 2971.2665989887755 ; 3142970.44695025 ; 407063.5240614636 ; 32606.000000000004
138 ; 18647.209933261565 ; 2971.2665989887755 ; 3161787.3623709045 ; 410034.7906604524 ; 32844.00000000001
139 ; 18359.110990447985 ; 2971.2665989887755 ; 3180434.572304166 ; 413006.0572594412 ; 33082.00000000001
140 ; 18146.514291968353 ; 2971.2665989887755 ; 3198793.683294614 ; 415977.32385842997 ; 33320.00000000001
141 ; 17528.531172059666 ; 2971.2665989887755 ; 3216940.197586582 ; 418948.59045741876 ; 33558.00000000001
142 ; 17327.608404564628 ; 2971.2665989887755 ; 3234468.7287586415 ; 421919.85705640755 ; 33796.00000000001
143 ; 16993.515137361162 ; 2971.2665989887755 ; 3251796.337163206 ; 424891.12365539634 ; 34034.00000000001
144 ; 16584.788032132074 ; 2971.2665989887755 ; 3268789.8523005676 ; 427862.3902543851 ; 34272.00000000001
145 ; 16616.3379805377 ; 2971.2665989887755 ; 3285374.6403326998 ; 430833.6568533739 ; 34510.00000000001
146 ; 16351.194204579187 ; 2971.2665989887755 ; 3301990.9783132374 ; 433804.9234523627 ; 34748.00000000001
147 ; 16214.187701163135 ; 2971.2665989887755 ; 3318342.1725178165 ; 436776.1900513515 ; 34986.00000000001
148 ; 16123.654885871694 ; 2971.2665989887755 ; 3334556.36021898 ; 439747.4566503403 ; 35224.00000000001
149 ; 16083.26109820198 ; 2971.2665989887755 ; 3350680.0151048517 ; 442718.7232493291 ; 35462.00000000001
150 ; 15933.360068191945 ; 2971.2665989887755 ; 3366763.2762030535 ; 445689.98984831787 ; 35700.00000000001
151 ; 15878.11496277309 ; 2971.2665989887755 ; 3382696.6362712453 ; 448661.25644730666 ; 35938.00000000001
152 ; 15837.20273153645 ; 2971.2665989887755 ; 3398574.7512340182 ; 451632.52304629545 ; 36176.00000000001
153 ; 15606.332657586981 ; 2971.2665989887755 ; 3414411.9539655545 ; 454603.78964528424 ; 36414.00000000001
154 ; 15587.79735957865 ; 2971.2665989887755 ; 3430018.2866231413 ; 457575.05624427303 ; 36652.00000000001
155 ; 15233.93620523866 ; 2971.2665989887755 ; 3445606.08398272 ; 460546.3228432618 ; 36890.00000000001
156 ; 15194.447300641226 ; 2971.2665989887755 ; 3460840.0201879586 ; 463517.5894422506 ; 37128.00000000001
157 ; 15002.027244942292 ; 2971.2665989887755 ; 3476034.4674886 ; 466488.8560412394 ; 37366.00000000001
158 ; 14908.234124328803 ; 2971.2665989887755 ; 3491036.494733542 ; 469460.1226402282 ; 37604.00000000001
159 ; 14939.947349667113 ; 2971.2665989887755 ; 3505944.728857871 ; 472431.389239217 ; 37842.00000000001
160 ; 14586.609579487762 ; 2971.2665989887755 ; 3520884.676207538 ; 475402.65583820577 ; 38080.00000000001
161 ; 14571.07353822501 ; 2971.2665989887755 ; 3535471.285787026 ; 478373.92243719456 ; 38318.00000000001
162 ; 14421.930771935264 ; 2971.2665989887755 ; 3550042.359325251 ; 481345.18903618335 ; 38556.00000000001
163 ; 14346.154443462872 ; 2971.2665989887755 ; 3564464.2900971863 ; 484316.45563517214 ; 38794.00000000001
164 ; 14236.421189541104 ; 2971.2665989887755 ; 3578810.444540649 ; 487287.72223416093 ; 39032.00000000001
165 ; 13607.54833795275 ; 2971.2665989887755 ; 3593046.86573019 ; 490258.9888331497 ; 39270.00000000001
166 ; 13939.253335705265 ; 2971.2665989887755 ; 3606654.414068143 ; 493230.2554321385 ; 39508.00000000001
167 ; 13676.943941862148 ; 2971.2665989887755 ; 3620593.6674038484 ; 496201.5220311273 ; 39746.00000000001
168 ; 13577.61978622233 ; 2971.2665989887755 ; 3634270.6113457107 ; 499172.7886301161 ; 39984.00000000001
169 ; 13468.955615424324 ; 2971.2665989887755 ; 3647848.231131933 ; 502144.0552291049 ; 40222.00000000001
170 ; 13458.190501636056 ; 2971.2665989887755 ; 3661317.1867473577 ; 505115.32182809367 ; 40460.00000000001
171 ; 13062.933040596788 ; 2971.2665989887755 ; 3674775.3772489936 ; 508086.58842708246 ; 40698.00000000001
172 ; 12891.566923774943 ; 2971.2665989887755 ; 3687838.3102895906 ; 511057.85502607125 ; 40936.00000000001
173 ; 12757.866663607556 ; 2971.2665989887755 ; 3700729.8772133654 ; 514029.12162506004 ; 41174.00000000001
174 ; 12698.240949193918 ; 2971.2665989887755 ; 3713487.743876973 ; 517000.38822404883 ; 41412.00000000001
175 ; 12884.339510528009 ; 2971.2665989887755 ; 3726185.984826167 ; 519971.6548230376 ; 41650.00000000001
176 ; 12905.630725954801 ; 2971.2665989887755 ; 3739070.324336695 ; 522942.9214220264 ; 41888.00000000001
177 ; 12758.490215407799 ; 2971.2665989887755 ; 3751975.9550626497 ; 525914.1880210151 ; 42126.00000000001
178 ; 12903.247266931769 ; 2971.2665989887755 ; 3764734.4452780574 ; 528885.4546200039 ; 42364.00000000001
179 ; 12898.799964042155 ; 2971.2665989887755 ; 3777637.6925449893 ; 531856.7212189927 ; 42602.00000000001
180 ; 12930.152774967088 ; 2971.2665989887755 ; 3790536.4925090317 ; 534827.9878179815 ; 42840.00000000001
181 ; 12915.347585457175 ; 2971.2665989887755 ; 3803466.645283999 ; 537799.2544169703 ; 43078.00000000001
182 ; 13008.660688538843 ; 2971.2665989887755 ; 3816381.9928694563 ; 540770.5210159591 ; 43316.00000000001
183 ; 13153.25305538674 ; 2971.2665989887755 ; 3829390.6535579953 ; 543741.7876149479 ; 43554.00000000001
184 ; 13189.852082897632 ; 2971.2665989887755 ; 3842543.906613382 ; 546713.0542139367 ; 43792.00000000001
