CSV File for the City 2 on Day 248
1 - Minute m 
2 - Power Consumed at minute m 
3 - Power Produced at minute m 
4 - Energy Consumed since the beginning of the day 
5 - Energy Produced since the beginning of the day 
6 - Energy Lost since the beginning of the day on lines starting from the city
 
0 ; 5382.110455122334 ; 32773.794671876625 ; 0.0 ; 0.0 ; 0.0
1 ; 5749.040750852894 ; 32773.794671876625 ; 5382.110455122334 ; 32773.794671876625 ; 0.0
2 ; 6287.4643593488845 ; 32773.794671876625 ; 11131.151205975228 ; 65547.58934375325 ; 0.0
3 ; 6926.615670788315 ; 32773.794671876625 ; 17418.61556532411 ; 98321.38401562988 ; 0.0
4 ; 7490.348592545464 ; 32773.794671876625 ; 24345.231236112428 ; 131095.1786875065 ; 0.0
5 ; 7679.235674253542 ; 32773.794671876625 ; 31835.579828657894 ; 163868.97335938312 ; 0.0
6 ; 8322.556275753053 ; 32773.794671876625 ; 39514.815502911435 ; 196642.76803125974 ; 0.0
7 ; 8658.612705875297 ; 32773.794671876625 ; 47837.371778664485 ; 229416.56270313635 ; 0.0
8 ; 9085.381447264346 ; 32773.794671876625 ; 56495.98448453978 ; 262190.357375013 ; 0.0
9 ; 9556.769037701368 ; 32773.794671876625 ; 65581.36593180413 ; 294964.15204688965 ; 0.0
10 ; 10065.365250591289 ; 32773.794671876625 ; 75138.1349695055 ; 327737.9467187663 ; 0.0
11 ; 10501.40966956905 ; 32773.794671876625 ; 85203.50022009679 ; 360511.74139064294 ; 0.0
12 ; 11072.778627645761 ; 32773.794671876625 ; 95704.90988966584 ; 393285.5360625196 ; 0.0
13 ; 11478.980093803972 ; 32773.794671876625 ; 106777.6885173116 ; 426059.33073439624 ; 0.0
14 ; 11761.171253533 ; 32773.794671876625 ; 118256.66861111557 ; 458833.1254062729 ; 0.0
15 ; 11974.841531710415 ; 32773.794671876625 ; 130017.83986464857 ; 491606.92007814953 ; 0.0
16 ; 12717.25102495688 ; 32773.794671876625 ; 141992.681396359 ; 524380.7147500261 ; 0.0
17 ; 12957.977790407924 ; 32773.794671876625 ; 154709.93242131587 ; 557154.5094219027 ; 0.0
18 ; 13439.068155692132 ; 32773.794671876625 ; 167667.9102117238 ; 589928.3040937793 ; 0.0
19 ; 13861.259318708755 ; 32773.794671876625 ; 181106.97836741593 ; 622702.0987656559 ; 0.0
20 ; 14331.105361966427 ; 32773.794671876625 ; 194968.2376861247 ; 655475.8934375325 ; 0.0
21 ; 14642.512697758031 ; 32773.794671876625 ; 209299.3430480911 ; 688249.6881094091 ; 0.0
22 ; 15059.607134684864 ; 32773.794671876625 ; 223941.85574584914 ; 721023.4827812857 ; 0.0
23 ; 15354.303256308047 ; 32773.794671876625 ; 239001.462880534 ; 753797.2774531622 ; 0.0
24 ; 15750.181512127792 ; 32773.794671876625 ; 254355.76613684205 ; 786571.0721250388 ; 0.0
25 ; 16173.003630843728 ; 32773.794671876625 ; 270105.9476489698 ; 819344.8667969154 ; 0.0
26 ; 16423.009188863725 ; 32773.794671876625 ; 286278.95127981354 ; 852118.661468792 ; 0.0
27 ; 16655.293798681127 ; 32773.794671876625 ; 302701.9604686773 ; 884892.4561406686 ; 0.0
28 ; 17222.863275443568 ; 32773.794671876625 ; 319357.2542673584 ; 917666.2508125452 ; 0.0
29 ; 17685.357456149784 ; 32773.794671876625 ; 336580.11754280195 ; 950440.0454844218 ; 0.0
30 ; 17757.70129569646 ; 32773.794671876625 ; 354265.4749989517 ; 983213.8401562984 ; 0.0
31 ; 18317.74344526142 ; 32773.794671876625 ; 372023.1762946482 ; 1015987.634828175 ; 0.0
32 ; 18294.45083540117 ; 32773.794671876625 ; 390340.91973990964 ; 1048761.4295000515 ; 0.0
33 ; 18680.816670122673 ; 32773.794671876625 ; 408635.37057531084 ; 1081535.2241719281 ; 0.0
34 ; 19064.29324306477 ; 32773.794671876625 ; 427316.1872454335 ; 1114309.0188438047 ; 0.0
35 ; 19196.24184845711 ; 32773.794671876625 ; 446380.4804884983 ; 1147082.8135156813 ; 0.0
36 ; 19613.556592018314 ; 32773.794671876625 ; 465576.72233695537 ; 1179856.608187558 ; 0.0
37 ; 19860.86353692449 ; 32773.794671876625 ; 485190.2789289737 ; 1212630.4028594345 ; 0.0
38 ; 20251.721319643428 ; 32773.794671876625 ; 505051.1424658982 ; 1245404.197531311 ; 0.0
39 ; 20511.44977254786 ; 32773.794671876625 ; 525302.8637855416 ; 1278177.9922031877 ; 0.0
40 ; 20666.88700619284 ; 32773.794671876625 ; 545814.3135580894 ; 1310951.7868750643 ; 0.0
41 ; 21095.601774603085 ; 32773.794671876625 ; 566481.2005642822 ; 1343725.5815469408 ; 0.0
42 ; 21222.116586924378 ; 32773.794671876625 ; 587576.8023388854 ; 1376499.3762188174 ; 0.0
43 ; 21440.992663820372 ; 32773.794671876625 ; 608798.9189258098 ; 1409273.170890694 ; 0.0
44 ; 21752.073647935853 ; 32773.794671876625 ; 630239.9115896302 ; 1442046.9655625706 ; 0.0
45 ; 21953.9586824989 ; 32773.794671876625 ; 651991.985237566 ; 1474820.7602344472 ; 0.0
46 ; 22245.68838070713 ; 32773.794671876625 ; 673945.943920065 ; 1507594.5549063238 ; 0.0
47 ; 22332.497812588495 ; 32773.794671876625 ; 696191.6323007721 ; 1540368.3495782004 ; 0.0
48 ; 22673.290581235844 ; 32773.794671876625 ; 718524.1301133606 ; 1573142.144250077 ; 0.0
49 ; 22849.596577594166 ; 32773.794671876625 ; 741197.4206945965 ; 1605915.9389219536 ; 0.0
50 ; 23192.614965481356 ; 32773.794671876625 ; 764047.0172721907 ; 1638689.7335938301 ; 0.0
51 ; 23140.20851531731 ; 32773.794671876625 ; 787239.632237672 ; 1671463.5282657067 ; 0.0
52 ; 23538.842802402447 ; 32773.794671876625 ; 810379.8407529893 ; 1704237.3229375833 ; 0.0
53 ; 23721.929889815092 ; 32773.794671876625 ; 833918.6835553917 ; 1737011.11760946 ; 0.0
54 ; 23893.506898261498 ; 32773.794671876625 ; 857640.6134452068 ; 1769784.9122813365 ; 0.0
55 ; 24082.464585706693 ; 32773.794671876625 ; 881534.1203434683 ; 1802558.706953213 ; 0.0
56 ; 23936.268167680428 ; 32773.794671876625 ; 905616.584929175 ; 1835332.5016250897 ; 0.0
57 ; 24259.940695013465 ; 32773.794671876625 ; 929552.8530968555 ; 1868106.2962969663 ; 0.0
58 ; 24519.23192126859 ; 32773.794671876625 ; 953812.793791869 ; 1900880.0909688429 ; 0.0
59 ; 24487.22941398938 ; 32773.794671876625 ; 978332.0257131376 ; 1933653.8856407194 ; 0.0
60 ; 24715.41184856952 ; 32773.794671876625 ; 1002819.2551271269 ; 1966427.680312596 ; 0.0
61 ; 24873.909803849958 ; 32773.794671876625 ; 1027534.6669756965 ; 1999201.4749844726 ; 0.0
62 ; 24936.81717711013 ; 32773.794671876625 ; 1052408.5767795464 ; 2031975.2696563492 ; 0.0
63 ; 25069.85060177048 ; 32773.794671876625 ; 1077345.3939566566 ; 2064749.0643282258 ; 0.0
64 ; 25325.620021784587 ; 32773.794671876625 ; 1102415.244558427 ; 2097522.8590001026 ; 0.0
65 ; 25356.466839656197 ; 32773.794671876625 ; 1127740.8645802117 ; 2130296.6536719794 ; 0.0
66 ; 25517.104548522402 ; 32773.794671876625 ; 1153097.331419868 ; 2163070.4483438563 ; 0.0
67 ; 25618.638470360944 ; 32773.794671876625 ; 1178614.4359683904 ; 2195844.243015733 ; 0.0
68 ; 25634.056247273777 ; 32773.794671876625 ; 1204233.0744387514 ; 2228618.03768761 ; 0.0
69 ; 25728.362579186316 ; 32773.794671876625 ; 1229867.1306860251 ; 2261391.8323594867 ; 0.0
70 ; 25663.665550526406 ; 32773.794671876625 ; 1255595.4932652113 ; 2294165.6270313635 ; 0.0
71 ; 26005.587924803192 ; 32773.794671876625 ; 1281259.1588157378 ; 2326939.4217032404 ; 0.0
72 ; 26002.259232779914 ; 32773.794671876625 ; 1307264.746740541 ; 2359713.216375117 ; 0.0
73 ; 25994.318311157003 ; 32773.794671876625 ; 1333267.005973321 ; 2392487.011046994 ; 0.0
74 ; 26158.720993225146 ; 32773.794671876625 ; 1359261.3242844779 ; 2425260.805718871 ; 0.0
75 ; 26168.7626049991 ; 32773.794671876625 ; 1385420.045277703 ; 2458034.6003907477 ; 0.0
76 ; 26018.599223208606 ; 32773.794671876625 ; 1411588.8078827022 ; 2490808.3950626245 ; 0.0
77 ; 26178.57598952435 ; 32773.794671876625 ; 1437607.4071059108 ; 2523582.1897345013 ; 0.0
78 ; 26285.207526658873 ; 32773.794671876625 ; 1463785.9830954352 ; 2556355.984406378 ; 0.0
79 ; 25988.760526734648 ; 32773.794671876625 ; 1490071.190622094 ; 2589129.779078255 ; 0.0
80 ; 26303.575252882765 ; 32773.794671876625 ; 1516059.9511488287 ; 2621903.5737501318 ; 0.0
81 ; 26343.866686872025 ; 32773.794671876625 ; 1542363.5264017114 ; 2654677.3684220086 ; 0.0
82 ; 26368.95429021478 ; 32773.794671876625 ; 1568707.3930885834 ; 2687451.1630938854 ; 0.0
83 ; 26252.868727285713 ; 32773.794671876625 ; 1595076.347378798 ; 2720224.957765762 ; 0.0
84 ; 26423.071752417898 ; 32773.794671876625 ; 1621329.2161060837 ; 2752998.752437639 ; 0.0
85 ; 26231.04977096722 ; 32773.794671876625 ; 1647752.2878585015 ; 2785772.547109516 ; 0.0
86 ; 26205.198158653016 ; 32773.794671876625 ; 1673983.3376294686 ; 2818546.3417813927 ; 0.0
87 ; 26254.769469445222 ; 32773.794671876625 ; 1700188.5357881216 ; 2851320.1364532695 ; 0.0
88 ; 26203.920570683083 ; 32773.794671876625 ; 1726443.3052575667 ; 2884093.9311251463 ; 0.0
89 ; 26187.196463756733 ; 32773.794671876625 ; 1752647.22582825 ; 2916867.725797023 ; 0.0
90 ; 26063.300550684227 ; 32773.794671876625 ; 1778834.4222920067 ; 2949641.5204689 ; 0.0
91 ; 25982.32862805203 ; 32773.794671876625 ; 1804897.722842691 ; 2982415.315140777 ; 0.0
92 ; 26075.17046826581 ; 32773.794671876625 ; 1830880.051470743 ; 3015189.1098126536 ; 0.0
93 ; 26089.520182905195 ; 32773.794671876625 ; 1856955.221939009 ; 3047962.9044845304 ; 0.0
94 ; 25751.41480634435 ; 32773.794671876625 ; 1883044.7421219142 ; 3080736.6991564073 ; 0.0
95 ; 25832.87844091446 ; 32773.794671876625 ; 1908796.1569282585 ; 3113510.493828284 ; 0.0
96 ; 25590.217700052388 ; 32773.794671876625 ; 1934629.035369173 ; 3146284.288500161 ; 0.0
97 ; 25730.14015617031 ; 32773.794671876625 ; 1960219.2530692252 ; 3179058.0831720377 ; 0.0
98 ; 25420.73711885085 ; 32773.794671876625 ; 1985949.3932253956 ; 3211831.8778439146 ; 0.0
99 ; 25437.057458397667 ; 32773.794671876625 ; 2011370.1303442465 ; 3244605.6725157914 ; 0.0
100 ; 25222.47624832976 ; 32773.794671876625 ; 2036807.1878026442 ; 3277379.467187668 ; 0.0
101 ; 25225.164569255234 ; 32773.794671876625 ; 2062029.664050974 ; 3310153.261859545 ; 0.0
102 ; 24918.78915057595 ; 32773.794671876625 ; 2087254.8286202291 ; 3342927.056531422 ; 0.0
103 ; 24809.749527615953 ; 32773.794671876625 ; 2112173.617770805 ; 3375700.8512032987 ; 0.0
104 ; 24832.968695925392 ; 32773.794671876625 ; 2136983.367298421 ; 3408474.6458751755 ; 0.0
105 ; 24572.015087290274 ; 32773.794671876625 ; 2161816.3359943465 ; 3441248.4405470523 ; 0.0
106 ; 24349.651272761825 ; 32773.794671876625 ; 2186388.3510816367 ; 3474022.235218929 ; 0.0
107 ; 24323.440917858505 ; 32773.794671876625 ; 2210738.0023543984 ; 3506796.029890806 ; 0.0
108 ; 24170.66080766235 ; 32773.794671876625 ; 2235061.4432722568 ; 3539569.824562683 ; 0.0
109 ; 23845.41435408495 ; 32773.794671876625 ; 2259232.104079919 ; 3572343.6192345596 ; 0.0
110 ; 23813.75064727989 ; 32773.794671876625 ; 2283077.518434004 ; 3605117.4139064364 ; 0.0
111 ; 23439.559599728855 ; 32773.794671876625 ; 2306891.269081284 ; 3637891.2085783132 ; 0.0
112 ; 23417.314452272312 ; 32773.794671876625 ; 2330330.8286810126 ; 3670665.00325019 ; 0.0
113 ; 23291.85642221322 ; 32773.794671876625 ; 2353748.143133285 ; 3703438.797922067 ; 0.0
114 ; 23017.914202367505 ; 32773.794671876625 ; 2377039.9995554984 ; 3736212.5925939437 ; 0.0
115 ; 22972.676035969296 ; 32773.794671876625 ; 2400057.913757866 ; 3768986.3872658205 ; 0.0
116 ; 22634.77183054918 ; 32773.794671876625 ; 2423030.5897938353 ; 3801760.1819376973 ; 0.0
117 ; 22565.244158794114 ; 32773.794671876625 ; 2445665.3616243843 ; 3834533.976609574 ; 0.0
118 ; 22379.85685258751 ; 32773.794671876625 ; 2468230.6057831785 ; 3867307.771281451 ; 0.0
119 ; 22126.04548424943 ; 32773.794671876625 ; 2490610.462635766 ; 3900081.565953328 ; 0.0
120 ; 21848.37540564206 ; 32773.794671876625 ; 2512736.5081200153 ; 3932855.3606252046 ; 0.0
121 ; 21518.532777787226 ; 32773.794671876625 ; 2534584.8835256575 ; 3965629.1552970815 ; 0.0
122 ; 21376.115899828288 ; 32773.794671876625 ; 2556103.4163034447 ; 3998402.9499689583 ; 0.0
123 ; 21147.84132552368 ; 32773.794671876625 ; 2577479.532203273 ; 4031176.744640835 ; 0.0
124 ; 20991.887294999655 ; 32773.794671876625 ; 2598627.3735287967 ; 4063950.539312712 ; 0.0
125 ; 20517.949567724 ; 32773.794671876625 ; 2619619.2608237965 ; 4096724.3339845887 ; 0.0
126 ; 20238.77682950478 ; 32773.794671876625 ; 2640137.2103915205 ; 4129498.1286564656 ; 0.0
127 ; 20104.175327076755 ; 32773.794671876625 ; 2660375.9872210254 ; 4162271.9233283424 ; 0.0
128 ; 19741.249428029147 ; 32773.794671876625 ; 2680480.162548102 ; 4195045.718000219 ; 0.0
129 ; 19646.5007810208 ; 32773.794671876625 ; 2700221.411976131 ; 4227819.512672096 ; 0.0
130 ; 19264.571864482852 ; 32773.794671876625 ; 2719867.9127571518 ; 4260593.307343972 ; 0.0
131 ; 18966.314462349783 ; 32773.794671876625 ; 2739132.4846216347 ; 4293367.102015848 ; 0.0
132 ; 18742.546244619647 ; 32773.794671876625 ; 2758098.7990839845 ; 4326140.896687725 ; 0.0
133 ; 18200.223308593246 ; 32773.794671876625 ; 2776841.345328604 ; 4358914.691359601 ; 0.0
134 ; 17977.721991597937 ; 32773.794671876625 ; 2795041.568637197 ; 4391688.486031477 ; 0.0
135 ; 17666.989772671106 ; 32773.794671876625 ; 2813019.290628795 ; 4424462.280703354 ; 0.0
136 ; 17436.27956016993 ; 32773.794671876625 ; 2830686.280401466 ; 4457236.07537523 ; 0.0
137 ; 16904.39739860444 ; 32773.794671876625 ; 2848122.559961636 ; 4490009.870047106 ; 0.0
138 ; 16641.566370931294 ; 32773.794671876625 ; 2865026.9573602406 ; 4522783.664718983 ; 0.0
139 ; 16264.842198581055 ; 32773.794671876625 ; 2881668.523731172 ; 4555557.459390859 ; 0.0
140 ; 15915.253720713143 ; 32773.794671876625 ; 2897933.365929753 ; 4588331.2540627355 ; 0.0
141 ; 15652.22686882712 ; 32773.794671876625 ; 2913848.6196504664 ; 4621105.048734612 ; 0.0
142 ; 15169.476786978716 ; 32773.794671876625 ; 2929500.8465192933 ; 4653878.843406488 ; 0.0
143 ; 14802.731060519389 ; 32773.794671876625 ; 2944670.323306272 ; 4686652.638078365 ; 0.0
144 ; 14511.338978957578 ; 32773.794671876625 ; 2959473.054366791 ; 4719426.432750241 ; 0.0
145 ; 14376.686016014528 ; 32773.794671876625 ; 2973984.3933457485 ; 4752200.227422117 ; 0.0
146 ; 14409.40776811359 ; 32773.794671876625 ; 2988361.079361763 ; 4784974.022093994 ; 0.0
147 ; 14213.079746980886 ; 32773.794671876625 ; 3002770.4871298764 ; 4817747.81676587 ; 0.0
148 ; 13986.862715420968 ; 32773.794671876625 ; 3016983.566876857 ; 4850521.611437746 ; 0.0
149 ; 14001.71119304144 ; 32773.794671876625 ; 3030970.429592278 ; 4883295.406109623 ; 0.0
150 ; 13806.851984705969 ; 32773.794671876625 ; 3044972.1407853193 ; 4916069.200781499 ; 0.0
151 ; 13662.236942410691 ; 32773.794671876625 ; 3058778.992770025 ; 4948842.995453375 ; 0.0
152 ; 13638.510482804366 ; 32773.794671876625 ; 3072441.2297124355 ; 4981616.790125252 ; 0.0
153 ; 13644.223949825253 ; 32773.794671876625 ; 3086079.74019524 ; 5014390.584797128 ; 0.0
154 ; 13302.875092236502 ; 32773.794671876625 ; 3099723.9641450653 ; 5047164.379469004 ; 0.0
155 ; 13201.749802225677 ; 32773.794671876625 ; 3113026.8392373016 ; 5079938.174140881 ; 0.0
156 ; 13119.468833496774 ; 32773.794671876625 ; 3126228.5890395273 ; 5112711.968812757 ; 0.0
157 ; 13104.363976471184 ; 32773.794671876625 ; 3139348.057873024 ; 5145485.7634846335 ; 0.0
158 ; 13012.305758526185 ; 32773.794671876625 ; 3152452.4218494953 ; 5178259.55815651 ; 0.0
159 ; 12727.827014220997 ; 32773.794671876625 ; 3165464.7276080213 ; 5211033.352828386 ; 0.0
160 ; 12613.372611059292 ; 32773.794671876625 ; 3178192.554622242 ; 5243807.147500263 ; 0.0
161 ; 12588.070916322857 ; 32773.794671876625 ; 3190805.9272333016 ; 5276580.942172139 ; 0.0
162 ; 12346.503426321064 ; 32773.794671876625 ; 3203393.9981496246 ; 5309354.736844015 ; 0.0
163 ; 12274.857845175573 ; 32773.794671876625 ; 3215740.5015759454 ; 5342128.531515892 ; 0.0
164 ; 12102.604847990719 ; 32773.794671876625 ; 3228015.359421121 ; 5374902.326187768 ; 0.0
165 ; 11976.882951825988 ; 32773.794671876625 ; 3240117.964269112 ; 5407676.120859644 ; 0.0
166 ; 11839.305259266019 ; 32773.794671876625 ; 3252094.8472209377 ; 5440449.915531521 ; 0.0
167 ; 11519.188931472796 ; 32773.794671876625 ; 3263934.1524802037 ; 5473223.710203397 ; 0.0
168 ; 11442.69608855065 ; 32773.794671876625 ; 3275453.3414116763 ; 5505997.504875273 ; 0.0
169 ; 11265.493593538731 ; 32773.794671876625 ; 3286896.037500227 ; 5538771.29954715 ; 0.0
170 ; 11055.582864530674 ; 32773.794671876625 ; 3298161.5310937655 ; 5571545.094219026 ; 0.0
171 ; 11127.026659106723 ; 32773.794671876625 ; 3309217.1139582964 ; 5604318.8888909025 ; 0.0
172 ; 10742.754306561925 ; 32773.794671876625 ; 3320344.140617403 ; 5637092.683562779 ; 0.0
173 ; 10883.569633585983 ; 32773.794671876625 ; 3331086.894923965 ; 5669866.478234655 ; 0.0
174 ; 10777.82628908499 ; 32773.794671876625 ; 3341970.464557551 ; 5702640.272906532 ; 0.0
175 ; 10808.290558746008 ; 32773.794671876625 ; 3352748.290846636 ; 5735414.067578408 ; 0.0
176 ; 10815.730638651406 ; 32773.794671876625 ; 3363556.581405382 ; 5768187.862250284 ; 0.0
177 ; 10870.03173102009 ; 32773.794671876625 ; 3374372.3120440333 ; 5800961.656922161 ; 0.0
178 ; 11012.540672915222 ; 32773.794671876625 ; 3385242.3437750535 ; 5833735.451594037 ; 0.0
179 ; 10725.542249793336 ; 32773.794671876625 ; 3396254.8844479686 ; 5866509.246265913 ; 0.0
180 ; 10779.817655771927 ; 32773.794671876625 ; 3406980.4266977618 ; 5899283.04093779 ; 0.0
181 ; 11093.378590809985 ; 32773.794671876625 ; 3417760.2443535337 ; 5932056.835609666 ; 0.0
182 ; 11211.930877651594 ; 32773.794671876625 ; 3428853.622944344 ; 5964830.630281542 ; 0.0
183 ; 10956.580335345352 ; 32773.794671876625 ; 3440065.5538219954 ; 5997604.424953419 ; 0.0
184 ; 11121.984495277484 ; 32773.794671876625 ; 3451022.134157341 ; 6030378.219625295 ; 0.0
185 ; 11112.182135962008 ; 32773.794671876625 ; 3462144.1186526185 ; 6063152.0142971715 ; 0.0
186 ; 11174.878549196816 ; 32773.794671876625 ; 3473256.3007885804 ; 6095925.808969048 ; 0.0
187 ; 11142.860530480037 ; 32773.794671876625 ; 3484431.179337777 ; 6128699.603640924 ; 0.0
188 ; 11390.819366467069 ; 32773.794671876625 ; 3495574.039868257 ; 6161473.398312801 ; 0.0
189 ; 11251.287186827254 ; 32773.794671876625 ; 3506964.859234724 ; 6194247.192984677 ; 0.0
190 ; 11447.571693820712 ; 32773.794671876625 ; 3518216.1464215512 ; 6227020.987656553 ; 0.0
191 ; 11365.77367314679 ; 32773.794671876625 ; 3529663.718115372 ; 6259794.78232843 ; 0.0
192 ; 11353.807992291959 ; 32773.794671876625 ; 3541029.491788519 ; 6292568.577000306 ; 0.0
193 ; 11403.491875796537 ; 32773.794671876625 ; 3552383.299780811 ; 6325342.371672182 ; 0.0
194 ; 11483.419857237004 ; 32773.794671876625 ; 3563786.7916566078 ; 6358116.166344059 ; 0.0
195 ; 11262.7764767084 ; 32773.794671876625 ; 3575270.211513845 ; 6390889.961015935 ; 0.0
196 ; 11244.98821089029 ; 32773.794671876625 ; 3586532.987990553 ; 6423663.755687811 ; 0.0
197 ; 11671.73887694863 ; 32773.794671876625 ; 3597777.9762014435 ; 6456437.550359688 ; 0.0
198 ; 11591.90475632578 ; 32773.794671876625 ; 3609449.715078392 ; 6489211.345031564 ; 0.0
199 ; 11508.513229035027 ; 32773.794671876625 ; 3621041.619834718 ; 6521985.1397034405 ; 0.0
200 ; 11542.053961470723 ; 32773.794671876625 ; 3632550.1330637527 ; 6554758.934375317 ; 0.0
201 ; 11635.924467046885 ; 32773.794671876625 ; 3644092.1870252234 ; 6587532.729047193 ; 0.0
202 ; 11666.425732207319 ; 32773.794671876625 ; 3655728.11149227 ; 6620306.52371907 ; 0.0
203 ; 11832.114107483489 ; 32773.794671876625 ; 3667394.5372244776 ; 6653080.318390946 ; 0.0
204 ; 11769.472404911096 ; 32773.794671876625 ; 3679226.651331961 ; 6685854.113062822 ; 0.0
205 ; 11685.722420295444 ; 32773.794671876625 ; 3690996.1237368723 ; 6718627.907734699 ; 0.0
206 ; 11896.153442215098 ; 32773.794671876625 ; 3702681.8461571676 ; 6751401.702406575 ; 0.0
207 ; 11834.536260457071 ; 32773.794671876625 ; 3714577.9995993827 ; 6784175.497078451 ; 0.0
208 ; 11689.147675992888 ; 32773.794671876625 ; 3726412.53585984 ; 6816949.291750328 ; 0.0
209 ; 11771.141034788632 ; 32773.794671876625 ; 3738101.683535833 ; 6849723.086422204 ; 0.0
210 ; 11818.140696658134 ; 32773.794671876625 ; 3749872.8245706214 ; 6882496.88109408 ; 0.0
211 ; 11969.025821618212 ; 32773.794671876625 ; 3761690.9652672797 ; 6915270.675765957 ; 0.0
212 ; 11885.915683309133 ; 32773.794671876625 ; 3773659.991088898 ; 6948044.470437833 ; 0.0
213 ; 11914.384031014675 ; 32773.794671876625 ; 3785545.906772207 ; 6980818.265109709 ; 0.0
