CSV File for the City 1 on Day 281
1 - Minute m 
2 - Power Consumed at minute m 
3 - Power Produced at minute m 
4 - Energy Consumed since the beginning of the day 
5 - Energy Produced since the beginning of the day 
6 - Energy Lost since the beginning of the day on lines starting from the city
 
0 ; 8933.44164552745 ; 3333.870991165546 ; 0.0 ; 0.0 ; 0.0
1 ; 9556.693217484008 ; 3333.870991165546 ; 8933.44164552745 ; 3333.870991165546 ; 238.00000000000003
2 ; 9804.84646670387 ; 3333.870991165546 ; 18490.13486301146 ; 6667.741982331092 ; 476.00000000000006
3 ; 10278.798035347161 ; 3333.870991165546 ; 28294.98132971533 ; 10001.612973496638 ; 714.0000000000001
4 ; 10617.73054585762 ; 3333.870991165546 ; 38573.779365062495 ; 13335.483964662184 ; 952.0000000000001
5 ; 11157.390962784813 ; 3333.870991165546 ; 49191.50991092011 ; 16669.35495582773 ; 1190.0000000000002
6 ; 11573.7210644952 ; 3333.870991165546 ; 60348.90087370492 ; 20003.225946993276 ; 1428.0000000000002
7 ; 11963.157039558415 ; 3333.870991165546 ; 71922.62193820011 ; 23337.096938158822 ; 1666.0000000000002
8 ; 12397.897644587669 ; 3333.870991165546 ; 83885.77897775853 ; 26670.967929324368 ; 1904.0000000000002
9 ; 12871.216181827616 ; 3333.870991165546 ; 96283.67662234619 ; 30004.838920489914 ; 2142.0000000000005
10 ; 13463.765266462768 ; 3333.870991165546 ; 109154.89280417381 ; 33338.70991165546 ; 2380.0000000000005
11 ; 13692.999172318547 ; 3333.870991165546 ; 122618.65807063658 ; 36672.580902821006 ; 2618.0000000000005
12 ; 14191.188083653438 ; 3333.870991165546 ; 136311.65724295512 ; 40006.45189398655 ; 2856.0000000000005
13 ; 14412.941764347981 ; 3333.870991165546 ; 150502.84532660854 ; 43340.3228851521 ; 3094.0000000000005
14 ; 14917.926022946034 ; 3333.870991165546 ; 164915.78709095652 ; 46674.193876317644 ; 3332.0000000000005
15 ; 15198.936482786225 ; 3333.870991165546 ; 179833.71311390254 ; 50008.06486748319 ; 3570.0000000000005
16 ; 15656.839334997218 ; 3333.870991165546 ; 195032.64959668877 ; 53341.935858648736 ; 3808.0000000000005
17 ; 15909.429773018137 ; 3333.870991165546 ; 210689.48893168598 ; 56675.80684981428 ; 4046.0000000000005
18 ; 16369.277892054208 ; 3333.870991165546 ; 226598.91870470412 ; 60009.67784097983 ; 4284.000000000001
19 ; 16828.950437205593 ; 3333.870991165546 ; 242968.19659675832 ; 63343.548832145374 ; 4522.000000000001
20 ; 17006.767733798762 ; 3333.870991165546 ; 259797.1470339639 ; 66677.41982331092 ; 4760.000000000001
21 ; 17391.802249950822 ; 3333.870991165546 ; 276803.91476776265 ; 70011.29081447647 ; 4998.000000000001
22 ; 17818.30587324782 ; 3333.870991165546 ; 294195.71701771347 ; 73345.16180564201 ; 5236.000000000001
23 ; 18145.313840319934 ; 3333.870991165546 ; 312014.02289096126 ; 76679.03279680756 ; 5474.000000000001
24 ; 18366.560375786885 ; 3333.870991165546 ; 330159.3367312812 ; 80012.9037879731 ; 5712.000000000001
25 ; 18835.72946963229 ; 3333.870991165546 ; 348525.8971070681 ; 83346.77477913865 ; 5950.000000000001
26 ; 19129.404031226288 ; 3333.870991165546 ; 367361.62657670036 ; 86680.6457703042 ; 6188.000000000001
27 ; 19618.016686021194 ; 3333.870991165546 ; 386491.03060792666 ; 90014.51676146974 ; 6426.000000000001
28 ; 19806.813406524216 ; 3333.870991165546 ; 406109.04729394783 ; 93348.38775263529 ; 6664.000000000001
29 ; 20077.053398040447 ; 3333.870991165546 ; 425915.860700472 ; 96682.25874380083 ; 6902.000000000001
30 ; 20415.297922204318 ; 3333.870991165546 ; 445992.9140985125 ; 100016.12973496638 ; 7140.000000000001
31 ; 20770.075677944315 ; 3333.870991165546 ; 466408.2120207168 ; 103350.00072613193 ; 7378.000000000001
32 ; 20923.25767446176 ; 3333.870991165546 ; 487178.2876986611 ; 106683.87171729747 ; 7616.000000000001
33 ; 21236.87598039321 ; 3333.870991165546 ; 508101.54537312285 ; 110017.74270846302 ; 7854.000000000001
34 ; 21419.66971427632 ; 3333.870991165546 ; 529338.421353516 ; 113351.61369962856 ; 8092.000000000001
35 ; 21844.699232728366 ; 3333.870991165546 ; 550758.0910677924 ; 116685.48469079411 ; 8330.000000000002
36 ; 21962.451846883836 ; 3333.870991165546 ; 572602.7903005207 ; 120019.35568195966 ; 8568.000000000002
37 ; 22257.821666544918 ; 3333.870991165546 ; 594565.2421474046 ; 123353.2266731252 ; 8806.000000000002
38 ; 22592.403207113035 ; 3333.870991165546 ; 616823.0638139495 ; 126687.09766429075 ; 9044.000000000002
39 ; 22748.934849683385 ; 3333.870991165546 ; 639415.4670210625 ; 130020.9686554563 ; 9282.000000000002
40 ; 22969.119996335958 ; 3333.870991165546 ; 662164.4018707459 ; 133354.83964662184 ; 9520.000000000002
41 ; 23238.98254787944 ; 3333.870991165546 ; 685133.5218670819 ; 136688.7106377874 ; 9758.000000000002
42 ; 23559.131237418856 ; 3333.870991165546 ; 708372.5044149613 ; 140022.58162895293 ; 9996.000000000002
43 ; 23719.85973358114 ; 3333.870991165546 ; 731931.6356523802 ; 143356.45262011848 ; 10234.000000000002
44 ; 24130.27724946418 ; 3333.870991165546 ; 755651.4953859614 ; 146690.32361128402 ; 10472.000000000002
45 ; 24096.732727868657 ; 3333.870991165546 ; 779781.7726354256 ; 150024.19460244957 ; 10710.000000000002
46 ; 24284.096991501377 ; 3333.870991165546 ; 803878.5053632942 ; 153358.06559361512 ; 10948.000000000002
47 ; 24450.7024214161 ; 3333.870991165546 ; 828162.6023547956 ; 156691.93658478066 ; 11186.000000000002
48 ; 24748.476259061372 ; 3333.870991165546 ; 852613.3047762116 ; 160025.8075759462 ; 11424.000000000002
49 ; 24906.211405117396 ; 3333.870991165546 ; 877361.781035273 ; 163359.67856711175 ; 11662.000000000002
50 ; 25337.042156720963 ; 3333.870991165546 ; 902267.9924403904 ; 166693.5495582773 ; 11900.000000000002
51 ; 25130.45472522454 ; 3333.870991165546 ; 927605.0345971114 ; 170027.42054944285 ; 12138.000000000002
52 ; 25381.763687648865 ; 3333.870991165546 ; 952735.4893223359 ; 173361.2915406084 ; 12376.000000000002
53 ; 25625.92505246196 ; 3333.870991165546 ; 978117.2530099847 ; 176695.16253177394 ; 12614.000000000002
54 ; 25932.980197496283 ; 3333.870991165546 ; 1003743.1780624466 ; 180029.03352293948 ; 12852.000000000002
55 ; 26068.711073887425 ; 3333.870991165546 ; 1029676.1582599429 ; 183362.90451410503 ; 13090.000000000002
56 ; 26000.566301691557 ; 3333.870991165546 ; 1055744.8693338304 ; 186696.77550527058 ; 13328.000000000002
57 ; 26260.320315358327 ; 3333.870991165546 ; 1081745.435635522 ; 190030.64649643612 ; 13566.000000000002
58 ; 26523.142995230937 ; 3333.870991165546 ; 1108005.7559508802 ; 193364.51748760167 ; 13804.000000000002
59 ; 26757.194836784172 ; 3333.870991165546 ; 1134528.898946111 ; 196698.3884787672 ; 14042.000000000002
60 ; 26894.671490402925 ; 3333.870991165546 ; 1161286.0937828952 ; 200032.25946993276 ; 14280.000000000002
61 ; 26758.859285076378 ; 3333.870991165546 ; 1188180.7652732981 ; 203366.1304610983 ; 14518.000000000002
62 ; 26842.8504285856 ; 3333.870991165546 ; 1214939.6245583745 ; 206700.00145226385 ; 14756.000000000002
63 ; 26963.20946080437 ; 3333.870991165546 ; 1241782.4749869602 ; 210033.8724434294 ; 14994.000000000002
64 ; 26847.084286258974 ; 3333.870991165546 ; 1268745.6844477647 ; 213367.74343459494 ; 15232.000000000002
65 ; 27078.287983318358 ; 3333.870991165546 ; 1295592.7687340237 ; 216701.6144257605 ; 15470.000000000002
66 ; 27300.92615485382 ; 3333.870991165546 ; 1322671.056717342 ; 220035.48541692604 ; 15708.000000000002
67 ; 27447.91700966503 ; 3333.870991165546 ; 1349971.9828721958 ; 223369.35640809158 ; 15946.000000000002
68 ; 27466.053148670697 ; 3333.870991165546 ; 1377419.8998818607 ; 226703.22739925713 ; 16184.000000000002
69 ; 27474.791639665247 ; 3333.870991165546 ; 1404885.9530305313 ; 230037.09839042267 ; 16422.000000000004
70 ; 27686.803547890853 ; 3333.870991165546 ; 1432360.7446701964 ; 233370.96938158822 ; 16660.000000000004
71 ; 27754.107673718405 ; 3333.870991165546 ; 1460047.5482180873 ; 236704.84037275377 ; 16898.000000000004
72 ; 27660.284399783548 ; 3333.870991165546 ; 1487801.6558918057 ; 240038.7113639193 ; 17136.000000000004
73 ; 27692.244821569297 ; 3333.870991165546 ; 1515461.9402915891 ; 243372.58235508486 ; 17374.000000000004
74 ; 27635.929444156216 ; 3333.870991165546 ; 1543154.1851131583 ; 246706.4533462504 ; 17612.000000000004
75 ; 27689.4246448278 ; 3333.870991165546 ; 1570790.1145573144 ; 250040.32433741595 ; 17850.000000000004
76 ; 27984.286312250366 ; 3333.870991165546 ; 1598479.5392021423 ; 253374.1953285815 ; 18088.000000000004
77 ; 27947.00594720759 ; 3333.870991165546 ; 1626463.8255143927 ; 256708.06631974704 ; 18326.000000000004
78 ; 27946.13094752597 ; 3333.870991165546 ; 1654410.8314616003 ; 260041.9373109126 ; 18564.000000000004
79 ; 28081.37382324717 ; 3333.870991165546 ; 1682356.9624091263 ; 263375.80830207816 ; 18802.000000000004
80 ; 28017.651767567306 ; 3333.870991165546 ; 1710438.3362323735 ; 266709.6792932437 ; 19040.000000000004
81 ; 28104.178905557907 ; 3333.870991165546 ; 1738455.9879999408 ; 270043.5502844092 ; 19278.000000000004
82 ; 28109.261731517112 ; 3333.870991165546 ; 1766560.1669054986 ; 273377.4212755747 ; 19516.000000000004
83 ; 28017.72997718991 ; 3333.870991165546 ; 1794669.4286370156 ; 276711.29226674023 ; 19754.000000000004
84 ; 28045.532732322587 ; 3333.870991165546 ; 1822687.1586142054 ; 280045.16325790575 ; 19992.000000000004
85 ; 27957.42182239391 ; 3333.870991165546 ; 1850732.691346528 ; 283379.03424907126 ; 20230.000000000004
86 ; 27848.68924851158 ; 3333.870991165546 ; 1878690.113168922 ; 286712.9052402368 ; 20468.000000000004
87 ; 27912.7705147834 ; 3333.870991165546 ; 1906538.8024174336 ; 290046.7762314023 ; 20706.000000000004
88 ; 27995.269032314143 ; 3333.870991165546 ; 1934451.572932217 ; 293380.6472225678 ; 20944.000000000004
89 ; 27872.376373338135 ; 3333.870991165546 ; 1962446.8419645312 ; 296714.51821373333 ; 21182.000000000004
90 ; 27759.023102273466 ; 3333.870991165546 ; 1990319.2183378693 ; 300048.38920489885 ; 21420.000000000004
91 ; 27741.925076731357 ; 3333.870991165546 ; 2018078.2414401427 ; 303382.26019606437 ; 21658.000000000004
92 ; 27801.30773834068 ; 3333.870991165546 ; 2045820.166516874 ; 306716.1311872299 ; 21896.000000000004
93 ; 27720.335900224985 ; 3333.870991165546 ; 2073621.4742552147 ; 310050.0021783954 ; 22134.000000000004
94 ; 27329.417691422674 ; 3333.870991165546 ; 2101341.8101554397 ; 313383.8731695609 ; 22372.000000000004
95 ; 27486.02684448966 ; 3333.870991165546 ; 2128671.2278468623 ; 316717.74416072643 ; 22610.000000000004
96 ; 27332.316139103263 ; 3333.870991165546 ; 2156157.254691352 ; 320051.61515189195 ; 22848.000000000004
97 ; 27212.318860710846 ; 3333.870991165546 ; 2183489.5708304555 ; 323385.48614305747 ; 23086.000000000004
98 ; 27410.808148987624 ; 3333.870991165546 ; 2210701.8896911666 ; 326719.357134223 ; 23324.000000000004
99 ; 26967.76374490047 ; 3333.870991165546 ; 2238112.697840154 ; 330053.2281253885 ; 23562.000000000004
100 ; 27008.330446232874 ; 3333.870991165546 ; 2265080.4615850546 ; 333387.099116554 ; 23800.000000000004
101 ; 26939.718586953575 ; 3333.870991165546 ; 2292088.7920312877 ; 336720.97010771954 ; 24038.000000000004
102 ; 26826.059322971403 ; 3333.870991165546 ; 2319028.510618241 ; 340054.84109888505 ; 24276.000000000004
103 ; 26505.665457330677 ; 3333.870991165546 ; 2345854.5699412124 ; 343388.71209005057 ; 24514.000000000004
104 ; 26468.514412651813 ; 3333.870991165546 ; 2372360.235398543 ; 346722.5830812161 ; 24752.000000000004
105 ; 26093.498105649523 ; 3333.870991165546 ; 2398828.749811195 ; 350056.4540723816 ; 24990.000000000004
106 ; 26222.721194550544 ; 3333.870991165546 ; 2424922.247916844 ; 353390.3250635471 ; 25228.000000000004
107 ; 25998.47371323726 ; 3333.870991165546 ; 2451144.9691113946 ; 356724.19605471264 ; 25466.000000000004
108 ; 25935.42605526182 ; 3333.870991165546 ; 2477143.442824632 ; 360058.06704587815 ; 25704.000000000004
109 ; 25731.50965274051 ; 3333.870991165546 ; 2503078.868879894 ; 363391.93803704367 ; 25942.000000000004
110 ; 25626.392057201658 ; 3333.870991165546 ; 2528810.378532634 ; 366725.8090282092 ; 26180.000000000004
111 ; 25554.54355272148 ; 3333.870991165546 ; 2554436.770589836 ; 370059.6800193747 ; 26418.000000000004
112 ; 25363.67020774956 ; 3333.870991165546 ; 2579991.3141425573 ; 373393.5510105402 ; 26656.000000000004
113 ; 25011.86534017083 ; 3333.870991165546 ; 2605354.984350307 ; 376727.42200170574 ; 26894.000000000004
114 ; 24838.092142358826 ; 3333.870991165546 ; 2630366.849690478 ; 380061.29299287125 ; 27132.000000000004
115 ; 24759.06663889247 ; 3333.870991165546 ; 2655204.9418328367 ; 383395.1639840368 ; 27370.000000000004
116 ; 24654.888231486275 ; 3333.870991165546 ; 2679964.0084717292 ; 386729.0349752023 ; 27608.000000000004
117 ; 24137.976006936417 ; 3333.870991165546 ; 2704618.8967032153 ; 390062.9059663678 ; 27846.000000000004
118 ; 24185.545929051154 ; 3333.870991165546 ; 2728756.8727101516 ; 393396.7769575333 ; 28084.000000000004
119 ; 23875.39558250873 ; 3333.870991165546 ; 2752942.4186392026 ; 396730.64794869884 ; 28322.000000000004
120 ; 23715.703182723475 ; 3333.870991165546 ; 2776817.8142217114 ; 400064.51893986436 ; 28560.000000000004
121 ; 23490.90956536348 ; 3333.870991165546 ; 2800533.5174044347 ; 403398.3899310299 ; 28798.000000000004
122 ; 23149.860134291197 ; 3333.870991165546 ; 2824024.4269697983 ; 406732.2609221954 ; 29036.000000000004
123 ; 22922.24581581551 ; 3333.870991165546 ; 2847174.2871040893 ; 410066.1319133609 ; 29274.000000000004
124 ; 22533.633849082365 ; 3333.870991165546 ; 2870096.5329199047 ; 413400.0029045264 ; 29512.000000000004
125 ; 22307.03725349795 ; 3333.870991165546 ; 2892630.166768987 ; 416733.87389569194 ; 29750.000000000004
126 ; 22025.084187370627 ; 3333.870991165546 ; 2914937.2040224853 ; 420067.74488685746 ; 29988.000000000004
127 ; 21823.619932464557 ; 3333.870991165546 ; 2936962.288209856 ; 423401.615878023 ; 30226.000000000004
128 ; 21620.536020778287 ; 3333.870991165546 ; 2958785.908142321 ; 426735.4868691885 ; 30464.000000000004
129 ; 21308.293112117382 ; 3333.870991165546 ; 2980406.444163099 ; 430069.357860354 ; 30702.000000000004
130 ; 21144.768218370238 ; 3333.870991165546 ; 3001714.7372752163 ; 433403.2288515195 ; 30940.000000000004
131 ; 20962.37413088481 ; 3333.870991165546 ; 3022859.5054935864 ; 436737.09984268504 ; 31178.000000000004
132 ; 20588.816961525565 ; 3333.870991165546 ; 3043821.879624471 ; 440070.97083385056 ; 31416.000000000004
133 ; 20522.532069110508 ; 3333.870991165546 ; 3064410.6965859965 ; 443404.8418250161 ; 31654.000000000004
134 ; 19970.07449656161 ; 3333.870991165546 ; 3084933.228655107 ; 446738.7128161816 ; 31892.000000000004
135 ; 19669.491725450043 ; 3333.870991165546 ; 3104903.3031516685 ; 450072.5838073471 ; 32130.000000000004
136 ; 19180.458021192924 ; 3333.870991165546 ; 3124572.7948771184 ; 453406.4547985126 ; 32368.000000000004
137 ; 19074.118430664552 ; 3333.870991165546 ; 3143753.2528983112 ; 456740.32578967814 ; 32606.000000000004
138 ; 18617.5648714902 ; 3333.870991165546 ; 3162827.371328976 ; 460074.19678084366 ; 32844.00000000001
139 ; 18403.317584639066 ; 3333.870991165546 ; 3181444.936200466 ; 463408.0677720092 ; 33082.00000000001
140 ; 17978.256432435108 ; 3333.870991165546 ; 3199848.253785105 ; 466741.9387631747 ; 33320.00000000001
141 ; 17567.97550356696 ; 3333.870991165546 ; 3217826.51021754 ; 470075.8097543402 ; 33558.00000000001
142 ; 17331.3987895693 ; 3333.870991165546 ; 3235394.485721107 ; 473409.6807455057 ; 33796.00000000001
143 ; 16937.236083355026 ; 3333.870991165546 ; 3252725.8845106764 ; 476743.55173667124 ; 34034.00000000001
144 ; 16622.660384990882 ; 3333.870991165546 ; 3269663.120594031 ; 480077.42272783676 ; 34272.00000000001
145 ; 16737.88894747985 ; 3333.870991165546 ; 3286285.780979022 ; 483411.2937190023 ; 34510.00000000001
146 ; 16440.35774616774 ; 3333.870991165546 ; 3303023.669926502 ; 486745.1647101678 ; 34748.00000000001
147 ; 16327.147106895707 ; 3333.870991165546 ; 3319464.0276726694 ; 490079.0357013333 ; 34986.00000000001
148 ; 16250.416324368207 ; 3333.870991165546 ; 3335791.174779565 ; 493412.90669249883 ; 35224.00000000001
149 ; 16150.429503735795 ; 3333.870991165546 ; 3352041.5911039333 ; 496746.77768366435 ; 35462.00000000001
150 ; 16003.325601295835 ; 3333.870991165546 ; 3368192.020607669 ; 500080.64867482986 ; 35700.00000000001
151 ; 15998.902270362922 ; 3333.870991165546 ; 3384195.346208965 ; 503414.5196659954 ; 35938.00000000001
152 ; 15527.666953420045 ; 3333.870991165546 ; 3400194.2484793277 ; 506748.3906571609 ; 36176.00000000001
153 ; 15576.493550236375 ; 3333.870991165546 ; 3415721.915432748 ; 510082.2616483264 ; 36414.00000000001
154 ; 15541.192508102687 ; 3333.870991165546 ; 3431298.4089829843 ; 513416.13263949193 ; 36652.00000000001
155 ; 15276.752193945755 ; 3333.870991165546 ; 3446839.601491087 ; 516750.00363065745 ; 36890.00000000001
156 ; 15237.79151242642 ; 3333.870991165546 ; 3462116.353685033 ; 520083.87462182296 ; 37128.00000000001
157 ; 14822.453027716598 ; 3333.870991165546 ; 3477354.1451974595 ; 523417.7456129885 ; 37366.00000000001
158 ; 15053.459942167841 ; 3333.870991165546 ; 3492176.598225176 ; 526751.616604154 ; 37604.00000000001
159 ; 15127.451414663372 ; 3333.870991165546 ; 3507230.0581673435 ; 530085.4875953195 ; 37842.00000000001
160 ; 14841.044061062097 ; 3333.870991165546 ; 3522357.509582007 ; 533419.358586485 ; 38080.00000000001
161 ; 14663.588432842022 ; 3333.870991165546 ; 3537198.5536430688 ; 536753.2295776505 ; 38318.00000000001
162 ; 14459.5057497126 ; 3333.870991165546 ; 3551862.1420759107 ; 540087.1005688161 ; 38556.00000000001
163 ; 13925.34518919038 ; 3333.870991165546 ; 3566321.6478256234 ; 543420.9715599816 ; 38794.00000000001
164 ; 14039.760811855722 ; 3333.870991165546 ; 3580246.993014814 ; 546754.8425511471 ; 39032.00000000001
165 ; 13996.785509322071 ; 3333.870991165546 ; 3594286.7538266694 ; 550088.7135423126 ; 39270.00000000001
166 ; 13819.130543810172 ; 3333.870991165546 ; 3608283.5393359913 ; 553422.5845334781 ; 39508.00000000001
167 ; 13778.59135840653 ; 3333.870991165546 ; 3622102.6698798016 ; 556756.4555246437 ; 39746.00000000001
168 ; 13752.677233289412 ; 3333.870991165546 ; 3635881.261238208 ; 560090.3265158092 ; 39984.00000000001
169 ; 13475.601532823952 ; 3333.870991165546 ; 3649633.9384714975 ; 563424.1975069747 ; 40222.00000000001
170 ; 13108.743402473103 ; 3333.870991165546 ; 3663109.5400043214 ; 566758.0684981402 ; 40460.00000000001
171 ; 13161.60074293876 ; 3333.870991165546 ; 3676218.2834067945 ; 570091.9394893057 ; 40698.00000000001
172 ; 12975.734945298365 ; 3333.870991165546 ; 3689379.8841497335 ; 573425.8104804712 ; 40936.00000000001
173 ; 12779.23813971574 ; 3333.870991165546 ; 3702355.6190950316 ; 576759.6814716368 ; 41174.00000000001
174 ; 12669.153341968855 ; 3333.870991165546 ; 3715134.857234747 ; 580093.5524628023 ; 41412.00000000001
175 ; 12864.989075502235 ; 3333.870991165546 ; 3727804.010576716 ; 583427.4234539678 ; 41650.00000000001
176 ; 12668.094815898205 ; 3333.870991165546 ; 3740668.9996522185 ; 586761.2944451333 ; 41888.00000000001
177 ; 12926.537669544829 ; 3333.870991165546 ; 3753337.0944681168 ; 590095.1654362988 ; 42126.00000000001
178 ; 12881.70524645676 ; 3333.870991165546 ; 3766263.632137662 ; 593429.0364274643 ; 42364.00000000001
179 ; 12780.026874001785 ; 3333.870991165546 ; 3779145.3373841187 ; 596762.9074186299 ; 42602.00000000001
180 ; 13008.1847533193 ; 3333.870991165546 ; 3791925.3642581203 ; 600096.7784097954 ; 42840.00000000001
181 ; 12969.075318947034 ; 3333.870991165546 ; 3804933.5490114396 ; 603430.6494009609 ; 43078.00000000001
182 ; 12696.948887301878 ; 3333.870991165546 ; 3817902.6243303865 ; 606764.5203921264 ; 43316.00000000001
183 ; 13224.855729666115 ; 3333.870991165546 ; 3830599.5732176886 ; 610098.3913832919 ; 43554.00000000001
184 ; 12861.033893582795 ; 3333.870991165546 ; 3843824.4289473547 ; 613432.2623744574 ; 43792.00000000001
185 ; 13019.353228460059 ; 3333.870991165546 ; 3856685.4628409375 ; 616766.133365623 ; 44030.00000000001
186 ; 13202.498652713102 ; 3333.870991165546 ; 3869704.8160693976 ; 620100.0043567885 ; 44268.00000000001
