CSV File for the City 2 on Day 217
1 - Minute m 
2 - Power Consumed at minute m 
3 - Power Produced at minute m 
4 - Energy Consumed since the beginning of the day 
5 - Energy Produced since the beginning of the day 
6 - Energy Lost since the beginning of the day on lines starting from the city
 
0 ; 4761.900117112202 ; 34473.688840648254 ; 0.0 ; 0.0 ; 0.0
1 ; 5238.682724658065 ; 34473.688840648254 ; 4761.900117112202 ; 34473.688840648254 ; 0.0
2 ; 5548.014015939101 ; 34473.688840648254 ; 10000.582841770267 ; 68947.37768129651 ; 0.0
3 ; 6261.421560138446 ; 34473.688840648254 ; 15548.596857709368 ; 103421.06652194477 ; 0.0
4 ; 6673.372575293965 ; 34473.688840648254 ; 21810.018417847816 ; 137894.75536259302 ; 0.0
5 ; 7417.380368510793 ; 34473.688840648254 ; 28483.39099314178 ; 172368.44420324126 ; 0.0
6 ; 7936.2565466090155 ; 34473.688840648254 ; 35900.77136165257 ; 206842.1330438895 ; 0.0
7 ; 8570.41773255336 ; 34473.688840648254 ; 43837.02790826159 ; 241315.82188453776 ; 0.0
8 ; 8878.445576240598 ; 34473.688840648254 ; 52407.44564081495 ; 275789.51072518603 ; 0.0
9 ; 9500.229859336338 ; 34473.688840648254 ; 61285.89121705555 ; 310263.1995658343 ; 0.0
10 ; 9933.95683751341 ; 34473.688840648254 ; 70786.1210763919 ; 344736.8884064826 ; 0.0
11 ; 10508.205418505868 ; 34473.688840648254 ; 80720.0779139053 ; 379210.57724713086 ; 0.0
12 ; 11138.933469679418 ; 34473.688840648254 ; 91228.28333241117 ; 413684.26608777913 ; 0.0
13 ; 11658.78572906592 ; 34473.688840648254 ; 102367.21680209058 ; 448157.9549284274 ; 0.0
14 ; 12161.149656742227 ; 34473.688840648254 ; 114026.0025311565 ; 482631.6437690757 ; 0.0
15 ; 12672.288552761767 ; 34473.688840648254 ; 126187.15218789873 ; 517105.33260972396 ; 0.0
16 ; 13192.806013120548 ; 34473.688840648254 ; 138859.4407406605 ; 551579.0214503722 ; 0.0
17 ; 13521.937458547247 ; 34473.688840648254 ; 152052.24675378104 ; 586052.7102910205 ; 0.0
18 ; 13888.35903475645 ; 34473.688840648254 ; 165574.18421232828 ; 620526.3991316687 ; 0.0
19 ; 14404.037147529472 ; 34473.688840648254 ; 179462.54324708474 ; 655000.087972317 ; 0.0
20 ; 14853.16991264991 ; 34473.688840648254 ; 193866.58039461423 ; 689473.7768129653 ; 0.0
21 ; 15207.107428552627 ; 34473.688840648254 ; 208719.75030726413 ; 723947.4656536136 ; 0.0
22 ; 15770.465919219865 ; 34473.688840648254 ; 223926.85773581674 ; 758421.1544942618 ; 0.0
23 ; 16081.488092908217 ; 34473.688840648254 ; 239697.3236550366 ; 792894.8433349101 ; 0.0
24 ; 16563.367534894773 ; 34473.688840648254 ; 255778.81174794483 ; 827368.5321755584 ; 0.0
25 ; 16833.005734675295 ; 34473.688840648254 ; 272342.1792828396 ; 861842.2210162067 ; 0.0
26 ; 17376.24411238618 ; 34473.688840648254 ; 289175.18501751486 ; 896315.9098568549 ; 0.0
27 ; 17888.6457082784 ; 34473.688840648254 ; 306551.42912990105 ; 930789.5986975032 ; 0.0
28 ; 18033.880478244362 ; 34473.688840648254 ; 324440.07483817945 ; 965263.2875381515 ; 0.0
29 ; 18529.05988707871 ; 34473.688840648254 ; 342473.9553164238 ; 999736.9763787998 ; 0.0
30 ; 18889.70658046212 ; 34473.688840648254 ; 361003.0152035025 ; 1034210.665219448 ; 0.0
31 ; 19418.903166966164 ; 34473.688840648254 ; 379892.7217839646 ; 1068684.3540600962 ; 0.0
32 ; 19843.94845455329 ; 34473.688840648254 ; 399311.62495093077 ; 1103158.0429007444 ; 0.0
33 ; 20013.480327344525 ; 34473.688840648254 ; 419155.5734054841 ; 1137631.7317413925 ; 0.0
34 ; 20378.111719529148 ; 34473.688840648254 ; 439169.0537328286 ; 1172105.4205820407 ; 0.0
35 ; 20663.067722024716 ; 34473.688840648254 ; 459547.16545235773 ; 1206579.1094226888 ; 0.0
36 ; 21024.02713498829 ; 34473.688840648254 ; 480210.2331743825 ; 1241052.798263337 ; 0.0
37 ; 21401.51265024933 ; 34473.688840648254 ; 501234.26030937076 ; 1275526.4871039852 ; 0.0
38 ; 21846.81522923192 ; 34473.688840648254 ; 522635.7729596201 ; 1310000.1759446333 ; 0.0
39 ; 21852.432068007136 ; 34473.688840648254 ; 544482.5881888521 ; 1344473.8647852815 ; 0.0
40 ; 22293.060405943033 ; 34473.688840648254 ; 566335.0202568593 ; 1378947.5536259296 ; 0.0
41 ; 22603.24829773425 ; 34473.688840648254 ; 588628.0806628023 ; 1413421.2424665778 ; 0.0
42 ; 22829.99492385044 ; 34473.688840648254 ; 611231.3289605366 ; 1447894.931307226 ; 0.0
43 ; 23086.55084476819 ; 34473.688840648254 ; 634061.323884387 ; 1482368.620147874 ; 0.0
44 ; 23204.23592522094 ; 34473.688840648254 ; 657147.8747291552 ; 1516842.3089885223 ; 0.0
45 ; 23715.874972248195 ; 34473.688840648254 ; 680352.1106543761 ; 1551315.9978291704 ; 0.0
46 ; 23922.632760478093 ; 34473.688840648254 ; 704067.9856266243 ; 1585789.6866698186 ; 0.0
47 ; 24224.537630983694 ; 34473.688840648254 ; 727990.6183871024 ; 1620263.3755104668 ; 0.0
48 ; 24415.605805184237 ; 34473.688840648254 ; 752215.1560180861 ; 1654737.064351115 ; 0.0
49 ; 24802.663712425947 ; 34473.688840648254 ; 776630.7618232704 ; 1689210.753191763 ; 0.0
50 ; 24962.751687136897 ; 34473.688840648254 ; 801433.4255356963 ; 1723684.4420324112 ; 0.0
51 ; 25050.078851305534 ; 34473.688840648254 ; 826396.1772228333 ; 1758158.1308730594 ; 0.0
52 ; 25288.333984966346 ; 34473.688840648254 ; 851446.2560741388 ; 1792631.8197137075 ; 0.0
53 ; 25574.37036423917 ; 34473.688840648254 ; 876734.5900591052 ; 1827105.5085543557 ; 0.0
54 ; 25864.026085072044 ; 34473.688840648254 ; 902308.9604233444 ; 1861579.1973950039 ; 0.0
55 ; 26128.19507680305 ; 34473.688840648254 ; 928172.9865084165 ; 1896052.886235652 ; 0.0
56 ; 26179.068419421197 ; 34473.688840648254 ; 954301.1815852196 ; 1930526.5750763002 ; 0.0
57 ; 26456.86835026091 ; 34473.688840648254 ; 980480.2500046408 ; 1965000.2639169483 ; 0.0
58 ; 26469.186780021475 ; 34473.688840648254 ; 1006937.1183549017 ; 1999473.9527575965 ; 0.0
59 ; 26684.034791051225 ; 34473.688840648254 ; 1033406.3051349232 ; 2033947.6415982447 ; 0.0
60 ; 26767.752659846497 ; 34473.688840648254 ; 1060090.3399259744 ; 2068421.3304388928 ; 0.0
61 ; 27009.187389297065 ; 34473.688840648254 ; 1086858.092585821 ; 2102895.019279541 ; 0.0
62 ; 27152.015953364902 ; 34473.688840648254 ; 1113867.279975118 ; 2137368.708120189 ; 0.0
63 ; 27402.6631922358 ; 34473.688840648254 ; 1141019.2959284831 ; 2171842.3969608373 ; 0.0
64 ; 27550.971377457685 ; 34473.688840648254 ; 1168421.959120719 ; 2206316.0858014855 ; 0.0
65 ; 27639.16342446263 ; 34473.688840648254 ; 1195972.9304981767 ; 2240789.7746421336 ; 0.0
66 ; 27669.186309294728 ; 34473.688840648254 ; 1223612.0939226393 ; 2275263.463482782 ; 0.0
67 ; 27697.181333676428 ; 34473.688840648254 ; 1251281.280231934 ; 2309737.15232343 ; 0.0
68 ; 27890.366085509577 ; 34473.688840648254 ; 1278978.4615656105 ; 2344210.841164078 ; 0.0
69 ; 28000.599457339904 ; 34473.688840648254 ; 1306868.82765112 ; 2378684.5300047263 ; 0.0
70 ; 28235.028870281512 ; 34473.688840648254 ; 1334869.4271084599 ; 2413158.2188453744 ; 0.0
71 ; 28201.64940005629 ; 34473.688840648254 ; 1363104.4559787414 ; 2447631.9076860226 ; 0.0
72 ; 28326.176036785862 ; 34473.688840648254 ; 1391306.1053787977 ; 2482105.5965266707 ; 0.0
73 ; 28305.47033288765 ; 34473.688840648254 ; 1419632.2814155836 ; 2516579.285367319 ; 0.0
74 ; 28483.419563957235 ; 34473.688840648254 ; 1447937.7517484713 ; 2551052.974207967 ; 0.0
75 ; 28477.290179713884 ; 34473.688840648254 ; 1476421.1713124285 ; 2585526.663048615 ; 0.0
76 ; 28403.603154777105 ; 34473.688840648254 ; 1504898.4614921424 ; 2620000.3518892634 ; 0.0
77 ; 28541.391488620866 ; 34473.688840648254 ; 1533302.0646469195 ; 2654474.0407299115 ; 0.0
78 ; 28587.410085392126 ; 34473.688840648254 ; 1561843.4561355403 ; 2688947.7295705597 ; 0.0
79 ; 28526.63551287907 ; 34473.688840648254 ; 1590430.8662209325 ; 2723421.418411208 ; 0.0
80 ; 28682.557012200854 ; 34473.688840648254 ; 1618957.5017338116 ; 2757895.107251856 ; 0.0
81 ; 28621.781127097114 ; 34473.688840648254 ; 1647640.0587460124 ; 2792368.796092504 ; 0.0
82 ; 28742.355971967823 ; 34473.688840648254 ; 1676261.8398731095 ; 2826842.4849331523 ; 0.0
83 ; 28684.496023441778 ; 34473.688840648254 ; 1705004.1958450773 ; 2861316.1737738005 ; 0.0
84 ; 28621.283232080183 ; 34473.688840648254 ; 1733688.691868519 ; 2895789.8626144486 ; 0.0
85 ; 28600.24679852883 ; 34473.688840648254 ; 1762309.9751005992 ; 2930263.551455097 ; 0.0
86 ; 28536.00462407082 ; 34473.688840648254 ; 1790910.221899128 ; 2964737.240295745 ; 0.0
87 ; 28807.4518494462 ; 34473.688840648254 ; 1819446.226523199 ; 2999210.929136393 ; 0.0
88 ; 28641.20253552729 ; 34473.688840648254 ; 1848253.678372645 ; 3033684.6179770413 ; 0.0
89 ; 28536.478138464186 ; 34473.688840648254 ; 1876894.8809081723 ; 3068158.3068176894 ; 0.0
90 ; 28442.94544343163 ; 34473.688840648254 ; 1905431.3590466366 ; 3102631.9956583376 ; 0.0
91 ; 28402.186109657625 ; 34473.688840648254 ; 1933874.3044900682 ; 3137105.6844989858 ; 0.0
92 ; 28310.860401228518 ; 34473.688840648254 ; 1962276.4905997259 ; 3171579.373339634 ; 0.0
93 ; 28302.718090081602 ; 34473.688840648254 ; 1990587.3510009544 ; 3206053.062180282 ; 0.0
94 ; 28185.533252770307 ; 34473.688840648254 ; 2018890.069091036 ; 3240526.7510209302 ; 0.0
95 ; 28178.975337418866 ; 34473.688840648254 ; 2047075.6023438063 ; 3275000.4398615784 ; 0.0
96 ; 28069.67953110954 ; 34473.688840648254 ; 2075254.5776812253 ; 3309474.1287022266 ; 0.0
97 ; 27882.169937041646 ; 34473.688840648254 ; 2103324.257212335 ; 3343947.8175428747 ; 0.0
98 ; 27773.321667409855 ; 34473.688840648254 ; 2131206.4271493764 ; 3378421.506383523 ; 0.0
99 ; 27697.738036374234 ; 34473.688840648254 ; 2158979.7488167863 ; 3412895.195224171 ; 0.0
100 ; 27488.612917108272 ; 34473.688840648254 ; 2186677.4868531604 ; 3447368.884064819 ; 0.0
101 ; 27434.25591641495 ; 34473.688840648254 ; 2214166.099770269 ; 3481842.5729054674 ; 0.0
102 ; 27178.980677188436 ; 34473.688840648254 ; 2241600.3556866837 ; 3516316.2617461155 ; 0.0
103 ; 26960.217484154284 ; 34473.688840648254 ; 2268779.336363872 ; 3550789.9505867637 ; 0.0
104 ; 27011.041170381977 ; 34473.688840648254 ; 2295739.5538480263 ; 3585263.639427412 ; 0.0
105 ; 26849.22743434845 ; 34473.688840648254 ; 2322750.5950184083 ; 3619737.32826806 ; 0.0
106 ; 26513.362023213245 ; 34473.688840648254 ; 2349599.8224527566 ; 3654211.017108708 ; 0.0
107 ; 26564.497245209277 ; 34473.688840648254 ; 2376113.18447597 ; 3688684.7059493563 ; 0.0
108 ; 26323.326610698074 ; 34473.688840648254 ; 2402677.6817211793 ; 3723158.3947900045 ; 0.0
109 ; 26174.465014434456 ; 34473.688840648254 ; 2429001.008331877 ; 3757632.0836306526 ; 0.0
110 ; 25940.496647267068 ; 34473.688840648254 ; 2455175.4733463116 ; 3792105.772471301 ; 0.0
111 ; 25792.27157684612 ; 34473.688840648254 ; 2481115.9699935787 ; 3826579.461311949 ; 0.0
112 ; 25537.884746709322 ; 34473.688840648254 ; 2506908.2415704248 ; 3861053.150152597 ; 0.0
113 ; 25229.322367094315 ; 34473.688840648254 ; 2532446.126317134 ; 3895526.8389932453 ; 0.0
114 ; 25016.945454261204 ; 34473.688840648254 ; 2557675.4486842286 ; 3930000.5278338934 ; 0.0
115 ; 24919.50736996809 ; 34473.688840648254 ; 2582692.39413849 ; 3964474.2166745416 ; 0.0
116 ; 24642.171801175675 ; 34473.688840648254 ; 2607611.901508458 ; 3998947.9055151897 ; 0.0
117 ; 24185.69508307705 ; 34473.688840648254 ; 2632254.0733096334 ; 4033421.594355838 ; 0.0
118 ; 24110.873112831847 ; 34473.688840648254 ; 2656439.7683927105 ; 4067895.283196486 ; 0.0
119 ; 23845.404004316304 ; 34473.688840648254 ; 2680550.641505542 ; 4102368.972037134 ; 0.0
120 ; 23649.01188674903 ; 34473.688840648254 ; 2704396.0455098585 ; 4136842.6608777824 ; 0.0
121 ; 23351.64044127167 ; 34473.688840648254 ; 2728045.0573966075 ; 4171316.3497184305 ; 0.0
122 ; 22974.83361405256 ; 34473.688840648254 ; 2751396.697837879 ; 4205790.038559079 ; 0.0
123 ; 22663.797933047634 ; 34473.688840648254 ; 2774371.5314519317 ; 4240263.727399727 ; 0.0
124 ; 22414.36775835454 ; 34473.688840648254 ; 2797035.3293849793 ; 4274737.4162403755 ; 0.0
125 ; 22072.74906321898 ; 34473.688840648254 ; 2819449.697143334 ; 4309211.105081024 ; 0.0
126 ; 21875.67566263209 ; 34473.688840648254 ; 2841522.446206553 ; 4343684.793921672 ; 0.0
127 ; 21434.843959986858 ; 34473.688840648254 ; 2863398.121869185 ; 4378158.48276232 ; 0.0
128 ; 21228.579681810847 ; 34473.688840648254 ; 2884832.9658291717 ; 4412632.171602968 ; 0.0
129 ; 20866.061184948216 ; 34473.688840648254 ; 2906061.5455109826 ; 4447105.860443616 ; 0.0
130 ; 20659.689656004717 ; 34473.688840648254 ; 2926927.606695931 ; 4481579.549284264 ; 0.0
131 ; 20098.206457907945 ; 34473.688840648254 ; 2947587.2963519357 ; 4516053.238124913 ; 0.0
132 ; 19682.769098909783 ; 34473.688840648254 ; 2967685.5028098435 ; 4550526.926965561 ; 0.0
133 ; 19430.064296624758 ; 34473.688840648254 ; 2987368.271908753 ; 4585000.615806209 ; 0.0
134 ; 19120.015616630273 ; 34473.688840648254 ; 3006798.3362053777 ; 4619474.304646857 ; 0.0
135 ; 18708.80972314271 ; 34473.688840648254 ; 3025918.351822008 ; 4653947.993487505 ; 0.0
136 ; 18224.037004913007 ; 34473.688840648254 ; 3044627.1615451504 ; 4688421.682328153 ; 0.0
137 ; 17962.955454063296 ; 34473.688840648254 ; 3062851.1985500637 ; 4722895.371168802 ; 0.0
138 ; 17449.080977472833 ; 34473.688840648254 ; 3080814.154004127 ; 4757369.06000945 ; 0.0
139 ; 17013.117400468764 ; 34473.688840648254 ; 3098263.2349815997 ; 4791842.748850098 ; 0.0
140 ; 16691.51504641942 ; 34473.688840648254 ; 3115276.3523820685 ; 4826316.437690746 ; 0.0
141 ; 16426.746350813293 ; 34473.688840648254 ; 3131967.867428488 ; 4860790.126531394 ; 0.0
142 ; 15864.115425305687 ; 34473.688840648254 ; 3148394.6137793013 ; 4895263.815372042 ; 0.0
143 ; 15463.44557340696 ; 34473.688840648254 ; 3164258.729204607 ; 4929737.5042126905 ; 0.0
144 ; 14989.596426715312 ; 34473.688840648254 ; 3179722.174778014 ; 4964211.193053339 ; 0.0
145 ; 14908.258372065211 ; 34473.688840648254 ; 3194711.771204729 ; 4998684.881893987 ; 0.0
146 ; 14873.116488198877 ; 34473.688840648254 ; 3209620.0295767942 ; 5033158.570734635 ; 0.0
147 ; 14789.917777350065 ; 34473.688840648254 ; 3224493.146064993 ; 5067632.259575283 ; 0.0
148 ; 14646.216512565125 ; 34473.688840648254 ; 3239283.063842343 ; 5102105.948415931 ; 0.0
149 ; 14327.480760311637 ; 34473.688840648254 ; 3253929.280354908 ; 5136579.6372565795 ; 0.0
150 ; 14257.018997263795 ; 34473.688840648254 ; 3268256.76111522 ; 5171053.326097228 ; 0.0
151 ; 14258.824472195318 ; 34473.688840648254 ; 3282513.7801124835 ; 5205527.014937876 ; 0.0
152 ; 14071.901051506167 ; 34473.688840648254 ; 3296772.604584679 ; 5240000.703778524 ; 0.0
153 ; 13851.925208655837 ; 34473.688840648254 ; 3310844.5056361854 ; 5274474.392619172 ; 0.0
154 ; 13622.094014999668 ; 34473.688840648254 ; 3324696.430844841 ; 5308948.08145982 ; 0.0
155 ; 13442.888224111777 ; 34473.688840648254 ; 3338318.5248598405 ; 5343421.770300468 ; 0.0
156 ; 13436.14933661052 ; 34473.688840648254 ; 3351761.4130839524 ; 5377895.459141117 ; 0.0
157 ; 13378.072040065641 ; 34473.688840648254 ; 3365197.562420563 ; 5412369.147981765 ; 0.0
158 ; 13178.592459449528 ; 34473.688840648254 ; 3378575.6344606285 ; 5446842.836822413 ; 0.0
159 ; 12909.829432819684 ; 34473.688840648254 ; 3391754.226920078 ; 5481316.525663061 ; 0.0
160 ; 12826.574665240754 ; 34473.688840648254 ; 3404664.0563528975 ; 5515790.214503709 ; 0.0
161 ; 12676.034702631885 ; 34473.688840648254 ; 3417490.6310181385 ; 5550263.903344357 ; 0.0
162 ; 12713.793874424558 ; 34473.688840648254 ; 3430166.6657207706 ; 5584737.592185006 ; 0.0
163 ; 12173.00839239976 ; 34473.688840648254 ; 3442880.459595195 ; 5619211.281025654 ; 0.0
164 ; 12086.902198382657 ; 34473.688840648254 ; 3455053.4679875947 ; 5653684.969866302 ; 0.0
165 ; 12070.796524884672 ; 34473.688840648254 ; 3467140.3701859773 ; 5688158.65870695 ; 0.0
166 ; 11941.159818593971 ; 34473.688840648254 ; 3479211.166710862 ; 5722632.347547598 ; 0.0
167 ; 11580.973007281511 ; 34473.688840648254 ; 3491152.326529456 ; 5757106.036388246 ; 0.0
168 ; 11469.84676426684 ; 34473.688840648254 ; 3502733.299536737 ; 5791579.7252288945 ; 0.0
169 ; 11376.972767184812 ; 34473.688840648254 ; 3514203.146301004 ; 5826053.414069543 ; 0.0
170 ; 11257.193863720162 ; 34473.688840648254 ; 3525580.119068189 ; 5860527.102910191 ; 0.0
171 ; 10984.0172801946 ; 34473.688840648254 ; 3536837.312931909 ; 5895000.791750839 ; 0.0
172 ; 10728.068299426734 ; 34473.688840648254 ; 3547821.3302121037 ; 5929474.480591487 ; 0.0
173 ; 10595.65864789486 ; 34473.688840648254 ; 3558549.3985115304 ; 5963948.169432135 ; 0.0
174 ; 10618.858122465277 ; 34473.688840648254 ; 3569145.057159425 ; 5998421.858272783 ; 0.0
175 ; 10650.969578078213 ; 34473.688840648254 ; 3579763.9152818904 ; 6032895.547113432 ; 0.0
176 ; 10649.73552275993 ; 34473.688840648254 ; 3590414.8848599684 ; 6067369.23595408 ; 0.0
177 ; 10480.900697305622 ; 34473.688840648254 ; 3601064.6203827285 ; 6101842.924794728 ; 0.0
178 ; 10811.924115868198 ; 34473.688840648254 ; 3611545.5210800343 ; 6136316.613635376 ; 0.0
179 ; 10926.21557799782 ; 34473.688840648254 ; 3622357.4451959026 ; 6170790.302476024 ; 0.0
180 ; 10846.756070064026 ; 34473.688840648254 ; 3633283.6607739003 ; 6205263.991316672 ; 0.0
181 ; 10983.458158984806 ; 34473.688840648254 ; 3644130.4168439643 ; 6239737.680157321 ; 0.0
182 ; 10982.62660582428 ; 34473.688840648254 ; 3655113.875002949 ; 6274211.368997969 ; 0.0
183 ; 10913.269969097233 ; 34473.688840648254 ; 3666096.501608773 ; 6308685.057838617 ; 0.0
184 ; 11056.322575086748 ; 34473.688840648254 ; 3677009.7715778705 ; 6343158.746679265 ; 0.0
185 ; 11053.234398741175 ; 34473.688840648254 ; 3688066.094152957 ; 6377632.435519913 ; 0.0
186 ; 10897.258226493233 ; 34473.688840648254 ; 3699119.3285516985 ; 6412106.124360561 ; 0.0
187 ; 11217.431381043876 ; 34473.688840648254 ; 3710016.586778192 ; 6446579.8132012095 ; 0.0
188 ; 11175.29449508552 ; 34473.688840648254 ; 3721234.018159236 ; 6481053.502041858 ; 0.0
189 ; 11167.799018167287 ; 34473.688840648254 ; 3732409.3126543215 ; 6515527.190882506 ; 0.0
190 ; 11153.248733642158 ; 34473.688840648254 ; 3743577.111672489 ; 6550000.879723154 ; 0.0
191 ; 11155.833417922053 ; 34473.688840648254 ; 3754730.360406131 ; 6584474.568563802 ; 0.0
192 ; 11417.374840351104 ; 34473.688840648254 ; 3765886.1938240533 ; 6618948.25740445 ; 0.0
193 ; 11200.353356164369 ; 34473.688840648254 ; 3777303.5686644046 ; 6653421.9462450985 ; 0.0
194 ; 11296.328477413164 ; 34473.688840648254 ; 3788503.922020569 ; 6687895.635085747 ; 0.0
195 ; 11253.029650088163 ; 34473.688840648254 ; 3799800.2504979824 ; 6722369.323926395 ; 0.0
196 ; 11322.68020523233 ; 34473.688840648254 ; 3811053.2801480703 ; 6756843.012767043 ; 0.0
197 ; 11433.338472786525 ; 34473.688840648254 ; 3822375.960353303 ; 6791316.701607691 ; 0.0
198 ; 11383.410930492444 ; 34473.688840648254 ; 3833809.298826089 ; 6825790.390448339 ; 0.0
199 ; 11431.277377669989 ; 34473.688840648254 ; 3845192.7097565816 ; 6860264.079288987 ; 0.0
200 ; 11554.142136047409 ; 34473.688840648254 ; 3856623.9871342517 ; 6894737.768129636 ; 0.0
201 ; 11527.555659209887 ; 34473.688840648254 ; 3868178.1292702993 ; 6929211.456970284 ; 0.0
202 ; 11554.254993214956 ; 34473.688840648254 ; 3879705.684929509 ; 6963685.145810932 ; 0.0
203 ; 11603.376504234702 ; 34473.688840648254 ; 3891259.939922724 ; 6998158.83465158 ; 0.0
204 ; 11592.300909475747 ; 34473.688840648254 ; 3902863.3164269584 ; 7032632.523492228 ; 0.0
205 ; 11759.162071548863 ; 34473.688840648254 ; 3914455.6173364343 ; 7067106.212332876 ; 0.0
206 ; 11794.677966627802 ; 34473.688840648254 ; 3926214.779407983 ; 7101579.901173525 ; 0.0
207 ; 11869.537696112919 ; 34473.688840648254 ; 3938009.457374611 ; 7136053.590014173 ; 0.0
208 ; 11756.430489504433 ; 34473.688840648254 ; 3949878.995070724 ; 7170527.278854821 ; 0.0
209 ; 11859.467589806203 ; 34473.688840648254 ; 3961635.425560228 ; 7205000.967695469 ; 0.0
210 ; 12012.449112472774 ; 34473.688840648254 ; 3973494.8931500344 ; 7239474.656536117 ; 0.0
211 ; 11896.327303110496 ; 34473.688840648254 ; 3985507.342262507 ; 7273948.345376765 ; 0.0
212 ; 11967.451306946665 ; 34473.688840648254 ; 3997403.6695656176 ; 7308422.0342174135 ; 0.0
213 ; 11946.637493717744 ; 34473.688840648254 ; 4009371.120872564 ; 7342895.723058062 ; 0.0
