CSV File for the City 1 on Day 337
1 - Minute m 
2 - Power Consumed at minute m 
3 - Power Produced at minute m 
4 - Energy Consumed since the beginning of the day 
5 - Energy Produced since the beginning of the day 
6 - Energy Lost since the beginning of the day on lines starting from the city
 
0 ; 10975.855584399891 ; 27924.52288890045 ; 0.0 ; 0.0 ; 0.0
1 ; 11195.69131176674 ; 27924.52288890045 ; 10975.855584399891 ; 27924.52288890045 ; 238.00000000000003
2 ; 11430.459048654158 ; 27924.52288890045 ; 22171.54689616663 ; 55849.0457778009 ; 476.00000000000006
3 ; 11729.342422490277 ; 27924.52288890045 ; 33602.00594482079 ; 83773.56866670135 ; 714.0000000000001
4 ; 11937.963739397346 ; 27924.52288890045 ; 45331.34836731107 ; 111698.0915556018 ; 952.0000000000001
5 ; 12224.346805098348 ; 27924.52288890045 ; 57269.312106708414 ; 139622.61444450225 ; 1190.0000000000002
6 ; 12506.16159438675 ; 27924.52288890045 ; 69493.65891180676 ; 167547.1373334027 ; 1428.0000000000002
7 ; 12868.939133196884 ; 27924.52288890045 ; 81999.82050619352 ; 195471.66022230315 ; 1666.0000000000002
8 ; 13138.991041585006 ; 27924.52288890045 ; 94868.7596393904 ; 223396.1831112036 ; 1904.0000000000002
9 ; 13441.39435420545 ; 27924.52288890045 ; 108007.7506809754 ; 251320.70600010405 ; 2142.0000000000005
10 ; 13766.606955465986 ; 27924.52288890045 ; 121449.14503518085 ; 279245.2288890045 ; 2380.0000000000005
11 ; 14079.593818989026 ; 27924.52288890045 ; 135215.75199064682 ; 307169.7517779049 ; 2618.0000000000005
12 ; 14133.143883476507 ; 27924.52288890045 ; 149295.34580963585 ; 335094.2746668054 ; 2856.0000000000005
13 ; 14589.482440193844 ; 27924.52288890045 ; 163428.48969311235 ; 363018.7975557059 ; 3094.0000000000005
14 ; 14863.444916951416 ; 27924.52288890045 ; 178017.9721333062 ; 390943.32044460636 ; 3332.0000000000005
15 ; 14970.906657055122 ; 27924.52288890045 ; 192881.41705025762 ; 418867.84333350684 ; 3570.0000000000005
16 ; 15131.479511596073 ; 27924.52288890045 ; 207852.32370731275 ; 446792.3662224073 ; 3808.0000000000005
17 ; 15384.614314101702 ; 27924.52288890045 ; 222983.80321890884 ; 474716.8891113078 ; 4046.0000000000005
18 ; 15585.956882698456 ; 27924.52288890045 ; 238368.41753301054 ; 502641.4120002083 ; 4284.000000000001
19 ; 15835.133882171052 ; 27924.52288890045 ; 253954.374415709 ; 530565.9348891088 ; 4522.000000000001
20 ; 15986.138110533124 ; 27924.52288890045 ; 269789.50829788006 ; 558490.4577780092 ; 4760.000000000001
21 ; 16220.897574072773 ; 27924.52288890045 ; 285775.6464084132 ; 586414.9806669097 ; 4998.000000000001
22 ; 16537.7662514645 ; 27924.52288890045 ; 301996.54398248595 ; 614339.5035558102 ; 5236.000000000001
23 ; 16700.079885371884 ; 27924.52288890045 ; 318534.31023395044 ; 642264.0264447107 ; 5474.000000000001
24 ; 17070.954648977284 ; 27924.52288890045 ; 335234.39011932234 ; 670188.5493336112 ; 5712.000000000001
25 ; 17286.296901552767 ; 27924.52288890045 ; 352305.3447682996 ; 698113.0722225116 ; 5950.000000000001
26 ; 17361.106225809745 ; 27924.52288890045 ; 369591.64166985237 ; 726037.5951114121 ; 6188.000000000001
27 ; 17617.988330185537 ; 27924.52288890045 ; 386952.7478956621 ; 753962.1180003126 ; 6426.000000000001
28 ; 17705.620403124176 ; 27924.52288890045 ; 404570.7362258476 ; 781886.6408892131 ; 6664.000000000001
29 ; 17912.01161982929 ; 27924.52288890045 ; 422276.3566289718 ; 809811.1637781136 ; 6902.000000000001
30 ; 18148.154851169988 ; 27924.52288890045 ; 440188.3682488011 ; 837735.686667014 ; 7140.000000000001
31 ; 18474.493067140193 ; 27924.52288890045 ; 458336.52309997106 ; 865660.2095559145 ; 7378.000000000001
32 ; 18639.76870484017 ; 27924.52288890045 ; 476811.01616711123 ; 893584.732444815 ; 7616.000000000001
33 ; 18735.061146562006 ; 27924.52288890045 ; 495450.7848719514 ; 921509.2553337155 ; 7854.000000000001
34 ; 18953.191356566127 ; 27924.52288890045 ; 514185.8460185134 ; 949433.778222616 ; 8092.000000000001
35 ; 18900.10981445409 ; 27924.52288890045 ; 533139.0373750795 ; 977358.3011115164 ; 8330.000000000002
36 ; 19220.46617818619 ; 27924.52288890045 ; 552039.1471895336 ; 1005282.8240004169 ; 8568.000000000002
37 ; 19372.900699885486 ; 27924.52288890045 ; 571259.6133677198 ; 1033207.3468893174 ; 8806.000000000002
38 ; 19550.656729290054 ; 27924.52288890045 ; 590632.5140676053 ; 1061131.8697782177 ; 9044.000000000002
39 ; 19586.851384249425 ; 27924.52288890045 ; 610183.1707968953 ; 1089056.3926671182 ; 9282.000000000002
40 ; 19758.626512327515 ; 27924.52288890045 ; 629770.0221811447 ; 1116980.9155560187 ; 9520.000000000002
41 ; 19940.648170499793 ; 27924.52288890045 ; 649528.6486934721 ; 1144905.4384449192 ; 9758.000000000002
42 ; 20043.290418025797 ; 27924.52288890045 ; 669469.296863972 ; 1172829.9613338197 ; 9996.000000000002
43 ; 20069.549631027443 ; 27924.52288890045 ; 689512.5872819978 ; 1200754.4842227201 ; 10234.000000000002
44 ; 20336.277511559725 ; 27924.52288890045 ; 709582.1369130252 ; 1228679.0071116206 ; 10472.000000000002
45 ; 20378.40133253669 ; 27924.52288890045 ; 729918.414424585 ; 1256603.530000521 ; 10710.000000000002
46 ; 20794.401669476527 ; 27924.52288890045 ; 750296.8157571217 ; 1284528.0528894216 ; 10948.000000000002
47 ; 20838.55090563125 ; 27924.52288890045 ; 771091.2174265982 ; 1312452.575778322 ; 11186.000000000002
48 ; 20794.047452842187 ; 27924.52288890045 ; 791929.7683322295 ; 1340377.0986672225 ; 11424.000000000002
49 ; 21049.943720248695 ; 27924.52288890045 ; 812723.8157850717 ; 1368301.621556123 ; 11662.000000000002
50 ; 20905.459510252407 ; 27924.52288890045 ; 833773.7595053203 ; 1396226.1444450235 ; 11900.000000000002
51 ; 21219.568859874267 ; 27924.52288890045 ; 854679.2190155728 ; 1424150.667333924 ; 12138.000000000002
52 ; 21361.670082884943 ; 27924.52288890045 ; 875898.7878754471 ; 1452075.1902228245 ; 12376.000000000002
53 ; 21395.52931493907 ; 27924.52288890045 ; 897260.457958332 ; 1479999.713111725 ; 12614.000000000002
54 ; 21402.056313937373 ; 27924.52288890045 ; 918655.9872732711 ; 1507924.2360006254 ; 12852.000000000002
55 ; 21619.455732586954 ; 27924.52288890045 ; 940058.0435872085 ; 1535848.758889526 ; 13090.000000000002
56 ; 21752.295014756717 ; 27924.52288890045 ; 961677.4993197954 ; 1563773.2817784264 ; 13328.000000000002
57 ; 22071.1574911566 ; 27924.52288890045 ; 983429.7943345521 ; 1591697.8046673269 ; 13566.000000000002
58 ; 21784.922538158444 ; 27924.52288890045 ; 1005500.9518257087 ; 1619622.3275562273 ; 13804.000000000002
59 ; 21948.89942761612 ; 27924.52288890045 ; 1027285.8743638672 ; 1647546.8504451278 ; 14042.000000000002
60 ; 21862.52569459349 ; 27924.52288890045 ; 1049234.7737914834 ; 1675471.3733340283 ; 14280.000000000002
61 ; 22120.68318911467 ; 27924.52288890045 ; 1071097.299486077 ; 1703395.8962229288 ; 14518.000000000002
62 ; 22231.009437217042 ; 27924.52288890045 ; 1093217.9826751915 ; 1731320.4191118293 ; 14756.000000000002
63 ; 22338.880182918074 ; 27924.52288890045 ; 1115448.9921124086 ; 1759244.9420007297 ; 14994.000000000002
64 ; 22216.961141451404 ; 27924.52288890045 ; 1137787.8722953268 ; 1787169.4648896302 ; 15232.000000000002
65 ; 22481.442802401667 ; 27924.52288890045 ; 1160004.8334367783 ; 1815093.9877785307 ; 15470.000000000002
66 ; 22344.98803448022 ; 27924.52288890045 ; 1182486.27623918 ; 1843018.5106674312 ; 15708.000000000002
67 ; 22453.850291179446 ; 27924.52288890045 ; 1204831.2642736603 ; 1870943.0335563316 ; 15946.000000000002
68 ; 22610.503541670263 ; 27924.52288890045 ; 1227285.1145648398 ; 1898867.5564452321 ; 16184.000000000002
69 ; 22507.015417234074 ; 27924.52288890045 ; 1249895.61810651 ; 1926792.0793341326 ; 16422.000000000004
70 ; 22614.31412851869 ; 27924.52288890045 ; 1272402.633523744 ; 1954716.602223033 ; 16660.000000000004
71 ; 22681.882502744673 ; 27924.52288890045 ; 1295016.9476522629 ; 1982641.1251119336 ; 16898.000000000004
72 ; 22556.877042599826 ; 27924.52288890045 ; 1317698.8301550075 ; 2010565.648000834 ; 17136.000000000004
73 ; 22559.633117915902 ; 27924.52288890045 ; 1340255.7071976073 ; 2038490.1708897345 ; 17374.000000000004
74 ; 22673.701489732863 ; 27924.52288890045 ; 1362815.340315523 ; 2066414.693778635 ; 17612.000000000004
75 ; 22632.233173740537 ; 27924.52288890045 ; 1385489.041805256 ; 2094339.2166675355 ; 17850.000000000004
76 ; 22969.32332287984 ; 27924.52288890045 ; 1408121.2749789965 ; 2122263.739556436 ; 18088.000000000004
77 ; 22694.407598933398 ; 27924.52288890045 ; 1431090.5983018763 ; 2150188.262445336 ; 18326.000000000004
78 ; 22708.944151195912 ; 27924.52288890045 ; 1453785.0059008098 ; 2178112.7853342365 ; 18564.000000000004
79 ; 22651.622520933626 ; 27924.52288890045 ; 1476493.9500520057 ; 2206037.3082231367 ; 18802.000000000004
80 ; 22894.36656031244 ; 27924.52288890045 ; 1499145.5725729393 ; 2233961.831112037 ; 19040.000000000004
81 ; 22911.849768634493 ; 27924.52288890045 ; 1522039.9391332518 ; 2261886.354000937 ; 19278.000000000004
82 ; 22842.533421253138 ; 27924.52288890045 ; 1544951.7889018862 ; 2289810.8768898374 ; 19516.000000000004
83 ; 22836.547015833803 ; 27924.52288890045 ; 1567794.3223231393 ; 2317735.3997787377 ; 19754.000000000004
84 ; 22651.373194000214 ; 27924.52288890045 ; 1590630.8693389732 ; 2345659.922667638 ; 19992.000000000004
85 ; 22755.124784722997 ; 27924.52288890045 ; 1613282.2425329734 ; 2373584.445556538 ; 20230.000000000004
86 ; 22778.426520406858 ; 27924.52288890045 ; 1636037.3673176963 ; 2401508.9684454384 ; 20468.000000000004
87 ; 22864.60807121014 ; 27924.52288890045 ; 1658815.7938381033 ; 2429433.4913343387 ; 20706.000000000004
88 ; 22789.87131355131 ; 27924.52288890045 ; 1681680.4019093134 ; 2457358.014223239 ; 20944.000000000004
89 ; 22732.107338489808 ; 27924.52288890045 ; 1704470.2732228646 ; 2485282.537112139 ; 21182.000000000004
90 ; 22831.14101428176 ; 27924.52288890045 ; 1727202.3805613543 ; 2513207.0600010394 ; 21420.000000000004
91 ; 22808.166173187747 ; 27924.52288890045 ; 1750033.521575636 ; 2541131.5828899397 ; 21658.000000000004
92 ; 22659.23985921121 ; 27924.52288890045 ; 1772841.6877488238 ; 2569056.10577884 ; 21896.000000000004
93 ; 22603.079868665583 ; 27924.52288890045 ; 1795500.927608035 ; 2596980.62866774 ; 22134.000000000004
94 ; 22391.072964728708 ; 27924.52288890045 ; 1818104.0074767007 ; 2624905.1515566404 ; 22372.000000000004
95 ; 22467.61111517054 ; 27924.52288890045 ; 1840495.0804414295 ; 2652829.6744455406 ; 22610.000000000004
96 ; 22410.42972537222 ; 27924.52288890045 ; 1862962.6915566002 ; 2680754.197334441 ; 22848.000000000004
97 ; 22166.851423278367 ; 27924.52288890045 ; 1885373.1212819724 ; 2708678.720223341 ; 23086.000000000004
98 ; 22342.066511335455 ; 27924.52288890045 ; 1907539.9727052508 ; 2736603.2431122414 ; 23324.000000000004
99 ; 22087.039757048227 ; 27924.52288890045 ; 1929882.0392165864 ; 2764527.7660011416 ; 23562.000000000004
100 ; 22013.18569954301 ; 27924.52288890045 ; 1951969.0789736346 ; 2792452.288890042 ; 23800.000000000004
101 ; 21808.5442507132 ; 27924.52288890045 ; 1973982.2646731776 ; 2820376.811778942 ; 24038.000000000004
102 ; 21697.90913369505 ; 27924.52288890045 ; 1995790.8089238908 ; 2848301.3346678424 ; 24276.000000000004
103 ; 21797.000285161597 ; 27924.52288890045 ; 2017488.7180575859 ; 2876225.8575567426 ; 24514.000000000004
104 ; 21755.449129508095 ; 27924.52288890045 ; 2039285.7183427475 ; 2904150.380445643 ; 24752.000000000004
105 ; 21631.36626947729 ; 27924.52288890045 ; 2061041.1674722556 ; 2932074.903334543 ; 24990.000000000004
106 ; 21530.692720546896 ; 27924.52288890045 ; 2082672.5337417328 ; 2959999.4262234434 ; 25228.000000000004
107 ; 21330.724944218942 ; 27924.52288890045 ; 2104203.22646228 ; 2987923.9491123436 ; 25466.000000000004
108 ; 21418.36008116626 ; 27924.52288890045 ; 2125533.951406499 ; 3015848.472001244 ; 25704.000000000004
109 ; 21284.66186993358 ; 27924.52288890045 ; 2146952.3114876654 ; 3043772.994890144 ; 25942.000000000004
110 ; 21060.41456461427 ; 27924.52288890045 ; 2168236.9733575988 ; 3071697.5177790443 ; 26180.000000000004
111 ; 21120.652525747595 ; 27924.52288890045 ; 2189297.387922213 ; 3099622.0406679446 ; 26418.000000000004
112 ; 20924.147132820624 ; 27924.52288890045 ; 2210418.0404479606 ; 3127546.563556845 ; 26656.000000000004
113 ; 20754.13854451579 ; 27924.52288890045 ; 2231342.187580781 ; 3155471.086445745 ; 26894.000000000004
114 ; 20631.46587448355 ; 27924.52288890045 ; 2252096.3261252968 ; 3183395.6093346453 ; 27132.000000000004
115 ; 20482.67151646202 ; 27924.52288890045 ; 2272727.79199978 ; 3211320.1322235456 ; 27370.000000000004
116 ; 20331.110207364458 ; 27924.52288890045 ; 2293210.4635162423 ; 3239244.655112446 ; 27608.000000000004
117 ; 20348.26855687087 ; 27924.52288890045 ; 2313541.5737236068 ; 3267169.178001346 ; 27846.000000000004
118 ; 20177.375849178767 ; 27924.52288890045 ; 2333889.8422804778 ; 3295093.7008902463 ; 28084.000000000004
119 ; 20064.552132135144 ; 27924.52288890045 ; 2354067.2181296567 ; 3323018.2237791466 ; 28322.000000000004
120 ; 19761.32479988006 ; 27924.52288890045 ; 2374131.770261792 ; 3350942.746668047 ; 28560.000000000004
121 ; 19734.430524456886 ; 27924.52288890045 ; 2393893.095061672 ; 3378867.269556947 ; 28798.000000000004
122 ; 19531.20784349585 ; 27924.52288890045 ; 2413627.5255861287 ; 3406791.7924458473 ; 29036.000000000004
123 ; 19327.10877886949 ; 27924.52288890045 ; 2433158.7334296247 ; 3434716.3153347475 ; 29274.000000000004
124 ; 19220.789332494805 ; 27924.52288890045 ; 2452485.842208494 ; 3462640.838223648 ; 29512.000000000004
125 ; 18995.19713768644 ; 27924.52288890045 ; 2471706.6315409886 ; 3490565.361112548 ; 29750.000000000004
126 ; 18897.779043045342 ; 27924.52288890045 ; 2490701.828678675 ; 3518489.8840014483 ; 29988.000000000004
127 ; 18730.69770015528 ; 27924.52288890045 ; 2509599.6077217204 ; 3546414.4068903485 ; 30226.000000000004
128 ; 18563.987444434664 ; 27924.52288890045 ; 2528330.305421876 ; 3574338.929779249 ; 30464.000000000004
129 ; 18233.295307326985 ; 27924.52288890045 ; 2546894.2928663106 ; 3602263.452668149 ; 30702.000000000004
130 ; 18148.472315774383 ; 27924.52288890045 ; 2565127.5881736376 ; 3630187.9755570493 ; 30940.000000000004
131 ; 18044.747806699164 ; 27924.52288890045 ; 2583276.060489412 ; 3658112.4984459495 ; 31178.000000000004
132 ; 17743.180576113373 ; 27924.52288890045 ; 2601320.808296111 ; 3686037.0213348498 ; 31416.000000000004
133 ; 17642.858909620063 ; 27924.52288890045 ; 2619063.9888722245 ; 3713961.54422375 ; 31654.000000000004
134 ; 17331.252445245977 ; 27924.52288890045 ; 2636706.8477818444 ; 3741886.0671126503 ; 31892.000000000004
135 ; 17158.11687610768 ; 27924.52288890045 ; 2654038.1002270905 ; 3769810.5900015505 ; 32130.000000000004
136 ; 16884.090061446226 ; 27924.52288890045 ; 2671196.217103198 ; 3797735.1128904507 ; 32368.000000000004
137 ; 16793.18790940823 ; 27924.52288890045 ; 2688080.3071646444 ; 3825659.635779351 ; 32606.000000000004
138 ; 16595.342933701533 ; 27924.52288890045 ; 2704873.4950740524 ; 3853584.1586682512 ; 32844.00000000001
139 ; 16348.158737074886 ; 27924.52288890045 ; 2721468.8380077537 ; 3881508.6815571515 ; 33082.00000000001
140 ; 16202.47163128095 ; 27924.52288890045 ; 2737816.9967448288 ; 3909433.2044460517 ; 33320.00000000001
141 ; 15885.321622775076 ; 27924.52288890045 ; 2754019.46837611 ; 3937357.727334952 ; 33558.00000000001
142 ; 15657.363043318584 ; 27924.52288890045 ; 2769904.789998885 ; 3965282.250223852 ; 33796.00000000001
143 ; 15503.480965380197 ; 27924.52288890045 ; 2785562.1530422033 ; 3993206.7731127525 ; 34034.00000000001
144 ; 15410.929026308611 ; 27924.52288890045 ; 2801065.6340075834 ; 4021131.2960016527 ; 34272.00000000001
145 ; 15152.049915339718 ; 27924.52288890045 ; 2816476.563033892 ; 4049055.818890553 ; 34510.00000000001
146 ; 14903.834105792017 ; 27924.52288890045 ; 2831628.6129492316 ; 4076980.341779453 ; 34748.00000000001
147 ; 14843.095025876111 ; 27924.52288890045 ; 2846532.4470550236 ; 4104904.8646683535 ; 34986.00000000001
148 ; 14661.969276774424 ; 27924.52288890045 ; 2861375.5420808997 ; 4132829.3875572537 ; 35224.00000000001
149 ; 14724.115475820692 ; 27924.52288890045 ; 2876037.511357674 ; 4160753.910446154 ; 35462.00000000001
150 ; 14783.324512966974 ; 27924.52288890045 ; 2890761.6268334948 ; 4188678.433335054 ; 35700.00000000001
151 ; 14734.009851221974 ; 27924.52288890045 ; 2905544.9513464617 ; 4216602.956223954 ; 35938.00000000001
152 ; 14317.898200205234 ; 27924.52288890045 ; 2920278.9611976836 ; 4244527.479112855 ; 36176.00000000001
153 ; 14457.692727443622 ; 27924.52288890045 ; 2934596.8593978886 ; 4272452.002001756 ; 36414.00000000001
154 ; 14428.797731358141 ; 27924.52288890045 ; 2949054.5521253324 ; 4300376.524890657 ; 36652.00000000001
155 ; 14269.304701992347 ; 27924.52288890045 ; 2963483.3498566905 ; 4328301.047779557 ; 36890.00000000001
156 ; 14167.055299110827 ; 27924.52288890045 ; 2977752.654558683 ; 4356225.570668458 ; 37128.00000000001
157 ; 14193.808284189632 ; 27924.52288890045 ; 2991919.7098577935 ; 4384150.093557359 ; 37366.00000000001
158 ; 14105.275710117709 ; 27924.52288890045 ; 3006113.518141983 ; 4412074.616446259 ; 37604.00000000001
159 ; 13956.022059561596 ; 27924.52288890045 ; 3020218.7938521006 ; 4439999.13933516 ; 37842.00000000001
160 ; 13786.73844535213 ; 27924.52288890045 ; 3034174.8159116623 ; 4467923.662224061 ; 38080.00000000001
161 ; 13807.63414931525 ; 27924.52288890045 ; 3047961.5543570146 ; 4495848.185112962 ; 38318.00000000001
162 ; 13656.8215486099 ; 27924.52288890045 ; 3061769.18850633 ; 4523772.708001862 ; 38556.00000000001
163 ; 13635.949273484592 ; 27924.52288890045 ; 3075426.01005494 ; 4551697.230890763 ; 38794.00000000001
164 ; 13440.44448953843 ; 27924.52288890045 ; 3089061.9593284247 ; 4579621.753779664 ; 39032.00000000001
165 ; 13316.655260435184 ; 27924.52288890045 ; 3102502.403817963 ; 4607546.276668564 ; 39270.00000000001
166 ; 13153.984249853016 ; 27924.52288890045 ; 3115819.059078398 ; 4635470.799557465 ; 39508.00000000001
167 ; 13119.838774595934 ; 27924.52288890045 ; 3128973.043328251 ; 4663395.322446366 ; 39746.00000000001
168 ; 13319.147755898803 ; 27924.52288890045 ; 3142092.882102847 ; 4691319.845335267 ; 39984.00000000001
169 ; 12991.929349209193 ; 27924.52288890045 ; 3155412.029858746 ; 4719244.368224167 ; 40222.00000000001
170 ; 12924.427368130951 ; 27924.52288890045 ; 3168403.9592079553 ; 4747168.891113068 ; 40460.00000000001
171 ; 12770.300211532376 ; 27924.52288890045 ; 3181328.3865760863 ; 4775093.414001969 ; 40698.00000000001
172 ; 12647.86946884371 ; 27924.52288890045 ; 3194098.686787619 ; 4803017.936890869 ; 40936.00000000001
173 ; 12555.37410337396 ; 27924.52288890045 ; 3206746.5562564624 ; 4830942.45977977 ; 41174.00000000001
174 ; 12436.400329411621 ; 27924.52288890045 ; 3219301.930359836 ; 4858866.982668671 ; 41412.00000000001
175 ; 12648.34372102241 ; 27924.52288890045 ; 3231738.3306892477 ; 4886791.505557572 ; 41650.00000000001
176 ; 12644.43414960823 ; 27924.52288890045 ; 3244386.67441027 ; 4914716.028446472 ; 41888.00000000001
177 ; 12697.350674151943 ; 27924.52288890045 ; 3257031.108559878 ; 4942640.551335373 ; 42126.00000000001
178 ; 12759.310031663204 ; 27924.52288890045 ; 3269728.45923403 ; 4970565.074224274 ; 42364.00000000001
179 ; 12532.053484784914 ; 27924.52288890045 ; 3282487.769265693 ; 4998489.597113174 ; 42602.00000000001
180 ; 12701.346755269748 ; 27924.52288890045 ; 3295019.822750478 ; 5026414.120002075 ; 42840.00000000001
181 ; 12830.08660766289 ; 27924.52288890045 ; 3307721.169505748 ; 5054338.642890976 ; 43078.00000000001
182 ; 12761.721321207455 ; 27924.52288890045 ; 3320551.256113411 ; 5082263.1657798765 ; 43316.00000000001
183 ; 12649.329389838269 ; 27924.52288890045 ; 3333312.9774346184 ; 5110187.688668777 ; 43554.00000000001
184 ; 12659.161417814881 ; 27924.52288890045 ; 3345962.306824457 ; 5138112.211557678 ; 43792.00000000001
185 ; 12771.362769884723 ; 27924.52288890045 ; 3358621.468242272 ; 5166036.734446579 ; 44030.00000000001
186 ; 12572.683136173047 ; 27924.52288890045 ; 3371392.8310121563 ; 5193961.257335479 ; 44268.00000000001
