CSV File for the City 3 on Day 219
1 - Minute m 
2 - Power Consumed at minute m 
3 - Power Produced at minute m 
4 - Energy Consumed since the beginning of the day 
5 - Energy Produced since the beginning of the day 
6 - Energy Lost since the beginning of the day on lines starting from the city
 
0 ; 3963.252678397352 ; 30125.732473803568 ; 0.0 ; 0.0 ; 0.0
1 ; 4463.711937191606 ; 29471.410836414914 ; 3963.252678397352 ; 30125.732473803568 ; 0.0
2 ; 4810.093289683663 ; 28873.260837338814 ; 8426.964615588959 ; 59597.14331021848 ; 0.0
3 ; 5324.98886465501 ; 28334.886956606748 ; 13237.05790527262 ; 88470.4041475573 ; 0.0
4 ; 5936.595657300262 ; 27859.796922594458 ; 18562.04676992763 ; 116805.29110416405 ; 0.0
5 ; 6297.102564793777 ; 27451.31366028238 ; 24498.642427227893 ; 144665.08802675852 ; 0.0
6 ; 6732.48622987865 ; 27112.479612893814 ; 30795.744992021668 ; 172116.4016870409 ; 0.0
7 ; 7163.675938825681 ; 26845.95835055082 ; 37528.23122190032 ; 199228.8812999347 ; 0.0
8 ; 7672.198264593041 ; 26653.93974348297 ; 44691.907160726005 ; 226074.83965048552 ; 0.0
9 ; 8142.2684786229875 ; 26538.055794568034 ; 52364.105425319045 ; 252728.7793939685 ; 0.0
10 ; 8661.55476566023 ; 26499.314211855413 ; 60506.37390394203 ; 279266.83518853656 ; 0.0
11 ; 8945.012938718935 ; 26538.055794568034 ; 69167.92866960226 ; 305766.14940039197 ; 0.0
12 ; 9400.044668158747 ; 26653.93974348297 ; 78112.9416083212 ; 332304.20519496 ; 0.0
13 ; 9872.45263463545 ; 26845.95835055082 ; 87512.98627647995 ; 358958.144938443 ; 0.0
14 ; 10325.392805121277 ; 27112.479612893814 ; 97385.4389111154 ; 385804.1032889938 ; 0.0
15 ; 10684.094379070324 ; 27451.31366028238 ; 107710.83171623667 ; 412916.58290188765 ; 0.0
16 ; 10987.432365162342 ; 27859.796922594458 ; 118394.92609530699 ; 440367.89656217 ; 0.0
17 ; 11635.141901125295 ; 28334.88695660659 ; 129382.35846046933 ; 468227.6934847645 ; 0.0
18 ; 11890.736013951851 ; 28873.26083733897 ; 141017.50036159463 ; 496562.5804413711 ; 0.0
19 ; 12277.759257590957 ; 29471.410836414914 ; 152908.2363755465 ; 525435.84127871 ; 0.0
20 ; 12615.730012902366 ; 30125.732473803713 ; 165185.99563313744 ; 554907.252115125 ; 0.0
21 ; 13000.186249420125 ; 30832.60162378077 ; 177801.72564603982 ; 585032.9845889286 ; 0.0
22 ; 13260.882681867917 ; 31588.438908470976 ; 190801.91189545995 ; 615865.5862127094 ; 0.0
23 ; 13696.095047719167 ; 32389.760935864404 ; 204062.79457732788 ; 647454.0251211805 ; 0.0
24 ; 14128.630214765644 ; 33233.21894015415 ; 217758.88962504704 ; 679843.7860570449 ; 0.0
25 ; 14464.706666019572 ; 34115.626045338875 ; 231887.51983981268 ; 713077.004997199 ; 0.0
26 ; 14755.752335495185 ; 35033.97473524779 ; 246352.22650583225 ; 747192.631042538 ; 0.0
27 ; 15130.907635895936 ; 35985.44623795486 ; 261107.97884132742 ; 782226.6057777858 ; 0.0
28 ; 15430.974747693228 ; 36967.41348955212 ; 276238.88647722336 ; 818212.0520157407 ; 0.0
29 ; 15920.287587198696 ; 37977.43919459432 ; 291669.8612249166 ; 855179.4655052928 ; 0.0
30 ; 16162.426162244326 ; 39013.27029869084 ; 307590.1488121153 ; 893156.904699887 ; 0.0
31 ; 16482.008147962562 ; 40072.82996923098 ; 323752.57497435965 ; 932170.1749985779 ; 0.0
32 ; 16845.790017283358 ; 41154.2079669645 ; 340234.5831223222 ; 972243.004967809 ; 0.0
33 ; 17109.246807791722 ; 42255.65009790836 ; 357080.37313960557 ; 1013397.2129347734 ; 0.0
34 ; 17380.20828756699 ; 43375.547268323964 ; 374189.61994739727 ; 1055652.8630326819 ; 0.0
35 ; 17724.232385447 ; 44512.42452690123 ; 391569.8282349643 ; 1099028.410301006 ; 0.0
36 ; 17872.346435909087 ; 45664.930366487984 ; 409294.0606204113 ; 1143540.8348279072 ; 0.0
37 ; 18101.128311985703 ; 46831.82646982235 ; 427166.4070563204 ; 1189205.765194395 ; 0.0
38 ; 18496.087594140503 ; 48011.97801625293 ; 445267.5353683061 ; 1236037.5916642174 ; 0.0
39 ; 18769.565061141064 ; 49204.344615789596 ; 463763.6229624466 ; 1284049.5696804703 ; 0.0
40 ; 19023.84891054581 ; 50407.971899711665 ; 482533.18802358763 ; 1333253.9142962599 ; 0.0
41 ; 19118.798102058936 ; 51621.98377047341 ; 501557.03693413344 ; 1383661.8861959716 ; 0.0
42 ; 19411.910034700275 ; 52845.57529535252 ; 520675.8350361924 ; 1435283.869966445 ; 0.0
43 ; 19710.340849781984 ; 54078.00621620182 ; 540087.7450708926 ; 1488129.4452617976 ; 0.0
44 ; 19938.66335945395 ; 55318.59504018744 ; 559798.0859206746 ; 1542207.4514779996 ; 0.0
45 ; 20170.767825808864 ; 56566.713672306476 ; 579736.7492801285 ; 1597526.046518187 ; 0.0
46 ; 20268.231716504797 ; 57821.78254878355 ; 599907.5171059374 ; 1654092.7601904934 ; 0.0
47 ; 20689.740053115922 ; 59083.26623045118 ; 620175.7488224421 ; 1711914.542739277 ; 0.0
48 ; 20837.64215037904 ; 60350.66941635112 ; 640865.488875558 ; 1770997.8089697282 ; 0.0
49 ; 21090.97930997216 ; 61623.53333966517 ; 661703.131025937 ; 1831348.4783860792 ; 0.0
50 ; 21259.39132722107 ; 62901.43251039245 ; 682794.1103359092 ; 1892972.0117257445 ; 0.0
51 ; 21463.429694903254 ; 64183.97177172262 ; 704053.5016631302 ; 1955873.444236137 ; 0.0
52 ; 21626.493892885326 ; 65470.7836396732 ; 725516.9313580334 ; 2020057.4160078596 ; 0.0
53 ; 21682.337469775215 ; 66761.5258981476 ; 747143.4252509187 ; 2085528.1996475328 ; 0.0
54 ; 22052.704124038934 ; 68055.87942407426 ; 768825.762720694 ; 2152289.72554568 ; 0.0
55 ; 22017.45720793859 ; 69353.54621965779 ; 790878.4668447329 ; 2220345.6049697543 ; 0.0
56 ; 22166.261453259718 ; 70654.2476309868 ; 812895.9240526714 ; 2289699.151189412 ; 0.0
57 ; 22577.849822419696 ; 71957.72273429147 ; 835062.1855059311 ; 2360353.398820399 ; 0.0
58 ; 22547.893463725406 ; 73263.72687301875 ; 857640.0353283508 ; 2432311.1215546904 ; 0.0
59 ; 22887.094658120983 ; 74572.03033060739 ; 880187.9287920763 ; 2505574.848427709 ; 0.0
60 ; 23003.194933586583 ; 75882.417125392 ; 903075.0234501973 ; 2580146.8787583164 ; 0.0
61 ; 23235.52850599464 ; 77194.6839154693 ; 926078.2183837839 ; 2656029.2958837086 ; 0.0
62 ; 23089.335856173722 ; 78508.63900261927 ; 949313.7468897785 ; 2733223.979799178 ; 0.0
63 ; 23337.77201026026 ; 79824.10142550798 ; 972403.0827459523 ; 2811732.6188017973 ; 0.0
64 ; 23390.96691886939 ; 81140.90013341441 ; 995740.8547562126 ; 2891556.7202273053 ; 0.0
65 ; 23606.992209162545 ; 82458.87323263378 ; 1019131.821675082 ; 2972697.6203607195 ; 0.0
66 ; 23547.770859029002 ; 83777.86729852253 ; 1042738.8138842445 ; 3055156.4935933533 ; 0.0
67 ; 23684.85274869973 ; 85097.73674687836 ; 1066286.5847432734 ; 3138934.360891876 ; 0.0
68 ; 23837.495907053308 ; 86418.34325899804 ; 1089971.4374919732 ; 3224032.097638754 ; 0.0
69 ; 23819.731519982877 ; 87739.55525533465 ; 1113808.9333990265 ; 3310450.440897752 ; 0.0
70 ; 23918.49813892405 ; 89061.24741319656 ; 1137628.6649190094 ; 3398189.996153087 ; 0.0
71 ; 24013.300162051644 ; 90383.30022438939 ; 1161547.1630579336 ; 3487251.2435662835 ; 0.0
72 ; 24225.12026591691 ; 91705.59958911895 ; 1185560.4632199851 ; 3577634.543790673 ; 0.0
73 ; 24279.137331551025 ; 93028.03644283992 ; 1209785.583485902 ; 3669340.1433797916 ; 0.0
74 ; 24179.441629267036 ; 94350.50641306545 ; 1234064.720817453 ; 3762368.1798226316 ; 0.0
75 ; 24360.811759613378 ; 95672.90950344816 ; 1258244.16244672 ; 3856718.686235697 ; 0.0
76 ; 24413.274057987855 ; 96995.14980270708 ; 1282604.9742063335 ; 3952391.5957391453 ; 0.0
77 ; 24328.486625863006 ; 98317.13521620962 ; 1307018.2482643214 ; 4049386.7455418524 ; 0.0
78 ; 24452.94852913199 ; 99638.77721823238 ; 1331346.7348901844 ; 4147703.880758062 ; 0.0
79 ; 24422.550431163818 ; 100959.99062310987 ; 1355799.6834193163 ; 4247342.657976294 ; 0.0
80 ; 24432.21813703437 ; 102280.69337365466 ; 1380222.23385048 ; 4348302.648599404 ; 0.0
81 ; 24509.21816929601 ; 103600.80634538186 ; 1404654.4519875145 ; 4450583.341973059 ; 0.0
82 ; 24541.28786063418 ; 104920.25316520965 ; 1429163.6701568104 ; 4554184.148318441 ; 0.0
83 ; 24540.16768359644 ; 106238.96004342979 ; 1453704.9580174447 ; 4659104.40148365 ; 0.0
84 ; 24421.165407354893 ; 107556.85561785397 ; 1478245.1257010412 ; 4765343.36152708 ; 0.0
85 ; 24448.703488048373 ; 108873.87080914078 ; 1502666.2911083961 ; 4872900.2171449335 ; 0.0
86 ; 24362.598991406336 ; 110189.93868639777 ; 1527114.9945964445 ; 4981774.087954074 ; 0.0
87 ; 24435.44830991191 ; 111504.99434223612 ; 1551477.593587851 ; 5091964.026640472 ; 0.0
88 ; 24370.271786399535 ; 112818.97477652506 ; 1575913.0418977628 ; 5203469.020982708 ; 0.0
89 ; 24409.575776446396 ; 114131.81878816405 ; 1600283.3136841622 ; 5316287.995759233 ; 0.0
90 ; 24301.135012751485 ; 115443.46687424537 ; 1624692.8894606086 ; 5430419.814547397 ; 0.0
91 ; 24327.67294653359 ; 116753.86113603807 ; 1648994.02447336 ; 5545863.281421643 ; 0.0
92 ; 23983.70125797387 ; 118062.94519127121 ; 1673321.6974198937 ; 5662617.142557681 ; 0.0
93 ; 23965.05620214183 ; 119370.66409223813 ; 1697305.3986778676 ; 5780680.087748952 ; 0.0
94 ; 23849.109700882018 ; 120676.96424928565 ; 1721270.4548800094 ; 5900050.75184119 ; 0.0
95 ; 23988.35293889075 ; 121981.79335928702 ; 1745119.5645808915 ; 6020727.716090476 ; 0.0
96 ; 23755.15379361984 ; 123285.10033873176 ; 1769107.9175197822 ; 6142709.509449763 ; 0.0
97 ; 23702.216489826602 ; 124586.83526109399 ; 1792863.0713134021 ; 6265994.609788495 ; 0.0
98 ; 23713.742477623255 ; 125886.94929817115 ; 1816565.2878032287 ; 6390581.4450495895 ; 0.0
99 ; 23615.200382824492 ; 127185.39466510685 ; 1840279.030280852 ; 6516468.394347761 ; 0.0
100 ; 23407.10082547984 ; 128482.12456883694 ; 1863894.2306636765 ; 6643653.789012868 ; 0.0
101 ; 23392.672162844246 ; 129777.09315971697 ; 1887301.3314891565 ; 6772135.913581705 ; 0.0
102 ; 23203.747483759555 ; 131070.25548610942 ; 1910694.0036520008 ; 6901913.006741421 ; 0.0
103 ; 23218.314648326836 ; 132361.5674517252 ; 1933897.7511357605 ; 7032983.262227531 ; 0.0
104 ; 22965.577885514565 ; 133650.98577553095 ; 1957116.0657840874 ; 7165344.829679255 ; 0.0
105 ; 22784.752770541305 ; 134938.46795404758 ; 1980081.643669602 ; 7298995.815454787 ; 0.0
106 ; 22738.581068133622 ; 136223.97222587853 ; 2002866.3964401432 ; 7433934.283408835 ; 0.0
107 ; 22602.316651895977 ; 137507.45753831908 ; 2025604.977508277 ; 7570158.255634713 ; 0.0
108 ; 22350.47572850169 ; 138788.8835159082 ; 2048207.2941601728 ; 7707665.713173032 ; 0.0
109 ; 22297.46921868171 ; 140068.21043079635 ; 2070557.7698886746 ; 7846454.59668894 ; 0.0
110 ; 22007.74236782479 ; 141345.39917480928 ; 2092855.2391073564 ; 7986522.807119736 ; 0.0
111 ; 21825.117058428958 ; 142620.4112331004 ; 2114862.9814751814 ; 8127868.206294546 ; 0.0
112 ; 21695.318691339355 ; 143893.20865928775 ; 2136688.0985336103 ; 8270488.617527646 ; 0.0
113 ; 21613.978230580833 ; 145163.7540519827 ; 2158383.4172249497 ; 8414381.826186934 ; 0.0
114 ; 21395.598621604797 ; 146432.01053262214 ; 2179997.3954555304 ; 8559545.580238918 ; 0.0
115 ; 21072.57702966772 ; 147697.94172452274 ; 2201392.9940771353 ; 8705977.59077154 ; 0.0
116 ; 21092.33785347537 ; 148961.51173308145 ; 2222465.571106803 ; 8853675.532496061 ; 0.0
117 ; 20627.884928442847 ; 150222.6851270521 ; 2243557.9089602786 ; 9002637.044229142 ; 0.0
118 ; 20540.84190282154 ; 151481.4269208317 ; 2264185.7938887216 ; 9152859.729356194 ; 0.0
119 ; 20256.842947436646 ; 152737.70255769623 ; 2284726.635791543 ; 9304341.156277025 ; 0.0
120 ; 20096.64071800762 ; 153991.4778939283 ; 2304983.4787389794 ; 9457078.858834721 ; 0.0
121 ; 19982.456644632115 ; 155242.71918378366 ; 2325080.119456987 ; 9611070.33672865 ; 0.0
122 ; 19533.485813893705 ; 156491.39306524716 ; 2345062.576101619 ; 9766313.055912433 ; 0.0
123 ; 19260.670572017018 ; 157737.4665465317 ; 2364596.0619155127 ; 9922804.44897768 ; 0.0
124 ; 19342.761107332713 ; 158980.90699327688 ; 2383856.7324875295 ; 1.0080541915524213E7 ; 0.0
125 ; 18764.751025143854 ; 160221.68211640703 ; 2403199.493594862 ; 1.023952282251749E7 ; 0.0
126 ; 18506.759981598163 ; 161459.75996061094 ; 2421964.244620006 ; 1.0399744504633898E7 ; 0.0
127 ; 18375.972359349114 ; 162695.10889340745 ; 2440471.0046016043 ; 1.0561204264594508E7 ; 0.0
128 ; 18101.712969328317 ; 163927.6975947644 ; 2458846.9769609533 ; 1.0723899373487916E7 ; 0.0
129 ; 17711.1086571617 ; 165157.4950472397 ; 2476948.6899302816 ; 1.088782707108268E7 ; 0.0
130 ; 17412.71817789709 ; 166384.47052661498 ; 2494659.7985874433 ; 1.105298456612992E7 ; 0.0
131 ; 17048.021381686474 ; 167608.5935929957 ; 2512072.51676534 ; 1.1219369036656534E7 ; 0.0
132 ; 16747.103011619056 ; 168829.83408235072 ; 2529120.5381470267 ; 1.138697763024953E7 ; 0.0
133 ; 16575.35892926307 ; 170048.162098469 ; 2545867.6411586455 ; 1.155580746433188E7 ; 0.0
134 ; 16266.179276088196 ; 171263.54800530922 ; 2562443.0000879085 ; 1.172585562643035E7 ; 0.0
135 ; 15825.628028970108 ; 172475.9624197227 ; 2578709.1793639967 ; 1.1897119174435658E7 ; 0.0
136 ; 15648.728500965513 ; 173685.3762045286 ; 2594534.807392967 ; 1.206959513685538E7 ; 0.0
137 ; 15001.021826264803 ; 174891.76046192355 ; 2610183.5358939325 ; 1.2243280513059909E7 ; 0.0
138 ; 14843.070963389748 ; 176095.08652720752 ; 2625184.5577201974 ; 1.2418172273521831E7 ; 0.0
139 ; 14540.819719775636 ; 177295.32596280993 ; 2640027.628683587 ; 1.259426736004904E7 ; 0.0
140 ; 14085.233681362994 ; 178492.45055260003 ; 2654568.4484033627 ; 1.2771562686011849E7 ; 0.0
141 ; 13876.625170087853 ; 179686.43229646713 ; 2668653.6820847257 ; 1.2950055136564448E7 ; 0.0
142 ; 13441.805758759323 ; 180877.24340515674 ; 2682530.3072548136 ; 1.3129741568860916E7 ; 0.0
143 ; 13107.975345274303 ; 182064.85629534983 ; 2695972.113013573 ; 1.3310618812266072E7 ; 0.0
144 ; 12784.742776676656 ; 183249.24358497263 ; 2709080.0883588474 ; 1.3492683668561421E7 ; 0.0
145 ; 12596.741598851237 ; 184430.37808872559 ; 2721864.831135524 ; 1.3675932912146393E7 ; 0.0
146 ; 12542.49260333916 ; 185608.23281382056 ; 2734461.572734375 ; 1.3860363290235119E7 ; 0.0
147 ; 12493.80681959805 ; 186782.78095591575 ; 2747004.0653377143 ; 1.404597152304894E7 ; 0.0
148 ; 12253.629334766758 ; 187953.99589523915 ; 2759497.8721573125 ; 1.4232754304004855E7 ; 0.0
149 ; 12160.580410867884 ; 189121.85119289052 ; 2771751.5014920793 ; 1.4420708299900094E7 ; 0.0
150 ; 12186.496252309766 ; 190286.32058731368 ; 2783912.0819029473 ; 1.4609830151092984E7 ; 0.0
151 ; 11940.586282245442 ; 191447.37799093107 ; 2796098.5781552573 ; 1.4800116471680297E7 ; 0.0
152 ; 11880.101773908355 ; 192604.99748693232 ; 2808039.1644375026 ; 1.4991563849671228E7 ; 0.0
153 ; 11806.345606987488 ; 193759.15332620966 ; 2819919.266211411 ; 1.518416884715816E7 ; 0.0
154 ; 11612.300875424395 ; 194909.81992443342 ; 2831725.6118183983 ; 1.537792800048437E7 ; 0.0
155 ; 11560.628589266624 ; 196056.97185926067 ; 2843337.9126938228 ; 1.5572837820408802E7 ; 0.0
156 ; 11257.363040087548 ; 197200.58386767117 ; 2854898.541283089 ; 1.5768894792268064E7 ; 0.0
157 ; 11236.922096659306 ; 198340.63084342386 ; 2866155.904323177 ; 1.5966095376135735E7 ; 0.0
158 ; 11061.059739857741 ; 199477.0878346296 ; 2877392.8264198364 ; 1.6164436006979158E7 ; 0.0
159 ; 10947.524206437729 ; 200609.93004143363 ; 2888453.8861596943 ; 1.6363913094813788E7 ; 0.0
160 ; 10815.16067271577 ; 201739.1328138033 ; 2899401.410366132 ; 1.6564523024855223E7 ; 0.0
161 ; 10756.691597569095 ; 202864.6716494161 ; 2910216.571038848 ; 1.6766262157669026E7 ; 0.0
162 ; 10639.181939931354 ; 203986.52219164342 ; 2920973.262636417 ; 1.696912682931844E7 ; 0.0
163 ; 10525.555625685265 ; 205104.66022762615 ; 2931612.444576348 ; 1.7173113351510085E7 ; 0.0
164 ; 10335.724284743766 ; 206219.0616864369 ; 2942138.0002020337 ; 1.737821801173771E7 ; 0.0
165 ; 10232.870550811876 ; 207329.70263732664 ; 2952473.7244867776 ; 1.758443707342415E7 ; 0.0
166 ; 10080.749303900593 ; 208436.5592880501 ; 2962706.5950375893 ; 1.7791766776061475E7 ; 0.0
167 ; 9917.469619684618 ; 209539.60798326842 ; 2972787.34434149 ; 1.8000203335349526E7 ; 0.0
168 ; 9889.500673485285 ; 210638.82520302365 ; 2982704.8139611743 ; 1.8209742943332795E7 ; 0.0
169 ; 9607.433702660142 ; 211734.18756128394 ; 2992594.31463466 ; 1.842038176853582E7 ; 0.0
170 ; 9371.849637392888 ; 212825.6718045543 ; 3002201.74833732 ; 1.8632115956097104E7 ; 0.0
171 ; 9287.289982393208 ; 213913.25481055246 ; 3011573.597974713 ; 1.884494162790166E7 ; 0.0
172 ; 9067.752363919435 ; 214996.91358694452 ; 3020860.8879571063 ; 1.905885488271221E7 ; 0.0
173 ; 8812.760101677852 ; 216076.62527013954 ; 3029928.6403210256 ; 1.9273851796299156E7 ; 0.0
174 ; 9044.343293131198 ; 217152.3671241403 ; 3038741.4004227035 ; 1.9489928421569295E7 ; 0.0
175 ; 9024.303023688784 ; 218224.1165394469 ; 3047785.743715835 ; 1.9707080788693435E7 ; 0.0
176 ; 8932.50467061699 ; 219291.85103201238 ; 3056810.0467395238 ; 1.9925304905232884E7 ; 0.0
177 ; 9066.653805026228 ; 220355.54824224664 ; 3065742.551410141 ; 2.0144596756264895E7 ; 0.0
178 ; 9084.743275996005 ; 221415.1859340682 ; 3074809.2052151673 ; 2.036495230450714E7 ; 0.0
179 ; 9204.966984136143 ; 222470.74199400042 ; 3083893.948491163 ; 2.0586367490441207E7 ; 0.0
180 ; 9252.192402962806 ; 223522.1944303111 ; 3093098.915475299 ; 2.0808838232435208E7 ; 0.0
181 ; 9187.508969614639 ; 224569.5213721937 ; 3102351.1078782617 ; 2.1032360426865518E7 ; 0.0
182 ; 9326.381690969765 ; 225612.70106898778 ; 3111538.6168478765 ; 2.1256929948237713E7 ; 0.0
183 ; 9194.222127619101 ; 226651.71188943784 ; 3120864.998538846 ; 2.14825426493067E7 ; 0.0
184 ; 9169.023722727 ; 227686.53232098845 ; 3130059.2206664653 ; 2.1709194361196138E7 ; 0.0
185 ; 9400.379142158048 ; 228717.14096911484 ; 3139228.244389192 ; 2.1936880893517125E7 ; 0.0
186 ; 9418.015333296094 ; 229743.5165566861 ; 3148628.6235313504 ; 2.216559803448624E7 ; 0.0
187 ; 9362.468989498064 ; 230765.63792336162 ; 3158046.6388646467 ; 2.239534155104293E7 ; 0.0
188 ; 9444.585004807032 ; 231783.4840250176 ; 3167409.1078541446 ; 2.262610718896629E7 ; 0.0
189 ; 9493.9684859974 ; 232797.03393320373 ; 3176853.6928589516 ; 2.2857890672991306E7 ; 0.0
190 ; 9534.72331166676 ; 233806.26683462827 ; 3186347.661344949 ; 2.309068770692451E7 ; 0.0
191 ; 9616.884824120807 ; 234811.16203066995 ; 3195882.384656616 ; 2.3324493973759137E7 ; 0.0
192 ; 9589.826047019013 ; 235811.698936917 ; 3205499.269480737 ; 2.3559305135789808E7 ; 0.0
193 ; 9652.103611064262 ; 236807.8570827301 ; 3215089.095527756 ; 2.3795116834726725E7 ; 0.0
194 ; 9695.832760165382 ; 237799.61611083063 ; 3224741.19913882 ; 2.4031924691809453E7 ; 0.0
195 ; 9769.267523831153 ; 238786.95577691172 ; 3234437.0318989856 ; 2.4269724307920285E7 ; 0.0
196 ; 9687.92846142845 ; 239769.85594927115 ; 3244206.299422817 ; 2.4508511263697196E7 ; 0.0
197 ; 9788.163604869482 ; 240748.29660846628 ; 3253894.227884245 ; 2.4748281119646467E7 ; 0.0
198 ; 9652.350477575506 ; 241722.25784698923 ; 3263682.3914891146 ; 2.4989029416254934E7 ; 0.0
199 ; 9577.028215251366 ; 242691.71986896175 ; 3273334.74196669 ; 2.5230751674101923E7 ; 0.0
200 ; 9864.459172910318 ; 243656.66298984925 ; 3282911.7701819413 ; 2.5473443393970884E7 ; 0.0
201 ; 9798.854099681197 ; 244617.0676361927 ; 3292776.229354852 ; 2.5717100056960735E7 ; 0.0
202 ; 9908.488959725213 ; 245572.9143453585 ; 3302575.083454533 ; 2.5961717124596927E7 ; 0.0
203 ; 9840.598018495713 ; 246524.18376530462 ; 3312483.572414258 ; 2.6207290038942285E7 ; 0.0
204 ; 9957.0307009802 ; 247470.85665436334 ; 3322324.170432754 ; 2.645381422270759E7 ; 0.0
205 ; 9963.551257834464 ; 248412.91388103928 ; 3332281.201133734 ; 2.6701285079361953E7 ; 0.0
206 ; 10040.631297086768 ; 249350.33642382227 ; 3342244.7523915684 ; 2.6949697993242994E7 ; 0.0
207 ; 9966.250858653644 ; 250283.1053710147 ; 3352285.383688655 ; 2.7199048329666816E7 ; 0.0
208 ; 10185.70335207279 ; 251211.2019205726 ; 3362251.634547309 ; 2.744933143503783E7 ; 0.0
209 ; 9943.912057395995 ; 252134.6073799597 ; 3372437.3378993818 ; 2.77005426369584E7 ; 0.0
210 ; 10038.423444897266 ; 253053.3031660146 ; 3382381.249956778 ; 2.795267724433836E7 ; 0.0
211 ; 10174.956173213395 ; 253967.27080482995 ; 3392419.673401675 ; 2.8205730547504373E7 ; 0.0
212 ; 10135.654080203914 ; 254876.49193164284 ; 3402594.6295748884 ; 2.8459697818309203E7 ; 0.0
213 ; 10213.805594581649 ; 255780.94829073752 ; 3412730.283655092 ; 2.8714574310240846E7 ; 0.0
