CSV File for the City 1 on Day 261
1 - Minute m 
2 - Power Consumed at minute m 
3 - Power Produced at minute m 
4 - Energy Consumed since the beginning of the day 
5 - Energy Produced since the beginning of the day 
6 - Energy Lost since the beginning of the day on lines starting from the city
 
0 ; 7004.024426193384 ; 2925.396329409912 ; 0.0 ; 0.0 ; 0.0
1 ; 7483.3073985741585 ; 2925.396329409912 ; 7004.024426193384 ; 2925.396329409912 ; 238.00000000000003
2 ; 8008.797362894323 ; 2925.396329409912 ; 14487.331824767542 ; 5850.792658819824 ; 476.00000000000006
3 ; 8428.208683283498 ; 2925.396329409912 ; 22496.129187661863 ; 8776.188988229736 ; 714.0000000000001
4 ; 8972.545139602267 ; 2925.396329409912 ; 30924.33787094536 ; 11701.585317639649 ; 952.0000000000001
5 ; 9904.630797353084 ; 2925.396329409912 ; 39896.88301054763 ; 14626.98164704956 ; 1190.0000000000002
6 ; 10200.148754453045 ; 2925.396329409912 ; 49801.513807900716 ; 17552.377976459473 ; 1428.0000000000002
7 ; 10605.17405662276 ; 2925.396329409912 ; 60001.66256235376 ; 20477.774305869385 ; 1666.0000000000002
8 ; 11133.331738618812 ; 2925.396329409912 ; 70606.83661897652 ; 23403.170635279297 ; 1904.0000000000002
9 ; 11686.749496503126 ; 2925.396329409912 ; 81740.16835759534 ; 26328.56696468921 ; 2142.0000000000005
10 ; 12090.559256435616 ; 2925.396329409912 ; 93426.91785409846 ; 29253.96329409912 ; 2380.0000000000005
11 ; 12533.57617386248 ; 2925.396329409912 ; 105517.47711053408 ; 32179.359623509034 ; 2618.0000000000005
12 ; 13196.360854119284 ; 2925.396329409912 ; 118051.05328439656 ; 35104.755952918946 ; 2856.0000000000005
13 ; 13597.01634521988 ; 2925.396329409912 ; 131247.41413851586 ; 38030.152282328854 ; 3094.0000000000005
14 ; 13893.109300221146 ; 2925.396329409912 ; 144844.43048373575 ; 40955.54861173876 ; 3332.0000000000005
15 ; 14427.512187555212 ; 2925.396329409912 ; 158737.5397839569 ; 43880.94494114867 ; 3570.0000000000005
16 ; 14997.64827466005 ; 2925.396329409912 ; 173165.0519715121 ; 46806.34127055858 ; 3808.0000000000005
17 ; 15325.623136259697 ; 2925.396329409912 ; 188162.70024617214 ; 49731.73759996849 ; 4046.0000000000005
18 ; 15555.10896179488 ; 2925.396329409912 ; 203488.32338243184 ; 52657.1339293784 ; 4284.000000000001
19 ; 16102.499992971034 ; 2925.396329409912 ; 219043.43234422672 ; 55582.530258788305 ; 4522.000000000001
20 ; 16453.843788299833 ; 2925.396329409912 ; 235145.93233719777 ; 58507.926588198214 ; 4760.000000000001
21 ; 16913.10825810191 ; 2925.396329409912 ; 251599.7761254976 ; 61433.32291760812 ; 4998.000000000001
22 ; 17401.028955001497 ; 2925.396329409912 ; 268512.8843835995 ; 64358.71924701803 ; 5236.000000000001
23 ; 17679.75915335594 ; 2925.396329409912 ; 285913.913338601 ; 67284.11557642794 ; 5474.000000000001
24 ; 17910.388877153237 ; 2925.396329409912 ; 303593.67249195697 ; 70209.51190583785 ; 5712.000000000001
25 ; 18233.7475405592 ; 2925.396329409912 ; 321504.0613691102 ; 73134.90823524776 ; 5950.000000000001
26 ; 18807.256692056126 ; 2925.396329409912 ; 339737.8089096694 ; 76060.30456465766 ; 6188.000000000001
27 ; 18992.44934218156 ; 2925.396329409912 ; 358545.06560172554 ; 78985.70089406757 ; 6426.000000000001
28 ; 19656.235488311482 ; 2925.396329409912 ; 377537.5149439071 ; 81911.09722347748 ; 6664.000000000001
29 ; 19894.509557989775 ; 2925.396329409912 ; 397193.7504322186 ; 84836.49355288739 ; 6902.000000000001
30 ; 20199.334423955876 ; 2925.396329409912 ; 417088.2599902084 ; 87761.8898822973 ; 7140.000000000001
31 ; 20259.261332909733 ; 2925.396329409912 ; 437287.59441416425 ; 90687.2862117072 ; 7378.000000000001
32 ; 20945.239250111583 ; 2925.396329409912 ; 457546.855747074 ; 93612.68254111712 ; 7616.000000000001
33 ; 21358.35617346269 ; 2925.396329409912 ; 478492.0949971856 ; 96538.07887052702 ; 7854.000000000001
34 ; 21613.79607186926 ; 2925.396329409912 ; 499850.4511706483 ; 99463.47519993693 ; 8092.000000000001
35 ; 21836.44901710387 ; 2925.396329409912 ; 521464.24724251754 ; 102388.87152934684 ; 8330.000000000002
36 ; 22200.143145420658 ; 2925.396329409912 ; 543300.6962596214 ; 105314.26785875675 ; 8568.000000000002
37 ; 22578.456348323813 ; 2925.396329409912 ; 565500.8394050421 ; 108239.66418816666 ; 8806.000000000002
38 ; 22819.86522206118 ; 2925.396329409912 ; 588079.295753366 ; 111165.06051757657 ; 9044.000000000002
39 ; 22914.77168619006 ; 2925.396329409912 ; 610899.1609754271 ; 114090.45684698648 ; 9282.000000000002
40 ; 23357.052579517436 ; 2925.396329409912 ; 633813.9326616172 ; 117015.85317639638 ; 9520.000000000002
41 ; 23508.06561119117 ; 2925.396329409912 ; 657170.9852411347 ; 119941.24950580629 ; 9758.000000000002
42 ; 23720.58859779127 ; 2925.396329409912 ; 680679.0508523259 ; 122866.6458352162 ; 9996.000000000002
43 ; 23927.883932790843 ; 2925.396329409912 ; 704399.6394501171 ; 125792.04216462611 ; 10234.000000000002
44 ; 24345.022915357637 ; 2925.396329409912 ; 728327.523382908 ; 128717.43849403602 ; 10472.000000000002
45 ; 24734.80474812604 ; 2925.396329409912 ; 752672.5462982656 ; 131642.83482344594 ; 10710.000000000002
46 ; 24858.179228940804 ; 2925.396329409912 ; 777407.3510463916 ; 134568.23115285585 ; 10948.000000000002
47 ; 25056.96624655139 ; 2925.396329409912 ; 802265.5302753325 ; 137493.62748226576 ; 11186.000000000002
48 ; 25364.0969645692 ; 2925.396329409912 ; 827322.4965218839 ; 140419.02381167567 ; 11424.000000000002
49 ; 25634.803631971612 ; 2925.396329409912 ; 852686.593486453 ; 143344.42014108557 ; 11662.000000000002
50 ; 25670.926436128233 ; 2925.396329409912 ; 878321.3971184246 ; 146269.81647049548 ; 11900.000000000002
51 ; 25898.832529966527 ; 2925.396329409912 ; 903992.3235545529 ; 149195.2127999054 ; 12138.000000000002
52 ; 26206.97655099032 ; 2925.396329409912 ; 929891.1560845193 ; 152120.6091293153 ; 12376.000000000002
53 ; 26327.947109640834 ; 2925.396329409912 ; 956098.1326355097 ; 155046.0054587252 ; 12614.000000000002
54 ; 26525.678036846624 ; 2925.396329409912 ; 982426.0797451505 ; 157971.40178813512 ; 12852.000000000002
55 ; 26837.381285068685 ; 2925.396329409912 ; 1008951.7577819971 ; 160896.79811754503 ; 13090.000000000002
56 ; 26884.890779749065 ; 2925.396329409912 ; 1035789.1390670658 ; 163822.19444695493 ; 13328.000000000002
57 ; 27066.891511413858 ; 2925.396329409912 ; 1062674.029846815 ; 166747.59077636484 ; 13566.000000000002
58 ; 27062.91874365982 ; 2925.396329409912 ; 1089740.921358229 ; 169672.98710577475 ; 13804.000000000002
59 ; 27386.07551596723 ; 2925.396329409912 ; 1116803.8401018886 ; 172598.38343518466 ; 14042.000000000002
60 ; 27410.932729444114 ; 2925.396329409912 ; 1144189.915617856 ; 175523.77976459457 ; 14280.000000000002
61 ; 27747.16650589666 ; 2925.396329409912 ; 1171600.8483473 ; 178449.17609400448 ; 14518.000000000002
62 ; 27816.492199140816 ; 2925.396329409912 ; 1199348.0148531967 ; 181374.57242341439 ; 14756.000000000002
63 ; 28011.641881307194 ; 2925.396329409912 ; 1227164.5070523375 ; 184299.9687528243 ; 14994.000000000002
64 ; 28053.616902715858 ; 2925.396329409912 ; 1255176.1489336446 ; 187225.3650822342 ; 15232.000000000002
65 ; 27876.159137670078 ; 2925.396329409912 ; 1283229.7658363604 ; 190150.7614116441 ; 15470.000000000002
66 ; 28242.34681479848 ; 2925.396329409912 ; 1311105.9249740306 ; 193076.15774105402 ; 15708.000000000002
67 ; 28486.87292593723 ; 2925.396329409912 ; 1339348.271788829 ; 196001.55407046393 ; 15946.000000000002
68 ; 28389.747149672374 ; 2925.396329409912 ; 1367835.1447147662 ; 198926.95039987384 ; 16184.000000000002
69 ; 28585.88335940109 ; 2925.396329409912 ; 1396224.8918644385 ; 201852.34672928374 ; 16422.000000000004
70 ; 28733.51061837624 ; 2925.396329409912 ; 1424810.7752238396 ; 204777.74305869365 ; 16660.000000000004
71 ; 28732.796825713034 ; 2925.396329409912 ; 1453544.2858422159 ; 207703.13938810356 ; 16898.000000000004
72 ; 28836.671731264127 ; 2925.396329409912 ; 1482277.082667929 ; 210628.53571751347 ; 17136.000000000004
73 ; 28882.122506321604 ; 2925.396329409912 ; 1511113.754399193 ; 213553.93204692338 ; 17374.000000000004
74 ; 28941.312236077294 ; 2925.396329409912 ; 1539995.8769055146 ; 216479.3283763333 ; 17612.000000000004
75 ; 28894.04750687754 ; 2925.396329409912 ; 1568937.189141592 ; 219404.7247057432 ; 17850.000000000004
76 ; 28844.17984091301 ; 2925.396329409912 ; 1597831.2366484695 ; 222330.1210351531 ; 18088.000000000004
77 ; 28989.19464105403 ; 2925.396329409912 ; 1626675.4164893825 ; 225255.517364563 ; 18326.000000000004
78 ; 29123.386056729272 ; 2925.396329409912 ; 1655664.6111304366 ; 228180.91369397292 ; 18564.000000000004
79 ; 28918.523650621355 ; 2925.396329409912 ; 1684787.997187166 ; 231106.31002338283 ; 18802.000000000004
80 ; 29172.15877149966 ; 2925.396329409912 ; 1713706.5208377873 ; 234031.70635279274 ; 19040.000000000004
81 ; 29015.440079386037 ; 2925.396329409912 ; 1742878.679609287 ; 236957.10268220265 ; 19278.000000000004
82 ; 29115.209066794843 ; 2925.396329409912 ; 1771894.1196886732 ; 239882.49901161256 ; 19516.000000000004
83 ; 29165.36871199098 ; 2925.396329409912 ; 1801009.3287554681 ; 242807.89534102246 ; 19754.000000000004
84 ; 29012.684069086772 ; 2925.396329409912 ; 1830174.6974674591 ; 245733.29167043237 ; 19992.000000000004
85 ; 29121.56752920324 ; 2925.396329409912 ; 1859187.381536546 ; 248658.68799984228 ; 20230.000000000004
86 ; 29021.81315096132 ; 2925.396329409912 ; 1888308.949065749 ; 251584.0843292522 ; 20468.000000000004
87 ; 29135.93473461151 ; 2925.396329409912 ; 1917330.7622167105 ; 254509.4806586621 ; 20706.000000000004
88 ; 28932.95494025039 ; 2925.396329409912 ; 1946466.696951322 ; 257434.876988072 ; 20944.000000000004
89 ; 28962.22023924857 ; 2925.396329409912 ; 1975399.6518915724 ; 260360.27331748192 ; 21182.000000000004
90 ; 28949.90090227379 ; 2925.396329409912 ; 2004361.872130821 ; 263285.6696468918 ; 21420.000000000004
91 ; 28937.211493644558 ; 2925.396329409912 ; 2033311.7730330948 ; 266211.06597630173 ; 21658.000000000004
92 ; 28773.9154901934 ; 2925.396329409912 ; 2062248.9845267395 ; 269136.46230571164 ; 21896.000000000004
93 ; 28682.035548454827 ; 2925.396329409912 ; 2091022.9000169327 ; 272061.85863512155 ; 22134.000000000004
94 ; 28418.3644683484 ; 2925.396329409912 ; 2119704.9355653874 ; 274987.25496453146 ; 22372.000000000004
95 ; 28582.20845569458 ; 2925.396329409912 ; 2148123.3000337356 ; 277912.65129394137 ; 22610.000000000004
96 ; 28587.01741147919 ; 2925.396329409912 ; 2176705.50848943 ; 280838.0476233513 ; 22848.000000000004
97 ; 28420.071233092956 ; 2925.396329409912 ; 2205292.525900909 ; 283763.4439527612 ; 23086.000000000004
98 ; 28297.666366450198 ; 2925.396329409912 ; 2233712.597134002 ; 286688.8402821711 ; 23324.000000000004
99 ; 28115.47051500957 ; 2925.396329409912 ; 2262010.263500452 ; 289614.236611581 ; 23562.000000000004
100 ; 28180.353382025343 ; 2925.396329409912 ; 2290125.7340154615 ; 292539.6329409909 ; 23800.000000000004
101 ; 27750.1409488199 ; 2925.396329409912 ; 2318306.087397487 ; 295465.0292704008 ; 24038.000000000004
102 ; 27896.422077304065 ; 2925.396329409912 ; 2346056.228346307 ; 298390.4255998107 ; 24276.000000000004
103 ; 27517.818510465375 ; 2925.396329409912 ; 2373952.650423611 ; 301315.82192922063 ; 24514.000000000004
104 ; 27536.88332520909 ; 2925.396329409912 ; 2401470.4689340764 ; 304241.21825863054 ; 24752.000000000004
105 ; 27328.96894012895 ; 2925.396329409912 ; 2429007.3522592853 ; 307166.61458804045 ; 24990.000000000004
106 ; 27177.556362352414 ; 2925.396329409912 ; 2456336.3211994143 ; 310092.01091745036 ; 25228.000000000004
107 ; 27124.88851042687 ; 2925.396329409912 ; 2483513.8775617667 ; 313017.40724686027 ; 25466.000000000004
108 ; 27082.363209532377 ; 2925.396329409912 ; 2510638.7660721936 ; 315942.8035762702 ; 25704.000000000004
109 ; 26739.486722021633 ; 2925.396329409912 ; 2537721.129281726 ; 318868.1999056801 ; 25942.000000000004
110 ; 26661.96620043039 ; 2925.396329409912 ; 2564460.616003748 ; 321793.59623509 ; 26180.000000000004
111 ; 26178.882749143802 ; 2925.396329409912 ; 2591122.5822041784 ; 324718.9925644999 ; 26418.000000000004
112 ; 26053.00146411833 ; 2925.396329409912 ; 2617301.4649533224 ; 327644.3888939098 ; 26656.000000000004
113 ; 26027.053186177727 ; 2925.396329409912 ; 2643354.4664174407 ; 330569.7852233197 ; 26894.000000000004
114 ; 25669.59352186944 ; 2925.396329409912 ; 2669381.5196036184 ; 333495.1815527296 ; 27132.000000000004
115 ; 25515.88873966243 ; 2925.396329409912 ; 2695051.1131254877 ; 336420.57788213954 ; 27370.000000000004
116 ; 25435.66008983038 ; 2925.396329409912 ; 2720567.00186515 ; 339345.97421154944 ; 27608.000000000004
117 ; 25089.808417899785 ; 2925.396329409912 ; 2746002.6619549803 ; 342271.37054095935 ; 27846.000000000004
118 ; 24798.65776950042 ; 2925.396329409912 ; 2771092.4703728803 ; 345196.76687036926 ; 28084.000000000004
119 ; 24741.671602787344 ; 2925.396329409912 ; 2795891.1281423806 ; 348122.16319977917 ; 28322.000000000004
120 ; 24534.119151892646 ; 2925.396329409912 ; 2820632.799745168 ; 351047.5595291891 ; 28560.000000000004
121 ; 24239.345668130794 ; 2925.396329409912 ; 2845166.9188970607 ; 353972.955858599 ; 28798.000000000004
122 ; 23879.673315464977 ; 2925.396329409912 ; 2869406.2645651917 ; 356898.3521880089 ; 29036.000000000004
123 ; 23640.748880915955 ; 2925.396329409912 ; 2893285.9378806567 ; 359823.7485174188 ; 29274.000000000004
124 ; 23282.153173232236 ; 2925.396329409912 ; 2916926.6867615725 ; 362749.1448468287 ; 29512.000000000004
125 ; 23047.406021921648 ; 2925.396329409912 ; 2940208.839934805 ; 365674.5411762386 ; 29750.000000000004
126 ; 22674.64560462747 ; 2925.396329409912 ; 2963256.2459567264 ; 368599.93750564853 ; 29988.000000000004
127 ; 22485.53416583778 ; 2925.396329409912 ; 2985930.891561354 ; 371525.33383505844 ; 30226.000000000004
128 ; 22224.549226329917 ; 2925.396329409912 ; 3008416.425727192 ; 374450.73016446835 ; 30464.000000000004
129 ; 21894.141865073052 ; 2925.396329409912 ; 3030640.974953522 ; 377376.12649387826 ; 30702.000000000004
130 ; 21561.106690859386 ; 2925.396329409912 ; 3052535.116818595 ; 380301.52282328816 ; 30940.000000000004
131 ; 21222.435485229696 ; 2925.396329409912 ; 3074096.2235094546 ; 383226.9191526981 ; 31178.000000000004
132 ; 20894.748776670494 ; 2925.396329409912 ; 3095318.6589946845 ; 386152.315482108 ; 31416.000000000004
133 ; 20620.4863787353 ; 2925.396329409912 ; 3116213.407771355 ; 389077.7118115179 ; 31654.000000000004
134 ; 20437.061952456723 ; 2925.396329409912 ; 3136833.8941500904 ; 392003.1081409278 ; 31892.000000000004
135 ; 19951.613908033505 ; 2925.396329409912 ; 3157270.9561025472 ; 394928.5044703377 ; 32130.000000000004
136 ; 19552.503817331904 ; 2925.396329409912 ; 3177222.5700105806 ; 397853.9007997476 ; 32368.000000000004
137 ; 19281.320925064145 ; 2925.396329409912 ; 3196775.0738279126 ; 400779.2971291575 ; 32606.000000000004
138 ; 18878.56561495348 ; 2925.396329409912 ; 3216056.3947529765 ; 403704.69345856743 ; 32844.00000000001
139 ; 18488.48541888865 ; 2925.396329409912 ; 3234934.96036793 ; 406630.08978797734 ; 33082.00000000001
140 ; 18117.229855798938 ; 2925.396329409912 ; 3253423.445786819 ; 409555.48611738725 ; 33320.00000000001
141 ; 17639.971114982698 ; 2925.396329409912 ; 3271540.675642618 ; 412480.88244679716 ; 33558.00000000001
142 ; 17552.150553163156 ; 2925.396329409912 ; 3289180.646757601 ; 415406.27877620707 ; 33796.00000000001
143 ; 16976.723036452 ; 2925.396329409912 ; 3306732.797310764 ; 418331.675105617 ; 34034.00000000001
144 ; 16730.646319069583 ; 2925.396329409912 ; 3323709.520347216 ; 421257.0714350269 ; 34272.00000000001
145 ; 16585.25239676598 ; 2925.396329409912 ; 3340440.1666662856 ; 424182.4677644368 ; 34510.00000000001
146 ; 16417.298271899075 ; 2925.396329409912 ; 3357025.4190630517 ; 427107.8640938467 ; 34748.00000000001
147 ; 16189.536503077228 ; 2925.396329409912 ; 3373442.717334951 ; 430033.2604232566 ; 34986.00000000001
148 ; 16144.952593778213 ; 2925.396329409912 ; 3389632.253838028 ; 432958.6567526665 ; 35224.00000000001
149 ; 16003.962877455375 ; 2925.396329409912 ; 3405777.206431806 ; 435884.0530820764 ; 35462.00000000001
150 ; 15936.822234360206 ; 2925.396329409912 ; 3421781.1693092613 ; 438809.44941148633 ; 35700.00000000001
151 ; 15749.49978522187 ; 2925.396329409912 ; 3437717.9915436213 ; 441734.84574089624 ; 35938.00000000001
152 ; 15651.099035387655 ; 2925.396329409912 ; 3453467.491328843 ; 444660.24207030615 ; 36176.00000000001
153 ; 15608.252905091456 ; 2925.396329409912 ; 3469118.590364231 ; 447585.63839971606 ; 36414.00000000001
154 ; 15369.915457571202 ; 2925.396329409912 ; 3484726.843269322 ; 450511.03472912597 ; 36652.00000000001
155 ; 15471.326084415188 ; 2925.396329409912 ; 3500096.7587268935 ; 453436.4310585359 ; 36890.00000000001
156 ; 15106.330152937613 ; 2925.396329409912 ; 3515568.0848113084 ; 456361.8273879458 ; 37128.00000000001
157 ; 14883.188609349085 ; 2925.396329409912 ; 3530674.414964246 ; 459287.2237173557 ; 37366.00000000001
158 ; 14849.493863163943 ; 2925.396329409912 ; 3545557.603573595 ; 462212.6200467656 ; 37604.00000000001
159 ; 14623.94111789386 ; 2925.396329409912 ; 3560407.097436759 ; 465138.0163761755 ; 37842.00000000001
160 ; 14496.163309410058 ; 2925.396329409912 ; 3575031.038554653 ; 468063.4127055854 ; 38080.00000000001
161 ; 14391.957140660685 ; 2925.396329409912 ; 3589527.2018640633 ; 470988.8090349953 ; 38318.00000000001
162 ; 14262.332063231665 ; 2925.396329409912 ; 3603919.159004724 ; 473914.20536440524 ; 38556.00000000001
163 ; 14232.654258101933 ; 2925.396329409912 ; 3618181.4910679557 ; 476839.60169381514 ; 38794.00000000001
164 ; 13937.944850801468 ; 2925.396329409912 ; 3632414.1453260574 ; 479764.99802322505 ; 39032.00000000001
165 ; 13738.561012007256 ; 2925.396329409912 ; 3646352.090176859 ; 482690.39435263496 ; 39270.00000000001
166 ; 13755.172216605111 ; 2925.396329409912 ; 3660090.6511888662 ; 485615.79068204487 ; 39508.00000000001
167 ; 13467.194341903962 ; 2925.396329409912 ; 3673845.823405471 ; 488541.1870114548 ; 39746.00000000001
168 ; 13479.472472424279 ; 2925.396329409912 ; 3687313.017747375 ; 491466.5833408647 ; 39984.00000000001
169 ; 13212.708935841549 ; 2925.396329409912 ; 3700792.4902197993 ; 494391.9796702746 ; 40222.00000000001
170 ; 12899.932703445855 ; 2925.396329409912 ; 3714005.199155641 ; 497317.3759996845 ; 40460.00000000001
171 ; 12758.356042853236 ; 2925.396329409912 ; 3726905.1318590865 ; 500242.7723290944 ; 40698.00000000001
172 ; 12680.264386067473 ; 2925.396329409912 ; 3739663.4879019395 ; 503168.1686585043 ; 40936.00000000001
173 ; 12512.992974015859 ; 2925.396329409912 ; 3752343.752288007 ; 506093.56498791423 ; 41174.00000000001
174 ; 12670.841646618725 ; 2925.396329409912 ; 3764856.745262023 ; 509018.96131732414 ; 41412.00000000001
175 ; 12465.894052427968 ; 2925.396329409912 ; 3777527.5869086417 ; 511944.35764673405 ; 41650.00000000001
176 ; 12594.400352153774 ; 2925.396329409912 ; 3789993.48096107 ; 514869.75397614395 ; 41888.00000000001
177 ; 12636.42786864604 ; 2925.396329409912 ; 3802587.881313224 ; 517795.15030555386 ; 42126.00000000001
178 ; 12896.885974580206 ; 2925.396329409912 ; 3815224.30918187 ; 520720.5466349638 ; 42364.00000000001
179 ; 13020.956744108043 ; 2925.396329409912 ; 3828121.1951564504 ; 523645.9429643737 ; 42602.00000000001
180 ; 12903.918121668316 ; 2925.396329409912 ; 3841142.1519005583 ; 526571.3392937836 ; 42840.00000000001
181 ; 12539.761203836248 ; 2925.396329409912 ; 3854046.070022227 ; 529496.7356231936 ; 43078.00000000001
182 ; 12955.41525620217 ; 2925.396329409912 ; 3866585.831226063 ; 532422.1319526035 ; 43316.00000000001
183 ; 12822.54151262082 ; 2925.396329409912 ; 3879541.246482265 ; 535347.5282820134 ; 43554.00000000001
184 ; 12754.351026551065 ; 2925.396329409912 ; 3892363.787994886 ; 538272.9246114233 ; 43792.00000000001
185 ; 12967.954226709746 ; 2925.396329409912 ; 3905118.1390214367 ; 541198.3209408332 ; 44030.00000000001
186 ; 13064.701956784947 ; 2925.396329409912 ; 3918086.0932481466 ; 544123.7172702431 ; 44268.00000000001
