CSV File for the City 2 on Day 266
1 - Minute m 
2 - Power Consumed at minute m 
3 - Power Produced at minute m 
4 - Energy Consumed since the beginning of the day 
5 - Energy Produced since the beginning of the day 
6 - Energy Lost since the beginning of the day on lines starting from the city
 
0 ; 6418.040402063586 ; 31118.098145425112 ; 0.0 ; 0.0 ; 0.0
1 ; 7031.592787257151 ; 31118.098145425112 ; 6418.040402063586 ; 31118.098145425112 ; 0.0
2 ; 7258.737427190519 ; 31118.098145425112 ; 13449.633189320737 ; 62236.196290850225 ; 0.0
3 ; 7646.861561800159 ; 31118.098145425112 ; 20708.370616511256 ; 93354.29443627533 ; 0.0
4 ; 8145.780807667818 ; 31118.098145425112 ; 28355.232178311417 ; 124472.39258170045 ; 0.0
5 ; 8545.602391566495 ; 31118.098145425112 ; 36501.012985979236 ; 155590.49072712555 ; 0.0
6 ; 9052.689682894477 ; 31118.098145425112 ; 45046.615377545735 ; 186708.58887255067 ; 0.0
7 ; 9487.114099056227 ; 31118.098145425112 ; 54099.30506044021 ; 217826.68701797578 ; 0.0
8 ; 9796.52438878855 ; 31118.098145425112 ; 63586.419159496436 ; 248944.7851634009 ; 0.0
9 ; 10153.051711843693 ; 31118.098145425112 ; 73382.94354828498 ; 280062.883308826 ; 0.0
10 ; 10701.164108798142 ; 31118.098145425112 ; 83535.99526012868 ; 311180.9814542511 ; 0.0
11 ; 10969.88843777264 ; 31118.098145425112 ; 94237.15936892682 ; 342299.0795996762 ; 0.0
12 ; 11436.175755419104 ; 31118.098145425112 ; 105207.04780669945 ; 373417.1777451013 ; 0.0
13 ; 11861.66382950939 ; 31118.098145425112 ; 116643.22356211855 ; 404535.27589052636 ; 0.0
14 ; 12362.14210413596 ; 31118.098145425112 ; 128504.88739162794 ; 435653.37403595145 ; 0.0
15 ; 12628.012183293411 ; 31118.098145425112 ; 140867.0294957639 ; 466771.47218137654 ; 0.0
16 ; 13089.650165296129 ; 31118.098145425112 ; 153495.04167905732 ; 497889.5703268016 ; 0.0
17 ; 13457.87805169095 ; 31118.098145425112 ; 166584.69184435345 ; 529007.6684722267 ; 0.0
18 ; 13864.136948624955 ; 31118.098145425112 ; 180042.5698960444 ; 560125.7666176518 ; 0.0
19 ; 14003.212499476938 ; 31118.098145425112 ; 193906.70684466936 ; 591243.8647630769 ; 0.0
20 ; 14392.866572678857 ; 31118.098145425112 ; 207909.9193441463 ; 622361.962908502 ; 0.0
21 ; 14681.690171888366 ; 31118.098145425112 ; 222302.78591682515 ; 653480.061053927 ; 0.0
22 ; 14938.57565333171 ; 31118.098145425112 ; 236984.4760887135 ; 684598.1591993521 ; 0.0
23 ; 15589.668377894379 ; 31118.098145425112 ; 251923.0517420452 ; 715716.2573447772 ; 0.0
24 ; 15782.56648436674 ; 31118.098145425112 ; 267512.7201199396 ; 746834.3554902023 ; 0.0
25 ; 16246.48621056705 ; 31118.098145425112 ; 283295.2866043063 ; 777952.4536356274 ; 0.0
26 ; 16408.72944071859 ; 31118.098145425112 ; 299541.7728148734 ; 809070.5517810525 ; 0.0
27 ; 16821.372210608544 ; 31118.098145425112 ; 315950.502255592 ; 840188.6499264776 ; 0.0
28 ; 16940.697873873174 ; 31118.098145425112 ; 332771.87446620053 ; 871306.7480719027 ; 0.0
29 ; 17309.348673977893 ; 31118.098145425112 ; 349712.5723400737 ; 902424.8462173278 ; 0.0
30 ; 17514.000554379683 ; 31118.098145425112 ; 367021.9210140516 ; 933542.9443627528 ; 0.0
31 ; 17902.241143260406 ; 31118.098145425112 ; 384535.92156843125 ; 964661.0425081779 ; 0.0
32 ; 18243.241735684627 ; 31118.098145425112 ; 402438.16271169164 ; 995779.140653603 ; 0.0
33 ; 18408.101934719347 ; 31118.098145425112 ; 420681.40444737626 ; 1026897.2387990281 ; 0.0
34 ; 18720.60778264291 ; 31118.098145425112 ; 439089.5063820956 ; 1058015.3369444532 ; 0.0
35 ; 18924.455550988958 ; 31118.098145425112 ; 457810.11416473857 ; 1089133.4350898783 ; 0.0
36 ; 19237.092102790488 ; 31118.098145425112 ; 476734.5697157275 ; 1120251.5332353034 ; 0.0
37 ; 19601.18400128338 ; 31118.098145425112 ; 495971.661818518 ; 1151369.6313807284 ; 0.0
38 ; 19801.659956395248 ; 31118.098145425112 ; 515572.8458198014 ; 1182487.7295261535 ; 0.0
39 ; 19864.979870183397 ; 31118.098145425112 ; 535374.5057761966 ; 1213605.8276715786 ; 0.0
40 ; 20109.601851161937 ; 31118.098145425112 ; 555239.48564638 ; 1244723.9258170037 ; 0.0
41 ; 20473.519261156467 ; 31118.098145425112 ; 575349.0874975419 ; 1275842.0239624288 ; 0.0
42 ; 20591.340952263177 ; 31118.098145425112 ; 595822.6067586984 ; 1306960.1221078539 ; 0.0
43 ; 20872.809227394737 ; 31118.098145425112 ; 616413.9477109616 ; 1338078.220253279 ; 0.0
44 ; 21011.778116604477 ; 31118.098145425112 ; 637286.7569383563 ; 1369196.318398704 ; 0.0
45 ; 21383.015057734705 ; 31118.098145425112 ; 658298.5350549608 ; 1400314.4165441291 ; 0.0
46 ; 21484.51128105136 ; 31118.098145425112 ; 679681.5501126954 ; 1431432.5146895542 ; 0.0
47 ; 21791.14835783263 ; 31118.098145425112 ; 701166.0613937468 ; 1462550.6128349793 ; 0.0
48 ; 21873.20283184539 ; 31118.098145425112 ; 722957.2097515794 ; 1493668.7109804044 ; 0.0
49 ; 22060.138506714513 ; 31118.098145425112 ; 744830.4125834248 ; 1524786.8091258295 ; 0.0
50 ; 22380.22129068373 ; 31118.098145425112 ; 766890.5510901393 ; 1555904.9072712546 ; 0.0
51 ; 22422.96761337267 ; 31118.098145425112 ; 789270.772380823 ; 1587023.0054166797 ; 0.0
52 ; 22752.522638103183 ; 31118.098145425112 ; 811693.7399941958 ; 1618141.1035621047 ; 0.0
53 ; 22635.533615960856 ; 31118.098145425112 ; 834446.262632299 ; 1649259.2017075298 ; 0.0
54 ; 23066.55659090266 ; 31118.098145425112 ; 857081.7962482598 ; 1680377.299852955 ; 0.0
55 ; 23200.31545731334 ; 31118.098145425112 ; 880148.3528391625 ; 1711495.39799838 ; 0.0
56 ; 23206.45766489844 ; 31118.098145425112 ; 903348.6682964758 ; 1742613.496143805 ; 0.0
57 ; 23255.88903973338 ; 31118.098145425112 ; 926555.1259613743 ; 1773731.5942892302 ; 0.0
58 ; 23474.039125235922 ; 31118.098145425112 ; 949811.0150011076 ; 1804849.6924346553 ; 0.0
59 ; 23822.88841444852 ; 31118.098145425112 ; 973285.0541263435 ; 1835967.7905800804 ; 0.0
60 ; 23922.569007195532 ; 31118.098145425112 ; 997107.9425407919 ; 1867085.8887255054 ; 0.0
61 ; 23931.10719222524 ; 31118.098145425112 ; 1021030.5115479875 ; 1898203.9868709305 ; 0.0
62 ; 23949.154938895215 ; 31118.098145425112 ; 1044961.6187402128 ; 1929322.0850163556 ; 0.0
63 ; 24177.138124477642 ; 31118.098145425112 ; 1068910.773679108 ; 1960440.1831617807 ; 0.0
64 ; 24394.370531865763 ; 31118.098145425112 ; 1093087.9118035855 ; 1991558.2813072058 ; 0.0
65 ; 24199.49778229545 ; 31118.098145425112 ; 1117482.2823354513 ; 2022676.3794526309 ; 0.0
66 ; 24563.239728906778 ; 31118.098145425112 ; 1141681.7801177467 ; 2053794.477598056 ; 0.0
67 ; 24567.36110776638 ; 31118.098145425112 ; 1166245.0198466536 ; 2084912.575743481 ; 0.0
68 ; 24727.979798030385 ; 31118.098145425112 ; 1190812.38095442 ; 2116030.6738889064 ; 0.0
69 ; 24643.166045149574 ; 31118.098145425112 ; 1215540.3607524503 ; 2147148.7720343317 ; 0.0
70 ; 24677.127955663138 ; 31118.098145425112 ; 1240183.5267975999 ; 2178266.870179757 ; 0.0
71 ; 24878.578559491896 ; 31118.098145425112 ; 1264860.654753263 ; 2209384.9683251823 ; 0.0
72 ; 24808.196417882416 ; 31118.098145425112 ; 1289739.233312755 ; 2240503.0664706076 ; 0.0
73 ; 24919.957027213182 ; 31118.098145425112 ; 1314547.4297306372 ; 2271621.164616033 ; 0.0
74 ; 24910.8593639055 ; 31118.098145425112 ; 1339467.3867578504 ; 2302739.2627614583 ; 0.0
75 ; 24968.563801795237 ; 31118.098145425112 ; 1364378.2461217558 ; 2333857.3609068836 ; 0.0
76 ; 25106.162739243267 ; 31118.098145425112 ; 1389346.809923551 ; 2364975.459052309 ; 0.0
77 ; 25055.53299358659 ; 31118.098145425112 ; 1414452.9726627944 ; 2396093.5571977342 ; 0.0
78 ; 25134.155361163783 ; 31118.098145425112 ; 1439508.505656381 ; 2427211.6553431596 ; 0.0
79 ; 25179.021433567672 ; 31118.098145425112 ; 1464642.6610175448 ; 2458329.753488585 ; 0.0
80 ; 25186.573333972203 ; 31118.098145425112 ; 1489821.6824511124 ; 2489447.85163401 ; 0.0
81 ; 25065.469090534258 ; 31118.098145425112 ; 1515008.2557850846 ; 2520565.9497794355 ; 0.0
82 ; 25233.197191992793 ; 31118.098145425112 ; 1540073.7248756187 ; 2551684.047924861 ; 0.0
83 ; 25333.675956726052 ; 31118.098145425112 ; 1565306.9220676115 ; 2582802.146070286 ; 0.0
84 ; 25145.417035846156 ; 31118.098145425112 ; 1590640.5980243376 ; 2613920.2442157115 ; 0.0
85 ; 25171.27253735092 ; 31118.098145425112 ; 1615786.0150601836 ; 2645038.342361137 ; 0.0
86 ; 25222.671894326635 ; 31118.098145425112 ; 1640957.2875975345 ; 2676156.440506562 ; 0.0
87 ; 25054.4400115838 ; 31118.098145425112 ; 1666179.959491861 ; 2707274.5386519874 ; 0.0
88 ; 25019.815018099656 ; 31118.098145425112 ; 1691234.3995034448 ; 2738392.6367974128 ; 0.0
89 ; 25055.027165788044 ; 31118.098145425112 ; 1716254.2145215445 ; 2769510.734942838 ; 0.0
90 ; 24875.589889673025 ; 31118.098145425112 ; 1741309.2416873325 ; 2800628.8330882634 ; 0.0
91 ; 24855.682841387872 ; 31118.098145425112 ; 1766184.8315770056 ; 2831746.9312336887 ; 0.0
92 ; 24936.43704930023 ; 31118.098145425112 ; 1791040.5144183934 ; 2862865.029379114 ; 0.0
93 ; 24799.237839319052 ; 31118.098145425112 ; 1815976.9514676936 ; 2893983.1275245394 ; 0.0
94 ; 24738.571313397497 ; 31118.098145425112 ; 1840776.1893070126 ; 2925101.2256699647 ; 0.0
95 ; 24781.45095240516 ; 31118.098145425112 ; 1865514.76062041 ; 2956219.32381539 ; 0.0
96 ; 24571.423729873895 ; 31118.098145425112 ; 1890296.2115728152 ; 2987337.4219608153 ; 0.0
97 ; 24525.64469569288 ; 31118.098145425112 ; 1914867.6353026892 ; 3018455.5201062406 ; 0.0
98 ; 24466.21351472428 ; 31118.098145425112 ; 1939393.279998382 ; 3049573.618251666 ; 0.0
99 ; 24333.946494911575 ; 31118.098145425112 ; 1963859.4935131064 ; 3080691.7163970913 ; 0.0
100 ; 24401.798705984995 ; 31118.098145425112 ; 1988193.440008018 ; 3111809.8145425166 ; 0.0
101 ; 24289.001179619543 ; 31118.098145425112 ; 2012595.238714003 ; 3142927.912687942 ; 0.0
102 ; 24122.75728140904 ; 31118.098145425112 ; 2036884.2398936225 ; 3174046.0108333672 ; 0.0
103 ; 24064.911984621413 ; 31118.098145425112 ; 2061006.9971750316 ; 3205164.1089787926 ; 0.0
104 ; 23900.003841802314 ; 31118.098145425112 ; 2085071.909159653 ; 3236282.207124218 ; 0.0
105 ; 23845.275114792228 ; 31118.098145425112 ; 2108971.9130014554 ; 3267400.305269643 ; 0.0
106 ; 23558.52750377009 ; 31118.098145425112 ; 2132817.1881162478 ; 3298518.4034150685 ; 0.0
107 ; 23397.907833702488 ; 31118.098145425112 ; 2156375.715620018 ; 3329636.501560494 ; 0.0
108 ; 23314.009984742854 ; 31118.098145425112 ; 2179773.6234537205 ; 3360754.599705919 ; 0.0
109 ; 23289.15279689206 ; 31118.098145425112 ; 2203087.6334384633 ; 3391872.6978513445 ; 0.0
110 ; 22925.96259843275 ; 31118.098145425112 ; 2226376.7862353553 ; 3422990.79599677 ; 0.0
111 ; 22929.653214159498 ; 31118.098145425112 ; 2249302.748833788 ; 3454108.894142195 ; 0.0
112 ; 22656.009655767055 ; 31118.098145425112 ; 2272232.4020479475 ; 3485226.9922876204 ; 0.0
113 ; 22358.601147951667 ; 31118.098145425112 ; 2294888.4117037146 ; 3516345.0904330458 ; 0.0
114 ; 22395.191883056294 ; 31118.098145425112 ; 2317247.012851666 ; 3547463.188578471 ; 0.0
115 ; 22244.97536263091 ; 31118.098145425112 ; 2339642.2047347226 ; 3578581.2867238964 ; 0.0
116 ; 22040.239345801285 ; 31118.098145425112 ; 2361887.1800973536 ; 3609699.3848693217 ; 0.0
117 ; 21945.866163467 ; 31118.098145425112 ; 2383927.4194431547 ; 3640817.483014747 ; 0.0
118 ; 21488.252069597856 ; 31118.098145425112 ; 2405873.2856066218 ; 3671935.5811601724 ; 0.0
119 ; 21286.97607722308 ; 31118.098145425112 ; 2427361.53767622 ; 3703053.6793055977 ; 0.0
120 ; 21287.61872597252 ; 31118.098145425112 ; 2448648.513753443 ; 3734171.777451023 ; 0.0
121 ; 20907.863927549894 ; 31118.098145425112 ; 2469936.1324794157 ; 3765289.8755964483 ; 0.0
122 ; 20826.400404857493 ; 31118.098145425112 ; 2490843.9964069654 ; 3796407.9737418736 ; 0.0
123 ; 20447.52692421066 ; 31118.098145425112 ; 2511670.396811823 ; 3827526.071887299 ; 0.0
124 ; 20303.767552841815 ; 31118.098145425112 ; 2532117.9237360335 ; 3858644.1700327243 ; 0.0
125 ; 20151.287656164113 ; 31118.098145425112 ; 2552421.6912888754 ; 3889762.2681781496 ; 0.0
126 ; 19852.002075396063 ; 31118.098145425112 ; 2572572.9789450397 ; 3920880.366323575 ; 0.0
127 ; 19389.067991139822 ; 31118.098145425112 ; 2592424.9810204357 ; 3951998.464469 ; 0.0
128 ; 19401.962641851103 ; 31118.098145425112 ; 2611814.0490115755 ; 3983116.5626144256 ; 0.0
129 ; 18987.793334937527 ; 31118.098145425112 ; 2631216.0116534266 ; 4014234.660759851 ; 0.0
130 ; 18898.705809550353 ; 31118.098145425112 ; 2650203.804988364 ; 4045352.758905276 ; 0.0
131 ; 18494.04127329262 ; 31118.098145425112 ; 2669102.5107979146 ; 4076470.8570507015 ; 0.0
132 ; 18224.047034598196 ; 31118.098145425112 ; 2687596.552071207 ; 4107588.955196127 ; 0.0
133 ; 18008.195435388196 ; 31118.098145425112 ; 2705820.5991058056 ; 4138707.053341552 ; 0.0
134 ; 17894.169315451538 ; 31118.098145425112 ; 2723828.7945411936 ; 4169825.1514869775 ; 0.0
135 ; 17289.507513706998 ; 31118.098145425112 ; 2741722.9638566454 ; 4200943.249632402 ; 0.0
136 ; 17139.38092118095 ; 31118.098145425112 ; 2759012.4713703524 ; 4232061.347777828 ; 0.0
137 ; 16910.22395831689 ; 31118.098145425112 ; 2776151.8522915333 ; 4263179.445923253 ; 0.0
138 ; 16528.771771262996 ; 31118.098145425112 ; 2793062.07624985 ; 4294297.544068678 ; 0.0
139 ; 16156.07310020177 ; 31118.098145425112 ; 2809590.848021113 ; 4325415.642214104 ; 0.0
140 ; 15988.747703726163 ; 31118.098145425112 ; 2825746.9211213146 ; 4356533.740359529 ; 0.0
141 ; 15540.31502713036 ; 31118.098145425112 ; 2841735.6688250406 ; 4387651.838504954 ; 0.0
142 ; 15281.706323129529 ; 31118.098145425112 ; 2857275.983852171 ; 4418769.93665038 ; 0.0
143 ; 14732.767828744563 ; 31118.098145425112 ; 2872557.6901753005 ; 4449888.034795805 ; 0.0
144 ; 14649.732411728493 ; 31118.098145425112 ; 2887290.458004045 ; 4481006.13294123 ; 0.0
145 ; 14348.465360814673 ; 31118.098145425112 ; 2901940.1904157735 ; 4512124.2310866555 ; 0.0
146 ; 14347.220512761116 ; 31118.098145425112 ; 2916288.6557765882 ; 4543242.329232081 ; 0.0
147 ; 14262.399738549513 ; 31118.098145425112 ; 2930635.8762893495 ; 4574360.427377506 ; 0.0
148 ; 14053.672117444063 ; 31118.098145425112 ; 2944898.2760278992 ; 4605478.5255229315 ; 0.0
149 ; 13966.958458602243 ; 31118.098145425112 ; 2958951.9481453435 ; 4636596.623668357 ; 0.0
150 ; 13861.752221560986 ; 31118.098145425112 ; 2972918.906603946 ; 4667714.721813782 ; 0.0
151 ; 13663.9363265173 ; 31118.098145425112 ; 2986780.658825507 ; 4698832.819959207 ; 0.0
152 ; 13706.688041216927 ; 31118.098145425112 ; 3000444.595152024 ; 4729950.918104633 ; 0.0
153 ; 13646.816444005908 ; 31118.098145425112 ; 3014151.283193241 ; 4761069.016250058 ; 0.0
154 ; 13312.033078732044 ; 31118.098145425112 ; 3027798.0996372467 ; 4792187.114395483 ; 0.0
155 ; 13437.967425845673 ; 31118.098145425112 ; 3041110.1327159787 ; 4823305.212540909 ; 0.0
156 ; 13506.401076479306 ; 31118.098145425112 ; 3054548.100141824 ; 4854423.310686334 ; 0.0
157 ; 13139.106249201846 ; 31118.098145425112 ; 3068054.5012183036 ; 4885541.408831759 ; 0.0
158 ; 12988.554640257817 ; 31118.098145425112 ; 3081193.6074675056 ; 4916659.506977185 ; 0.0
159 ; 12939.073969644884 ; 31118.098145425112 ; 3094182.1621077633 ; 4947777.60512261 ; 0.0
160 ; 12850.042302147067 ; 31118.098145425112 ; 3107121.2360774083 ; 4978895.703268035 ; 0.0
161 ; 12656.083497972137 ; 31118.098145425112 ; 3119971.2783795553 ; 5010013.801413461 ; 0.0
162 ; 12500.37194667057 ; 31118.098145425112 ; 3132627.3618775276 ; 5041131.899558886 ; 0.0
163 ; 12467.708857952557 ; 31118.098145425112 ; 3145127.733824198 ; 5072249.997704311 ; 0.0
164 ; 12203.134200770302 ; 31118.098145425112 ; 3157595.4426821508 ; 5103368.095849737 ; 0.0
165 ; 12190.976785161998 ; 31118.098145425112 ; 3169798.576882921 ; 5134486.193995162 ; 0.0
166 ; 12033.80499442042 ; 31118.098145425112 ; 3181989.553668083 ; 5165604.292140587 ; 0.0
167 ; 11747.462238332668 ; 31118.098145425112 ; 3194023.358662504 ; 5196722.390286013 ; 0.0
168 ; 11582.77682671772 ; 31118.098145425112 ; 3205770.8209008365 ; 5227840.488431438 ; 0.0
169 ; 11509.481228583974 ; 31118.098145425112 ; 3217353.5977275544 ; 5258958.586576863 ; 0.0
170 ; 11461.21963006354 ; 31118.098145425112 ; 3228863.0789561383 ; 5290076.6847222885 ; 0.0
171 ; 11398.004213500526 ; 31118.098145425112 ; 3240324.298586202 ; 5321194.782867714 ; 0.0
172 ; 11349.239634606696 ; 31118.098145425112 ; 3251722.302799702 ; 5352312.881013139 ; 0.0
173 ; 10978.669130669015 ; 31118.098145425112 ; 3263071.5424343087 ; 5383430.9791585645 ; 0.0
174 ; 11222.714992673224 ; 31118.098145425112 ; 3274050.2115649777 ; 5414549.07730399 ; 0.0
175 ; 10934.637131229407 ; 31118.098145425112 ; 3285272.926557651 ; 5445667.175449415 ; 0.0
176 ; 11124.67873449442 ; 31118.098145425112 ; 3296207.5636888803 ; 5476785.27359484 ; 0.0
177 ; 10918.20939921036 ; 31118.098145425112 ; 3307332.2424233747 ; 5507903.371740266 ; 0.0
178 ; 11180.490644530908 ; 31118.098145425112 ; 3318250.451822585 ; 5539021.469885691 ; 0.0
179 ; 11193.184523900654 ; 31118.098145425112 ; 3329430.942467116 ; 5570139.568031116 ; 0.0
180 ; 11177.029613364646 ; 31118.098145425112 ; 3340624.1269910163 ; 5601257.666176542 ; 0.0
181 ; 11279.620399670524 ; 31118.098145425112 ; 3351801.156604381 ; 5632375.764321967 ; 0.0
182 ; 11390.455745306339 ; 31118.098145425112 ; 3363080.7770040515 ; 5663493.862467392 ; 0.0
183 ; 11265.679010347261 ; 31118.098145425112 ; 3374471.232749358 ; 5694611.960612818 ; 0.0
184 ; 11451.297020421322 ; 31118.098145425112 ; 3385736.9117597053 ; 5725730.058758243 ; 0.0
185 ; 11398.21727405822 ; 31118.098145425112 ; 3397188.2087801266 ; 5756848.156903668 ; 0.0
186 ; 11363.800374303039 ; 31118.098145425112 ; 3408586.426054185 ; 5787966.255049094 ; 0.0
187 ; 11352.373908993331 ; 31118.098145425112 ; 3419950.226428488 ; 5819084.353194519 ; 0.0
188 ; 11473.613724586821 ; 31118.098145425112 ; 3431302.600337481 ; 5850202.451339944 ; 0.0
189 ; 11403.538014605598 ; 31118.098145425112 ; 3442776.214062068 ; 5881320.54948537 ; 0.0
190 ; 11656.945223470824 ; 31118.098145425112 ; 3454179.752076674 ; 5912438.647630795 ; 0.0
191 ; 11615.064187422922 ; 31118.098145425112 ; 3465836.6973001445 ; 5943556.74577622 ; 0.0
192 ; 11593.857620981711 ; 31118.098145425112 ; 3477451.7614875673 ; 5974674.843921646 ; 0.0
193 ; 11534.436953567632 ; 31118.098145425112 ; 3489045.619108549 ; 6005792.942067071 ; 0.0
194 ; 11472.33558195489 ; 31118.098145425112 ; 3500580.0560621163 ; 6036911.040212496 ; 0.0
195 ; 11661.282248844738 ; 31118.098145425112 ; 3512052.3916440713 ; 6068029.1383579215 ; 0.0
196 ; 11599.611205659941 ; 31118.098145425112 ; 3523713.673892916 ; 6099147.236503347 ; 0.0
197 ; 11705.409524469083 ; 31118.098145425112 ; 3535313.285098576 ; 6130265.334648772 ; 0.0
198 ; 11633.453144167934 ; 31118.098145425112 ; 3547018.694623045 ; 6161383.432794197 ; 0.0
199 ; 11612.162301815886 ; 31118.098145425112 ; 3558652.147767213 ; 6192501.530939623 ; 0.0
200 ; 11656.585136039228 ; 31118.098145425112 ; 3570264.310069029 ; 6223619.629085048 ; 0.0
201 ; 11685.710310776636 ; 31118.098145425112 ; 3581920.8952050684 ; 6254737.727230473 ; 0.0
202 ; 11897.575031964672 ; 31118.098145425112 ; 3593606.605515845 ; 6285855.825375899 ; 0.0
203 ; 11914.468246222938 ; 31118.098145425112 ; 3605504.1805478097 ; 6316973.923521324 ; 0.0
204 ; 11824.261226570203 ; 31118.098145425112 ; 3617418.6487940326 ; 6348092.021666749 ; 0.0
205 ; 11827.746802711657 ; 31118.098145425112 ; 3629242.910020603 ; 6379210.119812175 ; 0.0
206 ; 11873.503512418449 ; 31118.098145425112 ; 3641070.6568233147 ; 6410328.2179576 ; 0.0
207 ; 11883.185196992186 ; 31118.098145425112 ; 3652944.160335733 ; 6441446.316103025 ; 0.0
208 ; 12011.063935228025 ; 31118.098145425112 ; 3664827.345532725 ; 6472564.414248451 ; 0.0
209 ; 11972.871240998575 ; 31118.098145425112 ; 3676838.4094679533 ; 6503682.512393876 ; 0.0
210 ; 12105.653221560224 ; 31118.098145425112 ; 3688811.280708952 ; 6534800.610539301 ; 0.0
211 ; 12045.6987281668 ; 31118.098145425112 ; 3700916.933930512 ; 6565918.708684727 ; 0.0
212 ; 12113.891816450772 ; 31118.098145425112 ; 3712962.632658679 ; 6597036.806830152 ; 0.0
213 ; 12069.227392519277 ; 31118.098145425112 ; 3725076.52447513 ; 6628154.904975577 ; 0.0
