CSV File for the City 2 on Day 229
1 - Minute m 
2 - Power Consumed at minute m 
3 - Power Produced at minute m 
4 - Energy Consumed since the beginning of the day 
5 - Energy Produced since the beginning of the day 
6 - Energy Lost since the beginning of the day on lines starting from the city
 
0 ; 4703.753224850553 ; 33768.73075769164 ; 0.0 ; 0.0 ; 0.0
1 ; 5275.736575150619 ; 33768.73075769164 ; 4703.753224850553 ; 33768.73075769164 ; 0.0
2 ; 5901.577386427702 ; 33768.73075769164 ; 9979.48980000117 ; 67537.46151538329 ; 0.0
3 ; 6354.696798937019 ; 33768.73075769164 ; 15881.067186428872 ; 101306.19227307494 ; 0.0
4 ; 6795.889949573419 ; 33768.73075769164 ; 22235.76398536589 ; 135074.92303076657 ; 0.0
5 ; 7339.63210966636 ; 33768.73075769164 ; 29031.65393493931 ; 168843.6537884582 ; 0.0
6 ; 7945.748018046825 ; 33768.73075769164 ; 36371.28604460567 ; 202612.38454614984 ; 0.0
7 ; 8210.26575018464 ; 33768.73075769164 ; 44317.0340626525 ; 236381.11530384148 ; 0.0
8 ; 8839.086651203232 ; 33768.73075769164 ; 52527.29981283714 ; 270149.84606153314 ; 0.0
9 ; 9309.062806741127 ; 33768.73075769164 ; 61366.38646404037 ; 303918.5768192248 ; 0.0
10 ; 9798.440386869774 ; 33768.73075769164 ; 70675.4492707815 ; 337687.3075769165 ; 0.0
11 ; 10311.844302511021 ; 33768.73075769164 ; 80473.88965765126 ; 371456.03833460814 ; 0.0
12 ; 10987.382917384984 ; 33768.73075769164 ; 90785.73396016228 ; 405224.7690922998 ; 0.0
13 ; 11357.919579389625 ; 33768.73075769164 ; 101773.11687754726 ; 438993.49984999147 ; 0.0
14 ; 11881.938643411942 ; 33768.73075769164 ; 113131.03645693688 ; 472762.23060768313 ; 0.0
15 ; 12093.869859804692 ; 33768.73075769164 ; 125012.97510034882 ; 506530.9613653748 ; 0.0
16 ; 12839.84157175821 ; 33768.73075769164 ; 137106.8449601535 ; 540299.6921230664 ; 0.0
17 ; 13115.447838714093 ; 33768.73075769164 ; 149946.68653191172 ; 574068.4228807581 ; 0.0
18 ; 13632.996956939827 ; 33768.73075769164 ; 163062.1343706258 ; 607837.1536384497 ; 0.0
19 ; 14088.255535430364 ; 33768.73075769164 ; 176695.13132756564 ; 641605.8843961414 ; 0.0
20 ; 14380.147114706202 ; 33768.73075769164 ; 190783.386862996 ; 675374.6151538331 ; 0.0
21 ; 14857.064560209246 ; 33768.73075769164 ; 205163.5339777022 ; 709143.3459115247 ; 0.0
22 ; 15159.517629694723 ; 33768.73075769164 ; 220020.59853791146 ; 742912.0766692164 ; 0.0
23 ; 15793.689342716449 ; 33768.73075769164 ; 235180.11616760617 ; 776680.807426908 ; 0.0
24 ; 16108.447822184367 ; 33768.73075769164 ; 250973.80551032262 ; 810449.5381845997 ; 0.0
25 ; 16576.397418807366 ; 33768.73075769164 ; 267082.253332507 ; 844218.2689422914 ; 0.0
26 ; 16932.879357436737 ; 33768.73075769164 ; 283658.65075131436 ; 877986.999699983 ; 0.0
27 ; 17405.76258339025 ; 33768.73075769164 ; 300591.5301087511 ; 911755.7304576747 ; 0.0
28 ; 17598.143992839916 ; 33768.73075769164 ; 317997.2926921413 ; 945524.4612153664 ; 0.0
29 ; 18007.301196080247 ; 33768.73075769164 ; 335595.4366849812 ; 979293.191973058 ; 0.0
30 ; 18459.1720793584 ; 33768.73075769164 ; 353602.73788106145 ; 1013061.9227307497 ; 0.0
31 ; 18715.04298353091 ; 33768.73075769164 ; 372061.9099604199 ; 1046830.6534884414 ; 0.0
32 ; 18998.10796060946 ; 33768.73075769164 ; 390776.9529439508 ; 1080599.384246133 ; 0.0
33 ; 19440.08180815778 ; 33768.73075769164 ; 409775.06090456026 ; 1114368.1150038247 ; 0.0
34 ; 19711.30089336849 ; 33768.73075769164 ; 429215.14271271805 ; 1148136.8457615164 ; 0.0
35 ; 20019.17568934995 ; 33768.73075769164 ; 448926.44360608654 ; 1181905.576519208 ; 0.0
36 ; 20429.08510968857 ; 33768.73075769164 ; 468945.6192954365 ; 1215674.3072768997 ; 0.0
37 ; 20617.91838857125 ; 33768.73075769164 ; 489374.70440512506 ; 1249443.0380345914 ; 0.0
38 ; 21099.54798889803 ; 33768.73075769164 ; 509992.6227936963 ; 1283211.768792283 ; 0.0
39 ; 21343.96643269156 ; 33768.73075769164 ; 531092.1707825944 ; 1316980.4995499747 ; 0.0
40 ; 21538.51844890691 ; 33768.73075769164 ; 552436.1372152859 ; 1350749.2303076664 ; 0.0
41 ; 21911.637547179533 ; 33768.73075769164 ; 573974.6556641929 ; 1384517.961065358 ; 0.0
42 ; 22160.228775628704 ; 33768.73075769164 ; 595886.2932113723 ; 1418286.6918230497 ; 0.0
43 ; 22573.041248507816 ; 33768.73075769164 ; 618046.5219870011 ; 1452055.4225807413 ; 0.0
44 ; 22440.982272059402 ; 33768.73075769164 ; 640619.5632355089 ; 1485824.153338433 ; 0.0
45 ; 22868.183690523325 ; 33768.73075769164 ; 663060.5455075683 ; 1519592.8840961247 ; 0.0
46 ; 23103.198817286975 ; 33768.73075769164 ; 685928.7291980917 ; 1553361.6148538163 ; 0.0
47 ; 23451.41220043947 ; 33768.73075769164 ; 709031.9280153787 ; 1587130.345611508 ; 0.0
48 ; 23405.443274467132 ; 33768.73075769164 ; 732483.3402158181 ; 1620899.0763691997 ; 0.0
49 ; 23860.11597884837 ; 33768.73075769164 ; 755888.7834902853 ; 1654667.8071268913 ; 0.0
50 ; 24081.032858857743 ; 33768.73075769164 ; 779748.8994691337 ; 1688436.537884583 ; 0.0
51 ; 24264.04638788629 ; 33768.73075769164 ; 803829.9323279915 ; 1722205.2686422747 ; 0.0
52 ; 24467.66397877166 ; 33768.73075769164 ; 828093.9787158777 ; 1755973.9993999663 ; 0.0
53 ; 24713.511577426005 ; 33768.73075769164 ; 852561.6426946494 ; 1789742.730157658 ; 0.0
54 ; 24889.32455741315 ; 33768.73075769164 ; 877275.1542720754 ; 1823511.4609153497 ; 0.0
55 ; 25187.365899197834 ; 33768.73075769164 ; 902164.4788294885 ; 1857280.1916730413 ; 0.0
56 ; 25306.721436039854 ; 33768.73075769164 ; 927351.8447286864 ; 1891048.922430733 ; 0.0
57 ; 25487.26646845439 ; 33768.73075769164 ; 952658.5661647263 ; 1924817.6531884247 ; 0.0
58 ; 25543.24516879583 ; 33768.73075769164 ; 978145.8326331807 ; 1958586.3839461163 ; 0.0
59 ; 25695.999151938537 ; 33768.73075769164 ; 1003689.0778019765 ; 1992355.114703808 ; 0.0
60 ; 25930.15832775233 ; 33768.73075769164 ; 1029385.076953915 ; 2026123.8454614996 ; 0.0
61 ; 26041.958941310037 ; 33768.73075769164 ; 1055315.2352816672 ; 2059892.5762191913 ; 0.0
62 ; 26279.251512309285 ; 33768.73075769164 ; 1081357.1942229772 ; 2093661.306976883 ; 0.0
63 ; 26268.55914506169 ; 33768.73075769164 ; 1107636.4457352865 ; 2127430.0377345746 ; 0.0
64 ; 26182.98246641466 ; 33768.73075769164 ; 1133905.0048803482 ; 2161198.768492266 ; 0.0
65 ; 26769.677532233673 ; 33768.73075769164 ; 1160087.9873467628 ; 2194967.4992499575 ; 0.0
66 ; 26665.954339487 ; 33768.73075769164 ; 1186857.6648789966 ; 2228736.230007649 ; 0.0
67 ; 26701.993102431854 ; 33768.73075769164 ; 1213523.6192184836 ; 2262504.9607653404 ; 0.0
68 ; 26845.62162136876 ; 33768.73075769164 ; 1240225.6123209153 ; 2296273.691523032 ; 0.0
69 ; 26978.51384986422 ; 33768.73075769164 ; 1267071.233942284 ; 2330042.422280723 ; 0.0
70 ; 26952.47050670927 ; 33768.73075769164 ; 1294049.7477921483 ; 2363811.1530384147 ; 0.0
71 ; 26973.832142233063 ; 33768.73075769164 ; 1321002.2182988576 ; 2397579.883796106 ; 0.0
72 ; 27072.054823296494 ; 33768.73075769164 ; 1347976.0504410907 ; 2431348.6145537975 ; 0.0
73 ; 27311.541600669858 ; 33768.73075769164 ; 1375048.105264387 ; 2465117.345311489 ; 0.0
74 ; 27139.21344624583 ; 33768.73075769164 ; 1402359.646865057 ; 2498886.0760691804 ; 0.0
75 ; 27371.78553778933 ; 33768.73075769164 ; 1429498.8603113028 ; 2532654.806826872 ; 0.0
76 ; 27441.054046186015 ; 33768.73075769164 ; 1456870.6458490922 ; 2566423.5375845633 ; 0.0
77 ; 27496.034565465296 ; 33768.73075769164 ; 1484311.699895278 ; 2600192.2683422547 ; 0.0
78 ; 27726.87886631205 ; 33768.73075769164 ; 1511807.7344607434 ; 2633960.999099946 ; 0.0
79 ; 27512.539181269418 ; 33768.73075769164 ; 1539534.6133270555 ; 2667729.7298576375 ; 0.0
80 ; 27505.811620373086 ; 33768.73075769164 ; 1567047.152508325 ; 2701498.460615329 ; 0.0
81 ; 27422.25262364974 ; 33768.73075769164 ; 1594552.964128698 ; 2735267.1913730204 ; 0.0
82 ; 27577.990598577235 ; 33768.73075769164 ; 1621975.2167523478 ; 2769035.922130712 ; 0.0
83 ; 27502.176527781565 ; 33768.73075769164 ; 1649553.207350925 ; 2802804.6528884033 ; 0.0
84 ; 27577.927800866873 ; 33768.73075769164 ; 1677055.3838787067 ; 2836573.3836460947 ; 0.0
85 ; 27637.423351856825 ; 33768.73075769164 ; 1704633.3116795735 ; 2870342.114403786 ; 0.0
86 ; 27522.974948328512 ; 33768.73075769164 ; 1732270.7350314304 ; 2904110.8451614776 ; 0.0
87 ; 27562.852553807457 ; 33768.73075769164 ; 1759793.7099797588 ; 2937879.575919169 ; 0.0
88 ; 27497.297544830322 ; 33768.73075769164 ; 1787356.5625335663 ; 2971648.3066768604 ; 0.0
89 ; 27406.604772613828 ; 33768.73075769164 ; 1814853.8600783965 ; 3005417.037434552 ; 0.0
90 ; 27435.707539098315 ; 33768.73075769164 ; 1842260.4648510104 ; 3039185.7681922433 ; 0.0
91 ; 27190.612761018878 ; 33768.73075769164 ; 1869696.1723901087 ; 3072954.4989499347 ; 0.0
92 ; 27265.860314316582 ; 33768.73075769164 ; 1896886.7851511275 ; 3106723.229707626 ; 0.0
93 ; 27152.595177728002 ; 33768.73075769164 ; 1924152.645465444 ; 3140491.9604653176 ; 0.0
94 ; 27072.887794772854 ; 33768.73075769164 ; 1951305.240643172 ; 3174260.691223009 ; 0.0
95 ; 27043.728661428886 ; 33768.73075769164 ; 1978378.128437945 ; 3208029.4219807005 ; 0.0
96 ; 26919.66141939832 ; 33768.73075769164 ; 2005421.8570993738 ; 3241798.152738392 ; 0.0
97 ; 26784.098013813516 ; 33768.73075769164 ; 2032341.5185187722 ; 3275566.8834960833 ; 0.0
98 ; 26737.76193106425 ; 33768.73075769164 ; 2059125.6165325858 ; 3309335.6142537748 ; 0.0
99 ; 26673.37842137687 ; 33768.73075769164 ; 2085863.3784636501 ; 3343104.345011466 ; 0.0
100 ; 26495.184400847826 ; 33768.73075769164 ; 2112536.756885027 ; 3376873.0757691576 ; 0.0
101 ; 26463.17507648178 ; 33768.73075769164 ; 2139031.9412858747 ; 3410641.806526849 ; 0.0
102 ; 26308.604217332864 ; 33768.73075769164 ; 2165495.1163623566 ; 3444410.5372845405 ; 0.0
103 ; 26012.306643131556 ; 33768.73075769164 ; 2191803.7205796894 ; 3478179.268042232 ; 0.0
104 ; 25917.784519326455 ; 33768.73075769164 ; 2217816.027222821 ; 3511947.9987999233 ; 0.0
105 ; 25867.657818995147 ; 33768.73075769164 ; 2243733.8117421474 ; 3545716.729557615 ; 0.0
106 ; 25578.725454339652 ; 33768.73075769164 ; 2269601.4695611424 ; 3579485.460315306 ; 0.0
107 ; 25478.608750292893 ; 33768.73075769164 ; 2295180.195015482 ; 3613254.1910729976 ; 0.0
108 ; 25512.0977708252 ; 33768.73075769164 ; 2320658.803765775 ; 3647022.921830689 ; 0.0
109 ; 25187.968835134194 ; 33768.73075769164 ; 2346170.9015366 ; 3680791.6525883805 ; 0.0
110 ; 24862.83279072575 ; 33768.73075769164 ; 2371358.8703717343 ; 3714560.383346072 ; 0.0
111 ; 24810.845530072504 ; 33768.73075769164 ; 2396221.70316246 ; 3748329.1141037634 ; 0.0
112 ; 24779.431827295215 ; 33768.73075769164 ; 2421032.548692533 ; 3782097.844861455 ; 0.0
113 ; 24347.56281429975 ; 33768.73075769164 ; 2445811.980519828 ; 3815866.575619146 ; 0.0
114 ; 24180.56716500096 ; 33768.73075769164 ; 2470159.543334128 ; 3849635.3063768377 ; 0.0
115 ; 24050.544571581602 ; 33768.73075769164 ; 2494340.1104991287 ; 3883404.037134529 ; 0.0
116 ; 23765.735330620624 ; 33768.73075769164 ; 2518390.6550707105 ; 3917172.7678922205 ; 0.0
117 ; 23477.239100414805 ; 33768.73075769164 ; 2542156.3904013312 ; 3950941.498649912 ; 0.0
118 ; 23432.376005264196 ; 33768.73075769164 ; 2565633.629501746 ; 3984710.2294076034 ; 0.0
119 ; 23041.375634561107 ; 33768.73075769164 ; 2589066.00550701 ; 4018478.960165295 ; 0.0
120 ; 22584.733337183778 ; 33768.73075769164 ; 2612107.3811415713 ; 4052247.6909229863 ; 0.0
121 ; 22469.99525698811 ; 33768.73075769164 ; 2634692.1144787553 ; 4086016.4216806777 ; 0.0
122 ; 22209.510423328076 ; 33768.73075769164 ; 2657162.1097357436 ; 4119785.152438369 ; 0.0
123 ; 21917.97661678141 ; 33768.73075769164 ; 2679371.620159072 ; 4153553.8831960605 ; 0.0
124 ; 21744.072770483028 ; 33768.73075769164 ; 2701289.596775853 ; 4187322.613953752 ; 0.0
125 ; 21509.403874284435 ; 33768.73075769164 ; 2723033.669546336 ; 4221091.344711443 ; 0.0
126 ; 21098.657038657373 ; 33768.73075769164 ; 2744543.0734206205 ; 4254860.075469135 ; 0.0
127 ; 20705.673252738306 ; 33768.73075769164 ; 2765641.730459278 ; 4288628.806226827 ; 0.0
128 ; 20428.168442694798 ; 33768.73075769164 ; 2786347.403712016 ; 4322397.536984519 ; 0.0
129 ; 20337.0140969039 ; 33768.73075769164 ; 2806775.572154711 ; 4356166.267742211 ; 0.0
130 ; 19850.154741245457 ; 33768.73075769164 ; 2827112.586251615 ; 4389934.998499903 ; 0.0
131 ; 19540.373433283607 ; 33768.73075769164 ; 2846962.7409928604 ; 4423703.729257595 ; 0.0
132 ; 19092.080872273345 ; 33768.73075769164 ; 2866503.114426144 ; 4457472.460015287 ; 0.0
133 ; 18823.3603469955 ; 33768.73075769164 ; 2885595.1952984175 ; 4491241.190772979 ; 0.0
134 ; 18584.29466316816 ; 33768.73075769164 ; 2904418.5556454128 ; 4525009.9215306705 ; 0.0
135 ; 18384.201745181326 ; 33768.73075769164 ; 2923002.850308581 ; 4558778.652288362 ; 0.0
136 ; 17923.905584531545 ; 33768.73075769164 ; 2941387.052053762 ; 4592547.383046054 ; 0.0
137 ; 17357.951439475346 ; 33768.73075769164 ; 2959310.9576382935 ; 4626316.113803746 ; 0.0
138 ; 17036.239256274548 ; 33768.73075769164 ; 2976668.9090777687 ; 4660084.844561438 ; 0.0
139 ; 16825.715754893103 ; 33768.73075769164 ; 2993705.148334043 ; 4693853.57531913 ; 0.0
140 ; 16227.174876750318 ; 33768.73075769164 ; 3010530.8640889362 ; 4727622.306076822 ; 0.0
141 ; 15990.357448665676 ; 33768.73075769164 ; 3026758.0389656867 ; 4761391.036834514 ; 0.0
142 ; 15681.785587293001 ; 33768.73075769164 ; 3042748.3964143526 ; 4795159.767592206 ; 0.0
143 ; 15203.95096144192 ; 33768.73075769164 ; 3058430.1820016457 ; 4828928.498349898 ; 0.0
144 ; 14607.699732730573 ; 33768.73075769164 ; 3073634.1329630874 ; 4862697.229107589 ; 0.0
145 ; 14731.438787873534 ; 33768.73075769164 ; 3088241.832695818 ; 4896465.959865281 ; 0.0
146 ; 14515.130986472039 ; 33768.73075769164 ; 3102973.2714836914 ; 4930234.690622973 ; 0.0
147 ; 14292.027022737126 ; 33768.73075769164 ; 3117488.4024701635 ; 4964003.421380665 ; 0.0
148 ; 14168.684825836606 ; 33768.73075769164 ; 3131780.4294929006 ; 4997772.152138357 ; 0.0
149 ; 14239.435658738765 ; 33768.73075769164 ; 3145949.1143187373 ; 5031540.882896049 ; 0.0
150 ; 14096.394217710678 ; 33768.73075769164 ; 3160188.5499774762 ; 5065309.613653741 ; 0.0
151 ; 14027.250593585559 ; 33768.73075769164 ; 3174284.9441951867 ; 5099078.344411433 ; 0.0
152 ; 13745.002693846667 ; 33768.73075769164 ; 3188312.194788772 ; 5132847.075169125 ; 0.0
153 ; 13723.889508475992 ; 33768.73075769164 ; 3202057.197482619 ; 5166615.805926817 ; 0.0
154 ; 13529.200179372257 ; 33768.73075769164 ; 3215781.086991095 ; 5200384.536684508 ; 0.0
155 ; 13324.063157034561 ; 33768.73075769164 ; 3229310.2871704674 ; 5234153.2674422 ; 0.0
156 ; 13330.370615746035 ; 33768.73075769164 ; 3242634.350327502 ; 5267921.998199892 ; 0.0
157 ; 13172.282943036887 ; 33768.73075769164 ; 3255964.720943248 ; 5301690.728957584 ; 0.0
158 ; 13106.597814695848 ; 33768.73075769164 ; 3269137.003886285 ; 5335459.459715276 ; 0.0
159 ; 12765.655184331243 ; 33768.73075769164 ; 3282243.6017009807 ; 5369228.190472968 ; 0.0
160 ; 12718.5188940523 ; 33768.73075769164 ; 3295009.256885312 ; 5402996.92123066 ; 0.0
161 ; 12537.318526349969 ; 33768.73075769164 ; 3307727.775779364 ; 5436765.651988352 ; 0.0
162 ; 12428.977405882544 ; 33768.73075769164 ; 3320265.094305714 ; 5470534.382746044 ; 0.0
163 ; 12325.286163948522 ; 33768.73075769164 ; 3332694.0717115966 ; 5504303.1135037355 ; 0.0
164 ; 12113.140832701263 ; 33768.73075769164 ; 3345019.357875545 ; 5538071.844261427 ; 0.0
165 ; 11907.394138174099 ; 33768.73075769164 ; 3357132.4987082463 ; 5571840.575019119 ; 0.0
166 ; 11916.821146775499 ; 33768.73075769164 ; 3369039.8928464204 ; 5605609.305776811 ; 0.0
167 ; 11571.8114249217 ; 33768.73075769164 ; 3380956.713993196 ; 5639378.036534503 ; 0.0
168 ; 11509.382339999684 ; 33768.73075769164 ; 3392528.5254181176 ; 5673146.767292195 ; 0.0
169 ; 11466.722837407691 ; 33768.73075769164 ; 3404037.907758117 ; 5706915.498049887 ; 0.0
170 ; 11099.378828058148 ; 33768.73075769164 ; 3415504.630595525 ; 5740684.228807579 ; 0.0
171 ; 11158.920241400494 ; 33768.73075769164 ; 3426604.009423583 ; 5774452.959565271 ; 0.0
172 ; 10748.670538593498 ; 33768.73075769164 ; 3437762.9296649834 ; 5808221.690322963 ; 0.0
173 ; 10700.653549781413 ; 33768.73075769164 ; 3448511.600203577 ; 5841990.4210806545 ; 0.0
174 ; 10765.987189916803 ; 33768.73075769164 ; 3459212.2537533585 ; 5875759.151838346 ; 0.0
175 ; 10982.969150838324 ; 33768.73075769164 ; 3469978.2409432754 ; 5909527.882596038 ; 0.0
176 ; 10945.809434869177 ; 33768.73075769164 ; 3480961.210094114 ; 5943296.61335373 ; 0.0
177 ; 10883.081127186559 ; 33768.73075769164 ; 3491907.019528983 ; 5977065.344111422 ; 0.0
178 ; 10786.42412321029 ; 33768.73075769164 ; 3502790.10065617 ; 6010834.074869114 ; 0.0
179 ; 10917.204458463462 ; 33768.73075769164 ; 3513576.5247793803 ; 6044602.805626806 ; 0.0
180 ; 11006.178109594937 ; 33768.73075769164 ; 3524493.729237844 ; 6078371.536384498 ; 0.0
181 ; 10987.304522209182 ; 33768.73075769164 ; 3535499.907347439 ; 6112140.26714219 ; 0.0
182 ; 10973.324534452222 ; 33768.73075769164 ; 3546487.211869648 ; 6145908.997899882 ; 0.0
183 ; 11038.950780888674 ; 33768.73075769164 ; 3557460.5364041002 ; 6179677.728657573 ; 0.0
184 ; 11112.138351402069 ; 33768.73075769164 ; 3568499.487184989 ; 6213446.459415265 ; 0.0
185 ; 11156.489243081953 ; 33768.73075769164 ; 3579611.625536391 ; 6247215.190172957 ; 0.0
186 ; 11064.152358858186 ; 33768.73075769164 ; 3590768.114779473 ; 6280983.920930649 ; 0.0
187 ; 11161.762072678832 ; 33768.73075769164 ; 3601832.267138331 ; 6314752.651688341 ; 0.0
188 ; 11158.761426777684 ; 33768.73075769164 ; 3612994.02921101 ; 6348521.382446033 ; 0.0
189 ; 11144.45389813778 ; 33768.73075769164 ; 3624152.7906377874 ; 6382290.113203725 ; 0.0
190 ; 11310.755438500919 ; 33768.73075769164 ; 3635297.2445359253 ; 6416058.843961417 ; 0.0
191 ; 11379.094626299326 ; 33768.73075769164 ; 3646607.9999744263 ; 6449827.574719109 ; 0.0
192 ; 11221.425019630757 ; 33768.73075769164 ; 3657987.0946007255 ; 6483596.305476801 ; 0.0
193 ; 11405.471114782078 ; 33768.73075769164 ; 3669208.519620356 ; 6517365.036234492 ; 0.0
194 ; 11484.586909870706 ; 33768.73075769164 ; 3680613.9907351383 ; 6551133.766992184 ; 0.0
195 ; 11405.64999257845 ; 33768.73075769164 ; 3692098.577645009 ; 6584902.497749876 ; 0.0
196 ; 11501.111422573562 ; 33768.73075769164 ; 3703504.2276375876 ; 6618671.228507568 ; 0.0
197 ; 11480.67307749948 ; 33768.73075769164 ; 3715005.3390601613 ; 6652439.95926526 ; 0.0
198 ; 11548.526323161881 ; 33768.73075769164 ; 3726486.0121376608 ; 6686208.690022952 ; 0.0
199 ; 11534.032062657789 ; 33768.73075769164 ; 3738034.538460823 ; 6719977.420780644 ; 0.0
200 ; 11684.853653253169 ; 33768.73075769164 ; 3749568.5705234804 ; 6753746.151538336 ; 0.0
201 ; 11533.465485437851 ; 33768.73075769164 ; 3761253.4241767335 ; 6787514.882296028 ; 0.0
202 ; 11673.076237115392 ; 33768.73075769164 ; 3772786.8896621712 ; 6821283.6130537195 ; 0.0
203 ; 11609.74652821535 ; 33768.73075769164 ; 3784459.965899287 ; 6855052.343811411 ; 0.0
204 ; 11741.173931818415 ; 33768.73075769164 ; 3796069.712427502 ; 6888821.074569103 ; 0.0
205 ; 11778.931453814756 ; 33768.73075769164 ; 3807810.8863593205 ; 6922589.805326795 ; 0.0
206 ; 11872.971010114648 ; 33768.73075769164 ; 3819589.817813135 ; 6956358.536084487 ; 0.0
207 ; 11994.524404833624 ; 33768.73075769164 ; 3831462.7888232497 ; 6990127.266842179 ; 0.0
208 ; 11961.337989381811 ; 33768.73075769164 ; 3843457.3132280833 ; 7023895.997599871 ; 0.0
209 ; 11963.811922259845 ; 33768.73075769164 ; 3855418.6512174653 ; 7057664.728357563 ; 0.0
210 ; 12015.809466330516 ; 33768.73075769164 ; 3867382.463139725 ; 7091433.459115255 ; 0.0
211 ; 12090.572393630158 ; 33768.73075769164 ; 3879398.2726060553 ; 7125202.189872947 ; 0.0
212 ; 12108.227353647819 ; 33768.73075769164 ; 3891488.8449996854 ; 7158970.9206306385 ; 0.0
213 ; 11979.556978720399 ; 33768.73075769164 ; 3903597.0723533332 ; 7192739.65138833 ; 0.0
214 ; 12088.473130092869 ; 33768.73075769164 ; 3915576.6293320535 ; 7226508.382146022 ; 0.0
215 ; 12182.039851065194 ; 33768.73075769164 ; 3927665.1024621464 ; 7260277.112903714 ; 0.0
216 ; 12255.60449603189 ; 33768.73075769164 ; 3939847.1423132117 ; 7294045.843661406 ; 0.0
