CSV File for the City 2 on Day 161
1 - Minute m 
2 - Power Consumed at minute m 
3 - Power Produced at minute m 
4 - Energy Consumed since the beginning of the day 
5 - Energy Produced since the beginning of the day 
6 - Energy Lost since the beginning of the day on lines starting from the city
 
0 ; 6581.737305222429 ; 30209.68798221078 ; 0.0 ; 0.0 ; 0.0
1 ; 7160.838680025568 ; 30209.68798221078 ; 6581.737305222429 ; 30209.68798221078 ; 0.0
2 ; 7577.200754902862 ; 30209.68798221078 ; 13742.575985247997 ; 60419.37596442156 ; 0.0
3 ; 7985.590425594265 ; 30209.68798221078 ; 21319.77674015086 ; 90629.06394663235 ; 0.0
4 ; 8598.527367113213 ; 30209.68798221078 ; 29305.367165745127 ; 120838.75192884312 ; 0.0
5 ; 8821.0689344652 ; 30209.68798221078 ; 37903.894532858336 ; 151048.4399110539 ; 0.0
6 ; 9337.785767182324 ; 30209.68798221078 ; 46724.963467323534 ; 181258.12789326467 ; 0.0
7 ; 9638.428167870787 ; 30209.68798221078 ; 56062.749234505856 ; 211467.81587547544 ; 0.0
8 ; 10219.336952657985 ; 30209.68798221078 ; 65701.17740237665 ; 241677.5038576862 ; 0.0
9 ; 10670.426949684263 ; 30209.68798221078 ; 75920.51435503463 ; 271887.191839897 ; 0.0
10 ; 10926.775912983401 ; 30209.68798221078 ; 86590.94130471889 ; 302096.8798221078 ; 0.0
11 ; 11221.458996904397 ; 30209.68798221078 ; 97517.71721770229 ; 332306.56780431856 ; 0.0
12 ; 11505.675244232769 ; 30209.68798221078 ; 108739.17621460669 ; 362516.25578652933 ; 0.0
13 ; 12031.946158235127 ; 30209.68798221078 ; 120244.85145883946 ; 392725.9437687401 ; 0.0
14 ; 12239.717178835728 ; 30209.68798221078 ; 132276.7976170746 ; 422935.6317509509 ; 0.0
15 ; 12674.753530408605 ; 30209.68798221078 ; 144516.51479591033 ; 453145.31973316165 ; 0.0
16 ; 13178.606342106705 ; 30209.68798221078 ; 157191.26832631894 ; 483355.0077153724 ; 0.0
17 ; 13559.14275182767 ; 30209.68798221078 ; 170369.87466842565 ; 513564.6956975832 ; 0.0
18 ; 13818.064613590486 ; 30209.68798221078 ; 183929.0174202533 ; 543774.383679794 ; 0.0
19 ; 14130.692220484018 ; 30209.68798221078 ; 197747.0820338438 ; 573984.0716620048 ; 0.0
20 ; 14487.951525239732 ; 30209.68798221078 ; 211877.77425432781 ; 604193.7596442156 ; 0.0
21 ; 14942.679263637187 ; 30209.68798221078 ; 226365.72577956755 ; 634403.4476264264 ; 0.0
22 ; 14981.77940632798 ; 30209.68798221078 ; 241308.40504320475 ; 664613.1356086371 ; 0.0
23 ; 15416.530203641967 ; 30209.68798221078 ; 256290.18444953274 ; 694822.8235908479 ; 0.0
24 ; 15790.925776045067 ; 30209.68798221078 ; 271706.7146531747 ; 725032.5115730587 ; 0.0
25 ; 16017.543055092641 ; 30209.68798221078 ; 287497.64042921975 ; 755242.1995552694 ; 0.0
26 ; 16473.43114549447 ; 30209.68798221078 ; 303515.1834843124 ; 785451.8875374802 ; 0.0
27 ; 16687.909062861057 ; 30209.68798221078 ; 319988.61462980683 ; 815661.575519691 ; 0.0
28 ; 16920.325529553105 ; 30209.68798221078 ; 336676.5236926679 ; 845871.2635019018 ; 0.0
29 ; 17298.38958350309 ; 30209.68798221078 ; 353596.849222221 ; 876080.9514841125 ; 0.0
30 ; 17524.290371839885 ; 30209.68798221078 ; 370895.2388057241 ; 906290.6394663233 ; 0.0
31 ; 17975.923706434653 ; 30209.68798221078 ; 388419.52917756396 ; 936500.3274485341 ; 0.0
32 ; 18104.64483057884 ; 30209.68798221078 ; 406395.45288399863 ; 966710.0154307449 ; 0.0
33 ; 18428.077974256634 ; 30209.68798221078 ; 424500.09771457745 ; 996919.7034129556 ; 0.0
34 ; 18502.579702368657 ; 30209.68798221078 ; 442928.1756888341 ; 1027129.3913951664 ; 0.0
35 ; 18852.02743498675 ; 30209.68798221078 ; 461430.75539120275 ; 1057339.0793773772 ; 0.0
36 ; 19128.352263041543 ; 30209.68798221078 ; 480282.7828261895 ; 1087548.767359588 ; 0.0
37 ; 19459.1484740529 ; 30209.68798221078 ; 499411.135089231 ; 1117758.455341799 ; 0.0
38 ; 19477.328038431187 ; 30209.68798221078 ; 518870.2835632839 ; 1147968.1433240098 ; 0.0
39 ; 19934.077070944168 ; 30209.68798221078 ; 538347.6116017151 ; 1178177.8313062207 ; 0.0
40 ; 20242.55847055534 ; 30209.68798221078 ; 558281.6886726592 ; 1208387.5192884316 ; 0.0
41 ; 20362.75410188331 ; 30209.68798221078 ; 578524.2471432146 ; 1238597.2072706425 ; 0.0
42 ; 20516.085731991658 ; 30209.68798221078 ; 598887.0012450978 ; 1268806.8952528534 ; 0.0
43 ; 20876.468053343095 ; 30209.68798221078 ; 619403.0869770895 ; 1299016.5832350643 ; 0.0
44 ; 20992.67549958859 ; 30209.68798221078 ; 640279.5550304326 ; 1329226.2712172752 ; 0.0
45 ; 21149.146810796523 ; 30209.68798221078 ; 661272.2305300212 ; 1359435.959199486 ; 0.0
46 ; 21311.55958980774 ; 30209.68798221078 ; 682421.3773408178 ; 1389645.647181697 ; 0.0
47 ; 21520.324741326094 ; 30209.68798221078 ; 703732.9369306256 ; 1419855.3351639078 ; 0.0
48 ; 21681.78944458495 ; 30209.68798221078 ; 725253.2616719516 ; 1450065.0231461187 ; 0.0
49 ; 21896.82141429568 ; 30209.68798221078 ; 746935.0511165366 ; 1480274.7111283296 ; 0.0
50 ; 22097.88583722161 ; 30209.68798221078 ; 768831.8725308323 ; 1510484.3991105405 ; 0.0
51 ; 22164.790243318264 ; 30209.68798221078 ; 790929.7583680539 ; 1540694.0870927514 ; 0.0
52 ; 22369.44793933865 ; 30209.68798221078 ; 813094.5486113722 ; 1570903.7750749623 ; 0.0
53 ; 22475.50239334434 ; 30209.68798221078 ; 835463.9965507109 ; 1601113.4630571732 ; 0.0
54 ; 22681.142551953457 ; 30209.68798221078 ; 857939.4989440552 ; 1631323.151039384 ; 0.0
55 ; 22743.853856875357 ; 30209.68798221078 ; 880620.6414960086 ; 1661532.839021595 ; 0.0
56 ; 23000.655556619677 ; 30209.68798221078 ; 903364.4953528839 ; 1691742.5270038059 ; 0.0
57 ; 23130.61427820827 ; 30209.68798221078 ; 926365.1509095036 ; 1721952.2149860167 ; 0.0
58 ; 23244.19798934966 ; 30209.68798221078 ; 949495.7651877118 ; 1752161.9029682276 ; 0.0
59 ; 23387.36260683306 ; 30209.68798221078 ; 972739.9631770614 ; 1782371.5909504385 ; 0.0
60 ; 23530.68603241761 ; 30209.68798221078 ; 996127.3257838945 ; 1812581.2789326494 ; 0.0
61 ; 23719.41096205984 ; 30209.68798221078 ; 1019658.0118163121 ; 1842790.9669148603 ; 0.0
62 ; 23707.846092487092 ; 30209.68798221078 ; 1043377.422778372 ; 1873000.6548970712 ; 0.0
63 ; 23868.63544828132 ; 30209.68798221078 ; 1067085.268870859 ; 1903210.342879282 ; 0.0
64 ; 23805.99402958054 ; 30209.68798221078 ; 1090953.9043191404 ; 1933420.030861493 ; 0.0
65 ; 24002.38858917997 ; 30209.68798221078 ; 1114759.898348721 ; 1963629.7188437039 ; 0.0
66 ; 24220.283876295933 ; 30209.68798221078 ; 1138762.286937901 ; 1993839.4068259147 ; 0.0
67 ; 24223.238080004117 ; 30209.68798221078 ; 1162982.570814197 ; 2024049.0948081256 ; 0.0
68 ; 24350.670894190167 ; 30209.68798221078 ; 1187205.8088942012 ; 2054258.7827903365 ; 0.0
69 ; 24416.881370546642 ; 30209.68798221078 ; 1211556.4797883914 ; 2084468.4707725474 ; 0.0
70 ; 24371.462503146715 ; 30209.68798221078 ; 1235973.361158938 ; 2114678.158754758 ; 0.0
71 ; 24586.244909456193 ; 30209.68798221078 ; 1260344.8236620845 ; 2144887.846736969 ; 0.0
72 ; 24546.08698913041 ; 30209.68798221078 ; 1284931.0685715408 ; 2175097.53471918 ; 0.0
73 ; 24548.054936380104 ; 30209.68798221078 ; 1309477.1555606711 ; 2205307.2227013907 ; 0.0
74 ; 24641.964090296493 ; 30209.68798221078 ; 1334025.2104970512 ; 2235516.9106836016 ; 0.0
75 ; 24695.426900367092 ; 30209.68798221078 ; 1358667.1745873478 ; 2265726.5986658125 ; 0.0
76 ; 24725.655407549715 ; 30209.68798221078 ; 1383362.6014877148 ; 2295936.2866480234 ; 0.0
77 ; 24788.171140508497 ; 30209.68798221078 ; 1408088.2568952646 ; 2326145.9746302343 ; 0.0
78 ; 24745.269980485667 ; 30209.68798221078 ; 1432876.428035773 ; 2356355.662612445 ; 0.0
79 ; 24787.760283922238 ; 30209.68798221078 ; 1457621.698016259 ; 2386565.350594656 ; 0.0
80 ; 24839.53734373342 ; 30209.68798221078 ; 1482409.4583001812 ; 2416775.038576867 ; 0.0
81 ; 24800.50111662312 ; 30209.68798221078 ; 1507248.9956439147 ; 2446984.726559078 ; 0.0
82 ; 24747.59392457713 ; 30209.68798221078 ; 1532049.4967605378 ; 2477194.4145412887 ; 0.0
83 ; 24983.950715803763 ; 30209.68798221078 ; 1556797.090685115 ; 2507404.1025234996 ; 0.0
84 ; 24658.089086762113 ; 30209.68798221078 ; 1581781.0414009187 ; 2537613.7905057105 ; 0.0
85 ; 24974.61003869152 ; 30209.68798221078 ; 1606439.130487681 ; 2567823.4784879214 ; 0.0
86 ; 24580.85499965823 ; 30209.68798221078 ; 1631413.7405263723 ; 2598033.1664701323 ; 0.0
87 ; 24860.311108801947 ; 30209.68798221078 ; 1655994.5955260305 ; 2628242.854452343 ; 0.0
88 ; 24767.92373671547 ; 30209.68798221078 ; 1680854.9066348325 ; 2658452.542434554 ; 0.0
89 ; 24569.92751823363 ; 30209.68798221078 ; 1705622.830371548 ; 2688662.230416765 ; 0.0
90 ; 24656.860174075067 ; 30209.68798221078 ; 1730192.7578897816 ; 2718871.918398976 ; 0.0
91 ; 24534.318762851464 ; 30209.68798221078 ; 1754849.6180638566 ; 2749081.6063811867 ; 0.0
92 ; 24545.627821680424 ; 30209.68798221078 ; 1779383.936826708 ; 2779291.2943633976 ; 0.0
93 ; 24359.55175385266 ; 30209.68798221078 ; 1803929.5646483884 ; 2809500.9823456085 ; 0.0
94 ; 24376.855226584394 ; 30209.68798221078 ; 1828289.1164022412 ; 2839710.6703278194 ; 0.0
95 ; 24442.008260262966 ; 30209.68798221078 ; 1852665.9716288256 ; 2869920.3583100303 ; 0.0
96 ; 24263.933633994406 ; 30209.68798221078 ; 1877107.9798890885 ; 2900130.046292241 ; 0.0
97 ; 24131.11334874511 ; 30209.68798221078 ; 1901371.9135230829 ; 2930339.734274452 ; 0.0
98 ; 24130.2856189667 ; 30209.68798221078 ; 1925503.026871828 ; 2960549.422256663 ; 0.0
99 ; 24059.5315692646 ; 30209.68798221078 ; 1949633.3124907946 ; 2990759.110238874 ; 0.0
100 ; 24038.502689074354 ; 30209.68798221078 ; 1973692.8440600592 ; 3020968.7982210848 ; 0.0
101 ; 23826.24666868483 ; 30209.68798221078 ; 1997731.3467491334 ; 3051178.4862032956 ; 0.0
102 ; 23654.884781910834 ; 30209.68798221078 ; 2021557.5934178182 ; 3081388.1741855065 ; 0.0
103 ; 23632.735367446534 ; 30209.68798221078 ; 2045212.478199729 ; 3111597.8621677174 ; 0.0
104 ; 23472.92389630226 ; 30209.68798221078 ; 2068845.2135671754 ; 3141807.5501499283 ; 0.0
105 ; 23339.781676282128 ; 30209.68798221078 ; 2092318.1374634777 ; 3172017.238132139 ; 0.0
106 ; 23367.078016851705 ; 30209.68798221078 ; 2115657.9191397596 ; 3202226.92611435 ; 0.0
107 ; 22922.4676581052 ; 30209.68798221078 ; 2139024.997156611 ; 3232436.614096561 ; 0.0
108 ; 23017.572050656603 ; 30209.68798221078 ; 2161947.4648147165 ; 3262646.302078772 ; 0.0
109 ; 22809.178697172607 ; 30209.68798221078 ; 2184965.036865373 ; 3292855.9900609828 ; 0.0
110 ; 22542.1535209321 ; 30209.68798221078 ; 2207774.2155625457 ; 3323065.6780431936 ; 0.0
111 ; 22467.03220252159 ; 30209.68798221078 ; 2230316.3690834776 ; 3353275.3660254045 ; 0.0
112 ; 22277.107968076714 ; 30209.68798221078 ; 2252783.4012859995 ; 3383485.0540076154 ; 0.0
113 ; 22231.48127163106 ; 30209.68798221078 ; 2275060.509254076 ; 3413694.7419898263 ; 0.0
114 ; 22015.21008610286 ; 30209.68798221078 ; 2297291.990525707 ; 3443904.429972037 ; 0.0
115 ; 21854.258699552087 ; 30209.68798221078 ; 2319307.20061181 ; 3474114.117954248 ; 0.0
116 ; 21734.131133564868 ; 30209.68798221078 ; 2341161.4593113624 ; 3504323.805936459 ; 0.0
117 ; 21581.659081316124 ; 30209.68798221078 ; 2362895.590444927 ; 3534533.49391867 ; 0.0
118 ; 21209.04205370585 ; 30209.68798221078 ; 2384477.249526243 ; 3564743.1819008808 ; 0.0
119 ; 21189.050479447484 ; 30209.68798221078 ; 2405686.291579949 ; 3594952.8698830917 ; 0.0
120 ; 20862.81892258048 ; 30209.68798221078 ; 2426875.3420593967 ; 3625162.5578653025 ; 0.0
121 ; 20647.653189481993 ; 30209.68798221078 ; 2447738.1609819774 ; 3655372.2458475134 ; 0.0
122 ; 20461.367485865823 ; 30209.68798221078 ; 2468385.8141714595 ; 3685581.9338297243 ; 0.0
123 ; 20230.50862276095 ; 30209.68798221078 ; 2488847.1816573255 ; 3715791.621811935 ; 0.0
124 ; 20058.803408509735 ; 30209.68798221078 ; 2509077.6902800864 ; 3746001.309794146 ; 0.0
125 ; 19791.220259965878 ; 30209.68798221078 ; 2529136.493688596 ; 3776210.997776357 ; 0.0
126 ; 19511.144247943397 ; 30209.68798221078 ; 2548927.713948562 ; 3806420.685758568 ; 0.0
127 ; 19260.812585428233 ; 30209.68798221078 ; 2568438.8581965053 ; 3836630.373740779 ; 0.0
128 ; 19162.547661425626 ; 30209.68798221078 ; 2587699.6707819337 ; 3866840.0617229897 ; 0.0
129 ; 18707.300070109704 ; 30209.68798221078 ; 2606862.2184433592 ; 3897049.7497052005 ; 0.0
130 ; 18397.15129540896 ; 30209.68798221078 ; 2625569.518513469 ; 3927259.4376874114 ; 0.0
131 ; 18203.462098797976 ; 30209.68798221078 ; 2643966.669808878 ; 3957469.1256696223 ; 0.0
132 ; 17978.08780082462 ; 30209.68798221078 ; 2662170.131907676 ; 3987678.813651833 ; 0.0
133 ; 17648.102608860223 ; 30209.68798221078 ; 2680148.2197085004 ; 4017888.501634044 ; 0.0
134 ; 17486.538931123643 ; 30209.68798221078 ; 2697796.3223173604 ; 4048098.189616255 ; 0.0
135 ; 17133.753733632373 ; 30209.68798221078 ; 2715282.861248484 ; 4078307.877598466 ; 0.0
136 ; 16804.70530696993 ; 30209.68798221078 ; 2732416.614982116 ; 4108517.565580677 ; 0.0
137 ; 16676.426140880394 ; 30209.68798221078 ; 2749221.320289086 ; 4138727.2535628877 ; 0.0
138 ; 16454.171824709054 ; 30209.68798221078 ; 2765897.7464299663 ; 4168936.9415450986 ; 0.0
139 ; 15956.977912269133 ; 30209.68798221078 ; 2782351.9182546753 ; 4199146.629527309 ; 0.0
140 ; 15743.386186383494 ; 30209.68798221078 ; 2798308.8961669444 ; 4229356.31750952 ; 0.0
141 ; 15345.877178429151 ; 30209.68798221078 ; 2814052.282353328 ; 4259566.005491731 ; 0.0
142 ; 14915.302464152486 ; 30209.68798221078 ; 2829398.1595317572 ; 4289775.693473942 ; 0.0
143 ; 14489.777919227943 ; 30209.68798221078 ; 2844313.46199591 ; 4319985.381456153 ; 0.0
144 ; 14205.309238275597 ; 30209.68798221078 ; 2858803.2399151376 ; 4350195.069438363 ; 0.0
145 ; 14360.742761654215 ; 30209.68798221078 ; 2873008.549153413 ; 4380404.757420574 ; 0.0
146 ; 13956.982138875832 ; 30209.68798221078 ; 2887369.2919150675 ; 4410614.445402785 ; 0.0
147 ; 14066.367211937333 ; 30209.68798221078 ; 2901326.2740539433 ; 4440824.133384996 ; 0.0
148 ; 13812.34046814972 ; 30209.68798221078 ; 2915392.641265881 ; 4471033.821367207 ; 0.0
149 ; 13916.461285312229 ; 30209.68798221078 ; 2929204.9817340304 ; 4501243.509349418 ; 0.0
150 ; 13743.104618920454 ; 30209.68798221078 ; 2943121.4430193426 ; 4531453.197331629 ; 0.0
151 ; 13642.913533389325 ; 30209.68798221078 ; 2956864.547638263 ; 4561662.88531384 ; 0.0
152 ; 13554.079635402843 ; 30209.68798221078 ; 2970507.461171652 ; 4591872.573296051 ; 0.0
153 ; 13368.147693364537 ; 30209.68798221078 ; 2984061.540807055 ; 4622082.261278261 ; 0.0
154 ; 13187.682911129648 ; 30209.68798221078 ; 2997429.6885004193 ; 4652291.949260472 ; 0.0
155 ; 13270.05374807153 ; 30209.68798221078 ; 3010617.371411549 ; 4682501.637242683 ; 0.0
156 ; 12973.364369904542 ; 30209.68798221078 ; 3023887.4251596206 ; 4712711.325224894 ; 0.0
157 ; 12782.64212190295 ; 30209.68798221078 ; 3036860.789529525 ; 4742921.013207105 ; 0.0
158 ; 12800.035307192646 ; 30209.68798221078 ; 3049643.4316514283 ; 4773130.701189316 ; 0.0
159 ; 12896.550723192033 ; 30209.68798221078 ; 3062443.466958621 ; 4803340.389171527 ; 0.0
160 ; 12649.565822162302 ; 30209.68798221078 ; 3075340.017681813 ; 4833550.077153738 ; 0.0
161 ; 12517.150951297155 ; 30209.68798221078 ; 3087989.583503975 ; 4863759.765135949 ; 0.0
162 ; 12227.294431860464 ; 30209.68798221078 ; 3100506.734455272 ; 4893969.453118159 ; 0.0
163 ; 12391.944536494968 ; 30209.68798221078 ; 3112734.0288871326 ; 4924179.14110037 ; 0.0
164 ; 12273.420114135908 ; 30209.68798221078 ; 3125125.9734236277 ; 4954388.829082581 ; 0.0
165 ; 12016.689837251768 ; 30209.68798221078 ; 3137399.3935377635 ; 4984598.517064792 ; 0.0
166 ; 11886.643982083853 ; 30209.68798221078 ; 3149416.0833750153 ; 5014808.205047003 ; 0.0
167 ; 11659.012393389245 ; 30209.68798221078 ; 3161302.7273570993 ; 5045017.893029214 ; 0.0
168 ; 11496.693207391108 ; 30209.68798221078 ; 3172961.7397504887 ; 5075227.581011425 ; 0.0
169 ; 11357.455812065527 ; 30209.68798221078 ; 3184458.4329578797 ; 5105437.268993636 ; 0.0
170 ; 11266.012986148779 ; 30209.68798221078 ; 3195815.888769945 ; 5135646.956975847 ; 0.0
171 ; 11255.62734811241 ; 30209.68798221078 ; 3207081.901756094 ; 5165856.644958057 ; 0.0
172 ; 10997.246579097466 ; 30209.68798221078 ; 3218337.5291042062 ; 5196066.332940268 ; 0.0
173 ; 10830.51878159566 ; 30209.68798221078 ; 3229334.775683304 ; 5226276.020922479 ; 0.0
174 ; 10986.848885494013 ; 30209.68798221078 ; 3240165.2944648997 ; 5256485.70890469 ; 0.0
175 ; 11067.660204500631 ; 30209.68798221078 ; 3251152.1433503935 ; 5286695.396886901 ; 0.0
176 ; 10879.437667713952 ; 30209.68798221078 ; 3262219.803554894 ; 5316905.084869112 ; 0.0
177 ; 10878.186944391413 ; 30209.68798221078 ; 3273099.241222608 ; 5347114.772851323 ; 0.0
178 ; 10998.306477636492 ; 30209.68798221078 ; 3283977.4281669995 ; 5377324.460833534 ; 0.0
179 ; 11034.267523037941 ; 30209.68798221078 ; 3294975.734644636 ; 5407534.148815745 ; 0.0
180 ; 11098.393354874814 ; 30209.68798221078 ; 3306010.002167674 ; 5437743.836797955 ; 0.0
181 ; 11124.062197212737 ; 30209.68798221078 ; 3317108.395522549 ; 5467953.524780166 ; 0.0
182 ; 11170.09561507769 ; 30209.68798221078 ; 3328232.4577197614 ; 5498163.212762377 ; 0.0
183 ; 11133.870706352864 ; 30209.68798221078 ; 3339402.553334839 ; 5528372.900744588 ; 0.0
184 ; 11315.961446424662 ; 30209.68798221078 ; 3350536.424041192 ; 5558582.588726799 ; 0.0
185 ; 11123.909613376689 ; 30209.68798221078 ; 3361852.3854876165 ; 5588792.27670901 ; 0.0
186 ; 11162.071334260696 ; 30209.68798221078 ; 3372976.295100993 ; 5619001.964691221 ; 0.0
187 ; 11078.443267822195 ; 30209.68798221078 ; 3384138.3664352535 ; 5649211.652673432 ; 0.0
188 ; 11304.074646658513 ; 30209.68798221078 ; 3395216.809703076 ; 5679421.340655643 ; 0.0
189 ; 11025.471051505061 ; 30209.68798221078 ; 3406520.8843497345 ; 5709631.028637853 ; 0.0
190 ; 11358.263269916004 ; 30209.68798221078 ; 3417546.3554012394 ; 5739840.716620064 ; 0.0
191 ; 11369.982002900408 ; 30209.68798221078 ; 3428904.6186711555 ; 5770050.404602275 ; 0.0
192 ; 11389.645530335763 ; 30209.68798221078 ; 3440274.600674056 ; 5800260.092584486 ; 0.0
193 ; 11267.795366712486 ; 30209.68798221078 ; 3451664.2462043916 ; 5830469.780566697 ; 0.0
194 ; 11501.244986126643 ; 30209.68798221078 ; 3462932.041571104 ; 5860679.468548908 ; 0.0
195 ; 11371.010030240379 ; 30209.68798221078 ; 3474433.2865572306 ; 5890889.156531119 ; 0.0
196 ; 11443.38539440691 ; 30209.68798221078 ; 3485804.296587471 ; 5921098.84451333 ; 0.0
197 ; 11559.00626558796 ; 30209.68798221078 ; 3497247.681981878 ; 5951308.532495541 ; 0.0
198 ; 11677.441564715915 ; 30209.68798221078 ; 3508806.688247466 ; 5981518.220477751 ; 0.0
199 ; 11545.936217896291 ; 30209.68798221078 ; 3520484.129812182 ; 6011727.908459962 ; 0.0
200 ; 11434.34208382137 ; 30209.68798221078 ; 3532030.066030078 ; 6041937.596442173 ; 0.0
201 ; 11532.76587137708 ; 30209.68798221078 ; 3543464.4081138996 ; 6072147.284424384 ; 0.0
202 ; 11706.772282763344 ; 30209.68798221078 ; 3554997.173985277 ; 6102356.972406595 ; 0.0
203 ; 11715.29569929439 ; 30209.68798221078 ; 3566703.94626804 ; 6132566.660388806 ; 0.0
204 ; 11807.04449721535 ; 30209.68798221078 ; 3578419.2419673344 ; 6162776.348371017 ; 0.0
205 ; 11695.839059515454 ; 30209.68798221078 ; 3590226.2864645496 ; 6192986.036353228 ; 0.0
206 ; 11673.644523588639 ; 30209.68798221078 ; 3601922.125524065 ; 6223195.724335439 ; 0.0
207 ; 11722.50964849078 ; 30209.68798221078 ; 3613595.7700476535 ; 6253405.412317649 ; 0.0
208 ; 11678.439636971812 ; 30209.68798221078 ; 3625318.279696144 ; 6283615.10029986 ; 0.0
209 ; 11758.38596811112 ; 30209.68798221078 ; 3636996.719333116 ; 6313824.788282071 ; 0.0
210 ; 11726.468333027722 ; 30209.68798221078 ; 3648755.105301227 ; 6344034.476264282 ; 0.0
211 ; 11921.976559914863 ; 30209.68798221078 ; 3660481.5736342547 ; 6374244.164246493 ; 0.0
212 ; 11863.465204100396 ; 30209.68798221078 ; 3672403.5501941694 ; 6404453.852228704 ; 0.0
213 ; 11741.465852735684 ; 30209.68798221078 ; 3684267.01539827 ; 6434663.540210915 ; 0.0
214 ; 12079.076264154033 ; 30209.68798221078 ; 3696008.4812510055 ; 6464873.228193126 ; 0.0
215 ; 11869.505028990005 ; 30209.68798221078 ; 3708087.5575151597 ; 6495082.916175337 ; 0.0
216 ; 12018.11862243139 ; 30209.68798221078 ; 3719957.06254415 ; 6525292.6041575475 ; 0.0
