CSV File for the City 3 on Day 273
1 - Minute m 
2 - Power Consumed at minute m 
3 - Power Produced at minute m 
4 - Energy Consumed since the beginning of the day 
5 - Energy Produced since the beginning of the day 
6 - Energy Lost since the beginning of the day on lines starting from the city
 
0 ; 6078.8865795236425 ; 112938.42705987339 ; 0.0 ; 0.0 ; 0.0
1 ; 6329.83116144526 ; 112597.57862975255 ; 6078.8865795236425 ; 112938.42705987339 ; 0.0
2 ; 6595.65571249677 ; 112291.66199976785 ; 12408.717740968903 ; 225536.00568962592 ; 0.0
3 ; 6965.776020650054 ; 112020.98673955725 ; 19004.373453465672 ; 337827.66768939374 ; 0.0
4 ; 7501.289388331243 ; 111785.82952832055 ; 25970.149474115726 ; 449848.654428951 ; 0.0
5 ; 7855.759540816567 ; 111586.43287749746 ; 33471.43886244697 ; 561634.4839572716 ; 0.0
6 ; 8267.395835819423 ; 111423.00399352789 ; 41327.19840326354 ; 673220.9168347691 ; 0.0
7 ; 8474.112496891596 ; 111295.71379305287 ; 49594.59423908296 ; 784643.9208282969 ; 0.0
8 ; 8740.326050514726 ; 111204.69608145996 ; 58068.706735974556 ; 895939.6346213497 ; 0.0
9 ; 9277.762088719614 ; 111150.04690401383 ; 66809.03278648929 ; 1007144.3307028097 ; 0.0
10 ; 9658.301433362223 ; 111131.82407696245 ; 76086.7948752089 ; 1118294.3776068236 ; 0.0
11 ; 9782.167337041137 ; 111150.04690401383 ; 85745.09630857113 ; 1229426.201683786 ; 0.0
12 ; 10045.722519583798 ; 111204.69608145996 ; 95527.26364561226 ; 1340576.2485877997 ; 0.0
13 ; 10554.713453652015 ; 111295.71379305287 ; 105572.98616519605 ; 1451780.9446692597 ; 0.0
14 ; 10798.279487298943 ; 111423.00399352782 ; 116127.69961884807 ; 1563076.6584623125 ; 0.0
15 ; 11205.626103912336 ; 111586.43287749746 ; 126925.97910614702 ; 1674499.6624558403 ; 0.0
16 ; 11423.143463452863 ; 111785.82952832055 ; 138131.60521005935 ; 1786086.0953333378 ; 0.0
17 ; 11682.466897195718 ; 112020.98673955716 ; 149554.74867351222 ; 1897871.9248616584 ; 0.0
18 ; 11866.184364461757 ; 112291.66199976792 ; 161237.21557070795 ; 2009892.9116012156 ; 0.0
19 ; 12287.419868408166 ; 112597.57862975246 ; 173103.3999351697 ; 2122184.5736009837 ; 0.0
20 ; 12713.674254817945 ; 112938.42705987339 ; 185390.81980357788 ; 2234782.1522307363 ; 0.0
21 ; 12843.647458180278 ; 113313.86623389708 ; 198104.49405839582 ; 2347720.57929061 ; 0.0
22 ; 13169.77214081132 ; 113723.5251248232 ; 210948.1415165761 ; 2461034.4455245067 ; 0.0
23 ; 13361.955821469728 ; 114167.00434747366 ; 224117.91365738743 ; 2574757.97064933 ; 0.0
24 ; 13742.393983215157 ; 114643.87785217108 ; 237479.86947885714 ; 2688924.974996804 ; 0.0
25 ; 13874.940557748545 ; 115153.69468365621 ; 251222.2634620723 ; 2803568.852848975 ; 0.0
26 ; 14084.175371728108 ; 115695.98078945496 ; 265097.20401982084 ; 2918722.547532631 ; 0.0
27 ; 14474.795381488246 ; 116270.24086219606 ; 279181.3793915489 ; 3034418.528322086 ; 0.0
28 ; 14748.293683205346 ; 116875.96020087994 ; 293656.17477303714 ; 3150688.769184282 ; 0.0
29 ; 15032.037906278747 ; 117512.60657678146 ; 308404.46845624247 ; 3267564.729385162 ; 0.0
30 ; 15062.508259524404 ; 118179.63209050529 ; 323436.5063625212 ; 3385077.335961943 ; 0.0
31 ; 15250.037454011404 ; 118876.47500768348 ; 338499.0146220456 ; 3503256.9680524482 ; 0.0
32 ; 15626.19572775448 ; 119602.56156186959 ; 353749.052076057 ; 3622133.4430601317 ; 0.0
33 ; 15840.885136028875 ; 120357.30771432407 ; 369375.2478038115 ; 3741736.004622001 ; 0.0
34 ; 16167.416873805474 ; 121140.12086157105 ; 385216.1329398404 ; 3862093.312336325 ; 0.0
35 ; 16268.178362842524 ; 121950.40148281145 ; 401383.54981364583 ; 3983233.433197896 ; 0.0
36 ; 16411.145787184676 ; 122787.54472047939 ; 417651.72817648837 ; 4105183.8346807077 ; 0.0
37 ; 16910.214853320784 ; 123650.94188840917 ; 434062.873963673 ; 4227971.379401187 ; 0.0
38 ; 16908.043399339713 ; 124539.98190321795 ; 450973.0888169938 ; 4351622.321289596 ; 0.0
39 ; 17131.165944446853 ; 125454.05263559513 ; 467881.1322163335 ; 4476162.303192814 ; 0.0
40 ; 17183.07068172102 ; 126392.54217920503 ; 485012.2981607804 ; 4601616.355828409 ; 0.0
41 ; 17352.427667709104 ; 127354.84003585322 ; 502195.3688425014 ; 4728008.898007615 ; 0.0
42 ; 17725.158741300966 ; 128340.33821642505 ; 519547.79651021055 ; 4855363.7380434675 ; 0.0
43 ; 17795.196940254336 ; 129348.43225788319 ; 537272.9552515115 ; 4983704.076259892 ; 0.0
44 ; 18097.917237925198 ; 130378.52215729491 ; 555068.1521917658 ; 5113052.508517776 ; 0.0
45 ; 18188.221017356682 ; 131430.01322446397 ; 573166.0694296911 ; 5243431.03067507 ; 0.0
46 ; 18423.546184958373 ; 132502.31685525746 ; 591354.2904470478 ; 5374861.043899534 ; 0.0
47 ; 18619.940950871587 ; 133594.8512281506 ; 609777.8366320062 ; 5507363.360754792 ; 0.0
48 ; 18786.25850599151 ; 134707.04192687216 ; 628397.7775828778 ; 5640958.211982942 ; 0.0
49 ; 18722.122267070536 ; 135838.32249231575 ; 647184.0360888693 ; 5775665.253909814 ; 0.0
50 ; 19005.702952730495 ; 136988.1349071006 ; 665906.1583559399 ; 5911503.57640213 ; 0.0
51 ; 18978.345157288208 ; 138155.93001632145 ; 684911.8613086704 ; 6048491.71130923 ; 0.0
52 ; 19235.472622820536 ; 139341.1678881292 ; 703890.2064659586 ; 6186647.641325551 ; 0.0
53 ; 19442.394634510067 ; 140543.31811783722 ; 723125.6790887791 ; 6325988.80921368 ; 0.0
54 ; 19554.44614665248 ; 141761.86007925682 ; 742568.0737232892 ; 6466532.127331518 ; 0.0
55 ; 19666.49335436559 ; 142996.2831269394 ; 762122.5198699416 ; 6608293.987410774 ; 0.0
56 ; 19755.72072786583 ; 144246.08675294372 ; 781789.0132243072 ; 6751290.270537714 ; 0.0
57 ; 19839.867157023567 ; 145510.78070166172 ; 801544.733952173 ; 6895536.357290657 ; 0.0
58 ; 19945.505167943043 ; 146789.88504612766 ; 821384.6011091965 ; 7041047.137992319 ; 0.0
59 ; 20215.34526599577 ; 148082.93022911428 ; 841330.1062771396 ; 7187837.023038446 ; 0.0
60 ; 20120.010947518593 ; 149389.45707217752 ; 861545.4515431353 ; 7335919.95326756 ; 0.0
61 ; 20259.597815521873 ; 150709.0167556671 ; 881665.462490654 ; 7485309.410339738 ; 0.0
62 ; 20445.747100028042 ; 152041.17077256212 ; 901925.0603061758 ; 7636018.427095406 ; 0.0
63 ; 20584.33699740197 ; 153385.4908588346 ; 922370.8074062039 ; 7788059.597867968 ; 0.0
64 ; 20631.543304469847 ; 154741.55890287974 ; 942955.144403606 ; 7941445.088726802 ; 0.0
65 ; 20644.85214960598 ; 156108.96683639303 ; 963586.6877080759 ; 8096186.647629682 ; 0.0
66 ; 20686.363529261274 ; 157487.3165089143 ; 984231.5398576818 ; 8252295.614466075 ; 0.0
67 ; 20741.310892280166 ; 158876.21954810078 ; 1004917.9033869432 ; 8409782.930974988 ; 0.0
68 ; 20970.845842181985 ; 160275.29720764275 ; 1025659.2142792233 ; 8568659.150523089 ; 0.0
69 ; 20907.45908017606 ; 161684.18020458482 ; 1046630.0601214053 ; 8728934.447730731 ; 0.0
70 ; 20846.12415200245 ; 163102.50854767757 ; 1067537.5192015814 ; 8890618.627935316 ; 0.0
71 ; 20955.482972233833 ; 164529.9313582477 ; 1088383.6433535838 ; 9053721.136482993 ; 0.0
72 ; 20940.014462804123 ; 165966.10668494788 ; 1109339.1263258175 ; 9218251.067841241 ; 0.0
73 ; 21061.572071635124 ; 167410.7013136257 ; 1130279.1407886217 ; 9384217.174526189 ; 0.0
74 ; 20984.5374206357 ; 168863.39057343712 ; 1151340.712860257 ; 9551627.875839815 ; 0.0
75 ; 21156.526103781565 ; 170323.85814022235 ; 1172325.2502808927 ; 9720491.266413251 ; 0.0
76 ; 21171.503633489312 ; 171791.7958380619 ; 1193481.7763846742 ; 9890815.124553474 ; 0.0
77 ; 21082.392014775687 ; 173266.90343983762 ; 1214653.2800181636 ; 1.0062606920391535E7 ; 0.0
78 ; 21189.30807764419 ; 174748.88846753558 ; 1235735.6720329393 ; 1.0235873823831374E7 ; 0.0
79 ; 21382.576733350503 ; 176237.46599294714 ; 1256924.9801105834 ; 1.041062271229891E7 ; 0.0
80 ; 21340.511653669226 ; 177732.3584393522 ; 1278307.5568439339 ; 1.0586860178291857E7 ; 0.0
81 ; 21213.059303437683 ; 179233.2953846966 ; 1299648.068497603 ; 1.076459253673121E7 ; 0.0
82 ; 21278.37526786067 ; 180740.01336671607 ; 1320861.1278010407 ; 1.0943825832115905E7 ; 0.0
83 ; 21297.295951613378 ; 182252.25569039906 ; 1342139.5030689014 ; 1.1124565845482621E7 ; 0.0
84 ; 21150.94482836203 ; 183769.7722381288 ; 1363436.7990205148 ; 1.130681810117302E7 ; 0.0
85 ; 21316.167975962046 ; 185292.31928279743 ; 1384587.7438488768 ; 1.1490587873411149E7 ; 0.0
86 ; 21258.051967980395 ; 186819.65930414008 ; 1405903.9118248387 ; 1.1675880192693947E7 ; 0.0
87 ; 21203.033066022388 ; 188351.56080849792 ; 1427161.963792819 ; 1.1862699851998087E7 ; 0.0
88 ; 21089.728853392477 ; 189887.7981521825 ; 1448364.9968588415 ; 1.2051051412806585E7 ; 0.0
89 ; 21047.69335032532 ; 191428.15136858306 ; 1469454.725712234 ; 1.2240939210958768E7 ; 0.0
90 ; 21206.36767770687 ; 192972.4059991259 ; 1490502.4190625593 ; 1.243236736232735E7 ; 0.0
91 ; 21095.15013082758 ; 194520.35292817306 ; 1511708.786740266 ; 1.2625339768326476E7 ; 0.0
92 ; 21088.86378495045 ; 196071.78822192008 ; 1532803.9368710937 ; 1.2819860121254649E7 ; 0.0
93 ; 21022.557567863645 ; 197626.5129713347 ; 1553892.8006560442 ; 1.3015931909476569E7 ; 0.0
94 ; 20891.6410486659 ; 199184.33313915724 ; 1574915.3582239079 ; 1.3213558422447903E7 ; 0.0
95 ; 20978.670782199002 ; 200745.05941096978 ; 1595806.9992725737 ; 1.341274275558706E7 ; 0.0
96 ; 20989.09060070237 ; 202308.50705032382 ; 1616785.6700547726 ; 1.361348781499803E7 ; 0.0
97 ; 20709.083385905866 ; 203874.49575790585 ; 1637774.760655475 ; 1.3815796322048355E7 ; 0.0
98 ; 20724.07775777761 ; 205442.84953470647 ; 1658483.844041381 ; 1.401967081780626E7 ; 0.0
99 ; 20693.114723152106 ; 207013.3965491524 ; 1679207.9217991587 ; 1.4225113667340968E7 ; 0.0
100 ; 20446.85282204937 ; 208585.969008149 ; 1699901.0365223107 ; 1.443212706389012E7 ; 0.0
101 ; 20365.70716444954 ; 210160.40303197547 ; 1720347.88934436 ; 1.464071303289827E7 ; 0.0
102 ; 20195.301106058985 ; 211736.53853296977 ; 1740713.5965088096 ; 1.4850873435930245E7 ; 0.0
103 ; 20118.67128898575 ; 213314.21909793175 ; 1760908.8976148686 ; 1.5062609974463215E7 ; 0.0
104 ; 20176.89571428021 ; 214893.29187417304 ; 1781027.5689038543 ; 1.5275924193561146E7 ; 0.0
105 ; 19959.03541464477 ; 216473.6074591358 ; 1801204.4646181345 ; 1.5490817485435318E7 ; 0.0
106 ; 19916.17904031746 ; 218055.01979350034 ; 1821163.5000327793 ; 1.5707291092894454E7 ; 0.0
107 ; 19837.75121414777 ; 219637.3860577006 ; 1841079.6790730967 ; 1.5925346112687955E7 ; 0.0
108 ; 19656.848772149824 ; 221220.56657176308 ; 1860917.4302872445 ; 1.6144983498745656E7 ; 0.0
109 ; 19468.137179425736 ; 222804.42469838558 ; 1880574.2790593943 ; 1.6366204065317418E7 ; 0.0
110 ; 19443.11098692017 ; 224388.82674916965 ; 1900042.41623882 ; 1.6589008490015805E7 ; 0.0
111 ; 19323.93532525149 ; 225973.6418939225 ; 1919485.52722574 ; 1.6813397316764973E7 ; 0.0
112 ; 19248.983603157765 ; 227558.74207294206 ; 1938809.4625509914 ; 1.7039370958658896E7 ; 0.0
113 ; 19055.865837753958 ; 229144.0019122006 ; 1958058.4461541492 ; 1.726692970073184E7 ; 0.0
114 ; 18890.58144733217 ; 230729.29864134247 ; 1977114.3119919032 ; 1.749607370264404E7 ; 0.0
115 ; 18664.41195706485 ; 232314.51201441314 ; 1996004.8934392354 ; 1.772680300128538E7 ; 0.0
116 ; 18466.529874856613 ; 233899.52423323618 ; 2014669.3053963003 ; 1.7959117513299793E7 ; 0.0
117 ; 18512.498838558236 ; 235484.21987335762 ; 2033135.8352711569 ; 1.819301703753303E7 ; 0.0
118 ; 18349.77469101784 ; 237068.48581247768 ; 2051648.3341097152 ; 1.8428501257406387E7 ; 0.0
119 ; 18081.1620361489 ; 238652.21116129175 ; 2069998.108800733 ; 1.8665569743218865E7 ; 0.0
120 ; 17933.966254585554 ; 240235.2871966635 ; 2088079.2708368818 ; 1.890422195438016E7 ; 0.0
121 ; 17626.07310887871 ; 241817.60729705513 ; 2106013.2370914673 ; 1.914445724157682E7 ; 0.0
122 ; 17458.375831090856 ; 243399.06688014162 ; 2123639.310200346 ; 1.9386274848873876E7 ; 0.0
123 ; 17377.911407645144 ; 244979.56334253695 ; 2141097.686031437 ; 1.9629673915754016E7 ; 0.0
124 ; 17063.08101099847 ; 246558.9960015623 ; 2158475.5974390823 ; 1.9874653479096554E7 ; 0.0
125 ; 16948.476116163525 ; 248137.26603898907 ; 2175538.678450081 ; 2.012121247509812E7 ; 0.0
126 ; 16805.85846860966 ; 249714.27644668936 ; 2192487.1545662447 ; 2.0369349741137106E7 ; 0.0
127 ; 16648.724599568228 ; 251289.93197413 ; 2209293.0130348545 ; 2.0619064017583795E7 ; 0.0
128 ; 16373.318774779722 ; 252864.13907764835 ; 2225941.7376344227 ; 2.0870353949557927E7 ; 0.0
129 ; 16161.129181018132 ; 254436.80587144778 ; 2242315.0564092025 ; 2.1123218088635575E7 ; 0.0
130 ; 16014.577531452105 ; 256007.84208025443 ; 2258476.1855902206 ; 2.1377654894507024E7 ; 0.0
131 ; 15683.562246173775 ; 257577.15899357953 ; 2274490.763121673 ; 2.163366273658728E7 ; 0.0
132 ; 15531.99532089204 ; 259144.6694215292 ; 2290174.3253678465 ; 2.1891239895580858E7 ; 0.0
133 ; 15382.469663755182 ; 260710.2876521107 ; 2305706.3206887385 ; 2.2150384565002386E7 ; 0.0
134 ; 15097.34841143155 ; 262273.929409982 ; 2321088.7903524935 ; 2.2411094852654498E7 ; 0.0
135 ; 14802.666684709453 ; 263835.5118165943 ; 2336186.138763925 ; 2.267336878206448E7 ; 0.0
136 ; 14449.371465605282 ; 265394.95335168 ; 2350988.8054486345 ; 2.2937204293881074E7 ; 0.0
137 ; 14212.902508941152 ; 266952.17381603783 ; 2365438.17691424 ; 2.3202599247232754E7 ; 0.0
138 ; 14109.899360971762 ; 268507.0942955708 ; 2379651.079423181 ; 2.346955142104879E7 ; 0.0
139 ; 13784.275661003247 ; 270059.63712653285 ; 2393760.978784153 ; 2.3738058515344363E7 ; 0.0
140 ; 13459.330013929946 ; 271609.7258619415 ; 2407545.254445156 ; 2.4008118152470894E7 ; 0.0
141 ; 13378.449307993222 ; 273157.28523911606 ; 2421004.584459086 ; 2.4279727878332835E7 ; 0.0
142 ; 13066.634028147006 ; 274702.24114830117 ; 2434383.033767079 ; 2.455288516357195E7 ; 0.0
143 ; 12695.393870276692 ; 276244.5206023394 ; 2447449.667795226 ; 2.482758740472025E7 ; 0.0
144 ; 12382.996443995005 ; 277784.0517073529 ; 2460145.061665503 ; 2.510383192532259E7 ; 0.0
145 ; 12348.535932490986 ; 279320.76363440277 ; 2472528.0581094977 ; 2.5381615977029942E7 ; 0.0
146 ; 12173.534598902575 ; 280854.58659208723 ; 2484876.5940419887 ; 2.5660936740664344E7 ; 0.0
147 ; 12259.990081217267 ; 282385.4518000504 ; 2497050.1286408915 ; 2.594179132725643E7 ; 0.0
148 ; 12031.591335464129 ; 283913.29146336555 ; 2509310.1187221087 ; 2.6224176779056482E7 ; 0.0
149 ; 12058.187284688094 ; 285438.0387477653 ; 2521341.710057573 ; 2.6508090070519846E7 ; 0.0
150 ; 11977.793763988362 ; 286959.62775568693 ; 2533399.897342261 ; 2.679352810926761E7 ; 0.0
151 ; 11770.226790533281 ; 288477.9935031057 ; 2545377.691106249 ; 2.7080487737023298E7 ; 0.0
152 ; 11636.072831836813 ; 289993.0718971283 ; 2557147.9178967825 ; 2.7368965730526403E7 ; 0.0
153 ; 11554.476093445552 ; 291504.7997143189 ; 2568783.9907286195 ; 2.765895880242353E7 ; 0.0
154 ; 11507.248882994953 ; 293013.1145797339 ; 2580338.466822065 ; 2.795046360213785E7 ; 0.0
155 ; 11473.319303381655 ; 294517.9549466398 ; 2591845.71570506 ; 2.8243476716717582E7 ; 0.0
156 ; 11334.221416272798 ; 296019.2600768897 ; 2603319.0350084417 ; 2.8537994671664223E7 ; 0.0
157 ; 11238.416424277135 ; 297516.9700219374 ; 2614653.2564247143 ; 2.883401393174111E7 ; 0.0
158 ; 11289.28800891136 ; 299011.02560446516 ; 2625891.6728489916 ; 2.9131530901763048E7 ; 0.0
159 ; 11137.47235681449 ; 300501.3684006054 ; 2637180.960857903 ; 2.9430541927367512E7 ; 0.0
160 ; 10858.927617436791 ; 301987.9407227343 ; 2648318.4332147175 ; 2.973104329576812E7 ; 0.0
161 ; 10915.67641549986 ; 303470.68560281926 ; 2659177.3608321543 ; 3.0033031236490853E7 ; 0.0
162 ; 10843.02856028158 ; 304949.54677629936 ; 2670093.037247654 ; 3.033650192209367E7 ; 0.0
163 ; 10555.793987945117 ; 306424.46866648213 ; 2680936.065807936 ; 3.064145146886997E7 ; 0.0
164 ; 10407.087771906328 ; 307895.39636943804 ; 2691491.859795881 ; 3.0947875937536452E7 ; 0.0
165 ; 10488.741792620904 ; 309362.2756393757 ; 2701898.9475677875 ; 3.125577133390589E7 ; 0.0
166 ; 10441.21639697513 ; 310825.05287448165 ; 2712387.6893604086 ; 3.1565133609545268E7 ; 0.0
167 ; 10066.898963319376 ; 312283.67510320904 ; 2722828.905757384 ; 3.187595866241975E7 ; 0.0
168 ; 10041.267738376431 ; 313738.089970999 ; 2732895.8047207035 ; 3.218824233752296E7 ; 0.0
169 ; 9963.862030583468 ; 315188.24572742154 ; 2742937.07245908 ; 3.250198042749396E7 ; 0.0
170 ; 9806.762630347353 ; 316634.0912137203 ; 2752900.934489663 ; 3.281716867322138E7 ; 0.0
171 ; 9647.477820831657 ; 318075.57585074904 ; 2762707.6971200104 ; 3.31338027644351E7 ; 0.0
172 ; 9512.777106679523 ; 319512.6496272845 ; 2772355.174940842 ; 3.345187834028585E7 ; 0.0
173 ; 9576.54892286227 ; 320945.2630887055 ; 2781867.9520475217 ; 3.3771390989913136E7 ; 0.0
174 ; 9475.375812327135 ; 322373.3673260244 ; 2791444.500970384 ; 3.409233625300184E7 ; 0.0
175 ; 9643.749432028022 ; 323796.9139652596 ; 2800919.876782711 ; 3.441470962032786E7 ; 0.0
176 ; 9483.038402742568 ; 325215.8551571373 ; 2810563.626214739 ; 3.473850653429312E7 ; 0.0
177 ; 9610.15439026972 ; 326630.14356711257 ; 2820046.6646174816 ; 3.506372238945026E7 ; 0.0
178 ; 9636.20751874548 ; 328039.732365698 ; 2829656.8190077515 ; 3.5390352533017375E7 ; 0.0
179 ; 9668.2481997344 ; 329444.57521909033 ; 2839293.026526497 ; 3.571839226538307E7 ; 0.0
180 ; 9556.61242625272 ; 330844.6262800858 ; 2848961.2747262316 ; 3.604783684060216E7 ; 0.0
181 ; 9714.105738322081 ; 332239.8401792729 ; 2858517.887152484 ; 3.6378681466882244E7 ; 0.0
182 ; 9719.331501628481 ; 333630.1720164954 ; 2868231.9928908064 ; 3.6710921307061516E7 ; 0.0
183 ; 9671.790545516771 ; 335015.5773525758 ; 2877951.3243924347 ; 3.704455147907801E7 ; 0.0
184 ; 9662.764756709466 ; 336396.012201291 ; 2887623.1149379513 ; 3.7379567056430586E7 ; 0.0
185 ; 9724.647856036245 ; 337771.43302159157 ; 2897285.8796946607 ; 3.771596306863188E7 ; 0.0
186 ; 9849.222778336227 ; 339141.79671005724 ; 2907010.527550697 ; 3.805373450165347E7 ; 0.0
187 ; 9915.485783793765 ; 340507.06059358065 ; 2916859.750329033 ; 3.839287629836353E7 ; 0.0
188 ; 9685.254804634276 ; 341867.1824222717 ; 2926775.236112827 ; 3.873338335895711E7 ; 0.0
189 ; 9745.517735157293 ; 343222.1203625766 ; 2936460.4909174615 ; 3.9075250541379385E7 ; 0.0
190 ; 9815.374508075074 ; 344571.83299060306 ; 2946206.0086526186 ; 3.9418472661741965E7 ; 0.0
191 ; 9886.299202857925 ; 345916.27928564604 ; 2956021.3831606936 ; 3.9763044494732566E7 ; 0.0
192 ; 10001.115874539728 ; 347255.4186239076 ; 2965907.6823635516 ; 4.010896077401821E7 ; 0.0
193 ; 10018.760513085981 ; 348589.21077240433 ; 2975908.798238091 ; 4.045621619264212E7 ; 0.0
194 ; 10107.132818748876 ; 349917.61588305654 ; 2985927.558751177 ; 4.0804805403414525E7 ; 0.0
195 ; 9907.010571755472 ; 351240.59448695363 ; 2996034.6915699258 ; 4.1154723019297585E7 ; 0.0
196 ; 9821.159584564344 ; 352558.1074887897 ; 3005941.702141681 ; 4.150596361378454E7 ; 0.0
197 ; 9903.486472137653 ; 353870.11616146466 ; 3015762.8617262454 ; 4.1858521721273325E7 ; 0.0
198 ; 9898.687362340268 ; 355176.5821408442 ; 3025666.348198383 ; 4.221239183743479E7 ; 0.0
199 ; 10033.041270737154 ; 356477.4674206763 ; 3035565.0355607234 ; 4.256756841957563E7 ; 0.0
200 ; 9817.844687057892 ; 357772.734347656 ; 3045598.0768314605 ; 4.292404588699631E7 ; 0.0
201 ; 10060.881794471015 ; 359062.345616637 ; 3055415.9215185186 ; 4.328181862134396E7 ; 0.0
202 ; 10164.033152129683 ; 360346.2642659826 ; 3065476.8033129894 ; 4.36408809669606E7 ; 0.0
203 ; 10157.80630943869 ; 361624.4536730551 ; 3075640.836465119 ; 4.4001227231226586E7 ; 0.0
204 ; 10139.08001858046 ; 362896.8775498351 ; 3085798.6427745577 ; 4.436285168489964E7 ; 0.0
205 ; 10178.84606035621 ; 364163.4999386709 ; 3095937.722793138 ; 4.472574856244948E7 ; 0.0
206 ; 10074.162089248257 ; 365424.2852081512 ; 3106116.5688534942 ; 4.508991206238815E7 ; 0.0
207 ; 10119.674966507539 ; 366679.19804909814 ; 3116190.7309427424 ; 4.54553363475963E7 ; 0.0
208 ; 10186.042356591664 ; 367928.20347067754 ; 3126310.40590925 ; 4.58220155456454E7 ; 0.0
209 ; 10050.490322304813 ; 369171.26679662184 ; 3136496.4482658417 ; 4.618994374911608E7 ; 0.0
210 ; 10195.386285789175 ; 370408.353661563 ; 3146546.9385881466 ; 4.65591150159127E7 ; 0.0
211 ; 10264.986021968885 ; 371639.430007472 ; 3156742.324873936 ; 4.6929523369574256E7 ; 0.0
