CSV File for the City 3 on Day 176
1 - Minute m 
2 - Power Consumed at minute m 
3 - Power Produced at minute m 
4 - Energy Consumed since the beginning of the day 
5 - Energy Produced since the beginning of the day 
6 - Energy Lost since the beginning of the day on lines starting from the city
 
0 ; 4878.46059636355 ; 84372.3764237171 ; 0.0 ; 0.0 ; 0.0
1 ; 5217.338373336926 ; 84022.8807502817 ; 4878.46059636355 ; 84372.3764237171 ; 0.0
2 ; 5748.145266941224 ; 83708.86533178826 ; 10095.798969700478 ; 168395.2571739988 ; 0.0
3 ; 6133.074696100722 ; 83430.75482767193 ; 15843.944236641702 ; 252104.12250578706 ; 0.0
4 ; 6537.839372031576 ; 83188.93061818345 ; 21977.018932742423 ; 335534.877333459 ; 0.0
5 ; 6935.526835954018 ; 82983.72841963744 ; 28514.858304774 ; 418723.80795164243 ; 0.0
6 ; 7168.944885185128 ; 82815.4361394491 ; 35450.385140728016 ; 501707.53637127986 ; 0.0
7 ; 7664.776758136657 ; 82684.29200232738 ; 42619.33002591314 ; 584522.972510729 ; 0.0
8 ; 8108.138657033183 ; 82590.48297575809 ; 50284.1067840498 ; 667207.2645130564 ; 0.0
9 ; 8471.832934932077 ; 82534.14351894359 ; 58392.24544108298 ; 749797.7474888144 ; 0.0
10 ; 8820.926286200896 ; 82515.35467473783 ; 66864.07837601507 ; 832331.891007758 ; 0.0
11 ; 9084.031349673473 ; 82534.14351894359 ; 75685.00466221596 ; 914847.2456824958 ; 0.0
12 ; 9497.048581651741 ; 82590.48297575809 ; 84769.03601188943 ; 997381.3892014393 ; 0.0
13 ; 10000.852851987267 ; 82684.29200232738 ; 94266.08459354118 ; 1079971.8721771974 ; 0.0
14 ; 10246.979303976244 ; 82815.4361394491 ; 104266.93744552844 ; 1162656.1641795246 ; 0.0
15 ; 10562.66344672804 ; 82983.72841963744 ; 114513.91674950469 ; 1245471.6003189737 ; 0.0
16 ; 10941.341548082573 ; 83188.93061818345 ; 125076.58019623272 ; 1328455.3287386112 ; 0.0
17 ; 11265.552321078629 ; 83430.75482767183 ; 136017.9217443153 ; 1411644.2593567946 ; 0.0
18 ; 11616.725739690133 ; 83708.86533178836 ; 147283.47406539394 ; 1495075.0141844666 ; 0.0
19 ; 11705.641077124392 ; 84022.8807502817 ; 158900.19980508406 ; 1578783.8795162549 ; 0.0
20 ; 12217.445572545976 ; 84372.3764237171 ; 170605.84088220846 ; 1662806.7602665366 ; 0.0
21 ; 12547.967070077466 ; 84756.8870042326 ; 182823.28645475445 ; 1747179.1366902536 ; 0.0
22 ; 12714.296513928151 ; 85175.909216906 ; 195371.2535248319 ; 1831936.0236944861 ; 0.0
23 ; 13134.350906724823 ; 85628.9047555623 ; 208085.55003876006 ; 1917111.932911392 ; 0.0
24 ; 13321.841310603795 ; 86115.30327685109 ; 221219.90094548487 ; 2002740.8376669544 ; 0.0
25 ; 13707.33375526524 ; 86634.5054571653 ; 234541.74225608868 ; 2088856.1409438055 ; 0.0
26 ; 14014.15309774622 ; 87185.88607836067 ; 248249.07601135393 ; 2175490.646400971 ; 0.0
27 ; 14317.794260637713 ; 87768.79711019083 ; 262263.2291091001 ; 2262676.5324793314 ; 0.0
28 ; 14565.646127262406 ; 88382.57075978832 ; 276581.02336973784 ; 2350445.329589522 ; 0.0
29 ; 14751.128695091087 ; 89026.5224613039 ; 291146.6694970002 ; 2438827.90034931 ; 0.0
30 ; 15097.76006307443 ; 89699.95378183773 ; 305897.7981920913 ; 2527854.422810614 ; 0.0
31 ; 15411.9746296453 ; 90402.15522298559 ; 320995.5582551657 ; 2617554.3765924517 ; 0.0
32 ; 15660.027179748251 ; 91132.40890056125 ; 336407.532884811 ; 2707956.531815437 ; 0.0
33 ; 15897.373169100514 ; 91889.99108827394 ; 352067.5600645592 ; 2799088.9407159984 ; 0.0
34 ; 16081.94189851388 ; 92674.17461426307 ; 367964.9332336597 ; 2890978.9318042723 ; 0.0
35 ; 16431.056339502113 ; 93484.23110235714 ; 384046.8751321736 ; 2983653.1064185356 ; 0.0
36 ; 16436.47694082996 ; 94319.43305268942 ; 400477.9314716757 ; 3077137.3375208927 ; 0.0
37 ; 16758.2060239223 ; 95179.05575882793 ; 416914.40841250564 ; 3171456.770573582 ; 0.0
38 ; 17055.05592868121 ; 96062.37906084834 ; 433672.61443642795 ; 3266635.82633241 ; 0.0
39 ; 17110.63814496369 ; 96968.6889357717 ; 450727.67036510917 ; 3362698.205393258 ; 0.0
40 ; 17478.612240689297 ; 97897.27892851095 ; 467838.3085100729 ; 3459666.8943290296 ; 0.0
41 ; 17796.10288365363 ; 98847.4514279197 ; 485316.92075076216 ; 3557564.1732575404 ; 0.0
42 ; 17943.257760502212 ; 99818.51879372595 ; 503113.0236344158 ; 3656411.6246854602 ; 0.0
43 ; 18094.46071247911 ; 100809.80434107801 ; 521056.28139491804 ; 3756230.143479186 ; 0.0
44 ; 18368.129402278264 ; 101820.64319014708 ; 539150.7421073972 ; 3857039.947820264 ; 0.0
45 ; 18475.02055274208 ; 102850.38298874469 ; 557518.8715096754 ; 3958860.591010411 ; 0.0
46 ; 18727.534733363333 ; 103898.38451624227 ; 575993.8920624175 ; 4061710.9739991557 ; 0.0
47 ; 18778.466980816254 ; 104964.02217724874 ; 594721.4267957808 ; 4165609.358515398 ; 0.0
48 ; 19132.86355859678 ; 106046.68439353486 ; 613499.893776597 ; 4270573.380692647 ; 0.0
49 ; 19233.012555200537 ; 107145.77390260529 ; 632632.7573351938 ; 4376620.065086181 ; 0.0
50 ; 19509.855068810808 ; 108260.70797114096 ; 651865.7698903943 ; 4483765.838988787 ; 0.0
51 ; 19510.17314919783 ; 109390.91853127006 ; 671375.624959205 ; 4592026.546959927 ; 0.0
52 ; 19549.10850351726 ; 110535.85224731038 ; 690885.7981084029 ; 4701417.465491197 ; 0.0
53 ; 19795.2831300604 ; 111694.97052025501 ; 710434.9066119201 ; 4811953.317738508 ; 0.0
54 ; 19838.25880334826 ; 112867.74943687752 ; 730230.1897419805 ; 4923648.288258763 ; 0.0
55 ; 20167.132742618538 ; 114053.67966990972 ; 750068.4485453288 ; 5036516.037695641 ; 0.0
56 ; 20215.68570659212 ; 115252.26633531727 ; 770235.5812879474 ; 5150569.717365551 ; 0.0
57 ; 20497.428766901823 ; 116463.028812259 ; 790451.2669945395 ; 5265821.983700868 ; 0.0
58 ; 20669.62123943533 ; 117685.50053088865 ; 810948.6957614414 ; 5382285.012513127 ; 0.0
59 ; 20455.362279656365 ; 118919.22873273377 ; 831618.3170008766 ; 5499970.5130440155 ; 0.0
60 ; 20730.081940290587 ; 120163.77420797817 ; 852073.679280533 ; 5618889.7417767495 ; 0.0
61 ; 20753.614836647193 ; 121418.71101358125 ; 872803.7612208236 ; 5739053.515984728 ; 0.0
62 ; 20875.38624965684 ; 122683.62617579613 ; 893557.3760574708 ; 5860472.22699831 ; 0.0
63 ; 21045.400584334802 ; 123958.11938029391 ; 914432.7623071276 ; 5983155.853174105 ; 0.0
64 ; 21281.41568403091 ; 125241.80265277156 ; 935478.1628914624 ; 6107113.9725544 ; 0.0
65 ; 21272.034301016458 ; 126534.30003261176 ; 956759.5785754933 ; 6232355.775207171 ; 0.0
66 ; 21451.46068517112 ; 127835.24724187612 ; 978031.6128765098 ; 6358890.075239783 ; 0.0
67 ; 21521.136857778893 ; 129144.29135164771 ; 999483.0735616809 ; 6486725.322481659 ; 0.0
68 ; 21562.295001378356 ; 130461.09044749748 ; 1021004.2104194597 ; 6615869.613833307 ; 0.0
69 ; 21525.081901191388 ; 131785.31329562236 ; 1042566.5054208381 ; 6746330.704280805 ; 0.0
70 ; 21815.57652466741 ; 133116.6390110037 ; 1064091.5873220295 ; 6878116.017576427 ; 0.0
71 ; 21710.661283219284 ; 134454.75672874617 ; 1085907.163846697 ; 7011232.656587431 ; 0.0
72 ; 21765.906089393702 ; 135799.36527959254 ; 1107617.8251299162 ; 7145687.413316177 ; 0.0
73 ; 21921.105370848378 ; 137150.1728704579 ; 1129383.7312193098 ; 7281486.77859577 ; 0.0
74 ; 21870.19553780527 ; 138506.89677069118 ; 1151304.8365901583 ; 7418636.951466228 ; 0.0
75 ; 21855.671713220345 ; 139869.2630046512 ; 1173175.0321279636 ; 7557143.848236919 ; 0.0
76 ; 21787.58515177347 ; 141237.00605107527 ; 1195030.703841184 ; 7697013.111241571 ; 0.0
77 ; 21781.630145807852 ; 142609.8685496227 ; 1216818.2889929574 ; 7838250.117292646 ; 0.0
78 ; 22046.613803540426 ; 143987.60101489068 ; 1238599.9191387652 ; 7980859.985842269 ; 0.0
79 ; 21926.33374191597 ; 145369.9615581225 ; 1260646.5329423056 ; 8124847.58685716 ; 0.0
80 ; 21903.65322562762 ; 146756.71561676596 ; 1282572.8666842214 ; 8270217.548415282 ; 0.0
81 ; 22001.499831120804 ; 148147.63569197658 ; 1304476.5199098492 ; 8416974.264032047 ; 0.0
82 ; 22045.78526489948 ; 149542.50109411526 ; 1326478.0197409699 ; 8565121.899724023 ; 0.0
83 ; 21892.275299206387 ; 150941.097696242 ; 1348523.8050058694 ; 8714664.40081814 ; 0.0
84 ; 21928.09450058413 ; 152343.21769557183 ; 1370416.0803050757 ; 8865605.498514382 ; 0.0
85 ; 22186.38896028604 ; 153748.6593828264 ; 1392344.1748056598 ; 9017948.716209954 ; 0.0
86 ; 21973.817364157378 ; 155157.22691938683 ; 1414530.5637659458 ; 9171697.37559278 ; 0.0
87 ; 22234.325637990514 ; 156568.73012213106 ; 1436504.3811301033 ; 9326854.602512166 ; 0.0
88 ; 21879.260424669978 ; 157982.98425581824 ; 1458738.7067680939 ; 9483423.332634296 ; 0.0
89 ; 21860.106768902508 ; 159399.80983286918 ; 1480617.967192764 ; 9641406.316890115 ; 0.0
90 ; 21810.747641218975 ; 160819.03242037605 ; 1502478.0739616663 ; 9800806.126722984 ; 0.0
91 ; 21895.570639368154 ; 162240.48245416663 ; 1524288.8216028854 ; 9961625.15914336 ; 0.0
92 ; 21811.02305997877 ; 163663.9950597398 ; 1546184.3922422535 ; 1.0123865641597526E7 ; 0.0
93 ; 21757.17800363925 ; 165089.40987988227 ; 1567995.4153022324 ; 1.0287529636657266E7 ; 0.0
94 ; 21731.981523347044 ; 166516.5709087732 ; 1589752.5933058716 ; 1.0452619046537148E7 ; 0.0
95 ; 21622.226969478575 ; 167945.32633238137 ; 1611484.5748292187 ; 1.0619135617445922E7 ; 0.0
96 ; 21497.825097540182 ; 169375.52837495672 ; 1633106.8017986973 ; 1.0787080943778303E7 ; 0.0
97 ; 21493.99021802519 ; 170807.03315141934 ; 1654604.6268962375 ; 1.095645647215326E7 ; 0.0
98 ; 21458.172837744656 ; 172239.70052544956 ; 1676098.6171142627 ; 1.112726350530468E7 ; 0.0
99 ; 21189.14898458907 ; 173673.393973084 ; 1697556.7899520074 ; 1.1299503205830129E7 ; 0.0
100 ; 21257.684133639 ; 175107.9804516254 ; 1718745.9389365965 ; 1.1473176599803213E7 ; 0.0
101 ; 21060.327081023388 ; 176543.3302736776 ; 1740003.6230702356 ; 1.1648284580254838E7 ; 0.0
102 ; 20973.165319724732 ; 177979.31698611865 ; 1761063.950151259 ; 1.1824827910528515E7 ; 0.0
103 ; 20917.236235988683 ; 179415.8172538313 ; 1782037.1154709838 ; 1.2002807227514634E7 ; 0.0
104 ; 20689.563298869194 ; 180852.71074801282 ; 1802954.3517069726 ; 1.2182223044768466E7 ; 0.0
105 ; 20749.516502547285 ; 182289.8800388909 ; 1823643.9150058418 ; 1.2363075755516479E7 ; 0.0
106 ; 20654.23245043597 ; 183727.21049267752 ; 1844393.431508389 ; 1.254536563555537E7 ; 0.0
107 ; 20340.253964964235 ; 185164.5901725971 ; 1865047.663958825 ; 1.2729092846048048E7 ; 0.0
108 ; 20338.290504781296 ; 186601.90974382963 ; 1885387.9179237892 ; 1.2914257436220644E7 ; 0.0
109 ; 20347.717589478263 ; 188039.06238221622 ; 1905726.2084285705 ; 1.3100859345964473E7 ; 0.0
110 ; 20051.52835327566 ; 189475.94368657714 ; 1926073.9260180488 ; 1.3288898408346688E7 ; 0.0
111 ; 19939.78988811197 ; 190912.45159449932 ; 1946125.4543713245 ; 1.3478374352033265E7 ; 0.0
112 ; 19702.85712349408 ; 192348.4863014544 ; 1966065.2442594364 ; 1.3669286803627765E7 ; 0.0
113 ; 19783.45661058044 ; 193783.9501831131 ; 1985768.1013829305 ; 1.3861635289929219E7 ; 0.0
114 ; 19734.186027599262 ; 195218.74772072735 ; 2005551.557993511 ; 1.405541924011233E7 ; 0.0
115 ; 19262.031579398637 ; 196652.7854294553 ; 2025285.7440211102 ; 1.4250637987833058E7 ; 0.0
116 ; 19307.32521806127 ; 198085.9717895106 ; 2044547.7756005088 ; 1.4447290773262514E7 ; 0.0
117 ; 18937.35794019852 ; 199518.21718001924 ; 2063855.10081857 ; 1.4645376745052025E7 ; 0.0
118 ; 18766.797058125496 ; 200949.43381547483 ; 2082792.4587587686 ; 1.4844894962232044E7 ; 0.0
119 ; 18594.57034724098 ; 202379.53568468528 ; 2101559.255816894 ; 1.504584439604752E7 ; 0.0
120 ; 18373.103019209797 ; 203808.4384921086 ; 2120153.8261641352 ; 1.5248223931732206E7 ; 0.0
121 ; 18216.836449413655 ; 205236.05960148032 ; 2138526.929183345 ; 1.5452032370224314E7 ; 0.0
122 ; 18045.861363302687 ; 206662.31798163767 ; 2156743.7656327584 ; 1.5657268429825794E7 ; 0.0
123 ; 17709.812209372703 ; 208087.1341544512 ; 2174789.6269960613 ; 1.5863930747807432E7 ; 0.0
124 ; 17533.13931586141 ; 209510.43014477598 ; 2192499.439205434 ; 1.6072017881961884E7 ; 0.0
125 ; 17493.051577659644 ; 210932.12943234065 ; 2210032.5785212955 ; 1.628152831210666E7 ; 0.0
126 ; 17335.688441119953 ; 212352.15690549376 ; 2227525.6300989552 ; 1.6492460441539E7 ; 0.0
127 ; 16865.463159805993 ; 213770.4388167311 ; 2244861.3185400753 ; 1.6704812598444495E7 ; 0.0
128 ; 16870.986484831512 ; 215186.90273993174 ; 2261726.7816998814 ; 1.6918583037261225E7 ; 0.0
129 ; 16508.097929206702 ; 216601.4775292319 ; 2278597.768184713 ; 1.7133769940001156E7 ; 0.0
130 ; 16250.592302225668 ; 218014.0932794694 ; 2295105.8661139198 ; 1.7350371417530388E7 ; 0.0
131 ; 16012.16354143709 ; 219424.68128813547 ; 2311356.4584161453 ; 1.7568385510809857E7 ; 0.0
132 ; 15739.474676629256 ; 220833.17401877086 ; 2327368.6219575824 ; 1.778781019209799E7 ; 0.0
133 ; 15405.333134292727 ; 222239.50506574876 ; 2343108.0966342115 ; 1.8008643366116762E7 ; 0.0
134 ; 15322.035270207452 ; 223643.6091203867 ; 2358513.429768504 ; 1.8230882871182512E7 ; 0.0
135 ; 14708.424887483028 ; 225045.42193833453 ; 2373835.4650387117 ; 1.84545264803029E7 ; 0.0
136 ; 14790.853651893482 ; 226444.8803081856 ; 2388543.8899261947 ; 1.8679571902241234E7 ; 0.0
137 ; 14419.09440275182 ; 227841.92202126267 ; 2403334.743578088 ; 1.890601678254942E7 ; 0.0
138 ; 14185.508444315463 ; 229236.4858425302 ; 2417753.83798084 ; 1.913385870457068E7 ; 0.0
139 ; 13859.440472397475 ; 230628.51148258807 ; 2431939.346425155 ; 1.936309519041321E7 ; 0.0
140 ; 13566.3137414957 ; 232017.93957070302 ; 2445798.7868975527 ; 1.95937237018958E7 ; 0.0
141 ; 13393.641801338936 ; 233404.71162883588 ; 2459365.1006390485 ; 1.9825741641466502E7 ; 0.0
142 ; 12908.117286768475 ; 234788.77004662575 ; 2472758.7424403876 ; 2.0059146353095338E7 ; 0.0
143 ; 12474.577788727289 ; 236170.0580572915 ; 2485666.859727156 ; 2.0293935123141963E7 ; 0.0
144 ; 12506.48080623004 ; 237548.51971441507 ; 2498141.4375158832 ; 2.0530105181199256E7 ; 0.0
145 ; 12276.048988795887 ; 238924.09986957116 ; 2510647.9183221133 ; 2.076765370091367E7 ; 0.0
146 ; 12231.448568223941 ; 240296.74415076978 ; 2522923.967310909 ; 2.1006577800783243E7 ; 0.0
147 ; 12043.225922407864 ; 241666.39894167986 ; 2535155.415879133 ; 2.1246874544934012E7 ; 0.0
148 ; 12127.102649998598 ; 243033.01136160246 ; 2547198.641801541 ; 2.1488540943875693E7 ; 0.0
149 ; 11998.447032197506 ; 244396.52924616504 ; 2559325.7444515396 ; 2.1731573955237295E7 ; 0.0
150 ; 11920.26281951842 ; 245756.90112870783 ; 2571324.191483737 ; 2.197597048448346E7 ; 0.0
151 ; 11845.019766547366 ; 247114.07622233575 ; 2583244.4543032553 ; 2.222172738561217E7 ; 0.0
152 ; 11638.608799451045 ; 248468.00440260986 ; 2595089.4740698026 ; 2.2468841461834505E7 ; 0.0
153 ; 11700.752916575258 ; 249818.6361908531 ; 2606728.0828692536 ; 2.2717309466237117E7 ; 0.0
154 ; 11514.233282237416 ; 251165.92273804758 ; 2618428.835785829 ; 2.296712810242797E7 ; 0.0
155 ; 11400.085785015792 ; 252509.81580929933 ; 2629943.0690680663 ; 2.321829402516602E7 ; 0.0
156 ; 11030.344487758972 ; 253850.26776885026 ; 2641343.1548530823 ; 2.3470803840975318E7 ; 0.0
157 ; 11228.334816304166 ; 255187.23156561435 ; 2652373.499340841 ; 2.3724654108744167E7 ; 0.0
158 ; 10989.923441337818 ; 256520.66071922044 ; 2663601.834157145 ; 2.397984134030978E7 ; 0.0
159 ; 10961.366248053384 ; 257850.50930654033 ; 2674591.757598483 ; 2.4236362001029E7 ; 0.0
160 ; 10792.038225506049 ; 259176.7319486849 ; 2685553.1238465365 ; 2.449421251033554E7 ; 0.0
161 ; 10779.179764984887 ; 260499.2837984502 ; 2696345.1620720425 ; 2.4753389242284223E7 ; 0.0
162 ; 10504.869021487182 ; 261818.12052819695 ; 2707124.3418370276 ; 2.5013888526082672E7 ; 0.0
163 ; 10480.045825165475 ; 263133.1983181464 ; 2717629.2108585145 ; 2.527570664661087E7 ; 0.0
164 ; 10336.20264253676 ; 264444.47384507785 ; 2728109.25668368 ; 2.5538839844929017E7 ; 0.0
165 ; 10269.315640343919 ; 265751.90427141247 ; 2738445.459326217 ; 2.5803284318774097E7 ; 0.0
166 ; 10146.040759334375 ; 267055.4472346689 ; 2748714.774966561 ; 2.606903622304551E7 ; 0.0
167 ; 10077.527201596078 ; 268355.06083727727 ; 2758860.815725895 ; 2.6336091670280177E7 ; 0.0
168 ; 9801.56029934547 ; 269650.70363673824 ; 2768938.3429274913 ; 2.6604446731117453E7 ; 0.0
169 ; 9717.800064394152 ; 270942.3346361142 ; 2778739.9032268366 ; 2.6874097434754193E7 ; 0.0
170 ; 9626.42691471994 ; 272229.9132748407 ; 2788457.703291231 ; 2.7145039769390307E7 ; 0.0
171 ; 9451.709104401973 ; 273513.3994198468 ; 2798084.1302059507 ; 2.7417269682665147E7 ; 0.0
172 ; 9338.07729611589 ; 274792.7533569721 ; 2807535.8393103527 ; 2.7690783082084995E7 ; 0.0
173 ; 9257.618668150759 ; 276067.9357826702 ; 2816873.9166064686 ; 2.7965575835441966E7 ; 0.0
174 ; 9383.844047154553 ; 277338.90779598925 ; 2826131.5352746192 ; 2.8241643771224637E7 ; 0.0
175 ; 9244.572719508551 ; 278605.63089081773 ; 2835515.379321774 ; 2.8518982679020625E7 ; 0.0
176 ; 9409.241425132568 ; 279868.0669483875 ; 2844759.952041283 ; 2.879758830991144E7 ; 0.0
177 ; 9563.317448032774 ; 281126.17823002394 ; 2854169.193466415 ; 2.907745637685983E7 ; 0.0
178 ; 9335.458948099435 ; 282379.9273701354 ; 2863732.5109144477 ; 2.9358582555089854E7 ; 0.0
179 ; 9391.336756997141 ; 283629.2773694321 ; 2873067.9698625472 ; 2.964096248245999E7 ; 0.0
180 ; 9324.320278013036 ; 284874.1915883681 ; 2882459.3066195445 ; 2.992459175982942E7 ; 0.0
181 ; 9385.132054399903 ; 286114.63374079653 ; 2891783.6268975576 ; 3.020946595141779E7 ; 0.0
182 ; 9473.033301781561 ; 287350.5678878323 ; 2901168.7589519573 ; 3.0495580585158587E7 ; 0.0
183 ; 9515.00824546949 ; 288581.9584319143 ; 2910641.7922537387 ; 3.0782931153046418E7 ; 0.0
184 ; 9579.90883862387 ; 289808.7701110594 ; 2920156.8004992083 ; 3.1071513111478332E7 ; 0.0
185 ; 9580.841964428746 ; 291030.9679933036 ; 2929736.709337832 ; 3.136132188158939E7 ; 0.0
186 ; 9558.810967901292 ; 292248.51747132145 ; 2939317.5513022607 ; 3.1652352849582694E7 ; 0.0
187 ; 9684.646961199373 ; 293461.3842572194 ; 2948876.362270162 ; 3.1944601367054015E7 ; 0.0
188 ; 9707.439966326865 ; 294669.53437749634 ; 2958561.0092313616 ; 3.2238062751311235E7 ; 0.0
189 ; 9586.095412878378 ; 295872.93416816555 ; 2968268.4491976886 ; 3.253273228568873E7 ; 0.0
190 ; 9663.915288974633 ; 297071.5502700327 ; 2977854.544610567 ; 3.2828605219856896E7 ; 0.0
191 ; 9685.755777722223 ; 298265.34962412505 ; 2987518.4598995415 ; 3.3125676770126928E7 ; 0.0
192 ; 9861.559925406185 ; 299454.29946726543 ; 2997204.2156772637 ; 3.342394211975105E7 ; 0.0
193 ; 9874.88210245731 ; 300638.3673277877 ; 3007065.77560267 ; 3.372339641921832E7 ; 0.0
194 ; 9711.143538656537 ; 301817.52102138783 ; 3016940.6577051273 ; 3.40240347865461E7 ; 0.0
195 ; 9860.859137509819 ; 302991.72864710656 ; 3026651.801243784 ; 3.432585230756749E7 ; 0.0
196 ; 9823.018365028409 ; 304160.95858343865 ; 3036512.660381294 ; 3.46288440362146E7 ; 0.0
197 ; 9907.92490078674 ; 305325.1794845654 ; 3046335.678746322 ; 3.4933004994798034E7 ; 0.0
198 ; 9836.014870596167 ; 306484.3602767056 ; 3056243.603647109 ; 3.52383301742826E7 ; 0.0
199 ; 9970.186385777117 ; 307638.470154581 ; 3066079.6185177052 ; 3.554481453455931E7 ; 0.0
200 ; 9895.789770926796 ; 308787.47857799375 ; 3076049.8049034826 ; 3.585245300471389E7 ; 0.0
201 ; 9987.673903914649 ; 309931.3552685093 ; 3085945.5946744094 ; 3.616124048329189E7 ; 0.0
202 ; 9920.629475069716 ; 311070.0702062451 ; 3095933.268578324 ; 3.6471171838560395E7 ; 0.0
203 ; 10139.280396463231 ; 312203.59362675826 ; 3105853.8980533937 ; 3.678224190876664E7 ; 0.0
204 ; 10168.300014689314 ; 313331.8960180308 ; 3115993.178449857 ; 3.70944455023934E7 ; 0.0
205 ; 10213.268669958521 ; 314454.94811754924 ; 3126161.478464546 ; 3.740777739841143E7 ; 0.0
206 ; 10115.648491631218 ; 315572.72090947424 ; 3136374.747134505 ; 3.772223234652898E7 ; 0.0
207 ; 9954.756222695596 ; 316685.185621899 ; 3146490.395626136 ; 3.803780506743845E7 ; 0.0
208 ; 10053.374671055666 ; 317792.3137241924 ; 3156445.1518488317 ; 3.8354490253060356E7 ; 0.0
209 ; 9928.885406926864 ; 318894.0769244241 ; 3166498.526519887 ; 3.8672282566784546E7 ; 0.0
210 ; 10227.038994523667 ; 319990.44716687076 ; 3176427.411926814 ; 3.899117664370897E7 ; 0.0
211 ; 10292.906046554042 ; 321081.3966295979 ; 3186654.4509213376 ; 3.9311167090875834E7 ; 0.0
212 ; 10054.106605912688 ; 322166.89772211725 ; 3196947.3569678916 ; 3.963224848750543E7 ; 0.0
