CSV File for the City 1 on Day 306
1 - Minute m 
2 - Power Consumed at minute m 
3 - Power Produced at minute m 
4 - Energy Consumed since the beginning of the day 
5 - Energy Produced since the beginning of the day 
6 - Energy Lost since the beginning of the day on lines starting from the city
 
0 ; 11317.189872622961 ; 14774.736284818264 ; 0.0 ; 0.0 ; 0.0
1 ; 11857.926850689286 ; 14774.736284818264 ; 11317.189872622961 ; 14774.736284818264 ; 238.00000000000003
2 ; 12210.971735036948 ; 14774.736284818264 ; 23175.116723312247 ; 29549.472569636528 ; 476.00000000000006
3 ; 12484.958766284351 ; 14774.736284818264 ; 35386.08845834919 ; 44324.20885445479 ; 714.0000000000001
4 ; 12699.898212011889 ; 14774.736284818264 ; 47871.04722463354 ; 59098.945139273055 ; 952.0000000000001
5 ; 13382.857847136496 ; 14774.736284818264 ; 60570.94543664543 ; 73873.68142409132 ; 1190.0000000000002
6 ; 13637.037785190905 ; 14774.736284818264 ; 73953.80328378192 ; 88648.41770890959 ; 1428.0000000000002
7 ; 14061.89292234216 ; 14774.736284818264 ; 87590.84106897282 ; 103423.15399372786 ; 1666.0000000000002
8 ; 14404.728084680683 ; 14774.736284818264 ; 101652.73399131498 ; 118197.89027854613 ; 1904.0000000000002
9 ; 14742.257843252655 ; 14774.736284818264 ; 116057.46207599566 ; 132972.62656336438 ; 2142.0000000000005
10 ; 15012.150508209297 ; 14774.736284818264 ; 130799.71991924831 ; 147747.36284818265 ; 2380.0000000000005
11 ; 15468.602965035829 ; 14774.736284818264 ; 145811.87042745762 ; 162522.0991330009 ; 2618.0000000000005
12 ; 15838.61954832181 ; 14774.736284818264 ; 161280.47339249344 ; 177296.83541781918 ; 2856.0000000000005
13 ; 16064.916406113705 ; 14774.736284818264 ; 177119.09294081526 ; 192071.57170263745 ; 3094.0000000000005
14 ; 16296.215313176375 ; 14774.736284818264 ; 193184.00934692897 ; 206846.30798745572 ; 3332.0000000000005
15 ; 16680.581116960075 ; 14774.736284818264 ; 209480.22466010533 ; 221621.04427227398 ; 3570.0000000000005
16 ; 17018.699949497743 ; 14774.736284818264 ; 226160.8057770654 ; 236395.78055709225 ; 3808.0000000000005
17 ; 17258.731054967455 ; 14774.736284818264 ; 243179.50572656313 ; 251170.51684191052 ; 4046.0000000000005
18 ; 17613.769824772757 ; 14774.736284818264 ; 260438.23678153058 ; 265945.25312672876 ; 4284.000000000001
19 ; 17747.184035974806 ; 14774.736284818264 ; 278052.00660630333 ; 280719.989411547 ; 4522.000000000001
20 ; 18090.179586801856 ; 14774.736284818264 ; 295799.1906422781 ; 295494.7256963653 ; 4760.000000000001
21 ; 18461.19194890629 ; 14774.736284818264 ; 313889.37022907997 ; 310269.46198118356 ; 4998.000000000001
22 ; 18943.081294238887 ; 14774.736284818264 ; 332350.56217798626 ; 325044.1982660018 ; 5236.000000000001
23 ; 18908.80972801162 ; 14774.736284818264 ; 351293.6434722252 ; 339818.9345508201 ; 5474.000000000001
24 ; 19127.623850233005 ; 14774.736284818264 ; 370202.4532002368 ; 354593.67083563836 ; 5712.000000000001
25 ; 19613.261375823688 ; 14774.736284818264 ; 389330.07705046976 ; 369368.4071204566 ; 5950.000000000001
26 ; 20053.727136903755 ; 14774.736284818264 ; 408943.33842629346 ; 384143.1434052749 ; 6188.000000000001
27 ; 20274.593866743242 ; 14774.736284818264 ; 428997.0655631972 ; 398917.87969009316 ; 6426.000000000001
28 ; 20377.15211556996 ; 14774.736284818264 ; 449271.65942994045 ; 413692.61597491143 ; 6664.000000000001
29 ; 20510.024857268134 ; 14774.736284818264 ; 469648.8115455104 ; 428467.3522597297 ; 6902.000000000001
30 ; 20852.238493408135 ; 14774.736284818264 ; 490158.8364027786 ; 443242.08854454797 ; 7140.000000000001
31 ; 21131.791150576464 ; 14774.736284818264 ; 511011.0748961867 ; 458016.82482936623 ; 7378.000000000001
32 ; 21130.87327991005 ; 14774.736284818264 ; 532142.8660467631 ; 472791.5611141845 ; 7616.000000000001
33 ; 21533.052870071813 ; 14774.736284818264 ; 553273.7393266732 ; 487566.29739900277 ; 7854.000000000001
34 ; 21695.94886745224 ; 14774.736284818264 ; 574806.792196745 ; 502341.03368382104 ; 8092.000000000001
35 ; 21942.56695152772 ; 14774.736284818264 ; 596502.7410641973 ; 517115.7699686393 ; 8330.000000000002
36 ; 22206.831581458173 ; 14774.736284818264 ; 618445.308015725 ; 531890.5062534575 ; 8568.000000000002
37 ; 22349.474427197467 ; 14774.736284818264 ; 640652.1395971832 ; 546665.2425382758 ; 8806.000000000002
38 ; 22499.252222100804 ; 14774.736284818264 ; 663001.6140243807 ; 561439.978823094 ; 9044.000000000002
39 ; 22900.5956043458 ; 14774.736284818264 ; 685500.8662464815 ; 576214.7151079123 ; 9282.000000000002
40 ; 22914.112479111383 ; 14774.736284818264 ; 708401.4618508273 ; 590989.4513927306 ; 9520.000000000002
41 ; 23235.22286403175 ; 14774.736284818264 ; 731315.5743299387 ; 605764.1876775488 ; 9758.000000000002
42 ; 23544.626237646593 ; 14774.736284818264 ; 754550.7971939705 ; 620538.9239623671 ; 9996.000000000002
43 ; 23499.563742814968 ; 14774.736284818264 ; 778095.4234316171 ; 635313.6602471854 ; 10234.000000000002
44 ; 23764.644761003085 ; 14774.736284818264 ; 801594.987174432 ; 650088.3965320037 ; 10472.000000000002
45 ; 23992.345579170527 ; 14774.736284818264 ; 825359.6319354351 ; 664863.1328168219 ; 10710.000000000002
46 ; 24081.08011504887 ; 14774.736284818264 ; 849351.9775146056 ; 679637.8691016402 ; 10948.000000000002
47 ; 24277.397895020105 ; 14774.736284818264 ; 873433.0576296545 ; 694412.6053864585 ; 11186.000000000002
48 ; 24276.513703713565 ; 14774.736284818264 ; 897710.4555246746 ; 709187.3416712767 ; 11424.000000000002
49 ; 24502.914069475988 ; 14774.736284818264 ; 921986.9692283882 ; 723962.077956095 ; 11662.000000000002
50 ; 24624.657845236856 ; 14774.736284818264 ; 946489.8832978641 ; 738736.8142409133 ; 11900.000000000002
51 ; 24852.842442776873 ; 14774.736284818264 ; 971114.5411431009 ; 753511.5505257315 ; 12138.000000000002
52 ; 25134.587897389036 ; 14774.736284818264 ; 995967.3835858778 ; 768286.2868105498 ; 12376.000000000002
53 ; 25171.239768277264 ; 14774.736284818264 ; 1021101.9714832669 ; 783061.0230953681 ; 12614.000000000002
54 ; 25263.857056755613 ; 14774.736284818264 ; 1046273.2112515442 ; 797835.7593801863 ; 12852.000000000002
55 ; 25365.406947419862 ; 14774.736284818264 ; 1071537.0683082999 ; 812610.4956650046 ; 13090.000000000002
56 ; 25655.163043189128 ; 14774.736284818264 ; 1096902.4752557199 ; 827385.2319498229 ; 13328.000000000002
57 ; 25724.012564015982 ; 14774.736284818264 ; 1122557.638298909 ; 842159.9682346411 ; 13566.000000000002
58 ; 25666.943476990396 ; 14774.736284818264 ; 1148281.650862925 ; 856934.7045194594 ; 13804.000000000002
59 ; 25879.025229052568 ; 14774.736284818264 ; 1173948.5943399153 ; 871709.4408042777 ; 14042.000000000002
60 ; 26020.0699302991 ; 14774.736284818264 ; 1199827.619568968 ; 886484.1770890959 ; 14280.000000000002
61 ; 26064.99836645751 ; 14774.736284818264 ; 1225847.6894992671 ; 901258.9133739142 ; 14518.000000000002
62 ; 26015.870360484998 ; 14774.736284818264 ; 1251912.6878657246 ; 916033.6496587325 ; 14756.000000000002
63 ; 26278.756694315252 ; 14774.736284818264 ; 1277928.5582262096 ; 930808.3859435507 ; 14994.000000000002
64 ; 26424.89165207866 ; 14774.736284818264 ; 1304207.3149205248 ; 945583.122228369 ; 15232.000000000002
65 ; 26302.54283283391 ; 14774.736284818264 ; 1330632.2065726034 ; 960357.8585131873 ; 15470.000000000002
66 ; 26501.393818988294 ; 14774.736284818264 ; 1356934.7494054374 ; 975132.5947980055 ; 15708.000000000002
67 ; 26547.214651418402 ; 14774.736284818264 ; 1383436.1432244256 ; 989907.3310828238 ; 15946.000000000002
68 ; 26575.493746604396 ; 14774.736284818264 ; 1409983.357875844 ; 1004682.0673676421 ; 16184.000000000002
69 ; 26592.204089423896 ; 14774.736284818264 ; 1436558.8516224483 ; 1019456.8036524603 ; 16422.000000000004
70 ; 26659.0192132924 ; 14774.736284818264 ; 1463151.0557118722 ; 1034231.5399372786 ; 16660.000000000004
71 ; 26530.018608688526 ; 14774.736284818264 ; 1489810.0749251647 ; 1049006.2762220968 ; 16898.000000000004
72 ; 26524.035155490015 ; 14774.736284818264 ; 1516340.0935338533 ; 1063781.012506915 ; 17136.000000000004
73 ; 26752.49664790823 ; 14774.736284818264 ; 1542864.1286893433 ; 1078555.7487917333 ; 17374.000000000004
74 ; 26576.62778693067 ; 14774.736284818264 ; 1569616.6253372515 ; 1093330.4850765516 ; 17612.000000000004
75 ; 26726.523931333162 ; 14774.736284818264 ; 1596193.253124182 ; 1108105.2213613698 ; 17850.000000000004
76 ; 26985.013973535057 ; 14774.736284818264 ; 1622919.7770555152 ; 1122879.957646188 ; 18088.000000000004
77 ; 26995.731930433896 ; 14774.736284818264 ; 1649904.7910290502 ; 1137654.6939310064 ; 18326.000000000004
78 ; 26839.44062254182 ; 14774.736284818264 ; 1676900.5229594843 ; 1152429.4302158246 ; 18564.000000000004
79 ; 26802.882153700255 ; 14774.736284818264 ; 1703739.963582026 ; 1167204.166500643 ; 18802.000000000004
80 ; 26922.881566875814 ; 14774.736284818264 ; 1730542.8457357264 ; 1181978.9027854612 ; 19040.000000000004
81 ; 26780.787651444633 ; 14774.736284818264 ; 1757465.7273026023 ; 1196753.6390702794 ; 19278.000000000004
82 ; 26817.878593298534 ; 14774.736284818264 ; 1784246.5149540468 ; 1211528.3753550977 ; 19516.000000000004
83 ; 26922.629235488654 ; 14774.736284818264 ; 1811064.3935473454 ; 1226303.111639916 ; 19754.000000000004
84 ; 26867.332310098995 ; 14774.736284818264 ; 1837987.022782834 ; 1241077.8479247342 ; 19992.000000000004
85 ; 26814.82916701168 ; 14774.736284818264 ; 1864854.355092933 ; 1255852.5842095525 ; 20230.000000000004
86 ; 26810.372495775722 ; 14774.736284818264 ; 1891669.1842599446 ; 1270627.3204943708 ; 20468.000000000004
87 ; 26718.986491162275 ; 14774.736284818264 ; 1918479.5567557204 ; 1285402.056779189 ; 20706.000000000004
88 ; 26622.57305797833 ; 14774.736284818264 ; 1945198.5432468827 ; 1300176.7930640073 ; 20944.000000000004
89 ; 26554.158545167793 ; 14774.736284818264 ; 1971821.1163048611 ; 1314951.5293488256 ; 21182.000000000004
90 ; 26708.03230840234 ; 14774.736284818264 ; 1998375.274850029 ; 1329726.2656336438 ; 21420.000000000004
91 ; 26504.86170584962 ; 14774.736284818264 ; 2025083.3071584313 ; 1344501.001918462 ; 21658.000000000004
92 ; 26492.6348090571 ; 14774.736284818264 ; 2051588.168864281 ; 1359275.7382032804 ; 21896.000000000004
93 ; 26393.85261112224 ; 14774.736284818264 ; 2078080.803673338 ; 1374050.4744880986 ; 22134.000000000004
94 ; 26270.569629426096 ; 14774.736284818264 ; 2104474.6562844603 ; 1388825.210772917 ; 22372.000000000004
95 ; 26340.298416525522 ; 14774.736284818264 ; 2130745.2259138864 ; 1403599.9470577352 ; 22610.000000000004
96 ; 26092.434592354093 ; 14774.736284818264 ; 2157085.524330412 ; 1418374.6833425534 ; 22848.000000000004
97 ; 26123.822830357753 ; 14774.736284818264 ; 2183177.958922766 ; 1433149.4196273717 ; 23086.000000000004
98 ; 26042.104791050308 ; 14774.736284818264 ; 2209301.7817531237 ; 1447924.15591219 ; 23324.000000000004
99 ; 26062.057331807915 ; 14774.736284818264 ; 2235343.886544174 ; 1462698.8921970082 ; 23562.000000000004
100 ; 25791.693818103482 ; 14774.736284818264 ; 2261405.943875982 ; 1477473.6284818265 ; 23800.000000000004
101 ; 25797.38652415699 ; 14774.736284818264 ; 2287197.6376940855 ; 1492248.3647666448 ; 24038.000000000004
102 ; 25595.099362729397 ; 14774.736284818264 ; 2312995.0242182426 ; 1507023.101051463 ; 24276.000000000004
103 ; 25449.376578299678 ; 14774.736284818264 ; 2338590.123580972 ; 1521797.8373362813 ; 24514.000000000004
104 ; 25374.62268059396 ; 14774.736284818264 ; 2364039.500159272 ; 1536572.5736210996 ; 24752.000000000004
105 ; 25217.9571155413 ; 14774.736284818264 ; 2389414.1228398657 ; 1551347.3099059178 ; 24990.000000000004
106 ; 25286.168566341363 ; 14774.736284818264 ; 2414632.079955407 ; 1566122.0461907361 ; 25228.000000000004
107 ; 25183.245789049917 ; 14774.736284818264 ; 2439918.2485217485 ; 1580896.7824755544 ; 25466.000000000004
108 ; 24787.062555003944 ; 14774.736284818264 ; 2465101.4943107986 ; 1595671.5187603727 ; 25704.000000000004
109 ; 24960.464251967074 ; 14774.736284818264 ; 2489888.5568658025 ; 1610446.255045191 ; 25942.000000000004
110 ; 24448.178794776795 ; 14774.736284818264 ; 2514849.0211177696 ; 1625220.9913300092 ; 26180.000000000004
111 ; 24373.201645066907 ; 14774.736284818264 ; 2539297.1999125467 ; 1639995.7276148275 ; 26418.000000000004
112 ; 24519.22130430269 ; 14774.736284818264 ; 2563670.4015576136 ; 1654770.4638996457 ; 26656.000000000004
113 ; 24124.10396096325 ; 14774.736284818264 ; 2588189.622861916 ; 1669545.200184464 ; 26894.000000000004
114 ; 23927.975889627036 ; 14774.736284818264 ; 2612313.7268228796 ; 1684319.9364692823 ; 27132.000000000004
115 ; 23755.909953812094 ; 14774.736284818264 ; 2636241.7027125065 ; 1699094.6727541005 ; 27370.000000000004
116 ; 23701.127660274928 ; 14774.736284818264 ; 2659997.6126663187 ; 1713869.4090389188 ; 27608.000000000004
117 ; 23525.34101216929 ; 14774.736284818264 ; 2683698.7403265936 ; 1728644.145323737 ; 27846.000000000004
118 ; 23256.698468702984 ; 14774.736284818264 ; 2707224.081338763 ; 1743418.8816085553 ; 28084.000000000004
119 ; 22912.3622977611 ; 14774.736284818264 ; 2730480.7798074656 ; 1758193.6178933736 ; 28322.000000000004
120 ; 22946.39195402026 ; 14774.736284818264 ; 2753393.142105227 ; 1772968.3541781919 ; 28560.000000000004
121 ; 22734.86971448982 ; 14774.736284818264 ; 2776339.534059247 ; 1787743.0904630101 ; 28798.000000000004
122 ; 22395.95855991728 ; 14774.736284818264 ; 2799074.4037737367 ; 1802517.8267478284 ; 29036.000000000004
123 ; 22239.444610566057 ; 14774.736284818264 ; 2821470.362333654 ; 1817292.5630326467 ; 29274.000000000004
124 ; 22124.98499555097 ; 14774.736284818264 ; 2843709.80694422 ; 1832067.299317465 ; 29512.000000000004
125 ; 21701.866804079516 ; 14774.736284818264 ; 2865834.791939771 ; 1846842.0356022832 ; 29750.000000000004
126 ; 21760.009475927985 ; 14774.736284818264 ; 2887536.6587438504 ; 1861616.7718871015 ; 29988.000000000004
127 ; 21443.623874572848 ; 14774.736284818264 ; 2909296.668219778 ; 1876391.5081719197 ; 30226.000000000004
128 ; 21176.831784269 ; 14774.736284818264 ; 2930740.2920943513 ; 1891166.244456738 ; 30464.000000000004
129 ; 20904.84188164254 ; 14774.736284818264 ; 2951917.12387862 ; 1905940.9807415563 ; 30702.000000000004
130 ; 20810.50254528146 ; 14774.736284818264 ; 2972821.9657602627 ; 1920715.7170263745 ; 30940.000000000004
131 ; 20524.616105953522 ; 14774.736284818264 ; 2993632.468305544 ; 1935490.4533111928 ; 31178.000000000004
132 ; 20364.093544670042 ; 14774.736284818264 ; 3014157.0844114977 ; 1950265.189596011 ; 31416.000000000004
133 ; 19855.205803006527 ; 14774.736284818264 ; 3034521.1779561676 ; 1965039.9258808293 ; 31654.000000000004
134 ; 19591.343229061353 ; 14774.736284818264 ; 3054376.383759174 ; 1979814.6621656476 ; 31892.000000000004
135 ; 19162.836568821578 ; 14774.736284818264 ; 3073967.7269882355 ; 1994589.3984504659 ; 32130.000000000004
136 ; 19165.616575343807 ; 14774.736284818264 ; 3093130.563557057 ; 2009364.1347352841 ; 32368.000000000004
137 ; 18830.336459571554 ; 14774.736284818264 ; 3112296.180132401 ; 2024138.8710201024 ; 32606.000000000004
138 ; 18450.77868303272 ; 14774.736284818264 ; 3131126.5165919727 ; 2038913.6073049207 ; 32844.00000000001
139 ; 18321.72449961297 ; 14774.736284818264 ; 3149577.2952750055 ; 2053688.343589739 ; 33082.00000000001
140 ; 17992.194565511803 ; 14774.736284818264 ; 3167899.0197746186 ; 2068463.0798745572 ; 33320.00000000001
141 ; 17600.42433475845 ; 14774.736284818264 ; 3185891.2143401303 ; 2083237.8161593755 ; 33558.00000000001
142 ; 17319.68934699133 ; 14774.736284818264 ; 3203491.6386748888 ; 2098012.5524441935 ; 33796.00000000001
143 ; 17330.042560623995 ; 14774.736284818264 ; 3220811.3280218802 ; 2112787.2887290115 ; 34034.00000000001
144 ; 16753.164209119204 ; 14774.736284818264 ; 3238141.370582504 ; 2127562.0250138296 ; 34272.00000000001
145 ; 16610.16241281617 ; 14774.736284818264 ; 3254894.5347916232 ; 2142336.7612986476 ; 34510.00000000001
146 ; 16341.240587527775 ; 14774.736284818264 ; 3271504.6972044394 ; 2157111.4975834657 ; 34748.00000000001
147 ; 16392.364686936853 ; 14774.736284818264 ; 3287845.9377919673 ; 2171886.2338682837 ; 34986.00000000001
148 ; 16374.431732797131 ; 14774.736284818264 ; 3304238.3024789044 ; 2186660.9701531017 ; 35224.00000000001
149 ; 16242.270902738792 ; 14774.736284818264 ; 3320612.7342117014 ; 2201435.7064379198 ; 35462.00000000001
150 ; 16094.567338978033 ; 14774.736284818264 ; 3336855.0051144403 ; 2216210.442722738 ; 35700.00000000001
151 ; 16086.881908181906 ; 14774.736284818264 ; 3352949.5724534183 ; 2230985.179007556 ; 35938.00000000001
152 ; 16002.149178333993 ; 14774.736284818264 ; 3369036.4543616003 ; 2245759.915292374 ; 36176.00000000001
153 ; 16028.68536850114 ; 14774.736284818264 ; 3385038.6035399344 ; 2260534.651577192 ; 36414.00000000001
154 ; 15860.54692512904 ; 14774.736284818264 ; 3401067.2889084355 ; 2275309.38786201 ; 36652.00000000001
155 ; 15487.9091388901 ; 14774.736284818264 ; 3416927.8358335644 ; 2290084.124146828 ; 36890.00000000001
156 ; 15497.712488901056 ; 14774.736284818264 ; 3432415.7449724544 ; 2304858.860431646 ; 37128.00000000001
157 ; 15359.810429785137 ; 14774.736284818264 ; 3447913.4574613553 ; 2319633.596716464 ; 37366.00000000001
158 ; 15464.696975097704 ; 14774.736284818264 ; 3463273.26789114 ; 2334408.333001282 ; 37604.00000000001
159 ; 15048.153505689492 ; 14774.736284818264 ; 3478737.9648662377 ; 2349183.0692861 ; 37842.00000000001
160 ; 14992.913757650636 ; 14774.736284818264 ; 3493786.118371927 ; 2363957.805570918 ; 38080.00000000001
161 ; 14967.17954272023 ; 14774.736284818264 ; 3508779.032129578 ; 2378732.541855736 ; 38318.00000000001
162 ; 14705.039166396506 ; 14774.736284818264 ; 3523746.211672298 ; 2393507.278140554 ; 38556.00000000001
163 ; 14731.561695833389 ; 14774.736284818264 ; 3538451.2508386946 ; 2408282.0144253722 ; 38794.00000000001
164 ; 14473.377485790052 ; 14774.736284818264 ; 3553182.812534528 ; 2423056.7507101903 ; 39032.00000000001
165 ; 14395.381301870953 ; 14774.736284818264 ; 3567656.1900203177 ; 2437831.4869950083 ; 39270.00000000001
166 ; 14259.559097964244 ; 14774.736284818264 ; 3582051.5713221887 ; 2452606.2232798263 ; 39508.00000000001
167 ; 14028.670255190751 ; 14774.736284818264 ; 3596311.130420153 ; 2467380.9595646444 ; 39746.00000000001
168 ; 13898.38199527226 ; 14774.736284818264 ; 3610339.8006753437 ; 2482155.6958494624 ; 39984.00000000001
169 ; 13894.198562411797 ; 14774.736284818264 ; 3624238.182670616 ; 2496930.4321342804 ; 40222.00000000001
170 ; 13710.661149634832 ; 14774.736284818264 ; 3638132.3812330277 ; 2511705.1684190985 ; 40460.00000000001
171 ; 13557.401703447904 ; 14774.736284818264 ; 3651843.0423826627 ; 2526479.9047039165 ; 40698.00000000001
172 ; 13507.503299785114 ; 14774.736284818264 ; 3665400.4440861107 ; 2541254.6409887346 ; 40936.00000000001
173 ; 13166.573446611696 ; 14774.736284818264 ; 3678907.947385896 ; 2556029.3772735526 ; 41174.00000000001
174 ; 13025.46345661143 ; 14774.736284818264 ; 3692074.520832508 ; 2570804.1135583706 ; 41412.00000000001
175 ; 13337.425058246523 ; 14774.736284818264 ; 3705099.9842891195 ; 2585578.8498431887 ; 41650.00000000001
176 ; 13334.874667271251 ; 14774.736284818264 ; 3718437.409347366 ; 2600353.5861280067 ; 41888.00000000001
177 ; 13440.480002002707 ; 14774.736284818264 ; 3731772.284014637 ; 2615128.3224128247 ; 42126.00000000001
178 ; 13192.83329954251 ; 14774.736284818264 ; 3745212.76401664 ; 2629903.0586976428 ; 42364.00000000001
179 ; 13339.810819571709 ; 14774.736284818264 ; 3758405.597316182 ; 2644677.794982461 ; 42602.00000000001
180 ; 13487.491669426123 ; 14774.736284818264 ; 3771745.408135754 ; 2659452.531267279 ; 42840.00000000001
181 ; 13416.001976393469 ; 14774.736284818264 ; 3785232.8998051803 ; 2674227.267552097 ; 43078.00000000001
182 ; 13341.68633916064 ; 14774.736284818264 ; 3798648.901781574 ; 2689002.003836915 ; 43316.00000000001
183 ; 13517.581713341402 ; 14774.736284818264 ; 3811990.5881207343 ; 2703776.740121733 ; 43554.00000000001
184 ; 13261.454147138775 ; 14774.736284818264 ; 3825508.1698340755 ; 2718551.476406551 ; 43792.00000000001
