CSV File for the City 2 on Day 151
1 - Minute m 
2 - Power Consumed at minute m 
3 - Power Produced at minute m 
4 - Energy Consumed since the beginning of the day 
5 - Energy Produced since the beginning of the day 
6 - Energy Lost since the beginning of the day on lines starting from the city
 
0 ; 7408.252208123617 ; 28985.336046206434 ; 0.0 ; 0.0 ; 0.0
1 ; 7869.1616550069875 ; 28985.336046206434 ; 7408.252208123617 ; 28985.336046206434 ; 0.0
2 ; 8180.472255090236 ; 28985.336046206434 ; 15277.413863130605 ; 57970.67209241287 ; 0.0
3 ; 8672.354634447716 ; 28985.336046206434 ; 23457.886118220842 ; 86956.0081386193 ; 0.0
4 ; 9175.862116572529 ; 28985.336046206434 ; 32130.240752668557 ; 115941.34418482574 ; 0.0
5 ; 9431.718969246935 ; 28985.336046206434 ; 41306.102869241084 ; 144926.68023103217 ; 0.0
6 ; 9745.331383740724 ; 28985.336046206434 ; 50737.82183848802 ; 173912.0162772386 ; 0.0
7 ; 10042.567989031644 ; 28985.336046206434 ; 60483.15322222874 ; 202897.35232344505 ; 0.0
8 ; 10626.725176299055 ; 28985.336046206434 ; 70525.72121126039 ; 231882.6883696515 ; 0.0
9 ; 10976.635533097695 ; 28985.336046206434 ; 81152.44638755944 ; 260868.02441585794 ; 0.0
10 ; 11381.370959593594 ; 28985.336046206434 ; 92129.08192065713 ; 289853.3604620644 ; 0.0
11 ; 11715.90931368676 ; 28985.336046206434 ; 103510.45288025073 ; 318838.6965082708 ; 0.0
12 ; 12004.899471438579 ; 28985.336046206434 ; 115226.36219393749 ; 347824.0325544772 ; 0.0
13 ; 12320.098466809524 ; 28985.336046206434 ; 127231.26166537606 ; 376809.36860068364 ; 0.0
14 ; 12803.184747459625 ; 28985.336046206434 ; 139551.3601321856 ; 405794.70464689005 ; 0.0
15 ; 13144.44189559256 ; 28985.336046206434 ; 152354.54487964523 ; 434780.04069309647 ; 0.0
16 ; 13472.916895186969 ; 28985.336046206434 ; 165498.98677523778 ; 463765.3767393029 ; 0.0
17 ; 13837.076633901037 ; 28985.336046206434 ; 178971.90367042474 ; 492750.7127855093 ; 0.0
18 ; 14128.258906835654 ; 28985.336046206434 ; 192808.98030432579 ; 521736.0488317157 ; 0.0
19 ; 14365.437130961212 ; 28985.336046206434 ; 206937.23921116145 ; 550721.3848779221 ; 0.0
20 ; 14795.99521761334 ; 28985.336046206434 ; 221302.67634212266 ; 579706.7209241285 ; 0.0
21 ; 15175.597340475239 ; 28985.336046206434 ; 236098.67155973602 ; 608692.056970335 ; 0.0
22 ; 15369.688630577411 ; 28985.336046206434 ; 251274.26890021126 ; 637677.3930165414 ; 0.0
23 ; 15636.547283009098 ; 28985.336046206434 ; 266643.95753078867 ; 666662.7290627478 ; 0.0
24 ; 15879.959137819671 ; 28985.336046206434 ; 282280.5048137978 ; 695648.0651089542 ; 0.0
25 ; 16278.28083963576 ; 28985.336046206434 ; 298160.4639516174 ; 724633.4011551606 ; 0.0
26 ; 16559.5267899754 ; 28985.336046206434 ; 314438.7447912532 ; 753618.737201367 ; 0.0
27 ; 16699.417519103485 ; 28985.336046206434 ; 330998.2715812286 ; 782604.0732475735 ; 0.0
28 ; 17182.925644641644 ; 28985.336046206434 ; 347697.6891003321 ; 811589.4092937799 ; 0.0
29 ; 17297.277846528148 ; 28985.336046206434 ; 364880.6147449737 ; 840574.7453399863 ; 0.0
30 ; 17530.70904815439 ; 28985.336046206434 ; 382177.8925915019 ; 869560.0813861927 ; 0.0
31 ; 17822.252588298536 ; 28985.336046206434 ; 399708.6016396563 ; 898545.4174323991 ; 0.0
32 ; 18124.30151399885 ; 28985.336046206434 ; 417530.8542279548 ; 927530.7534786055 ; 0.0
33 ; 18502.560888731885 ; 28985.336046206434 ; 435655.15574195364 ; 956516.089524812 ; 0.0
34 ; 18641.290295423092 ; 28985.336046206434 ; 454157.71663068555 ; 985501.4255710184 ; 0.0
35 ; 18876.171375130947 ; 28985.336046206434 ; 472799.0069261086 ; 1014486.7616172248 ; 0.0
36 ; 19183.63214704161 ; 28985.336046206434 ; 491675.17830123956 ; 1043472.0976634312 ; 0.0
37 ; 19289.09366305111 ; 28985.336046206434 ; 510858.8104482812 ; 1072457.4337096377 ; 0.0
38 ; 19602.328062699085 ; 28985.336046206434 ; 530147.9041113323 ; 1101442.7697558443 ; 0.0
39 ; 19764.244309172987 ; 28985.336046206434 ; 549750.2321740313 ; 1130428.1058020508 ; 0.0
40 ; 20096.800976017283 ; 28985.336046206434 ; 569514.4764832043 ; 1159413.4418482573 ; 0.0
41 ; 20098.69881746761 ; 28985.336046206434 ; 589611.2774592215 ; 1188398.7778944639 ; 0.0
42 ; 20531.36728191529 ; 28985.336046206434 ; 609709.9762766892 ; 1217384.1139406704 ; 0.0
43 ; 20755.586305228542 ; 28985.336046206434 ; 630241.3435586045 ; 1246369.449986877 ; 0.0
44 ; 20836.45048906825 ; 28985.336046206434 ; 650996.929863833 ; 1275354.7860330835 ; 0.0
45 ; 21092.744935570823 ; 28985.336046206434 ; 671833.3803529013 ; 1304340.12207929 ; 0.0
46 ; 21034.848356006874 ; 28985.336046206434 ; 692926.1252884722 ; 1333325.4581254965 ; 0.0
47 ; 21254.055588077907 ; 28985.336046206434 ; 713960.9736444791 ; 1362310.794171703 ; 0.0
48 ; 21675.230597549133 ; 28985.336046206434 ; 735215.0292325569 ; 1391296.1302179096 ; 0.0
49 ; 21692.316085305745 ; 28985.336046206434 ; 756890.259830106 ; 1420281.466264116 ; 0.0
50 ; 21808.251888948194 ; 28985.336046206434 ; 778582.5759154118 ; 1449266.8023103226 ; 0.0
51 ; 21940.07694668335 ; 28985.336046206434 ; 800390.82780436 ; 1478252.1383565292 ; 0.0
52 ; 22212.448201915384 ; 28985.336046206434 ; 822330.9047510433 ; 1507237.4744027357 ; 0.0
53 ; 22228.009199388136 ; 28985.336046206434 ; 844543.3529529587 ; 1536222.8104489422 ; 0.0
54 ; 22306.519623849123 ; 28985.336046206434 ; 866771.3621523468 ; 1565208.1464951488 ; 0.0
55 ; 22556.02955659859 ; 28985.336046206434 ; 889077.8817761958 ; 1594193.4825413553 ; 0.0
56 ; 22622.758620624285 ; 28985.336046206434 ; 911633.9113327945 ; 1623178.8185875618 ; 0.0
57 ; 22875.675582509277 ; 28985.336046206434 ; 934256.6699534188 ; 1652164.1546337684 ; 0.0
58 ; 22900.00410028982 ; 28985.336046206434 ; 957132.345535928 ; 1681149.490679975 ; 0.0
59 ; 23086.310361522304 ; 28985.336046206434 ; 980032.3496362178 ; 1710134.8267261814 ; 0.0
60 ; 23290.09375033928 ; 28985.336046206434 ; 1003118.6599977401 ; 1739120.162772388 ; 0.0
61 ; 23371.28381418406 ; 28985.336046206434 ; 1026408.7537480793 ; 1768105.4988185945 ; 0.0
62 ; 23312.51175126067 ; 28985.336046206434 ; 1049780.0375622634 ; 1797090.834864801 ; 0.0
63 ; 23515.808454462665 ; 28985.336046206434 ; 1073092.549313524 ; 1826076.1709110076 ; 0.0
64 ; 23593.30999162367 ; 28985.336046206434 ; 1096608.3577679866 ; 1855061.506957214 ; 0.0
65 ; 23730.381127024986 ; 28985.336046206434 ; 1120201.6677596103 ; 1884046.8430034206 ; 0.0
66 ; 23910.048959844637 ; 28985.336046206434 ; 1143932.0488866353 ; 1913032.1790496272 ; 0.0
67 ; 23701.440662881058 ; 28985.336046206434 ; 1167842.09784648 ; 1942017.5150958337 ; 0.0
68 ; 23933.45150944578 ; 28985.336046206434 ; 1191543.5385093612 ; 1971002.8511420402 ; 0.0
69 ; 23837.67212811914 ; 28985.336046206434 ; 1215476.990018807 ; 1999988.1871882468 ; 0.0
70 ; 23990.289066298283 ; 28985.336046206434 ; 1239314.662146926 ; 2028973.5232344533 ; 0.0
71 ; 24176.51287788094 ; 28985.336046206434 ; 1263304.9512132243 ; 2057958.8592806598 ; 0.0
72 ; 24113.18543712189 ; 28985.336046206434 ; 1287481.4640911052 ; 2086944.1953268663 ; 0.0
73 ; 24135.779961542266 ; 28985.336046206434 ; 1311594.649528227 ; 2115929.531373073 ; 0.0
74 ; 24266.59754749943 ; 28985.336046206434 ; 1335730.4294897693 ; 2144914.867419279 ; 0.0
75 ; 24294.202276491353 ; 28985.336046206434 ; 1359997.0270372687 ; 2173900.2034654855 ; 0.0
76 ; 24156.144243271152 ; 28985.336046206434 ; 1384291.22931376 ; 2202885.539511692 ; 0.0
77 ; 24214.019847791522 ; 28985.336046206434 ; 1408447.3735570312 ; 2231870.875557898 ; 0.0
78 ; 24226.240980410104 ; 28985.336046206434 ; 1432661.3934048226 ; 2260856.2116041044 ; 0.0
79 ; 24351.204860631417 ; 28985.336046206434 ; 1456887.6343852326 ; 2289841.5476503107 ; 0.0
80 ; 24356.05841788041 ; 28985.336046206434 ; 1481238.839245864 ; 2318826.883696517 ; 0.0
81 ; 24261.99834257674 ; 28985.336046206434 ; 1505594.8976637444 ; 2347812.2197427233 ; 0.0
82 ; 24244.16244761397 ; 28985.336046206434 ; 1529856.896006321 ; 2376797.5557889296 ; 0.0
83 ; 24256.56055403971 ; 28985.336046206434 ; 1554101.058453935 ; 2405782.891835136 ; 0.0
84 ; 24362.178672929607 ; 28985.336046206434 ; 1578357.6190079746 ; 2434768.227881342 ; 0.0
85 ; 24280.554285167236 ; 28985.336046206434 ; 1602719.7976809042 ; 2463753.5639275485 ; 0.0
86 ; 24065.431590939967 ; 28985.336046206434 ; 1627000.3519660714 ; 2492738.899973755 ; 0.0
87 ; 24286.854637944893 ; 28985.336046206434 ; 1651065.7835570113 ; 2521724.236019961 ; 0.0
88 ; 24096.572180891693 ; 28985.336046206434 ; 1675352.6381949561 ; 2550709.5720661674 ; 0.0
89 ; 24003.47780284019 ; 28985.336046206434 ; 1699449.2103758478 ; 2579694.9081123737 ; 0.0
90 ; 24145.754409415666 ; 28985.336046206434 ; 1723452.688178688 ; 2608680.24415858 ; 0.0
91 ; 24024.383841797266 ; 28985.336046206434 ; 1747598.4425881037 ; 2637665.5802047863 ; 0.0
92 ; 24047.16603652213 ; 28985.336046206434 ; 1771622.826429901 ; 2666650.9162509926 ; 0.0
93 ; 23823.156197446315 ; 28985.336046206434 ; 1795669.992466423 ; 2695636.252297199 ; 0.0
94 ; 23890.806214115295 ; 28985.336046206434 ; 1819493.1486638694 ; 2724621.588343405 ; 0.0
95 ; 23787.357586261638 ; 28985.336046206434 ; 1843383.9548779847 ; 2753606.9243896115 ; 0.0
96 ; 23700.80374569242 ; 28985.336046206434 ; 1867171.3124642463 ; 2782592.2604358178 ; 0.0
97 ; 23625.549346355765 ; 28985.336046206434 ; 1890872.1162099387 ; 2811577.596482024 ; 0.0
98 ; 23626.270788531037 ; 28985.336046206434 ; 1914497.6655562944 ; 2840562.9325282304 ; 0.0
99 ; 23475.722239431696 ; 28985.336046206434 ; 1938123.9363448254 ; 2869548.2685744367 ; 0.0
100 ; 23336.871032576706 ; 28985.336046206434 ; 1961599.6585842571 ; 2898533.604620643 ; 0.0
101 ; 23454.358211737675 ; 28985.336046206434 ; 1984936.529616834 ; 2927518.9406668493 ; 0.0
102 ; 23269.124664031915 ; 28985.336046206434 ; 2008390.8878285715 ; 2956504.2767130556 ; 0.0
103 ; 23013.4872773986 ; 28985.336046206434 ; 2031660.0124926034 ; 2985489.612759262 ; 0.0
104 ; 22787.568144586097 ; 28985.336046206434 ; 2054673.499770002 ; 3014474.948805468 ; 0.0
105 ; 22823.57082251659 ; 28985.336046206434 ; 2077461.0679145881 ; 3043460.2848516745 ; 0.0
106 ; 22757.898819405153 ; 28985.336046206434 ; 2100284.638737105 ; 3072445.6208978808 ; 0.0
107 ; 22520.53076351795 ; 28985.336046206434 ; 2123042.53755651 ; 3101430.956944087 ; 0.0
108 ; 22481.975943458376 ; 28985.336046206434 ; 2145563.068320028 ; 3130416.2929902934 ; 0.0
109 ; 22314.90661888456 ; 28985.336046206434 ; 2168045.0442634863 ; 3159401.6290364997 ; 0.0
110 ; 22149.963782487186 ; 28985.336046206434 ; 2190359.950882371 ; 3188386.965082706 ; 0.0
111 ; 22028.59735429535 ; 28985.336046206434 ; 2212509.914664858 ; 3217372.3011289123 ; 0.0
112 ; 21859.99062009243 ; 28985.336046206434 ; 2234538.512019153 ; 3246357.6371751186 ; 0.0
113 ; 21685.034022101827 ; 28985.336046206434 ; 2256398.5026392457 ; 3275342.973221325 ; 0.0
114 ; 21615.22620377294 ; 28985.336046206434 ; 2278083.5366613474 ; 3304328.309267531 ; 0.0
115 ; 21316.926483550542 ; 28985.336046206434 ; 2299698.7628651205 ; 3333313.6453137374 ; 0.0
116 ; 21148.03143230336 ; 28985.336046206434 ; 2321015.689348671 ; 3362298.9813599437 ; 0.0
117 ; 20920.565994603676 ; 28985.336046206434 ; 2342163.7207809743 ; 3391284.31740615 ; 0.0
118 ; 21079.856008079172 ; 28985.336046206434 ; 2363084.286775578 ; 3420269.6534523563 ; 0.0
119 ; 20645.570161300548 ; 28985.336046206434 ; 2384164.142783657 ; 3449254.9894985626 ; 0.0
120 ; 20455.41580342816 ; 28985.336046206434 ; 2404809.712944958 ; 3478240.325544769 ; 0.0
121 ; 20242.09247615019 ; 28985.336046206434 ; 2425265.128748386 ; 3507225.6615909752 ; 0.0
122 ; 20020.20072873171 ; 28985.336046206434 ; 2445507.221224536 ; 3536210.9976371815 ; 0.0
123 ; 19753.44082206098 ; 28985.336046206434 ; 2465527.421953268 ; 3565196.333683388 ; 0.0
124 ; 19633.89086335826 ; 28985.336046206434 ; 2485280.862775329 ; 3594181.669729594 ; 0.0
125 ; 19471.4547898757 ; 28985.336046206434 ; 2504914.753638687 ; 3623167.0057758004 ; 0.0
126 ; 19311.403893632476 ; 28985.336046206434 ; 2524386.2084285626 ; 3652152.3418220067 ; 0.0
127 ; 18898.466770399365 ; 28985.336046206434 ; 2543697.612322195 ; 3681137.677868213 ; 0.0
128 ; 18741.18627827157 ; 28985.336046206434 ; 2562596.0790925943 ; 3710123.0139144193 ; 0.0
129 ; 18561.944462597447 ; 28985.336046206434 ; 2581337.265370866 ; 3739108.3499606256 ; 0.0
130 ; 18283.385677816466 ; 28985.336046206434 ; 2599899.209833463 ; 3768093.686006832 ; 0.0
131 ; 17988.100575857614 ; 28985.336046206434 ; 2618182.5955112795 ; 3797079.0220530382 ; 0.0
132 ; 17830.110644610166 ; 28985.336046206434 ; 2636170.6960871373 ; 3826064.3580992445 ; 0.0
133 ; 17647.61806050257 ; 28985.336046206434 ; 2654000.8067317475 ; 3855049.694145451 ; 0.0
134 ; 17255.2673936807 ; 28985.336046206434 ; 2671648.42479225 ; 3884035.030191657 ; 0.0
135 ; 16890.82577402675 ; 28985.336046206434 ; 2688903.692185931 ; 3913020.3662378634 ; 0.0
136 ; 16841.652279285103 ; 28985.336046206434 ; 2705794.5179599575 ; 3942005.7022840697 ; 0.0
137 ; 16576.459447421334 ; 28985.336046206434 ; 2722636.1702392427 ; 3970991.038330276 ; 0.0
138 ; 15948.025272293784 ; 28985.336046206434 ; 2739212.629686664 ; 3999976.3743764823 ; 0.0
139 ; 15889.737637586979 ; 28985.336046206434 ; 2755160.654958958 ; 4028961.7104226886 ; 0.0
140 ; 15582.81440311406 ; 28985.336046206434 ; 2771050.3925965447 ; 4057947.046468895 ; 0.0
141 ; 15176.390005860174 ; 28985.336046206434 ; 2786633.2069996586 ; 4086932.382515101 ; 0.0
142 ; 14942.087742557813 ; 28985.336046206434 ; 2801809.5970055186 ; 4115917.7185613075 ; 0.0
143 ; 14656.521736201159 ; 28985.336046206434 ; 2816751.6847480764 ; 4144903.054607514 ; 0.0
144 ; 14330.24525250896 ; 28985.336046206434 ; 2831408.2064842777 ; 4173888.39065372 ; 0.0
145 ; 14163.465283786105 ; 28985.336046206434 ; 2845738.451736787 ; 4202873.726699927 ; 0.0
146 ; 14368.50870158805 ; 28985.336046206434 ; 2859901.917020573 ; 4231859.062746134 ; 0.0
147 ; 13937.729766165512 ; 28985.336046206434 ; 2874270.425722161 ; 4260844.39879234 ; 0.0
148 ; 13874.922932201534 ; 28985.336046206434 ; 2888208.155488326 ; 4289829.734838547 ; 0.0
149 ; 13894.81751176869 ; 28985.336046206434 ; 2902083.0784205277 ; 4318815.070884754 ; 0.0
150 ; 13794.334546131147 ; 28985.336046206434 ; 2915977.8959322963 ; 4347800.406930961 ; 0.0
151 ; 13636.734130239352 ; 28985.336046206434 ; 2929772.2304784274 ; 4376785.7429771675 ; 0.0
152 ; 13577.584894402078 ; 28985.336046206434 ; 2943408.964608667 ; 4405771.079023374 ; 0.0
153 ; 13528.047709976792 ; 28985.336046206434 ; 2956986.549503069 ; 4434756.415069581 ; 0.0
154 ; 13377.432584171756 ; 28985.336046206434 ; 2970514.5972130457 ; 4463741.751115788 ; 0.0
155 ; 13289.699538480578 ; 28985.336046206434 ; 2983892.0297972173 ; 4492727.087161995 ; 0.0
156 ; 13149.133673143293 ; 28985.336046206434 ; 2997181.729335698 ; 4521712.423208201 ; 0.0
157 ; 12990.963201673645 ; 28985.336046206434 ; 3010330.863008841 ; 4550697.759254408 ; 0.0
158 ; 13168.413745491242 ; 28985.336046206434 ; 3023321.8262105146 ; 4579683.095300615 ; 0.0
159 ; 12971.468984548304 ; 28985.336046206434 ; 3036490.239956006 ; 4608668.431346822 ; 0.0
160 ; 12749.245664031581 ; 28985.336046206434 ; 3049461.7089405544 ; 4637653.767393028 ; 0.0
161 ; 12616.437100000332 ; 28985.336046206434 ; 3062210.954604586 ; 4666639.103439235 ; 0.0
162 ; 12546.552640875145 ; 28985.336046206434 ; 3074827.3917045863 ; 4695624.439485442 ; 0.0
163 ; 12352.42129531751 ; 28985.336046206434 ; 3087373.9443454617 ; 4724609.775531649 ; 0.0
164 ; 12035.34572366029 ; 28985.336046206434 ; 3099726.365640779 ; 4753595.111577855 ; 0.0
165 ; 12040.462244174234 ; 28985.336046206434 ; 3111761.711364439 ; 4782580.447624062 ; 0.0
166 ; 11917.800987716086 ; 28985.336046206434 ; 3123802.1736086137 ; 4811565.783670269 ; 0.0
167 ; 11720.487488901652 ; 28985.336046206434 ; 3135719.97459633 ; 4840551.119716476 ; 0.0
168 ; 11544.322491226041 ; 28985.336046206434 ; 3147440.4620852317 ; 4869536.4557626825 ; 0.0
169 ; 11587.111635303374 ; 28985.336046206434 ; 3158984.784576458 ; 4898521.791808889 ; 0.0
170 ; 11390.927499924584 ; 28985.336046206434 ; 3170571.8962117615 ; 4927507.127855096 ; 0.0
171 ; 11236.117138005695 ; 28985.336046206434 ; 3181962.8237116863 ; 4956492.463901303 ; 0.0
172 ; 11027.0490657584 ; 28985.336046206434 ; 3193198.940849692 ; 4985477.79994751 ; 0.0
173 ; 10949.984801607092 ; 28985.336046206434 ; 3204225.9899154506 ; 5014463.135993716 ; 0.0
174 ; 11188.174399933878 ; 28985.336046206434 ; 3215175.974717058 ; 5043448.472039923 ; 0.0
175 ; 11081.577541740156 ; 28985.336046206434 ; 3226364.1491169916 ; 5072433.80808613 ; 0.0
176 ; 10957.84486636622 ; 28985.336046206434 ; 3237445.7266587317 ; 5101419.144132337 ; 0.0
177 ; 10920.931889608031 ; 28985.336046206434 ; 3248403.571525098 ; 5130404.480178543 ; 0.0
178 ; 11043.019177385979 ; 28985.336046206434 ; 3259324.503414706 ; 5159389.81622475 ; 0.0
179 ; 10987.033483054245 ; 28985.336046206434 ; 3270367.522592092 ; 5188375.152270957 ; 0.0
180 ; 11120.825064000952 ; 28985.336046206434 ; 3281354.556075146 ; 5217360.488317164 ; 0.0
181 ; 11064.524620593464 ; 28985.336046206434 ; 3292475.381139147 ; 5246345.82436337 ; 0.0
182 ; 11359.156110457165 ; 28985.336046206434 ; 3303539.9057597406 ; 5275331.160409577 ; 0.0
183 ; 11263.839339357952 ; 28985.336046206434 ; 3314899.0618701978 ; 5304316.496455784 ; 0.0
184 ; 11192.137831881615 ; 28985.336046206434 ; 3326162.9012095556 ; 5333301.832501991 ; 0.0
185 ; 11286.495091779705 ; 28985.336046206434 ; 3337355.039041437 ; 5362287.1685481975 ; 0.0
186 ; 11174.668881955882 ; 28985.336046206434 ; 3348641.534133217 ; 5391272.504594404 ; 0.0
187 ; 11107.587152376607 ; 28985.336046206434 ; 3359816.203015173 ; 5420257.840640611 ; 0.0
188 ; 11248.604508651977 ; 28985.336046206434 ; 3370923.7901675496 ; 5449243.176686818 ; 0.0
189 ; 11365.032980756994 ; 28985.336046206434 ; 3382172.3946762015 ; 5478228.512733025 ; 0.0
190 ; 11432.343500036577 ; 28985.336046206434 ; 3393537.4276569583 ; 5507213.848779231 ; 0.0
191 ; 11500.21578652007 ; 28985.336046206434 ; 3404969.771156995 ; 5536199.184825438 ; 0.0
192 ; 11461.799344910643 ; 28985.336046206434 ; 3416469.986943515 ; 5565184.520871645 ; 0.0
193 ; 11340.107559496066 ; 28985.336046206434 ; 3427931.786288426 ; 5594169.856917852 ; 0.0
194 ; 11244.872829816642 ; 28985.336046206434 ; 3439271.893847922 ; 5623155.192964058 ; 0.0
195 ; 11450.329369257466 ; 28985.336046206434 ; 3450516.7666777386 ; 5652140.529010265 ; 0.0
196 ; 11507.504121374352 ; 28985.336046206434 ; 3461967.0960469963 ; 5681125.865056472 ; 0.0
197 ; 11314.68989809103 ; 28985.336046206434 ; 3473474.6001683706 ; 5710111.201102679 ; 0.0
198 ; 11484.840407021537 ; 28985.336046206434 ; 3484789.2900664615 ; 5739096.537148885 ; 0.0
199 ; 11533.181874792288 ; 28985.336046206434 ; 3496274.130473483 ; 5768081.873195092 ; 0.0
200 ; 11658.698587713861 ; 28985.336046206434 ; 3507807.312348275 ; 5797067.209241299 ; 0.0
201 ; 11624.498996796232 ; 28985.336046206434 ; 3519466.0109359887 ; 5826052.545287506 ; 0.0
202 ; 11569.785968734364 ; 28985.336046206434 ; 3531090.509932785 ; 5855037.8813337125 ; 0.0
203 ; 11587.045512255389 ; 28985.336046206434 ; 3542660.2959015192 ; 5884023.217379919 ; 0.0
204 ; 11569.534332961424 ; 28985.336046206434 ; 3554247.3414137745 ; 5913008.553426126 ; 0.0
205 ; 11711.46658543448 ; 28985.336046206434 ; 3565816.875746736 ; 5941993.889472333 ; 0.0
206 ; 11848.140641257258 ; 28985.336046206434 ; 3577528.3423321703 ; 5970979.22551854 ; 0.0
207 ; 11812.642687483 ; 28985.336046206434 ; 3589376.4829734275 ; 5999964.561564746 ; 0.0
208 ; 11776.240472036674 ; 28985.336046206434 ; 3601189.1256609107 ; 6028949.897610953 ; 0.0
209 ; 11708.718085109467 ; 28985.336046206434 ; 3612965.3661329476 ; 6057935.23365716 ; 0.0
210 ; 11813.586212341208 ; 28985.336046206434 ; 3624674.084218057 ; 6086920.569703367 ; 0.0
211 ; 11878.814466931395 ; 28985.336046206434 ; 3636487.670430398 ; 6115905.905749573 ; 0.0
212 ; 11984.692091650673 ; 28985.336046206434 ; 3648366.4848973295 ; 6144891.24179578 ; 0.0
213 ; 11882.000793900415 ; 28985.336046206434 ; 3660351.1769889803 ; 6173876.577841987 ; 0.0
