CSV File for the City 2 on Day 237
1 - Minute m 
2 - Power Consumed at minute m 
3 - Power Produced at minute m 
4 - Energy Consumed since the beginning of the day 
5 - Energy Produced since the beginning of the day 
6 - Energy Lost since the beginning of the day on lines starting from the city
 
0 ; 4725.41874438178 ; 33491.781991288015 ; 0.0 ; 0.0 ; 0.0
1 ; 5299.327992176982 ; 33491.781991288015 ; 4725.41874438178 ; 33491.781991288015 ; 0.0
2 ; 6011.489403976487 ; 33491.781991288015 ; 10024.746736558762 ; 66983.56398257603 ; 0.0
3 ; 6293.79107039203 ; 33491.781991288015 ; 16036.23614053525 ; 100475.34597386405 ; 0.0
4 ; 6896.703042932134 ; 33491.781991288015 ; 22330.027210927277 ; 133967.12796515206 ; 0.0
5 ; 7381.7238102067895 ; 33491.781991288015 ; 29226.730253859412 ; 167458.90995644007 ; 0.0
6 ; 7980.127062550358 ; 33491.781991288015 ; 36608.4540640662 ; 200950.69194772808 ; 0.0
7 ; 8401.824257416758 ; 33491.781991288015 ; 44588.58112661656 ; 234442.47393901608 ; 0.0
8 ; 8839.197353348853 ; 33491.781991288015 ; 52990.40538403332 ; 267934.2559303041 ; 0.0
9 ; 9187.041121840603 ; 33491.781991288015 ; 61829.60273738217 ; 301426.0379215921 ; 0.0
10 ; 9759.280745860631 ; 33491.781991288015 ; 71016.64385922278 ; 334917.81991288014 ; 0.0
11 ; 10308.185459832168 ; 33491.781991288015 ; 80775.9246050834 ; 368409.60190416814 ; 0.0
12 ; 10744.674276728992 ; 33491.781991288015 ; 91084.11006491557 ; 401901.38389545615 ; 0.0
13 ; 11225.895967794055 ; 33491.781991288015 ; 101828.78434164457 ; 435393.16588674416 ; 0.0
14 ; 11659.701568707083 ; 33491.781991288015 ; 113054.68030943863 ; 468884.94787803217 ; 0.0
15 ; 12084.039896048054 ; 33491.781991288015 ; 124714.38187814571 ; 502376.7298693202 ; 0.0
16 ; 12380.92937483881 ; 33491.781991288015 ; 136798.42177419376 ; 535868.5118606082 ; 0.0
17 ; 12843.995173840689 ; 33491.781991288015 ; 149179.35114903256 ; 569360.2938518963 ; 0.0
18 ; 13356.005464478116 ; 33491.781991288015 ; 162023.34632287326 ; 602852.0758431844 ; 0.0
19 ; 13783.547940633965 ; 33491.781991288015 ; 175379.35178735136 ; 636343.8578344724 ; 0.0
20 ; 14186.527137578716 ; 33491.781991288015 ; 189162.89972798532 ; 669835.6398257605 ; 0.0
21 ; 14677.870505709709 ; 33491.781991288015 ; 203349.42686556405 ; 703327.4218170486 ; 0.0
22 ; 15015.532899997623 ; 33491.781991288015 ; 218027.29737127374 ; 736819.2038083366 ; 0.0
23 ; 15433.0173423552 ; 33491.781991288015 ; 233042.83027127138 ; 770310.9857996247 ; 0.0
24 ; 15731.046050945288 ; 33491.781991288015 ; 248475.84761362657 ; 803802.7677909128 ; 0.0
25 ; 16018.170324449573 ; 33491.781991288015 ; 264206.89366457186 ; 837294.5497822008 ; 0.0
26 ; 16339.495286493375 ; 33491.781991288015 ; 280225.06398902147 ; 870786.3317734889 ; 0.0
27 ; 16903.341026034283 ; 33491.781991288015 ; 296564.55927551485 ; 904278.113764777 ; 0.0
28 ; 17116.234355111967 ; 33491.781991288015 ; 313467.9003015491 ; 937769.895756065 ; 0.0
29 ; 17519.086027626592 ; 33491.781991288015 ; 330584.1346566611 ; 971261.6777473531 ; 0.0
30 ; 17876.750241635502 ; 33491.781991288015 ; 348103.22068428766 ; 1004753.4597386412 ; 0.0
31 ; 18304.597278578123 ; 33491.781991288015 ; 365979.97092592315 ; 1038245.2417299292 ; 0.0
32 ; 18544.100674752885 ; 33491.781991288015 ; 384284.5682045013 ; 1071737.0237212172 ; 0.0
33 ; 18843.32511513727 ; 33491.781991288015 ; 402828.6688792542 ; 1105228.8057125052 ; 0.0
34 ; 19142.080863911277 ; 33491.781991288015 ; 421671.99399439147 ; 1138720.5877037933 ; 0.0
35 ; 19443.118196780328 ; 33491.781991288015 ; 440814.0748583027 ; 1172212.3696950814 ; 0.0
36 ; 19879.14106988947 ; 33491.781991288015 ; 460257.19305508304 ; 1205704.1516863694 ; 0.0
37 ; 20231.107541814137 ; 33491.781991288015 ; 480136.3341249725 ; 1239195.9336776575 ; 0.0
38 ; 20294.449800242954 ; 33491.781991288015 ; 500367.4416667867 ; 1272687.7156689456 ; 0.0
39 ; 20579.803674402443 ; 33491.781991288015 ; 520661.89146702964 ; 1306179.4976602336 ; 0.0
40 ; 20983.13544466698 ; 33491.781991288015 ; 541241.6951414321 ; 1339671.2796515217 ; 0.0
41 ; 21229.39662332109 ; 33491.781991288015 ; 562224.8305860991 ; 1373163.0616428098 ; 0.0
42 ; 21575.85682300122 ; 33491.781991288015 ; 583454.2272094202 ; 1406654.8436340978 ; 0.0
43 ; 21770.628616564365 ; 33491.781991288015 ; 605030.0840324213 ; 1440146.625625386 ; 0.0
44 ; 21918.42600277927 ; 33491.781991288015 ; 626800.7126489857 ; 1473638.407616674 ; 0.0
45 ; 22327.212316977893 ; 33491.781991288015 ; 648719.138651765 ; 1507130.189607962 ; 0.0
46 ; 22639.64902577184 ; 33491.781991288015 ; 671046.3509687429 ; 1540621.97159925 ; 0.0
47 ; 22727.55710963486 ; 33491.781991288015 ; 693685.9999945147 ; 1574113.7535905382 ; 0.0
48 ; 22783.104076055937 ; 33491.781991288015 ; 716413.5571041496 ; 1607605.5355818262 ; 0.0
49 ; 23108.734156808783 ; 33491.781991288015 ; 739196.6611802055 ; 1641097.3175731143 ; 0.0
50 ; 23298.915915131023 ; 33491.781991288015 ; 762305.3953370143 ; 1674589.0995644024 ; 0.0
51 ; 23591.789521723505 ; 33491.781991288015 ; 785604.3112521453 ; 1708080.8815556904 ; 0.0
52 ; 23847.636288331953 ; 33491.781991288015 ; 809196.1007738688 ; 1741572.6635469785 ; 0.0
53 ; 23814.716225167536 ; 33491.781991288015 ; 833043.7370622008 ; 1775064.4455382666 ; 0.0
54 ; 24267.446851731613 ; 33491.781991288015 ; 856858.4532873683 ; 1808556.2275295546 ; 0.0
55 ; 24370.370660595476 ; 33491.781991288015 ; 881125.9001390999 ; 1842048.0095208427 ; 0.0
56 ; 24629.44263605852 ; 33491.781991288015 ; 905496.2707996954 ; 1875539.7915121308 ; 0.0
57 ; 24731.445451287556 ; 33491.781991288015 ; 930125.713435754 ; 1909031.5735034188 ; 0.0
58 ; 24921.852344608717 ; 33491.781991288015 ; 954857.1588870415 ; 1942523.355494707 ; 0.0
59 ; 25026.139173195617 ; 33491.781991288015 ; 979779.0112316502 ; 1976015.137485995 ; 0.0
60 ; 25262.991174486524 ; 33491.781991288015 ; 1004805.1504048458 ; 2009506.919477283 ; 0.0
61 ; 25354.892982703877 ; 33491.781991288015 ; 1030068.1415793323 ; 2042998.701468571 ; 0.0
62 ; 25461.78674620566 ; 33491.781991288015 ; 1055423.0345620362 ; 2076490.4834598592 ; 0.0
63 ; 25820.547570403978 ; 33491.781991288015 ; 1080884.821308242 ; 2109982.265451147 ; 0.0
64 ; 25763.627454147303 ; 33491.781991288015 ; 1106705.3688786458 ; 2143474.0474424353 ; 0.0
65 ; 25948.55340385902 ; 33491.781991288015 ; 1132468.996332793 ; 2176965.8294337234 ; 0.0
66 ; 25978.231997595063 ; 33491.781991288015 ; 1158417.549736652 ; 2210457.6114250114 ; 0.0
67 ; 25905.61601987415 ; 33491.781991288015 ; 1184395.7817342472 ; 2243949.3934162995 ; 0.0
68 ; 26119.32049321232 ; 33491.781991288015 ; 1210301.3977541213 ; 2277441.1754075876 ; 0.0
69 ; 26145.4908575132 ; 33491.781991288015 ; 1236420.7182473335 ; 2310932.9573988756 ; 0.0
70 ; 26278.87903125621 ; 33491.781991288015 ; 1262566.2091048467 ; 2344424.7393901637 ; 0.0
71 ; 26676.26321553385 ; 33491.781991288015 ; 1288845.088136103 ; 2377916.5213814517 ; 0.0
72 ; 26436.29660472708 ; 33491.781991288015 ; 1315521.351351637 ; 2411408.30337274 ; 0.0
73 ; 26649.28958917458 ; 33491.781991288015 ; 1341957.647956364 ; 2444900.085364028 ; 0.0
74 ; 26620.302884753393 ; 33491.781991288015 ; 1368606.9375455386 ; 2478391.867355316 ; 0.0
75 ; 26532.494350749188 ; 33491.781991288015 ; 1395227.240430292 ; 2511883.649346604 ; 0.0
76 ; 26681.362122428523 ; 33491.781991288015 ; 1421759.7347810413 ; 2545375.431337892 ; 0.0
77 ; 26762.393388393004 ; 33491.781991288015 ; 1448441.0969034699 ; 2578867.21332918 ; 0.0
78 ; 26575.497303113738 ; 33491.781991288015 ; 1475203.490291863 ; 2612358.995320468 ; 0.0
79 ; 26895.578934516205 ; 33491.781991288015 ; 1501778.9875949768 ; 2645850.7773117563 ; 0.0
80 ; 26729.006526593657 ; 33491.781991288015 ; 1528674.566529493 ; 2679342.5593030443 ; 0.0
81 ; 26827.67463767743 ; 33491.781991288015 ; 1555403.5730560867 ; 2712834.3412943324 ; 0.0
82 ; 26917.686990832357 ; 33491.781991288015 ; 1582231.247693764 ; 2746326.1232856205 ; 0.0
83 ; 26891.48907029197 ; 33491.781991288015 ; 1609148.9346845965 ; 2779817.9052769085 ; 0.0
84 ; 26932.70173440753 ; 33491.781991288015 ; 1636040.4237548884 ; 2813309.6872681966 ; 0.0
85 ; 26776.278443622872 ; 33491.781991288015 ; 1662973.125489296 ; 2846801.4692594847 ; 0.0
86 ; 26815.262963413308 ; 33491.781991288015 ; 1689749.4039329188 ; 2880293.2512507727 ; 0.0
87 ; 26870.275338036812 ; 33491.781991288015 ; 1716564.666896332 ; 2913785.033242061 ; 0.0
88 ; 26620.22081934916 ; 33491.781991288015 ; 1743434.9422343688 ; 2947276.815233349 ; 0.0
89 ; 26702.375308265044 ; 33491.781991288015 ; 1770055.163053718 ; 2980768.597224637 ; 0.0
90 ; 26581.246242836954 ; 33491.781991288015 ; 1796757.538361983 ; 3014260.379215925 ; 0.0
91 ; 26661.138320185863 ; 33491.781991288015 ; 1823338.78460482 ; 3047752.161207213 ; 0.0
92 ; 26575.985075864002 ; 33491.781991288015 ; 1849999.922925006 ; 3081243.943198501 ; 0.0
93 ; 26564.538797941386 ; 33491.781991288015 ; 1876575.90800087 ; 3114735.725189789 ; 0.0
94 ; 26399.901135435957 ; 33491.781991288015 ; 1903140.4467988112 ; 3148227.5071810773 ; 0.0
95 ; 26232.929024355024 ; 33491.781991288015 ; 1929540.3479342472 ; 3181719.2891723653 ; 0.0
96 ; 26037.120438490507 ; 33491.781991288015 ; 1955773.2769586022 ; 3215211.0711636534 ; 0.0
97 ; 26227.26337387872 ; 33491.781991288015 ; 1981810.3973970928 ; 3248702.8531549415 ; 0.0
98 ; 26088.696209414473 ; 33491.781991288015 ; 2008037.6607709716 ; 3282194.6351462295 ; 0.0
99 ; 26093.868297583555 ; 33491.781991288015 ; 2034126.356980386 ; 3315686.4171375176 ; 0.0
100 ; 25857.902384108136 ; 33491.781991288015 ; 2060220.2252779696 ; 3349178.1991288057 ; 0.0
101 ; 25795.362069871884 ; 33491.781991288015 ; 2086078.1276620778 ; 3382669.9811200937 ; 0.0
102 ; 25565.893114103343 ; 33491.781991288015 ; 2111873.4897319498 ; 3416161.763111382 ; 0.0
103 ; 25457.368059926353 ; 33491.781991288015 ; 2137439.382846053 ; 3449653.54510267 ; 0.0
104 ; 25279.54013618775 ; 33491.781991288015 ; 2162896.7509059794 ; 3483145.327093958 ; 0.0
105 ; 25242.301189974023 ; 33491.781991288015 ; 2188176.291042167 ; 3516637.109085246 ; 0.0
106 ; 25227.324107086883 ; 33491.781991288015 ; 2213418.592232141 ; 3550128.891076534 ; 0.0
107 ; 24810.680309346666 ; 33491.781991288015 ; 2238645.916339228 ; 3583620.673067822 ; 0.0
108 ; 24720.387242419893 ; 33491.781991288015 ; 2263456.596648575 ; 3617112.45505911 ; 0.0
109 ; 24503.50336957472 ; 33491.781991288015 ; 2288176.983890995 ; 3650604.2370503983 ; 0.0
110 ; 24327.423115179 ; 33491.781991288015 ; 2312680.48726057 ; 3684096.0190416863 ; 0.0
111 ; 24343.418756784013 ; 33491.781991288015 ; 2337007.9103757488 ; 3717587.8010329744 ; 0.0
112 ; 24278.726910883022 ; 33491.781991288015 ; 2361351.3291325327 ; 3751079.5830242625 ; 0.0
113 ; 23925.43517995785 ; 33491.781991288015 ; 2385630.056043416 ; 3784571.3650155505 ; 0.0
114 ; 23635.893747445076 ; 33491.781991288015 ; 2409555.4912233735 ; 3818063.1470068386 ; 0.0
115 ; 23424.460564332567 ; 33491.781991288015 ; 2433191.3849708186 ; 3851554.9289981266 ; 0.0
116 ; 23303.63168011198 ; 33491.781991288015 ; 2456615.845535151 ; 3885046.7109894147 ; 0.0
117 ; 23002.219409740967 ; 33491.781991288015 ; 2479919.477215263 ; 3918538.492980703 ; 0.0
118 ; 22740.466444407124 ; 33491.781991288015 ; 2502921.696625004 ; 3952030.274971991 ; 0.0
119 ; 22666.88770375995 ; 33491.781991288015 ; 2525662.163069411 ; 3985522.056963279 ; 0.0
120 ; 22172.569297350565 ; 33491.781991288015 ; 2548329.0507731712 ; 4019013.838954567 ; 0.0
121 ; 21946.831706539502 ; 33491.781991288015 ; 2570501.6200705217 ; 4052505.620945855 ; 0.0
122 ; 21789.542013932263 ; 33491.781991288015 ; 2592448.4517770614 ; 4085997.402937143 ; 0.0
123 ; 21610.726604593816 ; 33491.781991288015 ; 2614237.993790994 ; 4119489.184928431 ; 0.0
124 ; 21193.0466179658 ; 33491.781991288015 ; 2635848.720395588 ; 4152980.9669197192 ; 0.0
125 ; 21132.054100059526 ; 33491.781991288015 ; 2657041.7670135535 ; 4186472.7489110073 ; 0.0
126 ; 20811.02425372501 ; 33491.781991288015 ; 2678173.821113613 ; 4219964.530902295 ; 0.0
127 ; 20572.126349599628 ; 33491.781991288015 ; 2698984.845367338 ; 4253456.312893583 ; 0.0
128 ; 20097.14844407993 ; 33491.781991288015 ; 2719556.9717169376 ; 4286948.0948848715 ; 0.0
129 ; 19948.1852136965 ; 33491.781991288015 ; 2739654.1201610174 ; 4320439.87687616 ; 0.0
130 ; 19551.22109954079 ; 33491.781991288015 ; 2759602.305374714 ; 4353931.658867448 ; 0.0
131 ; 19191.591546011176 ; 33491.781991288015 ; 2779153.5264742547 ; 4387423.440858736 ; 0.0
132 ; 18813.362424633044 ; 33491.781991288015 ; 2798345.118020266 ; 4420915.222850024 ; 0.0
133 ; 18786.909846722792 ; 33491.781991288015 ; 2817158.480444899 ; 4454407.004841312 ; 0.0
134 ; 18308.13098687655 ; 33491.781991288015 ; 2835945.3902916214 ; 4487898.7868326 ; 0.0
135 ; 17887.53385560142 ; 33491.781991288015 ; 2854253.5212784978 ; 4521390.568823888 ; 0.0
136 ; 17774.233879009065 ; 33491.781991288015 ; 2872141.055134099 ; 4554882.350815176 ; 0.0
137 ; 17248.411822264286 ; 33491.781991288015 ; 2889915.2890131082 ; 4588374.132806464 ; 0.0
138 ; 16956.910199586106 ; 33491.781991288015 ; 2907163.7008353723 ; 4621865.914797752 ; 0.0
139 ; 16570.693011688592 ; 33491.781991288015 ; 2924120.6110349586 ; 4655357.69678904 ; 0.0
140 ; 16275.827567275015 ; 33491.781991288015 ; 2940691.304046647 ; 4688849.478780328 ; 0.0
141 ; 15880.060509756082 ; 33491.781991288015 ; 2956967.1316139223 ; 4722341.260771616 ; 0.0
142 ; 15597.604257734205 ; 33491.781991288015 ; 2972847.1921236785 ; 4755833.042762904 ; 0.0
143 ; 15108.867388372946 ; 33491.781991288015 ; 2988444.7963814125 ; 4789324.8247541925 ; 0.0
144 ; 14545.960143425049 ; 33491.781991288015 ; 3003553.6637697853 ; 4822816.606745481 ; 0.0
145 ; 14534.281633695053 ; 33491.781991288015 ; 3018099.6239132104 ; 4856308.388736769 ; 0.0
146 ; 14533.137130714375 ; 33491.781991288015 ; 3032633.9055469055 ; 4889800.170728057 ; 0.0
147 ; 14327.615632118004 ; 33491.781991288015 ; 3047167.04267762 ; 4923291.952719345 ; 0.0
148 ; 14005.677904517699 ; 33491.781991288015 ; 3061494.658309738 ; 4956783.734710633 ; 0.0
149 ; 14031.779402660282 ; 33491.781991288015 ; 3075500.336214256 ; 4990275.516701921 ; 0.0
150 ; 14109.293762225814 ; 33491.781991288015 ; 3089532.115616916 ; 5023767.298693209 ; 0.0
151 ; 13789.095863723 ; 33491.781991288015 ; 3103641.409379142 ; 5057259.080684497 ; 0.0
152 ; 13562.360734641583 ; 33491.781991288015 ; 3117430.505242865 ; 5090750.862675785 ; 0.0
153 ; 13554.63646133854 ; 33491.781991288015 ; 3130992.8659775066 ; 5124242.644667073 ; 0.0
154 ; 13398.62144997556 ; 33491.781991288015 ; 3144547.502438845 ; 5157734.426658361 ; 0.0
155 ; 13698.406235898632 ; 33491.781991288015 ; 3157946.123888821 ; 5191226.208649649 ; 0.0
156 ; 13234.839212292873 ; 33491.781991288015 ; 3171644.5301247197 ; 5224717.990640937 ; 0.0
157 ; 13002.745407830364 ; 33491.781991288015 ; 3184879.3693370125 ; 5258209.772632225 ; 0.0
158 ; 13036.37475564604 ; 33491.781991288015 ; 3197882.114744843 ; 5291701.5546235135 ; 0.0
159 ; 12699.037971564247 ; 33491.781991288015 ; 3210918.489500489 ; 5325193.336614802 ; 0.0
160 ; 12730.265815205683 ; 33491.781991288015 ; 3223617.527472053 ; 5358685.11860609 ; 0.0
161 ; 12643.836955592056 ; 33491.781991288015 ; 3236347.793287259 ; 5392176.900597378 ; 0.0
162 ; 12453.471846483997 ; 33491.781991288015 ; 3248991.630242851 ; 5425668.682588666 ; 0.0
163 ; 12378.6651454073 ; 33491.781991288015 ; 3261445.102089335 ; 5459160.464579954 ; 0.0
164 ; 12092.34568251528 ; 33491.781991288015 ; 3273823.7672347426 ; 5492652.246571242 ; 0.0
165 ; 11876.205060439199 ; 33491.781991288015 ; 3285916.112917258 ; 5526144.02856253 ; 0.0
166 ; 11969.974740714764 ; 33491.781991288015 ; 3297792.317977697 ; 5559635.810553818 ; 0.0
167 ; 11548.30765038414 ; 33491.781991288015 ; 3309762.292718412 ; 5593127.592545106 ; 0.0
168 ; 11434.134525809573 ; 33491.781991288015 ; 3321310.600368796 ; 5626619.374536394 ; 0.0
169 ; 11307.48259975342 ; 33491.781991288015 ; 3332744.7348946054 ; 5660111.156527682 ; 0.0
170 ; 11095.48182742643 ; 33491.781991288015 ; 3344052.217494359 ; 5693602.93851897 ; 0.0
171 ; 10953.482438927873 ; 33491.781991288015 ; 3355147.699321785 ; 5727094.720510258 ; 0.0
172 ; 10782.377661387336 ; 33491.781991288015 ; 3366101.181760713 ; 5760586.502501546 ; 0.0
173 ; 10664.017331519584 ; 33491.781991288015 ; 3376883.5594221004 ; 5794078.2844928345 ; 0.0
174 ; 10944.590164090734 ; 33491.781991288015 ; 3387547.57675362 ; 5827570.066484123 ; 0.0
175 ; 10951.152188217577 ; 33491.781991288015 ; 3398492.1669177106 ; 5861061.848475411 ; 0.0
176 ; 10855.14376047612 ; 33491.781991288015 ; 3409443.3191059283 ; 5894553.630466699 ; 0.0
177 ; 10898.727851003703 ; 33491.781991288015 ; 3420298.4628664046 ; 5928045.412457987 ; 0.0
178 ; 10940.020686655902 ; 33491.781991288015 ; 3431197.1907174084 ; 5961537.194449275 ; 0.0
179 ; 10724.337881361693 ; 33491.781991288015 ; 3442137.211404064 ; 5995028.976440563 ; 0.0
180 ; 11157.340362638643 ; 33491.781991288015 ; 3452861.549285426 ; 6028520.758431851 ; 0.0
181 ; 10891.746938102584 ; 33491.781991288015 ; 3464018.8896480645 ; 6062012.540423139 ; 0.0
182 ; 11055.803482085414 ; 33491.781991288015 ; 3474910.636586167 ; 6095504.322414427 ; 0.0
183 ; 11028.743678431461 ; 33491.781991288015 ; 3485966.4400682524 ; 6128996.104405715 ; 0.0
184 ; 11176.821399179104 ; 33491.781991288015 ; 3496995.183746684 ; 6162487.886397003 ; 0.0
185 ; 11011.80825007096 ; 33491.781991288015 ; 3508172.005145863 ; 6195979.668388291 ; 0.0
186 ; 11142.345442041822 ; 33491.781991288015 ; 3519183.813395934 ; 6229471.450379579 ; 0.0
187 ; 11067.200177527866 ; 33491.781991288015 ; 3530326.158837976 ; 6262963.232370867 ; 0.0
188 ; 11161.6579466008 ; 33491.781991288015 ; 3541393.359015504 ; 6296455.014362155 ; 0.0
189 ; 11295.5863710861 ; 33491.781991288015 ; 3552555.0169621045 ; 6329946.7963534435 ; 0.0
190 ; 11140.286136531833 ; 33491.781991288015 ; 3563850.6033331905 ; 6363438.578344732 ; 0.0
191 ; 11346.833508155072 ; 33491.781991288015 ; 3574990.8894697223 ; 6396930.36033602 ; 0.0
192 ; 11275.09544028293 ; 33491.781991288015 ; 3586337.722977877 ; 6430422.142327308 ; 0.0
193 ; 11472.814239110732 ; 33491.781991288015 ; 3597612.81841816 ; 6463913.924318596 ; 0.0
194 ; 11460.968677303706 ; 33491.781991288015 ; 3609085.632657271 ; 6497405.706309884 ; 0.0
195 ; 11598.268276449524 ; 33491.781991288015 ; 3620546.6013345746 ; 6530897.488301172 ; 0.0
196 ; 11544.105204691305 ; 33491.781991288015 ; 3632144.869611024 ; 6564389.27029246 ; 0.0
197 ; 11583.13434100646 ; 33491.781991288015 ; 3643688.974815715 ; 6597881.052283748 ; 0.0
198 ; 11641.824678657671 ; 33491.781991288015 ; 3655272.1091567217 ; 6631372.834275036 ; 0.0
199 ; 11427.560585143954 ; 33491.781991288015 ; 3666913.9338353793 ; 6664864.616266324 ; 0.0
200 ; 11781.650576965803 ; 33491.781991288015 ; 3678341.4944205233 ; 6698356.398257612 ; 0.0
201 ; 11763.651748944147 ; 33491.781991288015 ; 3690123.144997489 ; 6731848.1802489 ; 0.0
202 ; 11652.52607309882 ; 33491.781991288015 ; 3701886.7967464332 ; 6765339.962240188 ; 0.0
203 ; 11726.111001485746 ; 33491.781991288015 ; 3713539.322819532 ; 6798831.744231476 ; 0.0
204 ; 11735.915717176771 ; 33491.781991288015 ; 3725265.433821018 ; 6832323.5262227645 ; 0.0
205 ; 11766.151708409161 ; 33491.781991288015 ; 3737001.3495381945 ; 6865815.308214053 ; 0.0
206 ; 11838.533238436776 ; 33491.781991288015 ; 3748767.5012466037 ; 6899307.090205341 ; 0.0
207 ; 11999.364404821625 ; 33491.781991288015 ; 3760606.03448504 ; 6932798.872196629 ; 0.0
208 ; 11909.175919138233 ; 33491.781991288015 ; 3772605.398889862 ; 6966290.654187917 ; 0.0
209 ; 11879.573122475644 ; 33491.781991288015 ; 3784514.5748090004 ; 6999782.436179205 ; 0.0
210 ; 11952.059194105685 ; 33491.781991288015 ; 3796394.147931476 ; 7033274.218170493 ; 0.0
211 ; 12079.483197291838 ; 33491.781991288015 ; 3808346.207125582 ; 7066766.000161781 ; 0.0
212 ; 12079.745587882098 ; 33491.781991288015 ; 3820425.6903228736 ; 7100257.782153069 ; 0.0
213 ; 12058.023102567915 ; 33491.781991288015 ; 3832505.435910756 ; 7133749.564144357 ; 0.0
