CSV File for the City 2 on Day 241
1 - Minute m 
2 - Power Consumed at minute m 
3 - Power Produced at minute m 
4 - Energy Consumed since the beginning of the day 
5 - Energy Produced since the beginning of the day 
6 - Energy Lost since the beginning of the day on lines starting from the city
 
0 ; 4881.766615862999 ; 33072.97071863964 ; 0.0 ; 0.0 ; 0.0
1 ; 5427.405102065626 ; 33072.97071863964 ; 4881.766615862999 ; 33072.97071863964 ; 0.0
2 ; 5952.417584855679 ; 33072.97071863964 ; 10309.171717928624 ; 66145.94143727928 ; 0.0
3 ; 6487.332658730959 ; 33072.97071863964 ; 16261.589302784303 ; 99218.91215591892 ; 0.0
4 ; 7054.883132605403 ; 33072.97071863964 ; 22748.92196151526 ; 132291.88287455856 ; 0.0
5 ; 7410.605675985573 ; 33072.97071863964 ; 29803.805094120664 ; 165364.8535931982 ; 0.0
6 ; 8066.158140530678 ; 33072.97071863964 ; 37214.41077010624 ; 198437.82431183785 ; 0.0
7 ; 8530.877258858003 ; 33072.97071863964 ; 45280.56891063692 ; 231510.7950304775 ; 0.0
8 ; 9033.476842312522 ; 33072.97071863964 ; 53811.44616949492 ; 264583.7657491171 ; 0.0
9 ; 9596.793097049682 ; 33072.97071863964 ; 62844.92301180744 ; 297656.7364677568 ; 0.0
10 ; 9845.41850193171 ; 33072.97071863964 ; 72441.71610885713 ; 330729.70718639647 ; 0.0
11 ; 10315.281174218173 ; 33072.97071863964 ; 82287.13461078884 ; 363802.67790503614 ; 0.0
12 ; 10572.522890484432 ; 33072.97071863964 ; 92602.415785007 ; 396875.6486236758 ; 0.0
13 ; 11213.990233852503 ; 33072.97071863964 ; 103174.93867549143 ; 429948.6193423155 ; 0.0
14 ; 11562.26383505523 ; 33072.97071863964 ; 114388.92890934393 ; 463021.59006095515 ; 0.0
15 ; 12009.305493100183 ; 33072.97071863964 ; 125951.19274439916 ; 496094.5607795948 ; 0.0
16 ; 12548.674998170502 ; 33072.97071863964 ; 137960.49823749933 ; 529167.5314982345 ; 0.0
17 ; 12885.774751438405 ; 33072.97071863964 ; 150509.17323566982 ; 562240.5022168742 ; 0.0
18 ; 13365.532034693573 ; 33072.97071863964 ; 163394.94798710823 ; 595313.4729355138 ; 0.0
19 ; 13637.234715525308 ; 33072.97071863964 ; 176760.4800218018 ; 628386.4436541535 ; 0.0
20 ; 14331.865460106552 ; 33072.97071863964 ; 190397.71473732713 ; 661459.4143727932 ; 0.0
21 ; 14532.984589128413 ; 33072.97071863964 ; 204729.58019743368 ; 694532.3850914328 ; 0.0
22 ; 14975.835237488653 ; 33072.97071863964 ; 219262.56478656208 ; 727605.3558100725 ; 0.0
23 ; 15334.842216088364 ; 33072.97071863964 ; 234238.40002405073 ; 760678.3265287122 ; 0.0
24 ; 15706.800135908023 ; 33072.97071863964 ; 249573.2422401391 ; 793751.2972473518 ; 0.0
25 ; 15985.448146648816 ; 33072.97071863964 ; 265280.0423760471 ; 826824.2679659915 ; 0.0
26 ; 16344.45116582889 ; 33072.97071863964 ; 281265.49052269594 ; 859897.2386846312 ; 0.0
27 ; 16801.648018863394 ; 33072.97071863964 ; 297609.94168852485 ; 892970.2094032709 ; 0.0
28 ; 17170.870073787744 ; 33072.97071863964 ; 314411.58970738825 ; 926043.1801219105 ; 0.0
29 ; 17370.857053558397 ; 33072.97071863964 ; 331582.459781176 ; 959116.1508405502 ; 0.0
30 ; 17788.072514748506 ; 33072.97071863964 ; 348953.3168347344 ; 992189.1215591899 ; 0.0
31 ; 18094.947352345353 ; 33072.97071863964 ; 366741.3893494829 ; 1025262.0922778295 ; 0.0
32 ; 18545.284810600737 ; 33072.97071863964 ; 384836.33670182823 ; 1058335.0629964692 ; 0.0
33 ; 18710.135964078432 ; 33072.97071863964 ; 403381.621512429 ; 1091408.0337151089 ; 0.0
34 ; 18978.196820727848 ; 33072.97071863964 ; 422091.7574765074 ; 1124481.0044337485 ; 0.0
35 ; 19531.105810774803 ; 33072.97071863964 ; 441069.95429723524 ; 1157553.9751523882 ; 0.0
36 ; 19635.578161582922 ; 33072.97071863964 ; 460601.06010801 ; 1190626.945871028 ; 0.0
37 ; 19959.462528610973 ; 33072.97071863964 ; 480236.63826959295 ; 1223699.9165896676 ; 0.0
38 ; 20265.816643379803 ; 33072.97071863964 ; 500196.1007982039 ; 1256772.8873083072 ; 0.0
39 ; 20634.697535630512 ; 33072.97071863964 ; 520461.9174415837 ; 1289845.858026947 ; 0.0
40 ; 20985.045572082334 ; 33072.97071863964 ; 541096.6149772143 ; 1322918.8287455866 ; 0.0
41 ; 21225.45238151772 ; 33072.97071863964 ; 562081.6605492965 ; 1355991.7994642262 ; 0.0
42 ; 21479.203719350837 ; 33072.97071863964 ; 583307.1129308143 ; 1389064.770182866 ; 0.0
43 ; 21614.055559846485 ; 33072.97071863964 ; 604786.3166501651 ; 1422137.7409015056 ; 0.0
44 ; 21921.196249903165 ; 33072.97071863964 ; 626400.3722100116 ; 1455210.7116201452 ; 0.0
45 ; 22073.475504495847 ; 33072.97071863964 ; 648321.5684599148 ; 1488283.682338785 ; 0.0
46 ; 22333.396860606703 ; 33072.97071863964 ; 670395.0439644107 ; 1521356.6530574246 ; 0.0
47 ; 22725.556343129072 ; 33072.97071863964 ; 692728.4408250174 ; 1554429.6237760643 ; 0.0
48 ; 22869.05792388814 ; 33072.97071863964 ; 715453.9971681464 ; 1587502.594494704 ; 0.0
49 ; 23105.797939154156 ; 33072.97071863964 ; 738323.0550920345 ; 1620575.5652133436 ; 0.0
50 ; 23176.03321692854 ; 33072.97071863964 ; 761428.8530311887 ; 1653648.5359319833 ; 0.0
51 ; 23484.09841413295 ; 33072.97071863964 ; 784604.8862481173 ; 1686721.506650623 ; 0.0
52 ; 23518.54326631471 ; 33072.97071863964 ; 808088.9846622503 ; 1719794.4773692626 ; 0.0
53 ; 23782.09567671903 ; 33072.97071863964 ; 831607.5279285649 ; 1752867.4480879023 ; 0.0
54 ; 24072.78005701461 ; 33072.97071863964 ; 855389.6236052839 ; 1785940.418806542 ; 0.0
55 ; 24234.658645902127 ; 33072.97071863964 ; 879462.4036622986 ; 1819013.3895251816 ; 0.0
56 ; 24372.11128091644 ; 33072.97071863964 ; 903697.0623082008 ; 1852086.3602438213 ; 0.0
57 ; 24597.582107573977 ; 33072.97071863964 ; 928069.1735891172 ; 1885159.330962461 ; 0.0
58 ; 24521.195195692566 ; 33072.97071863964 ; 952666.7556966912 ; 1918232.3016811006 ; 0.0
59 ; 24748.88083935688 ; 33072.97071863964 ; 977187.9508923838 ; 1951305.2723997403 ; 0.0
60 ; 24931.52874325147 ; 33072.97071863964 ; 1001936.8317317407 ; 1984378.24311838 ; 0.0
61 ; 25035.458032364008 ; 33072.97071863964 ; 1026868.3604749922 ; 2017451.2138370196 ; 0.0
62 ; 25125.751002423374 ; 33072.97071863964 ; 1051903.818507356 ; 2050524.1845556593 ; 0.0
63 ; 25057.13220262224 ; 33072.97071863964 ; 1077029.5695097796 ; 2083597.155274299 ; 0.0
64 ; 25531.404175778178 ; 33072.97071863964 ; 1102086.7017124018 ; 2116670.1259929384 ; 0.0
65 ; 25548.063927084808 ; 33072.97071863964 ; 1127618.10588818 ; 2149743.096711578 ; 0.0
66 ; 25663.728249637974 ; 33072.97071863964 ; 1153166.1698152649 ; 2182816.0674302173 ; 0.0
67 ; 25731.22212434671 ; 33072.97071863964 ; 1178829.8980649028 ; 2215889.0381488567 ; 0.0
68 ; 25913.261656830586 ; 33072.97071863964 ; 1204561.1201892495 ; 2248962.008867496 ; 0.0
69 ; 26146.261933626283 ; 33072.97071863964 ; 1230474.38184608 ; 2282034.9795861356 ; 0.0
70 ; 26062.221227095102 ; 33072.97071863964 ; 1256620.6437797064 ; 2315107.950304775 ; 0.0
71 ; 26166.780585494136 ; 33072.97071863964 ; 1282682.8650068014 ; 2348180.9210234145 ; 0.0
72 ; 26163.227226911797 ; 33072.97071863964 ; 1308849.6455922956 ; 2381253.891742054 ; 0.0
73 ; 26373.979640446134 ; 33072.97071863964 ; 1335012.8728192074 ; 2414326.8624606933 ; 0.0
74 ; 26494.4968822491 ; 33072.97071863964 ; 1361386.8524596535 ; 2447399.833179333 ; 0.0
75 ; 26403.58441639816 ; 33072.97071863964 ; 1387881.3493419026 ; 2480472.803897972 ; 0.0
76 ; 26362.915327691822 ; 33072.97071863964 ; 1414284.9337583007 ; 2513545.7746166117 ; 0.0
77 ; 26450.434765164147 ; 33072.97071863964 ; 1440647.8490859927 ; 2546618.745335251 ; 0.0
78 ; 26300.354340728554 ; 33072.97071863964 ; 1467098.2838511567 ; 2579691.7160538905 ; 0.0
79 ; 26517.63378497528 ; 33072.97071863964 ; 1493398.6381918853 ; 2612764.68677253 ; 0.0
80 ; 26399.884396069705 ; 33072.97071863964 ; 1519916.2719768607 ; 2645837.6574911694 ; 0.0
81 ; 26508.877652154966 ; 33072.97071863964 ; 1546316.1563729304 ; 2678910.628209809 ; 0.0
82 ; 26588.937840616065 ; 33072.97071863964 ; 1572825.0340250854 ; 2711983.5989284483 ; 0.0
83 ; 26490.13412352067 ; 33072.97071863964 ; 1599413.9718657015 ; 2745056.5696470877 ; 0.0
84 ; 26395.042533235446 ; 33072.97071863964 ; 1625904.1059892222 ; 2778129.540365727 ; 0.0
85 ; 26561.418819749895 ; 33072.97071863964 ; 1652299.1485224576 ; 2811202.5110843666 ; 0.0
86 ; 26585.15541955072 ; 33072.97071863964 ; 1678860.5673422075 ; 2844275.481803006 ; 0.0
87 ; 26493.80755062404 ; 33072.97071863964 ; 1705445.7227617581 ; 2877348.4525216455 ; 0.0
88 ; 26431.80393820197 ; 33072.97071863964 ; 1731939.5303123822 ; 2910421.423240285 ; 0.0
89 ; 26536.83919342727 ; 33072.97071863964 ; 1758371.334250584 ; 2943494.3939589243 ; 0.0
90 ; 26290.159277493105 ; 33072.97071863964 ; 1784908.1734440112 ; 2976567.364677564 ; 0.0
91 ; 26436.668174962677 ; 33072.97071863964 ; 1811198.3327215044 ; 3009640.335396203 ; 0.0
92 ; 26414.134283245756 ; 33072.97071863964 ; 1837635.0008964671 ; 3042713.3061148426 ; 0.0
93 ; 26066.96328111447 ; 33072.97071863964 ; 1864049.135179713 ; 3075786.276833482 ; 0.0
94 ; 26170.697236440734 ; 33072.97071863964 ; 1890116.0984608275 ; 3108859.2475521215 ; 0.0
95 ; 25993.603514610248 ; 33072.97071863964 ; 1916286.7956972683 ; 3141932.218270761 ; 0.0
96 ; 26048.19449891133 ; 33072.97071863964 ; 1942280.3992118787 ; 3175005.1889894004 ; 0.0
97 ; 25804.78406483582 ; 33072.97071863964 ; 1968328.59371079 ; 3208078.15970804 ; 0.0
98 ; 25724.304917930313 ; 33072.97071863964 ; 1994133.3777756258 ; 3241151.1304266793 ; 0.0
99 ; 25647.940463106515 ; 33072.97071863964 ; 2019857.6826935562 ; 3274224.1011453187 ; 0.0
100 ; 25625.920952589484 ; 33072.97071863964 ; 2045505.6231566628 ; 3307297.071863958 ; 0.0
101 ; 25486.761647068437 ; 33072.97071863964 ; 2071131.5441092523 ; 3340370.0425825976 ; 0.0
102 ; 25510.82168062021 ; 33072.97071863964 ; 2096618.3057563207 ; 3373443.013301237 ; 0.0
103 ; 25255.290924627683 ; 33072.97071863964 ; 2122129.127436941 ; 3406515.9840198765 ; 0.0
104 ; 25067.76086047703 ; 33072.97071863964 ; 2147384.418361569 ; 3439588.954738516 ; 0.0
105 ; 24986.703489485513 ; 33072.97071863964 ; 2172452.179222046 ; 3472661.9254571553 ; 0.0
106 ; 24805.03866854589 ; 33072.97071863964 ; 2197438.8827115316 ; 3505734.896175795 ; 0.0
107 ; 24628.034775738626 ; 33072.97071863964 ; 2222243.9213800775 ; 3538807.866894434 ; 0.0
108 ; 24584.909499497277 ; 33072.97071863964 ; 2246871.956155816 ; 3571880.8376130736 ; 0.0
109 ; 24403.241727460925 ; 33072.97071863964 ; 2271456.8656553132 ; 3604953.808331713 ; 0.0
110 ; 24092.948756206177 ; 33072.97071863964 ; 2295860.1073827744 ; 3638026.7790503525 ; 0.0
111 ; 23953.503157259205 ; 33072.97071863964 ; 2319953.0561389807 ; 3671099.749768992 ; 0.0
112 ; 23763.159212943036 ; 33072.97071863964 ; 2343906.55929624 ; 3704172.7204876314 ; 0.0
113 ; 23661.01437567962 ; 33072.97071863964 ; 2367669.7185091833 ; 3737245.691206271 ; 0.0
114 ; 23493.040041398657 ; 33072.97071863964 ; 2391330.732884863 ; 3770318.6619249103 ; 0.0
115 ; 23415.457378349944 ; 33072.97071863964 ; 2414823.7729262616 ; 3803391.6326435497 ; 0.0
116 ; 23066.617065577142 ; 33072.97071863964 ; 2438239.2303046114 ; 3836464.603362189 ; 0.0
117 ; 22703.682604242687 ; 33072.97071863964 ; 2461305.8473701887 ; 3869537.5740808286 ; 0.0
118 ; 22444.420542991862 ; 33072.97071863964 ; 2484009.5299744313 ; 3902610.544799468 ; 0.0
119 ; 22294.778973382974 ; 33072.97071863964 ; 2506453.950517423 ; 3935683.5155181075 ; 0.0
120 ; 22231.39262844761 ; 33072.97071863964 ; 2528748.729490806 ; 3968756.486236747 ; 0.0
121 ; 21951.833334884283 ; 33072.97071863964 ; 2550980.1221192535 ; 4001829.4569553863 ; 0.0
122 ; 21584.820466658533 ; 33072.97071863964 ; 2572931.9554541376 ; 4034902.4276740258 ; 0.0
123 ; 21478.874092399623 ; 33072.97071863964 ; 2594516.775920796 ; 4067975.398392665 ; 0.0
124 ; 21015.74926365485 ; 33072.97071863964 ; 2615995.650013196 ; 4101048.3691113046 ; 0.0
125 ; 20910.485354813023 ; 33072.97071863964 ; 2637011.3992768507 ; 4134121.339829944 ; 0.0
126 ; 20716.82332840128 ; 33072.97071863964 ; 2657921.8846316636 ; 4167194.3105485835 ; 0.0
127 ; 20197.98488327694 ; 33072.97071863964 ; 2678638.707960065 ; 4200267.281267223 ; 0.0
128 ; 19933.04041570211 ; 33072.97071863964 ; 2698836.6928433417 ; 4233340.251985863 ; 0.0
129 ; 19741.640270573236 ; 33072.97071863964 ; 2718769.7332590437 ; 4266413.222704503 ; 0.0
130 ; 19163.15728899725 ; 33072.97071863964 ; 2738511.3735296167 ; 4299486.193423143 ; 0.0
131 ; 19234.803183373144 ; 33072.97071863964 ; 2757674.530818614 ; 4332559.164141783 ; 0.0
132 ; 18948.141819578923 ; 33072.97071863964 ; 2776909.3340019872 ; 4365632.134860422 ; 0.0
133 ; 18481.860201067386 ; 33072.97071863964 ; 2795857.4758215663 ; 4398705.105579062 ; 0.0
134 ; 18215.63188660659 ; 33072.97071863964 ; 2814339.3360226336 ; 4431778.076297702 ; 0.0
135 ; 17947.909599058807 ; 33072.97071863964 ; 2832554.96790924 ; 4464851.047016342 ; 0.0
136 ; 17359.25344315981 ; 33072.97071863964 ; 2850502.877508299 ; 4497924.017734982 ; 0.0
137 ; 17024.681186524063 ; 33072.97071863964 ; 2867862.1309514586 ; 4530996.988453622 ; 0.0
138 ; 16657.0014922951 ; 33072.97071863964 ; 2884886.812137983 ; 4564069.959172262 ; 0.0
139 ; 16278.9364721901 ; 33072.97071863964 ; 2901543.8136302778 ; 4597142.929890902 ; 0.0
140 ; 16193.311692022527 ; 33072.97071863964 ; 2917822.750102468 ; 4630215.900609542 ; 0.0
141 ; 15746.586097516281 ; 33072.97071863964 ; 2934016.0617944906 ; 4663288.871328182 ; 0.0
142 ; 15395.681167421717 ; 33072.97071863964 ; 2949762.6478920067 ; 4696361.8420468215 ; 0.0
143 ; 15108.79394509199 ; 33072.97071863964 ; 2965158.3290594285 ; 4729434.812765461 ; 0.0
144 ; 14514.551151518748 ; 33072.97071863964 ; 2980267.1230045203 ; 4762507.783484101 ; 0.0
145 ; 14441.018476036494 ; 33072.97071863964 ; 2994781.674156039 ; 4795580.754202741 ; 0.0
146 ; 14350.578892346915 ; 33072.97071863964 ; 3009222.6926320754 ; 4828653.724921381 ; 0.0
147 ; 14196.06115463246 ; 33072.97071863964 ; 3023573.2715244223 ; 4861726.695640021 ; 0.0
148 ; 14197.289660517437 ; 33072.97071863964 ; 3037769.3326790547 ; 4894799.666358661 ; 0.0
149 ; 14172.66892751112 ; 33072.97071863964 ; 3051966.6223395723 ; 4927872.637077301 ; 0.0
150 ; 14012.293923359102 ; 33072.97071863964 ; 3066139.2912670835 ; 4960945.607795941 ; 0.0
151 ; 13771.365619717757 ; 33072.97071863964 ; 3080151.5851904424 ; 4994018.578514581 ; 0.0
152 ; 13645.471062823832 ; 33072.97071863964 ; 3093922.95081016 ; 5027091.5492332205 ; 0.0
153 ; 13557.674526427361 ; 33072.97071863964 ; 3107568.4218729837 ; 5060164.51995186 ; 0.0
154 ; 13533.871720746822 ; 33072.97071863964 ; 3121126.096399411 ; 5093237.4906705 ; 0.0
155 ; 13319.841856255496 ; 33072.97071863964 ; 3134659.9681201577 ; 5126310.46138914 ; 0.0
156 ; 13164.880851196449 ; 33072.97071863964 ; 3147979.8099764134 ; 5159383.43210778 ; 0.0
157 ; 13039.226834534134 ; 33072.97071863964 ; 3161144.69082761 ; 5192456.40282642 ; 0.0
158 ; 13004.571424574533 ; 33072.97071863964 ; 3174183.917662144 ; 5225529.37354506 ; 0.0
159 ; 12582.267448374374 ; 33072.97071863964 ; 3187188.4890867188 ; 5258602.3442637 ; 0.0
160 ; 12435.53747263643 ; 33072.97071863964 ; 3199770.7565350933 ; 5291675.31498234 ; 0.0
161 ; 12485.247501088254 ; 33072.97071863964 ; 3212206.2940077297 ; 5324748.28570098 ; 0.0
162 ; 12420.459488205875 ; 33072.97071863964 ; 3224691.541508818 ; 5357821.25641962 ; 0.0
163 ; 12060.746546667664 ; 33072.97071863964 ; 3237112.000997024 ; 5390894.227138259 ; 0.0
164 ; 12037.665435039982 ; 33072.97071863964 ; 3249172.7475436917 ; 5423967.197856899 ; 0.0
165 ; 11749.190141784515 ; 33072.97071863964 ; 3261210.4129787316 ; 5457040.168575539 ; 0.0
166 ; 11748.709012298801 ; 33072.97071863964 ; 3272959.603120516 ; 5490113.139294179 ; 0.0
167 ; 11628.763225966468 ; 33072.97071863964 ; 3284708.312132815 ; 5523186.110012819 ; 0.0
168 ; 11181.21486945515 ; 33072.97071863964 ; 3296337.0753587815 ; 5556259.080731459 ; 0.0
169 ; 11212.67683513825 ; 33072.97071863964 ; 3307518.2902282365 ; 5589332.051450099 ; 0.0
170 ; 11147.922070099034 ; 33072.97071863964 ; 3318730.967063375 ; 5622405.022168739 ; 0.0
171 ; 11091.848385086316 ; 33072.97071863964 ; 3329878.889133474 ; 5655477.992887379 ; 0.0
172 ; 10676.994121471032 ; 33072.97071863964 ; 3340970.73751856 ; 5688550.963606019 ; 0.0
173 ; 10665.51746737937 ; 33072.97071863964 ; 3351647.731640031 ; 5721623.9343246585 ; 0.0
174 ; 10600.5955428985 ; 33072.97071863964 ; 3362313.2491074107 ; 5754696.905043298 ; 0.0
175 ; 10580.252489807548 ; 33072.97071863964 ; 3372913.844650309 ; 5787769.875761938 ; 0.0
176 ; 10713.35657175419 ; 33072.97071863964 ; 3383494.0971401166 ; 5820842.846480578 ; 0.0
177 ; 10829.967107091943 ; 33072.97071863964 ; 3394207.4537118706 ; 5853915.817199218 ; 0.0
178 ; 10716.52853239922 ; 33072.97071863964 ; 3405037.4208189626 ; 5886988.787917858 ; 0.0
179 ; 10997.26172330491 ; 33072.97071863964 ; 3415753.949351362 ; 5920061.758636498 ; 0.0
180 ; 11038.393401850844 ; 33072.97071863964 ; 3426751.211074667 ; 5953134.729355138 ; 0.0
181 ; 10843.51105088371 ; 33072.97071863964 ; 3437789.604476518 ; 5986207.700073778 ; 0.0
182 ; 10909.644559271992 ; 33072.97071863964 ; 3448633.1155274017 ; 6019280.670792418 ; 0.0
183 ; 10979.445369190904 ; 33072.97071863964 ; 3459542.760086674 ; 6052353.6415110575 ; 0.0
184 ; 10896.213709716396 ; 33072.97071863964 ; 3470522.205455865 ; 6085426.612229697 ; 0.0
185 ; 11137.388561975893 ; 33072.97071863964 ; 3481418.419165581 ; 6118499.582948337 ; 0.0
186 ; 11003.071132561883 ; 33072.97071863964 ; 3492555.8077275567 ; 6151572.553666977 ; 0.0
187 ; 11056.403085181428 ; 33072.97071863964 ; 3503558.8788601183 ; 6184645.524385617 ; 0.0
188 ; 11224.656808378662 ; 33072.97071863964 ; 3514615.2819453 ; 6217718.495104257 ; 0.0
189 ; 11104.40398970499 ; 33072.97071863964 ; 3525839.9387536785 ; 6250791.465822897 ; 0.0
190 ; 11319.111589295078 ; 33072.97071863964 ; 3536944.3427433833 ; 6283864.436541537 ; 0.0
191 ; 11257.823052808057 ; 33072.97071863964 ; 3548263.454332678 ; 6316937.407260177 ; 0.0
192 ; 11255.614688910327 ; 33072.97071863964 ; 3559521.2773854863 ; 6350010.377978817 ; 0.0
193 ; 11419.759295371347 ; 33072.97071863964 ; 3570776.892074397 ; 6383083.3486974565 ; 0.0
194 ; 11242.115946221356 ; 33072.97071863964 ; 3582196.651369768 ; 6416156.319416096 ; 0.0
195 ; 11362.46514709149 ; 33072.97071863964 ; 3593438.7673159894 ; 6449229.290134736 ; 0.0
196 ; 11556.231245147077 ; 33072.97071863964 ; 3604801.232463081 ; 6482302.260853376 ; 0.0
197 ; 11280.09377240441 ; 33072.97071863964 ; 3616357.463708228 ; 6515375.231572016 ; 0.0
198 ; 11362.747719796673 ; 33072.97071863964 ; 3627637.5574806323 ; 6548448.202290656 ; 0.0
199 ; 11450.553341301043 ; 33072.97071863964 ; 3639000.305200429 ; 6581521.173009296 ; 0.0
200 ; 11530.330723507384 ; 33072.97071863964 ; 3650450.8585417303 ; 6614594.143727936 ; 0.0
201 ; 11511.175937935992 ; 33072.97071863964 ; 3661981.1892652377 ; 6647667.114446576 ; 0.0
202 ; 11548.3753139891 ; 33072.97071863964 ; 3673492.365203174 ; 6680740.085165216 ; 0.0
203 ; 11586.799452701345 ; 33072.97071863964 ; 3685040.7405171627 ; 6713813.055883856 ; 0.0
204 ; 11793.273697074308 ; 33072.97071863964 ; 3696627.539969864 ; 6746886.026602495 ; 0.0
205 ; 11789.294446002039 ; 33072.97071863964 ; 3708420.8136669383 ; 6779958.997321135 ; 0.0
206 ; 11712.531011928164 ; 33072.97071863964 ; 3720210.1081129406 ; 6813031.968039775 ; 0.0
207 ; 11849.04477554509 ; 33072.97071863964 ; 3731922.639124869 ; 6846104.938758415 ; 0.0
208 ; 11830.720963851087 ; 33072.97071863964 ; 3743771.683900414 ; 6879177.909477055 ; 0.0
209 ; 11867.028955040878 ; 33072.97071863964 ; 3755602.404864265 ; 6912250.880195695 ; 0.0
210 ; 11824.274086341013 ; 33072.97071863964 ; 3767469.433819306 ; 6945323.850914335 ; 0.0
211 ; 12058.400710032758 ; 33072.97071863964 ; 3779293.707905647 ; 6978396.821632975 ; 0.0
212 ; 11934.848782334035 ; 33072.97071863964 ; 3791352.1086156797 ; 7011469.792351615 ; 0.0
213 ; 11866.746313140271 ; 33072.97071863964 ; 3803286.9573980137 ; 7044542.763070255 ; 0.0
214 ; 11978.627652556217 ; 33072.97071863964 ; 3815153.703711154 ; 7077615.7337888945 ; 0.0
215 ; 11902.403396987806 ; 33072.97071863964 ; 3827132.33136371 ; 7110688.704507534 ; 0.0
216 ; 12281.026626895213 ; 33072.97071863964 ; 3839034.734760698 ; 7143761.675226174 ; 0.0
