CSV File for the City 1 on Day 132
1 - Minute m 
2 - Power Consumed at minute m 
3 - Power Produced at minute m 
4 - Energy Consumed since the beginning of the day 
5 - Energy Produced since the beginning of the day 
6 - Energy Lost since the beginning of the day on lines starting from the city
 
0 ; 10559.89053029292 ; 13723.498806604232 ; 0.0 ; 0.0 ; 0.0
1 ; 11127.427198730089 ; 13723.498806604232 ; 10559.89053029292 ; 13723.498806604232 ; 238.00000000000003
2 ; 11390.691241376986 ; 13723.498806604232 ; 21687.31772902301 ; 27446.997613208463 ; 476.00000000000006
3 ; 11660.030737288756 ; 13723.498806604232 ; 33078.0089704 ; 41170.4964198127 ; 714.0000000000001
4 ; 12193.708763687227 ; 13723.498806604232 ; 44738.03970768875 ; 54893.995226416926 ; 952.0000000000001
5 ; 12698.843958782196 ; 13723.498806604232 ; 56931.74847137598 ; 68617.49403302115 ; 1190.0000000000002
6 ; 12926.26383854076 ; 13723.498806604232 ; 69630.59243015817 ; 82340.99283962538 ; 1428.0000000000002
7 ; 13415.417389311093 ; 13723.498806604232 ; 82556.85626869893 ; 96064.49164622961 ; 1666.0000000000002
8 ; 13725.241922073057 ; 13723.498806604232 ; 95972.27365801003 ; 109787.99045283384 ; 1904.0000000000002
9 ; 14161.423060151157 ; 13723.498806604232 ; 109697.51558008308 ; 123511.48925943807 ; 2142.0000000000005
10 ; 14415.517177381957 ; 13723.498806604232 ; 123858.93864023424 ; 137234.9880660423 ; 2380.0000000000005
11 ; 14849.321358593146 ; 13723.498806604232 ; 138274.4558176162 ; 150958.48687264655 ; 2618.0000000000005
12 ; 15189.184813989381 ; 13723.498806604232 ; 153123.77717620935 ; 164681.9856792508 ; 2856.0000000000005
13 ; 15559.493954100168 ; 13723.498806604232 ; 168312.96199019873 ; 178405.48448585504 ; 3094.0000000000005
14 ; 15871.618554362136 ; 13723.498806604232 ; 183872.4559442989 ; 192128.98329245928 ; 3332.0000000000005
15 ; 16310.706947665718 ; 13723.498806604232 ; 199744.07449866104 ; 205852.48209906352 ; 3570.0000000000005
16 ; 16485.74202116024 ; 13723.498806604232 ; 216054.78144632676 ; 219575.98090566776 ; 3808.0000000000005
17 ; 16945.694849952808 ; 13723.498806604232 ; 232540.523467487 ; 233299.479712272 ; 4046.0000000000005
18 ; 17066.628924415178 ; 13723.498806604232 ; 249486.21831743978 ; 247022.97851887625 ; 4284.000000000001
19 ; 17489.46769781708 ; 13723.498806604232 ; 266552.84724185494 ; 260746.4773254805 ; 4522.000000000001
20 ; 17822.53541390831 ; 13723.498806604232 ; 284042.314939672 ; 274469.97613208473 ; 4760.000000000001
21 ; 18007.897696537337 ; 13723.498806604232 ; 301864.8503535803 ; 288193.474938689 ; 4998.000000000001
22 ; 18310.890498754274 ; 13723.498806604232 ; 319872.74805011763 ; 301916.9737452932 ; 5236.000000000001
23 ; 18824.38881364286 ; 13723.498806604232 ; 338183.6385488719 ; 315640.47255189746 ; 5474.000000000001
24 ; 19034.81655938249 ; 13723.498806604232 ; 357008.02736251475 ; 329363.9713585017 ; 5712.000000000001
25 ; 19351.262238234765 ; 13723.498806604232 ; 376042.84392189723 ; 343087.47016510594 ; 5950.000000000001
26 ; 19435.874805843538 ; 13723.498806604232 ; 395394.106160132 ; 356810.9689717102 ; 6188.000000000001
27 ; 19795.58332148702 ; 13723.498806604232 ; 414829.9809659755 ; 370534.4677783144 ; 6426.000000000001
28 ; 19974.40096015237 ; 13723.498806604232 ; 434625.5642874625 ; 384257.9665849187 ; 6664.000000000001
29 ; 20442.833103158762 ; 13723.498806604232 ; 454599.9652476149 ; 397981.4653915229 ; 6902.000000000001
30 ; 20502.748396499792 ; 13723.498806604232 ; 475042.79835077364 ; 411704.96419812716 ; 7140.000000000001
31 ; 20809.800832167457 ; 13723.498806604232 ; 495545.5467472734 ; 425428.4630047314 ; 7378.000000000001
32 ; 20913.241860437414 ; 13723.498806604232 ; 516355.34757944086 ; 439151.96181133564 ; 7616.000000000001
33 ; 21411.197052764735 ; 13723.498806604232 ; 537268.5894398782 ; 452875.4606179399 ; 7854.000000000001
34 ; 21450.180181125037 ; 13723.498806604232 ; 558679.786492643 ; 466598.9594245441 ; 8092.000000000001
35 ; 21768.001514658892 ; 13723.498806604232 ; 580129.966673768 ; 480322.45823114837 ; 8330.000000000002
36 ; 21808.84407278987 ; 13723.498806604232 ; 601897.9681884269 ; 494045.9570377526 ; 8568.000000000002
37 ; 22248.350819591786 ; 13723.498806604232 ; 623706.8122612168 ; 507769.45584435685 ; 8806.000000000002
38 ; 22505.462433841498 ; 13723.498806604232 ; 645955.1630808086 ; 521492.9546509611 ; 9044.000000000002
39 ; 22555.612158870805 ; 13723.498806604232 ; 668460.6255146501 ; 535216.4534575653 ; 9282.000000000002
40 ; 22794.28174603849 ; 13723.498806604232 ; 691016.2376735209 ; 548939.9522641695 ; 9520.000000000002
41 ; 23007.5958280221 ; 13723.498806604232 ; 713810.5194195594 ; 562663.4510707736 ; 9758.000000000002
42 ; 23288.81450600112 ; 13723.498806604232 ; 736818.1152475815 ; 576386.9498773778 ; 9996.000000000002
43 ; 23505.766722168508 ; 13723.498806604232 ; 760106.9297535826 ; 590110.448683982 ; 10234.000000000002
44 ; 23539.266780179125 ; 13723.498806604232 ; 783612.6964757511 ; 603833.9474905862 ; 10472.000000000002
45 ; 23745.298428590202 ; 13723.498806604232 ; 807151.9632559302 ; 617557.4462971904 ; 10710.000000000002
46 ; 24066.55873845278 ; 13723.498806604232 ; 830897.2616845204 ; 631280.9451037946 ; 10948.000000000002
47 ; 24168.280319659156 ; 13723.498806604232 ; 854963.8204229731 ; 645004.4439103988 ; 11186.000000000002
48 ; 24218.035766619472 ; 13723.498806604232 ; 879132.1007426323 ; 658727.9427170029 ; 11424.000000000002
49 ; 24736.594492139746 ; 13723.498806604232 ; 903350.1365092518 ; 672451.4415236071 ; 11662.000000000002
50 ; 24675.406902354545 ; 13723.498806604232 ; 928086.7310013915 ; 686174.9403302113 ; 11900.000000000002
51 ; 25000.185815485143 ; 13723.498806604232 ; 952762.1379037461 ; 699898.4391368155 ; 12138.000000000002
52 ; 24955.966837802953 ; 13723.498806604232 ; 977762.3237192313 ; 713621.9379434197 ; 12376.000000000002
53 ; 24935.5835069231 ; 13723.498806604232 ; 1002718.2905570342 ; 727345.4367500239 ; 12614.000000000002
54 ; 25312.46707494721 ; 13723.498806604232 ; 1027653.8740639572 ; 741068.935556628 ; 12852.000000000002
55 ; 25363.381264655407 ; 13723.498806604232 ; 1052966.3411389044 ; 754792.4343632322 ; 13090.000000000002
56 ; 25694.092423352577 ; 13723.498806604232 ; 1078329.7224035598 ; 768515.9331698364 ; 13328.000000000002
57 ; 25544.01309873614 ; 13723.498806604232 ; 1104023.8148269125 ; 782239.4319764406 ; 13566.000000000002
58 ; 25723.85450104374 ; 13723.498806604232 ; 1129567.8279256485 ; 795962.9307830448 ; 13804.000000000002
59 ; 25888.757995388183 ; 13723.498806604232 ; 1155291.6824266922 ; 809686.429589649 ; 14042.000000000002
60 ; 25977.4859138593 ; 13723.498806604232 ; 1181180.4404220805 ; 823409.9283962531 ; 14280.000000000002
61 ; 25934.122835518036 ; 13723.498806604232 ; 1207157.9263359397 ; 837133.4272028573 ; 14518.000000000002
62 ; 25989.057272362377 ; 13723.498806604232 ; 1233092.0491714578 ; 850856.9260094615 ; 14756.000000000002
63 ; 26228.726940895747 ; 13723.498806604232 ; 1259081.10644382 ; 864580.4248160657 ; 14994.000000000002
64 ; 26380.26869860704 ; 13723.498806604232 ; 1285309.8333847157 ; 878303.9236226699 ; 15232.000000000002
65 ; 26601.25550475685 ; 13723.498806604232 ; 1311690.1020833228 ; 892027.4224292741 ; 15470.000000000002
66 ; 26581.875026795577 ; 13723.498806604232 ; 1338291.3575880798 ; 905750.9212358783 ; 15708.000000000002
67 ; 26730.08887004586 ; 13723.498806604232 ; 1364873.2326148753 ; 919474.4200424824 ; 15946.000000000002
68 ; 26693.57105419433 ; 13723.498806604232 ; 1391603.3214849213 ; 933197.9188490866 ; 16184.000000000002
69 ; 26729.850902257615 ; 13723.498806604232 ; 1418296.8925391156 ; 946921.4176556908 ; 16422.000000000004
70 ; 26698.700858321554 ; 13723.498806604232 ; 1445026.7434413733 ; 960644.916462295 ; 16660.000000000004
71 ; 27027.749500803213 ; 13723.498806604232 ; 1471725.4442996948 ; 974368.4152688992 ; 16898.000000000004
72 ; 26809.30191972049 ; 13723.498806604232 ; 1498753.193800498 ; 988091.9140755034 ; 17136.000000000004
73 ; 26885.169949485782 ; 13723.498806604232 ; 1525562.4957202186 ; 1001815.4128821075 ; 17374.000000000004
74 ; 27037.83264880422 ; 13723.498806604232 ; 1552447.6656697043 ; 1015538.9116887117 ; 17612.000000000004
75 ; 27157.210024730288 ; 13723.498806604232 ; 1579485.4983185085 ; 1029262.4104953159 ; 17850.000000000004
76 ; 26899.38987302054 ; 13723.498806604232 ; 1606642.7083432388 ; 1042985.9093019201 ; 18088.000000000004
77 ; 26861.023805311313 ; 13723.498806604232 ; 1633542.0982162594 ; 1056709.4081085243 ; 18326.000000000004
78 ; 27128.241036664756 ; 13723.498806604232 ; 1660403.1220215708 ; 1070432.9069151285 ; 18564.000000000004
79 ; 27071.61186999294 ; 13723.498806604232 ; 1687531.3630582355 ; 1084156.4057217326 ; 18802.000000000004
80 ; 27075.242646726332 ; 13723.498806604232 ; 1714602.9749282284 ; 1097879.9045283368 ; 19040.000000000004
81 ; 26936.74975800281 ; 13723.498806604232 ; 1741678.2175749547 ; 1111603.403334941 ; 19278.000000000004
82 ; 27038.1882456371 ; 13723.498806604232 ; 1768614.9673329575 ; 1125326.9021415452 ; 19516.000000000004
83 ; 27014.071639321584 ; 13723.498806604232 ; 1795653.1555785947 ; 1139050.4009481494 ; 19754.000000000004
84 ; 26923.99165291238 ; 13723.498806604232 ; 1822667.2272179162 ; 1152773.8997547536 ; 19992.000000000004
85 ; 26812.95562247946 ; 13723.498806604232 ; 1849591.2188708286 ; 1166497.3985613578 ; 20230.000000000004
86 ; 27065.954263268723 ; 13723.498806604232 ; 1876404.1744933082 ; 1180220.897367962 ; 20468.000000000004
87 ; 26992.123121530174 ; 13723.498806604232 ; 1903470.128756577 ; 1193944.3961745661 ; 20706.000000000004
88 ; 26888.448847123986 ; 13723.498806604232 ; 1930462.2518781072 ; 1207667.8949811703 ; 20944.000000000004
89 ; 26785.144082073464 ; 13723.498806604232 ; 1957350.700725231 ; 1221391.3937877745 ; 21182.000000000004
90 ; 26859.859698376757 ; 13723.498806604232 ; 1984135.8448073044 ; 1235114.8925943787 ; 21420.000000000004
91 ; 26898.008102927473 ; 13723.498806604232 ; 2010995.7045056813 ; 1248838.3914009829 ; 21658.000000000004
92 ; 26783.453603489223 ; 13723.498806604232 ; 2037893.7126086089 ; 1262561.890207587 ; 21896.000000000004
93 ; 26874.49725401579 ; 13723.498806604232 ; 2064677.1662120982 ; 1276285.3890141912 ; 22134.000000000004
94 ; 26551.74393166655 ; 13723.498806604232 ; 2091551.663466114 ; 1290008.8878207954 ; 22372.000000000004
95 ; 26347.11211231293 ; 13723.498806604232 ; 2118103.4073977806 ; 1303732.3866273996 ; 22610.000000000004
96 ; 26325.814836324247 ; 13723.498806604232 ; 2144450.5195100936 ; 1317455.8854340038 ; 22848.000000000004
97 ; 26297.096251236893 ; 13723.498806604232 ; 2170776.334346418 ; 1331179.384240608 ; 23086.000000000004
98 ; 26272.51468076114 ; 13723.498806604232 ; 2197073.4305976545 ; 1344902.8830472121 ; 23324.000000000004
99 ; 26158.76293738023 ; 13723.498806604232 ; 2223345.9452784155 ; 1358626.3818538163 ; 23562.000000000004
100 ; 25970.33043849503 ; 13723.498806604232 ; 2249504.7082157955 ; 1372349.8806604205 ; 23800.000000000004
101 ; 26073.75982927192 ; 13723.498806604232 ; 2275475.0386542906 ; 1386073.3794670247 ; 24038.000000000004
102 ; 25804.7010884566 ; 13723.498806604232 ; 2301548.7984835627 ; 1399796.878273629 ; 24276.000000000004
103 ; 25677.59547903142 ; 13723.498806604232 ; 2327353.499572019 ; 1413520.377080233 ; 24514.000000000004
104 ; 25696.081483311245 ; 13723.498806604232 ; 2353031.0950510507 ; 1427243.8758868373 ; 24752.000000000004
105 ; 25462.490260778683 ; 13723.498806604232 ; 2378727.1765343617 ; 1440967.3746934414 ; 24990.000000000004
106 ; 25313.690516389557 ; 13723.498806604232 ; 2404189.66679514 ; 1454690.8735000456 ; 25228.000000000004
107 ; 25377.243572107192 ; 13723.498806604232 ; 2429503.3573115296 ; 1468414.3723066498 ; 25466.000000000004
108 ; 25109.773487363498 ; 13723.498806604232 ; 2454880.6008836366 ; 1482137.871113254 ; 25704.000000000004
109 ; 24764.662473149365 ; 13723.498806604232 ; 2479990.374371 ; 1495861.3699198582 ; 25942.000000000004
110 ; 24755.120449153757 ; 13723.498806604232 ; 2504755.036844149 ; 1509584.8687264624 ; 26180.000000000004
111 ; 24705.629080380848 ; 13723.498806604232 ; 2529510.157293303 ; 1523308.3675330665 ; 26418.000000000004
112 ; 24552.644536315613 ; 13723.498806604232 ; 2554215.7863736837 ; 1537031.8663396707 ; 26656.000000000004
113 ; 24355.53328829185 ; 13723.498806604232 ; 2578768.430909999 ; 1550755.365146275 ; 26894.000000000004
114 ; 24207.470362086555 ; 13723.498806604232 ; 2603123.964198291 ; 1564478.863952879 ; 27132.000000000004
115 ; 24063.74360371806 ; 13723.498806604232 ; 2627331.4345603776 ; 1578202.3627594833 ; 27370.000000000004
116 ; 23733.49037206352 ; 13723.498806604232 ; 2651395.1781640956 ; 1591925.8615660875 ; 27608.000000000004
117 ; 23637.879711553473 ; 13723.498806604232 ; 2675128.668536159 ; 1605649.3603726916 ; 27846.000000000004
118 ; 23503.129062560725 ; 13723.498806604232 ; 2698766.5482477127 ; 1619372.8591792958 ; 28084.000000000004
119 ; 23255.86412091028 ; 13723.498806604232 ; 2722269.6773102735 ; 1633096.3579859 ; 28322.000000000004
120 ; 23020.204605373157 ; 13723.498806604232 ; 2745525.541431184 ; 1646819.8567925042 ; 28560.000000000004
121 ; 22924.88000485813 ; 13723.498806604232 ; 2768545.746036557 ; 1660543.3555991084 ; 28798.000000000004
122 ; 22581.646717056017 ; 13723.498806604232 ; 2791470.626041415 ; 1674266.8544057126 ; 29036.000000000004
123 ; 22309.37262623147 ; 13723.498806604232 ; 2814052.2727584713 ; 1687990.3532123168 ; 29274.000000000004
124 ; 22164.524281222664 ; 13723.498806604232 ; 2836361.645384703 ; 1701713.852018921 ; 29512.000000000004
125 ; 21935.07396993587 ; 13723.498806604232 ; 2858526.1696659257 ; 1715437.3508255251 ; 29750.000000000004
126 ; 21778.38198951806 ; 13723.498806604232 ; 2880461.2436358617 ; 1729160.8496321293 ; 29988.000000000004
127 ; 21470.973672702392 ; 13723.498806604232 ; 2902239.62562538 ; 1742884.3484387335 ; 30226.000000000004
128 ; 21125.98037556226 ; 13723.498806604232 ; 2923710.5992980823 ; 1756607.8472453377 ; 30464.000000000004
129 ; 21008.518360241025 ; 13723.498806604232 ; 2944836.5796736446 ; 1770331.3460519419 ; 30702.000000000004
130 ; 20773.298675020378 ; 13723.498806604232 ; 2965845.0980338855 ; 1784054.844858546 ; 30940.000000000004
131 ; 20505.265090581925 ; 13723.498806604232 ; 2986618.3967089057 ; 1797778.3436651502 ; 31178.000000000004
132 ; 20117.961026982266 ; 13723.498806604232 ; 3007123.6617994877 ; 1811501.8424717544 ; 31416.000000000004
133 ; 19658.987525579265 ; 13723.498806604232 ; 3027241.62282647 ; 1825225.3412783586 ; 31654.000000000004
134 ; 19552.652396649708 ; 13723.498806604232 ; 3046900.610352049 ; 1838948.8400849628 ; 31892.000000000004
135 ; 19426.720991598417 ; 13723.498806604232 ; 3066453.2627486987 ; 1852672.338891567 ; 32130.000000000004
136 ; 18960.1112828598 ; 13723.498806604232 ; 3085879.983740297 ; 1866395.8376981711 ; 32368.000000000004
137 ; 18868.14394234707 ; 13723.498806604232 ; 3104840.095023157 ; 1880119.3365047753 ; 32606.000000000004
138 ; 18548.209843196742 ; 13723.498806604232 ; 3123708.2389655043 ; 1893842.8353113795 ; 32844.00000000001
139 ; 18149.486203139193 ; 13723.498806604232 ; 3142256.4488087012 ; 1907566.3341179837 ; 33082.00000000001
140 ; 17779.72356667425 ; 13723.498806604232 ; 3160405.9350118404 ; 1921289.832924588 ; 33320.00000000001
141 ; 17636.392495390992 ; 13723.498806604232 ; 3178185.6585785146 ; 1935013.331731192 ; 33558.00000000001
142 ; 17112.790723568563 ; 13723.498806604232 ; 3195822.0510739055 ; 1948736.8305377963 ; 33796.00000000001
143 ; 16889.71882298586 ; 13723.498806604232 ; 3212934.8417974743 ; 1962460.3293444004 ; 34034.00000000001
144 ; 16601.531606667293 ; 13723.498806604232 ; 3229824.56062046 ; 1976183.8281510046 ; 34272.00000000001
145 ; 16571.800729339335 ; 13723.498806604232 ; 3246426.0922271274 ; 1989907.3269576088 ; 34510.00000000001
146 ; 16456.09423223025 ; 13723.498806604232 ; 3262997.892956467 ; 2003630.825764213 ; 34748.00000000001
147 ; 16164.744628458015 ; 13723.498806604232 ; 3279453.9871886973 ; 2017354.3245708172 ; 34986.00000000001
148 ; 16243.11409241178 ; 13723.498806604232 ; 3295618.731817155 ; 2031077.8233774214 ; 35224.00000000001
149 ; 16004.965619617102 ; 13723.498806604232 ; 3311861.845909567 ; 2044801.3221840255 ; 35462.00000000001
150 ; 15813.088146612517 ; 13723.498806604232 ; 3327866.811529184 ; 2058524.8209906297 ; 35700.00000000001
151 ; 15884.231785141254 ; 13723.498806604232 ; 3343679.8996757967 ; 2072248.319797234 ; 35938.00000000001
152 ; 15721.35244085899 ; 13723.498806604232 ; 3359564.131460938 ; 2085971.818603838 ; 36176.00000000001
153 ; 15592.951687132658 ; 13723.498806604232 ; 3375285.4839017973 ; 2099695.3174104425 ; 36414.00000000001
154 ; 15729.093113473951 ; 13723.498806604232 ; 3390878.43558893 ; 2113418.8162170467 ; 36652.00000000001
155 ; 15375.590464246932 ; 13723.498806604232 ; 3406607.528702404 ; 2127142.315023651 ; 36890.00000000001
156 ; 15294.842408291754 ; 13723.498806604232 ; 3421983.119166651 ; 2140865.813830255 ; 37128.00000000001
157 ; 15153.417400543127 ; 13723.498806604232 ; 3437277.9615749423 ; 2154589.3126368592 ; 37366.00000000001
158 ; 14739.842843324966 ; 13723.498806604232 ; 3452431.3789754855 ; 2168312.8114434634 ; 37604.00000000001
159 ; 15099.680489195842 ; 13723.498806604232 ; 3467171.2218188103 ; 2182036.3102500676 ; 37842.00000000001
160 ; 14688.567630793319 ; 13723.498806604232 ; 3482270.9023080063 ; 2195759.809056672 ; 38080.00000000001
161 ; 14525.581083115621 ; 13723.498806604232 ; 3496959.4699387997 ; 2209483.307863276 ; 38318.00000000001
162 ; 14511.368008735126 ; 13723.498806604232 ; 3511485.0510219154 ; 2223206.80666988 ; 38556.00000000001
163 ; 14296.193361121748 ; 13723.498806604232 ; 3525996.4190306505 ; 2236930.3054764844 ; 38794.00000000001
164 ; 14272.760477908138 ; 13723.498806604232 ; 3540292.612391772 ; 2250653.8042830885 ; 39032.00000000001
165 ; 14237.55828114783 ; 13723.498806604232 ; 3554565.37286968 ; 2264377.3030896927 ; 39270.00000000001
166 ; 14047.698580258664 ; 13723.498806604232 ; 3568802.931150828 ; 2278100.801896297 ; 39508.00000000001
167 ; 13953.491280314822 ; 13723.498806604232 ; 3582850.6297310865 ; 2291824.300702901 ; 39746.00000000001
168 ; 13728.064807717908 ; 13723.498806604232 ; 3596804.1210114015 ; 2305547.7995095053 ; 39984.00000000001
169 ; 13707.683585501005 ; 13723.498806604232 ; 3610532.185819119 ; 2319271.2983161095 ; 40222.00000000001
170 ; 13410.684743756801 ; 13723.498806604232 ; 3624239.86940462 ; 2332994.7971227136 ; 40460.00000000001
171 ; 13264.547960018477 ; 13723.498806604232 ; 3637650.554148377 ; 2346718.295929318 ; 40698.00000000001
172 ; 13230.365971793206 ; 13723.498806604232 ; 3650915.102108395 ; 2360441.794735922 ; 40936.00000000001
173 ; 13094.565250014259 ; 13723.498806604232 ; 3664145.4680801886 ; 2374165.293542526 ; 41174.00000000001
174 ; 13019.70732382616 ; 13723.498806604232 ; 3677240.033330203 ; 2387888.7923491304 ; 41412.00000000001
175 ; 13016.51109480192 ; 13723.498806604232 ; 3690259.7406540294 ; 2401612.2911557346 ; 41650.00000000001
176 ; 13002.002542888513 ; 13723.498806604232 ; 3703276.2517488315 ; 2415335.7899623387 ; 41888.00000000001
177 ; 13001.986389731763 ; 13723.498806604232 ; 3716278.2542917198 ; 2429059.288768943 ; 42126.00000000001
178 ; 13134.418610717486 ; 13723.498806604232 ; 3729280.2406814517 ; 2442782.787575547 ; 42364.00000000001
179 ; 13172.943883878444 ; 13723.498806604232 ; 3742414.6592921694 ; 2456506.2863821513 ; 42602.00000000001
180 ; 13089.746924936406 ; 13723.498806604232 ; 3755587.603176048 ; 2470229.7851887555 ; 42840.00000000001
181 ; 13210.93477437311 ; 13723.498806604232 ; 3768677.3501009843 ; 2483953.2839953597 ; 43078.00000000001
182 ; 13102.571167156697 ; 13723.498806604232 ; 3781888.2848753575 ; 2497676.782801964 ; 43316.00000000001
183 ; 13253.013784317012 ; 13723.498806604232 ; 3794990.856042514 ; 2511400.281608568 ; 43554.00000000001
184 ; 13254.878642487565 ; 13723.498806604232 ; 3808243.869826831 ; 2525123.780415172 ; 43792.00000000001
