CSV File for the City 2 on Day 288
1 - Minute m 
2 - Power Consumed at minute m 
3 - Power Produced at minute m 
4 - Energy Consumed since the beginning of the day 
5 - Energy Produced since the beginning of the day 
6 - Energy Lost since the beginning of the day on lines starting from the city
 
0 ; 8380.687297165232 ; 28349.699587185984 ; 0.0 ; 0.0 ; 0.0
1 ; 8815.411124762577 ; 28349.699587185984 ; 8380.687297165232 ; 28349.699587185984 ; 0.0
2 ; 9274.037957895414 ; 28349.699587185984 ; 17196.09842192781 ; 56699.39917437197 ; 0.0
3 ; 9502.654726753926 ; 28349.699587185984 ; 26470.136379823227 ; 85049.09876155795 ; 0.0
4 ; 10095.380974987633 ; 28349.699587185984 ; 35972.791106577155 ; 113398.79834874393 ; 0.0
5 ; 10410.247594341487 ; 28349.699587185984 ; 46068.172081564786 ; 141748.49793592992 ; 0.0
6 ; 10635.955081456977 ; 28349.699587185984 ; 56478.419675906276 ; 170098.1975231159 ; 0.0
7 ; 11061.659917251007 ; 28349.699587185984 ; 67114.37475736326 ; 198447.89711030188 ; 0.0
8 ; 11462.1847098329 ; 28349.699587185984 ; 78176.03467461426 ; 226797.59669748787 ; 0.0
9 ; 11828.290682095836 ; 28349.699587185984 ; 89638.21938444716 ; 255147.29628467385 ; 0.0
10 ; 12013.93603836963 ; 28349.699587185984 ; 101466.51006654299 ; 283496.99587185984 ; 0.0
11 ; 12361.072197515323 ; 28349.699587185984 ; 113480.44610491263 ; 311846.6954590458 ; 0.0
12 ; 12688.828326545396 ; 28349.699587185984 ; 125841.51830242795 ; 340196.3950462318 ; 0.0
13 ; 13036.458675232303 ; 28349.699587185984 ; 138530.34662897335 ; 368546.0946334178 ; 0.0
14 ; 13289.280017897101 ; 28349.699587185984 ; 151566.80530420566 ; 396895.79422060377 ; 0.0
15 ; 13755.749567168608 ; 28349.699587185984 ; 164856.08532210276 ; 425245.49380778975 ; 0.0
16 ; 14020.60402153998 ; 28349.699587185984 ; 178611.83488927138 ; 453595.19339497574 ; 0.0
17 ; 14460.806476679181 ; 28349.699587185984 ; 192632.43891081135 ; 481944.8929821617 ; 0.0
18 ; 14685.562604122262 ; 28349.699587185984 ; 207093.24538749055 ; 510294.5925693477 ; 0.0
19 ; 15076.269580179143 ; 28349.699587185984 ; 221778.80799161282 ; 538644.2921565337 ; 0.0
20 ; 15288.46823947028 ; 28349.699587185984 ; 236855.07757179198 ; 566993.9917437197 ; 0.0
21 ; 15532.4972137741 ; 28349.699587185984 ; 252143.54581126224 ; 595343.6913309057 ; 0.0
22 ; 15770.439599164047 ; 28349.699587185984 ; 267676.04302503634 ; 623693.3909180916 ; 0.0
23 ; 16041.63408588543 ; 28349.699587185984 ; 283446.4826242004 ; 652043.0905052776 ; 0.0
24 ; 16397.57358087942 ; 28349.699587185984 ; 299488.11671008583 ; 680392.7900924636 ; 0.0
25 ; 16656.093472909346 ; 28349.699587185984 ; 315885.69029096526 ; 708742.4896796496 ; 0.0
26 ; 16933.12282319187 ; 28349.699587185984 ; 332541.7837638746 ; 737092.1892668356 ; 0.0
27 ; 17025.340452946013 ; 28349.699587185984 ; 349474.9065870665 ; 765441.8888540216 ; 0.0
28 ; 17488.837015330217 ; 28349.699587185984 ; 366500.2470400125 ; 793791.5884412075 ; 0.0
29 ; 17713.35240538517 ; 28349.699587185984 ; 383989.0840553427 ; 822141.2880283935 ; 0.0
30 ; 18009.76459528875 ; 28349.699587185984 ; 401702.4364607279 ; 850490.9876155795 ; 0.0
31 ; 18184.56529899956 ; 28349.699587185984 ; 419712.2010560166 ; 878840.6872027655 ; 0.0
32 ; 18436.36372092052 ; 28349.699587185984 ; 437896.76635501615 ; 907190.3867899515 ; 0.0
33 ; 18628.185357414226 ; 28349.699587185984 ; 456333.1300759367 ; 935540.0863771375 ; 0.0
34 ; 18880.34831474226 ; 28349.699587185984 ; 474961.3154333509 ; 963889.7859643234 ; 0.0
35 ; 19163.543421262486 ; 28349.699587185984 ; 493841.6637480932 ; 992239.4855515094 ; 0.0
36 ; 19556.92222925946 ; 28349.699587185984 ; 513005.20716935565 ; 1020589.1851386954 ; 0.0
37 ; 19527.920121059855 ; 28349.699587185984 ; 532562.1293986151 ; 1048938.8847258813 ; 0.0
38 ; 19643.824046619025 ; 28349.699587185984 ; 552090.049519675 ; 1077288.5843130671 ; 0.0
39 ; 20049.093353245033 ; 28349.699587185984 ; 571733.873566294 ; 1105638.283900253 ; 0.0
40 ; 20148.32343698736 ; 28349.699587185984 ; 591782.966919539 ; 1133987.9834874389 ; 0.0
41 ; 20438.512774818526 ; 28349.699587185984 ; 611931.2903565264 ; 1162337.6830746247 ; 0.0
42 ; 20464.269752073404 ; 28349.699587185984 ; 632369.803131345 ; 1190687.3826618106 ; 0.0
43 ; 20644.115431837236 ; 28349.699587185984 ; 652834.0728834184 ; 1219037.0822489965 ; 0.0
44 ; 20908.28641675974 ; 28349.699587185984 ; 673478.1883152557 ; 1247386.7818361823 ; 0.0
45 ; 21065.521610249627 ; 28349.699587185984 ; 694386.4747320154 ; 1275736.4814233682 ; 0.0
46 ; 21279.064767115236 ; 28349.699587185984 ; 715451.996342265 ; 1304086.181010554 ; 0.0
47 ; 21324.66159460257 ; 28349.699587185984 ; 736731.0611093803 ; 1332435.88059774 ; 0.0
48 ; 21495.68037900317 ; 28349.699587185984 ; 758055.7227039828 ; 1360785.5801849258 ; 0.0
49 ; 21731.694651448277 ; 28349.699587185984 ; 779551.403082986 ; 1389135.2797721117 ; 0.0
50 ; 21943.18340698252 ; 28349.699587185984 ; 801283.0977344343 ; 1417484.9793592975 ; 0.0
51 ; 22012.319668455606 ; 28349.699587185984 ; 823226.2811414169 ; 1445834.6789464834 ; 0.0
52 ; 22111.541142189963 ; 28349.699587185984 ; 845238.6008098725 ; 1474184.3785336693 ; 0.0
53 ; 22431.117025009848 ; 28349.699587185984 ; 867350.1419520625 ; 1502534.0781208551 ; 0.0
54 ; 22479.16749401653 ; 28349.699587185984 ; 889781.2589770723 ; 1530883.777708041 ; 0.0
55 ; 22616.871801826743 ; 28349.699587185984 ; 912260.4264710889 ; 1559233.4772952269 ; 0.0
56 ; 22809.898366201476 ; 28349.699587185984 ; 934877.2982729157 ; 1587583.1768824128 ; 0.0
57 ; 22669.7162898291 ; 28349.699587185984 ; 957687.1966391171 ; 1615932.8764695986 ; 0.0
58 ; 22989.177985669638 ; 28349.699587185984 ; 980356.9129289462 ; 1644282.5760567845 ; 0.0
59 ; 23005.622511938203 ; 28349.699587185984 ; 1003346.0909146159 ; 1672632.2756439704 ; 0.0
60 ; 23131.233787883528 ; 28349.699587185984 ; 1026351.7134265541 ; 1700981.9752311562 ; 0.0
61 ; 23116.16383833558 ; 28349.699587185984 ; 1049482.9472144376 ; 1729331.674818342 ; 0.0
62 ; 23177.17664888782 ; 28349.699587185984 ; 1072599.1110527732 ; 1757681.374405528 ; 0.0
63 ; 23260.412782394265 ; 28349.699587185984 ; 1095776.287701661 ; 1786031.0739927138 ; 0.0
64 ; 23547.671051051486 ; 28349.699587185984 ; 1119036.7004840553 ; 1814380.7735798997 ; 0.0
65 ; 23776.080745935564 ; 28349.699587185984 ; 1142584.3715351068 ; 1842730.4731670856 ; 0.0
66 ; 23570.9837400529 ; 28349.699587185984 ; 1166360.4522810425 ; 1871080.1727542714 ; 0.0
67 ; 23841.1053002684 ; 28349.699587185984 ; 1189931.4360210954 ; 1899429.8723414573 ; 0.0
68 ; 23984.066344310086 ; 28349.699587185984 ; 1213772.5413213638 ; 1927779.5719286432 ; 0.0
69 ; 23771.07361621109 ; 28349.699587185984 ; 1237756.6076656738 ; 1956129.271515829 ; 0.0
70 ; 24148.406616989316 ; 28349.699587185984 ; 1261527.681281885 ; 1984478.971103015 ; 0.0
71 ; 23990.254957425353 ; 28349.699587185984 ; 1285676.0878988742 ; 2012828.6706902008 ; 0.0
72 ; 24055.569443769957 ; 28349.699587185984 ; 1309666.3428562996 ; 2041178.3702773866 ; 0.0
73 ; 24076.857608831215 ; 28349.699587185984 ; 1333721.9123000696 ; 2069528.0698645725 ; 0.0
74 ; 23959.492404012697 ; 28349.699587185984 ; 1357798.7699089008 ; 2097877.7694517584 ; 0.0
75 ; 24154.595787969694 ; 28349.699587185984 ; 1381758.2623129135 ; 2126227.469038944 ; 0.0
76 ; 24202.911580585485 ; 28349.699587185984 ; 1405912.8581008832 ; 2154577.16862613 ; 0.0
77 ; 24072.294094535835 ; 28349.699587185984 ; 1430115.7696814686 ; 2182926.868213316 ; 0.0
78 ; 24167.5915848772 ; 28349.699587185984 ; 1454188.0637760044 ; 2211276.567800502 ; 0.0
79 ; 24414.103159128223 ; 28349.699587185984 ; 1478355.6553608815 ; 2239626.2673876877 ; 0.0
80 ; 24397.4966885377 ; 28349.699587185984 ; 1502769.7585200097 ; 2267975.9669748736 ; 0.0
81 ; 24202.212985996663 ; 28349.699587185984 ; 1527167.2552085475 ; 2296325.6665620594 ; 0.0
82 ; 24252.45722227507 ; 28349.699587185984 ; 1551369.468194544 ; 2324675.3661492453 ; 0.0
83 ; 24118.480754218952 ; 28349.699587185984 ; 1575621.925416819 ; 2353025.065736431 ; 0.0
84 ; 24184.903022786224 ; 28349.699587185984 ; 1599740.406171038 ; 2381374.765323617 ; 0.0
85 ; 24114.119992169883 ; 28349.699587185984 ; 1623925.3091938242 ; 2409724.464910803 ; 0.0
86 ; 24079.61160109201 ; 28349.699587185984 ; 1648039.429185994 ; 2438074.1644979888 ; 0.0
87 ; 24194.996040278933 ; 28349.699587185984 ; 1672119.040787086 ; 2466423.8640851746 ; 0.0
88 ; 24146.768600945008 ; 28349.699587185984 ; 1696314.036827365 ; 2494773.5636723605 ; 0.0
89 ; 24105.840795008426 ; 28349.699587185984 ; 1720460.8054283098 ; 2523123.2632595464 ; 0.0
90 ; 24220.68737837119 ; 28349.699587185984 ; 1744566.6462233183 ; 2551472.962846732 ; 0.0
91 ; 24040.995074654784 ; 28349.699587185984 ; 1768787.3336016894 ; 2579822.662433918 ; 0.0
92 ; 24051.28010949134 ; 28349.699587185984 ; 1792828.3286763441 ; 2608172.362021104 ; 0.0
93 ; 23733.678138115854 ; 28349.699587185984 ; 1816879.6087858356 ; 2636522.06160829 ; 0.0
94 ; 23985.189635988074 ; 28349.699587185984 ; 1840613.2869239515 ; 2664871.7611954757 ; 0.0
95 ; 23943.55678304631 ; 28349.699587185984 ; 1864598.4765599396 ; 2693221.4607826616 ; 0.0
96 ; 23716.679227653443 ; 28349.699587185984 ; 1888542.033342986 ; 2721571.1603698474 ; 0.0
97 ; 23676.852587430145 ; 28349.699587185984 ; 1912258.7125706393 ; 2749920.8599570333 ; 0.0
98 ; 23464.2549406274 ; 28349.699587185984 ; 1935935.5651580694 ; 2778270.559544219 ; 0.0
99 ; 23582.91581038927 ; 28349.699587185984 ; 1959399.8200986967 ; 2806620.259131405 ; 0.0
100 ; 23543.513965380396 ; 28349.699587185984 ; 1982982.735909086 ; 2834969.958718591 ; 0.0
101 ; 23305.395308218798 ; 28349.699587185984 ; 2006526.2498744663 ; 2863319.658305777 ; 0.0
102 ; 23396.909507825065 ; 28349.699587185984 ; 2029831.6451826852 ; 2891669.3578929626 ; 0.0
103 ; 23161.343908007828 ; 28349.699587185984 ; 2053228.5546905103 ; 2920019.0574801485 ; 0.0
104 ; 22929.663086686498 ; 28349.699587185984 ; 2076389.898598518 ; 2948368.7570673344 ; 0.0
105 ; 22817.14090804624 ; 28349.699587185984 ; 2099319.5616852045 ; 2976718.4566545202 ; 0.0
106 ; 22858.918268866102 ; 28349.699587185984 ; 2122136.7025932507 ; 3005068.156241706 ; 0.0
107 ; 22548.230419154712 ; 28349.699587185984 ; 2144995.6208621166 ; 3033417.855828892 ; 0.0
108 ; 22465.0243191328 ; 28349.699587185984 ; 2167543.8512812713 ; 3061767.555416078 ; 0.0
109 ; 22210.07387078124 ; 28349.699587185984 ; 2190008.875600404 ; 3090117.2550032637 ; 0.0
110 ; 22044.103971381348 ; 28349.699587185984 ; 2212218.9494711854 ; 3118466.9545904496 ; 0.0
111 ; 22211.17665378553 ; 28349.699587185984 ; 2234263.0534425667 ; 3146816.6541776354 ; 0.0
112 ; 22025.225005305987 ; 28349.699587185984 ; 2256474.2300963523 ; 3175166.3537648213 ; 0.0
113 ; 21621.087619517155 ; 28349.699587185984 ; 2278499.455101658 ; 3203516.053352007 ; 0.0
114 ; 21689.098637731953 ; 28349.699587185984 ; 2300120.542721175 ; 3231865.752939193 ; 0.0
115 ; 21352.385410947856 ; 28349.699587185984 ; 2321809.641358907 ; 3260215.452526379 ; 0.0
116 ; 21231.16677543534 ; 28349.699587185984 ; 2343162.0267698546 ; 3288565.152113565 ; 0.0
117 ; 20974.589910325736 ; 28349.699587185984 ; 2364393.19354529 ; 3316914.8517007506 ; 0.0
118 ; 20905.22089350795 ; 28349.699587185984 ; 2385367.7834556154 ; 3345264.5512879365 ; 0.0
119 ; 20643.388935932293 ; 28349.699587185984 ; 2406273.004349123 ; 3373614.2508751224 ; 0.0
120 ; 20548.68506111069 ; 28349.699587185984 ; 2426916.3932850556 ; 3401963.9504623082 ; 0.0
121 ; 20320.001494336808 ; 28349.699587185984 ; 2447465.0783461663 ; 3430313.650049494 ; 0.0
122 ; 20139.868987840207 ; 28349.699587185984 ; 2467785.079840503 ; 3458663.34963668 ; 0.0
123 ; 19964.346109719394 ; 28349.699587185984 ; 2487924.9488283433 ; 3487013.049223866 ; 0.0
124 ; 19789.189386098336 ; 28349.699587185984 ; 2507889.294938063 ; 3515362.7488110517 ; 0.0
125 ; 19465.116704693894 ; 28349.699587185984 ; 2527678.484324161 ; 3543712.4483982376 ; 0.0
126 ; 19403.513935447347 ; 28349.699587185984 ; 2547143.601028855 ; 3572062.1479854234 ; 0.0
127 ; 19061.04470488314 ; 28349.699587185984 ; 2566547.114964302 ; 3600411.8475726093 ; 0.0
128 ; 18974.20461324971 ; 28349.699587185984 ; 2585608.1596691855 ; 3628761.547159795 ; 0.0
129 ; 18647.434001935035 ; 28349.699587185984 ; 2604582.3642824353 ; 3657111.246746981 ; 0.0
130 ; 18426.540535037504 ; 28349.699587185984 ; 2623229.7982843705 ; 3685460.946334167 ; 0.0
131 ; 18146.868907477903 ; 28349.699587185984 ; 2641656.338819408 ; 3713810.645921353 ; 0.0
132 ; 17824.255524546275 ; 28349.699587185984 ; 2659803.2077268856 ; 3742160.3455085387 ; 0.0
133 ; 17597.923490212157 ; 28349.699587185984 ; 2677627.463251432 ; 3770510.0450957245 ; 0.0
134 ; 17276.315824853245 ; 28349.699587185984 ; 2695225.3867416442 ; 3798859.7446829104 ; 0.0
135 ; 17044.073662999217 ; 28349.699587185984 ; 2712501.7025664975 ; 3827209.4442700963 ; 0.0
136 ; 16717.714115279083 ; 28349.699587185984 ; 2729545.7762294966 ; 3855559.143857282 ; 0.0
137 ; 16651.27514912085 ; 28349.699587185984 ; 2746263.490344776 ; 3883908.843444468 ; 0.0
138 ; 16356.4652378134 ; 28349.699587185984 ; 2762914.765493897 ; 3912258.543031654 ; 0.0
139 ; 15894.478157705727 ; 28349.699587185984 ; 2779271.2307317103 ; 3940608.2426188397 ; 0.0
140 ; 15795.208292009045 ; 28349.699587185984 ; 2795165.708889416 ; 3968957.9422060256 ; 0.0
141 ; 15382.467574517097 ; 28349.699587185984 ; 2810960.917181425 ; 3997307.6417932115 ; 0.0
142 ; 15226.907381536179 ; 28349.699587185984 ; 2826343.384755942 ; 4025657.3413803973 ; 0.0
143 ; 15016.698731407341 ; 28349.699587185984 ; 2841570.292137478 ; 4054007.040967583 ; 0.0
144 ; 14600.788969670633 ; 28349.699587185984 ; 2856586.9908688855 ; 4082356.740554769 ; 0.0
145 ; 14616.803526200409 ; 28349.699587185984 ; 2871187.779838556 ; 4110706.440141955 ; 0.0
146 ; 14294.853210612775 ; 28349.699587185984 ; 2885804.5833647563 ; 4139056.139729141 ; 0.0
147 ; 14342.57716125227 ; 28349.699587185984 ; 2900099.436575369 ; 4167405.8393163267 ; 0.0
148 ; 14061.580977895721 ; 28349.699587185984 ; 2914442.0137366215 ; 4195755.538903513 ; 0.0
149 ; 14156.811831969093 ; 28349.699587185984 ; 2928503.5947145172 ; 4224105.238490699 ; 0.0
150 ; 14003.206648426503 ; 28349.699587185984 ; 2942660.4065464865 ; 4252454.938077885 ; 0.0
151 ; 13777.860356316072 ; 28349.699587185984 ; 2956663.613194913 ; 4280804.637665071 ; 0.0
152 ; 13731.965715524218 ; 28349.699587185984 ; 2970441.473551229 ; 4309154.337252256 ; 0.0
153 ; 13576.086488191195 ; 28349.699587185984 ; 2984173.4392667534 ; 4337504.036839442 ; 0.0
154 ; 13521.545536899568 ; 28349.699587185984 ; 2997749.5257549444 ; 4365853.736426628 ; 0.0
155 ; 13450.245159047307 ; 28349.699587185984 ; 3011271.071291844 ; 4394203.436013814 ; 0.0
156 ; 13410.13200465194 ; 28349.699587185984 ; 3024721.316450891 ; 4422553.135601 ; 0.0
157 ; 13428.605715841933 ; 28349.699587185984 ; 3038131.4484555433 ; 4450902.835188186 ; 0.0
158 ; 13170.248109594058 ; 28349.699587185984 ; 3051560.0541713852 ; 4479252.534775372 ; 0.0
159 ; 13129.509439881049 ; 28349.699587185984 ; 3064730.302280979 ; 4507602.2343625575 ; 0.0
160 ; 13031.254766433745 ; 28349.699587185984 ; 3077859.81172086 ; 4535951.933949743 ; 0.0
161 ; 12887.966769237035 ; 28349.699587185984 ; 3090891.066487294 ; 4564301.633536929 ; 0.0
162 ; 12680.996226260557 ; 28349.699587185984 ; 3103779.033256531 ; 4592651.333124115 ; 0.0
163 ; 12535.391208186556 ; 28349.699587185984 ; 3116460.0294827917 ; 4621001.032711301 ; 0.0
164 ; 12517.026046812447 ; 28349.699587185984 ; 3128995.4206909784 ; 4649350.732298487 ; 0.0
165 ; 12431.002503468158 ; 28349.699587185984 ; 3141512.446737791 ; 4677700.431885673 ; 0.0
166 ; 12206.733256779298 ; 28349.699587185984 ; 3153943.449241259 ; 4706050.131472859 ; 0.0
167 ; 12184.175138168752 ; 28349.699587185984 ; 3166150.1824980383 ; 4734399.8310600445 ; 0.0
168 ; 11943.458434670527 ; 28349.699587185984 ; 3178334.3576362072 ; 4762749.53064723 ; 0.0
169 ; 11850.099065306144 ; 28349.699587185984 ; 3190277.816070878 ; 4791099.230234416 ; 0.0
170 ; 11733.830469456228 ; 28349.699587185984 ; 3202127.915136184 ; 4819448.929821602 ; 0.0
171 ; 11653.281481606113 ; 28349.699587185984 ; 3213861.74560564 ; 4847798.629408788 ; 0.0
172 ; 11634.565693134295 ; 28349.699587185984 ; 3225515.027087246 ; 4876148.328995974 ; 0.0
173 ; 11456.168513651459 ; 28349.699587185984 ; 3237149.5927803805 ; 4904498.02858316 ; 0.0
174 ; 11609.02080716424 ; 28349.699587185984 ; 3248605.761294032 ; 4932847.728170346 ; 0.0
175 ; 11358.322785241753 ; 28349.699587185984 ; 3260214.7821011962 ; 4961197.427757531 ; 0.0
176 ; 11403.337081167243 ; 28349.699587185984 ; 3271573.1048864378 ; 4989547.127344717 ; 0.0
177 ; 11383.421170900925 ; 28349.699587185984 ; 3282976.441967605 ; 5017896.826931903 ; 0.0
178 ; 11601.006745960123 ; 28349.699587185984 ; 3294359.863138506 ; 5046246.526519089 ; 0.0
179 ; 11409.199293624546 ; 28349.699587185984 ; 3305960.8698844663 ; 5074596.226106275 ; 0.0
180 ; 11619.05501023684 ; 28349.699587185984 ; 3317370.069178091 ; 5102945.925693461 ; 0.0
181 ; 11513.543645084013 ; 28349.699587185984 ; 3328989.1241883277 ; 5131295.625280647 ; 0.0
182 ; 11722.910142986428 ; 28349.699587185984 ; 3340502.6678334116 ; 5159645.3248678325 ; 0.0
183 ; 11648.843892891684 ; 28349.699587185984 ; 3352225.577976398 ; 5187995.024455018 ; 0.0
184 ; 11719.821068770352 ; 28349.699587185984 ; 3363874.42186929 ; 5216344.724042204 ; 0.0
185 ; 11578.850756251502 ; 28349.699587185984 ; 3375594.2429380603 ; 5244694.42362939 ; 0.0
186 ; 11495.996455585919 ; 28349.699587185984 ; 3387173.093694312 ; 5273044.123216576 ; 0.0
187 ; 11665.972309488981 ; 28349.699587185984 ; 3398669.090149898 ; 5301393.822803762 ; 0.0
188 ; 11410.426267591918 ; 28349.699587185984 ; 3410335.062459387 ; 5329743.522390948 ; 0.0
189 ; 11643.889536635998 ; 28349.699587185984 ; 3421745.4887269787 ; 5358093.221978134 ; 0.0
190 ; 11773.438392540556 ; 28349.699587185984 ; 3433389.3782636146 ; 5386442.921565319 ; 0.0
191 ; 11636.280251058946 ; 28349.699587185984 ; 3445162.816656155 ; 5414792.621152505 ; 0.0
192 ; 11636.369718075752 ; 28349.699587185984 ; 3456799.096907214 ; 5443142.320739691 ; 0.0
193 ; 11752.199885161164 ; 28349.699587185984 ; 3468435.4666252895 ; 5471492.020326877 ; 0.0
194 ; 11727.207377605606 ; 28349.699587185984 ; 3480187.6665104507 ; 5499841.719914063 ; 0.0
195 ; 11854.650945425576 ; 28349.699587185984 ; 3491914.8738880563 ; 5528191.419501249 ; 0.0
196 ; 11786.452879856633 ; 28349.699587185984 ; 3503769.5248334818 ; 5556541.119088435 ; 0.0
197 ; 11771.689873352687 ; 28349.699587185984 ; 3515555.9777133386 ; 5584890.8186756205 ; 0.0
198 ; 11910.662495864059 ; 28349.699587185984 ; 3527327.667586691 ; 5613240.518262806 ; 0.0
199 ; 11855.16210699887 ; 28349.699587185984 ; 3539238.3300825553 ; 5641590.217849992 ; 0.0
200 ; 11999.862056388558 ; 28349.699587185984 ; 3551093.492189554 ; 5669939.917437178 ; 0.0
201 ; 11984.15134793957 ; 28349.699587185984 ; 3563093.3542459426 ; 5698289.617024364 ; 0.0
202 ; 11878.674053155075 ; 28349.699587185984 ; 3575077.505593882 ; 5726639.31661155 ; 0.0
203 ; 12132.788795853688 ; 28349.699587185984 ; 3586956.179647037 ; 5754989.016198736 ; 0.0
204 ; 12064.239831171728 ; 28349.699587185984 ; 3599088.9684428903 ; 5783338.715785922 ; 0.0
205 ; 11944.237703946423 ; 28349.699587185984 ; 3611153.2082740623 ; 5811688.415373107 ; 0.0
206 ; 11916.18837016762 ; 28349.699587185984 ; 3623097.4459780087 ; 5840038.114960293 ; 0.0
207 ; 12065.979212518241 ; 28349.699587185984 ; 3635013.6343481764 ; 5868387.814547479 ; 0.0
208 ; 12128.175393343461 ; 28349.699587185984 ; 3647079.6135606947 ; 5896737.514134665 ; 0.0
209 ; 11968.240994355081 ; 28349.699587185984 ; 3659207.788954038 ; 5925087.213721851 ; 0.0
210 ; 12158.679226863613 ; 28349.699587185984 ; 3671176.0299483933 ; 5953436.913309037 ; 0.0
211 ; 11993.280118996709 ; 28349.699587185984 ; 3683334.709175257 ; 5981786.612896223 ; 0.0
212 ; 12127.94160950844 ; 28349.699587185984 ; 3695327.9892942538 ; 6010136.3124834085 ; 0.0
213 ; 12238.239045122069 ; 28349.699587185984 ; 3707455.930903762 ; 6038486.012070594 ; 0.0
