CSV File for the City 1 on Day 247
1 - Minute m 
2 - Power Consumed at minute m 
3 - Power Produced at minute m 
4 - Energy Consumed since the beginning of the day 
5 - Energy Produced since the beginning of the day 
6 - Energy Lost since the beginning of the day on lines starting from the city
 
0 ; 6123.52952992472 ; 3465.378419231245 ; 0.0 ; 0.0 ; 0.0
1 ; 6607.078196151427 ; 3465.378419231245 ; 6123.52952992472 ; 3465.378419231245 ; 238.00000000000003
2 ; 7278.588021206472 ; 3465.378419231245 ; 12730.607726076147 ; 6930.75683846249 ; 476.00000000000006
3 ; 7848.596806854671 ; 3465.378419231245 ; 20009.195747282618 ; 10396.135257693735 ; 714.0000000000001
4 ; 8454.615369636782 ; 3465.378419231245 ; 27857.79255413729 ; 13861.51367692498 ; 952.0000000000001
5 ; 8988.72132096999 ; 3465.378419231245 ; 36312.40792377407 ; 17326.892096156225 ; 1190.0000000000002
6 ; 9515.282224592942 ; 3465.378419231245 ; 45301.129244744065 ; 20792.27051538747 ; 1428.0000000000002
7 ; 9939.179243542701 ; 3465.378419231245 ; 54816.41146933701 ; 24257.648934618715 ; 1666.0000000000002
8 ; 10626.836706811684 ; 3465.378419231245 ; 64755.59071287971 ; 27723.02735384996 ; 1904.0000000000002
9 ; 11277.071235758673 ; 3465.378419231245 ; 75382.42741969139 ; 31188.405773081206 ; 2142.0000000000005
10 ; 11494.673807049026 ; 3465.378419231245 ; 86659.49865545006 ; 34653.78419231245 ; 2380.0000000000005
11 ; 12288.336658465034 ; 3465.378419231245 ; 98154.17246249909 ; 38119.162611543696 ; 2618.0000000000005
12 ; 12484.733854275031 ; 3465.378419231245 ; 110442.50912096413 ; 41584.54103077494 ; 2856.0000000000005
13 ; 12903.612086268478 ; 3465.378419231245 ; 122927.24297523916 ; 45049.919450006186 ; 3094.0000000000005
14 ; 13688.694236762816 ; 3465.378419231245 ; 135830.85506150764 ; 48515.29786923743 ; 3332.0000000000005
15 ; 14024.435156022591 ; 3465.378419231245 ; 149519.54929827046 ; 51980.676288468676 ; 3570.0000000000005
16 ; 14395.34298334489 ; 3465.378419231245 ; 163543.98445429304 ; 55446.05470769992 ; 3808.0000000000005
17 ; 15049.177980825863 ; 3465.378419231245 ; 177939.32743763793 ; 58911.433126931166 ; 4046.0000000000005
18 ; 15367.19503332368 ; 3465.378419231245 ; 192988.50541846378 ; 62376.81154616241 ; 4284.000000000001
19 ; 15648.136498911346 ; 3465.378419231245 ; 208355.70045178747 ; 65842.18996539366 ; 4522.000000000001
20 ; 16355.985023185236 ; 3465.378419231245 ; 224003.8369506988 ; 69307.5683846249 ; 4760.000000000001
21 ; 16795.382522465534 ; 3465.378419231245 ; 240359.82197388404 ; 72772.94680385615 ; 4998.000000000001
22 ; 17208.01306651093 ; 3465.378419231245 ; 257155.2044963496 ; 76238.32522308739 ; 5236.000000000001
23 ; 17575.392562637066 ; 3465.378419231245 ; 274363.2175628605 ; 79703.70364231864 ; 5474.000000000001
24 ; 17993.350019962367 ; 3465.378419231245 ; 291938.61012549757 ; 83169.08206154988 ; 5712.000000000001
25 ; 18284.635565588047 ; 3465.378419231245 ; 309931.9601454599 ; 86634.46048078113 ; 5950.000000000001
26 ; 18788.42393504492 ; 3465.378419231245 ; 328216.595711048 ; 90099.83890001237 ; 6188.000000000001
27 ; 19237.551621413353 ; 3465.378419231245 ; 347005.0196460929 ; 93565.21731924362 ; 6426.000000000001
28 ; 19569.255171085566 ; 3465.378419231245 ; 366242.5712675062 ; 97030.59573847486 ; 6664.000000000001
29 ; 19827.65604070516 ; 3465.378419231245 ; 385811.8264385918 ; 100495.9741577061 ; 6902.000000000001
30 ; 20081.20289844956 ; 3465.378419231245 ; 405639.482479297 ; 103961.35257693735 ; 7140.000000000001
31 ; 20754.48672444092 ; 3465.378419231245 ; 425720.68537774653 ; 107426.7309961686 ; 7378.000000000001
32 ; 20965.683732102047 ; 3465.378419231245 ; 446475.17210218747 ; 110892.10941539984 ; 7616.000000000001
33 ; 21462.839665648626 ; 3465.378419231245 ; 467440.8558342895 ; 114357.48783463109 ; 7854.000000000001
34 ; 22016.68048989905 ; 3465.378419231245 ; 488903.69549993816 ; 117822.86625386233 ; 8092.000000000001
35 ; 22099.839521444163 ; 3465.378419231245 ; 510920.3759898372 ; 121288.24467309358 ; 8330.000000000002
36 ; 22377.53617088675 ; 3465.378419231245 ; 533020.2155112814 ; 124753.62309232482 ; 8568.000000000002
37 ; 22748.41363897156 ; 3465.378419231245 ; 555397.7516821681 ; 128219.00151155607 ; 8806.000000000002
38 ; 23065.074586954277 ; 3465.378419231245 ; 578146.1653211396 ; 131684.3799307873 ; 9044.000000000002
39 ; 23389.557714744744 ; 3465.378419231245 ; 601211.2399080939 ; 135149.75835001856 ; 9282.000000000002
40 ; 23520.33628130675 ; 3465.378419231245 ; 624600.7976228386 ; 138615.1367692498 ; 9520.000000000002
41 ; 23850.06550790756 ; 3465.378419231245 ; 648121.1339041453 ; 142080.51518848105 ; 9758.000000000002
42 ; 24166.655054106905 ; 3465.378419231245 ; 671971.1994120529 ; 145545.8936077123 ; 9996.000000000002
43 ; 24326.828922456887 ; 3465.378419231245 ; 696137.8544661598 ; 149011.27202694354 ; 10234.000000000002
44 ; 24786.314704504217 ; 3465.378419231245 ; 720464.6833886167 ; 152476.65044617478 ; 10472.000000000002
45 ; 24938.32356972183 ; 3465.378419231245 ; 745250.9980931209 ; 155942.02886540603 ; 10710.000000000002
46 ; 25272.740728678127 ; 3465.378419231245 ; 770189.3216628426 ; 159407.40728463727 ; 10948.000000000002
47 ; 25578.894162880995 ; 3465.378419231245 ; 795462.0623915208 ; 162872.78570386852 ; 11186.000000000002
48 ; 25618.915458054817 ; 3465.378419231245 ; 821040.9565544018 ; 166338.16412309976 ; 11424.000000000002
49 ; 26295.055810708225 ; 3465.378419231245 ; 846659.8720124566 ; 169803.542542331 ; 11662.000000000002
50 ; 26247.76832380736 ; 3465.378419231245 ; 872954.9278231648 ; 173268.92096156225 ; 11900.000000000002
51 ; 26519.293134479587 ; 3465.378419231245 ; 899202.6961469722 ; 176734.2993807935 ; 12138.000000000002
52 ; 26773.745993971806 ; 3465.378419231245 ; 925721.9892814518 ; 180199.67780002474 ; 12376.000000000002
53 ; 26987.996024229604 ; 3465.378419231245 ; 952495.7352754236 ; 183665.056219256 ; 12614.000000000002
54 ; 27173.018238426772 ; 3465.378419231245 ; 979483.7312996532 ; 187130.43463848723 ; 12852.000000000002
55 ; 27375.813649778607 ; 3465.378419231245 ; 1006656.74953808 ; 190595.81305771848 ; 13090.000000000002
56 ; 27602.61579306776 ; 3465.378419231245 ; 1034032.5631878586 ; 194061.19147694972 ; 13328.000000000002
57 ; 27682.3916444816 ; 3465.378419231245 ; 1061635.1789809263 ; 197526.56989618097 ; 13566.000000000002
58 ; 27972.559907916766 ; 3465.378419231245 ; 1089317.5706254079 ; 200991.9483154122 ; 13804.000000000002
59 ; 27987.596623532725 ; 3465.378419231245 ; 1117290.1305333246 ; 204457.32673464346 ; 14042.000000000002
60 ; 28269.794152788283 ; 3465.378419231245 ; 1145277.7271568573 ; 207922.7051538747 ; 14280.000000000002
61 ; 28277.964491538296 ; 3465.378419231245 ; 1173547.5213096456 ; 211388.08357310595 ; 14518.000000000002
62 ; 28766.71746910816 ; 3465.378419231245 ; 1201825.4858011839 ; 214853.4619923372 ; 14756.000000000002
63 ; 28815.7373494498 ; 3465.378419231245 ; 1230592.203270292 ; 218318.84041156844 ; 14994.000000000002
64 ; 28921.694834818507 ; 3465.378419231245 ; 1259407.9406197418 ; 221784.21883079968 ; 15232.000000000002
65 ; 28880.261957810315 ; 3465.378419231245 ; 1288329.6354545604 ; 225249.59725003093 ; 15470.000000000002
66 ; 28956.52847429618 ; 3465.378419231245 ; 1317209.8974123707 ; 228714.97566926217 ; 15708.000000000002
67 ; 29203.366726644676 ; 3465.378419231245 ; 1346166.4258866669 ; 232180.35408849342 ; 15946.000000000002
68 ; 29311.561652419256 ; 3465.378419231245 ; 1375369.7926133114 ; 235645.73250772466 ; 16184.000000000002
69 ; 29411.16856042948 ; 3465.378419231245 ; 1404681.3542657306 ; 239111.1109269559 ; 16422.000000000004
70 ; 29552.235433236012 ; 3465.378419231245 ; 1434092.52282616 ; 242576.48934618715 ; 16660.000000000004
71 ; 29510.306573287275 ; 3465.378419231245 ; 1463644.758259396 ; 246041.8677654184 ; 16898.000000000004
72 ; 29683.842666400997 ; 3465.378419231245 ; 1493155.0648326834 ; 249507.24618464964 ; 17136.000000000004
73 ; 29613.095136476375 ; 3465.378419231245 ; 1522838.9074990845 ; 252972.6246038809 ; 17374.000000000004
74 ; 29637.829642201676 ; 3465.378419231245 ; 1552452.002635561 ; 256438.00302311213 ; 17612.000000000004
75 ; 29886.09070725155 ; 3465.378419231245 ; 1582089.8322777627 ; 259903.38144234338 ; 17850.000000000004
76 ; 29953.52662691951 ; 3465.378419231245 ; 1611975.9229850143 ; 263368.7598615746 ; 18088.000000000004
77 ; 29938.07104525893 ; 3465.378419231245 ; 1641929.4496119337 ; 266834.1382808059 ; 18326.000000000004
78 ; 29960.92375444806 ; 3465.378419231245 ; 1671867.5206571927 ; 270299.5167000372 ; 18564.000000000004
79 ; 29919.462533754122 ; 3465.378419231245 ; 1701828.4444116408 ; 273764.89511926845 ; 18802.000000000004
80 ; 29952.830479962107 ; 3465.378419231245 ; 1731747.9069453948 ; 277230.2735384997 ; 19040.000000000004
81 ; 30007.853088352666 ; 3465.378419231245 ; 1761700.7374253569 ; 280695.651957731 ; 19278.000000000004
82 ; 29940.246507595424 ; 3465.378419231245 ; 1791708.5905137095 ; 284161.03037696227 ; 19516.000000000004
83 ; 29866.92547908178 ; 3465.378419231245 ; 1821648.837021305 ; 287626.40879619354 ; 19754.000000000004
84 ; 30117.809912263925 ; 3465.378419231245 ; 1851515.7625003867 ; 291091.7872154248 ; 19992.000000000004
85 ; 30173.53752392399 ; 3465.378419231245 ; 1881633.5724126506 ; 294557.1656346561 ; 20230.000000000004
86 ; 29990.046114713183 ; 3465.378419231245 ; 1911807.1099365745 ; 298022.54405388737 ; 20468.000000000004
87 ; 29843.619985158322 ; 3465.378419231245 ; 1941797.1560512877 ; 301487.92247311864 ; 20706.000000000004
88 ; 30045.389375532497 ; 3465.378419231245 ; 1971640.776036446 ; 304953.3008923499 ; 20944.000000000004
89 ; 29682.980383195216 ; 3465.378419231245 ; 2001686.1654119785 ; 308418.6793115812 ; 21182.000000000004
90 ; 29548.386733243788 ; 3465.378419231245 ; 2031369.1457951737 ; 311884.05773081246 ; 21420.000000000004
91 ; 29747.247506546537 ; 3465.378419231245 ; 2060917.5325284174 ; 315349.43615004374 ; 21658.000000000004
92 ; 29592.70816436523 ; 3465.378419231245 ; 2090664.780034964 ; 318814.814569275 ; 21896.000000000004
93 ; 29711.42424626288 ; 3465.378419231245 ; 2120257.488199329 ; 322280.1929885063 ; 22134.000000000004
94 ; 29366.479065882257 ; 3465.378419231245 ; 2149968.9124455918 ; 325745.57140773756 ; 22372.000000000004
95 ; 29384.311085836445 ; 3465.378419231245 ; 2179335.391511474 ; 329210.94982696883 ; 22610.000000000004
96 ; 29453.867305086293 ; 3465.378419231245 ; 2208719.7025973103 ; 332676.3282462001 ; 22848.000000000004
97 ; 29196.853293957334 ; 3465.378419231245 ; 2238173.5699023968 ; 336141.7066654314 ; 23086.000000000004
98 ; 29089.532858209048 ; 3465.378419231245 ; 2267370.423196354 ; 339607.08508466266 ; 23324.000000000004
99 ; 29012.019339558872 ; 3465.378419231245 ; 2296459.956054563 ; 343072.46350389393 ; 23562.000000000004
100 ; 28801.013732262458 ; 3465.378419231245 ; 2325471.975394122 ; 346537.8419231252 ; 23800.000000000004
101 ; 28849.606701632954 ; 3465.378419231245 ; 2354272.9891263843 ; 350003.2203423565 ; 24038.000000000004
102 ; 28494.315563480683 ; 3465.378419231245 ; 2383122.595828017 ; 353468.59876158775 ; 24276.000000000004
103 ; 28559.928065513985 ; 3465.378419231245 ; 2411616.911391498 ; 356933.977180819 ; 24514.000000000004
104 ; 28318.21924015643 ; 3465.378419231245 ; 2440176.8394570122 ; 360399.3556000503 ; 24752.000000000004
105 ; 28179.897770050433 ; 3465.378419231245 ; 2468495.0586971687 ; 363864.7340192816 ; 24990.000000000004
106 ; 28063.188977822312 ; 3465.378419231245 ; 2496674.956467219 ; 367330.11243851285 ; 25228.000000000004
107 ; 27813.79343272618 ; 3465.378419231245 ; 2524738.1454450414 ; 370795.4908577441 ; 25466.000000000004
108 ; 27581.75246872348 ; 3465.378419231245 ; 2552551.9388777674 ; 374260.8692769754 ; 25704.000000000004
109 ; 27416.812922939447 ; 3465.378419231245 ; 2580133.6913464908 ; 377726.2476962067 ; 25942.000000000004
110 ; 27443.888247550178 ; 3465.378419231245 ; 2607550.5042694304 ; 381191.62611543795 ; 26180.000000000004
111 ; 27201.970668384616 ; 3465.378419231245 ; 2634994.3925169804 ; 384657.0045346692 ; 26418.000000000004
112 ; 26977.04181099153 ; 3465.378419231245 ; 2662196.363185365 ; 388122.3829539005 ; 26656.000000000004
113 ; 26605.58570374599 ; 3465.378419231245 ; 2689173.404996357 ; 391587.76137313177 ; 26894.000000000004
114 ; 26192.773945605062 ; 3465.378419231245 ; 2715778.990700103 ; 395053.13979236304 ; 27132.000000000004
115 ; 26254.021208648875 ; 3465.378419231245 ; 2741971.764645708 ; 398518.5182115943 ; 27370.000000000004
116 ; 26154.890378283642 ; 3465.378419231245 ; 2768225.785854357 ; 401983.8966308256 ; 27608.000000000004
117 ; 25609.998782412134 ; 3465.378419231245 ; 2794380.6762326406 ; 405449.27505005687 ; 27846.000000000004
118 ; 25609.145235288695 ; 3465.378419231245 ; 2819990.675015053 ; 408914.65346928814 ; 28084.000000000004
119 ; 25248.995900503443 ; 3465.378419231245 ; 2845599.8202503417 ; 412380.0318885194 ; 28322.000000000004
120 ; 24998.2260213126 ; 3465.378419231245 ; 2870848.816150845 ; 415845.4103077507 ; 28560.000000000004
121 ; 24666.09673474307 ; 3465.378419231245 ; 2895847.0421721577 ; 419310.78872698196 ; 28798.000000000004
122 ; 24379.31102643547 ; 3465.378419231245 ; 2920513.138906901 ; 422776.16714621324 ; 29036.000000000004
123 ; 24238.059215586665 ; 3465.378419231245 ; 2944892.449933336 ; 426241.5455654445 ; 29274.000000000004
124 ; 23943.469857323606 ; 3465.378419231245 ; 2969130.5091489227 ; 429706.9239846758 ; 29512.000000000004
125 ; 23718.596516204016 ; 3465.378419231245 ; 2993073.979006246 ; 433172.30240390706 ; 29750.000000000004
126 ; 23414.557556037114 ; 3465.378419231245 ; 3016792.5755224503 ; 436637.68082313833 ; 29988.000000000004
127 ; 23000.595072579792 ; 3465.378419231245 ; 3040207.1330784876 ; 440103.0592423696 ; 30226.000000000004
128 ; 22778.867091560693 ; 3465.378419231245 ; 3063207.728151067 ; 443568.4376616009 ; 30464.000000000004
129 ; 22365.31978019905 ; 3465.378419231245 ; 3085986.595242628 ; 447033.81608083216 ; 30702.000000000004
130 ; 21923.83949622424 ; 3465.378419231245 ; 3108351.9150228268 ; 450499.19450006343 ; 30940.000000000004
131 ; 21490.853237144594 ; 3465.378419231245 ; 3130275.754519051 ; 453964.5729192947 ; 31178.000000000004
132 ; 21255.785472720123 ; 3465.378419231245 ; 3151766.6077561956 ; 457429.951338526 ; 31416.000000000004
133 ; 21095.07898922667 ; 3465.378419231245 ; 3173022.3932289155 ; 460895.32975775725 ; 31654.000000000004
134 ; 20764.371568290262 ; 3465.378419231245 ; 3194117.4722181424 ; 464360.7081769885 ; 31892.000000000004
135 ; 20221.282831960652 ; 3465.378419231245 ; 3214881.8437864324 ; 467826.0865962198 ; 32130.000000000004
136 ; 20076.314255027468 ; 3465.378419231245 ; 3235103.126618393 ; 471291.4650154511 ; 32368.000000000004
137 ; 19576.12140421597 ; 3465.378419231245 ; 3255179.440873421 ; 474756.84343468235 ; 32606.000000000004
138 ; 19214.063698193142 ; 3465.378419231245 ; 3274755.562277637 ; 478222.2218539136 ; 32844.00000000001
139 ; 18853.593084034106 ; 3465.378419231245 ; 3293969.62597583 ; 481687.6002731449 ; 33082.00000000001
140 ; 18442.731673870978 ; 3465.378419231245 ; 3312823.219059864 ; 485152.9786923762 ; 33320.00000000001
141 ; 17863.344734166272 ; 3465.378419231245 ; 3331265.950733735 ; 488618.35711160745 ; 33558.00000000001
142 ; 17398.176088378434 ; 3465.378419231245 ; 3349129.2954679015 ; 492083.7355308387 ; 33796.00000000001
143 ; 17029.206051680565 ; 3465.378419231245 ; 3366527.47155628 ; 495549.11395007 ; 34034.00000000001
144 ; 16576.50176865311 ; 3465.378419231245 ; 3383556.6776079605 ; 499014.49236930127 ; 34272.00000000001
145 ; 16438.453829592 ; 3465.378419231245 ; 3400133.179376614 ; 502479.87078853254 ; 34510.00000000001
146 ; 16542.789316447157 ; 3465.378419231245 ; 3416571.633206206 ; 505945.2492077638 ; 34748.00000000001
147 ; 16284.856104417582 ; 3465.378419231245 ; 3433114.422522653 ; 509410.6276269951 ; 34986.00000000001
148 ; 16087.6462745125 ; 3465.378419231245 ; 3449399.2786270706 ; 512876.00604622636 ; 35224.00000000001
149 ; 16055.554332588643 ; 3465.378419231245 ; 3465486.924901583 ; 516341.38446545764 ; 35462.00000000001
150 ; 15991.793530839235 ; 3465.378419231245 ; 3481542.479234172 ; 519806.7628846889 ; 35700.00000000001
151 ; 15847.946945853062 ; 3465.378419231245 ; 3497534.272765011 ; 523272.1413039202 ; 35938.00000000001
152 ; 15796.823283344971 ; 3465.378419231245 ; 3513382.219710864 ; 526737.5197231515 ; 36176.00000000001
153 ; 15489.880134953779 ; 3465.378419231245 ; 3529179.042994209 ; 530202.8981423827 ; 36414.00000000001
154 ; 15435.77820850667 ; 3465.378419231245 ; 3544668.9231291628 ; 533668.276561614 ; 36652.00000000001
155 ; 15132.003642017415 ; 3465.378419231245 ; 3560104.7013376695 ; 537133.6549808453 ; 36890.00000000001
156 ; 14999.396408219136 ; 3465.378419231245 ; 3575236.704979687 ; 540599.0334000766 ; 37128.00000000001
157 ; 15181.566857341344 ; 3465.378419231245 ; 3590236.1013879064 ; 544064.4118193078 ; 37366.00000000001
158 ; 14830.188380602787 ; 3465.378419231245 ; 3605417.6682452476 ; 547529.7902385391 ; 37604.00000000001
159 ; 14593.181829471156 ; 3465.378419231245 ; 3620247.8566258503 ; 550995.1686577704 ; 37842.00000000001
160 ; 14557.22833178614 ; 3465.378419231245 ; 3634841.0384553215 ; 554460.5470770017 ; 38080.00000000001
161 ; 14481.852303627376 ; 3465.378419231245 ; 3649398.2667871076 ; 557925.9254962329 ; 38318.00000000001
162 ; 14165.48233984199 ; 3465.378419231245 ; 3663880.119090735 ; 561391.3039154642 ; 38556.00000000001
163 ; 14138.111946397494 ; 3465.378419231245 ; 3678045.6014305768 ; 564856.6823346955 ; 38794.00000000001
164 ; 13831.327145738307 ; 3465.378419231245 ; 3692183.713376974 ; 568322.0607539268 ; 39032.00000000001
165 ; 13802.963271842631 ; 3465.378419231245 ; 3706015.0405227127 ; 571787.439173158 ; 39270.00000000001
166 ; 13826.225222680185 ; 3465.378419231245 ; 3719818.0037945556 ; 575252.8175923893 ; 39508.00000000001
167 ; 13327.793163006285 ; 3465.378419231245 ; 3733644.229017236 ; 578718.1960116206 ; 39746.00000000001
168 ; 13125.074147721023 ; 3465.378419231245 ; 3746972.022180242 ; 582183.5744308518 ; 39984.00000000001
169 ; 13029.439366704226 ; 3465.378419231245 ; 3760097.096327963 ; 585648.9528500831 ; 40222.00000000001
170 ; 12671.72429282167 ; 3465.378419231245 ; 3773126.535694667 ; 589114.3312693144 ; 40460.00000000001
171 ; 12633.769138323809 ; 3465.378419231245 ; 3785798.259987489 ; 592579.7096885457 ; 40698.00000000001
172 ; 12634.913251764547 ; 3465.378419231245 ; 3798432.0291258125 ; 596045.088107777 ; 40936.00000000001
173 ; 12282.586166706946 ; 3465.378419231245 ; 3811066.942377577 ; 599510.4665270082 ; 41174.00000000001
174 ; 12480.874371533746 ; 3465.378419231245 ; 3823349.528544284 ; 602975.8449462395 ; 41412.00000000001
175 ; 12619.485095441501 ; 3465.378419231245 ; 3835830.4029158177 ; 606441.2233654708 ; 41650.00000000001
176 ; 12324.24703773779 ; 3465.378419231245 ; 3848449.888011259 ; 609906.601784702 ; 41888.00000000001
177 ; 12538.024094984365 ; 3465.378419231245 ; 3860774.1350489967 ; 613371.9802039333 ; 42126.00000000001
178 ; 12399.51661956742 ; 3465.378419231245 ; 3873312.159143981 ; 616837.3586231646 ; 42364.00000000001
179 ; 12639.81725680732 ; 3465.378419231245 ; 3885711.6757635484 ; 620302.7370423959 ; 42602.00000000001
180 ; 12675.427704705264 ; 3465.378419231245 ; 3898351.4930203557 ; 623768.1154616271 ; 42840.00000000001
181 ; 12420.862879274227 ; 3465.378419231245 ; 3911026.920725061 ; 627233.4938808584 ; 43078.00000000001
182 ; 12745.324476696973 ; 3465.378419231245 ; 3923447.7836043355 ; 630698.8723000897 ; 43316.00000000001
183 ; 12679.347160231162 ; 3465.378419231245 ; 3936193.1080810325 ; 634164.250719321 ; 43554.00000000001
184 ; 12816.082200335264 ; 3465.378419231245 ; 3948872.455241264 ; 637629.6291385522 ; 43792.00000000001
185 ; 12639.605910655479 ; 3465.378419231245 ; 3961688.537441599 ; 641095.0075577835 ; 44030.00000000001
186 ; 12829.424583658049 ; 3465.378419231245 ; 3974328.1433522548 ; 644560.3859770148 ; 44268.00000000001
