CSV File for the City 3 on Day 266
1 - Minute m 
2 - Power Consumed at minute m 
3 - Power Produced at minute m 
4 - Energy Consumed since the beginning of the day 
5 - Energy Produced since the beginning of the day 
6 - Energy Lost since the beginning of the day on lines starting from the city
 
0 ; 5615.770739695551 ; 95739.85860632715 ; 0.0 ; 0.0 ; 0.0
1 ; 5980.531998417087 ; 95397.70054728915 ; 5615.770739695551 ; 95739.85860632715 ; 0.0
2 ; 6442.804970562769 ; 95090.44520932071 ; 11596.302738112638 ; 191137.5591536163 ; 0.0
3 ; 6795.740130749689 ; 94818.45539936396 ; 18039.10770867541 ; 286228.004362937 ; 0.0
4 ; 7205.5672040934915 ; 94582.05615205722 ; 24834.8478394251 ; 381046.45976230095 ; 0.0
5 ; 7488.264646333236 ; 94381.53296445259 ; 32040.41504351859 ; 475628.5159143582 ; 0.0
6 ; 8016.89158126705 ; 94217.13021642748 ; 39528.67968985183 ; 570010.0488788108 ; 0.0
7 ; 8209.280208874263 ; 94089.04979691298 ; 47545.57127111888 ; 664227.1790952383 ; 0.0
8 ; 8589.827452509648 ; 93997.44995384045 ; 55754.85147999314 ; 758316.2288921513 ; 0.0
9 ; 9043.965879953874 ; 93942.44438307606 ; 64344.67893250279 ; 852313.6788459917 ; 0.0
10 ; 9191.08911222858 ; 93924.10156862166 ; 73388.64481245667 ; 946256.1232290678 ; 0.0
11 ; 9473.869558019396 ; 93942.44438307606 ; 82579.73392468525 ; 1040180.2247976895 ; 0.0
12 ; 9875.258579139267 ; 93997.44995384045 ; 92053.60348270464 ; 1134122.6691807655 ; 0.0
13 ; 10195.557515394372 ; 94089.04979691298 ; 101928.8620618439 ; 1228120.1191346059 ; 0.0
14 ; 10607.993441770539 ; 94217.13021642748 ; 112124.41957723827 ; 1322209.168931519 ; 0.0
15 ; 10914.880331284805 ; 94381.53296445259 ; 122732.4130190088 ; 1416426.2991479463 ; 0.0
16 ; 11158.828881905825 ; 94582.05615205722 ; 133647.29335029362 ; 1510807.832112399 ; 0.0
17 ; 11494.670379152945 ; 94818.45539936387 ; 144806.12223219944 ; 1605389.888264456 ; 0.0
18 ; 11901.260139460794 ; 95090.4452093208 ; 156300.7926113524 ; 1700208.3436638198 ; 0.0
19 ; 12279.457809834863 ; 95397.70054728906 ; 168202.0527508132 ; 1795298.7888731407 ; 0.0
20 ; 12505.848228319677 ; 95739.85860632724 ; 180481.51056064805 ; 1890696.4894204298 ; 0.0
21 ; 12804.371060563426 ; 96116.52073628205 ; 192987.35878896771 ; 1986436.3480267571 ; 0.0
22 ; 13036.261509485208 ; 96527.2545135002 ; 205791.72984953114 ; 2082552.8687630391 ; 0.0
23 ; 13329.874161920916 ; 96971.59592715238 ; 218827.99135901633 ; 2179080.123276539 ; 0.0
24 ; 13604.305123471187 ; 97449.05165781197 ; 232157.86552093725 ; 2276051.7192036915 ; 0.0
25 ; 13852.312358549781 ; 97959.10142402977 ; 245762.17064440844 ; 2373500.7708615037 ; 0.0
26 ; 14065.908712333046 ; 98501.20037315843 ; 259614.48300295824 ; 2471459.872285533 ; 0.0
27 ; 14477.894898876393 ; 99074.78149356942 ; 273680.3917152913 ; 2569961.0726586916 ; 0.0
28 ; 14806.25302694843 ; 99679.25802661835 ; 288158.2866141677 ; 2669035.854152261 ; 0.0
29 ; 15164.072773630081 ; 100314.0258581966 ; 302964.5396411161 ; 2768715.1121788793 ; 0.0
30 ; 15254.68401581809 ; 100978.46587140695 ; 318128.6124147462 ; 2869029.1380370758 ; 0.0
31 ; 15537.179997310534 ; 101671.94624375724 ; 333383.2964305643 ; 2970007.603908483 ; 0.0
32 ; 15712.457450939868 ; 102393.82467422595 ; 348920.4764278748 ; 3071679.5501522403 ; 0.0
33 ; 15834.939831050078 ; 103143.4505275656 ; 364632.9338788147 ; 3174073.374826466 ; 0.0
34 ; 16229.30009763129 ; 103920.16688523002 ; 380467.87370986474 ; 3277216.8253540318 ; 0.0
35 ; 16434.84699527697 ; 104723.31249429112 ; 396697.17380749603 ; 3381136.992239262 ; 0.0
36 ; 16695.09054433361 ; 105552.223607622 ; 413132.020802773 ; 3485860.304733553 ; 0.0
37 ; 16917.787380799982 ; 106406.23571043364 ; 429827.11134710663 ; 3591412.528341175 ; 0.0
38 ; 17113.431878986106 ; 107284.6851299373 ; 446744.89872790664 ; 3697818.7640516087 ; 0.0
39 ; 17110.491148201396 ; 108186.91052645382 ; 463858.33060689276 ; 3805103.449181546 ; 0.0
40 ; 17418.907657170064 ; 109112.25426568092 ; 480968.82175509416 ; 3913290.359708 ; 0.0
41 ; 17613.99858818228 ; 110060.0636730727 ; 498387.72941226425 ; 4022402.613973681 ; 0.0
42 ; 17729.6504073256 ; 111029.69217235899 ; 516001.7280004465 ; 4132462.6776467534 ; 0.0
43 ; 18049.907822323697 ; 112020.50031115643 ; 533731.3784077722 ; 4243492.369819112 ; 0.0
44 ; 18160.894892103453 ; 113031.85667739114 ; 551781.2862300959 ; 4355512.870130269 ; 0.0
45 ; 18588.207875627824 ; 114063.13871088086 ; 569942.1811221994 ; 4468544.72680766 ; 0.0
46 ; 18532.52920183485 ; 115113.73341491498 ; 588530.3889978272 ; 4582607.865518541 ; 0.0
47 ; 18670.907553964473 ; 116183.03797304124 ; 607062.918199662 ; 4697721.598933456 ; 0.0
48 ; 18873.08659102365 ; 117270.46027652288 ; 625733.8257536265 ; 4813904.636906498 ; 0.0
49 ; 18975.840027674545 ; 118375.41936809328 ; 644606.9123446501 ; 4931175.097183021 ; 0.0
50 ; 19141.890240957477 ; 119497.3458077003 ; 663582.7523723247 ; 5049550.516551114 ; 0.0
51 ; 19241.522440028817 ; 120635.6819659332 ; 682724.6426132822 ; 5169047.862358814 ; 0.0
52 ; 19530.3144825247 ; 121789.88225075435 ; 701966.165053311 ; 5289683.544324747 ; 0.0
53 ; 19619.665070232473 ; 122959.41327303635 ; 721496.4795358358 ; 5411473.426575501 ; 0.0
54 ; 19811.309843379502 ; 124143.75395624033 ; 741116.1446060683 ; 5534432.839848538 ; 0.0
55 ; 19842.079023796232 ; 125342.39559537133 ; 760927.4544494478 ; 5658576.5938047785 ; 0.0
56 ; 20040.972237513488 ; 126554.84187011952 ; 780769.533473244 ; 5783918.98940015 ; 0.0
57 ; 19967.61267180261 ; 127780.60881684901 ; 800810.5057107576 ; 5910473.83127027 ; 0.0
58 ; 20339.742872297054 ; 129019.22476383856 ; 820778.1183825602 ; 6038254.440087119 ; 0.0
59 ; 20293.52288632494 ; 130270.23023390978 ; 841117.8612548573 ; 6167273.664850958 ; 0.0
60 ; 20489.58374912761 ; 131533.17781830856 ; 861411.3841411822 ; 6297543.895084867 ; 0.0
61 ; 20798.270060104733 ; 132807.63202543458 ; 881900.9678903098 ; 6429077.072903176 ; 0.0
62 ; 20738.725849989856 ; 134093.16910775081 ; 902699.2379504145 ; 6561884.7049286105 ; 0.0
63 ; 20859.134451465496 ; 135389.3768699411 ; 923437.9638004043 ; 6695977.874036361 ; 0.0
64 ; 21037.72529281481 ; 136695.85446113697 ; 944297.0982518698 ; 6831367.250906303 ; 0.0
65 ; 20754.01611980319 ; 138012.21215379157 ; 965334.8235446846 ; 6968063.10536744 ; 0.0
66 ; 20998.175831837234 ; 139338.0711115505 ; 986088.8396644878 ; 7106075.317521231 ; 0.0
67 ; 21067.141904035434 ; 140673.0631482492 ; 1007087.015496325 ; 7245413.388632782 ; 0.0
68 ; 21246.684906669834 ; 142016.83047996534 ; 1028154.1574003604 ; 7386086.451781031 ; 0.0
69 ; 21296.729989514934 ; 143369.0254718582 ; 1049400.8423070302 ; 7528103.282260996 ; 0.0
70 ; 21268.264771414386 ; 144729.31038135046 ; 1070697.5722965451 ; 7671472.307732854 ; 0.0
71 ; 21407.048151167997 ; 146097.35709903925 ; 1091965.8370679596 ; 7816201.618114204 ; 0.0
72 ; 21437.055211669547 ; 147472.84688856942 ; 1113372.8852191276 ; 7962298.975213244 ; 0.0
73 ; 21445.08746359916 ; 148855.4701265594 ; 1134809.9404307972 ; 8109771.822101813 ; 0.0
74 ; 21489.385557229303 ; 150244.92604353876 ; 1156255.0278943963 ; 8258627.292228372 ; 0.0
75 ; 21448.13454741643 ; 151640.92246673608 ; 1177744.4134516257 ; 8408872.218271911 ; 0.0
76 ; 21640.55771726461 ; 153043.17556544772 ; 1199192.547999042 ; 8560513.140738647 ; 0.0
77 ; 21586.148721138896 ; 154451.4095996156 ; 1220833.1057163067 ; 8713556.316304095 ; 0.0
78 ; 21639.78171509909 ; 155865.35667215465 ; 1242419.2544374457 ; 8868007.72590371 ; 0.0
79 ; 21580.224745201587 ; 157284.75648548553 ; 1264059.0361525447 ; 9023873.082575865 ; 0.0
80 ; 21631.832692898097 ; 158709.35610265686 ; 1285639.2608977463 ; 9181157.839061351 ; 0.0
81 ; 21668.63047157955 ; 160138.90971337265 ; 1307271.0935906444 ; 9339867.195164008 ; 0.0
82 ; 21574.69669606731 ; 161573.1784051829 ; 1328939.724062224 ; 9500006.10487738 ; 0.0
83 ; 21706.591773792632 ; 163011.92994004 ; 1350514.4207582911 ; 9661579.283282563 ; 0.0
84 ; 21598.88556125462 ; 164454.938536378 ; 1372221.0125320838 ; 9824591.213222602 ; 0.0
85 ; 21507.227116231883 ; 165901.98465682843 ; 1393819.8980933384 ; 9989046.15175898 ; 0.0
86 ; 21822.623225174608 ; 167352.85480164937 ; 1415327.1252095702 ; 1.0154948136415808E7 ; 0.0
87 ; 21643.633687199435 ; 168807.34130791205 ; 1437149.7484347448 ; 1.0322300991217457E7 ; 0.0
88 ; 21558.17647054566 ; 170265.24215445927 ; 1458793.382121944 ; 1.0491108332525369E7 ; 0.0
89 ; 21667.84167746678 ; 171726.36077262711 ; 1480351.5585924897 ; 1.0661373574679827E7 ; 0.0
90 ; 21579.960256422873 ; 173190.5058626961 ; 1502019.4002699566 ; 1.0833099935452454E7 ; 0.0
91 ; 21451.59973403372 ; 174657.49121602208 ; 1523599.3605263794 ; 1.100629044131515E7 ; 0.0
92 ; 21432.475492233432 ; 176127.1355427798 ; 1545050.9602604131 ; 1.1180947932531172E7 ; 0.0
93 ; 21496.571894115998 ; 177599.26230523782 ; 1566483.4357526465 ; 1.1357075068073953E7 ; 0.0
94 ; 21456.216182884855 ; 179073.69955647213 ; 1587980.0076467625 ; 1.153467433037919E7 ; 0.0
95 ; 21297.025218045947 ; 180550.2797844171 ; 1609436.2238296473 ; 1.1713748029935662E7 ; 0.0
96 ; 21073.54159564545 ; 182028.83976114256 ; 1630733.2490476933 ; 1.1894298309720078E7 ; 0.0
97 ; 21241.40018548494 ; 183509.22039724057 ; 1651806.7906433388 ; 1.207632714948122E7 ; 0.0
98 ; 21182.572021896878 ; 184991.26660120033 ; 1673048.1908288237 ; 1.2259836369878462E7 ; 0.0
99 ; 20937.887668566145 ; 186474.82714364497 ; 1694230.7628507207 ; 1.2444827636479663E7 ; 0.0
100 ; 20888.405609098587 ; 187959.7545263023 ; 1715168.6505192867 ; 1.2631302463623308E7 ; 0.0
101 ; 20703.842367471945 ; 189445.90485557792 ; 1736057.0561283852 ; 1.281926221814961E7 ; 0.0
102 ; 20898.7554515192 ; 190933.13772060024 ; 1756760.8984958571 ; 1.3008708123005187E7 ; 0.0
103 ; 20717.211512090635 ; 192421.31607560415 ; 1777659.6539473764 ; 1.3199641260725787E7 ; 0.0
104 ; 20616.074491871164 ; 193910.3061265226 ; 1798376.865459467 ; 1.3392062576801391E7 ; 0.0
105 ; 20367.678104153227 ; 195399.97722165374 ; 1818992.939951338 ; 1.3585972882927913E7 ; 0.0
106 ; 20143.64659371698 ; 196890.20174627495 ; 1839360.6180554912 ; 1.3781372860149566E7 ; 0.0
107 ; 20106.692912666134 ; 198380.85502107456 ; 1859504.2646492082 ; 1.3978263061895842E7 ; 0.0
108 ; 20077.469253014282 ; 199871.81520427478 ; 1879610.9575618743 ; 1.4176643916916916E7 ; 0.0
109 ; 19844.64093967784 ; 201362.9631973223 ; 1899688.4268148886 ; 1.437651573212119E7 ; 0.0
110 ; 19746.4926338009 ; 202854.18255402398 ; 1919533.0677545664 ; 1.4577878695318513E7 ; 0.0
111 ; 19602.013561254676 ; 204345.3593930092 ; 1939279.5603883674 ; 1.4780732877872536E7 ; 0.0
112 ; 19382.109423177306 ; 205836.38231340132 ; 1958881.573949622 ; 1.4985078237265546E7 ; 0.0
113 ; 19438.572228556695 ; 207327.14231358626 ; 1978263.6833727993 ; 1.5190914619578946E7 ; 0.0
114 ; 19279.81553964654 ; 208817.53271296533 ; 1997702.255601356 ; 1.5398241761892533E7 ; 0.0
115 ; 19205.952521948966 ; 210307.44907658763 ; 2016982.0711410025 ; 1.56070592946055E7 ; 0.0
116 ; 18892.15140215014 ; 211796.78914255477 ; 2036188.0236629515 ; 1.5817366743682086E7 ; 0.0
117 ; 18716.063400640123 ; 213285.45275209824 ; 2055080.1750651016 ; 1.6029163532824641E7 ; 0.0
118 ; 18742.90209533522 ; 214773.34178223013 ; 2073796.2384657417 ; 1.624244898557674E7 ; 0.0
119 ; 18364.86409092721 ; 216260.3600808731 ; 2092539.140561077 ; 1.645722232735897E7 ; 0.0
120 ; 18332.2020967565 ; 217746.4134043757 ; 2110904.004652004 ; 1.6673482687439844E7 ; 0.0
121 ; 18080.145196362504 ; 219231.4093573258 ; 2129236.206748761 ; 1.689122910084422E7 ; 0.0
122 ; 17949.714310275518 ; 220715.2573345748 ; 2147316.351945123 ; 1.7110460510201544E7 ; 0.0
123 ; 17743.13390950463 ; 222197.86846538945 ; 2165266.0662553986 ; 1.733117576753612E7 ; 0.0
124 ; 17508.97842323276 ; 223679.15555965176 ; 2183009.2001649034 ; 1.755337363600151E7 ; 0.0
125 ; 17405.01067126438 ; 225159.0330560286 ; 2200518.178588136 ; 1.777705279156116E7 ; 0.0
126 ; 17078.771295052087 ; 226637.41697203738 ; 2217923.1892594006 ; 1.800221182461719E7 ; 0.0
127 ; 17028.238907380706 ; 228114.22485593404 ; 2235001.9605544526 ; 1.8228849241589226E7 ; 0.0
128 ; 16857.80090523816 ; 229589.37574035625 ; 2252030.199461833 ; 1.845696346644516E7 ; 0.0
129 ; 16397.96412756426 ; 231062.79009765314 ; 2268888.0003670715 ; 1.8686552842185516E7 ; 0.0
130 ; 16099.86188998961 ; 232534.38979683816 ; 2285285.964494636 ; 1.891761563228317E7 ; 0.0
131 ; 16019.376312506038 ; 234004.09806210277 ; 2301385.8263846254 ; 1.9150150022080008E7 ; 0.0
132 ; 15767.533819007524 ; 235471.83943283162 ; 2317405.2026971313 ; 1.938415412014211E7 ; 0.0
133 ; 15521.490640723907 ; 236937.53972506197 ; 2333172.736516139 ; 1.961962595957494E7 ; 0.0
134 ; 15101.594514983915 ; 238401.12599433147 ; 2348694.227156863 ; 1.9856563499300003E7 ; 0.0
135 ; 14962.665165806458 ; 239862.52649986252 ; 2363795.821671847 ; 2.0094964625294335E7 ; 0.0
136 ; 14607.43187809013 ; 241321.67067003122 ; 2378758.4868376534 ; 2.03348271517942E7 ; 0.0
137 ; 14362.651809252386 ; 242778.48906907224 ; 2393365.9187157433 ; 2.057614882246423E7 ; 0.0
138 ; 14284.959209609278 ; 244232.91336497263 ; 2407728.5705249957 ; 2.0818927311533302E7 ; 0.0
139 ; 13772.850817933442 ; 245684.87629850936 ; 2422013.529734605 ; 2.1063160224898275E7 ; 0.0
140 ; 13631.014333175845 ; 247134.31165338663 ; 2435786.380552538 ; 2.1308845101196785E7 ; 0.0
141 ; 13404.912089210726 ; 248581.15422743183 ; 2449417.394885714 ; 2.155597941285017E7 ; 0.0
142 ; 13112.411757178315 ; 250025.33980480934 ; 2462822.306974925 ; 2.1804560567077603E7 ; 0.0
143 ; 12855.842284988998 ; 251466.80512921457 ; 2475934.7187321032 ; 2.2054585906882413E7 ; 0.0
144 ; 12590.685631918268 ; 252905.48787800956 ; 2488790.5610170923 ; 2.2306052712011628E7 ; 0.0
145 ; 12517.973643727913 ; 254341.32663726676 ; 2501381.2466490106 ; 2.2558958199889638E7 ; 0.0
146 ; 12466.024051131584 ; 255774.26087768437 ; 2513899.2202927386 ; 2.2813299526526906E7 ; 0.0
147 ; 12292.547069377397 ; 257204.23093134275 ; 2526365.2443438703 ; 2.306907378740459E7 ; 0.0
148 ; 12247.084175338388 ; 258631.1779692685 ; 2538657.7914132476 ; 2.332627801833593E7 ; 0.0
149 ; 12014.045797374843 ; 260055.04397977717 ; 2550904.875588586 ; 2.35849091963052E7 ; 0.0
150 ; 11876.686174674818 ; 261475.77174756472 ; 2562918.921385961 ; 2.384496424028498E7 ; 0.0
151 ; 11875.99415103708 ; 262893.3048335204 ; 2574795.607560636 ; 2.4106440012032542E7 ; 0.0
152 ; 11890.24921472384 ; 264307.58755523333 ; 2586671.601711673 ; 2.4369333316866063E7 ; 0.0
153 ; 11749.73945951287 ; 265718.5649681684 ; 2598561.850926397 ; 2.4633640904421296E7 ; 0.0
154 ; 11728.006768738465 ; 267126.18284748535 ; 2610311.5903859097 ; 2.4899359469389465E7 ; 0.0
155 ; 11615.32615415989 ; 268530.38767047785 ; 2622039.597154648 ; 2.516648565223695E7 ; 0.0
156 ; 11630.26506756027 ; 269931.12659961 ; 2633654.923308808 ; 2.5435016039907426E7 ; 0.0
157 ; 11233.196795749125 ; 271328.3474661278 ; 2645285.188376368 ; 2.5704947166507035E7 ; 0.0
158 ; 11388.084505479588 ; 272721.9987542243 ; 2656518.385172117 ; 2.597627551397316E7 ; 0.0
159 ; 11317.29756174325 ; 274112.0295857393 ; 2667906.469677597 ; 2.6248997512727387E7 ; 0.0
160 ; 11208.760456402957 ; 275498.3897053733 ; 2679223.76723934 ; 2.6523109542313125E7 ; 0.0
161 ; 10874.30104923582 ; 276881.0294663965 ; 2690432.527695743 ; 2.67986079320185E7 ; 0.0
162 ; 10769.024909102138 ; 278259.8998168356 ; 2701306.8287449786 ; 2.7075488961484898E7 ; 0.0
163 ; 10744.119792901207 ; 279634.9522861221 ; 2712075.853654081 ; 2.7353748861301735E7 ; 0.0
164 ; 10560.882187121011 ; 281006.1389721826 ; 2722819.973446982 ; 2.7633383813587856E7 ; 0.0
165 ; 10538.506479406933 ; 282373.4125289584 ; 2733380.855634103 ; 2.7914389952560037E7 ; 0.0
166 ; 10425.204018214006 ; 283736.7261543374 ; 2743919.36211351 ; 2.8196763365088996E7 ; 0.0
167 ; 10244.531756387307 ; 285096.0335784829 ; 2754344.5661317236 ; 2.8480500091243334E7 ; 0.0
168 ; 10070.28983396992 ; 286451.2890525469 ; 2764589.0978881107 ; 2.8765596124821816E7 ; 0.0
169 ; 10103.183887895006 ; 287802.447337753 ; 2774659.3877220806 ; 2.905204741387436E7 ; 0.0
170 ; 9885.0709666703 ; 289149.46369483636 ; 2784762.571609976 ; 2.9339849861212116E7 ; 0.0
171 ; 9700.20763407823 ; 290492.2938738277 ; 2794647.642576646 ; 2.9628999324906953E7 ; 0.0
172 ; 9783.400687915519 ; 291830.8941041694 ; 2804347.8502107244 ; 2.991949161878078E7 ; 0.0
173 ; 9461.328180408575 ; 293165.2210851526 ; 2814131.25089864 ; 3.021132251288495E7 ; 0.0
174 ; 9555.656247132234 ; 294495.231976663 ; 2823592.5790790487 ; 3.0504487733970102E7 ; 0.0
175 ; 9836.667977141247 ; 295820.8843902252 ; 2833148.235326181 ; 3.0798982965946764E7 ; 0.0
176 ; 9705.604559866324 ; 297142.1363803358 ; 2842984.9033033224 ; 3.1094803850336988E7 ; 0.0
177 ; 9497.02713516642 ; 298458.9464360737 ; 2852690.5078631886 ; 3.1391945986717325E7 ; 0.0
178 ; 9775.075580382058 ; 299771.27347297943 ; 2862187.534998355 ; 3.16904049331534E7 ; 0.0
179 ; 9679.253201728123 ; 301079.07682519406 ; 2871962.610578737 ; 3.1990176206626378E7 ; 0.0
180 ; 9664.529994830495 ; 302382.31623784784 ; 2881641.8637804654 ; 3.2291255283451572E7 ; 0.0
181 ; 9769.333134776065 ; 303680.9518596906 ; 2891306.393775296 ; 3.259363759968942E7 ; 0.0
182 ; 9685.51319961976 ; 304974.9442359566 ; 2901075.726910072 ; 3.289731855154911E7 ; 0.0
183 ; 9660.76608060875 ; 306264.25430145406 ; 2910761.240109692 ; 3.320229349578507E7 ; 0.0
184 ; 9837.246911256978 ; 307548.84337387263 ; 2920422.0061903005 ; 3.3508557750086524E7 ; 0.0
185 ; 9878.716250955653 ; 308828.67314730264 ; 2930259.2531015575 ; 3.3816106593460396E7 ; 0.0
186 ; 9757.098077121685 ; 310103.70568595605 ; 2940137.969352513 ; 3.41249352666077E7 ; 0.0
187 ; 9899.208471686557 ; 311373.90341808554 ; 2949895.0674296347 ; 3.443503897229366E7 ; 0.0
188 ; 9803.494571137659 ; 312639.22913009295 ; 2959794.2759013213 ; 3.474641287571175E7 ; 0.0
189 ; 9967.893879852565 ; 313899.64596082154 ; 2969597.770472459 ; 3.5059052104841836E7 ; 0.0
190 ; 9954.04008431403 ; 315155.1173960261 ; 2979565.6643523118 ; 3.537295175080266E7 ; 0.0
191 ; 10082.332089519143 ; 316405.6072630143 ; 2989519.704436626 ; 3.5688106868198685E7 ; 0.0
192 ; 9941.163065608574 ; 317651.07972545474 ; 2999602.036526145 ; 3.60045124754617E7 ; 0.0
193 ; 10080.894516870547 ; 318891.49927834497 ; 3009543.1995917535 ; 3.632216355518715E7 ; 0.0
194 ; 10004.140726106463 ; 320126.8307431351 ; 3019624.094108624 ; 3.6641055054465495E7 ; 0.0
195 ; 10316.253103330402 ; 321357.0392630018 ; 3029628.23483473 ; 3.696118188520863E7 ; 0.0
196 ; 10068.666555811233 ; 322582.0902982667 ; 3039944.4879380604 ; 3.728253892447163E7 ; 0.0
197 ; 10079.81411938096 ; 323801.94962195685 ; 3050013.1544938716 ; 3.76051210147699E7 ; 0.0
198 ; 10045.053068464957 ; 325016.5833154996 ; 3060092.9686132525 ; 3.792892296439186E7 ; 0.0
199 ; 10156.100493035208 ; 326225.9577645504 ; 3070138.0216817176 ; 3.825393954770736E7 ; 0.0
200 ; 10168.78390055105 ; 327430.039654947 ; 3080294.122174753 ; 3.858016550547191E7 ; 0.0
201 ; 10118.295548596961 ; 328628.7959687873 ; 3090462.906075304 ; 3.8907595545126855E7 ; 0.0
202 ; 10137.6052682266 ; 329822.1939806267 ; 3100581.201623901 ; 3.923622434109564E7 ; 0.0
203 ; 10156.033182848616 ; 331010.2012537905 ; 3110718.8068921273 ; 3.956604653507627E7 ; 0.0
204 ; 10086.026541017813 ; 332192.78563679836 ; 3120874.840074976 ; 3.989705673633006E7 ; 0.0
205 ; 10176.514000368506 ; 333369.91525989707 ; 3130960.866615994 ; 4.022924952196686E7 ; 0.0
206 ; 10299.55431269839 ; 334541.55853169784 ; 3141137.380616362 ; 4.056261943722676E7 ; 0.0
207 ; 10348.4180302059 ; 335707.68413591536 ; 3151436.9349290607 ; 4.089716099575846E7 ; 0.0
208 ; 10197.886552579628 ; 336868.2610282053 ; 3161785.352959267 ; 4.123286867989437E7 ; 0.0
209 ; 10404.06658297118 ; 338023.2584330961 ; 3171983.2395118466 ; 4.156973694092258E7 ; 0.0
210 ; 10367.704128399084 ; 339172.6458410148 ; 3182387.306094818 ; 4.190776019935568E7 ; 0.0
211 ; 10327.566101118047 ; 340316.3930054 ; 3192755.010223217 ; 4.2246932845196694E7 ; 0.0
212 ; 10370.045201985457 ; 341454.46993990307 ; 3203082.576324335 ; 4.2587249238202095E7 ; 0.0
