CSV File for the City 2 on Day 221
1 - Minute m 
2 - Power Consumed at minute m 
3 - Power Produced at minute m 
4 - Energy Consumed since the beginning of the day 
5 - Energy Produced since the beginning of the day 
6 - Energy Lost since the beginning of the day on lines starting from the city
 
0 ; 4358.834571937326 ; 34178.0966485106 ; 0.0 ; 0.0 ; 0.0
1 ; 5107.777658448473 ; 34178.0966485106 ; 4358.834571937326 ; 34178.0966485106 ; 0.0
2 ; 5582.593737162264 ; 34178.0966485106 ; 9466.6122303858 ; 68356.1932970212 ; 0.0
3 ; 6232.973458415019 ; 34178.0966485106 ; 15049.205967548063 ; 102534.28994553178 ; 0.0
4 ; 6733.274582983068 ; 34178.0966485106 ; 21282.179425963084 ; 136712.3865940424 ; 0.0
5 ; 7206.403538209528 ; 34178.0966485106 ; 28015.45400894615 ; 170890.483242553 ; 0.0
6 ; 7740.948397433746 ; 34178.0966485106 ; 35221.85754715568 ; 205068.5798910636 ; 0.0
7 ; 8173.622038632697 ; 34178.0966485106 ; 42962.80594458943 ; 239246.6765395742 ; 0.0
8 ; 8744.690321778073 ; 34178.0966485106 ; 51136.42798322213 ; 273424.7731880848 ; 0.0
9 ; 9256.299934949908 ; 34178.0966485106 ; 59881.1183050002 ; 307602.8698365954 ; 0.0
10 ; 9786.751371601858 ; 34178.0966485106 ; 69137.41823995012 ; 341780.966485106 ; 0.0
11 ; 10560.643009196538 ; 34178.0966485106 ; 78924.16961155197 ; 375959.0631336166 ; 0.0
12 ; 10777.960993425084 ; 34178.0966485106 ; 89484.8126207485 ; 410137.1597821272 ; 0.0
13 ; 11350.82703943034 ; 34178.0966485106 ; 100262.77361417358 ; 444315.2564306378 ; 0.0
14 ; 11780.450490942512 ; 34178.0966485106 ; 111613.60065360392 ; 478493.3530791484 ; 0.0
15 ; 12169.374681955644 ; 34178.0966485106 ; 123394.05114454644 ; 512671.449727659 ; 0.0
16 ; 12569.275911458562 ; 34178.0966485106 ; 135563.4258265021 ; 546849.5463761695 ; 0.0
17 ; 13175.677897632886 ; 34178.0966485106 ; 148132.70173796066 ; 581027.6430246801 ; 0.0
18 ; 13532.471625032802 ; 34178.0966485106 ; 161308.37963559353 ; 615205.7396731906 ; 0.0
19 ; 14115.575213994718 ; 34178.0966485106 ; 174840.85126062634 ; 649383.8363217012 ; 0.0
20 ; 14480.426787556065 ; 34178.0966485106 ; 188956.42647462105 ; 683561.9329702117 ; 0.0
21 ; 15121.943197264647 ; 34178.0966485106 ; 203436.85326217712 ; 717740.0296187223 ; 0.0
22 ; 15505.892815430805 ; 34178.0966485106 ; 218558.79645944177 ; 751918.1262672328 ; 0.0
23 ; 15983.125674097482 ; 34178.0966485106 ; 234064.68927487257 ; 786096.2229157434 ; 0.0
24 ; 16222.221250917062 ; 34178.0966485106 ; 250047.81494897004 ; 820274.3195642539 ; 0.0
25 ; 16664.259927528507 ; 34178.0966485106 ; 266270.0361998871 ; 854452.4162127645 ; 0.0
26 ; 17009.401464369716 ; 34178.0966485106 ; 282934.2961274156 ; 888630.512861275 ; 0.0
27 ; 17434.242735676547 ; 34178.0966485106 ; 299943.69759178534 ; 922808.6095097855 ; 0.0
28 ; 18032.759102307205 ; 34178.0966485106 ; 317377.94032746187 ; 956986.7061582961 ; 0.0
29 ; 18011.882862574403 ; 34178.0966485106 ; 335410.69942976907 ; 991164.8028068066 ; 0.0
30 ; 18499.460110462234 ; 34178.0966485106 ; 353422.5822923435 ; 1025342.8994553172 ; 0.0
31 ; 18914.796376233367 ; 34178.0966485106 ; 371922.0424028057 ; 1059520.9961038278 ; 0.0
32 ; 19406.5616165675 ; 34178.0966485106 ; 390836.8387790391 ; 1093699.0927523384 ; 0.0
33 ; 19619.446099076587 ; 34178.0966485106 ; 410243.4003956066 ; 1127877.189400849 ; 0.0
34 ; 19987.59934462542 ; 34178.0966485106 ; 429862.8464946832 ; 1162055.2860493595 ; 0.0
35 ; 20359.298164577493 ; 34178.0966485106 ; 449850.4458393086 ; 1196233.38269787 ; 0.0
36 ; 20682.668181602035 ; 34178.0966485106 ; 470209.7440038861 ; 1230411.4793463806 ; 0.0
37 ; 21048.570692818077 ; 34178.0966485106 ; 490892.41218548815 ; 1264589.575994891 ; 0.0
38 ; 21172.678691673267 ; 34178.0966485106 ; 511940.98287830624 ; 1298767.6726434017 ; 0.0
39 ; 21431.115377071994 ; 34178.0966485106 ; 533113.6615699795 ; 1332945.7692919122 ; 0.0
40 ; 21765.74783502807 ; 34178.0966485106 ; 554544.7769470515 ; 1367123.8659404228 ; 0.0
41 ; 22133.808128117475 ; 34178.0966485106 ; 576310.5247820796 ; 1401301.9625889333 ; 0.0
42 ; 22504.701486206577 ; 34178.0966485106 ; 598444.3329101971 ; 1435480.0592374438 ; 0.0
43 ; 22658.324086231165 ; 34178.0966485106 ; 620949.0343964037 ; 1469658.1558859544 ; 0.0
44 ; 22917.726706156514 ; 34178.0966485106 ; 643607.3584826349 ; 1503836.252534465 ; 0.0
45 ; 23303.03538112439 ; 34178.0966485106 ; 666525.0851887914 ; 1538014.3491829755 ; 0.0
46 ; 23472.228251438086 ; 34178.0966485106 ; 689828.1205699157 ; 1572192.445831486 ; 0.0
47 ; 23662.91343690454 ; 34178.0966485106 ; 713300.3488213539 ; 1606370.5424799966 ; 0.0
48 ; 24146.021600922195 ; 34178.0966485106 ; 736963.2622582584 ; 1640548.639128507 ; 0.0
49 ; 24161.11622255527 ; 34178.0966485106 ; 761109.2838591806 ; 1674726.7357770177 ; 0.0
50 ; 24396.135008281624 ; 34178.0966485106 ; 785270.4000817359 ; 1708904.8324255282 ; 0.0
51 ; 24701.441751976774 ; 34178.0966485106 ; 809666.5350900176 ; 1743082.9290740388 ; 0.0
52 ; 24906.56975809496 ; 34178.0966485106 ; 834367.9768419943 ; 1777261.0257225493 ; 0.0
53 ; 25239.53292982129 ; 34178.0966485106 ; 859274.5466000893 ; 1811439.1223710598 ; 0.0
54 ; 25283.266396907744 ; 34178.0966485106 ; 884514.0795299106 ; 1845617.2190195704 ; 0.0
55 ; 25615.762794447794 ; 34178.0966485106 ; 909797.3459268183 ; 1879795.315668081 ; 0.0
56 ; 25712.484413777598 ; 34178.0966485106 ; 935413.1087212662 ; 1913973.4123165915 ; 0.0
57 ; 25877.496129395615 ; 34178.0966485106 ; 961125.5931350437 ; 1948151.508965102 ; 0.0
58 ; 25881.820004363177 ; 34178.0966485106 ; 987003.0892644394 ; 1982329.6056136126 ; 0.0
59 ; 26268.569691690136 ; 34178.0966485106 ; 1012884.9092688026 ; 2016507.702262123 ; 0.0
60 ; 26449.152716428387 ; 34178.0966485106 ; 1039153.4789604928 ; 2050685.7989106337 ; 0.0
61 ; 26584.343854448605 ; 34178.0966485106 ; 1065602.6316769212 ; 2084863.8955591442 ; 0.0
62 ; 26766.849533156335 ; 34178.0966485106 ; 1092186.9755313697 ; 2119041.9922076548 ; 0.0
63 ; 26778.262465167332 ; 34178.0966485106 ; 1118953.825064526 ; 2153220.0888561653 ; 0.0
64 ; 26992.634848105157 ; 34178.0966485106 ; 1145732.0875296933 ; 2187398.185504676 ; 0.0
65 ; 27118.7925739743 ; 34178.0966485106 ; 1172724.7223777985 ; 2221576.2821531864 ; 0.0
66 ; 27235.48087744283 ; 34178.0966485106 ; 1199843.5149517728 ; 2255754.378801697 ; 0.0
67 ; 27216.137115828682 ; 34178.0966485106 ; 1227078.9958292155 ; 2289932.4754502075 ; 0.0
68 ; 27339.48202718655 ; 34178.0966485106 ; 1254295.1329450442 ; 2324110.572098718 ; 0.0
69 ; 27579.105377345568 ; 34178.0966485106 ; 1281634.6149722307 ; 2358288.6687472286 ; 0.0
70 ; 27583.97054585945 ; 34178.0966485106 ; 1309213.7203495763 ; 2392466.765395739 ; 0.0
71 ; 27756.151373030993 ; 34178.0966485106 ; 1336797.6908954359 ; 2426644.8620442497 ; 0.0
72 ; 27836.890610107734 ; 34178.0966485106 ; 1364553.842268467 ; 2460822.95869276 ; 0.0
73 ; 27705.47279080879 ; 34178.0966485106 ; 1392390.7328785746 ; 2495001.0553412708 ; 0.0
74 ; 27781.41444862444 ; 34178.0966485106 ; 1420096.2056693835 ; 2529179.1519897813 ; 0.0
75 ; 27903.074593959576 ; 34178.0966485106 ; 1447877.620118008 ; 2563357.248638292 ; 0.0
76 ; 27921.345243828153 ; 34178.0966485106 ; 1475780.6947119676 ; 2597535.3452868024 ; 0.0
77 ; 28136.408555738184 ; 34178.0966485106 ; 1503702.0399557957 ; 2631713.441935313 ; 0.0
78 ; 28069.85708451239 ; 34178.0966485106 ; 1531838.448511534 ; 2665891.5385838235 ; 0.0
79 ; 28015.46894887313 ; 34178.0966485106 ; 1559908.3055960464 ; 2700069.635232334 ; 0.0
80 ; 28209.114731913032 ; 34178.0966485106 ; 1587923.7745449196 ; 2734247.7318808446 ; 0.0
81 ; 28142.73270653588 ; 34178.0966485106 ; 1616132.8892768326 ; 2768425.828529355 ; 0.0
82 ; 28052.26273612051 ; 34178.0966485106 ; 1644275.6219833684 ; 2802603.9251778657 ; 0.0
83 ; 28111.228533753096 ; 34178.0966485106 ; 1672327.884719489 ; 2836782.021826376 ; 0.0
84 ; 28133.202496831575 ; 34178.0966485106 ; 1700439.113253242 ; 2870960.1184748868 ; 0.0
85 ; 28062.560309352088 ; 34178.0966485106 ; 1728572.3157500736 ; 2905138.2151233973 ; 0.0
86 ; 28056.414411454287 ; 34178.0966485106 ; 1756634.8760594258 ; 2939316.311771908 ; 0.0
87 ; 27953.080915450726 ; 34178.0966485106 ; 1784691.29047088 ; 2973494.4084204184 ; 0.0
88 ; 27987.278672502038 ; 34178.0966485106 ; 1812644.3713863308 ; 3007672.505068929 ; 0.0
89 ; 28010.736841494345 ; 34178.0966485106 ; 1840631.650058833 ; 3041850.6017174395 ; 0.0
90 ; 27860.5117949175 ; 34178.0966485106 ; 1868642.3869003274 ; 3076028.69836595 ; 0.0
91 ; 27905.902214840084 ; 34178.0966485106 ; 1896502.898695245 ; 3110206.7950144606 ; 0.0
92 ; 27723.77616764995 ; 34178.0966485106 ; 1924408.800910085 ; 3144384.891662971 ; 0.0
93 ; 27596.224856933502 ; 34178.0966485106 ; 1952132.577077735 ; 3178562.9883114817 ; 0.0
94 ; 27722.043420586437 ; 34178.0966485106 ; 1979728.8019346686 ; 3212741.084959992 ; 0.0
95 ; 27574.397402352304 ; 34178.0966485106 ; 2007450.845355255 ; 3246919.1816085028 ; 0.0
96 ; 27442.906045395855 ; 34178.0966485106 ; 2035025.2427576073 ; 3281097.2782570133 ; 0.0
97 ; 27285.120787110754 ; 34178.0966485106 ; 2062468.1488030031 ; 3315275.374905524 ; 0.0
98 ; 27148.106863357338 ; 34178.0966485106 ; 2089753.2695901138 ; 3349453.4715540344 ; 0.0
99 ; 27170.328195584992 ; 34178.0966485106 ; 2116901.376453471 ; 3383631.568202545 ; 0.0
100 ; 27014.186107243884 ; 34178.0966485106 ; 2144071.704649056 ; 3417809.6648510555 ; 0.0
101 ; 26769.827453198493 ; 34178.0966485106 ; 2171085.8907562997 ; 3451987.761499566 ; 0.0
102 ; 26827.122016716232 ; 34178.0966485106 ; 2197855.718209498 ; 3486165.8581480766 ; 0.0
103 ; 26459.95772008277 ; 34178.0966485106 ; 2224682.8402262144 ; 3520343.954796587 ; 0.0
104 ; 26572.246093016558 ; 34178.0966485106 ; 2251142.797946297 ; 3554522.0514450977 ; 0.0
105 ; 26228.588976314473 ; 34178.0966485106 ; 2277715.0440393137 ; 3588700.148093608 ; 0.0
106 ; 26204.75848996221 ; 34178.0966485106 ; 2303943.633015628 ; 3622878.2447421188 ; 0.0
107 ; 26170.694472972315 ; 34178.0966485106 ; 2330148.39150559 ; 3657056.3413906293 ; 0.0
108 ; 25913.69981170392 ; 34178.0966485106 ; 2356319.0859785625 ; 3691234.43803914 ; 0.0
109 ; 25417.80622946441 ; 34178.0966485106 ; 2382232.7857902665 ; 3725412.5346876504 ; 0.0
110 ; 25453.862502930788 ; 34178.0966485106 ; 2407650.5920197307 ; 3759590.631336161 ; 0.0
111 ; 25144.007099274004 ; 34178.0966485106 ; 2433104.4545226614 ; 3793768.7279846715 ; 0.0
112 ; 25091.58113649705 ; 34178.0966485106 ; 2458248.4616219355 ; 3827946.824633182 ; 0.0
113 ; 24607.83702314017 ; 34178.0966485106 ; 2483340.0427584327 ; 3862124.9212816926 ; 0.0
114 ; 24533.745601400664 ; 34178.0966485106 ; 2507947.879781573 ; 3896303.017930203 ; 0.0
115 ; 24470.367765415733 ; 34178.0966485106 ; 2532481.625382974 ; 3930481.1145787137 ; 0.0
116 ; 24295.66971038333 ; 34178.0966485106 ; 2556951.9931483897 ; 3964659.211227224 ; 0.0
117 ; 23868.277041824043 ; 34178.0966485106 ; 2581247.662858773 ; 3998837.3078757348 ; 0.0
118 ; 23584.503148493175 ; 34178.0966485106 ; 2605115.939900597 ; 4033015.4045242453 ; 0.0
119 ; 23350.71390293561 ; 34178.0966485106 ; 2628700.4430490904 ; 4067193.501172756 ; 0.0
120 ; 23037.264125061065 ; 34178.0966485106 ; 2652051.156952026 ; 4101371.5978212664 ; 0.0
121 ; 22826.470207127502 ; 34178.0966485106 ; 2675088.421077087 ; 4135549.694469777 ; 0.0
122 ; 22485.159696836487 ; 34178.0966485106 ; 2697914.8912842143 ; 4169727.7911182875 ; 0.0
123 ; 22377.257985581342 ; 34178.0966485106 ; 2720400.050981051 ; 4203905.887766798 ; 0.0
124 ; 21901.723082949145 ; 34178.0966485106 ; 2742777.308966632 ; 4238083.984415309 ; 0.0
125 ; 21689.157635246338 ; 34178.0966485106 ; 2764679.032049581 ; 4272262.081063819 ; 0.0
126 ; 21251.144643778942 ; 34178.0966485106 ; 2786368.1896848273 ; 4306440.17771233 ; 0.0
127 ; 21168.692852914555 ; 34178.0966485106 ; 2807619.3343286063 ; 4340618.27436084 ; 0.0
128 ; 20552.417661070882 ; 34178.0966485106 ; 2828788.0271815206 ; 4374796.371009351 ; 0.0
129 ; 20484.538818245313 ; 34178.0966485106 ; 2849340.4448425914 ; 4408974.467657861 ; 0.0
130 ; 20232.60417628789 ; 34178.0966485106 ; 2869824.9836608367 ; 4443152.564306372 ; 0.0
131 ; 19826.384318999022 ; 34178.0966485106 ; 2890057.5878371247 ; 4477330.660954882 ; 0.0
132 ; 19593.52524613676 ; 34178.0966485106 ; 2909883.9721561237 ; 4511508.757603393 ; 0.0
133 ; 18917.41411698674 ; 34178.0966485106 ; 2929477.4974022605 ; 4545686.8542519035 ; 0.0
134 ; 18668.92880559398 ; 34178.0966485106 ; 2948394.911519247 ; 4579864.950900414 ; 0.0
135 ; 18262.56729341469 ; 34178.0966485106 ; 2967063.840324841 ; 4614043.047548925 ; 0.0
136 ; 17873.378373857973 ; 34178.0966485106 ; 2985326.407618256 ; 4648221.144197435 ; 0.0
137 ; 17586.981145605296 ; 34178.0966485106 ; 3003199.785992114 ; 4682399.240845946 ; 0.0
138 ; 17246.39284929593 ; 34178.0966485106 ; 3020786.7671377193 ; 4716577.337494456 ; 0.0
139 ; 16839.269842769198 ; 34178.0966485106 ; 3038033.159987015 ; 4750755.434142967 ; 0.0
140 ; 16554.490493275258 ; 34178.0966485106 ; 3054872.429829784 ; 4784933.530791477 ; 0.0
141 ; 16153.682876876715 ; 34178.0966485106 ; 3071426.9203230594 ; 4819111.627439988 ; 0.0
142 ; 15691.55288751479 ; 34178.0966485106 ; 3087580.603199936 ; 4853289.724088498 ; 0.0
143 ; 15303.93270061751 ; 34178.0966485106 ; 3103272.1560874507 ; 4887467.820737009 ; 0.0
144 ; 14680.579311808302 ; 34178.0966485106 ; 3118576.0887880684 ; 4921645.9173855195 ; 0.0
145 ; 14824.870974145919 ; 34178.0966485106 ; 3133256.6680998765 ; 4955824.01403403 ; 0.0
146 ; 14504.886483595055 ; 34178.0966485106 ; 3148081.5390740223 ; 4990002.110682541 ; 0.0
147 ; 14435.701453008385 ; 34178.0966485106 ; 3162586.4255576176 ; 5024180.207331051 ; 0.0
148 ; 14365.502270026584 ; 34178.0966485106 ; 3177022.127010626 ; 5058358.303979562 ; 0.0
149 ; 14246.040644926394 ; 34178.0966485106 ; 3191387.6292806524 ; 5092536.400628072 ; 0.0
150 ; 14114.526143211293 ; 34178.0966485106 ; 3205633.669925579 ; 5126714.497276583 ; 0.0
151 ; 13844.642777418418 ; 34178.0966485106 ; 3219748.1960687903 ; 5160892.593925093 ; 0.0
152 ; 14042.423711993899 ; 34178.0966485106 ; 3233592.8388462085 ; 5195070.690573604 ; 0.0
153 ; 13528.331385551137 ; 34178.0966485106 ; 3247635.2625582023 ; 5229248.787222114 ; 0.0
154 ; 13582.657754529073 ; 34178.0966485106 ; 3261163.5939437533 ; 5263426.883870625 ; 0.0
155 ; 13379.618060372162 ; 34178.0966485106 ; 3274746.2516982825 ; 5297604.9805191355 ; 0.0
156 ; 13268.728856589898 ; 34178.0966485106 ; 3288125.869758655 ; 5331783.077167646 ; 0.0
157 ; 13243.847547076988 ; 34178.0966485106 ; 3301394.598615245 ; 5365961.173816157 ; 0.0
158 ; 13131.521566044219 ; 34178.0966485106 ; 3314638.446162322 ; 5400139.270464667 ; 0.0
159 ; 12801.30761758161 ; 34178.0966485106 ; 3327769.967728366 ; 5434317.367113178 ; 0.0
160 ; 12726.265943981243 ; 34178.0966485106 ; 3340571.2753459476 ; 5468495.463761688 ; 0.0
161 ; 12482.849959936235 ; 34178.0966485106 ; 3353297.541289929 ; 5502673.560410199 ; 0.0
162 ; 12409.036254159937 ; 34178.0966485106 ; 3365780.3912498653 ; 5536851.657058709 ; 0.0
163 ; 12317.418039836635 ; 34178.0966485106 ; 3378189.4275040254 ; 5571029.75370722 ; 0.0
164 ; 12109.709252588347 ; 34178.0966485106 ; 3390506.845543862 ; 5605207.85035573 ; 0.0
165 ; 11985.489282598925 ; 34178.0966485106 ; 3402616.5547964503 ; 5639385.947004241 ; 0.0
166 ; 11640.37968464958 ; 34178.0966485106 ; 3414602.044079049 ; 5673564.0436527515 ; 0.0
167 ; 11437.782305796918 ; 34178.0966485106 ; 3426242.4237636984 ; 5707742.140301262 ; 0.0
168 ; 11474.381751852372 ; 34178.0966485106 ; 3437680.2060694955 ; 5741920.236949773 ; 0.0
169 ; 11191.688801026836 ; 34178.0966485106 ; 3449154.587821348 ; 5776098.333598283 ; 0.0
170 ; 11208.547112048538 ; 34178.0966485106 ; 3460346.276622375 ; 5810276.430246794 ; 0.0
171 ; 10929.217838479217 ; 34178.0966485106 ; 3471554.8237344236 ; 5844454.526895304 ; 0.0
172 ; 10568.420171112011 ; 34178.0966485106 ; 3482484.041572903 ; 5878632.623543815 ; 0.0
173 ; 10600.38613236202 ; 34178.0966485106 ; 3493052.4617440146 ; 5912810.720192325 ; 0.0
174 ; 10786.197316247495 ; 34178.0966485106 ; 3503652.8478763765 ; 5946988.816840836 ; 0.0
175 ; 10638.18632391095 ; 34178.0966485106 ; 3514439.045192624 ; 5981166.913489346 ; 0.0
176 ; 10537.439165395388 ; 34178.0966485106 ; 3525077.231516535 ; 6015345.010137857 ; 0.0
177 ; 10549.731047645006 ; 34178.0966485106 ; 3535614.67068193 ; 6049523.1067863675 ; 0.0
178 ; 10695.690615731402 ; 34178.0966485106 ; 3546164.4017295754 ; 6083701.203434878 ; 0.0
179 ; 10737.827535404012 ; 34178.0966485106 ; 3556860.0923453066 ; 6117879.300083389 ; 0.0
180 ; 10929.077888133135 ; 34178.0966485106 ; 3567597.9198807105 ; 6152057.396731899 ; 0.0
181 ; 10959.984839468034 ; 34178.0966485106 ; 3578526.9977688435 ; 6186235.49338041 ; 0.0
182 ; 10706.382446706819 ; 34178.0966485106 ; 3589486.982608312 ; 6220413.59002892 ; 0.0
183 ; 10918.067386156763 ; 34178.0966485106 ; 3600193.3650550186 ; 6254591.686677431 ; 0.0
184 ; 10861.001019954887 ; 34178.0966485106 ; 3611111.4324411754 ; 6288769.783325941 ; 0.0
185 ; 10855.725949250387 ; 34178.0966485106 ; 3621972.43346113 ; 6322947.879974452 ; 0.0
186 ; 11069.712603376605 ; 34178.0966485106 ; 3632828.1594103803 ; 6357125.976622962 ; 0.0
187 ; 11006.15567006981 ; 34178.0966485106 ; 3643897.872013757 ; 6391304.073271473 ; 0.0
188 ; 11115.653599116044 ; 34178.0966485106 ; 3654904.0276838266 ; 6425482.1699199835 ; 0.0
189 ; 11162.609592322493 ; 34178.0966485106 ; 3666019.6812829426 ; 6459660.266568494 ; 0.0
190 ; 11057.866590812453 ; 34178.0966485106 ; 3677182.2908752654 ; 6493838.363217005 ; 0.0
191 ; 11110.016880896474 ; 34178.0966485106 ; 3688240.1574660777 ; 6528016.459865515 ; 0.0
192 ; 11056.876493607202 ; 34178.0966485106 ; 3699350.174346974 ; 6562194.556514026 ; 0.0
193 ; 11033.28009170067 ; 34178.0966485106 ; 3710407.0508405813 ; 6596372.653162536 ; 0.0
194 ; 11275.923665208722 ; 34178.0966485106 ; 3721440.330932282 ; 6630550.749811047 ; 0.0
195 ; 11266.36352299647 ; 34178.0966485106 ; 3732716.2545974907 ; 6664728.846459557 ; 0.0
196 ; 11361.913126661537 ; 34178.0966485106 ; 3743982.6181204873 ; 6698906.943108068 ; 0.0
197 ; 11373.79287955024 ; 34178.0966485106 ; 3755344.5312471488 ; 6733085.039756578 ; 0.0
198 ; 11364.325890879283 ; 34178.0966485106 ; 3766718.324126699 ; 6767263.136405089 ; 0.0
199 ; 11532.759126570883 ; 34178.0966485106 ; 3778082.650017578 ; 6801441.2330535995 ; 0.0
200 ; 11328.780559075092 ; 34178.0966485106 ; 3789615.409144149 ; 6835619.32970211 ; 0.0
201 ; 11581.160963214428 ; 34178.0966485106 ; 3800944.189703224 ; 6869797.426350621 ; 0.0
202 ; 11652.025811472397 ; 34178.0966485106 ; 3812525.3506664387 ; 6903975.522999131 ; 0.0
203 ; 11545.487123814864 ; 34178.0966485106 ; 3824177.376477911 ; 6938153.619647642 ; 0.0
204 ; 11567.483204541622 ; 34178.0966485106 ; 3835722.863601726 ; 6972331.716296152 ; 0.0
205 ; 11502.371949423556 ; 34178.0966485106 ; 3847290.3468062677 ; 7006509.812944663 ; 0.0
206 ; 11617.605182639823 ; 34178.0966485106 ; 3858792.7187556913 ; 7040687.909593173 ; 0.0
207 ; 11714.507698531277 ; 34178.0966485106 ; 3870410.323938331 ; 7074866.006241684 ; 0.0
208 ; 11589.389900721104 ; 34178.0966485106 ; 3882124.8316368624 ; 7109044.102890194 ; 0.0
209 ; 11862.490758555548 ; 34178.0966485106 ; 3893714.2215375835 ; 7143222.199538705 ; 0.0
210 ; 11835.017078991368 ; 34178.0966485106 ; 3905576.712296139 ; 7177400.2961872155 ; 0.0
211 ; 11736.46972665836 ; 34178.0966485106 ; 3917411.7293751305 ; 7211578.392835726 ; 0.0
212 ; 11728.46849192661 ; 34178.0966485106 ; 3929148.199101789 ; 7245756.489484237 ; 0.0
213 ; 11788.78223487592 ; 34178.0966485106 ; 3940876.6675937157 ; 7279934.586132747 ; 0.0
214 ; 11817.988782893533 ; 34178.0966485106 ; 3952665.4498285917 ; 7314112.682781258 ; 0.0
215 ; 11760.471231478077 ; 34178.0966485106 ; 3964483.438611485 ; 7348290.779429768 ; 0.0
216 ; 12020.018855513525 ; 34178.0966485106 ; 3976243.9098429633 ; 7382468.876078279 ; 0.0
217 ; 12036.167964375174 ; 34178.0966485106 ; 3988263.928698477 ; 7416646.972726789 ; 0.0
218 ; 12344.202908561885 ; 34178.0966485106 ; 4000300.096662852 ; 7450825.0693753 ; 0.0
