CSV File for the City 3 on Day 213
1 - Minute m 
2 - Power Consumed at minute m 
3 - Power Produced at minute m 
4 - Energy Consumed since the beginning of the day 
5 - Energy Produced since the beginning of the day 
6 - Energy Lost since the beginning of the day on lines starting from the city
 
0 ; 3886.5745958174643 ; 40199.50819031224 ; 0.0 ; 0.0 ; 0.0
1 ; 4509.838986833407 ; 39682.991231010805 ; 3886.5745958174643 ; 40199.50819031224 ; 0.0
2 ; 4896.893044633184 ; 39214.97056724795 ; 8396.413582650872 ; 79882.49942132304 ; 0.0
3 ; 5404.252158793167 ; 38797.23754908863 ; 13293.306627284055 ; 119097.46998857099 ; 0.0
4 ; 5819.874146685451 ; 38431.46431395273 ; 18697.55878607722 ; 157894.70753765962 ; 0.0
5 ; 6294.429172589448 ; 38119.17485232319 ; 24517.432932762673 ; 196326.17185161234 ; 0.0
6 ; 6681.785044002504 ; 37861.7166580406 ; 30811.86210535212 ; 234445.34670393553 ; 0.0
7 ; 7260.721178142085 ; 37660.23406253015 ; 37493.64714935463 ; 272307.0633619761 ; 0.0
8 ; 7705.044710087954 ; 37515.644393493276 ; 44754.36832749671 ; 309967.2974245063 ; 0.0
9 ; 7989.58977032535 ; 37428.61806029641 ; 52459.413037584665 ; 347482.9418179996 ; 0.0
10 ; 8493.690106169737 ; 37399.56354375125 ; 60449.002807910016 ; 384911.559878296 ; 0.0
11 ; 8970.816304160258 ; 37428.61806029641 ; 68942.69291407976 ; 422311.12342204724 ; 0.0
12 ; 9363.52249056705 ; 37515.644393493276 ; 77913.50921824001 ; 459739.74148234364 ; 0.0
13 ; 9898.091003946252 ; 37660.23406253015 ; 87277.03170880706 ; 497255.38587583695 ; 0.0
14 ; 10181.648711943357 ; 37861.71665804048 ; 97175.1227127533 ; 534915.619938367 ; 0.0
15 ; 10772.205294492309 ; 38119.17485232319 ; 107356.77142469666 ; 572777.3365964076 ; 0.0
16 ; 11075.257634517768 ; 38431.46431395273 ; 118128.97671918897 ; 610896.5114487307 ; 0.0
17 ; 11407.974881500286 ; 38797.23754908852 ; 129204.23435370674 ; 649327.9757626834 ; 0.0
18 ; 11992.16142046533 ; 39214.970567248056 ; 140612.20923520703 ; 688125.213311772 ; 0.0
19 ; 12179.638971842765 ; 39682.991231010696 ; 152604.37065567236 ; 727340.18387902 ; 0.0
20 ; 12686.133761667037 ; 40199.50819031224 ; 164784.00962751513 ; 767023.1751100307 ; 0.0
21 ; 13084.065761651911 ; 40762.63940838755 ; 177470.14338918217 ; 807222.6833003429 ; 0.0
22 ; 13385.587424581747 ; 41370.43943923072 ; 190554.20915083407 ; 847985.3227087305 ; 0.0
23 ; 13792.16907535918 ; 42020.92479557113 ; 203939.79657541582 ; 889355.7621479612 ; 0.0
24 ; 14031.66955280903 ; 42712.09693309374 ; 217731.965650775 ; 931376.6869435323 ; 0.0
25 ; 14556.37321887957 ; 43441.962555535065 ; 231763.63520358404 ; 974088.783876626 ; 0.0
26 ; 14786.532769365567 ; 44208.551105138504 ; 246320.0084224636 ; 1017530.7464321611 ; 0.0
27 ; 15180.591776910103 ; 45009.929436931925 ; 261106.54119182916 ; 1061739.2975372996 ; 0.0
28 ; 15303.539262576993 ; 45844.2137804906 ; 276287.13296873926 ; 1106749.2269742314 ; 0.0
29 ; 15851.918287973076 ; 46709.5791694945 ; 291590.6722313163 ; 1152593.440754722 ; 0.0
30 ; 16094.640720239648 ; 47604.266569887346 ; 307442.59051928937 ; 1199303.0199242167 ; 0.0
31 ; 16396.029162014103 ; 48526.58796553851 ; 323537.23123952904 ; 1246907.286494104 ; 0.0
32 ; 16858.564463845865 ; 49474.92967028753 ; 339933.2604015431 ; 1295433.8744596425 ; 0.0
33 ; 17029.68332469554 ; 50447.7541314386 ; 356791.824865389 ; 1344908.80412993 ; 0.0
34 ; 17340.35636604414 ; 51443.600476139974 ; 373821.50819008454 ; 1395356.5582613687 ; 0.0
35 ; 17605.62235857728 ; 52461.084032038205 ; 391161.8645561287 ; 1446800.1587375086 ; 0.0
36 ; 17959.80595088613 ; 53498.89502992371 ; 408767.48691470595 ; 1499261.2427695468 ; 0.0
37 ; 18161.51842523335 ; 54555.796670911484 ; 426727.29286559206 ; 1552760.1377994705 ; 0.0
38 ; 18426.225501864767 ; 55630.62271561688 ; 444888.8112908254 ; 1607315.934470382 ; 0.0
39 ; 18702.125530511654 ; 56722.2747288425 ; 463315.03679269017 ; 1662946.557185999 ; 0.0
40 ; 19127.036253873004 ; 57829.71909119113 ; 482017.16232320183 ; 1719668.8319148414 ; 0.0
41 ; 19184.671928693064 ; 58951.98386912533 ; 501144.19857707486 ; 1777498.5510060326 ; 0.0
42 ; 19472.31101319801 ; 60088.15561745151 ; 520328.87050576793 ; 1836450.534875158 ; 0.0
43 ; 19810.2798275979 ; 61237.37617302036 ; 539801.181518966 ; 1896538.6904926095 ; 0.0
44 ; 19965.38482660424 ; 62398.83948547207 ; 559611.4613465639 ; 1957776.0666656299 ; 0.0
45 ; 20206.67697871107 ; 63571.78851995435 ; 579576.8461731682 ; 2020174.906151102 ; 0.0
46 ; 20414.779600903043 ; 64755.512257683644 ; 599783.5231518792 ; 2083746.6946710562 ; 0.0
47 ; 20622.790674819862 ; 65949.34281278445 ; 620198.3027527822 ; 2148502.20692874 ; 0.0
48 ; 20963.582691281517 ; 67152.65267781327 ; 640821.0934276021 ; 2214451.5497415243 ; 0.0
49 ; 21021.69134441294 ; 68364.85210554664 ; 661784.6761188837 ; 2281604.2024193374 ; 0.0
50 ; 21208.89155348869 ; 69585.38663079626 ; 682806.3674632966 ; 2349969.054524884 ; 0.0
51 ; 21497.968035568636 ; 70813.73473304001 ; 704015.2590167853 ; 2419554.4411556805 ; 0.0
52 ; 21697.52637889411 ; 72049.40563838827 ; 725513.2270523539 ; 2490368.1758887204 ; 0.0
53 ; 21828.758658844312 ; 73291.93725769823 ; 747210.753431248 ; 2562417.581527109 ; 0.0
54 ; 22145.933137191845 ; 74540.8942564099 ; 769039.5120900923 ; 2635709.518784807 ; 0.0
55 ; 22184.167282578404 ; 75795.86625081068 ; 791185.4452272841 ; 2710250.413041217 ; 0.0
56 ; 22177.148800560983 ; 77056.46612486144 ; 813369.6125098625 ; 2786046.2792920275 ; 0.0
57 ; 22523.53999658989 ; 78322.32846137742 ; 835546.7613104235 ; 2863102.745416889 ; 0.0
58 ; 22560.763373136677 ; 79593.10808119948 ; 858070.3013070134 ; 2941425.0738782664 ; 0.0
59 ; 22752.29325984521 ; 80868.47868397084 ; 880631.06468015 ; 3021018.181959466 ; 0.0
60 ; 22987.20090155786 ; 82148.1315842187 ; 903383.3579399952 ; 3101886.660643437 ; 0.0
61 ; 23103.59166481969 ; 83431.77453660207 ; 926370.558841553 ; 3184034.7922276556 ; 0.0
62 ; 23104.552221305017 ; 84719.13064440379 ; 949474.1505063728 ; 3267466.566764258 ; 0.0
63 ; 23283.42225220518 ; 86009.9373455984 ; 972578.7027276778 ; 3352185.6974086617 ; 0.0
64 ; 23557.71397771927 ; 87303.94547110656 ; 995862.124979883 ; 3438195.63475426 ; 0.0
65 ; 23559.112612362722 ; 88600.91837013798 ; 1019419.8389576023 ; 3525499.5802253666 ; 0.0
66 ; 23573.75134789844 ; 89900.63109782206 ; 1042978.951569965 ; 3614100.4985955046 ; 0.0
67 ; 23591.23576151533 ; 91202.8696606208 ; 1066552.7029178634 ; 3704001.1296933265 ; 0.0
68 ; 23916.539281356985 ; 92507.43031531102 ; 1090143.9386793787 ; 3795203.999353947 ; 0.0
69 ; 24030.515991624346 ; 93814.11891760211 ; 1114060.4779607358 ; 3887711.429669258 ; 0.0
70 ; 23896.42841766063 ; 95122.75031672999 ; 1138090.9939523602 ; 3981525.5485868603 ; 0.0
71 ; 23981.935245064982 ; 96433.1477926224 ; 1161987.4223700208 ; 4076648.29890359 ; 0.0
72 ; 24192.770171283675 ; 97745.14253247899 ; 1185969.3576150858 ; 4173081.4466962125 ; 0.0
73 ; 24272.28657329821 ; 99058.57314383768 ; 1210162.1277863695 ; 4270826.5892286915 ; 0.0
74 ; 24285.31262963501 ; 100373.28520141762 ; 1234434.4143596678 ; 4369885.1623725295 ; 0.0
75 ; 24496.100750136124 ; 101689.13082523033 ; 1258719.7269893028 ; 4470258.447573947 ; 0.0
76 ; 24432.896629898205 ; 103005.96828764037 ; 1283215.827739439 ; 4571947.578399177 ; 0.0
77 ; 24476.17305641533 ; 104323.66164723304 ; 1307648.724369337 ; 4674953.546686817 ; 0.0
78 ; 24221.14086260771 ; 105642.08040751056 ; 1332124.8974257524 ; 4779277.20833405 ; 0.0
79 ; 24382.84407999034 ; 106961.09919858756 ; 1356346.03828836 ; 4884919.288741561 ; 0.0
80 ; 24531.762124764602 ; 108280.59748020075 ; 1380728.8823683504 ; 4991880.387940148 ; 0.0
81 ; 24614.64274562206 ; 109600.45926447315 ; 1405260.644493115 ; 5100160.985420349 ; 0.0
82 ; 24452.27151067907 ; 110920.57285699724 ; 1429875.2872387369 ; 5209761.444684822 ; 0.0
83 ; 24511.951481738663 ; 112240.83061490819 ; 1454327.558749416 ; 5320682.017541819 ; 0.0
84 ; 24537.67209936895 ; 113561.12872072359 ; 1478839.5102311545 ; 5432922.848156728 ; 0.0
85 ; 24373.594662766794 ; 114881.36697081763 ; 1503377.1823305234 ; 5546483.976877452 ; 0.0
86 ; 24510.378903536315 ; 116201.44857748649 ; 1527750.7769932903 ; 5661365.343848269 ; 0.0
87 ; 24323.36264348319 ; 117521.27998363928 ; 1552261.1558968266 ; 5777566.792425756 ; 0.0
88 ; 24413.615991324117 ; 118840.77068922443 ; 1576584.5185403097 ; 5895088.072409396 ; 0.0
89 ; 24429.452417473938 ; 120159.83308856846 ; 1600998.134531634 ; 6013928.843098621 ; 0.0
90 ; 24367.954160054982 ; 121478.38231786471 ; 1625427.586949108 ; 6134088.676187189 ; 0.0
91 ; 24281.461878908107 ; 122796.3361121106 ; 1649795.5411091628 ; 6255567.058505054 ; 0.0
92 ; 24166.067375470568 ; 124113.61467084083 ; 1674077.002988071 ; 6378363.3946171645 ; 0.0
93 ; 24210.371230557103 ; 125430.14053205572 ; 1698243.0703635416 ; 6502477.0092880055 ; 0.0
94 ; 24077.509558371086 ; 126745.83845378662 ; 1722453.4415940987 ; 6627907.149820061 ; 0.0
95 ; 24018.39643266477 ; 128060.63530278298 ; 1746530.9511524697 ; 6754652.988273848 ; 0.0
96 ; 24027.8220296283 ; 129374.45994984283 ; 1770549.3475851344 ; 6882713.623576631 ; 0.0
97 ; 23755.1584498084 ; 130687.24317134377 ; 1794577.1696147628 ; 7012088.0835264735 ; 0.0
98 ; 23508.2679386672 ; 131998.91755656397 ; 1818332.3280645711 ; 7142775.326697817 ; 0.0
99 ; 23689.60942030838 ; 133309.41742041236 ; 1841840.5960032383 ; 7274774.244254381 ; 0.0
100 ; 23525.774205713 ; 134618.67872121435 ; 1865530.2054235467 ; 7408083.661674794 ; 0.0
101 ; 23388.70501061304 ; 135926.63898322565 ; 1889055.9796292598 ; 7542702.340396008 ; 0.0
102 ; 23333.058221846688 ; 137233.2372235689 ; 1912444.6846398728 ; 7678628.979379234 ; 0.0
103 ; 23157.934541384573 ; 138538.4138833107 ; 1935777.7428617193 ; 7815862.216602803 ; 0.0
104 ; 23076.456509691136 ; 139842.1107624151 ; 1958935.677403104 ; 7954400.630486114 ; 0.0
105 ; 23006.799395631107 ; 141144.27095833 ; 1982012.1339127952 ; 8094242.741248529 ; 0.0
106 ; 22707.240974416152 ; 142444.8388079777 ; 2005018.9333084263 ; 8235387.012206859 ; 0.0
107 ; 22611.163157459287 ; 143743.7598329391 ; 2027726.1742828425 ; 8377831.851014837 ; 0.0
108 ; 22443.307863690585 ; 145040.98068763205 ; 2050337.337440302 ; 8521575.610847775 ; 0.0
109 ; 22426.1199134028 ; 146336.44911030255 ; 2072780.6453039926 ; 8666616.591535406 ; 0.0
110 ; 22041.965183747114 ; 147630.1138766557 ; 2095206.7652173953 ; 8812953.04064571 ; 0.0
111 ; 21879.436006097436 ; 148921.9247559673 ; 2117248.7304011425 ; 8960583.154522365 ; 0.0
112 ; 21731.11916004942 ; 150211.83246952682 ; 2139128.16640724 ; 9109505.079278333 ; 0.0
113 ; 21720.285652633804 ; 151499.78865127277 ; 2160859.2855672897 ; 9259716.91174786 ; 0.0
114 ; 21470.09745287967 ; 152785.74581049022 ; 2182579.5712199234 ; 9411216.700399132 ; 0.0
115 ; 21139.897405487 ; 154069.65729644976 ; 2204049.6686728033 ; 9564002.446209623 ; 0.0
116 ; 21032.20505457076 ; 155351.47726487348 ; 2225189.5660782903 ; 9718072.103506071 ; 0.0
117 ; 20867.819388036864 ; 156631.16064612294 ; 2246221.7711328613 ; 9873423.580770945 ; 0.0
118 ; 20425.842719594857 ; 157908.6631150087 ; 2267089.5905208983 ; 1.0030054741417069E7 ; 0.0
119 ; 20229.346298361274 ; 159183.9410621301 ; 2287515.4332404933 ; 1.0187963404532077E7 ; 0.0
120 ; 20057.098766318042 ; 160456.9515666564 ; 2307744.7795388545 ; 1.0347147345594207E7 ; 0.0
121 ; 19905.923791197187 ; 161727.65237046996 ; 2327801.8783051725 ; 1.0507604297160864E7 ; 0.0
122 ; 19595.196207020246 ; 162996.001853593 ; 2347707.8020963697 ; 1.0669331949531334E7 ; 0.0
123 ; 19418.31131386045 ; 164261.95901082826 ; 2367302.99830339 ; 1.0832327951384926E7 ; 0.0
124 ; 19076.020065846194 ; 165525.48342954495 ; 2386721.3096172507 ; 1.0996589910395755E7 ; 0.0
125 ; 18864.576674365224 ; 166786.53526854824 ; 2405797.329683097 ; 1.11621153938253E7 ; 0.0
126 ; 18533.568964197246 ; 168045.07523797196 ; 2424661.9063574625 ; 1.1328901929093849E7 ; 0.0
127 ; 18358.043072042004 ; 169301.0645801402 ; 2443195.47532166 ; 1.1496947004331822E7 ; 0.0
128 ; 18053.644882346027 ; 170554.4650513446 ; 2461553.518393702 ; 1.1666248068911962E7 ; 0.0
129 ; 17923.92626815803 ; 171805.23890448915 ; 2479607.163276048 ; 1.1836802533963308E7 ; 0.0
130 ; 17564.33057872563 ; 173053.34887255574 ; 2497531.089544206 ; 1.2008607772867797E7 ; 0.0
131 ; 17095.104420888867 ; 174298.75815284756 ; 2515095.4201229317 ; 1.2181661121740352E7 ; 0.0
132 ; 16784.27856591095 ; 175541.43039196933 ; 2532190.5245438204 ; 1.23559598798932E7 ; 0.0
133 ; 16535.473220815213 ; 176781.3296715059 ; 2548974.8031097315 ; 1.253150131028517E7 ; 0.0
134 ; 16185.565847301514 ; 178018.42049436338 ; 2565510.276330547 ; 1.2708282639956675E7 ; 0.0
135 ; 15921.097921823639 ; 179252.6677717383 ; 2581695.8421778483 ; 1.2886301060451038E7 ; 0.0
136 ; 15875.617875920187 ; 180484.03681068294 ; 2597616.940099672 ; 1.3065553728222776E7 ; 0.0
137 ; 15379.767121607485 ; 181712.49330223634 ; 2613492.557975592 ; 1.324603776503346E7 ; 0.0
138 ; 15018.343119980029 ; 182938.0033100928 ; 2628872.3250971995 ; 1.3427750258335697E7 ; 0.0
139 ; 14675.05170434655 ; 184160.53325978067 ; 2643890.6682171794 ; 1.361068826164579E7 ; 0.0
140 ; 14220.454176177982 ; 185380.04992832578 ; 2658565.719921526 ; 1.3794848794905571E7 ; 0.0
141 ; 13865.828373011833 ; 186596.52043437577 ; 2672786.1740977042 ; 1.3980228844833897E7 ; 0.0
142 ; 13501.217010133854 ; 187809.9122287629 ; 2686652.002470716 ; 1.4166825365268273E7 ; 0.0
143 ; 13326.517321337617 ; 189020.19308548325 ; 2700153.21948085 ; 1.4354635277497036E7 ; 0.0
144 ; 12842.884906556297 ; 190227.33109307234 ; 2713479.7368021873 ; 1.4543655470582519E7 ; 0.0
145 ; 12795.816687929837 ; 191431.2946463585 ; 2726322.6217087437 ; 1.4733882801675592E7 ; 0.0
146 ; 12619.00383629033 ; 192632.05243857478 ; 2739118.4383966736 ; 1.492531409632195E7 ; 0.0
147 ; 12393.320257292027 ; 193829.5734538132 ; 2751737.442232964 ; 1.5117946148760524E7 ; 0.0
148 ; 12565.937236882535 ; 195023.82695980513 ; 2764130.762490256 ; 1.5311775722214337E7 ; 0.0
149 ; 12272.292236591384 ; 196214.78250101133 ; 2776696.699727139 ; 1.5506799549174143E7 ; 0.0
150 ; 12234.34942276524 ; 197402.4098920083 ; 2788968.99196373 ; 1.5703014331675155E7 ; 0.0
151 ; 12033.703821827461 ; 198586.6792111567 ; 2801203.3413864956 ; 1.5900416741567163E7 ; 0.0
152 ; 11989.494947438929 ; 199767.56079453873 ; 2813237.0452083233 ; 1.609900342077832E7 ; 0.0
153 ; 11786.352160962193 ; 200945.02523015172 ; 2825226.5401557623 ; 1.6298770981572857E7 ; 0.0
154 ; 11621.845350177677 ; 202119.04335234675 ; 2837012.8923167246 ; 1.649971600680301E7 ; 0.0
155 ; 11583.422504065195 ; 203289.58623650158 ; 2848634.737666902 ; 1.6701835050155357E7 ; 0.0
156 ; 11540.708313596613 ; 204456.62519391518 ; 2860218.160170967 ; 1.690512463639186E7 ; 0.0
157 ; 11412.213591116955 ; 205620.13176691683 ; 2871758.8684845637 ; 1.7109581261585776E7 ; 0.0
158 ; 11260.334980354985 ; 206780.07772417742 ; 2883171.0820756806 ; 1.731520139335269E7 ; 0.0
159 ; 11054.575754864825 ; 207936.4350562162 ; 2894431.4170560357 ; 1.752198147107687E7 ; 0.0
160 ; 11019.581415476485 ; 209089.17597109245 ; 2905485.9928109003 ; 1.7729917906133085E7 ; 0.0
161 ; 10827.690818238714 ; 210238.27289027505 ; 2916505.5742263766 ; 1.7939007082104176E7 ; 0.0
162 ; 10823.939723451402 ; 211383.6984446823 ; 2927333.265044615 ; 1.814924535499445E7 ; 0.0
163 ; 10628.481887276977 ; 212525.42547088326 ; 2938157.2047680668 ; 1.8360629053439133E7 ; 0.0
164 ; 10416.895098283692 ; 213663.42700745515 ; 2948785.6866553435 ; 1.8573154478910018E7 ; 0.0
165 ; 10263.754203685667 ; 214797.676291489 ; 2959202.5817536274 ; 1.8786817905917473E7 ; 0.0
166 ; 10196.115248878592 ; 215928.14675523786 ; 2969466.335957313 ; 1.900161558220896E7 ; 0.0
167 ; 10013.618765861109 ; 217054.8120229008 ; 2979662.4512061914 ; 1.92175437289642E7 ; 0.0
168 ; 9830.590352939049 ; 218177.64590753778 ; 2989676.0699720527 ; 1.94345985409871E7 ; 0.0
169 ; 9669.480434108826 ; 219296.62240810893 ; 2999506.6603249917 ; 1.9652776186894637E7 ; 0.0
170 ; 9513.352621480122 ; 220411.71570663384 ; 3009176.1407591007 ; 1.9872072809302747E7 ; 0.0
171 ; 9386.529097522978 ; 221522.9001654651 ; 3018689.4933805806 ; 2.0092484525009383E7 ; 0.0
172 ; 9201.47186794146 ; 222630.15032467205 ; 3028076.0224781036 ; 2.0314007425174847E7 ; 0.0
173 ; 9031.414578815387 ; 223733.4408995297 ; 3037277.494346045 ; 2.053663757549952E7 ; 0.0
174 ; 9106.25118893122 ; 224832.7467781082 ; 3046308.9089248604 ; 2.076037101639905E7 ; 0.0
175 ; 9158.113667737627 ; 225928.0430189599 ; 3055415.1601137915 ; 2.0985203763177156E7 ; 0.0
176 ; 9126.631933546943 ; 227019.30484889844 ; 3064573.273781529 ; 2.1211131806196116E7 ; 0.0
177 ; 9096.629290994893 ; 228106.5076608672 ; 3073699.9057150763 ; 2.1438151111045014E7 ; 0.0
178 ; 9285.849570223289 ; 229189.62701189372 ; 3082796.535006071 ; 2.166625761870588E7 ; 0.0
179 ; 9358.839204722442 ; 230268.63862112505 ; 3092082.384576294 ; 2.1895447245717775E7 ; 0.0
180 ; 9370.351819960864 ; 231343.51836794295 ; 3101441.2237810167 ; 2.21257158843389E7 ; 0.0
181 ; 9361.598641160504 ; 232414.24229015358 ; 3110811.5756009775 ; 2.2357059402706843E7 ; 0.0
182 ; 9196.746483947118 ; 233480.78658225076 ; 3120173.174242138 ; 2.2589473644996997E7 ; 0.0
183 ; 9234.21762024071 ; 234543.1275937483 ; 3129369.920726085 ; 2.2822954431579247E7 ; 0.0
184 ; 9404.358029309311 ; 235601.24182757924 ; 3138604.1383463256 ; 2.3057497559172995E7 ; 0.0
185 ; 9487.327299442204 ; 236655.10593855972 ; 3148008.496375635 ; 2.3293098801000576E7 ; 0.0
186 ; 9407.98766259462 ; 237704.69673191453 ; 3157495.823675077 ; 2.3529753906939138E7 ; 0.0
187 ; 9576.546678766434 ; 238749.99116186172 ; 3166903.8113376717 ; 2.376745860367105E7 ; 0.0
188 ; 9474.619091818779 ; 239790.96633025477 ; 3176480.3580164383 ; 2.4006208594832912E7 ; 0.0
189 ; 9499.419218346384 ; 240827.59948527935 ; 3185954.977108257 ; 2.424599956116317E7 ; 0.0
190 ; 9679.25611953291 ; 241859.86802020273 ; 3195454.3963266034 ; 2.4486827160648447E7 ; 0.0
191 ; 9577.635097668086 ; 242887.74947217418 ; 3205133.6524461363 ; 2.472868702866865E7 ; 0.0
192 ; 9645.390451692521 ; 243911.22152107392 ; 3214711.2875438044 ; 2.4971574778140824E7 ; 0.0
193 ; 9745.813131080336 ; 244930.26198840915 ; 3224356.677995497 ; 2.5215485999661896E7 ; 0.0
194 ; 9674.203688979926 ; 245944.848836255 ; 3234102.4911265774 ; 2.5460416261650305E7 ; 0.0
195 ; 9737.844827041145 ; 246954.96016623935 ; 3243776.6948155575 ; 2.570636111048656E7 ; 0.0
196 ; 9624.46069538482 ; 247960.57421856868 ; 3253514.5396425985 ; 2.5953316070652798E7 ; 0.0
197 ; 9703.476032335011 ; 248961.66937109517 ; 3263139.0003379835 ; 2.6201276644871365E7 ; 0.0
198 ; 9813.137707261087 ; 249958.22413842127 ; 3272842.4763703183 ; 2.645023831424246E7 ; 0.0
199 ; 10014.779430597768 ; 250950.2171710429 ; 3282655.614077579 ; 2.670019653838088E7 ; 0.0
200 ; 9917.625656892586 ; 251937.62725452712 ; 3292670.393508177 ; 2.6951146755551923E7 ; 0.0
201 ; 9900.99255181511 ; 252920.43330872557 ; 3302588.0191650693 ; 2.720308438280645E7 ; 0.0
202 ; 9962.958927007508 ; 253898.6143870203 ; 3312489.0117168846 ; 2.7456004816115174E7 ; 0.0
203 ; 9787.785439041869 ; 254872.14967560206 ; 3322451.970643892 ; 2.7709903430502195E7 ; 0.0
204 ; 10081.436553284111 ; 255841.01849277943 ; 3332239.756082934 ; 2.7964775580177795E7 ; 0.0
205 ; 10077.645631848034 ; 256805.2002883173 ; 3342321.192636218 ; 2.8220616598670576E7 ; 0.0
206 ; 10218.05060183287 ; 257764.6746428045 ; 3352398.838268066 ; 2.8477421798958894E7 ; 0.0
207 ; 10137.626211314615 ; 258719.42126704837 ; 3362616.888869899 ; 2.87351864736017E7 ; 0.0
208 ; 10045.909847083 ; 259669.42000149676 ; 3372754.5150812133 ; 2.8993905894868746E7 ; 0.0
209 ; 10181.53171264437 ; 260614.65081568452 ; 3382800.4249282964 ; 2.9253575314870242E7 ; 0.0
210 ; 10377.131987135925 ; 261555.09380770585 ; 3392981.9566409406 ; 2.9514189965685926E7 ; 0.0
211 ; 10305.564560030283 ; 262490.72920370934 ; 3403359.0886280765 ; 2.977574505949363E7 ; 0.0
212 ; 10352.01148868544 ; 263421.5373574166 ; 3413664.6531881066 ; 3.003823578869734E7 ; 0.0
213 ; 10310.082518847938 ; 264347.4987496628 ; 3424016.664676792 ; 3.0301657326054756E7 ; 0.0
