CSV File for the City 3 on Day 291
1 - Minute m 
2 - Power Consumed at minute m 
3 - Power Produced at minute m 
4 - Energy Consumed since the beginning of the day 
5 - Energy Produced since the beginning of the day 
6 - Energy Lost since the beginning of the day on lines starting from the city
 
0 ; 7423.900487476951 ; 147249.4300524122 ; 0.0 ; 0.0 ; 0.0
1 ; 7759.933821079718 ; 146891.04617350205 ; 7423.900487476951 ; 147249.4300524122 ; 0.0
2 ; 7885.453959132889 ; 146569.57057570008 ; 15183.834308556668 ; 294140.47622591426 ; 0.0
3 ; 8367.265049780954 ; 146285.27114356653 ; 23069.288267689557 ; 440710.04680161434 ; 0.0
4 ; 8612.897846114722 ; 146038.3867029667 ; 31436.553317470512 ; 586995.3179451809 ; 0.0
5 ; 8860.058531492454 ; 145829.1261256058 ; 40049.45116358523 ; 733033.7046481476 ; 0.0
6 ; 9062.725834295612 ; 145657.66753592575 ; 48909.509695077686 ; 878862.8307737533 ; 0.0
7 ; 9324.827549844133 ; 145524.15762739233 ; 57972.2355293733 ; 1024520.4983096791 ; 0.0
8 ; 9923.714392051814 ; 145428.71109432747 ; 67297.06307921743 ; 1170044.6559370714 ; 0.0
9 ; 10345.056423755574 ; 145371.41018446072 ; 77220.77747126925 ; 1315473.367031399 ; 0.0
10 ; 10576.54325931818 ; 145352.30437632103 ; 87565.83389502481 ; 1460844.7772158596 ; 0.0
11 ; 10882.418736079817 ; 145371.41018446072 ; 98142.37715434299 ; 1606197.0815921808 ; 0.0
12 ; 11080.886684577614 ; 145428.71109432747 ; 109024.7958904228 ; 1751568.4917766415 ; 0.0
13 ; 11312.115613522257 ; 145524.15762739233 ; 120105.68257500042 ; 1896997.202870969 ; 0.0
14 ; 11561.422543597617 ; 145657.6675359257 ; 131417.7981885227 ; 2042521.3604983613 ; 0.0
15 ; 11881.170109374238 ; 145829.1261256058 ; 142979.2207321203 ; 2188179.028034287 ; 0.0
16 ; 12029.702486939363 ; 146038.3867029667 ; 154860.39084149455 ; 2334008.154159893 ; 0.0
17 ; 12278.371185971246 ; 146285.2711435665 ; 166890.0933284339 ; 2480046.5408628597 ; 0.0
18 ; 12660.575296270923 ; 146569.57057570014 ; 179168.46451440515 ; 2626331.812006426 ; 0.0
19 ; 13009.77781515447 ; 146891.04617350202 ; 191829.03981067607 ; 2772901.382582126 ; 0.0
20 ; 13247.538046794098 ; 147249.43005241227 ; 204838.81762583053 ; 2919792.4287556284 ; 0.0
21 ; 13434.636536691693 ; 147644.42625921313 ; 218086.35567262463 ; 3067041.8588080406 ; 0.0
22 ; 13637.559911329605 ; 148075.71184819608 ; 231520.99220931632 ; 3214686.2850672537 ; 0.0
23 ; 13889.476745292095 ; 148542.9380345003 ; 245158.55212064594 ; 3362761.99691545 ; 0.0
24 ; 14272.510815926202 ; 149045.7314152728 ; 259048.02886593805 ; 3511304.9349499503 ; 0.0
25 ; 14431.144753222692 ; 149583.69524903764 ; 273320.53968186426 ; 3660350.666365223 ; 0.0
26 ; 14560.637241243749 ; 150156.41078353082 ; 287751.68443508697 ; 3809934.361614261 ; 0.0
27 ; 14735.111710927169 ; 150763.43862224574 ; 302312.3216763307 ; 3960090.7723977915 ; 0.0
28 ; 15087.73880733745 ; 151404.32012004207 ; 317047.43338725786 ; 4110854.211020037 ; 0.0
29 ; 15234.409536068606 ; 152078.57879838638 ; 332135.17219459533 ; 4262258.531140079 ; 0.0
30 ; 15441.36771960552 ; 152785.7217711057 ; 347369.58173066395 ; 4414337.109938465 ; 0.0
31 ; 15647.255024613953 ; 153525.24117193554 ; 362810.94945026946 ; 4567122.831709571 ; 0.0
32 ; 15862.92737675079 ; 154296.61557562088 ; 378458.2044748834 ; 4720648.072881507 ; 0.0
33 ; 16001.93252898728 ; 155099.31140486384 ; 394321.1318516342 ; 4874944.688457128 ; 0.0
34 ; 16197.791910222853 ; 155932.78431600094 ; 410323.0643806215 ; 5030043.999861991 ; 0.0
35 ; 16416.81220047745 ; 156796.48055691668 ; 426520.8562908443 ; 5185976.784177992 ; 0.0
36 ; 16731.184215549863 ; 157689.83829134994 ; 442937.6684913218 ; 5342773.264734908 ; 0.0
37 ; 16820.8510236233 ; 158612.28888441264 ; 459668.85270687164 ; 5500463.103026258 ; 0.0
38 ; 17018.59147920596 ; 159563.25814480692 ; 476489.70373049495 ; 5659075.39191067 ; 0.0
39 ; 17141.799729608996 ; 160542.16751988756 ; 493508.2952097009 ; 5818638.650055477 ; 0.0
40 ; 17325.393121180892 ; 161548.43524035974 ; 510650.09493930987 ; 5979180.817575365 ; 0.0
41 ; 17546.286993336897 ; 162581.4774120275 ; 527975.4880604908 ; 6140729.252815725 ; 0.0
42 ; 17737.129424631585 ; 163640.7090526008 ; 545521.7750538277 ; 6303310.730227753 ; 0.0
43 ; 17734.914420623594 ; 164725.54507213112 ; 563258.9044784593 ; 6466951.4392803535 ; 0.0
44 ; 17949.94243907562 ; 165835.4011961683 ; 580993.8188990828 ; 6631676.984352484 ; 0.0
45 ; 18050.354662961257 ; 166969.69483121647 ; 598943.7613381585 ; 6797512.385548653 ; 0.0
46 ; 18272.00208210815 ; 168127.84587250667 ; 616994.1160011197 ; 6964482.08037987 ; 0.0
47 ; 18314.592674396106 ; 169309.27745450323 ; 635266.1180832279 ; 7132609.926252376 ; 0.0
48 ; 18399.843352872504 ; 170513.4166449156 ; 653580.710757624 ; 7301919.203706879 ; 0.0
49 ; 18698.38580749584 ; 171739.69508330114 ; 671980.5541104965 ; 7472432.620351795 ; 0.0
50 ; 18744.29007754575 ; 172987.5495656146 ; 690678.9399179923 ; 7644172.315435097 ; 0.0
51 ; 18888.352597115667 ; 174256.42257629015 ; 709423.2299955381 ; 7817159.865000711 ; 0.0
52 ; 18928.481721732853 ; 175545.7627696369 ; 728311.5825926538 ; 7991416.287577001 ; 0.0
53 ; 19172.54936465061 ; 176855.02540248475 ; 747240.0643143867 ; 8166962.050346638 ; 0.0
54 ; 19259.235109411482 ; 178183.67272014066 ; 766412.6136790373 ; 8343817.075749123 ; 0.0
55 ; 19392.185291668407 ; 179531.17429781053 ; 785671.8487884488 ; 8522000.748469263 ; 0.0
56 ; 19477.67748762394 ; 180897.007339706 ; 805064.0340801172 ; 8701531.922767073 ; 0.0
57 ; 19655.927827858148 ; 182280.6569380945 ; 824541.7115677412 ; 8882428.93010678 ; 0.0
58 ; 19742.889623360858 ; 183681.61629457044 ; 844197.6393955994 ; 9064709.587044874 ; 0.0
59 ; 19908.004237215624 ; 185099.38690582107 ; 863940.5290189602 ; 9248391.203339444 ; 0.0
60 ; 19725.876187881568 ; 186533.47871614125 ; 883848.5332561758 ; 9433490.590245266 ; 0.0
61 ; 19930.878581804103 ; 187983.41023891588 ; 903574.4094440574 ; 9620024.068961406 ; 0.0
62 ; 19876.091199990205 ; 189448.70864924105 ; 923505.2880258615 ; 9808007.479200322 ; 0.0
63 ; 20036.419523617853 ; 190928.90984979676 ; 943381.3792258517 ; 9997456.187849563 ; 0.0
64 ; 20246.91789248442 ; 192423.55851201463 ; 963417.7987494696 ; 1.0188385097699359E7 ; 0.0
65 ; 20199.788789075585 ; 193932.20809451296 ; 983664.716641954 ; 1.0380808656211374E7 ; 0.0
66 ; 20204.739834206164 ; 195454.4208406877 ; 1003864.5054310296 ; 1.0574740864305887E7 ; 0.0
67 ; 20404.266812121772 ; 196989.76775726705 ; 1024069.2452652358 ; 1.0770195285146575E7 ; 0.0
68 ; 20268.723223483325 ; 198537.8285755486 ; 1044473.5120773575 ; 1.0967185052903842E7 ; 0.0
69 ; 20399.256767677518 ; 200098.19169695114 ; 1064742.2353008408 ; 1.116572288147939E7 ; 0.0
70 ; 20499.713897125628 ; 201670.45412442315 ; 1085141.4920685184 ; 1.1365821073176341E7 ; 0.0
71 ; 20492.013823889825 ; 203254.22138116206 ; 1105641.205965644 ; 1.1567491527300764E7 ; 0.0
72 ; 20384.665663205626 ; 204849.10741801007 ; 1126133.2197895339 ; 1.1770745748681925E7 ; 0.0
73 ; 20619.850084885093 ; 206454.73451080613 ; 1146517.8854527394 ; 1.1975594856099935E7 ; 0.0
74 ; 20463.064983012217 ; 208070.73314888994 ; 1167137.7355376245 ; 1.218204959061074E7 ; 0.0
75 ; 20671.65944743755 ; 209696.7419158711 ; 1187600.8005206366 ; 1.239012032375963E7 ; 0.0
76 ; 20687.079187580646 ; 211332.40736369858 ; 1208272.4599680742 ; 1.25998170656755E7 ; 0.0
77 ; 20650.957536416074 ; 212977.3838809886 ; 1228959.5391556548 ; 1.2811149473039199E7 ; 0.0
78 ; 20803.186910541695 ; 214631.33355649767 ; 1249610.496692071 ; 1.3024126856920186E7 ; 0.0
79 ; 20605.982499566486 ; 216293.92603855644 ; 1270413.6836026127 ; 1.3238758190476684E7 ; 0.0
80 ; 20721.27989435322 ; 217964.83839121542 ; 1291019.666102179 ; 1.345505211651524E7 ; 0.0
81 ; 20782.36972777355 ; 219643.7549477906 ; 1311740.9459965322 ; 1.3673016954906454E7 ; 0.0
82 ; 20699.45842623699 ; 221330.3671624371 ; 1332523.3157243058 ; 1.3892660709854245E7 ; 0.0
83 ; 20707.98960892032 ; 223024.37346032562 ; 1353222.774150543 ; 1.4113991077016681E7 ; 0.0
84 ; 20895.65991506481 ; 224725.47908694082 ; 1373930.7637594633 ; 1.4337015450477008E7 ; 0.0
85 ; 20744.589803490788 ; 226433.39595697523 ; 1394826.423674528 ; 1.4561740929563949E7 ; 0.0
86 ; 20607.91424041298 ; 228147.84250324426 ; 1415571.0134780188 ; 1.4788174325520923E7 ; 0.0
87 ; 20624.653745485888 ; 229868.5435260055 ; 1436178.9277184317 ; 1.5016322168024167E7 ; 0.0
88 ; 20535.841698602653 ; 231595.23004302641 ; 1456803.5814639176 ; 1.5246190711550172E7 ; 0.0
89 ; 20587.99334096426 ; 233327.6391407081 ; 1477339.4231625202 ; 1.5477785941593198E7 ; 0.0
90 ; 20640.303439836487 ; 235065.51382653628 ; 1497927.4165034844 ; 1.5711113580733906E7 ; 0.0
91 ; 20352.5270961106 ; 236808.60288310194 ; 1518567.7199433208 ; 1.5946179094560442E7 ; 0.0
92 ; 20388.06037540532 ; 238556.66072390293 ; 1538920.2470394315 ; 1.6182987697443545E7 ; 0.0
93 ; 20407.323419964116 ; 240309.44725111252 ; 1559308.3074148367 ; 1.6421544358167447E7 ; 0.0
94 ; 20277.44902733637 ; 242066.72771547403 ; 1579715.630834801 ; 1.666185380541856E7 ; 0.0
95 ; 20202.554312650067 ; 243828.27257846066 ; 1599993.0798621373 ; 1.6903920533134036E7 ; 0.0
96 ; 20346.87159791986 ; 245593.85737681753 ; 1620195.6341747874 ; 1.7147748805712495E7 ; 0.0
97 ; 20046.124132636647 ; 247363.2625895833 ; 1640542.5057727073 ; 1.7393342663089313E7 ; 0.0
98 ; 20294.627265973013 ; 249136.27350767364 ; 1660588.629905344 ; 1.7640705925678898E7 ; 0.0
99 ; 20107.404115326706 ; 250912.68010609137 ; 1680883.257171317 ; 1.788984219918657E7 ; 0.0
100 ; 19873.962006649937 ; 252692.27691881428 ; 1700990.6612866437 ; 1.8140754879292663E7 ; 0.0
101 ; 19894.083077627725 ; 254474.86291639972 ; 1720864.6232932936 ; 1.8393447156211477E7 ; 0.0
102 ; 19791.239857912573 ; 256260.24138633182 ; 1740758.7063709213 ; 1.8647922019127876E7 ; 0.0
103 ; 19678.87968448917 ; 258048.2198161286 ; 1760549.9462288339 ; 1.8904182260514207E7 ; 0.0
104 ; 19570.769062616157 ; 259838.609779215 ; 1780228.825913323 ; 1.9162230480330337E7 ; 0.0
105 ; 19305.8703973964 ; 261631.22682356104 ; 1799799.5949759393 ; 1.9422069090109553E7 ; 0.0
106 ; 19400.856931455673 ; 263425.89036307606 ; 1819105.4653733356 ; 1.9683700316933114E7 ; 0.0
107 ; 19396.46020773468 ; 265222.4235717435 ; 1838506.3223047913 ; 1.994712620729619E7 ; 0.0
108 ; 19364.296695748406 ; 267020.653280474 ; 1857902.782512526 ; 2.0212348630867932E7 ; 0.0
109 ; 19087.429224296688 ; 268820.40987665206 ; 1877267.0792082744 ; 2.0479369284148406E7 ; 0.0
110 ; 18955.763365368348 ; 270621.5272063424 ; 1896354.508432571 ; 2.074818969402506E7 ; 0.0
111 ; 18960.768393453178 ; 272423.84247912426 ; 1915310.2717979394 ; 2.10188112212314E7 ; 0.0
112 ; 18739.44303776726 ; 274227.19617551146 ; 1934271.0401913926 ; 2.1291235063710526E7 ; 0.0
113 ; 18426.289535409225 ; 276031.4319569204 ; 1953010.4832291598 ; 2.1565462259886038E7 ; 0.0
114 ; 18286.94572627215 ; 277836.3965781387 ; 1971436.7727645691 ; 2.184149369184296E7 ; 0.0
115 ; 18273.250690110945 ; 279641.9398022514 ; 1989723.7184908413 ; 2.21193300884211E7 ; 0.0
116 ; 18291.33596295332 ; 281447.9143179751 ; 2007996.9691809523 ; 2.239897202822335E7 ; 0.0
117 ; 18111.34472242638 ; 283254.1756593519 ; 2026288.3051439056 ; 2.2680419942541327E7 ; 0.0
118 ; 17925.51174882924 ; 285060.58212775236 ; 2044399.6498663318 ; 2.296367411820068E7 ; 0.0
119 ; 17721.599336290852 ; 286866.99471613683 ; 2062325.161615161 ; 2.3248734700328432E7 ; 0.0
120 ; 17482.602063492675 ; 288673.2770355238 ; 2080046.760951452 ; 2.353560169504457E7 ; 0.0
121 ; 17370.647089035218 ; 290479.2952436128 ; 2097529.363014945 ; 2.3824274972080093E7 ; 0.0
122 ; 17209.839003580866 ; 292284.9179755101 ; 2114900.01010398 ; 2.4114754267323706E7 ; 0.0
123 ; 17160.93748184156 ; 294090.01627650496 ; 2132109.849107561 ; 2.4407039185299218E7 ; 0.0
124 ; 16835.144656012293 ; 295894.4635368444 ; 2149270.7865894027 ; 2.4701129201575723E7 ; 0.0
125 ; 16610.02778101802 ; 297698.135428455 ; 2166105.931245415 ; 2.4997023665112566E7 ; 0.0
126 ; 16596.03834838513 ; 299500.9098435605 ; 2182715.959026433 ; 2.529472180054102E7 ; 0.0
127 ; 16209.059500128345 ; 301302.66683514375 ; 2199311.997374818 ; 2.559422271038458E7 ; 0.0
128 ; 16163.938725823957 ; 303103.28855920426 ; 2215521.0568749467 ; 2.5895525377219725E7 ; 0.0
129 ; 15861.856381177102 ; 304902.6592187601 ; 2231684.9956007707 ; 2.619862866577893E7 ; 0.0
130 ; 15801.820494562438 ; 306700.6650095467 ; 2247546.8519819477 ; 2.650353132499769E7 ; 0.0
131 ; 15707.425568465855 ; 308497.1940673643 ; 2263348.67247651 ; 2.6810231990007237E7 ; 0.0
132 ; 15364.739917487244 ; 310292.13641702675 ; 2279056.098044976 ; 2.71187291840746E7 ; 0.0
133 ; 15171.373033589938 ; 312085.38392286515 ; 2294420.8379624635 ; 2.7429021320491627E7 ; 0.0
134 ; 14943.947576340877 ; 313876.8302407416 ; 2309592.2109960536 ; 2.774110670441449E7 ; 0.0
135 ; 14694.434214310608 ; 315666.3707715295 ; 2324536.1585723944 ; 2.8054983534655232E7 ; 0.0
136 ; 14550.584320545118 ; 317453.90261601435 ; 2339230.592786705 ; 2.8370649905426763E7 ; 0.0
137 ; 14298.752240522163 ; 319239.3245311759 ; 2353781.1771072503 ; 2.8688103808042776E7 ; 0.0
138 ; 14091.017868681949 ; 321022.5368878081 ; 2368079.9293477726 ; 2.900734313257395E7 ; 0.0
139 ; 13835.989110859038 ; 322803.4416294373 ; 2382170.9472164544 ; 2.932836566946176E7 ; 0.0
140 ; 13611.874527784134 ; 324581.9422324995 ; 2396006.9363273135 ; 2.9651169111091197E7 ; 0.0
141 ; 13264.648144892726 ; 326357.943667737 ; 2409618.8108550976 ; 2.9975751053323697E7 ; 0.0
142 ; 12969.168416219207 ; 328131.35236277955 ; 2422883.4589999905 ; 3.0302108996991433E7 ; 0.0
143 ; 12864.773299888018 ; 329902.07616587076 ; 2435852.62741621 ; 3.063024034935421E7 ; 0.0
144 ; 12398.324497998796 ; 331670.02431070706 ; 2448717.400716098 ; 3.096014242552008E7 ; 0.0
145 ; 12421.385237813396 ; 333435.107382352 ; 2461115.7252140967 ; 3.129181244983079E7 ; 0.0
146 ; 12492.8424709504 ; 335197.2372841956 ; 2473537.11045191 ; 3.1625247557213143E7 ; 0.0
147 ; 12282.464903985116 ; 336956.3272059234 ; 2486029.9529228606 ; 3.1960444794497337E7 ; 0.0
148 ; 12316.793196146706 ; 338712.2915924654 ; 2498312.417826846 ; 3.229740112170326E7 ; 0.0
149 ; 12158.482706654722 ; 340465.04611389403 ; 2510629.2110229926 ; 3.2636113413295723E7 ; 0.0
150 ; 12059.289820708913 ; 342214.5076362401 ; 2522787.6937296474 ; 3.2976578459409617E7 ; 0.0
151 ; 11998.568099667642 ; 343960.5941932003 ; 2534846.9835503562 ; 3.331879296704586E7 ; 0.0
152 ; 11976.929472961385 ; 345703.2249587056 ; 2546845.551650024 ; 3.366275356123906E7 ; 0.0
153 ; 11829.861677698955 ; 347442.32022032555 ; 2558822.4811229855 ; 3.400845678619776E7 ; 0.0
154 ; 11776.224877674855 ; 349177.80135348055 ; 2570652.3428006843 ; 3.435589910641809E7 ; 0.0
155 ; 11421.506538788795 ; 350909.59079643793 ; 2582428.5676783593 ; 3.4705076907771565E7 ; 0.0
156 ; 11555.924220072366 ; 352637.61202606646 ; 2593850.074217148 ; 3.5055986498568006E7 ; 0.0
157 ; 11417.936774040158 ; 354361.7895343246 ; 2605405.9984372207 ; 3.540862411059407E7 ; 0.0
158 ; 11371.368182630582 ; 356082.04880546127 ; 2616823.935211261 ; 3.5762985900128394E7 ; 0.0
159 ; 11360.923224403923 ; 357798.3162939044 ; 2628195.3033938915 ; 3.6119067948933855E7 ; 0.0
160 ; 11125.520695700005 ; 359510.51940281753 ; 2639556.2266182955 ; 3.647686626522776E7 ; 0.0
161 ; 11095.185009510196 ; 361218.5864633013 ; 2650681.7473139954 ; 3.6836376784630574E7 ; 0.0
162 ; 11003.564302368464 ; 362922.44671422185 ; 2661776.9323235056 ; 3.719759537109388E7 ; 0.0
163 ; 10806.704479963983 ; 364622.0302826438 ; 2672780.496625874 ; 3.75605178178081E7 ; 0.0
164 ; 10778.943688269557 ; 366317.2681648507 ; 2683587.201105838 ; 3.7925139848090746E7 ; 0.0
165 ; 10653.7199562282 ; 368008.0922079338 ; 2694366.144794108 ; 3.82914571162556E7 ; 0.0
166 ; 10500.241006174401 ; 369694.43509193044 ; 2705019.864750336 ; 3.865946520846353E7 ; 0.0
167 ; 10451.413328024286 ; 371376.23031249637 ; 2715520.1057565105 ; 3.9029159643555455E7 ; 0.0
168 ; 10316.088672370397 ; 373053.4121640933 ; 2725971.5190845346 ; 3.940053587386795E7 ; 0.0
169 ; 10096.677787179351 ; 374725.91572367697 ; 2736287.607756905 ; 3.977358928603204E7 ; 0.0
170 ; 10194.582487609165 ; 376393.6768348694 ; 2746384.285544084 ; 4.014831520175572E7 ; 0.0
171 ; 9937.36903569835 ; 378056.6320926003 ; 2756578.868031693 ; 4.0524708878590584E7 ; 0.0
172 ; 9890.29664072787 ; 379714.7188282026 ; 2766516.2370673916 ; 4.090276551068319E7 ; 0.0
173 ; 9851.94460463709 ; 381367.8750949483 ; 2776406.5337081193 ; 4.128248022951139E7 ; 0.0
174 ; 9721.809176579442 ; 383016.0396540106 ; 2786258.4783127564 ; 4.166384810460634E7 ; 0.0
175 ; 9917.61702691271 ; 384659.1519608394 ; 2795980.287489336 ; 4.204686414426035E7 ; 0.0
176 ; 9809.38073722341 ; 386297.1521519363 ; 2805897.9045162485 ; 4.243152329622119E7 ; 0.0
177 ; 9950.312399130831 ; 387929.98103201843 ; 2815707.2852534717 ; 4.2817820448373124E7 ; 0.0
178 ; 9891.951326825661 ; 389557.5800615568 ; 2825657.5976526025 ; 4.3205750429405145E7 ; 0.0
179 ; 9969.985368930018 ; 391179.89134467964 ; 2835549.548979428 ; 4.35953080094667E7 ; 0.0
180 ; 9935.984668483537 ; 392796.8576174281 ; 2845519.534348358 ; 4.398648790081138E7 ; 0.0
181 ; 9925.092719256196 ; 394408.42223635345 ; 2855455.5190168414 ; 4.437928475842881E7 ; 0.0
182 ; 9877.513139070194 ; 396014.5291674462 ; 2865380.611736098 ; 4.4773693180665165E7 ; 0.0
183 ; 9782.057508690048 ; 397615.12297538616 ; 2875258.124875168 ; 4.516970770983261E7 ; 0.0
184 ; 10025.097417440527 ; 399210.1488131033 ; 2885040.1823838577 ; 4.5567322832807995E7 ; 0.0
185 ; 9916.397974288231 ; 400000.0 ; 2895065.2798012984 ; 4.59665329816211E7 ; 0.0
186 ; 10150.097870654787 ; 400000.0 ; 2904981.6777755865 ; 4.63665329816211E7 ; 0.0
187 ; 10125.60972810608 ; 400000.0 ; 2915131.7756462414 ; 4.67665329816211E7 ; 0.0
188 ; 10091.831075120564 ; 400000.0 ; 2925257.3853743477 ; 4.71665329816211E7 ; 0.0
189 ; 10111.981851198845 ; 400000.0 ; 2935349.2164494684 ; 4.75665329816211E7 ; 0.0
190 ; 10153.528580829496 ; 400000.0 ; 2945461.198300667 ; 4.79665329816211E7 ; 0.0
191 ; 10149.347560165992 ; 400000.0 ; 2955614.7268814966 ; 4.83665329816211E7 ; 0.0
192 ; 10042.741228380504 ; 400000.0 ; 2965764.0744416625 ; 4.87665329816211E7 ; 0.0
193 ; 10227.187085705287 ; 400000.0 ; 2975806.815670043 ; 4.91665329816211E7 ; 0.0
194 ; 10087.903354860882 ; 400000.0 ; 2986034.0027557486 ; 4.95665329816211E7 ; 0.0
195 ; 10262.37274138296 ; 400000.0 ; 2996121.9061106094 ; 4.99665329816211E7 ; 0.0
196 ; 10125.073343892167 ; 400000.0 ; 3006384.2788519925 ; 5.03665329816211E7 ; 0.0
197 ; 10242.97515838772 ; 400000.0 ; 3016509.3521958846 ; 5.07665329816211E7 ; 0.0
198 ; 10331.252409649604 ; 400000.0 ; 3026752.3273542724 ; 5.11665329816211E7 ; 0.0
199 ; 10089.758934320405 ; 400000.0 ; 3037083.579763922 ; 5.15665329816211E7 ; 0.0
200 ; 10129.218198732226 ; 400000.0 ; 3047173.3386982423 ; 5.19665329816211E7 ; 0.0
201 ; 10126.22686393287 ; 400000.0 ; 3057302.5568969743 ; 5.23665329816211E7 ; 0.0
202 ; 10191.5214592673 ; 400000.0 ; 3067428.783760907 ; 5.27665329816211E7 ; 0.0
203 ; 10284.3756960433 ; 400000.0 ; 3077620.3052201746 ; 5.31665329816211E7 ; 0.0
204 ; 10418.92791800491 ; 400000.0 ; 3087904.680916218 ; 5.35665329816211E7 ; 0.0
205 ; 10383.258570719197 ; 400000.0 ; 3098323.608834223 ; 5.39665329816211E7 ; 0.0
206 ; 10290.561774784152 ; 400000.0 ; 3108706.867404942 ; 5.43665329816211E7 ; 0.0
207 ; 10350.17496721287 ; 400000.0 ; 3118997.429179726 ; 5.47665329816211E7 ; 0.0
208 ; 10292.926619107448 ; 400000.0 ; 3129347.6041469392 ; 5.51665329816211E7 ; 0.0
209 ; 10361.238601399868 ; 400000.0 ; 3139640.5307660466 ; 5.55665329816211E7 ; 0.0
210 ; 10356.424205569441 ; 400000.0 ; 3150001.7693674467 ; 5.59665329816211E7 ; 0.0
211 ; 10382.648034833544 ; 400000.0 ; 3160358.193573016 ; 5.63665329816211E7 ; 0.0
212 ; 10407.649081545616 ; 400000.0 ; 3170740.8416078496 ; 5.67665329816211E7 ; 0.0
213 ; 10205.191626400567 ; 400000.0 ; 3181148.490689395 ; 5.71665329816211E7 ; 0.0
214 ; 10590.510419258628 ; 400000.0 ; 3191353.6823157957 ; 5.75665329816211E7 ; 0.0
