CSV File for the City 1 on Day 209
1 - Minute m 
2 - Power Consumed at minute m 
3 - Power Produced at minute m 
4 - Energy Consumed since the beginning of the day 
5 - Energy Produced since the beginning of the day 
6 - Energy Lost since the beginning of the day on lines starting from the city
 
0 ; 5136.078378709084 ; 4059.3544751468035 ; 0.0 ; 0.0 ; 0.0
1 ; 5929.416421965668 ; 4059.3544751468035 ; 5136.078378709084 ; 4059.3544751468035 ; 238.00000000000003
2 ; 6514.177800209801 ; 4059.3544751468035 ; 11065.49480067475 ; 8118.708950293607 ; 476.00000000000006
3 ; 7253.958118115566 ; 4059.3544751468035 ; 17579.67260088455 ; 12178.06342544041 ; 714.0000000000001
4 ; 7743.381456532043 ; 4059.3544751468035 ; 24833.630719000117 ; 16237.417900587214 ; 952.0000000000001
5 ; 8411.120576937523 ; 4059.3544751468035 ; 32577.01217553216 ; 20296.772375734017 ; 1190.0000000000002
6 ; 8853.156618476636 ; 4059.3544751468035 ; 40988.13275246968 ; 24356.12685088082 ; 1428.0000000000002
7 ; 9584.81028038931 ; 4059.3544751468035 ; 49841.28937094632 ; 28415.481326027624 ; 1666.0000000000002
8 ; 10317.110576552517 ; 4059.3544751468035 ; 59426.09965133563 ; 32474.835801174428 ; 1904.0000000000002
9 ; 10810.142905069733 ; 4059.3544751468035 ; 69743.21022788815 ; 36534.19027632123 ; 2142.0000000000005
10 ; 11473.702227836262 ; 4059.3544751468035 ; 80553.35313295788 ; 40593.54475146803 ; 2380.0000000000005
11 ; 12025.520759213246 ; 4059.3544751468035 ; 92027.05536079414 ; 44652.89922661483 ; 2618.0000000000005
12 ; 12640.040914469544 ; 4059.3544751468035 ; 104052.57612000739 ; 48712.25370176163 ; 2856.0000000000005
13 ; 13230.81542113155 ; 4059.3544751468035 ; 116692.61703447693 ; 52771.60817690843 ; 3094.0000000000005
14 ; 13747.769217414785 ; 4059.3544751468035 ; 129923.43245560849 ; 56830.96265205523 ; 3332.0000000000005
15 ; 14248.987817971036 ; 4059.3544751468035 ; 143671.2016730233 ; 60890.317127202026 ; 3570.0000000000005
16 ; 14728.002987339181 ; 4059.3544751468035 ; 157920.18949099432 ; 64949.671602348826 ; 3808.0000000000005
17 ; 15285.024565427779 ; 4059.3544751468035 ; 172648.1924783335 ; 69009.02607749563 ; 4046.0000000000005
18 ; 15767.5073398031 ; 4059.3544751468035 ; 187933.21704376128 ; 73068.38055264243 ; 4284.000000000001
19 ; 16165.738110432421 ; 4059.3544751468035 ; 203700.72438356437 ; 77127.73502778923 ; 4522.000000000001
20 ; 16755.997792343114 ; 4059.3544751468035 ; 219866.4624939968 ; 81187.08950293603 ; 4760.000000000001
21 ; 17247.606857456718 ; 4059.3544751468035 ; 236622.46028633992 ; 85246.44397808283 ; 4998.000000000001
22 ; 17749.47859109237 ; 4059.3544751468035 ; 253870.06714379665 ; 89305.79845322963 ; 5236.000000000001
23 ; 18257.362928861396 ; 4059.3544751468035 ; 271619.54573488905 ; 93365.15292837642 ; 5474.000000000001
24 ; 18598.437542341617 ; 4059.3544751468035 ; 289876.90866375045 ; 97424.50740352322 ; 5712.000000000001
25 ; 19266.085033023406 ; 4059.3544751468035 ; 308475.34620609204 ; 101483.86187867002 ; 5950.000000000001
26 ; 19526.047317183748 ; 4059.3544751468035 ; 327741.4312391154 ; 105543.21635381682 ; 6188.000000000001
27 ; 20084.510964299963 ; 4059.3544751468035 ; 347267.4785562992 ; 109602.57082896362 ; 6426.000000000001
28 ; 20509.624248505857 ; 4059.3544751468035 ; 367351.98952059913 ; 113661.92530411042 ; 6664.000000000001
29 ; 20754.682947869085 ; 4059.3544751468035 ; 387861.613769105 ; 117721.27977925722 ; 6902.000000000001
30 ; 21226.448279772078 ; 4059.3544751468035 ; 408616.29671697406 ; 121780.63425440402 ; 7140.000000000001
31 ; 21757.126128975455 ; 4059.3544751468035 ; 429842.7449967461 ; 125839.98872955082 ; 7378.000000000001
32 ; 22046.047290591814 ; 4059.3544751468035 ; 451599.8711257216 ; 129899.34320469762 ; 7616.000000000001
33 ; 22495.120528039955 ; 4059.3544751468035 ; 473645.9184163134 ; 133958.69767984442 ; 7854.000000000001
34 ; 22958.078777497347 ; 4059.3544751468035 ; 496141.03894435335 ; 138018.05215499122 ; 8092.000000000001
35 ; 23533.706971710977 ; 4059.3544751468035 ; 519099.1177218507 ; 142077.40663013802 ; 8330.000000000002
36 ; 23680.82612539498 ; 4059.3544751468035 ; 542632.8246935616 ; 146136.76110528482 ; 8568.000000000002
37 ; 24080.686432388924 ; 4059.3544751468035 ; 566313.6508189567 ; 150196.11558043162 ; 8806.000000000002
38 ; 24436.35284234942 ; 4059.3544751468035 ; 590394.3372513456 ; 154255.47005557842 ; 9044.000000000002
39 ; 24644.02415319208 ; 4059.3544751468035 ; 614830.6900936951 ; 158314.82453072522 ; 9282.000000000002
40 ; 24945.130997729662 ; 4059.3544751468035 ; 639474.7142468871 ; 162374.17900587202 ; 9520.000000000002
41 ; 25532.001546422733 ; 4059.3544751468035 ; 664419.8452446167 ; 166433.53348101882 ; 9758.000000000002
42 ; 25615.565906719017 ; 4059.3544751468035 ; 689951.8467910395 ; 170492.88795616562 ; 9996.000000000002
43 ; 26019.80152678093 ; 4059.3544751468035 ; 715567.4126977585 ; 174552.24243131242 ; 10234.000000000002
44 ; 26405.96074946003 ; 4059.3544751468035 ; 741587.2142245395 ; 178611.59690645922 ; 10472.000000000002
45 ; 26694.15309959933 ; 4059.3544751468035 ; 767993.1749739995 ; 182670.95138160602 ; 10710.000000000002
46 ; 26969.251195901026 ; 4059.3544751468035 ; 794687.3280735988 ; 186730.30585675282 ; 10948.000000000002
47 ; 27114.68547751833 ; 4059.3544751468035 ; 821656.5792694999 ; 190789.66033189962 ; 11186.000000000002
48 ; 27568.338191916348 ; 4059.3544751468035 ; 848771.2647470182 ; 194849.01480704642 ; 11424.000000000002
49 ; 27652.46355030165 ; 4059.3544751468035 ; 876339.6029389346 ; 198908.36928219322 ; 11662.000000000002
50 ; 27901.913578717118 ; 4059.3544751468035 ; 903992.0664892362 ; 202967.72375734002 ; 11900.000000000002
51 ; 28138.736970555383 ; 4059.3544751468035 ; 931893.9800679534 ; 207027.07823248682 ; 12138.000000000002
52 ; 28445.593562508726 ; 4059.3544751468035 ; 960032.7170385087 ; 211086.43270763362 ; 12376.000000000002
53 ; 28659.892189303544 ; 4059.3544751468035 ; 988478.3106010174 ; 215145.78718278042 ; 12614.000000000002
54 ; 28950.42966983142 ; 4059.3544751468035 ; 1017138.202790321 ; 219205.14165792722 ; 12852.000000000002
55 ; 29260.11876047822 ; 4059.3544751468035 ; 1046088.6324601524 ; 223264.49613307402 ; 13090.000000000002
56 ; 29317.480615392105 ; 4059.3544751468035 ; 1075348.7512206307 ; 227323.85060822082 ; 13328.000000000002
57 ; 29387.38961015237 ; 4059.3544751468035 ; 1104666.2318360228 ; 231383.20508336762 ; 13566.000000000002
58 ; 29797.012088351137 ; 4059.3544751468035 ; 1134053.6214461753 ; 235442.55955851442 ; 13804.000000000002
59 ; 29922.93432412071 ; 4059.3544751468035 ; 1163850.6335345265 ; 239501.91403366122 ; 14042.000000000002
60 ; 30067.15393349873 ; 4059.3544751468035 ; 1193773.567858647 ; 243561.26850880802 ; 14280.000000000002
61 ; 30329.733941842387 ; 4059.3544751468035 ; 1223840.7217921459 ; 247620.62298395482 ; 14518.000000000002
62 ; 30411.859372275398 ; 4059.3544751468035 ; 1254170.4557339882 ; 251679.97745910162 ; 14756.000000000002
63 ; 30536.108721816297 ; 4059.3544751468035 ; 1284582.3151062636 ; 255739.33193424842 ; 14994.000000000002
64 ; 30648.77665328569 ; 4059.3544751468035 ; 1315118.4238280798 ; 259798.68640939522 ; 15232.000000000002
65 ; 30850.505956123186 ; 4059.3544751468035 ; 1345767.2004813654 ; 263858.04088454205 ; 15470.000000000002
66 ; 31054.13182589595 ; 4059.3544751468035 ; 1376617.7064374886 ; 267917.39535968885 ; 15708.000000000002
67 ; 31133.68250863766 ; 4059.3544751468035 ; 1407671.8382633845 ; 271976.74983483565 ; 15946.000000000002
68 ; 31269.72302876052 ; 4059.3544751468035 ; 1438805.5207720222 ; 276036.10430998245 ; 16184.000000000002
69 ; 31407.674245998573 ; 4059.3544751468035 ; 1470075.2438007826 ; 280095.45878512925 ; 16422.000000000004
70 ; 31598.132677247868 ; 4059.3544751468035 ; 1501482.918046781 ; 284154.81326027605 ; 16660.000000000004
71 ; 31711.15955724399 ; 4059.3544751468035 ; 1533081.050724029 ; 288214.16773542284 ; 16898.000000000004
72 ; 31684.509051451067 ; 4059.3544751468035 ; 1564792.2102812731 ; 292273.52221056964 ; 17136.000000000004
73 ; 31675.61317960795 ; 4059.3544751468035 ; 1596476.719332724 ; 296332.87668571644 ; 17374.000000000004
74 ; 31791.061738304623 ; 4059.3544751468035 ; 1628152.3325123321 ; 300392.23116086324 ; 17612.000000000004
75 ; 31692.24687542235 ; 4059.3544751468035 ; 1659943.3942506367 ; 304451.58563601004 ; 17850.000000000004
76 ; 31970.03754105364 ; 4059.3544751468035 ; 1691635.641126059 ; 308510.94011115684 ; 18088.000000000004
77 ; 31999.44474299438 ; 4059.3544751468035 ; 1723605.6786671127 ; 312570.29458630364 ; 18326.000000000004
78 ; 32046.216741597065 ; 4059.3544751468035 ; 1755605.123410107 ; 316629.64906145044 ; 18564.000000000004
79 ; 32001.638706620837 ; 4059.3544751468035 ; 1787651.3401517041 ; 320689.00353659724 ; 18802.000000000004
80 ; 31929.947363876883 ; 4059.3544751468035 ; 1819652.978858325 ; 324748.35801174404 ; 19040.000000000004
81 ; 31968.537084605894 ; 4059.3544751468035 ; 1851582.926222202 ; 328807.71248689084 ; 19278.000000000004
82 ; 32117.799776663876 ; 4059.3544751468035 ; 1883551.463306808 ; 332867.06696203764 ; 19516.000000000004
83 ; 32047.86827555736 ; 4059.3544751468035 ; 1915669.2630834717 ; 336926.42143718444 ; 19754.000000000004
84 ; 32081.401828242382 ; 4059.3544751468035 ; 1947717.131359029 ; 340985.77591233124 ; 19992.000000000004
85 ; 32144.58605039337 ; 4059.3544751468035 ; 1979798.5331872716 ; 345045.13038747804 ; 20230.000000000004
86 ; 32064.768027267215 ; 4059.3544751468035 ; 2011943.1192376649 ; 349104.48486262484 ; 20468.000000000004
87 ; 32098.487184304424 ; 4059.3544751468035 ; 2044007.887264932 ; 353163.83933777164 ; 20706.000000000004
88 ; 31927.787749898576 ; 4059.3544751468035 ; 2076106.3744492366 ; 357223.19381291844 ; 20944.000000000004
89 ; 31890.712932967752 ; 4059.3544751468035 ; 2108034.162199135 ; 361282.54828806524 ; 21182.000000000004
90 ; 31808.068242777023 ; 4059.3544751468035 ; 2139924.8751321025 ; 365341.90276321204 ; 21420.000000000004
91 ; 31724.310892685782 ; 4059.3544751468035 ; 2171732.9433748797 ; 369401.25723835884 ; 21658.000000000004
92 ; 31745.24155343815 ; 4059.3544751468035 ; 2203457.2542675654 ; 373460.61171350564 ; 21896.000000000004
93 ; 31495.165056604885 ; 4059.3544751468035 ; 2235202.495821004 ; 377519.96618865244 ; 22134.000000000004
94 ; 31621.435685637676 ; 4059.3544751468035 ; 2266697.6608776087 ; 381579.32066379924 ; 22372.000000000004
95 ; 31363.247182347466 ; 4059.3544751468035 ; 2298319.0965632466 ; 385638.67513894604 ; 22610.000000000004
96 ; 31217.693823999103 ; 4059.3544751468035 ; 2329682.343745594 ; 389698.02961409284 ; 22848.000000000004
97 ; 31154.749614172488 ; 4059.3544751468035 ; 2360900.037569593 ; 393757.38408923964 ; 23086.000000000004
98 ; 31067.200860497276 ; 4059.3544751468035 ; 2392054.787183766 ; 397816.73856438644 ; 23324.000000000004
99 ; 30868.546718442198 ; 4059.3544751468035 ; 2423121.988044263 ; 401876.09303953324 ; 23562.000000000004
100 ; 30690.783114035276 ; 4059.3544751468035 ; 2453990.534762705 ; 405935.44751468004 ; 23800.000000000004
101 ; 30704.731373773524 ; 4059.3544751468035 ; 2484681.3178767404 ; 409994.80198982684 ; 24038.000000000004
102 ; 30534.398014944378 ; 4059.3544751468035 ; 2515386.049250514 ; 414054.15646497364 ; 24276.000000000004
103 ; 30479.43103483215 ; 4059.3544751468035 ; 2545920.4472654583 ; 418113.51094012044 ; 24514.000000000004
104 ; 30250.986733066817 ; 4059.3544751468035 ; 2576399.8783002906 ; 422172.86541526724 ; 24752.000000000004
105 ; 29944.831267490543 ; 4059.3544751468035 ; 2606650.8650333574 ; 426232.21989041404 ; 24990.000000000004
106 ; 29930.940997791833 ; 4059.3544751468035 ; 2636595.696300848 ; 430291.57436556084 ; 25228.000000000004
107 ; 29515.184300627414 ; 4059.3544751468035 ; 2666526.63729864 ; 434350.92884070764 ; 25466.000000000004
108 ; 29454.33443218284 ; 4059.3544751468035 ; 2696041.8215992674 ; 438410.28331585444 ; 25704.000000000004
109 ; 29200.50826809855 ; 4059.3544751468035 ; 2725496.1560314503 ; 442469.63779100124 ; 25942.000000000004
110 ; 29115.026349577194 ; 4059.3544751468035 ; 2754696.6642995486 ; 446528.99226614804 ; 26180.000000000004
111 ; 28765.086782854887 ; 4059.3544751468035 ; 2783811.6906491257 ; 450588.34674129484 ; 26418.000000000004
112 ; 28465.2416827112 ; 4059.3544751468035 ; 2812576.7774319807 ; 454647.70121644164 ; 26656.000000000004
113 ; 28482.484712838785 ; 4059.3544751468035 ; 2841042.0191146918 ; 458707.05569158844 ; 26894.000000000004
114 ; 28140.42886540003 ; 4059.3544751468035 ; 2869524.5038275304 ; 462766.41016673524 ; 27132.000000000004
115 ; 27788.11073051184 ; 4059.3544751468035 ; 2897664.9326929306 ; 466825.76464188204 ; 27370.000000000004
116 ; 27433.374558745763 ; 4059.3544751468035 ; 2925453.0434234426 ; 470885.11911702884 ; 27608.000000000004
117 ; 27165.260919538425 ; 4059.3544751468035 ; 2952886.4179821885 ; 474944.47359217564 ; 27846.000000000004
118 ; 27177.469704621144 ; 4059.3544751468035 ; 2980051.678901727 ; 479003.82806732244 ; 28084.000000000004
119 ; 26662.74668221865 ; 4059.3544751468035 ; 3007229.148606348 ; 483063.18254246924 ; 28322.000000000004
120 ; 26496.033860244643 ; 4059.3544751468035 ; 3033891.8952885666 ; 487122.53701761604 ; 28560.000000000004
121 ; 26210.064931014083 ; 4059.3544751468035 ; 3060387.9291488114 ; 491181.89149276284 ; 28798.000000000004
122 ; 25857.774732977006 ; 4059.3544751468035 ; 3086597.9940798255 ; 495241.24596790964 ; 29036.000000000004
123 ; 25432.365631068475 ; 4059.3544751468035 ; 3112455.7688128026 ; 499300.60044305644 ; 29274.000000000004
124 ; 25204.578856714517 ; 4059.3544751468035 ; 3137888.134443871 ; 503359.95491820324 ; 29512.000000000004
125 ; 24694.907658905515 ; 4059.3544751468035 ; 3163092.7133005857 ; 507419.30939335003 ; 29750.000000000004
126 ; 24289.79640324899 ; 4059.3544751468035 ; 3187787.6209594915 ; 511478.66386849683 ; 29988.000000000004
127 ; 24098.23823698132 ; 4059.3544751468035 ; 3212077.4173627403 ; 515538.01834364363 ; 30226.000000000004
128 ; 23575.065451911374 ; 4059.3544751468035 ; 3236175.6555997217 ; 519597.37281879043 ; 30464.000000000004
129 ; 23228.170869609865 ; 4059.3544751468035 ; 3259750.721051633 ; 523656.72729393723 ; 30702.000000000004
130 ; 22977.540112318817 ; 4059.3544751468035 ; 3282978.8919212427 ; 527716.0817690841 ; 30940.000000000004
131 ; 22602.742451555398 ; 4059.3544751468035 ; 3305956.4320335616 ; 531775.436244231 ; 31178.000000000004
132 ; 22339.180487044043 ; 4059.3544751468035 ; 3328559.174485117 ; 535834.7907193778 ; 31416.000000000004
133 ; 21805.825060505525 ; 4059.3544751468035 ; 3350898.3549721614 ; 539894.1451945247 ; 31654.000000000004
134 ; 21438.088211415616 ; 4059.3544751468035 ; 3372704.180032667 ; 543953.4996696715 ; 31892.000000000004
135 ; 21082.99286120063 ; 4059.3544751468035 ; 3394142.2682440826 ; 548012.8541448184 ; 32130.000000000004
136 ; 20760.9744047916 ; 4059.3544751468035 ; 3415225.261105283 ; 552072.2086199652 ; 32368.000000000004
137 ; 20312.945668560125 ; 4059.3544751468035 ; 3435986.2355100745 ; 556131.5630951121 ; 32606.000000000004
138 ; 19625.23495296242 ; 4059.3544751468035 ; 3456299.1811786345 ; 560190.917570259 ; 32844.00000000001
139 ; 19392.195558294403 ; 4059.3544751468035 ; 3475924.416131597 ; 564250.2720454058 ; 33082.00000000001
140 ; 18845.36528341662 ; 4059.3544751468035 ; 3495316.611689891 ; 568309.6265205527 ; 33320.00000000001
141 ; 18392.339573096768 ; 4059.3544751468035 ; 3514161.976973308 ; 572368.9809956995 ; 33558.00000000001
142 ; 18015.625262257665 ; 4059.3544751468035 ; 3532554.3165464047 ; 576428.3354708464 ; 33796.00000000001
143 ; 17433.98028561784 ; 4059.3544751468035 ; 3550569.9418086624 ; 580487.6899459932 ; 34034.00000000001
144 ; 17007.642530337118 ; 4059.3544751468035 ; 3568003.9220942804 ; 584547.0444211401 ; 34272.00000000001
145 ; 16883.50496225667 ; 4059.3544751468035 ; 3585011.5646246173 ; 588606.398896287 ; 34510.00000000001
146 ; 16738.413041377975 ; 4059.3544751468035 ; 3601895.069586874 ; 592665.7533714338 ; 34748.00000000001
147 ; 16484.344534647196 ; 4059.3544751468035 ; 3618633.482628252 ; 596725.1078465807 ; 34986.00000000001
148 ; 16510.236156217852 ; 4059.3544751468035 ; 3635117.827162899 ; 600784.4623217275 ; 35224.00000000001
149 ; 16358.408748213908 ; 4059.3544751468035 ; 3651628.063319117 ; 604843.8167968744 ; 35462.00000000001
150 ; 16123.246951182024 ; 4059.3544751468035 ; 3667986.472067331 ; 608903.1712720213 ; 35700.00000000001
151 ; 15901.567562657821 ; 4059.3544751468035 ; 3684109.719018513 ; 612962.5257471681 ; 35938.00000000001
152 ; 15716.998323379297 ; 4059.3544751468035 ; 3700011.2865811707 ; 617021.880222315 ; 36176.00000000001
153 ; 15531.434079487888 ; 4059.3544751468035 ; 3715728.28490455 ; 621081.2346974618 ; 36414.00000000001
154 ; 15472.241381122807 ; 4059.3544751468035 ; 3731259.7189840376 ; 625140.5891726087 ; 36652.00000000001
155 ; 15312.65306989676 ; 4059.3544751468035 ; 3746731.9603651604 ; 629199.9436477555 ; 36890.00000000001
156 ; 15268.204605526404 ; 4059.3544751468035 ; 3762044.613435057 ; 633259.2981229024 ; 37128.00000000001
157 ; 14881.383923722398 ; 4059.3544751468035 ; 3777312.8180405833 ; 637318.6525980493 ; 37366.00000000001
158 ; 14851.30982143704 ; 4059.3544751468035 ; 3792194.2019643057 ; 641378.0070731961 ; 37604.00000000001
159 ; 14602.002397224516 ; 4059.3544751468035 ; 3807045.511785743 ; 645437.361548343 ; 37842.00000000001
160 ; 14477.925664362705 ; 4059.3544751468035 ; 3821647.514182967 ; 649496.7160234898 ; 38080.00000000001
161 ; 14333.593332247889 ; 4059.3544751468035 ; 3836125.4398473296 ; 653556.0704986367 ; 38318.00000000001
162 ; 14093.925579900835 ; 4059.3544751468035 ; 3850459.0331795774 ; 657615.4249737835 ; 38556.00000000001
163 ; 14079.462236604017 ; 4059.3544751468035 ; 3864552.9587594783 ; 661674.7794489304 ; 38794.00000000001
164 ; 13832.70923504887 ; 4059.3544751468035 ; 3878632.4209960825 ; 665734.1339240773 ; 39032.00000000001
165 ; 13710.84775954869 ; 4059.3544751468035 ; 3892465.1302311313 ; 669793.4883992241 ; 39270.00000000001
166 ; 13509.73947429008 ; 4059.3544751468035 ; 3906175.97799068 ; 673852.842874371 ; 39508.00000000001
167 ; 13224.82490936356 ; 4059.3544751468035 ; 3919685.71746497 ; 677912.1973495178 ; 39746.00000000001
168 ; 12940.126237472927 ; 4059.3544751468035 ; 3932910.5423743334 ; 681971.5518246647 ; 39984.00000000001
169 ; 12944.354514194136 ; 4059.3544751468035 ; 3945850.6686118064 ; 686030.9062998116 ; 40222.00000000001
170 ; 12759.505050167232 ; 4059.3544751468035 ; 3958795.0231260005 ; 690090.2607749584 ; 40460.00000000001
171 ; 12386.864322296986 ; 4059.3544751468035 ; 3971554.528176168 ; 694149.6152501053 ; 40698.00000000001
172 ; 12235.739482223187 ; 4059.3544751468035 ; 3983941.392498465 ; 698208.9697252521 ; 40936.00000000001
173 ; 12000.286091861224 ; 4059.3544751468035 ; 3996177.131980688 ; 702268.324200399 ; 41174.00000000001
174 ; 12196.250279551705 ; 4059.3544751468035 ; 4008177.418072549 ; 706327.6786755458 ; 41412.00000000001
175 ; 12304.100921501013 ; 4059.3544751468035 ; 4020373.668352101 ; 710387.0331506927 ; 41650.00000000001
176 ; 12001.099772580556 ; 4059.3544751468035 ; 4032677.769273602 ; 714446.3876258396 ; 41888.00000000001
177 ; 12236.024503224178 ; 4059.3544751468035 ; 4044678.8690461824 ; 718505.7421009864 ; 42126.00000000001
178 ; 12071.536539899196 ; 4059.3544751468035 ; 4056914.8935494064 ; 722565.0965761333 ; 42364.00000000001
179 ; 12352.413253675266 ; 4059.3544751468035 ; 4068986.4300893056 ; 726624.4510512801 ; 42602.00000000001
180 ; 12515.44646555571 ; 4059.3544751468035 ; 4081338.843342981 ; 730683.805526427 ; 42840.00000000001
181 ; 12405.554289021755 ; 4059.3544751468035 ; 4093854.2898085364 ; 734743.1600015739 ; 43078.00000000001
182 ; 12419.524432919092 ; 4059.3544751468035 ; 4106259.844097558 ; 738802.5144767207 ; 43316.00000000001
183 ; 12481.174980975087 ; 4059.3544751468035 ; 4118679.368530477 ; 742861.8689518676 ; 43554.00000000001
184 ; 12570.221487386492 ; 4059.3544751468035 ; 4131160.543511452 ; 746921.2234270144 ; 43792.00000000001
