CSV File for the City 1 on Day 317
1 - Minute m 
2 - Power Consumed at minute m 
3 - Power Produced at minute m 
4 - Energy Consumed since the beginning of the day 
5 - Energy Produced since the beginning of the day 
6 - Energy Lost since the beginning of the day on lines starting from the city
 
0 ; 11267.953419859832 ; 20063.56911663942 ; 0.0 ; 0.0 ; 0.0
1 ; 11554.461730844045 ; 20063.56911663942 ; 11267.953419859832 ; 20063.56911663942 ; 238.00000000000003
2 ; 12010.260093063565 ; 20063.56911663942 ; 22822.415150703877 ; 40127.13823327884 ; 476.00000000000006
3 ; 12366.680943695575 ; 20063.56911663942 ; 34832.675243767444 ; 60190.70734991826 ; 714.0000000000001
4 ; 12712.833844056184 ; 20063.56911663942 ; 47199.35618746302 ; 80254.27646655768 ; 952.0000000000001
5 ; 12889.380405589684 ; 20063.56911663942 ; 59912.1900315192 ; 100317.84558319711 ; 1190.0000000000002
6 ; 13291.775585363353 ; 20063.56911663942 ; 72801.5704371089 ; 120381.41469983653 ; 1428.0000000000002
7 ; 13676.45967072837 ; 20063.56911663942 ; 86093.34602247225 ; 140444.98381647596 ; 1666.0000000000002
8 ; 14034.08947992703 ; 20063.56911663942 ; 99769.80569320061 ; 160508.55293311537 ; 1904.0000000000002
9 ; 14280.587510622348 ; 20063.56911663942 ; 113803.89517312765 ; 180572.12204975478 ; 2142.0000000000005
10 ; 14649.977947945325 ; 20063.56911663942 ; 128084.48268375 ; 200635.6911663942 ; 2380.0000000000005
11 ; 15111.177225790047 ; 20063.56911663942 ; 142734.4606316953 ; 220699.2602830336 ; 2618.0000000000005
12 ; 15288.902512592927 ; 20063.56911663942 ; 157845.63785748536 ; 240762.829399673 ; 2856.0000000000005
13 ; 15639.18302655076 ; 20063.56911663942 ; 173134.5403700783 ; 260826.39851631242 ; 3094.0000000000005
14 ; 16052.682971678401 ; 20063.56911663942 ; 188773.72339662904 ; 280889.96763295186 ; 3332.0000000000005
15 ; 16255.045682646425 ; 20063.56911663942 ; 204826.40636830745 ; 300953.5367495913 ; 3570.0000000000005
16 ; 16688.70860354838 ; 20063.56911663942 ; 221081.45205095387 ; 321017.10586623073 ; 3808.0000000000005
17 ; 16838.974839899376 ; 20063.56911663942 ; 237770.16065450225 ; 341080.6749828702 ; 4046.0000000000005
18 ; 17165.63246675004 ; 20063.56911663942 ; 254609.13549440162 ; 361144.2440995096 ; 4284.000000000001
19 ; 17470.62324093597 ; 20063.56911663942 ; 271774.76796115167 ; 381207.81321614905 ; 4522.000000000001
20 ; 17811.469281949758 ; 20063.56911663942 ; 289245.39120208763 ; 401271.3823327885 ; 4760.000000000001
21 ; 17907.767823455088 ; 20063.56911663942 ; 307056.8604840374 ; 421334.9514494279 ; 4998.000000000001
22 ; 18197.394736725695 ; 20063.56911663942 ; 324964.6283074925 ; 441398.52056606737 ; 5236.000000000001
23 ; 18602.48652265847 ; 20063.56911663942 ; 343162.0230442182 ; 461462.0896827068 ; 5474.000000000001
24 ; 18658.141687278483 ; 20063.56911663942 ; 361764.5095668767 ; 481525.65879934625 ; 5712.000000000001
25 ; 18952.52234025408 ; 20063.56911663942 ; 380422.65125415515 ; 501589.2279159857 ; 5950.000000000001
26 ; 19318.09327358026 ; 20063.56911663942 ; 399375.17359440925 ; 521652.7970326251 ; 6188.000000000001
27 ; 19528.539275024566 ; 20063.56911663942 ; 418693.2668679895 ; 541716.3661492645 ; 6426.000000000001
28 ; 19923.34483126231 ; 20063.56911663942 ; 438221.80614301405 ; 561779.935265904 ; 6664.000000000001
29 ; 19885.878654567874 ; 20063.56911663942 ; 458145.15097427636 ; 581843.5043825434 ; 6902.000000000001
30 ; 20159.44818407198 ; 20063.56911663942 ; 478031.02962884423 ; 601907.0734991828 ; 7140.000000000001
31 ; 20424.25837487758 ; 20063.56911663942 ; 498190.4778129162 ; 621970.6426158223 ; 7378.000000000001
32 ; 20645.11921665221 ; 20063.56911663942 ; 518614.7361877938 ; 642034.2117324617 ; 7616.000000000001
33 ; 20927.281104796715 ; 20063.56911663942 ; 539259.855404446 ; 662097.7808491011 ; 7854.000000000001
34 ; 20961.023255980672 ; 20063.56911663942 ; 560187.1365092427 ; 682161.3499657406 ; 8092.000000000001
35 ; 21505.708074937018 ; 20063.56911663942 ; 581148.1597652234 ; 702224.91908238 ; 8330.000000000002
36 ; 21421.39516393988 ; 20063.56911663942 ; 602653.8678401604 ; 722288.4881990195 ; 8568.000000000002
37 ; 21836.99078105724 ; 20063.56911663942 ; 624075.2630041003 ; 742352.0573156589 ; 8806.000000000002
38 ; 22072.395506704022 ; 20063.56911663942 ; 645912.2537851576 ; 762415.6264322983 ; 9044.000000000002
39 ; 22072.89014161892 ; 20063.56911663942 ; 667984.6492918616 ; 782479.1955489378 ; 9282.000000000002
40 ; 22456.94330078406 ; 20063.56911663942 ; 690057.5394334805 ; 802542.7646655772 ; 9520.000000000002
41 ; 22456.198983798728 ; 20063.56911663942 ; 712514.4827342646 ; 822606.3337822167 ; 9758.000000000002
42 ; 22524.805865401824 ; 20063.56911663942 ; 734970.6817180633 ; 842669.9028988561 ; 9996.000000000002
43 ; 22940.507163172842 ; 20063.56911663942 ; 757495.4875834652 ; 862733.4720154955 ; 10234.000000000002
44 ; 22890.83673333616 ; 20063.56911663942 ; 780435.994746638 ; 882797.041132135 ; 10472.000000000002
45 ; 23168.712167455975 ; 20063.56911663942 ; 803326.8314799742 ; 902860.6102487744 ; 10710.000000000002
46 ; 23276.276328548764 ; 20063.56911663942 ; 826495.5436474301 ; 922924.1793654138 ; 10948.000000000002
47 ; 23339.7648298457 ; 20063.56911663942 ; 849771.8199759789 ; 942987.7484820533 ; 11186.000000000002
48 ; 23763.465271005585 ; 20063.56911663942 ; 873111.5848058247 ; 963051.3175986927 ; 11424.000000000002
49 ; 23803.064162222883 ; 20063.56911663942 ; 896875.0500768303 ; 983114.8867153322 ; 11662.000000000002
50 ; 24131.002217249454 ; 20063.56911663942 ; 920678.1142390532 ; 1003178.4558319716 ; 11900.000000000002
51 ; 24061.578675496843 ; 20063.56911663942 ; 944809.1164563027 ; 1023242.024948611 ; 12138.000000000002
52 ; 24133.887335700707 ; 20063.56911663942 ; 968870.6951317996 ; 1043305.5940652505 ; 12376.000000000002
53 ; 24267.925804307506 ; 20063.56911663942 ; 993004.5824675002 ; 1063369.1631818898 ; 12614.000000000002
54 ; 24362.614280487316 ; 20063.56911663942 ; 1017272.5082718077 ; 1083432.7322985292 ; 12852.000000000002
55 ; 24454.758341734472 ; 20063.56911663942 ; 1041635.122552295 ; 1103496.3014151687 ; 13090.000000000002
56 ; 24624.94941873639 ; 20063.56911663942 ; 1066089.8808940295 ; 1123559.8705318081 ; 13328.000000000002
57 ; 24940.329622219222 ; 20063.56911663942 ; 1090714.830312766 ; 1143623.4396484476 ; 13566.000000000002
58 ; 24878.708961226195 ; 20063.56911663942 ; 1115655.1599349852 ; 1163687.008765087 ; 13804.000000000002
59 ; 25107.49920991851 ; 20063.56911663942 ; 1140533.8688962115 ; 1183750.5778817264 ; 14042.000000000002
60 ; 25133.87644961505 ; 20063.56911663942 ; 1165641.36810613 ; 1203814.1469983659 ; 14280.000000000002
61 ; 25317.903761442896 ; 20063.56911663942 ; 1190775.244555745 ; 1223877.7161150053 ; 14518.000000000002
62 ; 25345.840193111213 ; 20063.56911663942 ; 1216093.148317188 ; 1243941.2852316448 ; 14756.000000000002
63 ; 25593.59195127562 ; 20063.56911663942 ; 1241438.9885102992 ; 1264004.8543482842 ; 14994.000000000002
64 ; 25670.94468699406 ; 20063.56911663942 ; 1267032.580461575 ; 1284068.4234649236 ; 15232.000000000002
65 ; 25380.661526997905 ; 20063.56911663942 ; 1292703.525148569 ; 1304131.992581563 ; 15470.000000000002
66 ; 25410.051979056076 ; 20063.56911663942 ; 1318084.1866755667 ; 1324195.5616982025 ; 15708.000000000002
67 ; 25673.09061871296 ; 20063.56911663942 ; 1343494.2386546228 ; 1344259.130814842 ; 15946.000000000002
68 ; 25783.377909019397 ; 20063.56911663942 ; 1369167.3292733359 ; 1364322.6999314814 ; 16184.000000000002
69 ; 25873.371741846884 ; 20063.56911663942 ; 1394950.7071823552 ; 1384386.2690481208 ; 16422.000000000004
70 ; 25687.905695054866 ; 20063.56911663942 ; 1420824.0789242021 ; 1404449.8381647603 ; 16660.000000000004
71 ; 25879.8784284004 ; 20063.56911663942 ; 1446511.984619257 ; 1424513.4072813997 ; 16898.000000000004
72 ; 25950.7583210452 ; 20063.56911663942 ; 1472391.8630476575 ; 1444576.9763980391 ; 17136.000000000004
73 ; 25896.311967245023 ; 20063.56911663942 ; 1498342.6213687027 ; 1464640.5455146786 ; 17374.000000000004
74 ; 26011.027344381564 ; 20063.56911663942 ; 1524238.9333359478 ; 1484704.114631318 ; 17612.000000000004
75 ; 25866.076471981174 ; 20063.56911663942 ; 1550249.9606803295 ; 1504767.6837479575 ; 17850.000000000004
76 ; 25995.375320372987 ; 20063.56911663942 ; 1576116.0371523106 ; 1524831.252864597 ; 18088.000000000004
77 ; 26001.04830900438 ; 20063.56911663942 ; 1602111.4124726835 ; 1544894.8219812363 ; 18326.000000000004
78 ; 26159.34148747214 ; 20063.56911663942 ; 1628112.4607816879 ; 1564958.3910978758 ; 18564.000000000004
79 ; 26048.272818283538 ; 20063.56911663942 ; 1654271.80226916 ; 1585021.9602145152 ; 18802.000000000004
80 ; 26055.44625993534 ; 20063.56911663942 ; 1680320.0750874437 ; 1605085.5293311547 ; 19040.000000000004
81 ; 26062.513636530726 ; 20063.56911663942 ; 1706375.521347379 ; 1625149.098447794 ; 19278.000000000004
82 ; 26014.091772338255 ; 20063.56911663942 ; 1732438.0349839097 ; 1645212.6675644335 ; 19516.000000000004
83 ; 26106.974248029095 ; 20063.56911663942 ; 1758452.1267562478 ; 1665276.236681073 ; 19754.000000000004
84 ; 26162.748189499765 ; 20063.56911663942 ; 1784559.101004277 ; 1685339.8057977124 ; 19992.000000000004
85 ; 25927.12811298217 ; 20063.56911663942 ; 1810721.8491937767 ; 1705403.3749143519 ; 20230.000000000004
86 ; 26230.774598130953 ; 20063.56911663942 ; 1836648.977306759 ; 1725466.9440309913 ; 20468.000000000004
87 ; 26107.951888119376 ; 20063.56911663942 ; 1862879.75190489 ; 1745530.5131476307 ; 20706.000000000004
88 ; 26177.897905811835 ; 20063.56911663942 ; 1888987.7037930093 ; 1765594.0822642702 ; 20944.000000000004
89 ; 26077.521432724257 ; 20063.56911663942 ; 1915165.6016988212 ; 1785657.6513809096 ; 21182.000000000004
90 ; 25989.73240831011 ; 20063.56911663942 ; 1941243.1231315455 ; 1805721.220497549 ; 21420.000000000004
91 ; 25787.20176512502 ; 20063.56911663942 ; 1967232.8555398555 ; 1825784.7896141885 ; 21658.000000000004
92 ; 25906.73120168546 ; 20063.56911663942 ; 1993020.0573049805 ; 1845848.358730828 ; 21896.000000000004
93 ; 25751.69371447295 ; 20063.56911663942 ; 2018926.788506666 ; 1865911.9278474674 ; 22134.000000000004
94 ; 25779.2425621535 ; 20063.56911663942 ; 2044678.482221139 ; 1885975.4969641068 ; 22372.000000000004
95 ; 25518.915671538813 ; 20063.56911663942 ; 2070457.7247832925 ; 1906039.0660807462 ; 22610.000000000004
96 ; 25473.98379295377 ; 20063.56911663942 ; 2095976.6404548313 ; 1926102.6351973857 ; 22848.000000000004
97 ; 25489.72556089539 ; 20063.56911663942 ; 2121450.624247785 ; 1946166.2043140251 ; 23086.000000000004
98 ; 25473.1797175585 ; 20063.56911663942 ; 2146940.3498086804 ; 1966229.7734306646 ; 23324.000000000004
99 ; 25220.022768665393 ; 20063.56911663942 ; 2172413.529526239 ; 1986293.342547304 ; 23562.000000000004
100 ; 25482.02985683928 ; 20063.56911663942 ; 2197633.5522949044 ; 2006356.9116639434 ; 23800.000000000004
101 ; 25040.392660241378 ; 20063.56911663942 ; 2223115.5821517436 ; 2026420.4807805829 ; 24038.000000000004
102 ; 25121.397560396854 ; 20063.56911663942 ; 2248155.974811985 ; 2046484.0498972223 ; 24276.000000000004
103 ; 25058.20138562573 ; 20063.56911663942 ; 2273277.372372382 ; 2066547.6190138618 ; 24514.000000000004
104 ; 24850.656062461505 ; 20063.56911663942 ; 2298335.5737580075 ; 2086611.1881305012 ; 24752.000000000004
105 ; 24675.967754349396 ; 20063.56911663942 ; 2323186.229820469 ; 2106674.7572471406 ; 24990.000000000004
106 ; 24771.105715554637 ; 20063.56911663942 ; 2347862.1975748185 ; 2126738.32636378 ; 25228.000000000004
107 ; 24620.31846669381 ; 20063.56911663942 ; 2372633.303290373 ; 2146801.8954804195 ; 25466.000000000004
108 ; 24460.341178354993 ; 20063.56911663942 ; 2397253.621757067 ; 2166865.464597059 ; 25704.000000000004
109 ; 23938.91819218887 ; 20063.56911663942 ; 2421713.9629354216 ; 2186929.0337136984 ; 25942.000000000004
110 ; 24291.35631515236 ; 20063.56911663942 ; 2445652.8811276103 ; 2206992.602830338 ; 26180.000000000004
111 ; 24112.376379663114 ; 20063.56911663942 ; 2469944.2374427626 ; 2227056.1719469773 ; 26418.000000000004
112 ; 24095.734935738143 ; 20063.56911663942 ; 2494056.6138224257 ; 2247119.7410636167 ; 26656.000000000004
113 ; 23922.18255556627 ; 20063.56911663942 ; 2518152.348758164 ; 2267183.310180256 ; 26894.000000000004
114 ; 23468.543258591082 ; 20063.56911663942 ; 2542074.53131373 ; 2287246.8792968956 ; 27132.000000000004
115 ; 23702.60471354068 ; 20063.56911663942 ; 2565543.074572321 ; 2307310.448413535 ; 27370.000000000004
116 ; 23187.37857491316 ; 20063.56911663942 ; 2589245.6792858616 ; 2327374.0175301745 ; 27608.000000000004
117 ; 23003.87698005506 ; 20063.56911663942 ; 2612433.057860775 ; 2347437.586646814 ; 27846.000000000004
118 ; 22767.568180527967 ; 20063.56911663942 ; 2635436.93484083 ; 2367501.1557634533 ; 28084.000000000004
119 ; 22960.02954318124 ; 20063.56911663942 ; 2658204.503021358 ; 2387564.724880093 ; 28322.000000000004
120 ; 22576.238800792267 ; 20063.56911663942 ; 2681164.5325645395 ; 2407628.293996732 ; 28560.000000000004
121 ; 22571.9763704389 ; 20063.56911663942 ; 2703740.771365332 ; 2427691.8631133717 ; 28798.000000000004
122 ; 22424.34787824978 ; 20063.56911663942 ; 2726312.747735771 ; 2447755.432230011 ; 29036.000000000004
123 ; 22065.222192914156 ; 20063.56911663942 ; 2748737.0956140207 ; 2467819.0013466505 ; 29274.000000000004
124 ; 21927.643971795627 ; 20063.56911663942 ; 2770802.317806935 ; 2487882.57046329 ; 29512.000000000004
125 ; 21688.316152699343 ; 20063.56911663942 ; 2792729.9617787306 ; 2507946.1395799294 ; 29750.000000000004
126 ; 21366.60874891706 ; 20063.56911663942 ; 2814418.27793143 ; 2528009.708696569 ; 29988.000000000004
127 ; 21352.357790616363 ; 20063.56911663942 ; 2835784.886680347 ; 2548073.2778132083 ; 30226.000000000004
128 ; 20952.964375048472 ; 20063.56911663942 ; 2857137.2444709633 ; 2568136.8469298477 ; 30464.000000000004
129 ; 20950.136624361054 ; 20063.56911663942 ; 2878090.2088460117 ; 2588200.416046487 ; 30702.000000000004
130 ; 20508.919196685012 ; 20063.56911663942 ; 2899040.3454703726 ; 2608263.9851631266 ; 30940.000000000004
131 ; 20524.275520081886 ; 20063.56911663942 ; 2919549.2646670574 ; 2628327.554279766 ; 31178.000000000004
132 ; 20147.4390614967 ; 20063.56911663942 ; 2940073.5401871395 ; 2648391.1233964055 ; 31416.000000000004
133 ; 20023.037569754164 ; 20063.56911663942 ; 2960220.9792486364 ; 2668454.692513045 ; 31654.000000000004
134 ; 19815.00824823904 ; 20063.56911663942 ; 2980244.0168183907 ; 2688518.2616296844 ; 31892.000000000004
135 ; 19416.70013336926 ; 20063.56911663942 ; 3000059.0250666295 ; 2708581.830746324 ; 32130.000000000004
136 ; 19270.673463999927 ; 20063.56911663942 ; 3019475.725199999 ; 2728645.3998629632 ; 32368.000000000004
137 ; 19049.838232901733 ; 20063.56911663942 ; 3038746.3986639986 ; 2748708.9689796027 ; 32606.000000000004
138 ; 18815.453382643947 ; 20063.56911663942 ; 3057796.2368969005 ; 2768772.538096242 ; 32844.00000000001
139 ; 18565.39792908868 ; 20063.56911663942 ; 3076611.6902795443 ; 2788836.1072128816 ; 33082.00000000001
140 ; 18135.97225528265 ; 20063.56911663942 ; 3095177.088208633 ; 2808899.676329521 ; 33320.00000000001
141 ; 17746.554009201463 ; 20063.56911663942 ; 3113313.0604639156 ; 2828963.2454461604 ; 33558.00000000001
142 ; 17474.57405587948 ; 20063.56911663942 ; 3131059.614473117 ; 2849026.8145628 ; 33796.00000000001
143 ; 17220.377694693943 ; 20063.56911663942 ; 3148534.1885289964 ; 2869090.3836794393 ; 34034.00000000001
144 ; 16930.91528801974 ; 20063.56911663942 ; 3165754.5662236903 ; 2889153.9527960788 ; 34272.00000000001
145 ; 16866.38423554153 ; 20063.56911663942 ; 3182685.48151171 ; 2909217.521912718 ; 34510.00000000001
146 ; 16915.57340060173 ; 20063.56911663942 ; 3199551.8657472515 ; 2929281.0910293576 ; 34748.00000000001
147 ; 16800.31091731614 ; 20063.56911663942 ; 3216467.4391478533 ; 2949344.660145997 ; 34986.00000000001
148 ; 16724.04883251267 ; 20063.56911663942 ; 3233267.7500651693 ; 2969408.2292626365 ; 35224.00000000001
149 ; 16574.975644358983 ; 20063.56911663942 ; 3249991.7988976818 ; 2989471.798379276 ; 35462.00000000001
150 ; 16550.97799958799 ; 20063.56911663942 ; 3266566.7745420407 ; 3009535.3674959154 ; 35700.00000000001
151 ; 16321.005188540425 ; 20063.56911663942 ; 3283117.7525416287 ; 3029598.936612555 ; 35938.00000000001
152 ; 16412.354906700242 ; 20063.56911663942 ; 3299438.757730169 ; 3049662.5057291943 ; 36176.00000000001
153 ; 16103.562177517448 ; 20063.56911663942 ; 3315851.1126368693 ; 3069726.0748458337 ; 36414.00000000001
154 ; 16078.838127183535 ; 20063.56911663942 ; 3331954.6748143868 ; 3089789.643962473 ; 36652.00000000001
155 ; 16044.441095990305 ; 20063.56911663942 ; 3348033.5129415705 ; 3109853.2130791126 ; 36890.00000000001
156 ; 15943.215553491547 ; 20063.56911663942 ; 3364077.9540375606 ; 3129916.782195752 ; 37128.00000000001
157 ; 15846.166231425821 ; 20063.56911663942 ; 3380021.169591052 ; 3149980.3513123915 ; 37366.00000000001
158 ; 15550.052494522857 ; 20063.56911663942 ; 3395867.335822478 ; 3170043.920429031 ; 37604.00000000001
159 ; 15513.55041534225 ; 20063.56911663942 ; 3411417.3883170006 ; 3190107.4895456703 ; 37842.00000000001
160 ; 15329.196286194463 ; 20063.56911663942 ; 3426930.938732343 ; 3210171.05866231 ; 38080.00000000001
161 ; 15257.331776841187 ; 20063.56911663942 ; 3442260.1350185373 ; 3230234.627778949 ; 38318.00000000001
162 ; 15080.596306195013 ; 20063.56911663942 ; 3457517.4667953784 ; 3250298.1968955887 ; 38556.00000000001
163 ; 15157.223967481581 ; 20063.56911663942 ; 3472598.0631015734 ; 3270361.766012228 ; 38794.00000000001
164 ; 14898.541995604235 ; 20063.56911663942 ; 3487755.287069055 ; 3290425.3351288675 ; 39032.00000000001
165 ; 14689.963658663315 ; 20063.56911663942 ; 3502653.829064659 ; 3310488.904245507 ; 39270.00000000001
166 ; 14659.640766319591 ; 20063.56911663942 ; 3517343.7927233223 ; 3330552.4733621464 ; 39508.00000000001
167 ; 14780.684827083443 ; 20063.56911663942 ; 3532003.433489642 ; 3350616.042478786 ; 39746.00000000001
168 ; 14433.372669612081 ; 20063.56911663942 ; 3546784.1183167254 ; 3370679.6115954253 ; 39984.00000000001
169 ; 14193.662045069797 ; 20063.56911663942 ; 3561217.4909863374 ; 3390743.1807120647 ; 40222.00000000001
170 ; 14051.586251349947 ; 20063.56911663942 ; 3575411.1530314074 ; 3410806.749828704 ; 40460.00000000001
171 ; 13914.113709882819 ; 20063.56911663942 ; 3589462.7392827575 ; 3430870.3189453436 ; 40698.00000000001
172 ; 13921.56143150961 ; 20063.56911663942 ; 3603376.8529926403 ; 3450933.888061983 ; 40936.00000000001
173 ; 13719.736599775868 ; 20063.56911663942 ; 3617298.41442415 ; 3470997.4571786225 ; 41174.00000000001
174 ; 13689.05007797413 ; 20063.56911663942 ; 3631018.1510239257 ; 3491061.026295262 ; 41412.00000000001
175 ; 13597.033424884843 ; 20063.56911663942 ; 3644707.2011019 ; 3511124.5954119014 ; 41650.00000000001
176 ; 13764.877765511545 ; 20063.56911663942 ; 3658304.234526785 ; 3531188.164528541 ; 41888.00000000001
177 ; 13756.669646334081 ; 20063.56911663942 ; 3672069.1122922967 ; 3551251.7336451802 ; 42126.00000000001
178 ; 13605.904861999332 ; 20063.56911663942 ; 3685825.7819386306 ; 3571315.3027618197 ; 42364.00000000001
179 ; 13677.377970307254 ; 20063.56911663942 ; 3699431.68680063 ; 3591378.871878459 ; 42602.00000000001
180 ; 13844.653325488756 ; 20063.56911663942 ; 3713109.064770937 ; 3611442.4409950986 ; 42840.00000000001
181 ; 13796.75696526937 ; 20063.56911663942 ; 3726953.7180964258 ; 3631506.010111738 ; 43078.00000000001
182 ; 13911.768547350724 ; 20063.56911663942 ; 3740750.475061695 ; 3651569.5792283774 ; 43316.00000000001
183 ; 13883.70835544298 ; 20063.56911663942 ; 3754662.2436090456 ; 3671633.148345017 ; 43554.00000000001
184 ; 13715.911789537808 ; 20063.56911663942 ; 3768545.9519644887 ; 3691696.7174616563 ; 43792.00000000001
185 ; 13761.15680605362 ; 20063.56911663942 ; 3782261.8637540266 ; 3711760.2865782958 ; 44030.00000000001
186 ; 13841.156620101458 ; 20063.56911663942 ; 3796023.02056008 ; 3731823.855694935 ; 44268.00000000001
