CSV File for the City 3 on Day 261
1 - Minute m 
2 - Power Consumed at minute m 
3 - Power Produced at minute m 
4 - Energy Consumed since the beginning of the day 
5 - Energy Produced since the beginning of the day 
6 - Energy Lost since the beginning of the day on lines starting from the city
 
0 ; 5256.893015018619 ; 82766.31604382151 ; 0.0 ; 0.0 ; 0.0
1 ; 5535.927915992962 ; 82415.2162787469 ; 5256.893015018619 ; 82766.31604382151 ; 0.0
2 ; 5908.483696870846 ; 82099.72943549401 ; 10792.820931011582 ; 165181.5323225684 ; 0.0
3 ; 6305.971349729218 ; 81820.2916234905 ; 16701.304627882426 ; 247281.2617580624 ; 0.0
4 ; 6823.742066475015 ; 81577.2946747453 ; 23007.275977611644 ; 329101.5533815529 ; 0.0
5 ; 7147.440555386536 ; 81371.08363768515 ; 29831.01804408666 ; 410678.8480562982 ; 0.0
6 ; 7636.680155661929 ; 81201.95452093196 ; 36978.4585994732 ; 492049.9316939834 ; 0.0
7 ; 7926.866797973041 ; 81070.15232074923 ; 44615.13875513513 ; 573251.8862149153 ; 0.0
8 ; 8255.508910623821 ; 80975.86936246166 ; 52542.00555310817 ; 654322.0385356646 ; 0.0
9 ; 8607.701858358147 ; 80919.24398190372 ; 60797.51446373199 ; 735297.9078981262 ; 0.0
10 ; 9032.555848396581 ; 80900.35956798708 ; 69405.21632209014 ; 816217.1518800299 ; 0.0
11 ; 9430.70786134811 ; 80919.24398190372 ; 78437.77217048673 ; 897117.511448017 ; 0.0
12 ; 9647.087038369958 ; 80975.86936246166 ; 87868.48003183484 ; 978036.7554299207 ; 0.0
13 ; 10144.072067350666 ; 81070.15232074923 ; 97515.5670702048 ; 1059012.6247923824 ; 0.0
14 ; 10383.000879865838 ; 81201.95452093196 ; 107659.63913755547 ; 1140082.7771131315 ; 0.0
15 ; 10808.349405611332 ; 81371.08363768515 ; 118042.6400174213 ; 1221284.7316340634 ; 0.0
16 ; 11072.407550108961 ; 81577.2946747453 ; 128850.98942303263 ; 1302655.8152717485 ; 0.0
17 ; 11235.049614420948 ; 81820.29162349038 ; 139923.3969731416 ; 1384233.1099464938 ; 0.0
18 ; 11620.307950277765 ; 82099.72943549401 ; 151158.44658756253 ; 1466053.4015699842 ; 0.0
19 ; 12171.799466349186 ; 82415.2162787469 ; 162778.7545378403 ; 1548153.131005478 ; 0.0
20 ; 12455.025782562507 ; 82766.31604382157 ; 174950.55400418947 ; 1630568.347284225 ; 0.0
21 ; 12672.548031206898 ; 83152.55106370416 ; 187405.57978675197 ; 1713334.6633280467 ; 0.0
22 ; 13085.68685418263 ; 83573.40500937494 ; 200078.12781795888 ; 1796487.2143917507 ; 0.0
23 ; 13353.641750992745 ; 84028.3259224725 ; 213163.8146721415 ; 1880060.6194011257 ; 0.0
24 ; 13502.21683202643 ; 84516.72934648008 ; 226517.45642313425 ; 1964088.945323598 ; 0.0
25 ; 13809.0502847892 ; 85038.00151877214 ; 240019.67325516068 ; 2048605.674670078 ; 0.0
26 ; 14116.75326944093 ; 85591.50258745687 ; 253828.7235399499 ; 2133643.6761888503 ; 0.0
27 ; 14278.722035364264 ; 86176.56981915228 ; 267945.4768093908 ; 2219235.178776307 ; 0.0
28 ; 14640.625997382054 ; 86792.52076652019 ; 282224.19884475507 ; 2305411.7485954594 ; 0.0
29 ; 14876.51312233774 ; 87438.656367443 ; 296864.8248421371 ; 2392204.26936198 ; 0.0
30 ; 15170.112307856005 ; 88114.26395104389 ; 311741.33796447486 ; 2479642.925729423 ; 0.0
31 ; 15306.264000485091 ; 88818.62012921067 ; 326911.4502723309 ; 2567757.189680467 ; 0.0
32 ; 15600.356702285988 ; 89550.99355579252 ; 342217.71427281597 ; 2656575.809809678 ; 0.0
33 ; 15866.66755684583 ; 90310.647539095 ; 357818.07097510196 ; 2746126.8033654704 ; 0.0
34 ; 16248.868790728015 ; 91096.84249664069 ; 373684.7385319478 ; 2836437.4509045654 ; 0.0
35 ; 16236.728965500442 ; 91908.83824431583 ; 389933.6073226758 ; 2927534.293401206 ; 0.0
36 ; 16565.464768785867 ; 92745.89611494445 ; 406170.33628817624 ; 3019443.1316455216 ; 0.0
37 ; 16895.93505582023 ; 93607.28090398741 ; 422735.8010569621 ; 3112189.027760466 ; 0.0
38 ; 16972.05467074509 ; 94492.26264242834 ; 439631.7361127823 ; 3205796.3086644537 ; 0.0
39 ; 17315.04603317571 ; 95400.11819897604 ; 456603.7907835274 ; 3300288.571306882 ; 0.0
40 ; 17400.831281192983 ; 96330.13271547646 ; 473918.83681670314 ; 3395688.689505858 ; 0.0
41 ; 17706.515848819356 ; 97281.60088090131 ; 491319.66809789615 ; 3492018.8222213346 ; 0.0
42 ; 17787.882664100027 ; 98253.82805047142 ; 509026.1839467155 ; 3589300.423102236 ; 0.0
43 ; 18085.32751330788 ; 99246.1312174048 ; 526814.0666108155 ; 3687554.2511527073 ; 0.0
44 ; 18205.674795310744 ; 100257.83984547025 ; 544899.3941241234 ; 3786800.382370112 ; 0.0
45 ; 18452.91237840434 ; 101288.29657100317 ; 563105.0689194341 ; 3887058.222215582 ; 0.0
46 ; 18453.860710590478 ; 102336.85778332606 ; 581557.9812978384 ; 3988346.5187865854 ; 0.0
47 ; 18680.39420615151 ; 103402.89409263445 ; 600011.8420084289 ; 4090683.3765699114 ; 0.0
48 ; 18882.079000460977 ; 104485.79069438868 ; 618692.2362145804 ; 4194086.2706625457 ; 0.0
49 ; 18985.21332589725 ; 105584.94763911015 ; 637574.3152150414 ; 4298572.061356935 ; 0.0
50 ; 19286.080973076558 ; 106699.78001624743 ; 656559.5285409386 ; 4404157.008996045 ; 0.0
51 ; 19368.86543122381 ; 107829.71806046076 ; 675845.6095140151 ; 4510856.789012292 ; 0.0
52 ; 19687.607183447195 ; 108974.20718830577 ; 695214.4749452389 ; 4618686.507072753 ; 0.0
53 ; 19556.017232079586 ; 110132.70797287973 ; 714902.0821286861 ; 4727660.714261059 ; 0.0
54 ; 19926.47297018819 ; 111304.6960635502 ; 734458.0993607658 ; 4837793.422233938 ; 0.0
55 ; 20006.456212449604 ; 112489.6620574251 ; 754384.572330954 ; 4949098.118297488 ; 0.0
56 ; 20029.686045623912 ; 113687.11132875331 ; 774391.0285434036 ; 5061587.780354913 ; 0.0
57 ; 20131.996818633663 ; 114896.56382197513 ; 794420.7145890276 ; 5175274.891683667 ; 0.0
58 ; 20569.689503543577 ; 116117.55381368252 ; 814552.7114076612 ; 5290171.455505642 ; 0.0
59 ; 20281.90618891218 ; 117349.62964829848 ; 835122.4009112047 ; 5406289.009319325 ; 0.0
60 ; 20453.887595978136 ; 118592.35345185333 ; 855404.307100117 ; 5523638.638967623 ; 0.0
61 ; 20760.58227028365 ; 119845.30082782348 ; 875858.1946960951 ; 5642230.992419477 ; 0.0
62 ; 20794.926415486407 ; 121108.06053860721 ; 896618.7769663787 ; 5762076.2932473 ; 0.0
63 ; 20769.727173633593 ; 122380.23417584527 ; 917413.703381865 ; 5883184.353785908 ; 0.0
64 ; 21031.675221898357 ; 123661.43582245051 ; 938183.4305554987 ; 6005564.587961753 ; 0.0
65 ; 21207.56997815714 ; 124951.29170889205 ; 959215.105777397 ; 6129226.023784203 ; 0.0
66 ; 21079.34615591547 ; 126249.43986598498 ; 980422.6757555542 ; 6254177.315493096 ; 0.0
67 ; 21218.079015724714 ; 127555.52977616378 ; 1001502.0219114698 ; 6380426.755359081 ; 0.0
68 ; 21292.849273421885 ; 128869.22202497224 ; 1022720.1009271945 ; 6507982.285135244 ; 0.0
69 ; 21404.516038755188 ; 130190.18795427229 ; 1044012.9502006164 ; 6636851.507160217 ; 0.0
70 ; 21421.141844263315 ; 131518.10931847116 ; 1065417.4662393716 ; 6767041.695114489 ; 0.0
71 ; 21521.008780778568 ; 132852.67794487876 ; 1086838.6080836349 ; 6898559.80443296 ; 0.0
72 ; 21578.376596641745 ; 134193.5953991388 ; 1108359.6168644135 ; 7031412.482377839 ; 0.0
73 ; 21620.047223397167 ; 135540.57265652777 ; 1129937.9934610552 ; 7165606.077776978 ; 0.0
74 ; 21594.678035217097 ; 136893.3297797787 ; 1151558.0406844523 ; 7301146.650433506 ; 0.0
75 ; 21625.72799803892 ; 138251.5956039681 ; 1173152.7187196694 ; 7438039.9802132845 ; 0.0
76 ; 21732.710525765848 ; 139615.10742889578 ; 1194778.4467177084 ; 7576291.5758172525 ; 0.0
77 ; 21623.245317178902 ; 140983.61071929394 ; 1216511.1572434742 ; 7715906.683246149 ; 0.0
78 ; 21623.61896123468 ; 142356.85881311758 ; 1238134.4025606532 ; 7856890.293965443 ; 0.0
79 ; 21844.436747707656 ; 143734.61263809347 ; 1259758.0215218877 ; 7999247.15277856 ; 0.0
80 ; 21661.38958398954 ; 145116.64043664484 ; 1281602.4582695954 ; 8142981.765416654 ; 0.0
81 ; 21745.033838503416 ; 146502.7174992472 ; 1303263.847853585 ; 8288098.4058532985 ; 0.0
82 ; 21883.354694709375 ; 147892.62590622788 ; 1325008.8816920884 ; 8434601.123352546 ; 0.0
83 ; 21614.09030920262 ; 149286.15427797646 ; 1346892.2363867979 ; 8582493.749258773 ; 0.0
84 ; 21709.903831847285 ; 150683.09753349941 ; 1368506.3266960005 ; 8731779.90353675 ; 0.0
85 ; 21776.019509977024 ; 152083.25665722133 ; 1390216.2305278478 ; 8882463.00107025 ; 0.0
86 ; 21718.784337644716 ; 153486.43847390963 ; 1411992.2500378247 ; 9034546.25772747 ; 0.0
87 ; 21753.20368502675 ; 154892.45543157918 ; 1433711.0343754694 ; 9188032.69620138 ; 0.0
88 ; 21588.816830126354 ; 156301.12539221396 ; 1455464.2380604963 ; 9342925.151632959 ; 0.0
89 ; 21585.51366823568 ; 157712.2714301316 ; 1477053.0548906226 ; 9499226.277025172 ; 0.0
90 ; 21632.549884997807 ; 159125.72163780197 ; 1498638.5685588582 ; 9656938.548455304 ; 0.0
91 ; 21476.994203172977 ; 160541.3089389253 ; 1520271.118443856 ; 9816064.270093106 ; 0.0
92 ; 21612.455506753147 ; 161958.8709085672 ; 1541748.112647029 ; 9976605.579032032 ; 0.0
93 ; 21618.982167507223 ; 163378.24960014352 ; 1563360.5681537823 ; 1.01385644499406E7 ; 0.0
94 ; 21440.750096944437 ; 164799.29137904677 ; 1584979.5503212896 ; 1.0301942699540744E7 ; 0.0
95 ; 21415.538787224243 ; 166221.84676270135 ; 1606420.300418234 ; 1.0466741990919791E7 ; 0.0
96 ; 21267.804927676953 ; 167645.77026683898 ; 1627835.8392054583 ; 1.0632963837682493E7 ; 0.0
97 ; 21122.945323981567 ; 169070.92025778245 ; 1649103.6441331352 ; 1.0800609607949331E7 ; 0.0
98 ; 21089.953372608063 ; 170497.15881053102 ; 1670226.5894571168 ; 1.0969680528207114E7 ; 0.0
99 ; 21212.619014737393 ; 171924.35157244132 ; 1691316.542829725 ; 1.1140177687017646E7 ; 0.0
100 ; 21129.574578937878 ; 173352.36763230248 ; 1712529.1618444624 ; 1.1312102038590087E7 ; 0.0
101 ; 21003.87274476311 ; 174781.07939460667 ; 1733658.7364234002 ; 1.148545440622239E7 ; 0.0
102 ; 20807.065433012493 ; 176210.36245882153 ; 1754662.6091681633 ; 1.1660235485616997E7 ; 0.0
103 ; 20797.702207581948 ; 177640.09550347505 ; 1775469.6746011758 ; 1.1836445848075818E7 ; 0.0
104 ; 20486.22923183279 ; 179070.1601748687 ; 1796267.3768087577 ; 1.2014085943579294E7 ; 0.0
105 ; 20506.890993717334 ; 180500.4409802392 ; 1816753.6060405904 ; 1.2193156103754163E7 ; 0.0
106 ; 20508.397570781908 ; 181930.82518519493 ; 1837260.4970343078 ; 1.2373656544734402E7 ; 0.0
107 ; 20395.933867454936 ; 183361.20271525875 ; 1857768.8946050897 ; 1.2555587369919596E7 ; 0.0
108 ; 20188.04470357905 ; 184791.46606135296 ; 1878164.8284725447 ; 1.2738948572634855E7 ; 0.0
109 ; 19985.64544072757 ; 186221.51018906885 ; 1898352.8731761237 ; 1.2923740038696209E7 ; 0.0
110 ; 19884.45228658387 ; 187651.23245156888 ; 1918338.5186168512 ; 1.3109961548885278E7 ; 0.0
111 ; 19866.29200560795 ; 189080.53250597304 ; 1938222.970903435 ; 1.3297612781336848E7 ; 0.0
112 ; 19549.84889596206 ; 190509.31223308863 ; 1958089.2629090429 ; 1.348669331384282E7 ; 0.0
113 ; 19570.930958564648 ; 191937.475660346 ; 1977639.111805005 ; 1.3677202626075909E7 ; 0.0
114 ; 19451.594194763486 ; 193364.9288878089 ; 1997210.0427635696 ; 1.3869140101736255E7 ; 0.0
115 ; 19030.513925799114 ; 194791.5800171327 ; 2016661.6369583332 ; 1.4062505030624064E7 ; 0.0
116 ; 18936.987621418586 ; 196217.33908334957 ; 2035692.1508841324 ; 1.4257296610641196E7 ; 0.0
117 ; 18877.229685285438 ; 197642.11798936222 ; 2054629.138505551 ; 1.4453513949724546E7 ; 0.0
118 ; 18739.61728755967 ; 199065.8304430352 ; 2073506.3681908364 ; 1.4651156067713909E7 ; 0.0
119 ; 18530.42988900013 ; 200488.3918967754 ; 2092245.985478396 ; 1.4850221898156945E7 ; 0.0
120 ; 18322.662195305435 ; 201909.71948949853 ; 2110776.415367396 ; 1.505071029005372E7 ; 0.0
121 ; 18098.567439166443 ; 203329.73199088222 ; 2129099.0775627014 ; 1.5252620009543218E7 ; 0.0
122 ; 17947.9308688852 ; 204748.34974781034 ; 2147197.645001868 ; 1.54559497415341E7 ; 0.0
123 ; 17711.033182270286 ; 206165.49463291833 ; 2165145.575870753 ; 1.5660698091281911E7 ; 0.0
124 ; 17527.792184213664 ; 207581.0899951511 ; 2182856.609053023 ; 1.586686358591483E7 ; 0.0
125 ; 17290.20602733346 ; 208995.06061224992 ; 2200384.401237237 ; 1.6074444675909981E7 ; 0.0
126 ; 17054.596158144646 ; 210407.33264508937 ; 2217674.6072645704 ; 1.6283439736522231E7 ; 0.0
127 ; 16991.532073984952 ; 211817.83359378512 ; 2234729.203422715 ; 1.649384706916732E7 ; 0.0
128 ; 16668.857853262427 ; 213226.49225550183 ; 2251720.7354967 ; 1.6705664902761105E7 ; 0.0
129 ; 16432.4034044559 ; 214633.2386838885 ; 2268389.593349962 ; 1.6918891395016607E7 ; 0.0
130 ; 16197.009492366187 ; 216038.00415007464 ; 2284821.996754418 ; 1.7133524633700494E7 ; 0.0
131 ; 15968.71022107344 ; 217440.72110516366 ; 2301019.0062467842 ; 1.7349562637850568E7 ; 0.0
132 ; 15624.422924348437 ; 218841.32314415986 ; 2316987.716467858 ; 1.756700335895573E7 ; 0.0
133 ; 15421.47372551025 ; 220239.7449712717 ; 2332612.1393922064 ; 1.778584468209989E7 ; 0.0
134 ; 15319.331916637826 ; 221635.92236653322 ; 2348033.6131177167 ; 1.800608442707116E7 ; 0.0
135 ; 14996.05444433159 ; 223029.79215369158 ; 2363352.9450343545 ; 1.8227720349437695E7 ; 0.0
136 ; 14673.954544420418 ; 224421.29216930587 ; 2378348.999478686 ; 1.8450750141591385E7 ; 0.0
137 ; 14596.60897474848 ; 225810.36123301092 ; 2393022.9540231065 ; 1.867517143376069E7 ; 0.0
138 ; 14067.411432834255 ; 227196.93911889612 ; 2407619.562997855 ; 1.8900981794993702E7 ; 0.0
139 ; 13779.437373705443 ; 228580.96652795564 ; 2421686.974430689 ; 1.9128178734112598E7 ; 0.0
140 ; 13569.98223125635 ; 229962.38506156503 ; 2435466.411804395 ; 1.9356759700640555E7 ; 0.0
141 ; 13238.23029016054 ; 231341.13719594423 ; 2449036.3940356513 ; 1.958672208570212E7 ; 0.0
142 ; 12905.770687555338 ; 232717.1662575658 ; 2462274.624325812 ; 1.9818063222898066E7 ; 0.0
143 ; 12652.09030882087 ; 234090.41639947167 ; 2475180.3950133673 ; 2.005078038915563E7 ; 0.0
144 ; 12415.960639056928 ; 235460.8325784603 ; 2487832.485322188 ; 2.02848708055551E7 ; 0.0
145 ; 12225.884666936354 ; 236828.36053311144 ; 2500248.445961245 ; 2.0520331638133563E7 ; 0.0
146 ; 12238.952529985025 ; 238192.94676261302 ; 2512474.3306281813 ; 2.0757159998666674E7 ; 0.0
147 ; 12246.160162314867 ; 239554.53850635985 ; 2524713.2831581663 ; 2.0995352945429288E7 ; 0.0
148 ; 12157.089174612742 ; 240913.0837242928 ; 2536959.443320481 ; 2.1234907483935647E7 ; 0.0
149 ; 11862.834719067978 ; 242268.53107794916 ; 2549116.532495094 ; 2.147582056765994E7 ; 0.0
150 ; 11846.1511676238 ; 243620.8299121962 ; 2560979.367214162 ; 2.1718089098737888E7 ; 0.0
151 ; 11784.18257235582 ; 244969.93023762177 ; 2572825.5183817856 ; 2.1961709928650085E7 ; 0.0
152 ; 11566.66940721123 ; 246315.7827135549 ; 2584609.7009541416 ; 2.2206679858887706E7 ; 0.0
153 ; 11532.668780137645 ; 247658.33863169266 ; 2596176.370361353 ; 2.245299564160126E7 ; 0.0
154 ; 11454.941333745383 ; 248997.54990031032 ; 2607709.0391414906 ; 2.2700653980232954E7 ; 0.0
155 ; 11492.394591936983 ; 250333.36902903044 ; 2619163.980475236 ; 2.2949651530133266E7 ; 0.0
156 ; 11075.480907600384 ; 251665.7491141309 ; 2630656.375067173 ; 2.3199984899162296E7 ; 0.0
157 ; 11204.546472699918 ; 252994.64382437035 ; 2641731.8559747734 ; 2.3451650648276426E7 ; 0.0
158 ; 11149.647256259004 ; 254320.00738731143 ; 2652936.4024474733 ; 2.3704645292100795E7 ; 0.0
159 ; 11033.319763726504 ; 255641.79457612272 ; 2664086.049703732 ; 2.3958965299488105E7 ; 0.0
160 ; 10768.245204283734 ; 256959.9606968411 ; 2675119.3694674587 ; 2.421460709406423E7 ; 0.0
161 ; 10605.454755185765 ; 258274.46157607666 ; 2685887.6146717425 ; 2.447156705476107E7 ; 0.0
162 ; 10613.578084809164 ; 259585.253549145 ; 2696493.069426928 ; 2.472984151633715E7 ; 0.0
163 ; 10289.942111095825 ; 260892.29344860808 ; 2707106.6475117374 ; 2.4989426769886293E7 ; 0.0
164 ; 10363.611511309844 ; 262195.5385932109 ; 2717396.5896228333 ; 2.52503190633349E7 ; 0.0
165 ; 10233.875743551474 ; 263494.9467771977 ; 2727760.201134143 ; 2.551251460192811E7 ; 0.0
166 ; 10033.828305109486 ; 264790.47625999403 ; 2737994.0768776946 ; 2.577600954870531E7 ; 0.0
167 ; 9999.457851889896 ; 266082.0857562408 ; 2748027.905182804 ; 2.6040800024965305E7 ; 0.0
168 ; 9899.017858706711 ; 267369.7344261676 ; 2758027.363034694 ; 2.6306882110721547E7 ; 0.0
169 ; 9735.529082050285 ; 268653.3818662924 ; 2767926.380893401 ; 2.6574251845147714E7 ; 0.0
170 ; 9738.493807385974 ; 269932.98810043593 ; 2777661.909975451 ; 2.6842905227014005E7 ; 0.0
171 ; 9501.791613840898 ; 271208.5135710394 ; 2787400.403782837 ; 2.711283821511444E7 ; 0.0
172 ; 9505.09530543799 ; 272479.91913077363 ; 2796902.195396678 ; 2.738404672868548E7 ; 0.0
173 ; 9476.830789076137 ; 273747.1660344297 ; 2806407.290702116 ; 2.7656526647816252E7 ; 0.0
174 ; 9290.804584702726 ; 275010.2159310809 ; 2815884.1214911924 ; 2.7930273813850682E7 ; 0.0
175 ; 9158.183630688894 ; 276269.0308565062 ; 2825174.9260758953 ; 2.8205284029781763E7 ; 0.0
176 ; 9326.345694069658 ; 277523.57322586485 ; 2834333.1097065844 ; 2.8481553060638268E7 ; 0.0
177 ; 9243.027592386023 ; 278773.80582661484 ; 2843659.455400654 ; 2.875907663386413E7 ; 0.0
178 ; 9460.427197339966 ; 280019.6918116648 ; 2852902.4829930402 ; 2.9037850439690746E7 ; 0.0
179 ; 9405.097131553062 ; 281261.19469275227 ; 2862362.91019038 ; 2.9317870131502412E7 ; 0.0
180 ; 9473.34838205528 ; 282498.2783340397 ; 2871768.0073219333 ; 2.9599131326195166E7 ; 0.0
181 ; 9462.180262033366 ; 283730.9069459202 ; 2881241.3557039886 ; 2.9881629604529206E7 ; 0.0
182 ; 9505.191442712863 ; 284959.0450790267 ; 2890703.535966022 ; 3.0165360511475127E7 ; 0.0
183 ; 9510.803096608784 ; 286182.65761843615 ; 2900208.7274087346 ; 3.0450319556554154E7 ; 0.0
184 ; 9541.225794372129 ; 287401.70977806253 ; 2909719.5305053433 ; 3.073650221417259E7 ; 0.0
185 ; 9613.236595893422 ; 288616.16709523264 ; 2919260.7562997155 ; 3.1023903923950654E7 ; 0.0
186 ; 9731.04963184116 ; 289825.995425437 ; 2928873.992895609 ; 3.1312520091045886E7 ; 0.0
187 ; 9607.486333100802 ; 291031.16093725094 ; 2938605.04252745 ; 3.1602346086471323E7 ; 0.0
188 ; 9723.23852025671 ; 292231.6301074194 ; 2948212.5288605504 ; 3.1893377247408573E7 ; 0.0
189 ; 9560.13539760776 ; 293427.3697161 ; 2957935.767380807 ; 3.218560887751599E7 ; 0.0
190 ; 9695.076679581198 ; 294618.34684225917 ; 2967495.902778415 ; 3.247903624723209E7 ; 0.0
191 ; 9736.78038639326 ; 295804.52885921585 ; 2977190.9794579963 ; 3.277365459407435E7 ; 0.0
192 ; 9720.668884319937 ; 296985.88343032723 ; 2986927.7598443897 ; 3.3069459122933567E7 ; 0.0
193 ; 9870.134308643239 ; 298162.37850481307 ; 2996648.4287287095 ; 3.3366445006363895E7 ; 0.0
194 ; 9580.321048473375 ; 299333.9823137126 ; 3006518.5630373526 ; 3.366460738486871E7 ; 0.0
195 ; 9830.929347382018 ; 300500.6633659703 ; 3016098.884085826 ; 3.3963941367182426E7 ; 0.0
196 ; 9687.672683729517 ; 301662.39044464554 ; 3025929.813433208 ; 3.4264442030548394E7 ; 0.0
197 ; 9924.3513587548 ; 302819.13260324294 ; 3035617.4861169374 ; 3.456610442099304E7 ; 0.0
198 ; 10016.510434635316 ; 303970.8591621583 ; 3045541.8374756924 ; 3.486892355359628E7 ; 0.0
199 ; 9817.872626787514 ; 305117.5397052372 ; 3055558.347910328 ; 3.517289441275844E7 ; 0.0
200 ; 9841.170703130483 ; 306259.14407644205 ; 3065376.2205371154 ; 3.547801195246368E7 ; 0.0
201 ; 10029.322992394165 ; 307395.64237662376 ; 3075217.3912402457 ; 3.578427109654012E7 ; 0.0
202 ; 10005.897183001716 ; 308527.0049603952 ; 3085246.71423264 ; 3.609166673891675E7 ; 0.0
203 ; 10008.111417340138 ; 309653.20243310306 ; 3095252.6114156414 ; 3.640019374387714E7 ; 0.0
204 ; 9980.10878442995 ; 310774.20564789395 ; 3105260.7228329815 ; 3.6709846946310245E7 ; 0.0
205 ; 9985.67298977668 ; 311889.9857028729 ; 3115240.831617411 ; 3.702062115195814E7 ; 0.0
206 ; 10220.62192203439 ; 313000.5139383508 ; 3125226.504607188 ; 3.733251113766101E7 ; 0.0
207 ; 10139.76950111578 ; 314105.76193417696 ; 3135447.1265292224 ; 3.764551165159936E7 ; 0.0
208 ; 10301.235251139387 ; 315205.70150715637 ; 3145586.896030338 ; 3.795961741353354E7 ; 0.0
209 ; 10101.520153419126 ; 316300.3047085456 ; 3155888.1312814774 ; 3.82748231150407E7 ; 0.0
210 ; 10215.755669913491 ; 317389.5438216284 ; 3165989.6514348965 ; 3.8591123419749245E7 ; 0.0
211 ; 10234.426005864541 ; 318473.3913593655 ; 3176205.4071048102 ; 3.890851296357087E7 ; 0.0
212 ; 10143.54428467408 ; 319551.8200621177 ; 3186439.8331106748 ; 3.922698635493024E7 ; 0.0
