CSV File for the City 1 on Day 312
1 - Minute m 
2 - Power Consumed at minute m 
3 - Power Produced at minute m 
4 - Energy Consumed since the beginning of the day 
5 - Energy Produced since the beginning of the day 
6 - Energy Lost since the beginning of the day on lines starting from the city
 
0 ; 11355.1641353222 ; 17943.47188419545 ; 0.0 ; 0.0 ; 0.0
1 ; 11662.560494511203 ; 17943.47188419545 ; 11355.1641353222 ; 17943.47188419545 ; 238.00000000000003
2 ; 12103.999916630428 ; 17943.47188419545 ; 23017.724629833403 ; 35886.9437683909 ; 476.00000000000006
3 ; 12720.609188318222 ; 17943.47188419545 ; 35121.72454646383 ; 53830.41565258635 ; 714.0000000000001
4 ; 13073.581109140596 ; 17943.47188419545 ; 47842.333734782056 ; 71773.8875367818 ; 952.0000000000001
5 ; 13325.168135432727 ; 17943.47188419545 ; 60915.914843922656 ; 89717.35942097724 ; 1190.0000000000002
6 ; 13677.434413134431 ; 17943.47188419545 ; 74241.08297935539 ; 107660.83130517269 ; 1428.0000000000002
7 ; 13920.497480963013 ; 17943.47188419545 ; 87918.51739248981 ; 125604.30318936813 ; 1666.0000000000002
8 ; 14376.505778065159 ; 17943.47188419545 ; 101839.01487345282 ; 143547.7750735636 ; 1904.0000000000002
9 ; 14814.16199284423 ; 17943.47188419545 ; 116215.52065151797 ; 161491.24695775905 ; 2142.0000000000005
10 ; 14915.410221009966 ; 17943.47188419545 ; 131029.68264436221 ; 179434.7188419545 ; 2380.0000000000005
11 ; 15337.95141143232 ; 17943.47188419545 ; 145945.0928653722 ; 197378.19072614997 ; 2618.0000000000005
12 ; 15666.5768443185 ; 17943.47188419545 ; 161283.04427680452 ; 215321.66261034543 ; 2856.0000000000005
13 ; 16075.65169872608 ; 17943.47188419545 ; 176949.62112112303 ; 233265.1344945409 ; 3094.0000000000005
14 ; 16092.494268178249 ; 17943.47188419545 ; 193025.2728198491 ; 251208.60637873635 ; 3332.0000000000005
15 ; 16496.250331909436 ; 17943.47188419545 ; 209117.76708802735 ; 269152.0782629318 ; 3570.0000000000005
16 ; 16865.937860209124 ; 17943.47188419545 ; 225614.01741993678 ; 287095.55014712724 ; 3808.0000000000005
17 ; 17248.959803727397 ; 17943.47188419545 ; 242479.9552801459 ; 305039.0220313227 ; 4046.0000000000005
18 ; 17511.99099098051 ; 17943.47188419545 ; 259728.9150838733 ; 322982.49391551816 ; 4284.000000000001
19 ; 17863.695826330404 ; 17943.47188419545 ; 277240.9060748538 ; 340925.9657997136 ; 4522.000000000001
20 ; 18127.493383951947 ; 17943.47188419545 ; 295104.6019011842 ; 358869.4376839091 ; 4760.000000000001
21 ; 18302.283529764303 ; 17943.47188419545 ; 313232.09528513614 ; 376812.90956810454 ; 4998.000000000001
22 ; 18476.6941937015 ; 17943.47188419545 ; 331534.3788149004 ; 394756.3814523 ; 5236.000000000001
23 ; 18883.337074473122 ; 17943.47188419545 ; 350011.0730086019 ; 412699.85333649546 ; 5474.000000000001
24 ; 19097.037854801416 ; 17943.47188419545 ; 368894.41008307505 ; 430643.3252206909 ; 5712.000000000001
25 ; 19445.558802874908 ; 17943.47188419545 ; 387991.44793787645 ; 448586.7971048864 ; 5950.000000000001
26 ; 19694.660209345308 ; 17943.47188419545 ; 407437.0067407514 ; 466530.26898908184 ; 6188.000000000001
27 ; 19872.065795298648 ; 17943.47188419545 ; 427131.66695009667 ; 484473.7408732773 ; 6426.000000000001
28 ; 20023.540714683048 ; 17943.47188419545 ; 447003.73274539533 ; 502417.21275747276 ; 6664.000000000001
29 ; 20415.343969514706 ; 17943.47188419545 ; 467027.2734600784 ; 520360.6846416682 ; 6902.000000000001
30 ; 20607.82901060092 ; 17943.47188419545 ; 487442.6174295931 ; 538304.1565258637 ; 7140.000000000001
31 ; 20839.516366888387 ; 17943.47188419545 ; 508050.44644019403 ; 556247.6284100591 ; 7378.000000000001
32 ; 21289.14163212414 ; 17943.47188419545 ; 528889.9628070825 ; 574191.1002942546 ; 7616.000000000001
33 ; 21421.86414105286 ; 17943.47188419545 ; 550179.1044392067 ; 592134.5721784501 ; 7854.000000000001
34 ; 21700.25584698719 ; 17943.47188419545 ; 571600.9685802595 ; 610078.0440626455 ; 8092.000000000001
35 ; 21658.481064430023 ; 17943.47188419545 ; 593301.2244272467 ; 628021.515946841 ; 8330.000000000002
36 ; 22145.105745579087 ; 17943.47188419545 ; 614959.7054916767 ; 645964.9878310364 ; 8568.000000000002
37 ; 22216.798575939 ; 17943.47188419545 ; 637104.8112372558 ; 663908.4597152319 ; 8806.000000000002
38 ; 22627.69575570124 ; 17943.47188419545 ; 659321.6098131948 ; 681851.9315994274 ; 9044.000000000002
39 ; 22631.02321396655 ; 17943.47188419545 ; 681949.3055688961 ; 699795.4034836228 ; 9282.000000000002
40 ; 22709.717156136514 ; 17943.47188419545 ; 704580.3287828626 ; 717738.8753678183 ; 9520.000000000002
41 ; 23163.01775498892 ; 17943.47188419545 ; 727290.0459389992 ; 735682.3472520137 ; 9758.000000000002
42 ; 23287.61306127054 ; 17943.47188419545 ; 750453.0636939881 ; 753625.8191362092 ; 9996.000000000002
43 ; 23459.81576222902 ; 17943.47188419545 ; 773740.6767552587 ; 771569.2910204047 ; 10234.000000000002
44 ; 23689.266500997437 ; 17943.47188419545 ; 797200.4925174877 ; 789512.7629046001 ; 10472.000000000002
45 ; 23685.473790655367 ; 17943.47188419545 ; 820889.7590184852 ; 807456.2347887956 ; 10710.000000000002
46 ; 23829.65759232891 ; 17943.47188419545 ; 844575.2328091406 ; 825399.706672991 ; 10948.000000000002
47 ; 23864.046535313755 ; 17943.47188419545 ; 868404.8904014695 ; 843343.1785571865 ; 11186.000000000002
48 ; 24153.82786504541 ; 17943.47188419545 ; 892268.9369367833 ; 861286.650441382 ; 11424.000000000002
49 ; 24527.315683069774 ; 17943.47188419545 ; 916422.7648018287 ; 879230.1223255774 ; 11662.000000000002
50 ; 24457.734092747927 ; 17943.47188419545 ; 940950.0804848984 ; 897173.5942097729 ; 11900.000000000002
51 ; 24434.755001871756 ; 17943.47188419545 ; 965407.8145776463 ; 915117.0660939683 ; 12138.000000000002
52 ; 24719.91714888177 ; 17943.47188419545 ; 989842.569579518 ; 933060.5379781638 ; 12376.000000000002
53 ; 24909.275298802277 ; 17943.47188419545 ; 1014562.4867283999 ; 951004.0098623593 ; 12614.000000000002
54 ; 25005.16488757934 ; 17943.47188419545 ; 1039471.7620272022 ; 968947.4817465547 ; 12852.000000000002
55 ; 25182.14269816563 ; 17943.47188419545 ; 1064476.9269147816 ; 986890.9536307502 ; 13090.000000000002
56 ; 25213.70802045045 ; 17943.47188419545 ; 1089659.0696129473 ; 1004834.4255149456 ; 13328.000000000002
57 ; 25304.99655846691 ; 17943.47188419545 ; 1114872.7776333978 ; 1022777.8973991411 ; 13566.000000000002
58 ; 25324.828015720817 ; 17943.47188419545 ; 1140177.7741918648 ; 1040721.3692833366 ; 13804.000000000002
59 ; 25478.744022401814 ; 17943.47188419545 ; 1165502.6022075855 ; 1058664.841167532 ; 14042.000000000002
60 ; 25633.69262441368 ; 17943.47188419545 ; 1190981.3462299872 ; 1076608.3130517274 ; 14280.000000000002
61 ; 25887.01929775552 ; 17943.47188419545 ; 1216615.0388544009 ; 1094551.7849359228 ; 14518.000000000002
62 ; 26021.45616161101 ; 17943.47188419545 ; 1242502.0581521564 ; 1112495.2568201183 ; 14756.000000000002
63 ; 25870.96941202516 ; 17943.47188419545 ; 1268523.5143137674 ; 1130438.7287043137 ; 14994.000000000002
64 ; 26192.775255857887 ; 17943.47188419545 ; 1294394.4837257925 ; 1148382.2005885092 ; 15232.000000000002
65 ; 26140.620692360106 ; 17943.47188419545 ; 1320587.2589816505 ; 1166325.6724727047 ; 15470.000000000002
66 ; 26135.343187006238 ; 17943.47188419545 ; 1346727.8796740107 ; 1184269.1443569001 ; 15708.000000000002
67 ; 26208.54759051274 ; 17943.47188419545 ; 1372863.2228610169 ; 1202212.6162410956 ; 15946.000000000002
68 ; 26491.209085803646 ; 17943.47188419545 ; 1399071.7704515297 ; 1220156.088125291 ; 16184.000000000002
69 ; 26217.50254296222 ; 17943.47188419545 ; 1425562.9795373334 ; 1238099.5600094865 ; 16422.000000000004
70 ; 26527.359199421073 ; 17943.47188419545 ; 1451780.4820802957 ; 1256043.031893682 ; 16660.000000000004
71 ; 26471.49529307336 ; 17943.47188419545 ; 1478307.8412797167 ; 1273986.5037778774 ; 16898.000000000004
72 ; 26528.446220660706 ; 17943.47188419545 ; 1504779.33657279 ; 1291929.975662073 ; 17136.000000000004
73 ; 26452.34331995744 ; 17943.47188419545 ; 1531307.7827934509 ; 1309873.4475462683 ; 17374.000000000004
74 ; 26379.000902980024 ; 17943.47188419545 ; 1557760.1261134082 ; 1327816.9194304638 ; 17612.000000000004
75 ; 26645.878107681812 ; 17943.47188419545 ; 1584139.1270163883 ; 1345760.3913146593 ; 17850.000000000004
76 ; 26717.376246657564 ; 17943.47188419545 ; 1610785.0051240702 ; 1363703.8631988547 ; 18088.000000000004
77 ; 26539.65380497436 ; 17943.47188419545 ; 1637502.3813707277 ; 1381647.3350830502 ; 18326.000000000004
78 ; 26603.00750432567 ; 17943.47188419545 ; 1664042.035175702 ; 1399590.8069672456 ; 18564.000000000004
79 ; 26486.811061457935 ; 17943.47188419545 ; 1690645.0426800277 ; 1417534.278851441 ; 18802.000000000004
80 ; 26529.67001831351 ; 17943.47188419545 ; 1717131.8537414856 ; 1435477.7507356366 ; 19040.000000000004
81 ; 26427.3215345424 ; 17943.47188419545 ; 1743661.523759799 ; 1453421.222619832 ; 19278.000000000004
82 ; 26569.114355083013 ; 17943.47188419545 ; 1770088.8452943414 ; 1471364.6945040275 ; 19516.000000000004
83 ; 26492.418649985673 ; 17943.47188419545 ; 1796657.9596494245 ; 1489308.166388223 ; 19754.000000000004
84 ; 26366.345660141596 ; 17943.47188419545 ; 1823150.3782994102 ; 1507251.6382724184 ; 19992.000000000004
85 ; 26463.067149737242 ; 17943.47188419545 ; 1849516.723959552 ; 1525195.1101566139 ; 20230.000000000004
86 ; 26373.090621263655 ; 17943.47188419545 ; 1875979.791109289 ; 1543138.5820408093 ; 20468.000000000004
87 ; 26190.302552479432 ; 17943.47188419545 ; 1902352.8817305528 ; 1561082.0539250048 ; 20706.000000000004
88 ; 26501.61363050602 ; 17943.47188419545 ; 1928543.184283032 ; 1579025.5258092002 ; 20944.000000000004
89 ; 26209.44637155617 ; 17943.47188419545 ; 1955044.797913538 ; 1596968.9976933957 ; 21182.000000000004
90 ; 26096.924025380933 ; 17943.47188419545 ; 1981254.2442850943 ; 1614912.4695775912 ; 21420.000000000004
91 ; 26280.93007377728 ; 17943.47188419545 ; 2007351.1683104753 ; 1632855.9414617866 ; 21658.000000000004
92 ; 26270.65561527786 ; 17943.47188419545 ; 2033632.0983842525 ; 1650799.413345982 ; 21896.000000000004
93 ; 26369.059393147396 ; 17943.47188419545 ; 2059902.7539995303 ; 1668742.8852301775 ; 22134.000000000004
94 ; 26159.451905164733 ; 17943.47188419545 ; 2086271.8133926778 ; 1686686.357114373 ; 22372.000000000004
95 ; 25847.4639384707 ; 17943.47188419545 ; 2112431.2652978427 ; 1704629.8289985685 ; 22610.000000000004
96 ; 25953.01463492019 ; 17943.47188419545 ; 2138278.7292363136 ; 1722573.300882764 ; 22848.000000000004
97 ; 25812.16957725005 ; 17943.47188419545 ; 2164231.743871234 ; 1740516.7727669594 ; 23086.000000000004
98 ; 25707.29141999624 ; 17943.47188419545 ; 2190043.913448484 ; 1758460.2446511548 ; 23324.000000000004
99 ; 25679.35377527464 ; 17943.47188419545 ; 2215751.2048684806 ; 1776403.7165353503 ; 23562.000000000004
100 ; 25587.3346323776 ; 17943.47188419545 ; 2241430.558643755 ; 1794347.1884195458 ; 23800.000000000004
101 ; 25304.468505900306 ; 17943.47188419545 ; 2267017.8932761326 ; 1812290.6603037412 ; 24038.000000000004
102 ; 25347.836779900914 ; 17943.47188419545 ; 2292322.361782033 ; 1830234.1321879367 ; 24276.000000000004
103 ; 25321.068973763962 ; 17943.47188419545 ; 2317670.198561934 ; 1848177.6040721321 ; 24514.000000000004
104 ; 25056.896229701393 ; 17943.47188419545 ; 2342991.2675356977 ; 1866121.0759563276 ; 24752.000000000004
105 ; 24997.8535387265 ; 17943.47188419545 ; 2368048.1637653993 ; 1884064.547840523 ; 24990.000000000004
106 ; 25017.254496697653 ; 17943.47188419545 ; 2393046.0173041257 ; 1902008.0197247185 ; 25228.000000000004
107 ; 24840.505769516363 ; 17943.47188419545 ; 2418063.2718008235 ; 1919951.491608914 ; 25466.000000000004
108 ; 24566.61989762685 ; 17943.47188419545 ; 2442903.77757034 ; 1937894.9634931094 ; 25704.000000000004
109 ; 24470.307617062364 ; 17943.47188419545 ; 2467470.3974679667 ; 1955838.435377305 ; 25942.000000000004
110 ; 24243.024978137684 ; 17943.47188419545 ; 2491940.705085029 ; 1973781.9072615004 ; 26180.000000000004
111 ; 24117.80740486972 ; 17943.47188419545 ; 2516183.7300631665 ; 1991725.3791456958 ; 26418.000000000004
112 ; 24020.930028032628 ; 17943.47188419545 ; 2540301.537468036 ; 2009668.8510298913 ; 26656.000000000004
113 ; 23843.44275311583 ; 17943.47188419545 ; 2564322.4674960687 ; 2027612.3229140867 ; 26894.000000000004
114 ; 23500.3757077789 ; 17943.47188419545 ; 2588165.9102491844 ; 2045555.7947982822 ; 27132.000000000004
115 ; 23603.181288940075 ; 17943.47188419545 ; 2611666.2859569634 ; 2063499.2666824777 ; 27370.000000000004
116 ; 23374.128830207286 ; 17943.47188419545 ; 2635269.4672459033 ; 2081442.7385666731 ; 27608.000000000004
117 ; 23202.66930526935 ; 17943.47188419545 ; 2658643.596076111 ; 2099386.2104508686 ; 27846.000000000004
118 ; 23114.295902517515 ; 17943.47188419545 ; 2681846.26538138 ; 2117329.682335064 ; 28084.000000000004
119 ; 22829.07331705257 ; 17943.47188419545 ; 2704960.5612838976 ; 2135273.154219259 ; 28322.000000000004
120 ; 22828.350904580904 ; 17943.47188419545 ; 2727789.6346009504 ; 2153216.6261034543 ; 28560.000000000004
121 ; 22422.262210483415 ; 17943.47188419545 ; 2750617.9855055315 ; 2171160.0979876495 ; 28798.000000000004
122 ; 22295.96207744782 ; 17943.47188419545 ; 2773040.2477160147 ; 2189103.5698718447 ; 29036.000000000004
123 ; 22292.950951260354 ; 17943.47188419545 ; 2795336.2097934624 ; 2207047.04175604 ; 29274.000000000004
124 ; 21894.989903451904 ; 17943.47188419545 ; 2817629.160744723 ; 2224990.513640235 ; 29512.000000000004
125 ; 21882.15804695278 ; 17943.47188419545 ; 2839524.150648175 ; 2242933.9855244304 ; 29750.000000000004
126 ; 21554.328146265216 ; 17943.47188419545 ; 2861406.3086951277 ; 2260877.4574086256 ; 29988.000000000004
127 ; 21267.71998670447 ; 17943.47188419545 ; 2882960.636841393 ; 2278820.929292821 ; 30226.000000000004
128 ; 21003.80636685768 ; 17943.47188419545 ; 2904228.3568280977 ; 2296764.401177016 ; 30464.000000000004
129 ; 20784.07301068206 ; 17943.47188419545 ; 2925232.1631949553 ; 2314707.8730612113 ; 30702.000000000004
130 ; 20658.569633856656 ; 17943.47188419545 ; 2946016.2362056375 ; 2332651.3449454065 ; 30940.000000000004
131 ; 20441.623289142433 ; 17943.47188419545 ; 2966674.8058394943 ; 2350594.816829602 ; 31178.000000000004
132 ; 20176.776209038908 ; 17943.47188419545 ; 2987116.4291286366 ; 2368538.288713797 ; 31416.000000000004
133 ; 19925.505728240747 ; 17943.47188419545 ; 3007293.2053376753 ; 2386481.760597992 ; 31654.000000000004
134 ; 19731.40977006849 ; 17943.47188419545 ; 3027218.711065916 ; 2404425.2324821874 ; 31892.000000000004
135 ; 19399.665002588754 ; 17943.47188419545 ; 3046950.1208359846 ; 2422368.7043663827 ; 32130.000000000004
136 ; 19140.635720132694 ; 17943.47188419545 ; 3066349.7858385732 ; 2440312.176250578 ; 32368.000000000004
137 ; 18872.36110153914 ; 17943.47188419545 ; 3085490.421558706 ; 2458255.648134773 ; 32606.000000000004
138 ; 18480.431300103304 ; 17943.47188419545 ; 3104362.7826602454 ; 2476199.1200189684 ; 32844.00000000001
139 ; 18457.381286843203 ; 17943.47188419545 ; 3122843.2139603486 ; 2494142.5919031636 ; 33082.00000000001
140 ; 18066.020743715166 ; 17943.47188419545 ; 3141300.595247192 ; 2512086.063787359 ; 33320.00000000001
141 ; 17797.497478439807 ; 17943.47188419545 ; 3159366.615990907 ; 2530029.535671554 ; 33558.00000000001
142 ; 17367.627683892802 ; 17943.47188419545 ; 3177164.113469347 ; 2547973.0075557493 ; 33796.00000000001
143 ; 17119.206572185703 ; 17943.47188419545 ; 3194531.7411532397 ; 2565916.4794399445 ; 34034.00000000001
144 ; 16891.237921108303 ; 17943.47188419545 ; 3211650.9477254255 ; 2583859.9513241397 ; 34272.00000000001
145 ; 16749.422180569032 ; 17943.47188419545 ; 3228542.185646534 ; 2601803.423208335 ; 34510.00000000001
146 ; 16564.498082711976 ; 17943.47188419545 ; 3245291.6078271028 ; 2619746.89509253 ; 34748.00000000001
147 ; 16510.681344702778 ; 17943.47188419545 ; 3261856.1059098146 ; 2637690.3669767254 ; 34986.00000000001
148 ; 16339.435245442572 ; 17943.47188419545 ; 3278366.7872545174 ; 2655633.8388609206 ; 35224.00000000001
149 ; 16428.517172267188 ; 17943.47188419545 ; 3294706.22249996 ; 2673577.310745116 ; 35462.00000000001
150 ; 16089.114570465388 ; 17943.47188419545 ; 3311134.7396722273 ; 2691520.782629311 ; 35700.00000000001
151 ; 16081.925116584753 ; 17943.47188419545 ; 3327223.8542426927 ; 2709464.2545135063 ; 35938.00000000001
152 ; 16019.758735588839 ; 17943.47188419545 ; 3343305.7793592773 ; 2727407.7263977015 ; 36176.00000000001
153 ; 15743.04659566749 ; 17943.47188419545 ; 3359325.538094866 ; 2745351.1982818968 ; 36414.00000000001
154 ; 15868.741626296909 ; 17943.47188419545 ; 3375068.5846905336 ; 2763294.670166092 ; 36652.00000000001
155 ; 15524.070685404942 ; 17943.47188419545 ; 3390937.3263168307 ; 2781238.142050287 ; 36890.00000000001
156 ; 15411.315001107185 ; 17943.47188419545 ; 3406461.3970022355 ; 2799181.6139344824 ; 37128.00000000001
157 ; 15307.59345902087 ; 17943.47188419545 ; 3421872.712003343 ; 2817125.0858186777 ; 37366.00000000001
158 ; 15190.797630621622 ; 17943.47188419545 ; 3437180.3054623636 ; 2835068.557702873 ; 37604.00000000001
159 ; 15196.585116260205 ; 17943.47188419545 ; 3452371.103092985 ; 2853012.029587068 ; 37842.00000000001
160 ; 14991.900267742389 ; 17943.47188419545 ; 3467567.6882092454 ; 2870955.5014712634 ; 38080.00000000001
161 ; 14886.477883636451 ; 17943.47188419545 ; 3482559.588476988 ; 2888898.9733554586 ; 38318.00000000001
162 ; 14855.909785490117 ; 17943.47188419545 ; 3497446.0663606245 ; 2906842.445239654 ; 38556.00000000001
163 ; 14614.631491119997 ; 17943.47188419545 ; 3512301.9761461145 ; 2924785.917123849 ; 38794.00000000001
164 ; 14489.491965287376 ; 17943.47188419545 ; 3526916.6076372345 ; 2942729.3890080443 ; 39032.00000000001
165 ; 14458.603200226393 ; 17943.47188419545 ; 3541406.099602522 ; 2960672.8608922395 ; 39270.00000000001
166 ; 14153.335604458798 ; 17943.47188419545 ; 3555864.7028027484 ; 2978616.3327764347 ; 39508.00000000001
167 ; 14153.460904556121 ; 17943.47188419545 ; 3570018.038407207 ; 2996559.80466063 ; 39746.00000000001
168 ; 13968.5844191045 ; 17943.47188419545 ; 3584171.4993117633 ; 3014503.276544825 ; 39984.00000000001
169 ; 13989.947878175772 ; 17943.47188419545 ; 3598140.0837308676 ; 3032446.7484290204 ; 40222.00000000001
170 ; 13703.472120613662 ; 17943.47188419545 ; 3612130.0316090435 ; 3050390.2203132156 ; 40460.00000000001
171 ; 13583.721781453083 ; 17943.47188419545 ; 3625833.5037296573 ; 3068333.692197411 ; 40698.00000000001
172 ; 13542.091327241827 ; 17943.47188419545 ; 3639417.2255111104 ; 3086277.164081606 ; 40936.00000000001
173 ; 13598.22130539247 ; 17943.47188419545 ; 3652959.316838352 ; 3104220.6359658013 ; 41174.00000000001
174 ; 13323.085598827836 ; 17943.47188419545 ; 3666557.5381437447 ; 3122164.1078499965 ; 41412.00000000001
175 ; 13323.549983401794 ; 17943.47188419545 ; 3679880.6237425725 ; 3140107.5797341918 ; 41650.00000000001
176 ; 13358.635797133473 ; 17943.47188419545 ; 3693204.1737259743 ; 3158051.051618387 ; 41888.00000000001
177 ; 13241.880537678913 ; 17943.47188419545 ; 3706562.809523108 ; 3175994.523502582 ; 42126.00000000001
178 ; 13508.210613620467 ; 17943.47188419545 ; 3719804.690060787 ; 3193937.9953867774 ; 42364.00000000001
179 ; 13410.662548956936 ; 17943.47188419545 ; 3733312.9006744074 ; 3211881.4672709727 ; 42602.00000000001
180 ; 13383.027143021933 ; 17943.47188419545 ; 3746723.5632233643 ; 3229824.939155168 ; 42840.00000000001
181 ; 13387.768739922823 ; 17943.47188419545 ; 3760106.5903663863 ; 3247768.411039363 ; 43078.00000000001
182 ; 13562.175113229296 ; 17943.47188419545 ; 3773494.3591063092 ; 3265711.8829235584 ; 43316.00000000001
183 ; 13434.052336328079 ; 17943.47188419545 ; 3787056.5342195383 ; 3283655.3548077536 ; 43554.00000000001
184 ; 13411.465563721451 ; 17943.47188419545 ; 3800490.5865558665 ; 3301598.826691949 ; 43792.00000000001
185 ; 13469.486814892627 ; 17943.47188419545 ; 3813902.052119588 ; 3319542.298576144 ; 44030.00000000001
