CSV File for the City 1 on Day 289
1 - Minute m 
2 - Power Consumed at minute m 
3 - Power Produced at minute m 
4 - Energy Consumed since the beginning of the day 
5 - Energy Produced since the beginning of the day 
6 - Energy Lost since the beginning of the day on lines starting from the city
 
0 ; 9483.886486649519 ; 6256.050768976755 ; 0.0 ; 0.0 ; 0.0
1 ; 10137.621552931818 ; 6256.050768976755 ; 9483.886486649519 ; 6256.050768976755 ; 238.00000000000003
2 ; 10498.818481282371 ; 6256.050768976755 ; 19621.508039581335 ; 12512.10153795351 ; 476.00000000000006
3 ; 10961.199275633133 ; 6256.050768976755 ; 30120.326520863706 ; 18768.152306930264 ; 714.0000000000001
4 ; 11302.44581872959 ; 6256.050768976755 ; 41081.52579649684 ; 25024.20307590702 ; 952.0000000000001
5 ; 11686.12834946993 ; 6256.050768976755 ; 52383.97161522643 ; 31280.253844883773 ; 1190.0000000000002
6 ; 12104.851559179668 ; 6256.050768976755 ; 64070.09996469636 ; 37536.30461386053 ; 1428.0000000000002
7 ; 12516.827529396214 ; 6256.050768976755 ; 76174.95152387602 ; 43792.35538283728 ; 1666.0000000000002
8 ; 12953.783631531627 ; 6256.050768976755 ; 88691.77905327224 ; 50048.40615181404 ; 1904.0000000000002
9 ; 13425.557437281625 ; 6256.050768976755 ; 101645.56268480387 ; 56304.45692079079 ; 2142.0000000000005
10 ; 14011.622763069976 ; 6256.050768976755 ; 115071.12012208549 ; 62560.507689767546 ; 2380.0000000000005
11 ; 14261.671739446841 ; 6256.050768976755 ; 129082.74288515546 ; 68816.5584587443 ; 2618.0000000000005
12 ; 14600.545661304575 ; 6256.050768976755 ; 143344.4146246023 ; 75072.60922772106 ; 2856.0000000000005
13 ; 14676.672688567207 ; 6256.050768976755 ; 157944.96028590688 ; 81328.65999669781 ; 3094.0000000000005
14 ; 15253.251733463692 ; 6256.050768976755 ; 172621.63297447408 ; 87584.71076567456 ; 3332.0000000000005
15 ; 15665.154885634172 ; 6256.050768976755 ; 187874.88470793777 ; 93840.76153465132 ; 3570.0000000000005
16 ; 16006.814986308356 ; 6256.050768976755 ; 203540.03959357194 ; 100096.81230362807 ; 3808.0000000000005
17 ; 16352.69707946484 ; 6256.050768976755 ; 219546.8545798803 ; 106352.86307260483 ; 4046.0000000000005
18 ; 16566.53468151419 ; 6256.050768976755 ; 235899.55165934516 ; 112608.91384158158 ; 4284.000000000001
19 ; 17243.91011775001 ; 6256.050768976755 ; 252466.08634085936 ; 118864.96461055834 ; 4522.000000000001
20 ; 17546.81682508667 ; 6256.050768976755 ; 269709.99645860936 ; 125121.01537953509 ; 4760.000000000001
21 ; 17937.270337055226 ; 6256.050768976755 ; 287256.813283696 ; 131377.06614851183 ; 4998.000000000001
22 ; 18066.55308651402 ; 6256.050768976755 ; 305194.0836207512 ; 137633.11691748857 ; 5236.000000000001
23 ; 18277.569349185997 ; 6256.050768976755 ; 323260.6367072652 ; 143889.1676864653 ; 5474.000000000001
24 ; 18713.26154699913 ; 6256.050768976755 ; 341538.2060564512 ; 150145.21845544205 ; 5712.000000000001
25 ; 18902.75969192108 ; 6256.050768976755 ; 360251.4676034503 ; 156401.2692244188 ; 5950.000000000001
26 ; 19253.596491497752 ; 6256.050768976755 ; 379154.22729537135 ; 162657.31999339553 ; 6188.000000000001
27 ; 19567.14223138649 ; 6256.050768976755 ; 398407.8237868691 ; 168913.37076237227 ; 6426.000000000001
28 ; 20016.940456511173 ; 6256.050768976755 ; 417974.9660182556 ; 175169.421531349 ; 6664.000000000001
29 ; 19999.692229949665 ; 6256.050768976755 ; 437991.9064747668 ; 181425.47230032575 ; 6902.000000000001
30 ; 20607.88087467438 ; 6256.050768976755 ; 457991.5987047164 ; 187681.5230693025 ; 7140.000000000001
31 ; 20766.826930385636 ; 6256.050768976755 ; 478599.4795793908 ; 193937.57383827923 ; 7378.000000000001
32 ; 21120.663257626442 ; 6256.050768976755 ; 499366.3065097764 ; 200193.62460725597 ; 7616.000000000001
33 ; 21237.54637507705 ; 6256.050768976755 ; 520486.96976740286 ; 206449.6753762327 ; 7854.000000000001
34 ; 21555.37675881804 ; 6256.050768976755 ; 541724.51614248 ; 212705.72614520945 ; 8092.000000000001
35 ; 21918.94915856767 ; 6256.050768976755 ; 563279.892901298 ; 218961.7769141862 ; 8330.000000000002
36 ; 21972.03883527804 ; 6256.050768976755 ; 585198.8420598657 ; 225217.82768316293 ; 8568.000000000002
37 ; 22082.9253164789 ; 6256.050768976755 ; 607170.8808951437 ; 231473.87845213967 ; 8806.000000000002
38 ; 22553.163728427593 ; 6256.050768976755 ; 629253.8062116227 ; 237729.9292211164 ; 9044.000000000002
39 ; 22696.36656423001 ; 6256.050768976755 ; 651806.9699400503 ; 243985.97999009315 ; 9282.000000000002
40 ; 23097.179211099028 ; 6256.050768976755 ; 674503.3365042803 ; 250242.0307590699 ; 9520.000000000002
41 ; 23380.48939980032 ; 6256.050768976755 ; 697600.5157153794 ; 256498.08152804663 ; 9758.000000000002
42 ; 23619.66106366421 ; 6256.050768976755 ; 720981.0051151797 ; 262754.1322970234 ; 9996.000000000002
43 ; 23561.101323440038 ; 6256.050768976755 ; 744600.6661788439 ; 269010.1830660001 ; 10234.000000000002
44 ; 23877.483115668954 ; 6256.050768976755 ; 768161.767502284 ; 275266.23383497685 ; 10472.000000000002
45 ; 23993.10442183055 ; 6256.050768976755 ; 792039.250617953 ; 281522.2846039536 ; 10710.000000000002
46 ; 24434.072182449025 ; 6256.050768976755 ; 816032.3550397835 ; 287778.33537293033 ; 10948.000000000002
47 ; 24534.689099449886 ; 6256.050768976755 ; 840466.4272222326 ; 294034.3861419071 ; 11186.000000000002
48 ; 24744.16326024991 ; 6256.050768976755 ; 865001.1163216825 ; 300290.4369108838 ; 11424.000000000002
49 ; 25047.034607982398 ; 6256.050768976755 ; 889745.2795819324 ; 306546.48767986055 ; 11662.000000000002
50 ; 25093.203324217262 ; 6256.050768976755 ; 914792.3141899147 ; 312802.5384488373 ; 11900.000000000002
51 ; 25181.96489627731 ; 6256.050768976755 ; 939885.517514132 ; 319058.58921781403 ; 12138.000000000002
52 ; 25478.128607044808 ; 6256.050768976755 ; 965067.4824104093 ; 325314.6399867908 ; 12376.000000000002
53 ; 25630.761459587753 ; 6256.050768976755 ; 990545.6110174541 ; 331570.6907557675 ; 12614.000000000002
54 ; 25634.751168412702 ; 6256.050768976755 ; 1016176.3724770418 ; 337826.74152474426 ; 12852.000000000002
55 ; 25903.3602760934 ; 6256.050768976755 ; 1041811.1236454545 ; 344082.792293721 ; 13090.000000000002
56 ; 25785.617989439095 ; 6256.050768976755 ; 1067714.483921548 ; 350338.84306269774 ; 13328.000000000002
57 ; 26191.95376951299 ; 6256.050768976755 ; 1093500.101910987 ; 356594.8938316745 ; 13566.000000000002
58 ; 25985.645628124883 ; 6256.050768976755 ; 1119692.0556804999 ; 362850.9446006512 ; 13804.000000000002
59 ; 26433.772140086854 ; 6256.050768976755 ; 1145677.7013086248 ; 369106.99536962796 ; 14042.000000000002
60 ; 26486.669044086168 ; 6256.050768976755 ; 1172111.4734487117 ; 375363.0461386047 ; 14280.000000000002
61 ; 26574.67623803921 ; 6256.050768976755 ; 1198598.142492798 ; 381619.09690758144 ; 14518.000000000002
62 ; 26687.63614188805 ; 6256.050768976755 ; 1225172.8187308372 ; 387875.1476765582 ; 14756.000000000002
63 ; 26757.20530166479 ; 6256.050768976755 ; 1251860.4548727253 ; 394131.1984455349 ; 14994.000000000002
64 ; 26894.45455099882 ; 6256.050768976755 ; 1278617.66017439 ; 400387.24921451166 ; 15232.000000000002
65 ; 26944.787843010978 ; 6256.050768976755 ; 1305512.1147253888 ; 406643.2999834884 ; 15470.000000000002
66 ; 27008.199259751873 ; 6256.050768976755 ; 1332456.9025684 ; 412899.35075246514 ; 15708.000000000002
67 ; 26969.323756973405 ; 6256.050768976755 ; 1359465.1018281518 ; 419155.4015214419 ; 15946.000000000002
68 ; 27140.583088908428 ; 6256.050768976755 ; 1386434.4255851253 ; 425411.4522904186 ; 16184.000000000002
69 ; 27301.594639727085 ; 6256.050768976755 ; 1413575.0086740337 ; 431667.50305939536 ; 16422.000000000004
70 ; 27094.901295937554 ; 6256.050768976755 ; 1440876.6033137608 ; 437923.5538283721 ; 16660.000000000004
71 ; 27373.043056025945 ; 6256.050768976755 ; 1467971.5046096984 ; 444179.60459734884 ; 16898.000000000004
72 ; 27464.094713951352 ; 6256.050768976755 ; 1495344.5476657243 ; 450435.6553663256 ; 17136.000000000004
73 ; 27540.844050449705 ; 6256.050768976755 ; 1522808.6423796758 ; 456691.7061353023 ; 17374.000000000004
74 ; 27678.001904321296 ; 6256.050768976755 ; 1550349.4864301255 ; 462947.75690427906 ; 17612.000000000004
75 ; 27532.038828525318 ; 6256.050768976755 ; 1578027.488334447 ; 469203.8076732558 ; 17850.000000000004
76 ; 27628.86338659158 ; 6256.050768976755 ; 1605559.5271629721 ; 475459.85844223254 ; 18088.000000000004
77 ; 27376.75700334081 ; 6256.050768976755 ; 1633188.3905495638 ; 481715.9092112093 ; 18326.000000000004
78 ; 27550.16049081322 ; 6256.050768976755 ; 1660565.1475529047 ; 487971.959980186 ; 18564.000000000004
79 ; 27545.364865601947 ; 6256.050768976755 ; 1688115.3080437179 ; 494228.01074916276 ; 18802.000000000004
80 ; 27544.858287030092 ; 6256.050768976755 ; 1715660.6729093199 ; 500484.0615181395 ; 19040.000000000004
81 ; 27598.698697327498 ; 6256.050768976755 ; 1743205.53119635 ; 506740.11228711624 ; 19278.000000000004
82 ; 27700.514895347456 ; 6256.050768976755 ; 1770804.2298936774 ; 512996.163056093 ; 19516.000000000004
83 ; 27361.754322470304 ; 6256.050768976755 ; 1798504.7447890248 ; 519252.2138250697 ; 19754.000000000004
84 ; 27767.898687570992 ; 6256.050768976755 ; 1825866.4991114952 ; 525508.2645940465 ; 19992.000000000004
85 ; 27463.886844658828 ; 6256.050768976755 ; 1853634.3977990663 ; 531764.3153630233 ; 20230.000000000004
86 ; 27576.180166368067 ; 6256.050768976755 ; 1881098.284643725 ; 538020.3661320001 ; 20468.000000000004
87 ; 27635.09500438511 ; 6256.050768976755 ; 1908674.4648100932 ; 544276.4169009769 ; 20706.000000000004
88 ; 27357.2946906545 ; 6256.050768976755 ; 1936309.5598144783 ; 550532.4676699537 ; 20944.000000000004
89 ; 27408.162179222276 ; 6256.050768976755 ; 1963666.854505133 ; 556788.5184389305 ; 21182.000000000004
90 ; 27382.268161645006 ; 6256.050768976755 ; 1991075.0166843552 ; 563044.5692079073 ; 21420.000000000004
91 ; 27239.48104413025 ; 6256.050768976755 ; 2018457.2848460001 ; 569300.6199768841 ; 21658.000000000004
92 ; 27326.737634511665 ; 6256.050768976755 ; 2045696.7658901303 ; 575556.6707458609 ; 21896.000000000004
93 ; 27100.122953247715 ; 6256.050768976755 ; 2073023.503524642 ; 581812.7215148377 ; 22134.000000000004
94 ; 27084.44548226884 ; 6256.050768976755 ; 2100123.6264778897 ; 588068.7722838145 ; 22372.000000000004
95 ; 27179.59884104354 ; 6256.050768976755 ; 2127208.0719601586 ; 594324.8230527913 ; 22610.000000000004
96 ; 26836.79580112248 ; 6256.050768976755 ; 2154387.6708012023 ; 600580.8738217681 ; 22848.000000000004
97 ; 26852.802079404337 ; 6256.050768976755 ; 2181224.466602325 ; 606836.9245907449 ; 23086.000000000004
98 ; 26573.494634837753 ; 6256.050768976755 ; 2208077.268681729 ; 613092.9753597217 ; 23324.000000000004
99 ; 26780.40055885103 ; 6256.050768976755 ; 2234650.763316567 ; 619349.0261286985 ; 23562.000000000004
100 ; 26665.74773339533 ; 6256.050768976755 ; 2261431.1638754182 ; 625605.0768976753 ; 23800.000000000004
101 ; 26457.983904858345 ; 6256.050768976755 ; 2288096.911608814 ; 631861.1276666521 ; 24038.000000000004
102 ; 26391.43399199581 ; 6256.050768976755 ; 2314554.895513672 ; 638117.1784356289 ; 24276.000000000004
103 ; 26260.80294429534 ; 6256.050768976755 ; 2340946.3295056676 ; 644373.2292046057 ; 24514.000000000004
104 ; 26223.411341293013 ; 6256.050768976755 ; 2367207.132449963 ; 650629.2799735825 ; 24752.000000000004
105 ; 26043.6475880508 ; 6256.050768976755 ; 2393430.543791256 ; 656885.3307425593 ; 24990.000000000004
106 ; 25885.024968612062 ; 6256.050768976755 ; 2419474.191379307 ; 663141.3815115361 ; 25228.000000000004
107 ; 25431.183635863978 ; 6256.050768976755 ; 2445359.216347919 ; 669397.4322805129 ; 25466.000000000004
108 ; 25613.18246576506 ; 6256.050768976755 ; 2470790.399983783 ; 675653.4830494897 ; 25704.000000000004
109 ; 25437.749087731132 ; 6256.050768976755 ; 2496403.582449548 ; 681909.5338184665 ; 25942.000000000004
110 ; 25260.8239494744 ; 6256.050768976755 ; 2521841.3315372793 ; 688165.5845874433 ; 26180.000000000004
111 ; 25096.740966095465 ; 6256.050768976755 ; 2547102.1554867537 ; 694421.6353564201 ; 26418.000000000004
112 ; 24907.861035187987 ; 6256.050768976755 ; 2572198.8964528493 ; 700677.6861253969 ; 26656.000000000004
113 ; 24836.8010534845 ; 6256.050768976755 ; 2597106.7574880375 ; 706933.7368943737 ; 26894.000000000004
114 ; 24663.879037786985 ; 6256.050768976755 ; 2621943.558541522 ; 713189.7876633505 ; 27132.000000000004
115 ; 24329.233550296005 ; 6256.050768976755 ; 2646607.437579309 ; 719445.8384323273 ; 27370.000000000004
116 ; 24265.613272926195 ; 6256.050768976755 ; 2670936.6711296053 ; 725701.8892013041 ; 27608.000000000004
117 ; 23923.112883667945 ; 6256.050768976755 ; 2695202.2844025316 ; 731957.9399702809 ; 27846.000000000004
118 ; 23745.52019635753 ; 6256.050768976755 ; 2719125.3972861995 ; 738213.9907392577 ; 28084.000000000004
119 ; 23571.222380204224 ; 6256.050768976755 ; 2742870.9174825572 ; 744470.0415082345 ; 28322.000000000004
120 ; 23387.095297596243 ; 6256.050768976755 ; 2766442.1398627614 ; 750726.0922772113 ; 28560.000000000004
121 ; 23201.61312032836 ; 6256.050768976755 ; 2789829.235160358 ; 756982.143046188 ; 28798.000000000004
122 ; 23036.946415916627 ; 6256.050768976755 ; 2813030.848280686 ; 763238.1938151649 ; 29036.000000000004
123 ; 22692.700845015614 ; 6256.050768976755 ; 2836067.7946966025 ; 769494.2445841416 ; 29274.000000000004
124 ; 22594.34639403244 ; 6256.050768976755 ; 2858760.495541618 ; 775750.2953531184 ; 29512.000000000004
125 ; 22082.391947359483 ; 6256.050768976755 ; 2881354.8419356504 ; 782006.3461220952 ; 29750.000000000004
126 ; 21873.47441725454 ; 6256.050768976755 ; 2903437.2338830098 ; 788262.396891072 ; 29988.000000000004
127 ; 21722.91697107366 ; 6256.050768976755 ; 2925310.708300264 ; 794518.4476600488 ; 30226.000000000004
128 ; 21553.049568358867 ; 6256.050768976755 ; 2947033.6252713376 ; 800774.4984290256 ; 30464.000000000004
129 ; 21312.973809152503 ; 6256.050768976755 ; 2968586.6748396964 ; 807030.5491980024 ; 30702.000000000004
130 ; 21007.381064122663 ; 6256.050768976755 ; 2989899.6486488488 ; 813286.5999669792 ; 30940.000000000004
131 ; 20524.267501138587 ; 6256.050768976755 ; 3010907.0297129713 ; 819542.650735956 ; 31178.000000000004
132 ; 20250.6524019039 ; 6256.050768976755 ; 3031431.29721411 ; 825798.7015049328 ; 31416.000000000004
133 ; 20044.35822790877 ; 6256.050768976755 ; 3051681.949616014 ; 832054.7522739096 ; 31654.000000000004
134 ; 19923.74503687356 ; 6256.050768976755 ; 3071726.3078439226 ; 838310.8030428864 ; 31892.000000000004
135 ; 19516.87474489631 ; 6256.050768976755 ; 3091650.052880796 ; 844566.8538118632 ; 32130.000000000004
136 ; 19280.14306906952 ; 6256.050768976755 ; 3111166.9276256924 ; 850822.90458084 ; 32368.000000000004
137 ; 18952.051799186844 ; 6256.050768976755 ; 3130447.070694762 ; 857078.9553498168 ; 32606.000000000004
138 ; 18608.573431398432 ; 6256.050768976755 ; 3149399.122493949 ; 863335.0061187936 ; 32844.00000000001
139 ; 18282.34493562231 ; 6256.050768976755 ; 3168007.695925347 ; 869591.0568877704 ; 33082.00000000001
140 ; 17829.4843774209 ; 6256.050768976755 ; 3186290.0408609696 ; 875847.1076567472 ; 33320.00000000001
141 ; 17540.6548560138 ; 6256.050768976755 ; 3204119.5252383905 ; 882103.158425724 ; 33558.00000000001
142 ; 17351.78488875582 ; 6256.050768976755 ; 3221660.180094404 ; 888359.2091947008 ; 33796.00000000001
143 ; 16950.250688452514 ; 6256.050768976755 ; 3239011.96498316 ; 894615.2599636776 ; 34034.00000000001
144 ; 16698.82283999135 ; 6256.050768976755 ; 3255962.215671613 ; 900871.3107326544 ; 34272.00000000001
145 ; 16549.180936401328 ; 6256.050768976755 ; 3272661.038511604 ; 907127.3615016312 ; 34510.00000000001
146 ; 16388.004690489117 ; 6256.050768976755 ; 3289210.2194480053 ; 913383.412270608 ; 34748.00000000001
147 ; 16559.302655730342 ; 6256.050768976755 ; 3305598.2241384946 ; 919639.4630395848 ; 34986.00000000001
148 ; 16162.320355541964 ; 6256.050768976755 ; 3322157.526794225 ; 925895.5138085616 ; 35224.00000000001
149 ; 16186.156186939783 ; 6256.050768976755 ; 3338319.847149767 ; 932151.5645775384 ; 35462.00000000001
150 ; 15931.750618084017 ; 6256.050768976755 ; 3354506.0033367067 ; 938407.6153465152 ; 35700.00000000001
151 ; 15854.16759412616 ; 6256.050768976755 ; 3370437.7539547905 ; 944663.666115492 ; 35938.00000000001
152 ; 15777.932096963576 ; 6256.050768976755 ; 3386291.9215489165 ; 950919.7168844688 ; 36176.00000000001
153 ; 15645.405268044844 ; 6256.050768976755 ; 3402069.8536458802 ; 957175.7676534456 ; 36414.00000000001
154 ; 15531.235169711657 ; 6256.050768976755 ; 3417715.258913925 ; 963431.8184224224 ; 36652.00000000001
155 ; 15508.730114063415 ; 6256.050768976755 ; 3433246.4940836364 ; 969687.8691913992 ; 36890.00000000001
156 ; 15284.892112508469 ; 6256.050768976755 ; 3448755.2241976997 ; 975943.919960376 ; 37128.00000000001
157 ; 15123.80309626532 ; 6256.050768976755 ; 3464040.116310208 ; 982199.9707293528 ; 37366.00000000001
158 ; 15314.143017615255 ; 6256.050768976755 ; 3479163.9194064736 ; 988456.0214983296 ; 37604.00000000001
159 ; 14859.31350231299 ; 6256.050768976755 ; 3494478.062424089 ; 994712.0722673064 ; 37842.00000000001
160 ; 14866.796457441545 ; 6256.050768976755 ; 3509337.375926402 ; 1000968.1230362832 ; 38080.00000000001
161 ; 14659.844722698059 ; 6256.050768976755 ; 3524204.1723838435 ; 1007224.17380526 ; 38318.00000000001
162 ; 14369.560178201391 ; 6256.050768976755 ; 3538864.0171065414 ; 1013480.2245742368 ; 38556.00000000001
163 ; 14467.737356181857 ; 6256.050768976755 ; 3553233.5772847426 ; 1019736.2753432136 ; 38794.00000000001
164 ; 14326.380650454907 ; 6256.050768976755 ; 3567701.3146409243 ; 1025992.3261121904 ; 39032.00000000001
165 ; 14201.670053569327 ; 6256.050768976755 ; 3582027.6952913795 ; 1032248.3768811672 ; 39270.00000000001
166 ; 14178.312848036185 ; 6256.050768976755 ; 3596229.3653449486 ; 1038504.427650144 ; 39508.00000000001
167 ; 13847.188510306472 ; 6256.050768976755 ; 3610407.678192985 ; 1044760.4784191208 ; 39746.00000000001
168 ; 13602.424350065883 ; 6256.050768976755 ; 3624254.8667032914 ; 1051016.5291880975 ; 39984.00000000001
169 ; 13470.756714550434 ; 6256.050768976755 ; 3637857.2910533575 ; 1057272.5799570743 ; 40222.00000000001
170 ; 13312.301255020042 ; 6256.050768976755 ; 3651328.047767908 ; 1063528.630726051 ; 40460.00000000001
171 ; 13197.469929748599 ; 6256.050768976755 ; 3664640.3490229277 ; 1069784.6814950278 ; 40698.00000000001
172 ; 13123.074865917397 ; 6256.050768976755 ; 3677837.8189526764 ; 1076040.7322640046 ; 40936.00000000001
173 ; 13038.496208698103 ; 6256.050768976755 ; 3690960.8938185936 ; 1082296.7830329814 ; 41174.00000000001
174 ; 12944.839087411201 ; 6256.050768976755 ; 3703999.3900272916 ; 1088552.8338019582 ; 41412.00000000001
175 ; 12976.436676375297 ; 6256.050768976755 ; 3716944.229114703 ; 1094808.884570935 ; 41650.00000000001
176 ; 12992.84124362486 ; 6256.050768976755 ; 3729920.665791078 ; 1101064.9353399118 ; 41888.00000000001
177 ; 13115.656637674078 ; 6256.050768976755 ; 3742913.5070347027 ; 1107320.9861088886 ; 42126.00000000001
178 ; 13107.081536520567 ; 6256.050768976755 ; 3756029.163672377 ; 1113577.0368778654 ; 42364.00000000001
179 ; 13165.81450517061 ; 6256.050768976755 ; 3769136.2452088976 ; 1119833.0876468422 ; 42602.00000000001
180 ; 13151.240358123097 ; 6256.050768976755 ; 3782302.059714068 ; 1126089.138415819 ; 42840.00000000001
181 ; 13033.239535415525 ; 6256.050768976755 ; 3795453.3000721913 ; 1132345.1891847958 ; 43078.00000000001
182 ; 13204.820831641677 ; 6256.050768976755 ; 3808486.539607607 ; 1138601.2399537726 ; 43316.00000000001
183 ; 13242.646163011615 ; 6256.050768976755 ; 3821691.3604392484 ; 1144857.2907227494 ; 43554.00000000001
184 ; 13263.141405541644 ; 6256.050768976755 ; 3834934.00660226 ; 1151113.3414917262 ; 43792.00000000001
185 ; 13054.177605703648 ; 6256.050768976755 ; 3848197.1480078013 ; 1157369.392260703 ; 44030.00000000001
186 ; 13179.628791950745 ; 6256.050768976755 ; 3861251.3256135047 ; 1163625.4430296798 ; 44268.00000000001
