CSV File for the City 1 on Day 169
1 - Minute m 
2 - Power Consumed at minute m 
3 - Power Produced at minute m 
4 - Energy Consumed since the beginning of the day 
5 - Energy Produced since the beginning of the day 
6 - Energy Lost since the beginning of the day on lines starting from the city
 
0 ; 7163.582345842014 ; 3192.717002124773 ; 0.0 ; 0.0 ; 0.0
1 ; 7571.842276447905 ; 3192.717002124773 ; 7163.582345842014 ; 3192.717002124773 ; 238.00000000000003
2 ; 8107.522903777601 ; 3192.717002124773 ; 14735.424622289918 ; 6385.434004249546 ; 476.00000000000006
3 ; 8738.96750619022 ; 3192.717002124773 ; 22842.947526067517 ; 9578.151006374319 ; 714.0000000000001
4 ; 9126.651030375328 ; 3192.717002124773 ; 31581.915032257737 ; 12770.868008499092 ; 952.0000000000001
5 ; 9658.850850924939 ; 3192.717002124773 ; 40708.566062633065 ; 15963.585010623865 ; 1190.0000000000002
6 ; 10059.944034315926 ; 3192.717002124773 ; 50367.416913558 ; 19156.302012748638 ; 1428.0000000000002
7 ; 10766.588488237989 ; 3192.717002124773 ; 60427.36094787392 ; 22349.01901487341 ; 1666.0000000000002
8 ; 11328.328581237532 ; 3192.717002124773 ; 71193.94943611191 ; 25541.736016998184 ; 1904.0000000000002
9 ; 11690.452857238413 ; 3192.717002124773 ; 82522.27801734945 ; 28734.453019122957 ; 2142.0000000000005
10 ; 12227.148835703973 ; 3192.717002124773 ; 94212.73087458787 ; 31927.17002124773 ; 2380.0000000000005
11 ; 12593.590160576117 ; 3192.717002124773 ; 106439.87971029185 ; 35119.8870233725 ; 2618.0000000000005
12 ; 13012.701793949434 ; 3192.717002124773 ; 119033.46987086796 ; 38312.604025497276 ; 2856.0000000000005
13 ; 13572.62530869697 ; 3192.717002124773 ; 132046.1716648174 ; 41505.32102762205 ; 3094.0000000000005
14 ; 14012.074881390938 ; 3192.717002124773 ; 145618.79697351437 ; 44698.03802974682 ; 3332.0000000000005
15 ; 14433.46625971351 ; 3192.717002124773 ; 159630.8718549053 ; 47890.755031871595 ; 3570.0000000000005
16 ; 14754.005696717884 ; 3192.717002124773 ; 174064.33811461882 ; 51083.47203399637 ; 3808.0000000000005
17 ; 15105.949535299234 ; 3192.717002124773 ; 188818.3438113367 ; 54276.18903612114 ; 4046.0000000000005
18 ; 15734.963884662651 ; 3192.717002124773 ; 203924.29334663594 ; 57468.906038245914 ; 4284.000000000001
19 ; 15935.01708678224 ; 3192.717002124773 ; 219659.2572312986 ; 60661.62304037069 ; 4522.000000000001
20 ; 16545.462291833872 ; 3192.717002124773 ; 235594.27431808083 ; 63854.34004249546 ; 4760.000000000001
21 ; 16746.24104789944 ; 3192.717002124773 ; 252139.7366099147 ; 67047.05704462023 ; 4998.000000000001
22 ; 17356.654810634183 ; 3192.717002124773 ; 268885.9776578141 ; 70239.774046745 ; 5236.000000000001
23 ; 17686.526825228342 ; 3192.717002124773 ; 286242.6324684483 ; 73432.49104886978 ; 5474.000000000001
24 ; 17972.1235072848 ; 3192.717002124773 ; 303929.15929367667 ; 76625.20805099455 ; 5712.000000000001
25 ; 18353.9360430679 ; 3192.717002124773 ; 321901.28280096146 ; 79817.92505311932 ; 5950.000000000001
26 ; 18716.452733430542 ; 3192.717002124773 ; 340255.21884402935 ; 83010.6420552441 ; 6188.000000000001
27 ; 19013.983432107663 ; 3192.717002124773 ; 358971.6715774599 ; 86203.35905736887 ; 6426.000000000001
28 ; 19528.437170186236 ; 3192.717002124773 ; 377985.65500956756 ; 89396.07605949364 ; 6664.000000000001
29 ; 19734.663838871536 ; 3192.717002124773 ; 397514.0921797538 ; 92588.79306161842 ; 6902.000000000001
30 ; 20095.819356899843 ; 3192.717002124773 ; 417248.75601862534 ; 95781.51006374319 ; 7140.000000000001
31 ; 20517.874526262236 ; 3192.717002124773 ; 437344.57537552516 ; 98974.22706586796 ; 7378.000000000001
32 ; 20851.321352475436 ; 3192.717002124773 ; 457862.4499017874 ; 102166.94406799274 ; 7616.000000000001
33 ; 21090.86734867095 ; 3192.717002124773 ; 478713.7712542628 ; 105359.66107011751 ; 7854.000000000001
34 ; 21429.814044459712 ; 3192.717002124773 ; 499804.6386029338 ; 108552.37807224228 ; 8092.000000000001
35 ; 21840.951847701464 ; 3192.717002124773 ; 521234.4526473935 ; 111745.09507436705 ; 8330.000000000002
36 ; 21868.206127379235 ; 3192.717002124773 ; 543075.404495095 ; 114937.81207649183 ; 8568.000000000002
37 ; 22285.9465276544 ; 3192.717002124773 ; 564943.6106224742 ; 118130.5290786166 ; 8806.000000000002
38 ; 22738.49868223888 ; 3192.717002124773 ; 587229.5571501286 ; 121323.24608074137 ; 9044.000000000002
39 ; 23068.47506547484 ; 3192.717002124773 ; 609968.0558323675 ; 124515.96308286615 ; 9282.000000000002
40 ; 22999.481021172054 ; 3192.717002124773 ; 633036.5308978424 ; 127708.68008499092 ; 9520.000000000002
41 ; 23361.401891529946 ; 3192.717002124773 ; 656036.0119190144 ; 130901.39708711569 ; 9758.000000000002
42 ; 23645.956739014342 ; 3192.717002124773 ; 679397.4138105443 ; 134094.11408924047 ; 9996.000000000002
43 ; 24004.691073442584 ; 3192.717002124773 ; 703043.3705495587 ; 137286.83109136525 ; 10234.000000000002
44 ; 24217.32291989454 ; 3192.717002124773 ; 727048.0616230012 ; 140479.54809349 ; 10472.000000000002
45 ; 24345.225062172045 ; 3192.717002124773 ; 751265.3845428958 ; 143672.26509561477 ; 10710.000000000002
46 ; 24542.568732064283 ; 3192.717002124773 ; 775610.6096050679 ; 146864.98209773953 ; 10948.000000000002
47 ; 25060.323360616 ; 3192.717002124773 ; 800153.1783371322 ; 150057.6990998643 ; 11186.000000000002
48 ; 25306.42815583696 ; 3192.717002124773 ; 825213.5016977482 ; 153250.41610198905 ; 11424.000000000002
49 ; 25435.877028158233 ; 3192.717002124773 ; 850519.9298535852 ; 156443.1331041138 ; 11662.000000000002
50 ; 25615.693409857962 ; 3192.717002124773 ; 875955.8068817435 ; 159635.85010623856 ; 11900.000000000002
51 ; 25984.015110800377 ; 3192.717002124773 ; 901571.5002916014 ; 162828.56710836332 ; 12138.000000000002
52 ; 25877.667441574642 ; 3192.717002124773 ; 927555.5154024018 ; 166021.28411048808 ; 12376.000000000002
53 ; 26014.018457913346 ; 3192.717002124773 ; 953433.1828439764 ; 169214.00111261284 ; 12614.000000000002
54 ; 26334.56263204511 ; 3192.717002124773 ; 979447.2013018897 ; 172406.7181147376 ; 12852.000000000002
55 ; 26710.60140132863 ; 3192.717002124773 ; 1005781.7639339349 ; 175599.43511686235 ; 13090.000000000002
56 ; 26664.55602988853 ; 3192.717002124773 ; 1032492.3653352634 ; 178792.1521189871 ; 13328.000000000002
57 ; 26870.879974775413 ; 3192.717002124773 ; 1059156.9213651519 ; 181984.86912111187 ; 13566.000000000002
58 ; 27116.376092516548 ; 3192.717002124773 ; 1086027.8013399274 ; 185177.58612323663 ; 13804.000000000002
59 ; 27253.023550874423 ; 3192.717002124773 ; 1113144.177432444 ; 188370.3031253614 ; 14042.000000000002
60 ; 27456.410086349268 ; 3192.717002124773 ; 1140397.2009833183 ; 191563.02012748615 ; 14280.000000000002
61 ; 27289.433396026987 ; 3192.717002124773 ; 1167853.6110696676 ; 194755.7371296109 ; 14518.000000000002
62 ; 27620.07190276799 ; 3192.717002124773 ; 1195143.0444656946 ; 197948.45413173566 ; 14756.000000000002
63 ; 27519.993505559778 ; 3192.717002124773 ; 1222763.1163684626 ; 201141.17113386042 ; 14994.000000000002
64 ; 27740.745095521484 ; 3192.717002124773 ; 1250283.1098740224 ; 204333.88813598518 ; 15232.000000000002
65 ; 28130.683913186396 ; 3192.717002124773 ; 1278023.8549695439 ; 207526.60513810994 ; 15470.000000000002
66 ; 27961.202479304884 ; 3192.717002124773 ; 1306154.5388827303 ; 210719.3221402347 ; 15708.000000000002
67 ; 28077.322036707683 ; 3192.717002124773 ; 1334115.7413620353 ; 213912.03914235946 ; 15946.000000000002
68 ; 28293.189730953778 ; 3192.717002124773 ; 1362193.063398743 ; 217104.7561444842 ; 16184.000000000002
69 ; 28320.590942902803 ; 3192.717002124773 ; 1390486.253129697 ; 220297.47314660897 ; 16422.000000000004
70 ; 28502.532764833828 ; 3192.717002124773 ; 1418806.8440725997 ; 223490.19014873373 ; 16660.000000000004
71 ; 28409.012193009148 ; 3192.717002124773 ; 1447309.3768374335 ; 226682.9071508585 ; 16898.000000000004
72 ; 28735.875777875735 ; 3192.717002124773 ; 1475718.3890304428 ; 229875.62415298325 ; 17136.000000000004
73 ; 28547.887713986314 ; 3192.717002124773 ; 1504454.2648083186 ; 233068.341155108 ; 17374.000000000004
74 ; 28590.827931805405 ; 3192.717002124773 ; 1533002.1525223048 ; 236261.05815723276 ; 17612.000000000004
75 ; 28789.406798491247 ; 3192.717002124773 ; 1561592.9804541103 ; 239453.77515935752 ; 17850.000000000004
76 ; 28665.95237891483 ; 3192.717002124773 ; 1590382.3872526016 ; 242646.49216148228 ; 18088.000000000004
77 ; 28873.249383827675 ; 3192.717002124773 ; 1619048.3396315165 ; 245839.20916360704 ; 18326.000000000004
78 ; 28933.034724290377 ; 3192.717002124773 ; 1647921.5890153442 ; 249031.9261657318 ; 18564.000000000004
79 ; 28863.36619318561 ; 3192.717002124773 ; 1676854.6237396346 ; 252224.64316785656 ; 18802.000000000004
80 ; 28985.698121143487 ; 3192.717002124773 ; 1705717.9899328202 ; 255417.36016998132 ; 19040.000000000004
81 ; 28830.70452176673 ; 3192.717002124773 ; 1734703.6880539637 ; 258610.07717210607 ; 19278.000000000004
82 ; 28816.99294092347 ; 3192.717002124773 ; 1763534.3925757303 ; 261802.79417423083 ; 19516.000000000004
83 ; 28485.13955846255 ; 3192.717002124773 ; 1792351.3855166538 ; 264995.5111763556 ; 19754.000000000004
84 ; 28848.2870927154 ; 3192.717002124773 ; 1820836.5250751164 ; 268188.22817848035 ; 19992.000000000004
85 ; 28742.58359014272 ; 3192.717002124773 ; 1849684.812167832 ; 271380.9451806051 ; 20230.000000000004
86 ; 28600.72801746674 ; 3192.717002124773 ; 1878427.3957579746 ; 274573.66218272987 ; 20468.000000000004
87 ; 28867.80654845388 ; 3192.717002124773 ; 1907028.1237754414 ; 277766.3791848546 ; 20706.000000000004
88 ; 28526.818532278747 ; 3192.717002124773 ; 1935895.9303238953 ; 280959.0961869794 ; 20944.000000000004
89 ; 28706.679653132433 ; 3192.717002124773 ; 1964422.748856174 ; 284151.81318910414 ; 21182.000000000004
90 ; 28783.04155318964 ; 3192.717002124773 ; 1993129.4285093064 ; 287344.5301912289 ; 21420.000000000004
91 ; 28661.580730954825 ; 3192.717002124773 ; 2021912.4700624961 ; 290537.24719335366 ; 21658.000000000004
92 ; 28321.673984161847 ; 3192.717002124773 ; 2050574.050793451 ; 293729.9641954784 ; 21896.000000000004
93 ; 28569.284193298226 ; 3192.717002124773 ; 2078895.7247776128 ; 296922.6811976032 ; 22134.000000000004
94 ; 28438.142377320608 ; 3192.717002124773 ; 2107465.008970911 ; 300115.39819972793 ; 22372.000000000004
95 ; 28122.692048525958 ; 3192.717002124773 ; 2135903.151348232 ; 303308.1152018527 ; 22610.000000000004
96 ; 28330.619007017325 ; 3192.717002124773 ; 2164025.8433967577 ; 306500.83220397745 ; 22848.000000000004
97 ; 28075.465679050496 ; 3192.717002124773 ; 2192356.462403775 ; 309693.5492061022 ; 23086.000000000004
98 ; 28112.649321267458 ; 3192.717002124773 ; 2220431.9280828256 ; 312886.26620822697 ; 23324.000000000004
99 ; 27726.51281987399 ; 3192.717002124773 ; 2248544.577404093 ; 316078.9832103517 ; 23562.000000000004
100 ; 27946.020565940235 ; 3192.717002124773 ; 2276271.090223967 ; 319271.7002124765 ; 23800.000000000004
101 ; 27683.652422794534 ; 3192.717002124773 ; 2304217.110789907 ; 322464.41721460124 ; 24038.000000000004
102 ; 27641.968773024906 ; 3192.717002124773 ; 2331900.763212702 ; 325657.134216726 ; 24276.000000000004
103 ; 27188.163119894438 ; 3192.717002124773 ; 2359542.731985727 ; 328849.85121885076 ; 24514.000000000004
104 ; 27209.104960762106 ; 3192.717002124773 ; 2386730.8951056213 ; 332042.5682209755 ; 24752.000000000004
105 ; 27134.683850142745 ; 3192.717002124773 ; 2413940.0000663833 ; 335235.2852231003 ; 24990.000000000004
106 ; 27129.906334057763 ; 3192.717002124773 ; 2441074.683916526 ; 338428.00222522503 ; 25228.000000000004
107 ; 26621.109574454287 ; 3192.717002124773 ; 2468204.590250584 ; 341620.7192273498 ; 25466.000000000004
108 ; 26571.763390247783 ; 3192.717002124773 ; 2494825.699825038 ; 344813.43622947455 ; 25704.000000000004
109 ; 26435.530731176343 ; 3192.717002124773 ; 2521397.463215286 ; 348006.1532315993 ; 25942.000000000004
110 ; 26317.856011153723 ; 3192.717002124773 ; 2547832.9939464624 ; 351198.87023372407 ; 26180.000000000004
111 ; 26232.74795096442 ; 3192.717002124773 ; 2574150.849957616 ; 354391.5872358488 ; 26418.000000000004
112 ; 25912.23766339163 ; 3192.717002124773 ; 2600383.5979085807 ; 357584.3042379736 ; 26656.000000000004
113 ; 25658.419978950376 ; 3192.717002124773 ; 2626295.835571972 ; 360777.02124009834 ; 26894.000000000004
114 ; 25549.624822512462 ; 3192.717002124773 ; 2651954.2555509224 ; 363969.7382422231 ; 27132.000000000004
115 ; 25315.658914422023 ; 3192.717002124773 ; 2677503.8803734346 ; 367162.45524434786 ; 27370.000000000004
116 ; 25103.705880814257 ; 3192.717002124773 ; 2702819.539287857 ; 370355.1722464726 ; 27608.000000000004
117 ; 24935.561982389598 ; 3192.717002124773 ; 2727923.245168671 ; 373547.8892485974 ; 27846.000000000004
118 ; 24577.487576672884 ; 3192.717002124773 ; 2752858.8071510606 ; 376740.60625072214 ; 28084.000000000004
119 ; 24289.948510863112 ; 3192.717002124773 ; 2777436.2947277334 ; 379933.3232528469 ; 28322.000000000004
120 ; 24131.475236309583 ; 3192.717002124773 ; 2801726.2432385962 ; 383126.04025497165 ; 28560.000000000004
121 ; 23849.644297829345 ; 3192.717002124773 ; 2825857.718474906 ; 386318.7572570964 ; 28798.000000000004
122 ; 23725.02267443221 ; 3192.717002124773 ; 2849707.3627727353 ; 389511.47425922117 ; 29036.000000000004
123 ; 23297.70862255214 ; 3192.717002124773 ; 2873432.3854471673 ; 392704.1912613459 ; 29274.000000000004
124 ; 23047.676789712772 ; 3192.717002124773 ; 2896730.0940697193 ; 395896.9082634707 ; 29512.000000000004
125 ; 22913.720859235924 ; 3192.717002124773 ; 2919777.770859432 ; 399089.62526559544 ; 29750.000000000004
126 ; 22707.96761646506 ; 3192.717002124773 ; 2942691.491718668 ; 402282.3422677202 ; 29988.000000000004
127 ; 22544.820398599724 ; 3192.717002124773 ; 2965399.459335133 ; 405475.05926984496 ; 30226.000000000004
128 ; 22149.044424925174 ; 3192.717002124773 ; 2987944.279733733 ; 408667.7762719697 ; 30464.000000000004
129 ; 21742.81354350752 ; 3192.717002124773 ; 3010093.324158658 ; 411860.4932740945 ; 30702.000000000004
130 ; 21346.520293768255 ; 3192.717002124773 ; 3031836.137702165 ; 415053.21027621924 ; 30940.000000000004
131 ; 21149.511329351808 ; 3192.717002124773 ; 3053182.657995933 ; 418245.927278344 ; 31178.000000000004
132 ; 20687.548289536677 ; 3192.717002124773 ; 3074332.169325285 ; 421438.64428046875 ; 31416.000000000004
133 ; 20406.230618418504 ; 3192.717002124773 ; 3095019.7176148216 ; 424631.3612825935 ; 31654.000000000004
134 ; 20184.700232049676 ; 3192.717002124773 ; 3115425.9482332403 ; 427824.07828471827 ; 31892.000000000004
135 ; 19927.764415232752 ; 3192.717002124773 ; 3135610.6484652897 ; 431016.79528684303 ; 32130.000000000004
136 ; 19586.8405507936 ; 3192.717002124773 ; 3155538.4128805227 ; 434209.5122889678 ; 32368.000000000004
137 ; 19222.294474702285 ; 3192.717002124773 ; 3175125.2534313165 ; 437402.22929109255 ; 32606.000000000004
138 ; 18795.07158379088 ; 3192.717002124773 ; 3194347.547906019 ; 440594.9462932173 ; 32844.00000000001
139 ; 18355.36583516224 ; 3192.717002124773 ; 3213142.6194898095 ; 443787.66329534206 ; 33082.00000000001
140 ; 17842.659278017803 ; 3192.717002124773 ; 3231497.985324972 ; 446980.3802974668 ; 33320.00000000001
141 ; 17641.35902847156 ; 3192.717002124773 ; 3249340.64460299 ; 450173.0972995916 ; 33558.00000000001
142 ; 17225.81764987557 ; 3192.717002124773 ; 3266982.0036314614 ; 453365.81430171634 ; 33796.00000000001
143 ; 16796.06533884269 ; 3192.717002124773 ; 3284207.821281337 ; 456558.5313038411 ; 34034.00000000001
144 ; 16306.524339436355 ; 3192.717002124773 ; 3301003.8866201798 ; 459751.24830596586 ; 34272.00000000001
145 ; 16052.291015103661 ; 3192.717002124773 ; 3317310.4109596163 ; 462943.9653080906 ; 34510.00000000001
146 ; 16301.641029857034 ; 3192.717002124773 ; 3333362.7019747198 ; 466136.6823102154 ; 34748.00000000001
147 ; 16141.58239755612 ; 3192.717002124773 ; 3349664.343004577 ; 469329.39931234013 ; 34986.00000000001
148 ; 16010.67636035847 ; 3192.717002124773 ; 3365805.925402133 ; 472522.1163144649 ; 35224.00000000001
149 ; 15953.301418636676 ; 3192.717002124773 ; 3381816.6017624913 ; 475714.83331658965 ; 35462.00000000001
150 ; 15746.18047273543 ; 3192.717002124773 ; 3397769.9031811277 ; 478907.5503187144 ; 35700.00000000001
151 ; 15567.323736265254 ; 3192.717002124773 ; 3413516.083653863 ; 482100.26732083916 ; 35938.00000000001
152 ; 15692.16855363665 ; 3192.717002124773 ; 3429083.4073901284 ; 485292.9843229639 ; 36176.00000000001
153 ; 15244.677709976111 ; 3192.717002124773 ; 3444775.575943765 ; 488485.7013250887 ; 36414.00000000001
154 ; 15155.273855300075 ; 3192.717002124773 ; 3460020.2536537414 ; 491678.41832721344 ; 36652.00000000001
155 ; 15069.058817907471 ; 3192.717002124773 ; 3475175.5275090416 ; 494871.1353293382 ; 36890.00000000001
156 ; 14909.41374704982 ; 3192.717002124773 ; 3490244.5863269493 ; 498063.85233146296 ; 37128.00000000001
157 ; 14777.70127033579 ; 3192.717002124773 ; 3505154.000073999 ; 501256.5693335877 ; 37366.00000000001
158 ; 14765.025014584251 ; 3192.717002124773 ; 3519931.701344335 ; 504449.2863357125 ; 37604.00000000001
159 ; 14609.874827449525 ; 3192.717002124773 ; 3534696.7263589194 ; 507642.00333783723 ; 37842.00000000001
160 ; 14399.062072405837 ; 3192.717002124773 ; 3549306.601186369 ; 510834.720339962 ; 38080.00000000001
161 ; 14223.582219353593 ; 3192.717002124773 ; 3563705.663258775 ; 514027.43734208675 ; 38318.00000000001
162 ; 14200.60092022627 ; 3192.717002124773 ; 3577929.2454781285 ; 517220.1543442115 ; 38556.00000000001
163 ; 14010.07037615316 ; 3192.717002124773 ; 3592129.846398355 ; 520412.87134633627 ; 38794.00000000001
164 ; 13853.74001947504 ; 3192.717002124773 ; 3606139.916774508 ; 523605.588348461 ; 39032.00000000001
165 ; 13812.224466162117 ; 3192.717002124773 ; 3619993.656793983 ; 526798.3053505858 ; 39270.00000000001
166 ; 13321.724515020209 ; 3192.717002124773 ; 3633805.8812601455 ; 529991.0223527106 ; 39508.00000000001
167 ; 13468.975119698589 ; 3192.717002124773 ; 3647127.605775166 ; 533183.7393548354 ; 39746.00000000001
168 ; 13145.02935041515 ; 3192.717002124773 ; 3660596.5808948646 ; 536376.4563569601 ; 39984.00000000001
169 ; 13124.203333931062 ; 3192.717002124773 ; 3673741.61024528 ; 539569.1733590849 ; 40222.00000000001
170 ; 12859.708088019446 ; 3192.717002124773 ; 3686865.813579211 ; 542761.8903612096 ; 40460.00000000001
171 ; 12866.191290422632 ; 3192.717002124773 ; 3699725.5216672304 ; 545954.6073633344 ; 40698.00000000001
172 ; 12503.904055995214 ; 3192.717002124773 ; 3712591.712957653 ; 549147.3243654591 ; 40936.00000000001
173 ; 12169.168698598962 ; 3192.717002124773 ; 3725095.6170136486 ; 552340.0413675839 ; 41174.00000000001
174 ; 12416.823719360633 ; 3192.717002124773 ; 3737264.7857122477 ; 555532.7583697087 ; 41412.00000000001
175 ; 12382.91482928261 ; 3192.717002124773 ; 3749681.6094316086 ; 558725.4753718334 ; 41650.00000000001
176 ; 12424.051852585319 ; 3192.717002124773 ; 3762064.524260891 ; 561918.1923739582 ; 41888.00000000001
177 ; 12386.591143850137 ; 3192.717002124773 ; 3774488.5761134764 ; 565110.909376083 ; 42126.00000000001
178 ; 12374.741131005776 ; 3192.717002124773 ; 3786875.1672573267 ; 568303.6263782077 ; 42364.00000000001
179 ; 12457.61955483763 ; 3192.717002124773 ; 3799249.9083883325 ; 571496.3433803325 ; 42602.00000000001
180 ; 12666.748252457572 ; 3192.717002124773 ; 3811707.52794317 ; 574689.0603824572 ; 42840.00000000001
181 ; 12610.023225446183 ; 3192.717002124773 ; 3824374.2761956276 ; 577881.777384582 ; 43078.00000000001
182 ; 12643.911924864593 ; 3192.717002124773 ; 3836984.299421074 ; 581074.4943867067 ; 43316.00000000001
183 ; 12582.756462793257 ; 3192.717002124773 ; 3849628.2113459385 ; 584267.2113888315 ; 43554.00000000001
184 ; 12601.37887919108 ; 3192.717002124773 ; 3862210.967808732 ; 587459.9283909563 ; 43792.00000000001
185 ; 12636.76866831217 ; 3192.717002124773 ; 3874812.3466879227 ; 590652.645393081 ; 44030.00000000001
186 ; 12669.620043989707 ; 3192.717002124773 ; 3887449.115356235 ; 593845.3623952058 ; 44268.00000000001
