CSV File for the City 1 on Day 278
1 - Minute m 
2 - Power Consumed at minute m 
3 - Power Produced at minute m 
4 - Energy Consumed since the beginning of the day 
5 - Energy Produced since the beginning of the day 
6 - Energy Lost since the beginning of the day on lines starting from the city
 
0 ; 8692.174956737776 ; 2574.8165004984185 ; 0.0 ; 0.0 ; 0.0
1 ; 9046.665495802123 ; 2574.8165004984185 ; 8692.174956737776 ; 2574.8165004984185 ; 238.00000000000003
2 ; 9526.079623499161 ; 2574.8165004984185 ; 17738.8404525399 ; 5149.633000996837 ; 476.00000000000006
3 ; 10041.136410364774 ; 2574.8165004984185 ; 27264.92007603906 ; 7724.449501495255 ; 714.0000000000001
4 ; 10508.17581210806 ; 2574.8165004984185 ; 37306.05648640383 ; 10299.266001993674 ; 952.0000000000001
5 ; 10800.139927599696 ; 2574.8165004984185 ; 47814.232298511895 ; 12874.082502492092 ; 1190.0000000000002
6 ; 11293.486178970626 ; 2574.8165004984185 ; 58614.37222611159 ; 15448.89900299051 ; 1428.0000000000002
7 ; 11723.091888478546 ; 2574.8165004984185 ; 69907.85840508222 ; 18023.71550348893 ; 1666.0000000000002
8 ; 12214.513348857294 ; 2574.8165004984185 ; 81630.95029356077 ; 20598.532003987348 ; 1904.0000000000002
9 ; 12610.348486590781 ; 2574.8165004984185 ; 93845.46364241806 ; 23173.348504485766 ; 2142.0000000000005
10 ; 13076.20537160959 ; 2574.8165004984185 ; 106455.81212900885 ; 25748.165004984185 ; 2380.0000000000005
11 ; 13575.24762212795 ; 2574.8165004984185 ; 119532.01750061844 ; 28322.981505482603 ; 2618.0000000000005
12 ; 13992.033176178587 ; 2574.8165004984185 ; 133107.2651227464 ; 30897.79800598102 ; 2856.0000000000005
13 ; 14335.95039564431 ; 2574.8165004984185 ; 147099.298298925 ; 33472.61450647944 ; 3094.0000000000005
14 ; 14869.111012050827 ; 2574.8165004984185 ; 161435.2486945693 ; 36047.43100697786 ; 3332.0000000000005
15 ; 15083.217323477475 ; 2574.8165004984185 ; 176304.35970662013 ; 38622.24750747628 ; 3570.0000000000005
16 ; 15572.835919642415 ; 2574.8165004984185 ; 191387.5770300976 ; 41197.064007974695 ; 3808.0000000000005
17 ; 15772.564922699477 ; 2574.8165004984185 ; 206960.41294974 ; 43771.880508473114 ; 4046.0000000000005
18 ; 16343.59160963118 ; 2574.8165004984185 ; 222732.9778724395 ; 46346.69700897153 ; 4284.000000000001
19 ; 16608.736820319922 ; 2574.8165004984185 ; 239076.56948207066 ; 48921.51350946995 ; 4522.000000000001
20 ; 16935.577127105687 ; 2574.8165004984185 ; 255685.30630239059 ; 51496.33000996837 ; 4760.000000000001
21 ; 17343.01722860425 ; 2574.8165004984185 ; 272620.88342949626 ; 54071.14651046679 ; 4998.000000000001
22 ; 17691.338421623394 ; 2574.8165004984185 ; 289963.9006581005 ; 56645.963010965206 ; 5236.000000000001
23 ; 18011.99571785164 ; 2574.8165004984185 ; 307655.2390797239 ; 59220.779511463625 ; 5474.000000000001
24 ; 18332.888612491388 ; 2574.8165004984185 ; 325667.2347975755 ; 61795.59601196204 ; 5712.000000000001
25 ; 18546.11551346547 ; 2574.8165004984185 ; 344000.1234100669 ; 64370.41251246046 ; 5950.000000000001
26 ; 19119.425784918254 ; 2574.8165004984185 ; 362546.23892353236 ; 66945.22901295888 ; 6188.000000000001
27 ; 19533.6356960537 ; 2574.8165004984185 ; 381665.6647084506 ; 69520.0455134573 ; 6426.000000000001
28 ; 19710.850579891056 ; 2574.8165004984185 ; 401199.3004045043 ; 72094.86201395572 ; 6664.000000000001
29 ; 20091.894350225903 ; 2574.8165004984185 ; 420910.15098439535 ; 74669.67851445414 ; 6902.000000000001
30 ; 20378.441471924732 ; 2574.8165004984185 ; 441002.0453346213 ; 77244.49501495255 ; 7140.000000000001
31 ; 20795.316908067947 ; 2574.8165004984185 ; 461380.486806546 ; 79819.31151545097 ; 7378.000000000001
32 ; 20978.619229430864 ; 2574.8165004984185 ; 482175.80371461395 ; 82394.12801594939 ; 7616.000000000001
33 ; 21049.430932785603 ; 2574.8165004984185 ; 503154.4229440448 ; 84968.94451644781 ; 7854.000000000001
34 ; 21358.581537763897 ; 2574.8165004984185 ; 524203.8538768304 ; 87543.76101694623 ; 8092.000000000001
35 ; 21909.911250153895 ; 2574.8165004984185 ; 545562.4354145944 ; 90118.57751744465 ; 8330.000000000002
36 ; 22077.737727153075 ; 2574.8165004984185 ; 567472.3466647483 ; 92693.39401794306 ; 8568.000000000002
37 ; 22407.01359640246 ; 2574.8165004984185 ; 589550.0843919014 ; 95268.21051844148 ; 8806.000000000002
38 ; 22738.017498583285 ; 2574.8165004984185 ; 611957.0979883039 ; 97843.0270189399 ; 9044.000000000002
39 ; 22832.72597695708 ; 2574.8165004984185 ; 634695.1154868872 ; 100417.84351943832 ; 9282.000000000002
40 ; 23098.835465780063 ; 2574.8165004984185 ; 657527.8414638443 ; 102992.66001993674 ; 9520.000000000002
41 ; 23272.221930515392 ; 2574.8165004984185 ; 680626.6769296244 ; 105567.47652043516 ; 9758.000000000002
42 ; 23652.50678073259 ; 2574.8165004984185 ; 703898.8988601398 ; 108142.29302093358 ; 9996.000000000002
43 ; 23748.323091513073 ; 2574.8165004984185 ; 727551.4056408723 ; 110717.109521432 ; 10234.000000000002
44 ; 23983.13377005455 ; 2574.8165004984185 ; 751299.7287323854 ; 113291.92602193041 ; 10472.000000000002
45 ; 24269.398065081732 ; 2574.8165004984185 ; 775282.86250244 ; 115866.74252242883 ; 10710.000000000002
46 ; 24387.99148387004 ; 2574.8165004984185 ; 799552.2605675217 ; 118441.55902292725 ; 10948.000000000002
47 ; 24643.106043601292 ; 2574.8165004984185 ; 823940.2520513918 ; 121016.37552342567 ; 11186.000000000002
48 ; 24814.225811860204 ; 2574.8165004984185 ; 848583.358094993 ; 123591.19202392409 ; 11424.000000000002
49 ; 25114.1440677967 ; 2574.8165004984185 ; 873397.5839068532 ; 126166.0085244225 ; 11662.000000000002
50 ; 25107.83732018079 ; 2574.8165004984185 ; 898511.7279746499 ; 128740.82502492092 ; 11900.000000000002
51 ; 25546.262878173133 ; 2574.8165004984185 ; 923619.5652948307 ; 131315.64152541934 ; 12138.000000000002
52 ; 25607.595984367308 ; 2574.8165004984185 ; 949165.8281730039 ; 133890.45802591776 ; 12376.000000000002
53 ; 25743.105913474265 ; 2574.8165004984185 ; 974773.4241573712 ; 136465.27452641618 ; 12614.000000000002
54 ; 26122.15360762176 ; 2574.8165004984185 ; 1000516.5300708454 ; 139040.0910269146 ; 12852.000000000002
55 ; 26030.975412428932 ; 2574.8165004984185 ; 1026638.6836784672 ; 141614.90752741302 ; 13090.000000000002
56 ; 26159.562931799373 ; 2574.8165004984185 ; 1052669.6590908961 ; 144189.72402791143 ; 13328.000000000002
57 ; 26387.45194993308 ; 2574.8165004984185 ; 1078829.2220226955 ; 146764.54052840985 ; 13566.000000000002
58 ; 26490.550083867645 ; 2574.8165004984185 ; 1105216.6739726285 ; 149339.35702890827 ; 13804.000000000002
59 ; 26683.27419606305 ; 2574.8165004984185 ; 1131707.2240564963 ; 151914.1735294067 ; 14042.000000000002
60 ; 26769.003757632858 ; 2574.8165004984185 ; 1158390.4982525592 ; 154488.9900299051 ; 14280.000000000002
61 ; 26912.548812723777 ; 2574.8165004984185 ; 1185159.502010192 ; 157063.80653040353 ; 14518.000000000002
62 ; 27156.54279157034 ; 2574.8165004984185 ; 1212072.0508229157 ; 159638.62303090194 ; 14756.000000000002
63 ; 27334.365882255104 ; 2574.8165004984185 ; 1239228.593614486 ; 162213.43953140036 ; 14994.000000000002
64 ; 27337.661967310767 ; 2574.8165004984185 ; 1266562.9594967412 ; 164788.25603189878 ; 15232.000000000002
65 ; 27247.1686227859 ; 2574.8165004984185 ; 1293900.621464052 ; 167363.0725323972 ; 15470.000000000002
66 ; 27355.38338892578 ; 2574.8165004984185 ; 1321147.790086838 ; 169937.88903289562 ; 15708.000000000002
67 ; 27487.235425230858 ; 2574.8165004984185 ; 1348503.1734757638 ; 172512.70553339404 ; 15946.000000000002
68 ; 27757.121742605974 ; 2574.8165004984185 ; 1375990.4089009946 ; 175087.52203389246 ; 16184.000000000002
69 ; 27822.153744332314 ; 2574.8165004984185 ; 1403747.5306436005 ; 177662.33853439087 ; 16422.000000000004
70 ; 27778.23932701938 ; 2574.8165004984185 ; 1431569.6843879328 ; 180237.1550348893 ; 16660.000000000004
71 ; 27924.891662837872 ; 2574.8165004984185 ; 1459347.923714952 ; 182811.9715353877 ; 16898.000000000004
72 ; 27990.258735264946 ; 2574.8165004984185 ; 1487272.81537779 ; 185386.78803588613 ; 17136.000000000004
73 ; 27970.90328571639 ; 2574.8165004984185 ; 1515263.074113055 ; 187961.60453638455 ; 17374.000000000004
74 ; 28126.33584615472 ; 2574.8165004984185 ; 1543233.9773987713 ; 190536.42103688297 ; 17612.000000000004
75 ; 28116.169572872557 ; 2574.8165004984185 ; 1571360.313244926 ; 193111.23753738138 ; 17850.000000000004
76 ; 28305.963961967496 ; 2574.8165004984185 ; 1599476.4828177986 ; 195686.0540378798 ; 18088.000000000004
77 ; 28207.07451663498 ; 2574.8165004984185 ; 1627782.4467797661 ; 198260.87053837822 ; 18326.000000000004
78 ; 28159.07650940903 ; 2574.8165004984185 ; 1655989.521296401 ; 200835.68703887664 ; 18564.000000000004
79 ; 28105.67688014945 ; 2574.8165004984185 ; 1684148.5978058102 ; 203410.50353937506 ; 18802.000000000004
80 ; 28061.08284844467 ; 2574.8165004984185 ; 1712254.2746859596 ; 205985.32003987348 ; 19040.000000000004
81 ; 28195.6914642859 ; 2574.8165004984185 ; 1740315.3575344041 ; 208560.1365403719 ; 19278.000000000004
82 ; 28180.937148835605 ; 2574.8165004984185 ; 1768511.04899869 ; 211134.9530408703 ; 19516.000000000004
83 ; 28140.519473790275 ; 2574.8165004984185 ; 1796691.9861475255 ; 213709.76954136873 ; 19754.000000000004
84 ; 28111.988846164124 ; 2574.8165004984185 ; 1824832.5056213157 ; 216284.58604186715 ; 19992.000000000004
85 ; 28161.64084731672 ; 2574.8165004984185 ; 1852944.4944674799 ; 218859.40254236557 ; 20230.000000000004
86 ; 28274.18454612718 ; 2574.8165004984185 ; 1881106.1353147966 ; 221434.219042864 ; 20468.000000000004
87 ; 28144.024813415028 ; 2574.8165004984185 ; 1909380.3198609238 ; 224009.0355433624 ; 20706.000000000004
88 ; 28099.380598924574 ; 2574.8165004984185 ; 1937524.3446743388 ; 226583.85204386082 ; 20944.000000000004
89 ; 28004.580286801116 ; 2574.8165004984185 ; 1965623.7252732634 ; 229158.66854435924 ; 21182.000000000004
90 ; 27920.29688351792 ; 2574.8165004984185 ; 1993628.3055600645 ; 231733.48504485766 ; 21420.000000000004
91 ; 28007.147137793847 ; 2574.8165004984185 ; 2021548.6024435824 ; 234308.30154535608 ; 21658.000000000004
92 ; 27946.568617092566 ; 2574.8165004984185 ; 2049555.7495813763 ; 236883.1180458545 ; 21896.000000000004
93 ; 27851.540907688825 ; 2574.8165004984185 ; 2077502.318198469 ; 239457.93454635292 ; 22134.000000000004
94 ; 27711.862380786253 ; 2574.8165004984185 ; 2105353.859106158 ; 242032.75104685134 ; 22372.000000000004
95 ; 27764.95874540668 ; 2574.8165004984185 ; 2133065.7214869442 ; 244607.56754734975 ; 22610.000000000004
96 ; 27537.05920424814 ; 2574.8165004984185 ; 2160830.6802323507 ; 247182.38404784817 ; 22848.000000000004
97 ; 27566.35659902208 ; 2574.8165004984185 ; 2188367.739436599 ; 249757.2005483466 ; 23086.000000000004
98 ; 27300.81155720757 ; 2574.8165004984185 ; 2215934.096035621 ; 252332.017048845 ; 23324.000000000004
99 ; 27396.755668399397 ; 2574.8165004984185 ; 2243234.907592829 ; 254906.83354934343 ; 23562.000000000004
100 ; 27139.717261723577 ; 2574.8165004984185 ; 2270631.6632612282 ; 257481.65004984185 ; 23800.000000000004
101 ; 27031.09141521974 ; 2574.8165004984185 ; 2297771.380522952 ; 260056.46655034026 ; 24038.000000000004
102 ; 27016.421256016292 ; 2574.8165004984185 ; 2324802.471938172 ; 262631.2830508387 ; 24276.000000000004
103 ; 27025.22333505308 ; 2574.8165004984185 ; 2351818.8931941884 ; 265206.0995513371 ; 24514.000000000004
104 ; 26786.723055866267 ; 2574.8165004984185 ; 2378844.1165292417 ; 267780.9160518355 ; 24752.000000000004
105 ; 26441.381401056577 ; 2574.8165004984185 ; 2405630.8395851078 ; 270355.73255233397 ; 24990.000000000004
106 ; 26388.6636327869 ; 2574.8165004984185 ; 2432072.220986164 ; 272930.5490528324 ; 25228.000000000004
107 ; 26395.85837647396 ; 2574.8165004984185 ; 2458460.884618951 ; 275505.36555333086 ; 25466.000000000004
108 ; 26093.267098309596 ; 2574.8165004984185 ; 2484856.742995425 ; 278080.1820538293 ; 25704.000000000004
109 ; 26076.50569692573 ; 2574.8165004984185 ; 2510950.0100937346 ; 280654.99855432776 ; 25942.000000000004
110 ; 25785.914123603285 ; 2574.8165004984185 ; 2537026.5157906604 ; 283229.8150548262 ; 26180.000000000004
111 ; 25622.161655812117 ; 2574.8165004984185 ; 2562812.4299142635 ; 285804.63155532465 ; 26418.000000000004
112 ; 25490.833107900333 ; 2574.8165004984185 ; 2588434.5915700756 ; 288379.4480558231 ; 26656.000000000004
113 ; 25468.689947730472 ; 2574.8165004984185 ; 2613925.424677976 ; 290954.26455632155 ; 26894.000000000004
114 ; 25085.448928119986 ; 2574.8165004984185 ; 2639394.1146257063 ; 293529.08105682 ; 27132.000000000004
115 ; 24908.490980858234 ; 2574.8165004984185 ; 2664479.5635538264 ; 296103.89755731844 ; 27370.000000000004
116 ; 24695.23282586607 ; 2574.8165004984185 ; 2689388.054534685 ; 298678.7140578169 ; 27608.000000000004
117 ; 24528.823425113664 ; 2574.8165004984185 ; 2714083.287360551 ; 301253.53055831534 ; 27846.000000000004
118 ; 24337.657650153935 ; 2574.8165004984185 ; 2738612.1107856645 ; 303828.3470588138 ; 28084.000000000004
119 ; 24119.69613187801 ; 2574.8165004984185 ; 2762949.7684358186 ; 306403.16355931223 ; 28322.000000000004
120 ; 23847.81586354003 ; 2574.8165004984185 ; 2787069.4645676967 ; 308977.9800598107 ; 28560.000000000004
121 ; 23662.734633973138 ; 2574.8165004984185 ; 2810917.2804312366 ; 311552.7965603091 ; 28798.000000000004
122 ; 23443.57881497232 ; 2574.8165004984185 ; 2834580.01506521 ; 314127.6130608076 ; 29036.000000000004
123 ; 23229.237397741108 ; 2574.8165004984185 ; 2858023.593880182 ; 316702.429561306 ; 29274.000000000004
124 ; 23012.681796947316 ; 2574.8165004984185 ; 2881252.831277923 ; 319277.2460618045 ; 29512.000000000004
125 ; 22867.933872808873 ; 2574.8165004984185 ; 2904265.5130748707 ; 321852.0625623029 ; 29750.000000000004
126 ; 22585.70454403349 ; 2574.8165004984185 ; 2927133.4469476794 ; 324426.87906280137 ; 29988.000000000004
127 ; 22135.73037299398 ; 2574.8165004984185 ; 2949719.151491713 ; 327001.6955632998 ; 30226.000000000004
128 ; 21824.91872544521 ; 2574.8165004984185 ; 2971854.881864707 ; 329576.51206379826 ; 30464.000000000004
129 ; 21326.13742416944 ; 2574.8165004984185 ; 2993679.8005901524 ; 332151.3285642967 ; 30702.000000000004
130 ; 21336.367968007333 ; 2574.8165004984185 ; 3015005.938014322 ; 334726.14506479516 ; 30940.000000000004
131 ; 21024.43413865305 ; 2574.8165004984185 ; 3036342.3059823294 ; 337300.9615652936 ; 31178.000000000004
132 ; 20806.24910702255 ; 2574.8165004984185 ; 3057366.7401209823 ; 339875.77806579205 ; 31416.000000000004
133 ; 20310.435857954257 ; 2574.8165004984185 ; 3078172.989228005 ; 342450.5945662905 ; 31654.000000000004
134 ; 20129.672619151686 ; 2574.8165004984185 ; 3098483.4250859595 ; 345025.41106678895 ; 31892.000000000004
135 ; 19831.356185317803 ; 2574.8165004984185 ; 3118613.0977051114 ; 347600.2275672874 ; 32130.000000000004
136 ; 19465.63160514868 ; 2574.8165004984185 ; 3138444.4538904293 ; 350175.04406778584 ; 32368.000000000004
137 ; 19066.234310818967 ; 2574.8165004984185 ; 3157910.085495578 ; 352749.8605682843 ; 32606.000000000004
138 ; 18835.37953943025 ; 2574.8165004984185 ; 3176976.319806397 ; 355324.67706878274 ; 32844.00000000001
139 ; 18668.886972802153 ; 2574.8165004984185 ; 3195811.699345827 ; 357899.4935692812 ; 33082.00000000001
140 ; 18244.313056043335 ; 2574.8165004984185 ; 3214480.5863186293 ; 360474.31006977963 ; 33320.00000000001
141 ; 17632.048888484995 ; 2574.8165004984185 ; 3232724.8993746727 ; 363049.1265702781 ; 33558.00000000001
142 ; 17606.480980409982 ; 2574.8165004984185 ; 3250356.9482631576 ; 365623.9430707765 ; 33796.00000000001
143 ; 17154.538094329222 ; 2574.8165004984185 ; 3267963.4292435674 ; 368198.759571275 ; 34034.00000000001
144 ; 16673.20446878985 ; 2574.8165004984185 ; 3285117.9673378966 ; 370773.5760717734 ; 34272.00000000001
145 ; 16668.10026991506 ; 2574.8165004984185 ; 3301791.1718066866 ; 373348.39257227187 ; 34510.00000000001
146 ; 16491.74122171924 ; 2574.8165004984185 ; 3318459.2720766016 ; 375923.2090727703 ; 34748.00000000001
147 ; 16428.256496531216 ; 2574.8165004984185 ; 3334951.013298321 ; 378498.02557326877 ; 34986.00000000001
148 ; 16489.89685629626 ; 2574.8165004984185 ; 3351379.2697948525 ; 381072.8420737672 ; 35224.00000000001
149 ; 16119.47586797756 ; 2574.8165004984185 ; 3367869.166651149 ; 383647.65857426566 ; 35462.00000000001
150 ; 16088.261908516395 ; 2574.8165004984185 ; 3383988.642519126 ; 386222.4750747641 ; 35700.00000000001
151 ; 16073.32536687231 ; 2574.8165004984185 ; 3400076.9044276425 ; 388797.29157526256 ; 35938.00000000001
152 ; 15701.705160035177 ; 2574.8165004984185 ; 3416150.229794515 ; 391372.108075761 ; 36176.00000000001
153 ; 15641.339410043884 ; 2574.8165004984185 ; 3431851.93495455 ; 393946.92457625945 ; 36414.00000000001
154 ; 15664.731989623442 ; 2574.8165004984185 ; 3447493.274364594 ; 396521.7410767579 ; 36652.00000000001
155 ; 15406.781730398337 ; 2574.8165004984185 ; 3463158.0063542174 ; 399096.55757725635 ; 36890.00000000001
156 ; 15453.298165866297 ; 2574.8165004984185 ; 3478564.788084616 ; 401671.3740777548 ; 37128.00000000001
157 ; 15169.143651341185 ; 2574.8165004984185 ; 3494018.086250482 ; 404246.19057825324 ; 37366.00000000001
158 ; 15154.252024314153 ; 2574.8165004984185 ; 3509187.229901823 ; 406821.0070787517 ; 37604.00000000001
159 ; 15143.275319992306 ; 2574.8165004984185 ; 3524341.4819261376 ; 409395.82357925014 ; 37842.00000000001
160 ; 14738.788150033291 ; 2574.8165004984185 ; 3539484.7572461297 ; 411970.6400797486 ; 38080.00000000001
161 ; 14650.13114615523 ; 2574.8165004984185 ; 3554223.545396163 ; 414545.45658024703 ; 38318.00000000001
162 ; 14554.535416884077 ; 2574.8165004984185 ; 3568873.6765423184 ; 417120.2730807455 ; 38556.00000000001
163 ; 14220.584903436351 ; 2574.8165004984185 ; 3583428.2119592023 ; 419695.0895812439 ; 38794.00000000001
164 ; 14214.06720438579 ; 2574.8165004984185 ; 3597648.7968626386 ; 422269.9060817424 ; 39032.00000000001
165 ; 13951.661993358053 ; 2574.8165004984185 ; 3611862.8640670246 ; 424844.7225822408 ; 39270.00000000001
166 ; 14012.684979108511 ; 2574.8165004984185 ; 3625814.526060383 ; 427419.53908273927 ; 39508.00000000001
167 ; 13712.077297487878 ; 2574.8165004984185 ; 3639827.2110394915 ; 429994.3555832377 ; 39746.00000000001
168 ; 13604.590995899778 ; 2574.8165004984185 ; 3653539.288336979 ; 432569.17208373616 ; 39984.00000000001
169 ; 13415.34243455408 ; 2574.8165004984185 ; 3667143.879332879 ; 435143.9885842346 ; 40222.00000000001
170 ; 13455.909834289747 ; 2574.8165004984185 ; 3680559.221767433 ; 437718.80508473306 ; 40460.00000000001
171 ; 13091.802250166671 ; 2574.8165004984185 ; 3694015.131601723 ; 440293.6215852315 ; 40698.00000000001
172 ; 13015.651818762331 ; 2574.8165004984185 ; 3707106.93385189 ; 442868.43808572995 ; 40936.00000000001
173 ; 12905.92283299651 ; 2574.8165004984185 ; 3720122.5856706523 ; 445443.2545862284 ; 41174.00000000001
174 ; 12923.048956412627 ; 2574.8165004984185 ; 3733028.508503649 ; 448018.07108672685 ; 41412.00000000001
175 ; 12780.135061444165 ; 2574.8165004984185 ; 3745951.5574600617 ; 450592.8875872253 ; 41650.00000000001
176 ; 12993.887303838377 ; 2574.8165004984185 ; 3758731.692521506 ; 453167.70408772375 ; 41888.00000000001
177 ; 13149.977500879997 ; 2574.8165004984185 ; 3771725.5798253445 ; 455742.5205882222 ; 42126.00000000001
178 ; 13047.45716522222 ; 2574.8165004984185 ; 3784875.5573262246 ; 458317.33708872064 ; 42364.00000000001
179 ; 13122.730914176249 ; 2574.8165004984185 ; 3797923.014491447 ; 460892.1535892191 ; 42602.00000000001
180 ; 13107.301670151608 ; 2574.8165004984185 ; 3811045.745405623 ; 463466.97008971754 ; 42840.00000000001
181 ; 13041.594675028096 ; 2574.8165004984185 ; 3824153.047075775 ; 466041.786590216 ; 43078.00000000001
182 ; 13262.897595782888 ; 2574.8165004984185 ; 3837194.641750803 ; 468616.60309071443 ; 43316.00000000001
183 ; 13158.715584436044 ; 2574.8165004984185 ; 3850457.539346586 ; 471191.4195912129 ; 43554.00000000001
184 ; 13363.011140335151 ; 2574.8165004984185 ; 3863616.254931022 ; 473766.2360917113 ; 43792.00000000001
