CSV File for the City 2 on Day 205
1 - Minute m 
2 - Power Consumed at minute m 
3 - Power Produced at minute m 
4 - Energy Consumed since the beginning of the day 
5 - Energy Produced since the beginning of the day 
6 - Energy Lost since the beginning of the day on lines starting from the city
 
0 ; 4554.5827240493045 ; 33808.45537537861 ; 0.0 ; 0.0 ; 0.0
1 ; 5211.4999470348575 ; 33808.45537537861 ; 4554.5827240493045 ; 33808.45537537861 ; 0.0
2 ; 5737.7896115480235 ; 33808.45537537861 ; 9766.082671084161 ; 67616.91075075722 ; 0.0
3 ; 6268.5158310114 ; 33808.45537537861 ; 15503.872282632185 ; 101425.36612613584 ; 0.0
4 ; 6781.8782499690415 ; 33808.45537537861 ; 21772.388113643585 ; 135233.82150151444 ; 0.0
5 ; 7424.017142892173 ; 33808.45537537861 ; 28554.266363612627 ; 169042.27687689304 ; 0.0
6 ; 7920.857720943452 ; 33808.45537537861 ; 35978.2835065048 ; 202850.73225227164 ; 0.0
7 ; 8362.654384825526 ; 33808.45537537861 ; 43899.14122744825 ; 236659.18762765024 ; 0.0
8 ; 8774.10226539206 ; 33808.45537537861 ; 52261.795612273774 ; 270467.6430030289 ; 0.0
9 ; 9589.537327411315 ; 33808.45537537861 ; 61035.89787766583 ; 304276.0983784075 ; 0.0
10 ; 9909.596783602685 ; 33808.45537537861 ; 70625.43520507714 ; 338084.5537537861 ; 0.0
11 ; 10498.426382214362 ; 33808.45537537861 ; 80535.03198867982 ; 371893.0091291647 ; 0.0
12 ; 11002.187069286832 ; 33808.45537537861 ; 91033.4583708942 ; 405701.4645045433 ; 0.0
13 ; 11423.093195707203 ; 33808.45537537861 ; 102035.64544018102 ; 439509.9198799219 ; 0.0
14 ; 11719.145435404767 ; 33808.45537537861 ; 113458.73863588822 ; 473318.3752553005 ; 0.0
15 ; 12308.171692975002 ; 33808.45537537861 ; 125177.884071293 ; 507126.8306306791 ; 0.0
16 ; 12846.621642018581 ; 33808.45537537861 ; 137486.055764268 ; 540935.2860060578 ; 0.0
17 ; 13100.955504717234 ; 33808.45537537861 ; 150332.6774062866 ; 574743.7413814364 ; 0.0
18 ; 13570.913835090203 ; 33808.45537537861 ; 163433.63291100384 ; 608552.196756815 ; 0.0
19 ; 13989.912573428614 ; 33808.45537537861 ; 177004.54674609404 ; 642360.6521321936 ; 0.0
20 ; 14567.593199588324 ; 33808.45537537861 ; 190994.45931952266 ; 676169.1075075722 ; 0.0
21 ; 15009.175493318506 ; 33808.45537537861 ; 205562.052519111 ; 709977.5628829508 ; 0.0
22 ; 15309.72335535284 ; 33808.45537537861 ; 220571.2280124295 ; 743786.0182583294 ; 0.0
23 ; 15683.160390127876 ; 33808.45537537861 ; 235880.95136778234 ; 777594.473633708 ; 0.0
24 ; 16173.220495200372 ; 33808.45537537861 ; 251564.11175791023 ; 811402.9290090866 ; 0.0
25 ; 16555.909869031304 ; 33808.45537537861 ; 267737.3322531106 ; 845211.3843844652 ; 0.0
26 ; 16996.441469875055 ; 33808.45537537861 ; 284293.2421221419 ; 879019.8397598438 ; 0.0
27 ; 17498.011711808653 ; 33808.45537537861 ; 301289.6835920169 ; 912828.2951352224 ; 0.0
28 ; 17770.30260672198 ; 33808.45537537861 ; 318787.6953038256 ; 946636.750510601 ; 0.0
29 ; 18068.056307276634 ; 33808.45537537861 ; 336557.9979105476 ; 980445.2058859796 ; 0.0
30 ; 18498.599339395554 ; 33808.45537537861 ; 354626.05421782425 ; 1014253.6612613582 ; 0.0
31 ; 18888.407514206447 ; 33808.45537537861 ; 373124.6535572198 ; 1048062.1166367368 ; 0.0
32 ; 19103.60629280983 ; 33808.45537537861 ; 392013.0610714262 ; 1081870.5720121155 ; 0.0
33 ; 19485.341600873904 ; 33808.45537537861 ; 411116.667364236 ; 1115679.0273874942 ; 0.0
34 ; 19930.838159399198 ; 33808.45537537861 ; 430602.00896510994 ; 1149487.482762873 ; 0.0
35 ; 20142.1682573962 ; 33808.45537537861 ; 450532.84712450916 ; 1183295.9381382517 ; 0.0
36 ; 20373.705466124735 ; 33808.45537537861 ; 470675.01538190537 ; 1217104.3935136304 ; 0.0
37 ; 20670.469665963905 ; 33808.45537537861 ; 491048.7208480301 ; 1250912.848889009 ; 0.0
38 ; 21039.76238050477 ; 33808.45537537861 ; 511719.190513994 ; 1284721.3042643878 ; 0.0
39 ; 21231.835799343982 ; 33808.45537537861 ; 532758.9528944988 ; 1318529.7596397665 ; 0.0
40 ; 21747.955331564863 ; 33808.45537537861 ; 553990.7886938428 ; 1352338.2150151453 ; 0.0
41 ; 21921.054750084688 ; 33808.45537537861 ; 575738.7440254077 ; 1386146.670390524 ; 0.0
42 ; 22193.479506933923 ; 33808.45537537861 ; 597659.7987754924 ; 1419955.1257659027 ; 0.0
43 ; 22383.103426476537 ; 33808.45537537861 ; 619853.2782824263 ; 1453763.5811412814 ; 0.0
44 ; 22818.894416210012 ; 33808.45537537861 ; 642236.3817089029 ; 1487572.0365166601 ; 0.0
45 ; 22825.15130004603 ; 33808.45537537861 ; 665055.2761251129 ; 1521380.4918920388 ; 0.0
46 ; 23129.882195689042 ; 33808.45537537861 ; 687880.4274251589 ; 1555188.9472674176 ; 0.0
47 ; 23498.489530157804 ; 33808.45537537861 ; 711010.3096208479 ; 1588997.4026427963 ; 0.0
48 ; 23605.53857325639 ; 33808.45537537861 ; 734508.7991510057 ; 1622805.858018175 ; 0.0
49 ; 24008.39633455478 ; 33808.45537537861 ; 758114.337724262 ; 1656614.3133935537 ; 0.0
50 ; 23980.977093526613 ; 33808.45537537861 ; 782122.7340588168 ; 1690422.7687689324 ; 0.0
51 ; 24441.881450858516 ; 33808.45537537861 ; 806103.7111523434 ; 1724231.2241443112 ; 0.0
52 ; 24387.068935669395 ; 33808.45537537861 ; 830545.592603202 ; 1758039.6795196899 ; 0.0
53 ; 24827.30996677104 ; 33808.45537537861 ; 854932.6615388714 ; 1791848.1348950686 ; 0.0
54 ; 25004.66177334692 ; 33808.45537537861 ; 879759.9715056424 ; 1825656.5902704473 ; 0.0
55 ; 25195.018246360672 ; 33808.45537537861 ; 904764.6332789893 ; 1859465.045645826 ; 0.0
56 ; 25182.045532368276 ; 33808.45537537861 ; 929959.65152535 ; 1893273.5010212047 ; 0.0
57 ; 25551.766888822287 ; 33808.45537537861 ; 955141.6970577183 ; 1927081.9563965835 ; 0.0
58 ; 25610.30098610832 ; 33808.45537537861 ; 980693.4639465406 ; 1960890.4117719622 ; 0.0
59 ; 25681.05541521158 ; 33808.45537537861 ; 1006303.764932649 ; 1994698.867147341 ; 0.0
60 ; 25937.735905574908 ; 33808.45537537861 ; 1031984.8203478606 ; 2028507.3225227196 ; 0.0
61 ; 26190.758322311038 ; 33808.45537537861 ; 1057922.5562534356 ; 2062315.7778980983 ; 0.0
62 ; 26057.371046440367 ; 33808.45537537861 ; 1084113.3145757467 ; 2096124.233273477 ; 0.0
63 ; 26378.92184159757 ; 33808.45537537861 ; 1110170.685622187 ; 2129932.688648856 ; 0.0
64 ; 26559.022611447665 ; 33808.45537537861 ; 1136549.6074637847 ; 2163741.1440242343 ; 0.0
65 ; 26592.626830810786 ; 33808.45537537861 ; 1163108.6300752324 ; 2197549.5993996128 ; 0.0
66 ; 26985.094341695964 ; 33808.45537537861 ; 1189701.256906043 ; 2231358.0547749912 ; 0.0
67 ; 26737.91429296633 ; 33808.45537537861 ; 1216686.351247739 ; 2265166.5101503697 ; 0.0
68 ; 27018.91536295346 ; 33808.45537537861 ; 1243424.2655407053 ; 2298974.965525748 ; 0.0
69 ; 27141.727947844793 ; 33808.45537537861 ; 1270443.1809036587 ; 2332783.4209011267 ; 0.0
70 ; 27343.192603658037 ; 33808.45537537861 ; 1297584.9088515036 ; 2366591.876276505 ; 0.0
71 ; 27168.821385380616 ; 33808.45537537861 ; 1324928.1014551616 ; 2400400.3316518837 ; 0.0
72 ; 27358.81788725771 ; 33808.45537537861 ; 1352096.9228405422 ; 2434208.787027262 ; 0.0
73 ; 27330.48726809472 ; 33808.45537537861 ; 1379455.7407278 ; 2468017.2424026406 ; 0.0
74 ; 27353.38749050055 ; 33808.45537537861 ; 1406786.2279958946 ; 2501825.697778019 ; 0.0
75 ; 27402.16691635857 ; 33808.45537537861 ; 1434139.615486395 ; 2535634.1531533976 ; 0.0
76 ; 27417.58692024991 ; 33808.45537537861 ; 1461541.7824027536 ; 2569442.608528776 ; 0.0
77 ; 27501.361833613733 ; 33808.45537537861 ; 1488959.3693230036 ; 2603251.0639041546 ; 0.0
78 ; 27506.514541327582 ; 33808.45537537861 ; 1516460.7311566174 ; 2637059.519279533 ; 0.0
79 ; 27619.64505223131 ; 33808.45537537861 ; 1543967.245697945 ; 2670867.9746549116 ; 0.0
80 ; 27600.871146391688 ; 33808.45537537861 ; 1571586.8907501763 ; 2704676.43003029 ; 0.0
81 ; 27615.087482370433 ; 33808.45537537861 ; 1599187.761896568 ; 2738484.8854056685 ; 0.0
82 ; 27462.32589613251 ; 33808.45537537861 ; 1626802.8493789383 ; 2772293.340781047 ; 0.0
83 ; 27685.21045442301 ; 33808.45537537861 ; 1654265.1752750708 ; 2806101.7961564255 ; 0.0
84 ; 27548.660603340017 ; 33808.45537537861 ; 1681950.3857294938 ; 2839910.251531804 ; 0.0
85 ; 27703.81382507323 ; 33808.45537537861 ; 1709499.0463328338 ; 2873718.7069071825 ; 0.0
86 ; 27537.738738555083 ; 33808.45537537861 ; 1737202.860157907 ; 2907527.162282561 ; 0.0
87 ; 27623.079958086524 ; 33808.45537537861 ; 1764740.598896462 ; 2941335.6176579394 ; 0.0
88 ; 27613.361008451335 ; 33808.45537537861 ; 1792363.6788545486 ; 2975144.073033318 ; 0.0
89 ; 27435.35684665061 ; 33808.45537537861 ; 1819977.039863 ; 3008952.5284086964 ; 0.0
90 ; 27439.532096278854 ; 33808.45537537861 ; 1847412.3967096505 ; 3042760.983784075 ; 0.0
91 ; 27512.20609714824 ; 33808.45537537861 ; 1874851.9288059294 ; 3076569.4391594534 ; 0.0
92 ; 27305.145408829663 ; 33808.45537537861 ; 1902364.1349030775 ; 3110377.894534832 ; 0.0
93 ; 27319.300004647066 ; 33808.45537537861 ; 1929669.2803119072 ; 3144186.3499102104 ; 0.0
94 ; 27090.203434476785 ; 33808.45537537861 ; 1956988.5803165543 ; 3177994.805285589 ; 0.0
95 ; 27052.741487420448 ; 33808.45537537861 ; 1984078.7837510312 ; 3211803.2606609673 ; 0.0
96 ; 26905.023889238564 ; 33808.45537537861 ; 2011131.5252384515 ; 3245611.716036346 ; 0.0
97 ; 26951.02137057487 ; 33808.45537537861 ; 2038036.54912769 ; 3279420.1714117243 ; 0.0
98 ; 26946.108173330562 ; 33808.45537537861 ; 2064987.5704982649 ; 3313228.626787103 ; 0.0
99 ; 26809.980794148705 ; 33808.45537537861 ; 2091933.6786715954 ; 3347037.0821624813 ; 0.0
100 ; 26605.984387924647 ; 33808.45537537861 ; 2118743.659465744 ; 3380845.5375378598 ; 0.0
101 ; 26383.24312811725 ; 33808.45537537861 ; 2145349.6438536686 ; 3414653.9929132382 ; 0.0
102 ; 26452.058083962496 ; 33808.45537537861 ; 2171732.8869817858 ; 3448462.4482886167 ; 0.0
103 ; 26241.300144018955 ; 33808.45537537861 ; 2198184.9450657484 ; 3482270.903663995 ; 0.0
104 ; 26136.275208618732 ; 33808.45537537861 ; 2224426.2452097675 ; 3516079.3590393737 ; 0.0
105 ; 25788.62392033141 ; 33808.45537537861 ; 2250562.5204183864 ; 3549887.814414752 ; 0.0
106 ; 25634.496214427705 ; 33808.45537537861 ; 2276351.1443387177 ; 3583696.2697901307 ; 0.0
107 ; 25490.891276554703 ; 33808.45537537861 ; 2301985.640553145 ; 3617504.725165509 ; 0.0
108 ; 25469.498393420527 ; 33808.45537537861 ; 2327476.5318297 ; 3651313.1805408876 ; 0.0
109 ; 25126.623676256444 ; 33808.45537537861 ; 2352946.0302231205 ; 3685121.635916266 ; 0.0
110 ; 25064.49240992583 ; 33808.45537537861 ; 2378072.6538993767 ; 3718930.0912916446 ; 0.0
111 ; 24952.85703303324 ; 33808.45537537861 ; 2403137.1463093027 ; 3752738.546667023 ; 0.0
112 ; 24611.2653671706 ; 33808.45537537861 ; 2428090.003342336 ; 3786547.0020424016 ; 0.0
113 ; 24465.76450301158 ; 33808.45537537861 ; 2452701.268709507 ; 3820355.45741778 ; 0.0
114 ; 24363.302453065393 ; 33808.45537537861 ; 2477167.0332125183 ; 3854163.9127931586 ; 0.0
115 ; 23917.860184732497 ; 33808.45537537861 ; 2501530.3356655836 ; 3887972.368168537 ; 0.0
116 ; 23726.776760856435 ; 33808.45537537861 ; 2525448.195850316 ; 3921780.8235439155 ; 0.0
117 ; 23488.269035506273 ; 33808.45537537861 ; 2549174.9726111726 ; 3955589.278919294 ; 0.0
118 ; 23303.141196781675 ; 33808.45537537861 ; 2572663.2416466787 ; 3989397.7342946725 ; 0.0
119 ; 23026.488080071813 ; 33808.45537537861 ; 2595966.3828434604 ; 4023206.189670051 ; 0.0
120 ; 22694.542636541817 ; 33808.45537537861 ; 2618992.870923532 ; 4057014.6450454295 ; 0.0
121 ; 22518.61036064245 ; 33808.45537537861 ; 2641687.413560074 ; 4090823.100420808 ; 0.0
122 ; 22427.162755874066 ; 33808.45537537861 ; 2664206.0239207163 ; 4124631.5557961864 ; 0.0
123 ; 22029.87458137232 ; 33808.45537537861 ; 2686633.1866765902 ; 4158440.011171565 ; 0.0
124 ; 21872.686008451106 ; 33808.45537537861 ; 2708663.0612579626 ; 4192248.4665469434 ; 0.0
125 ; 21579.2909886554 ; 33808.45537537861 ; 2730535.7472664136 ; 4226056.921922322 ; 0.0
126 ; 21148.48815566821 ; 33808.45537537861 ; 2752115.038255069 ; 4259865.377297701 ; 0.0
127 ; 20756.558690586182 ; 33808.45537537861 ; 2773263.526410737 ; 4293673.83267308 ; 0.0
128 ; 20390.705046213676 ; 33808.45537537861 ; 2794020.085101323 ; 4327482.288048459 ; 0.0
129 ; 20284.424344086423 ; 33808.45537537861 ; 2814410.790147537 ; 4361290.743423838 ; 0.0
130 ; 19881.846404236603 ; 33808.45537537861 ; 2834695.2144916235 ; 4395099.198799217 ; 0.0
131 ; 19591.389430542935 ; 33808.45537537861 ; 2854577.06089586 ; 4428907.654174596 ; 0.0
132 ; 19374.478104510657 ; 33808.45537537861 ; 2874168.450326403 ; 4462716.109549975 ; 0.0
133 ; 18845.241738483404 ; 33808.45537537861 ; 2893542.928430914 ; 4496524.564925354 ; 0.0
134 ; 18429.306762977765 ; 33808.45537537861 ; 2912388.1701693973 ; 4530333.020300733 ; 0.0
135 ; 18173.37589370797 ; 33808.45537537861 ; 2930817.476932375 ; 4564141.475676112 ; 0.0
136 ; 17836.08489516607 ; 33808.45537537861 ; 2948990.852826083 ; 4597949.931051491 ; 0.0
137 ; 17498.02581270004 ; 33808.45537537861 ; 2966826.937721249 ; 4631758.38642687 ; 0.0
138 ; 17095.900653042816 ; 33808.45537537861 ; 2984324.963533949 ; 4665566.841802249 ; 0.0
139 ; 16728.723681406667 ; 33808.45537537861 ; 3001420.864186992 ; 4699375.297177628 ; 0.0
140 ; 16428.538961037957 ; 33808.45537537861 ; 3018149.5878683985 ; 4733183.752553007 ; 0.0
141 ; 15871.970807893464 ; 33808.45537537861 ; 3034578.1268294365 ; 4766992.207928386 ; 0.0
142 ; 15505.910393629041 ; 33808.45537537861 ; 3050450.09763733 ; 4800800.663303765 ; 0.0
143 ; 15086.08682163207 ; 33808.45537537861 ; 3065956.0080309594 ; 4834609.1186791435 ; 0.0
144 ; 14733.04862812181 ; 33808.45537537861 ; 3081042.0948525914 ; 4868417.574054522 ; 0.0
145 ; 14461.436569688776 ; 33808.45537537861 ; 3095775.143480713 ; 4902226.029429901 ; 0.0
146 ; 14503.80400727408 ; 33808.45537537861 ; 3110236.580050402 ; 4936034.48480528 ; 0.0
147 ; 14311.137474604831 ; 33808.45537537861 ; 3124740.384057676 ; 4969842.940180659 ; 0.0
148 ; 14442.28080099027 ; 33808.45537537861 ; 3139051.521532281 ; 5003651.395556038 ; 0.0
149 ; 14058.711375473944 ; 33808.45537537861 ; 3153493.802333271 ; 5037459.850931417 ; 0.0
150 ; 13878.079060564429 ; 33808.45537537861 ; 3167552.513708745 ; 5071268.306306796 ; 0.0
151 ; 13715.63880068248 ; 33808.45537537861 ; 3181430.5927693094 ; 5105076.761682175 ; 0.0
152 ; 13836.880443359443 ; 33808.45537537861 ; 3195146.231569992 ; 5138885.217057554 ; 0.0
153 ; 13587.544833598562 ; 33808.45537537861 ; 3208983.112013351 ; 5172693.672432933 ; 0.0
154 ; 13530.015517049682 ; 33808.45537537861 ; 3222570.65684695 ; 5206502.127808312 ; 0.0
155 ; 13444.530247134893 ; 33808.45537537861 ; 3236100.6723639993 ; 5240310.583183691 ; 0.0
156 ; 13296.152004809248 ; 33808.45537537861 ; 3249545.2026111344 ; 5274119.03855907 ; 0.0
157 ; 13018.715920531859 ; 33808.45537537861 ; 3262841.3546159435 ; 5307927.493934449 ; 0.0
158 ; 13095.116720386042 ; 33808.45537537861 ; 3275860.070536475 ; 5341735.949309828 ; 0.0
159 ; 12646.787034022587 ; 33808.45537537861 ; 3288955.187256861 ; 5375544.404685207 ; 0.0
160 ; 12526.407723363114 ; 33808.45537537861 ; 3301601.9742908836 ; 5409352.860060586 ; 0.0
161 ; 12503.413210054014 ; 33808.45537537861 ; 3314128.3820142467 ; 5443161.315435965 ; 0.0
162 ; 12273.995911657401 ; 33808.45537537861 ; 3326631.7952243006 ; 5476969.770811344 ; 0.0
163 ; 12271.488180729184 ; 33808.45537537861 ; 3338905.791135958 ; 5510778.2261867225 ; 0.0
164 ; 12161.97509886281 ; 33808.45537537861 ; 3351177.279316687 ; 5544586.6815621015 ; 0.0
165 ; 11797.933290859377 ; 33808.45537537861 ; 3363339.25441555 ; 5578395.13693748 ; 0.0
166 ; 11652.2753410898 ; 33808.45537537861 ; 3375137.187706409 ; 5612203.592312859 ; 0.0
167 ; 11562.755810734903 ; 33808.45537537861 ; 3386789.463047499 ; 5646012.047688238 ; 0.0
168 ; 11318.433768638519 ; 33808.45537537861 ; 3398352.2188582337 ; 5679820.503063617 ; 0.0
169 ; 11188.255082499609 ; 33808.45537537861 ; 3409670.652626872 ; 5713628.958438996 ; 0.0
170 ; 10983.991057106232 ; 33808.45537537861 ; 3420858.9077093718 ; 5747437.413814375 ; 0.0
171 ; 10870.533983381581 ; 33808.45537537861 ; 3431842.898766478 ; 5781245.869189754 ; 0.0
172 ; 10513.94552946918 ; 33808.45537537861 ; 3442713.4327498595 ; 5815054.324565133 ; 0.0
173 ; 10627.818057448278 ; 33808.45537537861 ; 3453227.378279329 ; 5848862.779940512 ; 0.0
174 ; 10623.904942419887 ; 33808.45537537861 ; 3463855.196336777 ; 5882671.235315891 ; 0.0
175 ; 10503.074482244378 ; 33808.45537537861 ; 3474479.101279197 ; 5916479.69069127 ; 0.0
176 ; 10733.505790263016 ; 33808.45537537861 ; 3484982.1757614412 ; 5950288.146066649 ; 0.0
177 ; 10587.62152728176 ; 33808.45537537861 ; 3495715.681551704 ; 5984096.601442028 ; 0.0
178 ; 10497.09828344951 ; 33808.45537537861 ; 3506303.303078986 ; 6017905.056817407 ; 0.0
179 ; 10870.00508127383 ; 33808.45537537861 ; 3516800.4013624354 ; 6051713.512192786 ; 0.0
180 ; 10693.159288869172 ; 33808.45537537861 ; 3527670.406443709 ; 6085521.967568165 ; 0.0
181 ; 10761.135092032935 ; 33808.45537537861 ; 3538363.5657325783 ; 6119330.422943544 ; 0.0
182 ; 10687.041528081447 ; 33808.45537537861 ; 3549124.7008246114 ; 6153138.878318923 ; 0.0
183 ; 10992.602556308748 ; 33808.45537537861 ; 3559811.742352693 ; 6186947.333694302 ; 0.0
184 ; 10804.648638615101 ; 33808.45537537861 ; 3570804.3449090016 ; 6220755.7890696805 ; 0.0
185 ; 10740.830269386583 ; 33808.45537537861 ; 3581608.9935476165 ; 6254564.244445059 ; 0.0
186 ; 10861.761769125516 ; 33808.45537537861 ; 3592349.823817003 ; 6288372.699820438 ; 0.0
187 ; 10990.715077662975 ; 33808.45537537861 ; 3603211.5855861288 ; 6322181.155195817 ; 0.0
188 ; 10944.089897360614 ; 33808.45537537861 ; 3614202.3006637916 ; 6355989.610571196 ; 0.0
189 ; 10997.762152314754 ; 33808.45537537861 ; 3625146.3905611522 ; 6389798.065946575 ; 0.0
190 ; 11079.144100476255 ; 33808.45537537861 ; 3636144.152713467 ; 6423606.521321954 ; 0.0
191 ; 11107.92888278034 ; 33808.45537537861 ; 3647223.296813943 ; 6457414.976697333 ; 0.0
192 ; 11253.11304936395 ; 33808.45537537861 ; 3658331.2256967234 ; 6491223.432072712 ; 0.0
193 ; 11133.862121197142 ; 33808.45537537861 ; 3669584.3387460876 ; 6525031.887448091 ; 0.0
194 ; 11218.73173524362 ; 33808.45537537861 ; 3680718.2008672846 ; 6558840.34282347 ; 0.0
195 ; 11288.028605783868 ; 33808.45537537861 ; 3691936.932602528 ; 6592648.798198849 ; 0.0
196 ; 11435.72007577623 ; 33808.45537537861 ; 3703224.961208312 ; 6626457.253574228 ; 0.0
197 ; 11267.055988061393 ; 33808.45537537861 ; 3714660.681284088 ; 6660265.708949607 ; 0.0
198 ; 11229.296459639087 ; 33808.45537537861 ; 3725927.7372721494 ; 6694074.164324986 ; 0.0
199 ; 11380.0691531373 ; 33808.45537537861 ; 3737157.0337317884 ; 6727882.619700365 ; 0.0
200 ; 11420.95745729244 ; 33808.45537537861 ; 3748537.102884926 ; 6761691.075075744 ; 0.0
201 ; 11388.462150102223 ; 33808.45537537861 ; 3759958.0603422183 ; 6795499.530451123 ; 0.0
202 ; 11573.829760621262 ; 33808.45537537861 ; 3771346.5224923203 ; 6829307.985826502 ; 0.0
203 ; 11496.616988900385 ; 33808.45537537861 ; 3782920.3522529416 ; 6863116.441201881 ; 0.0
204 ; 11631.469107851137 ; 33808.45537537861 ; 3794416.969241842 ; 6896924.8965772595 ; 0.0
205 ; 11620.332552996291 ; 33808.45537537861 ; 3806048.438349693 ; 6930733.3519526385 ; 0.0
206 ; 11637.276061590857 ; 33808.45537537861 ; 3817668.7709026895 ; 6964541.807328017 ; 0.0
207 ; 11580.329048673055 ; 33808.45537537861 ; 3829306.0469642803 ; 6998350.262703396 ; 0.0
208 ; 11757.019190849425 ; 33808.45537537861 ; 3840886.3760129535 ; 7032158.718078775 ; 0.0
209 ; 11732.731967451646 ; 33808.45537537861 ; 3852643.3952038027 ; 7065967.173454154 ; 0.0
210 ; 11659.595659842453 ; 33808.45537537861 ; 3864376.1271712543 ; 7099775.628829533 ; 0.0
211 ; 11680.221884004313 ; 33808.45537537861 ; 3876035.7228310965 ; 7133584.084204912 ; 0.0
212 ; 11784.899992486147 ; 33808.45537537861 ; 3887715.944715101 ; 7167392.539580291 ; 0.0
213 ; 11807.117823740185 ; 33808.45537537861 ; 3899500.844707587 ; 7201200.99495567 ; 0.0
214 ; 11989.561839516526 ; 33808.45537537861 ; 3911307.962531327 ; 7235009.450331049 ; 0.0
215 ; 11824.461479373693 ; 33808.45537537861 ; 3923297.5243708435 ; 7268817.905706428 ; 0.0
216 ; 11879.532677499725 ; 33808.45537537861 ; 3935121.9858502173 ; 7302626.361081807 ; 0.0
