CSV File for the City 3 on Day 200
1 - Minute m 
2 - Power Consumed at minute m 
3 - Power Produced at minute m 
4 - Energy Consumed since the beginning of the day 
5 - Energy Produced since the beginning of the day 
6 - Energy Lost since the beginning of the day on lines starting from the city
 
0 ; 3833.684103425708 ; 59826.353517377174 ; 0.0 ; 0.0 ; 0.0
1 ; 4466.383749530134 ; 59427.73225968899 ; 3833.684103425708 ; 59826.353517377174 ; 0.0
2 ; 4839.088903345388 ; 59068.70865941052 ; 8300.067852955843 ; 119254.08577706617 ; 0.0
3 ; 5324.808269743303 ; 58750.03624241406 ; 13139.15675630123 ; 178322.7944364767 ; 0.0
4 ; 5934.27750209924 ; 58472.39919957768 ; 18463.965026044534 ; 237072.83067889075 ; 0.0
5 ; 6291.978626427884 ; 58236.405711115294 ; 24398.242528143775 ; 295545.22987846844 ; 0.0
6 ; 6707.568656612198 ; 58042.58179939022 ; 30690.22115457166 ; 353781.6355895837 ; 0.0
7 ; 7080.719423385799 ; 57891.365848905094 ; 37397.78981118386 ; 411824.2173889739 ; 0.0
8 ; 7511.95615216948 ; 57783.10392274274 ; 44478.50923456966 ; 469715.58323787904 ; 0.0
9 ; 8000.457522592819 ; 57718.04599004296 ; 51990.46538673914 ; 527498.6871606217 ; 0.0
10 ; 8432.629060745661 ; 57696.34315950106 ; 59990.92290933196 ; 585216.7331506647 ; 0.0
11 ; 8616.654646482648 ; 57718.04599004296 ; 68423.55197007762 ; 642913.0763101658 ; 0.0
12 ; 9220.53071602017 ; 57783.10392274274 ; 77040.20661656027 ; 700631.1223002088 ; 0.0
13 ; 9611.30333685723 ; 57891.365848905094 ; 86260.73733258044 ; 758414.2262229515 ; 0.0
14 ; 9979.04013668627 ; 58042.58179939014 ; 95872.04066943767 ; 816305.5920718566 ; 0.0
15 ; 10274.986229350367 ; 58236.405711115294 ; 105851.08080612394 ; 874348.1738712467 ; 0.0
16 ; 10640.730082070348 ; 58472.39919957768 ; 116126.0670354743 ; 932584.5795823621 ; 0.0
17 ; 11201.080936472175 ; 58750.03624241398 ; 126766.79711754466 ; 991056.9787819397 ; 0.0
18 ; 11515.83869139248 ; 59068.70865941059 ; 137967.87805401682 ; 1049807.0150243538 ; 0.0
19 ; 11873.786117129826 ; 59427.73225968893 ; 149483.7167454093 ; 1108875.7236837642 ; 0.0
20 ; 12237.203223698127 ; 59826.35351737724 ; 161357.5028625391 ; 1168303.4559434531 ; 0.0
21 ; 12669.05402049513 ; 60263.756632973455 ; 173594.70608623725 ; 1228129.8094608304 ; 0.0
22 ; 12833.437802022701 ; 60739.070838554566 ; 186263.76010673237 ; 1288393.5660938038 ; 0.0
23 ; 13293.41941911429 ; 61251.37781048621 ; 199097.19790875507 ; 1349132.6369323584 ; 0.0
24 ; 13609.958626599473 ; 61799.71906262469 ; 212390.61732786938 ; 1410384.0147428445 ; 0.0
25 ; 14053.170501072827 ; 62383.10320539075 ; 226000.57595446886 ; 1472183.7338054692 ; 0.0
26 ; 14274.31282502283 ; 63000.512970632226 ; 240053.7464555417 ; 1534566.83701086 ; 0.0
27 ; 14756.242218824276 ; 63650.91191805118 ; 254328.0592805645 ; 1597567.3499814922 ; 0.0
28 ; 14854.76729891131 ; 64333.25075533708 ; 269084.30149938876 ; 1661218.2618995432 ; 0.0
29 ; 15200.214880816719 ; 65046.473220330736 ; 283939.06879830005 ; 1725551.5126548803 ; 0.0
30 ; 15435.39436725066 ; 65789.5214889666 ; 299139.28367911675 ; 1790597.985875211 ; 0.0
31 ; 15795.864936351913 ; 66561.34108696363 ; 314574.6780463674 ; 1856387.5073641776 ; 0.0
32 ; 16066.273731114357 ; 67360.8852959463 ; 330370.5429827193 ; 1922948.8484511413 ; 0.0
33 ; 16116.797654864726 ; 68187.11905568663 ; 346436.81671383366 ; 1990309.7337470877 ; 0.0
34 ; 16633.65381309914 ; 69039.02237340111 ; 362553.6143686984 ; 2058496.8528027744 ; 0.0
35 ; 16931.39364705698 ; 69915.59325850349 ; 379187.2681817975 ; 2127535.8751761755 ; 0.0
36 ; 17122.26091656581 ; 70815.85020700867 ; 396118.6618288545 ; 2197451.468434679 ; 0.0
37 ; 17489.050956675008 ; 71738.83426401851 ; 413240.92274542036 ; 2268267.3186416877 ; 0.0
38 ; 17727.726311722185 ; 72683.61069557509 ; 430729.9737020954 ; 2340006.1529057063 ; 0.0
39 ; 17924.350190448848 ; 73649.27030281366 ; 448457.7000138176 ; 2412689.763601281 ; 0.0
40 ; 18237.627528113593 ; 74634.93041197823 ; 466382.05020426644 ; 2486339.0339040947 ; 0.0
41 ; 18393.7086338752 ; 75639.73557366342 ; 484619.67773238005 ; 2560973.964316073 ; 0.0
42 ; 18793.67881035397 ; 76662.85800377968 ; 503013.38636625523 ; 2636613.6998897363 ; 0.0
43 ; 18888.562119122555 ; 77703.49779737486 ; 521807.0651766092 ; 2713276.557893516 ; 0.0
44 ; 19030.801027389694 ; 78760.88294470758 ; 540695.6272957318 ; 2790980.055690891 ; 0.0
45 ; 19431.72111806029 ; 79834.2691769896 ; 559726.4283231215 ; 2869740.938635599 ; 0.0
46 ; 19530.94504609974 ; 80922.93966708056 ; 579158.1494411818 ; 2949575.2078125887 ; 0.0
47 ; 19843.264935405976 ; 82026.20460822603 ; 598689.0944872815 ; 3030498.147479669 ; 0.0
48 ; 19756.483428795433 ; 83143.40069172937 ; 618532.3594226874 ; 3112524.3520878954 ; 0.0
49 ; 20067.841784560773 ; 84273.89050230006 ; 638288.8428514829 ; 3195667.752779625 ; 0.0
50 ; 20340.783793204755 ; 85417.06184775784 ; 658356.6846360437 ; 3279941.643281925 ; 0.0
51 ; 20322.787785621895 ; 86572.32703781968 ; 678697.4684292485 ; 3365358.705129683 ; 0.0
52 ; 20558.995402933295 ; 87739.12212487673 ; 699020.2562148705 ; 3451931.0321675027 ; 0.0
53 ; 20773.647198629977 ; 88916.90611798436 ; 719579.2516178038 ; 3539670.1542923795 ; 0.0
54 ; 20946.33446333954 ; 90105.16017975155 ; 740352.8988164339 ; 3628587.060410364 ; 0.0
55 ; 21178.131512526947 ; 91303.38681441985 ; 761299.2332797734 ; 3718692.2205901155 ; 0.0
56 ; 21456.162536733274 ; 92511.10905416858 ; 782477.3647923004 ; 3809995.607404535 ; 0.0
57 ; 21495.284349071117 ; 93727.86964955938 ; 803933.5273290337 ; 3902506.716458704 ; 0.0
58 ; 21582.28773828583 ; 94953.23026904084 ; 825428.8116781048 ; 3996234.586108263 ; 0.0
59 ; 21597.691332801365 ; 96186.77071155519 ; 847011.0994163906 ; 4091187.816377304 ; 0.0
60 ; 21876.256007693824 ; 97428.08813551902 ; 868608.790749192 ; 4187374.587088859 ; 0.0
61 ; 22048.883044578633 ; 98676.79630678143 ; 890485.0467568858 ; 4284802.675224378 ; 0.0
62 ; 21899.967350358544 ; 99932.52486758068 ; 912533.9298014644 ; 4383479.471531159 ; 0.0
63 ; 22136.100228452953 ; 101194.91862801992 ; 934433.8971518229 ; 4483411.9963987395 ; 0.0
64 ; 22483.981572701887 ; 102463.63688115541 ; 956569.9973802759 ; 4584606.91502676 ; 0.0
65 ; 22414.62377721949 ; 103738.35274242451 ; 979053.9789529778 ; 4687070.551907915 ; 0.0
66 ; 22484.053583817247 ; 105018.75251383403 ; 1001468.6027301972 ; 4790808.904650339 ; 0.0
67 ; 22723.29878254005 ; 106304.53507306914 ; 1023952.6563140145 ; 4895827.657164173 ; 0.0
68 ; 22792.648344333218 ; 107595.41128747143 ; 1046675.9550965545 ; 5002132.192237242 ; 0.0
69 ; 22727.40910200312 ; 108891.10345265367 ; 1069468.6034408878 ; 5109727.603524714 ; 0.0
70 ; 22912.769945064705 ; 110191.3447553783 ; 1092196.0125428909 ; 5218618.706977367 ; 0.0
71 ; 22937.973624991537 ; 111495.8787602078 ; 1115108.7824879556 ; 5328810.051732746 ; 0.0
72 ; 22983.442729313876 ; 112804.45891934581 ; 1138046.7561129471 ; 5440305.930492953 ; 0.0
73 ; 22912.95097220765 ; 114116.84810501653 ; 1161030.198842261 ; 5553110.389412299 ; 0.0
74 ; 23116.6015338454 ; 115432.81816367658 ; 1183943.1498144686 ; 5667227.237517315 ; 0.0
75 ; 23140.44871629523 ; 116752.14949131658 ; 1207059.7513483139 ; 5782660.055680991 ; 0.0
76 ; 23334.183302843747 ; 118074.63062908335 ; 1230200.200064609 ; 5899412.205172308 ; 0.0
77 ; 23105.35698982588 ; 119400.05787844124 ; 1253534.3833674528 ; 6017486.835801391 ; 0.0
78 ; 23281.516947717842 ; 120728.23493508306 ; 1276639.7403572786 ; 6136886.893679832 ; 0.0
79 ; 23099.96253134049 ; 122058.97254080347 ; 1299921.2573049965 ; 6257615.128614916 ; 0.0
80 ; 23241.538580342058 ; 123392.0881525564 ; 1323021.219836337 ; 6379674.101155719 ; 0.0
81 ; 23345.975150445753 ; 124727.40562792824 ; 1346262.758416679 ; 6503066.1893082755 ; 0.0
82 ; 23313.72508082089 ; 126064.75492627626 ; 1369608.7335671247 ; 6627793.594936204 ; 0.0
83 ; 23357.51914479243 ; 127403.97182480045 ; 1392922.4586479457 ; 6753858.349862481 ; 0.0
84 ; 23309.952546957178 ; 128744.89764883759 ; 1416279.977792738 ; 6881262.321687281 ; 0.0
85 ; 23248.339859891017 ; 130087.37901569068 ; 1439589.9303396952 ; 7010007.219336119 ; 0.0
86 ; 23334.214089982725 ; 131431.2675913301 ; 1462838.2701995862 ; 7140094.598351809 ; 0.0
87 ; 23310.662062360156 ; 132776.41985932877 ; 1486172.4842895688 ; 7271525.865943139 ; 0.0
88 ; 23277.441615255197 ; 134122.69690141745 ; 1509483.146351929 ; 7404302.285802469 ; 0.0
89 ; 23203.051111876346 ; 135469.96418907476 ; 1532760.5879671841 ; 7538424.982703886 ; 0.0
90 ; 23067.691819076103 ; 136818.09138558854 ; 1555963.6390790604 ; 7673894.946892961 ; 0.0
91 ; 23093.087341647966 ; 138166.95215805303 ; 1579031.3308981366 ; 7810713.03827855 ; 0.0
92 ; 23180.502003305566 ; 139516.42399878998 ; 1602124.4182397847 ; 7948879.990436603 ; 0.0
93 ; 22934.314285107263 ; 140866.38805570567 ; 1625304.9202430903 ; 8088396.414435393 ; 0.0
94 ; 22924.57521220587 ; 142216.72897112078 ; 1648239.2345281974 ; 8229262.802491099 ; 0.0
95 ; 22919.986037106493 ; 143567.33472863064 ; 1671163.8097404032 ; 8371479.53146222 ; 0.0
96 ; 22682.597827170062 ; 144918.09650757787 ; 1694083.7957775097 ; 8515046.86619085 ; 0.0
97 ; 22649.169736601147 ; 146268.90854473837 ; 1716766.3936046797 ; 8659964.962698428 ; 0.0
98 ; 22601.36106523386 ; 147619.6680028439 ; 1739415.563341281 ; 8806233.871243166 ; 0.0
99 ; 22674.385820847416 ; 148970.27484558243 ; 1762016.9244065147 ; 8953853.53924601 ; 0.0
100 ; 22458.08800146295 ; 150320.63171873766 ; 1784691.3102273622 ; 9102823.814091593 ; 0.0
101 ; 22433.649508768583 ; 151670.64383714527 ; 1807149.398228825 ; 9253144.445810331 ; 0.0
102 ; 22179.050915285043 ; 153020.21887716203 ; 1829583.0477375938 ; 9404815.089647476 ; 0.0
103 ; 22328.04792528685 ; 154369.26687435925 ; 1851762.0986528788 ; 9557835.308524638 ; 0.0
104 ; 21795.99398181901 ; 155717.7001261673 ; 1874090.1465781657 ; 9712204.575398998 ; 0.0
105 ; 21772.21242725484 ; 157065.4330992136 ; 1895886.1405599846 ; 9867922.275525166 ; 0.0
106 ; 21818.800317578593 ; 158412.38234110925 ; 1917658.3529872394 ; 1.002498770862438E7 ; 0.0
107 ; 21685.167833972522 ; 159758.46639645318 ; 1939477.1533048179 ; 1.0183400090965489E7 ; 0.0
108 ; 21345.710525769584 ; 161103.6057268354 ; 1961162.3211387903 ; 1.0343158557361942E7 ; 0.0
109 ; 21287.829808145383 ; 162447.7226346322 ; 1982508.0316645599 ; 1.0504262163088778E7 ; 0.0
110 ; 21266.11581693741 ; 163790.74119039788 ; 2003795.8614727051 ; 1.066670988572341E7 ; 0.0
111 ; 21010.72669914225 ; 165132.5871636686 ; 2025061.9772896427 ; 1.0830500626913808E7 ; 0.0
112 ; 20834.618076313986 ; 166473.1879570019 ; 2046072.703988785 ; 1.0995633214077476E7 ; 0.0
113 ; 20667.52030454291 ; 167812.47254308843 ; 2066907.322065099 ; 1.1162106402034478E7 ; 0.0
114 ; 20522.232584093003 ; 169150.3714047776 ; 2087574.8423696419 ; 1.1329918874577567E7 ; 0.0
115 ; 20257.845634527876 ; 170486.81647787048 ; 2108097.074953735 ; 1.1499069245982345E7 ; 0.0
116 ; 20035.56823539952 ; 171821.7410965394 ; 2128354.920588263 ; 1.1669556062460216E7 ; 0.0
117 ; 19856.965750230826 ; 173155.07994124174 ; 2148390.4888236625 ; 1.1841377803556755E7 ; 0.0
118 ; 19648.771504365286 ; 174486.76898900297 ; 2168247.4545738935 ; 1.2014532883497996E7 ; 0.0
119 ; 19417.4057909548 ; 175816.74546595034 ; 2187896.226078259 ; 1.2189019652486999E7 ; 0.0
120 ; 19395.382460445693 ; 177144.947801985 ; 2207313.6318692137 ; 1.236483639795295E7 ; 0.0
121 ; 19233.07898882285 ; 178471.3155874863 ; 2226709.0143296593 ; 1.2541981345754934E7 ; 0.0
122 ; 18834.39661976029 ; 179795.78953194842 ; 2245942.093318482 ; 1.2720452661342422E7 ; 0.0
123 ; 18736.014785198488 ; 181118.31142445348 ; 2264776.4899382424 ; 1.290024845087437E7 ; 0.0
124 ; 18406.329624948645 ; 182438.8240958916 ; 2283512.504723441 ; 1.3081366762298822E7 ; 0.0
125 ; 18127.54012630037 ; 183757.27138284265 ; 2301918.8343483894 ; 1.3263805586394714E7 ; 0.0
126 ; 17999.972040495508 ; 185073.59809303877 ; 2320046.37447469 ; 1.3447562857777556E7 ; 0.0
127 ; 17572.62357250103 ; 186387.74997233113 ; 2338046.346515185 ; 1.3632636455870595E7 ; 0.0
128 ; 17231.029230477914 ; 187699.67367308927 ; 2355618.970087686 ; 1.3819024205842925E7 ; 0.0
129 ; 17122.36963391984 ; 189009.31672396313 ; 2372849.999318164 ; 1.4006723879516015E7 ; 0.0
130 ; 16929.152091397682 ; 190316.62750094355 ; 2389972.368952084 ; 1.4195733196239978E7 ; 0.0
131 ; 16567.227766416352 ; 191621.55519965966 ; 2406901.521043482 ; 1.4386049823740922E7 ; 0.0
132 ; 16274.8650013753 ; 192924.04980885403 ; 2423468.7488098983 ; 1.4577671378940582E7 ; 0.0
133 ; 16058.064355015416 ; 194224.06208498077 ; 2439743.6138112736 ; 1.4770595428749437E7 ; 0.0
134 ; 15796.929292220992 ; 195521.5435278736 ; 2455801.678166289 ; 1.4964819490834417E7 ; 0.0
135 ; 15539.623482553852 ; 196816.44635743435 ; 2471598.60745851 ; 1.516034103436229E7 ; 0.0
136 ; 15138.787385908017 ; 198108.72349129402 ; 2487138.2309410637 ; 1.5357157480719725E7 ; 0.0
137 ; 14868.187145968628 ; 199398.32852340201 ; 2502277.0183269717 ; 1.5555266204211019E7 ; 0.0
138 ; 14504.411728503044 ; 200685.21570350058 ; 2517145.20547294 ; 1.575466453273442E7 ; 0.0
139 ; 14194.630261085593 ; 201969.33991744398 ; 2531649.6172014433 ; 1.595534974843792E7 ; 0.0
140 ; 13894.333718861048 ; 203250.6566683245 ; 2545844.2474625288 ; 1.6157319088355364E7 ; 0.0
141 ; 13584.071108020931 ; 204529.122058367 ; 2559738.5811813897 ; 1.6360569745023688E7 ; 0.0
142 ; 13136.504897140347 ; 205804.6927715599 ; 2573322.6522894106 ; 1.6565098867082056E7 ; 0.0
143 ; 12843.924828588968 ; 207077.32605698772 ; 2586459.157186551 ; 1.6770903559853615E7 ; 0.0
144 ; 12460.415472601671 ; 208346.97971283388 ; 2599303.08201514 ; 1.6977980885910604E7 ; 0.0
145 ; 12176.600962235192 ; 209613.61207102524 ; 2611763.4974877415 ; 1.7186327865623437E7 ; 0.0
146 ; 12173.878583869882 ; 210877.1819824884 ; 2623940.0984499766 ; 1.7395941477694463E7 ; 0.0
147 ; 12156.532919926627 ; 212137.6488029921 ; 2636113.9770338465 ; 1.760681865967695E7 ; 0.0
148 ; 11904.903425118991 ; 213394.9723795495 ; 2648270.509953773 ; 1.7818956308479942E7 ; 0.0
149 ; 11766.496342108148 ; 214649.11303735574 ; 2660175.413378892 ; 1.8032351280859493E7 ; 0.0
150 ; 11799.769276722092 ; 215900.0315672376 ; 2671941.909721 ; 1.8247000393896848E7 ; 0.0
151 ; 11735.99627138146 ; 217147.68921359404 ; 2683741.678997722 ; 1.8462900425464086E7 ; 0.0
152 ; 11618.3985826137 ; 218392.04766280504 ; 2695477.6752691036 ; 1.868004811467768E7 ; 0.0
153 ; 11537.86841489973 ; 219633.06903208958 ; 2707096.073851717 ; 1.8898440162340485E7 ; 0.0
154 ; 11426.89215664375 ; 220870.71585879396 ; 2718633.942266617 ; 1.9118073231372572E7 ; 0.0
155 ; 11307.37789170367 ; 222104.95109009134 ; 2730060.8344232608 ; 1.9338943947231367E7 ; 0.0
156 ; 11046.266166847794 ; 223335.7380730756 ; 2741368.2123149643 ; 1.9561048898321457E7 ; 0.0
157 ; 10904.4906429993 ; 224563.04054523323 ; 2752414.478481812 ; 1.9784384636394534E7 ; 0.0
158 ; 11023.049635540576 ; 225786.82262527687 ; 2763318.9691248112 ; 2.0008947676939767E7 ; 0.0
159 ; 10823.74752345002 ; 227007.048804326 ; 2774342.018760352 ; 2.0234734499565043E7 ; 0.0
160 ; 10724.691036221171 ; 228223.68393742002 ; 2785165.7662838018 ; 2.046174154836937E7 ; 0.0
161 ; 10627.422473128929 ; 229436.69323535034 ; 2795890.457320023 ; 2.068996523230679E7 ; 0.0
162 ; 10434.362122897548 ; 230646.0422567982 ; 2806517.8797931517 ; 2.091940192554214E7 ; 0.0
163 ; 10302.692978276447 ; 231851.69690076564 ; 2816952.2419160493 ; 2.1150047967798937E7 ; 0.0
164 ; 10056.816210910543 ; 233053.62339928804 ; 2827254.9348943257 ; 2.1381899664699703E7 ; 0.0
165 ; 10014.022612125294 ; 234251.78831041665 ; 2837311.7511052364 ; 2.161495328809899E7 ; 0.0
166 ; 10026.683415649963 ; 235446.15851146023 ; 2847325.7737173615 ; 2.1849205076409407E7 ; 0.0
167 ; 9800.241997789115 ; 236636.70119247522 ; 2857352.4571330114 ; 2.2084651234920867E7 ; 0.0
168 ; 9450.029812121706 ; 237823.38384999539 ; 2867152.6991308006 ; 2.2321287936113343E7 ; 0.0
169 ; 9701.90747678924 ; 239006.17428098974 ; 2876602.7289429223 ; 2.255911131996334E7 ; 0.0
170 ; 9404.470639470605 ; 240185.04057704203 ; 2886304.6364197116 ; 2.279811749424433E7 ; 0.0
171 ; 9231.313402372713 ; 241359.95111874072 ; 2895709.107059182 ; 2.3038302534821372E7 ; 0.0
172 ; 8941.34543338322 ; 242530.87457027292 ; 2904940.420461555 ; 2.3279662485940114E7 ; 0.0
173 ; 8963.005373087472 ; 243697.77987421345 ; 2913881.7658949383 ; 2.3522193360510387E7 ; 0.0
174 ; 8955.801895256007 ; 244860.63624650196 ; 2922844.7712680255 ; 2.37658911403846E7 ; 0.0
175 ; 9060.931693621169 ; 246019.41317160017 ; 2931800.5731632817 ; 2.4010751776631102E7 ; 0.0
176 ; 8969.457942052051 ; 247174.08039782307 ; 2940861.5048569026 ; 2.4256771189802703E7 ; 0.0
177 ; 8914.796699118222 ; 248324.6079328369 ; 2949830.962798955 ; 2.4503945270200524E7 ; 0.0
178 ; 9093.218160542532 ; 249470.9660393175 ; 2958745.7594980733 ; 2.475226987813336E7 ; 0.0
179 ; 9068.121920378268 ; 250613.1252307637 ; 2967838.977658616 ; 2.500174084417268E7 ; 0.0
180 ; 9242.51346818338 ; 251751.05626745863 ; 2976907.0995789943 ; 2.5252353969403442E7 ; 0.0
181 ; 9053.709064923783 ; 252884.73015257428 ; 2986149.613047178 ; 2.55041050256709E7 ; 0.0
182 ; 9298.743908465844 ; 254014.11812841412 ; 2995203.3221121016 ; 2.5756989755823474E7 ; 0.0
183 ; 9256.368794975982 ; 255139.19167278742 ; 3004502.0660205674 ; 2.601100387395189E7 ; 0.0
184 ; 9340.590948091965 ; 256259.92249551177 ; 3013758.4348155432 ; 2.6266143065624677E7 ; 0.0
185 ; 9267.41449244758 ; 257376.2825350383 ; 3023099.025763635 ; 2.6522402988120187E7 ; 0.0
186 ; 9284.713295598918 ; 258488.24395519498 ; 3032366.4402560825 ; 2.6779779270655226E7 ; 0.0
187 ; 9185.59692189457 ; 259595.77914204402 ; 3041651.1535516814 ; 2.703826751461042E7 ; 0.0
188 ; 9266.705222387212 ; 260698.86070084904 ; 3050836.750473576 ; 2.7297863293752465E7 ; 0.0
189 ; 9324.19169456386 ; 261797.46145314793 ; 3060103.4556959635 ; 2.7558562154453315E7 ; 0.0
190 ; 9530.02882944125 ; 262891.55443392793 ; 3069427.647390527 ; 2.7820359615906462E7 ; 0.0
191 ; 9665.736442362104 ; 263981.1128888984 ; 3078957.6762199686 ; 2.808325117034039E7 ; 0.0
192 ; 9584.32305160857 ; 265066.1102718587 ; 3088623.4126623305 ; 2.8347232283229288E7 ; 0.0
193 ; 9434.842877151908 ; 266146.52024215704 ; 3098207.735713939 ; 2.8612298393501148E7 ; 0.0
194 ; 9579.326869487046 ; 267222.31666223804 ; 3107642.578591091 ; 2.8878444913743306E7 ; 0.0
195 ; 9638.555199174116 ; 268293.4735952739 ; 3117221.905460578 ; 2.9145667230405543E7 ; 0.0
196 ; 9617.770957163066 ; 269359.9653028788 ; 3126860.460659752 ; 2.9413960704000816E7 ; 0.0
197 ; 9642.191444554006 ; 270421.7662429015 ; 3136478.231616915 ; 2.9683320669303693E7 ; 0.0
198 ; 9715.17508258916 ; 271478.85106729384 ; 3146120.423061469 ; 2.9953742435546596E7 ; 0.0
199 ; 9749.806982261998 ; 272531.1946200535 ; 3155835.598144058 ; 3.022522128661389E7 ; 0.0
200 ; 9725.372588762542 ; 273578.7719352375 ; 3165585.40512632 ; 3.0497752481233943E7 ; 0.0
201 ; 9769.42671708906 ; 274621.5582350434 ; 3175310.7777150827 ; 3.077133125316918E7 ; 0.0
202 ; 9786.694274427397 ; 275659.52892795764 ; 3185080.204432172 ; 3.104595281140422E7 ; 0.0
203 ; 9893.999320543293 ; 276692.6596069666 ; 3194866.898706599 ; 3.132161234033218E7 ; 0.0
204 ; 9748.25669032633 ; 277720.9260478301 ; 3204760.8980271425 ; 3.1598304999939147E7 ; 0.0
205 ; 9758.38427027225 ; 278744.30420741386 ; 3214509.1547174687 ; 3.187602592598698E7 ; 0.0
206 ; 9948.290371969942 ; 279762.77022207953 ; 3224267.538987741 ; 3.2154770230194394E7 ; 0.0
207 ; 9987.912768093434 ; 280776.3004061297 ; 3234215.8293597107 ; 3.2434533000416473E7 ; 0.0
208 ; 9900.656220988254 ; 281784.87125030754 ; 3244203.742127804 ; 3.27153093008226E7 ; 0.0
209 ; 10041.860951770677 ; 282788.4594203464 ; 3254104.3983487925 ; 3.299709417207291E7 ; 0.0
210 ; 9985.904786592242 ; 283787.0417555715 ; 3264146.259300563 ; 3.3279882631493255E7 ; 0.0
211 ; 9927.882748199658 ; 284780.595267548 ; 3274132.1640871554 ; 3.356366967324883E7 ; 0.0
212 ; 10268.164699263549 ; 285769.0971387767 ; 3284060.046835355 ; 3.384845026851638E7 ; 0.0
