CSV File for the City 1 on Day 286
1 - Minute m 
2 - Power Consumed at minute m 
3 - Power Produced at minute m 
4 - Energy Consumed since the beginning of the day 
5 - Energy Produced since the beginning of the day 
6 - Energy Lost since the beginning of the day on lines starting from the city
 
0 ; 9441.855666068415 ; 5170.990243340624 ; 0.0 ; 0.0 ; 0.0
1 ; 9646.888703568882 ; 5170.990243340624 ; 9441.855666068415 ; 5170.990243340624 ; 238.00000000000003
2 ; 10298.260263798142 ; 5170.990243340624 ; 19088.744369637297 ; 10341.980486681248 ; 476.00000000000006
3 ; 10722.751809208728 ; 5170.990243340624 ; 29387.00463343544 ; 15512.970730021872 ; 714.0000000000001
4 ; 11032.81672452715 ; 5170.990243340624 ; 40109.75644264417 ; 20683.960973362497 ; 952.0000000000001
5 ; 11442.576319772936 ; 5170.990243340624 ; 51142.573167171315 ; 25854.95121670312 ; 1190.0000000000002
6 ; 11927.416807498586 ; 5170.990243340624 ; 62585.149486944254 ; 31025.941460043745 ; 1428.0000000000002
7 ; 12454.540719896826 ; 5170.990243340624 ; 74512.56629444283 ; 36196.93170338437 ; 1666.0000000000002
8 ; 12687.383636476237 ; 5170.990243340624 ; 86967.10701433966 ; 41367.92194672499 ; 1904.0000000000002
9 ; 13146.817148409347 ; 5170.990243340624 ; 99654.4906508159 ; 46538.91219006562 ; 2142.0000000000005
10 ; 13473.546065907252 ; 5170.990243340624 ; 112801.30779922525 ; 51709.90243340624 ; 2380.0000000000005
11 ; 13793.869128674723 ; 5170.990243340624 ; 126274.8538651325 ; 56880.892676746866 ; 2618.0000000000005
12 ; 14110.421892623692 ; 5170.990243340624 ; 140068.72299380723 ; 62051.88292008749 ; 2856.0000000000005
13 ; 14685.868926661462 ; 5170.990243340624 ; 154179.1448864309 ; 67222.87316342811 ; 3094.0000000000005
14 ; 15037.546920175464 ; 5170.990243340624 ; 168865.01381309237 ; 72393.86340676874 ; 3332.0000000000005
15 ; 15436.764976321128 ; 5170.990243340624 ; 183902.56073326783 ; 77564.85365010936 ; 3570.0000000000005
16 ; 15650.738530762952 ; 5170.990243340624 ; 199339.32570958897 ; 82735.84389344999 ; 3808.0000000000005
17 ; 16206.334241544213 ; 5170.990243340624 ; 214990.06424035193 ; 87906.83413679061 ; 4046.0000000000005
18 ; 16512.42401078807 ; 5170.990243340624 ; 231196.39848189615 ; 93077.82438013123 ; 4284.000000000001
19 ; 16945.292708193498 ; 5170.990243340624 ; 247708.8224926842 ; 98248.81462347186 ; 4522.000000000001
20 ; 17094.5327647235 ; 5170.990243340624 ; 264654.1152008777 ; 103419.80486681248 ; 4760.000000000001
21 ; 17570.645856346153 ; 5170.990243340624 ; 281748.64796560124 ; 108590.7951101531 ; 4998.000000000001
22 ; 17891.785265420156 ; 5170.990243340624 ; 299319.2938219474 ; 113761.78535349373 ; 5236.000000000001
23 ; 18095.379178770745 ; 5170.990243340624 ; 317211.0790873676 ; 118932.77559683436 ; 5474.000000000001
24 ; 18493.94769937419 ; 5170.990243340624 ; 335306.45826613833 ; 124103.76584017498 ; 5712.000000000001
25 ; 18877.252237140707 ; 5170.990243340624 ; 353800.4059655125 ; 129274.7560835156 ; 5950.000000000001
26 ; 19185.697239282792 ; 5170.990243340624 ; 372677.6582026532 ; 134445.74632685623 ; 6188.000000000001
27 ; 19433.807461820466 ; 5170.990243340624 ; 391863.355441936 ; 139616.73657019687 ; 6426.000000000001
28 ; 19742.59600650808 ; 5170.990243340624 ; 411297.1629037565 ; 144787.72681353748 ; 6664.000000000001
29 ; 20227.17311584339 ; 5170.990243340624 ; 431039.7589102646 ; 149958.7170568781 ; 6902.000000000001
30 ; 20304.24008930415 ; 5170.990243340624 ; 451266.93202610797 ; 155129.7073002187 ; 7140.000000000001
31 ; 20537.767267060965 ; 5170.990243340624 ; 471571.17211541213 ; 160300.6975435593 ; 7378.000000000001
32 ; 20971.87027358608 ; 5170.990243340624 ; 492108.9393824731 ; 165471.6877868999 ; 7616.000000000001
33 ; 21196.532490317597 ; 5170.990243340624 ; 513080.8096560592 ; 170642.67803024052 ; 7854.000000000001
34 ; 21507.04154058461 ; 5170.990243340624 ; 534277.3421463768 ; 175813.66827358113 ; 8092.000000000001
35 ; 21667.28806863807 ; 5170.990243340624 ; 555784.3836869615 ; 180984.65851692174 ; 8330.000000000002
36 ; 21913.28600182219 ; 5170.990243340624 ; 577451.6717555996 ; 186155.64876026235 ; 8568.000000000002
37 ; 22077.61410133733 ; 5170.990243340624 ; 599364.9577574218 ; 191326.63900360296 ; 8806.000000000002
38 ; 22643.006503891116 ; 5170.990243340624 ; 621442.5718587592 ; 196497.62924694357 ; 9044.000000000002
39 ; 22676.818688858177 ; 5170.990243340624 ; 644085.5783626502 ; 201668.61949028418 ; 9282.000000000002
40 ; 22930.042771334352 ; 5170.990243340624 ; 666762.3970515084 ; 206839.6097336248 ; 9520.000000000002
41 ; 23116.921637605603 ; 5170.990243340624 ; 689692.4398228428 ; 212010.5999769654 ; 9758.000000000002
42 ; 23299.896867441694 ; 5170.990243340624 ; 712809.3614604485 ; 217181.590220306 ; 9996.000000000002
43 ; 23463.654476819996 ; 5170.990243340624 ; 736109.2583278902 ; 222352.58046364662 ; 10234.000000000002
44 ; 23813.92669076937 ; 5170.990243340624 ; 759572.9128047102 ; 227523.57070698723 ; 10472.000000000002
45 ; 24031.16378763344 ; 5170.990243340624 ; 783386.8394954796 ; 232694.56095032784 ; 10710.000000000002
46 ; 24219.85296527405 ; 5170.990243340624 ; 807418.003283113 ; 237865.55119366845 ; 10948.000000000002
47 ; 24504.850711443127 ; 5170.990243340624 ; 831637.856248387 ; 243036.54143700906 ; 11186.000000000002
48 ; 24459.61461090262 ; 5170.990243340624 ; 856142.7069598301 ; 248207.53168034967 ; 11424.000000000002
49 ; 24908.521357653797 ; 5170.990243340624 ; 880602.3215707327 ; 253378.52192369028 ; 11662.000000000002
50 ; 24934.38627938454 ; 5170.990243340624 ; 905510.8429283865 ; 258549.5121670309 ; 11900.000000000002
51 ; 25090.698507219102 ; 5170.990243340624 ; 930445.229207771 ; 263720.5024103715 ; 12138.000000000002
52 ; 25240.378212802047 ; 5170.990243340624 ; 955535.9277149901 ; 268891.4926537121 ; 12376.000000000002
53 ; 25591.491550375238 ; 5170.990243340624 ; 980776.3059277921 ; 274062.4828970527 ; 12614.000000000002
54 ; 25644.310048950498 ; 5170.990243340624 ; 1006367.7974781673 ; 279233.4731403933 ; 12852.000000000002
55 ; 25812.276787703755 ; 5170.990243340624 ; 1032012.1075271178 ; 284404.46338373394 ; 13090.000000000002
56 ; 26055.623435973477 ; 5170.990243340624 ; 1057824.3843148216 ; 289575.45362707454 ; 13328.000000000002
57 ; 26093.041715628045 ; 5170.990243340624 ; 1083880.007750795 ; 294746.44387041515 ; 13566.000000000002
58 ; 26015.51208693872 ; 5170.990243340624 ; 1109973.049466423 ; 299917.43411375576 ; 13804.000000000002
59 ; 26416.53155021633 ; 5170.990243340624 ; 1135988.5615533618 ; 305088.4243570964 ; 14042.000000000002
60 ; 26332.138407105605 ; 5170.990243340624 ; 1162405.093103578 ; 310259.414600437 ; 14280.000000000002
61 ; 26475.2425548745 ; 5170.990243340624 ; 1188737.2315106837 ; 315430.4048437776 ; 14518.000000000002
62 ; 26594.411622161522 ; 5170.990243340624 ; 1215212.474065558 ; 320601.3950871182 ; 14756.000000000002
63 ; 26723.77108475213 ; 5170.990243340624 ; 1241806.8856877196 ; 325772.3853304588 ; 14994.000000000002
64 ; 26839.86027265482 ; 5170.990243340624 ; 1268530.6567724717 ; 330943.3755737994 ; 15232.000000000002
65 ; 27054.488137602642 ; 5170.990243340624 ; 1295370.5170451265 ; 336114.36581714003 ; 15470.000000000002
66 ; 27002.379491616244 ; 5170.990243340624 ; 1322425.005182729 ; 341285.35606048064 ; 15708.000000000002
67 ; 27092.873739431197 ; 5170.990243340624 ; 1349427.3846743454 ; 346456.34630382125 ; 15946.000000000002
68 ; 27293.290870660974 ; 5170.990243340624 ; 1376520.2584137765 ; 351627.33654716186 ; 16184.000000000002
69 ; 27361.082079409658 ; 5170.990243340624 ; 1403813.5492844374 ; 356798.32679050247 ; 16422.000000000004
70 ; 27315.36710154664 ; 5170.990243340624 ; 1431174.631363847 ; 361969.3170338431 ; 16660.000000000004
71 ; 27373.444889861552 ; 5170.990243340624 ; 1458489.9984653937 ; 367140.3072771837 ; 16898.000000000004
72 ; 27429.021208554266 ; 5170.990243340624 ; 1485863.4433552553 ; 372311.2975205243 ; 17136.000000000004
73 ; 27307.604349933787 ; 5170.990243340624 ; 1513292.4645638096 ; 377482.2877638649 ; 17374.000000000004
74 ; 27497.842064070566 ; 5170.990243340624 ; 1540600.0689137434 ; 382653.2780072055 ; 17612.000000000004
75 ; 27579.806755911282 ; 5170.990243340624 ; 1568097.9109778139 ; 387824.2682505461 ; 17850.000000000004
76 ; 27402.512820522956 ; 5170.990243340624 ; 1595677.7177337252 ; 392995.25849388674 ; 18088.000000000004
77 ; 27538.45024639342 ; 5170.990243340624 ; 1623080.2305542482 ; 398166.24873722735 ; 18326.000000000004
78 ; 27796.148033477686 ; 5170.990243340624 ; 1650618.6808006417 ; 403337.23898056796 ; 18564.000000000004
79 ; 27751.692249566575 ; 5170.990243340624 ; 1678414.8288341193 ; 408508.22922390857 ; 18802.000000000004
80 ; 27711.830375601232 ; 5170.990243340624 ; 1706166.5210836858 ; 413679.2194672492 ; 19040.000000000004
81 ; 27579.63125409452 ; 5170.990243340624 ; 1733878.351459287 ; 418850.2097105898 ; 19278.000000000004
82 ; 27627.344427116135 ; 5170.990243340624 ; 1761457.9827133815 ; 424021.1999539304 ; 19516.000000000004
83 ; 27669.190529466632 ; 5170.990243340624 ; 1789085.3271404977 ; 429192.190197271 ; 19754.000000000004
84 ; 27681.348744891908 ; 5170.990243340624 ; 1816754.5176699643 ; 434363.1804406116 ; 19992.000000000004
85 ; 27550.315681633325 ; 5170.990243340624 ; 1844435.8664148562 ; 439534.1706839522 ; 20230.000000000004
86 ; 27789.936402069878 ; 5170.990243340624 ; 1871986.1820964895 ; 444705.16092729283 ; 20468.000000000004
87 ; 27508.390570030733 ; 5170.990243340624 ; 1899776.1184985593 ; 449876.15117063344 ; 20706.000000000004
88 ; 27567.145063424286 ; 5170.990243340624 ; 1927284.5090685901 ; 455047.14141397405 ; 20944.000000000004
89 ; 27536.814834587483 ; 5170.990243340624 ; 1954851.6541320144 ; 460218.13165731466 ; 21182.000000000004
90 ; 27317.92869565071 ; 5170.990243340624 ; 1982388.4689666019 ; 465389.1219006553 ; 21420.000000000004
91 ; 27339.908929397217 ; 5170.990243340624 ; 2009706.3976622527 ; 470560.1121439959 ; 21658.000000000004
92 ; 27426.331285530574 ; 5170.990243340624 ; 2037046.3065916498 ; 475731.1023873365 ; 21896.000000000004
93 ; 27224.6558495541 ; 5170.990243340624 ; 2064472.6378771802 ; 480902.0926306771 ; 22134.000000000004
94 ; 27067.54594338879 ; 5170.990243340624 ; 2091697.2937267344 ; 486073.0828740177 ; 22372.000000000004
95 ; 27023.19093781105 ; 5170.990243340624 ; 2118764.839670123 ; 491244.0731173583 ; 22610.000000000004
96 ; 27163.13848264993 ; 5170.990243340624 ; 2145788.030607934 ; 496415.0633606989 ; 22848.000000000004
97 ; 27079.349361015607 ; 5170.990243340624 ; 2172951.169090584 ; 501586.05360403954 ; 23086.000000000004
98 ; 26799.89946290395 ; 5170.990243340624 ; 2200030.5184515994 ; 506757.04384738015 ; 23324.000000000004
99 ; 26636.912541363115 ; 5170.990243340624 ; 2226830.4179145033 ; 511928.03409072076 ; 23562.000000000004
100 ; 26608.001834303945 ; 5170.990243340624 ; 2253467.330455866 ; 517099.02433406137 ; 23800.000000000004
101 ; 26624.397871688798 ; 5170.990243340624 ; 2280075.3322901702 ; 522270.014577402 ; 24038.000000000004
102 ; 26513.81830562547 ; 5170.990243340624 ; 2306699.730161859 ; 527441.0048207426 ; 24276.000000000004
103 ; 26149.74729296566 ; 5170.990243340624 ; 2333213.548467485 ; 532611.9950640833 ; 24514.000000000004
104 ; 26217.83281328413 ; 5170.990243340624 ; 2359363.2957604504 ; 537782.9853074239 ; 24752.000000000004
105 ; 26005.02815202959 ; 5170.990243340624 ; 2385581.128573735 ; 542953.9755507645 ; 24990.000000000004
106 ; 25781.99984654275 ; 5170.990243340624 ; 2411586.1567257643 ; 548124.9657941051 ; 25228.000000000004
107 ; 25881.700620756244 ; 5170.990243340624 ; 2437368.156572307 ; 553295.9560374457 ; 25466.000000000004
108 ; 25550.602560287218 ; 5170.990243340624 ; 2463249.857193063 ; 558466.9462807863 ; 25704.000000000004
109 ; 25290.56850464886 ; 5170.990243340624 ; 2488800.4597533504 ; 563637.9365241269 ; 25942.000000000004
110 ; 25177.9353335426 ; 5170.990243340624 ; 2514091.028257999 ; 568808.9267674675 ; 26180.000000000004
111 ; 25131.1508853837 ; 5170.990243340624 ; 2539268.9635915416 ; 573979.9170108081 ; 26418.000000000004
112 ; 25042.842895842998 ; 5170.990243340624 ; 2564400.114476925 ; 579150.9072541487 ; 26656.000000000004
113 ; 24834.663365349195 ; 5170.990243340624 ; 2589442.9573727683 ; 584321.8974974893 ; 26894.000000000004
114 ; 24615.10061346766 ; 5170.990243340624 ; 2614277.6207381175 ; 589492.88774083 ; 27132.000000000004
115 ; 24300.777285151325 ; 5170.990243340624 ; 2638892.7213515854 ; 594663.8779841706 ; 27370.000000000004
116 ; 24079.971881051024 ; 5170.990243340624 ; 2663193.4986367365 ; 599834.8682275112 ; 27608.000000000004
117 ; 24185.781173757543 ; 5170.990243340624 ; 2687273.4705177876 ; 605005.8584708518 ; 27846.000000000004
118 ; 23682.19912296305 ; 5170.990243340624 ; 2711459.2516915454 ; 610176.8487141924 ; 28084.000000000004
119 ; 23610.942747372756 ; 5170.990243340624 ; 2735141.4508145084 ; 615347.838957533 ; 28322.000000000004
120 ; 23377.503164238697 ; 5170.990243340624 ; 2758752.393561881 ; 620518.8292008736 ; 28560.000000000004
121 ; 23229.125913246397 ; 5170.990243340624 ; 2782129.89672612 ; 625689.8194442142 ; 28798.000000000004
122 ; 22793.42169615969 ; 5170.990243340624 ; 2805359.0226393663 ; 630860.8096875548 ; 29036.000000000004
123 ; 22553.251458761 ; 5170.990243340624 ; 2828152.444335526 ; 636031.7999308954 ; 29274.000000000004
124 ; 22353.442123675482 ; 5170.990243340624 ; 2850705.6957942867 ; 641202.790174236 ; 29512.000000000004
125 ; 22169.688038302116 ; 5170.990243340624 ; 2873059.137917962 ; 646373.7804175767 ; 29750.000000000004
126 ; 21969.147426698462 ; 5170.990243340624 ; 2895228.825956264 ; 651544.7706609173 ; 29988.000000000004
127 ; 21794.975809916636 ; 5170.990243340624 ; 2917197.9733829624 ; 656715.7609042579 ; 30226.000000000004
128 ; 21509.495898109162 ; 5170.990243340624 ; 2938992.9491928793 ; 661886.7511475985 ; 30464.000000000004
129 ; 20997.360312812732 ; 5170.990243340624 ; 2960502.4450909887 ; 667057.7413909391 ; 30702.000000000004
130 ; 21043.26419496051 ; 5170.990243340624 ; 2981499.8054038016 ; 672228.7316342797 ; 30940.000000000004
131 ; 20532.709444633172 ; 5170.990243340624 ; 3002543.0695987623 ; 677399.7218776203 ; 31178.000000000004
132 ; 20237.462103955888 ; 5170.990243340624 ; 3023075.7790433955 ; 682570.7121209609 ; 31416.000000000004
133 ; 20206.488548021072 ; 5170.990243340624 ; 3043313.2411473515 ; 687741.7023643015 ; 31654.000000000004
134 ; 19687.607227490407 ; 5170.990243340624 ; 3063519.7296953727 ; 692912.6926076422 ; 31892.000000000004
135 ; 19533.99657626148 ; 5170.990243340624 ; 3083207.336922863 ; 698083.6828509828 ; 32130.000000000004
136 ; 19060.145054964218 ; 5170.990243340624 ; 3102741.3334991247 ; 703254.6730943234 ; 32368.000000000004
137 ; 18826.080588859408 ; 5170.990243340624 ; 3121801.478554089 ; 708425.663337664 ; 32606.000000000004
138 ; 18574.415591874847 ; 5170.990243340624 ; 3140627.5591429486 ; 713596.6535810046 ; 32844.00000000001
139 ; 18296.61508311898 ; 5170.990243340624 ; 3159201.974734823 ; 718767.6438243452 ; 33082.00000000001
140 ; 17842.474664513353 ; 5170.990243340624 ; 3177498.589817942 ; 723938.6340676858 ; 33320.00000000001
141 ; 17602.903082310713 ; 5170.990243340624 ; 3195341.0644824556 ; 729109.6243110264 ; 33558.00000000001
142 ; 17255.77241118196 ; 5170.990243340624 ; 3212943.9675647663 ; 734280.614554367 ; 33796.00000000001
143 ; 17029.85991581467 ; 5170.990243340624 ; 3230199.7399759484 ; 739451.6047977076 ; 34034.00000000001
144 ; 16351.839180763105 ; 5170.990243340624 ; 3247229.599891763 ; 744622.5950410482 ; 34272.00000000001
145 ; 16610.678609628314 ; 5170.990243340624 ; 3263581.439072526 ; 749793.5852843889 ; 34510.00000000001
146 ; 16262.381307111067 ; 5170.990243340624 ; 3280192.1176821543 ; 754964.5755277295 ; 34748.00000000001
147 ; 16291.69412803145 ; 5170.990243340624 ; 3296454.4989892654 ; 760135.5657710701 ; 34986.00000000001
148 ; 15959.424193516277 ; 5170.990243340624 ; 3312746.193117297 ; 765306.5560144107 ; 35224.00000000001
149 ; 16092.022905218773 ; 5170.990243340624 ; 3328705.617310813 ; 770477.5462577513 ; 35462.00000000001
150 ; 15962.989449719546 ; 5170.990243340624 ; 3344797.640216032 ; 775648.5365010919 ; 35700.00000000001
151 ; 15530.511683394358 ; 5170.990243340624 ; 3360760.6296657515 ; 780819.5267444325 ; 35938.00000000001
152 ; 15523.991722053896 ; 5170.990243340624 ; 3376291.1413491457 ; 785990.5169877731 ; 36176.00000000001
153 ; 15596.708747701654 ; 5170.990243340624 ; 3391815.1330711995 ; 791161.5072311137 ; 36414.00000000001
154 ; 15474.791252670668 ; 5170.990243340624 ; 3407411.8418189012 ; 796332.4974744543 ; 36652.00000000001
155 ; 15286.673487568973 ; 5170.990243340624 ; 3422886.633071572 ; 801503.487717795 ; 36890.00000000001
156 ; 15281.026638836376 ; 5170.990243340624 ; 3438173.306559141 ; 806674.4779611356 ; 37128.00000000001
157 ; 15184.77938838731 ; 5170.990243340624 ; 3453454.3331979774 ; 811845.4682044762 ; 37366.00000000001
158 ; 14823.740599751442 ; 5170.990243340624 ; 3468639.1125863646 ; 817016.4584478168 ; 37604.00000000001
159 ; 14784.941919799228 ; 5170.990243340624 ; 3483462.853186116 ; 822187.4486911574 ; 37842.00000000001
160 ; 14544.726422452508 ; 5170.990243340624 ; 3498247.7951059155 ; 827358.438934498 ; 38080.00000000001
161 ; 14624.068366307247 ; 5170.990243340624 ; 3512792.521528368 ; 832529.4291778386 ; 38318.00000000001
162 ; 14563.87880263851 ; 5170.990243340624 ; 3527416.589894675 ; 837700.4194211792 ; 38556.00000000001
163 ; 14206.92677865691 ; 5170.990243340624 ; 3541980.4686973137 ; 842871.4096645198 ; 38794.00000000001
164 ; 14155.7657566495 ; 5170.990243340624 ; 3556187.3954759706 ; 848042.3999078604 ; 39032.00000000001
165 ; 13883.818291537937 ; 5170.990243340624 ; 3570343.16123262 ; 853213.390151201 ; 39270.00000000001
166 ; 13777.20559952512 ; 5170.990243340624 ; 3584226.979524158 ; 858384.3803945417 ; 39508.00000000001
167 ; 13769.461579222716 ; 5170.990243340624 ; 3598004.185123683 ; 863555.3706378823 ; 39746.00000000001
168 ; 13577.564348393831 ; 5170.990243340624 ; 3611773.6467029057 ; 868726.3608812229 ; 39984.00000000001
169 ; 13325.456260350702 ; 5170.990243340624 ; 3625351.2110512997 ; 873897.3511245635 ; 40222.00000000001
170 ; 13181.435524060924 ; 5170.990243340624 ; 3638676.6673116502 ; 879068.3413679041 ; 40460.00000000001
171 ; 13119.477646853069 ; 5170.990243340624 ; 3651858.102835711 ; 884239.3316112447 ; 40698.00000000001
172 ; 12851.149438246612 ; 5170.990243340624 ; 3664977.580482564 ; 889410.3218545853 ; 40936.00000000001
173 ; 12879.390983498846 ; 5170.990243340624 ; 3677828.7299208106 ; 894581.3120979259 ; 41174.00000000001
174 ; 12777.572596363776 ; 5170.990243340624 ; 3690708.120904309 ; 899752.3023412665 ; 41412.00000000001
175 ; 12832.056094572465 ; 5170.990243340624 ; 3703485.693500673 ; 904923.2925846071 ; 41650.00000000001
176 ; 12797.079214029183 ; 5170.990243340624 ; 3716317.7495952453 ; 910094.2828279478 ; 41888.00000000001
177 ; 12840.978035387821 ; 5170.990243340624 ; 3729114.8288092744 ; 915265.2730712884 ; 42126.00000000001
178 ; 12935.760057869236 ; 5170.990243340624 ; 3741955.8068446624 ; 920436.263314629 ; 42364.00000000001
179 ; 12928.73233933377 ; 5170.990243340624 ; 3754891.566902532 ; 925607.2535579696 ; 42602.00000000001
180 ; 12814.286713468578 ; 5170.990243340624 ; 3767820.2992418655 ; 930778.2438013102 ; 42840.00000000001
181 ; 13077.836663310352 ; 5170.990243340624 ; 3780634.585955334 ; 935949.2340446508 ; 43078.00000000001
182 ; 12877.68071374007 ; 5170.990243340624 ; 3793712.4226186443 ; 941120.2242879914 ; 43316.00000000001
183 ; 13085.094378479698 ; 5170.990243340624 ; 3806590.1033323845 ; 946291.214531332 ; 43554.00000000001
184 ; 13204.183964971702 ; 5170.990243340624 ; 3819675.1977108642 ; 951462.2047746726 ; 43792.00000000001
185 ; 13166.027582843286 ; 5170.990243340624 ; 3832879.381675836 ; 956633.1950180132 ; 44030.00000000001
186 ; 12984.80081054267 ; 5170.990243340624 ; 3846045.4092586795 ; 961804.1852613539 ; 44268.00000000001
