CSV File for the City 1 on Day 184
1 - Minute m 
2 - Power Consumed at minute m 
3 - Power Produced at minute m 
4 - Energy Consumed since the beginning of the day 
5 - Energy Produced since the beginning of the day 
6 - Energy Lost since the beginning of the day on lines starting from the city
 
0 ; 6133.8808941036805 ; 3435.8452779454965 ; 0.0 ; 0.0 ; 0.0
1 ; 6680.095026256137 ; 3435.8452779454965 ; 6133.8808941036805 ; 3435.8452779454965 ; 238.00000000000003
2 ; 7360.139677428325 ; 3435.8452779454965 ; 12813.975920359819 ; 6871.690555890993 ; 476.00000000000006
3 ; 7727.745236080946 ; 3435.8452779454965 ; 20174.115597788143 ; 10307.53583383649 ; 714.0000000000001
4 ; 8515.24973913747 ; 3435.8452779454965 ; 27901.86083386909 ; 13743.381111781986 ; 952.0000000000001
5 ; 8973.083696108153 ; 3435.8452779454965 ; 36417.11057300656 ; 17179.226389727482 ; 1190.0000000000002
6 ; 9416.271968503179 ; 3435.8452779454965 ; 45390.19426911471 ; 20615.07166767298 ; 1428.0000000000002
7 ; 10013.525584447603 ; 3435.8452779454965 ; 54806.46623761789 ; 24050.916945618475 ; 1666.0000000000002
8 ; 10470.317114595393 ; 3435.8452779454965 ; 64819.991822065494 ; 27486.762223563972 ; 1904.0000000000002
9 ; 11006.290058277797 ; 3435.8452779454965 ; 75290.30893666089 ; 30922.60750150947 ; 2142.0000000000005
10 ; 11447.324515962897 ; 3435.8452779454965 ; 86296.59899493869 ; 34358.452779454965 ; 2380.0000000000005
11 ; 12048.759802610437 ; 3435.8452779454965 ; 97743.92351090159 ; 37794.29805740046 ; 2618.0000000000005
12 ; 12594.68482766745 ; 3435.8452779454965 ; 109792.68331351203 ; 41230.14333534596 ; 2856.0000000000005
13 ; 12799.937861407505 ; 3435.8452779454965 ; 122387.36814117947 ; 44665.988613291454 ; 3094.0000000000005
14 ; 13396.808894422686 ; 3435.8452779454965 ; 135187.30600258696 ; 48101.83389123695 ; 3332.0000000000005
15 ; 14002.846804769484 ; 3435.8452779454965 ; 148584.11489700965 ; 51537.67916918245 ; 3570.0000000000005
16 ; 14361.991918305977 ; 3435.8452779454965 ; 162586.96170177913 ; 54973.524447127944 ; 3808.0000000000005
17 ; 14766.021747940144 ; 3435.8452779454965 ; 176948.9536200851 ; 58409.36972507344 ; 4046.0000000000005
18 ; 15242.111724842864 ; 3435.8452779454965 ; 191714.97536802525 ; 61845.21500301894 ; 4284.000000000001
19 ; 15867.416487970913 ; 3435.8452779454965 ; 206957.0870928681 ; 65281.06028096443 ; 4522.000000000001
20 ; 16129.98094920549 ; 3435.8452779454965 ; 222824.50358083902 ; 68716.90555890993 ; 4760.000000000001
21 ; 16620.99465470243 ; 3435.8452779454965 ; 238954.48453004452 ; 72152.75083685543 ; 4998.000000000001
22 ; 17019.29087758515 ; 3435.8452779454965 ; 255575.47918474695 ; 75588.59611480092 ; 5236.000000000001
23 ; 17614.392706507304 ; 3435.8452779454965 ; 272594.7700623321 ; 79024.44139274642 ; 5474.000000000001
24 ; 17782.63351803442 ; 3435.8452779454965 ; 290209.1627688394 ; 82460.28667069192 ; 5712.000000000001
25 ; 18396.223690174076 ; 3435.8452779454965 ; 307991.7962868738 ; 85896.13194863741 ; 5950.000000000001
26 ; 18538.881787160564 ; 3435.8452779454965 ; 326388.01997704786 ; 89331.97722658291 ; 6188.000000000001
27 ; 19099.636071633213 ; 3435.8452779454965 ; 344926.90176420845 ; 92767.8225045284 ; 6426.000000000001
28 ; 19405.07363957091 ; 3435.8452779454965 ; 364026.53783584165 ; 96203.6677824739 ; 6664.000000000001
29 ; 19841.947630863106 ; 3435.8452779454965 ; 383431.61147541256 ; 99639.5130604194 ; 6902.000000000001
30 ; 20097.977171056267 ; 3435.8452779454965 ; 403273.5591062757 ; 103075.3583383649 ; 7140.000000000001
31 ; 20739.367643732792 ; 3435.8452779454965 ; 423371.53627733194 ; 106511.20361631039 ; 7378.000000000001
32 ; 20973.321472305055 ; 3435.8452779454965 ; 444110.90392106475 ; 109947.04889425589 ; 7616.000000000001
33 ; 21307.36771776292 ; 3435.8452779454965 ; 465084.2253933698 ; 113382.89417220138 ; 7854.000000000001
34 ; 21689.684235639314 ; 3435.8452779454965 ; 486391.59311113274 ; 116818.73945014688 ; 8092.000000000001
35 ; 21871.646044160305 ; 3435.8452779454965 ; 508081.277346772 ; 120254.58472809238 ; 8330.000000000002
36 ; 22243.82708695304 ; 3435.8452779454965 ; 529952.9233909324 ; 123690.43000603787 ; 8568.000000000002
37 ; 22683.439922639325 ; 3435.8452779454965 ; 552196.7504778854 ; 127126.27528398337 ; 8806.000000000002
38 ; 22856.493802671277 ; 3435.8452779454965 ; 574880.1904005246 ; 130562.12056192887 ; 9044.000000000002
39 ; 23242.453410608952 ; 3435.8452779454965 ; 597736.684203196 ; 133997.96583987435 ; 9282.000000000002
40 ; 23488.770909113184 ; 3435.8452779454965 ; 620979.1376138049 ; 137433.81111781986 ; 9520.000000000002
41 ; 23808.352179112604 ; 3435.8452779454965 ; 644467.9085229181 ; 140869.65639576537 ; 9758.000000000002
42 ; 24034.608297173167 ; 3435.8452779454965 ; 668276.2607020307 ; 144305.50167371088 ; 9996.000000000002
43 ; 24201.932262391256 ; 3435.8452779454965 ; 692310.8689992039 ; 147741.3469516564 ; 10234.000000000002
44 ; 24647.333712488762 ; 3435.8452779454965 ; 716512.8012615951 ; 151177.1922296019 ; 10472.000000000002
45 ; 24952.78751600213 ; 3435.8452779454965 ; 741160.1349740839 ; 154613.03750754741 ; 10710.000000000002
46 ; 25177.997013937602 ; 3435.8452779454965 ; 766112.9224900859 ; 158048.88278549293 ; 10948.000000000002
47 ; 25238.01262275108 ; 3435.8452779454965 ; 791290.9195040235 ; 161484.72806343844 ; 11186.000000000002
48 ; 25795.609445237293 ; 3435.8452779454965 ; 816528.9321267746 ; 164920.57334138395 ; 11424.000000000002
49 ; 25874.78543387392 ; 3435.8452779454965 ; 842324.5415720119 ; 168356.41861932946 ; 11662.000000000002
50 ; 26280.123312611406 ; 3435.8452779454965 ; 868199.3270058858 ; 171792.26389727497 ; 11900.000000000002
51 ; 26382.054176741924 ; 3435.8452779454965 ; 894479.4503184971 ; 175228.10917522048 ; 12138.000000000002
52 ; 26495.039438084244 ; 3435.8452779454965 ; 920861.5044952391 ; 178663.954453166 ; 12376.000000000002
53 ; 26829.962628715915 ; 3435.8452779454965 ; 947356.5439333234 ; 182099.7997311115 ; 12614.000000000002
54 ; 27087.580767991058 ; 3435.8452779454965 ; 974186.5065620393 ; 185535.645009057 ; 12852.000000000002
55 ; 27158.712125497535 ; 3435.8452779454965 ; 1001274.0873300303 ; 188971.49028700253 ; 13090.000000000002
56 ; 27194.485287444822 ; 3435.8452779454965 ; 1028432.7994555278 ; 192407.33556494804 ; 13328.000000000002
57 ; 27507.81008446803 ; 3435.8452779454965 ; 1055627.2847429726 ; 195843.18084289355 ; 13566.000000000002
58 ; 27825.01782319239 ; 3435.8452779454965 ; 1083135.0948274406 ; 199279.02612083906 ; 13804.000000000002
59 ; 27855.714517140623 ; 3435.8452779454965 ; 1110960.1126506329 ; 202714.87139878457 ; 14042.000000000002
60 ; 28293.747003270648 ; 3435.8452779454965 ; 1138815.8271677734 ; 206150.71667673008 ; 14280.000000000002
61 ; 28189.10886408744 ; 3435.8452779454965 ; 1167109.574171044 ; 209586.5619546756 ; 14518.000000000002
62 ; 28317.788965363703 ; 3435.8452779454965 ; 1195298.6830351313 ; 213022.4072326211 ; 14756.000000000002
63 ; 28367.342885522856 ; 3435.8452779454965 ; 1223616.472000495 ; 216458.2525105666 ; 14994.000000000002
64 ; 28815.177139201238 ; 3435.8452779454965 ; 1251983.814886018 ; 219894.09778851212 ; 15232.000000000002
65 ; 28862.382451267917 ; 3435.8452779454965 ; 1280798.9920252191 ; 223329.94306645764 ; 15470.000000000002
66 ; 28930.330266777968 ; 3435.8452779454965 ; 1309661.374476487 ; 226765.78834440315 ; 15708.000000000002
67 ; 28914.594613823752 ; 3435.8452779454965 ; 1338591.704743265 ; 230201.63362234866 ; 15946.000000000002
68 ; 29113.828971143317 ; 3435.8452779454965 ; 1367506.2993570887 ; 233637.47890029417 ; 16184.000000000002
69 ; 29301.443066762084 ; 3435.8452779454965 ; 1396620.128328232 ; 237073.32417823968 ; 16422.000000000004
70 ; 29192.228221238685 ; 3435.8452779454965 ; 1425921.5713949942 ; 240509.1694561852 ; 16660.000000000004
71 ; 29548.138853520086 ; 3435.8452779454965 ; 1455113.7996162327 ; 243945.0147341307 ; 16898.000000000004
72 ; 29571.305518500692 ; 3435.8452779454965 ; 1484661.938469753 ; 247380.8600120762 ; 17136.000000000004
73 ; 29581.233747339804 ; 3435.8452779454965 ; 1514233.2439882536 ; 250816.70529002172 ; 17374.000000000004
74 ; 29571.289421581754 ; 3435.8452779454965 ; 1543814.4777355934 ; 254252.55056796724 ; 17612.000000000004
75 ; 29840.983779712893 ; 3435.8452779454965 ; 1573385.767157175 ; 257688.39584591275 ; 17850.000000000004
76 ; 29691.743530542233 ; 3435.8452779454965 ; 1603226.750936888 ; 261124.24112385826 ; 18088.000000000004
77 ; 29695.463410980137 ; 3435.8452779454965 ; 1632918.49446743 ; 264560.08640180377 ; 18326.000000000004
78 ; 29698.916216768033 ; 3435.8452779454965 ; 1662613.9578784101 ; 267995.9316797493 ; 18564.000000000004
79 ; 29886.237808101752 ; 3435.8452779454965 ; 1692312.8740951782 ; 271431.7769576948 ; 18802.000000000004
80 ; 29921.873059931553 ; 3435.8452779454965 ; 1722199.11190328 ; 274867.6222356403 ; 19040.000000000004
81 ; 29900.03220704543 ; 3435.8452779454965 ; 1752120.9849632115 ; 278303.4675135858 ; 19278.000000000004
82 ; 29958.127024562298 ; 3435.8452779454965 ; 1782021.017170257 ; 281739.3127915313 ; 19516.000000000004
83 ; 30063.70289998353 ; 3435.8452779454965 ; 1811979.1441948193 ; 285175.15806947683 ; 19754.000000000004
84 ; 29948.355783341427 ; 3435.8452779454965 ; 1842042.847094803 ; 288611.00334742235 ; 19992.000000000004
85 ; 29866.13582986055 ; 3435.8452779454965 ; 1871991.2028781443 ; 292046.84862536786 ; 20230.000000000004
86 ; 29715.917054282003 ; 3435.8452779454965 ; 1901857.338708005 ; 295482.69390331337 ; 20468.000000000004
87 ; 29808.438367674942 ; 3435.8452779454965 ; 1931573.255762287 ; 298918.5391812589 ; 20706.000000000004
88 ; 29736.906840953765 ; 3435.8452779454965 ; 1961381.694129962 ; 302354.3844592044 ; 20944.000000000004
89 ; 29853.745093503552 ; 3435.8452779454965 ; 1991118.6009709158 ; 305790.2297371499 ; 21182.000000000004
90 ; 29747.35913661841 ; 3435.8452779454965 ; 2020972.3460644193 ; 309226.0750150954 ; 21420.000000000004
91 ; 29555.635280214443 ; 3435.8452779454965 ; 2050719.7052010377 ; 312661.9202930409 ; 21658.000000000004
92 ; 29507.178911715426 ; 3435.8452779454965 ; 2080275.3404812522 ; 316097.76557098643 ; 21896.000000000004
93 ; 29464.6195807638 ; 3435.8452779454965 ; 2109782.5193929677 ; 319533.61084893194 ; 22134.000000000004
94 ; 29550.32794553093 ; 3435.8452779454965 ; 2139247.1389737315 ; 322969.45612687746 ; 22372.000000000004
95 ; 29288.999823064063 ; 3435.8452779454965 ; 2168797.4669192624 ; 326405.30140482297 ; 22610.000000000004
96 ; 29309.489158784894 ; 3435.8452779454965 ; 2198086.4667423265 ; 329841.1466827685 ; 22848.000000000004
97 ; 29240.996365992236 ; 3435.8452779454965 ; 2227395.9559011115 ; 333276.991960714 ; 23086.000000000004
98 ; 29212.401263402277 ; 3435.8452779454965 ; 2256636.952267104 ; 336712.8372386595 ; 23324.000000000004
99 ; 28981.926813548835 ; 3435.8452779454965 ; 2285849.353530506 ; 340148.682516605 ; 23562.000000000004
100 ; 28843.900204150596 ; 3435.8452779454965 ; 2314831.280344055 ; 343584.5277945505 ; 23800.000000000004
101 ; 28502.634870864327 ; 3435.8452779454965 ; 2343675.1805482055 ; 347020.37307249603 ; 24038.000000000004
102 ; 28438.442986877446 ; 3435.8452779454965 ; 2372177.81541907 ; 350456.21835044154 ; 24276.000000000004
103 ; 28560.415449449996 ; 3435.8452779454965 ; 2400616.2584059476 ; 353892.06362838706 ; 24514.000000000004
104 ; 28252.509961222888 ; 3435.8452779454965 ; 2429176.6738553974 ; 357327.90890633257 ; 24752.000000000004
105 ; 27976.5768894645 ; 3435.8452779454965 ; 2457429.18381662 ; 360763.7541842781 ; 24990.000000000004
106 ; 27835.05475214913 ; 3435.8452779454965 ; 2485405.760706085 ; 364199.5994622236 ; 25228.000000000004
107 ; 27778.692445080043 ; 3435.8452779454965 ; 2513240.815458234 ; 367635.4447401691 ; 25466.000000000004
108 ; 27482.693626248296 ; 3435.8452779454965 ; 2541019.507903314 ; 371071.2900181146 ; 25704.000000000004
109 ; 27380.079095578454 ; 3435.8452779454965 ; 2568502.2015295625 ; 374507.1352960601 ; 25942.000000000004
110 ; 27221.43816821881 ; 3435.8452779454965 ; 2595882.2806251408 ; 377942.98057400563 ; 26180.000000000004
111 ; 26958.414512920295 ; 3435.8452779454965 ; 2623103.7187933596 ; 381378.82585195114 ; 26418.000000000004
112 ; 26807.39548717055 ; 3435.8452779454965 ; 2650062.13330628 ; 384814.67112989665 ; 26656.000000000004
113 ; 26502.863011590704 ; 3435.8452779454965 ; 2676869.5287934504 ; 388250.51640784217 ; 26894.000000000004
114 ; 26169.823737715014 ; 3435.8452779454965 ; 2703372.391805041 ; 391686.3616857877 ; 27132.000000000004
115 ; 26130.655807897747 ; 3435.8452779454965 ; 2729542.215542756 ; 395122.2069637332 ; 27370.000000000004
116 ; 25679.657594557528 ; 3435.8452779454965 ; 2755672.871350654 ; 398558.0522416787 ; 27608.000000000004
117 ; 25741.777039084496 ; 3435.8452779454965 ; 2781352.5289452113 ; 401993.8975196242 ; 27846.000000000004
118 ; 25449.344033552363 ; 3435.8452779454965 ; 2807094.305984296 ; 405429.7427975697 ; 28084.000000000004
119 ; 24954.47930121639 ; 3435.8452779454965 ; 2832543.6500178482 ; 408865.58807551523 ; 28322.000000000004
120 ; 24931.668813305438 ; 3435.8452779454965 ; 2857498.129319065 ; 412301.43335346074 ; 28560.000000000004
121 ; 24618.684008418342 ; 3435.8452779454965 ; 2882429.79813237 ; 415737.27863140625 ; 28798.000000000004
122 ; 24445.732830895475 ; 3435.8452779454965 ; 2907048.4821407883 ; 419173.12390935177 ; 29036.000000000004
123 ; 24070.88966054704 ; 3435.8452779454965 ; 2931494.214971684 ; 422608.9691872973 ; 29274.000000000004
124 ; 23737.39210406779 ; 3435.8452779454965 ; 2955565.104632231 ; 426044.8144652428 ; 29512.000000000004
125 ; 23512.39835858983 ; 3435.8452779454965 ; 2979302.496736299 ; 429480.6597431883 ; 29750.000000000004
126 ; 23140.103615706455 ; 3435.8452779454965 ; 3002814.8950948888 ; 432916.5050211338 ; 29988.000000000004
127 ; 22978.252174299923 ; 3435.8452779454965 ; 3025954.998710595 ; 436352.3502990793 ; 30226.000000000004
128 ; 22719.666297831867 ; 3435.8452779454965 ; 3048933.250884895 ; 439788.19557702483 ; 30464.000000000004
129 ; 22117.173536671253 ; 3435.8452779454965 ; 3071652.9171827273 ; 443224.04085497034 ; 30702.000000000004
130 ; 21852.76213410946 ; 3435.8452779454965 ; 3093770.0907193986 ; 446659.88613291585 ; 30940.000000000004
131 ; 21615.283305524852 ; 3435.8452779454965 ; 3115622.852853508 ; 450095.73141086136 ; 31178.000000000004
132 ; 21076.833548463703 ; 3435.8452779454965 ; 3137238.136159033 ; 453531.5766888069 ; 31416.000000000004
133 ; 20931.534139471663 ; 3435.8452779454965 ; 3158314.969707497 ; 456967.4219667524 ; 31654.000000000004
134 ; 20569.791818551086 ; 3435.8452779454965 ; 3179246.5038469685 ; 460403.2672446979 ; 31892.000000000004
135 ; 20189.31160877309 ; 3435.8452779454965 ; 3199816.29566552 ; 463839.1125226434 ; 32130.000000000004
136 ; 19731.927972046164 ; 3435.8452779454965 ; 3220005.607274293 ; 467274.9578005889 ; 32368.000000000004
137 ; 19271.520029659998 ; 3435.8452779454965 ; 3239737.535246339 ; 470710.80307853443 ; 32606.000000000004
138 ; 19080.41961945379 ; 3435.8452779454965 ; 3259009.055275999 ; 474146.64835647994 ; 32844.00000000001
139 ; 18330.853343823146 ; 3435.8452779454965 ; 3278089.4748954526 ; 477582.49363442545 ; 33082.00000000001
140 ; 18173.132954327582 ; 3435.8452779454965 ; 3296420.3282392756 ; 481018.33891237096 ; 33320.00000000001
141 ; 17793.996009803843 ; 3435.8452779454965 ; 3314593.461193603 ; 484454.1841903165 ; 33558.00000000001
142 ; 17397.2595023556 ; 3435.8452779454965 ; 3332387.457203407 ; 487890.029468262 ; 33796.00000000001
143 ; 17079.360002889753 ; 3435.8452779454965 ; 3349784.7167057623 ; 491325.8747462075 ; 34034.00000000001
144 ; 16463.130275690204 ; 3435.8452779454965 ; 3366864.076708652 ; 494761.720024153 ; 34272.00000000001
145 ; 16449.778937793217 ; 3435.8452779454965 ; 3383327.206984342 ; 498197.5653020985 ; 34510.00000000001
146 ; 16188.746114326592 ; 3435.8452779454965 ; 3399776.9859221354 ; 501633.41058004403 ; 34748.00000000001
147 ; 16174.963696633378 ; 3435.8452779454965 ; 3415965.732036462 ; 505069.25585798954 ; 34986.00000000001
148 ; 15952.768497536357 ; 3435.8452779454965 ; 3432140.6957330955 ; 508505.10113593505 ; 35224.00000000001
149 ; 15882.757334887054 ; 3435.8452779454965 ; 3448093.464230632 ; 511940.94641388056 ; 35462.00000000001
150 ; 15670.893078280147 ; 3435.8452779454965 ; 3463976.221565519 ; 515376.7916918261 ; 35700.00000000001
151 ; 15451.176547261204 ; 3435.8452779454965 ; 3479647.114643799 ; 518812.6369697716 ; 35938.00000000001
152 ; 15602.871008017291 ; 3435.8452779454965 ; 3495098.2911910606 ; 522248.4822477171 ; 36176.00000000001
153 ; 15397.988492761164 ; 3435.8452779454965 ; 3510701.1621990777 ; 525684.3275256626 ; 36414.00000000001
154 ; 15277.26298226505 ; 3435.8452779454965 ; 3526099.150691839 ; 529120.1728036081 ; 36652.00000000001
155 ; 15093.225061045823 ; 3435.8452779454965 ; 3541376.413674104 ; 532556.0180815536 ; 36890.00000000001
156 ; 15019.249386073454 ; 3435.8452779454965 ; 3556469.63873515 ; 535991.8633594991 ; 37128.00000000001
157 ; 14755.273953364387 ; 3435.8452779454965 ; 3571488.8881212235 ; 539427.7086374447 ; 37366.00000000001
158 ; 14761.74469962056 ; 3435.8452779454965 ; 3586244.162074588 ; 542863.5539153902 ; 37604.00000000001
159 ; 14404.434574513658 ; 3435.8452779454965 ; 3601005.9067742084 ; 546299.3991933357 ; 37842.00000000001
160 ; 14243.779271070143 ; 3435.8452779454965 ; 3615410.341348722 ; 549735.2444712812 ; 38080.00000000001
161 ; 14244.610544144005 ; 3435.8452779454965 ; 3629654.120619792 ; 553171.0897492267 ; 38318.00000000001
162 ; 14056.810243898775 ; 3435.8452779454965 ; 3643898.731163936 ; 556606.9350271722 ; 38556.00000000001
163 ; 13902.14596640646 ; 3435.8452779454965 ; 3657955.541407835 ; 560042.7803051177 ; 38794.00000000001
164 ; 13674.765142583668 ; 3435.8452779454965 ; 3671857.6873742417 ; 563478.6255830632 ; 39032.00000000001
165 ; 13434.036524393714 ; 3435.8452779454965 ; 3685532.4525168254 ; 566914.4708610087 ; 39270.00000000001
166 ; 13229.875549139917 ; 3435.8452779454965 ; 3698966.489041219 ; 570350.3161389543 ; 39508.00000000001
167 ; 13215.93460351749 ; 3435.8452779454965 ; 3712196.364590359 ; 573786.1614168998 ; 39746.00000000001
168 ; 13038.878805975526 ; 3435.8452779454965 ; 3725412.2991938763 ; 577222.0066948453 ; 39984.00000000001
169 ; 12792.534050808126 ; 3435.8452779454965 ; 3738451.1779998518 ; 580657.8519727908 ; 40222.00000000001
170 ; 12699.158771669296 ; 3435.8452779454965 ; 3751243.71205066 ; 584093.6972507363 ; 40460.00000000001
171 ; 12513.30499863509 ; 3435.8452779454965 ; 3763942.8708223295 ; 587529.5425286818 ; 40698.00000000001
172 ; 12520.469768845089 ; 3435.8452779454965 ; 3776456.175820965 ; 590965.3878066273 ; 40936.00000000001
173 ; 12068.496127520546 ; 3435.8452779454965 ; 3788976.64558981 ; 594401.2330845728 ; 41174.00000000001
174 ; 12177.513690121392 ; 3435.8452779454965 ; 3801045.1417173306 ; 597837.0783625183 ; 41412.00000000001
175 ; 12171.722558217407 ; 3435.8452779454965 ; 3813222.655407452 ; 601272.9236404639 ; 41650.00000000001
176 ; 12357.833782799587 ; 3435.8452779454965 ; 3825394.3779656696 ; 604708.7689184094 ; 41888.00000000001
177 ; 12286.933871262128 ; 3435.8452779454965 ; 3837752.211748469 ; 608144.6141963549 ; 42126.00000000001
178 ; 12453.08480186972 ; 3435.8452779454965 ; 3850039.1456197314 ; 611580.4594743004 ; 42364.00000000001
179 ; 12350.110053974982 ; 3435.8452779454965 ; 3862492.2304216013 ; 615016.3047522459 ; 42602.00000000001
180 ; 12463.205246442329 ; 3435.8452779454965 ; 3874842.3404755765 ; 618452.1500301914 ; 42840.00000000001
181 ; 12429.067435062118 ; 3435.8452779454965 ; 3887305.545722019 ; 621887.9953081369 ; 43078.00000000001
182 ; 12368.976091792889 ; 3435.8452779454965 ; 3899734.613157081 ; 625323.8405860824 ; 43316.00000000001
183 ; 12602.86090901076 ; 3435.8452779454965 ; 3912103.5892488738 ; 628759.6858640279 ; 43554.00000000001
184 ; 12665.210813209338 ; 3435.8452779454965 ; 3924706.4501578845 ; 632195.5311419734 ; 43792.00000000001
