CSV File for the City 1 on Day 135
1 - Minute m 
2 - Power Consumed at minute m 
3 - Power Produced at minute m 
4 - Energy Consumed since the beginning of the day 
5 - Energy Produced since the beginning of the day 
6 - Energy Lost since the beginning of the day on lines starting from the city
 
0 ; 10385.91750365122 ; 12157.3019553722 ; 0.0 ; 0.0 ; 0.0
1 ; 10819.580352567964 ; 12157.3019553722 ; 10385.91750365122 ; 12157.3019553722 ; 238.00000000000003
2 ; 11362.261703174874 ; 12157.3019553722 ; 21205.497856219183 ; 24314.6039107444 ; 476.00000000000006
3 ; 11660.67382481489 ; 12157.3019553722 ; 32567.759559394057 ; 36471.905866116605 ; 714.0000000000001
4 ; 11896.313437925584 ; 12157.3019553722 ; 44228.43338420895 ; 48629.2078214888 ; 952.0000000000001
5 ; 12429.462534187647 ; 12157.3019553722 ; 56124.74682213453 ; 60786.509776861 ; 1190.0000000000002
6 ; 12786.687540743476 ; 12157.3019553722 ; 68554.20935632219 ; 72943.8117322332 ; 1428.0000000000002
7 ; 13324.208311234628 ; 12157.3019553722 ; 81340.89689706566 ; 85101.1136876054 ; 1666.0000000000002
8 ; 13518.584379295256 ; 12157.3019553722 ; 94665.10520830029 ; 97258.41564297759 ; 1904.0000000000002
9 ; 13975.10438444091 ; 12157.3019553722 ; 108183.68958759554 ; 109415.71759834979 ; 2142.0000000000005
10 ; 14295.239144295896 ; 12157.3019553722 ; 122158.79397203645 ; 121573.01955372198 ; 2380.0000000000005
11 ; 14671.935386923646 ; 12157.3019553722 ; 136454.03311633234 ; 133730.32150909418 ; 2618.0000000000005
12 ; 15076.314870636825 ; 12157.3019553722 ; 151125.96850325598 ; 145887.6234644664 ; 2856.0000000000005
13 ; 15354.010465341535 ; 12157.3019553722 ; 166202.2833738928 ; 158044.9254198386 ; 3094.0000000000005
14 ; 15803.766538670656 ; 12157.3019553722 ; 181556.29383923433 ; 170202.22737521082 ; 3332.0000000000005
15 ; 16148.837108259831 ; 12157.3019553722 ; 197360.060377905 ; 182359.52933058303 ; 3570.0000000000005
16 ; 16457.01153097722 ; 12157.3019553722 ; 213508.89748616482 ; 194516.83128595524 ; 3808.0000000000005
17 ; 16770.389908428482 ; 12157.3019553722 ; 229965.90901714202 ; 206674.13324132745 ; 4046.0000000000005
18 ; 17171.360556989795 ; 12157.3019553722 ; 246736.2989255705 ; 218831.43519669966 ; 4284.000000000001
19 ; 17610.516247615953 ; 12157.3019553722 ; 263907.6594825603 ; 230988.73715207187 ; 4522.000000000001
20 ; 17560.042461308472 ; 12157.3019553722 ; 281518.17573017627 ; 243146.03910744408 ; 4760.000000000001
21 ; 18076.605480374026 ; 12157.3019553722 ; 299078.21819148475 ; 255303.3410628163 ; 4998.000000000001
22 ; 18462.00389114389 ; 12157.3019553722 ; 317154.82367185876 ; 267460.6430181885 ; 5236.000000000001
23 ; 18880.836195064912 ; 12157.3019553722 ; 335616.82756300265 ; 279617.9449735607 ; 5474.000000000001
24 ; 19047.345992247054 ; 12157.3019553722 ; 354497.66375806753 ; 291775.2469289329 ; 5712.000000000001
25 ; 19266.884181332192 ; 12157.3019553722 ; 373545.0097503146 ; 303932.5488843051 ; 5950.000000000001
26 ; 19530.61601818054 ; 12157.3019553722 ; 392811.8939316468 ; 316089.8508396773 ; 6188.000000000001
27 ; 19723.191747511828 ; 12157.3019553722 ; 412342.50994982733 ; 328247.15279504954 ; 6426.000000000001
28 ; 19930.764140610732 ; 12157.3019553722 ; 432065.7016973392 ; 340404.45475042175 ; 6664.000000000001
29 ; 20460.566044637024 ; 12157.3019553722 ; 451996.46583794995 ; 352561.75670579396 ; 6902.000000000001
30 ; 20651.672521364973 ; 12157.3019553722 ; 472457.03188258695 ; 364719.0586611662 ; 7140.000000000001
31 ; 20997.622877094313 ; 12157.3019553722 ; 493108.70440395194 ; 376876.3606165384 ; 7378.000000000001
32 ; 21223.9873680121 ; 12157.3019553722 ; 514106.32728104625 ; 389033.6625719106 ; 7616.000000000001
33 ; 21398.002138527456 ; 12157.3019553722 ; 535330.3146490584 ; 401190.9645272828 ; 7854.000000000001
34 ; 21530.104509743436 ; 12157.3019553722 ; 556728.3167875858 ; 413348.266482655 ; 8092.000000000001
35 ; 22071.271498345122 ; 12157.3019553722 ; 578258.4212973292 ; 425505.5684380272 ; 8330.000000000002
36 ; 22007.099065356997 ; 12157.3019553722 ; 600329.6927956743 ; 437662.87039339944 ; 8568.000000000002
37 ; 22136.15154388956 ; 12157.3019553722 ; 622336.7918610313 ; 449820.17234877165 ; 8806.000000000002
38 ; 22559.548207800028 ; 12157.3019553722 ; 644472.9434049209 ; 461977.47430414386 ; 9044.000000000002
39 ; 22705.23436734094 ; 12157.3019553722 ; 667032.4916127209 ; 474134.7762595161 ; 9282.000000000002
40 ; 23130.784437637496 ; 12157.3019553722 ; 689737.7259800618 ; 486292.0782148883 ; 9520.000000000002
41 ; 23104.045553305914 ; 12157.3019553722 ; 712868.5104176993 ; 498449.3801702605 ; 9758.000000000002
42 ; 23509.40502772553 ; 12157.3019553722 ; 735972.5559710052 ; 510606.6821256327 ; 9996.000000000002
43 ; 23727.491450624733 ; 12157.3019553722 ; 759481.9609987307 ; 522763.9840810049 ; 10234.000000000002
44 ; 23825.43666685438 ; 12157.3019553722 ; 783209.4524493555 ; 534921.2860363771 ; 10472.000000000002
45 ; 23948.155334237264 ; 12157.3019553722 ; 807034.8891162099 ; 547078.5879917493 ; 10710.000000000002
46 ; 24159.717027209423 ; 12157.3019553722 ; 830983.0444504472 ; 559235.8899471215 ; 10948.000000000002
47 ; 24264.84324164807 ; 12157.3019553722 ; 855142.7614776567 ; 571393.1919024937 ; 11186.000000000002
48 ; 24506.12093111269 ; 12157.3019553722 ; 879407.6047193047 ; 583550.4938578659 ; 11424.000000000002
49 ; 24733.23933014175 ; 12157.3019553722 ; 903913.7256504174 ; 595707.7958132381 ; 11662.000000000002
50 ; 24954.159584129116 ; 12157.3019553722 ; 928646.9649805592 ; 607865.0977686103 ; 11900.000000000002
51 ; 25055.840241677146 ; 12157.3019553722 ; 953601.1245646883 ; 620022.3997239826 ; 12138.000000000002
52 ; 25212.024242591182 ; 12157.3019553722 ; 978656.9648063654 ; 632179.7016793548 ; 12376.000000000002
53 ; 25307.687012414895 ; 12157.3019553722 ; 1003868.9890489567 ; 644337.003634727 ; 12614.000000000002
54 ; 25549.087766764067 ; 12157.3019553722 ; 1029176.6760613716 ; 656494.3055900992 ; 12852.000000000002
55 ; 25511.099882513652 ; 12157.3019553722 ; 1054725.7638281356 ; 668651.6075454714 ; 13090.000000000002
56 ; 25720.004197780734 ; 12157.3019553722 ; 1080236.8637106493 ; 680808.9095008436 ; 13328.000000000002
57 ; 25646.79994775897 ; 12157.3019553722 ; 1105956.86790843 ; 692966.2114562158 ; 13566.000000000002
58 ; 25753.4767152875 ; 12157.3019553722 ; 1131603.667856189 ; 705123.513411588 ; 13804.000000000002
59 ; 26036.78915985699 ; 12157.3019553722 ; 1157357.1445714764 ; 717280.8153669602 ; 14042.000000000002
60 ; 25998.881631272165 ; 12157.3019553722 ; 1183393.9337313334 ; 729438.1173223325 ; 14280.000000000002
61 ; 26333.66829112533 ; 12157.3019553722 ; 1209392.8153626055 ; 741595.4192777047 ; 14518.000000000002
62 ; 26252.59446356346 ; 12157.3019553722 ; 1235726.4836537307 ; 753752.7212330769 ; 14756.000000000002
63 ; 26562.819330709597 ; 12157.3019553722 ; 1261979.0781172942 ; 765910.0231884491 ; 14994.000000000002
64 ; 26605.435650198873 ; 12157.3019553722 ; 1288541.8974480038 ; 778067.3251438213 ; 15232.000000000002
65 ; 26656.548591134288 ; 12157.3019553722 ; 1315147.3330982027 ; 790224.6270991935 ; 15470.000000000002
66 ; 26767.466839385987 ; 12157.3019553722 ; 1341803.881689337 ; 802381.9290545657 ; 15708.000000000002
67 ; 26606.654859055376 ; 12157.3019553722 ; 1368571.348528723 ; 814539.2310099379 ; 15946.000000000002
68 ; 26847.153620632096 ; 12157.3019553722 ; 1395178.0033877783 ; 826696.5329653102 ; 16184.000000000002
69 ; 27022.428467556452 ; 12157.3019553722 ; 1422025.1570084104 ; 838853.8349206824 ; 16422.000000000004
70 ; 27124.93845529296 ; 12157.3019553722 ; 1449047.5854759668 ; 851011.1368760546 ; 16660.000000000004
71 ; 26806.54038094356 ; 12157.3019553722 ; 1476172.5239312598 ; 863168.4388314268 ; 16898.000000000004
72 ; 27087.66480211881 ; 12157.3019553722 ; 1502979.0643122033 ; 875325.740786799 ; 17136.000000000004
73 ; 27027.27430105157 ; 12157.3019553722 ; 1530066.7291143222 ; 887483.0427421712 ; 17374.000000000004
74 ; 27005.458838080132 ; 12157.3019553722 ; 1557094.0034153739 ; 899640.3446975434 ; 17612.000000000004
75 ; 26946.418542218424 ; 12157.3019553722 ; 1584099.462253454 ; 911797.6466529156 ; 17850.000000000004
76 ; 27221.385464145827 ; 12157.3019553722 ; 1611045.8807956723 ; 923954.9486082878 ; 18088.000000000004
77 ; 27253.40662310066 ; 12157.3019553722 ; 1638267.266259818 ; 936112.25056366 ; 18326.000000000004
78 ; 27025.025921622542 ; 12157.3019553722 ; 1665520.6728829187 ; 948269.5525190323 ; 18564.000000000004
79 ; 27209.579166219322 ; 12157.3019553722 ; 1692545.6988045413 ; 960426.8544744045 ; 18802.000000000004
80 ; 27265.30253766711 ; 12157.3019553722 ; 1719755.2779707606 ; 972584.1564297767 ; 19040.000000000004
81 ; 27226.824180668133 ; 12157.3019553722 ; 1747020.5805084277 ; 984741.4583851489 ; 19278.000000000004
82 ; 27207.787609928077 ; 12157.3019553722 ; 1774247.404689096 ; 996898.7603405211 ; 19516.000000000004
83 ; 27068.4272687713 ; 12157.3019553722 ; 1801455.192299024 ; 1009056.0622958933 ; 19754.000000000004
84 ; 27167.429964665793 ; 12157.3019553722 ; 1828523.6195677952 ; 1021213.3642512655 ; 19992.000000000004
85 ; 27257.584918888624 ; 12157.3019553722 ; 1855691.049532461 ; 1033370.6662066377 ; 20230.000000000004
86 ; 27012.881576714342 ; 12157.3019553722 ; 1882948.6344513495 ; 1045527.96816201 ; 20468.000000000004
87 ; 27157.7555613204 ; 12157.3019553722 ; 1909961.5160280638 ; 1057685.270117382 ; 20706.000000000004
88 ; 27040.69751135178 ; 12157.3019553722 ; 1937119.2715893842 ; 1069842.5720727541 ; 20944.000000000004
89 ; 26911.474627373274 ; 12157.3019553722 ; 1964159.9691007358 ; 1081999.8740281262 ; 21182.000000000004
90 ; 27069.367223298246 ; 12157.3019553722 ; 1991071.4437281091 ; 1094157.1759834983 ; 21420.000000000004
91 ; 27100.6278665964 ; 12157.3019553722 ; 2018140.8109514073 ; 1106314.4779388704 ; 21658.000000000004
92 ; 26763.783399455282 ; 12157.3019553722 ; 2045241.4388180037 ; 1118471.7798942425 ; 21896.000000000004
93 ; 26883.80289983912 ; 12157.3019553722 ; 2072005.222217459 ; 1130629.0818496146 ; 22134.000000000004
94 ; 26682.74593773674 ; 12157.3019553722 ; 2098889.025117298 ; 1142786.3838049867 ; 22372.000000000004
95 ; 26590.06505875068 ; 12157.3019553722 ; 2125571.771055035 ; 1154943.6857603588 ; 22610.000000000004
96 ; 26485.190067190804 ; 12157.3019553722 ; 2152161.8361137854 ; 1167100.987715731 ; 22848.000000000004
97 ; 26454.351113771052 ; 12157.3019553722 ; 2178647.026180976 ; 1179258.289671103 ; 23086.000000000004
98 ; 26494.597781189037 ; 12157.3019553722 ; 2205101.377294747 ; 1191415.591626475 ; 23324.000000000004
99 ; 26354.94942916035 ; 12157.3019553722 ; 2231595.9750759364 ; 1203572.8935818472 ; 23562.000000000004
100 ; 26409.095080949766 ; 12157.3019553722 ; 2257950.924505097 ; 1215730.1955372193 ; 23800.000000000004
101 ; 25973.995972699784 ; 12157.3019553722 ; 2284360.0195860467 ; 1227887.4974925914 ; 24038.000000000004
102 ; 26018.9153365489 ; 12157.3019553722 ; 2310334.0155587466 ; 1240044.7994479635 ; 24276.000000000004
103 ; 25945.27420205857 ; 12157.3019553722 ; 2336352.9308952955 ; 1252202.1014033356 ; 24514.000000000004
104 ; 25587.595936393507 ; 12157.3019553722 ; 2362298.205097354 ; 1264359.4033587077 ; 24752.000000000004
105 ; 25617.981472379885 ; 12157.3019553722 ; 2387885.8010337474 ; 1276516.7053140798 ; 24990.000000000004
106 ; 25469.14883466755 ; 12157.3019553722 ; 2413503.7825061274 ; 1288674.0072694519 ; 25228.000000000004
107 ; 25389.43240371822 ; 12157.3019553722 ; 2438972.931340795 ; 1300831.309224824 ; 25466.000000000004
108 ; 25244.817442818483 ; 12157.3019553722 ; 2464362.363744513 ; 1312988.611180196 ; 25704.000000000004
109 ; 25029.082237937397 ; 12157.3019553722 ; 2489607.1811873317 ; 1325145.9131355681 ; 25942.000000000004
110 ; 24865.874665059913 ; 12157.3019553722 ; 2514636.263425269 ; 1337303.2150909402 ; 26180.000000000004
111 ; 24701.870016936275 ; 12157.3019553722 ; 2539502.1380903292 ; 1349460.5170463123 ; 26418.000000000004
112 ; 24668.03898548891 ; 12157.3019553722 ; 2564204.0081072655 ; 1361617.8190016844 ; 26656.000000000004
113 ; 24455.7313196136 ; 12157.3019553722 ; 2588872.0470927544 ; 1373775.1209570565 ; 26894.000000000004
114 ; 24245.416787131795 ; 12157.3019553722 ; 2613327.778412368 ; 1385932.4229124286 ; 27132.000000000004
115 ; 24096.92629017365 ; 12157.3019553722 ; 2637573.1951995 ; 1398089.7248678007 ; 27370.000000000004
116 ; 23851.469040763055 ; 12157.3019553722 ; 2661670.1214896734 ; 1410247.0268231728 ; 27608.000000000004
117 ; 23652.922907712396 ; 12157.3019553722 ; 2685521.5905304365 ; 1422404.328778545 ; 27846.000000000004
118 ; 23483.559914049678 ; 12157.3019553722 ; 2709174.513438149 ; 1434561.630733917 ; 28084.000000000004
119 ; 23398.761922789516 ; 12157.3019553722 ; 2732658.0733521986 ; 1446718.932689289 ; 28322.000000000004
120 ; 23000.545479009666 ; 12157.3019553722 ; 2756056.8352749883 ; 1458876.2346446612 ; 28560.000000000004
121 ; 22932.789943143125 ; 12157.3019553722 ; 2779057.380753998 ; 1471033.5366000333 ; 28798.000000000004
122 ; 22695.41796831609 ; 12157.3019553722 ; 2801990.1706971414 ; 1483190.8385554054 ; 29036.000000000004
123 ; 22509.06224712187 ; 12157.3019553722 ; 2824685.5886654574 ; 1495348.1405107775 ; 29274.000000000004
124 ; 22544.672667461036 ; 12157.3019553722 ; 2847194.650912579 ; 1507505.4424661496 ; 29512.000000000004
125 ; 21995.856761968684 ; 12157.3019553722 ; 2869739.32358004 ; 1519662.7444215217 ; 29750.000000000004
126 ; 21626.89323745583 ; 12157.3019553722 ; 2891735.180342009 ; 1531820.0463768938 ; 29988.000000000004
127 ; 21636.842600232907 ; 12157.3019553722 ; 2913362.0735794646 ; 1543977.3483322659 ; 30226.000000000004
128 ; 21315.271165739756 ; 12157.3019553722 ; 2934998.9161796975 ; 1556134.650287638 ; 30464.000000000004
129 ; 20943.717175038415 ; 12157.3019553722 ; 2956314.1873454372 ; 1568291.95224301 ; 30702.000000000004
130 ; 20795.787718097523 ; 12157.3019553722 ; 2977257.904520476 ; 1580449.2541983821 ; 30940.000000000004
131 ; 20338.658106472016 ; 12157.3019553722 ; 2998053.6922385735 ; 1592606.5561537542 ; 31178.000000000004
132 ; 20295.792065192785 ; 12157.3019553722 ; 3018392.3503450453 ; 1604763.8581091263 ; 31416.000000000004
133 ; 19946.58278504794 ; 12157.3019553722 ; 3038688.1424102383 ; 1616921.1600644984 ; 31654.000000000004
134 ; 19715.367016209704 ; 12157.3019553722 ; 3058634.7251952863 ; 1629078.4620198705 ; 31892.000000000004
135 ; 19384.957210361652 ; 12157.3019553722 ; 3078350.092211496 ; 1641235.7639752426 ; 32130.000000000004
136 ; 19180.75238201634 ; 12157.3019553722 ; 3097735.0494218576 ; 1653393.0659306147 ; 32368.000000000004
137 ; 18598.578582601265 ; 12157.3019553722 ; 3116915.801803874 ; 1665550.3678859868 ; 32606.000000000004
138 ; 18576.576124028306 ; 12157.3019553722 ; 3135514.380386475 ; 1677707.669841359 ; 32844.00000000001
139 ; 18188.397648039918 ; 12157.3019553722 ; 3154090.9565105033 ; 1689864.971796731 ; 33082.00000000001
140 ; 17977.92977583301 ; 12157.3019553722 ; 3172279.354158543 ; 1702022.273752103 ; 33320.00000000001
141 ; 17640.3231478772 ; 12157.3019553722 ; 3190257.283934376 ; 1714179.5757074752 ; 33558.00000000001
142 ; 17206.43783921331 ; 12157.3019553722 ; 3207897.6070822533 ; 1726336.8776628473 ; 33796.00000000001
143 ; 17107.90216251978 ; 12157.3019553722 ; 3225104.0449214666 ; 1738494.1796182194 ; 34034.00000000001
144 ; 16621.42704251329 ; 12157.3019553722 ; 3242211.9470839864 ; 1750651.4815735915 ; 34272.00000000001
145 ; 16423.02445571923 ; 12157.3019553722 ; 3258833.3741264995 ; 1762808.7835289636 ; 34510.00000000001
146 ; 16267.946568771202 ; 12157.3019553722 ; 3275256.3985822187 ; 1774966.0854843357 ; 34748.00000000001
147 ; 16252.598672179745 ; 12157.3019553722 ; 3291524.34515099 ; 1787123.3874397078 ; 34986.00000000001
148 ; 16209.347692388343 ; 12157.3019553722 ; 3307776.94382317 ; 1799280.6893950799 ; 35224.00000000001
149 ; 16051.191640900686 ; 12157.3019553722 ; 3323986.291515558 ; 1811437.991350452 ; 35462.00000000001
150 ; 15978.045735397627 ; 12157.3019553722 ; 3340037.483156459 ; 1823595.293305824 ; 35700.00000000001
151 ; 15936.718926302354 ; 12157.3019553722 ; 3356015.528891857 ; 1835752.5952611961 ; 35938.00000000001
152 ; 15854.360721943065 ; 12157.3019553722 ; 3371952.247818159 ; 1847909.8972165682 ; 36176.00000000001
153 ; 15658.284426670716 ; 12157.3019553722 ; 3387806.608540102 ; 1860067.1991719403 ; 36414.00000000001
154 ; 15567.116764875263 ; 12157.3019553722 ; 3403464.8929667724 ; 1872224.5011273124 ; 36652.00000000001
155 ; 15420.256121562874 ; 12157.3019553722 ; 3419032.0097316476 ; 1884381.8030826845 ; 36890.00000000001
156 ; 15202.744206438118 ; 12157.3019553722 ; 3434452.2658532104 ; 1896539.1050380566 ; 37128.00000000001
157 ; 15092.382440122446 ; 12157.3019553722 ; 3449655.0100596487 ; 1908696.4069934287 ; 37366.00000000001
158 ; 15146.05604999745 ; 12157.3019553722 ; 3464747.392499771 ; 1920853.7089488008 ; 37604.00000000001
159 ; 14788.517017387534 ; 12157.3019553722 ; 3479893.4485497684 ; 1933011.010904173 ; 37842.00000000001
160 ; 14571.18940759178 ; 12157.3019553722 ; 3494681.9655671557 ; 1945168.312859545 ; 38080.00000000001
161 ; 14726.1832786244 ; 12157.3019553722 ; 3509253.1549747474 ; 1957325.614814917 ; 38318.00000000001
162 ; 14541.325668672012 ; 12157.3019553722 ; 3523979.338253372 ; 1969482.9167702892 ; 38556.00000000001
163 ; 14447.15454378023 ; 12157.3019553722 ; 3538520.663922044 ; 1981640.2187256613 ; 38794.00000000001
164 ; 14364.436687155256 ; 12157.3019553722 ; 3552967.8184658242 ; 1993797.5206810334 ; 39032.00000000001
165 ; 14038.5496658785 ; 12157.3019553722 ; 3567332.2551529794 ; 2005954.8226364055 ; 39270.00000000001
166 ; 14000.161582290244 ; 12157.3019553722 ; 3581370.804818858 ; 2018112.1245917776 ; 39508.00000000001
167 ; 13734.76452131471 ; 12157.3019553722 ; 3595370.966401148 ; 2030269.4265471497 ; 39746.00000000001
168 ; 13748.83805838069 ; 12157.3019553722 ; 3609105.730922463 ; 2042426.7285025218 ; 39984.00000000001
169 ; 13490.530859996217 ; 12157.3019553722 ; 3622854.5689808438 ; 2054584.0304578939 ; 40222.00000000001
170 ; 13468.556761516862 ; 12157.3019553722 ; 3636345.09984084 ; 2066741.332413266 ; 40460.00000000001
171 ; 13350.670706741985 ; 12157.3019553722 ; 3649813.6566023566 ; 2078898.634368638 ; 40698.00000000001
172 ; 12963.26520424986 ; 12157.3019553722 ; 3663164.3273090986 ; 2091055.9363240101 ; 40936.00000000001
173 ; 12867.948662952664 ; 12157.3019553722 ; 3676127.5925133484 ; 2103213.238279382 ; 41174.00000000001
174 ; 12931.764706397442 ; 12157.3019553722 ; 3688995.541176301 ; 2115370.5402347543 ; 41412.00000000001
175 ; 13033.403891383648 ; 12157.3019553722 ; 3701927.3058826984 ; 2127527.8421901264 ; 41650.00000000001
176 ; 12961.469018843538 ; 12157.3019553722 ; 3714960.709774082 ; 2139685.1441454985 ; 41888.00000000001
177 ; 12987.64733053106 ; 12157.3019553722 ; 3727922.1787929256 ; 2151842.4461008706 ; 42126.00000000001
178 ; 13100.018232637965 ; 12157.3019553722 ; 3740909.8261234565 ; 2163999.7480562427 ; 42364.00000000001
179 ; 13021.246914779273 ; 12157.3019553722 ; 3754009.8443560945 ; 2176157.050011615 ; 42602.00000000001
180 ; 13038.937398866385 ; 12157.3019553722 ; 3767031.091270874 ; 2188314.351966987 ; 42840.00000000001
181 ; 13135.067751187094 ; 12157.3019553722 ; 3780070.02866974 ; 2200471.653922359 ; 43078.00000000001
182 ; 13220.965063236461 ; 12157.3019553722 ; 3793205.096420927 ; 2212628.955877731 ; 43316.00000000001
183 ; 12963.788584371441 ; 12157.3019553722 ; 3806426.0614841636 ; 2224786.257833103 ; 43554.00000000001
184 ; 13113.931193832144 ; 12157.3019553722 ; 3819389.850068535 ; 2236943.5597884753 ; 43792.00000000001
185 ; 13228.173480147116 ; 12157.3019553722 ; 3832503.7812623675 ; 2249100.8617438474 ; 44030.00000000001
186 ; 13142.882678919708 ; 12157.3019553722 ; 3845731.9547425145 ; 2261258.1636992195 ; 44268.00000000001
187 ; 13173.045228526866 ; 12157.3019553722 ; 3858874.8374214345 ; 2273415.4656545916 ; 44506.00000000001
