CSV File for the City 2 on Day 175
1 - Minute m 
2 - Power Consumed at minute m 
3 - Power Produced at minute m 
4 - Energy Consumed since the beginning of the day 
5 - Energy Produced since the beginning of the day 
6 - Energy Lost since the beginning of the day on lines starting from the city
 
0 ; 5686.224605178704 ; 32006.413145179067 ; 0.0 ; 0.0 ; 0.0
1 ; 6410.534132806206 ; 32006.413145179067 ; 5686.224605178704 ; 32006.413145179067 ; 0.0
2 ; 6725.17729682056 ; 32006.413145179067 ; 12096.75873798491 ; 64012.826290358134 ; 0.0
3 ; 7042.607019974172 ; 32006.413145179067 ; 18821.93603480547 ; 96019.2394355372 ; 0.0
4 ; 7567.3110827291675 ; 32006.413145179067 ; 25864.543054779642 ; 128025.65258071627 ; 0.0
5 ; 7979.604175104884 ; 32006.413145179067 ; 33431.85413750881 ; 160032.06572589534 ; 0.0
6 ; 8626.489509508554 ; 32006.413145179067 ; 41411.45831261369 ; 192038.47887107442 ; 0.0
7 ; 9057.8379338162 ; 32006.413145179067 ; 50037.947822122245 ; 224044.8920162535 ; 0.0
8 ; 9518.6137173724 ; 32006.413145179067 ; 59095.78575593844 ; 256051.30516143257 ; 0.0
9 ; 9747.146176204424 ; 32006.413145179067 ; 68614.39947331084 ; 288057.71830661164 ; 0.0
10 ; 10275.613905803839 ; 32006.413145179067 ; 78361.54564951526 ; 320064.1314517907 ; 0.0
11 ; 10691.351588166724 ; 32006.413145179067 ; 88637.1595553191 ; 352070.54459696973 ; 0.0
12 ; 10929.482317114338 ; 32006.413145179067 ; 99328.51114348583 ; 384076.9577421488 ; 0.0
13 ; 11494.577163914384 ; 32006.413145179067 ; 110257.99346060016 ; 416083.3708873278 ; 0.0
14 ; 12003.592026326536 ; 32006.413145179067 ; 121752.57062451454 ; 448089.78403250687 ; 0.0
15 ; 12357.89673332517 ; 32006.413145179067 ; 133756.16265084108 ; 480096.1971776859 ; 0.0
16 ; 12641.02850275691 ; 32006.413145179067 ; 146114.05938416626 ; 512102.61032286496 ; 0.0
17 ; 13132.235954080435 ; 32006.413145179067 ; 158755.08788692317 ; 544109.023468044 ; 0.0
18 ; 13356.510602317865 ; 32006.413145179067 ; 171887.3238410036 ; 576115.436613223 ; 0.0
19 ; 13626.943225809193 ; 32006.413145179067 ; 185243.83444332148 ; 608121.8497584021 ; 0.0
20 ; 14164.113470655357 ; 32006.413145179067 ; 198870.77766913068 ; 640128.2629035811 ; 0.0
21 ; 14547.509722401583 ; 32006.413145179067 ; 213034.89113978605 ; 672134.6760487602 ; 0.0
22 ; 14850.799308395302 ; 32006.413145179067 ; 227582.40086218764 ; 704141.0891939392 ; 0.0
23 ; 15214.600804639997 ; 32006.413145179067 ; 242433.20017058295 ; 736147.5023391183 ; 0.0
24 ; 15569.78904244631 ; 32006.413145179067 ; 257647.80097522296 ; 768153.9154842973 ; 0.0
25 ; 15897.263092801948 ; 32006.413145179067 ; 273217.59001766925 ; 800160.3286294764 ; 0.0
26 ; 16234.096319872839 ; 32006.413145179067 ; 289114.8531104712 ; 832166.7417746554 ; 0.0
27 ; 16609.3660361317 ; 32006.413145179067 ; 305348.94943034404 ; 864173.1549198345 ; 0.0
28 ; 16966.3265655337 ; 32006.413145179067 ; 321958.31546647573 ; 896179.5680650135 ; 0.0
29 ; 17176.825370376733 ; 32006.413145179067 ; 338924.64203200943 ; 928185.9812101925 ; 0.0
30 ; 17519.803043727905 ; 32006.413145179067 ; 356101.4674023862 ; 960192.3943553716 ; 0.0
31 ; 17882.789299241744 ; 32006.413145179067 ; 373621.27044611407 ; 992198.8075005506 ; 0.0
32 ; 18217.48752393805 ; 32006.413145179067 ; 391504.0597453558 ; 1024205.2206457297 ; 0.0
33 ; 18353.984189258274 ; 32006.413145179067 ; 409721.54726929386 ; 1056211.6337909088 ; 0.0
34 ; 18674.56870709976 ; 32006.413145179067 ; 428075.5314585521 ; 1088218.046936088 ; 0.0
35 ; 19047.192550770444 ; 32006.413145179067 ; 446750.1001656519 ; 1120224.4600812672 ; 0.0
36 ; 19424.87645117002 ; 32006.413145179067 ; 465797.29271642235 ; 1152230.8732264463 ; 0.0
37 ; 19605.49568505501 ; 32006.413145179067 ; 485222.16916759236 ; 1184237.2863716255 ; 0.0
38 ; 19841.607395490868 ; 32006.413145179067 ; 504827.6648526474 ; 1216243.6995168047 ; 0.0
39 ; 20038.72019262966 ; 32006.413145179067 ; 524669.2722481383 ; 1248250.1126619838 ; 0.0
40 ; 20337.417342021075 ; 32006.413145179067 ; 544707.9924407679 ; 1280256.525807163 ; 0.0
41 ; 20473.931196286845 ; 32006.413145179067 ; 565045.4097827891 ; 1312262.9389523421 ; 0.0
42 ; 20902.735965292934 ; 32006.413145179067 ; 585519.3409790759 ; 1344269.3520975213 ; 0.0
43 ; 20916.904252994926 ; 32006.413145179067 ; 606422.0769443688 ; 1376275.7652427005 ; 0.0
44 ; 21302.71016815388 ; 32006.413145179067 ; 627338.9811973637 ; 1408282.1783878796 ; 0.0
45 ; 21244.618285501296 ; 32006.413145179067 ; 648641.6913655176 ; 1440288.5915330588 ; 0.0
46 ; 21605.081041173973 ; 32006.413145179067 ; 669886.3096510188 ; 1472295.004678238 ; 0.0
47 ; 21720.91899232209 ; 32006.413145179067 ; 691491.3906921928 ; 1504301.417823417 ; 0.0
48 ; 22044.67802722262 ; 32006.413145179067 ; 713212.3096845149 ; 1536307.8309685963 ; 0.0
49 ; 22246.467192379045 ; 32006.413145179067 ; 735256.9877117375 ; 1568314.2441137754 ; 0.0
50 ; 22441.03664939096 ; 32006.413145179067 ; 757503.4549041166 ; 1600320.6572589546 ; 0.0
51 ; 22590.32211298576 ; 32006.413145179067 ; 779944.4915535075 ; 1632327.0704041338 ; 0.0
52 ; 22672.084332487644 ; 32006.413145179067 ; 802534.8136664933 ; 1664333.483549313 ; 0.0
53 ; 23015.253765482696 ; 32006.413145179067 ; 825206.897998981 ; 1696339.896694492 ; 0.0
54 ; 23219.51165336531 ; 32006.413145179067 ; 848222.1517644636 ; 1728346.3098396712 ; 0.0
55 ; 23351.949567233987 ; 32006.413145179067 ; 871441.663417829 ; 1760352.7229848504 ; 0.0
56 ; 23508.681909773648 ; 32006.413145179067 ; 894793.612985063 ; 1792359.1361300296 ; 0.0
57 ; 23699.822987039257 ; 32006.413145179067 ; 918302.2948948366 ; 1824365.5492752087 ; 0.0
58 ; 23787.506042949997 ; 32006.413145179067 ; 942002.1178818758 ; 1856371.962420388 ; 0.0
59 ; 23844.870469127654 ; 32006.413145179067 ; 965789.6239248258 ; 1888378.375565567 ; 0.0
60 ; 24234.10582813434 ; 32006.413145179067 ; 989634.4943939535 ; 1920384.7887107462 ; 0.0
61 ; 24329.00886825309 ; 32006.413145179067 ; 1013868.6002220878 ; 1952391.2018559254 ; 0.0
62 ; 24239.239622843914 ; 32006.413145179067 ; 1038197.6090903409 ; 1984397.6150011045 ; 0.0
63 ; 24462.188328862132 ; 32006.413145179067 ; 1062436.8487131847 ; 2016404.0281462837 ; 0.0
64 ; 24338.00950015193 ; 32006.413145179067 ; 1086899.037042047 ; 2048410.4412914629 ; 0.0
65 ; 24520.274266567114 ; 32006.413145179067 ; 1111237.0465421989 ; 2080416.854436642 ; 0.0
66 ; 24629.3977501964 ; 32006.413145179067 ; 1135757.320808766 ; 2112423.267581821 ; 0.0
67 ; 24576.761441315804 ; 32006.413145179067 ; 1160386.7185589625 ; 2144429.680727 ; 0.0
68 ; 24813.487648021543 ; 32006.413145179067 ; 1184963.4800002782 ; 2176436.093872179 ; 0.0
69 ; 24980.188854680393 ; 32006.413145179067 ; 1209776.9676482996 ; 2208442.5070173577 ; 0.0
70 ; 24986.555639367878 ; 32006.413145179067 ; 1234757.15650298 ; 2240448.9201625367 ; 0.0
71 ; 25190.607306201247 ; 32006.413145179067 ; 1259743.7121423478 ; 2272455.3333077156 ; 0.0
72 ; 25194.52986846481 ; 32006.413145179067 ; 1284934.319448549 ; 2304461.7464528945 ; 0.0
73 ; 25260.883610529192 ; 32006.413145179067 ; 1310128.849317014 ; 2336468.1595980735 ; 0.0
74 ; 25152.99624909309 ; 32006.413145179067 ; 1335389.732927543 ; 2368474.5727432524 ; 0.0
75 ; 25292.354615222688 ; 32006.413145179067 ; 1360542.729176636 ; 2400480.9858884313 ; 0.0
76 ; 25236.104898232148 ; 32006.413145179067 ; 1385835.0837918587 ; 2432487.3990336102 ; 0.0
77 ; 25340.547029919184 ; 32006.413145179067 ; 1411071.1886900908 ; 2464493.812178789 ; 0.0
78 ; 25279.551976282837 ; 32006.413145179067 ; 1436411.73572001 ; 2496500.225323968 ; 0.0
79 ; 25536.722946334947 ; 32006.413145179067 ; 1461691.2876962929 ; 2528506.638469147 ; 0.0
80 ; 25382.962700217842 ; 32006.413145179067 ; 1487228.0106426277 ; 2560513.051614326 ; 0.0
81 ; 25576.889929491324 ; 32006.413145179067 ; 1512610.9733428454 ; 2592519.464759505 ; 0.0
82 ; 25302.984673622563 ; 32006.413145179067 ; 1538187.8632723368 ; 2624525.877904684 ; 0.0
83 ; 25718.4743452423 ; 32006.413145179067 ; 1563490.8479459593 ; 2656532.2910498627 ; 0.0
84 ; 25425.187378189174 ; 32006.413145179067 ; 1589209.3222912017 ; 2688538.7041950417 ; 0.0
85 ; 25347.659233428665 ; 32006.413145179067 ; 1614634.5096693907 ; 2720545.1173402206 ; 0.0
86 ; 25552.544112643238 ; 32006.413145179067 ; 1639982.1689028195 ; 2752551.5304853995 ; 0.0
87 ; 25388.78693564731 ; 32006.413145179067 ; 1665534.7130154627 ; 2784557.9436305785 ; 0.0
88 ; 25535.12075160097 ; 32006.413145179067 ; 1690923.49995111 ; 2816564.3567757574 ; 0.0
89 ; 25492.009281068833 ; 32006.413145179067 ; 1716458.620702711 ; 2848570.7699209363 ; 0.0
90 ; 25282.584464797455 ; 32006.413145179067 ; 1741950.6299837797 ; 2880577.1830661152 ; 0.0
91 ; 25249.95662285701 ; 32006.413145179067 ; 1767233.2144485773 ; 2912583.596211294 ; 0.0
92 ; 25180.57349793206 ; 32006.413145179067 ; 1792483.1710714342 ; 2944590.009356473 ; 0.0
93 ; 25168.590697873013 ; 32006.413145179067 ; 1817663.7445693663 ; 2976596.422501652 ; 0.0
94 ; 24828.77773765441 ; 32006.413145179067 ; 1842832.3352672393 ; 3008602.835646831 ; 0.0
95 ; 24986.94926707649 ; 32006.413145179067 ; 1867661.1130048938 ; 3040609.24879201 ; 0.0
96 ; 24816.1350557362 ; 32006.413145179067 ; 1892648.0622719703 ; 3072615.661937189 ; 0.0
97 ; 24866.092252697126 ; 32006.413145179067 ; 1917464.1973277065 ; 3104622.0750823678 ; 0.0
98 ; 24651.425897082412 ; 32006.413145179067 ; 1942330.2895804036 ; 3136628.4882275467 ; 0.0
99 ; 24690.23519518091 ; 32006.413145179067 ; 1966981.715477486 ; 3168634.9013727256 ; 0.0
100 ; 24513.53262966079 ; 32006.413145179067 ; 1991671.9506726668 ; 3200641.3145179045 ; 0.0
101 ; 24574.420823497552 ; 32006.413145179067 ; 2016185.4833023276 ; 3232647.7276630835 ; 0.0
102 ; 24253.71699820416 ; 32006.413145179067 ; 2040759.904125825 ; 3264654.1408082624 ; 0.0
103 ; 24161.325631508647 ; 32006.413145179067 ; 2065013.6211240292 ; 3296660.5539534413 ; 0.0
104 ; 24047.65996493781 ; 32006.413145179067 ; 2089174.9467555378 ; 3328666.9670986203 ; 0.0
105 ; 24014.446192335305 ; 32006.413145179067 ; 2113222.6067204755 ; 3360673.380243799 ; 0.0
106 ; 23827.855619185422 ; 32006.413145179067 ; 2137237.052912811 ; 3392679.793388978 ; 0.0
107 ; 23537.057907625247 ; 32006.413145179067 ; 2161064.9085319964 ; 3424686.206534157 ; 0.0
108 ; 23482.611652438714 ; 32006.413145179067 ; 2184601.9664396215 ; 3456692.619679336 ; 0.0
109 ; 23155.414209960825 ; 32006.413145179067 ; 2208084.57809206 ; 3488699.032824515 ; 0.0
110 ; 23270.69265757044 ; 32006.413145179067 ; 2231239.992302021 ; 3520705.445969694 ; 0.0
111 ; 22956.661222947587 ; 32006.413145179067 ; 2254510.6849595914 ; 3552711.8591148728 ; 0.0
112 ; 22857.06160439437 ; 32006.413145179067 ; 2277467.346182539 ; 3584718.2722600517 ; 0.0
113 ; 22845.214862251138 ; 32006.413145179067 ; 2300324.4077869337 ; 3616724.6854052306 ; 0.0
114 ; 22459.695639570797 ; 32006.413145179067 ; 2323169.622649185 ; 3648731.0985504095 ; 0.0
115 ; 22279.79579771122 ; 32006.413145179067 ; 2345629.3182887556 ; 3680737.5116955885 ; 0.0
116 ; 22089.243169734436 ; 32006.413145179067 ; 2367909.114086467 ; 3712743.9248407674 ; 0.0
117 ; 21863.180797309826 ; 32006.413145179067 ; 2389998.357256201 ; 3744750.3379859463 ; 0.0
118 ; 21663.472516887876 ; 32006.413145179067 ; 2411861.5380535107 ; 3776756.7511311253 ; 0.0
119 ; 21506.825454883743 ; 32006.413145179067 ; 2433525.0105703985 ; 3808763.164276304 ; 0.0
120 ; 21343.86355848249 ; 32006.413145179067 ; 2455031.8360252823 ; 3840769.577421483 ; 0.0
121 ; 20887.987655434514 ; 32006.413145179067 ; 2476375.6995837647 ; 3872775.990566662 ; 0.0
122 ; 20770.196552290312 ; 32006.413145179067 ; 2497263.687239199 ; 3904782.403711841 ; 0.0
123 ; 20422.057454740174 ; 32006.413145179067 ; 2518033.883791489 ; 3936788.81685702 ; 0.0
124 ; 20487.51659857036 ; 32006.413145179067 ; 2538455.941246229 ; 3968795.230002199 ; 0.0
125 ; 20128.528920278917 ; 32006.413145179067 ; 2558943.4578447994 ; 4000801.6431473778 ; 0.0
126 ; 19954.614138058343 ; 32006.413145179067 ; 2579071.9867650783 ; 4032808.0562925567 ; 0.0
127 ; 19534.277278081292 ; 32006.413145179067 ; 2599026.6009031367 ; 4064814.4694377356 ; 0.0
128 ; 19340.673567987058 ; 32006.413145179067 ; 2618560.878181218 ; 4096820.8825829145 ; 0.0
129 ; 19179.346204785692 ; 32006.413145179067 ; 2637901.551749205 ; 4128827.2957280935 ; 0.0
130 ; 18773.68165854356 ; 32006.413145179067 ; 2657080.897953991 ; 4160833.7088732724 ; 0.0
131 ; 18336.979052064555 ; 32006.413145179067 ; 2675854.5796125345 ; 4192840.1220184513 ; 0.0
132 ; 18288.85152521198 ; 32006.413145179067 ; 2694191.558664599 ; 4224846.535163631 ; 0.0
133 ; 17919.81007178857 ; 32006.413145179067 ; 2712480.410189811 ; 4256852.94830881 ; 0.0
134 ; 17651.543160703313 ; 32006.413145179067 ; 2730400.2202616 ; 4288859.361453989 ; 0.0
135 ; 17365.380618045874 ; 32006.413145179067 ; 2748051.7634223034 ; 4320865.7745991675 ; 0.0
136 ; 16904.343503973694 ; 32006.413145179067 ; 2765417.1440403494 ; 4352872.187744346 ; 0.0
137 ; 16557.766910688 ; 32006.413145179067 ; 2782321.4875443233 ; 4384878.600889525 ; 0.0
138 ; 16416.981101011635 ; 32006.413145179067 ; 2798879.2544550113 ; 4416885.014034704 ; 0.0
139 ; 15954.418927930028 ; 32006.413145179067 ; 2815296.235556023 ; 4448891.427179883 ; 0.0
140 ; 15794.581877922003 ; 32006.413145179067 ; 2831250.654483953 ; 4480897.840325062 ; 0.0
141 ; 15395.79416887419 ; 32006.413145179067 ; 2847045.236361875 ; 4512904.253470241 ; 0.0
142 ; 14986.176166238465 ; 32006.413145179067 ; 2862441.0305307494 ; 4544910.66661542 ; 0.0
143 ; 14707.886703053431 ; 32006.413145179067 ; 2877427.2066969876 ; 4576917.079760599 ; 0.0
144 ; 14120.56240082471 ; 32006.413145179067 ; 2892135.093400041 ; 4608923.492905778 ; 0.0
145 ; 14258.878348926915 ; 32006.413145179067 ; 2906255.655800866 ; 4640929.906050957 ; 0.0
146 ; 14146.80710895337 ; 32006.413145179067 ; 2920514.534149793 ; 4672936.319196136 ; 0.0
147 ; 14041.201168515241 ; 32006.413145179067 ; 2934661.3412587466 ; 4704942.732341315 ; 0.0
148 ; 13973.255748322235 ; 32006.413145179067 ; 2948702.542427262 ; 4736949.145486494 ; 0.0
149 ; 13920.933072843252 ; 32006.413145179067 ; 2962675.798175584 ; 4768955.5586316725 ; 0.0
150 ; 13695.393446654798 ; 32006.413145179067 ; 2976596.731248427 ; 4800961.971776851 ; 0.0
151 ; 13459.9444534732 ; 32006.413145179067 ; 2990292.124695082 ; 4832968.38492203 ; 0.0
152 ; 13572.6205028741 ; 32006.413145179067 ; 3003752.0691485554 ; 4864974.798067209 ; 0.0
153 ; 13379.73331387273 ; 32006.413145179067 ; 3017324.6896514297 ; 4896981.211212388 ; 0.0
154 ; 13207.15666230218 ; 32006.413145179067 ; 3030704.4229653026 ; 4928987.624357567 ; 0.0
155 ; 12991.717552788437 ; 32006.413145179067 ; 3043911.5796276047 ; 4960994.037502746 ; 0.0
156 ; 12886.66046698204 ; 32006.413145179067 ; 3056903.2971803932 ; 4993000.450647925 ; 0.0
157 ; 12781.632321587555 ; 32006.413145179067 ; 3069789.9576473753 ; 5025006.863793104 ; 0.0
158 ; 12686.993962938108 ; 32006.413145179067 ; 3082571.589968963 ; 5057013.276938283 ; 0.0
159 ; 12698.550704795667 ; 32006.413145179067 ; 3095258.583931901 ; 5089019.690083462 ; 0.0
160 ; 12444.669140025117 ; 32006.413145179067 ; 3107957.134636697 ; 5121026.103228641 ; 0.0
161 ; 12381.204164681842 ; 32006.413145179067 ; 3120401.803776722 ; 5153032.51637382 ; 0.0
162 ; 12226.337472631185 ; 32006.413145179067 ; 3132783.007941404 ; 5185038.929518999 ; 0.0
163 ; 12203.418312068454 ; 32006.413145179067 ; 3145009.345414035 ; 5217045.3426641775 ; 0.0
164 ; 11954.771105731304 ; 32006.413145179067 ; 3157212.7637261036 ; 5249051.755809356 ; 0.0
165 ; 11850.213739447521 ; 32006.413145179067 ; 3169167.534831835 ; 5281058.168954535 ; 0.0
166 ; 11683.631293496004 ; 32006.413145179067 ; 3181017.7485712823 ; 5313064.582099714 ; 0.0
167 ; 11609.642924600505 ; 32006.413145179067 ; 3192701.3798647784 ; 5345070.995244893 ; 0.0
168 ; 11333.6262441638 ; 32006.413145179067 ; 3204311.0227893787 ; 5377077.408390072 ; 0.0
169 ; 11210.763913289817 ; 32006.413145179067 ; 3215644.6490335423 ; 5409083.821535251 ; 0.0
170 ; 11141.092483440108 ; 32006.413145179067 ; 3226855.412946832 ; 5441090.23468043 ; 0.0
171 ; 10993.995626066715 ; 32006.413145179067 ; 3237996.505430272 ; 5473096.647825609 ; 0.0
172 ; 10521.585137117607 ; 32006.413145179067 ; 3248990.5010563387 ; 5505103.060970788 ; 0.0
173 ; 10670.98683546233 ; 32006.413145179067 ; 3259512.0861934563 ; 5537109.474115967 ; 0.0
174 ; 10346.921662227729 ; 32006.413145179067 ; 3270183.073028919 ; 5569115.887261146 ; 0.0
175 ; 10529.044830010107 ; 32006.413145179067 ; 3280529.9946911465 ; 5601122.300406325 ; 0.0
176 ; 10679.946730551092 ; 32006.413145179067 ; 3291059.039521157 ; 5633128.713551504 ; 0.0
177 ; 10647.893598570803 ; 32006.413145179067 ; 3301738.986251708 ; 5665135.126696683 ; 0.0
178 ; 10861.37019929476 ; 32006.413145179067 ; 3312386.879850279 ; 5697141.539841861 ; 0.0
179 ; 10740.209618169732 ; 32006.413145179067 ; 3323248.250049574 ; 5729147.95298704 ; 0.0
180 ; 10712.859699778872 ; 32006.413145179067 ; 3333988.4596677436 ; 5761154.366132219 ; 0.0
181 ; 10771.788478846365 ; 32006.413145179067 ; 3344701.3193675224 ; 5793160.779277398 ; 0.0
182 ; 10847.270175689124 ; 32006.413145179067 ; 3355473.1078463686 ; 5825167.192422577 ; 0.0
183 ; 10998.10474191283 ; 32006.413145179067 ; 3366320.3780220575 ; 5857173.605567756 ; 0.0
184 ; 11116.208774668197 ; 32006.413145179067 ; 3377318.4827639703 ; 5889180.018712935 ; 0.0
185 ; 10853.683586366024 ; 32006.413145179067 ; 3388434.6915386384 ; 5921186.431858114 ; 0.0
186 ; 11013.480725141224 ; 32006.413145179067 ; 3399288.3751250044 ; 5953192.845003293 ; 0.0
187 ; 10960.075596468872 ; 32006.413145179067 ; 3410301.8558501457 ; 5985199.258148472 ; 0.0
188 ; 10953.565850862702 ; 32006.413145179067 ; 3421261.9314466147 ; 6017205.671293651 ; 0.0
189 ; 11016.472423974932 ; 32006.413145179067 ; 3432215.4972974774 ; 6049212.08443883 ; 0.0
190 ; 11055.92068627094 ; 32006.413145179067 ; 3443231.9697214523 ; 6081218.497584009 ; 0.0
191 ; 11081.09776139689 ; 32006.413145179067 ; 3454287.8904077234 ; 6113224.910729188 ; 0.0
192 ; 11094.910183058042 ; 32006.413145179067 ; 3465368.98816912 ; 6145231.3238743665 ; 0.0
193 ; 11105.000030207892 ; 32006.413145179067 ; 3476463.8983521783 ; 6177237.737019545 ; 0.0
194 ; 11286.65610611956 ; 32006.413145179067 ; 3487568.898382386 ; 6209244.150164724 ; 0.0
195 ; 11241.926612258443 ; 32006.413145179067 ; 3498855.5544885057 ; 6241250.563309903 ; 0.0
196 ; 11184.94781514811 ; 32006.413145179067 ; 3510097.481100764 ; 6273256.976455082 ; 0.0
197 ; 11200.838294574512 ; 32006.413145179067 ; 3521282.4289159123 ; 6305263.389600261 ; 0.0
198 ; 11399.794486634968 ; 32006.413145179067 ; 3532483.267210487 ; 6337269.80274544 ; 0.0
199 ; 11307.078559199133 ; 32006.413145179067 ; 3543883.0616971217 ; 6369276.215890619 ; 0.0
200 ; 11420.314793242103 ; 32006.413145179067 ; 3555190.140256321 ; 6401282.629035798 ; 0.0
201 ; 11262.137042100007 ; 32006.413145179067 ; 3566610.455049563 ; 6433289.042180977 ; 0.0
202 ; 11429.58299692456 ; 32006.413145179067 ; 3577872.5920916633 ; 6465295.455326156 ; 0.0
203 ; 11478.399444256653 ; 32006.413145179067 ; 3589302.1750885877 ; 6497301.868471335 ; 0.0
204 ; 11446.862735365448 ; 32006.413145179067 ; 3600780.574532844 ; 6529308.281616514 ; 0.0
205 ; 11489.014992738992 ; 32006.413145179067 ; 3612227.4372682096 ; 6561314.694761693 ; 0.0
206 ; 11370.391129222618 ; 32006.413145179067 ; 3623716.4522609487 ; 6593321.1079068715 ; 0.0
207 ; 11646.409932923485 ; 32006.413145179067 ; 3635086.8433901714 ; 6625327.52105205 ; 0.0
208 ; 11755.142145660735 ; 32006.413145179067 ; 3646733.253323095 ; 6657333.934197229 ; 0.0
209 ; 11598.005505621164 ; 32006.413145179067 ; 3658488.3954687556 ; 6689340.347342408 ; 0.0
210 ; 11650.821071101456 ; 32006.413145179067 ; 3670086.4009743766 ; 6721346.760487587 ; 0.0
211 ; 11571.475241908485 ; 32006.413145179067 ; 3681737.222045478 ; 6753353.173632766 ; 0.0
212 ; 11680.012720018849 ; 32006.413145179067 ; 3693308.6972873863 ; 6785359.586777945 ; 0.0
213 ; 11720.514494753665 ; 32006.413145179067 ; 3704988.710007405 ; 6817365.999923124 ; 0.0
