CSV File for the City 3 on Day 268
1 - Minute m 
2 - Power Consumed at minute m 
3 - Power Produced at minute m 
4 - Energy Consumed since the beginning of the day 
5 - Energy Produced since the beginning of the day 
6 - Energy Lost since the beginning of the day on lines starting from the city
 
0 ; 5764.122006726535 ; 100794.44118459127 ; 0.0 ; 0.0 ; 0.0
1 ; 6027.926898244108 ; 100453.69136388258 ; 5764.122006726535 ; 100794.44118459127 ; 0.0
2 ; 6424.445001172431 ; 100147.7571758236 ; 11792.048904970643 ; 201248.13254847383 ; 0.0
3 ; 6666.543843876313 ; 99876.98195026678 ; 18216.493906143074 ; 301395.88972429745 ; 0.0
4 ; 7077.398263561804 ; 99641.67301734322 ; 24883.037750019386 ; 401272.8716745642 ; 0.0
5 ; 7473.364891340652 ; 99442.10012496308 ; 31960.43601358119 ; 500914.5446919074 ; 0.0
6 ; 7768.564526543293 ; 99278.49402525548 ; 39433.800904921845 ; 600356.6448168705 ; 0.0
7 ; 8072.871882253388 ; 99151.04524704097 ; 47202.365431465136 ; 699635.1388421259 ; 0.0
8 ; 8601.068656729181 ; 99059.90306949918 ; 55275.23731371852 ; 798786.1840891668 ; 0.0
9 ; 8980.618772024956 ; 99005.17470993391 ; 63876.305970447705 ; 897846.087158666 ; 0.0
10 ; 9182.632323454023 ; 98986.92473599559 ; 72856.92474247266 ; 996851.2618685999 ; 0.0
11 ; 9655.706075564925 ; 99005.17470993391 ; 82039.55706592668 ; 1095838.1866045955 ; 0.0
12 ; 9938.346634815603 ; 99059.90306949918 ; 91695.26314149161 ; 1194843.3613145293 ; 0.0
13 ; 10173.44804519971 ; 99151.04524704097 ; 101633.60977630722 ; 1293903.2643840285 ; 0.0
14 ; 10452.691958994032 ; 99278.4940252554 ; 111807.05782150693 ; 1393054.3096310694 ; 0.0
15 ; 10800.931215727494 ; 99442.10012496308 ; 122259.74978050096 ; 1492332.8036563247 ; 0.0
16 ; 11173.481231432223 ; 99641.67301734322 ; 133060.68099622845 ; 1591774.9037812878 ; 0.0
17 ; 11425.638287808233 ; 99876.9819502667 ; 144234.16222766068 ; 1691416.576798631 ; 0.0
18 ; 11884.51827115609 ; 100147.7571758236 ; 155659.8005154689 ; 1791293.5587488979 ; 0.0
19 ; 12119.077081242758 ; 100453.69136388258 ; 167544.318786625 ; 1891441.3159247215 ; 0.0
20 ; 12424.608555479355 ; 100794.44118459127 ; 179663.39586786774 ; 1991895.007288604 ; 0.0
21 ; 12766.096875666732 ; 101169.62904116728 ; 192088.0044233471 ; 2092689.4484731953 ; 0.0
22 ; 12740.62011478817 ; 101578.84493314169 ; 204854.10129901383 ; 2193859.0775143625 ; 0.0
23 ; 13259.947530615895 ; 102021.6484294336 ; 217594.721413802 ; 2295437.922447504 ; 0.0
24 ; 13623.020075749875 ; 102497.57073022479 ; 230854.6689444179 ; 2397459.570876938 ; 0.0
25 ; 13816.263772124461 ; 103006.1167965767 ; 244477.68902016777 ; 2499957.1416071625 ; 0.0
26 ; 13982.097975511022 ; 103546.76752704944 ; 258293.95279229223 ; 2602963.2584037394 ; 0.0
27 ; 14327.129462875708 ; 104118.98196122094 ; 272276.0507678033 ; 2706510.025930789 ; 0.0
28 ; 14605.95444038177 ; 104722.19949092183 ; 286603.180230679 ; 2810629.00789201 ; 0.0
29 ; 14851.756100164632 ; 105355.8420611617 ; 301209.1346710608 ; 2915351.207382932 ; 0.0
30 ; 15062.779914034418 ; 106019.31634407434 ; 316060.8907712254 ; 3020707.0494440934 ; 0.0
31 ; 15280.119024571437 ; 106712.0158707159 ; 331123.6706852598 ; 3126726.365788168 ; 0.0
32 ; 15624.179330680437 ; 107433.32310715929 ; 346403.78970983124 ; 3233438.3816588838 ; 0.0
33 ; 15859.658541897084 ; 108182.61146300266 ; 362027.9690405117 ; 3340871.704766043 ; 0.0
34 ; 16027.854092102116 ; 108959.24722211088 ; 377887.6275824088 ; 3449054.316229046 ; 0.0
35 ; 16183.769079023843 ; 109762.59138709561 ; 393915.48167451087 ; 3558013.563451157 ; 0.0
36 ; 16553.47566849439 ; 110592.00143068816 ; 410099.2507535347 ; 3667776.1548382523 ; 0.0
37 ; 16688.322787720303 ; 111446.83294873638 ; 426652.72642202914 ; 3778368.1562689403 ; 0.0
38 ; 16782.948200229315 ; 112326.44121104838 ; 443341.04920974944 ; 3889814.9892176767 ; 0.0
39 ; 17129.16609155904 ; 113230.18260768909 ; 460123.99740997877 ; 4002141.430428725 ; 0.0
40 ; 17382.797100065043 ; 114157.41598960132 ; 477253.1635015378 ; 4115371.613036414 ; 0.0
41 ; 17332.88046191487 ; 115107.50390356466 ; 494635.96060160286 ; 4229529.029026016 ; 0.0
42 ; 17575.276023002083 ; 116079.81372251488 ; 511968.8410635177 ; 4344636.532929581 ; 0.0
43 ; 17862.385908973574 ; 117073.71867313114 ; 529544.1170865198 ; 4460716.346652095 ; 0.0
44 ; 18138.098409076378 ; 118088.59876334785 ; 547406.5029954934 ; 4577790.065325227 ; 0.0
45 ; 18262.523760279077 ; 119123.84161308316 ; 565544.6014045697 ; 4695878.664088574 ; 0.0
46 ; 18323.07836450709 ; 120178.84319198623 ; 583807.1251648488 ; 4815002.505701657 ; 0.0
47 ; 18544.85733669126 ; 121253.00846841325 ; 602130.2035293558 ; 4935181.348893643 ; 0.0
48 ; 18617.236184638285 ; 122345.75197414636 ; 620675.060866047 ; 5056434.357362056 ; 0.0
49 ; 18804.824250495225 ; 123456.49828958495 ; 639292.2970506854 ; 5178780.109336203 ; 0.0
50 ; 19028.130355187128 ; 124584.68245427117 ; 658097.1213011806 ; 5302236.607625788 ; 0.0
51 ; 19123.778634534847 ; 125729.75030767485 ; 677125.2516563677 ; 5426821.290080059 ; 0.0
52 ; 19374.084808849166 ; 126891.15876516314 ; 696249.0302909025 ; 5552551.040387734 ; 0.0
53 ; 19477.561462799353 ; 128068.37603402472 ; 715623.1150997516 ; 5679442.199152897 ; 0.0
54 ; 19521.069397840765 ; 129260.88177432516 ; 735100.676562551 ; 5807510.575186922 ; 0.0
55 ; 19677.18648931462 ; 130468.16720923144 ; 754621.7459603917 ; 5936771.456961247 ; 0.0
56 ; 19892.96456701733 ; 131689.73518928327 ; 774298.9324497064 ; 6067239.624170478 ; 0.0
57 ; 20059.151209960066 ; 132925.10021490004 ; 794191.8970167236 ; 6198929.359359762 ; 0.0
58 ; 20105.717696970467 ; 134173.78842120993 ; 814251.0482266837 ; 6331854.459574662 ; 0.0
59 ; 20144.36834931891 ; 135435.33752907062 ; 834356.7659236542 ; 6466028.247995872 ; 0.0
60 ; 20293.117408855207 ; 136709.2967659297 ; 854501.134272973 ; 6601463.585524943 ; 0.0
61 ; 20284.32460462458 ; 137995.22675994426 ; 874794.2516818283 ; 6738172.882290873 ; 0.0
62 ; 20491.93068493321 ; 139292.6994105521 ; 895078.5762864528 ; 6876168.109050817 ; 0.0
63 ; 20694.83847613803 ; 140601.29773846347 ; 915570.506971386 ; 7015460.808461369 ; 0.0
64 ; 20680.541821279512 ; 141920.61571781887 ; 936265.3454475241 ; 7156062.106199833 ; 0.0
65 ; 20685.706658350293 ; 143250.25809304827 ; 956945.8872688037 ; 7297982.721917652 ; 0.0
66 ; 20907.79754129488 ; 144589.84018275625 ; 977631.593927154 ; 7441232.9800106995 ; 0.0
67 ; 20922.564699841754 ; 145938.9876727628 ; 998539.3914684488 ; 7585822.820193456 ; 0.0
68 ; 20980.51206796879 ; 147297.33640024104 ; 1019461.9561682906 ; 7731761.8078662185 ; 0.0
69 ; 21027.879036980383 ; 148664.53213071325 ; 1040442.4682362594 ; 7879059.144266459 ; 0.0
70 ; 21127.75233546131 ; 150040.23032950127 ; 1061470.3472732399 ; 8027723.676397173 ; 0.0
71 ; 21019.53711715228 ; 151424.0959290679 ; 1082598.0996087012 ; 8177763.906726674 ; 0.0
72 ; 21195.558144379575 ; 152815.80309354005 ; 1103617.6367258534 ; 8329188.002655742 ; 0.0
73 ; 21288.884335321003 ; 154215.03498156831 ; 1124813.194870233 ; 8482003.805749282 ; 0.0
74 ; 21264.79478108596 ; 155621.48350854902 ; 1146102.079205554 ; 8636218.84073085 ; 0.0
75 ; 21319.993709462342 ; 157034.84910911997 ; 1167366.87398664 ; 8791840.3242394 ; 0.0
76 ; 21586.805842796533 ; 158454.84050073285 ; 1188686.8676961022 ; 8948875.17334852 ; 0.0
77 ; 21201.468972269475 ; 159881.17444900484 ; 1210273.6735388988 ; 9107330.013849253 ; 0.0
78 ; 21534.129767122984 ; 161313.57553546483 ; 1231475.1425111683 ; 9267211.188298257 ; 0.0
79 ; 21549.790019447904 ; 162751.77592822307 ; 1253009.2722782912 ; 9428524.763833722 ; 0.0
80 ; 21514.600714643617 ; 164195.51515602277 ; 1274559.062297739 ; 9591276.539761946 ; 0.0
81 ; 21362.02441348285 ; 165644.53988605912 ; 1296073.6630123828 ; 9755472.054917969 ; 0.0
82 ; 21470.289188724557 ; 167098.6037058945 ; 1317435.6874258656 ; 9921116.594804028 ; 0.0
83 ; 21562.867381516826 ; 168557.46690973913 ; 1338905.97661459 ; 1.0088215198509922E7 ; 0.0
84 ; 21408.642477611043 ; 170020.8962893195 ; 1360468.8439961069 ; 1.025677266541966E7 ; 0.0
85 ; 21429.45481714219 ; 171488.66492950995 ; 1381877.486473718 ; 1.042679356170898E7 ; 0.0
86 ; 21310.832498722848 ; 172960.55200886517 ; 1403306.94129086 ; 1.0598282226638488E7 ; 0.0
87 ; 21159.53763164788 ; 174436.34260515266 ; 1424617.773789583 ; 1.0771242778647354E7 ; 0.0
88 ; 21306.319252084042 ; 175915.82750595576 ; 1445777.311421231 ; 1.0945679121252507E7 ; 0.0
89 ; 21245.822733115696 ; 177398.8030243883 ; 1467083.630673315 ; 1.1121594948758462E7 ; 0.0
90 ; 21298.38137737554 ; 178885.0708199365 ; 1488329.4534064305 ; 1.1298993751782851E7 ; 0.0
91 ; 21252.28553823441 ; 180374.43772442397 ; 1509627.834783806 ; 1.1477878822602788E7 ; 0.0
92 ; 21066.51976990324 ; 181866.7155730758 ; 1530880.1203220405 ; 1.1658253260327213E7 ; 0.0
93 ; 21164.102661207944 ; 183361.72104064125 ; 1551946.6400919438 ; 1.1840119975900289E7 ; 0.0
94 ; 21110.562788953222 ; 184859.27548251994 ; 1573110.7427531518 ; 1.202348169694093E7 ; 0.0
95 ; 21164.06965797413 ; 186359.20478082664 ; 1594221.305542105 ; 1.2208340972423451E7 ; 0.0
96 ; 20908.569244250655 ; 187861.33919531596 ; 1615385.3752000793 ; 1.2394700177204277E7 ; 0.0
97 ; 20767.95624162682 ; 189365.51321908232 ; 1636293.94444433 ; 1.2582561516399594E7 ; 0.0
98 ; 20789.53206175665 ; 190871.56543894223 ; 1657061.9006859567 ; 1.2771927029618677E7 ; 0.0
99 ; 20658.676488545 ; 192379.33840040007 ; 1677851.4327477133 ; 1.296279859505762E7 ; 0.0
100 ; 20755.94571471046 ; 193888.67847709416 ; 1698510.1092362583 ; 1.3155177933458019E7 ; 0.0
101 ; 20492.349977320297 ; 195399.4357446154 ; 1719266.0549509688 ; 1.3349066611935113E7 ; 0.0
102 ; 20310.746200611356 ; 196911.4638585893 ; 1739758.4049282891 ; 1.3544466047679728E7 ; 0.0
103 ; 20311.206038577817 ; 198424.6199369086 ; 1760069.1511289005 ; 1.3741377511538317E7 ; 0.0
104 ; 20213.915028544303 ; 199938.76444600348 ; 1780380.3571674782 ; 1.3939802131475225E7 ; 0.0
105 ; 20150.209867448782 ; 201453.7610910361 ; 1800594.2721960226 ; 1.4139740895921228E7 ; 0.0
106 ; 20081.327621210457 ; 202969.476709904 ; 1820744.4820634713 ; 1.4341194657012265E7 ; 0.0
107 ; 19991.608656150624 ; 204485.78117094032 ; 1840825.8096846817 ; 1.454416413372217E7 ; 0.0
108 ; 19702.111460036846 ; 206002.54727419617 ; 1860817.4183408322 ; 1.474864991489311E7 ; 0.0
109 ; 19710.11789469157 ; 207519.65065619515 ; 1880519.529800869 ; 1.4954652462167306E7 ; 0.0
110 ; 19755.46651825526 ; 209036.9696980479 ; 1900229.6476955607 ; 1.5162172112823501E7 ; 0.0
111 ; 19384.972685720008 ; 210554.38543681952 ; 1919985.114213816 ; 1.5371209082521548E7 ; 0.0
112 ; 19402.91714960947 ; 212071.78148004165 ; 1939370.086899536 ; 1.5581763467958368E7 ; 0.0
113 ; 19062.303674219787 ; 213589.04392326536 ; 1958773.0040491454 ; 1.579383524943841E7 ; 0.0
114 ; 19142.854583703232 ; 215106.0612705522 ; 1977835.3077233653 ; 1.6007424293361677E7 ; 0.0
115 ; 18783.47920367081 ; 216622.72435780294 ; 1996978.1623070685 ; 1.6222530354632229E7 ; 0.0
116 ; 18642.75752090345 ; 218138.92627882608 ; 2015761.6415107392 ; 1.6439153078990031E7 ; 0.0
117 ; 18388.37000178198 ; 219654.56231405173 ; 2034404.3990316426 ; 1.6657292005268857E7 ; 0.0
118 ; 18440.625667584638 ; 221169.52986179682 ; 2052792.7690334246 ; 1.687694656758291E7 ; 0.0
119 ; 18256.11619755796 ; 222683.72837199282 ; 2071233.3947010092 ; 1.7098116097444706E7 ; 0.0
120 ; 18025.69789253944 ; 224197.05928228705 ; 2089489.510898567 ; 1.73207998258167E7 ; 0.0
121 ; 17805.8139988628 ; 225709.4259564341 ; 2107515.2087911065 ; 1.7544996885098986E7 ; 0.0
122 ; 17513.01883446893 ; 227220.73362489382 ; 2125321.022789969 ; 1.777070631105542E7 ; 0.0
123 ; 17429.76001487573 ; 228730.88932755636 ; 2142834.041624438 ; 1.7997927044680316E7 ; 0.0
124 ; 17316.8705736406 ; 230239.80185851746 ; 2160263.801639314 ; 1.8226657934007872E7 ; 0.0
125 ; 17023.82698216458 ; 231747.38171282888 ; 2177580.6722129546 ; 1.845689773586639E7 ; 0.0
126 ; 16813.96870878043 ; 233253.5410351518 ; 2194604.4991951194 ; 1.8688645117579218E7 ; 0.0
127 ; 16609.603342011644 ; 234758.1935702432 ; 2211418.4679039 ; 1.892189865861437E7 ; 0.0
128 ; 16441.873441286756 ; 236261.2546152083 ; 2228028.0712459115 ; 1.9156656852184616E7 ; 0.0
129 ; 16032.878380461107 ; 237762.64097345356 ; 2244469.9446871984 ; 1.9392918106799826E7 ; 0.0
130 ; 15955.765331275088 ; 239262.270910277 ; 2260502.8230676595 ; 1.963068074777328E7 ; 0.0
131 ; 15665.110455282878 ; 240760.06411003697 ; 2276458.588398935 ; 1.9869943018683556E7 ; 0.0
132 ; 15568.24269488741 ; 242255.94163483835 ; 2292123.698854218 ; 2.0110703082793593E7 ; 0.0
133 ; 15198.829161790954 ; 243749.82588468224 ; 2307691.941549105 ; 2.035295902442843E7 ; 0.0
134 ; 15128.307991302283 ; 245241.64055902365 ; 2322890.7707108962 ; 2.0596708850313112E7 ; 0.0
135 ; 14705.832341825913 ; 246731.31061968504 ; 2338019.0787021983 ; 2.0841950490872137E7 ; 0.0
136 ; 14376.332505961953 ; 248218.7622550755 ; 2352724.9110440244 ; 2.1088681801491823E7 ; 0.0
137 ; 14303.041119200703 ; 249703.92284566734 ; 2367101.2435499863 ; 2.13369005637469E7 ; 0.0
138 ; 13944.210626572773 ; 251186.72093068276 ; 2381404.284669187 ; 2.158660448659257E7 ; 0.0
139 ; 13726.609745193897 ; 252667.08617594626 ; 2395348.4952957598 ; 2.1837791207523253E7 ; 0.0
140 ; 13512.591346099729 ; 254144.9493428595 ; 2409075.1050409535 ; 2.2090458293699197E7 ; 0.0
141 ; 13207.896237780224 ; 255620.24225845624 ; 2422587.696387053 ; 2.2344603243042056E7 ; 0.0
142 ; 12881.198101948788 ; 257092.8977864984 ; 2435795.5926248333 ; 2.260022348530051E7 ; 0.0
143 ; 12628.963189290898 ; 258562.84979957432 ; 2448676.7907267823 ; 2.285731638308701E7 ; 0.0
144 ; 12442.005848435707 ; 260030.03315216154 ; 2461305.753916073 ; 2.3115879232886583E7 ; 0.0
145 ; 12286.08868117911 ; 261494.38365461933 ; 2473747.759764509 ; 2.3375909266038746E7 ; 0.0
146 ; 12058.724408121856 ; 262955.83804807643 ; 2486033.848445688 ; 2.3637403649693366E7 ; 0.0
147 ; 12087.335179813248 ; 264414.33398018044 ; 2498092.5728538097 ; 2.3900359487741444E7 ; 0.0
148 ; 12116.709951478477 ; 265869.8099816785 ; 2510179.908033623 ; 2.4164773821721625E7 ; 0.0
149 ; 11868.36807180297 ; 267322.205443797 ; 2522296.6179851014 ; 2.4430643631703302E7 ; 0.0
150 ; 12072.737941216285 ; 268771.4605963926 ; 2534164.9860569043 ; 2.4697965837147098E7 ; 0.0
151 ; 11863.037202228035 ; 270217.5164868454 ; 2546237.7239981205 ; 2.496673729774349E7 ; 0.0
152 ; 11753.898831242275 ; 271660.31495966756 ; 2558100.7612003484 ; 2.5236954814230338E7 ; 0.0
153 ; 11514.237575241425 ; 273099.79863680096 ; 2569854.6600315906 ; 2.5508615129190005E7 ; 0.0
154 ; 11498.879068636395 ; 274535.9108985794 ; 2581368.897606832 ; 2.5781714927826807E7 ; 0.0
155 ; 11428.40896842184 ; 275968.5958653306 ; 2592867.7766754683 ; 2.6056250838725388E7 ; 0.0
156 ; 11148.947732630086 ; 277397.7983795956 ; 2604296.18564389 ; 2.633221943459072E7 ; 0.0
157 ; 11324.279607783088 ; 278823.4639889421 ; 2615445.13337652 ; 2.6609617232970316E7 ; 0.0
158 ; 10982.801371326888 ; 280245.5389293512 ; 2626769.412984303 ; 2.6888440696959257E7 ; 0.0
159 ; 10963.61122756153 ; 281663.9701091576 ; 2637752.21435563 ; 2.7168686235888608E7 ; 0.0
160 ; 10858.43321704974 ; 283078.70509352133 ; 2648715.8255831916 ; 2.7450350205997765E7 ; 0.0
161 ; 10752.630049937297 ; 284489.6920894137 ; 2659574.258800241 ; 2.7733428911091287E7 ; 0.0
162 ; 10785.783219267125 ; 285896.8799310991 ; 2670326.8888501786 ; 2.80179186031807E7 ; 0.0
163 ; 10449.53061138883 ; 287300.21806609357 ; 2681112.6720694457 ; 2.83038154831118E7 ; 0.0
164 ; 10307.106950079955 ; 288699.65654158534 ; 2691562.2026808346 ; 2.859111570117789E7 ; 0.0
165 ; 10227.352889720381 ; 290095.1459912985 ; 2701869.3096309146 ; 2.8879815357719477E7 ; 0.0
166 ; 10194.00524746705 ; 291486.6376227867 ; 2712096.662520635 ; 2.9169910503710777E7 ; 0.0
167 ; 10165.061424713394 ; 292874.0832051397 ; 2722290.667768102 ; 2.9461397141333565E7 ; 0.0
168 ; 10000.335609386797 ; 294257.43505708943 ; 2732455.7291928157 ; 2.9754271224538706E7 ; 0.0
169 ; 9900.67184364019 ; 295636.64603550103 ; 2742456.0648022024 ; 3.0048528659595795E7 ; 0.0
170 ; 9912.948693304452 ; 297011.6695242357 ; 2752356.7366458424 ; 3.0344165305631295E7 ; 0.0
171 ; 9593.11669153821 ; 298382.4594233724 ; 2762269.6853391468 ; 3.0641176975155532E7 ; 0.0
172 ; 9393.749419503343 ; 299748.9701387756 ; 2771862.802030685 ; 3.0939559434578903E7 ; 0.0
173 ; 9265.088674721996 ; 301111.1565719976 ; 2781256.5514501883 ; 3.123930840471768E7 ; 0.0
174 ; 9396.475030158303 ; 302468.9741105038 ; 2790521.64012491 ; 3.154041956128968E7 ; 0.0
175 ; 9541.5060429189 ; 303822.37861820863 ; 2799918.115155068 ; 3.1842888535400182E7 ; 0.0
176 ; 9382.953815149724 ; 305171.3264263141 ; 2809459.6211979873 ; 3.214671091401839E7 ; 0.0
177 ; 9393.029499600356 ; 306515.7743244373 ; 2818842.575013137 ; 3.24518822404447E7 ; 0.0
178 ; 9511.140207077358 ; 307855.67955201986 ; 2828235.604512737 ; 3.2758398014769137E7 ; 0.0
179 ; 9460.403767704885 ; 309190.99979000835 ; 2837746.7447198145 ; 3.3066253694321156E7 ; 0.0
180 ; 9673.55018750509 ; 310521.69315279607 ; 2847207.1484875195 ; 3.3375444694111165E7 ; 0.0
181 ; 9524.72459069079 ; 311847.71818041865 ; 2856880.698675025 ; 3.368596638726396E7 ; 0.0
182 ; 9560.555526069871 ; 313169.0338309939 ; 2866405.4232657156 ; 3.399781410544438E7 ; 0.0
183 ; 9594.447472418758 ; 314485.5994733985 ; 2875965.9787917854 ; 3.431098313927537E7 ; 0.0
184 ; 9657.949147152949 ; 315797.3748801722 ; 2885560.426264204 ; 3.4625468738748774E7 ; 0.0
185 ; 9502.738817402802 ; 317104.32022064406 ; 2895218.3754113573 ; 3.4941266113628946E7 ; 0.0
186 ; 9691.036267110081 ; 318406.3960542711 ; 2904721.11422876 ; 3.525837043384959E7 ; 0.0
187 ; 9750.21529436291 ; 319703.5633241838 ; 2914412.15049587 ; 3.5576776829903856E7 ; 0.0
188 ; 9738.508489097092 ; 320995.7833509314 ; 2924162.365790233 ; 3.589648039322804E7 ; 0.0
189 ; 9853.158083925864 ; 322283.01782641956 ; 2933900.87427933 ; 3.621747617657897E7 ; 0.0
190 ; 9820.493433456537 ; 323565.2288080348 ; 2943754.032363256 ; 3.653975919440539E7 ; 0.0
191 ; 9660.85863500396 ; 324842.3787129499 ; 2953574.5257967124 ; 3.686332442321343E7 ; 0.0
192 ; 9724.559352352318 ; 326114.4303126032 ; 2963235.3844317165 ; 3.718816680192638E7 ; 0.0
193 ; 9700.349610050082 ; 327381.34672734706 ; 2972959.943784069 ; 3.7514281232238986E7 ; 0.0
194 ; 9913.8861766525 ; 328643.09142125974 ; 2982660.293394119 ; 3.7841662578966334E7 ; 0.0
195 ; 9759.865998821724 ; 329899.6281971155 ; 2992574.1795707713 ; 3.8170305670387596E7 ; 0.0
196 ; 10027.30643713849 ; 331150.92119150714 ; 3002334.045569593 ; 3.8500205298584715E7 ; 0.0
197 ; 9750.402048129035 ; 332396.93487011734 ; 3012361.3520067316 ; 3.883135621977622E7 ; 0.0
198 ; 9744.702933397062 ; 333637.6340231324 ; 3022111.7540548607 ; 3.916375315464634E7 ; 0.0
199 ; 9894.084278602515 ; 334872.9837607955 ; 3031856.456988258 ; 3.949739078866947E7 ; 0.0
200 ; 9917.776828369575 ; 336102.949509094 ; 3041750.5412668604 ; 3.983226377243026E7 ; 0.0
201 ; 9912.642425849077 ; 337327.497005576 ; 3051668.31809523 ; 4.0168366721939355E7 ; 0.0
202 ; 9980.139437357253 ; 338546.5922952938 ; 3061580.960521079 ; 4.050569421894493E7 ; 0.0
203 ; 10065.370291689753 ; 339760.2017268687 ; 3071561.0999584366 ; 4.0844240811240226E7 ; 0.0
204 ; 10054.422174540417 ; 340968.29194867355 ; 3081626.4702501264 ; 4.1184001012967095E7 ; 0.0
205 ; 10032.937964359218 ; 342170.8299051304 ; 3091680.892424667 ; 4.152496930491577E7 ; 0.0
206 ; 10012.24955365127 ; 343367.78283311793 ; 3101713.830389026 ; 4.18671401348209E7 ; 0.0
207 ; 10073.525055215285 ; 344559.11825848656 ; 3111726.079942677 ; 4.2210507917654015E7 ; 0.0
208 ; 10314.30560858547 ; 345744.8039926779 ; 3121799.6049978924 ; 4.25550670359125E7 ; 0.0
209 ; 10141.238921593544 ; 346924.8081294438 ; 3132113.910606478 ; 4.290081183990518E7 ; 0.0
210 ; 10148.889867488806 ; 348099.0990416638 ; 3142255.1495280713 ; 4.3247736648034625E7 ; 0.0
211 ; 10222.380158482862 ; 349267.6453782568 ; 3152404.03939556 ; 4.359583574707629E7 ; 0.0
212 ; 10167.068439883007 ; 350430.41606118414 ; 3162626.419554043 ; 4.394510339245454E7 ; 0.0
