CSV File for the City 1 on Day 126
1 - Minute m 
2 - Power Consumed at minute m 
3 - Power Produced at minute m 
4 - Energy Consumed since the beginning of the day 
5 - Energy Produced since the beginning of the day 
6 - Energy Lost since the beginning of the day on lines starting from the city
 
0 ; 11122.701753257357 ; 16669.251100798792 ; 0.0 ; 0.0 ; 0.0
1 ; 11512.045587250841 ; 16669.251100798792 ; 11122.701753257357 ; 16669.251100798792 ; 238.00000000000003
2 ; 11894.640000197756 ; 16669.251100798792 ; 22634.7473405082 ; 33338.502201597585 ; 476.00000000000006
3 ; 12379.73312984451 ; 16669.251100798792 ; 34529.38734070596 ; 50007.75330239638 ; 714.0000000000001
4 ; 12991.604853699851 ; 16669.251100798792 ; 46909.120470550464 ; 66677.00440319517 ; 952.0000000000001
5 ; 13195.252069640226 ; 16669.251100798792 ; 59900.725324250314 ; 83346.25550399396 ; 1190.0000000000002
6 ; 13433.537771814314 ; 16669.251100798792 ; 73095.97739389054 ; 100015.50660479275 ; 1428.0000000000002
7 ; 13795.457024928934 ; 16669.251100798792 ; 86529.51516570486 ; 116684.75770559155 ; 1666.0000000000002
8 ; 14065.8630389243 ; 16669.251100798792 ; 100324.9721906338 ; 133354.00880639034 ; 1904.0000000000002
9 ; 14317.275439101326 ; 16669.251100798792 ; 114390.8352295581 ; 150023.25990718912 ; 2142.0000000000005
10 ; 14831.558727225809 ; 16669.251100798792 ; 128708.11066865943 ; 166692.5110079879 ; 2380.0000000000005
11 ; 15289.515727938702 ; 16669.251100798792 ; 143539.66939588523 ; 183361.76210878667 ; 2618.0000000000005
12 ; 15600.443055083382 ; 16669.251100798792 ; 158829.18512382393 ; 200031.01320958545 ; 2856.0000000000005
13 ; 15943.54659785029 ; 16669.251100798792 ; 174429.62817890733 ; 216700.26431038423 ; 3094.0000000000005
14 ; 16163.564970191706 ; 16669.251100798792 ; 190373.1747767576 ; 233369.515411183 ; 3332.0000000000005
15 ; 16591.96856525174 ; 16669.251100798792 ; 206536.73974694932 ; 250038.76651198178 ; 3570.0000000000005
16 ; 16862.245381458815 ; 16669.251100798792 ; 223128.70831220105 ; 266708.01761278056 ; 3808.0000000000005
17 ; 17168.185614385373 ; 16669.251100798792 ; 239990.95369365986 ; 283377.26871357934 ; 4046.0000000000005
18 ; 17492.448381339815 ; 16669.251100798792 ; 257159.13930804524 ; 300046.5198143781 ; 4284.000000000001
19 ; 17651.03535065473 ; 16669.251100798792 ; 274651.58768938505 ; 316715.7709151769 ; 4522.000000000001
20 ; 17974.435362476914 ; 16669.251100798792 ; 292302.6230400398 ; 333385.0220159757 ; 4760.000000000001
21 ; 18477.91275332686 ; 16669.251100798792 ; 310277.0584025167 ; 350054.27311677445 ; 4998.000000000001
22 ; 18439.503893922716 ; 16669.251100798792 ; 328754.9711558436 ; 366723.5242175732 ; 5236.000000000001
23 ; 18918.75624175447 ; 16669.251100798792 ; 347194.4750497663 ; 383392.775318372 ; 5474.000000000001
24 ; 19146.85745875807 ; 16669.251100798792 ; 366113.23129152076 ; 400062.0264191708 ; 5712.000000000001
25 ; 19301.1178342974 ; 16669.251100798792 ; 385260.0887502788 ; 416731.27751996956 ; 5950.000000000001
26 ; 19593.03402590147 ; 16669.251100798792 ; 404561.2065845762 ; 433400.52862076834 ; 6188.000000000001
27 ; 19974.794584685485 ; 16669.251100798792 ; 424154.2406104777 ; 450069.7797215671 ; 6426.000000000001
28 ; 20282.58824093829 ; 16669.251100798792 ; 444129.03519516316 ; 466739.0308223659 ; 6664.000000000001
29 ; 20373.79208764135 ; 16669.251100798792 ; 464411.6234361015 ; 483408.2819231647 ; 6902.000000000001
30 ; 20776.372339723097 ; 16669.251100798792 ; 484785.41552374285 ; 500077.53302396345 ; 7140.000000000001
31 ; 21152.259836392142 ; 16669.251100798792 ; 505561.78786346596 ; 516746.7841247622 ; 7378.000000000001
32 ; 21285.471070633444 ; 16669.251100798792 ; 526714.0476998581 ; 533416.035225561 ; 7616.000000000001
33 ; 21267.283006005775 ; 16669.251100798792 ; 547999.5187704915 ; 550085.2863263598 ; 7854.000000000001
34 ; 21640.146595038426 ; 16669.251100798792 ; 569266.8017764973 ; 566754.5374271587 ; 8092.000000000001
35 ; 21832.471431644502 ; 16669.251100798792 ; 590906.9483715357 ; 583423.7885279575 ; 8330.000000000002
36 ; 22105.43920569121 ; 16669.251100798792 ; 612739.4198031803 ; 600093.0396287563 ; 8568.000000000002
37 ; 22318.27609564398 ; 16669.251100798792 ; 634844.8590088715 ; 616762.2907295552 ; 8806.000000000002
38 ; 22493.014649226883 ; 16669.251100798792 ; 657163.1351045155 ; 633431.541830354 ; 9044.000000000002
39 ; 22532.960097489853 ; 16669.251100798792 ; 679656.1497537424 ; 650100.7929311529 ; 9282.000000000002
40 ; 23016.744911300546 ; 16669.251100798792 ; 702189.1098512323 ; 666770.0440319517 ; 9520.000000000002
41 ; 22890.882700533275 ; 16669.251100798792 ; 725205.8547625329 ; 683439.2951327505 ; 9758.000000000002
42 ; 23313.12910938386 ; 16669.251100798792 ; 748096.7374630661 ; 700108.5462335494 ; 9996.000000000002
43 ; 23531.31872768234 ; 16669.251100798792 ; 771409.86657245 ; 716777.7973343482 ; 10234.000000000002
44 ; 23663.38835373097 ; 16669.251100798792 ; 794941.1853001324 ; 733447.048435147 ; 10472.000000000002
45 ; 23870.70298954927 ; 16669.251100798792 ; 818604.5736538634 ; 750116.2995359459 ; 10710.000000000002
46 ; 24034.894951333423 ; 16669.251100798792 ; 842475.2766434127 ; 766785.5506367447 ; 10948.000000000002
47 ; 24217.043427922014 ; 16669.251100798792 ; 866510.1715947461 ; 783454.8017375435 ; 11186.000000000002
48 ; 24422.426127112045 ; 16669.251100798792 ; 890727.2150226681 ; 800124.0528383424 ; 11424.000000000002
49 ; 24442.033315280565 ; 16669.251100798792 ; 915149.6411497801 ; 816793.3039391412 ; 11662.000000000002
50 ; 24625.788782498683 ; 16669.251100798792 ; 939591.6744650607 ; 833462.55503994 ; 11900.000000000002
51 ; 24796.989205201342 ; 16669.251100798792 ; 964217.4632475594 ; 850131.8061407389 ; 12138.000000000002
52 ; 24869.918719691144 ; 16669.251100798792 ; 989014.4524527608 ; 866801.0572415377 ; 12376.000000000002
53 ; 25040.031962651483 ; 16669.251100798792 ; 1013884.3711724519 ; 883470.3083423366 ; 12614.000000000002
54 ; 25020.84200417231 ; 16669.251100798792 ; 1038924.4031351034 ; 900139.5594431354 ; 12852.000000000002
55 ; 25178.131979771326 ; 16669.251100798792 ; 1063945.2451392757 ; 916808.8105439342 ; 13090.000000000002
56 ; 25313.53376394809 ; 16669.251100798792 ; 1089123.377119047 ; 933478.0616447331 ; 13328.000000000002
57 ; 25472.624481286744 ; 16669.251100798792 ; 1114436.9108829952 ; 950147.3127455319 ; 13566.000000000002
58 ; 25699.585939507415 ; 16669.251100798792 ; 1139909.535364282 ; 966816.5638463307 ; 13804.000000000002
59 ; 25888.54504262356 ; 16669.251100798792 ; 1165609.1213037896 ; 983485.8149471296 ; 14042.000000000002
60 ; 25783.320123246143 ; 16669.251100798792 ; 1191497.666346413 ; 1000155.0660479284 ; 14280.000000000002
61 ; 25930.32265756303 ; 16669.251100798792 ; 1217280.9864696593 ; 1016824.3171487272 ; 14518.000000000002
62 ; 25887.12522424513 ; 16669.251100798792 ; 1243211.3091272223 ; 1033493.5682495261 ; 14756.000000000002
63 ; 26064.354333939533 ; 16669.251100798792 ; 1269098.4343514675 ; 1050162.8193503248 ; 14994.000000000002
64 ; 26241.25856676301 ; 16669.251100798792 ; 1295162.788685407 ; 1066832.0704511236 ; 15232.000000000002
65 ; 26288.932376216835 ; 16669.251100798792 ; 1321404.04725217 ; 1083501.3215519225 ; 15470.000000000002
66 ; 26353.362153670834 ; 16669.251100798792 ; 1347692.979628387 ; 1100170.5726527213 ; 15708.000000000002
67 ; 26295.50003273036 ; 16669.251100798792 ; 1374046.3417820577 ; 1116839.8237535201 ; 15946.000000000002
68 ; 26413.04612965926 ; 16669.251100798792 ; 1400341.841814788 ; 1133509.074854319 ; 16184.000000000002
69 ; 26538.93073271758 ; 16669.251100798792 ; 1426754.8879444473 ; 1150178.3259551178 ; 16422.000000000004
70 ; 26456.223936443093 ; 16669.251100798792 ; 1453293.8186771648 ; 1166847.5770559167 ; 16660.000000000004
71 ; 26534.85378861291 ; 16669.251100798792 ; 1479750.0426136078 ; 1183516.8281567155 ; 16898.000000000004
72 ; 26504.23618261108 ; 16669.251100798792 ; 1506284.8964022207 ; 1200186.0792575143 ; 17136.000000000004
73 ; 26826.539852405116 ; 16669.251100798792 ; 1532789.1325848317 ; 1216855.3303583132 ; 17374.000000000004
74 ; 26571.595288411063 ; 16669.251100798792 ; 1559615.6724372369 ; 1233524.581459112 ; 17612.000000000004
75 ; 26634.267206855297 ; 16669.251100798792 ; 1586187.267725648 ; 1250193.8325599108 ; 17850.000000000004
76 ; 26576.085895928773 ; 16669.251100798792 ; 1612821.5349325032 ; 1266863.0836607097 ; 18088.000000000004
77 ; 26815.57449770407 ; 16669.251100798792 ; 1639397.620828432 ; 1283532.3347615085 ; 18326.000000000004
78 ; 26631.67142799012 ; 16669.251100798792 ; 1666213.1953261362 ; 1300201.5858623073 ; 18564.000000000004
79 ; 26932.78926528934 ; 16669.251100798792 ; 1692844.8667541263 ; 1316870.8369631062 ; 18802.000000000004
80 ; 26841.757377728478 ; 16669.251100798792 ; 1719777.6560194157 ; 1333540.088063905 ; 19040.000000000004
81 ; 26750.394867428684 ; 16669.251100798792 ; 1746619.4133971443 ; 1350209.3391647039 ; 19278.000000000004
82 ; 26591.843702996073 ; 16669.251100798792 ; 1773369.8082645729 ; 1366878.5902655027 ; 19516.000000000004
83 ; 26675.648822876046 ; 16669.251100798792 ; 1799961.651967569 ; 1383547.8413663015 ; 19754.000000000004
84 ; 26706.12683824976 ; 16669.251100798792 ; 1826637.3007904452 ; 1400217.0924671004 ; 19992.000000000004
85 ; 26616.426955319723 ; 16669.251100798792 ; 1853343.427628695 ; 1416886.3435678992 ; 20230.000000000004
86 ; 26665.777404169017 ; 16669.251100798792 ; 1879959.8545840147 ; 1433555.594668698 ; 20468.000000000004
87 ; 26576.37125030358 ; 16669.251100798792 ; 1906625.6319881838 ; 1450224.8457694969 ; 20706.000000000004
88 ; 26459.681733947065 ; 16669.251100798792 ; 1933202.0032384875 ; 1466894.0968702957 ; 20944.000000000004
89 ; 26558.44315464112 ; 16669.251100798792 ; 1959661.6849724345 ; 1483563.3479710945 ; 21182.000000000004
90 ; 26500.077597377494 ; 16669.251100798792 ; 1986220.1281270757 ; 1500232.5990718934 ; 21420.000000000004
91 ; 26419.6025269974 ; 16669.251100798792 ; 2012720.2057244533 ; 1516901.8501726922 ; 21658.000000000004
92 ; 26318.590626553156 ; 16669.251100798792 ; 2039139.8082514508 ; 1533571.101273491 ; 21896.000000000004
93 ; 26280.767717939485 ; 16669.251100798792 ; 2065458.398878004 ; 1550240.3523742899 ; 22134.000000000004
94 ; 26334.965172006916 ; 16669.251100798792 ; 2091739.1665959435 ; 1566909.6034750887 ; 22372.000000000004
95 ; 26364.98261819678 ; 16669.251100798792 ; 2118074.1317679505 ; 1583578.8545758876 ; 22610.000000000004
96 ; 25970.22892961592 ; 16669.251100798792 ; 2144439.1143861474 ; 1600248.1056766864 ; 22848.000000000004
97 ; 25958.88732138018 ; 16669.251100798792 ; 2170409.3433157634 ; 1616917.3567774852 ; 23086.000000000004
98 ; 26013.86442510895 ; 16669.251100798792 ; 2196368.2306371434 ; 1633586.607878284 ; 23324.000000000004
99 ; 25914.666788664166 ; 16669.251100798792 ; 2222382.095062252 ; 1650255.858979083 ; 23562.000000000004
100 ; 25704.225085133752 ; 16669.251100798792 ; 2248296.7618509163 ; 1666925.1100798817 ; 23800.000000000004
101 ; 25686.09267837688 ; 16669.251100798792 ; 2274000.98693605 ; 1683594.3611806806 ; 24038.000000000004
102 ; 25510.69988163344 ; 16669.251100798792 ; 2299687.079614427 ; 1700263.6122814794 ; 24276.000000000004
103 ; 25419.629895935497 ; 16669.251100798792 ; 2325197.77949606 ; 1716932.8633822782 ; 24514.000000000004
104 ; 25252.798937016414 ; 16669.251100798792 ; 2350617.4093919955 ; 1733602.114483077 ; 24752.000000000004
105 ; 25094.29869791478 ; 16669.251100798792 ; 2375870.208329012 ; 1750271.365583876 ; 24990.000000000004
106 ; 25116.965864368092 ; 16669.251100798792 ; 2400964.507026927 ; 1766940.6166846748 ; 25228.000000000004
107 ; 24816.767387187883 ; 16669.251100798792 ; 2426081.4728912953 ; 1783609.8677854736 ; 25466.000000000004
108 ; 24616.036829479195 ; 16669.251100798792 ; 2450898.2402784834 ; 1800279.1188862724 ; 25704.000000000004
109 ; 24515.16303926972 ; 16669.251100798792 ; 2475514.2771079624 ; 1816948.3699870713 ; 25942.000000000004
110 ; 24412.925069596524 ; 16669.251100798792 ; 2500029.4401472323 ; 1833617.62108787 ; 26180.000000000004
111 ; 24329.567250510518 ; 16669.251100798792 ; 2524442.365216829 ; 1850286.872188669 ; 26418.000000000004
112 ; 24300.67074010539 ; 16669.251100798792 ; 2548771.9324673396 ; 1866956.1232894678 ; 26656.000000000004
113 ; 23846.20975891128 ; 16669.251100798792 ; 2573072.603207445 ; 1883625.3743902666 ; 26894.000000000004
114 ; 23693.561598015545 ; 16669.251100798792 ; 2596918.812966356 ; 1900294.6254910654 ; 27132.000000000004
115 ; 23542.35577457234 ; 16669.251100798792 ; 2620612.3745643715 ; 1916963.8765918643 ; 27370.000000000004
116 ; 23476.17033757643 ; 16669.251100798792 ; 2644154.7303389437 ; 1933633.127692663 ; 27608.000000000004
117 ; 23242.46351996072 ; 16669.251100798792 ; 2667630.90067652 ; 1950302.378793462 ; 27846.000000000004
118 ; 23007.658647568383 ; 16669.251100798792 ; 2690873.3641964807 ; 1966971.6298942608 ; 28084.000000000004
119 ; 22969.625456603502 ; 16669.251100798792 ; 2713881.022844049 ; 1983640.8809950596 ; 28322.000000000004
120 ; 22703.14124564709 ; 16669.251100798792 ; 2736850.648300653 ; 2000310.1320958585 ; 28560.000000000004
121 ; 22506.59679313256 ; 16669.251100798792 ; 2759553.7895462997 ; 2016979.3831966573 ; 28798.000000000004
122 ; 22067.47717893398 ; 16669.251100798792 ; 2782060.386339432 ; 2033648.6342974561 ; 29036.000000000004
123 ; 22144.058865604144 ; 16669.251100798792 ; 2804127.863518366 ; 2050317.885398255 ; 29274.000000000004
124 ; 21948.581793470243 ; 16669.251100798792 ; 2826271.92238397 ; 2066987.1364990538 ; 29512.000000000004
125 ; 21812.815558993465 ; 16669.251100798792 ; 2848220.5041774404 ; 2083656.3875998526 ; 29750.000000000004
126 ; 21310.328916817773 ; 16669.251100798792 ; 2870033.3197364337 ; 2100325.6387006515 ; 29988.000000000004
127 ; 21306.734715387818 ; 16669.251100798792 ; 2891343.6486532516 ; 2116994.88980145 ; 30226.000000000004
128 ; 20899.266013855144 ; 16669.251100798792 ; 2912650.3833686393 ; 2133664.1409022487 ; 30464.000000000004
129 ; 20778.23363478043 ; 16669.251100798792 ; 2933549.6493824944 ; 2150333.3920030473 ; 30702.000000000004
130 ; 20484.200347986105 ; 16669.251100798792 ; 2954327.883017275 ; 2167002.643103846 ; 30940.000000000004
131 ; 20197.479750340717 ; 16669.251100798792 ; 2974812.083365261 ; 2183671.8942046445 ; 31178.000000000004
132 ; 20022.724513476154 ; 16669.251100798792 ; 2995009.563115602 ; 2200341.145305443 ; 31416.000000000004
133 ; 19827.936598226857 ; 16669.251100798792 ; 3015032.287629078 ; 2217010.3964062417 ; 31654.000000000004
134 ; 19503.24524263062 ; 16669.251100798792 ; 3034860.224227305 ; 2233679.6475070403 ; 31892.000000000004
135 ; 19317.74885499574 ; 16669.251100798792 ; 3054363.4694699356 ; 2250348.898607839 ; 32130.000000000004
136 ; 18981.00309332429 ; 16669.251100798792 ; 3073681.2183249313 ; 2267018.1497086375 ; 32368.000000000004
137 ; 18575.612665102133 ; 16669.251100798792 ; 3092662.2214182555 ; 2283687.400809436 ; 32606.000000000004
138 ; 18468.530933426013 ; 16669.251100798792 ; 3111237.834083358 ; 2300356.6519102347 ; 32844.00000000001
139 ; 18121.490686874447 ; 16669.251100798792 ; 3129706.365016784 ; 2317025.9030110333 ; 33082.00000000001
140 ; 17690.756746835163 ; 16669.251100798792 ; 3147827.8557036584 ; 2333695.154111832 ; 33320.00000000001
141 ; 17252.758895762745 ; 16669.251100798792 ; 3165518.6124504935 ; 2350364.4052126305 ; 33558.00000000001
142 ; 17188.89663887226 ; 16669.251100798792 ; 3182771.371346256 ; 2367033.656313429 ; 33796.00000000001
143 ; 16862.187815373676 ; 16669.251100798792 ; 3199960.2679851283 ; 2383702.9074142277 ; 34034.00000000001
144 ; 16506.574086276403 ; 16669.251100798792 ; 3216822.455800502 ; 2400372.1585150263 ; 34272.00000000001
145 ; 16538.961965025286 ; 16669.251100798792 ; 3233329.0298867784 ; 2417041.409615825 ; 34510.00000000001
146 ; 16481.316673468446 ; 16669.251100798792 ; 3249867.991851804 ; 2433710.6607166235 ; 34748.00000000001
147 ; 16447.728492348822 ; 16669.251100798792 ; 3266349.308525272 ; 2450379.911817422 ; 34986.00000000001
148 ; 16129.91347909564 ; 16669.251100798792 ; 3282797.037017621 ; 2467049.1629182207 ; 35224.00000000001
149 ; 15943.525401665673 ; 16669.251100798792 ; 3298926.950496717 ; 2483718.4140190193 ; 35462.00000000001
150 ; 15977.166193939302 ; 16669.251100798792 ; 3314870.4758983827 ; 2500387.665119818 ; 35700.00000000001
151 ; 15882.555774789787 ; 16669.251100798792 ; 3330847.642092322 ; 2517056.9162206165 ; 35938.00000000001
152 ; 15643.543767804424 ; 16669.251100798792 ; 3346730.197867112 ; 2533726.167321415 ; 36176.00000000001
153 ; 15646.023723244081 ; 16669.251100798792 ; 3362373.741634916 ; 2550395.4184222138 ; 36414.00000000001
154 ; 15353.344224405624 ; 16669.251100798792 ; 3378019.7653581602 ; 2567064.6695230124 ; 36652.00000000001
155 ; 15568.2038386935 ; 16669.251100798792 ; 3393373.1095825657 ; 2583733.920623811 ; 36890.00000000001
156 ; 15319.846580136604 ; 16669.251100798792 ; 3408941.313421259 ; 2600403.1717246096 ; 37128.00000000001
157 ; 15294.214576418124 ; 16669.251100798792 ; 3424261.1600013957 ; 2617072.422825408 ; 37366.00000000001
158 ; 15230.397398996067 ; 16669.251100798792 ; 3439555.374577814 ; 2633741.673926207 ; 37604.00000000001
159 ; 14971.077404120238 ; 16669.251100798792 ; 3454785.77197681 ; 2650410.9250270054 ; 37842.00000000001
160 ; 14953.919983523861 ; 16669.251100798792 ; 3469756.84938093 ; 2667080.176127804 ; 38080.00000000001
161 ; 14792.21446175777 ; 16669.251100798792 ; 3484710.769364454 ; 2683749.4272286026 ; 38318.00000000001
162 ; 14844.216532170934 ; 16669.251100798792 ; 3499502.9838262117 ; 2700418.678329401 ; 38556.00000000001
163 ; 14516.737461681178 ; 16669.251100798792 ; 3514347.2003583824 ; 2717087.9294302 ; 38794.00000000001
164 ; 14218.852381715726 ; 16669.251100798792 ; 3528863.9378200634 ; 2733757.1805309984 ; 39032.00000000001
165 ; 14157.642715900018 ; 16669.251100798792 ; 3543082.790201779 ; 2750426.431631797 ; 39270.00000000001
166 ; 14086.014958978487 ; 16669.251100798792 ; 3557240.432917679 ; 2767095.6827325956 ; 39508.00000000001
167 ; 13760.915658735501 ; 16669.251100798792 ; 3571326.447876658 ; 2783764.933833394 ; 39746.00000000001
168 ; 13978.572897523456 ; 16669.251100798792 ; 3585087.3635353935 ; 2800434.184934193 ; 39984.00000000001
169 ; 13712.966627934058 ; 16669.251100798792 ; 3599065.936432917 ; 2817103.4360349914 ; 40222.00000000001
170 ; 13624.122850821768 ; 16669.251100798792 ; 3612778.903060851 ; 2833772.68713579 ; 40460.00000000001
171 ; 13397.706548685503 ; 16669.251100798792 ; 3626403.025911673 ; 2850441.9382365886 ; 40698.00000000001
172 ; 13071.454953073242 ; 16669.251100798792 ; 3639800.7324603586 ; 2867111.189337387 ; 40936.00000000001
173 ; 13069.252503584617 ; 16669.251100798792 ; 3652872.1874134317 ; 2883780.440438186 ; 41174.00000000001
174 ; 13119.93237876735 ; 16669.251100798792 ; 3665941.4399170163 ; 2900449.6915389844 ; 41412.00000000001
175 ; 13041.092421415105 ; 16669.251100798792 ; 3679061.372295784 ; 2917118.942639783 ; 41650.00000000001
176 ; 13120.88440399725 ; 16669.251100798792 ; 3692102.464717199 ; 2933788.1937405816 ; 41888.00000000001
177 ; 13074.425613367022 ; 16669.251100798792 ; 3705223.349121196 ; 2950457.44484138 ; 42126.00000000001
178 ; 13107.71574777545 ; 16669.251100798792 ; 3718297.774734563 ; 2967126.695942179 ; 42364.00000000001
179 ; 13250.874792632487 ; 16669.251100798792 ; 3731405.4904823387 ; 2983795.9470429774 ; 42602.00000000001
180 ; 13200.565799337419 ; 16669.251100798792 ; 3744656.3652749714 ; 3000465.198143776 ; 42840.00000000001
181 ; 13269.017126047793 ; 16669.251100798792 ; 3757856.9310743087 ; 3017134.4492445746 ; 43078.00000000001
182 ; 13145.333159785821 ; 16669.251100798792 ; 3771125.9482003567 ; 3033803.7003453732 ; 43316.00000000001
183 ; 13149.808133317323 ; 16669.251100798792 ; 3784271.2813601424 ; 3050472.951446172 ; 43554.00000000001
184 ; 13218.745326396602 ; 16669.251100798792 ; 3797421.0894934596 ; 3067142.2025469705 ; 43792.00000000001
