CSV File for the City 2 on Day 147
1 - Minute m 
2 - Power Consumed at minute m 
3 - Power Produced at minute m 
4 - Energy Consumed since the beginning of the day 
5 - Energy Produced since the beginning of the day 
6 - Energy Lost since the beginning of the day on lines starting from the city
 
0 ; 7996.113157310742 ; 28475.152593858656 ; 0.0 ; 0.0 ; 0.0
1 ; 8294.742699934171 ; 28475.152593858656 ; 7996.113157310742 ; 28475.152593858656 ; 0.0
2 ; 8578.953237442041 ; 28475.152593858656 ; 16290.855857244915 ; 56950.30518771731 ; 0.0
3 ; 8983.802190906097 ; 28475.152593858656 ; 24869.809094686956 ; 85425.45778157597 ; 0.0
4 ; 9374.845842197494 ; 28475.152593858656 ; 33853.611285593055 ; 113900.61037543463 ; 0.0
5 ; 9744.968529999205 ; 28475.152593858656 ; 43228.45712779055 ; 142375.76296929328 ; 0.0
6 ; 10240.087391622768 ; 28475.152593858656 ; 52973.425657789754 ; 170850.91556315194 ; 0.0
7 ; 10631.590536322312 ; 28475.152593858656 ; 63213.51304941252 ; 199326.0681570106 ; 0.0
8 ; 10905.863333530784 ; 28475.152593858656 ; 73845.10358573483 ; 227801.22075086925 ; 0.0
9 ; 11252.012873446005 ; 28475.152593858656 ; 84750.96691926561 ; 256276.3733447279 ; 0.0
10 ; 11717.98074857341 ; 28475.152593858656 ; 96002.97979271162 ; 284751.52593858656 ; 0.0
11 ; 11808.848529742714 ; 28475.152593858656 ; 107720.96054128502 ; 313226.6785324452 ; 0.0
12 ; 12294.60310323101 ; 28475.152593858656 ; 119529.80907102773 ; 341701.8311263039 ; 0.0
13 ; 12784.708775592613 ; 28475.152593858656 ; 131824.41217425873 ; 370176.98372016253 ; 0.0
14 ; 12897.185987871975 ; 28475.152593858656 ; 144609.12094985135 ; 398652.1363140212 ; 0.0
15 ; 13292.927477096382 ; 28475.152593858656 ; 157506.30693772333 ; 427127.28890787985 ; 0.0
16 ; 13754.684257323373 ; 28475.152593858656 ; 170799.23441481972 ; 455602.4415017385 ; 0.0
17 ; 14073.357522658374 ; 28475.152593858656 ; 184553.91867214307 ; 484077.59409559716 ; 0.0
18 ; 14236.645864199052 ; 28475.152593858656 ; 198627.27619480144 ; 512552.7466894558 ; 0.0
19 ; 14598.179985182465 ; 28475.152593858656 ; 212863.9220590005 ; 541027.8992833145 ; 0.0
20 ; 14891.651995482223 ; 28475.152593858656 ; 227462.10204418298 ; 569503.0518771731 ; 0.0
21 ; 15175.990395069115 ; 28475.152593858656 ; 242353.7540396652 ; 597978.2044710318 ; 0.0
22 ; 15399.297389162297 ; 28475.152593858656 ; 257529.7444347343 ; 626453.3570648904 ; 0.0
23 ; 15823.170738910667 ; 28475.152593858656 ; 272929.0418238966 ; 654928.5096587491 ; 0.0
24 ; 16081.543245199828 ; 28475.152593858656 ; 288752.21256280725 ; 683403.6622526078 ; 0.0
25 ; 16464.741468433083 ; 28475.152593858656 ; 304833.7558080071 ; 711878.8148464664 ; 0.0
26 ; 16801.85732898014 ; 28475.152593858656 ; 321298.49727644015 ; 740353.9674403251 ; 0.0
27 ; 16856.64673441993 ; 28475.152593858656 ; 338100.35460542026 ; 768829.1200341837 ; 0.0
28 ; 17207.54427237787 ; 28475.152593858656 ; 354957.0013398402 ; 797304.2726280424 ; 0.0
29 ; 17586.953583704268 ; 28475.152593858656 ; 372164.54561221803 ; 825779.425221901 ; 0.0
30 ; 17740.692323318668 ; 28475.152593858656 ; 389751.4991959223 ; 854254.5778157597 ; 0.0
31 ; 17993.803155690006 ; 28475.152593858656 ; 407492.19151924097 ; 882729.7304096184 ; 0.0
32 ; 18125.182140449007 ; 28475.152593858656 ; 425485.994674931 ; 911204.883003477 ; 0.0
33 ; 18445.935216512313 ; 28475.152593858656 ; 443611.17681538 ; 939680.0355973357 ; 0.0
34 ; 18761.28718996663 ; 28475.152593858656 ; 462057.1120318923 ; 968155.1881911943 ; 0.0
35 ; 18819.497072419963 ; 28475.152593858656 ; 480818.39922185894 ; 996630.340785053 ; 0.0
36 ; 19131.472850416554 ; 28475.152593858656 ; 499637.8962942789 ; 1025105.4933789116 ; 0.0
37 ; 19339.158085473733 ; 28475.152593858656 ; 518769.36914469546 ; 1053580.6459727702 ; 0.0
38 ; 19559.610645307028 ; 28475.152593858656 ; 538108.5272301692 ; 1082055.7985666287 ; 0.0
39 ; 19814.28128859827 ; 28475.152593858656 ; 557668.1378754762 ; 1110530.9511604873 ; 0.0
40 ; 19788.362472363842 ; 28475.152593858656 ; 577482.4191640745 ; 1139006.1037543458 ; 0.0
41 ; 20174.28715828942 ; 28475.152593858656 ; 597270.7816364383 ; 1167481.2563482043 ; 0.0
42 ; 20468.46408587401 ; 28475.152593858656 ; 617445.0687947278 ; 1195956.4089420629 ; 0.0
43 ; 20621.098949551448 ; 28475.152593858656 ; 637913.5328806018 ; 1224431.5615359214 ; 0.0
44 ; 20746.413556847736 ; 28475.152593858656 ; 658534.6318301533 ; 1252906.71412978 ; 0.0
45 ; 20843.63688590606 ; 28475.152593858656 ; 679281.045387001 ; 1281381.8667236385 ; 0.0
46 ; 21087.12496132805 ; 28475.152593858656 ; 700124.6822729071 ; 1309857.019317497 ; 0.0
47 ; 21230.165752444937 ; 28475.152593858656 ; 721211.8072342351 ; 1338332.1719113556 ; 0.0
48 ; 21252.77450529182 ; 28475.152593858656 ; 742441.97298668 ; 1366807.324505214 ; 0.0
49 ; 21580.068487087494 ; 28475.152593858656 ; 763694.7474919718 ; 1395282.4770990727 ; 0.0
50 ; 21918.290424014493 ; 28475.152593858656 ; 785274.8159790593 ; 1423757.6296929312 ; 0.0
51 ; 21812.34892154942 ; 28475.152593858656 ; 807193.1064030738 ; 1452232.7822867897 ; 0.0
52 ; 21957.99748818456 ; 28475.152593858656 ; 829005.4553246232 ; 1480707.9348806483 ; 0.0
53 ; 22005.708161786235 ; 28475.152593858656 ; 850963.4528128078 ; 1509183.0874745068 ; 0.0
54 ; 22290.281048952562 ; 28475.152593858656 ; 872969.160974594 ; 1537658.2400683654 ; 0.0
55 ; 22361.845486788785 ; 28475.152593858656 ; 895259.4420235466 ; 1566133.392662224 ; 0.0
56 ; 22617.97788486113 ; 28475.152593858656 ; 917621.2875103353 ; 1594608.5452560824 ; 0.0
57 ; 22585.407447211077 ; 28475.152593858656 ; 940239.2653951965 ; 1623083.697849941 ; 0.0
58 ; 22809.06870252182 ; 28475.152593858656 ; 962824.6728424076 ; 1651558.8504437995 ; 0.0
59 ; 22909.725815941758 ; 28475.152593858656 ; 985633.7415449294 ; 1680034.003037658 ; 0.0
60 ; 23008.309565108288 ; 28475.152593858656 ; 1008543.4673608713 ; 1708509.1556315166 ; 0.0
61 ; 23266.157017814054 ; 28475.152593858656 ; 1031551.7769259795 ; 1736984.3082253751 ; 0.0
62 ; 23431.72047904233 ; 28475.152593858656 ; 1054817.9339437936 ; 1765459.4608192337 ; 0.0
63 ; 23329.62608921136 ; 28475.152593858656 ; 1078249.654422836 ; 1793934.6134130922 ; 0.0
64 ; 23431.615810213756 ; 28475.152593858656 ; 1101579.2805120472 ; 1822409.7660069508 ; 0.0
65 ; 23381.7054216879 ; 28475.152593858656 ; 1125010.896322261 ; 1850884.9186008093 ; 0.0
66 ; 23544.195374421834 ; 28475.152593858656 ; 1148392.6017439489 ; 1879360.0711946678 ; 0.0
67 ; 23500.301501473627 ; 28475.152593858656 ; 1171936.7971183707 ; 1907835.2237885264 ; 0.0
68 ; 23552.711755010212 ; 28475.152593858656 ; 1195437.0986198443 ; 1936310.376382385 ; 0.0
69 ; 23908.14871213549 ; 28475.152593858656 ; 1218989.8103748546 ; 1964785.5289762435 ; 0.0
70 ; 23891.983375741245 ; 28475.152593858656 ; 1242897.95908699 ; 1993260.681570102 ; 0.0
71 ; 23684.56688566853 ; 28475.152593858656 ; 1266789.9424627312 ; 2021735.8341639605 ; 0.0
72 ; 23975.934235948756 ; 28475.152593858656 ; 1290474.5093483997 ; 2050210.986757819 ; 0.0
73 ; 24234.52465389426 ; 28475.152593858656 ; 1314450.4435843485 ; 2078686.1393516776 ; 0.0
74 ; 24072.93763016718 ; 28475.152593858656 ; 1338684.968238243 ; 2107161.291945536 ; 0.0
75 ; 24258.354950512927 ; 28475.152593858656 ; 1362757.9058684101 ; 2135636.4445393947 ; 0.0
76 ; 24135.2721173122 ; 28475.152593858656 ; 1387016.2608189231 ; 2164111.5971332532 ; 0.0
77 ; 24008.463011587373 ; 28475.152593858656 ; 1411151.5329362354 ; 2192586.749727112 ; 0.0
78 ; 24198.72107950344 ; 28475.152593858656 ; 1435159.9959478227 ; 2221061.9023209703 ; 0.0
79 ; 24185.929424909977 ; 28475.152593858656 ; 1459358.717027326 ; 2249537.054914829 ; 0.0
80 ; 24127.75430540336 ; 28475.152593858656 ; 1483544.646452236 ; 2278012.2075086874 ; 0.0
81 ; 24228.530426249097 ; 28475.152593858656 ; 1507672.4007576394 ; 2306487.360102546 ; 0.0
82 ; 24027.738951262683 ; 28475.152593858656 ; 1531900.9311838886 ; 2334962.5126964045 ; 0.0
83 ; 24322.675188273846 ; 28475.152593858656 ; 1555928.6701351514 ; 2363437.665290263 ; 0.0
84 ; 24301.288906992202 ; 28475.152593858656 ; 1580251.3453234253 ; 2391912.8178841216 ; 0.0
85 ; 24082.119414439538 ; 28475.152593858656 ; 1604552.6342304174 ; 2420387.97047798 ; 0.0
86 ; 24232.97869803455 ; 28475.152593858656 ; 1628634.7536448569 ; 2448863.1230718386 ; 0.0
87 ; 23982.33958567207 ; 28475.152593858656 ; 1652867.7323428914 ; 2477338.275665697 ; 0.0
88 ; 24067.272165576494 ; 28475.152593858656 ; 1676850.0719285635 ; 2505813.4282595557 ; 0.0
89 ; 24025.093417848704 ; 28475.152593858656 ; 1700917.34409414 ; 2534288.5808534143 ; 0.0
90 ; 23963.74436043757 ; 28475.152593858656 ; 1724942.4375119887 ; 2562763.733447273 ; 0.0
91 ; 23998.919555860808 ; 28475.152593858656 ; 1748906.1818724263 ; 2591238.8860411313 ; 0.0
92 ; 23849.35284017889 ; 28475.152593858656 ; 1772905.101428287 ; 2619714.03863499 ; 0.0
93 ; 23774.131778862524 ; 28475.152593858656 ; 1796754.454268466 ; 2648189.1912288484 ; 0.0
94 ; 23739.094002318303 ; 28475.152593858656 ; 1820528.5860473285 ; 2676664.343822707 ; 0.0
95 ; 23540.53986796628 ; 28475.152593858656 ; 1844267.6800496469 ; 2705139.4964165655 ; 0.0
96 ; 23661.061797289494 ; 28475.152593858656 ; 1867808.219917613 ; 2733614.649010424 ; 0.0
97 ; 23554.498010257976 ; 28475.152593858656 ; 1891469.2817149025 ; 2762089.8016042826 ; 0.0
98 ; 23458.157272739118 ; 28475.152593858656 ; 1915023.7797251604 ; 2790564.954198141 ; 0.0
99 ; 23454.329784773505 ; 28475.152593858656 ; 1938481.9369978996 ; 2819040.1067919997 ; 0.0
100 ; 23320.132753672508 ; 28475.152593858656 ; 1961936.266782673 ; 2847515.259385858 ; 0.0
101 ; 23114.476311493305 ; 28475.152593858656 ; 1985256.3995363456 ; 2875990.4119797167 ; 0.0
102 ; 23128.536969014607 ; 28475.152593858656 ; 2008370.8758478388 ; 2904465.5645735753 ; 0.0
103 ; 23013.438640916615 ; 28475.152593858656 ; 2031499.4128168535 ; 2932940.717167434 ; 0.0
104 ; 22861.952252811898 ; 28475.152593858656 ; 2054512.8514577702 ; 2961415.8697612924 ; 0.0
105 ; 22743.456765385134 ; 28475.152593858656 ; 2077374.8037105822 ; 2989891.022355151 ; 0.0
106 ; 22749.501059402726 ; 28475.152593858656 ; 2100118.2604759675 ; 3018366.1749490094 ; 0.0
107 ; 22506.748156999653 ; 28475.152593858656 ; 2122867.7615353703 ; 3046841.327542868 ; 0.0
108 ; 22264.68290006362 ; 28475.152593858656 ; 2145374.50969237 ; 3075316.4801367265 ; 0.0
109 ; 22278.34224686737 ; 28475.152593858656 ; 2167639.1925924337 ; 3103791.632730585 ; 0.0
110 ; 22318.84651054667 ; 28475.152593858656 ; 2189917.534839301 ; 3132266.7853244436 ; 0.0
111 ; 21958.88076503573 ; 28475.152593858656 ; 2212236.3813498477 ; 3160741.937918302 ; 0.0
112 ; 21925.584863652653 ; 28475.152593858656 ; 2234195.2621148834 ; 3189217.0905121607 ; 0.0
113 ; 21678.63484638882 ; 28475.152593858656 ; 2256120.846978536 ; 3217692.243106019 ; 0.0
114 ; 21442.96591099697 ; 28475.152593858656 ; 2277799.4818249247 ; 3246167.3956998778 ; 0.0
115 ; 21464.490208224455 ; 28475.152593858656 ; 2299242.4477359215 ; 3274642.5482937363 ; 0.0
116 ; 21225.43519663197 ; 28475.152593858656 ; 2320706.937944146 ; 3303117.700887595 ; 0.0
117 ; 20871.649125425578 ; 28475.152593858656 ; 2341932.373140778 ; 3331592.8534814534 ; 0.0
118 ; 20691.191423261032 ; 28475.152593858656 ; 2362804.0222662035 ; 3360068.006075312 ; 0.0
119 ; 20647.55380632767 ; 28475.152593858656 ; 2383495.2136894646 ; 3388543.1586691705 ; 0.0
120 ; 20323.32343645264 ; 28475.152593858656 ; 2404142.7674957924 ; 3417018.311263029 ; 0.0
121 ; 20233.999494571068 ; 28475.152593858656 ; 2424466.090932245 ; 3445493.4638568875 ; 0.0
122 ; 19839.674285987297 ; 28475.152593858656 ; 2444700.090426816 ; 3473968.616450746 ; 0.0
123 ; 19924.71368371113 ; 28475.152593858656 ; 2464539.7647128035 ; 3502443.7690446046 ; 0.0
124 ; 19563.621252493063 ; 28475.152593858656 ; 2484464.4783965144 ; 3530918.921638463 ; 0.0
125 ; 19315.654770701723 ; 28475.152593858656 ; 2504028.0996490074 ; 3559394.0742323217 ; 0.0
126 ; 19012.27242804461 ; 28475.152593858656 ; 2523343.754419709 ; 3587869.2268261802 ; 0.0
127 ; 18933.44070717505 ; 28475.152593858656 ; 2542356.0268477537 ; 3616344.379420039 ; 0.0
128 ; 18607.711121581913 ; 28475.152593858656 ; 2561289.4675549287 ; 3644819.5320138973 ; 0.0
129 ; 18208.58937654509 ; 28475.152593858656 ; 2579897.1786765107 ; 3673294.684607756 ; 0.0
130 ; 18475.643625953748 ; 28475.152593858656 ; 2598105.7680530557 ; 3701769.8372016144 ; 0.0
131 ; 17952.59680257053 ; 28475.152593858656 ; 2616581.4116790094 ; 3730244.989795473 ; 0.0
132 ; 17763.16511728154 ; 28475.152593858656 ; 2634534.00848158 ; 3758720.1423893315 ; 0.0
133 ; 17408.655139860362 ; 28475.152593858656 ; 2652297.1735988613 ; 3787195.29498319 ; 0.0
134 ; 17221.18361957681 ; 28475.152593858656 ; 2669705.8287387216 ; 3815670.4475770486 ; 0.0
135 ; 16853.911570443364 ; 28475.152593858656 ; 2686927.0123582985 ; 3844145.600170907 ; 0.0
136 ; 16654.044923988684 ; 28475.152593858656 ; 2703780.923928742 ; 3872620.7527647656 ; 0.0
137 ; 16389.652428983572 ; 28475.152593858656 ; 2720434.9688527305 ; 3901095.905358624 ; 0.0
138 ; 16015.095921637967 ; 28475.152593858656 ; 2736824.621281714 ; 3929571.0579524827 ; 0.0
139 ; 15790.151386368001 ; 28475.152593858656 ; 2752839.717203352 ; 3958046.2105463413 ; 0.0
140 ; 15596.349794016849 ; 28475.152593858656 ; 2768629.86858972 ; 3986521.3631402 ; 0.0
141 ; 15284.322904443015 ; 28475.152593858656 ; 2784226.218383737 ; 4014996.5157340583 ; 0.0
142 ; 14899.463853524001 ; 28475.152593858656 ; 2799510.54128818 ; 4043471.668327917 ; 0.0
143 ; 14549.01934507653 ; 28475.152593858656 ; 2814410.005141704 ; 4071946.8209217754 ; 0.0
144 ; 14360.369537023886 ; 28475.152593858656 ; 2828959.0244867806 ; 4100421.973515634 ; 0.0
145 ; 14352.556289698674 ; 28475.152593858656 ; 2843319.3940238045 ; 4128897.1261094925 ; 0.0
146 ; 13968.278167952736 ; 28475.152593858656 ; 2857671.950313503 ; 4157372.278703351 ; 0.0
147 ; 14146.776297050194 ; 28475.152593858656 ; 2871640.2284814557 ; 4185847.4312972096 ; 0.0
148 ; 13984.208565296669 ; 28475.152593858656 ; 2885787.004778506 ; 4214322.583891069 ; 0.0
149 ; 13864.18659461888 ; 28475.152593858656 ; 2899771.2133438024 ; 4242797.736484927 ; 0.0
150 ; 13964.541925057118 ; 28475.152593858656 ; 2913635.3999384213 ; 4271272.889078786 ; 0.0
151 ; 13673.395409947483 ; 28475.152593858656 ; 2927599.9418634786 ; 4299748.041672644 ; 0.0
152 ; 13445.691497356927 ; 28475.152593858656 ; 2941273.337273426 ; 4328223.194266503 ; 0.0
153 ; 13479.849277411835 ; 28475.152593858656 ; 2954719.028770783 ; 4356698.346860361 ; 0.0
154 ; 13344.562755647985 ; 28475.152593858656 ; 2968198.878048195 ; 4385173.49945422 ; 0.0
155 ; 13141.318748419997 ; 28475.152593858656 ; 2981543.440803843 ; 4413648.652048078 ; 0.0
156 ; 13114.339029112212 ; 28475.152593858656 ; 2994684.759552263 ; 4442123.804641937 ; 0.0
157 ; 13098.340076234961 ; 28475.152593858656 ; 3007799.0985813756 ; 4470598.957235795 ; 0.0
158 ; 12999.945537390553 ; 28475.152593858656 ; 3020897.4386576107 ; 4499074.109829654 ; 0.0
159 ; 12898.889383465961 ; 28475.152593858656 ; 3033897.3841950013 ; 4527549.2624235125 ; 0.0
160 ; 12744.399654561552 ; 28475.152593858656 ; 3046796.2735784673 ; 4556024.415017371 ; 0.0
161 ; 12622.245214773602 ; 28475.152593858656 ; 3059540.673233029 ; 4584499.56761123 ; 0.0
162 ; 12421.19270436265 ; 28475.152593858656 ; 3072162.918447803 ; 4612974.720205088 ; 0.0
163 ; 12141.358615152858 ; 28475.152593858656 ; 3084584.1111521656 ; 4641449.872798947 ; 0.0
164 ; 12226.983146050285 ; 28475.152593858656 ; 3096725.4697673186 ; 4669925.025392805 ; 0.0
165 ; 12168.005505679012 ; 28475.152593858656 ; 3108952.452913369 ; 4698400.177986664 ; 0.0
166 ; 12068.345278576839 ; 28475.152593858656 ; 3121120.458419048 ; 4726875.330580522 ; 0.0
167 ; 11714.524239134507 ; 28475.152593858656 ; 3133188.803697625 ; 4755350.483174381 ; 0.0
168 ; 11711.305593108182 ; 28475.152593858656 ; 3144903.3279367597 ; 4783825.635768239 ; 0.0
169 ; 11729.951223948088 ; 28475.152593858656 ; 3156614.633529868 ; 4812300.788362098 ; 0.0
170 ; 11278.372182655741 ; 28475.152593858656 ; 3168344.584753816 ; 4840775.9409559565 ; 0.0
171 ; 11192.71990658226 ; 28475.152593858656 ; 3179622.9569364716 ; 4869251.093549815 ; 0.0
172 ; 11199.077558544484 ; 28475.152593858656 ; 3190815.6768430537 ; 4897726.246143674 ; 0.0
173 ; 11030.912202390638 ; 28475.152593858656 ; 3202014.754401598 ; 4926201.398737532 ; 0.0
174 ; 11174.61929081303 ; 28475.152593858656 ; 3213045.666603989 ; 4954676.551331391 ; 0.0
175 ; 11091.979148354674 ; 28475.152593858656 ; 3224220.285894802 ; 4983151.703925249 ; 0.0
176 ; 11170.299678990497 ; 28475.152593858656 ; 3235312.2650431567 ; 5011626.856519108 ; 0.0
177 ; 11057.360641257776 ; 28475.152593858656 ; 3246482.5647221473 ; 5040102.009112966 ; 0.0
178 ; 11204.732623066022 ; 28475.152593858656 ; 3257539.925363405 ; 5068577.161706825 ; 0.0
179 ; 11307.258119678036 ; 28475.152593858656 ; 3268744.657986471 ; 5097052.314300683 ; 0.0
180 ; 11122.228208969229 ; 28475.152593858656 ; 3280051.916106149 ; 5125527.466894542 ; 0.0
181 ; 11289.244463133973 ; 28475.152593858656 ; 3291174.1443151184 ; 5154002.6194884 ; 0.0
182 ; 11314.333800887065 ; 28475.152593858656 ; 3302463.3887782525 ; 5182477.772082259 ; 0.0
183 ; 11256.832493525979 ; 28475.152593858656 ; 3313777.7225791398 ; 5210952.9246761175 ; 0.0
184 ; 11265.308991090358 ; 28475.152593858656 ; 3325034.5550726657 ; 5239428.077269976 ; 0.0
185 ; 11271.107045122575 ; 28475.152593858656 ; 3336299.864063756 ; 5267903.229863835 ; 0.0
186 ; 11252.82084230284 ; 28475.152593858656 ; 3347570.9711088785 ; 5296378.382457693 ; 0.0
187 ; 11504.027939105925 ; 28475.152593858656 ; 3358823.7919511814 ; 5324853.535051552 ; 0.0
188 ; 11211.412362299476 ; 28475.152593858656 ; 3370327.8198902872 ; 5353328.68764541 ; 0.0
189 ; 11316.240723845838 ; 28475.152593858656 ; 3381539.2322525866 ; 5381803.840239269 ; 0.0
190 ; 11283.669530724066 ; 28475.152593858656 ; 3392855.4729764326 ; 5410278.992833127 ; 0.0
191 ; 11374.666066216168 ; 28475.152593858656 ; 3404139.142507157 ; 5438754.145426986 ; 0.0
192 ; 11548.032214617935 ; 28475.152593858656 ; 3415513.808573373 ; 5467229.298020844 ; 0.0
193 ; 11598.039185512589 ; 28475.152593858656 ; 3427061.840787991 ; 5495704.450614703 ; 0.0
194 ; 11508.68649639681 ; 28475.152593858656 ; 3438659.8799735038 ; 5524179.603208561 ; 0.0
195 ; 11435.336899119497 ; 28475.152593858656 ; 3450168.566469901 ; 5552654.75580242 ; 0.0
196 ; 11510.55509099789 ; 28475.152593858656 ; 3461603.90336902 ; 5581129.9083962785 ; 0.0
197 ; 11571.706916339357 ; 28475.152593858656 ; 3473114.458460018 ; 5609605.060990137 ; 0.0
198 ; 11488.633452961825 ; 28475.152593858656 ; 3484686.1653763573 ; 5638080.213583996 ; 0.0
199 ; 11526.851969195443 ; 28475.152593858656 ; 3496174.798829319 ; 5666555.366177854 ; 0.0
200 ; 11448.537299836653 ; 28475.152593858656 ; 3507701.6507985145 ; 5695030.518771713 ; 0.0
201 ; 11677.574716485891 ; 28475.152593858656 ; 3519150.188098351 ; 5723505.671365571 ; 0.0
202 ; 11606.257827026371 ; 28475.152593858656 ; 3530827.762814837 ; 5751980.82395943 ; 0.0
203 ; 11727.992012840423 ; 28475.152593858656 ; 3542434.0206418633 ; 5780455.976553288 ; 0.0
204 ; 11551.940070260885 ; 28475.152593858656 ; 3554162.0126547036 ; 5808931.129147147 ; 0.0
205 ; 11619.905392613717 ; 28475.152593858656 ; 3565713.9527249644 ; 5837406.281741005 ; 0.0
206 ; 11668.023417202035 ; 28475.152593858656 ; 3577333.858117578 ; 5865881.434334864 ; 0.0
207 ; 11776.489044470198 ; 28475.152593858656 ; 3589001.88153478 ; 5894356.586928722 ; 0.0
208 ; 11616.240107169966 ; 28475.152593858656 ; 3600778.37057925 ; 5922831.739522581 ; 0.0
209 ; 11808.674041699638 ; 28475.152593858656 ; 3612394.61068642 ; 5951306.8921164395 ; 0.0
210 ; 11641.099982972033 ; 28475.152593858656 ; 3624203.2847281196 ; 5979782.044710298 ; 0.0
211 ; 11764.424598080186 ; 28475.152593858656 ; 3635844.384711092 ; 6008257.197304157 ; 0.0
212 ; 11840.942353473754 ; 28475.152593858656 ; 3647608.809309172 ; 6036732.349898015 ; 0.0
213 ; 11866.214311698106 ; 28475.152593858656 ; 3659449.751662646 ; 6065207.502491874 ; 0.0
