CSV File for the City 3 on Day 252
1 - Minute m 
2 - Power Consumed at minute m 
3 - Power Produced at minute m 
4 - Energy Consumed since the beginning of the day 
5 - Energy Produced since the beginning of the day 
6 - Energy Lost since the beginning of the day on lines starting from the city
 
0 ; 4701.342875895249 ; 58977.69161123736 ; 0.0 ; 0.0 ; 0.0
1 ; 5254.223653380162 ; 58576.04665215854 ; 4701.342875895249 ; 58977.69161123736 ; 0.0
2 ; 5583.048755817594 ; 58214.24829417432 ; 9955.566529275411 ; 117553.7382633959 ; 0.0
3 ; 5977.449986446781 ; 57893.07138869572 ; 15538.615285093005 ; 175767.98655757023 ; 0.0
4 ; 6407.996513797575 ; 57613.219944137636 ; 21516.065271539785 ; 233661.05794626594 ; 0.0
5 ; 6863.022750010012 ; 57375.320118011674 ; 27924.06178533736 ; 291274.2778904036 ; 0.0
6 ; 7240.605119584264 ; 57179.913754756395 ; 34787.08453534737 ; 348649.59800841525 ; 0.0
7 ; 7639.621948876942 ; 57027.45261795925 ; 42027.68965493164 ; 405829.51176317164 ; 0.0
8 ; 7983.476600803831 ; 56918.29345584997 ; 49667.31160380858 ; 462856.9643811309 ; 0.0
9 ; 8524.885783791706 ; 56852.69402339823 ; 57650.788204612414 ; 519775.25783698086 ; 0.0
10 ; 8666.772375942037 ; 56830.81016340852 ; 66175.67398840412 ; 576627.9518603791 ; 0.0
11 ; 9019.51613079014 ; 56852.69402339823 ; 74842.44636434615 ; 633458.7620237876 ; 0.0
12 ; 9417.429251554631 ; 56918.29345584997 ; 83861.9624951363 ; 690311.4560471858 ; 0.0
13 ; 10038.384019598996 ; 57027.45261795925 ; 93279.39174669092 ; 747229.7495030358 ; 0.0
14 ; 10272.971161122976 ; 57179.913754756315 ; 103317.77576628991 ; 804257.202120995 ; 0.0
15 ; 10442.961863961535 ; 57375.320118011674 ; 113590.74692741288 ; 861437.1158757514 ; 0.0
16 ; 10816.84100902734 ; 57613.219944137636 ; 124033.70879137442 ; 918812.435993763 ; 0.0
17 ; 11300.64636171883 ; 57893.07138869572 ; 134850.54980040176 ; 976425.6559379007 ; 0.0
18 ; 11710.25106267741 ; 58214.24829417432 ; 146151.19616212058 ; 1034318.7273265964 ; 0.0
19 ; 11855.924327480761 ; 58576.046652158475 ; 157861.447224798 ; 1092532.9756207708 ; 0.0
20 ; 12212.054306940592 ; 58977.69161123744 ; 169717.37155227875 ; 1151109.0222729293 ; 0.0
21 ; 12565.001855406517 ; 59418.34487802609 ; 181929.42585921934 ; 1210086.7138841667 ; 0.0
22 ; 12840.698672200258 ; 59897.11236017948 ; 194494.42771462584 ; 1269505.0587621927 ; 0.0
23 ; 13156.571354543796 ; 60413.05190669237 ; 207335.1263868261 ; 1329402.1711223722 ; 0.0
24 ; 13395.646375939912 ; 60965.181011298555 ; 220491.6977413699 ; 1389815.2230290645 ; 0.0
25 ; 13799.53556896605 ; 61552.48435850919 ; 233887.3441173098 ; 1450780.4040403632 ; 0.0
26 ; 14050.453224613055 ; 62173.921107797 ; 247686.87968627585 ; 1512332.8883988722 ; 0.0
27 ; 14319.593869892888 ; 62828.431828698216 ; 261737.3329108889 ; 1574506.8095066692 ; 0.0
28 ; 14657.540362032241 ; 63514.945017302634 ; 276056.92678078177 ; 1637335.2413353673 ; 0.0
29 ; 14900.079716677696 ; 64232.38314198783 ; 290714.467142814 ; 1700850.18635267 ; 0.0
30 ; 15163.0363437258 ; 64979.66818270372 ; 305614.54685949173 ; 1765082.5694946577 ; 0.0
31 ; 15350.58505867936 ; 65755.72664318405 ; 320777.58320321754 ; 1830062.2376773614 ; 0.0
32 ; 15822.709198422297 ; 66559.49402882118 ; 336128.1682618969 ; 1895817.9643205453 ; 0.0
33 ; 16004.012900030879 ; 67389.91879441949 ; 351950.8774603192 ; 1962377.4583493664 ; 0.0
34 ; 16200.633407460395 ; 68245.96577557827 ; 367954.8903603501 ; 2029767.3771437858 ; 0.0
35 ; 16479.850038066186 ; 69126.61912507353 ; 384155.5237678105 ; 2098013.342919364 ; 0.0
36 ; 16526.152187988788 ; 70030.88478142001 ; 400635.3738058767 ; 2167139.9620444374 ; 0.0
37 ; 16929.266643839317 ; 70957.79250095661 ; 417161.5259938655 ; 2237170.8468258576 ; 0.0
38 ; 17190.33139715956 ; 71906.39748749655 ; 434090.7926377048 ; 2308128.639326814 ; 0.0
39 ; 17345.362209328312 ; 72875.78165502449 ; 451281.12403486436 ; 2380035.0368143106 ; 0.0
40 ; 17683.221508664978 ; 73865.05455931016 ; 468626.4862441927 ; 2452910.818469335 ; 0.0
41 ; 17875.929034138564 ; 74873.35403385031 ; 486309.70775285765 ; 2526775.873028645 ; 0.0
42 ; 18102.880630481955 ; 75899.84656441784 ; 504185.6367869962 ; 2601649.227062495 ; 0.0
43 ; 18222.522617249437 ; 76943.7274348749 ; 522288.51741747814 ; 2677549.0736269127 ; 0.0
44 ; 18443.003176522656 ; 78004.2206749206 ; 540511.0400347275 ; 2754492.8010617876 ; 0.0
45 ; 18658.47747391979 ; 79080.57883823842 ; 558954.0432112502 ; 2832497.0217367085 ; 0.0
46 ; 18960.982722572593 ; 80172.08263716672 ; 577612.52068517 ; 2911577.600574947 ; 0.0
47 ; 19138.22685436151 ; 81278.04045763696 ; 596573.5034077426 ; 2991749.6832121136 ; 0.0
48 ; 19331.806667383902 ; 82397.78777576337 ; 615711.7302621041 ; 3073027.7236697506 ; 0.0
49 ; 19275.13551875288 ; 83530.68649517887 ; 635043.536929488 ; 3155425.511445514 ; 0.0
50 ; 19520.332833342738 ; 84676.12422203193 ; 654318.6724482408 ; 3238956.197940693 ; 0.0
51 ; 19776.502112935734 ; 85833.5134925055 ; 673839.0052815835 ; 3323632.3221627246 ; 0.0
52 ; 19887.072884539062 ; 87002.29096582122 ; 693615.5073945193 ; 3409465.83565523 ; 0.0
53 ; 20270.01242451709 ; 88181.91659393982 ; 713502.5802790583 ; 3496468.126621051 ; 0.0
54 ; 20044.530946158382 ; 89371.87277758236 ; 733772.5927035754 ; 3584650.043214991 ; 0.0
55 ; 20543.143814204646 ; 90571.66351675987 ; 753817.1236497337 ; 3674021.9159925734 ; 0.0
56 ; 20565.702365635312 ; 91780.81356271698 ; 774360.2674639383 ; 3764593.5795093332 ; 0.0
57 ; 20578.673797986812 ; 92998.86757704981 ; 794925.9698295736 ; 3856374.39307205 ; 0.0
58 ; 20718.608076228098 ; 94225.38930275245 ; 815504.6436275605 ; 3949373.2606491 ; 0.0
59 ; 20964.542048793508 ; 95459.96075105914 ; 836223.2517037885 ; 4043598.6499518524 ; 0.0
60 ; 20836.35272884141 ; 96702.18140717696 ; 857187.793752582 ; 4139058.6107029114 ; 0.0
61 ; 21180.78823003842 ; 97951.66745733247 ; 878024.1464814234 ; 4235760.792110088 ; 0.0
62 ; 21230.573853131158 ; 99208.05103898037 ; 899204.9347114618 ; 4333712.459567421 ; 0.0
63 ; 21300.7425254611 ; 100470.979515524 ; 920435.5085645929 ; 4432920.510606402 ; 0.0
64 ; 21331.26744335992 ; 101740.11477647729 ; 941736.251090054 ; 4533391.490121925 ; 0.0
65 ; 21515.6071491691 ; 103015.13256364163 ; 963067.518533414 ; 4635131.6048984025 ; 0.0
66 ; 21725.099876466298 ; 104295.72182357016 ; 984583.1256825831 ; 4738146.737462044 ; 0.0
67 ; 21638.73510121321 ; 105581.58408634253 ; 1006308.2255590494 ; 4842442.459285614 ; 0.0
68 ; 21808.263578702084 ; 106872.43287047006 ; 1027946.9606602626 ; 4948024.043371957 ; 0.0
69 ; 21819.905344626317 ; 108167.99311357884 ; 1049755.2242389647 ; 5054896.476242427 ; 0.0
70 ; 21849.81576972166 ; 109468.0006283874 ; 1071575.1295835911 ; 5163064.469356006 ; 0.0
71 ; 21739.505243038257 ; 110772.20158338532 ; 1093424.9453533129 ; 5272532.469984394 ; 0.0
72 ; 22059.915612384728 ; 112080.35200753725 ; 1115164.4505963512 ; 5383304.671567779 ; 0.0
73 ; 22053.473756949355 ; 113392.21731827465 ; 1137224.3662087359 ; 5495385.023575316 ; 0.0
74 ; 22081.901066907973 ; 114707.57187199015 ; 1159277.8399656853 ; 5608777.240893591 ; 0.0
75 ; 22157.019629600367 ; 116026.19853622107 ; 1181359.7410325932 ; 5723484.8127655815 ; 0.0
76 ; 22192.22554957382 ; 117347.88828268778 ; 1203516.7606621936 ; 5839511.0113018025 ; 0.0
77 ; 22215.81395968527 ; 118672.43980034551 ; 1225708.9862117674 ; 5956858.89958449 ; 0.0
78 ; 22205.206212239682 ; 119999.65912760796 ; 1247924.8001714526 ; 6075531.339384835 ; 0.0
79 ; 22161.54710463296 ; 121329.35930290609 ; 1270130.0063836921 ; 6195530.998512443 ; 0.0
80 ; 22376.666544090716 ; 122661.36003276097 ; 1292291.553488325 ; 6316860.3578153495 ; 0.0
81 ; 22342.835495622367 ; 123995.48737656228 ; 1314668.2200324158 ; 6439521.71784811 ; 0.0
82 ; 22180.029902298345 ; 125331.573447267 ; 1337011.0555280382 ; 6563517.205224672 ; 0.0
83 ; 22259.539500157458 ; 126669.45612725482 ; 1359191.0854303364 ; 6688848.778671939 ; 0.0
84 ; 22111.928194260392 ; 128008.97879860029 ; 1381450.6249304938 ; 6815518.234799194 ; 0.0
85 ; 22148.102741867555 ; 129349.9900870495 ; 1403562.5531247542 ; 6943527.213597794 ; 0.0
86 ; 22474.417512147993 ; 130692.34361901456 ; 1425710.6558666218 ; 7072877.203684843 ; 0.0
87 ; 22242.714431145614 ; 132035.8977909282 ; 1448185.0733787697 ; 7203569.547303857 ; 0.0
88 ; 22198.9758754063 ; 133380.51555032603 ; 1470427.7878099154 ; 7335605.445094786 ; 0.0
89 ; 22157.232747885948 ; 134726.06418805514 ; 1492626.7636853217 ; 7468985.960645111 ; 0.0
90 ; 22183.426773659186 ; 136072.4151410309 ; 1514783.9964332075 ; 7603712.024833166 ; 0.0
91 ; 22100.145009456508 ; 137419.4438049941 ; 1536967.4232068667 ; 7739784.439974197 ; 0.0
92 ; 21977.51684700259 ; 138767.02935674487 ; 1559067.5682163232 ; 7877203.883779191 ; 0.0
93 ; 21966.75236204485 ; 140115.0545853555 ; 1581045.0850633257 ; 8015970.9131359365 ; 0.0
94 ; 22034.310542437153 ; 141463.4057318901 ; 1603011.8374253705 ; 8156085.967721292 ; 0.0
95 ; 22075.11862966309 ; 142811.97233718084 ; 1625046.1479678077 ; 8297549.373453182 ; 0.0
96 ; 21805.628236848213 ; 144160.64709723636 ; 1647121.2665974707 ; 8440361.345790364 ; 0.0
97 ; 21720.34678524154 ; 145509.32572587664 ; 1668926.894834319 ; 8584521.9928876 ; 0.0
98 ; 21645.965345612996 ; 146857.90682421258 ; 1690647.2416195604 ; 8730031.318613475 ; 0.0
99 ; 21636.621159610648 ; 148206.2917566072 ; 1712293.2069651734 ; 8876889.225437688 ; 0.0
100 ; 21530.079503850942 ; 149554.3845327753 ; 1733929.828124784 ; 9025095.517194295 ; 0.0
101 ; 21420.577258442197 ; 150902.0916956961 ; 1755459.907628635 ; 9174649.901727071 ; 0.0
102 ; 21277.109086244254 ; 152249.32221503212 ; 1776880.4848870772 ; 9325551.993422767 ; 0.0
103 ; 21051.779884689233 ; 153595.98738576268 ; 1798157.5939733216 ; 9477801.315637799 ; 0.0
104 ; 20946.887567368 ; 154942.00073175723 ; 1819209.3738580109 ; 9631397.303023562 ; 0.0
105 ; 20834.86368906937 ; 156287.27791402867 ; 1840156.261425379 ; 9786339.303755319 ; 0.0
106 ; 20834.500862228095 ; 157631.73664342042 ; 1860991.1251144484 ; 9942626.581669347 ; 0.0
107 ; 20819.38521948936 ; 158975.29659749498 ; 1881825.6259766764 ; 1.0100258318312768E7 ; 0.0
108 ; 20425.667913685636 ; 160317.879341404 ; 1902645.0111961658 ; 1.0259233614910264E7 ; 0.0
109 ; 20355.220252993073 ; 161659.40825253315 ; 1923070.6791098514 ; 1.0419551494251668E7 ; 0.0
110 ; 20383.816707545066 ; 162999.80844872372 ; 1943425.8993628444 ; 1.0581210902504202E7 ; 0.0
111 ; 20084.741634547572 ; 164339.00671988798 ; 1963809.7160703894 ; 1.0744210710952926E7 ; 0.0
112 ; 20100.98430705174 ; 165676.93146284056 ; 1983894.4577049369 ; 1.0908549717672814E7 ; 0.0
113 ; 19787.22228820545 ; 167013.51261918197 ; 2003995.4420119885 ; 1.1074226649135655E7 ; 0.0
114 ; 19550.239782307028 ; 168348.68161607647 ; 2023782.664300194 ; 1.1241240161754837E7 ; 0.0
115 ; 19557.266228924993 ; 169682.37130977737 ; 2043332.904082501 ; 1.1409588843370914E7 ; 0.0
116 ; 19194.8979255055 ; 171014.51593175868 ; 2062890.170311426 ; 1.1579271214680692E7 ; 0.0
117 ; 19180.445155795915 ; 172345.05103732186 ; 2082085.0682369315 ; 1.1750285730612451E7 ; 0.0
118 ; 19030.39836123449 ; 173673.91345655159 ; 2101265.5133927274 ; 1.1922630781649774E7 ; 0.0
119 ; 18753.720259305628 ; 175001.04124750348 ; 2120295.911753962 ; 1.2096304695106326E7 ; 0.0
120 ; 18580.135146123237 ; 176326.37365151054 ; 2139049.6320132674 ; 1.227130573635383E7 ; 0.0
121 ; 18432.771808362726 ; 177649.85105050355 ; 2157629.7671593907 ; 1.244763211000534E7 ; 0.0
122 ; 18206.861359977578 ; 178971.41492624496 ; 2176062.5389677533 ; 1.2625281961055843E7 ; 0.0
123 ; 17992.09895455172 ; 180291.0078213814 ; 2194269.400327731 ; 1.2804253375982089E7 ; 0.0
124 ; 17655.561968270966 ; 181608.57330222527 ; 2212261.499282283 ; 1.298454438380347E7 ; 0.0
125 ; 17517.98350087292 ; 182924.0559231807 ; 2229917.061250554 ; 1.3166152957105696E7 ; 0.0
126 ; 17186.801634001724 ; 184237.40119273367 ; 2247435.0447514267 ; 1.3349077013028877E7 ; 0.0
127 ; 17052.855266486855 ; 185548.55554092946 ; 2264621.846385428 ; 1.353331441422161E7 ; 0.0
128 ; 17011.843854524843 ; 186857.4662882667 ; 2281674.701651915 ; 1.371886296976254E7 ; 0.0
129 ; 16672.72647206788 ; 188164.08161593863 ; 2298686.5455064396 ; 1.3905720436050806E7 ; 0.0
130 ; 16361.961329251122 ; 189468.3505373574 ; 2315359.2719785077 ; 1.4093884517666744E7 ; 0.0
131 ; 16241.080829294693 ; 190770.22287090044 ; 2331721.233307759 ; 1.4283352868204102E7 ; 0.0
132 ; 15895.464802742854 ; 192069.64921382038 ; 2347962.3141370537 ; 1.4474123091075003E7 ; 0.0
133 ; 15643.175549198653 ; 193366.58091726372 ; 2363857.7789397966 ; 1.4666192740288824E7 ; 0.0
134 ; 15414.792633690646 ; 194660.970062346 ; 2379500.9544889955 ; 1.4859559321206087E7 ; 0.0
135 ; 15034.879242991808 ; 195952.76943723418 ; 2394915.7471226864 ; 1.5054220291268433E7 ; 0.0
136 ; 14949.323562897156 ; 197241.93251518896 ; 2409950.6263656784 ; 1.5250173060705667E7 ; 0.0
137 ; 14520.849975446226 ; 198528.41343352266 ; 2424899.9499285757 ; 1.5447414993220856E7 ; 0.0
138 ; 14205.946119907832 ; 199812.16697343066 ; 2439420.799904022 ; 1.5645943406654378E7 ; 0.0
139 ; 13891.56949085816 ; 201093.1485406558 ; 2453626.7460239297 ; 1.5845755573627809E7 ; 0.0
140 ; 13714.696364202198 ; 202371.31414694779 ; 2467518.315514788 ; 1.6046848722168464E7 ; 0.0
141 ; 13391.800041061791 ; 203646.62039228185 ; 2481233.01187899 ; 1.6249220036315411E7 ; 0.0
142 ; 13115.330996713024 ; 204919.02444780155 ; 2494624.811920052 ; 1.6452866656707693E7 ; 0.0
143 ; 12774.839525914533 ; 206188.48403945385 ; 2507740.142916765 ; 1.6657785681155495E7 ; 0.0
144 ; 12594.326724684308 ; 207454.9574322849 ; 2520514.98244268 ; 1.686397416519495E7 ; 0.0
145 ; 12456.039044496545 ; 208718.40341536695 ; 2533109.309167364 ; 1.7071429122627236E7 ; 0.0
146 ; 12261.19261892273 ; 209978.78128732916 ; 2545565.3482118607 ; 1.7280147526042603E7 ; 0.0
147 ; 12205.514686971854 ; 211236.05084246444 ; 2557826.5408307835 ; 1.749012630732993E7 ; 0.0
148 ; 12165.565470161984 ; 212490.17235738857 ; 2570032.0555177554 ; 1.7701362358172394E7 ; 0.0
149 ; 12218.885994747376 ; 213741.1065782252 ; 2582197.6209879173 ; 1.7913852530529782E7 ; 0.0
150 ; 11900.716629364548 ; 214988.81470829624 ; 2594416.5069826646 ; 1.8127593637108006E7 ; 0.0
151 ; 12020.165929928904 ; 216233.258396294 ; 2606317.223612029 ; 1.83425824518163E7 ; 0.0
152 ; 11599.56514941519 ; 217474.39972491522 ; 2618337.389541958 ; 1.8558815710212596E7 ; 0.0
153 ; 11523.218183740144 ; 218712.20119993642 ; 2629936.9546913733 ; 1.877629010993751E7 ; 0.0
154 ; 11595.552829349343 ; 219946.62573971268 ; 2641460.1728751133 ; 1.899500231113745E7 ; 0.0
155 ; 11558.14655790598 ; 221177.6366650811 ; 2653055.7257044627 ; 1.921494893687716E7 ; 0.0
156 ; 11280.892255595609 ; 222405.19768965195 ; 2664613.872262369 ; 1.943612657354224E7 ; 0.0
157 ; 11295.555582233666 ; 223629.27291047105 ; 2675894.7645179643 ; 1.9658531771231893E7 ; 0.0
158 ; 11156.70241205429 ; 224849.82679903865 ; 2687190.320100198 ; 1.9882161044142365E7 ; 0.0
159 ; 11006.154971769105 ; 226066.8241926688 ; 2698347.0225122524 ; 2.0107010870941404E7 ; 0.0
160 ; 10906.06616069378 ; 227280.2302861759 ; 2709353.1774840215 ; 2.0333077695134073E7 ; 0.0
161 ; 10690.797797076519 ; 228490.01062387432 ; 2720259.2436447153 ; 2.056035792542025E7 ; 0.0
162 ; 10699.843327483872 ; 229696.13109187875 ; 2730950.0414417917 ; 2.0788847936044127E7 ; 0.0
163 ; 10526.694582127446 ; 230898.55791069276 ; 2741649.884769276 ; 2.1018544067136005E7 ; 0.0
164 ; 10530.761570513869 ; 232097.2576280734 ; 2752176.5793514033 ; 2.1249442625046697E7 ; 0.0
165 ; 10332.619985611791 ; 233292.19711216155 ; 2762707.340921917 ; 2.148153988267477E7 ; 0.0
166 ; 10206.83683125243 ; 234483.34354486637 ; 2773039.9609075286 ; 2.171483207978693E7 ; 0.0
167 ; 10259.50134137005 ; 235670.66441549445 ; 2783246.797738781 ; 2.1949315423331797E7 ; 0.0
168 ; 9964.347576814067 ; 236854.12751461295 ; 2793506.299080151 ; 2.218498608774729E7 ; 0.0
169 ; 9900.522301921486 ; 238033.70092813837 ; 2803470.6466569654 ; 2.2421840215261903E7 ; 0.0
170 ; 9782.40346032078 ; 239209.35303164134 ; 2813371.168958887 ; 2.265987391619004E7 ; 0.0
171 ; 9627.079121679204 ; 240381.05248485925 ; 2823153.5724192075 ; 2.2899083269221682E7 ; 0.0
172 ; 9596.119267121203 ; 241548.76822640837 ; 2832780.6515408866 ; 2.313946432170654E7 ; 0.0
173 ; 9482.465165444148 ; 242712.4694686876 ; 2842376.770808008 ; 2.338101308993295E7 ; 0.0
174 ; 9432.576334010102 ; 243872.12569296692 ; 2851859.235973452 ; 2.3623725559401635E7 ; 0.0
175 ; 9361.266021227253 ; 245027.70664465244 ; 2861291.812307462 ; 2.3867597685094602E7 ; 0.0
176 ; 9336.237615525873 ; 246179.18232872215 ; 2870653.0783286896 ; 2.4112625391739257E7 ; 0.0
177 ; 9477.417648950955 ; 247326.5230053251 ; 2879989.3159442153 ; 2.435880457406798E7 ; 0.0
178 ; 9386.557133724185 ; 248469.69918553866 ; 2889466.7335931663 ; 2.4606131097073305E7 ; 0.0
179 ; 9535.417913068832 ; 249608.6816272764 ; 2898853.2907268903 ; 2.4854600796258844E7 ; 0.0
180 ; 9632.002239887266 ; 250743.44133134256 ; 2908388.7086399593 ; 2.510420947788612E7 ; 0.0
181 ; 9477.345864835113 ; 251873.94953762615 ; 2918020.7108798465 ; 2.5354952919217464E7 ; 0.0
182 ; 9583.746327765339 ; 253000.17772143031 ; 2927498.0567446817 ; 2.560682686875509E7 ; 0.0
183 ; 9632.864884907094 ; 254122.09758993157 ; 2937081.803072447 ; 2.585982704647652E7 ; 0.0
184 ; 9676.133573937685 ; 255239.68107876388 ; 2946714.667957354 ; 2.6113949144066453E7 ; 0.0
185 ; 9718.780934734508 ; 256352.9003487235 ; 2956390.8015312916 ; 2.636918882514522E7 ; 0.0
186 ; 9760.396206831554 ; 257461.7277825895 ; 2966109.5824660263 ; 2.662554172549394E7 ; 0.0
187 ; 9759.819824088265 ; 258566.13598205603 ; 2975869.978672858 ; 2.688300345327653E7 ; 0.0
188 ; 9752.386505727987 ; 259666.0977647721 ; 2985629.798496946 ; 2.7141569589258585E7 ; 0.0
189 ; 9931.608508614272 ; 260761.58616148506 ; 2995382.1850026743 ; 2.7401235687023357E7 ; 0.0
190 ; 9798.883646968687 ; 261852.5744132841 ; 3005313.7935112887 ; 2.7661997273184843E7 ; 0.0
191 ; 9849.565191819245 ; 262939.0359689398 ; 3015112.6771582575 ; 2.7923849847598128E7 ; 0.0
192 ; 9955.483269125636 ; 264020.9444823361 ; 3024962.242350077 ; 2.818678888356707E7 ; 0.0
193 ; 9833.32352549131 ; 265098.2738099927 ; 3034917.7256192025 ; 2.8450809828049406E7 ; 0.0
194 ; 9897.858667169468 ; 266170.9980086725 ; 3044751.0491446937 ; 2.87159081018594E7 ; 0.0
195 ; 9812.316940555615 ; 267239.0913330728 ; 3054648.9078118633 ; 2.898207909986807E7 ; 0.0
196 ; 9937.126848225469 ; 268302.52823359653 ; 3064461.224752419 ; 2.9249318191201143E7 ; 0.0
197 ; 10029.446669696692 ; 269361.28335420124 ; 3074398.3516006446 ; 2.951762071943474E7 ; 0.0
198 ; 10162.351710664265 ; 270415.33153032145 ; 3084427.7982703415 ; 2.978698200278894E7 ; 0.0
199 ; 10137.874706559516 ; 271464.64778686437 ; 3094590.1499810056 ; 3.005739733431926E7 ; 0.0
200 ; 10115.969418132147 ; 272509.2073362743 ; 3104728.024687565 ; 3.0328861982106123E7 ; 0.0
201 ; 10084.582952132969 ; 273548.98557666404 ; 3114843.994105697 ; 3.0601371189442396E7 ; 0.0
202 ; 10103.981326808133 ; 274583.958090011 ; 3124928.57705783 ; 3.087492017501906E7 ; 0.0
203 ; 10256.221315468614 ; 275614.100640416 ; 3135032.5583846383 ; 3.114950413310907E7 ; 0.0
204 ; 10224.731407797814 ; 276639.389172422 ; 3145288.779700107 ; 3.1425118233749487E7 ; 0.0
205 ; 10202.909355506872 ; 277659.799809391 ; 3155513.511107905 ; 3.170175762292191E7 ; 0.0
206 ; 10246.89368733417 ; 278675.3088519374 ; 3165716.4204634116 ; 3.1979417422731303E7 ; 0.0
207 ; 10151.464085466636 ; 279685.8927764151 ; 3175963.314150746 ; 3.225809273158324E7 ; 0.0
208 ; 10363.82030613203 ; 280691.5282334575 ; 3186114.7782362127 ; 3.2537778624359656E7 ; 0.0
209 ; 10332.08252028298 ; 281692.19204656756 ; 3196478.5985423448 ; 3.2818470152593113E7 ; 0.0
210 ; 10511.142252147567 ; 282687.86121075763 ; 3206810.6810626276 ; 3.310016234463968E7 ; 0.0
211 ; 10368.396801667372 ; 283678.51289123495 ; 3217321.8233147752 ; 3.3382850205850437E7 ; 0.0
212 ; 10347.005421532911 ; 284664.1244221344 ; 3227690.2201164425 ; 3.366652871874167E7 ; 0.0
