CSV File for the City 2 on Day 191
1 - Minute m 
2 - Power Consumed at minute m 
3 - Power Produced at minute m 
4 - Energy Consumed since the beginning of the day 
5 - Energy Produced since the beginning of the day 
6 - Energy Lost since the beginning of the day on lines starting from the city
 
0 ; 4973.586249005758 ; 33075.50798924918 ; 0.0 ; 0.0 ; 0.0
1 ; 5601.0901848009535 ; 33075.50798924918 ; 4973.586249005758 ; 33075.50798924918 ; 0.0
2 ; 5950.283751419937 ; 33075.50798924918 ; 10574.676433806711 ; 66151.01597849836 ; 0.0
3 ; 6442.2164552471695 ; 33075.50798924918 ; 16524.96018522665 ; 99226.52396774753 ; 0.0
4 ; 7071.754489571165 ; 33075.50798924918 ; 22967.17664047382 ; 132302.0319569967 ; 0.0
5 ; 7626.628626010763 ; 33075.50798924918 ; 30038.931130044984 ; 165377.5399462459 ; 0.0
6 ; 8008.9886981096615 ; 33075.50798924918 ; 37665.55975605575 ; 198453.0479354951 ; 0.0
7 ; 8361.93431163623 ; 33075.50798924918 ; 45674.548454165415 ; 231528.5559247443 ; 0.0
8 ; 8877.636517005878 ; 33075.50798924918 ; 54036.482765801644 ; 264604.0639139935 ; 0.0
9 ; 9503.453065602087 ; 33075.50798924918 ; 62914.11928280752 ; 297679.5719032427 ; 0.0
10 ; 9801.306044009272 ; 33075.50798924918 ; 72417.57234840961 ; 330755.07989249186 ; 0.0
11 ; 10375.992286190683 ; 33075.50798924918 ; 82218.87839241888 ; 363830.58788174106 ; 0.0
12 ; 10858.158483612906 ; 33075.50798924918 ; 92594.87067860956 ; 396906.09587099025 ; 0.0
13 ; 11234.479571018008 ; 33075.50798924918 ; 103453.02916222246 ; 429981.60386023944 ; 0.0
14 ; 11887.533124006424 ; 33075.50798924918 ; 114687.50873324047 ; 463057.11184948863 ; 0.0
15 ; 11917.516449974864 ; 33075.50798924918 ; 126575.04185724689 ; 496132.6198387378 ; 0.0
16 ; 12542.146322995624 ; 33075.50798924918 ; 138492.55830722174 ; 529208.127827987 ; 0.0
17 ; 12965.641105651464 ; 33075.50798924918 ; 151034.70463021737 ; 562283.6358172362 ; 0.0
18 ; 13317.812336225694 ; 33075.50798924918 ; 164000.34573586885 ; 595359.1438064853 ; 0.0
19 ; 13795.368855671919 ; 33075.50798924918 ; 177318.15807209455 ; 628434.6517957345 ; 0.0
20 ; 14257.253666442051 ; 33075.50798924918 ; 191113.52692776648 ; 661510.1597849837 ; 0.0
21 ; 14519.246665887415 ; 33075.50798924918 ; 205370.78059420854 ; 694585.6677742329 ; 0.0
22 ; 15048.372295582732 ; 33075.50798924918 ; 219890.02726009596 ; 727661.1757634821 ; 0.0
23 ; 15322.798116517004 ; 33075.50798924918 ; 234938.39955567868 ; 760736.6837527313 ; 0.0
24 ; 15672.401449794364 ; 33075.50798924918 ; 250261.19767219567 ; 793812.1917419805 ; 0.0
25 ; 16236.122093234639 ; 33075.50798924918 ; 265933.59912199003 ; 826887.6997312297 ; 0.0
26 ; 16494.057467681658 ; 33075.50798924918 ; 282169.72121522465 ; 859963.2077204789 ; 0.0
27 ; 16782.222052466932 ; 33075.50798924918 ; 298663.7786829063 ; 893038.7157097281 ; 0.0
28 ; 17243.34356289314 ; 33075.50798924918 ; 315446.00073537324 ; 926114.2236989773 ; 0.0
29 ; 17404.809216748406 ; 33075.50798924918 ; 332689.3442982664 ; 959189.7316882265 ; 0.0
30 ; 17909.285868813902 ; 33075.50798924918 ; 350094.1535150148 ; 992265.2396774756 ; 0.0
31 ; 18191.849084070684 ; 33075.50798924918 ; 368003.4393838287 ; 1025340.7476667248 ; 0.0
32 ; 18599.862542706996 ; 33075.50798924918 ; 386195.28846789943 ; 1058416.255655974 ; 0.0
33 ; 18766.22035763394 ; 33075.50798924918 ; 404795.15101060644 ; 1091491.763645223 ; 0.0
34 ; 19119.155611007376 ; 33075.50798924918 ; 423561.3713682404 ; 1124567.2716344723 ; 0.0
35 ; 19422.28400900989 ; 33075.50798924918 ; 442680.52697924775 ; 1157642.7796237215 ; 0.0
36 ; 19608.782708687293 ; 33075.50798924918 ; 462102.81098825764 ; 1190718.2876129707 ; 0.0
37 ; 20051.498490104932 ; 33075.50798924918 ; 481711.59369694494 ; 1223793.7956022199 ; 0.0
38 ; 20325.25038043955 ; 33075.50798924918 ; 501763.09218704986 ; 1256869.303591469 ; 0.0
39 ; 20605.303051406194 ; 33075.50798924918 ; 522088.3425674894 ; 1289944.8115807183 ; 0.0
40 ; 20832.563808248873 ; 33075.50798924918 ; 542693.6456188957 ; 1323020.3195699675 ; 0.0
41 ; 21137.24076464139 ; 33075.50798924918 ; 563526.2094271445 ; 1356095.8275592166 ; 0.0
42 ; 21510.851858364724 ; 33075.50798924918 ; 584663.4501917859 ; 1389171.3355484658 ; 0.0
43 ; 21553.366447163455 ; 33075.50798924918 ; 606174.3020501507 ; 1422246.843537715 ; 0.0
44 ; 21985.963846055914 ; 33075.50798924918 ; 627727.6684973142 ; 1455322.3515269642 ; 0.0
45 ; 22162.393132451783 ; 33075.50798924918 ; 649713.6323433701 ; 1488397.8595162134 ; 0.0
46 ; 22349.499356728727 ; 33075.50798924918 ; 671876.0254758219 ; 1521473.3675054626 ; 0.0
47 ; 22748.27068029122 ; 33075.50798924918 ; 694225.5248325507 ; 1554548.8754947118 ; 0.0
48 ; 22913.950549091554 ; 33075.50798924918 ; 716973.7955128419 ; 1587624.383483961 ; 0.0
49 ; 23057.281604819567 ; 33075.50798924918 ; 739887.7460619335 ; 1620699.8914732102 ; 0.0
50 ; 23185.065944729125 ; 33075.50798924918 ; 762945.027666753 ; 1653775.3994624594 ; 0.0
51 ; 23422.6688851258 ; 33075.50798924918 ; 786130.0936114822 ; 1686850.9074517086 ; 0.0
52 ; 23647.205498097865 ; 33075.50798924918 ; 809552.762496608 ; 1719926.4154409578 ; 0.0
53 ; 23754.47996851585 ; 33075.50798924918 ; 833199.9679947058 ; 1753001.923430207 ; 0.0
54 ; 24009.406767580113 ; 33075.50798924918 ; 856954.4479632216 ; 1786077.4314194561 ; 0.0
55 ; 24074.16672685052 ; 33075.50798924918 ; 880963.8547308017 ; 1819152.9394087053 ; 0.0
56 ; 24421.283379871034 ; 33075.50798924918 ; 905038.0214576522 ; 1852228.4473979545 ; 0.0
57 ; 24652.642585494905 ; 33075.50798924918 ; 929459.3048375233 ; 1885303.9553872037 ; 0.0
58 ; 24739.343782644457 ; 33075.50798924918 ; 954111.9474230182 ; 1918379.463376453 ; 0.0
59 ; 24819.229380615154 ; 33075.50798924918 ; 978851.2912056627 ; 1951454.971365702 ; 0.0
60 ; 24807.074633421253 ; 33075.50798924918 ; 1003670.5205862778 ; 1984530.4793549513 ; 0.0
61 ; 25297.060919326785 ; 33075.50798924918 ; 1028477.5952196991 ; 2017605.9873442005 ; 0.0
62 ; 25352.499378727323 ; 33075.50798924918 ; 1053774.656139026 ; 2050681.4953334497 ; 0.0
63 ; 25608.25423053982 ; 33075.50798924918 ; 1079127.1555177532 ; 2083757.0033226989 ; 0.0
64 ; 25618.89630033976 ; 33075.50798924918 ; 1104735.409748293 ; 2116832.511311948 ; 0.0
65 ; 25615.275318745826 ; 33075.50798924918 ; 1130354.3060486328 ; 2149908.019301197 ; 0.0
66 ; 25781.739165986928 ; 33075.50798924918 ; 1155969.5813673786 ; 2182983.527290446 ; 0.0
67 ; 26008.631890787838 ; 33075.50798924918 ; 1181751.3205333655 ; 2216059.0352796954 ; 0.0
68 ; 25989.073138653876 ; 33075.50798924918 ; 1207759.9524241532 ; 2249134.5432689446 ; 0.0
69 ; 26095.273349855062 ; 33075.50798924918 ; 1233749.025562807 ; 2282210.051258194 ; 0.0
70 ; 26270.434875465296 ; 33075.50798924918 ; 1259844.298912662 ; 2315285.559247443 ; 0.0
71 ; 26349.80405613985 ; 33075.50798924918 ; 1286114.7337881273 ; 2348361.067236692 ; 0.0
72 ; 26101.40315162021 ; 33075.50798924918 ; 1312464.5378442672 ; 2381436.5752259414 ; 0.0
73 ; 26444.491683810436 ; 33075.50798924918 ; 1338565.9409958874 ; 2414512.0832151906 ; 0.0
74 ; 26338.370023047806 ; 33075.50798924918 ; 1365010.4326796979 ; 2447587.5912044398 ; 0.0
75 ; 26442.732237726897 ; 33075.50798924918 ; 1391348.8027027457 ; 2480663.099193689 ; 0.0
76 ; 26624.455428694953 ; 33075.50798924918 ; 1417791.5349404726 ; 2513738.607182938 ; 0.0
77 ; 26444.507757901072 ; 33075.50798924918 ; 1444415.9903691674 ; 2546814.1151721873 ; 0.0
78 ; 26631.563622617374 ; 33075.50798924918 ; 1470860.4981270684 ; 2579889.6231614365 ; 0.0
79 ; 26603.31538839225 ; 33075.50798924918 ; 1497492.0617496858 ; 2612965.1311506857 ; 0.0
80 ; 26692.670699369348 ; 33075.50798924918 ; 1524095.377138078 ; 2646040.639139935 ; 0.0
81 ; 26530.165764251255 ; 33075.50798924918 ; 1550788.0478374474 ; 2679116.147129184 ; 0.0
82 ; 26638.419769148495 ; 33075.50798924918 ; 1577318.2136016986 ; 2712191.6551184333 ; 0.0
83 ; 26457.637327848075 ; 33075.50798924918 ; 1603956.6333708472 ; 2745267.1631076825 ; 0.0
84 ; 26754.726440726175 ; 33075.50798924918 ; 1630414.2706986952 ; 2778342.6710969317 ; 0.0
85 ; 26598.459026613506 ; 33075.50798924918 ; 1657168.9971394213 ; 2811418.179086181 ; 0.0
86 ; 26414.211176978253 ; 33075.50798924918 ; 1683767.4561660348 ; 2844493.68707543 ; 0.0
87 ; 26534.486728678286 ; 33075.50798924918 ; 1710181.667343013 ; 2877569.1950646793 ; 0.0
88 ; 26519.588629150487 ; 33075.50798924918 ; 1736716.1540716912 ; 2910644.7030539284 ; 0.0
89 ; 26419.786964326646 ; 33075.50798924918 ; 1763235.7427008417 ; 2943720.2110431776 ; 0.0
90 ; 26569.474852262898 ; 33075.50798924918 ; 1789655.5296651684 ; 2976795.719032427 ; 0.0
91 ; 26540.373044979257 ; 33075.50798924918 ; 1816225.0045174314 ; 3009871.227021676 ; 0.0
92 ; 26421.6012039713 ; 33075.50798924918 ; 1842765.3775624107 ; 3042946.735010925 ; 0.0
93 ; 26411.71971866735 ; 33075.50798924918 ; 1869186.978766382 ; 3076022.2430001744 ; 0.0
94 ; 26251.93630617641 ; 33075.50798924918 ; 1895598.6984850494 ; 3109097.7509894236 ; 0.0
95 ; 26341.761187034197 ; 33075.50798924918 ; 1921850.634791226 ; 3142173.258978673 ; 0.0
96 ; 26026.862371232957 ; 33075.50798924918 ; 1948192.39597826 ; 3175248.766967922 ; 0.0
97 ; 26009.137810323828 ; 33075.50798924918 ; 1974219.2583494931 ; 3208324.274957171 ; 0.0
98 ; 25961.08606549887 ; 33075.50798924918 ; 2000228.396159817 ; 3241399.7829464204 ; 0.0
99 ; 25680.46593427298 ; 33075.50798924918 ; 2026189.4822253159 ; 3274475.2909356696 ; 0.0
100 ; 25753.335900181126 ; 33075.50798924918 ; 2051869.948159589 ; 3307550.7989249188 ; 0.0
101 ; 25463.386250282507 ; 33075.50798924918 ; 2077623.2840597702 ; 3340626.306914168 ; 0.0
102 ; 25433.286578705738 ; 33075.50798924918 ; 2103086.6703100526 ; 3373701.814903417 ; 0.0
103 ; 25295.52811139579 ; 33075.50798924918 ; 2128519.956888758 ; 3406777.3228926663 ; 0.0
104 ; 24967.160102507074 ; 33075.50798924918 ; 2153815.485000154 ; 3439852.8308819155 ; 0.0
105 ; 24896.85144588275 ; 33075.50798924918 ; 2178782.645102661 ; 3472928.3388711647 ; 0.0
106 ; 24778.856261771096 ; 33075.50798924918 ; 2203679.4965485437 ; 3506003.846860414 ; 0.0
107 ; 24709.856053409745 ; 33075.50798924918 ; 2228458.352810315 ; 3539079.354849663 ; 0.0
108 ; 24609.030292388717 ; 33075.50798924918 ; 2253168.2088637245 ; 3572154.8628389123 ; 0.0
109 ; 24247.17624332013 ; 33075.50798924918 ; 2277777.239156113 ; 3605230.3708281615 ; 0.0
110 ; 24183.56385946015 ; 33075.50798924918 ; 2302024.415399433 ; 3638305.8788174107 ; 0.0
111 ; 23784.480032507727 ; 33075.50798924918 ; 2326207.979258893 ; 3671381.38680666 ; 0.0
112 ; 23806.85199945082 ; 33075.50798924918 ; 2349992.459291401 ; 3704456.894795909 ; 0.0
113 ; 23634.402348984746 ; 33075.50798924918 ; 2373799.311290852 ; 3737532.4027851583 ; 0.0
114 ; 23462.16068842524 ; 33075.50798924918 ; 2397433.7136398368 ; 3770607.9107744074 ; 0.0
115 ; 23279.513408336465 ; 33075.50798924918 ; 2420895.874328262 ; 3803683.4187636566 ; 0.0
116 ; 22866.45101276621 ; 33075.50798924918 ; 2444175.3877365985 ; 3836758.926752906 ; 0.0
117 ; 22544.790049992116 ; 33075.50798924918 ; 2467041.8387493645 ; 3869834.434742155 ; 0.0
118 ; 22564.18258139859 ; 33075.50798924918 ; 2489586.6287993565 ; 3902909.942731404 ; 0.0
119 ; 22312.84895221958 ; 33075.50798924918 ; 2512150.811380755 ; 3935985.4507206534 ; 0.0
120 ; 22195.33082934112 ; 33075.50798924918 ; 2534463.6603329745 ; 3969060.9587099026 ; 0.0
121 ; 21833.114306871117 ; 33075.50798924918 ; 2556658.9911623155 ; 4002136.466699152 ; 0.0
122 ; 21573.08287455021 ; 33075.50798924918 ; 2578492.105469187 ; 4035211.974688401 ; 0.0
123 ; 21210.889297771882 ; 33075.50798924918 ; 2600065.188343737 ; 4068287.48267765 ; 0.0
124 ; 20985.149690900456 ; 33075.50798924918 ; 2621276.0776415085 ; 4101362.9906668994 ; 0.0
125 ; 20808.6108430823 ; 33075.50798924918 ; 2642261.227332409 ; 4134438.4986561486 ; 0.0
126 ; 20402.25782805507 ; 33075.50798924918 ; 2663069.8381754914 ; 4167514.0066453977 ; 0.0
127 ; 20175.137443012925 ; 33075.50798924918 ; 2683472.0960035464 ; 4200589.5146346465 ; 0.0
128 ; 19824.642860145457 ; 33075.50798924918 ; 2703647.2334465594 ; 4233665.022623896 ; 0.0
129 ; 19628.83984974204 ; 33075.50798924918 ; 2723471.8763067047 ; 4266740.530613145 ; 0.0
130 ; 19395.193728398477 ; 33075.50798924918 ; 2743100.716156447 ; 4299816.038602394 ; 0.0
131 ; 19114.76787456463 ; 33075.50798924918 ; 2762495.9098848454 ; 4332891.546591643 ; 0.0
132 ; 18647.662557812324 ; 33075.50798924918 ; 2781610.67775941 ; 4365967.054580892 ; 0.0
133 ; 18307.242392138523 ; 33075.50798924918 ; 2800258.3403172223 ; 4399042.562570142 ; 0.0
134 ; 17996.74742674757 ; 33075.50798924918 ; 2818565.582709361 ; 4432118.070559391 ; 0.0
135 ; 17692.157510106666 ; 33075.50798924918 ; 2836562.330136108 ; 4465193.57854864 ; 0.0
136 ; 17455.98440362415 ; 33075.50798924918 ; 2854254.4876462147 ; 4498269.086537889 ; 0.0
137 ; 17044.247531419194 ; 33075.50798924918 ; 2871710.472049839 ; 4531344.594527138 ; 0.0
138 ; 16677.331842924894 ; 33075.50798924918 ; 2888754.719581258 ; 4564420.102516388 ; 0.0
139 ; 16251.151197353747 ; 33075.50798924918 ; 2905432.051424183 ; 4597495.610505637 ; 0.0
140 ; 15999.991009854986 ; 33075.50798924918 ; 2921683.202621537 ; 4630571.118494886 ; 0.0
141 ; 15635.840073441595 ; 33075.50798924918 ; 2937683.193631392 ; 4663646.626484135 ; 0.0
142 ; 15103.21724474288 ; 33075.50798924918 ; 2953319.0337048336 ; 4696722.134473384 ; 0.0
143 ; 14683.20157400016 ; 33075.50798924918 ; 2968422.2509495765 ; 4729797.642462634 ; 0.0
144 ; 14563.444495743703 ; 33075.50798924918 ; 2983105.4525235766 ; 4762873.150451883 ; 0.0
145 ; 14450.33151600821 ; 33075.50798924918 ; 2997668.89701932 ; 4795948.658441132 ; 0.0
146 ; 14239.69834286824 ; 33075.50798924918 ; 3012119.2285353285 ; 4829024.166430381 ; 0.0
147 ; 14193.177079356072 ; 33075.50798924918 ; 3026358.9268781967 ; 4862099.67441963 ; 0.0
148 ; 14058.296909758514 ; 33075.50798924918 ; 3040552.103957553 ; 4895175.1824088795 ; 0.0
149 ; 13835.078679101365 ; 33075.50798924918 ; 3054610.4008673113 ; 4928250.690398129 ; 0.0
150 ; 13879.649296864107 ; 33075.50798924918 ; 3068445.479546413 ; 4961326.198387378 ; 0.0
151 ; 13689.933845744614 ; 33075.50798924918 ; 3082325.1288432768 ; 4994401.706376627 ; 0.0
152 ; 13553.173104379215 ; 33075.50798924918 ; 3096015.062689021 ; 5027477.214365876 ; 0.0
153 ; 13369.848627093788 ; 33075.50798924918 ; 3109568.2357934006 ; 5060552.7223551255 ; 0.0
154 ; 13294.233500113403 ; 33075.50798924918 ; 3122938.0844204943 ; 5093628.230344375 ; 0.0
155 ; 13034.733805885046 ; 33075.50798924918 ; 3136232.3179206075 ; 5126703.738333624 ; 0.0
156 ; 13224.078547526336 ; 33075.50798924918 ; 3149267.0517264926 ; 5159779.246322873 ; 0.0
157 ; 13073.082068618323 ; 33075.50798924918 ; 3162491.1302740187 ; 5192854.754312122 ; 0.0
158 ; 12870.535947436863 ; 33075.50798924918 ; 3175564.212342637 ; 5225930.262301371 ; 0.0
159 ; 12758.5522002199 ; 33075.50798924918 ; 3188434.748290074 ; 5259005.770290621 ; 0.0
160 ; 12461.004994109975 ; 33075.50798924918 ; 3201193.300490294 ; 5292081.27827987 ; 0.0
161 ; 12380.581518970399 ; 33075.50798924918 ; 3213654.3054844043 ; 5325156.786269119 ; 0.0
162 ; 12181.674634180059 ; 33075.50798924918 ; 3226034.8870033748 ; 5358232.294258368 ; 0.0
163 ; 11918.281662041618 ; 33075.50798924918 ; 3238216.561637555 ; 5391307.802247617 ; 0.0
164 ; 11911.501187635267 ; 33075.50798924918 ; 3250134.8432995966 ; 5424383.310236867 ; 0.0
165 ; 11700.825917445722 ; 33075.50798924918 ; 3262046.3444872317 ; 5457458.818226116 ; 0.0
166 ; 11703.006559069358 ; 33075.50798924918 ; 3273747.1704046773 ; 5490534.326215365 ; 0.0
167 ; 11511.70050513823 ; 33075.50798924918 ; 3285450.1769637465 ; 5523609.834204614 ; 0.0
168 ; 11150.751247589405 ; 33075.50798924918 ; 3296961.877468885 ; 5556685.342193863 ; 0.0
169 ; 11026.38477643467 ; 33075.50798924918 ; 3308112.6287164744 ; 5589760.850183113 ; 0.0
170 ; 11108.750225755419 ; 33075.50798924918 ; 3319139.0134929093 ; 5622836.358172362 ; 0.0
171 ; 10819.706987886842 ; 33075.50798924918 ; 3330247.7637186646 ; 5655911.866161611 ; 0.0
172 ; 10824.2586125478 ; 33075.50798924918 ; 3341067.4707065513 ; 5688987.37415086 ; 0.0
173 ; 10681.586052127213 ; 33075.50798924918 ; 3351891.7293190993 ; 5722062.882140109 ; 0.0
174 ; 10506.79714890218 ; 33075.50798924918 ; 3362573.3153712265 ; 5755138.3901293585 ; 0.0
175 ; 10475.2042552935 ; 33075.50798924918 ; 3373080.1125201285 ; 5788213.898118608 ; 0.0
176 ; 10522.884952701028 ; 33075.50798924918 ; 3383555.316775422 ; 5821289.406107857 ; 0.0
177 ; 10537.87983597826 ; 33075.50798924918 ; 3394078.2017281232 ; 5854364.914097106 ; 0.0
178 ; 11015.194140182897 ; 33075.50798924918 ; 3404616.0815641014 ; 5887440.422086355 ; 0.0
179 ; 10688.467029354484 ; 33075.50798924918 ; 3415631.275704284 ; 5920515.9300756045 ; 0.0
180 ; 10691.132615826125 ; 33075.50798924918 ; 3426319.7427336387 ; 5953591.438064854 ; 0.0
181 ; 10874.921283858315 ; 33075.50798924918 ; 3437010.875349465 ; 5986666.946054103 ; 0.0
182 ; 10983.725562165786 ; 33075.50798924918 ; 3447885.796633323 ; 6019742.454043352 ; 0.0
183 ; 11054.044144691214 ; 33075.50798924918 ; 3458869.522195489 ; 6052817.962032601 ; 0.0
184 ; 10960.014049609876 ; 33075.50798924918 ; 3469923.5663401806 ; 6085893.47002185 ; 0.0
185 ; 11037.253605684942 ; 33075.50798924918 ; 3480883.5803897902 ; 6118968.9780111 ; 0.0
186 ; 11094.152073239837 ; 33075.50798924918 ; 3491920.833995475 ; 6152044.486000349 ; 0.0
187 ; 11111.211905464996 ; 33075.50798924918 ; 3503014.986068715 ; 6185119.993989598 ; 0.0
188 ; 11116.263533357154 ; 33075.50798924918 ; 3514126.19797418 ; 6218195.501978847 ; 0.0
189 ; 11298.636602625389 ; 33075.50798924918 ; 3525242.461507537 ; 6251271.009968096 ; 0.0
190 ; 11080.568167870815 ; 33075.50798924918 ; 3536541.098110162 ; 6284346.517957346 ; 0.0
191 ; 11138.529207507976 ; 33075.50798924918 ; 3547621.666278033 ; 6317422.025946595 ; 0.0
192 ; 11239.023108328847 ; 33075.50798924918 ; 3558760.195485541 ; 6350497.533935844 ; 0.0
193 ; 11239.930026482829 ; 33075.50798924918 ; 3569999.21859387 ; 6383573.041925093 ; 0.0
194 ; 11471.688389617848 ; 33075.50798924918 ; 3581239.1486203526 ; 6416648.549914342 ; 0.0
195 ; 11389.778392591958 ; 33075.50798924918 ; 3592710.8370099706 ; 6449724.057903592 ; 0.0
196 ; 11327.349048121396 ; 33075.50798924918 ; 3604100.6154025625 ; 6482799.565892841 ; 0.0
197 ; 11334.482041902244 ; 33075.50798924918 ; 3615427.964450684 ; 6515875.07388209 ; 0.0
198 ; 11307.203134903908 ; 33075.50798924918 ; 3626762.4464925863 ; 6548950.581871339 ; 0.0
199 ; 11394.41386475847 ; 33075.50798924918 ; 3638069.64962749 ; 6582026.089860588 ; 0.0
200 ; 11483.44907642077 ; 33075.50798924918 ; 3649464.0634922483 ; 6615101.5978498375 ; 0.0
201 ; 11481.123450415527 ; 33075.50798924918 ; 3660947.512568669 ; 6648177.105839087 ; 0.0
202 ; 11448.623428010167 ; 33075.50798924918 ; 3672428.6360190846 ; 6681252.613828336 ; 0.0
203 ; 11726.016639606407 ; 33075.50798924918 ; 3683877.259447095 ; 6714328.121817585 ; 0.0
204 ; 11595.002150599832 ; 33075.50798924918 ; 3695603.2760867015 ; 6747403.629806834 ; 0.0
205 ; 11566.389445395807 ; 33075.50798924918 ; 3707198.2782373014 ; 6780479.137796083 ; 0.0
206 ; 11577.687967233276 ; 33075.50798924918 ; 3718764.667682697 ; 6813554.645785333 ; 0.0
207 ; 11823.851752382723 ; 33075.50798924918 ; 3730342.3556499304 ; 6846630.153774582 ; 0.0
208 ; 11648.769627796299 ; 33075.50798924918 ; 3742166.207402313 ; 6879705.661763831 ; 0.0
209 ; 11745.017989657583 ; 33075.50798924918 ; 3753814.9770301096 ; 6912781.16975308 ; 0.0
210 ; 11947.215894108158 ; 33075.50798924918 ; 3765559.995019767 ; 6945856.677742329 ; 0.0
211 ; 11884.631249228938 ; 33075.50798924918 ; 3777507.210913875 ; 6978932.185731579 ; 0.0
212 ; 11810.219954296845 ; 33075.50798924918 ; 3789391.842163104 ; 7012007.693720828 ; 0.0
213 ; 11865.107356026101 ; 33075.50798924918 ; 3801202.062117401 ; 7045083.201710077 ; 0.0
214 ; 11830.755083194204 ; 33075.50798924918 ; 3813067.1694734273 ; 7078158.709699326 ; 0.0
215 ; 12001.49680654387 ; 33075.50798924918 ; 3824897.9245566214 ; 7111234.217688575 ; 0.0
