CSV File for the City 2 on Day 209
1 - Minute m 
2 - Power Consumed at minute m 
3 - Power Produced at minute m 
4 - Energy Consumed since the beginning of the day 
5 - Energy Produced since the beginning of the day 
6 - Energy Lost since the beginning of the day on lines starting from the city
 
0 ; 4461.831990421438 ; 33917.12773228652 ; 0.0 ; 0.0 ; 0.0
1 ; 5306.500752434818 ; 33917.12773228652 ; 4461.831990421438 ; 33917.12773228652 ; 0.0
2 ; 5693.392661610091 ; 33917.12773228652 ; 9768.332742856255 ; 67834.25546457304 ; 0.0
3 ; 6119.960300309819 ; 33917.12773228652 ; 15461.725404466346 ; 101751.38319685956 ; 0.0
4 ; 6860.783011912153 ; 33917.12773228652 ; 21581.685704776166 ; 135668.51092914608 ; 0.0
5 ; 7416.8089113095975 ; 33917.12773228652 ; 28442.46871668832 ; 169585.6386614326 ; 0.0
6 ; 7815.973279604129 ; 33917.12773228652 ; 35859.277627997915 ; 203502.76639371912 ; 0.0
7 ; 8553.533062393726 ; 33917.12773228652 ; 43675.25090760204 ; 237419.89412600565 ; 0.0
8 ; 8778.035436533306 ; 33917.12773228652 ; 52228.78396999577 ; 271337.02185829217 ; 0.0
9 ; 9316.553798803074 ; 33917.12773228652 ; 61006.81940652907 ; 305254.1495905787 ; 0.0
10 ; 10014.302294360923 ; 33917.12773228652 ; 70323.37320533214 ; 339171.2773228652 ; 0.0
11 ; 10435.331776433857 ; 33917.12773228652 ; 80337.67549969307 ; 373088.4050551517 ; 0.0
12 ; 10850.76928249324 ; 33917.12773228652 ; 90773.00727612693 ; 407005.53278743825 ; 0.0
13 ; 11318.819528643706 ; 33917.12773228652 ; 101623.77655862017 ; 440922.66051972477 ; 0.0
14 ; 11885.812618244161 ; 33917.12773228652 ; 112942.59608726388 ; 474839.7882520113 ; 0.0
15 ; 12459.640016121197 ; 33917.12773228652 ; 124828.40870550805 ; 508756.9159842978 ; 0.0
16 ; 12877.056399571737 ; 33917.12773228652 ; 137288.04872162925 ; 542674.0437165843 ; 0.0
17 ; 13335.42293827596 ; 33917.12773228652 ; 150165.105121201 ; 576591.1714488708 ; 0.0
18 ; 13614.033119641448 ; 33917.12773228652 ; 163500.52805947696 ; 610508.2991811573 ; 0.0
19 ; 14187.029450195352 ; 33917.12773228652 ; 177114.5611791184 ; 644425.4269134437 ; 0.0
20 ; 14600.059457101504 ; 33917.12773228652 ; 191301.59062931375 ; 678342.5546457302 ; 0.0
21 ; 14916.370063272065 ; 33917.12773228652 ; 205901.65008641526 ; 712259.6823780166 ; 0.0
22 ; 15482.005638385937 ; 33917.12773228652 ; 220818.02014968733 ; 746176.8101103031 ; 0.0
23 ; 15726.739481391725 ; 33917.12773228652 ; 236300.02578807328 ; 780093.9378425896 ; 0.0
24 ; 16171.995148755677 ; 33917.12773228652 ; 252026.76526946502 ; 814011.065574876 ; 0.0
25 ; 16689.67657849999 ; 33917.12773228652 ; 268198.7604182207 ; 847928.1933071625 ; 0.0
26 ; 17148.259473245325 ; 33917.12773228652 ; 284888.43699672073 ; 881845.321039449 ; 0.0
27 ; 17472.575625249417 ; 33917.12773228652 ; 302036.69646996603 ; 915762.4487717354 ; 0.0
28 ; 17815.225411711195 ; 33917.12773228652 ; 319509.27209521545 ; 949679.5765040219 ; 0.0
29 ; 18203.811999775724 ; 33917.12773228652 ; 337324.49750692665 ; 983596.7042363083 ; 0.0
30 ; 18526.847109036546 ; 33917.12773228652 ; 355528.30950670235 ; 1017513.8319685948 ; 0.0
31 ; 18686.170417167905 ; 33917.12773228652 ; 374055.1566157389 ; 1051430.9597008813 ; 0.0
32 ; 19275.01384730925 ; 33917.12773228652 ; 392741.32703290676 ; 1085348.0874331677 ; 0.0
33 ; 19706.3031580379 ; 33917.12773228652 ; 412016.340880216 ; 1119265.2151654542 ; 0.0
34 ; 20025.92674532281 ; 33917.12773228652 ; 431722.6440382539 ; 1153182.3428977407 ; 0.0
35 ; 20325.080800453365 ; 33917.12773228652 ; 451748.5707835767 ; 1187099.4706300271 ; 0.0
36 ; 20614.750919420934 ; 33917.12773228652 ; 472073.65158403007 ; 1221016.5983623136 ; 0.0
37 ; 20927.65835775166 ; 33917.12773228652 ; 492688.402503451 ; 1254933.7260946 ; 0.0
38 ; 21260.500986357125 ; 33917.12773228652 ; 513616.06086120266 ; 1288850.8538268865 ; 0.0
39 ; 21572.22366557078 ; 33917.12773228652 ; 534876.5618475598 ; 1322767.981559173 ; 0.0
40 ; 21651.42995400123 ; 33917.12773228652 ; 556448.7855131305 ; 1356685.1092914594 ; 0.0
41 ; 22250.061103425902 ; 33917.12773228652 ; 578100.2154671317 ; 1390602.237023746 ; 0.0
42 ; 22439.664789106682 ; 33917.12773228652 ; 600350.2765705576 ; 1424519.3647560324 ; 0.0
43 ; 22984.89805164404 ; 33917.12773228652 ; 622789.9413596643 ; 1458436.4924883188 ; 0.0
44 ; 23063.952746192233 ; 33917.12773228652 ; 645774.8394113084 ; 1492353.6202206053 ; 0.0
45 ; 23201.363049201434 ; 33917.12773228652 ; 668838.7921575006 ; 1526270.7479528917 ; 0.0
46 ; 23537.010297332985 ; 33917.12773228652 ; 692040.1552067021 ; 1560187.8756851782 ; 0.0
47 ; 23639.21880138797 ; 33917.12773228652 ; 715577.1655040351 ; 1594105.0034174647 ; 0.0
48 ; 24088.641057215184 ; 33917.12773228652 ; 739216.384305423 ; 1628022.1311497511 ; 0.0
49 ; 24089.77412954133 ; 33917.12773228652 ; 763305.0253626382 ; 1661939.2588820376 ; 0.0
50 ; 24418.3396728002 ; 33917.12773228652 ; 787394.7994921795 ; 1695856.386614324 ; 0.0
51 ; 24637.430580263266 ; 33917.12773228652 ; 811813.1391649797 ; 1729773.5143466105 ; 0.0
52 ; 24860.285487866295 ; 33917.12773228652 ; 836450.569745243 ; 1763690.642078897 ; 0.0
53 ; 25218.733268620403 ; 33917.12773228652 ; 861310.8552331092 ; 1797607.7698111834 ; 0.0
54 ; 25511.133315902414 ; 33917.12773228652 ; 886529.5885017297 ; 1831524.89754347 ; 0.0
55 ; 25541.20411707275 ; 33917.12773228652 ; 912040.7218176321 ; 1865442.0252757564 ; 0.0
56 ; 25757.077564481217 ; 33917.12773228652 ; 937581.9259347048 ; 1899359.1530080428 ; 0.0
57 ; 25865.91482994698 ; 33917.12773228652 ; 963339.003499186 ; 1933276.2807403293 ; 0.0
58 ; 26000.679751878313 ; 33917.12773228652 ; 989204.918329133 ; 1967193.4084726158 ; 0.0
59 ; 26250.00520612459 ; 33917.12773228652 ; 1015205.5980810113 ; 2001110.5362049022 ; 0.0
60 ; 26438.215432876856 ; 33917.12773228652 ; 1041455.603287136 ; 2035027.6639371887 ; 0.0
61 ; 26498.55715344753 ; 33917.12773228652 ; 1067893.818720013 ; 2068944.7916694751 ; 0.0
62 ; 26590.659360519738 ; 33917.12773228652 ; 1094392.3758734604 ; 2102861.9194017616 ; 0.0
63 ; 26780.052211068607 ; 33917.12773228652 ; 1120983.0352339803 ; 2136779.0471340483 ; 0.0
64 ; 26943.143146690396 ; 33917.12773228652 ; 1147763.0874450488 ; 2170696.174866335 ; 0.0
65 ; 27032.62117322015 ; 33917.12773228652 ; 1174706.2305917393 ; 2204613.3025986217 ; 0.0
66 ; 27124.146750354674 ; 33917.12773228652 ; 1201738.8517649595 ; 2238530.4303309084 ; 0.0
67 ; 27182.30802929887 ; 33917.12773228652 ; 1228862.9985153142 ; 2272447.558063195 ; 0.0
68 ; 27387.70977915401 ; 33917.12773228652 ; 1256045.306544613 ; 2306364.685795482 ; 0.0
69 ; 27453.24328327895 ; 33917.12773228652 ; 1283433.0163237671 ; 2340281.8135277685 ; 0.0
70 ; 27443.104968964988 ; 33917.12773228652 ; 1310886.2596070461 ; 2374198.941260055 ; 0.0
71 ; 27461.120933043785 ; 33917.12773228652 ; 1338329.3645760112 ; 2408116.068992342 ; 0.0
72 ; 27821.086016084457 ; 33917.12773228652 ; 1365790.485509055 ; 2442033.1967246286 ; 0.0
73 ; 27687.058501928106 ; 33917.12773228652 ; 1393611.5715251395 ; 2475950.3244569153 ; 0.0
74 ; 27872.061622915495 ; 33917.12773228652 ; 1421298.6300270676 ; 2509867.452189202 ; 0.0
75 ; 27780.279944607402 ; 33917.12773228652 ; 1449170.6916499832 ; 2543784.5799214887 ; 0.0
76 ; 27947.25097813359 ; 33917.12773228652 ; 1476950.9715945905 ; 2577701.7076537753 ; 0.0
77 ; 28007.02122486701 ; 33917.12773228652 ; 1504898.222572724 ; 2611618.835386062 ; 0.0
78 ; 28001.662532341947 ; 33917.12773228652 ; 1532905.2437975912 ; 2645535.9631183487 ; 0.0
79 ; 27915.778716091376 ; 33917.12773228652 ; 1560906.906329933 ; 2679453.0908506354 ; 0.0
80 ; 27950.78433593027 ; 33917.12773228652 ; 1588822.6850460244 ; 2713370.218582922 ; 0.0
81 ; 28055.089886005553 ; 33917.12773228652 ; 1616773.4693819548 ; 2747287.346315209 ; 0.0
82 ; 27886.845528882135 ; 33917.12773228652 ; 1644828.5592679603 ; 2781204.4740474955 ; 0.0
83 ; 28063.82929123249 ; 33917.12773228652 ; 1672715.4047968425 ; 2815121.601779782 ; 0.0
84 ; 27863.34537666113 ; 33917.12773228652 ; 1700779.2340880749 ; 2849038.729512069 ; 0.0
85 ; 27928.574045419835 ; 33917.12773228652 ; 1728642.579464736 ; 2882955.8572443556 ; 0.0
86 ; 27897.1607873324 ; 33917.12773228652 ; 1756571.1535101559 ; 2916872.9849766423 ; 0.0
87 ; 27859.892617866284 ; 33917.12773228652 ; 1784468.3142974882 ; 2950790.112708929 ; 0.0
88 ; 27992.503046206508 ; 33917.12773228652 ; 1812328.2069153546 ; 2984707.2404412157 ; 0.0
89 ; 28036.909351321687 ; 33917.12773228652 ; 1840320.709961561 ; 3018624.3681735024 ; 0.0
90 ; 27762.841837945707 ; 33917.12773228652 ; 1868357.6193128827 ; 3052541.495905789 ; 0.0
91 ; 27780.266178218564 ; 33917.12773228652 ; 1896120.4611508283 ; 3086458.623638076 ; 0.0
92 ; 27607.426801658272 ; 33917.12773228652 ; 1923900.727329047 ; 3120375.7513703625 ; 0.0
93 ; 27702.170843448603 ; 33917.12773228652 ; 1951508.1541307052 ; 3154292.879102649 ; 0.0
94 ; 27637.010380388012 ; 33917.12773228652 ; 1979210.3249741537 ; 3188210.006834936 ; 0.0
95 ; 27564.7188901799 ; 33917.12773228652 ; 2006847.3353545417 ; 3222127.1345672226 ; 0.0
96 ; 27466.452502603668 ; 33917.12773228652 ; 2034412.0542447215 ; 3256044.2622995093 ; 0.0
97 ; 27330.490827689777 ; 33917.12773228652 ; 2061878.5067473252 ; 3289961.390031796 ; 0.0
98 ; 27239.597673189488 ; 33917.12773228652 ; 2089208.997575015 ; 3323878.5177640826 ; 0.0
99 ; 27073.31175671099 ; 33917.12773228652 ; 2116448.5952482047 ; 3357795.6454963693 ; 0.0
100 ; 26919.08158036391 ; 33917.12773228652 ; 2143521.9070049156 ; 3391712.773228656 ; 0.0
101 ; 26831.869829465202 ; 33917.12773228652 ; 2170440.9885852793 ; 3425629.9009609427 ; 0.0
102 ; 26594.41794983384 ; 33917.12773228652 ; 2197272.8584147445 ; 3459547.0286932294 ; 0.0
103 ; 26649.739760588633 ; 33917.12773228652 ; 2223867.2763645784 ; 3493464.156425516 ; 0.0
104 ; 26433.45190460676 ; 33917.12773228652 ; 2250517.0161251673 ; 3527381.284157803 ; 0.0
105 ; 26297.66676065375 ; 33917.12773228652 ; 2276950.468029774 ; 3561298.4118900895 ; 0.0
106 ; 26004.578146377942 ; 33917.12773228652 ; 2303248.1347904275 ; 3595215.539622376 ; 0.0
107 ; 25790.34784873994 ; 33917.12773228652 ; 2329252.7129368056 ; 3629132.667354663 ; 0.0
108 ; 25618.92066077919 ; 33917.12773228652 ; 2355043.0607855455 ; 3663049.7950869496 ; 0.0
109 ; 25653.109695420644 ; 33917.12773228652 ; 2380661.981446325 ; 3696966.9228192363 ; 0.0
110 ; 25328.742409915158 ; 33917.12773228652 ; 2406315.0911417454 ; 3730884.050551523 ; 0.0
111 ; 25016.11882315849 ; 33917.12773228652 ; 2431643.8335516606 ; 3764801.1782838097 ; 0.0
112 ; 25034.486324499358 ; 33917.12773228652 ; 2456659.952374819 ; 3798718.3060160964 ; 0.0
113 ; 24815.731000236923 ; 33917.12773228652 ; 2481694.4386993186 ; 3832635.433748383 ; 0.0
114 ; 24484.30325784954 ; 33917.12773228652 ; 2506510.1696995553 ; 3866552.56148067 ; 0.0
115 ; 24416.204546231973 ; 33917.12773228652 ; 2530994.472957405 ; 3900469.6892129565 ; 0.0
116 ; 23969.603428173334 ; 33917.12773228652 ; 2555410.6775036366 ; 3934386.816945243 ; 0.0
117 ; 23711.94001535241 ; 33917.12773228652 ; 2579380.28093181 ; 3968303.94467753 ; 0.0
118 ; 23602.030117419883 ; 33917.12773228652 ; 2603092.2209471622 ; 4002221.0724098166 ; 0.0
119 ; 23386.484456695256 ; 33917.12773228652 ; 2626694.2510645823 ; 4036138.2001421032 ; 0.0
120 ; 23066.91049731612 ; 33917.12773228652 ; 2650080.7355212774 ; 4070055.32787439 ; 0.0
121 ; 22891.982072443792 ; 33917.12773228652 ; 2673147.6460185936 ; 4103972.4556066766 ; 0.0
122 ; 22577.774999849727 ; 33917.12773228652 ; 2696039.6280910373 ; 4137889.5833389633 ; 0.0
123 ; 22263.11110228032 ; 33917.12773228652 ; 2718617.403090887 ; 4171806.71107125 ; 0.0
124 ; 21957.277138188678 ; 33917.12773228652 ; 2740880.514193167 ; 4205723.838803536 ; 0.0
125 ; 21704.203666249752 ; 33917.12773228652 ; 2762837.7913313555 ; 4239640.9665358225 ; 0.0
126 ; 21343.39574062998 ; 33917.12773228652 ; 2784541.994997605 ; 4273558.094268109 ; 0.0
127 ; 21123.234003153135 ; 33917.12773228652 ; 2805885.3907382353 ; 4307475.222000395 ; 0.0
128 ; 20704.6404295213 ; 33917.12773228652 ; 2827008.6247413885 ; 4341392.349732681 ; 0.0
129 ; 20459.14408267922 ; 33917.12773228652 ; 2847713.26517091 ; 4375309.477464967 ; 0.0
130 ; 20078.542723803006 ; 33917.12773228652 ; 2868172.4092535893 ; 4409226.605197254 ; 0.0
131 ; 19772.36263628454 ; 33917.12773228652 ; 2888250.951977392 ; 4443143.73292954 ; 0.0
132 ; 19485.25441586887 ; 33917.12773228652 ; 2908023.3146136766 ; 4477060.860661826 ; 0.0
133 ; 19226.65210095721 ; 33917.12773228652 ; 2927508.5690295454 ; 4510977.988394112 ; 0.0
134 ; 18893.09171555026 ; 33917.12773228652 ; 2946735.2211305024 ; 4544895.116126399 ; 0.0
135 ; 18422.771912365803 ; 33917.12773228652 ; 2965628.3128460525 ; 4578812.243858685 ; 0.0
136 ; 18112.706801719018 ; 33917.12773228652 ; 2984051.084758418 ; 4612729.371590971 ; 0.0
137 ; 17703.511609639572 ; 33917.12773228652 ; 3002163.791560137 ; 4646646.499323257 ; 0.0
138 ; 17290.593111883798 ; 33917.12773228652 ; 3019867.3031697767 ; 4680563.6270555435 ; 0.0
139 ; 16911.473919952474 ; 33917.12773228652 ; 3037157.8962816605 ; 4714480.75478783 ; 0.0
140 ; 16606.94481182532 ; 33917.12773228652 ; 3054069.370201613 ; 4748397.882520116 ; 0.0
141 ; 16075.088207263474 ; 33917.12773228652 ; 3070676.315013438 ; 4782315.010252402 ; 0.0
142 ; 15597.6562526452 ; 33917.12773228652 ; 3086751.4032207015 ; 4816232.137984688 ; 0.0
143 ; 15205.757260296943 ; 33917.12773228652 ; 3102349.059473347 ; 4850149.265716975 ; 0.0
144 ; 14976.590431418454 ; 33917.12773228652 ; 3117554.816733644 ; 4884066.393449261 ; 0.0
145 ; 14759.423988308547 ; 33917.12773228652 ; 3132531.407165062 ; 4917983.521181547 ; 0.0
146 ; 14698.591319314912 ; 33917.12773228652 ; 3147290.831153371 ; 4951900.648913833 ; 0.0
147 ; 14492.224111589552 ; 33917.12773228652 ; 3161989.422472686 ; 4985817.77664612 ; 0.0
148 ; 14350.03677452069 ; 33917.12773228652 ; 3176481.6465842756 ; 5019734.904378406 ; 0.0
149 ; 14096.770117065918 ; 33917.12773228652 ; 3190831.6833587964 ; 5053652.032110692 ; 0.0
150 ; 14260.8885560542 ; 33917.12773228652 ; 3204928.4534758623 ; 5087569.159842978 ; 0.0
151 ; 14010.842050674803 ; 33917.12773228652 ; 3219189.3420319166 ; 5121486.287575264 ; 0.0
152 ; 13797.697026719528 ; 33917.12773228652 ; 3233200.1840825914 ; 5155403.415307551 ; 0.0
153 ; 13789.814763447912 ; 33917.12773228652 ; 3246997.881109311 ; 5189320.543039837 ; 0.0
154 ; 13628.685020143446 ; 33917.12773228652 ; 3260787.6958727585 ; 5223237.670772123 ; 0.0
155 ; 13479.782644708755 ; 33917.12773228652 ; 3274416.380892902 ; 5257154.798504409 ; 0.0
156 ; 13271.011842394424 ; 33917.12773228652 ; 3287896.163537611 ; 5291071.926236696 ; 0.0
157 ; 13245.388402277731 ; 33917.12773228652 ; 3301167.175380005 ; 5324989.053968982 ; 0.0
158 ; 13239.262188307663 ; 33917.12773228652 ; 3314412.5637822826 ; 5358906.181701268 ; 0.0
159 ; 12811.799067188544 ; 33917.12773228652 ; 3327651.82597059 ; 5392823.309433554 ; 0.0
160 ; 12843.878773913755 ; 33917.12773228652 ; 3340463.6250377786 ; 5426740.4371658405 ; 0.0
161 ; 12444.52155673083 ; 33917.12773228652 ; 3353307.5038116924 ; 5460657.564898127 ; 0.0
162 ; 12374.146640250943 ; 33917.12773228652 ; 3365752.025368423 ; 5494574.692630413 ; 0.0
163 ; 12418.385069981676 ; 33917.12773228652 ; 3378126.172008674 ; 5528491.820362699 ; 0.0
164 ; 12100.763228104352 ; 33917.12773228652 ; 3390544.557078656 ; 5562408.948094985 ; 0.0
165 ; 12028.746124235524 ; 33917.12773228652 ; 3402645.3203067603 ; 5596326.075827272 ; 0.0
166 ; 11721.09702564529 ; 33917.12773228652 ; 3414674.0664309957 ; 5630243.203559558 ; 0.0
167 ; 11641.98912252318 ; 33917.12773228652 ; 3426395.163456641 ; 5664160.331291844 ; 0.0
168 ; 11386.043732619373 ; 33917.12773228652 ; 3438037.152579164 ; 5698077.45902413 ; 0.0
169 ; 11270.777287138633 ; 33917.12773228652 ; 3449423.1963117835 ; 5731994.586756417 ; 0.0
170 ; 11022.407296592508 ; 33917.12773228652 ; 3460693.973598922 ; 5765911.714488703 ; 0.0
171 ; 10892.537985794155 ; 33917.12773228652 ; 3471716.3808955145 ; 5799828.842220989 ; 0.0
172 ; 10870.08800965284 ; 33917.12773228652 ; 3482608.9188813088 ; 5833745.969953275 ; 0.0
173 ; 10577.174668720952 ; 33917.12773228652 ; 3493479.0068909614 ; 5867663.0976855615 ; 0.0
174 ; 10643.85390769517 ; 33917.12773228652 ; 3504056.1815596824 ; 5901580.225417848 ; 0.0
175 ; 10618.253181049884 ; 33917.12773228652 ; 3514700.0354673774 ; 5935497.353150134 ; 0.0
176 ; 10691.377512229375 ; 33917.12773228652 ; 3525318.2886484275 ; 5969414.48088242 ; 0.0
177 ; 10800.326573115768 ; 33917.12773228652 ; 3536009.666160657 ; 6003331.608614706 ; 0.0
178 ; 10878.264403925217 ; 33917.12773228652 ; 3546809.992733773 ; 6037248.736346993 ; 0.0
179 ; 10820.688457153417 ; 33917.12773228652 ; 3557688.257137698 ; 6071165.864079279 ; 0.0
180 ; 10876.302323116306 ; 33917.12773228652 ; 3568508.9455948514 ; 6105082.991811565 ; 0.0
181 ; 10988.30620012594 ; 33917.12773228652 ; 3579385.247917968 ; 6139000.119543851 ; 0.0
182 ; 11011.238337597915 ; 33917.12773228652 ; 3590373.5541180936 ; 6172917.247276138 ; 0.0
183 ; 11001.598422509918 ; 33917.12773228652 ; 3601384.7924556914 ; 6206834.375008424 ; 0.0
184 ; 11059.174718488268 ; 33917.12773228652 ; 3612386.3908782015 ; 6240751.50274071 ; 0.0
185 ; 11032.690555270801 ; 33917.12773228652 ; 3623445.56559669 ; 6274668.630472996 ; 0.0
186 ; 10940.814497184892 ; 33917.12773228652 ; 3634478.2561519607 ; 6308585.7582052825 ; 0.0
187 ; 11093.839632457495 ; 33917.12773228652 ; 3645419.0706491456 ; 6342502.885937569 ; 0.0
188 ; 11097.91372592227 ; 33917.12773228652 ; 3656512.910281603 ; 6376420.013669855 ; 0.0
189 ; 11105.93242594829 ; 33917.12773228652 ; 3667610.8240075256 ; 6410337.141402141 ; 0.0
190 ; 11050.311223355238 ; 33917.12773228652 ; 3678716.756433474 ; 6444254.269134427 ; 0.0
191 ; 11250.567836635253 ; 33917.12773228652 ; 3689767.067656829 ; 6478171.396866714 ; 0.0
192 ; 11234.328086071897 ; 33917.12773228652 ; 3701017.6354934643 ; 6512088.524599 ; 0.0
193 ; 11266.270867947875 ; 33917.12773228652 ; 3712251.9635795364 ; 6546005.652331286 ; 0.0
194 ; 11311.773416305712 ; 33917.12773228652 ; 3723518.2344474844 ; 6579922.780063572 ; 0.0
195 ; 11418.430112151851 ; 33917.12773228652 ; 3734830.0078637903 ; 6613839.907795859 ; 0.0
196 ; 11533.548840331883 ; 33917.12773228652 ; 3746248.437975942 ; 6647757.035528145 ; 0.0
197 ; 11581.333094344307 ; 33917.12773228652 ; 3757781.986816274 ; 6681674.163260431 ; 0.0
198 ; 11475.539352973326 ; 33917.12773228652 ; 3769363.3199106185 ; 6715591.290992717 ; 0.0
199 ; 11679.352276153284 ; 33917.12773228652 ; 3780838.859263592 ; 6749508.4187250035 ; 0.0
200 ; 11691.101202010163 ; 33917.12773228652 ; 3792518.2115397453 ; 6783425.54645729 ; 0.0
201 ; 11604.611786138015 ; 33917.12773228652 ; 3804209.3127417555 ; 6817342.674189576 ; 0.0
202 ; 11830.448968683511 ; 33917.12773228652 ; 3815813.9245278933 ; 6851259.801921862 ; 0.0
203 ; 11713.73675479771 ; 33917.12773228652 ; 3827644.3734965767 ; 6885176.929654148 ; 0.0
204 ; 11757.720123645115 ; 33917.12773228652 ; 3839358.1102513745 ; 6919094.057386435 ; 0.0
205 ; 11753.746798297796 ; 33917.12773228652 ; 3851115.8303750195 ; 6953011.185118721 ; 0.0
206 ; 11804.880506550759 ; 33917.12773228652 ; 3862869.5771733173 ; 6986928.312851007 ; 0.0
207 ; 11846.127076942586 ; 33917.12773228652 ; 3874674.457679868 ; 7020845.440583293 ; 0.0
208 ; 11838.725256807802 ; 33917.12773228652 ; 3886520.5847568107 ; 7054762.56831558 ; 0.0
209 ; 11744.23836545373 ; 33917.12773228652 ; 3898359.3100136183 ; 7088679.696047866 ; 0.0
210 ; 11987.691077147341 ; 33917.12773228652 ; 3910103.548379072 ; 7122596.823780152 ; 0.0
211 ; 11816.426302727965 ; 33917.12773228652 ; 3922091.239456219 ; 7156513.951512438 ; 0.0
212 ; 12048.903973460958 ; 33917.12773228652 ; 3933907.665758947 ; 7190431.0792447245 ; 0.0
213 ; 11931.513770949445 ; 33917.12773228652 ; 3945956.569732408 ; 7224348.206977011 ; 0.0
214 ; 11995.637065663754 ; 33917.12773228652 ; 3957888.0835033576 ; 7258265.334709297 ; 0.0
215 ; 12120.603331552527 ; 33917.12773228652 ; 3969883.7205690215 ; 7292182.462441583 ; 0.0
216 ; 12219.510071475348 ; 33917.12773228652 ; 3982004.323900574 ; 7326099.590173869 ; 0.0
