CSV File for the City 1 on Day 220
1 - Minute m 
2 - Power Consumed at minute m 
3 - Power Produced at minute m 
4 - Energy Consumed since the beginning of the day 
5 - Energy Produced since the beginning of the day 
6 - Energy Lost since the beginning of the day on lines starting from the city
 
0 ; 5098.599070501614 ; 3473.213151186792 ; 0.0 ; 0.0 ; 0.0
1 ; 5798.397495768364 ; 3473.213151186792 ; 5098.599070501614 ; 3473.213151186792 ; 238.00000000000003
2 ; 6486.092125593342 ; 3473.213151186792 ; 10896.996566269978 ; 6946.426302373584 ; 476.00000000000006
3 ; 7236.045766845635 ; 3473.213151186792 ; 17383.08869186332 ; 10419.639453560376 ; 714.0000000000001
4 ; 7829.431936900807 ; 3473.213151186792 ; 24619.134458708955 ; 13892.852604747168 ; 952.0000000000001
5 ; 8368.87275183748 ; 3473.213151186792 ; 32448.566395609763 ; 17366.06575593396 ; 1190.0000000000002
6 ; 9146.829839278324 ; 3473.213151186792 ; 40817.43914744724 ; 20839.27890712075 ; 1428.0000000000002
7 ; 9644.349208531265 ; 3473.213151186792 ; 49964.26898672557 ; 24312.492058307544 ; 1666.0000000000002
8 ; 10239.432739903017 ; 3473.213151186792 ; 59608.61819525683 ; 27785.705209494336 ; 1904.0000000000002
9 ; 10972.46326005239 ; 3473.213151186792 ; 69848.05093515984 ; 31258.918360681128 ; 2142.0000000000005
10 ; 11370.402943269231 ; 3473.213151186792 ; 80820.51419521224 ; 34732.13151186792 ; 2380.0000000000005
11 ; 11900.49240112925 ; 3473.213151186792 ; 92190.91713848147 ; 38205.34466305471 ; 2618.0000000000005
12 ; 12527.038393297002 ; 3473.213151186792 ; 104091.40953961072 ; 41678.5578142415 ; 2856.0000000000005
13 ; 13214.862418625497 ; 3473.213151186792 ; 116618.44793290771 ; 45151.770965428295 ; 3094.0000000000005
14 ; 13777.587027888942 ; 3473.213151186792 ; 129833.3103515332 ; 48624.98411661509 ; 3332.0000000000005
15 ; 14102.248812907008 ; 3473.213151186792 ; 143610.89737942215 ; 52098.19726780188 ; 3570.0000000000005
16 ; 14641.559936420852 ; 3473.213151186792 ; 157713.14619232915 ; 55571.41041898867 ; 3808.0000000000005
17 ; 15184.66406848588 ; 3473.213151186792 ; 172354.70612875 ; 59044.62357017546 ; 4046.0000000000005
18 ; 15812.761814706286 ; 3473.213151186792 ; 187539.37019723587 ; 62517.836721362255 ; 4284.000000000001
19 ; 16286.94143582527 ; 3473.213151186792 ; 203352.13201194216 ; 65991.04987254905 ; 4522.000000000001
20 ; 16830.343525217326 ; 3473.213151186792 ; 219639.07344776744 ; 69464.26302373584 ; 4760.000000000001
21 ; 17366.67133189421 ; 3473.213151186792 ; 236469.41697298476 ; 72937.47617492263 ; 4998.000000000001
22 ; 17787.428611893327 ; 3473.213151186792 ; 253836.08830487897 ; 76410.68932610942 ; 5236.000000000001
23 ; 18466.249495222968 ; 3473.213151186792 ; 271623.5169167723 ; 79883.90247729621 ; 5474.000000000001
24 ; 18966.051511284608 ; 3473.213151186792 ; 290089.7664119953 ; 83357.115628483 ; 5712.000000000001
25 ; 19300.638236088176 ; 3473.213151186792 ; 309055.8179232799 ; 86830.3287796698 ; 5950.000000000001
26 ; 19661.78941501084 ; 3473.213151186792 ; 328356.45615936804 ; 90303.54193085659 ; 6188.000000000001
27 ; 20240.628651208615 ; 3473.213151186792 ; 348018.2455743789 ; 93776.75508204338 ; 6426.000000000001
28 ; 20428.26439166645 ; 3473.213151186792 ; 368258.87422558747 ; 97249.96823323017 ; 6664.000000000001
29 ; 21060.792084654684 ; 3473.213151186792 ; 388687.1386172539 ; 100723.18138441697 ; 6902.000000000001
30 ; 21558.724824670247 ; 3473.213151186792 ; 409747.9307019086 ; 104196.39453560376 ; 7140.000000000001
31 ; 21918.850413137538 ; 3473.213151186792 ; 431306.65552657883 ; 107669.60768679055 ; 7378.000000000001
32 ; 22350.151411690167 ; 3473.213151186792 ; 453225.50593971636 ; 111142.82083797734 ; 7616.000000000001
33 ; 22846.43553137933 ; 3473.213151186792 ; 475575.6573514065 ; 114616.03398916413 ; 7854.000000000001
34 ; 23114.882862474493 ; 3473.213151186792 ; 498422.09288278583 ; 118089.24714035093 ; 8092.000000000001
35 ; 23437.849902533493 ; 3473.213151186792 ; 521536.9757452603 ; 121562.46029153772 ; 8330.000000000002
36 ; 23756.78917602797 ; 3473.213151186792 ; 544974.8256477938 ; 125035.67344272451 ; 8568.000000000002
37 ; 24012.819050509414 ; 3473.213151186792 ; 568731.6148238218 ; 128508.8865939113 ; 8806.000000000002
38 ; 24417.895897221446 ; 3473.213151186792 ; 592744.4338743312 ; 131982.0997450981 ; 9044.000000000002
39 ; 24944.528276461235 ; 3473.213151186792 ; 617162.3297715526 ; 135455.3128962849 ; 9282.000000000002
40 ; 25401.34549669133 ; 3473.213151186792 ; 642106.8580480139 ; 138928.52604747168 ; 9520.000000000002
41 ; 25525.096528024853 ; 3473.213151186792 ; 667508.2035447052 ; 142401.73919865847 ; 9758.000000000002
42 ; 25971.652750567588 ; 3473.213151186792 ; 693033.30007273 ; 145874.95234984526 ; 9996.000000000002
43 ; 26085.135027001405 ; 3473.213151186792 ; 719004.9528232976 ; 149348.16550103205 ; 10234.000000000002
44 ; 26423.289403948023 ; 3473.213151186792 ; 745090.087850299 ; 152821.37865221885 ; 10472.000000000002
45 ; 26896.380108334066 ; 3473.213151186792 ; 771513.377254247 ; 156294.59180340564 ; 10710.000000000002
46 ; 27061.33293202283 ; 3473.213151186792 ; 798409.7573625811 ; 159767.80495459243 ; 10948.000000000002
47 ; 27422.120372643356 ; 3473.213151186792 ; 825471.090294604 ; 163241.01810577922 ; 11186.000000000002
48 ; 27789.966864843336 ; 3473.213151186792 ; 852893.2106672473 ; 166714.231256966 ; 11424.000000000002
49 ; 28091.85839370939 ; 3473.213151186792 ; 880683.1775320907 ; 170187.4444081528 ; 11662.000000000002
50 ; 28323.320710617874 ; 3473.213151186792 ; 908775.0359258001 ; 173660.6575593396 ; 11900.000000000002
51 ; 28437.203495342088 ; 3473.213151186792 ; 937098.356636418 ; 177133.8707105264 ; 12138.000000000002
52 ; 28821.620815042683 ; 3473.213151186792 ; 965535.5601317601 ; 180607.08386171318 ; 12376.000000000002
53 ; 29024.333432522777 ; 3473.213151186792 ; 994357.1809468027 ; 184080.29701289997 ; 12614.000000000002
54 ; 29408.424877646605 ; 3473.213151186792 ; 1023381.5143793256 ; 187553.51016408677 ; 12852.000000000002
55 ; 29502.03730077764 ; 3473.213151186792 ; 1052789.9392569722 ; 191026.72331527356 ; 13090.000000000002
56 ; 29674.13792265476 ; 3473.213151186792 ; 1082291.9765577498 ; 194499.93646646035 ; 13328.000000000002
57 ; 29742.981191503543 ; 3473.213151186792 ; 1111966.1144804046 ; 197973.14961764714 ; 13566.000000000002
58 ; 30048.88708139988 ; 3473.213151186792 ; 1141709.0956719082 ; 201446.36276883393 ; 13804.000000000002
59 ; 30241.25093751619 ; 3473.213151186792 ; 1171757.982753308 ; 204919.57592002072 ; 14042.000000000002
60 ; 30364.685985901502 ; 3473.213151186792 ; 1201999.2336908241 ; 208392.78907120752 ; 14280.000000000002
61 ; 30678.40071022635 ; 3473.213151186792 ; 1232363.9196767255 ; 211866.0022223943 ; 14518.000000000002
62 ; 30747.272288629123 ; 3473.213151186792 ; 1263042.3203869518 ; 215339.2153735811 ; 14756.000000000002
63 ; 31009.358814110677 ; 3473.213151186792 ; 1293789.5926755809 ; 218812.4285247679 ; 14994.000000000002
64 ; 30982.412371063954 ; 3473.213151186792 ; 1324798.9514896916 ; 222285.64167595468 ; 15232.000000000002
65 ; 31273.253038885672 ; 3473.213151186792 ; 1355781.3638607557 ; 225758.85482714148 ; 15470.000000000002
66 ; 31515.69357558054 ; 3473.213151186792 ; 1387054.6168996415 ; 229232.06797832827 ; 15708.000000000002
67 ; 31536.91697012288 ; 3473.213151186792 ; 1418570.310475222 ; 232705.28112951506 ; 15946.000000000002
68 ; 31633.6370705125 ; 3473.213151186792 ; 1450107.227445345 ; 236178.49428070185 ; 16184.000000000002
69 ; 31590.677168596627 ; 3473.213151186792 ; 1481740.8645158573 ; 239651.70743188864 ; 16422.000000000004
70 ; 31741.570548957025 ; 3473.213151186792 ; 1513331.5416844538 ; 243124.92058307544 ; 16660.000000000004
71 ; 31838.25429500053 ; 3473.213151186792 ; 1545073.1122334108 ; 246598.13373426223 ; 16898.000000000004
72 ; 32048.8968976116 ; 3473.213151186792 ; 1576911.3665284114 ; 250071.34688544902 ; 17136.000000000004
73 ; 31914.98919903146 ; 3473.213151186792 ; 1608960.263426023 ; 253544.5600366358 ; 17374.000000000004
74 ; 32051.828849932826 ; 3473.213151186792 ; 1640875.2526250544 ; 257017.7731878226 ; 17612.000000000004
75 ; 32266.964906889185 ; 3473.213151186792 ; 1672927.0814749873 ; 260490.9863390094 ; 17850.000000000004
76 ; 32036.54296604986 ; 3473.213151186792 ; 1705194.0463818766 ; 263964.1994901962 ; 18088.000000000004
77 ; 32203.29788090687 ; 3473.213151186792 ; 1737230.5893479264 ; 267437.412641383 ; 18326.000000000004
78 ; 32208.541918717587 ; 3473.213151186792 ; 1769433.8872288333 ; 270910.62579256983 ; 18564.000000000004
79 ; 32282.722913344922 ; 3473.213151186792 ; 1801642.4291475508 ; 274383.83894375665 ; 18802.000000000004
80 ; 32306.332731783445 ; 3473.213151186792 ; 1833925.1520608957 ; 277857.0520949435 ; 19040.000000000004
81 ; 32381.501925184293 ; 3473.213151186792 ; 1866231.484792679 ; 281330.2652461303 ; 19278.000000000004
82 ; 32312.412164770783 ; 3473.213151186792 ; 1898612.9867178635 ; 284803.4783973171 ; 19516.000000000004
83 ; 32530.091357684712 ; 3473.213151186792 ; 1930925.3988826342 ; 288276.69154850394 ; 19754.000000000004
84 ; 32373.945661112524 ; 3473.213151186792 ; 1963455.490240319 ; 291749.90469969076 ; 19992.000000000004
85 ; 32393.5739263182 ; 3473.213151186792 ; 1995829.4359014314 ; 295223.1178508776 ; 20230.000000000004
86 ; 32344.316547463735 ; 3473.213151186792 ; 2028223.0098277496 ; 298696.3310020644 ; 20468.000000000004
87 ; 32502.403620912348 ; 3473.213151186792 ; 2060567.3263752132 ; 302169.5441532512 ; 20706.000000000004
88 ; 32199.669641093235 ; 3473.213151186792 ; 2093069.7299961257 ; 305642.75730443804 ; 20944.000000000004
89 ; 32266.215915201108 ; 3473.213151186792 ; 2125269.399637219 ; 309115.97045562486 ; 21182.000000000004
90 ; 32105.717170883418 ; 3473.213151186792 ; 2157535.6155524203 ; 312589.1836068117 ; 21420.000000000004
91 ; 32241.11096510931 ; 3473.213151186792 ; 2189641.3327233037 ; 316062.3967579985 ; 21658.000000000004
92 ; 32060.39299230486 ; 3473.213151186792 ; 2221882.443688413 ; 319535.6099091853 ; 21896.000000000004
93 ; 31966.32396684876 ; 3473.213151186792 ; 2253942.8366807178 ; 323008.82306037215 ; 22134.000000000004
94 ; 31838.089963968538 ; 3473.213151186792 ; 2285909.1606475664 ; 326482.03621155897 ; 22372.000000000004
95 ; 31764.529241226475 ; 3473.213151186792 ; 2317747.250611535 ; 329955.2493627458 ; 22610.000000000004
96 ; 31568.118407220096 ; 3473.213151186792 ; 2349511.7798527614 ; 333428.4625139326 ; 22848.000000000004
97 ; 31587.10984964733 ; 3473.213151186792 ; 2381079.8982599815 ; 336901.67566511943 ; 23086.000000000004
98 ; 31459.284837445415 ; 3473.213151186792 ; 2412667.0081096287 ; 340374.88881630625 ; 23324.000000000004
99 ; 31232.115753790233 ; 3473.213151186792 ; 2444126.292947074 ; 343848.1019674931 ; 23562.000000000004
100 ; 31129.901249928604 ; 3473.213151186792 ; 2475358.4087008643 ; 347321.3151186799 ; 23800.000000000004
101 ; 31015.11016582625 ; 3473.213151186792 ; 2506488.3099507927 ; 350794.5282698667 ; 24038.000000000004
102 ; 30784.492746921867 ; 3473.213151186792 ; 2537503.4201166187 ; 354267.74142105354 ; 24276.000000000004
103 ; 30439.26305979356 ; 3473.213151186792 ; 2568287.9128635405 ; 357740.95457224036 ; 24514.000000000004
104 ; 30531.72447692752 ; 3473.213151186792 ; 2598727.175923334 ; 361214.1677234272 ; 24752.000000000004
105 ; 30225.27179290408 ; 3473.213151186792 ; 2629258.9004002614 ; 364687.380874614 ; 24990.000000000004
106 ; 30021.69962604931 ; 3473.213151186792 ; 2659484.1721931654 ; 368160.5940258008 ; 25228.000000000004
107 ; 29936.771667837613 ; 3473.213151186792 ; 2689505.871819215 ; 371633.80717698764 ; 25466.000000000004
108 ; 29869.723283691106 ; 3473.213151186792 ; 2719442.6434870525 ; 375107.02032817446 ; 25704.000000000004
109 ; 29515.822526386743 ; 3473.213151186792 ; 2749312.366770744 ; 378580.2334793613 ; 25942.000000000004
110 ; 29384.085934786952 ; 3473.213151186792 ; 2778828.189297131 ; 382053.4466305481 ; 26180.000000000004
111 ; 29192.402816191396 ; 3473.213151186792 ; 2808212.275231918 ; 385526.6597817349 ; 26418.000000000004
112 ; 28900.945018119768 ; 3473.213151186792 ; 2837404.678048109 ; 388999.87293292175 ; 26656.000000000004
113 ; 28620.55052041551 ; 3473.213151186792 ; 2866305.623066229 ; 392473.08608410857 ; 26894.000000000004
114 ; 28234.90791081676 ; 3473.213151186792 ; 2894926.173586644 ; 395946.2992352954 ; 27132.000000000004
115 ; 27992.931342753516 ; 3473.213151186792 ; 2923161.081497461 ; 399419.5123864822 ; 27370.000000000004
116 ; 27804.476851788273 ; 3473.213151186792 ; 2951154.0128402147 ; 402892.72553766903 ; 27608.000000000004
117 ; 27578.048612956958 ; 3473.213151186792 ; 2978958.489692003 ; 406365.93868885585 ; 27846.000000000004
118 ; 27194.275557191846 ; 3473.213151186792 ; 3006536.53830496 ; 409839.1518400427 ; 28084.000000000004
119 ; 27091.188526849604 ; 3473.213151186792 ; 3033730.813862152 ; 413312.3649912295 ; 28322.000000000004
120 ; 26487.024130392136 ; 3473.213151186792 ; 3060822.0023890017 ; 416785.5781424163 ; 28560.000000000004
121 ; 26454.855222458227 ; 3473.213151186792 ; 3087309.026519394 ; 420258.79129360314 ; 28798.000000000004
122 ; 25891.39328377198 ; 3473.213151186792 ; 3113763.881741852 ; 423732.00444478996 ; 29036.000000000004
123 ; 25611.642706476687 ; 3473.213151186792 ; 3139655.275025624 ; 427205.2175959768 ; 29274.000000000004
124 ; 25418.103088614855 ; 3473.213151186792 ; 3165266.9177321005 ; 430678.4307471636 ; 29512.000000000004
125 ; 25107.8680836482 ; 3473.213151186792 ; 3190685.0208207155 ; 434151.6438983504 ; 29750.000000000004
126 ; 24723.10522752568 ; 3473.213151186792 ; 3215792.888904364 ; 437624.85704953724 ; 29988.000000000004
127 ; 24356.25148657153 ; 3473.213151186792 ; 3240515.9941318897 ; 441098.07020072406 ; 30226.000000000004
128 ; 24008.79907377683 ; 3473.213151186792 ; 3264872.245618461 ; 444571.2833519109 ; 30464.000000000004
129 ; 23841.69990207641 ; 3473.213151186792 ; 3288881.044692238 ; 448044.4965030977 ; 30702.000000000004
130 ; 23224.66963464868 ; 3473.213151186792 ; 3312722.744594314 ; 451517.7096542845 ; 30940.000000000004
131 ; 22895.870232825906 ; 3473.213151186792 ; 3335947.4142289627 ; 454990.92280547135 ; 31178.000000000004
132 ; 22522.992360184104 ; 3473.213151186792 ; 3358843.284461789 ; 458464.13595665817 ; 31416.000000000004
133 ; 22032.682768659106 ; 3473.213151186792 ; 3381366.276821973 ; 461937.349107845 ; 31654.000000000004
134 ; 21836.267027745875 ; 3473.213151186792 ; 3403398.959590632 ; 465410.5622590318 ; 31892.000000000004
135 ; 21257.76467791095 ; 3473.213151186792 ; 3425235.226618378 ; 468883.77541021863 ; 32130.000000000004
136 ; 20894.716125859148 ; 3473.213151186792 ; 3446492.991296289 ; 472356.98856140545 ; 32368.000000000004
137 ; 20375.840609641084 ; 3473.213151186792 ; 3467387.707422148 ; 475830.2017125923 ; 32606.000000000004
138 ; 20174.54036021788 ; 3473.213151186792 ; 3487763.5480317893 ; 479303.4148637791 ; 32844.00000000001
139 ; 19402.293526821984 ; 3473.213151186792 ; 3507938.088392007 ; 482776.6280149659 ; 33082.00000000001
140 ; 18959.792650886746 ; 3473.213151186792 ; 3527340.381918829 ; 486249.84116615274 ; 33320.00000000001
141 ; 18484.188202492598 ; 3473.213151186792 ; 3546300.1745697157 ; 489723.05431733956 ; 33558.00000000001
142 ; 18211.20355403621 ; 3473.213151186792 ; 3564784.362772208 ; 493196.2674685264 ; 33796.00000000001
143 ; 17584.501621292595 ; 3473.213151186792 ; 3582995.5663262443 ; 496669.4806197132 ; 34034.00000000001
144 ; 17220.69404028337 ; 3473.213151186792 ; 3600580.0679475367 ; 500142.6937709 ; 34272.00000000001
145 ; 16834.78594837038 ; 3473.213151186792 ; 3617800.7619878203 ; 503615.90692208684 ; 34510.00000000001
146 ; 16807.054014375462 ; 3473.213151186792 ; 3634635.547936191 ; 507089.12007327366 ; 34748.00000000001
147 ; 16684.781876063807 ; 3473.213151186792 ; 3651442.6019505663 ; 510562.3332244605 ; 34986.00000000001
148 ; 16595.309976346736 ; 3473.213151186792 ; 3668127.38382663 ; 514035.5463756473 ; 35224.00000000001
149 ; 16427.900728223398 ; 3473.213151186792 ; 3684722.693802977 ; 517508.7595268341 ; 35462.00000000001
150 ; 16292.329442475198 ; 3473.213151186792 ; 3701150.5945312004 ; 520981.97267802095 ; 35700.00000000001
151 ; 16106.480822520049 ; 3473.213151186792 ; 3717442.9239736754 ; 524455.1858292078 ; 35938.00000000001
152 ; 15981.29724203893 ; 3473.213151186792 ; 3733549.404796195 ; 527928.3989803946 ; 36176.00000000001
153 ; 15966.049940302792 ; 3473.213151186792 ; 3749530.702038234 ; 531401.6121315814 ; 36414.00000000001
154 ; 15817.758425803055 ; 3473.213151186792 ; 3765496.751978537 ; 534874.8252827682 ; 36652.00000000001
155 ; 15610.910854582215 ; 3473.213151186792 ; 3781314.51040434 ; 538348.038433955 ; 36890.00000000001
156 ; 15364.225402255446 ; 3473.213151186792 ; 3796925.421258922 ; 541821.2515851419 ; 37128.00000000001
157 ; 15221.171423494136 ; 3473.213151186792 ; 3812289.6466611777 ; 545294.4647363287 ; 37366.00000000001
158 ; 14991.19521474301 ; 3473.213151186792 ; 3827510.818084672 ; 548767.6778875155 ; 37604.00000000001
159 ; 14887.60832689313 ; 3473.213151186792 ; 3842502.013299415 ; 552240.8910387023 ; 37842.00000000001
160 ; 14788.201768072622 ; 3473.213151186792 ; 3857389.621626308 ; 555714.1041898892 ; 38080.00000000001
161 ; 14645.464608423947 ; 3473.213151186792 ; 3872177.823394381 ; 559187.317341076 ; 38318.00000000001
162 ; 14372.252925111028 ; 3473.213151186792 ; 3886823.288002805 ; 562660.5304922628 ; 38556.00000000001
163 ; 14242.234811780067 ; 3473.213151186792 ; 3901195.540927916 ; 566133.7436434496 ; 38794.00000000001
164 ; 13987.93805849383 ; 3473.213151186792 ; 3915437.775739696 ; 569606.9567946364 ; 39032.00000000001
165 ; 13750.747491298462 ; 3473.213151186792 ; 3929425.7137981895 ; 573080.1699458233 ; 39270.00000000001
166 ; 13513.007872644444 ; 3473.213151186792 ; 3943176.461289488 ; 576553.3830970101 ; 39508.00000000001
167 ; 13529.388199391022 ; 3473.213151186792 ; 3956689.469162132 ; 580026.5962481969 ; 39746.00000000001
168 ; 13159.049823232443 ; 3473.213151186792 ; 3970218.857361523 ; 583499.8093993837 ; 39984.00000000001
169 ; 12942.663353628852 ; 3473.213151186792 ; 3983377.9071847554 ; 586973.0225505705 ; 40222.00000000001
170 ; 12788.021608586627 ; 3473.213151186792 ; 3996320.5705383844 ; 590446.2357017574 ; 40460.00000000001
171 ; 12339.410643167033 ; 3473.213151186792 ; 4009108.592146971 ; 593919.4488529442 ; 40698.00000000001
172 ; 12371.840294075919 ; 3473.213151186792 ; 4021448.0027901377 ; 597392.662004131 ; 40936.00000000001
173 ; 12242.643796465652 ; 3473.213151186792 ; 4033819.843084214 ; 600865.8751553178 ; 41174.00000000001
174 ; 12268.816984279343 ; 3473.213151186792 ; 4046062.4868806796 ; 604339.0883065047 ; 41412.00000000001
175 ; 12229.783297410308 ; 3473.213151186792 ; 4058331.303864959 ; 607812.3014576915 ; 41650.00000000001
176 ; 12305.376541871494 ; 3473.213151186792 ; 4070561.0871623694 ; 611285.5146088783 ; 41888.00000000001
177 ; 12369.858249723562 ; 3473.213151186792 ; 4082866.463704241 ; 614758.7277600651 ; 42126.00000000001
178 ; 12408.651045362374 ; 3473.213151186792 ; 4095236.3219539644 ; 618231.9409112519 ; 42364.00000000001
179 ; 12370.73786486273 ; 3473.213151186792 ; 4107644.972999327 ; 621705.1540624388 ; 42602.00000000001
180 ; 12561.984897557752 ; 3473.213151186792 ; 4120015.7108641895 ; 625178.3672136256 ; 42840.00000000001
181 ; 12422.860241265214 ; 3473.213151186792 ; 4132577.695761747 ; 628651.5803648124 ; 43078.00000000001
182 ; 12490.773103416246 ; 3473.213151186792 ; 4145000.556003012 ; 632124.7935159992 ; 43316.00000000001
183 ; 12432.494382914565 ; 3473.213151186792 ; 4157491.3291064287 ; 635598.006667186 ; 43554.00000000001
184 ; 12716.043901992563 ; 3473.213151186792 ; 4169923.8234893433 ; 639071.2198183729 ; 43792.00000000001
185 ; 12596.9858806175 ; 3473.213151186792 ; 4182639.867391336 ; 642544.4329695597 ; 44030.00000000001
186 ; 12747.981144692112 ; 3473.213151186792 ; 4195236.853271953 ; 646017.6461207465 ; 44268.00000000001
