CSV File for the City 3 on Day 227
1 - Minute m 
2 - Power Consumed at minute m 
3 - Power Produced at minute m 
4 - Energy Consumed since the beginning of the day 
5 - Energy Produced since the beginning of the day 
6 - Energy Lost since the beginning of the day on lines starting from the city
 
0 ; 4070.9332816511946 ; 18627.164004858725 ; 0.0 ; 0.0 ; 0.0
1 ; 4363.149532134354 ; 17600.22169095333 ; 4070.9332816511946 ; 18627.164004858725 ; 0.0
2 ; 4935.294269093918 ; 16627.474565837965 ; 8434.082813785548 ; 36227.38569581206 ; 0.0
3 ; 5362.352768440435 ; 15719.067879478012 ; 13369.377082879466 ; 52854.86026165003 ; 0.0
4 ; 5973.358484804899 ; 14886.85980817008 ; 18731.729851319902 ; 68573.92814112804 ; 0.0
5 ; 6250.3014039870295 ; 14144.375205721022 ; 24705.0883361248 ; 83460.78794929812 ; 0.0
6 ; 6803.459638462306 ; 13506.479983746018 ; 30955.38974011183 ; 97605.16315501914 ; 0.0
7 ; 7240.460379619397 ; 12988.644769565288 ; 37758.84937857414 ; 111111.64313876515 ; 0.0
8 ; 7585.181537830106 ; 12605.715727220115 ; 44999.309758193536 ; 124100.28790833044 ; 0.0
9 ; 8185.392652416594 ; 12370.257719975283 ; 52584.49129602364 ; 136706.00363555056 ; 0.0
10 ; 8441.585255454856 ; 12290.767347260413 ; 60769.883948440234 ; 149076.26135552584 ; 0.0
11 ; 8850.622935197858 ; 12370.257719975283 ; 69211.46920389509 ; 161367.02870278625 ; 0.0
12 ; 9242.87313791487 ; 12605.715727220115 ; 78062.09213909294 ; 173737.28642276154 ; 0.0
13 ; 9752.968538349962 ; 12988.644769565288 ; 87304.96527700781 ; 186343.00214998165 ; 0.0
14 ; 10224.20908977724 ; 13506.479983745687 ; 97057.93381535777 ; 199331.64691954694 ; 0.0
15 ; 10359.538483236935 ; 14144.375205721022 ; 107282.14290513501 ; 212838.12690329264 ; 0.0
16 ; 10975.47655808664 ; 14886.85980817008 ; 117641.68138837194 ; 226982.50210901367 ; 0.0
17 ; 11307.168604924418 ; 15719.06787947773 ; 128617.15794645858 ; 241869.36191718376 ; 0.0
18 ; 11586.91419275465 ; 16627.474565838234 ; 139924.326551383 ; 257588.42979666148 ; 0.0
19 ; 11982.344281233245 ; 17600.221690953076 ; 151511.24074413767 ; 274215.9043624997 ; 0.0
20 ; 12378.091675975573 ; 18627.164004858725 ; 163493.5850253709 ; 291816.1260534528 ; 0.0
21 ; 12736.010626297753 ; 19699.75591553384 ; 175871.67670134647 ; 310443.2900583115 ; 0.0
22 ; 13038.497278294617 ; 20810.865089017454 ; 188607.68732764423 ; 330143.0459738453 ; 0.0
23 ; 13278.388351892641 ; 21954.566242856923 ; 201646.18460593885 ; 350953.9110628627 ; 0.0
24 ; 13832.055192670461 ; 23125.943826261144 ; 214924.5729578315 ; 372908.4773057196 ; 0.0
25 ; 14215.351888379353 ; 24320.916536580822 ; 228756.62815050196 ; 396034.4211319808 ; 0.0
26 ; 14404.82038648662 ; 25536.087623875137 ; 242971.9800388813 ; 420355.3376685616 ; 0.0
27 ; 14837.821074469992 ; 26768.62032219352 ; 257376.80042536792 ; 445891.42529243673 ; 0.0
28 ; 15144.502656406297 ; 28016.135711518637 ; 272214.6214998379 ; 472660.0456146303 ; 0.0
29 ; 15472.558787025086 ; 29276.629675708173 ; 287359.1241562442 ; 500676.1813261489 ; 0.0
30 ; 15770.17497998209 ; 30548.405673987083 ; 302831.6829432693 ; 529952.811001857 ; 0.0
31 ; 16222.906573728196 ; 31830.02039385918 ; 318601.8579232514 ; 560501.2166758442 ; 0.0
32 ; 16319.046935905162 ; 33120.239796716414 ; 334824.7644969796 ; 592331.2370697033 ; 0.0
33 ; 16530.398470999713 ; 34418.003505099245 ; 351143.8114328848 ; 625451.4768664197 ; 0.0
34 ; 16885.526837309553 ; 35722.39587068803 ; 367674.2099038845 ; 659869.4803715189 ; 0.0
35 ; 17278.95514487182 ; 37032.6223919379 ; 384559.73674119404 ; 695591.8762422069 ; 0.0
36 ; 17653.442026332632 ; 38347.990420778326 ; 401838.6918860659 ; 732624.4986341448 ; 0.0
37 ; 17720.29579771369 ; 39667.89331566742 ; 419492.1339123985 ; 770972.4890549231 ; 0.0
38 ; 17960.50310377811 ; 40991.79737184826 ; 437212.42971011216 ; 810640.3823705905 ; 0.0
39 ; 18133.58036515745 ; 42319.23099706235 ; 455172.9328138903 ; 851632.1797424387 ; 0.0
40 ; 18508.57445880071 ; 43649.77570940433 ; 473306.51317904773 ; 893951.410739501 ; 0.0
41 ; 18854.420863781474 ; 44983.05861947996 ; 491815.08763784845 ; 937601.1864489054 ; 0.0
42 ; 19038.944774818683 ; 46318.746126435544 ; 510669.5085016299 ; 982584.2450683854 ; 0.0
43 ; 19203.12901262845 ; 47656.538610664415 ; 529708.4532764487 ; 1028902.991194821 ; 0.0
44 ; 19392.853169575865 ; 48996.16594812223 ; 548911.5822890771 ; 1076559.5298054854 ; 0.0
45 ; 19603.414689555404 ; 50337.383704625005 ; 568304.435458653 ; 1125555.6957536077 ; 0.0
46 ; 19966.77163720156 ; 51679.96989511441 ; 587907.8501482084 ; 1175893.0794582327 ; 0.0
47 ; 19921.072536544118 ; 53023.72221413342 ; 607874.62178541 ; 1227573.0493533472 ; 0.0
48 ; 20297.101039356203 ; 54368.45566079189 ; 627795.6943219542 ; 1280596.7715674806 ; 0.0
49 ; 20529.793077289592 ; 55714.000495203974 ; 648092.7953613104 ; 1334965.2272282725 ; 0.0
50 ; 20581.223253834974 ; 57060.20047444085 ; 668622.5884386 ; 1390679.2277234765 ; 0.0
51 ; 20899.93010008486 ; 58406.91132500439 ; 689203.811692435 ; 1447739.4281979173 ; 0.0
52 ; 21128.474595220185 ; 59753.99941611711 ; 710103.7417925198 ; 1506146.3395229217 ; 0.0
53 ; 21294.286022983975 ; 61101.34060406942 ; 731232.21638774 ; 1565900.3389390388 ; 0.0
54 ; 21390.45013033005 ; 62448.81922273907 ; 752526.502410724 ; 1627001.6795431082 ; 0.0
55 ; 21505.091353577387 ; 63796.3271994008 ; 773916.952541054 ; 1689450.4987658472 ; 0.0
56 ; 21626.089767934285 ; 65143.76327824804 ; 795422.0438946313 ; 1753246.825965248 ; 0.0
57 ; 21947.10770550572 ; 66491.03233678128 ; 817048.1336625656 ; 1818390.589243496 ; 0.0
58 ; 22019.073717446794 ; 67838.04478248644 ; 838995.2413680713 ; 1884881.6215802773 ; 0.0
59 ; 22043.024880963025 ; 69184.71601912023 ; 861014.315085518 ; 1952719.6663627638 ; 0.0
60 ; 22096.409341528622 ; 70530.96597349572 ; 883057.3399664811 ; 2021904.3823818841 ; 0.0
61 ; 22432.149115270266 ; 71876.71867498789 ; 905153.7493080097 ; 2092435.34835538 ; 0.0
62 ; 22552.843345575096 ; 73221.90188109232 ; 927585.89842328 ; 2164312.067030368 ; 0.0
63 ; 22463.823885999645 ; 74566.44674330857 ; 950138.7417688551 ; 2237533.96891146 ; 0.0
64 ; 22786.570023444532 ; 75910.28750841336 ; 972602.5656548548 ; 2312100.4156547687 ; 0.0
65 ; 22917.549213010006 ; 77253.36125086258 ; 995389.1356782992 ; 2388010.703163182 ; 0.0
66 ; 22891.10152677042 ; 78595.60763263392 ; 1018306.6848913092 ; 2465264.0644140444 ; 0.0
67 ; 22927.75874875019 ; 79936.96868730767 ; 1041197.7864180796 ; 2543859.672046678 ; 0.0
68 ; 23120.787362098843 ; 81277.38862560327 ; 1064125.5451668298 ; 2623796.6407339857 ; 0.0
69 ; 23455.47399289 ; 82616.81365994396 ; 1087246.3325289288 ; 2705074.029359589 ; 0.0
70 ; 23282.451534362557 ; 83955.19184593028 ; 1110701.8065218187 ; 2787690.843019533 ; 0.0
71 ; 23288.941080493707 ; 85292.47293886605 ; 1133984.2580561813 ; 2871646.034865463 ; 0.0
72 ; 23604.345113969608 ; 86628.60826370938 ; 1157273.1991366749 ; 2956938.507804329 ; 0.0
73 ; 23545.629469794236 ; 87963.55059701788 ; 1180877.5442506445 ; 3043567.1160680386 ; 0.0
74 ; 23522.997469969792 ; 89297.25405962794 ; 1204423.1737204387 ; 3131530.6666650567 ; 0.0
75 ; 23507.024314374386 ; 90629.67401895586 ; 1227946.1711904085 ; 3220827.920724685 ; 0.0
76 ; 23781.20095614386 ; 91960.76699993935 ; 1251453.195504783 ; 3311457.5947436406 ; 0.0
77 ; 23707.6022363759 ; 93290.49060374721 ; 1275234.3964609269 ; 3403418.36174358 ; 0.0
78 ; 23630.90882027905 ; 94618.8034334878 ; 1298941.9986973028 ; 3496708.8523473274 ; 0.0
79 ; 23762.25711138076 ; 95945.66502622752 ; 1322572.9075175817 ; 3591327.655780815 ; 0.0
80 ; 23743.982534445357 ; 97271.03579071185 ; 1346335.1646289625 ; 3687273.3208070425 ; 0.0
81 ; 23812.705824544322 ; 98594.87695024205 ; 1370079.1471634079 ; 3784544.356597754 ; 0.0
82 ; 23561.695808341756 ; 99917.15049022362 ; 1393891.8529879523 ; 3883139.2335479963 ; 0.0
83 ; 23686.320405332386 ; 101237.81910995109 ; 1417453.548796294 ; 3983056.3840382197 ; 0.0
84 ; 23823.784125624443 ; 102556.84617824042 ; 1441139.8692016264 ; 4084294.203148171 ; 0.0
85 ; 23771.8269489032 ; 103874.19569255994 ; 1464963.6533272509 ; 4186851.0493264114 ; 0.0
86 ; 23738.386691914122 ; 105189.83224134672 ; 1488735.4802761541 ; 4290725.245018971 ; 0.0
87 ; 23734.584271754535 ; 106503.72096922631 ; 1512473.8669680683 ; 4395915.077260318 ; 0.0
88 ; 23717.701918197105 ; 107815.82754488215 ; 1536208.451239823 ; 4502418.798229544 ; 0.0
89 ; 23555.89935516087 ; 109126.11813134611 ; 1559926.15315802 ; 4610234.625774426 ; 0.0
90 ; 23456.626561773937 ; 110434.55935850319 ; 1583482.0525131808 ; 4719360.743905772 ; 0.0
91 ; 23620.956306334087 ; 111741.11829762366 ; 1606938.6790749547 ; 4829795.303264275 ; 0.0
92 ; 23668.356076624186 ; 113045.76243775402 ; 1630559.6353812888 ; 4941536.421561899 ; 0.0
93 ; 23245.82927872564 ; 114348.45966381309 ; 1654227.991457913 ; 5054582.183999653 ; 0.0
94 ; 23417.185833668955 ; 115649.17823625458 ; 1677473.8207366387 ; 5168930.643663466 ; 0.0
95 ; 23179.275245365247 ; 116947.88677216988 ; 1700891.0065703078 ; 5284579.8218997205 ; 0.0
96 ; 23292.278885024243 ; 118244.55422771619 ; 1724070.281815673 ; 5401527.70867189 ; 0.0
97 ; 23198.876865585284 ; 119539.14988176577 ; 1747362.5607006971 ; 5519772.2628996065 ; 0.0
98 ; 23180.75524866263 ; 120831.6433206808 ; 1770561.4375662825 ; 5639311.412781373 ; 0.0
99 ; 22845.54182061501 ; 122122.00442412724 ; 1793742.192814945 ; 5760143.056102053 ; 0.0
100 ; 22760.781139044997 ; 123410.20335184842 ; 1816587.73463556 ; 5882265.06052618 ; 0.0
101 ; 22670.39352138834 ; 124696.21053132591 ; 1839348.515774605 ; 6005675.263878029 ; 0.0
102 ; 22737.52792018597 ; 125979.99664626092 ; 1862018.9092959934 ; 6130371.474409355 ; 0.0
103 ; 22573.540336128826 ; 127261.53262581633 ; 1884756.4372161794 ; 6256351.471055616 ; 0.0
104 ; 22383.55256424288 ; 128540.78963456293 ; 1907329.9775523082 ; 6383613.003681432 ; 0.0
105 ; 22448.41337045285 ; 129817.73906307925 ; 1929713.530116551 ; 6512153.7933159955 ; 0.0
106 ; 22088.46400757474 ; 131092.35251915787 ; 1952161.943487004 ; 6641971.532379075 ; 0.0
107 ; 21971.14013229652 ; 132364.60181957536 ; 1974250.4074945787 ; 6773063.884898233 ; 0.0
108 ; 21768.406053723218 ; 133634.45898238578 ; 1996221.5476268753 ; 6905428.486717809 ; 0.0
109 ; 21740.192934737657 ; 134901.89621970156 ; 2017989.9536805986 ; 7039062.945700195 ; 0.0
110 ; 21558.12176770676 ; 136166.88593092829 ; 2039730.1466153362 ; 7173964.841919896 ; 0.0
111 ; 21389.844128216828 ; 137429.4006964216 ; 2061288.268383043 ; 7310131.727850825 ; 0.0
112 ; 21355.99772967897 ; 138689.41327153886 ; 2082678.1125112597 ; 7447561.128547247 ; 0.0
113 ; 21061.662131434594 ; 139946.89658105752 ; 2104034.1102409386 ; 7586250.5418187855 ; 0.0
114 ; 20868.369832758475 ; 141201.8237139373 ; 2125095.7723723734 ; 7726197.438399843 ; 0.0
115 ; 20613.52070954733 ; 142454.1679184024 ; 2145964.1422051317 ; 7867399.26211378 ; 0.0
116 ; 20496.8539605568 ; 143703.90259732373 ; 2166577.662914679 ; 8009853.4300321825 ; 0.0
117 ; 20177.063588347108 ; 144951.0013038807 ; 2187074.516875236 ; 8153557.3326295065 ; 0.0
118 ; 19990.42978972456 ; 146195.43773748586 ; 2207251.580463583 ; 8298508.333933387 ; 0.0
119 ; 19996.657237532756 ; 147437.18573995456 ; 2227242.010253308 ; 8444703.771670872 ; 0.0
120 ; 19603.242616013245 ; 148676.21929190474 ; 2247238.6674908404 ; 8592140.957410827 ; 0.0
121 ; 19288.26788498034 ; 149912.51250937246 ; 2266841.9101068536 ; 8740817.176702732 ; 0.0
122 ; 19181.40764606369 ; 151146.0396406297 ; 2286130.177991834 ; 8890729.689212104 ; 0.0
123 ; 18922.528861214774 ; 152376.77506319166 ; 2305311.5856378977 ; 9041875.728852734 ; 0.0
124 ; 18725.287150108175 ; 153604.69328100258 ; 2324234.1144991126 ; 9194252.503915926 ; 0.0
125 ; 18369.399237532107 ; 154829.76892178896 ; 2342959.401649221 ; 9347857.197196929 ; 0.0
126 ; 18249.081389869913 ; 156051.97673457005 ; 2361328.800886753 ; 9502686.966118718 ; 0.0
127 ; 17874.31997511148 ; 157271.2915873163 ; 2379577.882276623 ; 9658738.942853287 ; 0.0
128 ; 17623.40846401201 ; 158487.68846474728 ; 2397452.2022517347 ; 9816010.234440602 ; 0.0
129 ; 17378.346850421844 ; 159701.14246626047 ; 2415075.610715747 ; 9974497.92290535 ; 0.0
130 ; 17196.00996172621 ; 160911.6288039836 ; 2432453.9575661686 ; 1.013419906537161E7 ; 0.0
131 ; 16850.105288130795 ; 162119.12280094324 ; 2449649.967527895 ; 1.0295110694175594E7 ; 0.0
132 ; 16743.465968452016 ; 163323.59988934305 ; 2466500.0728160255 ; 1.0457229816976536E7 ; 0.0
133 ; 16199.04073531318 ; 164525.0356089456 ; 2483243.5387844774 ; 1.062055341686588E7 ; 0.0
134 ; 15942.131922499766 ; 165723.40560555126 ; 2499442.5795197906 ; 1.0785078452474825E7 ; 0.0
135 ; 15768.316547841112 ; 166918.68562956987 ; 2515384.7114422903 ; 1.0950801858080376E7 ; 0.0
136 ; 15304.288247136717 ; 168110.85153467863 ; 2531153.0279901316 ; 1.1117720543709945E7 ; 0.0
137 ; 14932.87770839634 ; 169299.87927656257 ; 2546457.3162372685 ; 1.1285831395244624E7 ; 0.0
138 ; 14584.20455890561 ; 170485.7449117325 ; 2561390.193945665 ; 1.1455131274521187E7 ; 0.0
139 ; 14388.564660331984 ; 171668.42459641633 ; 2575974.3985045706 ; 1.162561701943292E7 ; 0.0
140 ; 13970.104910334087 ; 172847.89458551962 ; 2590362.9631649028 ; 1.1797285444029335E7 ; 0.0
141 ; 13761.112135365735 ; 174024.13123165214 ; 2604333.068075237 ; 1.1970133338614855E7 ; 0.0
142 ; 13400.493276949193 ; 175197.110984216 ; 2618094.1802106025 ; 1.2144157469846508E7 ; 0.0
143 ; 13018.956493767157 ; 176366.81038855325 ; 2631494.6734875515 ; 1.2319354580830723E7 ; 0.0
144 ; 12618.384856509656 ; 177533.20608514847 ; 2644513.6299813185 ; 1.2495721391219277E7 ; 0.0
145 ; 12662.48305817011 ; 178696.2748088848 ; 2657132.014837828 ; 1.2673254597304426E7 ; 0.0
146 ; 12475.225267247379 ; 179855.99338834928 ; 2669794.497895998 ; 1.2851950872113312E7 ; 0.0
147 ; 12340.504698041117 ; 181012.3387451863 ; 2682269.7231632452 ; 1.303180686550166E7 ; 0.0
148 ; 12285.535170682135 ; 182165.2878934954 ; 2694610.227861286 ; 1.3212819204246847E7 ; 0.0
149 ; 12020.444959518354 ; 183314.81793927212 ; 2706895.7630319684 ; 1.3394984492140342E7 ; 0.0
150 ; 12181.188280280177 ; 184460.90607988887 ; 2718916.207991487 ; 1.3578299310079614E7 ; 0.0
151 ; 11895.38575656614 ; 185603.52960361473 ; 2731097.396271767 ; 1.3762760216159502E7 ; 0.0
152 ; 11915.50029932995 ; 186742.66588917107 ; 2742992.7820283333 ; 1.3948363745763117E7 ; 0.0
153 ; 11698.757375469868 ; 187878.2924053224 ; 2754908.282327663 ; 1.413510641165229E7 ; 0.0
154 ; 11464.459608634204 ; 189010.38671049938 ; 2766607.039703133 ; 1.4322984704057612E7 ; 0.0
155 ; 11460.36976752096 ; 190138.92645245386 ; 2778071.499311767 ; 1.451199509076811E7 ; 0.0
156 ; 11350.33944477104 ; 191263.88936794284 ; 2789531.869079288 ; 1.4702134017220564E7 ; 0.0
157 ; 11331.247631584414 ; 192385.25328244106 ; 2800882.208524059 ; 1.4893397906588508E7 ; 0.0
158 ; 10926.225290523576 ; 193502.99610988013 ; 2812213.4561556433 ; 1.5085783159870949E7 ; 0.0
159 ; 11015.078385254368 ; 194617.09585241348 ; 2823139.6814461667 ; 1.527928615598083E7 ; 0.0
160 ; 10826.77490045452 ; 195727.53060020518 ; 2834154.759831421 ; 1.5473903251833243E7 ; 0.0
161 ; 10720.476250698286 ; 196834.278531242 ; 2844981.5347318756 ; 1.5669630782433448E7 ; 0.0
162 ; 10594.606032079253 ; 197937.31791116725 ; 2855702.010982574 ; 1.586646506096469E7 ; 0.0
163 ; 10284.210948626216 ; 199036.62709313584 ; 2866296.617014653 ; 1.6064402378875857E7 ; 0.0
164 ; 10137.147041086177 ; 200132.18451768858 ; 2876580.827963279 ; 1.6263439005968994E7 ; 0.0
165 ; 10223.786596095288 ; 201223.96871264593 ; 2886717.975004365 ; 1.6463571190486683E7 ; 0.0
166 ; 10034.153354669936 ; 202311.95829301956 ; 2896941.7616004604 ; 1.666479515919933E7 ; 0.0
167 ; 9897.78424397825 ; 203396.13196094075 ; 2906975.9149551303 ; 1.6867107117492348E7 ; 0.0
168 ; 9693.392117287342 ; 204476.46850560556 ; 2916873.6991991084 ; 1.7070503249453288E7 ; 0.0
169 ; 9539.080865975036 ; 205552.9468032351 ; 2926567.091316396 ; 1.7274979717958894E7 ; 0.0
170 ; 9449.613720592817 ; 206625.54581705076 ; 2936106.172182371 ; 1.748053266476213E7 ; 0.0
171 ; 9150.710296110443 ; 207694.24459726355 ; 2945555.785902964 ; 1.768715821057918E7 ; 0.0
172 ; 8934.459157486064 ; 208759.02228107673 ; 2954706.496199074 ; 1.7894852455176443E7 ; 0.0
173 ; 9079.359534155048 ; 209819.85809270106 ; 2963640.95535656 ; 1.810361147745752E7 ; 0.0
174 ; 9072.487824329508 ; 210876.73134338268 ; 2972720.3148907153 ; 1.831343133555022E7 ; 0.0
175 ; 9210.0412233718 ; 211929.62143144195 ; 2981792.802715045 ; 1.85243080668936E7 ; 0.0
176 ; 9048.508576641842 ; 212978.5078423236 ; 2991002.843938417 ; 1.873623768832504E7 ; 0.0
177 ; 9112.783105117487 ; 214023.3701486575 ; 3000051.3525150586 ; 1.8949216196167365E7 ; 0.0
178 ; 9334.056190227297 ; 215064.1880103291 ; 3009164.135620176 ; 1.9163239566316023E7 ; 0.0
179 ; 9125.17639355607 ; 216100.94117455962 ; 3018498.191810403 ; 1.937830375432635E7 ; 0.0
180 ; 9277.989665921508 ; 217133.60947599524 ; 3027623.368203959 ; 1.959440469550091E7 ; 0.0
181 ; 9262.219067544496 ; 218162.17283680465 ; 3036901.3578698803 ; 1.9811538304976907E7 ; 0.0
182 ; 9267.266705817645 ; 219186.6112667853 ; 3046163.576937425 ; 2.002970047781371E7 ; 0.0
183 ; 9214.36299671456 ; 220206.9048634769 ; 3055430.8436432425 ; 2.0248887089080494E7 ; 0.0
184 ; 9444.982980715029 ; 221223.03381228267 ; 3064645.206639957 ; 2.046909399394397E7 ; 0.0
185 ; 9370.680340682797 ; 222234.9783865978 ; 3074090.1896206723 ; 2.0690317027756255E7 ; 0.0
186 ; 9441.628759340349 ; 223242.71894794406 ; 3083460.869961355 ; 2.0912552006142855E7 ; 0.0
187 ; 9478.789290677887 ; 224246.2359461113 ; 3092902.4987206953 ; 2.1135794725090798E7 ; 0.0
188 ; 9717.903070940582 ; 225245.50991930487 ; 3102381.288011373 ; 2.136004096103691E7 ; 0.0
189 ; 9480.262209686132 ; 226240.5214942987 ; 3112099.1910823137 ; 2.1585286470956214E7 ; 0.0
190 ; 9357.35138701606 ; 227231.25138659411 ; 3121579.4532919996 ; 2.1811526992450513E7 ; 0.0
191 ; 9681.411238223522 ; 228217.68040058337 ; 3130936.8046790157 ; 2.2038758243837107E7 ; 0.0
192 ; 9514.925954493954 ; 229199.78942971872 ; 3140618.215917239 ; 2.226697592423769E7 ; 0.0
193 ; 9725.325725130579 ; 230177.5594566856 ; 3150133.141871733 ; 2.249617571366741E7 ; 0.0
194 ; 9531.026015947406 ; 231150.97155358075 ; 3159858.467596864 ; 2.27263532731241E7 ; 0.0
195 ; 9653.613666328385 ; 232120.0068820942 ; 3169389.4936128114 ; 2.2957504244677678E7 ; 0.0
196 ; 9746.411864223071 ; 233084.6466936951 ; 3179043.10727914 ; 2.318962425155977E7 ; 0.0
197 ; 9794.64790354175 ; 234044.87232982207 ; 3188789.519143363 ; 2.3422708898253467E7 ; 0.0
198 ; 9722.836005862648 ; 235000.66522207597 ; 3198584.1670469046 ; 2.365675377058329E7 ; 0.0
199 ; 9796.803848144778 ; 235952.00689241706 ; 3208307.0030527674 ; 2.3891754435805365E7 ; 0.0
200 ; 9823.067238491838 ; 236898.87895336494 ; 3218103.806900912 ; 2.4127706442697782E7 ; 0.0
201 ; 9867.040165031181 ; 237841.2631082012 ; 3227926.874139404 ; 2.4364605321651146E7 ; 0.0
202 ; 9863.770153412306 ; 238779.14115117528 ; 3237793.9143044353 ; 2.4602446584759347E7 ; 0.0
203 ; 10050.711673417429 ; 239712.49496771302 ; 3247657.6844578474 ; 2.4841225725910522E7 ; 0.0
204 ; 9890.310608101747 ; 240641.30653462713 ; 3257708.396131265 ; 2.5080938220878236E7 ; 0.0
205 ; 9996.447365238153 ; 241565.55792033093 ; 3267598.7067393665 ; 2.532157952741286E7 ; 0.0
206 ; 9959.429770535387 ; 242485.23128505345 ; 3277595.154104605 ; 2.556314508533319E7 ; 0.0
207 ; 10039.347385645231 ; 243400.30888105676 ; 3287554.58387514 ; 2.5805630316618245E7 ; 0.0
208 ; 9958.062912388768 ; 244310.77305285574 ; 3297593.9312607856 ; 2.60490306254993E7 ; 0.0
209 ; 10139.696850420865 ; 245216.60623743883 ; 3307551.9941731743 ; 2.6293341398552157E7 ; 0.0
210 ; 10103.459490542353 ; 246117.79096449105 ; 3317691.691023595 ; 2.6538558004789595E7 ; 0.0
211 ; 10156.918787618974 ; 247014.30985661835 ; 3327795.1505141375 ; 2.6784675795754086E7 ; 0.0
212 ; 10172.097953839457 ; 247906.1456295732 ; 3337952.0693017566 ; 2.7031690105610706E7 ; 0.0
213 ; 10170.7377827451 ; 248793.28109248175 ; 3348124.167255596 ; 2.727959625124028E7 ; 0.0
