CSV File for the City 1 on Day 138
1 - Minute m 
2 - Power Consumed at minute m 
3 - Power Produced at minute m 
4 - Energy Consumed since the beginning of the day 
5 - Energy Produced since the beginning of the day 
6 - Energy Lost since the beginning of the day on lines starting from the city
 
0 ; 9758.059774778681 ; 11005.607439371623 ; 0.0 ; 0.0 ; 0.0
1 ; 10298.264390431508 ; 11005.607439371623 ; 9758.059774778681 ; 11005.607439371623 ; 238.00000000000003
2 ; 10731.70028121142 ; 11005.607439371623 ; 20056.32416521019 ; 22011.214878743245 ; 476.00000000000006
3 ; 11244.703889197524 ; 11005.607439371623 ; 30788.02444642161 ; 33016.822318114864 ; 714.0000000000001
4 ; 11570.092416391717 ; 11005.607439371623 ; 42032.72833561913 ; 44022.42975748649 ; 952.0000000000001
5 ; 12141.635288893733 ; 11005.607439371623 ; 53602.82075201085 ; 55028.03719685812 ; 1190.0000000000002
6 ; 12303.514393152465 ; 11005.607439371623 ; 65744.45604090458 ; 66033.64463622974 ; 1428.0000000000002
7 ; 12817.064342743994 ; 11005.607439371623 ; 78047.97043405705 ; 77039.25207560137 ; 1666.0000000000002
8 ; 13305.835644020777 ; 11005.607439371623 ; 90865.03477680104 ; 88044.859514973 ; 1904.0000000000002
9 ; 13455.39472218706 ; 11005.607439371623 ; 104170.87042082181 ; 99050.46695434462 ; 2142.0000000000005
10 ; 13913.441241828397 ; 11005.607439371623 ; 117626.26514300887 ; 110056.07439371625 ; 2380.0000000000005
11 ; 14411.690081439618 ; 11005.607439371623 ; 131539.70638483728 ; 121061.68183308787 ; 2618.0000000000005
12 ; 14732.900224011786 ; 11005.607439371623 ; 145951.3964662769 ; 132067.2892724595 ; 2856.0000000000005
13 ; 15069.05678737374 ; 11005.607439371623 ; 160684.2966902887 ; 143072.8967118311 ; 3094.0000000000005
14 ; 15424.784914636237 ; 11005.607439371623 ; 175753.35347766243 ; 154078.5041512027 ; 3332.0000000000005
15 ; 15866.520276679072 ; 11005.607439371623 ; 191178.13839229866 ; 165084.11159057432 ; 3570.0000000000005
16 ; 16179.492265811907 ; 11005.607439371623 ; 207044.65866897773 ; 176089.71902994593 ; 3808.0000000000005
17 ; 16379.703657939297 ; 11005.607439371623 ; 223224.15093478965 ; 187095.32646931754 ; 4046.0000000000005
18 ; 16754.71940525546 ; 11005.607439371623 ; 239603.85459272895 ; 198100.93390868916 ; 4284.000000000001
19 ; 17152.8515037755 ; 11005.607439371623 ; 256358.5739979844 ; 209106.54134806077 ; 4522.000000000001
20 ; 17442.57711744736 ; 11005.607439371623 ; 273511.4255017599 ; 220112.14878743238 ; 4760.000000000001
21 ; 17783.859443671365 ; 11005.607439371623 ; 290954.00261920725 ; 231117.756226804 ; 4998.000000000001
22 ; 18331.79771251941 ; 11005.607439371623 ; 308737.8620628786 ; 242123.3636661756 ; 5236.000000000001
23 ; 18488.401338167187 ; 11005.607439371623 ; 327069.65977539803 ; 253128.9711055472 ; 5474.000000000001
24 ; 18445.42815122431 ; 11005.607439371623 ; 345558.0611135652 ; 264134.57854491886 ; 5712.000000000001
25 ; 19188.826574078274 ; 11005.607439371623 ; 364003.48926478956 ; 275140.1859842905 ; 5950.000000000001
26 ; 19265.023709729485 ; 11005.607439371623 ; 383192.31583886786 ; 286145.79342366214 ; 6188.000000000001
27 ; 19720.600185968175 ; 11005.607439371623 ; 402457.33954859735 ; 297151.4008630338 ; 6426.000000000001
28 ; 19916.55670865962 ; 11005.607439371623 ; 422177.9397345655 ; 308157.0083024054 ; 6664.000000000001
29 ; 20173.127406374057 ; 11005.607439371623 ; 442094.4964432251 ; 319162.61574177706 ; 6902.000000000001
30 ; 20421.76716459678 ; 11005.607439371623 ; 462267.62384959916 ; 330168.2231811487 ; 7140.000000000001
31 ; 20646.598324090864 ; 11005.607439371623 ; 482689.3910141959 ; 341173.83062052034 ; 7378.000000000001
32 ; 21013.018574620022 ; 11005.607439371623 ; 503335.9893382868 ; 352179.438059892 ; 7616.000000000001
33 ; 21173.235468207982 ; 11005.607439371623 ; 524349.0079129068 ; 363185.0454992636 ; 7854.000000000001
34 ; 21484.009158159202 ; 11005.607439371623 ; 545522.2433811148 ; 374190.65293863526 ; 8092.000000000001
35 ; 21602.79739691419 ; 11005.607439371623 ; 567006.252539274 ; 385196.2603780069 ; 8330.000000000002
36 ; 22014.159649539997 ; 11005.607439371623 ; 588609.0499361883 ; 396201.86781737854 ; 8568.000000000002
37 ; 22199.29095723089 ; 11005.607439371623 ; 610623.2095857282 ; 407207.4752567502 ; 8806.000000000002
38 ; 22462.320988722724 ; 11005.607439371623 ; 632822.5005429591 ; 418213.0826961218 ; 9044.000000000002
39 ; 22760.624725252525 ; 11005.607439371623 ; 655284.8215316818 ; 429218.69013549347 ; 9282.000000000002
40 ; 22742.214672989256 ; 11005.607439371623 ; 678045.4462569343 ; 440224.2975748651 ; 9520.000000000002
41 ; 23096.58316262864 ; 11005.607439371623 ; 700787.6609299235 ; 451229.90501423675 ; 9758.000000000002
42 ; 23145.943276285016 ; 11005.607439371623 ; 723884.2440925522 ; 462235.5124536084 ; 9996.000000000002
43 ; 23522.24398106416 ; 11005.607439371623 ; 747030.1873688372 ; 473241.11989298003 ; 10234.000000000002
44 ; 23746.80799448467 ; 11005.607439371623 ; 770552.4313499014 ; 484246.7273323517 ; 10472.000000000002
45 ; 23876.001511316517 ; 11005.607439371623 ; 794299.239344386 ; 495252.3347717233 ; 10710.000000000002
46 ; 24025.638288161303 ; 11005.607439371623 ; 818175.2408557025 ; 506257.94221109495 ; 10948.000000000002
47 ; 24146.70325847161 ; 11005.607439371623 ; 842200.8791438638 ; 517263.5496504666 ; 11186.000000000002
48 ; 24408.32378489378 ; 11005.607439371623 ; 866347.5824023354 ; 528269.1570898382 ; 11424.000000000002
49 ; 24492.518518213303 ; 11005.607439371623 ; 890755.9061872291 ; 539274.7645292098 ; 11662.000000000002
50 ; 24854.842527925055 ; 11005.607439371623 ; 915248.4247054424 ; 550280.3719685815 ; 11900.000000000002
51 ; 24806.90593950051 ; 11005.607439371623 ; 940103.2672333674 ; 561285.9794079531 ; 12138.000000000002
52 ; 24785.56395416155 ; 11005.607439371623 ; 964910.173172868 ; 572291.5868473247 ; 12376.000000000002
53 ; 25306.706692316253 ; 11005.607439371623 ; 989695.7371270296 ; 583297.1942866964 ; 12614.000000000002
54 ; 25519.88428101826 ; 11005.607439371623 ; 1015002.4438193458 ; 594302.801726068 ; 12852.000000000002
55 ; 25572.643044718756 ; 11005.607439371623 ; 1040522.3281003641 ; 605308.4091654397 ; 13090.000000000002
56 ; 25568.899159567154 ; 11005.607439371623 ; 1066094.9711450827 ; 616314.0166048113 ; 13328.000000000002
57 ; 25798.936647822975 ; 11005.607439371623 ; 1091663.87030465 ; 627319.624044183 ; 13566.000000000002
58 ; 25885.062303795556 ; 11005.607439371623 ; 1117462.806952473 ; 638325.2314835546 ; 13804.000000000002
59 ; 25938.370441169955 ; 11005.607439371623 ; 1143347.8692562685 ; 649330.8389229262 ; 14042.000000000002
60 ; 26093.00310177702 ; 11005.607439371623 ; 1169286.2396974384 ; 660336.4463622979 ; 14280.000000000002
61 ; 26234.80422015621 ; 11005.607439371623 ; 1195379.2427992155 ; 671342.0538016695 ; 14518.000000000002
62 ; 26237.923185485186 ; 11005.607439371623 ; 1221614.0470193718 ; 682347.6612410411 ; 14756.000000000002
63 ; 26384.22128671365 ; 11005.607439371623 ; 1247851.970204857 ; 693353.2686804128 ; 14994.000000000002
64 ; 26581.958043165374 ; 11005.607439371623 ; 1274236.1914915706 ; 704358.8761197844 ; 15232.000000000002
65 ; 26464.547759983932 ; 11005.607439371623 ; 1300818.1495347358 ; 715364.4835591561 ; 15470.000000000002
66 ; 26634.42855600917 ; 11005.607439371623 ; 1327282.6972947198 ; 726370.0909985277 ; 15708.000000000002
67 ; 26769.863542922598 ; 11005.607439371623 ; 1353917.125850729 ; 737375.6984378994 ; 15946.000000000002
68 ; 26897.529183614475 ; 11005.607439371623 ; 1380686.9893936515 ; 748381.305877271 ; 16184.000000000002
69 ; 27061.24193716319 ; 11005.607439371623 ; 1407584.518577266 ; 759386.9133166426 ; 16422.000000000004
70 ; 27095.86965587917 ; 11005.607439371623 ; 1434645.7605144293 ; 770392.5207560143 ; 16660.000000000004
71 ; 26995.244055877803 ; 11005.607439371623 ; 1461741.6301703085 ; 781398.1281953859 ; 16898.000000000004
72 ; 26991.728251819986 ; 11005.607439371623 ; 1488736.8742261864 ; 792403.7356347576 ; 17136.000000000004
73 ; 27246.39306560447 ; 11005.607439371623 ; 1515728.6024780064 ; 803409.3430741292 ; 17374.000000000004
74 ; 27031.865457549608 ; 11005.607439371623 ; 1542974.9955436108 ; 814414.9505135008 ; 17612.000000000004
75 ; 27145.50521242361 ; 11005.607439371623 ; 1570006.8610011605 ; 825420.5579528725 ; 17850.000000000004
76 ; 27297.4215475021 ; 11005.607439371623 ; 1597152.366213584 ; 836426.1653922441 ; 18088.000000000004
77 ; 27131.21107526021 ; 11005.607439371623 ; 1624449.7877610861 ; 847431.7728316158 ; 18326.000000000004
78 ; 27107.57172557057 ; 11005.607439371623 ; 1651580.9988363464 ; 858437.3802709874 ; 18564.000000000004
79 ; 27354.41695248105 ; 11005.607439371623 ; 1678688.570561917 ; 869442.987710359 ; 18802.000000000004
80 ; 27099.185109516722 ; 11005.607439371623 ; 1706042.987514398 ; 880448.5951497307 ; 19040.000000000004
81 ; 27242.796579512356 ; 11005.607439371623 ; 1733142.1726239147 ; 891454.2025891023 ; 19278.000000000004
82 ; 27222.83212671802 ; 11005.607439371623 ; 1760384.969203427 ; 902459.810028474 ; 19516.000000000004
83 ; 27164.53622647509 ; 11005.607439371623 ; 1787607.801330145 ; 913465.4174678456 ; 19754.000000000004
84 ; 27153.369596848373 ; 11005.607439371623 ; 1814772.3375566201 ; 924471.0249072172 ; 19992.000000000004
85 ; 27189.256855767937 ; 11005.607439371623 ; 1841925.7071534684 ; 935476.6323465889 ; 20230.000000000004
86 ; 27054.918502743898 ; 11005.607439371623 ; 1869114.9640092363 ; 946482.2397859605 ; 20468.000000000004
87 ; 27177.987606805014 ; 11005.607439371623 ; 1896169.8825119801 ; 957487.8472253322 ; 20706.000000000004
88 ; 27130.90978805946 ; 11005.607439371623 ; 1923347.8701187852 ; 968493.4546647038 ; 20944.000000000004
89 ; 27129.852602179406 ; 11005.607439371623 ; 1950478.7799068447 ; 979499.0621040754 ; 21182.000000000004
90 ; 27139.736220331106 ; 11005.607439371623 ; 1977608.632509024 ; 990504.6695434471 ; 21420.000000000004
91 ; 26875.20793050555 ; 11005.607439371623 ; 2004748.3687293553 ; 1001510.2769828187 ; 21658.000000000004
92 ; 26969.737157286803 ; 11005.607439371623 ; 2031623.5766598608 ; 1012515.8844221904 ; 21896.000000000004
93 ; 26743.94200136123 ; 11005.607439371623 ; 2058593.3138171476 ; 1023521.491861562 ; 22134.000000000004
94 ; 26779.62093819848 ; 11005.607439371623 ; 2085337.2558185088 ; 1034527.0993009337 ; 22372.000000000004
95 ; 26643.12842775266 ; 11005.607439371623 ; 2112116.876756707 ; 1045532.7067403053 ; 22610.000000000004
96 ; 26660.343399964568 ; 11005.607439371623 ; 2138760.00518446 ; 1056538.3141796768 ; 22848.000000000004
97 ; 26541.18742411881 ; 11005.607439371623 ; 2165420.3485844247 ; 1067543.9216190483 ; 23086.000000000004
98 ; 26328.50476436412 ; 11005.607439371623 ; 2191961.5360085433 ; 1078549.5290584199 ; 23324.000000000004
99 ; 26297.825031090175 ; 11005.607439371623 ; 2218290.0407729074 ; 1089555.1364977914 ; 23562.000000000004
100 ; 26155.380100719936 ; 11005.607439371623 ; 2244587.8658039975 ; 1100560.743937163 ; 23800.000000000004
101 ; 26003.93672293393 ; 11005.607439371623 ; 2270743.2459047176 ; 1111566.3513765344 ; 24038.000000000004
102 ; 25908.101953723803 ; 11005.607439371623 ; 2296747.1826276514 ; 1122571.958815906 ; 24276.000000000004
103 ; 25862.92489724757 ; 11005.607439371623 ; 2322655.2845813753 ; 1133577.5662552775 ; 24514.000000000004
104 ; 25527.67488869757 ; 11005.607439371623 ; 2348518.209478623 ; 1144583.173694649 ; 24752.000000000004
105 ; 25511.20086505317 ; 11005.607439371623 ; 2374045.88436732 ; 1155588.7811340205 ; 24990.000000000004
106 ; 25421.77965060693 ; 11005.607439371623 ; 2399557.0852323733 ; 1166594.388573392 ; 25228.000000000004
107 ; 25316.644475830828 ; 11005.607439371623 ; 2424978.8648829805 ; 1177599.9960127636 ; 25466.000000000004
108 ; 25272.416987914214 ; 11005.607439371623 ; 2450295.509358811 ; 1188605.603452135 ; 25704.000000000004
109 ; 24987.008809164086 ; 11005.607439371623 ; 2475567.9263467253 ; 1199611.2108915066 ; 25942.000000000004
110 ; 24753.907688584186 ; 11005.607439371623 ; 2500554.9351558895 ; 1210616.8183308782 ; 26180.000000000004
111 ; 24673.922865703862 ; 11005.607439371623 ; 2525308.8428444737 ; 1221622.4257702497 ; 26418.000000000004
112 ; 24476.381266166958 ; 11005.607439371623 ; 2549982.7657101774 ; 1232628.0332096212 ; 26656.000000000004
113 ; 24320.832310772603 ; 11005.607439371623 ; 2574459.1469763443 ; 1243633.6406489927 ; 26894.000000000004
114 ; 24176.357974016384 ; 11005.607439371623 ; 2598779.979287117 ; 1254639.2480883643 ; 27132.000000000004
115 ; 24186.247803747683 ; 11005.607439371623 ; 2622956.3372611334 ; 1265644.8555277358 ; 27370.000000000004
116 ; 23916.586918447592 ; 11005.607439371623 ; 2647142.585064881 ; 1276650.4629671073 ; 27608.000000000004
117 ; 23662.258907614018 ; 11005.607439371623 ; 2671059.1719833286 ; 1287656.0704064788 ; 27846.000000000004
118 ; 23362.727103475183 ; 11005.607439371623 ; 2694721.4308909425 ; 1298661.6778458504 ; 28084.000000000004
119 ; 23298.35684108101 ; 11005.607439371623 ; 2718084.1579944175 ; 1309667.2852852219 ; 28322.000000000004
120 ; 23176.345789736202 ; 11005.607439371623 ; 2741382.5148354983 ; 1320672.8927245934 ; 28560.000000000004
121 ; 22990.17992531276 ; 11005.607439371623 ; 2764558.8606252344 ; 1331678.500163965 ; 28798.000000000004
122 ; 22637.558628534425 ; 11005.607439371623 ; 2787549.040550547 ; 1342684.1076033365 ; 29036.000000000004
123 ; 22457.647232281546 ; 11005.607439371623 ; 2810186.5991790816 ; 1353689.715042708 ; 29274.000000000004
124 ; 22152.591110116828 ; 11005.607439371623 ; 2832644.246411363 ; 1364695.3224820795 ; 29512.000000000004
125 ; 21796.08633084067 ; 11005.607439371623 ; 2854796.83752148 ; 1375700.929921451 ; 29750.000000000004
126 ; 21554.121750345184 ; 11005.607439371623 ; 2876592.9238523208 ; 1386706.5373608225 ; 29988.000000000004
127 ; 21534.634893684928 ; 11005.607439371623 ; 2898147.0456026657 ; 1397712.144800194 ; 30226.000000000004
128 ; 21120.771936797402 ; 11005.607439371623 ; 2919681.680496351 ; 1408717.7522395656 ; 30464.000000000004
129 ; 20930.441359879307 ; 11005.607439371623 ; 2940802.4524331484 ; 1419723.3596789371 ; 30702.000000000004
130 ; 20519.665973885196 ; 11005.607439371623 ; 2961732.893793028 ; 1430728.9671183086 ; 30940.000000000004
131 ; 20312.358378400848 ; 11005.607439371623 ; 2982252.559766913 ; 1441734.5745576802 ; 31178.000000000004
132 ; 19932.49872479597 ; 11005.607439371623 ; 3002564.918145314 ; 1452740.1819970517 ; 31416.000000000004
133 ; 19949.505333556637 ; 11005.607439371623 ; 3022497.4168701097 ; 1463745.7894364232 ; 31654.000000000004
134 ; 19593.491452237955 ; 11005.607439371623 ; 3042446.9222036665 ; 1474751.3968757947 ; 31892.000000000004
135 ; 19282.653427663467 ; 11005.607439371623 ; 3062040.4136559046 ; 1485757.0043151663 ; 32130.000000000004
136 ; 19079.240817835776 ; 11005.607439371623 ; 3081323.067083568 ; 1496762.6117545378 ; 32368.000000000004
137 ; 18671.03552943083 ; 11005.607439371623 ; 3100402.3079014034 ; 1507768.2191939093 ; 32606.000000000004
138 ; 18345.178715267833 ; 11005.607439371623 ; 3119073.3434308344 ; 1518773.8266332808 ; 32844.00000000001
139 ; 17930.3913989032 ; 11005.607439371623 ; 3137418.522146102 ; 1529779.4340726524 ; 33082.00000000001
140 ; 17642.067240964203 ; 11005.607439371623 ; 3155348.913545005 ; 1540785.041512024 ; 33320.00000000001
141 ; 17670.028687464397 ; 11005.607439371623 ; 3172990.980785969 ; 1551790.6489513954 ; 33558.00000000001
142 ; 17125.388626661083 ; 11005.607439371623 ; 3190661.0094734337 ; 1562796.256390767 ; 33796.00000000001
143 ; 16703.4431996159 ; 11005.607439371623 ; 3207786.398100095 ; 1573801.8638301385 ; 34034.00000000001
144 ; 16477.750790869082 ; 11005.607439371623 ; 3224489.841299711 ; 1584807.47126951 ; 34272.00000000001
145 ; 16478.6058319749 ; 11005.607439371623 ; 3240967.5920905797 ; 1595813.0787088815 ; 34510.00000000001
146 ; 16314.225212358886 ; 11005.607439371623 ; 3257446.197922555 ; 1606818.686148253 ; 34748.00000000001
147 ; 16143.495717124462 ; 11005.607439371623 ; 3273760.4231349137 ; 1617824.2935876246 ; 34986.00000000001
148 ; 16069.341964087866 ; 11005.607439371623 ; 3289903.918852038 ; 1628829.901026996 ; 35224.00000000001
149 ; 16083.62134755335 ; 11005.607439371623 ; 3305973.260816126 ; 1639835.5084663676 ; 35462.00000000001
150 ; 15948.333365927625 ; 11005.607439371623 ; 3322056.8821636797 ; 1650841.1159057391 ; 35700.00000000001
151 ; 15725.367299468735 ; 11005.607439371623 ; 3338005.215529607 ; 1661846.7233451107 ; 35938.00000000001
152 ; 15712.78431326376 ; 11005.607439371623 ; 3353730.582829076 ; 1672852.3307844822 ; 36176.00000000001
153 ; 15498.05287753983 ; 11005.607439371623 ; 3369443.3671423397 ; 1683857.9382238537 ; 36414.00000000001
154 ; 15423.27446680153 ; 11005.607439371623 ; 3384941.4200198795 ; 1694863.5456632252 ; 36652.00000000001
155 ; 15258.494921860276 ; 11005.607439371623 ; 3400364.694486681 ; 1705869.1531025968 ; 36890.00000000001
156 ; 15155.771189830812 ; 11005.607439371623 ; 3415623.189408541 ; 1716874.7605419683 ; 37128.00000000001
157 ; 15159.507017243164 ; 11005.607439371623 ; 3430778.960598372 ; 1727880.3679813398 ; 37366.00000000001
158 ; 14906.235476786605 ; 11005.607439371623 ; 3445938.467615615 ; 1738885.9754207113 ; 37604.00000000001
159 ; 14747.079600875008 ; 11005.607439371623 ; 3460844.703092402 ; 1749891.5828600829 ; 37842.00000000001
160 ; 14703.336286005911 ; 11005.607439371623 ; 3475591.7826932766 ; 1760897.1902994544 ; 38080.00000000001
161 ; 14413.274146849533 ; 11005.607439371623 ; 3490295.1189792827 ; 1771902.797738826 ; 38318.00000000001
162 ; 14325.664242290859 ; 11005.607439371623 ; 3504708.3931261324 ; 1782908.4051781974 ; 38556.00000000001
163 ; 14219.529707627182 ; 11005.607439371623 ; 3519034.0573684233 ; 1793914.012617569 ; 38794.00000000001
164 ; 14317.3211401633 ; 11005.607439371623 ; 3533253.5870760507 ; 1804919.6200569405 ; 39032.00000000001
165 ; 14186.92973609317 ; 11005.607439371623 ; 3547570.908216214 ; 1815925.227496312 ; 39270.00000000001
166 ; 13792.241329458202 ; 11005.607439371623 ; 3561757.837952307 ; 1826930.8349356835 ; 39508.00000000001
167 ; 13689.055289305841 ; 11005.607439371623 ; 3575550.079281765 ; 1837936.442375055 ; 39746.00000000001
168 ; 13471.526610304789 ; 11005.607439371623 ; 3589239.134571071 ; 1848942.0498144266 ; 39984.00000000001
169 ; 13408.291239139573 ; 11005.607439371623 ; 3602710.6611813754 ; 1859947.657253798 ; 40222.00000000001
170 ; 13544.14700729699 ; 11005.607439371623 ; 3616118.952420515 ; 1870953.2646931696 ; 40460.00000000001
171 ; 13154.434721742866 ; 11005.607439371623 ; 3629663.099427812 ; 1881958.8721325411 ; 40698.00000000001
172 ; 13069.978754423537 ; 11005.607439371623 ; 3642817.5341495546 ; 1892964.4795719127 ; 40936.00000000001
173 ; 12833.066754237016 ; 11005.607439371623 ; 3655887.512903978 ; 1903970.0870112842 ; 41174.00000000001
174 ; 12994.814528671595 ; 11005.607439371623 ; 3668720.579658215 ; 1914975.6944506557 ; 41412.00000000001
175 ; 12919.778711321535 ; 11005.607439371623 ; 3681715.3941868865 ; 1925981.3018900272 ; 41650.00000000001
176 ; 12820.311904229442 ; 11005.607439371623 ; 3694635.1728982083 ; 1936986.9093293988 ; 41888.00000000001
177 ; 12876.252443980407 ; 11005.607439371623 ; 3707455.4848024375 ; 1947992.5167687703 ; 42126.00000000001
178 ; 12853.425506473182 ; 11005.607439371623 ; 3720331.737246418 ; 1958998.1242081418 ; 42364.00000000001
179 ; 13028.04448903908 ; 11005.607439371623 ; 3733185.162752891 ; 1970003.7316475133 ; 42602.00000000001
180 ; 13039.414815904873 ; 11005.607439371623 ; 3746213.20724193 ; 1981009.3390868849 ; 42840.00000000001
181 ; 12834.774204273377 ; 11005.607439371623 ; 3759252.622057835 ; 1992014.9465262564 ; 43078.00000000001
182 ; 13101.19710987782 ; 11005.607439371623 ; 3772087.3962621083 ; 2003020.553965628 ; 43316.00000000001
183 ; 13145.121912031665 ; 11005.607439371623 ; 3785188.593371986 ; 2014026.1614049994 ; 43554.00000000001
184 ; 13170.835599029866 ; 11005.607439371623 ; 3798333.7152840174 ; 2025031.768844371 ; 43792.00000000001
