CSV File for the City 2 on Day 195
1 - Minute m 
2 - Power Consumed at minute m 
3 - Power Produced at minute m 
4 - Energy Consumed since the beginning of the day 
5 - Energy Produced since the beginning of the day 
6 - Energy Lost since the beginning of the day on lines starting from the city
 
0 ; 4926.289587358297 ; 33298.91168630194 ; 0.0 ; 0.0 ; 0.0
1 ; 5579.59966493394 ; 33298.91168630194 ; 4926.289587358297 ; 33298.91168630194 ; 0.0
2 ; 6037.733291053881 ; 33298.91168630194 ; 10505.889252292236 ; 66597.82337260387 ; 0.0
3 ; 6587.64858466287 ; 33298.91168630194 ; 16543.622543346115 ; 99896.73505890582 ; 0.0
4 ; 7108.318755222372 ; 33298.91168630194 ; 23131.271128008986 ; 133195.64674520775 ; 0.0
5 ; 7545.9139048951865 ; 33298.91168630194 ; 30239.589883231358 ; 166494.55843150968 ; 0.0
6 ; 8270.001899963667 ; 33298.91168630194 ; 37785.503788126545 ; 199793.4701178116 ; 0.0
7 ; 8477.605151460784 ; 33298.91168630194 ; 46055.50568809021 ; 233092.38180411354 ; 0.0
8 ; 9016.772332149652 ; 33298.91168630194 ; 54533.110839550995 ; 266391.2934904155 ; 0.0
9 ; 9633.972451470323 ; 33298.91168630194 ; 63549.88317170065 ; 299690.2051767174 ; 0.0
10 ; 9989.622115543194 ; 33298.91168630194 ; 73183.85562317097 ; 332989.11686301936 ; 0.0
11 ; 10470.074460494712 ; 33298.91168630194 ; 83173.47773871417 ; 366288.0285493213 ; 0.0
12 ; 10715.886503368149 ; 33298.91168630194 ; 93643.55219920888 ; 399586.9402356232 ; 0.0
13 ; 11242.82319739317 ; 33298.91168630194 ; 104359.43870257703 ; 432885.85192192515 ; 0.0
14 ; 11748.754289164943 ; 33298.91168630194 ; 115602.2618999702 ; 466184.7636082271 ; 0.0
15 ; 12367.81691500067 ; 33298.91168630194 ; 127351.01618913515 ; 499483.675294529 ; 0.0
16 ; 12586.832075314924 ; 33298.91168630194 ; 139718.83310413582 ; 532782.586980831 ; 0.0
17 ; 13073.9762696468 ; 33298.91168630194 ; 152305.66517945073 ; 566081.4986671329 ; 0.0
18 ; 13447.794622511545 ; 33298.91168630194 ; 165379.64144909754 ; 599380.4103534349 ; 0.0
19 ; 13794.112697595237 ; 33298.91168630194 ; 178827.4360716091 ; 632679.3220397368 ; 0.0
20 ; 14233.908659811654 ; 33298.91168630194 ; 192621.54876920432 ; 665978.2337260387 ; 0.0
21 ; 14637.08306547059 ; 33298.91168630194 ; 206855.45742901598 ; 699277.1454123406 ; 0.0
22 ; 15128.518550577519 ; 33298.91168630194 ; 221492.54049448657 ; 732576.0570986426 ; 0.0
23 ; 15520.20378364799 ; 33298.91168630194 ; 236621.0590450641 ; 765874.9687849445 ; 0.0
24 ; 15812.71129821519 ; 33298.91168630194 ; 252141.2628287121 ; 799173.8804712464 ; 0.0
25 ; 16229.317615936188 ; 33298.91168630194 ; 267953.97412692726 ; 832472.7921575484 ; 0.0
26 ; 16453.787186512967 ; 33298.91168630194 ; 284183.2917428634 ; 865771.7038438503 ; 0.0
27 ; 17003.632274137814 ; 33298.91168630194 ; 300637.0789293764 ; 899070.6155301522 ; 0.0
28 ; 17300.085786417425 ; 33298.91168630194 ; 317640.7112035142 ; 932369.5272164542 ; 0.0
29 ; 17727.0160905349 ; 33298.91168630194 ; 334940.7969899316 ; 965668.4389027561 ; 0.0
30 ; 17948.328604898583 ; 33298.91168630194 ; 352667.8130804665 ; 998967.350589058 ; 0.0
31 ; 18414.38480261724 ; 33298.91168630194 ; 370616.1416853651 ; 1032266.26227536 ; 0.0
32 ; 18552.04678486932 ; 33298.91168630194 ; 389030.52648798237 ; 1065565.173961662 ; 0.0
33 ; 18912.147675664633 ; 33298.91168630194 ; 407582.5732728517 ; 1098864.085647964 ; 0.0
34 ; 19288.46608496632 ; 33298.91168630194 ; 426494.72094851633 ; 1132162.9973342658 ; 0.0
35 ; 19627.447746215705 ; 33298.91168630194 ; 445783.18703348265 ; 1165461.9090205678 ; 0.0
36 ; 19853.206415895394 ; 33298.91168630194 ; 465410.63477969833 ; 1198760.8207068697 ; 0.0
37 ; 20144.298160739043 ; 33298.91168630194 ; 485263.8411955937 ; 1232059.7323931716 ; 0.0
38 ; 20462.14006249764 ; 33298.91168630194 ; 505408.1393563328 ; 1265358.6440794736 ; 0.0
39 ; 20882.7892861824 ; 33298.91168630194 ; 525870.2794188304 ; 1298657.5557657755 ; 0.0
40 ; 20974.148385775316 ; 33298.91168630194 ; 546753.0687050128 ; 1331956.4674520774 ; 0.0
41 ; 21430.084113110654 ; 33298.91168630194 ; 567727.2170907881 ; 1365255.3791383794 ; 0.0
42 ; 21638.997709482104 ; 33298.91168630194 ; 589157.3012038987 ; 1398554.2908246813 ; 0.0
43 ; 21799.995557476814 ; 33298.91168630194 ; 610796.2989133808 ; 1431853.2025109832 ; 0.0
44 ; 22103.995053332314 ; 33298.91168630194 ; 632596.2944708576 ; 1465152.1141972851 ; 0.0
45 ; 22366.138584532422 ; 33298.91168630194 ; 654700.2895241899 ; 1498451.025883587 ; 0.0
46 ; 22701.496154830882 ; 33298.91168630194 ; 677066.4281087223 ; 1531749.937569889 ; 0.0
47 ; 22843.988187525814 ; 33298.91168630194 ; 699767.9242635532 ; 1565048.849256191 ; 0.0
48 ; 22995.355998314277 ; 33298.91168630194 ; 722611.912451079 ; 1598347.7609424929 ; 0.0
49 ; 23246.135090229494 ; 33298.91168630194 ; 745607.2684493933 ; 1631646.6726287948 ; 0.0
50 ; 23556.22227198509 ; 33298.91168630194 ; 768853.4035396228 ; 1664945.5843150967 ; 0.0
51 ; 23530.779028255783 ; 33298.91168630194 ; 792409.6258116079 ; 1698244.4960013987 ; 0.0
52 ; 23671.220985353062 ; 33298.91168630194 ; 815940.4048398638 ; 1731543.4076877006 ; 0.0
53 ; 23995.595435057392 ; 33298.91168630194 ; 839611.6258252169 ; 1764842.3193740025 ; 0.0
54 ; 24301.1992863426 ; 33298.91168630194 ; 863607.2212602743 ; 1798141.2310603044 ; 0.0
55 ; 24536.486454223854 ; 33298.91168630194 ; 887908.4205466169 ; 1831440.1427466064 ; 0.0
56 ; 24720.49484331042 ; 33298.91168630194 ; 912444.9070008408 ; 1864739.0544329083 ; 0.0
57 ; 24733.952249088485 ; 33298.91168630194 ; 937165.4018441512 ; 1898037.9661192102 ; 0.0
58 ; 25073.17752217925 ; 33298.91168630194 ; 961899.3540932396 ; 1931336.8778055122 ; 0.0
59 ; 24987.855845285394 ; 33298.91168630194 ; 986972.5316154188 ; 1964635.789491814 ; 0.0
60 ; 25179.35993626171 ; 33298.91168630194 ; 1011960.3874607042 ; 1997934.701178116 ; 0.0
61 ; 25371.806520840757 ; 33298.91168630194 ; 1037139.7473969659 ; 2031233.612864418 ; 0.0
62 ; 25216.764530495348 ; 33298.91168630194 ; 1062511.5539178066 ; 2064532.52455072 ; 0.0
63 ; 25585.246315831264 ; 33298.91168630194 ; 1087728.3184483019 ; 2097831.436237022 ; 0.0
64 ; 25876.048639375884 ; 33298.91168630194 ; 1113313.5647641332 ; 2131130.347923324 ; 0.0
65 ; 25675.22552196533 ; 33298.91168630194 ; 1139189.6134035091 ; 2164429.259609626 ; 0.0
66 ; 25933.973501276283 ; 33298.91168630194 ; 1164864.8389254746 ; 2197728.1712959283 ; 0.0
67 ; 26130.819974978178 ; 33298.91168630194 ; 1190798.8124267508 ; 2231027.0829822305 ; 0.0
68 ; 26328.421538270562 ; 33298.91168630194 ; 1216929.632401729 ; 2264325.9946685326 ; 0.0
69 ; 26317.341265390347 ; 33298.91168630194 ; 1243258.0539399995 ; 2297624.906354835 ; 0.0
70 ; 26268.347919630698 ; 33298.91168630194 ; 1269575.39520539 ; 2330923.818041137 ; 0.0
71 ; 26524.97576574005 ; 33298.91168630194 ; 1295843.7431250205 ; 2364222.729727439 ; 0.0
72 ; 26571.34187758196 ; 33298.91168630194 ; 1322368.7188907606 ; 2397521.6414137413 ; 0.0
73 ; 26560.956144764965 ; 33298.91168630194 ; 1348940.0607683426 ; 2430820.5531000434 ; 0.0
74 ; 26650.680862145397 ; 33298.91168630194 ; 1375501.0169131076 ; 2464119.4647863456 ; 0.0
75 ; 26571.40683208643 ; 33298.91168630194 ; 1402151.697775253 ; 2497418.376472648 ; 0.0
76 ; 26880.712760432685 ; 33298.91168630194 ; 1428723.1046073395 ; 2530717.28815895 ; 0.0
77 ; 26932.83986035577 ; 33298.91168630194 ; 1455603.817367772 ; 2564016.199845252 ; 0.0
78 ; 26731.488804071854 ; 33298.91168630194 ; 1482536.6572281278 ; 2597315.1115315543 ; 0.0
79 ; 26771.02845553392 ; 33298.91168630194 ; 1509268.1460321997 ; 2630614.0232178564 ; 0.0
80 ; 26990.7007984503 ; 33298.91168630194 ; 1536039.1744877337 ; 2663912.9349041586 ; 0.0
81 ; 26909.410500672646 ; 33298.91168630194 ; 1563029.875286184 ; 2697211.8465904607 ; 0.0
82 ; 26829.822793089625 ; 33298.91168630194 ; 1589939.2857868567 ; 2730510.758276763 ; 0.0
83 ; 26887.92320127025 ; 33298.91168630194 ; 1616769.1085799462 ; 2763809.669963065 ; 0.0
84 ; 26926.108333473294 ; 33298.91168630194 ; 1643657.0317812164 ; 2797108.581649367 ; 0.0
85 ; 26875.032772576204 ; 33298.91168630194 ; 1670583.1401146897 ; 2830407.4933356694 ; 0.0
86 ; 26967.70384276957 ; 33298.91168630194 ; 1697458.172887266 ; 2863706.4050219716 ; 0.0
87 ; 26700.380271250207 ; 33298.91168630194 ; 1724425.8767300355 ; 2897005.3167082737 ; 0.0
88 ; 26703.076335823243 ; 33298.91168630194 ; 1751126.2570012857 ; 2930304.228394576 ; 0.0
89 ; 26772.737576071373 ; 33298.91168630194 ; 1777829.3333371088 ; 2963603.140080878 ; 0.0
90 ; 26595.454845847085 ; 33298.91168630194 ; 1804602.0709131802 ; 2996902.05176718 ; 0.0
91 ; 26773.06836376023 ; 33298.91168630194 ; 1831197.5257590273 ; 3030200.9634534824 ; 0.0
92 ; 26524.300613751224 ; 33298.91168630194 ; 1857970.5941227875 ; 3063499.8751397845 ; 0.0
93 ; 26481.76967265397 ; 33298.91168630194 ; 1884494.8947365386 ; 3096798.7868260867 ; 0.0
94 ; 26457.96777444488 ; 33298.91168630194 ; 1910976.6644091925 ; 3130097.698512389 ; 0.0
95 ; 26366.37408244358 ; 33298.91168630194 ; 1937434.6321836375 ; 3163396.610198691 ; 0.0
96 ; 26267.226679685333 ; 33298.91168630194 ; 1963801.006266081 ; 3196695.521884993 ; 0.0
97 ; 26235.004028443374 ; 33298.91168630194 ; 1990068.2329457663 ; 3229994.4335712953 ; 0.0
98 ; 26042.49294582404 ; 33298.91168630194 ; 2016303.2369742098 ; 3263293.3452575975 ; 0.0
99 ; 25797.96276991828 ; 33298.91168630194 ; 2042345.7299200338 ; 3296592.2569438997 ; 0.0
100 ; 25829.75172530746 ; 33298.91168630194 ; 2068143.6926899522 ; 3329891.168630202 ; 0.0
101 ; 25794.936504312976 ; 33298.91168630194 ; 2093973.4444152596 ; 3363190.080316504 ; 0.0
102 ; 25711.366119601178 ; 33298.91168630194 ; 2119768.3809195724 ; 3396488.992002806 ; 0.0
103 ; 25507.173957448773 ; 33298.91168630194 ; 2145479.7470391737 ; 3429787.9036891083 ; 0.0
104 ; 25310.30710980358 ; 33298.91168630194 ; 2170986.9209966226 ; 3463086.8153754105 ; 0.0
105 ; 25328.150597021424 ; 33298.91168630194 ; 2196297.228106426 ; 3496385.7270617126 ; 0.0
106 ; 25070.199569553846 ; 33298.91168630194 ; 2221625.3787034475 ; 3529684.638748015 ; 0.0
107 ; 24832.95071760981 ; 33298.91168630194 ; 2246695.5782730016 ; 3562983.550434317 ; 0.0
108 ; 24586.320576646223 ; 33298.91168630194 ; 2271528.5289906114 ; 3596282.462120619 ; 0.0
109 ; 24742.889841379805 ; 33298.91168630194 ; 2296114.849567258 ; 3629581.3738069213 ; 0.0
110 ; 24386.45495212954 ; 33298.91168630194 ; 2320857.7394086374 ; 3662880.2854932235 ; 0.0
111 ; 23989.120394179285 ; 33298.91168630194 ; 2345244.194360767 ; 3696179.1971795256 ; 0.0
112 ; 23956.96482283828 ; 33298.91168630194 ; 2369233.314754946 ; 3729478.108865828 ; 0.0
113 ; 23919.123979045366 ; 33298.91168630194 ; 2393190.2795777842 ; 3762777.02055213 ; 0.0
114 ; 23611.48844476242 ; 33298.91168630194 ; 2417109.40355683 ; 3796075.932238432 ; 0.0
115 ; 23535.493423525768 ; 33298.91168630194 ; 2440720.892001592 ; 3829374.8439247343 ; 0.0
116 ; 23348.28733387797 ; 33298.91168630194 ; 2464256.385425118 ; 3862673.7556110364 ; 0.0
117 ; 23179.28717267118 ; 33298.91168630194 ; 2487604.6727589956 ; 3895972.6672973386 ; 0.0
118 ; 22638.113004031846 ; 33298.91168630194 ; 2510783.959931667 ; 3929271.5789836408 ; 0.0
119 ; 22546.92785296012 ; 33298.91168630194 ; 2533422.072935699 ; 3962570.490669943 ; 0.0
120 ; 22502.28629254131 ; 33298.91168630194 ; 2555969.0007886593 ; 3995869.402356245 ; 0.0
121 ; 21932.68785624842 ; 33298.91168630194 ; 2578471.2870812006 ; 4029168.3140425473 ; 0.0
122 ; 21817.457732956263 ; 33298.91168630194 ; 2600403.974937449 ; 4062467.2257288494 ; 0.0
123 ; 21571.718871744215 ; 33298.91168630194 ; 2622221.4326704056 ; 4095766.1374151516 ; 0.0
124 ; 21305.24814844499 ; 33298.91168630194 ; 2643793.15154215 ; 4129065.0491014537 ; 0.0
125 ; 20914.442213166276 ; 33298.91168630194 ; 2665098.399690595 ; 4162363.960787756 ; 0.0
126 ; 20730.421040492074 ; 33298.91168630194 ; 2686012.8419037615 ; 4195662.872474058 ; 0.0
127 ; 20403.416021685698 ; 33298.91168630194 ; 2706743.2629442536 ; 4228961.78416036 ; 0.0
128 ; 20161.69495266709 ; 33298.91168630194 ; 2727146.678965939 ; 4262260.695846662 ; 0.0
129 ; 19719.667196335984 ; 33298.91168630194 ; 2747308.3739186064 ; 4295559.607532964 ; 0.0
130 ; 19344.8120393113 ; 33298.91168630194 ; 2767028.0411149426 ; 4328858.519219266 ; 0.0
131 ; 19239.944915578013 ; 33298.91168630194 ; 2786372.853154254 ; 4362157.430905568 ; 0.0
132 ; 18760.602666379233 ; 33298.91168630194 ; 2805612.7980698324 ; 4395456.342591871 ; 0.0
133 ; 18546.084080589164 ; 33298.91168630194 ; 2824373.400736212 ; 4428755.254278173 ; 0.0
134 ; 18270.853925573007 ; 33298.91168630194 ; 2842919.484816801 ; 4462054.165964475 ; 0.0
135 ; 17820.216317812985 ; 33298.91168630194 ; 2861190.338742374 ; 4495353.077650777 ; 0.0
136 ; 17629.146754379697 ; 33298.91168630194 ; 2879010.555060187 ; 4528651.989337079 ; 0.0
137 ; 17193.629543108513 ; 33298.91168630194 ; 2896639.7018145667 ; 4561950.901023381 ; 0.0
138 ; 16724.583199392087 ; 33298.91168630194 ; 2913833.331357675 ; 4595249.812709684 ; 0.0
139 ; 16505.741942425255 ; 33298.91168630194 ; 2930557.914557067 ; 4628548.724395986 ; 0.0
140 ; 16088.607048901747 ; 33298.91168630194 ; 2947063.6564994925 ; 4661847.636082288 ; 0.0
141 ; 15681.649256787168 ; 33298.91168630194 ; 2963152.263548394 ; 4695146.54776859 ; 0.0
142 ; 15305.320313682614 ; 33298.91168630194 ; 2978833.9128051815 ; 4728445.459454892 ; 0.0
143 ; 14957.144863422827 ; 33298.91168630194 ; 2994139.2331188642 ; 4761744.371141194 ; 0.0
144 ; 14540.221283644893 ; 33298.91168630194 ; 3009096.377982287 ; 4795043.2828274965 ; 0.0
145 ; 14350.610521136583 ; 33298.91168630194 ; 3023636.599265932 ; 4828342.194513799 ; 0.0
146 ; 14225.855749777973 ; 33298.91168630194 ; 3037987.209787069 ; 4861641.106200101 ; 0.0
147 ; 14126.745103756402 ; 33298.91168630194 ; 3052213.065536847 ; 4894940.017886403 ; 0.0
148 ; 14101.778473462698 ; 33298.91168630194 ; 3066339.8106406033 ; 4928238.929572705 ; 0.0
149 ; 13852.194590232608 ; 33298.91168630194 ; 3080441.589114066 ; 4961537.841259007 ; 0.0
150 ; 13867.441220090699 ; 33298.91168630194 ; 3094293.783704299 ; 4994836.7529453095 ; 0.0
151 ; 13620.164099311583 ; 33298.91168630194 ; 3108161.2249243897 ; 5028135.664631612 ; 0.0
152 ; 13546.283773409166 ; 33298.91168630194 ; 3121781.389023701 ; 5061434.576317914 ; 0.0
153 ; 13371.03567201701 ; 33298.91168630194 ; 3135327.6727971104 ; 5094733.488004216 ; 0.0
154 ; 13398.736898533689 ; 33298.91168630194 ; 3148698.7084691273 ; 5128032.399690518 ; 0.0
155 ; 13307.299084726961 ; 33298.91168630194 ; 3162097.445367661 ; 5161331.31137682 ; 0.0
156 ; 12978.542750034583 ; 33298.91168630194 ; 3175404.744452388 ; 5194630.2230631225 ; 0.0
157 ; 12908.091416324263 ; 33298.91168630194 ; 3188383.2872024225 ; 5227929.134749425 ; 0.0
158 ; 12778.64880023778 ; 33298.91168630194 ; 3201291.378618747 ; 5261228.046435727 ; 0.0
159 ; 12723.710834850812 ; 33298.91168630194 ; 3214070.0274189846 ; 5294526.958122029 ; 0.0
160 ; 12327.8781574485 ; 33298.91168630194 ; 3226793.7382538356 ; 5327825.869808331 ; 0.0
161 ; 12419.7896173399 ; 33298.91168630194 ; 3239121.616411284 ; 5361124.781494633 ; 0.0
162 ; 12147.38184949541 ; 33298.91168630194 ; 3251541.406028624 ; 5394423.693180935 ; 0.0
163 ; 11976.016824146245 ; 33298.91168630194 ; 3263688.7878781194 ; 5427722.604867238 ; 0.0
164 ; 11877.727282015418 ; 33298.91168630194 ; 3275664.8047022657 ; 5461021.51655354 ; 0.0
165 ; 11704.953598635118 ; 33298.91168630194 ; 3287542.5319842813 ; 5494320.428239842 ; 0.0
166 ; 11607.27552159515 ; 33298.91168630194 ; 3299247.4855829165 ; 5527619.339926144 ; 0.0
167 ; 11481.455254812947 ; 33298.91168630194 ; 3310854.7611045116 ; 5560918.251612446 ; 0.0
168 ; 11452.595076959682 ; 33298.91168630194 ; 3322336.2163593243 ; 5594217.163298748 ; 0.0
169 ; 11125.829859580032 ; 33298.91168630194 ; 3333788.811436284 ; 5627516.074985051 ; 0.0
170 ; 11095.652662574526 ; 33298.91168630194 ; 3344914.641295864 ; 5660814.986671353 ; 0.0
171 ; 10802.570463202012 ; 33298.91168630194 ; 3356010.293958438 ; 5694113.898357655 ; 0.0
172 ; 10560.905193259829 ; 33298.91168630194 ; 3366812.86442164 ; 5727412.810043957 ; 0.0
173 ; 10494.917767817555 ; 33298.91168630194 ; 3377373.7696149 ; 5760711.721730259 ; 0.0
174 ; 10659.609978333292 ; 33298.91168630194 ; 3387868.6873827176 ; 5794010.633416561 ; 0.0
175 ; 10723.00442296271 ; 33298.91168630194 ; 3398528.2973610507 ; 5827309.545102864 ; 0.0
176 ; 10550.634558170877 ; 33298.91168630194 ; 3409251.3017840134 ; 5860608.456789166 ; 0.0
177 ; 10670.4445139809 ; 33298.91168630194 ; 3419801.9363421844 ; 5893907.368475468 ; 0.0
178 ; 10753.789587872661 ; 33298.91168630194 ; 3430472.380856165 ; 5927206.28016177 ; 0.0
179 ; 10648.363186567407 ; 33298.91168630194 ; 3441226.1704440378 ; 5960505.191848072 ; 0.0
180 ; 10818.577920678224 ; 33298.91168630194 ; 3451874.5336306053 ; 5993804.103534374 ; 0.0
181 ; 10723.189884303425 ; 33298.91168630194 ; 3462693.1115512834 ; 6027103.015220677 ; 0.0
182 ; 10794.19437683298 ; 33298.91168630194 ; 3473416.301435587 ; 6060401.926906979 ; 0.0
183 ; 10920.008842020834 ; 33298.91168630194 ; 3484210.49581242 ; 6093700.838593281 ; 0.0
184 ; 10833.990353695042 ; 33298.91168630194 ; 3495130.5046544406 ; 6126999.750279583 ; 0.0
185 ; 10965.382437826604 ; 33298.91168630194 ; 3505964.4950081357 ; 6160298.661965885 ; 0.0
186 ; 10718.505288236276 ; 33298.91168630194 ; 3516929.8774459623 ; 6193597.573652187 ; 0.0
187 ; 10969.710496172047 ; 33298.91168630194 ; 3527648.3827341986 ; 6226896.4853384895 ; 0.0
188 ; 11032.651919120739 ; 33298.91168630194 ; 3538618.0932303704 ; 6260195.397024792 ; 0.0
189 ; 11091.420484048027 ; 33298.91168630194 ; 3549650.7451494914 ; 6293494.308711094 ; 0.0
190 ; 10914.572244947429 ; 33298.91168630194 ; 3560742.165633539 ; 6326793.220397396 ; 0.0
191 ; 11182.273086971321 ; 33298.91168630194 ; 3571656.7378784865 ; 6360092.132083698 ; 0.0
192 ; 11037.489442499242 ; 33298.91168630194 ; 3582839.0109654577 ; 6393391.04377 ; 0.0
193 ; 11277.836572807922 ; 33298.91168630194 ; 3593876.500407957 ; 6426689.9554563025 ; 0.0
194 ; 11093.26069718469 ; 33298.91168630194 ; 3605154.3369807648 ; 6459988.867142605 ; 0.0
195 ; 11240.566549165653 ; 33298.91168630194 ; 3616247.5976779494 ; 6493287.778828907 ; 0.0
196 ; 11313.400278064133 ; 33298.91168630194 ; 3627488.164227115 ; 6526586.690515209 ; 0.0
197 ; 11269.620998543644 ; 33298.91168630194 ; 3638801.564505179 ; 6559885.602201511 ; 0.0
198 ; 11446.232819731853 ; 33298.91168630194 ; 3650071.1855037226 ; 6593184.513887813 ; 0.0
199 ; 11492.051348366946 ; 33298.91168630194 ; 3661517.4183234544 ; 6626483.4255741155 ; 0.0
200 ; 11410.61612859816 ; 33298.91168630194 ; 3673009.469671821 ; 6659782.337260418 ; 0.0
201 ; 11440.915840798743 ; 33298.91168630194 ; 3684420.0858004196 ; 6693081.24894672 ; 0.0
202 ; 11489.870027887251 ; 33298.91168630194 ; 3695861.001641218 ; 6726380.160633022 ; 0.0
203 ; 11597.058749864402 ; 33298.91168630194 ; 3707350.8716691053 ; 6759679.072319324 ; 0.0
204 ; 11519.613419785806 ; 33298.91168630194 ; 3718947.9304189696 ; 6792977.984005626 ; 0.0
205 ; 11494.745977103508 ; 33298.91168630194 ; 3730467.543838755 ; 6826276.895691928 ; 0.0
206 ; 11659.624246937406 ; 33298.91168630194 ; 3741962.289815859 ; 6859575.807378231 ; 0.0
207 ; 11775.11424501756 ; 33298.91168630194 ; 3753621.914062796 ; 6892874.719064533 ; 0.0
208 ; 11663.494550897212 ; 33298.91168630194 ; 3765397.0283078137 ; 6926173.630750835 ; 0.0
209 ; 11748.609499897608 ; 33298.91168630194 ; 3777060.522858711 ; 6959472.542437137 ; 0.0
210 ; 11769.82362288994 ; 33298.91168630194 ; 3788809.132358609 ; 6992771.454123439 ; 0.0
211 ; 11878.28957656946 ; 33298.91168630194 ; 3800578.9559814986 ; 7026070.365809741 ; 0.0
212 ; 11807.991374216072 ; 33298.91168630194 ; 3812457.245558068 ; 7059369.277496044 ; 0.0
213 ; 11897.749154520165 ; 33298.91168630194 ; 3824265.236932284 ; 7092668.189182346 ; 0.0
214 ; 11946.47741970734 ; 33298.91168630194 ; 3836162.9860868044 ; 7125967.100868648 ; 0.0
215 ; 12013.118953871255 ; 33298.91168630194 ; 3848109.463506512 ; 7159266.01255495 ; 0.0
216 ; 11893.767988561627 ; 33298.91168630194 ; 3860122.582460383 ; 7192564.924241252 ; 0.0
