CSV File for the City 2 on Day 285
1 - Minute m 
2 - Power Consumed at minute m 
3 - Power Produced at minute m 
4 - Energy Consumed since the beginning of the day 
5 - Energy Produced since the beginning of the day 
6 - Energy Lost since the beginning of the day on lines starting from the city
 
0 ; 8306.997276127331 ; 28750.237419826764 ; 0.0 ; 0.0 ; 0.0
1 ; 8600.95130938657 ; 28750.237419826764 ; 8306.997276127331 ; 28750.237419826764 ; 0.0
2 ; 8974.805429014325 ; 28750.237419826764 ; 16907.9485855139 ; 57500.47483965353 ; 0.0
3 ; 9514.162146725013 ; 28750.237419826764 ; 25882.754014528226 ; 86250.7122594803 ; 0.0
4 ; 9625.89389488519 ; 28750.237419826764 ; 35396.91616125324 ; 115000.94967930706 ; 0.0
5 ; 10247.619380334861 ; 28750.237419826764 ; 45022.810056138434 ; 143751.18709913382 ; 0.0
6 ; 10473.651311307158 ; 28750.237419826764 ; 55270.42943647329 ; 172501.4245189606 ; 0.0
7 ; 10825.462897992862 ; 28750.237419826764 ; 65744.08074778045 ; 201251.66193878735 ; 0.0
8 ; 11344.597102377738 ; 28750.237419826764 ; 76569.54364577332 ; 230001.89935861412 ; 0.0
9 ; 11718.304617904148 ; 28750.237419826764 ; 87914.14074815105 ; 258752.13677844088 ; 0.0
10 ; 11963.23471181663 ; 28750.237419826764 ; 99632.44536605521 ; 287502.37419826764 ; 0.0
11 ; 12403.870300420334 ; 28750.237419826764 ; 111595.68007787185 ; 316252.6116180944 ; 0.0
12 ; 12715.344175095752 ; 28750.237419826764 ; 123999.55037829219 ; 345002.8490379212 ; 0.0
13 ; 13032.272364244644 ; 28750.237419826764 ; 136714.89455338795 ; 373753.08645774797 ; 0.0
14 ; 13270.327448124812 ; 28750.237419826764 ; 149747.1669176326 ; 402503.32387757476 ; 0.0
15 ; 13590.988079213605 ; 28750.237419826764 ; 163017.49436575742 ; 431253.56129740155 ; 0.0
16 ; 13876.736871298039 ; 28750.237419826764 ; 176608.482444971 ; 460003.79871722835 ; 0.0
17 ; 14388.44840006663 ; 28750.237419826764 ; 190485.21931626904 ; 488754.03613705514 ; 0.0
18 ; 14753.582976980484 ; 28750.237419826764 ; 204873.66771633568 ; 517504.27355688193 ; 0.0
19 ; 14991.328358310098 ; 28750.237419826764 ; 219627.25069331616 ; 546254.5109767087 ; 0.0
20 ; 15240.193521125713 ; 28750.237419826764 ; 234618.57905162626 ; 575004.7483965355 ; 0.0
21 ; 15625.548130156494 ; 28750.237419826764 ; 249858.77257275197 ; 603754.9858163623 ; 0.0
22 ; 15938.963547128078 ; 28750.237419826764 ; 265484.32070290844 ; 632505.2232361891 ; 0.0
23 ; 16048.319566457634 ; 28750.237419826764 ; 281423.2842500365 ; 661255.4606560159 ; 0.0
24 ; 16351.150607083167 ; 28750.237419826764 ; 297471.6038164942 ; 690005.6980758427 ; 0.0
25 ; 16751.027668951378 ; 28750.237419826764 ; 313822.75442357734 ; 718755.9354956695 ; 0.0
26 ; 16966.707457966848 ; 28750.237419826764 ; 330573.7820925287 ; 747506.1729154963 ; 0.0
27 ; 17278.338857523417 ; 28750.237419826764 ; 347540.4895504956 ; 776256.4103353231 ; 0.0
28 ; 17441.953235486762 ; 28750.237419826764 ; 364818.828408019 ; 805006.6477551499 ; 0.0
29 ; 17889.74334497096 ; 28750.237419826764 ; 382260.78164350573 ; 833756.8851749767 ; 0.0
30 ; 17871.535090830137 ; 28750.237419826764 ; 400150.5249884767 ; 862507.1225948035 ; 0.0
31 ; 18159.62973666349 ; 28750.237419826764 ; 418022.06007930683 ; 891257.3600146302 ; 0.0
32 ; 18513.16603574791 ; 28750.237419826764 ; 436181.6898159703 ; 920007.597434457 ; 0.0
33 ; 18659.86535847447 ; 28750.237419826764 ; 454694.8558517182 ; 948757.8348542838 ; 0.0
34 ; 18975.50657651718 ; 28750.237419826764 ; 473354.7212101927 ; 977508.0722741106 ; 0.0
35 ; 19255.42175117272 ; 28750.237419826764 ; 492330.2277867099 ; 1006258.3096939374 ; 0.0
36 ; 19531.42186494831 ; 28750.237419826764 ; 511585.64953788265 ; 1035008.5471137642 ; 0.0
37 ; 19740.594499118288 ; 28750.237419826764 ; 531117.071402831 ; 1063758.784533591 ; 0.0
38 ; 19892.25166361657 ; 28750.237419826764 ; 550857.6659019493 ; 1092509.0219534177 ; 0.0
39 ; 20104.869088101543 ; 28750.237419826764 ; 570749.9175655659 ; 1121259.2593732444 ; 0.0
40 ; 20102.905661283272 ; 28750.237419826764 ; 590854.7866536675 ; 1150009.496793071 ; 0.0
41 ; 20409.07779656187 ; 28750.237419826764 ; 610957.6923149507 ; 1178759.7342128977 ; 0.0
42 ; 20881.693910231905 ; 28750.237419826764 ; 631366.7701115126 ; 1207509.9716327244 ; 0.0
43 ; 20931.56880543924 ; 28750.237419826764 ; 652248.4640217446 ; 1236260.209052551 ; 0.0
44 ; 21040.14376737566 ; 28750.237419826764 ; 673180.0328271838 ; 1265010.4464723777 ; 0.0
45 ; 21192.10935190945 ; 28750.237419826764 ; 694220.1765945595 ; 1293760.6838922044 ; 0.0
46 ; 21319.886653918325 ; 28750.237419826764 ; 715412.2859464689 ; 1322510.921312031 ; 0.0
47 ; 21653.908206965905 ; 28750.237419826764 ; 736732.1726003872 ; 1351261.1587318578 ; 0.0
48 ; 21699.9366176485 ; 28750.237419826764 ; 758386.0808073531 ; 1380011.3961516845 ; 0.0
49 ; 21687.73706639844 ; 28750.237419826764 ; 780086.0174250016 ; 1408761.6335715111 ; 0.0
50 ; 22055.25146338642 ; 28750.237419826764 ; 801773.7544914001 ; 1437511.8709913378 ; 0.0
51 ; 22104.7968848589 ; 28750.237419826764 ; 823829.0059547866 ; 1466262.1084111645 ; 0.0
52 ; 22521.03316207615 ; 28750.237419826764 ; 845933.8028396454 ; 1495012.3458309912 ; 0.0
53 ; 22444.273967805806 ; 28750.237419826764 ; 868454.8360017216 ; 1523762.5832508178 ; 0.0
54 ; 22611.999839986536 ; 28750.237419826764 ; 890899.1099695273 ; 1552512.8206706445 ; 0.0
55 ; 22711.399294461353 ; 28750.237419826764 ; 913511.1098095139 ; 1581263.0580904712 ; 0.0
56 ; 22817.49506301437 ; 28750.237419826764 ; 936222.5091039753 ; 1610013.2955102979 ; 0.0
57 ; 22748.50343227668 ; 28750.237419826764 ; 959040.0041669896 ; 1638763.5329301246 ; 0.0
58 ; 23023.291009964705 ; 28750.237419826764 ; 981788.5075992662 ; 1667513.7703499512 ; 0.0
59 ; 23221.080953942346 ; 28750.237419826764 ; 1004811.7986092309 ; 1696264.007769778 ; 0.0
60 ; 23218.402887486616 ; 28750.237419826764 ; 1028032.8795631733 ; 1725014.2451896046 ; 0.0
61 ; 23480.659320389706 ; 28750.237419826764 ; 1051251.28245066 ; 1753764.4826094313 ; 0.0
62 ; 23531.291786523343 ; 28750.237419826764 ; 1074731.9417710495 ; 1782514.720029258 ; 0.0
63 ; 23624.787683588038 ; 28750.237419826764 ; 1098263.2335575728 ; 1811264.9574490846 ; 0.0
64 ; 23740.145180089265 ; 28750.237419826764 ; 1121888.0212411608 ; 1840015.1948689113 ; 0.0
65 ; 23730.96206106493 ; 28750.237419826764 ; 1145628.16642125 ; 1868765.432288738 ; 0.0
66 ; 23746.48707522936 ; 28750.237419826764 ; 1169359.128482315 ; 1897515.6697085646 ; 0.0
67 ; 23983.21410589713 ; 28750.237419826764 ; 1193105.6155575444 ; 1926265.9071283913 ; 0.0
68 ; 23953.875236472722 ; 28750.237419826764 ; 1217088.8296634415 ; 1955016.144548218 ; 0.0
69 ; 23850.020889927 ; 28750.237419826764 ; 1241042.7048999143 ; 1983766.3819680447 ; 0.0
70 ; 24117.421963418037 ; 28750.237419826764 ; 1264892.7257898413 ; 2012516.6193878714 ; 0.0
71 ; 24130.660763342807 ; 28750.237419826764 ; 1289010.1477532594 ; 2041266.856807698 ; 0.0
72 ; 23943.551750280836 ; 28750.237419826764 ; 1313140.8085166023 ; 2070017.0942275247 ; 0.0
73 ; 24230.39952530058 ; 28750.237419826764 ; 1337084.3602668832 ; 2098767.3316473514 ; 0.0
74 ; 24172.1191164135 ; 28750.237419826764 ; 1361314.7597921838 ; 2127517.5690671783 ; 0.0
75 ; 24360.381057941828 ; 28750.237419826764 ; 1385486.8789085972 ; 2156267.806487005 ; 0.0
76 ; 24299.709885246 ; 28750.237419826764 ; 1409847.259966539 ; 2185018.043906832 ; 0.0
77 ; 24341.083616485863 ; 28750.237419826764 ; 1434146.9698517849 ; 2213768.281326659 ; 0.0
78 ; 24356.663162425324 ; 28750.237419826764 ; 1458488.0534682707 ; 2242518.518746486 ; 0.0
79 ; 24632.08977734841 ; 28750.237419826764 ; 1482844.716630696 ; 2271268.756166313 ; 0.0
80 ; 24382.85214873566 ; 28750.237419826764 ; 1507476.8064080444 ; 2300018.9935861398 ; 0.0
81 ; 24406.04379299182 ; 28750.237419826764 ; 1531859.65855678 ; 2328769.2310059667 ; 0.0
82 ; 24371.02724108577 ; 28750.237419826764 ; 1556265.702349772 ; 2357519.4684257936 ; 0.0
83 ; 24496.3093744184 ; 28750.237419826764 ; 1580636.7295908576 ; 2386269.7058456205 ; 0.0
84 ; 24592.488554262847 ; 28750.237419826764 ; 1605133.038965276 ; 2415019.9432654474 ; 0.0
85 ; 24328.522372738702 ; 28750.237419826764 ; 1629725.5275195388 ; 2443770.1806852743 ; 0.0
86 ; 24393.289779894665 ; 28750.237419826764 ; 1654054.0498922775 ; 2472520.418105101 ; 0.0
87 ; 24409.67973110292 ; 28750.237419826764 ; 1678447.3396721722 ; 2501270.655524928 ; 0.0
88 ; 24298.976801525976 ; 28750.237419826764 ; 1702857.019403275 ; 2530020.892944755 ; 0.0
89 ; 24320.230308027556 ; 28750.237419826764 ; 1727155.9962048011 ; 2558771.130364582 ; 0.0
90 ; 24211.62333556717 ; 28750.237419826764 ; 1751476.2265128286 ; 2587521.367784409 ; 0.0
91 ; 24149.474718919493 ; 28750.237419826764 ; 1775687.8498483957 ; 2616271.6052042358 ; 0.0
92 ; 24227.35722291108 ; 28750.237419826764 ; 1799837.3245673152 ; 2645021.8426240627 ; 0.0
93 ; 23985.214275526225 ; 28750.237419826764 ; 1824064.6817902261 ; 2673772.0800438896 ; 0.0
94 ; 24054.04682037479 ; 28750.237419826764 ; 1848049.8960657523 ; 2702522.3174637165 ; 0.0
95 ; 23802.625341221592 ; 28750.237419826764 ; 1872103.9428861272 ; 2731272.5548835434 ; 0.0
96 ; 23842.12928670576 ; 28750.237419826764 ; 1895906.5682273488 ; 2760022.7923033703 ; 0.0
97 ; 23708.434446439533 ; 28750.237419826764 ; 1919748.6975140546 ; 2788773.029723197 ; 0.0
98 ; 23545.92543197082 ; 28750.237419826764 ; 1943457.1319604942 ; 2817523.267143024 ; 0.0
99 ; 23457.587286772283 ; 28750.237419826764 ; 1967003.057392465 ; 2846273.504562851 ; 0.0
100 ; 23660.085095258244 ; 28750.237419826764 ; 1990460.6446792372 ; 2875023.741982678 ; 0.0
101 ; 23358.24420168212 ; 28750.237419826764 ; 2014120.7297744954 ; 2903773.979402505 ; 0.0
102 ; 23276.349675679325 ; 28750.237419826764 ; 2037478.9739761774 ; 2932524.216822332 ; 0.0
103 ; 23250.395353095566 ; 28750.237419826764 ; 2060755.3236518567 ; 2961274.4542421587 ; 0.0
104 ; 23144.58502402234 ; 28750.237419826764 ; 2084005.7190049523 ; 2990024.6916619856 ; 0.0
105 ; 23160.518296203558 ; 28750.237419826764 ; 2107150.304028975 ; 3018774.9290818125 ; 0.0
106 ; 22800.42867819387 ; 28750.237419826764 ; 2130310.8223251784 ; 3047525.1665016394 ; 0.0
107 ; 22917.641006413734 ; 28750.237419826764 ; 2153111.2510033725 ; 3076275.4039214663 ; 0.0
108 ; 22545.4843150612 ; 28750.237419826764 ; 2176028.8920097863 ; 3105025.641341293 ; 0.0
109 ; 22508.116408110924 ; 28750.237419826764 ; 2198574.3763248473 ; 3133775.87876112 ; 0.0
110 ; 22120.278507910534 ; 28750.237419826764 ; 2221082.4927329584 ; 3162526.116180947 ; 0.0
111 ; 22284.346972828545 ; 28750.237419826764 ; 2243202.771240869 ; 3191276.353600774 ; 0.0
112 ; 22000.336529239077 ; 28750.237419826764 ; 2265487.118213698 ; 3220026.591020601 ; 0.0
113 ; 21977.65359398129 ; 28750.237419826764 ; 2287487.454742937 ; 3248776.828440428 ; 0.0
114 ; 21782.825158490654 ; 28750.237419826764 ; 2309465.108336918 ; 3277527.0658602547 ; 0.0
115 ; 21579.793785691403 ; 28750.237419826764 ; 2331247.933495409 ; 3306277.3032800816 ; 0.0
116 ; 21368.5108689293 ; 28750.237419826764 ; 2352827.7272811 ; 3335027.5406999085 ; 0.0
117 ; 21135.677369376248 ; 28750.237419826764 ; 2374196.2381500294 ; 3363777.7781197354 ; 0.0
118 ; 21041.974735110296 ; 28750.237419826764 ; 2395331.9155194056 ; 3392528.0155395623 ; 0.0
119 ; 20862.778529958123 ; 28750.237419826764 ; 2416373.8902545157 ; 3421278.2529593892 ; 0.0
120 ; 20584.964871246622 ; 28750.237419826764 ; 2437236.668784474 ; 3450028.490379216 ; 0.0
121 ; 20378.3227600551 ; 28750.237419826764 ; 2457821.633655721 ; 3478778.727799043 ; 0.0
122 ; 20329.230119152937 ; 28750.237419826764 ; 2478199.956415776 ; 3507528.96521887 ; 0.0
123 ; 20063.554610252533 ; 28750.237419826764 ; 2498529.186534929 ; 3536279.202638697 ; 0.0
124 ; 19997.112728901306 ; 28750.237419826764 ; 2518592.7411451815 ; 3565029.440058524 ; 0.0
125 ; 19483.332664115278 ; 28750.237419826764 ; 2538589.8538740827 ; 3593779.6774783507 ; 0.0
126 ; 19411.95342910649 ; 28750.237419826764 ; 2558073.186538198 ; 3622529.9148981776 ; 0.0
127 ; 19178.313897391206 ; 28750.237419826764 ; 2577485.1399673047 ; 3651280.1523180045 ; 0.0
128 ; 18973.021370237766 ; 28750.237419826764 ; 2596663.453864696 ; 3680030.3897378314 ; 0.0
129 ; 18780.489936119426 ; 28750.237419826764 ; 2615636.4752349337 ; 3708780.6271576583 ; 0.0
130 ; 18571.187866464126 ; 28750.237419826764 ; 2634416.965171053 ; 3737530.8645774852 ; 0.0
131 ; 18298.028895184205 ; 28750.237419826764 ; 2652988.1530375173 ; 3766281.101997312 ; 0.0
132 ; 17940.052477339337 ; 28750.237419826764 ; 2671286.1819327017 ; 3795031.339417139 ; 0.0
133 ; 17722.010735895725 ; 28750.237419826764 ; 2689226.234410041 ; 3823781.576836966 ; 0.0
134 ; 17511.260061088768 ; 28750.237419826764 ; 2706948.245145937 ; 3852531.814256793 ; 0.0
135 ; 17091.81701277202 ; 28750.237419826764 ; 2724459.505207026 ; 3881282.05167662 ; 0.0
136 ; 16941.955954474026 ; 28750.237419826764 ; 2741551.322219798 ; 3910032.2890964467 ; 0.0
137 ; 16668.796965506655 ; 28750.237419826764 ; 2758493.278174272 ; 3938782.5265162736 ; 0.0
138 ; 16347.199544440875 ; 28750.237419826764 ; 2775162.0751397787 ; 3967532.7639361005 ; 0.0
139 ; 15995.657328536317 ; 28750.237419826764 ; 2791509.2746842196 ; 3996283.0013559274 ; 0.0
140 ; 15993.781091069663 ; 28750.237419826764 ; 2807504.932012756 ; 4025033.2387757543 ; 0.0
141 ; 15500.691946964045 ; 28750.237419826764 ; 2823498.7131038257 ; 4053783.4761955813 ; 0.0
142 ; 15163.657416987917 ; 28750.237419826764 ; 2838999.40505079 ; 4082533.713615408 ; 0.0
143 ; 14928.386252500764 ; 28750.237419826764 ; 2854163.0624677776 ; 4111283.951035235 ; 0.0
144 ; 14582.729392486313 ; 28750.237419826764 ; 2869091.448720278 ; 4140034.188455062 ; 0.0
145 ; 14429.657998146704 ; 28750.237419826764 ; 2883674.1781127644 ; 4168784.425874889 ; 0.0
146 ; 14342.970383178583 ; 28750.237419826764 ; 2898103.836110911 ; 4197534.663294716 ; 0.0
147 ; 14296.723879991983 ; 28750.237419826764 ; 2912446.8064940893 ; 4226284.900714543 ; 0.0
148 ; 14088.422977860135 ; 28750.237419826764 ; 2926743.5303740813 ; 4255035.13813437 ; 0.0
149 ; 14053.163078865427 ; 28750.237419826764 ; 2940831.9533519414 ; 4283785.375554197 ; 0.0
150 ; 14165.37538364196 ; 28750.237419826764 ; 2954885.116430807 ; 4312535.612974023 ; 0.0
151 ; 13872.681032352033 ; 28750.237419826764 ; 2969050.491814449 ; 4341285.85039385 ; 0.0
152 ; 14025.030639210849 ; 28750.237419826764 ; 2982923.172846801 ; 4370036.087813677 ; 0.0
153 ; 13772.442850976413 ; 28750.237419826764 ; 2996948.203486012 ; 4398786.325233504 ; 0.0
154 ; 13723.12903082975 ; 28750.237419826764 ; 3010720.646336988 ; 4427536.562653331 ; 0.0
155 ; 13360.897984315063 ; 28750.237419826764 ; 3024443.775367818 ; 4456286.800073158 ; 0.0
156 ; 13464.557589346945 ; 28750.237419826764 ; 3037804.673352133 ; 4485037.037492985 ; 0.0
157 ; 13228.581082755576 ; 28750.237419826764 ; 3051269.23094148 ; 4513787.274912812 ; 0.0
158 ; 13053.174743301515 ; 28750.237419826764 ; 3064497.8120242357 ; 4542537.512332639 ; 0.0
159 ; 12988.642228447854 ; 28750.237419826764 ; 3077550.9867675374 ; 4571287.749752466 ; 0.0
160 ; 13085.486292303278 ; 28750.237419826764 ; 3090539.6289959853 ; 4600037.987172293 ; 0.0
161 ; 12872.481766275472 ; 28750.237419826764 ; 3103625.1152882883 ; 4628788.224592119 ; 0.0
162 ; 12900.121717258779 ; 28750.237419826764 ; 3116497.597054564 ; 4657538.462011946 ; 0.0
163 ; 12361.251815480235 ; 28750.237419826764 ; 3129397.7187718228 ; 4686288.699431773 ; 0.0
164 ; 12549.40195632826 ; 28750.237419826764 ; 3141758.970587303 ; 4715038.9368516 ; 0.0
165 ; 12380.515112818426 ; 28750.237419826764 ; 3154308.372543631 ; 4743789.174271427 ; 0.0
166 ; 12341.178284562588 ; 28750.237419826764 ; 3166688.8876564493 ; 4772539.411691254 ; 0.0
167 ; 12116.008689867014 ; 28750.237419826764 ; 3179030.065941012 ; 4801289.649111081 ; 0.0
168 ; 11931.806839181141 ; 28750.237419826764 ; 3191146.074630879 ; 4830039.886530908 ; 0.0
169 ; 11912.557959421902 ; 28750.237419826764 ; 3203077.88147006 ; 4858790.123950735 ; 0.0
170 ; 11824.553077633875 ; 28750.237419826764 ; 3214990.439429482 ; 4887540.361370562 ; 0.0
171 ; 11649.003774581828 ; 28750.237419826764 ; 3226814.992507116 ; 4916290.598790389 ; 0.0
172 ; 11440.480446174028 ; 28750.237419826764 ; 3238463.996281698 ; 4945040.836210215 ; 0.0
173 ; 11420.03733367095 ; 28750.237419826764 ; 3249904.4767278717 ; 4973791.073630042 ; 0.0
174 ; 11075.59701963651 ; 28750.237419826764 ; 3261324.5140615427 ; 5002541.311049869 ; 0.0
175 ; 11534.211278324961 ; 28750.237419826764 ; 3272400.111081179 ; 5031291.548469696 ; 0.0
176 ; 11498.691084546801 ; 28750.237419826764 ; 3283934.322359504 ; 5060041.785889523 ; 0.0
177 ; 11362.110990534302 ; 28750.237419826764 ; 3295433.013444051 ; 5088792.02330935 ; 0.0
178 ; 11543.870448552092 ; 28750.237419826764 ; 3306795.124434585 ; 5117542.260729177 ; 0.0
179 ; 11406.431739695594 ; 28750.237419826764 ; 3318338.9948831373 ; 5146292.498149004 ; 0.0
180 ; 11543.363594197086 ; 28750.237419826764 ; 3329745.4266228327 ; 5175042.735568831 ; 0.0
181 ; 11416.052442322234 ; 28750.237419826764 ; 3341288.79021703 ; 5203792.972988658 ; 0.0
182 ; 11584.055651008339 ; 28750.237419826764 ; 3352704.842659352 ; 5232543.210408485 ; 0.0
183 ; 11465.677629528604 ; 28750.237419826764 ; 3364288.89831036 ; 5261293.4478283115 ; 0.0
184 ; 11448.945496961649 ; 28750.237419826764 ; 3375754.5759398886 ; 5290043.685248138 ; 0.0
185 ; 11648.294187659805 ; 28750.237419826764 ; 3387203.52143685 ; 5318793.922667965 ; 0.0
186 ; 11480.859283771528 ; 28750.237419826764 ; 3398851.81562451 ; 5347544.160087792 ; 0.0
187 ; 11495.90743943098 ; 28750.237419826764 ; 3410332.6749082813 ; 5376294.397507619 ; 0.0
188 ; 11524.427682808688 ; 28750.237419826764 ; 3421828.5823477125 ; 5405044.634927446 ; 0.0
189 ; 11597.333724745466 ; 28750.237419826764 ; 3433353.010030521 ; 5433794.872347273 ; 0.0
190 ; 11973.05716643374 ; 28750.237419826764 ; 3444950.3437552666 ; 5462545.1097671 ; 0.0
191 ; 11772.254194866515 ; 28750.237419826764 ; 3456923.4009217005 ; 5491295.347186927 ; 0.0
192 ; 11705.42405196397 ; 28750.237419826764 ; 3468695.655116567 ; 5520045.584606754 ; 0.0
193 ; 11755.034220255371 ; 28750.237419826764 ; 3480401.079168531 ; 5548795.822026581 ; 0.0
194 ; 11744.259199775415 ; 28750.237419826764 ; 3492156.1133887866 ; 5577546.0594464075 ; 0.0
195 ; 11651.33288092965 ; 28750.237419826764 ; 3503900.372588562 ; 5606296.296866234 ; 0.0
196 ; 11724.080272815987 ; 28750.237419826764 ; 3515551.7054694914 ; 5635046.534286061 ; 0.0
197 ; 11661.712119485615 ; 28750.237419826764 ; 3527275.7857423075 ; 5663796.771705888 ; 0.0
198 ; 11929.120070836652 ; 28750.237419826764 ; 3538937.4978617933 ; 5692547.009125715 ; 0.0
199 ; 11855.341351355019 ; 28750.237419826764 ; 3550866.61793263 ; 5721297.246545542 ; 0.0
200 ; 11817.889779976216 ; 28750.237419826764 ; 3562721.9592839847 ; 5750047.483965369 ; 0.0
201 ; 11927.61218275536 ; 28750.237419826764 ; 3574539.849063961 ; 5778797.721385196 ; 0.0
202 ; 11937.345917824605 ; 28750.237419826764 ; 3586467.4612467163 ; 5807547.958805023 ; 0.0
203 ; 11845.753599389986 ; 28750.237419826764 ; 3598404.807164541 ; 5836298.19622485 ; 0.0
204 ; 11936.082612385047 ; 28750.237419826764 ; 3610250.560763931 ; 5865048.433644677 ; 0.0
205 ; 12070.189196499437 ; 28750.237419826764 ; 3622186.643376316 ; 5893798.6710645035 ; 0.0
206 ; 12130.274822016378 ; 28750.237419826764 ; 3634256.8325728155 ; 5922548.90848433 ; 0.0
207 ; 11953.316647445812 ; 28750.237419826764 ; 3646387.1073948317 ; 5951299.145904157 ; 0.0
208 ; 12296.024384031332 ; 28750.237419826764 ; 3658340.4240422775 ; 5980049.383323984 ; 0.0
209 ; 11913.121448972648 ; 28750.237419826764 ; 3670636.448426309 ; 6008799.620743811 ; 0.0
210 ; 11960.424895083697 ; 28750.237419826764 ; 3682549.569875282 ; 6037549.858163638 ; 0.0
211 ; 12017.16207377352 ; 28750.237419826764 ; 3694509.9947703653 ; 6066300.095583465 ; 0.0
212 ; 12102.522056199157 ; 28750.237419826764 ; 3706527.1568441386 ; 6095050.333003292 ; 0.0
213 ; 12216.174732642325 ; 28750.237419826764 ; 3718629.678900338 ; 6123800.570423119 ; 0.0
