CSV File for the City 1 on Day 262
1 - Minute m 
2 - Power Consumed at minute m 
3 - Power Produced at minute m 
4 - Energy Consumed since the beginning of the day 
5 - Energy Produced since the beginning of the day 
6 - Energy Lost since the beginning of the day on lines starting from the city
 
0 ; 7132.24853204529 ; 3251.0365390017396 ; 0.0 ; 0.0 ; 0.0
1 ; 7646.682538787643 ; 3251.0365390017396 ; 7132.24853204529 ; 3251.0365390017396 ; 238.00000000000003
2 ; 8055.984993029471 ; 3251.0365390017396 ; 14778.931070832932 ; 6502.073078003479 ; 476.00000000000006
3 ; 8611.734512244007 ; 3251.0365390017396 ; 22834.9160638624 ; 9753.109617005219 ; 714.0000000000001
4 ; 9222.081548366681 ; 3251.0365390017396 ; 31446.65057610641 ; 13004.146156006958 ; 952.0000000000001
5 ; 9652.381408977262 ; 3251.0365390017396 ; 40668.73212447309 ; 16255.182695008698 ; 1190.0000000000002
6 ; 10110.497500383342 ; 3251.0365390017396 ; 50321.113533450356 ; 19506.219234010438 ; 1428.0000000000002
7 ; 10627.946256711448 ; 3251.0365390017396 ; 60431.6110338337 ; 22757.255773012177 ; 1666.0000000000002
8 ; 11112.750459321442 ; 3251.0365390017396 ; 71059.55729054516 ; 26008.292312013917 ; 1904.0000000000002
9 ; 11445.994494413098 ; 3251.0365390017396 ; 82172.3077498666 ; 29259.328851015656 ; 2142.0000000000005
10 ; 12137.110531413127 ; 3251.0365390017396 ; 93618.3022442797 ; 32510.365390017396 ; 2380.0000000000005
11 ; 12506.514295980876 ; 3251.0365390017396 ; 105755.41277569282 ; 35761.401929019135 ; 2618.0000000000005
12 ; 13017.44594763403 ; 3251.0365390017396 ; 118261.9270716737 ; 39012.438468020875 ; 2856.0000000000005
13 ; 13487.728192408262 ; 3251.0365390017396 ; 131279.37301930774 ; 42263.475007022615 ; 3094.0000000000005
14 ; 13918.625529555688 ; 3251.0365390017396 ; 144767.10121171598 ; 45514.511546024354 ; 3332.0000000000005
15 ; 14542.775827624335 ; 3251.0365390017396 ; 158685.72674127168 ; 48765.548085026094 ; 3570.0000000000005
16 ; 14892.75516252467 ; 3251.0365390017396 ; 173228.50256889602 ; 52016.58462402783 ; 3808.0000000000005
17 ; 15039.137938299518 ; 3251.0365390017396 ; 188121.2577314207 ; 55267.62116302957 ; 4046.0000000000005
18 ; 15596.608796098912 ; 3251.0365390017396 ; 203160.3956697202 ; 58518.65770203131 ; 4284.000000000001
19 ; 16009.263760647807 ; 3251.0365390017396 ; 218757.0044658191 ; 61769.69424103305 ; 4522.000000000001
20 ; 16426.71042638709 ; 3251.0365390017396 ; 234766.2682264669 ; 65020.73078003479 ; 4760.000000000001
21 ; 16615.10211588155 ; 3251.0365390017396 ; 251192.97865285398 ; 68271.76731903653 ; 4998.000000000001
22 ; 17232.012644123206 ; 3251.0365390017396 ; 267808.08076873556 ; 71522.80385803827 ; 5236.000000000001
23 ; 17490.50877683381 ; 3251.0365390017396 ; 285040.0934128588 ; 74773.84039704001 ; 5474.000000000001
24 ; 17922.707292489216 ; 3251.0365390017396 ; 302530.6021896926 ; 78024.87693604175 ; 5712.000000000001
25 ; 18335.649934840552 ; 3251.0365390017396 ; 320453.30948218185 ; 81275.91347504349 ; 5950.000000000001
26 ; 18895.680689478337 ; 3251.0365390017396 ; 338788.9594170224 ; 84526.95001404523 ; 6188.000000000001
27 ; 18979.587215638872 ; 3251.0365390017396 ; 357684.64010650077 ; 87777.98655304697 ; 6426.000000000001
28 ; 19395.10404195782 ; 3251.0365390017396 ; 376664.22732213966 ; 91029.02309204871 ; 6664.000000000001
29 ; 19826.711492612918 ; 3251.0365390017396 ; 396059.3313640975 ; 94280.05963105045 ; 6902.000000000001
30 ; 20146.321676358442 ; 3251.0365390017396 ; 415886.0428567104 ; 97531.09617005219 ; 7140.000000000001
31 ; 20498.290472274006 ; 3251.0365390017396 ; 436032.36453306885 ; 100782.13270905393 ; 7378.000000000001
32 ; 20851.08574403116 ; 3251.0365390017396 ; 456530.65500534285 ; 104033.16924805567 ; 7616.000000000001
33 ; 21203.262004629596 ; 3251.0365390017396 ; 477381.74074937403 ; 107284.2057870574 ; 7854.000000000001
34 ; 21332.384837980877 ; 3251.0365390017396 ; 498585.0027540036 ; 110535.24232605915 ; 8092.000000000001
35 ; 21680.39795796104 ; 3251.0365390017396 ; 519917.3875919845 ; 113786.27886506089 ; 8330.000000000002
36 ; 22008.05252393047 ; 3251.0365390017396 ; 541597.7855499455 ; 117037.31540406263 ; 8568.000000000002
37 ; 22413.89168213185 ; 3251.0365390017396 ; 563605.838073876 ; 120288.35194306436 ; 8806.000000000002
38 ; 22308.02467386627 ; 3251.0365390017396 ; 586019.7297560078 ; 123539.3884820661 ; 9044.000000000002
39 ; 22874.298440626044 ; 3251.0365390017396 ; 608327.754429874 ; 126790.42502106784 ; 9282.000000000002
40 ; 23221.37460353573 ; 3251.0365390017396 ; 631202.0528705 ; 130041.46156006958 ; 9520.000000000002
41 ; 23514.54822428475 ; 3251.0365390017396 ; 654423.4274740358 ; 133292.49809907132 ; 9758.000000000002
42 ; 23864.004257309116 ; 3251.0365390017396 ; 677937.9756983205 ; 136543.53463807306 ; 9996.000000000002
43 ; 23774.123418399122 ; 3251.0365390017396 ; 701801.9799556297 ; 139794.5711770748 ; 10234.000000000002
44 ; 24182.346209733383 ; 3251.0365390017396 ; 725576.1033740288 ; 143045.60771607654 ; 10472.000000000002
45 ; 24460.571544516315 ; 3251.0365390017396 ; 749758.4495837622 ; 146296.64425507828 ; 10710.000000000002
46 ; 24740.453328978907 ; 3251.0365390017396 ; 774219.0211282786 ; 149547.68079408002 ; 10948.000000000002
47 ; 24955.131535647608 ; 3251.0365390017396 ; 798959.4744572574 ; 152798.71733308176 ; 11186.000000000002
48 ; 25164.06569499202 ; 3251.0365390017396 ; 823914.605992905 ; 156049.7538720835 ; 11424.000000000002
49 ; 25421.168001785198 ; 3251.0365390017396 ; 849078.671687897 ; 159300.79041108524 ; 11662.000000000002
50 ; 25605.95994986337 ; 3251.0365390017396 ; 874499.8396896821 ; 162551.82695008698 ; 11900.000000000002
51 ; 25844.31439141353 ; 3251.0365390017396 ; 900105.7996395455 ; 165802.86348908872 ; 12138.000000000002
52 ; 26017.271114459254 ; 3251.0365390017396 ; 925950.1140309591 ; 169053.90002809046 ; 12376.000000000002
53 ; 26315.250922871517 ; 3251.0365390017396 ; 951967.3851454183 ; 172304.9365670922 ; 12614.000000000002
54 ; 26501.64561470354 ; 3251.0365390017396 ; 978282.6360682899 ; 175555.97310609394 ; 12852.000000000002
55 ; 26552.767340085604 ; 3251.0365390017396 ; 1004784.2816829934 ; 178807.00964509568 ; 13090.000000000002
56 ; 26879.430621892683 ; 3251.0365390017396 ; 1031337.049023079 ; 182058.04618409742 ; 13328.000000000002
57 ; 26955.630268546665 ; 3251.0365390017396 ; 1058216.4796449717 ; 185309.08272309916 ; 13566.000000000002
58 ; 27138.83187576504 ; 3251.0365390017396 ; 1085172.1099135184 ; 188560.1192621009 ; 13804.000000000002
59 ; 27203.679576392195 ; 3251.0365390017396 ; 1112310.9417892834 ; 191811.15580110264 ; 14042.000000000002
60 ; 27528.93283090614 ; 3251.0365390017396 ; 1139514.6213656757 ; 195062.19234010438 ; 14280.000000000002
61 ; 27439.08291446446 ; 3251.0365390017396 ; 1167043.554196582 ; 198313.22887910611 ; 14518.000000000002
62 ; 27493.471609662294 ; 3251.0365390017396 ; 1194482.6371110464 ; 201564.26541810785 ; 14756.000000000002
63 ; 27666.683161222787 ; 3251.0365390017396 ; 1221976.1087207086 ; 204815.3019571096 ; 14994.000000000002
64 ; 27797.09850759268 ; 3251.0365390017396 ; 1249642.7918819315 ; 208066.33849611133 ; 15232.000000000002
65 ; 28047.792357106435 ; 3251.0365390017396 ; 1277439.8903895242 ; 211317.37503511307 ; 15470.000000000002
66 ; 28011.84379981244 ; 3251.0365390017396 ; 1305487.6827466306 ; 214568.4115741148 ; 15708.000000000002
67 ; 28040.14677666785 ; 3251.0365390017396 ; 1333499.526546443 ; 217819.44811311655 ; 15946.000000000002
68 ; 28485.469288385833 ; 3251.0365390017396 ; 1361539.673323111 ; 221070.4846521183 ; 16184.000000000002
69 ; 28324.11859411469 ; 3251.0365390017396 ; 1390025.1426114968 ; 224321.52119112003 ; 16422.000000000004
70 ; 28465.317329590194 ; 3251.0365390017396 ; 1418349.2612056115 ; 227572.55773012177 ; 16660.000000000004
71 ; 28442.37467316471 ; 3251.0365390017396 ; 1446814.5785352017 ; 230823.5942691235 ; 16898.000000000004
72 ; 28648.38591965154 ; 3251.0365390017396 ; 1475256.9532083664 ; 234074.63080812525 ; 17136.000000000004
73 ; 28613.07422923359 ; 3251.0365390017396 ; 1503905.339128018 ; 237325.667347127 ; 17374.000000000004
74 ; 28693.112806033416 ; 3251.0365390017396 ; 1532518.4133572516 ; 240576.70388612873 ; 17612.000000000004
75 ; 28916.788806017736 ; 3251.0365390017396 ; 1561211.526163285 ; 243827.74042513047 ; 17850.000000000004
76 ; 28699.353856793743 ; 3251.0365390017396 ; 1590128.3149693026 ; 247078.7769641322 ; 18088.000000000004
77 ; 28897.69381474909 ; 3251.0365390017396 ; 1618827.6688260965 ; 250329.81350313395 ; 18326.000000000004
78 ; 28953.699644802666 ; 3251.0365390017396 ; 1647725.3626408456 ; 253580.8500421357 ; 18564.000000000004
79 ; 29084.992566765755 ; 3251.0365390017396 ; 1676679.0622856482 ; 256831.88658113743 ; 18802.000000000004
80 ; 28805.272712240218 ; 3251.0365390017396 ; 1705764.054852414 ; 260082.92312013917 ; 19040.000000000004
81 ; 28935.240749648256 ; 3251.0365390017396 ; 1734569.3275646542 ; 263333.9596591409 ; 19278.000000000004
82 ; 28767.8760123491 ; 3251.0365390017396 ; 1763504.5683143025 ; 266584.99619814265 ; 19516.000000000004
83 ; 28867.933093482396 ; 3251.0365390017396 ; 1792272.4443266515 ; 269836.0327371444 ; 19754.000000000004
84 ; 28939.09900853016 ; 3251.0365390017396 ; 1821140.377420134 ; 273087.0692761461 ; 19992.000000000004
85 ; 29000.59124597577 ; 3251.0365390017396 ; 1850079.476428664 ; 276338.10581514786 ; 20230.000000000004
86 ; 29014.513865344645 ; 3251.0365390017396 ; 1879080.0676746399 ; 279589.1423541496 ; 20468.000000000004
87 ; 28953.634101398922 ; 3251.0365390017396 ; 1908094.5815399846 ; 282840.17889315134 ; 20706.000000000004
88 ; 28829.960300234852 ; 3251.0365390017396 ; 1937048.2156413835 ; 286091.2154321531 ; 20944.000000000004
89 ; 28774.45345451553 ; 3251.0365390017396 ; 1965878.1759416184 ; 289342.2519711548 ; 21182.000000000004
90 ; 28663.755804547865 ; 3251.0365390017396 ; 1994652.6293961338 ; 292593.28851015656 ; 21420.000000000004
91 ; 28532.99640154466 ; 3251.0365390017396 ; 2023316.3852006816 ; 295844.3250491583 ; 21658.000000000004
92 ; 28624.43428466697 ; 3251.0365390017396 ; 2051849.3816022263 ; 299095.36158816004 ; 21896.000000000004
93 ; 28615.36279459633 ; 3251.0365390017396 ; 2080473.8158868933 ; 302346.3981271618 ; 22134.000000000004
94 ; 28446.84821858787 ; 3251.0365390017396 ; 2109089.1786814895 ; 305597.4346661635 ; 22372.000000000004
95 ; 28524.254343316497 ; 3251.0365390017396 ; 2137536.0269000772 ; 308848.47120516526 ; 22610.000000000004
96 ; 28242.03051093416 ; 3251.0365390017396 ; 2166060.2812433937 ; 312099.507744167 ; 22848.000000000004
97 ; 28270.309743633617 ; 3251.0365390017396 ; 2194302.3117543277 ; 315350.54428316874 ; 23086.000000000004
98 ; 28127.045406385634 ; 3251.0365390017396 ; 2222572.621497961 ; 318601.5808221705 ; 23324.000000000004
99 ; 27935.376559880166 ; 3251.0365390017396 ; 2250699.666904347 ; 321852.6173611722 ; 23562.000000000004
100 ; 27865.9823423908 ; 3251.0365390017396 ; 2278635.043464227 ; 325103.65390017396 ; 23800.000000000004
101 ; 27769.20708998405 ; 3251.0365390017396 ; 2306501.025806618 ; 328354.6904391757 ; 24038.000000000004
102 ; 27761.561084751556 ; 3251.0365390017396 ; 2334270.232896602 ; 331605.72697817744 ; 24276.000000000004
103 ; 27333.841759656763 ; 3251.0365390017396 ; 2362031.7939813533 ; 334856.7635171792 ; 24514.000000000004
104 ; 27389.7128873656 ; 3251.0365390017396 ; 2389365.63574101 ; 338107.8000561809 ; 24752.000000000004
105 ; 27367.391955753734 ; 3251.0365390017396 ; 2416755.348628375 ; 341358.83659518266 ; 24990.000000000004
106 ; 26996.885617671633 ; 3251.0365390017396 ; 2444122.740584129 ; 344609.8731341844 ; 25228.000000000004
107 ; 26900.54217869675 ; 3251.0365390017396 ; 2471119.6262018005 ; 347860.90967318614 ; 25466.000000000004
108 ; 26754.656276309943 ; 3251.0365390017396 ; 2498020.1683804975 ; 351111.9462121879 ; 25704.000000000004
109 ; 26676.544226495687 ; 3251.0365390017396 ; 2524774.8246568074 ; 354362.9827511896 ; 25942.000000000004
110 ; 26473.68217734928 ; 3251.0365390017396 ; 2551451.368883303 ; 357614.01929019135 ; 26180.000000000004
111 ; 26129.999929238205 ; 3251.0365390017396 ; 2577925.0510606524 ; 360865.0558291931 ; 26418.000000000004
112 ; 26031.63391617015 ; 3251.0365390017396 ; 2604055.0509898905 ; 364116.09236819483 ; 26656.000000000004
113 ; 26015.012768938337 ; 3251.0365390017396 ; 2630086.684906061 ; 367367.1289071966 ; 26894.000000000004
114 ; 25644.416767486608 ; 3251.0365390017396 ; 2656101.697674999 ; 370618.1654461983 ; 27132.000000000004
115 ; 25593.60468569518 ; 3251.0365390017396 ; 2681746.114442486 ; 373869.20198520005 ; 27370.000000000004
116 ; 25397.814112062148 ; 3251.0365390017396 ; 2707339.719128181 ; 377120.2385242018 ; 27608.000000000004
117 ; 24976.043829097882 ; 3251.0365390017396 ; 2732737.5332402433 ; 380371.27506320353 ; 27846.000000000004
118 ; 24792.101235458544 ; 3251.0365390017396 ; 2757713.577069341 ; 383622.3116022053 ; 28084.000000000004
119 ; 24653.830338178555 ; 3251.0365390017396 ; 2782505.6783048 ; 386873.348141207 ; 28322.000000000004
120 ; 24381.505135014442 ; 3251.0365390017396 ; 2807159.5086429785 ; 390124.38468020875 ; 28560.000000000004
121 ; 24030.155190848527 ; 3251.0365390017396 ; 2831541.013777993 ; 393375.4212192105 ; 28798.000000000004
122 ; 23812.14297529336 ; 3251.0365390017396 ; 2855571.168968842 ; 396626.45775821223 ; 29036.000000000004
123 ; 23488.79908376108 ; 3251.0365390017396 ; 2879383.3119441355 ; 399877.49429721397 ; 29274.000000000004
124 ; 23218.525135756056 ; 3251.0365390017396 ; 2902872.1110278964 ; 403128.5308362157 ; 29512.000000000004
125 ; 22896.237007945067 ; 3251.0365390017396 ; 2926090.6361636524 ; 406379.56737521745 ; 29750.000000000004
126 ; 22609.707449966903 ; 3251.0365390017396 ; 2948986.8731715973 ; 409630.6039142192 ; 29988.000000000004
127 ; 22213.758203741225 ; 3251.0365390017396 ; 2971596.5806215643 ; 412881.6404532209 ; 30226.000000000004
128 ; 21921.960539072632 ; 3251.0365390017396 ; 2993810.3388253055 ; 416132.67699222267 ; 30464.000000000004
129 ; 21924.665807794212 ; 3251.0365390017396 ; 3015732.299364378 ; 419383.7135312244 ; 30702.000000000004
130 ; 21506.30050992932 ; 3251.0365390017396 ; 3037656.9651721725 ; 422634.75007022615 ; 30940.000000000004
131 ; 21172.20991317973 ; 3251.0365390017396 ; 3059163.2656821017 ; 425885.7866092279 ; 31178.000000000004
132 ; 20888.406402791148 ; 3251.0365390017396 ; 3080335.4755952815 ; 429136.8231482296 ; 31416.000000000004
133 ; 20460.83329650458 ; 3251.0365390017396 ; 3101223.8819980724 ; 432387.85968723136 ; 31654.000000000004
134 ; 19996.128435904146 ; 3251.0365390017396 ; 3121684.715294577 ; 435638.8962262331 ; 31892.000000000004
135 ; 19955.39600428793 ; 3251.0365390017396 ; 3141680.8437304813 ; 438889.93276523484 ; 32130.000000000004
136 ; 19392.89296588224 ; 3251.0365390017396 ; 3161636.2397347693 ; 442140.9693042366 ; 32368.000000000004
137 ; 19287.18529898177 ; 3251.0365390017396 ; 3181029.1327006514 ; 445392.0058432383 ; 32606.000000000004
138 ; 18608.949116036438 ; 3251.0365390017396 ; 3200316.317999633 ; 448643.04238224006 ; 32844.00000000001
139 ; 18473.553734099176 ; 3251.0365390017396 ; 3218925.2671156693 ; 451894.0789212418 ; 33082.00000000001
140 ; 17926.672033129278 ; 3251.0365390017396 ; 3237398.8208497684 ; 455145.11546024354 ; 33320.00000000001
141 ; 17664.305000445984 ; 3251.0365390017396 ; 3255325.4928828976 ; 458396.1519992453 ; 33558.00000000001
142 ; 17272.132025749313 ; 3251.0365390017396 ; 3272989.7978833434 ; 461647.188538247 ; 33796.00000000001
143 ; 16853.807845089013 ; 3251.0365390017396 ; 3290261.929909093 ; 464898.22507724876 ; 34034.00000000001
144 ; 16538.451964361462 ; 3251.0365390017396 ; 3307115.737754182 ; 468149.2616162505 ; 34272.00000000001
145 ; 16401.57117810075 ; 3251.0365390017396 ; 3323654.1897185436 ; 471400.29815525224 ; 34510.00000000001
146 ; 16133.724720782504 ; 3251.0365390017396 ; 3340055.760896644 ; 474651.334694254 ; 34748.00000000001
147 ; 16093.039896407887 ; 3251.0365390017396 ; 3356189.4856174267 ; 477902.3712332557 ; 34986.00000000001
148 ; 16087.229655902565 ; 3251.0365390017396 ; 3372282.525513835 ; 481153.40777225746 ; 35224.00000000001
149 ; 15930.880385618904 ; 3251.0365390017396 ; 3388369.755169737 ; 484404.4443112592 ; 35462.00000000001
150 ; 15744.966382336132 ; 3251.0365390017396 ; 3404300.6355553563 ; 487655.48085026094 ; 35700.00000000001
151 ; 15704.238356195783 ; 3251.0365390017396 ; 3420045.6019376926 ; 490906.5173892627 ; 35938.00000000001
152 ; 15492.396897442535 ; 3251.0365390017396 ; 3435749.8402938885 ; 494157.5539282644 ; 36176.00000000001
153 ; 15536.146172478459 ; 3251.0365390017396 ; 3451242.237191331 ; 497408.59046726616 ; 36414.00000000001
154 ; 15192.748526681053 ; 3251.0365390017396 ; 3466778.3833638094 ; 500659.6270062679 ; 36652.00000000001
155 ; 15083.431035754118 ; 3251.0365390017396 ; 3481971.1318904907 ; 503910.66354526964 ; 36890.00000000001
156 ; 14923.711628583187 ; 3251.0365390017396 ; 3497054.562926245 ; 507161.7000842714 ; 37128.00000000001
157 ; 15027.382822490032 ; 3251.0365390017396 ; 3511978.274554828 ; 510412.7366232731 ; 37366.00000000001
158 ; 14601.311134323289 ; 3251.0365390017396 ; 3527005.657377318 ; 513663.77316227485 ; 37604.00000000001
159 ; 14575.340742761475 ; 3251.0365390017396 ; 3541606.9685116415 ; 516914.8097012766 ; 37842.00000000001
160 ; 14638.0153824722 ; 3251.0365390017396 ; 3556182.3092544028 ; 520165.84624027833 ; 38080.00000000001
161 ; 14410.93803285777 ; 3251.0365390017396 ; 3570820.324636875 ; 523416.8827792801 ; 38318.00000000001
162 ; 14082.12588434713 ; 3251.0365390017396 ; 3585231.262669733 ; 526667.9193182818 ; 38556.00000000001
163 ; 13840.28283291773 ; 3251.0365390017396 ; 3599313.38855408 ; 529918.9558572836 ; 38794.00000000001
164 ; 13744.306484064839 ; 3251.0365390017396 ; 3613153.6713869977 ; 533169.9923962853 ; 39032.00000000001
165 ; 13673.155785961926 ; 3251.0365390017396 ; 3626897.9778710627 ; 536421.028935287 ; 39270.00000000001
166 ; 13484.245595305276 ; 3251.0365390017396 ; 3640571.1336570247 ; 539672.0654742888 ; 39508.00000000001
167 ; 13393.247860633033 ; 3251.0365390017396 ; 3654055.37925233 ; 542923.1020132905 ; 39746.00000000001
168 ; 13206.455284285796 ; 3251.0365390017396 ; 3667448.627112963 ; 546174.1385522923 ; 39984.00000000001
169 ; 12988.170692255977 ; 3251.0365390017396 ; 3680655.0823972486 ; 549425.175091294 ; 40222.00000000001
170 ; 12904.29258467251 ; 3251.0365390017396 ; 3693643.253089505 ; 552676.2116302957 ; 40460.00000000001
171 ; 12509.331198262387 ; 3251.0365390017396 ; 3706547.5456741774 ; 555927.2481692975 ; 40698.00000000001
172 ; 12536.837638627498 ; 3251.0365390017396 ; 3719056.87687244 ; 559178.2847082992 ; 40936.00000000001
173 ; 12463.453626943943 ; 3251.0365390017396 ; 3731593.714511067 ; 562429.321247301 ; 41174.00000000001
174 ; 12352.899244059266 ; 3251.0365390017396 ; 3744057.168138011 ; 565680.3577863027 ; 41412.00000000001
175 ; 12605.469697198936 ; 3251.0365390017396 ; 3756410.0673820702 ; 568931.3943253044 ; 41650.00000000001
176 ; 12567.86216134334 ; 3251.0365390017396 ; 3769015.537079269 ; 572182.4308643062 ; 41888.00000000001
177 ; 12594.517712613564 ; 3251.0365390017396 ; 3781583.3992406125 ; 575433.4674033079 ; 42126.00000000001
178 ; 12474.37111228027 ; 3251.0365390017396 ; 3794177.916953226 ; 578684.5039423096 ; 42364.00000000001
179 ; 12428.166808935104 ; 3251.0365390017396 ; 3806652.288065506 ; 581935.5404813114 ; 42602.00000000001
180 ; 12620.475388568922 ; 3251.0365390017396 ; 3819080.454874441 ; 585186.5770203131 ; 42840.00000000001
181 ; 12729.882254327602 ; 3251.0365390017396 ; 3831700.93026301 ; 588437.6135593149 ; 43078.00000000001
182 ; 12687.37425607405 ; 3251.0365390017396 ; 3844430.8125173375 ; 591688.6500983166 ; 43316.00000000001
183 ; 12801.00339145254 ; 3251.0365390017396 ; 3857118.1867734115 ; 594939.6866373183 ; 43554.00000000001
184 ; 12816.34536145518 ; 3251.0365390017396 ; 3869919.190164864 ; 598190.7231763201 ; 43792.00000000001
