CSV File for the City 1 on Day 283
1 - Minute m 
2 - Power Consumed at minute m 
3 - Power Produced at minute m 
4 - Energy Consumed since the beginning of the day 
5 - Energy Produced since the beginning of the day 
6 - Energy Lost since the beginning of the day on lines starting from the city
 
0 ; 9032.277745354557 ; 4032.7470666599547 ; 0.0 ; 0.0 ; 0.0
1 ; 9583.671629505081 ; 4032.7470666599547 ; 9032.277745354557 ; 4032.7470666599547 ; 238.00000000000003
2 ; 10024.818577614538 ; 4032.7470666599547 ; 18615.949374859636 ; 8065.494133319909 ; 476.00000000000006
3 ; 10420.971587464464 ; 4032.7470666599547 ; 28640.767952474176 ; 12098.241199979864 ; 714.0000000000001
4 ; 10859.260341528632 ; 4032.7470666599547 ; 39061.739539938644 ; 16130.988266639819 ; 952.0000000000001
5 ; 11286.333487832186 ; 4032.7470666599547 ; 49920.99988146727 ; 20163.735333299774 ; 1190.0000000000002
6 ; 11733.207684451852 ; 4032.7470666599547 ; 61207.33336929946 ; 24196.48239995973 ; 1428.0000000000002
7 ; 12087.116106873858 ; 4032.7470666599547 ; 72940.54105375131 ; 28229.229466619683 ; 1666.0000000000002
8 ; 12597.569173559405 ; 4032.7470666599547 ; 85027.65716062517 ; 32261.976533279638 ; 1904.0000000000002
9 ; 12991.735506192033 ; 4032.7470666599547 ; 97625.22633418457 ; 36294.72359993959 ; 2142.0000000000005
10 ; 13432.407491029511 ; 4032.7470666599547 ; 110616.9618403766 ; 40327.47066659955 ; 2380.0000000000005
11 ; 13779.520139422451 ; 4032.7470666599547 ; 124049.36933140612 ; 44360.2177332595 ; 2618.0000000000005
12 ; 14148.254959015821 ; 4032.7470666599547 ; 137828.88947082858 ; 48392.96479991946 ; 2856.0000000000005
13 ; 14583.84677865938 ; 4032.7470666599547 ; 151977.1444298444 ; 52425.71186657941 ; 3094.0000000000005
14 ; 14831.681749252164 ; 4032.7470666599547 ; 166560.99120850378 ; 56458.458933239366 ; 3332.0000000000005
15 ; 15465.889365178731 ; 4032.7470666599547 ; 181392.67295775595 ; 60491.20599989932 ; 3570.0000000000005
16 ; 15847.398145311943 ; 4032.7470666599547 ; 196858.56232293468 ; 64523.953066559276 ; 3808.0000000000005
17 ; 16221.528098006995 ; 4032.7470666599547 ; 212705.96046824663 ; 68556.70013321923 ; 4046.0000000000005
18 ; 16495.733243521303 ; 4032.7470666599547 ; 228927.48856625363 ; 72589.44719987919 ; 4284.000000000001
19 ; 16823.585112224024 ; 4032.7470666599547 ; 245423.22180977493 ; 76622.19426653914 ; 4522.000000000001
20 ; 17300.920251522763 ; 4032.7470666599547 ; 262246.80692199897 ; 80654.9413331991 ; 4760.000000000001
21 ; 17434.801042814826 ; 4032.7470666599547 ; 279547.7271735217 ; 84687.68839985905 ; 4998.000000000001
22 ; 17949.726437847596 ; 4032.7470666599547 ; 296982.5282163365 ; 88720.435466519 ; 5236.000000000001
23 ; 18288.78465526649 ; 4032.7470666599547 ; 314932.2546541841 ; 92753.18253317896 ; 5474.000000000001
24 ; 18431.756661427135 ; 4032.7470666599547 ; 333221.0393094506 ; 96785.92959983891 ; 5712.000000000001
25 ; 18964.249987236766 ; 4032.7470666599547 ; 351652.79597087775 ; 100818.67666649887 ; 5950.000000000001
26 ; 19208.145815620304 ; 4032.7470666599547 ; 370617.0459581145 ; 104851.42373315882 ; 6188.000000000001
27 ; 19491.415761775654 ; 4032.7470666599547 ; 389825.1917737348 ; 108884.17079981878 ; 6426.000000000001
28 ; 19779.765312121726 ; 4032.7470666599547 ; 409316.60753551044 ; 112916.91786647873 ; 6664.000000000001
29 ; 20132.239302279428 ; 4032.7470666599547 ; 429096.37284763216 ; 116949.66493313869 ; 6902.000000000001
30 ; 20470.805396158736 ; 4032.7470666599547 ; 449228.6121499116 ; 120982.41199979864 ; 7140.000000000001
31 ; 20730.69368525245 ; 4032.7470666599547 ; 469699.4175460703 ; 125015.1590664586 ; 7378.000000000001
32 ; 21196.097750979818 ; 4032.7470666599547 ; 490430.11123132275 ; 129047.90613311855 ; 7616.000000000001
33 ; 21330.776216401482 ; 4032.7470666599547 ; 511626.2089823026 ; 133080.65319977852 ; 7854.000000000001
34 ; 21559.06298193485 ; 4032.7470666599547 ; 532956.9851987041 ; 137113.4002664385 ; 8092.000000000001
35 ; 21808.212125511436 ; 4032.7470666599547 ; 554516.0481806389 ; 141146.14733309846 ; 8330.000000000002
36 ; 21984.850736489905 ; 4032.7470666599547 ; 576324.2603061504 ; 145178.89439975843 ; 8568.000000000002
37 ; 22393.589831800673 ; 4032.7470666599547 ; 598309.1110426403 ; 149211.6414664184 ; 8806.000000000002
38 ; 22830.63120046925 ; 4032.7470666599547 ; 620702.700874441 ; 153244.38853307837 ; 9044.000000000002
39 ; 22707.216363707455 ; 4032.7470666599547 ; 643533.3320749102 ; 157277.13559973834 ; 9282.000000000002
40 ; 23179.7690451278 ; 4032.7470666599547 ; 666240.5484386176 ; 161309.8826663983 ; 9520.000000000002
41 ; 23212.262652696743 ; 4032.7470666599547 ; 689420.3174837454 ; 165342.62973305827 ; 9758.000000000002
42 ; 23374.276550966988 ; 4032.7470666599547 ; 712632.5801364421 ; 169375.37679971824 ; 9996.000000000002
43 ; 23731.798841082236 ; 4032.7470666599547 ; 736006.8566874091 ; 173408.1238663782 ; 10234.000000000002
44 ; 23798.98020219982 ; 4032.7470666599547 ; 759738.6555284914 ; 177440.87093303818 ; 10472.000000000002
45 ; 24318.82063861814 ; 4032.7470666599547 ; 783537.6357306911 ; 181473.61799969815 ; 10710.000000000002
46 ; 24300.0831261396 ; 4032.7470666599547 ; 807856.4563693092 ; 185506.36506635812 ; 10948.000000000002
47 ; 24641.979346069966 ; 4032.7470666599547 ; 832156.5394954488 ; 189539.1121330181 ; 11186.000000000002
48 ; 24738.318020058097 ; 4032.7470666599547 ; 856798.5188415188 ; 193571.85919967806 ; 11424.000000000002
49 ; 24809.493272681102 ; 4032.7470666599547 ; 881536.8368615769 ; 197604.60626633803 ; 11662.000000000002
50 ; 25280.172307614084 ; 4032.7470666599547 ; 906346.330134258 ; 201637.353332998 ; 11900.000000000002
51 ; 25210.51174134926 ; 4032.7470666599547 ; 931626.5024418721 ; 205670.10039965797 ; 12138.000000000002
52 ; 25571.306527619734 ; 4032.7470666599547 ; 956837.0141832214 ; 209702.84746631794 ; 12376.000000000002
53 ; 25973.40392283029 ; 4032.7470666599547 ; 982408.3207108411 ; 213735.5945329779 ; 12614.000000000002
54 ; 25766.594614534246 ; 4032.7470666599547 ; 1008381.7246336713 ; 217768.34159963788 ; 12852.000000000002
55 ; 26041.558450459477 ; 4032.7470666599547 ; 1034148.3192482056 ; 221801.08866629784 ; 13090.000000000002
56 ; 26174.94251071689 ; 4032.7470666599547 ; 1060189.877698665 ; 225833.8357329578 ; 13328.000000000002
57 ; 26386.73607053554 ; 4032.7470666599547 ; 1086364.8202093819 ; 229866.58279961778 ; 13566.000000000002
58 ; 26347.276267474277 ; 4032.7470666599547 ; 1112751.5562799175 ; 233899.32986627775 ; 13804.000000000002
59 ; 26515.655608904883 ; 4032.7470666599547 ; 1139098.8325473918 ; 237932.07693293772 ; 14042.000000000002
60 ; 26873.92167458748 ; 4032.7470666599547 ; 1165614.4881562965 ; 241964.8239995977 ; 14280.000000000002
61 ; 26853.11764441733 ; 4032.7470666599547 ; 1192488.409830884 ; 245997.57106625766 ; 14518.000000000002
62 ; 26860.028110861538 ; 4032.7470666599547 ; 1219341.5274753014 ; 250030.31813291763 ; 14756.000000000002
63 ; 27087.493020801932 ; 4032.7470666599547 ; 1246201.555586163 ; 254063.0651995776 ; 14994.000000000002
64 ; 27337.095029515265 ; 4032.7470666599547 ; 1273289.048606965 ; 258095.81226623757 ; 15232.000000000002
65 ; 27317.597773094847 ; 4032.7470666599547 ; 1300626.1436364802 ; 262128.55933289754 ; 15470.000000000002
66 ; 27476.64787061281 ; 4032.7470666599547 ; 1327943.741409575 ; 266161.3063995575 ; 15708.000000000002
67 ; 27401.222901900048 ; 4032.7470666599547 ; 1355420.389280188 ; 270194.0534662175 ; 15946.000000000002
68 ; 27675.774304686194 ; 4032.7470666599547 ; 1382821.612182088 ; 274226.80053287745 ; 16184.000000000002
69 ; 27419.62972825809 ; 4032.7470666599547 ; 1410497.386486774 ; 278259.5475995374 ; 16422.000000000004
70 ; 27845.398938373048 ; 4032.7470666599547 ; 1437917.0162150322 ; 282292.2946661974 ; 16660.000000000004
71 ; 27878.007705748507 ; 4032.7470666599547 ; 1465762.4151534052 ; 286325.04173285735 ; 16898.000000000004
72 ; 27690.155887837067 ; 4032.7470666599547 ; 1493640.4228591537 ; 290357.7887995173 ; 17136.000000000004
73 ; 27839.933570177393 ; 4032.7470666599547 ; 1521330.5787469908 ; 294390.5358661773 ; 17374.000000000004
74 ; 27908.060380220613 ; 4032.7470666599547 ; 1549170.512317168 ; 298423.28293283726 ; 17612.000000000004
75 ; 28039.08629046639 ; 4032.7470666599547 ; 1577078.5726973887 ; 302456.02999949723 ; 17850.000000000004
76 ; 27932.413053103883 ; 4032.7470666599547 ; 1605117.658987855 ; 306488.7770661572 ; 18088.000000000004
77 ; 28039.54118276465 ; 4032.7470666599547 ; 1633050.072040959 ; 310521.52413281717 ; 18326.000000000004
78 ; 27993.757737686916 ; 4032.7470666599547 ; 1661089.6132237236 ; 314554.27119947714 ; 18564.000000000004
79 ; 27911.67650093812 ; 4032.7470666599547 ; 1689083.3709614105 ; 318587.0182661371 ; 18802.000000000004
80 ; 27978.5056424954 ; 4032.7470666599547 ; 1716995.0474623486 ; 322619.7653327971 ; 19040.000000000004
81 ; 28049.724013172356 ; 4032.7470666599547 ; 1744973.553104844 ; 326652.51239945705 ; 19278.000000000004
82 ; 27773.518032518616 ; 4032.7470666599547 ; 1773023.2771180163 ; 330685.259466117 ; 19516.000000000004
83 ; 28020.039024040056 ; 4032.7470666599547 ; 1800796.795150535 ; 334718.006532777 ; 19754.000000000004
84 ; 28115.97435169244 ; 4032.7470666599547 ; 1828816.834174575 ; 338750.75359943695 ; 19992.000000000004
85 ; 28020.37041901957 ; 4032.7470666599547 ; 1856932.8085262675 ; 342783.5006660969 ; 20230.000000000004
86 ; 28000.444952766145 ; 4032.7470666599547 ; 1884953.1789452871 ; 346816.2477327569 ; 20468.000000000004
87 ; 27880.003789147067 ; 4032.7470666599547 ; 1912953.6238980533 ; 350848.99479941686 ; 20706.000000000004
88 ; 27955.424312412182 ; 4032.7470666599547 ; 1940833.6276872004 ; 354881.74186607683 ; 20944.000000000004
89 ; 27836.264650832873 ; 4032.7470666599547 ; 1968789.0519996127 ; 358914.4889327368 ; 21182.000000000004
90 ; 27655.278812618533 ; 4032.7470666599547 ; 1996625.3166504456 ; 362947.23599939677 ; 21420.000000000004
91 ; 27775.64783197354 ; 4032.7470666599547 ; 2024280.595463064 ; 366979.98306605674 ; 21658.000000000004
92 ; 27697.343411577946 ; 4032.7470666599547 ; 2052056.2432950377 ; 371012.7301327167 ; 21896.000000000004
93 ; 27527.852569678904 ; 4032.7470666599547 ; 2079753.5867066155 ; 375045.4771993767 ; 22134.000000000004
94 ; 27503.174890610968 ; 4032.7470666599547 ; 2107281.4392762943 ; 379078.22426603665 ; 22372.000000000004
95 ; 27312.564232527264 ; 4032.7470666599547 ; 2134784.614166905 ; 383110.9713326966 ; 22610.000000000004
96 ; 27522.58496309133 ; 4032.7470666599547 ; 2162097.1783994325 ; 387143.7183993566 ; 22848.000000000004
97 ; 27266.836828030944 ; 4032.7470666599547 ; 2189619.7633625236 ; 391176.46546601655 ; 23086.000000000004
98 ; 27287.39219409609 ; 4032.7470666599547 ; 2216886.6001905547 ; 395209.2125326765 ; 23324.000000000004
99 ; 27017.145414956958 ; 4032.7470666599547 ; 2244173.9923846507 ; 399241.9595993365 ; 23562.000000000004
100 ; 27101.966469491057 ; 4032.7470666599547 ; 2271191.1377996076 ; 403274.70666599646 ; 23800.000000000004
101 ; 26954.936050115866 ; 4032.7470666599547 ; 2298293.1042690985 ; 407307.45373265643 ; 24038.000000000004
102 ; 26799.397542064537 ; 4032.7470666599547 ; 2325248.0403192146 ; 411340.2007993164 ; 24276.000000000004
103 ; 26620.887169245434 ; 4032.7470666599547 ; 2352047.437861279 ; 415372.94786597637 ; 24514.000000000004
104 ; 26312.74820518878 ; 4032.7470666599547 ; 2378668.3250305247 ; 419405.69493263634 ; 24752.000000000004
105 ; 26447.621185690234 ; 4032.7470666599547 ; 2404981.0732357134 ; 423438.4419992963 ; 24990.000000000004
106 ; 26245.951132527403 ; 4032.7470666599547 ; 2431428.6944214036 ; 427471.1890659563 ; 25228.000000000004
107 ; 26134.28887512429 ; 4032.7470666599547 ; 2457674.645553931 ; 431503.93613261625 ; 25466.000000000004
108 ; 25812.2570366657 ; 4032.7470666599547 ; 2483808.9344290555 ; 435536.6831992762 ; 25704.000000000004
109 ; 25910.21997676019 ; 4032.7470666599547 ; 2509621.1914657215 ; 439569.4302659362 ; 25942.000000000004
110 ; 25544.100566858036 ; 4032.7470666599547 ; 2535531.4114424814 ; 443602.17733259615 ; 26180.000000000004
111 ; 25466.956875659387 ; 4032.7470666599547 ; 2561075.5120093394 ; 447634.9243992561 ; 26418.000000000004
112 ; 25399.70834933744 ; 4032.7470666599547 ; 2586542.468884999 ; 451667.6714659161 ; 26656.000000000004
113 ; 25156.083954521084 ; 4032.7470666599547 ; 2611942.1772343363 ; 455700.41853257606 ; 26894.000000000004
114 ; 24921.549414738827 ; 4032.7470666599547 ; 2637098.2611888573 ; 459733.16559923603 ; 27132.000000000004
115 ; 24713.48519716772 ; 4032.7470666599547 ; 2662019.8106035963 ; 463765.912665896 ; 27370.000000000004
116 ; 24555.68191962041 ; 4032.7470666599547 ; 2686733.295800764 ; 467798.65973255597 ; 27608.000000000004
117 ; 24361.30366840009 ; 4032.7470666599547 ; 2711288.9777203845 ; 471831.40679921594 ; 27846.000000000004
118 ; 24200.052605551904 ; 4032.7470666599547 ; 2735650.2813887848 ; 475864.1538658759 ; 28084.000000000004
119 ; 23840.871793724138 ; 4032.7470666599547 ; 2759850.333994337 ; 479896.9009325359 ; 28322.000000000004
120 ; 23716.122328038797 ; 4032.7470666599547 ; 2783691.205788061 ; 483929.64799919585 ; 28560.000000000004
121 ; 23645.354225908515 ; 4032.7470666599547 ; 2807407.3281161 ; 487962.3950658558 ; 28798.000000000004
122 ; 23137.548787589156 ; 4032.7470666599547 ; 2831052.682342008 ; 491995.1421325158 ; 29036.000000000004
123 ; 23019.18357652991 ; 4032.7470666599547 ; 2854190.2311295974 ; 496027.88919917576 ; 29274.000000000004
124 ; 22842.682872445006 ; 4032.7470666599547 ; 2877209.4147061273 ; 500060.6362658357 ; 29512.000000000004
125 ; 22416.719748551208 ; 4032.7470666599547 ; 2900052.097578572 ; 504093.3833324957 ; 29750.000000000004
126 ; 22408.532780571302 ; 4032.7470666599547 ; 2922468.817327123 ; 508126.13039915566 ; 29988.000000000004
127 ; 22055.5721189974 ; 4032.7470666599547 ; 2944877.3501076945 ; 512158.87746581563 ; 30226.000000000004
128 ; 21824.01270061021 ; 4032.7470666599547 ; 2966932.922226692 ; 516191.6245324756 ; 30464.000000000004
129 ; 21542.093196737507 ; 4032.7470666599547 ; 2988756.9349273024 ; 520224.3715991356 ; 30702.000000000004
130 ; 21250.997391304583 ; 4032.7470666599547 ; 3010299.02812404 ; 524257.11866579554 ; 30940.000000000004
131 ; 20938.954873653296 ; 4032.7470666599547 ; 3031550.0255153445 ; 528289.8657324555 ; 31178.000000000004
132 ; 20592.305307727216 ; 4032.7470666599547 ; 3052488.9803889976 ; 532322.6127991155 ; 31416.000000000004
133 ; 20487.96355563375 ; 4032.7470666599547 ; 3073081.285696725 ; 536355.3598657754 ; 31654.000000000004
134 ; 20041.76149743363 ; 4032.7470666599547 ; 3093569.2492523585 ; 540388.1069324354 ; 31892.000000000004
135 ; 19644.78567326539 ; 4032.7470666599547 ; 3113611.010749792 ; 544420.8539990954 ; 32130.000000000004
136 ; 19519.789305315884 ; 4032.7470666599547 ; 3133255.7964230576 ; 548453.6010657554 ; 32368.000000000004
137 ; 19133.44943167354 ; 4032.7470666599547 ; 3152775.5857283734 ; 552486.3481324153 ; 32606.000000000004
138 ; 18829.66461801222 ; 4032.7470666599547 ; 3171909.035160047 ; 556519.0951990753 ; 32844.00000000001
139 ; 18384.15270294807 ; 4032.7470666599547 ; 3190738.699778059 ; 560551.8422657353 ; 33082.00000000001
140 ; 18019.58815664205 ; 4032.7470666599547 ; 3209122.852481007 ; 564584.5893323952 ; 33320.00000000001
141 ; 17829.22679534664 ; 4032.7470666599547 ; 3227142.440637649 ; 568617.3363990552 ; 33558.00000000001
142 ; 17531.993933244103 ; 4032.7470666599547 ; 3244971.6674329955 ; 572650.0834657152 ; 33796.00000000001
143 ; 17163.32354747361 ; 4032.7470666599547 ; 3262503.6613662397 ; 576682.8305323751 ; 34034.00000000001
144 ; 16836.72622115972 ; 4032.7470666599547 ; 3279666.9849137133 ; 580715.5775990351 ; 34272.00000000001
145 ; 16737.40591245527 ; 4032.7470666599547 ; 3296503.711134873 ; 584748.3246656951 ; 34510.00000000001
146 ; 16335.884065099064 ; 4032.7470666599547 ; 3313241.117047328 ; 588781.071732355 ; 34748.00000000001
147 ; 16569.923123750403 ; 4032.7470666599547 ; 3329577.001112427 ; 592813.818799015 ; 34986.00000000001
148 ; 16324.78281111282 ; 4032.7470666599547 ; 3346146.9242361775 ; 596846.565865675 ; 35224.00000000001
149 ; 16257.736100018272 ; 4032.7470666599547 ; 3362471.70704729 ; 600879.312932335 ; 35462.00000000001
150 ; 16127.274871389103 ; 4032.7470666599547 ; 3378729.4431473087 ; 604912.0599989949 ; 35700.00000000001
151 ; 15771.14854475094 ; 4032.7470666599547 ; 3394856.7180186976 ; 608944.8070656549 ; 35938.00000000001
152 ; 15972.523997325357 ; 4032.7470666599547 ; 3410627.8665634487 ; 612977.5541323149 ; 36176.00000000001
153 ; 15715.532859292216 ; 4032.7470666599547 ; 3426600.390560774 ; 617010.3011989748 ; 36414.00000000001
154 ; 15817.692448986707 ; 4032.7470666599547 ; 3442315.9234200665 ; 621043.0482656348 ; 36652.00000000001
155 ; 15498.589687116257 ; 4032.7470666599547 ; 3458133.615869053 ; 625075.7953322948 ; 36890.00000000001
156 ; 15616.051184927714 ; 4032.7470666599547 ; 3473632.2055561696 ; 629108.5423989547 ; 37128.00000000001
157 ; 15327.49059694061 ; 4032.7470666599547 ; 3489248.256741097 ; 633141.2894656147 ; 37366.00000000001
158 ; 15284.81790112957 ; 4032.7470666599547 ; 3504575.747338038 ; 637174.0365322747 ; 37604.00000000001
159 ; 15094.6457860644 ; 4032.7470666599547 ; 3519860.5652391673 ; 641206.7835989346 ; 37842.00000000001
160 ; 14870.628625551508 ; 4032.7470666599547 ; 3534955.2110252315 ; 645239.5306655946 ; 38080.00000000001
161 ; 14753.23963830162 ; 4032.7470666599547 ; 3549825.839650783 ; 649272.2777322546 ; 38318.00000000001
162 ; 14764.973724794092 ; 4032.7470666599547 ; 3564579.0792890848 ; 653305.0247989146 ; 38556.00000000001
163 ; 14450.060266610832 ; 4032.7470666599547 ; 3579344.053013879 ; 657337.7718655745 ; 38794.00000000001
164 ; 14377.647691893235 ; 4032.7470666599547 ; 3593794.1132804896 ; 661370.5189322345 ; 39032.00000000001
165 ; 14196.63214437741 ; 4032.7470666599547 ; 3608171.760972383 ; 665403.2659988945 ; 39270.00000000001
166 ; 14059.475468723429 ; 4032.7470666599547 ; 3622368.3931167605 ; 669436.0130655544 ; 39508.00000000001
167 ; 13907.467728498685 ; 4032.7470666599547 ; 3636427.868585484 ; 673468.7601322144 ; 39746.00000000001
168 ; 13682.47308489726 ; 4032.7470666599547 ; 3650335.336313983 ; 677501.5071988744 ; 39984.00000000001
169 ; 13764.471448418759 ; 4032.7470666599547 ; 3664017.80939888 ; 681534.2542655343 ; 40222.00000000001
170 ; 13561.597971932872 ; 4032.7470666599547 ; 3677782.280847299 ; 685567.0013321943 ; 40460.00000000001
171 ; 13341.849746861415 ; 4032.7470666599547 ; 3691343.878819232 ; 689599.7483988543 ; 40698.00000000001
172 ; 13201.24935394165 ; 4032.7470666599547 ; 3704685.7285660934 ; 693632.4954655143 ; 40936.00000000001
173 ; 13058.525053610538 ; 4032.7470666599547 ; 3717886.977920035 ; 697665.2425321742 ; 41174.00000000001
174 ; 13180.596199758596 ; 4032.7470666599547 ; 3730945.5029736455 ; 701697.9895988342 ; 41412.00000000001
175 ; 12945.009668329614 ; 4032.7470666599547 ; 3744126.0991734043 ; 705730.7366654942 ; 41650.00000000001
176 ; 13191.940542866334 ; 4032.7470666599547 ; 3757071.108841734 ; 709763.4837321541 ; 41888.00000000001
177 ; 13048.388034892123 ; 4032.7470666599547 ; 3770263.0493846005 ; 713796.2307988141 ; 42126.00000000001
178 ; 13121.59873743455 ; 4032.7470666599547 ; 3783311.4374194928 ; 717828.9778654741 ; 42364.00000000001
179 ; 13027.86733109525 ; 4032.7470666599547 ; 3796433.0361569272 ; 721861.724932134 ; 42602.00000000001
180 ; 13276.539754851365 ; 4032.7470666599547 ; 3809460.9034880223 ; 725894.471998794 ; 42840.00000000001
181 ; 13149.692676894378 ; 4032.7470666599547 ; 3822737.4432428735 ; 729927.219065454 ; 43078.00000000001
182 ; 13243.94154893752 ; 4032.7470666599547 ; 3835887.135919768 ; 733959.966132114 ; 43316.00000000001
183 ; 13218.972900173547 ; 4032.7470666599547 ; 3849131.0774687054 ; 737992.7131987739 ; 43554.00000000001
184 ; 13259.862016280123 ; 4032.7470666599547 ; 3862350.050368879 ; 742025.4602654339 ; 43792.00000000001
