CSV File for the City 1 on Day 166
1 - Minute m 
2 - Power Consumed at minute m 
3 - Power Produced at minute m 
4 - Energy Consumed since the beginning of the day 
5 - Energy Produced since the beginning of the day 
6 - Energy Lost since the beginning of the day on lines starting from the city
 
0 ; 7178.59193536373 ; 2782.9608808910707 ; 0.0 ; 0.0 ; 0.0
1 ; 7663.858901495001 ; 2782.9608808910707 ; 7178.59193536373 ; 2782.9608808910707 ; 238.00000000000003
2 ; 8087.021246523229 ; 2782.9608808910707 ; 14842.45083685873 ; 5565.921761782141 ; 476.00000000000006
3 ; 8850.003817811934 ; 2782.9608808910707 ; 22929.47208338196 ; 8348.882642673212 ; 714.0000000000001
4 ; 9372.387577038622 ; 2782.9608808910707 ; 31779.475901193895 ; 11131.843523564283 ; 952.0000000000001
5 ; 9882.707480974497 ; 2782.9608808910707 ; 41151.86347823252 ; 13914.804404455354 ; 1190.0000000000002
6 ; 10227.796662033667 ; 2782.9608808910707 ; 51034.57095920701 ; 16697.765285346424 ; 1428.0000000000002
7 ; 10597.910083514636 ; 2782.9608808910707 ; 61262.36762124068 ; 19480.726166237495 ; 1666.0000000000002
8 ; 11035.048299245136 ; 2782.9608808910707 ; 71860.27770475531 ; 22263.687047128566 ; 1904.0000000000002
9 ; 11790.791536279427 ; 2782.9608808910707 ; 82895.32600400044 ; 25046.647928019636 ; 2142.0000000000005
10 ; 12114.506139089566 ; 2782.9608808910707 ; 94686.11754027987 ; 27829.608808910707 ; 2380.0000000000005
11 ; 12656.125333505888 ; 2782.9608808910707 ; 106800.62367936944 ; 30612.569689801778 ; 2618.0000000000005
12 ; 13036.757083332091 ; 2782.9608808910707 ; 119456.74901287533 ; 33395.53057069285 ; 2856.0000000000005
13 ; 13436.082598099081 ; 2782.9608808910707 ; 132493.50609620742 ; 36178.49145158392 ; 3094.0000000000005
14 ; 14049.356332021516 ; 2782.9608808910707 ; 145929.5886943065 ; 38961.45233247499 ; 3332.0000000000005
15 ; 14388.42793177655 ; 2782.9608808910707 ; 159978.945026328 ; 41744.41321336606 ; 3570.0000000000005
16 ; 14944.15328292221 ; 2782.9608808910707 ; 174367.37295810456 ; 44527.37409425713 ; 3808.0000000000005
17 ; 15311.642422465922 ; 2782.9608808910707 ; 189311.52624102676 ; 47310.3349751482 ; 4046.0000000000005
18 ; 15501.209643943415 ; 2782.9608808910707 ; 204623.1686634927 ; 50093.29585603927 ; 4284.000000000001
19 ; 16027.095280856329 ; 2782.9608808910707 ; 220124.3783074361 ; 52876.25673693034 ; 4522.000000000001
20 ; 16439.942460624578 ; 2782.9608808910707 ; 236151.47358829243 ; 55659.217617821414 ; 4760.000000000001
21 ; 17007.600403612723 ; 2782.9608808910707 ; 252591.41604891702 ; 58442.178498712485 ; 4998.000000000001
22 ; 17008.876250157304 ; 2782.9608808910707 ; 269599.01645252976 ; 61225.139379603555 ; 5236.000000000001
23 ; 17499.205433176197 ; 2782.9608808910707 ; 286607.89270268707 ; 64008.100260494626 ; 5474.000000000001
24 ; 17827.91922349188 ; 2782.9608808910707 ; 304107.09813586326 ; 66791.0611413857 ; 5712.000000000001
25 ; 18401.946356622415 ; 2782.9608808910707 ; 321935.0173593551 ; 69574.02202227677 ; 5950.000000000001
26 ; 18651.54275759648 ; 2782.9608808910707 ; 340336.9637159775 ; 72356.98290316784 ; 6188.000000000001
27 ; 18994.103917787415 ; 2782.9608808910707 ; 358988.506473574 ; 75139.94378405891 ; 6426.000000000001
28 ; 19297.665824332955 ; 2782.9608808910707 ; 377982.6103913614 ; 77922.90466494998 ; 6664.000000000001
29 ; 19629.74041454016 ; 2782.9608808910707 ; 397280.2762156944 ; 80705.86554584105 ; 6902.000000000001
30 ; 20011.15301751075 ; 2782.9608808910707 ; 416910.01663023455 ; 83488.82642673212 ; 7140.000000000001
31 ; 20384.249127509345 ; 2782.9608808910707 ; 436921.1696477453 ; 86271.78730762319 ; 7378.000000000001
32 ; 20591.853574227775 ; 2782.9608808910707 ; 457305.4187752547 ; 89054.74818851426 ; 7616.000000000001
33 ; 21013.793567947105 ; 2782.9608808910707 ; 477897.27234948246 ; 91837.70906940533 ; 7854.000000000001
34 ; 21338.076874586317 ; 2782.9608808910707 ; 498911.0659174296 ; 94620.6699502964 ; 8092.000000000001
35 ; 21667.867907824242 ; 2782.9608808910707 ; 520249.1427920159 ; 97403.63083118747 ; 8330.000000000002
36 ; 21732.090989639833 ; 2782.9608808910707 ; 541917.0106998401 ; 100186.59171207855 ; 8568.000000000002
37 ; 22283.533591849973 ; 2782.9608808910707 ; 563649.10168948 ; 102969.55259296962 ; 8806.000000000002
38 ; 22470.916018199237 ; 2782.9608808910707 ; 585932.63528133 ; 105752.51347386069 ; 9044.000000000002
39 ; 22656.070524234518 ; 2782.9608808910707 ; 608403.5512995293 ; 108535.47435475176 ; 9282.000000000002
40 ; 23027.36058805216 ; 2782.9608808910707 ; 631059.6218237638 ; 111318.43523564283 ; 9520.000000000002
41 ; 23358.96527722097 ; 2782.9608808910707 ; 654086.982411816 ; 114101.3961165339 ; 9758.000000000002
42 ; 23596.715436996055 ; 2782.9608808910707 ; 677445.947689037 ; 116884.35699742497 ; 9996.000000000002
43 ; 23713.856919613714 ; 2782.9608808910707 ; 701042.663126033 ; 119667.31787831604 ; 10234.000000000002
44 ; 23950.501131531317 ; 2782.9608808910707 ; 724756.5200456467 ; 122450.27875920711 ; 10472.000000000002
45 ; 24295.907870014667 ; 2782.9608808910707 ; 748707.021177178 ; 125233.23964009818 ; 10710.000000000002
46 ; 24445.147737306488 ; 2782.9608808910707 ; 773002.9290471927 ; 128016.20052098925 ; 10948.000000000002
47 ; 24632.876412124664 ; 2782.9608808910707 ; 797448.0767844992 ; 130799.16140188032 ; 11186.000000000002
48 ; 24903.54281148102 ; 2782.9608808910707 ; 822080.9531966238 ; 133582.1222827714 ; 11424.000000000002
49 ; 25062.981707777137 ; 2782.9608808910707 ; 846984.4960081049 ; 136365.08316366246 ; 11662.000000000002
50 ; 25284.39047984768 ; 2782.9608808910707 ; 872047.477715882 ; 139148.04404455354 ; 11900.000000000002
51 ; 25641.568842468987 ; 2782.9608808910707 ; 897331.8681957297 ; 141931.0049254446 ; 12138.000000000002
52 ; 25676.307377743673 ; 2782.9608808910707 ; 922973.4370381987 ; 144713.96580633568 ; 12376.000000000002
53 ; 25886.536927884787 ; 2782.9608808910707 ; 948649.7444159423 ; 147496.92668722675 ; 12614.000000000002
54 ; 25984.66549295555 ; 2782.9608808910707 ; 974536.2813438271 ; 150279.88756811782 ; 12852.000000000002
55 ; 26275.612965143413 ; 2782.9608808910707 ; 1000520.9468367827 ; 153062.8484490089 ; 13090.000000000002
56 ; 26494.003194730958 ; 2782.9608808910707 ; 1026796.5598019261 ; 155845.80932989996 ; 13328.000000000002
57 ; 26681.9627773072 ; 2782.9608808910707 ; 1053290.562996657 ; 158628.77021079103 ; 13566.000000000002
58 ; 26901.48826673128 ; 2782.9608808910707 ; 1079972.5257739644 ; 161411.7310916821 ; 13804.000000000002
59 ; 26871.453164438244 ; 2782.9608808910707 ; 1106874.0140406957 ; 164194.69197257317 ; 14042.000000000002
60 ; 27070.05578042824 ; 2782.9608808910707 ; 1133745.467205134 ; 166977.65285346424 ; 14280.000000000002
61 ; 27207.74126694758 ; 2782.9608808910707 ; 1160815.5229855622 ; 169760.6137343553 ; 14518.000000000002
62 ; 27458.58467124055 ; 2782.9608808910707 ; 1188023.2642525097 ; 172543.57461524638 ; 14756.000000000002
63 ; 27611.892863827725 ; 2782.9608808910707 ; 1215481.8489237502 ; 175326.53549613745 ; 14994.000000000002
64 ; 27741.44377687986 ; 2782.9608808910707 ; 1243093.741787578 ; 178109.49637702852 ; 15232.000000000002
65 ; 27655.046396484395 ; 2782.9608808910707 ; 1270835.185564458 ; 180892.4572579196 ; 15470.000000000002
66 ; 27799.057347859507 ; 2782.9608808910707 ; 1298490.2319609423 ; 183675.41813881067 ; 15708.000000000002
67 ; 27712.86853473516 ; 2782.9608808910707 ; 1326289.2893088018 ; 186458.37901970174 ; 15946.000000000002
68 ; 28104.935174271923 ; 2782.9608808910707 ; 1354002.157843537 ; 189241.3399005928 ; 16184.000000000002
69 ; 28123.315070041568 ; 2782.9608808910707 ; 1382107.0930178089 ; 192024.30078148388 ; 16422.000000000004
70 ; 27967.009473866226 ; 2782.9608808910707 ; 1410230.4080878503 ; 194807.26166237495 ; 16660.000000000004
71 ; 28362.643093713963 ; 2782.9608808910707 ; 1438197.4175617166 ; 197590.22254326602 ; 16898.000000000004
72 ; 28308.24437599721 ; 2782.9608808910707 ; 1466560.0606554307 ; 200373.1834241571 ; 17136.000000000004
73 ; 28331.341605558107 ; 2782.9608808910707 ; 1494868.3050314279 ; 203156.14430504816 ; 17374.000000000004
74 ; 28330.958812349174 ; 2782.9608808910707 ; 1523199.646636986 ; 205939.10518593923 ; 17612.000000000004
75 ; 28361.283047538 ; 2782.9608808910707 ; 1551530.6054493352 ; 208722.0660668303 ; 17850.000000000004
76 ; 28588.255247231053 ; 2782.9608808910707 ; 1579891.8884968732 ; 211505.02694772137 ; 18088.000000000004
77 ; 28639.572322596232 ; 2782.9608808910707 ; 1608480.1437441043 ; 214287.98782861244 ; 18326.000000000004
78 ; 28655.500043915803 ; 2782.9608808910707 ; 1637119.7160667006 ; 217070.94870950351 ; 18564.000000000004
79 ; 28656.121043342046 ; 2782.9608808910707 ; 1665775.2161106165 ; 219853.90959039459 ; 18802.000000000004
80 ; 28604.533175752294 ; 2782.9608808910707 ; 1694431.3371539584 ; 222636.87047128566 ; 19040.000000000004
81 ; 28497.97258441991 ; 2782.9608808910707 ; 1723035.8703297107 ; 225419.83135217673 ; 19278.000000000004
82 ; 28753.75787357946 ; 2782.9608808910707 ; 1751533.8429141305 ; 228202.7922330678 ; 19516.000000000004
83 ; 28529.83087700102 ; 2782.9608808910707 ; 1780287.60078771 ; 230985.75311395887 ; 19754.000000000004
84 ; 28654.768902716183 ; 2782.9608808910707 ; 1808817.4316647109 ; 233768.71399484994 ; 19992.000000000004
85 ; 28647.986474007135 ; 2782.9608808910707 ; 1837472.200567427 ; 236551.674875741 ; 20230.000000000004
86 ; 28387.842389391375 ; 2782.9608808910707 ; 1866120.1870414342 ; 239334.63575663208 ; 20468.000000000004
87 ; 28458.04278246009 ; 2782.9608808910707 ; 1894508.0294308255 ; 242117.59663752315 ; 20706.000000000004
88 ; 28397.299998130133 ; 2782.9608808910707 ; 1922966.0722132856 ; 244900.55751841422 ; 20944.000000000004
89 ; 28383.84169421119 ; 2782.9608808910707 ; 1951363.3722114158 ; 247683.5183993053 ; 21182.000000000004
90 ; 28255.15356147181 ; 2782.9608808910707 ; 1979747.213905627 ; 250466.47928019636 ; 21420.000000000004
91 ; 28411.52403373247 ; 2782.9608808910707 ; 2008002.3674670986 ; 253249.44016108743 ; 21658.000000000004
92 ; 28310.992116951675 ; 2782.9608808910707 ; 2036413.891500831 ; 256032.4010419785 ; 21896.000000000004
93 ; 28136.63161853256 ; 2782.9608808910707 ; 2064724.8836177827 ; 258815.36192286958 ; 22134.000000000004
94 ; 28066.03020402443 ; 2782.9608808910707 ; 2092861.5152363153 ; 261598.32280376065 ; 22372.000000000004
95 ; 28008.327082757998 ; 2782.9608808910707 ; 2120927.54544034 ; 264381.2836846517 ; 22610.000000000004
96 ; 27935.55711729086 ; 2782.9608808910707 ; 2148935.872523098 ; 267164.2445655428 ; 22848.000000000004
97 ; 27888.28176164766 ; 2782.9608808910707 ; 2176871.4296403886 ; 269947.20544643386 ; 23086.000000000004
98 ; 27837.418818166705 ; 2782.9608808910707 ; 2204759.7114020362 ; 272730.1663273249 ; 23324.000000000004
99 ; 27743.69928338649 ; 2782.9608808910707 ; 2232597.1302202027 ; 275513.127208216 ; 23562.000000000004
100 ; 27621.19288083697 ; 2782.9608808910707 ; 2260340.8295035893 ; 278296.08808910707 ; 23800.000000000004
101 ; 27410.116308716082 ; 2782.9608808910707 ; 2287962.022384426 ; 281079.04896999814 ; 24038.000000000004
102 ; 27364.05640096791 ; 2782.9608808910707 ; 2315372.138693142 ; 283862.0098508892 ; 24276.000000000004
103 ; 27239.007014079107 ; 2782.9608808910707 ; 2342736.19509411 ; 286644.9707317803 ; 24514.000000000004
104 ; 26876.34158028752 ; 2782.9608808910707 ; 2369975.202108189 ; 289427.93161267135 ; 24752.000000000004
105 ; 26983.594150063946 ; 2782.9608808910707 ; 2396851.5436884766 ; 292210.8924935624 ; 24990.000000000004
106 ; 26810.55623926339 ; 2782.9608808910707 ; 2423835.1378385406 ; 294993.8533744535 ; 25228.000000000004
107 ; 26652.45753458083 ; 2782.9608808910707 ; 2450645.694077804 ; 297776.81425534457 ; 25466.000000000004
108 ; 26462.000020784813 ; 2782.9608808910707 ; 2477298.151612385 ; 300559.77513623564 ; 25704.000000000004
109 ; 26329.529172255607 ; 2782.9608808910707 ; 2503760.15163317 ; 303342.7360171267 ; 25942.000000000004
110 ; 25941.722942163407 ; 2782.9608808910707 ; 2530089.6808054256 ; 306125.6968980178 ; 26180.000000000004
111 ; 26070.01647006978 ; 2782.9608808910707 ; 2556031.403747589 ; 308908.65777890885 ; 26418.000000000004
112 ; 25574.453180781325 ; 2782.9608808910707 ; 2582101.420217659 ; 311691.6186597999 ; 26656.000000000004
113 ; 25661.018388828987 ; 2782.9608808910707 ; 2607675.87339844 ; 314474.579540691 ; 26894.000000000004
114 ; 25457.832135862074 ; 2782.9608808910707 ; 2633336.891787269 ; 317257.54042158206 ; 27132.000000000004
115 ; 25025.400866064298 ; 2782.9608808910707 ; 2658794.7239231314 ; 320040.50130247313 ; 27370.000000000004
116 ; 25022.37655077856 ; 2782.9608808910707 ; 2683820.1247891956 ; 322823.4621833642 ; 27608.000000000004
117 ; 24651.88708591971 ; 2782.9608808910707 ; 2708842.5013399743 ; 325606.4230642553 ; 27846.000000000004
118 ; 24513.439636124473 ; 2782.9608808910707 ; 2733494.388425894 ; 328389.38394514634 ; 28084.000000000004
119 ; 24293.13560975865 ; 2782.9608808910707 ; 2758007.8280620184 ; 331172.3448260374 ; 28322.000000000004
120 ; 24235.23140131053 ; 2782.9608808910707 ; 2782300.963671777 ; 333955.3057069285 ; 28560.000000000004
121 ; 23904.25504776749 ; 2782.9608808910707 ; 2806536.1950730872 ; 336738.26658781955 ; 28798.000000000004
122 ; 23510.505020252407 ; 2782.9608808910707 ; 2830440.4501208547 ; 339521.2274687106 ; 29036.000000000004
123 ; 23169.57705217688 ; 2782.9608808910707 ; 2853950.955141107 ; 342304.1883496017 ; 29274.000000000004
124 ; 22906.79978240093 ; 2782.9608808910707 ; 2877120.532193284 ; 345087.14923049277 ; 29512.000000000004
125 ; 22984.82316131174 ; 2782.9608808910707 ; 2900027.331975685 ; 347870.11011138384 ; 29750.000000000004
126 ; 22464.42057412117 ; 2782.9608808910707 ; 2923012.155136997 ; 350653.0709922749 ; 29988.000000000004
127 ; 22108.335544153386 ; 2782.9608808910707 ; 2945476.575711118 ; 353436.031873166 ; 30226.000000000004
128 ; 21754.42741530647 ; 2782.9608808910707 ; 2967584.9112552716 ; 356218.99275405705 ; 30464.000000000004
129 ; 21459.76592955692 ; 2782.9608808910707 ; 2989339.3386705783 ; 359001.9536349481 ; 30702.000000000004
130 ; 21336.05044808997 ; 2782.9608808910707 ; 3010799.1046001352 ; 361784.9145158392 ; 30940.000000000004
131 ; 20988.648052743065 ; 2782.9608808910707 ; 3032135.155048225 ; 364567.87539673026 ; 31178.000000000004
132 ; 20509.14461927305 ; 2782.9608808910707 ; 3053123.8031009682 ; 367350.83627762133 ; 31416.000000000004
133 ; 20269.636234729904 ; 2782.9608808910707 ; 3073632.9477202413 ; 370133.7971585124 ; 31654.000000000004
134 ; 20100.868438524594 ; 2782.9608808910707 ; 3093902.5839549713 ; 372916.7580394035 ; 31892.000000000004
135 ; 19593.818119576255 ; 2782.9608808910707 ; 3114003.452393496 ; 375699.71892029454 ; 32130.000000000004
136 ; 19104.875936387143 ; 2782.9608808910707 ; 3133597.270513072 ; 378482.6798011856 ; 32368.000000000004
137 ; 19037.96581087111 ; 2782.9608808910707 ; 3152702.1464494593 ; 381265.6406820767 ; 32606.000000000004
138 ; 18612.128119653487 ; 2782.9608808910707 ; 3171740.1122603305 ; 384048.60156296776 ; 32844.00000000001
139 ; 18170.95354147579 ; 2782.9608808910707 ; 3190352.240379984 ; 386831.5624438588 ; 33082.00000000001
140 ; 17867.813043128044 ; 2782.9608808910707 ; 3208523.19392146 ; 389614.5233247499 ; 33320.00000000001
141 ; 17393.792285887575 ; 2782.9608808910707 ; 3226391.006964588 ; 392397.48420564097 ; 33558.00000000001
142 ; 17242.504532909166 ; 2782.9608808910707 ; 3243784.7992504756 ; 395180.44508653204 ; 33796.00000000001
143 ; 16707.17705537764 ; 2782.9608808910707 ; 3261027.3037833846 ; 397963.4059674231 ; 34034.00000000001
144 ; 16229.44170661672 ; 2782.9608808910707 ; 3277734.480838762 ; 400746.3668483142 ; 34272.00000000001
145 ; 16460.646293398848 ; 2782.9608808910707 ; 3293963.922545379 ; 403529.32772920525 ; 34510.00000000001
146 ; 16080.62535242664 ; 2782.9608808910707 ; 3310424.568838778 ; 406312.2886100963 ; 34748.00000000001
147 ; 16090.79471913085 ; 2782.9608808910707 ; 3326505.1941912044 ; 409095.2494909874 ; 34986.00000000001
148 ; 15762.70022868957 ; 2782.9608808910707 ; 3342595.988910335 ; 411878.21037187846 ; 35224.00000000001
149 ; 15603.508998809715 ; 2782.9608808910707 ; 3358358.689139025 ; 414661.17125276953 ; 35462.00000000001
150 ; 15825.760985548086 ; 2782.9608808910707 ; 3373962.1981378347 ; 417444.1321336606 ; 35700.00000000001
151 ; 15454.25810344539 ; 2782.9608808910707 ; 3389787.959123383 ; 420227.0930145517 ; 35938.00000000001
152 ; 15369.748427487631 ; 2782.9608808910707 ; 3405242.217226828 ; 423010.05389544275 ; 36176.00000000001
153 ; 15381.68873402829 ; 2782.9608808910707 ; 3420611.9656543154 ; 425793.0147763338 ; 36414.00000000001
154 ; 15080.245547827011 ; 2782.9608808910707 ; 3435993.654388344 ; 428575.9756572249 ; 36652.00000000001
155 ; 14922.507594214216 ; 2782.9608808910707 ; 3451073.899936171 ; 431358.93653811596 ; 36890.00000000001
156 ; 14842.34878624032 ; 2782.9608808910707 ; 3465996.407530385 ; 434141.89741900703 ; 37128.00000000001
157 ; 14761.225556984375 ; 2782.9608808910707 ; 3480838.7563166255 ; 436924.8582998981 ; 37366.00000000001
158 ; 14434.890149809291 ; 2782.9608808910707 ; 3495599.98187361 ; 439707.81918078917 ; 37604.00000000001
159 ; 14593.122030657 ; 2782.9608808910707 ; 3510034.8720234195 ; 442490.78006168024 ; 37842.00000000001
160 ; 14359.101169615726 ; 2782.9608808910707 ; 3524627.9940540763 ; 445273.7409425713 ; 38080.00000000001
161 ; 14100.271877175684 ; 2782.9608808910707 ; 3538987.095223692 ; 448056.7018234624 ; 38318.00000000001
162 ; 13852.313380045432 ; 2782.9608808910707 ; 3553087.3671008674 ; 450839.66270435345 ; 38556.00000000001
163 ; 14058.462451965659 ; 2782.9608808910707 ; 3566939.680480913 ; 453622.6235852445 ; 38794.00000000001
164 ; 13629.40815509307 ; 2782.9608808910707 ; 3580998.1429328783 ; 456405.5844661356 ; 39032.00000000001
165 ; 13554.623492728053 ; 2782.9608808910707 ; 3594627.5510879713 ; 459188.54534702667 ; 39270.00000000001
166 ; 13536.466388603376 ; 2782.9608808910707 ; 3608182.1745806993 ; 461971.50622791774 ; 39508.00000000001
167 ; 13349.011444973838 ; 2782.9608808910707 ; 3621718.6409693025 ; 464754.4671088088 ; 39746.00000000001
168 ; 13048.758206236671 ; 2782.9608808910707 ; 3635067.6524142763 ; 467537.4279896999 ; 39984.00000000001
169 ; 12976.796600689002 ; 2782.9608808910707 ; 3648116.410620513 ; 470320.38887059095 ; 40222.00000000001
170 ; 12823.266881541333 ; 2782.9608808910707 ; 3661093.207221202 ; 473103.349751482 ; 40460.00000000001
171 ; 12549.567101615034 ; 2782.9608808910707 ; 3673916.4741027434 ; 475886.3106323731 ; 40698.00000000001
172 ; 12529.097389736102 ; 2782.9608808910707 ; 3686466.0412043585 ; 478669.27151326416 ; 40936.00000000001
173 ; 12272.856340178669 ; 2782.9608808910707 ; 3698995.1385940947 ; 481452.23239415523 ; 41174.00000000001
174 ; 12361.492623380309 ; 2782.9608808910707 ; 3711267.9949342734 ; 484235.1932750463 ; 41412.00000000001
175 ; 12335.762602905092 ; 2782.9608808910707 ; 3723629.487557654 ; 487018.1541559374 ; 41650.00000000001
176 ; 12269.596422855673 ; 2782.9608808910707 ; 3735965.250160559 ; 489801.11503682844 ; 41888.00000000001
177 ; 12302.629921173379 ; 2782.9608808910707 ; 3748234.846583415 ; 492584.0759177195 ; 42126.00000000001
178 ; 12318.576095657018 ; 2782.9608808910707 ; 3760537.476504588 ; 495367.0367986106 ; 42364.00000000001
179 ; 12551.763330043865 ; 2782.9608808910707 ; 3772856.052600245 ; 498149.99767950166 ; 42602.00000000001
180 ; 12672.818830940836 ; 2782.9608808910707 ; 3785407.8159302888 ; 500932.9585603927 ; 42840.00000000001
181 ; 12630.021411454061 ; 2782.9608808910707 ; 3798080.6347612296 ; 503715.9194412838 ; 43078.00000000001
182 ; 12491.59685321987 ; 2782.9608808910707 ; 3810710.6561726835 ; 506498.88032217487 ; 43316.00000000001
183 ; 12806.575452775787 ; 2782.9608808910707 ; 3823202.2530259034 ; 509281.84120306594 ; 43554.00000000001
184 ; 12711.749659601455 ; 2782.9608808910707 ; 3836008.828478679 ; 512064.802083957 ; 43792.00000000001
