CSV File for the City 1 on Day 285
1 - Minute m 
2 - Power Consumed at minute m 
3 - Power Produced at minute m 
4 - Energy Consumed since the beginning of the day 
5 - Energy Produced since the beginning of the day 
6 - Energy Lost since the beginning of the day on lines starting from the city
 
0 ; 9215.569085830892 ; 4718.576913394412 ; 0.0 ; 0.0 ; 0.0
1 ; 9600.394150536911 ; 4718.576913394412 ; 9215.569085830892 ; 4718.576913394412 ; 238.00000000000003
2 ; 10087.193423584285 ; 4718.576913394412 ; 18815.963236367803 ; 9437.153826788825 ; 476.00000000000006
3 ; 10287.638070505354 ; 4718.576913394412 ; 28903.15665995209 ; 14155.730740183237 ; 714.0000000000001
4 ; 10881.599222071438 ; 4718.576913394412 ; 39190.79473045744 ; 18874.30765357765 ; 952.0000000000001
5 ; 11298.96753240699 ; 4718.576913394412 ; 50072.39395252888 ; 23592.88456697206 ; 1190.0000000000002
6 ; 11804.4302327969 ; 4718.576913394412 ; 61371.36148493587 ; 28311.461480366474 ; 1428.0000000000002
7 ; 12174.796193762824 ; 4718.576913394412 ; 73175.79171773278 ; 33030.038393760886 ; 1666.0000000000002
8 ; 12744.01659031966 ; 4718.576913394412 ; 85350.5879114956 ; 37748.6153071553 ; 1904.0000000000002
9 ; 13127.06757328101 ; 4718.576913394412 ; 98094.60450181527 ; 42467.19222054971 ; 2142.0000000000005
10 ; 13410.919500188475 ; 4718.576913394412 ; 111221.67207509627 ; 47185.76913394412 ; 2380.0000000000005
11 ; 13965.204956613155 ; 4718.576913394412 ; 124632.59157528475 ; 51904.346047338535 ; 2618.0000000000005
12 ; 14417.645376815104 ; 4718.576913394412 ; 138597.7965318979 ; 56622.92296073295 ; 2856.0000000000005
13 ; 14710.634653212363 ; 4718.576913394412 ; 153015.44190871302 ; 61341.49987412736 ; 3094.0000000000005
14 ; 14998.040048020735 ; 4718.576913394412 ; 167726.07656192538 ; 66060.07678752177 ; 3332.0000000000005
15 ; 15371.963583628209 ; 4718.576913394412 ; 182724.11660994613 ; 70778.65370091618 ; 3570.0000000000005
16 ; 15914.991433441688 ; 4718.576913394412 ; 198096.08019357434 ; 75497.2306143106 ; 3808.0000000000005
17 ; 16136.071130933446 ; 4718.576913394412 ; 214011.07162701603 ; 80215.80752770501 ; 4046.0000000000005
18 ; 16408.045090283766 ; 4718.576913394412 ; 230147.14275794948 ; 84934.38444109942 ; 4284.000000000001
19 ; 16797.66179860559 ; 4718.576913394412 ; 246555.18784823324 ; 89652.96135449383 ; 4522.000000000001
20 ; 17207.768772643973 ; 4718.576913394412 ; 263352.84964683885 ; 94371.53826788825 ; 4760.000000000001
21 ; 17397.350881417635 ; 4718.576913394412 ; 280560.61841948284 ; 99090.11518128266 ; 4998.000000000001
22 ; 17897.929066857647 ; 4718.576913394412 ; 297957.96930090047 ; 103808.69209467707 ; 5236.000000000001
23 ; 18160.343858051678 ; 4718.576913394412 ; 315855.89836775814 ; 108527.26900807148 ; 5474.000000000001
24 ; 18497.937345178485 ; 4718.576913394412 ; 334016.24222580984 ; 113245.8459214659 ; 5712.000000000001
25 ; 18917.54051711096 ; 4718.576913394412 ; 352514.17957098834 ; 117964.4228348603 ; 5950.000000000001
26 ; 19212.182574595037 ; 4718.576913394412 ; 371431.7200880993 ; 122682.99974825472 ; 6188.000000000001
27 ; 19296.773454910723 ; 4718.576913394412 ; 390643.90266269434 ; 127401.57666164913 ; 6426.000000000001
28 ; 19850.127049842475 ; 4718.576913394412 ; 409940.67611760506 ; 132120.15357504354 ; 6664.000000000001
29 ; 20127.75929475553 ; 4718.576913394412 ; 429790.80316744756 ; 136838.73048843796 ; 6902.000000000001
30 ; 20329.432511332478 ; 4718.576913394412 ; 449918.5624622031 ; 141557.30740183237 ; 7140.000000000001
31 ; 20783.662900556046 ; 4718.576913394412 ; 470247.9949735356 ; 146275.88431522678 ; 7378.000000000001
32 ; 20936.696592601864 ; 4718.576913394412 ; 491031.65787409164 ; 150994.4612286212 ; 7616.000000000001
33 ; 21304.662673028524 ; 4718.576913394412 ; 511968.35446669353 ; 155713.0381420156 ; 7854.000000000001
34 ; 21513.030094983704 ; 4718.576913394412 ; 533273.017139722 ; 160431.61505541002 ; 8092.000000000001
35 ; 21696.034576496702 ; 4718.576913394412 ; 554786.0472347058 ; 165150.19196880443 ; 8330.000000000002
36 ; 21991.669257209694 ; 4718.576913394412 ; 576482.0818112025 ; 169868.76888219884 ; 8568.000000000002
37 ; 22249.758321315774 ; 4718.576913394412 ; 598473.7510684121 ; 174587.34579559325 ; 8806.000000000002
38 ; 22606.97837005801 ; 4718.576913394412 ; 620723.5093897278 ; 179305.92270898767 ; 9044.000000000002
39 ; 22791.191570502484 ; 4718.576913394412 ; 643330.4877597858 ; 184024.49962238208 ; 9282.000000000002
40 ; 22997.679705232178 ; 4718.576913394412 ; 666121.6793302883 ; 188743.0765357765 ; 9520.000000000002
41 ; 23234.225662350735 ; 4718.576913394412 ; 689119.3590355205 ; 193461.6534491709 ; 9758.000000000002
42 ; 23426.571936273427 ; 4718.576913394412 ; 712353.5846978712 ; 198180.23036256531 ; 9996.000000000002
43 ; 23689.039759327057 ; 4718.576913394412 ; 735780.1566341447 ; 202898.80727595973 ; 10234.000000000002
44 ; 23773.042222507753 ; 4718.576913394412 ; 759469.1963934718 ; 207617.38418935414 ; 10472.000000000002
45 ; 23892.434016760362 ; 4718.576913394412 ; 783242.2386159796 ; 212335.96110274855 ; 10710.000000000002
46 ; 24190.29043372529 ; 4718.576913394412 ; 807134.6726327399 ; 217054.53801614296 ; 10948.000000000002
47 ; 24451.08906809137 ; 4718.576913394412 ; 831324.9630664652 ; 221773.11492953738 ; 11186.000000000002
48 ; 24696.94798224686 ; 4718.576913394412 ; 855776.0521345566 ; 226491.6918429318 ; 11424.000000000002
49 ; 24981.222076377097 ; 4718.576913394412 ; 880473.0001168035 ; 231210.2687563262 ; 11662.000000000002
50 ; 25022.073268908996 ; 4718.576913394412 ; 905454.2221931806 ; 235928.8456697206 ; 11900.000000000002
51 ; 25147.03805587381 ; 4718.576913394412 ; 930476.2954620896 ; 240647.42258311503 ; 12138.000000000002
52 ; 25367.888487825305 ; 4718.576913394412 ; 955623.3335179634 ; 245365.99949650944 ; 12376.000000000002
53 ; 25270.206526816983 ; 4718.576913394412 ; 980991.2220057887 ; 250084.57640990385 ; 12614.000000000002
54 ; 25766.738861397862 ; 4718.576913394412 ; 1006261.4285326056 ; 254803.15332329826 ; 12852.000000000002
55 ; 25766.220805784007 ; 4718.576913394412 ; 1032028.1673940035 ; 259521.73023669267 ; 13090.000000000002
56 ; 25903.929418074254 ; 4718.576913394412 ; 1057794.3881997876 ; 264240.3071500871 ; 13328.000000000002
57 ; 26177.860917114966 ; 4718.576913394412 ; 1083698.3176178618 ; 268958.88406348147 ; 13566.000000000002
58 ; 26046.07065702026 ; 4718.576913394412 ; 1109876.1785349767 ; 273677.46097687585 ; 13804.000000000002
59 ; 26246.318840973327 ; 4718.576913394412 ; 1135922.2491919969 ; 278396.03789027024 ; 14042.000000000002
60 ; 26505.760100066513 ; 4718.576913394412 ; 1162168.5680329702 ; 283114.6148036646 ; 14280.000000000002
61 ; 26543.14027390695 ; 4718.576913394412 ; 1188674.3281330366 ; 287833.191717059 ; 14518.000000000002
62 ; 26708.680958495017 ; 4718.576913394412 ; 1215217.4684069436 ; 292551.7686304534 ; 14756.000000000002
63 ; 26760.071913821717 ; 4718.576913394412 ; 1241926.1493654386 ; 297270.34554384777 ; 14994.000000000002
64 ; 26855.021788365317 ; 4718.576913394412 ; 1268686.2212792602 ; 301988.92245724215 ; 15232.000000000002
65 ; 26863.304586758673 ; 4718.576913394412 ; 1295541.2430676254 ; 306707.49937063653 ; 15470.000000000002
66 ; 27057.44619607941 ; 4718.576913394412 ; 1322404.547654384 ; 311426.0762840309 ; 15708.000000000002
67 ; 27291.396330988668 ; 4718.576913394412 ; 1349461.9938504635 ; 316144.6531974253 ; 15946.000000000002
68 ; 27217.27210961243 ; 4718.576913394412 ; 1376753.3901814523 ; 320863.2301108197 ; 16184.000000000002
69 ; 27267.316098857067 ; 4718.576913394412 ; 1403970.6622910646 ; 325581.80702421407 ; 16422.000000000004
70 ; 27386.583493902162 ; 4718.576913394412 ; 1431237.9783899216 ; 330300.38393760845 ; 16660.000000000004
71 ; 27383.433916722224 ; 4718.576913394412 ; 1458624.5618838237 ; 335018.96085100283 ; 16898.000000000004
72 ; 27583.943048777823 ; 4718.576913394412 ; 1486007.995800546 ; 339737.5377643972 ; 17136.000000000004
73 ; 27467.371881343974 ; 4718.576913394412 ; 1513591.9388493237 ; 344456.1146777916 ; 17374.000000000004
74 ; 27553.86795767337 ; 4718.576913394412 ; 1541059.3107306676 ; 349174.691591186 ; 17612.000000000004
75 ; 27638.0193489644 ; 4718.576913394412 ; 1568613.1786883408 ; 353893.26850458037 ; 17850.000000000004
76 ; 27839.71793682611 ; 4718.576913394412 ; 1596251.1980373051 ; 358611.84541797475 ; 18088.000000000004
77 ; 27905.209207952044 ; 4718.576913394412 ; 1624090.9159741313 ; 363330.42233136913 ; 18326.000000000004
78 ; 27634.23560929645 ; 4718.576913394412 ; 1651996.1251820833 ; 368048.9992447635 ; 18564.000000000004
79 ; 27710.522377136804 ; 4718.576913394412 ; 1679630.3607913798 ; 372767.5761581579 ; 18802.000000000004
80 ; 27763.310762357458 ; 4718.576913394412 ; 1707340.8831685167 ; 377486.1530715523 ; 19040.000000000004
81 ; 27665.944167215097 ; 4718.576913394412 ; 1735104.193930874 ; 382204.72998494667 ; 19278.000000000004
82 ; 27617.113190854012 ; 4718.576913394412 ; 1762770.1380980893 ; 386923.30689834105 ; 19516.000000000004
83 ; 27714.45549609574 ; 4718.576913394412 ; 1790387.2512889432 ; 391641.88381173543 ; 19754.000000000004
84 ; 27665.236162319638 ; 4718.576913394412 ; 1818101.706785039 ; 396360.4607251298 ; 19992.000000000004
85 ; 27667.179029952837 ; 4718.576913394412 ; 1845766.9429473586 ; 401079.0376385242 ; 20230.000000000004
86 ; 27713.913686782496 ; 4718.576913394412 ; 1873434.1219773113 ; 405797.6145519186 ; 20468.000000000004
87 ; 27516.35880232485 ; 4718.576913394412 ; 1901148.035664094 ; 410516.19146531296 ; 20706.000000000004
88 ; 27351.113001791316 ; 4718.576913394412 ; 1928664.3944664188 ; 415234.76837870735 ; 20944.000000000004
89 ; 27539.495736991037 ; 4718.576913394412 ; 1956015.50746821 ; 419953.34529210173 ; 21182.000000000004
90 ; 27657.941632275855 ; 4718.576913394412 ; 1983555.0032052011 ; 424671.9222054961 ; 21420.000000000004
91 ; 27538.545869482787 ; 4718.576913394412 ; 2011212.944837477 ; 429390.4991188905 ; 21658.000000000004
92 ; 27398.75363014557 ; 4718.576913394412 ; 2038751.4907069597 ; 434109.0760322849 ; 21896.000000000004
93 ; 27407.870119358588 ; 4718.576913394412 ; 2066150.2443371052 ; 438827.65294567926 ; 22134.000000000004
94 ; 27190.497368645516 ; 4718.576913394412 ; 2093558.1144564638 ; 443546.22985907365 ; 22372.000000000004
95 ; 27417.25963263913 ; 4718.576913394412 ; 2120748.6118251095 ; 448264.80677246803 ; 22610.000000000004
96 ; 27227.624010976844 ; 4718.576913394412 ; 2148165.8714577486 ; 452983.3836858624 ; 22848.000000000004
97 ; 27033.506032515514 ; 4718.576913394412 ; 2175393.4954687255 ; 457701.9605992568 ; 23086.000000000004
98 ; 26911.178566769617 ; 4718.576913394412 ; 2202427.001501241 ; 462420.5375126512 ; 23324.000000000004
99 ; 26820.29702727107 ; 4718.576913394412 ; 2229338.1800680105 ; 467139.11442604556 ; 23562.000000000004
100 ; 26671.42898873031 ; 4718.576913394412 ; 2256158.4770952817 ; 471857.69133943995 ; 23800.000000000004
101 ; 26633.85111011167 ; 4718.576913394412 ; 2282829.9060840122 ; 476576.2682528343 ; 24038.000000000004
102 ; 26727.961107655985 ; 4718.576913394412 ; 2309463.7571941237 ; 481294.8451662287 ; 24276.000000000004
103 ; 26449.31732777081 ; 4718.576913394412 ; 2336191.7183017796 ; 486013.4220796231 ; 24514.000000000004
104 ; 26268.982838077543 ; 4718.576913394412 ; 2362641.0356295505 ; 490731.9989930175 ; 24752.000000000004
105 ; 26094.212395121995 ; 4718.576913394412 ; 2388910.018467628 ; 495450.57590641186 ; 24990.000000000004
106 ; 25821.489015629606 ; 4718.576913394412 ; 2415004.2308627497 ; 500169.15281980624 ; 25228.000000000004
107 ; 25859.736430778998 ; 4718.576913394412 ; 2440825.7198783793 ; 504887.7297332006 ; 25466.000000000004
108 ; 25771.27964151323 ; 4718.576913394412 ; 2466685.4563091584 ; 509606.306646595 ; 25704.000000000004
109 ; 25572.083049367568 ; 4718.576913394412 ; 2492456.7359506716 ; 514324.8835599894 ; 25942.000000000004
110 ; 25205.53720339984 ; 4718.576913394412 ; 2518028.8190000392 ; 519043.4604733838 ; 26180.000000000004
111 ; 25163.77119753261 ; 4718.576913394412 ; 2543234.356203439 ; 523762.03738677816 ; 26418.000000000004
112 ; 25088.472644383877 ; 4718.576913394412 ; 2568398.127400972 ; 528480.6143001725 ; 26656.000000000004
113 ; 24808.21228727913 ; 4718.576913394412 ; 2593486.600045356 ; 533199.1912135669 ; 26894.000000000004
114 ; 24730.09479178115 ; 4718.576913394412 ; 2618294.8123326353 ; 537917.7681269613 ; 27132.000000000004
115 ; 24584.761068524116 ; 4718.576913394412 ; 2643024.9071244164 ; 542636.3450403557 ; 27370.000000000004
116 ; 24266.00414567152 ; 4718.576913394412 ; 2667609.6681929408 ; 547354.9219537501 ; 27608.000000000004
117 ; 24199.872255970564 ; 4718.576913394412 ; 2691875.6723386124 ; 552073.4988671445 ; 27846.000000000004
118 ; 24005.204057868075 ; 4718.576913394412 ; 2716075.544594583 ; 556792.0757805388 ; 28084.000000000004
119 ; 23791.9661871786 ; 4718.576913394412 ; 2740080.748652451 ; 561510.6526939332 ; 28322.000000000004
120 ; 23400.899793073157 ; 4718.576913394412 ; 2763872.71483963 ; 566229.2296073276 ; 28560.000000000004
121 ; 23470.080875580934 ; 4718.576913394412 ; 2787273.614632703 ; 570947.806520722 ; 28798.000000000004
122 ; 23188.685252535688 ; 4718.576913394412 ; 2810743.695508284 ; 575666.3834341164 ; 29036.000000000004
123 ; 22701.990056333565 ; 4718.576913394412 ; 2833932.3807608197 ; 580384.9603475108 ; 29274.000000000004
124 ; 22541.37574450008 ; 4718.576913394412 ; 2856634.3708171532 ; 585103.5372609051 ; 29512.000000000004
125 ; 22275.376940468926 ; 4718.576913394412 ; 2879175.7465616534 ; 589822.1141742995 ; 29750.000000000004
126 ; 22143.24088221041 ; 4718.576913394412 ; 2901451.1235021222 ; 594540.6910876939 ; 29988.000000000004
127 ; 21884.31539456627 ; 4718.576913394412 ; 2923594.3643843327 ; 599259.2680010883 ; 30226.000000000004
128 ; 21561.555523626586 ; 4718.576913394412 ; 2945478.679778899 ; 603977.8449144827 ; 30464.000000000004
129 ; 21353.73910542749 ; 4718.576913394412 ; 2967040.2353025256 ; 608696.421827877 ; 30702.000000000004
130 ; 21043.04749254685 ; 4718.576913394412 ; 2988393.974407953 ; 613414.9987412714 ; 30940.000000000004
131 ; 20618.07759744653 ; 4718.576913394412 ; 3009437.0219005 ; 618133.5756546658 ; 31178.000000000004
132 ; 20444.21427579398 ; 4718.576913394412 ; 3030055.099497947 ; 622852.1525680602 ; 31416.000000000004
133 ; 20130.649994759027 ; 4718.576913394412 ; 3050499.313773741 ; 627570.7294814546 ; 31654.000000000004
134 ; 19928.206205905783 ; 4718.576913394412 ; 3070629.9637685 ; 632289.306394849 ; 31892.000000000004
135 ; 19437.264306593926 ; 4718.576913394412 ; 3090558.169974406 ; 637007.8833082434 ; 32130.000000000004
136 ; 18989.069915252716 ; 4718.576913394412 ; 3109995.434281 ; 641726.4602216377 ; 32368.000000000004
137 ; 18982.781653041224 ; 4718.576913394412 ; 3128984.5041962527 ; 646445.0371350321 ; 32606.000000000004
138 ; 18561.869805104972 ; 4718.576913394412 ; 3147967.2858492937 ; 651163.6140484265 ; 32844.00000000001
139 ; 18351.250789624373 ; 4718.576913394412 ; 3166529.1556543987 ; 655882.1909618209 ; 33082.00000000001
140 ; 18094.139119670916 ; 4718.576913394412 ; 3184880.406444023 ; 660600.7678752153 ; 33320.00000000001
141 ; 17627.305641614275 ; 4718.576913394412 ; 3202974.5455636936 ; 665319.3447886097 ; 33558.00000000001
142 ; 17274.25003431314 ; 4718.576913394412 ; 3220601.851205308 ; 670037.921702004 ; 33796.00000000001
143 ; 16957.748279268733 ; 4718.576913394412 ; 3237876.101239621 ; 674756.4986153984 ; 34034.00000000001
144 ; 16646.216086668337 ; 4718.576913394412 ; 3254833.84951889 ; 679475.0755287928 ; 34272.00000000001
145 ; 16294.015711466745 ; 4718.576913394412 ; 3271480.0656055585 ; 684193.6524421872 ; 34510.00000000001
146 ; 16556.983338546146 ; 4718.576913394412 ; 3287774.0813170252 ; 688912.2293555816 ; 34748.00000000001
147 ; 16240.285848255702 ; 4718.576913394412 ; 3304331.0646555712 ; 693630.806268976 ; 34986.00000000001
148 ; 16109.951514550625 ; 4718.576913394412 ; 3320571.350503827 ; 698349.3831823703 ; 35224.00000000001
149 ; 16227.51083655737 ; 4718.576913394412 ; 3336681.3020183775 ; 703067.9600957647 ; 35462.00000000001
150 ; 16052.71390967481 ; 4718.576913394412 ; 3352908.812854935 ; 707786.5370091591 ; 35700.00000000001
151 ; 15659.238656838383 ; 4718.576913394412 ; 3368961.52676461 ; 712505.1139225535 ; 35938.00000000001
152 ; 15697.91814343194 ; 4718.576913394412 ; 3384620.7654214483 ; 717223.6908359479 ; 36176.00000000001
153 ; 15628.314485290992 ; 4718.576913394412 ; 3400318.6835648804 ; 721942.2677493423 ; 36414.00000000001
154 ; 15469.198735808952 ; 4718.576913394412 ; 3415946.9980501714 ; 726660.8446627366 ; 36652.00000000001
155 ; 15262.607426720342 ; 4718.576913394412 ; 3431416.1967859804 ; 731379.421576131 ; 36890.00000000001
156 ; 15223.062598413837 ; 4718.576913394412 ; 3446678.8042127006 ; 736097.9984895254 ; 37128.00000000001
157 ; 14977.740226422779 ; 4718.576913394412 ; 3461901.8668111144 ; 740816.5754029198 ; 37366.00000000001
158 ; 14899.686743792248 ; 4718.576913394412 ; 3476879.6070375373 ; 745535.1523163142 ; 37604.00000000001
159 ; 14602.851224081502 ; 4718.576913394412 ; 3491779.2937813294 ; 750253.7292297086 ; 37842.00000000001
160 ; 14718.301992640509 ; 4718.576913394412 ; 3506382.145005411 ; 754972.3061431029 ; 38080.00000000001
161 ; 14591.678248999724 ; 4718.576913394412 ; 3521100.4469980514 ; 759690.8830564973 ; 38318.00000000001
162 ; 14525.941131272211 ; 4718.576913394412 ; 3535692.125247051 ; 764409.4599698917 ; 38556.00000000001
163 ; 14135.971492175944 ; 4718.576913394412 ; 3550218.0663783234 ; 769128.0368832861 ; 38794.00000000001
164 ; 14374.444747936348 ; 4718.576913394412 ; 3564354.0378704993 ; 773846.6137966805 ; 39032.00000000001
165 ; 14016.338148301513 ; 4718.576913394412 ; 3578728.4826184358 ; 778565.1907100749 ; 39270.00000000001
166 ; 13917.773921314607 ; 4718.576913394412 ; 3592744.820766737 ; 783283.7676234692 ; 39508.00000000001
167 ; 13840.850724995713 ; 4718.576913394412 ; 3606662.594688052 ; 788002.3445368636 ; 39746.00000000001
168 ; 13636.272609770804 ; 4718.576913394412 ; 3620503.4454130474 ; 792720.921450258 ; 39984.00000000001
169 ; 13478.489792214064 ; 4718.576913394412 ; 3634139.718022818 ; 797439.4983636524 ; 40222.00000000001
170 ; 13475.470166223284 ; 4718.576913394412 ; 3647618.2078150325 ; 802158.0752770468 ; 40460.00000000001
171 ; 13379.311030837393 ; 4718.576913394412 ; 3661093.6779812556 ; 806876.6521904411 ; 40698.00000000001
172 ; 13025.61274675129 ; 4718.576913394412 ; 3674472.989012093 ; 811595.2291038355 ; 40936.00000000001
173 ; 12915.203827723433 ; 4718.576913394412 ; 3687498.601758844 ; 816313.8060172299 ; 41174.00000000001
174 ; 13012.324304481603 ; 4718.576913394412 ; 3700413.8055865676 ; 821032.3829306243 ; 41412.00000000001
175 ; 12914.83645981066 ; 4718.576913394412 ; 3713426.129891049 ; 825750.9598440187 ; 41650.00000000001
176 ; 12942.21068419793 ; 4718.576913394412 ; 3726340.96635086 ; 830469.5367574131 ; 41888.00000000001
177 ; 12993.822367672026 ; 4718.576913394412 ; 3739283.177035058 ; 835188.1136708074 ; 42126.00000000001
178 ; 13161.923321580272 ; 4718.576913394412 ; 3752276.99940273 ; 839906.6905842018 ; 42364.00000000001
179 ; 13050.928311848857 ; 4718.576913394412 ; 3765438.92272431 ; 844625.2674975962 ; 42602.00000000001
180 ; 13068.359869229462 ; 4718.576913394412 ; 3778489.851036159 ; 849343.8444109906 ; 42840.00000000001
181 ; 13052.452295645546 ; 4718.576913394412 ; 3791558.2109053885 ; 854062.421324385 ; 43078.00000000001
182 ; 13344.167315198303 ; 4718.576913394412 ; 3804610.663201034 ; 858780.9982377794 ; 43316.00000000001
183 ; 13216.668425391186 ; 4718.576913394412 ; 3817954.830516232 ; 863499.5751511737 ; 43554.00000000001
184 ; 13218.187052445448 ; 4718.576913394412 ; 3831171.498941623 ; 868218.1520645681 ; 43792.00000000001
185 ; 13072.916553327785 ; 4718.576913394412 ; 3844389.6859940686 ; 872936.7289779625 ; 44030.00000000001
186 ; 13349.913551486248 ; 4718.576913394412 ; 3857462.6025473964 ; 877655.3058913569 ; 44268.00000000001
