CSV File for the City 1 on Day 222
1 - Minute m 
2 - Power Consumed at minute m 
3 - Power Produced at minute m 
4 - Energy Consumed since the beginning of the day 
5 - Energy Produced since the beginning of the day 
6 - Energy Lost since the beginning of the day on lines starting from the city
 
0 ; 5265.8448873813395 ; 3811.3772018363234 ; 0.0 ; 0.0 ; 0.0
1 ; 5869.587925717807 ; 3811.3772018363234 ; 5265.8448873813395 ; 3811.3772018363234 ; 238.00000000000003
2 ; 6398.057438236285 ; 3811.3772018363234 ; 11135.432813099145 ; 7622.754403672647 ; 476.00000000000006
3 ; 7126.73886372495 ; 3811.3772018363234 ; 17533.490251335432 ; 11434.13160550897 ; 714.0000000000001
4 ; 7737.657761206651 ; 3811.3772018363234 ; 24660.22911506038 ; 15245.508807345293 ; 952.0000000000001
5 ; 8482.083619308629 ; 3811.3772018363234 ; 32397.88687626703 ; 19056.886009181617 ; 1190.0000000000002
6 ; 9184.778715364539 ; 3811.3772018363234 ; 40879.97049557566 ; 22868.26321101794 ; 1428.0000000000002
7 ; 9660.763000374036 ; 3811.3772018363234 ; 50064.7492109402 ; 26679.640412854264 ; 1666.0000000000002
8 ; 10179.38700321442 ; 3811.3772018363234 ; 59725.512211314235 ; 30491.017614690587 ; 1904.0000000000002
9 ; 10717.104997807783 ; 3811.3772018363234 ; 69904.89921452866 ; 34302.39481652691 ; 2142.0000000000005
10 ; 11309.53082480596 ; 3811.3772018363234 ; 80622.00421233644 ; 38113.772018363234 ; 2380.0000000000005
11 ; 11945.619908334746 ; 3811.3772018363234 ; 91931.5350371424 ; 41925.14922019956 ; 2618.0000000000005
12 ; 12534.542796849177 ; 3811.3772018363234 ; 103877.15494547714 ; 45736.52642203588 ; 2856.0000000000005
13 ; 12896.977851350699 ; 3811.3772018363234 ; 116411.69774232632 ; 49547.903623872204 ; 3094.0000000000005
14 ; 13491.634958610162 ; 3811.3772018363234 ; 129308.67559367702 ; 53359.28082570853 ; 3332.0000000000005
15 ; 14207.737003700338 ; 3811.3772018363234 ; 142800.31055228718 ; 57170.65802754485 ; 3570.0000000000005
16 ; 14706.04313154639 ; 3811.3772018363234 ; 157008.04755598752 ; 60982.035229381174 ; 3808.0000000000005
17 ; 15021.624613432741 ; 3811.3772018363234 ; 171714.0906875339 ; 64793.4124312175 ; 4046.0000000000005
18 ; 15813.346108870903 ; 3811.3772018363234 ; 186735.71530096664 ; 68604.78963305382 ; 4284.000000000001
19 ; 16210.15973239032 ; 3811.3772018363234 ; 202549.06140983754 ; 72416.16683489014 ; 4522.000000000001
20 ; 16660.012210806013 ; 3811.3772018363234 ; 218759.22114222785 ; 76227.54403672647 ; 4760.000000000001
21 ; 17117.252000771507 ; 3811.3772018363234 ; 235419.23335303387 ; 80038.92123856279 ; 4998.000000000001
22 ; 17707.514167785004 ; 3811.3772018363234 ; 252536.48535380536 ; 83850.29844039911 ; 5236.000000000001
23 ; 18233.3615141145 ; 3811.3772018363234 ; 270243.99952159036 ; 87661.67564223544 ; 5474.000000000001
24 ; 18720.1800449189 ; 3811.3772018363234 ; 288477.36103570485 ; 91473.05284407176 ; 5712.000000000001
25 ; 19025.28674752831 ; 3811.3772018363234 ; 307197.54108062375 ; 95284.43004590808 ; 5950.000000000001
26 ; 19557.34001700328 ; 3811.3772018363234 ; 326222.82782815205 ; 99095.80724774441 ; 6188.000000000001
27 ; 20110.00193888493 ; 3811.3772018363234 ; 345780.16784515535 ; 102907.18444958073 ; 6426.000000000001
28 ; 20447.184059005216 ; 3811.3772018363234 ; 365890.16978404025 ; 106718.56165141705 ; 6664.000000000001
29 ; 20891.981365644624 ; 3811.3772018363234 ; 386337.3538430455 ; 110529.93885325338 ; 6902.000000000001
30 ; 21147.71952399329 ; 3811.3772018363234 ; 407229.3352086901 ; 114341.3160550897 ; 7140.000000000001
31 ; 21512.10918719345 ; 3811.3772018363234 ; 428377.05473268335 ; 118152.69325692602 ; 7378.000000000001
32 ; 22099.62985049294 ; 3811.3772018363234 ; 449889.1639198768 ; 121964.07045876235 ; 7616.000000000001
33 ; 22485.61031628917 ; 3811.3772018363234 ; 471988.7937703697 ; 125775.44766059867 ; 7854.000000000001
34 ; 22934.355418653256 ; 3811.3772018363234 ; 494474.4040866589 ; 129586.824862435 ; 8092.000000000001
35 ; 23270.09745942737 ; 3811.3772018363234 ; 517408.7595053122 ; 133398.20206427132 ; 8330.000000000002
36 ; 23567.52423539229 ; 3811.3772018363234 ; 540678.8569647395 ; 137209.57926610764 ; 8568.000000000002
37 ; 24015.186280522805 ; 3811.3772018363234 ; 564246.3812001318 ; 141020.95646794396 ; 8806.000000000002
38 ; 24452.772491432585 ; 3811.3772018363234 ; 588261.5674806547 ; 144832.3336697803 ; 9044.000000000002
39 ; 24582.814645716786 ; 3811.3772018363234 ; 612714.3399720873 ; 148643.7108716166 ; 9282.000000000002
40 ; 25137.2668546715 ; 3811.3772018363234 ; 637297.1546178041 ; 152455.08807345293 ; 9520.000000000002
41 ; 25192.41136637979 ; 3811.3772018363234 ; 662434.4214724756 ; 156266.46527528926 ; 9758.000000000002
42 ; 25764.331388325587 ; 3811.3772018363234 ; 687626.8328388555 ; 160077.84247712558 ; 9996.000000000002
43 ; 26039.99853123922 ; 3811.3772018363234 ; 713391.164227181 ; 163889.2196789619 ; 10234.000000000002
44 ; 26340.946412585592 ; 3811.3772018363234 ; 739431.1627584202 ; 167700.59688079823 ; 10472.000000000002
45 ; 26577.63807784838 ; 3811.3772018363234 ; 765772.1091710058 ; 171511.97408263455 ; 10710.000000000002
46 ; 26984.724814049256 ; 3811.3772018363234 ; 792349.7472488541 ; 175323.35128447087 ; 10948.000000000002
47 ; 27070.576181457058 ; 3811.3772018363234 ; 819334.4720629033 ; 179134.7284863072 ; 11186.000000000002
48 ; 27446.450429456356 ; 3811.3772018363234 ; 846405.0482443604 ; 182946.10568814352 ; 11424.000000000002
49 ; 27828.73803643617 ; 3811.3772018363234 ; 873851.4986738167 ; 186757.48288997984 ; 11662.000000000002
50 ; 27946.15890647332 ; 3811.3772018363234 ; 901680.2367102528 ; 190568.86009181617 ; 11900.000000000002
51 ; 28294.058182774203 ; 3811.3772018363234 ; 929626.3956167261 ; 194380.2372936525 ; 12138.000000000002
52 ; 28456.99342957909 ; 3811.3772018363234 ; 957920.4537995004 ; 198191.61449548882 ; 12376.000000000002
53 ; 28656.19832974174 ; 3811.3772018363234 ; 986377.4472290794 ; 202002.99169732514 ; 12614.000000000002
54 ; 29094.19660273001 ; 3811.3772018363234 ; 1015033.6455588212 ; 205814.36889916146 ; 12852.000000000002
55 ; 29224.786239563247 ; 3811.3772018363234 ; 1044127.8421615511 ; 209625.74610099779 ; 13090.000000000002
56 ; 29420.378894692316 ; 3811.3772018363234 ; 1073352.6284011144 ; 213437.1233028341 ; 13328.000000000002
57 ; 29513.420153445928 ; 3811.3772018363234 ; 1102773.0072958067 ; 217248.50050467043 ; 13566.000000000002
58 ; 29806.603180516802 ; 3811.3772018363234 ; 1132286.4274492527 ; 221059.87770650676 ; 13804.000000000002
59 ; 30112.51796626854 ; 3811.3772018363234 ; 1162093.0306297694 ; 224871.25490834308 ; 14042.000000000002
60 ; 30245.623730777043 ; 3811.3772018363234 ; 1192205.548596038 ; 228682.6321101794 ; 14280.000000000002
61 ; 30453.770062463773 ; 3811.3772018363234 ; 1222451.172326815 ; 232494.00931201573 ; 14518.000000000002
62 ; 30527.795756307976 ; 3811.3772018363234 ; 1252904.942389279 ; 236305.38651385205 ; 14756.000000000002
63 ; 30665.638491913192 ; 3811.3772018363234 ; 1283432.7381455868 ; 240116.76371568837 ; 14994.000000000002
64 ; 30978.535022705102 ; 3811.3772018363234 ; 1314098.3766375 ; 243928.1409175247 ; 15232.000000000002
65 ; 30946.57571401705 ; 3811.3772018363234 ; 1345076.911660205 ; 247739.51811936102 ; 15470.000000000002
66 ; 31012.430567068666 ; 3811.3772018363234 ; 1376023.4873742221 ; 251550.89532119734 ; 15708.000000000002
67 ; 31276.793877480377 ; 3811.3772018363234 ; 1407035.917941291 ; 255362.27252303367 ; 15946.000000000002
68 ; 31261.365847091034 ; 3811.3772018363234 ; 1438312.7118187712 ; 259173.64972487 ; 16184.000000000002
69 ; 31602.57910031859 ; 3811.3772018363234 ; 1469574.0776658622 ; 262985.0269267063 ; 16422.000000000004
70 ; 31563.722935197442 ; 3811.3772018363234 ; 1501176.6567661806 ; 266796.40412854264 ; 16660.000000000004
71 ; 31626.05890754172 ; 3811.3772018363234 ; 1532740.379701378 ; 270607.78133037896 ; 16898.000000000004
72 ; 31533.137317075998 ; 3811.3772018363234 ; 1564366.4386089197 ; 274419.1585322153 ; 17136.000000000004
73 ; 31906.760456259402 ; 3811.3772018363234 ; 1595899.5759259958 ; 278230.5357340516 ; 17374.000000000004
74 ; 31884.070345985365 ; 3811.3772018363234 ; 1627806.3363822552 ; 282041.9129358879 ; 17612.000000000004
75 ; 31821.61378624244 ; 3811.3772018363234 ; 1659690.4067282407 ; 285853.29013772425 ; 17850.000000000004
76 ; 31975.2814727733 ; 3811.3772018363234 ; 1691512.020514483 ; 289664.6673395606 ; 18088.000000000004
77 ; 31978.997991435182 ; 3811.3772018363234 ; 1723487.3019872564 ; 293476.0445413969 ; 18326.000000000004
78 ; 32119.027333315134 ; 3811.3772018363234 ; 1755466.2999786916 ; 297287.4217432332 ; 18564.000000000004
79 ; 32127.899604222817 ; 3811.3772018363234 ; 1787585.3273120068 ; 301098.79894506955 ; 18802.000000000004
80 ; 32034.227802252262 ; 3811.3772018363234 ; 1819713.2269162296 ; 304910.17614690587 ; 19040.000000000004
81 ; 32180.94900221321 ; 3811.3772018363234 ; 1851747.4547184817 ; 308721.5533487422 ; 19278.000000000004
82 ; 32168.346913330064 ; 3811.3772018363234 ; 1883928.403720695 ; 312532.9305505785 ; 19516.000000000004
83 ; 32290.53057676298 ; 3811.3772018363234 ; 1916096.750634025 ; 316344.30775241484 ; 19754.000000000004
84 ; 32114.78319083754 ; 3811.3772018363234 ; 1948387.281210788 ; 320155.68495425116 ; 19992.000000000004
85 ; 32263.262075407074 ; 3811.3772018363234 ; 1980502.0644016257 ; 323967.0621560875 ; 20230.000000000004
86 ; 32088.833016689656 ; 3811.3772018363234 ; 2012765.3264770326 ; 327778.4393579238 ; 20468.000000000004
87 ; 32044.284098129163 ; 3811.3772018363234 ; 2044854.1594937223 ; 331589.81655976013 ; 20706.000000000004
88 ; 32111.389697535742 ; 3811.3772018363234 ; 2076898.4435918515 ; 335401.19376159646 ; 20944.000000000004
89 ; 31975.903684880253 ; 3811.3772018363234 ; 2109009.833289387 ; 339212.5709634328 ; 21182.000000000004
90 ; 32043.444453219123 ; 3811.3772018363234 ; 2140985.7369742673 ; 343023.9481652691 ; 21420.000000000004
91 ; 31873.052942691163 ; 3811.3772018363234 ; 2173029.1814274862 ; 346835.3253671054 ; 21658.000000000004
92 ; 31856.20559456449 ; 3811.3772018363234 ; 2204902.2343701776 ; 350646.70256894175 ; 21896.000000000004
93 ; 31861.13075987682 ; 3811.3772018363234 ; 2236758.439964742 ; 354458.0797707781 ; 22134.000000000004
94 ; 31577.00618874821 ; 3811.3772018363234 ; 2268619.5707246186 ; 358269.4569726144 ; 22372.000000000004
95 ; 31303.09759211038 ; 3811.3772018363234 ; 2300196.576913367 ; 362080.8341744507 ; 22610.000000000004
96 ; 31414.702461525405 ; 3811.3772018363234 ; 2331499.6745054773 ; 365892.21137628704 ; 22848.000000000004
97 ; 31176.118157012625 ; 3811.3772018363234 ; 2362914.3769670026 ; 369703.58857812337 ; 23086.000000000004
98 ; 31149.777394364213 ; 3811.3772018363234 ; 2394090.4951240155 ; 373514.9657799597 ; 23324.000000000004
99 ; 30962.568519745117 ; 3811.3772018363234 ; 2425240.2725183796 ; 377326.342981796 ; 23562.000000000004
100 ; 30881.862775999452 ; 3811.3772018363234 ; 2456202.8410381246 ; 381137.72018363234 ; 23800.000000000004
101 ; 30761.68688517057 ; 3811.3772018363234 ; 2487084.703814124 ; 384949.09738546866 ; 24038.000000000004
102 ; 30706.206811768963 ; 3811.3772018363234 ; 2517846.390699295 ; 388760.474587305 ; 24276.000000000004
103 ; 30512.553419382097 ; 3811.3772018363234 ; 2548552.597511064 ; 392571.8517891413 ; 24514.000000000004
104 ; 30515.95382214111 ; 3811.3772018363234 ; 2579065.150930446 ; 396383.22899097763 ; 24752.000000000004
105 ; 30102.10905319609 ; 3811.3772018363234 ; 2609581.104752587 ; 400194.60619281395 ; 24990.000000000004
106 ; 29775.88154866536 ; 3811.3772018363234 ; 2639683.213805783 ; 404005.9833946503 ; 25228.000000000004
107 ; 29872.61791453542 ; 3811.3772018363234 ; 2669459.0953544485 ; 407817.3605964866 ; 25466.000000000004
108 ; 29720.658901235143 ; 3811.3772018363234 ; 2699331.713268984 ; 411628.7377983229 ; 25704.000000000004
109 ; 29123.594288971122 ; 3811.3772018363234 ; 2729052.372170219 ; 415440.11500015925 ; 25942.000000000004
110 ; 28851.450149786226 ; 3811.3772018363234 ; 2758175.9664591905 ; 419251.49220199557 ; 26180.000000000004
111 ; 28869.653887327764 ; 3811.3772018363234 ; 2787027.4166089767 ; 423062.8694038319 ; 26418.000000000004
112 ; 28733.80836656113 ; 3811.3772018363234 ; 2815897.0704963044 ; 426874.2466056682 ; 26656.000000000004
113 ; 28534.448122443606 ; 3811.3772018363234 ; 2844630.8788628657 ; 430685.62380750454 ; 26894.000000000004
114 ; 28423.10397256293 ; 3811.3772018363234 ; 2873165.3269853094 ; 434497.00100934086 ; 27132.000000000004
115 ; 27969.284815898296 ; 3811.3772018363234 ; 2901588.4309578724 ; 438308.3782111772 ; 27370.000000000004
116 ; 27631.493861776926 ; 3811.3772018363234 ; 2929557.7157737706 ; 442119.7554130135 ; 27608.000000000004
117 ; 27424.932715454797 ; 3811.3772018363234 ; 2957189.2096355474 ; 445931.13261484983 ; 27846.000000000004
118 ; 27113.132233861455 ; 3811.3772018363234 ; 2984614.142351002 ; 449742.50981668616 ; 28084.000000000004
119 ; 26748.136429630318 ; 3811.3772018363234 ; 3011727.2745848633 ; 453553.8870185225 ; 28322.000000000004
120 ; 26622.201261878316 ; 3811.3772018363234 ; 3038475.4110144936 ; 457365.2642203588 ; 28560.000000000004
121 ; 26162.31240171146 ; 3811.3772018363234 ; 3065097.612276372 ; 461176.6414221951 ; 28798.000000000004
122 ; 25904.4875008595 ; 3811.3772018363234 ; 3091259.9246780835 ; 464988.01862403145 ; 29036.000000000004
123 ; 25564.931108104887 ; 3811.3772018363234 ; 3117164.412178943 ; 468799.3958258678 ; 29274.000000000004
124 ; 25300.43406691549 ; 3811.3772018363234 ; 3142729.343287048 ; 472610.7730277041 ; 29512.000000000004
125 ; 25030.8134015642 ; 3811.3772018363234 ; 3168029.7773539633 ; 476422.1502295404 ; 29750.000000000004
126 ; 24485.011887073633 ; 3811.3772018363234 ; 3193060.5907555274 ; 480233.52743137674 ; 29988.000000000004
127 ; 24243.19802247379 ; 3811.3772018363234 ; 3217545.602642601 ; 484044.90463321307 ; 30226.000000000004
128 ; 23857.47877917047 ; 3811.3772018363234 ; 3241788.8006650745 ; 487856.2818350494 ; 30464.000000000004
129 ; 23472.03446080746 ; 3811.3772018363234 ; 3265646.279444245 ; 491667.6590368857 ; 30702.000000000004
130 ; 23061.033447429898 ; 3811.3772018363234 ; 3289118.313905053 ; 495479.03623872204 ; 30940.000000000004
131 ; 22810.15690276672 ; 3811.3772018363234 ; 3312179.347352483 ; 499290.41344055836 ; 31178.000000000004
132 ; 22242.792130930902 ; 3811.3772018363234 ; 3334989.5042552496 ; 503101.7906423947 ; 31416.000000000004
133 ; 21873.788345311128 ; 3811.3772018363234 ; 3357232.2963861804 ; 506913.167844231 ; 31654.000000000004
134 ; 21562.89175929089 ; 3811.3772018363234 ; 3379106.0847314917 ; 510724.54504606733 ; 31892.000000000004
135 ; 21223.115108385875 ; 3811.3772018363234 ; 3400668.9764907826 ; 514535.92224790365 ; 32130.000000000004
136 ; 20715.205114830955 ; 3811.3772018363234 ; 3421892.0915991683 ; 518347.29944974 ; 32368.000000000004
137 ; 20240.92910062078 ; 3811.3772018363234 ; 3442607.296713999 ; 522158.6766515763 ; 32606.000000000004
138 ; 19909.91509480572 ; 3811.3772018363234 ; 3462848.2258146196 ; 525970.0538534126 ; 32844.00000000001
139 ; 19268.31078915844 ; 3811.3772018363234 ; 3482758.1409094254 ; 529781.431055249 ; 33082.00000000001
140 ; 18850.801854530015 ; 3811.3772018363234 ; 3502026.451698584 ; 533592.8082570853 ; 33320.00000000001
141 ; 18491.61056760479 ; 3811.3772018363234 ; 3520877.253553114 ; 537404.1854589216 ; 33558.00000000001
142 ; 17984.709530147833 ; 3811.3772018363234 ; 3539368.8641207186 ; 541215.5626607579 ; 33796.00000000001
143 ; 17514.585092353056 ; 3811.3772018363234 ; 3557353.5736508663 ; 545026.9398625942 ; 34034.00000000001
144 ; 17245.085213813134 ; 3811.3772018363234 ; 3574868.1587432195 ; 548838.3170644306 ; 34272.00000000001
145 ; 16935.912004095368 ; 3811.3772018363234 ; 3592113.2439570324 ; 552649.6942662669 ; 34510.00000000001
146 ; 16800.810423127805 ; 3811.3772018363234 ; 3609049.155961128 ; 556461.0714681032 ; 34748.00000000001
147 ; 16605.829035340186 ; 3811.3772018363234 ; 3625849.966384256 ; 560272.4486699395 ; 34986.00000000001
148 ; 16532.768742037915 ; 3811.3772018363234 ; 3642455.795419596 ; 564083.8258717759 ; 35224.00000000001
149 ; 16321.530152695854 ; 3811.3772018363234 ; 3658988.564161634 ; 567895.2030736122 ; 35462.00000000001
150 ; 16213.176353221284 ; 3811.3772018363234 ; 3675310.09431433 ; 571706.5802754485 ; 35700.00000000001
151 ; 16157.643449753617 ; 3811.3772018363234 ; 3691523.270667551 ; 575517.9574772848 ; 35938.00000000001
152 ; 15822.523785067813 ; 3811.3772018363234 ; 3707680.9141173046 ; 579329.3346791212 ; 36176.00000000001
153 ; 15970.513480658221 ; 3811.3772018363234 ; 3723503.4379023723 ; 583140.7118809575 ; 36414.00000000001
154 ; 15657.327027522884 ; 3811.3772018363234 ; 3739473.9513830305 ; 586952.0890827938 ; 36652.00000000001
155 ; 15396.378514667198 ; 3811.3772018363234 ; 3755131.2784105535 ; 590763.4662846301 ; 36890.00000000001
156 ; 15151.005069474226 ; 3811.3772018363234 ; 3770527.6569252205 ; 594574.8434864664 ; 37128.00000000001
157 ; 15202.338137022949 ; 3811.3772018363234 ; 3785678.6619946947 ; 598386.2206883028 ; 37366.00000000001
158 ; 14877.934438292292 ; 3811.3772018363234 ; 3800881.000131718 ; 602197.5978901391 ; 37604.00000000001
159 ; 14731.382810067655 ; 3811.3772018363234 ; 3815758.9345700103 ; 606008.9750919754 ; 37842.00000000001
160 ; 14756.351509219008 ; 3811.3772018363234 ; 3830490.317380078 ; 609820.3522938117 ; 38080.00000000001
161 ; 14433.259539756236 ; 3811.3772018363234 ; 3845246.668889297 ; 613631.7294956481 ; 38318.00000000001
162 ; 14319.254035564616 ; 3811.3772018363234 ; 3859679.9284290536 ; 617443.1066974844 ; 38556.00000000001
163 ; 14003.53728407533 ; 3811.3772018363234 ; 3873999.1824646182 ; 621254.4838993207 ; 38794.00000000001
164 ; 13802.212030762701 ; 3811.3772018363234 ; 3888002.7197486935 ; 625065.861101157 ; 39032.00000000001
165 ; 13734.457010667964 ; 3811.3772018363234 ; 3901804.9317794563 ; 628877.2383029934 ; 39270.00000000001
166 ; 13535.777778638 ; 3811.3772018363234 ; 3915539.388790124 ; 632688.6155048297 ; 39508.00000000001
167 ; 13268.503804774387 ; 3811.3772018363234 ; 3929075.166568762 ; 636499.992706666 ; 39746.00000000001
168 ; 13073.429169600517 ; 3811.3772018363234 ; 3942343.6703735366 ; 640311.3699085023 ; 39984.00000000001
169 ; 12750.171097320163 ; 3811.3772018363234 ; 3955417.099543137 ; 644122.7471103386 ; 40222.00000000001
170 ; 12715.264662926731 ; 3811.3772018363234 ; 3968167.270640457 ; 647934.124312175 ; 40460.00000000001
171 ; 12497.588393075763 ; 3811.3772018363234 ; 3980882.5353033836 ; 651745.5015140113 ; 40698.00000000001
172 ; 12268.503075530705 ; 3811.3772018363234 ; 3993380.1236964595 ; 655556.8787158476 ; 40936.00000000001
173 ; 12167.093214618097 ; 3811.3772018363234 ; 4005648.62677199 ; 659368.255917684 ; 41174.00000000001
174 ; 12135.426502788596 ; 3811.3772018363234 ; 4017815.7199866083 ; 663179.6331195203 ; 41412.00000000001
175 ; 12310.178627007854 ; 3811.3772018363234 ; 4029951.1464893967 ; 666991.0103213566 ; 41650.00000000001
176 ; 12187.350197184289 ; 3811.3772018363234 ; 4042261.3251164043 ; 670802.3875231929 ; 41888.00000000001
177 ; 12329.23423534594 ; 3811.3772018363234 ; 4054448.6753135887 ; 674613.7647250292 ; 42126.00000000001
178 ; 12329.02578654791 ; 3811.3772018363234 ; 4066777.9095489345 ; 678425.1419268656 ; 42364.00000000001
179 ; 12305.883058980247 ; 3811.3772018363234 ; 4079106.9353354825 ; 682236.5191287019 ; 42602.00000000001
180 ; 12470.03656003737 ; 3811.3772018363234 ; 4091412.8183944626 ; 686047.8963305382 ; 42840.00000000001
181 ; 12385.987816188268 ; 3811.3772018363234 ; 4103882.8549544998 ; 689859.2735323745 ; 43078.00000000001
182 ; 12554.018571164635 ; 3811.3772018363234 ; 4116268.8427706882 ; 693670.6507342109 ; 43316.00000000001
183 ; 12612.130986785633 ; 3811.3772018363234 ; 4128822.8613418527 ; 697482.0279360472 ; 43554.00000000001
184 ; 12514.220220542042 ; 3811.3772018363234 ; 4141434.992328638 ; 701293.4051378835 ; 43792.00000000001
