CSV File for the City 2 on Day 210
1 - Minute m 
2 - Power Consumed at minute m 
3 - Power Produced at minute m 
4 - Energy Consumed since the beginning of the day 
5 - Energy Produced since the beginning of the day 
6 - Energy Lost since the beginning of the day on lines starting from the city
 
0 ; 4578.84901859185 ; 34399.04746568062 ; 0.0 ; 0.0 ; 0.0
1 ; 5159.225553022126 ; 34399.04746568062 ; 4578.84901859185 ; 34399.04746568062 ; 0.0
2 ; 5707.894318786645 ; 34399.04746568062 ; 9738.074571613975 ; 68798.09493136124 ; 0.0
3 ; 6433.38693638454 ; 34399.04746568062 ; 15445.968890400622 ; 103197.14239704185 ; 0.0
4 ; 6758.924389523261 ; 34399.04746568062 ; 21879.355826785162 ; 137596.18986272247 ; 0.0
5 ; 7414.680738418001 ; 34399.04746568062 ; 28638.280216308423 ; 171995.2373284031 ; 0.0
6 ; 8005.1789131685455 ; 34399.04746568062 ; 36052.960954726426 ; 206394.28479408374 ; 0.0
7 ; 8415.08872840162 ; 34399.04746568062 ; 44058.13986789497 ; 240793.33225976437 ; 0.0
8 ; 8889.229145702124 ; 34399.04746568062 ; 52473.22859629659 ; 275192.379725445 ; 0.0
9 ; 9297.272709741403 ; 34399.04746568062 ; 61362.45774199872 ; 309591.42719112564 ; 0.0
10 ; 9824.714285978866 ; 34399.04746568062 ; 70659.73045174012 ; 343990.47465680627 ; 0.0
11 ; 10602.687934276983 ; 34399.04746568062 ; 80484.444737719 ; 378389.5221224869 ; 0.0
12 ; 10806.441510622573 ; 34399.04746568062 ; 91087.13267199598 ; 412788.56958816753 ; 0.0
13 ; 11455.979295436076 ; 34399.04746568062 ; 101893.57418261855 ; 447187.61705384817 ; 0.0
14 ; 11983.930449494284 ; 34399.04746568062 ; 113349.55347805463 ; 481586.6645195288 ; 0.0
15 ; 12339.742148315927 ; 34399.04746568062 ; 125333.48392754892 ; 515985.71198520943 ; 0.0
16 ; 12805.44126630081 ; 34399.04746568062 ; 137673.22607586486 ; 550384.75945089 ; 0.0
17 ; 13394.732456297172 ; 34399.04746568062 ; 150478.66734216566 ; 584783.8069165706 ; 0.0
18 ; 13624.427448228036 ; 34399.04746568062 ; 163873.39979846284 ; 619182.8543822513 ; 0.0
19 ; 14177.4900983342 ; 34399.04746568062 ; 177497.82724669087 ; 653581.9018479319 ; 0.0
20 ; 14688.783899172058 ; 34399.04746568062 ; 191675.31734502508 ; 687980.9493136125 ; 0.0
21 ; 15115.436131756584 ; 34399.04746568062 ; 206364.10124419714 ; 722379.9967792932 ; 0.0
22 ; 15458.248320542365 ; 34399.04746568062 ; 221479.53737595372 ; 756779.0442449738 ; 0.0
23 ; 15962.065727487676 ; 34399.04746568062 ; 236937.78569649608 ; 791178.0917106544 ; 0.0
24 ; 16355.617203086189 ; 34399.04746568062 ; 252899.85142398375 ; 825577.1391763351 ; 0.0
25 ; 16917.05723439231 ; 34399.04746568062 ; 269255.46862706996 ; 859976.1866420157 ; 0.0
26 ; 17122.774779070653 ; 34399.04746568062 ; 286172.5258614623 ; 894375.2341076963 ; 0.0
27 ; 17508.25534773234 ; 34399.04746568062 ; 303295.3006405329 ; 928774.281573377 ; 0.0
28 ; 17900.329541909552 ; 34399.04746568062 ; 320803.55598826526 ; 963173.3290390576 ; 0.0
29 ; 18221.590744576275 ; 34399.04746568062 ; 338703.8855301748 ; 997572.3765047382 ; 0.0
30 ; 18761.349731321785 ; 34399.04746568062 ; 356925.4762747511 ; 1031971.4239704189 ; 0.0
31 ; 18903.077036653536 ; 34399.04746568062 ; 375686.8260060729 ; 1066370.4714360994 ; 0.0
32 ; 19521.383305660263 ; 34399.04746568062 ; 394589.90304272645 ; 1100769.51890178 ; 0.0
33 ; 19570.126099598303 ; 34399.04746568062 ; 414111.2863483867 ; 1135168.5663674606 ; 0.0
34 ; 20018.162722839577 ; 34399.04746568062 ; 433681.412447985 ; 1169567.6138331413 ; 0.0
35 ; 20422.695076792555 ; 34399.04746568062 ; 453699.5751708246 ; 1203966.661298822 ; 0.0
36 ; 20678.449483392335 ; 34399.04746568062 ; 474122.27024761715 ; 1238365.7087645025 ; 0.0
37 ; 20998.696597291902 ; 34399.04746568062 ; 494800.7197310095 ; 1272764.7562301832 ; 0.0
38 ; 21249.328630818807 ; 34399.04746568062 ; 515799.4163283014 ; 1307163.8036958638 ; 0.0
39 ; 21636.520118143188 ; 34399.04746568062 ; 537048.7449591202 ; 1341562.8511615444 ; 0.0
40 ; 21914.695904405053 ; 34399.04746568062 ; 558685.2650772633 ; 1375961.898627225 ; 0.0
41 ; 22245.610143315378 ; 34399.04746568062 ; 580599.9609816684 ; 1410360.9460929057 ; 0.0
42 ; 22391.4312976139 ; 34399.04746568062 ; 602845.5711249838 ; 1444759.9935585863 ; 0.0
43 ; 22890.26791966398 ; 34399.04746568062 ; 625237.0024225977 ; 1479159.041024267 ; 0.0
44 ; 22989.36565756209 ; 34399.04746568062 ; 648127.2703422618 ; 1513558.0884899476 ; 0.0
45 ; 23351.16512526238 ; 34399.04746568062 ; 671116.6359998238 ; 1547957.1359556282 ; 0.0
46 ; 23540.532183836924 ; 34399.04746568062 ; 694467.8011250861 ; 1582356.1834213089 ; 0.0
47 ; 23744.019678660745 ; 34399.04746568062 ; 718008.3333089231 ; 1616755.2308869895 ; 0.0
48 ; 24108.595930313702 ; 34399.04746568062 ; 741752.3529875838 ; 1651154.2783526701 ; 0.0
49 ; 24265.70437183307 ; 34399.04746568062 ; 765860.9489178975 ; 1685553.3258183508 ; 0.0
50 ; 24542.884318296008 ; 34399.04746568062 ; 790126.6532897307 ; 1719952.3732840314 ; 0.0
51 ; 24633.191229097094 ; 34399.04746568062 ; 814669.5376080266 ; 1754351.420749712 ; 0.0
52 ; 24856.324698110468 ; 34399.04746568062 ; 839302.7288371237 ; 1788750.4682153927 ; 0.0
53 ; 25188.111857704887 ; 34399.04746568062 ; 864159.0535352342 ; 1823149.5156810733 ; 0.0
54 ; 25473.136765257615 ; 34399.04746568062 ; 889347.1653929391 ; 1857548.563146754 ; 0.0
55 ; 25478.630407030483 ; 34399.04746568062 ; 914820.3021581967 ; 1891947.6106124346 ; 0.0
56 ; 25703.570223194416 ; 34399.04746568062 ; 940298.9325652272 ; 1926346.6580781152 ; 0.0
57 ; 25902.494799632485 ; 34399.04746568062 ; 966002.5027884216 ; 1960745.7055437958 ; 0.0
58 ; 26120.618796667575 ; 34399.04746568062 ; 991904.997588054 ; 1995144.7530094765 ; 0.0
59 ; 26175.428972817073 ; 34399.04746568062 ; 1018025.6163847216 ; 2029543.800475157 ; 0.0
60 ; 26353.284032526186 ; 34399.04746568062 ; 1044201.0453575386 ; 2063942.8479408377 ; 0.0
61 ; 26591.5375956376 ; 34399.04746568062 ; 1070554.3293900648 ; 2098341.895406518 ; 0.0
62 ; 26789.46579169895 ; 34399.04746568062 ; 1097145.8669857024 ; 2132740.9428721988 ; 0.0
63 ; 26873.93352354679 ; 34399.04746568062 ; 1123935.3327774014 ; 2167139.9903378794 ; 0.0
64 ; 26861.807909141495 ; 34399.04746568062 ; 1150809.2663009483 ; 2201539.03780356 ; 0.0
65 ; 27015.43366201875 ; 34399.04746568062 ; 1177671.0742100899 ; 2235938.0852692407 ; 0.0
66 ; 27146.058511115407 ; 34399.04746568062 ; 1204686.5078721086 ; 2270337.1327349213 ; 0.0
67 ; 27452.506019486314 ; 34399.04746568062 ; 1231832.566383224 ; 2304736.180200602 ; 0.0
68 ; 27628.287005377962 ; 34399.04746568062 ; 1259285.0724027103 ; 2339135.2276662826 ; 0.0
69 ; 27568.859960001213 ; 34399.04746568062 ; 1286913.3594080883 ; 2373534.275131963 ; 0.0
70 ; 27579.791321477853 ; 34399.04746568062 ; 1314482.2193680895 ; 2407933.322597644 ; 0.0
71 ; 27585.852849261522 ; 34399.04746568062 ; 1342062.0106895673 ; 2442332.3700633245 ; 0.0
72 ; 27844.34821434077 ; 34399.04746568062 ; 1369647.863538829 ; 2476731.417529005 ; 0.0
73 ; 27876.544915229242 ; 34399.04746568062 ; 1397492.2117531698 ; 2511130.4649946857 ; 0.0
74 ; 27827.725866664565 ; 34399.04746568062 ; 1425368.756668399 ; 2545529.5124603664 ; 0.0
75 ; 27932.697805495478 ; 34399.04746568062 ; 1453196.4825350638 ; 2579928.559926047 ; 0.0
76 ; 28070.97813241855 ; 34399.04746568062 ; 1481129.1803405592 ; 2614327.6073917276 ; 0.0
77 ; 27961.280270983705 ; 34399.04746568062 ; 1509200.1584729778 ; 2648726.6548574083 ; 0.0
78 ; 28074.987874282484 ; 34399.04746568062 ; 1537161.4387439615 ; 2683125.702323089 ; 0.0
79 ; 28114.572903992324 ; 34399.04746568062 ; 1565236.426618244 ; 2717524.7497887695 ; 0.0
80 ; 28149.60763666437 ; 34399.04746568062 ; 1593350.9995222364 ; 2751923.79725445 ; 0.0
81 ; 28066.999475904333 ; 34399.04746568062 ; 1621500.6071589007 ; 2786322.844720131 ; 0.0
82 ; 28189.014883785538 ; 34399.04746568062 ; 1649567.606634805 ; 2820721.8921858114 ; 0.0
83 ; 28132.383382734763 ; 34399.04746568062 ; 1677756.6215185905 ; 2855120.939651492 ; 0.0
84 ; 28154.880702485923 ; 34399.04746568062 ; 1705889.0049013253 ; 2889519.9871171727 ; 0.0
85 ; 28296.280373904356 ; 34399.04746568062 ; 1734043.8856038114 ; 2923919.0345828533 ; 0.0
86 ; 28079.705440769972 ; 34399.04746568062 ; 1762340.1659777157 ; 2958318.082048534 ; 0.0
87 ; 28057.22333358174 ; 34399.04746568062 ; 1790419.8714184857 ; 2992717.1295142146 ; 0.0
88 ; 27874.3405296285 ; 34399.04746568062 ; 1818477.0947520675 ; 3027116.176979895 ; 0.0
89 ; 27927.289571695102 ; 34399.04746568062 ; 1846351.435281696 ; 3061515.224445576 ; 0.0
90 ; 28021.168715851083 ; 34399.04746568062 ; 1874278.724853391 ; 3095914.2719112565 ; 0.0
91 ; 27698.10464270668 ; 34399.04746568062 ; 1902299.8935692422 ; 3130313.319376937 ; 0.0
92 ; 27977.90066118444 ; 34399.04746568062 ; 1929997.998211949 ; 3164712.3668426177 ; 0.0
93 ; 27894.010182659502 ; 34399.04746568062 ; 1957975.8988731334 ; 3199111.4143082984 ; 0.0
94 ; 27598.37840393502 ; 34399.04746568062 ; 1985869.909055793 ; 3233510.461773979 ; 0.0
95 ; 27705.92912005278 ; 34399.04746568062 ; 2013468.287459728 ; 3267909.5092396596 ; 0.0
96 ; 27364.518912495714 ; 34399.04746568062 ; 2041174.216579781 ; 3302308.5567053403 ; 0.0
97 ; 27299.10494015532 ; 34399.04746568062 ; 2068538.7354922767 ; 3336707.604171021 ; 0.0
98 ; 27254.529119248316 ; 34399.04746568062 ; 2095837.840432432 ; 3371106.6516367015 ; 0.0
99 ; 27179.02280028616 ; 34399.04746568062 ; 2123092.3695516805 ; 3405505.699102382 ; 0.0
100 ; 26931.575010007797 ; 34399.04746568062 ; 2150271.392351967 ; 3439904.746568063 ; 0.0
101 ; 26939.190328191587 ; 34399.04746568062 ; 2177202.9673619745 ; 3474303.7940337434 ; 0.0
102 ; 26741.70873868958 ; 34399.04746568062 ; 2204142.157690166 ; 3508702.841499424 ; 0.0
103 ; 26548.207599266585 ; 34399.04746568062 ; 2230883.866428856 ; 3543101.8889651047 ; 0.0
104 ; 26544.86873532534 ; 34399.04746568062 ; 2257432.0740281222 ; 3577500.9364307853 ; 0.0
105 ; 26274.846617874115 ; 34399.04746568062 ; 2283976.9427634478 ; 3611899.983896466 ; 0.0
106 ; 26072.8261540453 ; 34399.04746568062 ; 2310251.789381322 ; 3646299.0313621466 ; 0.0
107 ; 26015.262295463966 ; 34399.04746568062 ; 2336324.6155353673 ; 3680698.0788278272 ; 0.0
108 ; 25817.99936579721 ; 34399.04746568062 ; 2362339.8778308313 ; 3715097.126293508 ; 0.0
109 ; 25639.79607022295 ; 34399.04746568062 ; 2388157.8771966286 ; 3749496.1737591885 ; 0.0
110 ; 25577.27213421768 ; 34399.04746568062 ; 2413797.6732668513 ; 3783895.221224869 ; 0.0
111 ; 25421.174012234755 ; 34399.04746568062 ; 2439374.9454010692 ; 3818294.26869055 ; 0.0
112 ; 25085.05797367461 ; 34399.04746568062 ; 2464796.119413304 ; 3852693.3161562304 ; 0.0
113 ; 24776.169708358382 ; 34399.04746568062 ; 2489881.1773869786 ; 3887092.363621911 ; 0.0
114 ; 24586.25245087472 ; 34399.04746568062 ; 2514657.347095337 ; 3921491.4110875917 ; 0.0
115 ; 24401.29154822779 ; 34399.04746568062 ; 2539243.599546212 ; 3955890.4585532723 ; 0.0
116 ; 24142.208572307296 ; 34399.04746568062 ; 2563644.8910944397 ; 3990289.506018953 ; 0.0
117 ; 24001.419790804357 ; 34399.04746568062 ; 2587787.099666747 ; 4024688.5534846336 ; 0.0
118 ; 23692.56607937533 ; 34399.04746568062 ; 2611788.519457551 ; 4059087.600950314 ; 0.0
119 ; 23624.62670910006 ; 34399.04746568062 ; 2635481.0855369265 ; 4093486.648415995 ; 0.0
120 ; 23224.467843951337 ; 34399.04746568062 ; 2659105.7122460264 ; 4127885.6958816755 ; 0.0
121 ; 22953.21561462697 ; 34399.04746568062 ; 2682330.1800899776 ; 4162284.743347356 ; 0.0
122 ; 22579.130043310794 ; 34399.04746568062 ; 2705283.3957046047 ; 4196683.790813036 ; 0.0
123 ; 22297.82552951804 ; 34399.04746568062 ; 2727862.5257479153 ; 4231082.838278716 ; 0.0
124 ; 22066.139799020126 ; 34399.04746568062 ; 2750160.3512774333 ; 4265481.885744397 ; 0.0
125 ; 21909.967129586475 ; 34399.04746568062 ; 2772226.4910764536 ; 4299880.933210077 ; 0.0
126 ; 21518.374142835273 ; 34399.04746568062 ; 2794136.45820604 ; 4334279.980675757 ; 0.0
127 ; 21230.28207284064 ; 34399.04746568062 ; 2815654.8323488752 ; 4368679.028141437 ; 0.0
128 ; 20843.31532106714 ; 34399.04746568062 ; 2836885.114421716 ; 4403078.075607117 ; 0.0
129 ; 20466.464830323246 ; 34399.04746568062 ; 2857728.4297427833 ; 4437477.123072797 ; 0.0
130 ; 20021.113697495017 ; 34399.04746568062 ; 2878194.8945731064 ; 4471876.170538478 ; 0.0
131 ; 19895.61052151621 ; 34399.04746568062 ; 2898216.0082706013 ; 4506275.218004158 ; 0.0
132 ; 19400.069953701077 ; 34399.04746568062 ; 2918111.6187921176 ; 4540674.265469838 ; 0.0
133 ; 19181.67243792122 ; 34399.04746568062 ; 2937511.6887458186 ; 4575073.312935518 ; 0.0
134 ; 18910.393084909225 ; 34399.04746568062 ; 2956693.3611837397 ; 4609472.360401198 ; 0.0
135 ; 18321.47354489979 ; 34399.04746568062 ; 2975603.754268649 ; 4643871.407866878 ; 0.0
136 ; 18020.48119176864 ; 34399.04746568062 ; 2993925.227813549 ; 4678270.455332559 ; 0.0
137 ; 17809.274737097297 ; 34399.04746568062 ; 3011945.7090053177 ; 4712669.502798239 ; 0.0
138 ; 17234.562981795792 ; 34399.04746568062 ; 3029754.983742415 ; 4747068.550263919 ; 0.0
139 ; 16801.199218242647 ; 34399.04746568062 ; 3046989.546724211 ; 4781467.597729599 ; 0.0
140 ; 16493.720344770056 ; 34399.04746568062 ; 3063790.7459424534 ; 4815866.645195279 ; 0.0
141 ; 16067.160733985402 ; 34399.04746568062 ; 3080284.4662872236 ; 4850265.692660959 ; 0.0
142 ; 15868.908660968851 ; 34399.04746568062 ; 3096351.627021209 ; 4884664.74012664 ; 0.0
143 ; 15202.656837753117 ; 34399.04746568062 ; 3112220.5356821776 ; 4919063.78759232 ; 0.0
144 ; 14794.003236414472 ; 34399.04746568062 ; 3127423.1925199307 ; 4953462.835058 ; 0.0
145 ; 14731.836371981626 ; 34399.04746568062 ; 3142217.195756345 ; 4987861.88252368 ; 0.0
146 ; 14630.269384986845 ; 34399.04746568062 ; 3156949.0321283266 ; 5022260.92998936 ; 0.0
147 ; 14424.84866196642 ; 34399.04746568062 ; 3171579.3015133133 ; 5056659.97745504 ; 0.0
148 ; 14326.080351647208 ; 34399.04746568062 ; 3186004.15017528 ; 5091059.024920721 ; 0.0
149 ; 14095.900679091767 ; 34399.04746568062 ; 3200330.230526927 ; 5125458.072386401 ; 0.0
150 ; 14140.002945635422 ; 34399.04746568062 ; 3214426.131206019 ; 5159857.119852081 ; 0.0
151 ; 13925.290116630564 ; 34399.04746568062 ; 3228566.1341516543 ; 5194256.167317761 ; 0.0
152 ; 13739.00417133392 ; 34399.04746568062 ; 3242491.424268285 ; 5228655.214783441 ; 0.0
153 ; 13603.380270971838 ; 34399.04746568062 ; 3256230.4284396186 ; 5263054.262249121 ; 0.0
154 ; 13703.349152436895 ; 34399.04746568062 ; 3269833.8087105905 ; 5297453.309714802 ; 0.0
155 ; 13394.40075583271 ; 34399.04746568062 ; 3283537.1578630274 ; 5331852.357180482 ; 0.0
156 ; 13281.701921834532 ; 34399.04746568062 ; 3296931.5586188603 ; 5366251.404646162 ; 0.0
157 ; 12991.859105104464 ; 34399.04746568062 ; 3310213.260540695 ; 5400650.452111842 ; 0.0
158 ; 13011.50303629024 ; 34399.04746568062 ; 3323205.1196457995 ; 5435049.499577522 ; 0.0
159 ; 12967.873620432936 ; 34399.04746568062 ; 3336216.62268209 ; 5469448.547043202 ; 0.0
160 ; 12643.320318007352 ; 34399.04746568062 ; 3349184.4963025227 ; 5503847.594508883 ; 0.0
161 ; 12380.817686255625 ; 34399.04746568062 ; 3361827.81662053 ; 5538246.641974563 ; 0.0
162 ; 12316.322880425365 ; 34399.04746568062 ; 3374208.6343067857 ; 5572645.689440243 ; 0.0
163 ; 12123.220080954074 ; 34399.04746568062 ; 3386524.957187211 ; 5607044.736905923 ; 0.0
164 ; 11991.278818688945 ; 34399.04746568062 ; 3398648.177268165 ; 5641443.784371603 ; 0.0
165 ; 11721.709472923427 ; 34399.04746568062 ; 3410639.456086854 ; 5675842.831837283 ; 0.0
166 ; 11624.236210931198 ; 34399.04746568062 ; 3422361.1655597775 ; 5710241.879302964 ; 0.0
167 ; 11568.517060251555 ; 34399.04746568062 ; 3433985.4017707086 ; 5744640.926768644 ; 0.0
168 ; 11397.974577936548 ; 34399.04746568062 ; 3445553.91883096 ; 5779039.974234324 ; 0.0
169 ; 11310.850589329875 ; 34399.04746568062 ; 3456951.8934088964 ; 5813439.021700004 ; 0.0
170 ; 10968.204552376203 ; 34399.04746568062 ; 3468262.7439982262 ; 5847838.069165684 ; 0.0
171 ; 10980.329378621132 ; 34399.04746568062 ; 3479230.9485506024 ; 5882237.116631364 ; 0.0
172 ; 10691.338293304452 ; 34399.04746568062 ; 3490211.2779292236 ; 5916636.164097045 ; 0.0
173 ; 10599.224981636076 ; 34399.04746568062 ; 3500902.6162225283 ; 5951035.211562725 ; 0.0
174 ; 10553.864592395314 ; 34399.04746568062 ; 3511501.8412041645 ; 5985434.259028405 ; 0.0
175 ; 10562.516962202082 ; 34399.04746568062 ; 3522055.70579656 ; 6019833.306494085 ; 0.0
176 ; 10710.056676942195 ; 34399.04746568062 ; 3532618.222758762 ; 6054232.353959765 ; 0.0
177 ; 10508.384282031297 ; 34399.04746568062 ; 3543328.2794357045 ; 6088631.401425445 ; 0.0
178 ; 10557.349712219677 ; 34399.04746568062 ; 3553836.6637177356 ; 6123030.448891126 ; 0.0
179 ; 10489.659766954344 ; 34399.04746568062 ; 3564394.013429955 ; 6157429.496356806 ; 0.0
180 ; 10885.154850753966 ; 34399.04746568062 ; 3574883.6731969095 ; 6191828.543822486 ; 0.0
181 ; 10757.80809779391 ; 34399.04746568062 ; 3585768.8280476634 ; 6226227.591288166 ; 0.0
182 ; 10804.100385079855 ; 34399.04746568062 ; 3596526.636145457 ; 6260626.638753846 ; 0.0
183 ; 10709.610626699043 ; 34399.04746568062 ; 3607330.736530537 ; 6295025.686219526 ; 0.0
184 ; 10923.646276045693 ; 34399.04746568062 ; 3618040.3471572357 ; 6329424.733685207 ; 0.0
185 ; 10928.83031885062 ; 34399.04746568062 ; 3628963.9934332813 ; 6363823.781150887 ; 0.0
186 ; 11142.09011136401 ; 34399.04746568062 ; 3639892.823752132 ; 6398222.828616567 ; 0.0
187 ; 10964.7716125 ; 34399.04746568062 ; 3651034.913863496 ; 6432621.876082247 ; 0.0
188 ; 11012.04146616019 ; 34399.04746568062 ; 3661999.6854759958 ; 6467020.923547927 ; 0.0
189 ; 11020.812305922997 ; 34399.04746568062 ; 3673011.726942156 ; 6501419.971013607 ; 0.0
190 ; 11044.689658467865 ; 34399.04746568062 ; 3684032.539248079 ; 6535819.018479288 ; 0.0
191 ; 11141.905096518136 ; 34399.04746568062 ; 3695077.2289065467 ; 6570218.065944968 ; 0.0
192 ; 11305.68160705064 ; 34399.04746568062 ; 3706219.134003065 ; 6604617.113410648 ; 0.0
193 ; 11262.289541069636 ; 34399.04746568062 ; 3717524.815610116 ; 6639016.160876328 ; 0.0
194 ; 11114.466363604577 ; 34399.04746568062 ; 3728787.1051511853 ; 6673415.208342008 ; 0.0
195 ; 11509.543505010473 ; 34399.04746568062 ; 3739901.57151479 ; 6707814.255807688 ; 0.0
196 ; 11296.37429917519 ; 34399.04746568062 ; 3751411.1150198006 ; 6742213.303273369 ; 0.0
197 ; 11321.956478861228 ; 34399.04746568062 ; 3762707.4893189757 ; 6776612.350739049 ; 0.0
198 ; 11487.238736049143 ; 34399.04746568062 ; 3774029.445797837 ; 6811011.398204729 ; 0.0
199 ; 11343.1242781793 ; 34399.04746568062 ; 3785516.684533886 ; 6845410.445670409 ; 0.0
200 ; 11362.260879958068 ; 34399.04746568062 ; 3796859.8088120655 ; 6879809.493136089 ; 0.0
201 ; 11705.314783571479 ; 34399.04746568062 ; 3808222.0696920236 ; 6914208.540601769 ; 0.0
202 ; 11439.781232869487 ; 34399.04746568062 ; 3819927.384475595 ; 6948607.58806745 ; 0.0
203 ; 11614.701347764214 ; 34399.04746568062 ; 3831367.1657084646 ; 6983006.63553313 ; 0.0
204 ; 11470.0352417084 ; 34399.04746568062 ; 3842981.8670562287 ; 7017405.68299881 ; 0.0
205 ; 11808.662733207375 ; 34399.04746568062 ; 3854451.9022979373 ; 7051804.73046449 ; 0.0
206 ; 11684.188943944397 ; 34399.04746568062 ; 3866260.565031145 ; 7086203.77793017 ; 0.0
207 ; 11921.939708716372 ; 34399.04746568062 ; 3877944.753975089 ; 7120602.82539585 ; 0.0
208 ; 11919.320880353778 ; 34399.04746568062 ; 3889866.6936838054 ; 7155001.872861531 ; 0.0
209 ; 11976.129974827447 ; 34399.04746568062 ; 3901786.0145641593 ; 7189400.920327211 ; 0.0
210 ; 11993.212444620309 ; 34399.04746568062 ; 3913762.144538987 ; 7223799.967792891 ; 0.0
211 ; 12085.707555920768 ; 34399.04746568062 ; 3925755.356983607 ; 7258199.015258571 ; 0.0
212 ; 12054.440163626949 ; 34399.04746568062 ; 3937841.064539528 ; 7292598.062724251 ; 0.0
213 ; 12023.18944392354 ; 34399.04746568062 ; 3949895.504703155 ; 7326997.1101899315 ; 0.0
214 ; 12117.846317452786 ; 34399.04746568062 ; 3961918.6941470783 ; 7361396.157655612 ; 0.0
215 ; 12287.305214581998 ; 34399.04746568062 ; 3974036.540464531 ; 7395795.205121292 ; 0.0
216 ; 11970.667011039593 ; 34399.04746568062 ; 3986323.845679113 ; 7430194.252586972 ; 0.0
