CSV File for the City 2 on Day 171
1 - Minute m 
2 - Power Consumed at minute m 
3 - Power Produced at minute m 
4 - Energy Consumed since the beginning of the day 
5 - Energy Produced since the beginning of the day 
6 - Energy Lost since the beginning of the day on lines starting from the city
 
0 ; 6192.417209064748 ; 31376.969842315342 ; 0.0 ; 0.0 ; 0.0
1 ; 6467.918439389227 ; 31376.969842315342 ; 6192.417209064748 ; 31376.969842315342 ; 0.0
2 ; 6772.543232892834 ; 31376.969842315342 ; 12660.335648453976 ; 62753.939684630684 ; 0.0
3 ; 7293.67116475539 ; 31376.969842315342 ; 19432.87888134681 ; 94130.90952694602 ; 0.0
4 ; 7985.724550733546 ; 31376.969842315342 ; 26726.5500461022 ; 125507.87936926137 ; 0.0
5 ; 8346.979141615018 ; 31376.969842315342 ; 34712.27459683574 ; 156884.84921157671 ; 0.0
6 ; 8767.219475540862 ; 31376.969842315342 ; 43059.25373845076 ; 188261.81905389205 ; 0.0
7 ; 9191.17968317874 ; 31376.969842315342 ; 51826.47321399162 ; 219638.78889620738 ; 0.0
8 ; 9474.343499087137 ; 31376.969842315342 ; 61017.65289717037 ; 251015.7587385227 ; 0.0
9 ; 10118.374937597662 ; 31376.969842315342 ; 70491.9963962575 ; 282392.72858083807 ; 0.0
10 ; 10417.591972986105 ; 31376.969842315342 ; 80610.37133385516 ; 313769.69842315343 ; 0.0
11 ; 10988.269434930255 ; 31376.969842315342 ; 91027.96330684127 ; 345146.6682654688 ; 0.0
12 ; 11275.910037973948 ; 31376.969842315342 ; 102016.23274177153 ; 376523.63810778415 ; 0.0
13 ; 11580.14421802457 ; 31376.969842315342 ; 113292.14277974548 ; 407900.6079500995 ; 0.0
14 ; 12109.839206395432 ; 31376.969842315342 ; 124872.28699777005 ; 439277.5777924149 ; 0.0
15 ; 12454.614909318081 ; 31376.969842315342 ; 136982.12620416548 ; 470654.54763473023 ; 0.0
16 ; 13058.077961299963 ; 31376.969842315342 ; 149436.74111348356 ; 502031.5174770456 ; 0.0
17 ; 13164.837971387671 ; 31376.969842315342 ; 162494.81907478353 ; 533408.487319361 ; 0.0
18 ; 13582.883745693181 ; 31376.969842315342 ; 175659.6570461712 ; 564785.4571616763 ; 0.0
19 ; 13957.666809114477 ; 31376.969842315342 ; 189242.5407918644 ; 596162.4270039916 ; 0.0
20 ; 14262.58557913981 ; 31376.969842315342 ; 203200.20760097887 ; 627539.3968463069 ; 0.0
21 ; 14701.556459474374 ; 31376.969842315342 ; 217462.7931801187 ; 658916.3666886222 ; 0.0
22 ; 14962.951319249654 ; 31376.969842315342 ; 232164.34963959307 ; 690293.3365309375 ; 0.0
23 ; 15342.396724343716 ; 31376.969842315342 ; 247127.30095884274 ; 721670.3063732528 ; 0.0
24 ; 15660.784527223543 ; 31376.969842315342 ; 262469.69768318644 ; 753047.2762155681 ; 0.0
25 ; 16081.777085134478 ; 31376.969842315342 ; 278130.48221041 ; 784424.2460578834 ; 0.0
26 ; 16526.543995566008 ; 31376.969842315342 ; 294212.25929554447 ; 815801.2159001987 ; 0.0
27 ; 16667.79516929095 ; 31376.969842315342 ; 310738.8032911105 ; 847178.185742514 ; 0.0
28 ; 17024.475996144167 ; 31376.969842315342 ; 327406.59846040147 ; 878555.1555848293 ; 0.0
29 ; 17196.991346293675 ; 31376.969842315342 ; 344431.07445654564 ; 909932.1254271446 ; 0.0
30 ; 17544.825664403306 ; 31376.969842315342 ; 361628.0658028393 ; 941309.0952694599 ; 0.0
31 ; 17985.38656517998 ; 31376.969842315342 ; 379172.8914672426 ; 972686.0651117752 ; 0.0
32 ; 18100.579972578755 ; 31376.969842315342 ; 397158.2780324226 ; 1004063.0349540905 ; 0.0
33 ; 18371.596408249945 ; 31376.969842315342 ; 415258.8580050013 ; 1035440.0047964058 ; 0.0
34 ; 18884.989995960837 ; 31376.969842315342 ; 433630.45441325125 ; 1066816.9746387212 ; 0.0
35 ; 18920.58352964933 ; 31376.969842315342 ; 452515.4444092121 ; 1098193.9444810366 ; 0.0
36 ; 19174.344464130383 ; 31376.969842315342 ; 471436.0279388614 ; 1129570.914323352 ; 0.0
37 ; 19510.24401540741 ; 31376.969842315342 ; 490610.3724029918 ; 1160947.8841656675 ; 0.0
38 ; 19612.224363706708 ; 31376.969842315342 ; 510120.6164183992 ; 1192324.8540079829 ; 0.0
39 ; 20015.94539467768 ; 31376.969842315342 ; 529732.8407821059 ; 1223701.8238502983 ; 0.0
40 ; 20291.690850850333 ; 31376.969842315342 ; 549748.7861767836 ; 1255078.7936926137 ; 0.0
41 ; 20471.579759358065 ; 31376.969842315342 ; 570040.4770276339 ; 1286455.7635349291 ; 0.0
42 ; 20715.035448969353 ; 31376.969842315342 ; 590512.056786992 ; 1317832.7333772446 ; 0.0
43 ; 20932.057609360196 ; 31376.969842315342 ; 611227.0922359613 ; 1349209.70321956 ; 0.0
44 ; 21437.923159695787 ; 31376.969842315342 ; 632159.1498453215 ; 1380586.6730618754 ; 0.0
45 ; 21367.466366389534 ; 31376.969842315342 ; 653597.0730050174 ; 1411963.6429041908 ; 0.0
46 ; 21602.265652150196 ; 31376.969842315342 ; 674964.5393714069 ; 1443340.6127465062 ; 0.0
47 ; 21769.76419688215 ; 31376.969842315342 ; 696566.805023557 ; 1474717.5825888216 ; 0.0
48 ; 21872.582424900673 ; 31376.969842315342 ; 718336.5692204392 ; 1506094.552431137 ; 0.0
49 ; 22096.592227382596 ; 31376.969842315342 ; 740209.1516453399 ; 1537471.5222734525 ; 0.0
50 ; 22303.275669506766 ; 31376.969842315342 ; 762305.7438727225 ; 1568848.492115768 ; 0.0
51 ; 22376.098955236263 ; 31376.969842315342 ; 784609.0195422292 ; 1600225.4619580833 ; 0.0
52 ; 22838.202513193282 ; 31376.969842315342 ; 806985.1184974655 ; 1631602.4318003987 ; 0.0
53 ; 22887.70988115863 ; 31376.969842315342 ; 829823.3210106588 ; 1662979.4016427142 ; 0.0
54 ; 23105.86351272218 ; 31376.969842315342 ; 852711.0308918174 ; 1694356.3714850296 ; 0.0
55 ; 23200.552380879275 ; 31376.969842315342 ; 875816.8944045396 ; 1725733.341327345 ; 0.0
56 ; 23270.703684578104 ; 31376.969842315342 ; 899017.4467854189 ; 1757110.3111696604 ; 0.0
57 ; 23537.77762867326 ; 31376.969842315342 ; 922288.150469997 ; 1788487.2810119758 ; 0.0
58 ; 23582.787995774703 ; 31376.969842315342 ; 945825.9280986702 ; 1819864.2508542913 ; 0.0
59 ; 23670.606861506407 ; 31376.969842315342 ; 969408.7160944449 ; 1851241.2206966067 ; 0.0
60 ; 24012.843590721426 ; 31376.969842315342 ; 993079.3229559512 ; 1882618.190538922 ; 0.0
61 ; 24024.149006560867 ; 31376.969842315342 ; 1017092.1665466726 ; 1913995.1603812375 ; 0.0
62 ; 24113.764801499292 ; 31376.969842315342 ; 1041116.3155532335 ; 1945372.130223553 ; 0.0
63 ; 24224.25141279572 ; 31376.969842315342 ; 1065230.0803547327 ; 1976749.1000658683 ; 0.0
64 ; 24212.093118566398 ; 31376.969842315342 ; 1089454.3317675283 ; 2008126.0699081838 ; 0.0
65 ; 24413.997987590374 ; 31376.969842315342 ; 1113666.4248860946 ; 2039503.0397504992 ; 0.0
66 ; 24742.68402776239 ; 31376.969842315342 ; 1138080.422873685 ; 2070880.0095928146 ; 0.0
67 ; 24528.883411908922 ; 31376.969842315342 ; 1162823.1069014473 ; 2102256.97943513 ; 0.0
68 ; 24788.757414368785 ; 31376.969842315342 ; 1187351.9903133563 ; 2133633.949277445 ; 0.0
69 ; 24700.872982714114 ; 31376.969842315342 ; 1212140.747727725 ; 2165010.9191197604 ; 0.0
70 ; 24847.831574477976 ; 31376.969842315342 ; 1236841.620710439 ; 2196387.8889620756 ; 0.0
71 ; 24971.491663076024 ; 31376.969842315342 ; 1261689.452284917 ; 2227764.8588043908 ; 0.0
72 ; 25040.227178602538 ; 31376.969842315342 ; 1286660.943947993 ; 2259141.828646706 ; 0.0
73 ; 25113.54066833128 ; 31376.969842315342 ; 1311701.1711265955 ; 2290518.798489021 ; 0.0
74 ; 25032.992560627565 ; 31376.969842315342 ; 1336814.7117949268 ; 2321895.7683313363 ; 0.0
75 ; 25160.063925639857 ; 31376.969842315342 ; 1361847.7043555544 ; 2353272.7381736515 ; 0.0
76 ; 25202.125868844058 ; 31376.969842315342 ; 1387007.7682811944 ; 2384649.7080159667 ; 0.0
77 ; 25395.110471401356 ; 31376.969842315342 ; 1412209.8941500385 ; 2416026.677858282 ; 0.0
78 ; 25252.47320429931 ; 31376.969842315342 ; 1437605.0046214398 ; 2447403.647700597 ; 0.0
79 ; 25062.493243349993 ; 31376.969842315342 ; 1462857.4778257392 ; 2478780.6175429123 ; 0.0
80 ; 25200.27748907139 ; 31376.969842315342 ; 1487919.9710690891 ; 2510157.5873852274 ; 0.0
81 ; 25354.119104994516 ; 31376.969842315342 ; 1513120.2485581606 ; 2541534.5572275426 ; 0.0
82 ; 25240.646506565114 ; 31376.969842315342 ; 1538474.367663155 ; 2572911.527069858 ; 0.0
83 ; 25303.171888474557 ; 31376.969842315342 ; 1563715.0141697202 ; 2604288.496912173 ; 0.0
84 ; 25288.2109778417 ; 31376.969842315342 ; 1589018.1860581948 ; 2635665.466754488 ; 0.0
85 ; 25140.34333846203 ; 31376.969842315342 ; 1614306.3970360365 ; 2667042.4365968034 ; 0.0
86 ; 25060.123236073097 ; 31376.969842315342 ; 1639446.7403744985 ; 2698419.4064391186 ; 0.0
87 ; 25391.355504348518 ; 31376.969842315342 ; 1664506.8636105717 ; 2729796.3762814337 ; 0.0
88 ; 25111.560054531026 ; 31376.969842315342 ; 1689898.2191149201 ; 2761173.346123749 ; 0.0
89 ; 25065.407499351702 ; 31376.969842315342 ; 1715009.7791694512 ; 2792550.315966064 ; 0.0
90 ; 25184.249619688377 ; 31376.969842315342 ; 1740075.186668803 ; 2823927.2858083793 ; 0.0
91 ; 25089.90394068632 ; 31376.969842315342 ; 1765259.4362884914 ; 2855304.2556506945 ; 0.0
92 ; 24945.458681640393 ; 31376.969842315342 ; 1790349.3402291776 ; 2886681.2254930097 ; 0.0
93 ; 24566.270044084707 ; 31376.969842315342 ; 1815294.798910818 ; 2918058.195335325 ; 0.0
94 ; 24976.031848840175 ; 31376.969842315342 ; 1839861.0689549027 ; 2949435.16517764 ; 0.0
95 ; 24734.97902772913 ; 31376.969842315342 ; 1864837.100803743 ; 2980812.135019955 ; 0.0
96 ; 24734.066007939444 ; 31376.969842315342 ; 1889572.079831472 ; 3012189.1048622704 ; 0.0
97 ; 24882.01811326255 ; 31376.969842315342 ; 1914306.1458394113 ; 3043566.0747045856 ; 0.0
98 ; 24448.528698978578 ; 31376.969842315342 ; 1939188.1639526738 ; 3074943.044546901 ; 0.0
99 ; 24437.17125930512 ; 31376.969842315342 ; 1963636.6926516523 ; 3106320.014389216 ; 0.0
100 ; 24324.200805015484 ; 31376.969842315342 ; 1988073.8639109575 ; 3137696.984231531 ; 0.0
101 ; 24105.541836905908 ; 31376.969842315342 ; 2012398.0647159729 ; 3169073.9540738463 ; 0.0
102 ; 24096.101973162906 ; 31376.969842315342 ; 2036503.6065528789 ; 3200450.9239161615 ; 0.0
103 ; 23922.141152712087 ; 31376.969842315342 ; 2060599.7085260418 ; 3231827.8937584767 ; 0.0
104 ; 23938.409392887566 ; 31376.969842315342 ; 2084521.8496787539 ; 3263204.863600792 ; 0.0
105 ; 23802.20800197179 ; 31376.969842315342 ; 2108460.2590716416 ; 3294581.833443107 ; 0.0
106 ; 23666.627607270133 ; 31376.969842315342 ; 2132262.4670736133 ; 3325958.8032854223 ; 0.0
107 ; 23511.996423165147 ; 31376.969842315342 ; 2155929.0946808835 ; 3357335.7731277375 ; 0.0
108 ; 23283.765985924732 ; 31376.969842315342 ; 2179441.091104049 ; 3388712.7429700526 ; 0.0
109 ; 23148.11673644058 ; 31376.969842315342 ; 2202724.8570899735 ; 3420089.712812368 ; 0.0
110 ; 23206.914455743718 ; 31376.969842315342 ; 2225872.973826414 ; 3451466.682654683 ; 0.0
111 ; 22813.809156177198 ; 31376.969842315342 ; 2249079.8882821575 ; 3482843.652496998 ; 0.0
112 ; 22711.43793696499 ; 31376.969842315342 ; 2271893.6974383346 ; 3514220.6223393134 ; 0.0
113 ; 22539.212561639113 ; 31376.969842315342 ; 2294605.1353752995 ; 3545597.5921816286 ; 0.0
114 ; 22431.05481318694 ; 31376.969842315342 ; 2317144.3479369385 ; 3576974.5620239438 ; 0.0
115 ; 22211.983502652267 ; 31376.969842315342 ; 2339575.4027501256 ; 3608351.531866259 ; 0.0
116 ; 22118.231940182446 ; 31376.969842315342 ; 2361787.386252778 ; 3639728.501708574 ; 0.0
117 ; 21880.47605094855 ; 31376.969842315342 ; 2383905.6181929605 ; 3671105.4715508893 ; 0.0
118 ; 21580.98702416197 ; 31376.969842315342 ; 2405786.094243909 ; 3702482.4413932045 ; 0.0
119 ; 21427.34895314285 ; 31376.969842315342 ; 2427367.081268071 ; 3733859.4112355197 ; 0.0
120 ; 21163.151357354105 ; 31376.969842315342 ; 2448794.430221214 ; 3765236.381077835 ; 0.0
121 ; 21043.4397583849 ; 31376.969842315342 ; 2469957.581578568 ; 3796613.35092015 ; 0.0
122 ; 20789.75936549189 ; 31376.969842315342 ; 2491001.021336953 ; 3827990.3207624652 ; 0.0
123 ; 20511.33504467281 ; 31376.969842315342 ; 2511790.780702445 ; 3859367.2906047804 ; 0.0
124 ; 20383.871992849643 ; 31376.969842315342 ; 2532302.115747118 ; 3890744.2604470956 ; 0.0
125 ; 20191.8519286913 ; 31376.969842315342 ; 2552685.9877399676 ; 3922121.230289411 ; 0.0
126 ; 19877.21724683055 ; 31376.969842315342 ; 2572877.839668659 ; 3953498.200131726 ; 0.0
127 ; 19533.98964998413 ; 31376.969842315342 ; 2592755.0569154895 ; 3984875.169974041 ; 0.0
128 ; 19273.482548412183 ; 31376.969842315342 ; 2612289.0465654735 ; 4016252.1398163564 ; 0.0
129 ; 18888.954176660267 ; 31376.969842315342 ; 2631562.529113886 ; 4047629.1096586715 ; 0.0
130 ; 18545.391011112657 ; 31376.969842315342 ; 2650451.483290546 ; 4079006.0795009867 ; 0.0
131 ; 18471.9970892237 ; 31376.969842315342 ; 2668996.874301659 ; 4110383.049343302 ; 0.0
132 ; 18177.220235799963 ; 31376.969842315342 ; 2687468.8713908824 ; 4141760.019185617 ; 0.0
133 ; 17974.278831045885 ; 31376.969842315342 ; 2705646.0916266823 ; 4173136.9890279323 ; 0.0
134 ; 17632.423522991674 ; 31376.969842315342 ; 2723620.3704577284 ; 4204513.958870248 ; 0.0
135 ; 17207.84157810361 ; 31376.969842315342 ; 2741252.79398072 ; 4235890.928712564 ; 0.0
136 ; 16883.38929920702 ; 31376.969842315342 ; 2758460.6355588236 ; 4267267.898554879 ; 0.0
137 ; 16646.837223886254 ; 31376.969842315342 ; 2775344.0248580305 ; 4298644.868397195 ; 0.0
138 ; 16433.887557186026 ; 31376.969842315342 ; 2791990.8620819165 ; 4330021.838239511 ; 0.0
139 ; 16045.519863425276 ; 31376.969842315342 ; 2808424.7496391027 ; 4361398.808081826 ; 0.0
140 ; 15773.52763896009 ; 31376.969842315342 ; 2824470.269502528 ; 4392775.777924142 ; 0.0
141 ; 15678.939864191074 ; 31376.969842315342 ; 2840243.797141488 ; 4424152.7477664575 ; 0.0
142 ; 15140.583767160633 ; 31376.969842315342 ; 2855922.7370056794 ; 4455529.717608773 ; 0.0
143 ; 14589.868773053455 ; 31376.969842315342 ; 2871063.32077284 ; 4486906.687451089 ; 0.0
144 ; 14431.185782825098 ; 31376.969842315342 ; 2885653.1895458936 ; 4518283.657293404 ; 0.0
145 ; 14328.14016576495 ; 31376.969842315342 ; 2900084.3753287187 ; 4549660.62713572 ; 0.0
146 ; 14140.940278644606 ; 31376.969842315342 ; 2914412.5154944835 ; 4581037.596978036 ; 0.0
147 ; 14119.122127527487 ; 31376.969842315342 ; 2928553.455773128 ; 4612414.566820351 ; 0.0
148 ; 13823.403565265162 ; 31376.969842315342 ; 2942672.5779006556 ; 4643791.536662667 ; 0.0
149 ; 13954.560228179558 ; 31376.969842315342 ; 2956495.981465921 ; 4675168.506504983 ; 0.0
150 ; 13684.67417366507 ; 31376.969842315342 ; 2970450.5416941005 ; 4706545.476347298 ; 0.0
151 ; 13666.519272009878 ; 31376.969842315342 ; 2984135.2158677657 ; 4737922.446189614 ; 0.0
152 ; 13495.910112200017 ; 31376.969842315342 ; 2997801.7351397756 ; 4769299.41603193 ; 0.0
153 ; 13051.809858813875 ; 31376.969842315342 ; 3011297.6452519754 ; 4800676.385874245 ; 0.0
154 ; 13366.637534111687 ; 31376.969842315342 ; 3024349.4551107893 ; 4832053.355716561 ; 0.0
155 ; 13339.823543109194 ; 31376.969842315342 ; 3037716.092644901 ; 4863430.325558877 ; 0.0
156 ; 13180.014043720626 ; 31376.969842315342 ; 3051055.91618801 ; 4894807.295401192 ; 0.0
157 ; 12964.766168825881 ; 31376.969842315342 ; 3064235.9302317305 ; 4926184.265243508 ; 0.0
158 ; 12867.620389088788 ; 31376.969842315342 ; 3077200.6964005562 ; 4957561.235085824 ; 0.0
159 ; 12738.66869389972 ; 31376.969842315342 ; 3090068.3167896452 ; 4988938.204928139 ; 0.0
160 ; 12510.573619966057 ; 31376.969842315342 ; 3102806.985483545 ; 5020315.174770455 ; 0.0
161 ; 12402.69443067765 ; 31376.969842315342 ; 3115317.559103511 ; 5051692.1446127705 ; 0.0
162 ; 12157.600524252795 ; 31376.969842315342 ; 3127720.2535341885 ; 5083069.114455086 ; 0.0
163 ; 12093.557031221302 ; 31376.969842315342 ; 3139877.8540584412 ; 5114446.084297402 ; 0.0
164 ; 11861.685500295609 ; 31376.969842315342 ; 3151971.4110896625 ; 5145823.0541397175 ; 0.0
165 ; 11815.018667304072 ; 31376.969842315342 ; 3163833.0965899583 ; 5177200.023982033 ; 0.0
166 ; 11725.544272332172 ; 31376.969842315342 ; 3175648.1152572623 ; 5208576.993824349 ; 0.0
167 ; 11514.473392387134 ; 31376.969842315342 ; 3187373.6595295942 ; 5239953.963666664 ; 0.0
168 ; 11523.751995599667 ; 31376.969842315342 ; 3198888.132921981 ; 5271330.93350898 ; 0.0
169 ; 11176.800865844027 ; 31376.969842315342 ; 3210411.884917581 ; 5302707.903351296 ; 0.0
170 ; 11192.578990391678 ; 31376.969842315342 ; 3221588.685783425 ; 5334084.873193611 ; 0.0
171 ; 11065.303980165205 ; 31376.969842315342 ; 3232781.2647738163 ; 5365461.843035927 ; 0.0
172 ; 10766.861460629427 ; 31376.969842315342 ; 3243846.5687539815 ; 5396838.812878243 ; 0.0
173 ; 10617.269030436566 ; 31376.969842315342 ; 3254613.430214611 ; 5428215.782720558 ; 0.0
174 ; 10589.523505703704 ; 31376.969842315342 ; 3265230.6992450473 ; 5459592.752562874 ; 0.0
175 ; 10886.560909324304 ; 31376.969842315342 ; 3275820.222750751 ; 5490969.72240519 ; 0.0
176 ; 10614.345935217127 ; 31376.969842315342 ; 3286706.783660075 ; 5522346.692247505 ; 0.0
177 ; 10587.717545555037 ; 31376.969842315342 ; 3297321.1295952923 ; 5553723.662089821 ; 0.0
178 ; 10678.836753834268 ; 31376.969842315342 ; 3307908.8471408472 ; 5585100.631932137 ; 0.0
179 ; 10780.278649913544 ; 31376.969842315342 ; 3318587.6838946813 ; 5616477.601774452 ; 0.0
180 ; 11022.382288969686 ; 31376.969842315342 ; 3329367.962544595 ; 5647854.571616768 ; 0.0
181 ; 10763.794519369076 ; 31376.969842315342 ; 3340390.3448335645 ; 5679231.541459084 ; 0.0
182 ; 10936.7078858168 ; 31376.969842315342 ; 3351154.1393529335 ; 5710608.511301399 ; 0.0
183 ; 10898.223479959537 ; 31376.969842315342 ; 3362090.84723875 ; 5741985.481143715 ; 0.0
184 ; 10968.931586408738 ; 31376.969842315342 ; 3372989.07071871 ; 5773362.4509860305 ; 0.0
185 ; 10878.511747572831 ; 31376.969842315342 ; 3383958.0023051184 ; 5804739.420828346 ; 0.0
186 ; 11063.180021048576 ; 31376.969842315342 ; 3394836.5140526914 ; 5836116.390670662 ; 0.0
187 ; 10873.082680174788 ; 31376.969842315342 ; 3405899.69407374 ; 5867493.3605129775 ; 0.0
188 ; 11044.73390153868 ; 31376.969842315342 ; 3416772.7767539145 ; 5898870.330355293 ; 0.0
189 ; 11035.650297972292 ; 31376.969842315342 ; 3427817.5106554534 ; 5930247.300197609 ; 0.0
190 ; 11257.498817605414 ; 31376.969842315342 ; 3438853.160953426 ; 5961624.270039924 ; 0.0
191 ; 11132.383197923215 ; 31376.969842315342 ; 3450110.6597710312 ; 5993001.23988224 ; 0.0
192 ; 11082.905860664523 ; 31376.969842315342 ; 3461243.0429689544 ; 6024378.209724556 ; 0.0
193 ; 11191.232908023303 ; 31376.969842315342 ; 3472325.9488296187 ; 6055755.179566871 ; 0.0
194 ; 11308.099861579456 ; 31376.969842315342 ; 3483517.1817376423 ; 6087132.149409187 ; 0.0
195 ; 11320.8753076053 ; 31376.969842315342 ; 3494825.2815992218 ; 6118509.119251503 ; 0.0
196 ; 11305.904019553796 ; 31376.969842315342 ; 3506146.156906827 ; 6149886.089093818 ; 0.0
197 ; 11153.940942867219 ; 31376.969842315342 ; 3517452.0609263806 ; 6181263.058936134 ; 0.0
198 ; 11273.401570598953 ; 31376.969842315342 ; 3528606.0018692478 ; 6212640.02877845 ; 0.0
199 ; 11450.380649701143 ; 31376.969842315342 ; 3539879.403439847 ; 6244016.998620765 ; 0.0
200 ; 11431.960535884897 ; 31376.969842315342 ; 3551329.784089548 ; 6275393.968463081 ; 0.0
201 ; 11452.361798027714 ; 31376.969842315342 ; 3562761.744625433 ; 6306770.938305397 ; 0.0
202 ; 11401.334515572109 ; 31376.969842315342 ; 3574214.1064234604 ; 6338147.908147712 ; 0.0
203 ; 11491.434627247521 ; 31376.969842315342 ; 3585615.4409390325 ; 6369524.877990028 ; 0.0
204 ; 11389.72533223243 ; 31376.969842315342 ; 3597106.87556628 ; 6400901.847832344 ; 0.0
205 ; 11510.13561298559 ; 31376.969842315342 ; 3608496.6008985126 ; 6432278.817674659 ; 0.0
206 ; 11682.487220279716 ; 31376.969842315342 ; 3620006.736511498 ; 6463655.787516975 ; 0.0
207 ; 11382.753947723233 ; 31376.969842315342 ; 3631689.223731778 ; 6495032.7573592905 ; 0.0
208 ; 11626.114006761003 ; 31376.969842315342 ; 3643071.9776795013 ; 6526409.727201606 ; 0.0
209 ; 11724.508515460042 ; 31376.969842315342 ; 3654698.0916862623 ; 6557786.697043922 ; 0.0
210 ; 11767.939098781446 ; 31376.969842315342 ; 3666422.6002017222 ; 6589163.666886237 ; 0.0
211 ; 11639.977560976451 ; 31376.969842315342 ; 3678190.5393005037 ; 6620540.636728553 ; 0.0
212 ; 11641.281983693583 ; 31376.969842315342 ; 3689830.51686148 ; 6651917.606570869 ; 0.0
213 ; 11582.683614710118 ; 31376.969842315342 ; 3701471.798845174 ; 6683294.576413184 ; 0.0
