CSV File for the City 1 on Day 237
1 - Minute m 
2 - Power Consumed at minute m 
3 - Power Produced at minute m 
4 - Energy Consumed since the beginning of the day 
5 - Energy Produced since the beginning of the day 
6 - Energy Lost since the beginning of the day on lines starting from the city
 
0 ; 5546.231093254003 ; 3568.3853853815817 ; 0.0 ; 0.0 ; 0.0
1 ; 6075.587013351858 ; 3568.3853853815817 ; 5546.231093254003 ; 3568.3853853815817 ; 238.00000000000003
2 ; 6766.456715431358 ; 3568.3853853815817 ; 11621.81810660586 ; 7136.7707707631635 ; 476.00000000000006
3 ; 7225.0157514038165 ; 3568.3853853815817 ; 18388.27482203722 ; 10705.156156144745 ; 714.0000000000001
4 ; 7851.143947793148 ; 3568.3853853815817 ; 25613.290573441038 ; 14273.541541526327 ; 952.0000000000001
5 ; 8516.437491540797 ; 3568.3853853815817 ; 33464.43452123419 ; 17841.92692690791 ; 1190.0000000000002
6 ; 9082.674861862713 ; 3568.3853853815817 ; 41980.872012774984 ; 21410.31231228949 ; 1428.0000000000002
7 ; 9551.388501392079 ; 3568.3853853815817 ; 51063.5468746377 ; 24978.697697671072 ; 1666.0000000000002
8 ; 10097.402441826325 ; 3568.3853853815817 ; 60614.93537602978 ; 28547.083083052654 ; 1904.0000000000002
9 ; 10831.496984775975 ; 3568.3853853815817 ; 70712.33781785611 ; 32115.468468434236 ; 2142.0000000000005
10 ; 11195.541011368616 ; 3568.3853853815817 ; 81543.83480263209 ; 35683.85385381582 ; 2380.0000000000005
11 ; 11925.684461642948 ; 3568.3853853815817 ; 92739.3758140007 ; 39252.2392391974 ; 2618.0000000000005
12 ; 12358.955163803208 ; 3568.3853853815817 ; 104665.06027564364 ; 42820.62462457898 ; 2856.0000000000005
13 ; 12792.029442391049 ; 3568.3853853815817 ; 117024.01543944686 ; 46389.01000996056 ; 3094.0000000000005
14 ; 13179.764173214939 ; 3568.3853853815817 ; 129816.04488183791 ; 49957.395395342144 ; 3332.0000000000005
15 ; 13739.885011768496 ; 3568.3853853815817 ; 142995.80905505284 ; 53525.780780723726 ; 3570.0000000000005
16 ; 14253.030073027037 ; 3568.3853853815817 ; 156735.69406682134 ; 57094.16616610531 ; 3808.0000000000005
17 ; 14901.615664831877 ; 3568.3853853815817 ; 170988.72413984837 ; 60662.55155148689 ; 4046.0000000000005
18 ; 15201.925397772255 ; 3568.3853853815817 ; 185890.33980468026 ; 64230.93693686847 ; 4284.000000000001
19 ; 15739.273307611771 ; 3568.3853853815817 ; 201092.26520245252 ; 67799.32232225005 ; 4522.000000000001
20 ; 16176.83803809457 ; 3568.3853853815817 ; 216831.53851006427 ; 71367.70770763163 ; 4760.000000000001
21 ; 16603.17742424532 ; 3568.3853853815817 ; 233008.37654815885 ; 74936.09309301322 ; 4998.000000000001
22 ; 17171.288440967328 ; 3568.3853853815817 ; 249611.55397240416 ; 78504.4784783948 ; 5236.000000000001
23 ; 17867.098461204954 ; 3568.3853853815817 ; 266782.8424133715 ; 82072.86386377638 ; 5474.000000000001
24 ; 17837.247446619785 ; 3568.3853853815817 ; 284649.94087457645 ; 85641.24924915796 ; 5712.000000000001
25 ; 18622.607151161996 ; 3568.3853853815817 ; 302487.18832119624 ; 89209.63463453954 ; 5950.000000000001
26 ; 18784.65485545282 ; 3568.3853853815817 ; 321109.79547235824 ; 92778.02001992112 ; 6188.000000000001
27 ; 19206.076455397706 ; 3568.3853853815817 ; 339894.45032781106 ; 96346.4054053027 ; 6426.000000000001
28 ; 19662.86976270239 ; 3568.3853853815817 ; 359100.52678320877 ; 99914.79079068429 ; 6664.000000000001
29 ; 20084.377816336822 ; 3568.3853853815817 ; 378763.39654591115 ; 103483.17617606587 ; 6902.000000000001
30 ; 20577.41855447904 ; 3568.3853853815817 ; 398847.77436224796 ; 107051.56156144745 ; 7140.000000000001
31 ; 20818.962144832883 ; 3568.3853853815817 ; 419425.192916727 ; 110619.94694682903 ; 7378.000000000001
32 ; 21232.746607472032 ; 3568.3853853815817 ; 440244.15506155987 ; 114188.33233221062 ; 7616.000000000001
33 ; 21597.36011416627 ; 3568.3853853815817 ; 461476.9016690319 ; 117756.7177175922 ; 7854.000000000001
34 ; 22011.49148911883 ; 3568.3853853815817 ; 483074.26178319816 ; 121325.10310297378 ; 8092.000000000001
35 ; 22473.17005148811 ; 3568.3853853815817 ; 505085.753272317 ; 124893.48848835536 ; 8330.000000000002
36 ; 22855.361388297828 ; 3568.3853853815817 ; 527558.9233238051 ; 128461.87387373694 ; 8568.000000000002
37 ; 23023.457723967214 ; 3568.3853853815817 ; 550414.284712103 ; 132030.25925911852 ; 8806.000000000002
38 ; 23504.069953694197 ; 3568.3853853815817 ; 573437.7424360702 ; 135598.6446445001 ; 9044.000000000002
39 ; 23825.69580758255 ; 3568.3853853815817 ; 596941.8123897645 ; 139167.0300298817 ; 9282.000000000002
40 ; 24049.01181161224 ; 3568.3853853815817 ; 620767.508197347 ; 142735.41541526327 ; 9520.000000000002
41 ; 24227.58672029888 ; 3568.3853853815817 ; 644816.5200089593 ; 146303.80080064485 ; 9758.000000000002
42 ; 24614.29016079878 ; 3568.3853853815817 ; 669044.1067292582 ; 149872.18618602643 ; 9996.000000000002
43 ; 24831.895966779244 ; 3568.3853853815817 ; 693658.396890057 ; 153440.571571408 ; 10234.000000000002
44 ; 25013.67448025822 ; 3568.3853853815817 ; 718490.2928568362 ; 157008.9569567896 ; 10472.000000000002
45 ; 25555.971135199412 ; 3568.3853853815817 ; 743503.9673370945 ; 160577.34234217118 ; 10710.000000000002
46 ; 25869.682040723015 ; 3568.3853853815817 ; 769059.9384722939 ; 164145.72772755276 ; 10948.000000000002
47 ; 25966.991113554624 ; 3568.3853853815817 ; 794929.6205130169 ; 167714.11311293434 ; 11186.000000000002
48 ; 26310.250346072473 ; 3568.3853853815817 ; 820896.6116265715 ; 171282.49849831592 ; 11424.000000000002
49 ; 26568.93883451939 ; 3568.3853853815817 ; 847206.861972644 ; 174850.8838836975 ; 11662.000000000002
50 ; 26812.500546946085 ; 3568.3853853815817 ; 873775.8008071634 ; 178419.2692690791 ; 11900.000000000002
51 ; 27097.028038106782 ; 3568.3853853815817 ; 900588.3013541094 ; 181987.65465446067 ; 12138.000000000002
52 ; 27112.13000044657 ; 3568.3853853815817 ; 927685.3293922162 ; 185556.04003984225 ; 12376.000000000002
53 ; 27618.608493960284 ; 3568.3853853815817 ; 954797.4593926627 ; 189124.42542522383 ; 12614.000000000002
54 ; 27835.351310383023 ; 3568.3853853815817 ; 982416.067886623 ; 192692.8108106054 ; 12852.000000000002
55 ; 27881.645566485386 ; 3568.3853853815817 ; 1010251.419197006 ; 196261.196195987 ; 13090.000000000002
56 ; 28117.7064482471 ; 3568.3853853815817 ; 1038133.0647634914 ; 199829.58158136858 ; 13328.000000000002
57 ; 28271.437544761222 ; 3568.3853853815817 ; 1066250.7712117385 ; 203397.96696675016 ; 13566.000000000002
58 ; 28480.314127866735 ; 3568.3853853815817 ; 1094522.2087564997 ; 206966.35235213174 ; 13804.000000000002
59 ; 28646.469339770072 ; 3568.3853853815817 ; 1123002.5228843663 ; 210534.73773751332 ; 14042.000000000002
60 ; 28839.26228341062 ; 3568.3853853815817 ; 1151648.9922241364 ; 214103.1231228949 ; 14280.000000000002
61 ; 29066.31521143591 ; 3568.3853853815817 ; 1180488.254507547 ; 217671.50850827649 ; 14518.000000000002
62 ; 29026.987702893537 ; 3568.3853853815817 ; 1209554.569718983 ; 221239.89389365807 ; 14756.000000000002
63 ; 29285.190498929984 ; 3568.3853853815817 ; 1238581.5574218766 ; 224808.27927903965 ; 14994.000000000002
64 ; 29529.552843719277 ; 3568.3853853815817 ; 1267866.7479208065 ; 228376.66466442123 ; 15232.000000000002
65 ; 29437.830427898578 ; 3568.3853853815817 ; 1297396.3007645258 ; 231945.0500498028 ; 15470.000000000002
66 ; 29659.260903525766 ; 3568.3853853815817 ; 1326834.1311924243 ; 235513.4354351844 ; 15708.000000000002
67 ; 29734.752308760384 ; 3568.3853853815817 ; 1356493.3920959502 ; 239081.82082056598 ; 15946.000000000002
68 ; 29908.64867827748 ; 3568.3853853815817 ; 1386228.1444047105 ; 242650.20620594756 ; 16184.000000000002
69 ; 30017.519231808823 ; 3568.3853853815817 ; 1416136.793082988 ; 246218.59159132914 ; 16422.000000000004
70 ; 30202.788691119982 ; 3568.3853853815817 ; 1446154.3123147967 ; 249786.97697671072 ; 16660.000000000004
71 ; 30107.47776007681 ; 3568.3853853815817 ; 1476357.1010059167 ; 253355.3623620923 ; 16898.000000000004
72 ; 30413.321258536598 ; 3568.3853853815817 ; 1506464.5787659935 ; 256923.74774747388 ; 17136.000000000004
73 ; 30366.16771420414 ; 3568.3853853815817 ; 1536877.90002453 ; 260492.13313285547 ; 17374.000000000004
74 ; 30362.212353316077 ; 3568.3853853815817 ; 1567244.0677387342 ; 264060.51851823705 ; 17612.000000000004
75 ; 30492.29313430882 ; 3568.3853853815817 ; 1597606.2800920503 ; 267628.90390361863 ; 17850.000000000004
76 ; 30519.958404713754 ; 3568.3853853815817 ; 1628098.5732263592 ; 271197.2892890002 ; 18088.000000000004
77 ; 30668.364140704834 ; 3568.3853853815817 ; 1658618.531631073 ; 274765.6746743818 ; 18326.000000000004
78 ; 30759.224339350047 ; 3568.3853853815817 ; 1689286.8957717777 ; 278334.0600597634 ; 18564.000000000004
79 ; 30774.206945516253 ; 3568.3853853815817 ; 1720046.1201111278 ; 281902.44544514496 ; 18802.000000000004
80 ; 30573.0826833186 ; 3568.3853853815817 ; 1750820.327056644 ; 285470.83083052654 ; 19040.000000000004
81 ; 30641.971130854025 ; 3568.3853853815817 ; 1781393.4097399625 ; 289039.2162159081 ; 19278.000000000004
82 ; 30520.760625159626 ; 3568.3853853815817 ; 1812035.3808708165 ; 292607.6016012897 ; 19516.000000000004
83 ; 30700.90747789053 ; 3568.3853853815817 ; 1842556.1414959761 ; 296175.9869866713 ; 19754.000000000004
84 ; 30644.255871651843 ; 3568.3853853815817 ; 1873257.0489738667 ; 299744.37237205287 ; 19992.000000000004
85 ; 30647.55510600807 ; 3568.3853853815817 ; 1903901.3048455187 ; 303312.75775743445 ; 20230.000000000004
86 ; 30666.27381851367 ; 3568.3853853815817 ; 1934548.8599515266 ; 306881.143142816 ; 20468.000000000004
87 ; 30686.963115439943 ; 3568.3853853815817 ; 1965215.1337700402 ; 310449.5285281976 ; 20706.000000000004
88 ; 30365.606778315247 ; 3568.3853853815817 ; 1995902.0968854802 ; 314017.9139135792 ; 20944.000000000004
89 ; 30499.218442813337 ; 3568.3853853815817 ; 2026267.7036637955 ; 317586.2992989608 ; 21182.000000000004
90 ; 30409.523939463805 ; 3568.3853853815817 ; 2056766.9221066087 ; 321154.68468434236 ; 21420.000000000004
91 ; 30325.11277544115 ; 3568.3853853815817 ; 2087176.4460460725 ; 324723.07006972394 ; 21658.000000000004
92 ; 30294.689431729545 ; 3568.3853853815817 ; 2117501.558821514 ; 328291.4554551055 ; 21896.000000000004
93 ; 30132.82288488566 ; 3568.3853853815817 ; 2147796.2482532435 ; 331859.8408404871 ; 22134.000000000004
94 ; 30149.55945601139 ; 3568.3853853815817 ; 2177929.071138129 ; 335428.2262258687 ; 22372.000000000004
95 ; 30122.265050437472 ; 3568.3853853815817 ; 2208078.6305941404 ; 338996.61161125026 ; 22610.000000000004
96 ; 29983.691379232958 ; 3568.3853853815817 ; 2238200.8956445777 ; 342564.99699663185 ; 22848.000000000004
97 ; 29762.672962795317 ; 3568.3853853815817 ; 2268184.5870238105 ; 346133.3823820134 ; 23086.000000000004
98 ; 29567.07721522362 ; 3568.3853853815817 ; 2297947.259986606 ; 349701.767767395 ; 23324.000000000004
99 ; 29788.600220629833 ; 3568.3853853815817 ; 2327514.3372018295 ; 353270.1531527766 ; 23562.000000000004
100 ; 29397.550079417124 ; 3568.3853853815817 ; 2357302.9374224595 ; 356838.5385381582 ; 23800.000000000004
101 ; 29432.313556355362 ; 3568.3853853815817 ; 2386700.4875018764 ; 360406.92392353975 ; 24038.000000000004
102 ; 29416.64792887462 ; 3568.3853853815817 ; 2416132.801058232 ; 363975.30930892134 ; 24276.000000000004
103 ; 29121.378333769153 ; 3568.3853853815817 ; 2445549.4489871063 ; 367543.6946943029 ; 24514.000000000004
104 ; 28939.236441837624 ; 3568.3853853815817 ; 2474670.8273208756 ; 371112.0800796845 ; 24752.000000000004
105 ; 28640.989131531962 ; 3568.3853853815817 ; 2503610.063762713 ; 374680.4654650661 ; 24990.000000000004
106 ; 28582.10671358054 ; 3568.3853853815817 ; 2532251.0528942454 ; 378248.85085044766 ; 25228.000000000004
107 ; 28510.97194273852 ; 3568.3853853815817 ; 2560833.159607826 ; 381817.23623582924 ; 25466.000000000004
108 ; 28111.274281063364 ; 3568.3853853815817 ; 2589344.1315505644 ; 385385.6216212108 ; 25704.000000000004
109 ; 28037.241679657018 ; 3568.3853853815817 ; 2617455.405831628 ; 388954.0070065924 ; 25942.000000000004
110 ; 27775.966252116956 ; 3568.3853853815817 ; 2645492.647511285 ; 392522.392391974 ; 26180.000000000004
111 ; 27487.828333899957 ; 3568.3853853815817 ; 2673268.6137634018 ; 396090.7777773556 ; 26418.000000000004
112 ; 27417.302233553302 ; 3568.3853853815817 ; 2700756.4420973016 ; 399659.16316273715 ; 26656.000000000004
113 ; 27241.99229456338 ; 3568.3853853815817 ; 2728173.744330855 ; 403227.54854811874 ; 26894.000000000004
114 ; 26869.890301328334 ; 3568.3853853815817 ; 2755415.7366254185 ; 406795.9339335003 ; 27132.000000000004
115 ; 26788.048884980963 ; 3568.3853853815817 ; 2782285.6269267467 ; 410364.3193188819 ; 27370.000000000004
116 ; 26538.274157601343 ; 3568.3853853815817 ; 2809073.6758117275 ; 413932.7047042635 ; 27608.000000000004
117 ; 26082.290267860655 ; 3568.3853853815817 ; 2835611.949969329 ; 417501.09008964506 ; 27846.000000000004
118 ; 25843.949190178682 ; 3568.3853853815817 ; 2861694.2402371895 ; 421069.47547502664 ; 28084.000000000004
119 ; 25693.091542744623 ; 3568.3853853815817 ; 2887538.1894273683 ; 424637.8608604082 ; 28322.000000000004
120 ; 25387.768603384135 ; 3568.3853853815817 ; 2913231.280970113 ; 428206.2462457898 ; 28560.000000000004
121 ; 25269.40718429236 ; 3568.3853853815817 ; 2938619.049573497 ; 431774.6316311714 ; 28798.000000000004
122 ; 24836.53234767024 ; 3568.3853853815817 ; 2963888.4567577895 ; 435343.01701655297 ; 29036.000000000004
123 ; 24627.772936383215 ; 3568.3853853815817 ; 2988724.98910546 ; 438911.40240193455 ; 29274.000000000004
124 ; 24240.817822910365 ; 3568.3853853815817 ; 3013352.762041843 ; 442479.78778731613 ; 29512.000000000004
125 ; 23899.671596036813 ; 3568.3853853815817 ; 3037593.5798647534 ; 446048.1731726977 ; 29750.000000000004
126 ; 23806.569166511334 ; 3568.3853853815817 ; 3061493.25146079 ; 449616.5585580793 ; 29988.000000000004
127 ; 23117.29375816532 ; 3568.3853853815817 ; 3085299.8206273015 ; 453184.9439434609 ; 30226.000000000004
128 ; 22965.047478772583 ; 3568.3853853815817 ; 3108417.1143854666 ; 456753.32932884246 ; 30464.000000000004
129 ; 22618.545828181966 ; 3568.3853853815817 ; 3131382.1618642393 ; 460321.71471422404 ; 30702.000000000004
130 ; 22386.972882060636 ; 3568.3853853815817 ; 3154000.707692421 ; 463890.1000996056 ; 30940.000000000004
131 ; 21939.475119218954 ; 3568.3853853815817 ; 3176387.680574482 ; 467458.4854849872 ; 31178.000000000004
132 ; 21561.094141329868 ; 3568.3853853815817 ; 3198327.155693701 ; 471026.8708703688 ; 31416.000000000004
133 ; 21177.719243809202 ; 3568.3853853815817 ; 3219888.2498350306 ; 474595.25625575037 ; 31654.000000000004
134 ; 20704.299901801438 ; 3568.3853853815817 ; 3241065.9690788398 ; 478163.64164113195 ; 31892.000000000004
135 ; 20497.41830871315 ; 3568.3853853815817 ; 3261770.2689806414 ; 481732.02702651353 ; 32130.000000000004
136 ; 19917.42291840985 ; 3568.3853853815817 ; 3282267.6872893544 ; 485300.4124118951 ; 32368.000000000004
137 ; 19570.89340555795 ; 3568.3853853815817 ; 3302185.1102077644 ; 488868.7977972767 ; 32606.000000000004
138 ; 19184.94570930655 ; 3568.3853853815817 ; 3321756.0036133225 ; 492437.1831826583 ; 32844.00000000001
139 ; 18713.5548943494 ; 3568.3853853815817 ; 3340940.9493226293 ; 496005.56856803986 ; 33082.00000000001
140 ; 18382.364429097066 ; 3568.3853853815817 ; 3359654.504216979 ; 499573.95395342144 ; 33320.00000000001
141 ; 17900.575771568085 ; 3568.3853853815817 ; 3378036.868646076 ; 503142.339338803 ; 33558.00000000001
142 ; 17330.154070974477 ; 3568.3853853815817 ; 3395937.444417644 ; 506710.7247241846 ; 33796.00000000001
143 ; 17058.538878354466 ; 3568.3853853815817 ; 3413267.598488618 ; 510279.1101095662 ; 34034.00000000001
144 ; 16562.170020067962 ; 3568.3853853815817 ; 3430326.1373669724 ; 513847.49549494777 ; 34272.00000000001
145 ; 16477.546153308253 ; 3568.3853853815817 ; 3446888.3073870405 ; 517415.88088032935 ; 34510.00000000001
146 ; 16475.291731129233 ; 3568.3853853815817 ; 3463365.853540349 ; 520984.26626571093 ; 34748.00000000001
147 ; 16190.007639781166 ; 3568.3853853815817 ; 3479841.145271478 ; 524552.6516510926 ; 34986.00000000001
148 ; 16219.144100736754 ; 3568.3853853815817 ; 3496031.1529112593 ; 528121.0370364741 ; 35224.00000000001
149 ; 15953.159852799083 ; 3568.3853853815817 ; 3512250.297011996 ; 531689.4224218556 ; 35462.00000000001
150 ; 15851.406217085418 ; 3568.3853853815817 ; 3528203.456864795 ; 535257.8078072371 ; 35700.00000000001
151 ; 15573.126194336479 ; 3568.3853853815817 ; 3544054.8630818804 ; 538826.1931926187 ; 35938.00000000001
152 ; 15553.181023453342 ; 3568.3853853815817 ; 3559627.989276217 ; 542394.5785780002 ; 36176.00000000001
153 ; 15291.551849147038 ; 3568.3853853815817 ; 3575181.17029967 ; 545962.9639633817 ; 36414.00000000001
154 ; 15322.457324621171 ; 3568.3853853815817 ; 3590472.722148817 ; 549531.3493487632 ; 36652.00000000001
155 ; 15278.271070511313 ; 3568.3853853815817 ; 3605795.1794734383 ; 553099.7347341448 ; 36890.00000000001
156 ; 15077.94656368698 ; 3568.3853853815817 ; 3621073.4505439494 ; 556668.1201195263 ; 37128.00000000001
157 ; 14829.29365052069 ; 3568.3853853815817 ; 3636151.3971076366 ; 560236.5055049078 ; 37366.00000000001
158 ; 14663.720576591984 ; 3568.3853853815817 ; 3650980.690758157 ; 563804.8908902893 ; 37604.00000000001
159 ; 14497.97213498419 ; 3568.3853853815817 ; 3665644.411334749 ; 567373.2762756709 ; 37842.00000000001
160 ; 14408.703396484874 ; 3568.3853853815817 ; 3680142.383469733 ; 570941.6616610524 ; 38080.00000000001
161 ; 14320.624488746682 ; 3568.3853853815817 ; 3694551.0868662177 ; 574510.0470464339 ; 38318.00000000001
162 ; 13815.964276012277 ; 3568.3853853815817 ; 3708871.7113549644 ; 578078.4324318154 ; 38556.00000000001
163 ; 13957.057478728339 ; 3568.3853853815817 ; 3722687.675630977 ; 581646.817817197 ; 38794.00000000001
164 ; 13790.178102542766 ; 3568.3853853815817 ; 3736644.733109705 ; 585215.2032025785 ; 39032.00000000001
165 ; 13425.50156026868 ; 3568.3853853815817 ; 3750434.911212248 ; 588783.58858796 ; 39270.00000000001
166 ; 13225.166566303777 ; 3568.3853853815817 ; 3763860.4127725163 ; 592351.9739733415 ; 39508.00000000001
167 ; 13286.173116999318 ; 3568.3853853815817 ; 3777085.57933882 ; 595920.359358723 ; 39746.00000000001
168 ; 12764.820603667618 ; 3568.3853853815817 ; 3790371.7524558194 ; 599488.7447441046 ; 39984.00000000001
169 ; 12794.976685728945 ; 3568.3853853815817 ; 3803136.573059487 ; 603057.1301294861 ; 40222.00000000001
170 ; 12682.023980304155 ; 3568.3853853815817 ; 3815931.549745216 ; 606625.5155148676 ; 40460.00000000001
171 ; 12559.606241133066 ; 3568.3853853815817 ; 3828613.57372552 ; 610193.9009002491 ; 40698.00000000001
172 ; 12105.99080874164 ; 3568.3853853815817 ; 3841173.179966653 ; 613762.2862856307 ; 40936.00000000001
173 ; 12084.96215332573 ; 3568.3853853815817 ; 3853279.170775395 ; 617330.6716710122 ; 41174.00000000001
174 ; 12229.015793142358 ; 3568.3853853815817 ; 3865364.1329287207 ; 620899.0570563937 ; 41412.00000000001
175 ; 12331.113330439934 ; 3568.3853853815817 ; 3877593.148721863 ; 624467.4424417752 ; 41650.00000000001
176 ; 12292.463532809694 ; 3568.3853853815817 ; 3889924.262052303 ; 628035.8278271568 ; 41888.00000000001
177 ; 12271.175404231635 ; 3568.3853853815817 ; 3902216.725585113 ; 631604.2132125383 ; 42126.00000000001
178 ; 12270.46214054066 ; 3568.3853853815817 ; 3914487.9009893443 ; 635172.5985979198 ; 42364.00000000001
179 ; 12307.562090120535 ; 3568.3853853815817 ; 3926758.363129885 ; 638740.9839833013 ; 42602.00000000001
180 ; 12410.645766195115 ; 3568.3853853815817 ; 3939065.9252200057 ; 642309.3693686828 ; 42840.00000000001
181 ; 12188.688589449459 ; 3568.3853853815817 ; 3951476.5709862006 ; 645877.7547540644 ; 43078.00000000001
182 ; 12392.669389385708 ; 3568.3853853815817 ; 3963665.25957565 ; 649446.1401394459 ; 43316.00000000001
183 ; 12575.277694647453 ; 3568.3853853815817 ; 3976057.928965036 ; 653014.5255248274 ; 43554.00000000001
184 ; 12594.565889821766 ; 3568.3853853815817 ; 3988633.2066596835 ; 656582.910910209 ; 43792.00000000001
