CSV File for the City 2 on Day 301
1 - Minute m 
2 - Power Consumed at minute m 
3 - Power Produced at minute m 
4 - Energy Consumed since the beginning of the day 
5 - Energy Produced since the beginning of the day 
6 - Energy Lost since the beginning of the day on lines starting from the city
 
0 ; 9564.926118822175 ; 27374.59033924622 ; 0.0 ; 0.0 ; 0.0
1 ; 9903.797597918918 ; 27374.59033924622 ; 9564.926118822175 ; 27374.59033924622 ; 0.0
2 ; 10224.086593597576 ; 27374.59033924622 ; 19468.723716741093 ; 54749.18067849244 ; 0.0
3 ; 10547.138527680907 ; 27374.59033924622 ; 29692.810310338667 ; 82123.77101773866 ; 0.0
4 ; 10973.177754657649 ; 27374.59033924622 ; 40239.948838019576 ; 109498.36135698488 ; 0.0
5 ; 11253.269100215599 ; 27374.59033924622 ; 51213.126592677225 ; 136872.9516962311 ; 0.0
6 ; 11530.769540957996 ; 27374.59033924622 ; 62466.395692892824 ; 164247.5420354773 ; 0.0
7 ; 11955.180507816855 ; 27374.59033924622 ; 73997.16523385081 ; 191622.1323747235 ; 0.0
8 ; 12399.361641312069 ; 27374.59033924622 ; 85952.34574166767 ; 218996.7227139697 ; 0.0
9 ; 12554.982385473324 ; 27374.59033924622 ; 98351.70738297974 ; 246371.3130532159 ; 0.0
10 ; 13021.429547761556 ; 27374.59033924622 ; 110906.68976845307 ; 273745.9033924621 ; 0.0
11 ; 13115.905429888182 ; 27374.59033924622 ; 123928.11931621462 ; 301120.4937317083 ; 0.0
12 ; 13516.678048126143 ; 27374.59033924622 ; 137044.0247461028 ; 328495.08407095453 ; 0.0
13 ; 13888.513618057608 ; 27374.59033924622 ; 150560.70279422894 ; 355869.67441020074 ; 0.0
14 ; 14021.91763975816 ; 27374.59033924622 ; 164449.21641228657 ; 383244.26474944694 ; 0.0
15 ; 14323.486458529842 ; 27374.59033924622 ; 178471.1340520447 ; 410618.85508869315 ; 0.0
16 ; 14648.585561270016 ; 27374.59033924622 ; 192794.62051057455 ; 437993.44542793935 ; 0.0
17 ; 15024.541622959818 ; 27374.59033924622 ; 207443.20607184456 ; 465368.03576718556 ; 0.0
18 ; 15165.590434162867 ; 27374.59033924622 ; 222467.74769480436 ; 492742.62610643177 ; 0.0
19 ; 15543.272238324753 ; 27374.59033924622 ; 237633.33812896724 ; 520117.216445678 ; 0.0
20 ; 15690.7970104953 ; 27374.59033924622 ; 253176.61036729199 ; 547491.8067849242 ; 0.0
21 ; 15946.651360174816 ; 27374.59033924622 ; 268867.4073777873 ; 574866.3971241704 ; 0.0
22 ; 16304.744235354845 ; 27374.59033924622 ; 284814.0587379621 ; 602240.9874634166 ; 0.0
23 ; 16587.820419788135 ; 27374.59033924622 ; 301118.8029733169 ; 629615.5778026629 ; 0.0
24 ; 16888.79434839924 ; 27374.59033924622 ; 317706.62339310505 ; 656990.1681419091 ; 0.0
25 ; 17101.921056702166 ; 27374.59033924622 ; 334595.41774150426 ; 684364.7584811553 ; 0.0
26 ; 17189.064669376257 ; 27374.59033924622 ; 351697.3387982064 ; 711739.3488204015 ; 0.0
27 ; 17599.824614124067 ; 27374.59033924622 ; 368886.40346758266 ; 739113.9391596477 ; 0.0
28 ; 17744.448070416816 ; 27374.59033924622 ; 386486.22808170674 ; 766488.5294988939 ; 0.0
29 ; 17908.116007082204 ; 27374.59033924622 ; 404230.67615212355 ; 793863.1198381401 ; 0.0
30 ; 18325.06711030567 ; 27374.59033924622 ; 422138.79215920577 ; 821237.7101773863 ; 0.0
31 ; 18618.834338658457 ; 27374.59033924622 ; 440463.8592695114 ; 848612.3005166325 ; 0.0
32 ; 18612.443808736287 ; 27374.59033924622 ; 459082.69360816985 ; 875986.8908558787 ; 0.0
33 ; 18801.28017679987 ; 27374.59033924622 ; 477695.13741690613 ; 903361.4811951249 ; 0.0
34 ; 19047.348765178653 ; 27374.59033924622 ; 496496.417593706 ; 930736.0715343711 ; 0.0
35 ; 19325.46634150289 ; 27374.59033924622 ; 515543.76635888463 ; 958110.6618736173 ; 0.0
36 ; 19530.59593783 ; 27374.59033924622 ; 534869.2327003875 ; 985485.2522128635 ; 0.0
37 ; 19741.096802168402 ; 27374.59033924622 ; 554399.8286382175 ; 1012859.8425521097 ; 0.0
38 ; 20010.38164170067 ; 27374.59033924622 ; 574140.9254403859 ; 1040234.432891356 ; 0.0
39 ; 19946.666987341996 ; 27374.59033924622 ; 594151.3070820866 ; 1067609.0232306023 ; 0.0
40 ; 20305.701685757278 ; 27374.59033924622 ; 614097.9740694285 ; 1094983.6135698485 ; 0.0
41 ; 20384.545553132088 ; 27374.59033924622 ; 634403.6757551858 ; 1122358.2039090947 ; 0.0
42 ; 20454.54788256274 ; 27374.59033924622 ; 654788.2213083179 ; 1149732.794248341 ; 0.0
43 ; 20845.539107338336 ; 27374.59033924622 ; 675242.7691908806 ; 1177107.384587587 ; 0.0
44 ; 20941.56563394191 ; 27374.59033924622 ; 696088.3082982189 ; 1204481.9749268333 ; 0.0
45 ; 21058.245691484823 ; 27374.59033924622 ; 717029.8739321608 ; 1231856.5652660795 ; 0.0
46 ; 21234.61133505133 ; 27374.59033924622 ; 738088.1196236456 ; 1259231.1556053257 ; 0.0
47 ; 21183.730326471617 ; 27374.59033924622 ; 759322.7309586969 ; 1286605.745944572 ; 0.0
48 ; 21650.313158648427 ; 27374.59033924622 ; 780506.4612851685 ; 1313980.3362838181 ; 0.0
49 ; 21621.758053271158 ; 27374.59033924622 ; 802156.774443817 ; 1341354.9266230643 ; 0.0
50 ; 21777.60511375278 ; 27374.59033924622 ; 823778.5324970882 ; 1368729.5169623105 ; 0.0
51 ; 21915.219772299388 ; 27374.59033924622 ; 845556.137610841 ; 1396104.1073015567 ; 0.0
52 ; 22115.52060359701 ; 27374.59033924622 ; 867471.3573831404 ; 1423478.697640803 ; 0.0
53 ; 22151.190198519136 ; 27374.59033924622 ; 889586.8779867374 ; 1450853.2879800492 ; 0.0
54 ; 22264.610215441815 ; 27374.59033924622 ; 911738.0681852566 ; 1478227.8783192954 ; 0.0
55 ; 22282.401292327526 ; 27374.59033924622 ; 934002.6784006984 ; 1505602.4686585416 ; 0.0
56 ; 22479.064040406156 ; 27374.59033924622 ; 956285.0796930259 ; 1532977.0589977878 ; 0.0
57 ; 22528.632775947324 ; 27374.59033924622 ; 978764.143733432 ; 1560351.649337034 ; 0.0
58 ; 22694.460597084468 ; 27374.59033924622 ; 1001292.7765093794 ; 1587726.2396762802 ; 0.0
59 ; 22662.7965413595 ; 27374.59033924622 ; 1023987.2371064639 ; 1615100.8300155264 ; 0.0
60 ; 22904.06414233014 ; 27374.59033924622 ; 1046650.0336478234 ; 1642475.4203547726 ; 0.0
61 ; 22892.50054935149 ; 27374.59033924622 ; 1069554.0977901535 ; 1669850.0106940188 ; 0.0
62 ; 23165.724811025295 ; 27374.59033924622 ; 1092446.598339505 ; 1697224.601033265 ; 0.0
63 ; 23092.00656428059 ; 27374.59033924622 ; 1115612.3231505302 ; 1724599.1913725112 ; 0.0
64 ; 23272.020881018583 ; 27374.59033924622 ; 1138704.3297148107 ; 1751973.7817117574 ; 0.0
65 ; 23238.705986805042 ; 27374.59033924622 ; 1161976.3505958293 ; 1779348.3720510036 ; 0.0
66 ; 23418.94973167298 ; 27374.59033924622 ; 1185215.0565826343 ; 1806722.9623902498 ; 0.0
67 ; 23437.507457600237 ; 27374.59033924622 ; 1208634.0063143072 ; 1834097.552729496 ; 0.0
68 ; 23408.98184738865 ; 27374.59033924622 ; 1232071.5137719074 ; 1861472.1430687422 ; 0.0
69 ; 23504.370251002336 ; 27374.59033924622 ; 1255480.495619296 ; 1888846.7334079884 ; 0.0
70 ; 23630.11060022428 ; 27374.59033924622 ; 1278984.8658702984 ; 1916221.3237472347 ; 0.0
71 ; 23581.491223054392 ; 27374.59033924622 ; 1302614.9764705226 ; 1943595.9140864809 ; 0.0
72 ; 23588.59940589175 ; 27374.59033924622 ; 1326196.467693577 ; 1970970.504425727 ; 0.0
73 ; 23618.501455128753 ; 27374.59033924622 ; 1349785.0670994688 ; 1998345.0947649733 ; 0.0
74 ; 23677.41702710633 ; 27374.59033924622 ; 1373403.5685545974 ; 2025719.6851042195 ; 0.0
75 ; 23774.876785457527 ; 27374.59033924622 ; 1397080.9855817037 ; 2053094.2754434657 ; 0.0
76 ; 23669.86414724393 ; 27374.59033924622 ; 1420855.8623671613 ; 2080468.865782712 ; 0.0
77 ; 23967.318452708994 ; 27374.59033924622 ; 1444525.7265144053 ; 2107843.4561219583 ; 0.0
78 ; 23891.6625443213 ; 27374.59033924622 ; 1468493.0449671142 ; 2135218.0464612045 ; 0.0
79 ; 23689.102568890587 ; 27374.59033924622 ; 1492384.7075114355 ; 2162592.6368004507 ; 0.0
80 ; 23817.366762967053 ; 27374.59033924622 ; 1516073.8100803262 ; 2189967.227139697 ; 0.0
81 ; 23770.59813316273 ; 27374.59033924622 ; 1539891.1768432932 ; 2217341.817478943 ; 0.0
82 ; 23737.96295517456 ; 27374.59033924622 ; 1563661.774976456 ; 2244716.4078181894 ; 0.0
83 ; 23835.86079504458 ; 27374.59033924622 ; 1587399.7379316306 ; 2272090.9981574356 ; 0.0
84 ; 23736.067495024297 ; 27374.59033924622 ; 1611235.5987266751 ; 2299465.588496682 ; 0.0
85 ; 23772.25433499941 ; 27374.59033924622 ; 1634971.6662216994 ; 2326840.178835928 ; 0.0
86 ; 23570.887021335122 ; 27374.59033924622 ; 1658743.920556699 ; 2354214.769175174 ; 0.0
87 ; 23746.545167156914 ; 27374.59033924622 ; 1682314.807578034 ; 2381589.3595144204 ; 0.0
88 ; 23787.241553814154 ; 27374.59033924622 ; 1706061.352745191 ; 2408963.9498536666 ; 0.0
89 ; 23618.248930041213 ; 27374.59033924622 ; 1729848.594299005 ; 2436338.540192913 ; 0.0
90 ; 23325.70364144049 ; 27374.59033924622 ; 1753466.8432290463 ; 2463713.130532159 ; 0.0
91 ; 23382.857199768867 ; 27374.59033924622 ; 1776792.5468704868 ; 2491087.720871405 ; 0.0
92 ; 23362.521191238997 ; 27374.59033924622 ; 1800175.4040702556 ; 2518462.3112106514 ; 0.0
93 ; 23367.037264131795 ; 27374.59033924622 ; 1823537.9252614945 ; 2545836.9015498976 ; 0.0
94 ; 23375.753113941235 ; 27374.59033924622 ; 1846904.9625256262 ; 2573211.491889144 ; 0.0
95 ; 23120.697073177074 ; 27374.59033924622 ; 1870280.7156395675 ; 2600586.08222839 ; 0.0
96 ; 23172.60145790193 ; 27374.59033924622 ; 1893401.4127127444 ; 2627960.6725676362 ; 0.0
97 ; 23166.597889504716 ; 27374.59033924622 ; 1916574.0141706464 ; 2655335.2629068824 ; 0.0
98 ; 23227.8699253309 ; 27374.59033924622 ; 1939740.612060151 ; 2682709.8532461287 ; 0.0
99 ; 22952.148291193447 ; 27374.59033924622 ; 1962968.481985482 ; 2710084.443585375 ; 0.0
100 ; 22698.896532626357 ; 27374.59033924622 ; 1985920.6302766753 ; 2737459.033924621 ; 0.0
101 ; 22631.769919638053 ; 27374.59033924622 ; 2008619.5268093017 ; 2764833.6242638673 ; 0.0
102 ; 22701.542677610953 ; 27374.59033924622 ; 2031251.2967289397 ; 2792208.2146031135 ; 0.0
103 ; 22571.66681211048 ; 27374.59033924622 ; 2053952.8394065506 ; 2819582.8049423597 ; 0.0
104 ; 22367.673644708055 ; 27374.59033924622 ; 2076524.506218661 ; 2846957.395281606 ; 0.0
105 ; 22333.57781617796 ; 27374.59033924622 ; 2098892.179863369 ; 2874331.985620852 ; 0.0
106 ; 22209.98949835132 ; 27374.59033924622 ; 2121225.757679547 ; 2901706.5759600983 ; 0.0
107 ; 22029.864390181152 ; 27374.59033924622 ; 2143435.7471778984 ; 2929081.1662993445 ; 0.0
108 ; 22115.591882139 ; 27374.59033924622 ; 2165465.61156808 ; 2956455.7566385907 ; 0.0
109 ; 22087.161028208837 ; 27374.59033924622 ; 2187581.203450219 ; 2983830.346977837 ; 0.0
110 ; 21911.660991294917 ; 27374.59033924622 ; 2209668.3644784275 ; 3011204.937317083 ; 0.0
111 ; 21621.90676985771 ; 27374.59033924622 ; 2231580.025469722 ; 3038579.5276563293 ; 0.0
112 ; 21519.88992877138 ; 27374.59033924622 ; 2253201.93223958 ; 3065954.1179955755 ; 0.0
113 ; 21497.007383109456 ; 27374.59033924622 ; 2274721.822168351 ; 3093328.7083348217 ; 0.0
114 ; 21227.548986542166 ; 27374.59033924622 ; 2296218.8295514607 ; 3120703.298674068 ; 0.0
115 ; 21083.27412276438 ; 27374.59033924622 ; 2317446.3785380027 ; 3148077.889013314 ; 0.0
116 ; 20770.491760467525 ; 27374.59033924622 ; 2338529.652660767 ; 3175452.4793525604 ; 0.0
117 ; 20707.112437038013 ; 27374.59033924622 ; 2359300.1444212347 ; 3202827.0696918066 ; 0.0
118 ; 20568.346045097216 ; 27374.59033924622 ; 2380007.256858273 ; 3230201.660031053 ; 0.0
119 ; 20392.242138882015 ; 27374.59033924622 ; 2400575.6029033703 ; 3257576.250370299 ; 0.0
120 ; 20292.78981191329 ; 27374.59033924622 ; 2420967.8450422524 ; 3284950.840709545 ; 0.0
121 ; 20201.409732061045 ; 27374.59033924622 ; 2441260.634854166 ; 3312325.4310487914 ; 0.0
122 ; 19892.36288863852 ; 27374.59033924622 ; 2461462.044586227 ; 3339700.0213880376 ; 0.0
123 ; 19594.779733989322 ; 27374.59033924622 ; 2481354.407474865 ; 3367074.611727284 ; 0.0
124 ; 19623.959582716026 ; 27374.59033924622 ; 2500949.1872088546 ; 3394449.20206653 ; 0.0
125 ; 19438.418650183987 ; 27374.59033924622 ; 2520573.146791571 ; 3421823.792405776 ; 0.0
126 ; 19064.270492509128 ; 27374.59033924622 ; 2540011.5654417546 ; 3449198.3827450224 ; 0.0
127 ; 19066.249409293134 ; 27374.59033924622 ; 2559075.8359342637 ; 3476572.9730842686 ; 0.0
128 ; 18712.3063104491 ; 27374.59033924622 ; 2578142.085343557 ; 3503947.563423515 ; 0.0
129 ; 18219.073552967486 ; 27374.59033924622 ; 2596854.391654006 ; 3531322.153762761 ; 0.0
130 ; 18280.09001408398 ; 27374.59033924622 ; 2615073.4652069737 ; 3558696.7441020072 ; 0.0
131 ; 18025.531530280252 ; 27374.59033924622 ; 2633353.5552210575 ; 3586071.3344412534 ; 0.0
132 ; 17920.521148848668 ; 27374.59033924622 ; 2651379.0867513376 ; 3613445.9247804997 ; 0.0
133 ; 17693.59463029832 ; 27374.59033924622 ; 2669299.6079001864 ; 3640820.515119746 ; 0.0
134 ; 17227.984486804202 ; 27374.59033924622 ; 2686993.2025304846 ; 3668195.105458992 ; 0.0
135 ; 17128.06991256391 ; 27374.59033924622 ; 2704221.187017289 ; 3695569.6957982383 ; 0.0
136 ; 16885.99354183128 ; 27374.59033924622 ; 2721349.256929853 ; 3722944.2861374845 ; 0.0
137 ; 16447.791738513857 ; 27374.59033924622 ; 2738235.250471684 ; 3750318.8764767307 ; 0.0
138 ; 16341.253249105339 ; 27374.59033924622 ; 2754683.042210198 ; 3777693.466815977 ; 0.0
139 ; 16082.664201963731 ; 27374.59033924622 ; 2771024.2954593035 ; 3805068.057155223 ; 0.0
140 ; 15662.562870179974 ; 27374.59033924622 ; 2787106.959661267 ; 3832442.6474944693 ; 0.0
141 ; 15712.800161559186 ; 27374.59033924622 ; 2802769.522531447 ; 3859817.2378337155 ; 0.0
142 ; 15243.11764479781 ; 27374.59033924622 ; 2818482.322693006 ; 3887191.8281729617 ; 0.0
143 ; 14982.001118738779 ; 27374.59033924622 ; 2833725.440337804 ; 3914566.418512208 ; 0.0
144 ; 14660.532250618293 ; 27374.59033924622 ; 2848707.441456543 ; 3941941.008851454 ; 0.0
145 ; 14658.145481455942 ; 27374.59033924622 ; 2863367.973707161 ; 3969315.5991907003 ; 0.0
146 ; 14620.462677015259 ; 27374.59033924622 ; 2878026.119188617 ; 3996690.1895299465 ; 0.0
147 ; 14415.99640345716 ; 27374.59033924622 ; 2892646.5818656324 ; 4024064.7798691927 ; 0.0
148 ; 14531.626819419378 ; 27374.59033924622 ; 2907062.5782690896 ; 4051439.370208439 ; 0.0
149 ; 14221.961743937982 ; 27374.59033924622 ; 2921594.205088509 ; 4078813.960547685 ; 0.0
150 ; 14139.084669838001 ; 27374.59033924622 ; 2935816.1668324466 ; 4106188.5508869314 ; 0.0
151 ; 13984.10733701075 ; 27374.59033924622 ; 2949955.251502285 ; 4133563.1412261776 ; 0.0
152 ; 13985.037469321012 ; 27374.59033924622 ; 2963939.3588392953 ; 4160937.731565424 ; 0.0
153 ; 13875.6026855954 ; 27374.59033924622 ; 2977924.3963086163 ; 4188312.32190467 ; 0.0
154 ; 13599.945636082573 ; 27374.59033924622 ; 2991799.9989942117 ; 4215686.912243917 ; 0.0
155 ; 13627.63265409363 ; 27374.59033924622 ; 3005399.944630294 ; 4243061.502583163 ; 0.0
156 ; 13436.025653763354 ; 27374.59033924622 ; 3019027.577284388 ; 4270436.092922409 ; 0.0
157 ; 13426.99789582173 ; 27374.59033924622 ; 3032463.602938151 ; 4297810.683261655 ; 0.0
158 ; 13345.936284336283 ; 27374.59033924622 ; 3045890.600833973 ; 4325185.2736009015 ; 0.0
159 ; 13329.007687264151 ; 27374.59033924622 ; 3059236.537118309 ; 4352559.863940148 ; 0.0
160 ; 13198.644516721235 ; 27374.59033924622 ; 3072565.5448055733 ; 4379934.454279394 ; 0.0
161 ; 12968.345572768363 ; 27374.59033924622 ; 3085764.1893222947 ; 4407309.04461864 ; 0.0
162 ; 12863.564379076179 ; 27374.59033924622 ; 3098732.534895063 ; 4434683.634957886 ; 0.0
163 ; 12757.10097476658 ; 27374.59033924622 ; 3111596.099274139 ; 4462058.2252971325 ; 0.0
164 ; 12669.73351485 ; 27374.59033924622 ; 3124353.2002489055 ; 4489432.815636379 ; 0.0
165 ; 12648.0908516377 ; 27374.59033924622 ; 3137022.9337637555 ; 4516807.405975625 ; 0.0
166 ; 12628.791762590054 ; 27374.59033924622 ; 3149671.024615393 ; 4544181.996314871 ; 0.0
167 ; 12351.913899161404 ; 27374.59033924622 ; 3162299.816377983 ; 4571556.586654117 ; 0.0
168 ; 12329.467095333934 ; 27374.59033924622 ; 3174651.7302771444 ; 4598931.176993364 ; 0.0
169 ; 12092.58629065007 ; 27374.59033924622 ; 3186981.1973724784 ; 4626305.76733261 ; 0.0
170 ; 11944.384608982298 ; 27374.59033924622 ; 3199073.7836631285 ; 4653680.357671856 ; 0.0
171 ; 11961.790150200848 ; 27374.59033924622 ; 3211018.1682721106 ; 4681054.948011102 ; 0.0
172 ; 11800.877543163535 ; 27374.59033924622 ; 3222979.9584223116 ; 4708429.538350348 ; 0.0
173 ; 11662.642606775398 ; 27374.59033924622 ; 3234780.835965475 ; 4735804.128689595 ; 0.0
174 ; 11614.26780614729 ; 27374.59033924622 ; 3246443.4785722503 ; 4763178.719028841 ; 0.0
175 ; 11739.491609174313 ; 27374.59033924622 ; 3258057.7463783976 ; 4790553.309368087 ; 0.0
176 ; 11675.453940181058 ; 27374.59033924622 ; 3269797.237987572 ; 4817927.899707333 ; 0.0
177 ; 11762.381148734075 ; 27374.59033924622 ; 3281472.691927753 ; 4845302.490046579 ; 0.0
178 ; 11618.33525844395 ; 27374.59033924622 ; 3293235.073076487 ; 4872677.080385826 ; 0.0
179 ; 11595.121707172939 ; 27374.59033924622 ; 3304853.408334931 ; 4900051.670725072 ; 0.0
180 ; 11797.613821528385 ; 27374.59033924622 ; 3316448.530042104 ; 4927426.261064318 ; 0.0
181 ; 11718.92041637562 ; 27374.59033924622 ; 3328246.1438636323 ; 4954800.851403564 ; 0.0
182 ; 11776.092682441533 ; 27374.59033924622 ; 3339965.064280008 ; 4982175.44174281 ; 0.0
183 ; 11792.137511172621 ; 27374.59033924622 ; 3351741.1569624497 ; 5009550.032082057 ; 0.0
184 ; 11625.970065221169 ; 27374.59033924622 ; 3363533.2944736225 ; 5036924.622421303 ; 0.0
185 ; 11893.920945093487 ; 27374.59033924622 ; 3375159.2645388437 ; 5064299.212760549 ; 0.0
186 ; 11933.246620039867 ; 27374.59033924622 ; 3387053.185483937 ; 5091673.803099795 ; 0.0
187 ; 11866.418038268495 ; 27374.59033924622 ; 3398986.432103977 ; 5119048.393439041 ; 0.0
188 ; 11634.709091009456 ; 27374.59033924622 ; 3410852.8501422456 ; 5146422.983778288 ; 0.0
189 ; 11827.85801858026 ; 27374.59033924622 ; 3422487.559233255 ; 5173797.574117534 ; 0.0
190 ; 11900.896458220619 ; 27374.59033924622 ; 3434315.4172518356 ; 5201172.16445678 ; 0.0
191 ; 11735.922652001014 ; 27374.59033924622 ; 3446216.3137100562 ; 5228546.754796026 ; 0.0
192 ; 11875.091229378644 ; 27374.59033924622 ; 3457952.2363620573 ; 5255921.3451352725 ; 0.0
193 ; 11880.522495668045 ; 27374.59033924622 ; 3469827.327591436 ; 5283295.935474519 ; 0.0
194 ; 12017.654223699854 ; 27374.59033924622 ; 3481707.850087104 ; 5310670.525813765 ; 0.0
195 ; 11833.482951454998 ; 27374.59033924622 ; 3493725.504310804 ; 5338045.116153011 ; 0.0
196 ; 11931.365103560174 ; 27374.59033924622 ; 3505558.987262259 ; 5365419.706492257 ; 0.0
197 ; 12033.39781915892 ; 27374.59033924622 ; 3517490.352365819 ; 5392794.2968315035 ; 0.0
198 ; 11926.247988089654 ; 27374.59033924622 ; 3529523.750184978 ; 5420168.88717075 ; 0.0
199 ; 11926.820455661957 ; 27374.59033924622 ; 3541449.9981730673 ; 5447543.477509996 ; 0.0
200 ; 12012.321207127115 ; 27374.59033924622 ; 3553376.8186287293 ; 5474918.067849242 ; 0.0
201 ; 11889.38551090202 ; 27374.59033924622 ; 3565389.1398358564 ; 5502292.658188488 ; 0.0
202 ; 11947.406278034932 ; 27374.59033924622 ; 3577278.5253467583 ; 5529667.248527735 ; 0.0
203 ; 12028.535880683861 ; 27374.59033924622 ; 3589225.9316247934 ; 5557041.838866981 ; 0.0
204 ; 11868.89072837509 ; 27374.59033924622 ; 3601254.4675054774 ; 5584416.429206227 ; 0.0
205 ; 11946.625531356964 ; 27374.59033924622 ; 3613123.3582338523 ; 5611791.019545473 ; 0.0
206 ; 11907.985806243765 ; 27374.59033924622 ; 3625069.983765209 ; 5639165.609884719 ; 0.0
207 ; 11903.3225650617 ; 27374.59033924622 ; 3636977.969571453 ; 5666540.200223966 ; 0.0
208 ; 12030.566515135715 ; 27374.59033924622 ; 3648881.2921365146 ; 5693914.790563212 ; 0.0
209 ; 12045.677961316553 ; 27374.59033924622 ; 3660911.85865165 ; 5721289.380902458 ; 0.0
210 ; 12131.825208576442 ; 27374.59033924622 ; 3672957.5366129666 ; 5748663.971241704 ; 0.0
211 ; 12026.872817980537 ; 27374.59033924622 ; 3685089.361821543 ; 5776038.56158095 ; 0.0
212 ; 11993.600029213309 ; 27374.59033924622 ; 3697116.2346395236 ; 5803413.151920197 ; 0.0
213 ; 12095.115093990404 ; 27374.59033924622 ; 3709109.834668737 ; 5830787.742259443 ; 0.0
214 ; 12234.427618509166 ; 27374.59033924622 ; 3721204.949762727 ; 5858162.332598689 ; 0.0
215 ; 12151.219791538384 ; 27374.59033924622 ; 3733439.3773812363 ; 5885536.922937935 ; 0.0
