CSV File for the City 1 on Day 131
1 - Minute m 
2 - Power Consumed at minute m 
3 - Power Produced at minute m 
4 - Energy Consumed since the beginning of the day 
5 - Energy Produced since the beginning of the day 
6 - Energy Lost since the beginning of the day on lines starting from the city
 
0 ; 10554.473368883193 ; 14188.602214681712 ; 0.0 ; 0.0 ; 0.0
1 ; 10993.498520117602 ; 14188.602214681712 ; 10554.473368883193 ; 14188.602214681712 ; 238.00000000000003
2 ; 11461.699965568498 ; 14188.602214681712 ; 21547.971889000793 ; 28377.204429363424 ; 476.00000000000006
3 ; 12026.274199578545 ; 14188.602214681712 ; 33009.67185456929 ; 42565.80664404514 ; 714.0000000000001
4 ; 12238.510000507038 ; 14188.602214681712 ; 45035.94605414784 ; 56754.40885872685 ; 952.0000000000001
5 ; 12490.401570675704 ; 14188.602214681712 ; 57274.456054654875 ; 70943.01107340856 ; 1190.0000000000002
6 ; 12839.699594895734 ; 14188.602214681712 ; 69764.85762533058 ; 85131.61328809027 ; 1428.0000000000002
7 ; 13587.518929357006 ; 14188.602214681712 ; 82604.55722022631 ; 99320.21550277199 ; 1666.0000000000002
8 ; 13657.227565888485 ; 14188.602214681712 ; 96192.07614958331 ; 113508.8177174537 ; 1904.0000000000002
9 ; 13975.557273187029 ; 14188.602214681712 ; 109849.3037154718 ; 127697.41993213541 ; 2142.0000000000005
10 ; 14426.466206278728 ; 14188.602214681712 ; 123824.86098865884 ; 141886.02214681712 ; 2380.0000000000005
11 ; 14930.428860042153 ; 14188.602214681712 ; 138251.32719493756 ; 156074.62436149883 ; 2618.0000000000005
12 ; 15293.78749344723 ; 14188.602214681712 ; 153181.75605497972 ; 170263.22657618055 ; 2856.0000000000005
13 ; 15642.909431415212 ; 14188.602214681712 ; 168475.54354842694 ; 184451.82879086226 ; 3094.0000000000005
14 ; 15973.3718889093 ; 14188.602214681712 ; 184118.45297984214 ; 198640.43100554397 ; 3332.0000000000005
15 ; 16245.585474283216 ; 14188.602214681712 ; 200091.82486875146 ; 212829.03322022568 ; 3570.0000000000005
16 ; 16647.501391263653 ; 14188.602214681712 ; 216337.41034303466 ; 227017.6354349074 ; 3808.0000000000005
17 ; 16965.447210980103 ; 14188.602214681712 ; 232984.9117342983 ; 241206.2376495891 ; 4046.0000000000005
18 ; 17102.698903181943 ; 14188.602214681712 ; 249950.35894527842 ; 255394.83986427082 ; 4284.000000000001
19 ; 17530.393496470504 ; 14188.602214681712 ; 267053.0578484604 ; 269583.44207895256 ; 4522.000000000001
20 ; 17931.6006996043 ; 14188.602214681712 ; 284583.4513449309 ; 283772.04429363424 ; 4760.000000000001
21 ; 18105.391457458627 ; 14188.602214681712 ; 302515.05204453523 ; 297960.6465083159 ; 4998.000000000001
22 ; 18355.5186619 ; 14188.602214681712 ; 320620.44350199384 ; 312149.2487229976 ; 5236.000000000001
23 ; 18734.913578813164 ; 14188.602214681712 ; 338975.96216389386 ; 326337.8509376793 ; 5474.000000000001
24 ; 19178.054853553604 ; 14188.602214681712 ; 357710.875742707 ; 340526.453152361 ; 5712.000000000001
25 ; 19155.217940802948 ; 14188.602214681712 ; 376888.9305962606 ; 354715.05536704266 ; 5950.000000000001
26 ; 19344.587825370887 ; 14188.602214681712 ; 396044.1485370635 ; 368903.65758172434 ; 6188.000000000001
27 ; 19793.998605854722 ; 14188.602214681712 ; 415388.7363624344 ; 383092.259796406 ; 6426.000000000001
28 ; 19951.84286367794 ; 14188.602214681712 ; 435182.73496828915 ; 397280.8620110877 ; 6664.000000000001
29 ; 20181.4658571255 ; 14188.602214681712 ; 455134.5778319671 ; 411469.4642257694 ; 6902.000000000001
30 ; 20537.092069598908 ; 14188.602214681712 ; 475316.0436890926 ; 425658.0664404511 ; 7140.000000000001
31 ; 20758.26852862571 ; 14188.602214681712 ; 495853.1357586915 ; 439846.66865513276 ; 7378.000000000001
32 ; 21082.098905717885 ; 14188.602214681712 ; 516611.40428731724 ; 454035.27086981444 ; 7616.000000000001
33 ; 21495.706094582263 ; 14188.602214681712 ; 537693.5031930351 ; 468223.8730844961 ; 7854.000000000001
34 ; 21582.898078023845 ; 14188.602214681712 ; 559189.2092876174 ; 482412.4752991778 ; 8092.000000000001
35 ; 21910.68937704893 ; 14188.602214681712 ; 580772.1073656412 ; 496601.0775138595 ; 8330.000000000002
36 ; 21772.68460146674 ; 14188.602214681712 ; 602682.7967426901 ; 510789.6797285412 ; 8568.000000000002
37 ; 22137.468610815504 ; 14188.602214681712 ; 624455.4813441569 ; 524978.2819432229 ; 8806.000000000002
38 ; 22306.469530902486 ; 14188.602214681712 ; 646592.9499549724 ; 539166.8841579045 ; 9044.000000000002
39 ; 22631.361178144754 ; 14188.602214681712 ; 668899.4194858748 ; 553355.4863725862 ; 9282.000000000002
40 ; 22848.687263621392 ; 14188.602214681712 ; 691530.7806640195 ; 567544.0885872679 ; 9520.000000000002
41 ; 22971.9629511626 ; 14188.602214681712 ; 714379.4679276409 ; 581732.6908019496 ; 9758.000000000002
42 ; 23181.426857504513 ; 14188.602214681712 ; 737351.4308788035 ; 595921.2930166313 ; 9996.000000000002
43 ; 23274.432252318424 ; 14188.602214681712 ; 760532.857736308 ; 610109.895231313 ; 10234.000000000002
44 ; 23572.35418840983 ; 14188.602214681712 ; 783807.2899886265 ; 624298.4974459946 ; 10472.000000000002
45 ; 23827.322280050885 ; 14188.602214681712 ; 807379.6441770364 ; 638487.0996606763 ; 10710.000000000002
46 ; 23941.178300144962 ; 14188.602214681712 ; 831206.9664570872 ; 652675.701875358 ; 10948.000000000002
47 ; 24062.732374816056 ; 14188.602214681712 ; 855148.1447572322 ; 666864.3040900397 ; 11186.000000000002
48 ; 24330.548678095212 ; 14188.602214681712 ; 879210.8771320482 ; 681052.9063047214 ; 11424.000000000002
49 ; 24417.471857580927 ; 14188.602214681712 ; 903541.4258101435 ; 695241.508519403 ; 11662.000000000002
50 ; 24502.326769515315 ; 14188.602214681712 ; 927958.8976677244 ; 709430.1107340847 ; 11900.000000000002
51 ; 24942.501431969937 ; 14188.602214681712 ; 952461.2244372397 ; 723618.7129487664 ; 12138.000000000002
52 ; 24977.202780061787 ; 14188.602214681712 ; 977403.7258692096 ; 737807.3151634481 ; 12376.000000000002
53 ; 24956.701137626253 ; 14188.602214681712 ; 1002380.9286492714 ; 751995.9173781298 ; 12614.000000000002
54 ; 25190.498326608573 ; 14188.602214681712 ; 1027337.6297868977 ; 766184.5195928115 ; 12852.000000000002
55 ; 25247.373615467943 ; 14188.602214681712 ; 1052528.1281135064 ; 780373.1218074932 ; 13090.000000000002
56 ; 25479.748224569674 ; 14188.602214681712 ; 1077775.5017289743 ; 794561.7240221748 ; 13328.000000000002
57 ; 25564.23541447134 ; 14188.602214681712 ; 1103255.249953544 ; 808750.3262368565 ; 13566.000000000002
58 ; 25775.755001813726 ; 14188.602214681712 ; 1128819.4853680152 ; 822938.9284515382 ; 13804.000000000002
59 ; 25744.183885392835 ; 14188.602214681712 ; 1154595.2403698289 ; 837127.5306662199 ; 14042.000000000002
60 ; 25755.392909408412 ; 14188.602214681712 ; 1180339.4242552216 ; 851316.1328809016 ; 14280.000000000002
61 ; 25934.10555911766 ; 14188.602214681712 ; 1206094.81716463 ; 865504.7350955833 ; 14518.000000000002
62 ; 26239.06235177214 ; 14188.602214681712 ; 1232028.9227237476 ; 879693.3373102649 ; 14756.000000000002
63 ; 26148.463247406176 ; 14188.602214681712 ; 1258267.9850755197 ; 893881.9395249466 ; 14994.000000000002
64 ; 26216.58967954385 ; 14188.602214681712 ; 1284416.4483229257 ; 908070.5417396283 ; 15232.000000000002
65 ; 26232.461287711496 ; 14188.602214681712 ; 1310633.0380024696 ; 922259.14395431 ; 15470.000000000002
66 ; 26365.683289374116 ; 14188.602214681712 ; 1336865.499290181 ; 936447.7461689917 ; 15708.000000000002
67 ; 26376.632929367493 ; 14188.602214681712 ; 1363231.1825795553 ; 950636.3483836734 ; 15946.000000000002
68 ; 26526.617353959315 ; 14188.602214681712 ; 1389607.8155089228 ; 964824.950598355 ; 16184.000000000002
69 ; 26687.134118772356 ; 14188.602214681712 ; 1416134.432862882 ; 979013.5528130367 ; 16422.000000000004
70 ; 26664.746819781976 ; 14188.602214681712 ; 1442821.5669816544 ; 993202.1550277184 ; 16660.000000000004
71 ; 26670.629207694044 ; 14188.602214681712 ; 1469486.3138014365 ; 1007390.7572424001 ; 16898.000000000004
72 ; 26570.889871022006 ; 14188.602214681712 ; 1496156.9430091304 ; 1021579.3594570818 ; 17136.000000000004
73 ; 26836.792966852292 ; 14188.602214681712 ; 1522727.8328801524 ; 1035767.9616717634 ; 17374.000000000004
74 ; 26737.221838749567 ; 14188.602214681712 ; 1549564.6258470046 ; 1049956.5638864452 ; 17612.000000000004
75 ; 26992.219579280616 ; 14188.602214681712 ; 1576301.847685754 ; 1064145.166101127 ; 17850.000000000004
76 ; 26821.28456037076 ; 14188.602214681712 ; 1603294.0672650347 ; 1078333.7683158086 ; 18088.000000000004
77 ; 26819.622795241627 ; 14188.602214681712 ; 1630115.3518254054 ; 1092522.3705304903 ; 18326.000000000004
78 ; 26993.459193987816 ; 14188.602214681712 ; 1656934.974620647 ; 1106710.972745172 ; 18564.000000000004
79 ; 26906.48484753027 ; 14188.602214681712 ; 1683928.4338146348 ; 1120899.5749598537 ; 18802.000000000004
80 ; 26852.217856716507 ; 14188.602214681712 ; 1710834.918662165 ; 1135088.1771745353 ; 19040.000000000004
81 ; 26828.228365598134 ; 14188.602214681712 ; 1737687.1365188817 ; 1149276.779389217 ; 19278.000000000004
82 ; 26897.850643969257 ; 14188.602214681712 ; 1764515.36488448 ; 1163465.3816038987 ; 19516.000000000004
83 ; 26750.221615624898 ; 14188.602214681712 ; 1791413.215528449 ; 1177653.9838185804 ; 19754.000000000004
84 ; 26862.64507596822 ; 14188.602214681712 ; 1818163.437144074 ; 1191842.586033262 ; 19992.000000000004
85 ; 26852.2695548419 ; 14188.602214681712 ; 1845026.0822200421 ; 1206031.1882479438 ; 20230.000000000004
86 ; 26890.414379662223 ; 14188.602214681712 ; 1871878.351774884 ; 1220219.7904626254 ; 20468.000000000004
87 ; 26705.331893022696 ; 14188.602214681712 ; 1898768.766154546 ; 1234408.3926773071 ; 20706.000000000004
88 ; 26809.620431941512 ; 14188.602214681712 ; 1925474.0980475687 ; 1248596.9948919888 ; 20944.000000000004
89 ; 26744.705189902354 ; 14188.602214681712 ; 1952283.7184795102 ; 1262785.5971066705 ; 21182.000000000004
90 ; 26592.831024209547 ; 14188.602214681712 ; 1979028.4236694125 ; 1276974.1993213522 ; 21420.000000000004
91 ; 26540.76370532115 ; 14188.602214681712 ; 2005621.254693622 ; 1291162.8015360339 ; 21658.000000000004
92 ; 26648.274804477456 ; 14188.602214681712 ; 2032162.0183989431 ; 1305351.4037507155 ; 21896.000000000004
93 ; 26332.577354436948 ; 14188.602214681712 ; 2058810.2932034205 ; 1319540.0059653972 ; 22134.000000000004
94 ; 26331.618516411316 ; 14188.602214681712 ; 2085142.8705578574 ; 1333728.608180079 ; 22372.000000000004
95 ; 26391.11359567816 ; 14188.602214681712 ; 2111474.489074269 ; 1347917.2103947606 ; 22610.000000000004
96 ; 26084.769671434802 ; 14188.602214681712 ; 2137865.602669947 ; 1362105.8126094423 ; 22848.000000000004
97 ; 26076.130660147577 ; 14188.602214681712 ; 2163950.372341382 ; 1376294.414824124 ; 23086.000000000004
98 ; 25946.40440563427 ; 14188.602214681712 ; 2190026.5030015293 ; 1390483.0170388056 ; 23324.000000000004
99 ; 25953.42548881916 ; 14188.602214681712 ; 2215972.9074071636 ; 1404671.6192534873 ; 23562.000000000004
100 ; 25818.109064830373 ; 14188.602214681712 ; 2241926.332895983 ; 1418860.221468169 ; 23800.000000000004
101 ; 25923.501662567578 ; 14188.602214681712 ; 2267744.4419608135 ; 1433048.8236828507 ; 24038.000000000004
102 ; 25528.49911245512 ; 14188.602214681712 ; 2293667.943623381 ; 1447237.4258975324 ; 24276.000000000004
103 ; 25475.957595868553 ; 14188.602214681712 ; 2319196.4427358364 ; 1461426.028112214 ; 24514.000000000004
104 ; 25327.108306130285 ; 14188.602214681712 ; 2344672.400331705 ; 1475614.6303268957 ; 24752.000000000004
105 ; 25322.997722102882 ; 14188.602214681712 ; 2369999.5086378353 ; 1489803.2325415774 ; 24990.000000000004
106 ; 25120.312680744966 ; 14188.602214681712 ; 2395322.506359938 ; 1503991.834756259 ; 25228.000000000004
107 ; 25013.77028327037 ; 14188.602214681712 ; 2420442.819040683 ; 1518180.4369709408 ; 25466.000000000004
108 ; 24685.32922429972 ; 14188.602214681712 ; 2445456.5893239533 ; 1532369.0391856225 ; 25704.000000000004
109 ; 24681.112517321344 ; 14188.602214681712 ; 2470141.918548253 ; 1546557.6414003042 ; 25942.000000000004
110 ; 24519.590204672182 ; 14188.602214681712 ; 2494823.0310655744 ; 1560746.2436149858 ; 26180.000000000004
111 ; 24499.91237366893 ; 14188.602214681712 ; 2519342.6212702463 ; 1574934.8458296675 ; 26418.000000000004
112 ; 24103.39590855398 ; 14188.602214681712 ; 2543842.5336439153 ; 1589123.4480443492 ; 26656.000000000004
113 ; 24366.89716876884 ; 14188.602214681712 ; 2567945.9295524694 ; 1603312.050259031 ; 26894.000000000004
114 ; 23917.628363016483 ; 14188.602214681712 ; 2592312.8267212384 ; 1617500.6524737126 ; 27132.000000000004
115 ; 23859.252105322215 ; 14188.602214681712 ; 2616230.455084255 ; 1631689.2546883943 ; 27370.000000000004
116 ; 23675.803114962036 ; 14188.602214681712 ; 2640089.707189577 ; 1645877.856903076 ; 27608.000000000004
117 ; 23295.681775947065 ; 14188.602214681712 ; 2663765.510304539 ; 1660066.4591177576 ; 27846.000000000004
118 ; 23165.516152743276 ; 14188.602214681712 ; 2687061.192080486 ; 1674255.0613324393 ; 28084.000000000004
119 ; 23027.120352916474 ; 14188.602214681712 ; 2710226.7082332294 ; 1688443.663547121 ; 28322.000000000004
120 ; 22738.38405827474 ; 14188.602214681712 ; 2733253.828586146 ; 1702632.2657618027 ; 28560.000000000004
121 ; 22714.508803227644 ; 14188.602214681712 ; 2755992.2126444206 ; 1716820.8679764844 ; 28798.000000000004
122 ; 22513.686962553482 ; 14188.602214681712 ; 2778706.721447648 ; 1731009.470191166 ; 29036.000000000004
123 ; 22248.66643633157 ; 14188.602214681712 ; 2801220.4084102013 ; 1745198.0724058477 ; 29274.000000000004
124 ; 21950.7190231345 ; 14188.602214681712 ; 2823469.0748465327 ; 1759386.6746205294 ; 29512.000000000004
125 ; 21688.263161438445 ; 14188.602214681712 ; 2845419.793869667 ; 1773575.276835211 ; 29750.000000000004
126 ; 21625.48751982445 ; 14188.602214681712 ; 2867108.0570311057 ; 1787763.8790498928 ; 29988.000000000004
127 ; 21248.64041935384 ; 14188.602214681712 ; 2888733.54455093 ; 1801952.4812645745 ; 30226.000000000004
128 ; 21050.409775519707 ; 14188.602214681712 ; 2909982.184970284 ; 1816141.0834792561 ; 30464.000000000004
129 ; 20856.93605486174 ; 14188.602214681712 ; 2931032.5947458036 ; 1830329.6856939378 ; 30702.000000000004
130 ; 20534.874835471794 ; 14188.602214681712 ; 2951889.5308006653 ; 1844518.2879086195 ; 30940.000000000004
131 ; 20156.48659569709 ; 14188.602214681712 ; 2972424.405636137 ; 1858706.8901233012 ; 31178.000000000004
132 ; 19902.320707612194 ; 14188.602214681712 ; 2992580.892231834 ; 1872895.4923379829 ; 31416.000000000004
133 ; 19914.193096858748 ; 14188.602214681712 ; 3012483.2129394463 ; 1887084.0945526646 ; 31654.000000000004
134 ; 19539.65015631906 ; 14188.602214681712 ; 3032397.4060363052 ; 1901272.6967673462 ; 31892.000000000004
135 ; 19207.989760557015 ; 14188.602214681712 ; 3051937.0561926244 ; 1915461.298982028 ; 32130.000000000004
136 ; 18798.791367659935 ; 14188.602214681712 ; 3071145.0459531816 ; 1929649.9011967096 ; 32368.000000000004
137 ; 18628.401946314843 ; 14188.602214681712 ; 3089943.8373208414 ; 1943838.5034113913 ; 32606.000000000004
138 ; 18238.96902632495 ; 14188.602214681712 ; 3108572.2392671565 ; 1958027.105626073 ; 32844.00000000001
139 ; 18221.647499988412 ; 14188.602214681712 ; 3126811.2082934813 ; 1972215.7078407547 ; 33082.00000000001
140 ; 17736.40255603729 ; 14188.602214681712 ; 3145032.8557934696 ; 1986404.3100554363 ; 33320.00000000001
141 ; 17549.140462390194 ; 14188.602214681712 ; 3162769.2583495067 ; 2000592.912270118 ; 33558.00000000001
142 ; 17198.61242128005 ; 14188.602214681712 ; 3180318.398811897 ; 2014781.5144847997 ; 33796.00000000001
143 ; 16899.51101179977 ; 14188.602214681712 ; 3197517.011233177 ; 2028970.1166994814 ; 34034.00000000001
144 ; 16439.66447078983 ; 14188.602214681712 ; 3214416.522244977 ; 2043158.718914163 ; 34272.00000000001
145 ; 16381.743437017863 ; 14188.602214681712 ; 3230856.186715767 ; 2057347.3211288447 ; 34510.00000000001
146 ; 16198.069552587569 ; 14188.602214681712 ; 3247237.9301527846 ; 2071535.9233435264 ; 34748.00000000001
147 ; 16014.769411690237 ; 14188.602214681712 ; 3263435.999705372 ; 2085724.525558208 ; 34986.00000000001
148 ; 16200.343025762748 ; 14188.602214681712 ; 3279450.769117062 ; 2099913.12777289 ; 35224.00000000001
149 ; 15741.259135586217 ; 14188.602214681712 ; 3295651.1121428246 ; 2114101.729987572 ; 35462.00000000001
150 ; 16145.353772423596 ; 14188.602214681712 ; 3311392.371278411 ; 2128290.332202254 ; 35700.00000000001
151 ; 15878.207727045048 ; 14188.602214681712 ; 3327537.7250508345 ; 2142478.934416936 ; 35938.00000000001
152 ; 15724.748637814902 ; 14188.602214681712 ; 3343415.9327778793 ; 2156667.5366316177 ; 36176.00000000001
153 ; 15622.711847319946 ; 14188.602214681712 ; 3359140.6814156943 ; 2170856.1388462996 ; 36414.00000000001
154 ; 15346.772831750652 ; 14188.602214681712 ; 3374763.393263014 ; 2185044.7410609815 ; 36652.00000000001
155 ; 15271.405523364643 ; 14188.602214681712 ; 3390110.1660947646 ; 2199233.3432756634 ; 36890.00000000001
156 ; 15192.91349605332 ; 14188.602214681712 ; 3405381.571618129 ; 2213421.9454903454 ; 37128.00000000001
157 ; 15075.222610304138 ; 14188.602214681712 ; 3420574.4851141823 ; 2227610.5477050273 ; 37366.00000000001
158 ; 14984.851198417555 ; 14188.602214681712 ; 3435649.7077244865 ; 2241799.149919709 ; 37604.00000000001
159 ; 15013.011657184255 ; 14188.602214681712 ; 3450634.558922904 ; 2255987.752134391 ; 37842.00000000001
160 ; 14687.385225836102 ; 14188.602214681712 ; 3465647.5705800885 ; 2270176.354349073 ; 38080.00000000001
161 ; 14661.565520375209 ; 14188.602214681712 ; 3480334.9558059247 ; 2284364.956563755 ; 38318.00000000001
162 ; 14402.276845761946 ; 14188.602214681712 ; 3494996.5213262998 ; 2298553.558778437 ; 38556.00000000001
163 ; 14209.674117369004 ; 14188.602214681712 ; 3509398.798172062 ; 2312742.160993119 ; 38794.00000000001
164 ; 14286.539594944075 ; 14188.602214681712 ; 3523608.472289431 ; 2326930.7632078007 ; 39032.00000000001
165 ; 14038.543200546455 ; 14188.602214681712 ; 3537895.011884375 ; 2341119.3654224826 ; 39270.00000000001
166 ; 13889.648116264498 ; 14188.602214681712 ; 3551933.5550849214 ; 2355307.9676371645 ; 39508.00000000001
167 ; 13708.171502714218 ; 14188.602214681712 ; 3565823.203201186 ; 2369496.5698518464 ; 39746.00000000001
168 ; 13667.243603361856 ; 14188.602214681712 ; 3579531.3747039 ; 2383685.1720665284 ; 39984.00000000001
169 ; 13525.83665799954 ; 14188.602214681712 ; 3593198.6183072617 ; 2397873.7742812103 ; 40222.00000000001
170 ; 13400.41464398919 ; 14188.602214681712 ; 3606724.4549652613 ; 2412062.376495892 ; 40460.00000000001
171 ; 13466.26634559682 ; 14188.602214681712 ; 3620124.8696092507 ; 2426250.978710574 ; 40698.00000000001
172 ; 13067.039915855967 ; 14188.602214681712 ; 3633591.1359548476 ; 2440439.580925256 ; 40936.00000000001
173 ; 13023.867077653162 ; 14188.602214681712 ; 3646658.1758707035 ; 2454628.183139938 ; 41174.00000000001
174 ; 12912.225465265627 ; 14188.602214681712 ; 3659682.042948357 ; 2468816.78535462 ; 41412.00000000001
175 ; 12803.965017153134 ; 14188.602214681712 ; 3672594.2684136224 ; 2483005.3875693018 ; 41650.00000000001
176 ; 12793.00972679492 ; 14188.602214681712 ; 3685398.2334307753 ; 2497193.9897839837 ; 41888.00000000001
177 ; 12966.4729958585 ; 14188.602214681712 ; 3698191.2431575703 ; 2511382.5919986656 ; 42126.00000000001
178 ; 13167.743804014648 ; 14188.602214681712 ; 3711157.716153429 ; 2525571.1942133475 ; 42364.00000000001
179 ; 12857.419089236824 ; 14188.602214681712 ; 3724325.4599574436 ; 2539759.7964280294 ; 42602.00000000001
180 ; 13065.40515265852 ; 14188.602214681712 ; 3737182.8790466804 ; 2553948.3986427113 ; 42840.00000000001
181 ; 13070.88960623342 ; 14188.602214681712 ; 3750248.284199339 ; 2568137.0008573933 ; 43078.00000000001
182 ; 13076.205023708166 ; 14188.602214681712 ; 3763319.173805572 ; 2582325.603072075 ; 43316.00000000001
183 ; 12972.51295510693 ; 14188.602214681712 ; 3776395.3788292804 ; 2596514.205286757 ; 43554.00000000001
184 ; 12941.073605906813 ; 14188.602214681712 ; 3789367.891784387 ; 2610702.807501439 ; 43792.00000000001
