CSV File for the City 3 on Day 167
1 - Minute m 
2 - Power Consumed at minute m 
3 - Power Produced at minute m 
4 - Energy Consumed since the beginning of the day 
5 - Energy Produced since the beginning of the day 
6 - Energy Lost since the beginning of the day on lines starting from the city
 
0 ; 5485.624722797665 ; 90108.22251771283 ; 0.0 ; 0.0 ; 0.0
1 ; 5956.317485296611 ; 89763.23690664441 ; 5485.624722797665 ; 90108.22251771283 ; 0.0
2 ; 6244.512649856168 ; 89453.36687352306 ; 11441.942208094275 ; 179871.45942435722 ; 0.0
3 ; 6586.220869636312 ; 89179.00217860726 ; 17686.45485795044 ; 269324.82629788027 ; 0.0
4 ; 7195.337466984141 ; 88940.49238665107 ; 24272.675727586753 ; 358503.82847648754 ; 0.0
5 ; 7377.1438497266845 ; 88738.14483916342 ; 31468.013194570893 ; 447444.3208631386 ; 0.0
6 ; 7806.262789362532 ; 88572.22283576826 ; 38845.15704429758 ; 536182.465702302 ; 0.0
7 ; 8217.517784373196 ; 88442.9440493768 ; 46651.41983366011 ; 624754.6885380703 ; 0.0
8 ; 8585.81986681535 ; 88350.47919723754 ; 54868.937618033306 ; 713197.6325874471 ; 0.0
9 ; 8849.579659069686 ; 88294.95098673992 ; 63454.757484848655 ; 801548.1117846846 ; 0.0
10 ; 9118.767569316162 ; 88276.43335119248 ; 72304.33714391834 ; 889843.0627714245 ; 0.0
11 ; 9525.886531207703 ; 88294.95098673992 ; 81423.1047132345 ; 978119.496122617 ; 0.0
12 ; 9963.780438951042 ; 88350.47919723754 ; 90948.99124444221 ; 1066414.447109357 ; 0.0
13 ; 10344.18972336935 ; 88442.9440493768 ; 100912.77168339325 ; 1154764.9263065946 ; 0.0
14 ; 10552.984925267863 ; 88572.22283576816 ; 111256.9614067626 ; 1243207.8703559714 ; 0.0
15 ; 10769.462984147845 ; 88738.14483916342 ; 121809.94633203046 ; 1331780.0931917396 ; 0.0
16 ; 11261.597695433782 ; 88940.49238665107 ; 132579.4093161783 ; 1420518.238030903 ; 0.0
17 ; 11539.455199217911 ; 89179.00217860716 ; 143841.00701161206 ; 1509458.730417554 ; 0.0
18 ; 11896.336391663697 ; 89453.36687352315 ; 155380.46221082998 ; 1598637.7325961613 ; 0.0
19 ; 12142.690025631016 ; 89763.2369066443 ; 167276.79860249368 ; 1688091.0994696845 ; 0.0
20 ; 12494.927976357832 ; 90108.22251771293 ; 179419.4886281247 ; 1777854.336376329 ; 0.0
21 ; 12879.105730428677 ; 90487.89596105035 ; 191914.41660448254 ; 1867962.558894042 ; 0.0
22 ; 12951.29566317071 ; 90901.79386977218 ; 204793.52233491122 ; 1958450.4548550923 ; 0.0
23 ; 13235.271985418283 ; 91349.41974509595 ; 217744.81799808194 ; 2049352.2487248646 ; 0.0
24 ; 13756.442336974647 ; 91830.2465414701 ; 230980.08998350022 ; 2140701.6684699603 ; 0.0
25 ; 13862.733368983592 ; 92343.71931858527 ; 244736.53232047486 ; 2232531.9150114306 ; 0.0
26 ; 14289.971442159753 ; 92889.2579321723 ; 258599.26568945844 ; 2324875.634330016 ; 0.0
27 ; 14450.760523488543 ; 93466.25973679358 ; 272889.2371316182 ; 2417764.8922621883 ; 0.0
28 ; 14674.796974948424 ; 94074.10227551928 ; 287339.99765510677 ; 2511231.151998982 ; 0.0
29 ; 14887.541174678654 ; 94712.14593337874 ; 302014.7946300552 ; 2605305.254274501 ; 0.0
30 ; 15254.17886381981 ; 95379.73653370827 ; 316902.33580473386 ; 2700017.40020788 ; 0.0
31 ; 15364.780752222765 ; 96076.20785891691 ; 332156.51466855366 ; 2795397.1367415884 ; 0.0
32 ; 15725.976746395332 ; 96800.88407967545 ; 347521.2954207764 ; 2891473.344600505 ; 0.0
33 ; 16075.957183472883 ; 97553.08207904914 ; 363247.27216717176 ; 2988274.228680181 ; 0.0
34 ; 16162.233712813713 ; 98332.11366057977 ; 379323.22935064463 ; 3085827.31075923 ; 0.0
35 ; 16473.00282497306 ; 99137.28763172301 ; 395485.46306345833 ; 3184159.4244198096 ; 0.0
36 ; 16574.245382779885 ; 99967.9117563285 ; 411958.4658884314 ; 3283296.7120515327 ; 0.0
37 ; 16946.315185700158 ; 100823.29457197736 ; 428532.7112712113 ; 3383264.623807861 ; 0.0
38 ; 17060.78110499056 ; 101702.74706994147 ; 445479.0264569114 ; 3484087.9183798386 ; 0.0
39 ; 17378.385605133004 ; 102605.58423728461 ; 462539.807561902 ; 3585790.66544978 ; 0.0
40 ; 17463.014068385135 ; 103531.12646217678 ; 479918.193167035 ; 3688396.2496870644 ; 0.0
41 ; 17599.953765358354 ; 104478.70080484502 ; 497381.2072354201 ; 3791927.3761492413 ; 0.0
42 ; 17860.300372872545 ; 105447.6421377262 ; 514981.1610007785 ; 3896406.0769540863 ; 0.0
43 ; 17911.06225643448 ; 106437.29415934124 ; 532841.461373651 ; 4001853.7190918126 ; 0.0
44 ; 18285.712779433503 ; 107447.01028717405 ; 550752.5236300855 ; 4108291.0132511538 ; 0.0
45 ; 18340.89235509902 ; 108476.15443543588 ; 569038.236409519 ; 4215738.023538328 ; 0.0
46 ; 18570.082211025834 ; 109524.10168403124 ; 587379.128764618 ; 4324214.177973764 ; 0.0
47 ; 18857.807400329937 ; 110590.23884534171 ; 605949.2109756438 ; 4433738.279657795 ; 0.0
48 ; 18877.533814244092 ; 111673.96493561224 ; 624807.0183759738 ; 4544328.518503137 ; 0.0
49 ; 19030.69380637389 ; 112774.69155779154 ; 643684.5521902179 ; 4656002.483438749 ; 0.0
50 ; 19136.461955354913 ; 113891.84320264668 ; 662715.2459965918 ; 4768777.17499654 ; 0.0
51 ; 19459.719911852604 ; 115024.8574748637 ; 681851.7079519466 ; 4882669.018199187 ; 0.0
52 ; 19609.062711358736 ; 116173.18525067557 ; 701311.4278637993 ; 4997693.87567405 ; 0.0
53 ; 19709.845919695807 ; 117336.29077333114 ; 720920.490575158 ; 5113867.060924726 ; 0.0
54 ; 19837.38674824852 ; 118513.65169245827 ; 740630.3364948538 ; 5231203.351698057 ; 0.0
55 ; 20051.9929300769 ; 119704.75905307611 ; 760467.7232431023 ; 5349717.003390515 ; 0.0
56 ; 20100.661634812983 ; 120909.11723969919 ; 780519.7161731792 ; 5469421.762443591 ; 0.0
57 ; 20221.728338781788 ; 122126.24388064317 ; 800620.3778079922 ; 5590330.87968329 ; 0.0
58 ; 20278.95133229268 ; 123355.66971731093 ; 820842.1061467739 ; 5712457.123563933 ; 0.0
59 ; 20430.777720650047 ; 124596.93844289727 ; 841121.0574790665 ; 5835812.793281244 ; 0.0
60 ; 20507.825648997183 ; 125849.60651462011 ; 861551.8351997166 ; 5960409.731724141 ; 0.0
61 ; 20487.38576336476 ; 127113.24294325808 ; 882059.6608487138 ; 6086259.338238761 ; 0.0
62 ; 20634.72179899916 ; 128387.42906346105 ; 902547.0466120786 ; 6213372.581182019 ; 0.0
63 ; 20794.77802471136 ; 129671.75828799541 ; 923181.7684110777 ; 6341760.01024548 ; 0.0
64 ; 20937.503763160614 ; 130965.8358487973 ; 943976.5464357891 ; 6471431.768533475 ; 0.0
65 ; 21065.797139713435 ; 132269.27852743483 ; 964914.0501989498 ; 6602397.604382272 ; 0.0
66 ; 21082.066407249928 ; 133581.7143773207 ; 985979.8473386632 ; 6734666.882909707 ; 0.0
67 ; 21026.7692453301 ; 134902.78243977707 ; 1007061.9137459131 ; 6868248.597287027 ; 0.0
68 ; 21106.28583566262 ; 136232.13245583017 ; 1028088.6829912432 ; 7003151.379726804 ; 0.0
69 ; 21187.43525194765 ; 137569.42457540205 ; 1049194.9688269058 ; 7139383.512182634 ; 0.0
70 ; 21166.736688916066 ; 138914.32906537742 ; 1070382.4040788535 ; 7276952.936758037 ; 0.0
71 ; 21339.393627965335 ; 140266.52601784357 ; 1091549.1407677697 ; 7415867.265823415 ; 0.0
72 ; 21510.66244072141 ; 141625.7050596419 ; 1112888.534395735 ; 7556133.791841258 ; 0.0
73 ; 21318.435863062106 ; 142991.56506422046 ; 1134399.1968364564 ; 7697759.4969009 ; 0.0
74 ; 21473.36934440481 ; 144363.81386664193 ; 1155717.6326995185 ; 7840751.061965121 ; 0.0
75 ; 21606.565881131795 ; 145742.16798248063 ; 1177191.0020439234 ; 7985114.875831763 ; 0.0
76 ; 21602.580898762528 ; 147126.35233123062 ; 1198797.567925055 ; 8130857.043814244 ; 0.0
77 ; 21549.6071521482 ; 148516.099964748 ; 1220400.1488238175 ; 8277983.396145474 ; 0.0
78 ; 21639.912748983646 ; 149911.15180116254 ; 1241949.7559759656 ; 8426499.496110221 ; 0.0
79 ; 21460.500438041938 ; 151311.25636461066 ; 1263589.6687249492 ; 8576410.647911385 ; 0.0
80 ; 21551.96074722839 ; 152716.16953107473 ; 1285050.1691629912 ; 8727721.904275995 ; 0.0
81 ; 21500.3632452325 ; 154125.65428054673 ; 1306602.1299102197 ; 8880438.07380707 ; 0.0
82 ; 21458.095833370826 ; 155539.48045568008 ; 1328102.4931554522 ; 9034563.728087617 ; 0.0
83 ; 21486.077345691807 ; 156957.42452704394 ; 1349560.5889888231 ; 9190103.208543297 ; 0.0
84 ; 21325.991993831016 ; 158379.26936504926 ; 1371046.666334515 ; 9347060.63307034 ; 0.0
85 ; 21315.008720018635 ; 159804.80401858015 ; 1392372.658328346 ; 9505439.90243539 ; 0.0
86 ; 21632.422833942164 ; 161233.82350032823 ; 1413687.6670483646 ; 9665244.70645397 ; 0.0
87 ; 21393.247532109035 ; 162666.1285788016 ; 1435320.0898823068 ; 9826478.529954297 ; 0.0
88 ; 21470.370882887568 ; 164101.52557695258 ; 1456713.3374144158 ; 9989144.658533098 ; 0.0
89 ; 21392.08927522833 ; 165539.82617735027 ; 1478183.7082973034 ; 1.0153246184110051E7 ; 0.0
90 ; 21261.708106799335 ; 166980.84723380255 ; 1499575.7975725317 ; 1.0318786010287402E7 ; 0.0
91 ; 21387.804777515965 ; 168424.41058932024 ; 1520837.505679331 ; 1.0485766857521204E7 ; 0.0
92 ; 21232.920297746336 ; 169870.3429003015 ; 1542225.310456847 ; 1.0654191268110525E7 ; 0.0
93 ; 21156.57445795907 ; 171318.47546680528 ; 1563458.2307545934 ; 1.0824061611010827E7 ; 0.0
94 ; 21114.69478009875 ; 172768.64406877322 ; 1584614.8052125524 ; 1.0995380086477632E7 ; 0.0
95 ; 21095.146499586022 ; 174220.6888080548 ; 1605729.4999926512 ; 1.1168148730546406E7 ; 0.0
96 ; 21132.40685711561 ; 175674.45395608398 ; 1626824.6464922372 ; 1.1342369419354461E7 ; 0.0
97 ; 20968.720058630977 ; 177129.78780705173 ; 1647957.053349353 ; 1.1518043873310545E7 ; 0.0
98 ; 20798.666038160816 ; 178586.54253641862 ; 1668925.7734079838 ; 1.1695173661117597E7 ; 0.0
99 ; 20757.571900381503 ; 180044.57406460773 ; 1689724.4394461447 ; 1.1873760203654015E7 ; 0.0
100 ; 20689.58738755245 ; 181503.7419257194 ; 1710482.0113465262 ; 1.2053804777718622E7 ; 0.0
101 ; 20635.858372294766 ; 182963.9091411092 ; 1731171.5987340787 ; 1.2235308519644342E7 ; 0.0
102 ; 20580.19095389003 ; 184424.94209767136 ; 1751807.4571063735 ; 1.241827242878545E7 ; 0.0
103 ; 20507.057351390613 ; 185886.71043067143 ; 1772387.6480602636 ; 1.2602697370883122E7 ; 0.0
104 ; 20437.48072839717 ; 187349.086910975 ; 1792894.7054116542 ; 1.2788584081313793E7 ; 0.0
105 ; 20167.55121449703 ; 188811.9473365197 ; 1813332.1861400513 ; 1.2975933168224767E7 ; 0.0
106 ; 20015.96691382988 ; 190275.17042788368 ; 1833499.7373545484 ; 1.3164745115561286E7 ; 0.0
107 ; 19961.55208073585 ; 191738.63772780323 ; 1853515.7042683782 ; 1.3355020285989169E7 ; 0.0
108 ; 19945.680616659574 ; 193202.23350449858 ; 1873477.256349114 ; 1.3546758923716972E7 ; 0.0
109 ; 19837.63065965954 ; 194665.84465866882 ; 1893422.9369657736 ; 1.373996115722147E7 ; 0.0
110 ; 19615.419317667147 ; 196129.36063402065 ; 1913260.5676254332 ; 1.393462700188014E7 ; 0.0
111 ; 19506.160321717172 ; 197592.67333120038 ; 1932875.9869431003 ; 1.413075636251416E7 ; 0.0
112 ; 19345.310418762096 ; 199055.6770250011 ; 1952382.1472648175 ; 1.4328349035845362E7 ; 0.0
113 ; 19135.112404824577 ; 200518.26828472113 ; 1971727.4576835795 ; 1.4527404712870363E7 ; 0.0
114 ; 19096.46586223301 ; 201980.34589755515 ; 1990862.570088404 ; 1.4727922981155084E7 ; 0.0
115 ; 18890.3873254366 ; 203441.81079490067 ; 2009959.035950637 ; 1.492990332705264E7 ; 0.0
116 ; 18713.52261344752 ; 204902.565981469 ; 2028849.4232760735 ; 1.513334513784754E7 ; 0.0
117 ; 18656.91644633949 ; 206362.5164670914 ; 2047562.9458895212 ; 1.533824770382901E7 ; 0.0
118 ; 18389.357915789147 ; 207821.5692011167 ; 2066219.8623358607 ; 1.55446102202961E7 ; 0.0
119 ; 18160.248933845884 ; 209279.6330092991 ; 2084609.2202516499 ; 1.5752431789497217E7 ; 0.0
120 ; 18003.643764220567 ; 210736.6185330787 ; 2102769.4691854957 ; 1.5961711422506517E7 ; 0.0
121 ; 17959.423919642468 ; 212192.43817116195 ; 2120773.1129497164 ; 1.6172448041039595E7 ; 0.0
122 ; 17695.287840704776 ; 213647.00602331094 ; 2138732.5368693587 ; 1.6384640479210757E7 ; 0.0
123 ; 17546.291346642345 ; 215100.23783625453 ; 2156427.8247100636 ; 1.6598287485234067E7 ; 0.0
124 ; 17300.316557650316 ; 216552.0509516393 ; 2173974.116056706 ; 1.681338772307032E7 ; 0.0
125 ; 17008.32857292413 ; 218002.3642559374 ; 2191274.4326143563 ; 1.702993977402196E7 ; 0.0
126 ; 16766.478042119455 ; 219451.09813223648 ; 2208282.7611872805 ; 1.72479421382779E7 ; 0.0
127 ; 16771.82116337888 ; 220898.17441383586 ; 2225049.2392294 ; 1.7467393236410137E7 ; 0.0
128 ; 16468.81890528705 ; 222343.5163395782 ; 2241821.060392779 ; 1.7688291410823975E7 ; 0.0
129 ; 16216.427537426582 ; 223787.04851084793 ; 2258289.879298066 ; 1.7910634927163552E7 ; 0.0
130 ; 15891.331291738803 ; 225228.69685017026 ; 2274506.306835492 ; 1.8134421975674402E7 ; 0.0
131 ; 15628.5062754737 ; 226668.38856134858 ; 2290397.638127231 ; 1.835965067252457E7 ; 0.0
132 ; 15326.137211490215 ; 228106.0520910778 ; 2306026.1444027047 ; 1.858631906108592E7 ; 0.0
133 ; 15218.302975626306 ; 229541.61709197756 ; 2321352.281614195 ; 1.8814425113176998E7 ; 0.0
134 ; 15121.46805558921 ; 230975.01438698682 ; 2336570.5845898213 ; 1.9043966730268974E7 ; 0.0
135 ; 14696.99405402227 ; 232406.17593506892 ; 2351692.0526454104 ; 1.927494174465596E7 ; 0.0
136 ; 14316.320958692366 ; 233835.03479817312 ; 2366389.0466994327 ; 1.9507347920591027E7 ; 0.0
137 ; 14250.794278144635 ; 235261.5251094046 ; 2380705.3676581252 ; 1.9741182955389198E7 ; 0.0
138 ; 13864.395933904047 ; 236685.58204235582 ; 2394956.16193627 ; 1.99764444804986E7 ; 0.0
139 ; 13615.482341608726 ; 238107.14178155226 ; 2408820.5578701743 ; 2.0213130062540956E7 ; 0.0
140 ; 13485.115370430947 ; 239526.1414939706 ; 2422436.040211783 ; 2.045123720432251E7 ; 0.0
141 ; 13114.417491095037 ; 240942.5193015862 ; 2435921.155582214 ; 2.069076334581648E7 ; 0.0
142 ; 12799.903414014438 ; 242356.21425491094 ; 2449035.573073309 ; 2.0931705865118068E7 ; 0.0
143 ; 12494.002048758302 ; 243767.16630748168 ; 2461835.476487323 ; 2.117406207937298E7 ; 0.0
144 ; 12300.387635263272 ; 245175.31629126373 ; 2474329.4785360815 ; 2.1417829245680463E7 ; 0.0
145 ; 12088.037429936896 ; 246580.60589293268 ; 2486629.8661713446 ; 2.1663004561971728E7 ; 0.0
146 ; 12158.455716844837 ; 247982.97763100176 ; 2498717.9036012813 ; 2.190958516786466E7 ; 0.0
147 ; 12087.290702274606 ; 249382.37483376137 ; 2510876.359318126 ; 2.2157568145495664E7 ; 0.0
148 ; 11969.253323962334 ; 250778.74161799997 ; 2522963.6500204005 ; 2.2406950520329427E7 ; 0.0
149 ; 11972.089539288692 ; 252172.02286847652 ; 2534932.903344363 ; 2.2657729261947427E7 ; 0.0
150 ; 11779.715063543581 ; 253562.16421811463 ; 2546904.9928836515 ; 2.2909901284815904E7 ; 0.0
151 ; 11666.316125023573 ; 254949.11202889314 ; 2558684.707947195 ; 2.3163463449034017E7 ; 0.0
152 ; 11584.384386773927 ; 256332.8133734038 ; 2570351.0240722187 ; 2.341841256106291E7 ; 0.0
153 ; 11448.190712794038 ; 257713.21601705294 ; 2581935.408458993 ; 2.3674745374436315E7 ; 0.0
154 ; 11400.637635952608 ; 259090.26840088237 ; 2593383.599171787 ; 2.3932458590453368E7 ; 0.0
155 ; 11166.280129692159 ; 260463.91962498482 ; 2604784.23680774 ; 2.419154885885425E7 ; 0.0
156 ; 11143.89718854884 ; 261834.11943249358 ; 2615950.516937432 ; 2.4452012778479233E7 ; 0.0
157 ; 10919.509199374495 ; 263200.8181941228 ; 2627094.414125981 ; 2.4713846897911727E7 ; 0.0
158 ; 10858.788714975892 ; 264563.96689323994 ; 2638013.923325355 ; 2.497704771610585E7 ; 0.0
159 ; 10875.717476160116 ; 265923.5171114482 ; 2648872.712040331 ; 2.524161168299909E7 ; 0.0
160 ; 10674.84634855259 ; 267279.4210146628 ; 2659748.4295164915 ; 2.5507535200110536E7 ; 0.0
161 ; 10640.633625698985 ; 268631.6313396592 ; 2670423.275865044 ; 2.57748146211252E7 ; 0.0
162 ; 10674.121051644328 ; 269980.1013810799 ; 2681063.909490743 ; 2.6043446252464857E7 ; 0.0
163 ; 10312.037711762512 ; 271324.78497887956 ; 2691738.0305423876 ; 2.6313426353845935E7 ; 0.0
164 ; 10274.675348819026 ; 272665.63650619437 ; 2702050.06825415 ; 2.6584751138824813E7 ; 0.0
165 ; 10053.058006960893 ; 274002.61085761886 ; 2712324.743602969 ; 2.685741677533101E7 ; 0.0
166 ; 10015.600739550373 ; 275335.6634378769 ; 2722377.80160993 ; 2.7131419386188626E7 ; 0.0
167 ; 10048.09062609355 ; 276664.75015087053 ; 2732393.4023494804 ; 2.7406755049626503E7 ; 0.0
168 ; 9846.895231604904 ; 277989.8273890946 ; 2742441.492975574 ; 2.7683419799777374E7 ; 0.0
169 ; 9579.696968597651 ; 279310.85202340304 ; 2752288.388207179 ; 2.796140962716647E7 ; 0.0
170 ; 9725.686452034899 ; 280627.7813931151 ; 2761868.085175777 ; 2.8240720479189873E7 ; 0.0
171 ; 9293.362903612282 ; 281940.57329644775 ; 2771593.7716278117 ; 2.8521348260582987E7 ; 0.0
172 ; 9392.654212218154 ; 283249.1859812643 ; 2780887.134531424 ; 2.8803288833879434E7 ; 0.0
173 ; 9328.561119113932 ; 284553.57813612674 ; 2790279.788743642 ; 2.9086538019860696E7 ; 0.0
174 ; 9274.244973882873 ; 285853.70888164203 ; 2799608.349862756 ; 2.9371091597996823E7 ; 0.0
175 ; 9121.785642071878 ; 287149.5377620909 ; 2808882.5948366392 ; 2.9656945306878466E7 ; 0.0
176 ; 9222.3936481613 ; 288441.0247373296 ; 2818004.3804787113 ; 2.9944094844640557E7 ; 0.0
177 ; 9306.1025115489 ; 289728.13017495547 ; 2827226.7741268724 ; 3.0232535869377885E7 ; 0.0
178 ; 9353.973254419745 ; 291010.81484272657 ; 2836532.8766384213 ; 3.0522263999552842E7 ; 0.0
179 ; 9574.822953769031 ; 292289.0399012265 ; 2845886.849892841 ; 3.081327481439557E7 ; 0.0
180 ; 9402.275042520872 ; 293562.7668967661 ; 2855461.67284661 ; 3.1105563854296796E7 ; 0.0
181 ; 9482.50440593131 ; 294831.95775451325 ; 2864863.947889131 ; 3.139912662119356E7 ; 0.0
182 ; 9522.35174498842 ; 296096.57477184414 ; 2874346.452295062 ; 3.1693958578948073E7 ; 0.0
183 ; 9559.821723031133 ; 297356.58061190706 ; 2883868.8040400506 ; 3.1990055153719917E7 ; 0.0
184 ; 9314.455293151492 ; 298611.9382973912 ; 2893428.625763082 ; 3.2287411734331824E7 ; 0.0
185 ; 9413.706889073897 ; 299862.61120449606 ; 2902743.0810562335 ; 3.2586023672629215E7 ; 0.0
186 ; 9473.103663284463 ; 301108.5630570906 ; 2912156.7879453073 ; 3.2885886283833712E7 ; 0.0
187 ; 9597.300824891441 ; 302349.75792105886 ; 2921629.8916085917 ; 3.3186994846890803E7 ; 0.0
188 ; 9498.16350506289 ; 303586.1601988247 ; 2931227.192433483 ; 3.3489344604811862E7 ; 0.0
189 ; 9672.720474459566 ; 304817.7346240489 ; 2940725.355938546 ; 3.3792930765010685E7 ; 0.0
190 ; 9670.575913578561 ; 306044.4462564944 ; 2950398.0764130056 ; 3.4097748499634735E7 ; 0.0
191 ; 9792.572742144126 ; 307266.2604770517 ; 2960068.6523265843 ; 3.440379294589123E7 ; 0.0
192 ; 9698.50613566073 ; 308483.1429829224 ; 2969861.2250687284 ; 3.471105920636828E7 ; 0.0
193 ; 9583.643020134165 ; 309695.0597829511 ; 2979559.731204389 ; 3.5019542349351205E7 ; 0.0
194 ; 9699.763334462674 ; 310901.97719310597 ; 2989143.374224523 ; 3.532923740913416E7 ; 0.0
195 ; 9789.894232138782 ; 312103.8618320987 ; 2998843.137558986 ; 3.564013938632727E7 ; 0.0
196 ; 9865.462105071025 ; 313300.6806171406 ; 3008633.031791125 ; 3.5952243248159364E7 ; 0.0
197 ; 9782.772288463459 ; 314492.40075983235 ; 3018498.493896196 ; 3.62655439287765E7 ; 0.0
198 ; 9807.699770141702 ; 315678.9897621795 ; 3028281.2661846597 ; 3.658003632953633E7 ; 0.0
199 ; 9725.123013119155 ; 316860.4154127325 ; 3038088.9659548015 ; 3.689571531929851E7 ; 0.0
200 ; 9826.869220228788 ; 318036.64578284614 ; 3047814.0889679207 ; 3.7212575734711245E7 ; 0.0
201 ; 9822.015652045537 ; 319207.64922305313 ; 3057640.9581881496 ; 3.753061238049409E7 ; 0.0
202 ; 9897.609625793746 ; 320373.3943595517 ; 3067462.973840195 ; 3.784982002971714E7 ; 0.0
203 ; 9877.207841794165 ; 321533.85009079933 ; 3077360.5834659887 ; 3.817019342407669E7 ; 0.0
204 ; 9869.296162309585 ; 322688.985584212 ; 3087237.7913077828 ; 3.849172727416749E7 ; 0.0
205 ; 9869.605613267715 ; 323838.7702729648 ; 3097107.0874700923 ; 3.881441625975171E7 ; 0.0
206 ; 9892.355825743649 ; 324983.1738528904 ; 3106976.69308336 ; 3.913825503002467E7 ; 0.0
207 ; 9957.961120211026 ; 326122.16627947224 ; 3116869.0489091035 ; 3.946323820387756E7 ; 0.0
208 ; 10003.953446109257 ; 327255.71776493033 ; 3126827.0100293146 ; 3.978936037015703E7 ; 0.0
209 ; 10078.12527132404 ; 328383.7987753947 ; 3136830.963475424 ; 4.011661608792196E7 ; 0.0
210 ; 10046.291600509996 ; 329506.3800281666 ; 3146909.088746748 ; 4.044499988669736E7 ; 0.0
211 ; 10159.547444892181 ; 330623.4324890618 ; 3156955.380347258 ; 4.0774506266725525E7 ; 0.0
212 ; 10140.845279598876 ; 331734.9273698354 ; 3167114.92779215 ; 4.1105129699214585E7 ; 0.0
