CSV File for the City 2 on Day 231
1 - Minute m 
2 - Power Consumed at minute m 
3 - Power Produced at minute m 
4 - Energy Consumed since the beginning of the day 
5 - Energy Produced since the beginning of the day 
6 - Energy Lost since the beginning of the day on lines starting from the city
 
0 ; 4691.817635821127 ; 33950.16463500351 ; 0.0 ; 0.0 ; 0.0
1 ; 5286.967030179305 ; 33950.16463500351 ; 4691.817635821127 ; 33950.16463500351 ; 0.0
2 ; 5688.610500359219 ; 33950.16463500351 ; 9978.784666000432 ; 67900.32927000702 ; 0.0
3 ; 6456.613368393327 ; 33950.16463500351 ; 15667.395166359653 ; 101850.49390501052 ; 0.0
4 ; 6809.76666469724 ; 33950.16463500351 ; 22124.00853475298 ; 135800.65854001403 ; 0.0
5 ; 7278.314455275984 ; 33950.16463500351 ; 28933.775199450218 ; 169750.82317501755 ; 0.0
6 ; 7972.78576946839 ; 33950.16463500351 ; 36212.0896547262 ; 203700.98781002106 ; 0.0
7 ; 8466.750353750454 ; 33950.16463500351 ; 44184.87542419459 ; 237651.15244502458 ; 0.0
8 ; 8893.280302301342 ; 33950.16463500351 ; 52651.625777945046 ; 271601.31708002806 ; 0.0
9 ; 9330.120672041643 ; 33950.16463500351 ; 61544.90608024639 ; 305551.48171503155 ; 0.0
10 ; 9800.413270669938 ; 33950.16463500351 ; 70875.02675228803 ; 339501.64635003504 ; 0.0
11 ; 10336.41705846134 ; 33950.16463500351 ; 80675.44002295798 ; 373451.8109850385 ; 0.0
12 ; 10783.882727199665 ; 33950.16463500351 ; 91011.85708141932 ; 407401.975620042 ; 0.0
13 ; 11334.633005606911 ; 33950.16463500351 ; 101795.739808619 ; 441352.1402550455 ; 0.0
14 ; 11736.972335444336 ; 33950.16463500351 ; 113130.3728142259 ; 475302.304890049 ; 0.0
15 ; 12182.144560413133 ; 33950.16463500351 ; 124867.34514967025 ; 509252.46952505247 ; 0.0
16 ; 12675.784052562076 ; 33950.16463500351 ; 137049.48971008338 ; 543202.634160056 ; 0.0
17 ; 13063.356838618796 ; 33950.16463500351 ; 149725.27376264546 ; 577152.7987950596 ; 0.0
18 ; 13446.710433723183 ; 33950.16463500351 ; 162788.63060126425 ; 611102.9634300631 ; 0.0
19 ; 13866.85375129657 ; 33950.16463500351 ; 176235.34103498742 ; 645053.1280650666 ; 0.0
20 ; 14165.584122360953 ; 33950.16463500351 ; 190102.194786284 ; 679003.2927000702 ; 0.0
21 ; 14601.396107712917 ; 33950.16463500351 ; 204267.77890864495 ; 712953.4573350737 ; 0.0
22 ; 15090.081793646998 ; 33950.16463500351 ; 218869.17501635785 ; 746903.6219700773 ; 0.0
23 ; 15450.918152184118 ; 33950.16463500351 ; 233959.25681000485 ; 780853.7866050808 ; 0.0
24 ; 16007.99803928943 ; 33950.16463500351 ; 249410.17496218896 ; 814803.9512400844 ; 0.0
25 ; 16347.778171728494 ; 33950.16463500351 ; 265418.17300147837 ; 848754.1158750879 ; 0.0
26 ; 16767.14085196114 ; 33950.16463500351 ; 281765.95117320685 ; 882704.2805100915 ; 0.0
27 ; 17104.24244431747 ; 33950.16463500351 ; 298533.092025168 ; 916654.445145095 ; 0.0
28 ; 17494.670216098897 ; 33950.16463500351 ; 315637.3344694855 ; 950604.6097800985 ; 0.0
29 ; 17936.313308337096 ; 33950.16463500351 ; 333132.0046855844 ; 984554.7744151021 ; 0.0
30 ; 18353.42406849734 ; 33950.16463500351 ; 351068.3179939215 ; 1018504.9390501056 ; 0.0
31 ; 18558.556068862646 ; 33950.16463500351 ; 369421.74206241884 ; 1052455.1036851092 ; 0.0
32 ; 18714.68310191415 ; 33950.16463500351 ; 387980.2981312815 ; 1086405.2683201127 ; 0.0
33 ; 19021.91038964043 ; 33950.16463500351 ; 406694.98123319563 ; 1120355.4329551163 ; 0.0
34 ; 19539.017007240196 ; 33950.16463500351 ; 425716.89162283606 ; 1154305.5975901198 ; 0.0
35 ; 19759.013964361067 ; 33950.16463500351 ; 445255.9086300763 ; 1188255.7622251234 ; 0.0
36 ; 20128.904065697006 ; 33950.16463500351 ; 465014.9225944373 ; 1222205.926860127 ; 0.0
37 ; 20330.87901843726 ; 33950.16463500351 ; 485143.8266601343 ; 1256156.0914951304 ; 0.0
38 ; 20665.606480197202 ; 33950.16463500351 ; 505474.70567857154 ; 1290106.256130134 ; 0.0
39 ; 20920.437993534033 ; 33950.16463500351 ; 526140.3121587688 ; 1324056.4207651375 ; 0.0
40 ; 21441.05605429828 ; 33950.16463500351 ; 547060.7501523028 ; 1358006.585400141 ; 0.0
41 ; 21617.341223154945 ; 33950.16463500351 ; 568501.8062066011 ; 1391956.7500351446 ; 0.0
42 ; 21924.109364538574 ; 33950.16463500351 ; 590119.147429756 ; 1425906.9146701482 ; 0.0
43 ; 22214.757295910797 ; 33950.16463500351 ; 612043.2567942946 ; 1459857.0793051517 ; 0.0
44 ; 22538.678704758815 ; 33950.16463500351 ; 634258.0140902054 ; 1493807.2439401553 ; 0.0
45 ; 22747.901484121543 ; 33950.16463500351 ; 656796.6927949642 ; 1527757.4085751588 ; 0.0
46 ; 22993.950965969256 ; 33950.16463500351 ; 679544.5942790858 ; 1561707.5732101623 ; 0.0
47 ; 23027.986522800602 ; 33950.16463500351 ; 702538.545245055 ; 1595657.737845166 ; 0.0
48 ; 23384.995305466866 ; 33950.16463500351 ; 725566.5317678556 ; 1629607.9024801694 ; 0.0
49 ; 23674.9507388074 ; 33950.16463500351 ; 748951.5270733224 ; 1663558.067115173 ; 0.0
50 ; 23707.782400763903 ; 33950.16463500351 ; 772626.4778121299 ; 1697508.2317501765 ; 0.0
51 ; 24196.509724548658 ; 33950.16463500351 ; 796334.2602128938 ; 1731458.39638518 ; 0.0
52 ; 24366.759214893496 ; 33950.16463500351 ; 820530.7699374425 ; 1765408.5610201836 ; 0.0
53 ; 24571.408477727633 ; 33950.16463500351 ; 844897.529152336 ; 1799358.7256551872 ; 0.0
54 ; 24593.183298484895 ; 33950.16463500351 ; 869468.9376300636 ; 1833308.8902901907 ; 0.0
55 ; 24931.512210698416 ; 33950.16463500351 ; 894062.1209285485 ; 1867259.0549251942 ; 0.0
56 ; 24992.81651053341 ; 33950.16463500351 ; 918993.633139247 ; 1901209.2195601978 ; 0.0
57 ; 25228.056488472215 ; 33950.16463500351 ; 943986.4496497804 ; 1935159.3841952013 ; 0.0
58 ; 25397.35645342143 ; 33950.16463500351 ; 969214.5061382527 ; 1969109.5488302049 ; 0.0
59 ; 25377.678293978126 ; 33950.16463500351 ; 994611.8625916741 ; 2003059.7134652084 ; 0.0
60 ; 25600.421387808517 ; 33950.16463500351 ; 1019989.5408856522 ; 2037009.878100212 ; 0.0
61 ; 25831.87863074092 ; 33950.16463500351 ; 1045589.9622734607 ; 2070960.0427352155 ; 0.0
62 ; 26140.78055056396 ; 33950.16463500351 ; 1071421.8409042016 ; 2104910.207370219 ; 0.0
63 ; 25933.462699524356 ; 33950.16463500351 ; 1097562.6214547656 ; 2138860.3720052224 ; 0.0
64 ; 26220.784194096264 ; 33950.16463500351 ; 1123496.08415429 ; 2172810.536640226 ; 0.0
65 ; 26416.494984839068 ; 33950.16463500351 ; 1149716.8683483861 ; 2206760.7012752295 ; 0.0
66 ; 26617.450298372354 ; 33950.16463500351 ; 1176133.3633332253 ; 2240710.865910233 ; 0.0
67 ; 26724.652075310358 ; 33950.16463500351 ; 1202750.8136315977 ; 2274661.0305452365 ; 0.0
68 ; 26649.260217299234 ; 33950.16463500351 ; 1229475.4657069081 ; 2308611.19518024 ; 0.0
69 ; 26930.48795825824 ; 33950.16463500351 ; 1256124.7259242074 ; 2342561.3598152436 ; 0.0
70 ; 26834.036209503025 ; 33950.16463500351 ; 1283055.2138824656 ; 2376511.524450247 ; 0.0
71 ; 26877.481199075453 ; 33950.16463500351 ; 1309889.2500919686 ; 2410461.6890852507 ; 0.0
72 ; 26971.810571131293 ; 33950.16463500351 ; 1336766.731291044 ; 2444411.8537202543 ; 0.0
73 ; 27221.887690612806 ; 33950.16463500351 ; 1363738.5418621753 ; 2478362.018355258 ; 0.0
74 ; 27139.449888099218 ; 33950.16463500351 ; 1390960.4295527881 ; 2512312.1829902614 ; 0.0
75 ; 27256.938360588396 ; 33950.16463500351 ; 1418099.8794408874 ; 2546262.347625265 ; 0.0
76 ; 27153.428189137892 ; 33950.16463500351 ; 1445356.8178014758 ; 2580212.5122602684 ; 0.0
77 ; 27359.093949925224 ; 33950.16463500351 ; 1472510.2459906137 ; 2614162.676895272 ; 0.0
78 ; 27372.619517785068 ; 33950.16463500351 ; 1499869.3399405389 ; 2648112.8415302755 ; 0.0
79 ; 27355.179260916055 ; 33950.16463500351 ; 1527241.959458324 ; 2682063.006165279 ; 0.0
80 ; 27428.731831024623 ; 33950.16463500351 ; 1554597.13871924 ; 2716013.1708002826 ; 0.0
81 ; 27486.281535775044 ; 33950.16463500351 ; 1582025.8705502646 ; 2749963.335435286 ; 0.0
82 ; 27562.06844918493 ; 33950.16463500351 ; 1609512.1520860395 ; 2783913.5000702897 ; 0.0
83 ; 27455.31102371198 ; 33950.16463500351 ; 1637074.2205352245 ; 2817863.6647052933 ; 0.0
84 ; 27487.07810292246 ; 33950.16463500351 ; 1664529.5315589365 ; 2851813.829340297 ; 0.0
85 ; 27578.819880738818 ; 33950.16463500351 ; 1692016.609661859 ; 2885763.9939753003 ; 0.0
86 ; 27455.14650273012 ; 33950.16463500351 ; 1719595.4295425978 ; 2919714.158610304 ; 0.0
87 ; 27417.275507394435 ; 33950.16463500351 ; 1747050.576045328 ; 2953664.3232453074 ; 0.0
88 ; 27425.157878216003 ; 33950.16463500351 ; 1774467.8515527225 ; 2987614.487880311 ; 0.0
89 ; 27330.439403050113 ; 33950.16463500351 ; 1801893.0094309384 ; 3021564.6525153145 ; 0.0
90 ; 27208.489201661025 ; 33950.16463500351 ; 1829223.4488339885 ; 3055514.817150318 ; 0.0
91 ; 27212.747819920267 ; 33950.16463500351 ; 1856431.9380356495 ; 3089464.9817853216 ; 0.0
92 ; 27219.128436880303 ; 33950.16463500351 ; 1883644.6858555698 ; 3123415.146420325 ; 0.0
93 ; 26993.798386624105 ; 33950.16463500351 ; 1910863.81429245 ; 3157365.3110553287 ; 0.0
94 ; 26921.474602646605 ; 33950.16463500351 ; 1937857.612679074 ; 3191315.4756903322 ; 0.0
95 ; 27022.37110872355 ; 33950.16463500351 ; 1964779.0872817207 ; 3225265.640325336 ; 0.0
96 ; 26691.886470355454 ; 33950.16463500351 ; 1991801.4583904443 ; 3259215.8049603393 ; 0.0
97 ; 26706.24365497573 ; 33950.16463500351 ; 2018493.3448607998 ; 3293165.969595343 ; 0.0
98 ; 26600.610475633894 ; 33950.16463500351 ; 2045199.5885157755 ; 3327116.1342303464 ; 0.0
99 ; 26564.773066612106 ; 33950.16463500351 ; 2071800.1989914095 ; 3361066.29886535 ; 0.0
100 ; 26433.609658467216 ; 33950.16463500351 ; 2098364.9720580215 ; 3395016.4635003535 ; 0.0
101 ; 26247.91712981458 ; 33950.16463500351 ; 2124798.5817164886 ; 3428966.628135357 ; 0.0
102 ; 26293.416833662053 ; 33950.16463500351 ; 2151046.498846303 ; 3462916.7927703606 ; 0.0
103 ; 26025.65234745604 ; 33950.16463500351 ; 2177339.915679965 ; 3496866.957405364 ; 0.0
104 ; 25980.186010342222 ; 33950.16463500351 ; 2203365.5680274214 ; 3530817.1220403677 ; 0.0
105 ; 25702.43747085214 ; 33950.16463500351 ; 2229345.7540377635 ; 3564767.286675371 ; 0.0
106 ; 25513.969324164143 ; 33950.16463500351 ; 2255048.1915086154 ; 3598717.451310375 ; 0.0
107 ; 25570.784976388637 ; 33950.16463500351 ; 2280562.1608327795 ; 3632667.6159453783 ; 0.0
108 ; 25333.110298476142 ; 33950.16463500351 ; 2306132.9458091683 ; 3666617.780580382 ; 0.0
109 ; 24960.182329902975 ; 33950.16463500351 ; 2331466.0561076445 ; 3700567.9452153854 ; 0.0
110 ; 25046.338705630827 ; 33950.16463500351 ; 2356426.2384375473 ; 3734518.109850389 ; 0.0
111 ; 24722.58126738458 ; 33950.16463500351 ; 2381472.5771431783 ; 3768468.2744853925 ; 0.0
112 ; 24456.355840338783 ; 33950.16463500351 ; 2406195.158410563 ; 3802418.439120396 ; 0.0
113 ; 24469.711450163337 ; 33950.16463500351 ; 2430651.514250902 ; 3836368.6037553996 ; 0.0
114 ; 24036.200023556397 ; 33950.16463500351 ; 2455121.2257010653 ; 3870318.768390403 ; 0.0
115 ; 23814.322965658903 ; 33950.16463500351 ; 2479157.425724622 ; 3904268.9330254067 ; 0.0
116 ; 23562.62757074813 ; 33950.16463500351 ; 2502971.7486902806 ; 3938219.09766041 ; 0.0
117 ; 23341.6045834696 ; 33950.16463500351 ; 2526534.376261029 ; 3972169.2622954138 ; 0.0
118 ; 23175.891964803912 ; 33950.16463500351 ; 2549875.9808444986 ; 4006119.4269304173 ; 0.0
119 ; 23057.928557814652 ; 33950.16463500351 ; 2573051.8728093025 ; 4040069.591565421 ; 0.0
120 ; 22700.268832881848 ; 33950.16463500351 ; 2596109.801367117 ; 4074019.7562004244 ; 0.0
121 ; 22338.440514692647 ; 33950.16463500351 ; 2618810.070199999 ; 4107969.920835428 ; 0.0
122 ; 22255.68282740762 ; 33950.16463500351 ; 2641148.5107146916 ; 4141920.0854704315 ; 0.0
123 ; 21913.531022459567 ; 33950.16463500351 ; 2663404.193542099 ; 4175870.250105435 ; 0.0
124 ; 21725.929421014313 ; 33950.16463500351 ; 2685317.724564559 ; 4209820.414740439 ; 0.0
125 ; 21247.314620650155 ; 33950.16463500351 ; 2707043.653985573 ; 4243770.579375442 ; 0.0
126 ; 21170.94394270729 ; 33950.16463500351 ; 2728290.9686062234 ; 4277720.744010446 ; 0.0
127 ; 20707.34477749109 ; 33950.16463500351 ; 2749461.912548931 ; 4311670.908645449 ; 0.0
128 ; 20578.27743381162 ; 33950.16463500351 ; 2770169.257326422 ; 4345621.073280453 ; 0.0
129 ; 19930.182001838646 ; 33950.16463500351 ; 2790747.5347602335 ; 4379571.237915456 ; 0.0
130 ; 20080.34473495975 ; 33950.16463500351 ; 2810677.716762072 ; 4413521.40255046 ; 0.0
131 ; 19406.000388058746 ; 33950.16463500351 ; 2830758.0614970317 ; 4447471.567185463 ; 0.0
132 ; 19058.570092061087 ; 33950.16463500351 ; 2850164.0618850905 ; 4481421.731820467 ; 0.0
133 ; 18889.474678048555 ; 33950.16463500351 ; 2869222.6319771516 ; 4515371.8964554705 ; 0.0
134 ; 18456.699605130892 ; 33950.16463500351 ; 2888112.1066552 ; 4549322.061090474 ; 0.0
135 ; 18106.82138557051 ; 33950.16463500351 ; 2906568.806260331 ; 4583272.225725478 ; 0.0
136 ; 17826.409867498667 ; 33950.16463500351 ; 2924675.6276459014 ; 4617222.390360481 ; 0.0
137 ; 17499.59939855693 ; 33950.16463500351 ; 2942502.0375134 ; 4651172.554995485 ; 0.0
138 ; 17305.18465785494 ; 33950.16463500351 ; 2960001.636911957 ; 4685122.719630488 ; 0.0
139 ; 16727.48335595512 ; 33950.16463500351 ; 2977306.821569812 ; 4719072.884265492 ; 0.0
140 ; 16254.781118525787 ; 33950.16463500351 ; 2994034.3049257672 ; 4753023.048900495 ; 0.0
141 ; 15799.323240940023 ; 33950.16463500351 ; 3010289.086044293 ; 4786973.213535499 ; 0.0
142 ; 15400.383017455086 ; 33950.16463500351 ; 3026088.409285233 ; 4820923.378170502 ; 0.0
143 ; 15307.397295305804 ; 33950.16463500351 ; 3041488.792302688 ; 4854873.542805506 ; 0.0
144 ; 14640.514354552424 ; 33950.16463500351 ; 3056796.189597994 ; 4888823.707440509 ; 0.0
145 ; 14519.35624198539 ; 33950.16463500351 ; 3071436.7039525467 ; 4922773.872075513 ; 0.0
146 ; 14537.835033722 ; 33950.16463500351 ; 3085956.060194532 ; 4956724.036710517 ; 0.0
147 ; 14386.546543177925 ; 33950.16463500351 ; 3100493.895228254 ; 4990674.20134552 ; 0.0
148 ; 14286.23642390194 ; 33950.16463500351 ; 3114880.4417714323 ; 5024624.365980524 ; 0.0
149 ; 14168.116900823119 ; 33950.16463500351 ; 3129166.678195334 ; 5058574.530615527 ; 0.0
150 ; 14263.19726532913 ; 33950.16463500351 ; 3143334.795096157 ; 5092524.695250531 ; 0.0
151 ; 13913.140871266518 ; 33950.16463500351 ; 3157597.9923614864 ; 5126474.859885534 ; 0.0
152 ; 13913.636419616409 ; 33950.16463500351 ; 3171511.133232753 ; 5160425.024520538 ; 0.0
153 ; 13714.433263104655 ; 33950.16463500351 ; 3185424.7696523694 ; 5194375.189155541 ; 0.0
154 ; 13516.803296710721 ; 33950.16463500351 ; 3199139.2029154743 ; 5228325.353790545 ; 0.0
155 ; 13484.015219407216 ; 33950.16463500351 ; 3212656.006212185 ; 5262275.518425548 ; 0.0
156 ; 13154.802893281572 ; 33950.16463500351 ; 3226140.0214315923 ; 5296225.683060552 ; 0.0
157 ; 13142.438900238414 ; 33950.16463500351 ; 3239294.8243248737 ; 5330175.847695556 ; 0.0
158 ; 12913.249215861046 ; 33950.16463500351 ; 3252437.263225112 ; 5364126.012330559 ; 0.0
159 ; 12855.560781611675 ; 33950.16463500351 ; 3265350.512440973 ; 5398076.176965563 ; 0.0
160 ; 12622.740434503303 ; 33950.16463500351 ; 3278206.0732225846 ; 5432026.341600566 ; 0.0
161 ; 12487.309852431006 ; 33950.16463500351 ; 3290828.8136570877 ; 5465976.50623557 ; 0.0
162 ; 12463.942205177911 ; 33950.16463500351 ; 3303316.123509519 ; 5499926.670870573 ; 0.0
163 ; 12239.354448299335 ; 33950.16463500351 ; 3315780.065714697 ; 5533876.835505577 ; 0.0
164 ; 12239.571578191484 ; 33950.16463500351 ; 3328019.4201629963 ; 5567827.00014058 ; 0.0
165 ; 12071.43741506949 ; 33950.16463500351 ; 3340258.991741188 ; 5601777.164775584 ; 0.0
166 ; 11707.48356280428 ; 33950.16463500351 ; 3352330.4291562573 ; 5635727.329410587 ; 0.0
167 ; 11634.948789799293 ; 33950.16463500351 ; 3364037.9127190616 ; 5669677.494045591 ; 0.0
168 ; 11491.55035179552 ; 33950.16463500351 ; 3375672.8615088607 ; 5703627.6586805945 ; 0.0
169 ; 11211.715859647598 ; 33950.16463500351 ; 3387164.4118606565 ; 5737577.823315598 ; 0.0
170 ; 11191.923357005071 ; 33950.16463500351 ; 3398376.127720304 ; 5771527.987950602 ; 0.0
171 ; 11023.07564827636 ; 33950.16463500351 ; 3409568.051077309 ; 5805478.152585605 ; 0.0
172 ; 10919.847891506239 ; 33950.16463500351 ; 3420591.126725585 ; 5839428.317220609 ; 0.0
173 ; 10614.509181887654 ; 33950.16463500351 ; 3431510.9746170915 ; 5873378.481855612 ; 0.0
174 ; 10817.394588798357 ; 33950.16463500351 ; 3442125.4837989793 ; 5907328.646490616 ; 0.0
175 ; 10791.090895461059 ; 33950.16463500351 ; 3452942.8783877776 ; 5941278.811125619 ; 0.0
176 ; 10645.521987612487 ; 33950.16463500351 ; 3463733.9692832385 ; 5975228.975760623 ; 0.0
177 ; 10819.269477945338 ; 33950.16463500351 ; 3474379.491270851 ; 6009179.140395626 ; 0.0
178 ; 10866.395034584271 ; 33950.16463500351 ; 3485198.760748796 ; 6043129.30503063 ; 0.0
179 ; 10954.317926255058 ; 33950.16463500351 ; 3496065.1557833804 ; 6077079.4696656335 ; 0.0
180 ; 10972.747656786025 ; 33950.16463500351 ; 3507019.4737096354 ; 6111029.634300637 ; 0.0
181 ; 10921.859244045902 ; 33950.16463500351 ; 3517992.2213664213 ; 6144979.798935641 ; 0.0
182 ; 10937.810742447433 ; 33950.16463500351 ; 3528914.080610467 ; 6178929.963570644 ; 0.0
183 ; 11085.317191411299 ; 33950.16463500351 ; 3539851.8913529147 ; 6212880.128205648 ; 0.0
184 ; 10996.31784206903 ; 33950.16463500351 ; 3550937.208544326 ; 6246830.292840651 ; 0.0
185 ; 11156.757141586066 ; 33950.16463500351 ; 3561933.526386395 ; 6280780.457475655 ; 0.0
186 ; 11284.065220488063 ; 33950.16463500351 ; 3573090.283527981 ; 6314730.622110658 ; 0.0
187 ; 11117.334293437869 ; 33950.16463500351 ; 3584374.3487484693 ; 6348680.786745662 ; 0.0
188 ; 11171.85481441946 ; 33950.16463500351 ; 3595491.683041907 ; 6382630.951380665 ; 0.0
189 ; 11277.767749241215 ; 33950.16463500351 ; 3606663.5378563264 ; 6416581.116015669 ; 0.0
190 ; 11409.153665026004 ; 33950.16463500351 ; 3617941.3056055675 ; 6450531.2806506725 ; 0.0
191 ; 11334.466458970352 ; 33950.16463500351 ; 3629350.4592705937 ; 6484481.445285676 ; 0.0
192 ; 11238.850964836945 ; 33950.16463500351 ; 3640684.925729564 ; 6518431.60992068 ; 0.0
193 ; 11325.977755861779 ; 33950.16463500351 ; 3651923.7766944007 ; 6552381.774555683 ; 0.0
194 ; 11373.243404423902 ; 33950.16463500351 ; 3663249.7544502625 ; 6586331.939190687 ; 0.0
195 ; 11428.922427358684 ; 33950.16463500351 ; 3674622.9978546863 ; 6620282.10382569 ; 0.0
196 ; 11318.3014636128 ; 33950.16463500351 ; 3686051.920282045 ; 6654232.268460694 ; 0.0
197 ; 11572.91424015178 ; 33950.16463500351 ; 3697370.2217456577 ; 6688182.433095697 ; 0.0
198 ; 11493.76066724721 ; 33950.16463500351 ; 3708943.1359858094 ; 6722132.597730701 ; 0.0
199 ; 11548.62892177172 ; 33950.16463500351 ; 3720436.8966530566 ; 6756082.762365704 ; 0.0
200 ; 11370.87127847295 ; 33950.16463500351 ; 3731985.5255748285 ; 6790032.927000708 ; 0.0
201 ; 11577.411702616148 ; 33950.16463500351 ; 3743356.3968533017 ; 6823983.0916357115 ; 0.0
202 ; 11729.264253542347 ; 33950.16463500351 ; 3754933.808555918 ; 6857933.256270715 ; 0.0
203 ; 11790.596522944707 ; 33950.16463500351 ; 3766663.07280946 ; 6891883.420905719 ; 0.0
204 ; 11600.306963480441 ; 33950.16463500351 ; 3778453.6693324046 ; 6925833.585540722 ; 0.0
205 ; 11709.712675593062 ; 33950.16463500351 ; 3790053.976295885 ; 6959783.750175726 ; 0.0
206 ; 11888.126898978126 ; 33950.16463500351 ; 3801763.688971478 ; 6993733.914810729 ; 0.0
207 ; 11915.48662838374 ; 33950.16463500351 ; 3813651.815870456 ; 7027684.079445733 ; 0.0
208 ; 11925.070001908229 ; 33950.16463500351 ; 3825567.30249884 ; 7061634.244080736 ; 0.0
209 ; 11817.434202240423 ; 33950.16463500351 ; 3837492.372500748 ; 7095584.40871574 ; 0.0
210 ; 11866.883434342235 ; 33950.16463500351 ; 3849309.806702988 ; 7129534.573350743 ; 0.0
211 ; 12017.814661822453 ; 33950.16463500351 ; 3861176.6901373304 ; 7163484.737985747 ; 0.0
212 ; 11869.697635054534 ; 33950.16463500351 ; 3873194.5047991527 ; 7197434.9026207505 ; 0.0
213 ; 12237.209948515976 ; 33950.16463500351 ; 3885064.2024342073 ; 7231385.067255754 ; 0.0
214 ; 12090.364403231943 ; 33950.16463500351 ; 3897301.4123827233 ; 7265335.231890758 ; 0.0
215 ; 12087.21315160764 ; 33950.16463500351 ; 3909391.7767859553 ; 7299285.396525761 ; 0.0
216 ; 12048.196363242949 ; 33950.16463500351 ; 3921478.989937563 ; 7333235.561160765 ; 0.0
