CSV File for the City 2 on Day 223
1 - Minute m 
2 - Power Consumed at minute m 
3 - Power Produced at minute m 
4 - Energy Consumed since the beginning of the day 
5 - Energy Produced since the beginning of the day 
6 - Energy Lost since the beginning of the day on lines starting from the city
 
0 ; 4525.7882896992705 ; 34246.938597628956 ; 0.0 ; 0.0 ; 0.0
1 ; 5217.606336124428 ; 34246.938597628956 ; 4525.7882896992705 ; 34246.938597628956 ; 0.0
2 ; 5755.12187988213 ; 34246.938597628956 ; 9743.394625823697 ; 68493.87719525791 ; 0.0
3 ; 6400.951660279902 ; 34246.938597628956 ; 15498.516505705828 ; 102740.81579288686 ; 0.0
4 ; 6942.760147811516 ; 34246.938597628956 ; 21899.46816598573 ; 136987.75439051582 ; 0.0
5 ; 7424.835766155695 ; 34246.938597628956 ; 28842.228313797248 ; 171234.6929881448 ; 0.0
6 ; 7864.300881885414 ; 34246.938597628956 ; 36267.06407995294 ; 205481.63158577375 ; 0.0
7 ; 8624.223514920674 ; 34246.938597628956 ; 44131.36496183836 ; 239728.5701834027 ; 0.0
8 ; 9217.891575091417 ; 34246.938597628956 ; 52755.58847675903 ; 273975.50878103165 ; 0.0
9 ; 9455.08610872709 ; 34246.938597628956 ; 61973.48005185045 ; 308222.4473786606 ; 0.0
10 ; 9992.18255080049 ; 34246.938597628956 ; 71428.56616057754 ; 342469.3859762896 ; 0.0
11 ; 10625.124647798893 ; 34246.938597628956 ; 81420.74871137802 ; 376716.32457391854 ; 0.0
12 ; 10999.32582333285 ; 34246.938597628956 ; 92045.87335917691 ; 410963.2631715475 ; 0.0
13 ; 11523.460742037521 ; 34246.938597628956 ; 103045.19918250976 ; 445210.20176917646 ; 0.0
14 ; 11946.714335073533 ; 34246.938597628956 ; 114568.65992454729 ; 479457.1403668054 ; 0.0
15 ; 12260.347941176691 ; 34246.938597628956 ; 126515.37425962082 ; 513704.0789644344 ; 0.0
16 ; 12920.198182410688 ; 34246.938597628956 ; 138775.72220079752 ; 547951.0175620633 ; 0.0
17 ; 13466.90785061389 ; 34246.938597628956 ; 151695.9203832082 ; 582197.9561596923 ; 0.0
18 ; 13985.725951650047 ; 34246.938597628956 ; 165162.82823382207 ; 616444.8947573212 ; 0.0
19 ; 14257.08151184139 ; 34246.938597628956 ; 179148.5541854721 ; 650691.8333549502 ; 0.0
20 ; 14798.618437483237 ; 34246.938597628956 ; 193405.6356973135 ; 684938.7719525791 ; 0.0
21 ; 15060.250063159956 ; 34246.938597628956 ; 208204.25413479673 ; 719185.7105502081 ; 0.0
22 ; 15605.784336799468 ; 34246.938597628956 ; 223264.5041979567 ; 753432.6491478371 ; 0.0
23 ; 16033.768025885965 ; 34246.938597628956 ; 238870.28853475617 ; 787679.587745466 ; 0.0
24 ; 16314.227811858436 ; 34246.938597628956 ; 254904.05656064214 ; 821926.526343095 ; 0.0
25 ; 16707.123439756007 ; 34246.938597628956 ; 271218.2843725006 ; 856173.464940724 ; 0.0
26 ; 17164.76113838015 ; 34246.938597628956 ; 287925.4078122566 ; 890420.4035383529 ; 0.0
27 ; 17370.08678367167 ; 34246.938597628956 ; 305090.16895063675 ; 924667.3421359819 ; 0.0
28 ; 17842.80643676716 ; 34246.938597628956 ; 322460.25573430845 ; 958914.2807336109 ; 0.0
29 ; 18370.253414233706 ; 34246.938597628956 ; 340303.0621710756 ; 993161.2193312398 ; 0.0
30 ; 18784.710981803684 ; 34246.938597628956 ; 358673.3155853093 ; 1027408.1579288688 ; 0.0
31 ; 18838.51860356897 ; 34246.938597628956 ; 377458.026567113 ; 1061655.0965264977 ; 0.0
32 ; 19360.245931017045 ; 34246.938597628956 ; 396296.54517068196 ; 1095902.0351241266 ; 0.0
33 ; 19661.86497448022 ; 34246.938597628956 ; 415656.791101699 ; 1130148.9737217554 ; 0.0
34 ; 20040.664118058376 ; 34246.938597628956 ; 435318.65607617924 ; 1164395.9123193843 ; 0.0
35 ; 20259.113445391973 ; 34246.938597628956 ; 455359.32019423763 ; 1198642.8509170131 ; 0.0
36 ; 20630.061875573643 ; 34246.938597628956 ; 475618.4336396296 ; 1232889.789514642 ; 0.0
37 ; 21131.26684811862 ; 34246.938597628956 ; 496248.4955152033 ; 1267136.7281122708 ; 0.0
38 ; 21474.980477540626 ; 34246.938597628956 ; 517379.7623633219 ; 1301383.6667098997 ; 0.0
39 ; 21510.59413725982 ; 34246.938597628956 ; 538854.7428408625 ; 1335630.6053075285 ; 0.0
40 ; 21898.088981432265 ; 34246.938597628956 ; 560365.3369781224 ; 1369877.5439051574 ; 0.0
41 ; 22263.662764747718 ; 34246.938597628956 ; 582263.4259595546 ; 1404124.4825027862 ; 0.0
42 ; 22532.51798048147 ; 34246.938597628956 ; 604527.0887243024 ; 1438371.421100415 ; 0.0
43 ; 22710.16301872341 ; 34246.938597628956 ; 627059.6067047839 ; 1472618.359698044 ; 0.0
44 ; 23026.29466375572 ; 34246.938597628956 ; 649769.7697235072 ; 1506865.2982956728 ; 0.0
45 ; 23376.749788400753 ; 34246.938597628956 ; 672796.0643872629 ; 1541112.2368933016 ; 0.0
46 ; 23377.40391726444 ; 34246.938597628956 ; 696172.8141756636 ; 1575359.1754909304 ; 0.0
47 ; 23968.266840315686 ; 34246.938597628956 ; 719550.2180929281 ; 1609606.1140885593 ; 0.0
48 ; 24026.248405860006 ; 34246.938597628956 ; 743518.4849332437 ; 1643853.0526861881 ; 0.0
49 ; 24299.77838824721 ; 34246.938597628956 ; 767544.7333391038 ; 1678099.991283817 ; 0.0
50 ; 24552.64066096275 ; 34246.938597628956 ; 791844.511727351 ; 1712346.9298814458 ; 0.0
51 ; 24823.54951859102 ; 34246.938597628956 ; 816397.1523883138 ; 1746593.8684790747 ; 0.0
52 ; 24850.316575667184 ; 34246.938597628956 ; 841220.7019069048 ; 1780840.8070767035 ; 0.0
53 ; 25064.401138819252 ; 34246.938597628956 ; 866071.018482572 ; 1815087.7456743324 ; 0.0
54 ; 25367.50399229934 ; 34246.938597628956 ; 891135.4196213913 ; 1849334.6842719612 ; 0.0
55 ; 25647.991328821816 ; 34246.938597628956 ; 916502.9236136907 ; 1883581.62286959 ; 0.0
56 ; 25669.25894062754 ; 34246.938597628956 ; 942150.9149425125 ; 1917828.561467219 ; 0.0
57 ; 26076.145138717704 ; 34246.938597628956 ; 967820.1738831401 ; 1952075.5000648478 ; 0.0
58 ; 25920.260784788334 ; 34246.938597628956 ; 993896.3190218578 ; 1986322.4386624766 ; 0.0
59 ; 26406.811600020024 ; 34246.938597628956 ; 1019816.5798066461 ; 2020569.3772601055 ; 0.0
60 ; 26461.72558211697 ; 34246.938597628956 ; 1046223.3914066661 ; 2054816.3158577343 ; 0.0
61 ; 26338.596331379784 ; 34246.938597628956 ; 1072685.116988783 ; 2089063.2544553631 ; 0.0
62 ; 26738.938447748056 ; 34246.938597628956 ; 1099023.7133201628 ; 2123310.193052992 ; 0.0
63 ; 26765.23117605944 ; 34246.938597628956 ; 1125762.651767911 ; 2157557.131650621 ; 0.0
64 ; 26970.852562199223 ; 34246.938597628956 ; 1152527.8829439704 ; 2191804.07024825 ; 0.0
65 ; 27086.3318940301 ; 34246.938597628956 ; 1179498.7355061695 ; 2226051.0088458788 ; 0.0
66 ; 27150.109755433925 ; 34246.938597628956 ; 1206585.0674001996 ; 2260297.9474435076 ; 0.0
67 ; 27312.944411874567 ; 34246.938597628956 ; 1233735.1771556335 ; 2294544.8860411365 ; 0.0
68 ; 27432.12513986622 ; 34246.938597628956 ; 1261048.121567508 ; 2328791.8246387653 ; 0.0
69 ; 27457.44365985768 ; 34246.938597628956 ; 1288480.2467073742 ; 2363038.763236394 ; 0.0
70 ; 27713.384189713775 ; 34246.938597628956 ; 1315937.6903672318 ; 2397285.701834023 ; 0.0
71 ; 27766.281843001496 ; 34246.938597628956 ; 1343651.0745569456 ; 2431532.640431652 ; 0.0
72 ; 27674.360187070968 ; 34246.938597628956 ; 1371417.356399947 ; 2465779.5790292807 ; 0.0
73 ; 27768.608951628416 ; 34246.938597628956 ; 1399091.716587018 ; 2500026.5176269095 ; 0.0
74 ; 27865.171605498483 ; 34246.938597628956 ; 1426860.3255386464 ; 2534273.4562245384 ; 0.0
75 ; 27904.07826610142 ; 34246.938597628956 ; 1454725.497144145 ; 2568520.394822167 ; 0.0
76 ; 27976.468867225263 ; 34246.938597628956 ; 1482629.5754102464 ; 2602767.333419796 ; 0.0
77 ; 28136.083562070355 ; 34246.938597628956 ; 1510606.0442774717 ; 2637014.272017425 ; 0.0
78 ; 27936.951747638446 ; 34246.938597628956 ; 1538742.127839542 ; 2671261.210615054 ; 0.0
79 ; 28031.630476579092 ; 34246.938597628956 ; 1566679.0795871804 ; 2705508.1492126826 ; 0.0
80 ; 28079.529818141 ; 34246.938597628956 ; 1594710.7100637595 ; 2739755.0878103115 ; 0.0
81 ; 28182.514545873786 ; 34246.938597628956 ; 1622790.2398819004 ; 2774002.0264079403 ; 0.0
82 ; 28122.912020516378 ; 34246.938597628956 ; 1650972.754427774 ; 2808248.965005569 ; 0.0
83 ; 27906.73336104307 ; 34246.938597628956 ; 1679095.6664482905 ; 2842495.903603198 ; 0.0
84 ; 28015.49022306509 ; 34246.938597628956 ; 1707002.3998093335 ; 2876742.842200827 ; 0.0
85 ; 27982.987013220976 ; 34246.938597628956 ; 1735017.8900323985 ; 2910989.7807984557 ; 0.0
86 ; 28011.427288932693 ; 34246.938597628956 ; 1763000.8770456195 ; 2945236.7193960845 ; 0.0
87 ; 28050.041426107746 ; 34246.938597628956 ; 1791012.3043345523 ; 2979483.6579937134 ; 0.0
88 ; 28040.556578018568 ; 34246.938597628956 ; 1819062.34576066 ; 3013730.5965913422 ; 0.0
89 ; 27904.726438473095 ; 34246.938597628956 ; 1847102.9023386785 ; 3047977.535188971 ; 0.0
90 ; 27786.976701777465 ; 34246.938597628956 ; 1875007.6287771515 ; 3082224.4737866 ; 0.0
91 ; 27822.74535975293 ; 34246.938597628956 ; 1902794.605478929 ; 3116471.412384229 ; 0.0
92 ; 27714.442347007905 ; 34246.938597628956 ; 1930617.350838682 ; 3150718.3509818576 ; 0.0
93 ; 27643.34991626808 ; 34246.938597628956 ; 1958331.7931856897 ; 3184965.2895794865 ; 0.0
94 ; 27575.860193685734 ; 34246.938597628956 ; 1985975.1431019579 ; 3219212.2281771153 ; 0.0
95 ; 27598.87118621301 ; 34246.938597628956 ; 2013551.0032956435 ; 3253459.166774744 ; 0.0
96 ; 27445.426693796006 ; 34246.938597628956 ; 2041149.8744818566 ; 3287706.105372373 ; 0.0
97 ; 27406.269826000567 ; 34246.938597628956 ; 2068595.3011756525 ; 3321953.043970002 ; 0.0
98 ; 27249.579157132124 ; 34246.938597628956 ; 2096001.571001653 ; 3356199.9825676307 ; 0.0
99 ; 27112.5367980389 ; 34246.938597628956 ; 2123251.1501587853 ; 3390446.9211652596 ; 0.0
100 ; 26870.323623374337 ; 34246.938597628956 ; 2150363.6869568243 ; 3424693.8597628884 ; 0.0
101 ; 26769.486654218163 ; 34246.938597628956 ; 2177234.010580199 ; 3458940.7983605172 ; 0.0
102 ; 26759.384113412823 ; 34246.938597628956 ; 2204003.497234417 ; 3493187.736958146 ; 0.0
103 ; 26701.611789399554 ; 34246.938597628956 ; 2230762.88134783 ; 3527434.675555775 ; 0.0
104 ; 26454.635127116162 ; 34246.938597628956 ; 2257464.4931372297 ; 3561681.614153404 ; 0.0
105 ; 26335.930083784504 ; 34246.938597628956 ; 2283919.1282643457 ; 3595928.5527510326 ; 0.0
106 ; 26141.030479731806 ; 34246.938597628956 ; 2310255.05834813 ; 3630175.4913486615 ; 0.0
107 ; 25846.514151168372 ; 34246.938597628956 ; 2336396.088827862 ; 3664422.4299462903 ; 0.0
108 ; 25813.96614808953 ; 34246.938597628956 ; 2362242.6029790305 ; 3698669.368543919 ; 0.0
109 ; 25680.579987775185 ; 34246.938597628956 ; 2388056.56912712 ; 3732916.307141548 ; 0.0
110 ; 25482.003147688465 ; 34246.938597628956 ; 2413737.149114895 ; 3767163.245739177 ; 0.0
111 ; 25516.582901248712 ; 34246.938597628956 ; 2439219.152262584 ; 3801410.1843368057 ; 0.0
112 ; 25007.713037044923 ; 34246.938597628956 ; 2464735.7351638325 ; 3835657.1229344346 ; 0.0
113 ; 24945.244503131536 ; 34246.938597628956 ; 2489743.4482008773 ; 3869904.0615320634 ; 0.0
114 ; 24623.1843735662 ; 34246.938597628956 ; 2514688.692704009 ; 3904151.0001296923 ; 0.0
115 ; 24313.353437540816 ; 34246.938597628956 ; 2539311.8770775753 ; 3938397.938727321 ; 0.0
116 ; 24123.218692817194 ; 34246.938597628956 ; 2563625.230515116 ; 3972644.87732495 ; 0.0
117 ; 23849.962356423985 ; 34246.938597628956 ; 2587748.449207933 ; 4006891.815922579 ; 0.0
118 ; 23652.508752300226 ; 34246.938597628956 ; 2611598.411564357 ; 4041138.7545202076 ; 0.0
119 ; 23551.67526135273 ; 34246.938597628956 ; 2635250.9203166575 ; 4075385.6931178365 ; 0.0
120 ; 23123.5196916188 ; 34246.938597628956 ; 2658802.59557801 ; 4109632.6317154653 ; 0.0
121 ; 22878.72276954452 ; 34246.938597628956 ; 2681926.115269629 ; 4143879.570313094 ; 0.0
122 ; 22784.659915814635 ; 34246.938597628956 ; 2704804.8380391733 ; 4178126.508910723 ; 0.0
123 ; 22408.75948420646 ; 34246.938597628956 ; 2727589.497954988 ; 4212373.447508352 ; 0.0
124 ; 22189.979885243116 ; 34246.938597628956 ; 2749998.2574391942 ; 4246620.386105981 ; 0.0
125 ; 21916.30469391978 ; 34246.938597628956 ; 2772188.2373244376 ; 4280867.32470361 ; 0.0
126 ; 21624.756585490893 ; 34246.938597628956 ; 2794104.542018357 ; 4315114.263301238 ; 0.0
127 ; 21184.59455881765 ; 34246.938597628956 ; 2815729.298603848 ; 4349361.201898867 ; 0.0
128 ; 20945.471804866123 ; 34246.938597628956 ; 2836913.893162666 ; 4383608.140496496 ; 0.0
129 ; 20548.035889349936 ; 34246.938597628956 ; 2857859.364967532 ; 4417855.079094125 ; 0.0
130 ; 20092.182736459574 ; 34246.938597628956 ; 2878407.400856882 ; 4452102.017691754 ; 0.0
131 ; 19843.00147691013 ; 34246.938597628956 ; 2898499.5835933415 ; 4486348.956289383 ; 0.0
132 ; 19425.760060701545 ; 34246.938597628956 ; 2918342.5850702515 ; 4520595.8948870115 ; 0.0
133 ; 19124.576732913636 ; 34246.938597628956 ; 2937768.345130953 ; 4554842.83348464 ; 0.0
134 ; 18877.924530895565 ; 34246.938597628956 ; 2956892.9218638665 ; 4589089.772082269 ; 0.0
135 ; 18466.698743203146 ; 34246.938597628956 ; 2975770.846394762 ; 4623336.710679898 ; 0.0
136 ; 18151.286138108968 ; 34246.938597628956 ; 2994237.545137965 ; 4657583.649277527 ; 0.0
137 ; 17697.74324808856 ; 34246.938597628956 ; 3012388.831276074 ; 4691830.587875156 ; 0.0
138 ; 17334.05519289702 ; 34246.938597628956 ; 3030086.574524163 ; 4726077.526472785 ; 0.0
139 ; 16877.962958950753 ; 34246.938597628956 ; 3047420.62971706 ; 4760324.465070413 ; 0.0
140 ; 16653.04849577841 ; 34246.938597628956 ; 3064298.5926760104 ; 4794571.403668042 ; 0.0
141 ; 16131.163782032329 ; 34246.938597628956 ; 3080951.641171789 ; 4828818.342265671 ; 0.0
142 ; 15871.499234430543 ; 34246.938597628956 ; 3097082.804953821 ; 4863065.2808633 ; 0.0
143 ; 15306.888955996628 ; 34246.938597628956 ; 3112954.3041882515 ; 4897312.219460929 ; 0.0
144 ; 14862.153907315505 ; 34246.938597628956 ; 3128261.1931442483 ; 4931559.158058558 ; 0.0
145 ; 15033.328894885315 ; 34246.938597628956 ; 3143123.3470515637 ; 4965806.0966561865 ; 0.0
146 ; 14819.153706065092 ; 34246.938597628956 ; 3158156.675946449 ; 5000053.035253815 ; 0.0
147 ; 14518.03481568374 ; 34246.938597628956 ; 3172975.829652514 ; 5034299.973851444 ; 0.0
148 ; 14576.777817375107 ; 34246.938597628956 ; 3187493.864468198 ; 5068546.912449073 ; 0.0
149 ; 14374.443738346868 ; 34246.938597628956 ; 3202070.642285573 ; 5102793.851046702 ; 0.0
150 ; 14186.024996172322 ; 34246.938597628956 ; 3216445.0860239198 ; 5137040.789644331 ; 0.0
151 ; 13938.056236283723 ; 34246.938597628956 ; 3230631.111020092 ; 5171287.72824196 ; 0.0
152 ; 13952.580988125195 ; 34246.938597628956 ; 3244569.167256376 ; 5205534.666839588 ; 0.0
153 ; 13819.56804434657 ; 34246.938597628956 ; 3258521.748244501 ; 5239781.605437217 ; 0.0
154 ; 13708.499704577687 ; 34246.938597628956 ; 3272341.316288848 ; 5274028.544034846 ; 0.0
155 ; 13602.941565101406 ; 34246.938597628956 ; 3286049.8159934254 ; 5308275.482632475 ; 0.0
156 ; 13452.229466907298 ; 34246.938597628956 ; 3299652.757558527 ; 5342522.421230104 ; 0.0
157 ; 13347.57681218751 ; 34246.938597628956 ; 3313104.987025434 ; 5376769.359827733 ; 0.0
158 ; 13220.363000016387 ; 34246.938597628956 ; 3326452.563837622 ; 5411016.2984253615 ; 0.0
159 ; 12799.473301209937 ; 34246.938597628956 ; 3339672.926837638 ; 5445263.23702299 ; 0.0
160 ; 12833.154994523098 ; 34246.938597628956 ; 3352472.400138848 ; 5479510.175620619 ; 0.0
161 ; 12508.068033840487 ; 34246.938597628956 ; 3365305.555133371 ; 5513757.114218248 ; 0.0
162 ; 12531.14189021723 ; 34246.938597628956 ; 3377813.6231672117 ; 5548004.052815877 ; 0.0
163 ; 12558.438651197393 ; 34246.938597628956 ; 3390344.7650574287 ; 5582250.991413506 ; 0.0
164 ; 12055.317726697042 ; 34246.938597628956 ; 3402903.2037086263 ; 5616497.930011135 ; 0.0
165 ; 12005.188074195445 ; 34246.938597628956 ; 3414958.521435323 ; 5650744.868608763 ; 0.0
166 ; 11917.24621307174 ; 34246.938597628956 ; 3426963.7095095185 ; 5684991.807206392 ; 0.0
167 ; 11795.043310220486 ; 34246.938597628956 ; 3438880.95572259 ; 5719238.745804021 ; 0.0
168 ; 11672.91146801106 ; 34246.938597628956 ; 3450675.9990328103 ; 5753485.68440165 ; 0.0
169 ; 11334.038273047523 ; 34246.938597628956 ; 3462348.910500821 ; 5787732.622999279 ; 0.0
170 ; 11171.845948718015 ; 34246.938597628956 ; 3473682.948773869 ; 5821979.561596908 ; 0.0
171 ; 11046.604686365525 ; 34246.938597628956 ; 3484854.794722587 ; 5856226.5001945365 ; 0.0
172 ; 10867.317512131174 ; 34246.938597628956 ; 3495901.3994089523 ; 5890473.438792165 ; 0.0
173 ; 10665.085899063102 ; 34246.938597628956 ; 3506768.7169210836 ; 5924720.377389794 ; 0.0
174 ; 10761.580264853746 ; 34246.938597628956 ; 3517433.8028201465 ; 5958967.315987423 ; 0.0
175 ; 10804.017066499937 ; 34246.938597628956 ; 3528195.3830850003 ; 5993214.254585052 ; 0.0
176 ; 10783.731899744555 ; 34246.938597628956 ; 3538999.4001515005 ; 6027461.193182681 ; 0.0
177 ; 10992.614836419947 ; 34246.938597628956 ; 3549783.132051245 ; 6061708.13178031 ; 0.0
178 ; 10841.996740538156 ; 34246.938597628956 ; 3560775.746887665 ; 6095955.070377938 ; 0.0
179 ; 10809.286286359873 ; 34246.938597628956 ; 3571617.743628203 ; 6130202.008975567 ; 0.0
180 ; 11042.094276406597 ; 34246.938597628956 ; 3582427.0299145626 ; 6164448.947573196 ; 0.0
181 ; 10927.492177608467 ; 34246.938597628956 ; 3593469.1241909694 ; 6198695.886170825 ; 0.0
182 ; 10964.728840300035 ; 34246.938597628956 ; 3604396.616368578 ; 6232942.824768454 ; 0.0
183 ; 11212.492693164097 ; 34246.938597628956 ; 3615361.3452088777 ; 6267189.763366083 ; 0.0
184 ; 11069.012449005375 ; 34246.938597628956 ; 3626573.8379020416 ; 6301436.7019637115 ; 0.0
185 ; 11233.383047365178 ; 34246.938597628956 ; 3637642.850351047 ; 6335683.64056134 ; 0.0
186 ; 11218.259452083475 ; 34246.938597628956 ; 3648876.233398412 ; 6369930.579158969 ; 0.0
187 ; 11199.887362233783 ; 34246.938597628956 ; 3660094.4928504955 ; 6404177.517756598 ; 0.0
188 ; 11225.702830469485 ; 34246.938597628956 ; 3671294.3802127293 ; 6438424.456354227 ; 0.0
189 ; 11352.725697744276 ; 34246.938597628956 ; 3682520.083043199 ; 6472671.394951856 ; 0.0
190 ; 11313.85352326931 ; 34246.938597628956 ; 3693872.808740943 ; 6506918.333549485 ; 0.0
191 ; 11345.094044866102 ; 34246.938597628956 ; 3705186.6622642125 ; 6541165.272147113 ; 0.0
192 ; 11233.310625216454 ; 34246.938597628956 ; 3716531.7563090785 ; 6575412.210744742 ; 0.0
193 ; 11278.064699732871 ; 34246.938597628956 ; 3727765.066934295 ; 6609659.149342371 ; 0.0
194 ; 11388.61020600437 ; 34246.938597628956 ; 3739043.1316340277 ; 6643906.08794 ; 0.0
195 ; 11338.872200279318 ; 34246.938597628956 ; 3750431.741840032 ; 6678153.026537629 ; 0.0
196 ; 11420.96266830223 ; 34246.938597628956 ; 3761770.6140403114 ; 6712399.965135258 ; 0.0
197 ; 11547.824855846438 ; 34246.938597628956 ; 3773191.5767086134 ; 6746646.903732887 ; 0.0
198 ; 11656.670377957824 ; 34246.938597628956 ; 3784739.40156446 ; 6780893.842330515 ; 0.0
199 ; 11638.317201804231 ; 34246.938597628956 ; 3796396.0719424174 ; 6815140.780928144 ; 0.0
200 ; 11676.888892332252 ; 34246.938597628956 ; 3808034.389144222 ; 6849387.719525773 ; 0.0
201 ; 11635.044502613218 ; 34246.938597628956 ; 3819711.278036554 ; 6883634.658123402 ; 0.0
202 ; 11781.94557373209 ; 34246.938597628956 ; 3831346.322539167 ; 6917881.596721031 ; 0.0
203 ; 11767.180161735276 ; 34246.938597628956 ; 3843128.2681128993 ; 6952128.53531866 ; 0.0
204 ; 11816.401633267564 ; 34246.938597628956 ; 3854895.448274635 ; 6986375.473916288 ; 0.0
205 ; 11709.868538055638 ; 34246.938597628956 ; 3866711.8499079025 ; 7020622.412513917 ; 0.0
206 ; 11896.050697978219 ; 34246.938597628956 ; 3878421.718445958 ; 7054869.351111546 ; 0.0
207 ; 11863.682501598181 ; 34246.938597628956 ; 3890317.769143936 ; 7089116.289709175 ; 0.0
208 ; 12053.717619272395 ; 34246.938597628956 ; 3902181.4516455345 ; 7123363.228306804 ; 0.0
209 ; 12167.503759526782 ; 34246.938597628956 ; 3914235.169264807 ; 7157610.166904433 ; 0.0
210 ; 12159.039888437002 ; 34246.938597628956 ; 3926402.6730243335 ; 7191857.105502062 ; 0.0
211 ; 12211.025489540598 ; 34246.938597628956 ; 3938561.7129127705 ; 7226104.04409969 ; 0.0
212 ; 12022.950406427803 ; 34246.938597628956 ; 3950772.738402311 ; 7260350.982697319 ; 0.0
213 ; 12063.164180660133 ; 34246.938597628956 ; 3962795.688808739 ; 7294597.921294948 ; 0.0
214 ; 12151.505284408746 ; 34246.938597628956 ; 3974858.8529893993 ; 7328844.859892577 ; 0.0
