CSV File for the City 2 on Day 187
1 - Minute m 
2 - Power Consumed at minute m 
3 - Power Produced at minute m 
4 - Energy Consumed since the beginning of the day 
5 - Energy Produced since the beginning of the day 
6 - Energy Lost since the beginning of the day on lines starting from the city
 
0 ; 5221.8541565671685 ; 33047.40863964986 ; 0.0 ; 0.0 ; 0.0
1 ; 5787.5899165145265 ; 33047.40863964986 ; 5221.8541565671685 ; 33047.40863964986 ; 0.0
2 ; 6060.665014582962 ; 33047.40863964986 ; 11009.444073081695 ; 66094.81727929972 ; 0.0
3 ; 6733.047368009093 ; 33047.40863964986 ; 17070.109087664656 ; 99142.22591894958 ; 0.0
4 ; 7154.690486688354 ; 33047.40863964986 ; 23803.15645567375 ; 132189.63455859944 ; 0.0
5 ; 7665.43577612507 ; 33047.40863964986 ; 30957.846942362106 ; 165237.0431982493 ; 0.0
6 ; 8232.828220910476 ; 33047.40863964986 ; 38623.28271848718 ; 198284.45183789916 ; 0.0
7 ; 8536.831548664233 ; 33047.40863964986 ; 46856.11093939765 ; 231331.86047754902 ; 0.0
8 ; 9100.98793547111 ; 33047.40863964986 ; 55392.94248806188 ; 264379.2691171989 ; 0.0
9 ; 9587.178671720367 ; 33047.40863964986 ; 64493.93042353299 ; 297426.67775684875 ; 0.0
10 ; 10143.230884170865 ; 33047.40863964986 ; 74081.10909525336 ; 330474.0863964986 ; 0.0
11 ; 10460.221111465133 ; 33047.40863964986 ; 84224.33997942423 ; 363521.49503614847 ; 0.0
12 ; 10967.111392673303 ; 33047.40863964986 ; 94684.56109088936 ; 396568.9036757983 ; 0.0
13 ; 11339.746998004082 ; 33047.40863964986 ; 105651.67248356267 ; 429616.3123154482 ; 0.0
14 ; 11830.531086779849 ; 33047.40863964986 ; 116991.41948156674 ; 462663.72095509805 ; 0.0
15 ; 12178.128042734312 ; 33047.40863964986 ; 128821.9505683466 ; 495711.1295947479 ; 0.0
16 ; 12659.039110661699 ; 33047.40863964986 ; 141000.0786110809 ; 528758.5382343978 ; 0.0
17 ; 12914.472382801127 ; 33047.40863964986 ; 153659.1177217426 ; 561805.9468740476 ; 0.0
18 ; 13596.448161287097 ; 33047.40863964986 ; 166573.59010454372 ; 594853.3555136975 ; 0.0
19 ; 13839.18217494142 ; 33047.40863964986 ; 180170.0382658308 ; 627900.7641533474 ; 0.0
20 ; 14282.882186578721 ; 33047.40863964986 ; 194009.22044077222 ; 660948.1727929972 ; 0.0
21 ; 14688.065972930877 ; 33047.40863964986 ; 208292.10262735095 ; 693995.5814326471 ; 0.0
22 ; 14968.113819342183 ; 33047.40863964986 ; 222980.16860028182 ; 727042.9900722969 ; 0.0
23 ; 15276.942690148077 ; 33047.40863964986 ; 237948.282419624 ; 760090.3987119468 ; 0.0
24 ; 15629.839867573844 ; 33047.40863964986 ; 253225.2251097721 ; 793137.8073515967 ; 0.0
25 ; 16133.615361679987 ; 33047.40863964986 ; 268855.06497734593 ; 826185.2159912465 ; 0.0
26 ; 16385.748523893515 ; 33047.40863964986 ; 284988.6803390259 ; 859232.6246308964 ; 0.0
27 ; 16671.580908800694 ; 33047.40863964986 ; 301374.42886291945 ; 892280.0332705462 ; 0.0
28 ; 17107.78848689551 ; 33047.40863964986 ; 318046.00977172016 ; 925327.4419101961 ; 0.0
29 ; 17564.686234160978 ; 33047.40863964986 ; 335153.79825861566 ; 958374.850549846 ; 0.0
30 ; 17714.820411043038 ; 33047.40863964986 ; 352718.4844927766 ; 991422.2591894958 ; 0.0
31 ; 18165.885918578468 ; 33047.40863964986 ; 370433.3049038197 ; 1024469.6678291457 ; 0.0
32 ; 18460.28740210104 ; 33047.40863964986 ; 388599.1908223982 ; 1057517.0764687955 ; 0.0
33 ; 18762.652655830592 ; 33047.40863964986 ; 407059.4782244992 ; 1090564.4851084454 ; 0.0
34 ; 18982.13687073913 ; 33047.40863964986 ; 425822.1308803298 ; 1123611.8937480953 ; 0.0
35 ; 19365.31317265557 ; 33047.40863964986 ; 444804.2677510689 ; 1156659.3023877451 ; 0.0
36 ; 19578.431357607973 ; 33047.40863964986 ; 464169.5809237245 ; 1189706.711027395 ; 0.0
37 ; 19925.951075958143 ; 33047.40863964986 ; 483748.0122813325 ; 1222754.1196670448 ; 0.0
38 ; 20087.635844586912 ; 33047.40863964986 ; 503673.96335729066 ; 1255801.5283066947 ; 0.0
39 ; 20331.745771323764 ; 33047.40863964986 ; 523761.5992018776 ; 1288848.9369463446 ; 0.0
40 ; 20748.7149449656 ; 33047.40863964986 ; 544093.3449732014 ; 1321896.3455859944 ; 0.0
41 ; 21136.561232302465 ; 33047.40863964986 ; 564842.059918167 ; 1354943.7542256443 ; 0.0
42 ; 21431.481375592164 ; 33047.40863964986 ; 585978.6211504694 ; 1387991.1628652941 ; 0.0
43 ; 21377.423587805533 ; 33047.40863964986 ; 607410.1025260616 ; 1421038.571504944 ; 0.0
44 ; 21686.85937744659 ; 33047.40863964986 ; 628787.5261138671 ; 1454085.9801445939 ; 0.0
45 ; 21937.29622633086 ; 33047.40863964986 ; 650474.3854913136 ; 1487133.3887842437 ; 0.0
46 ; 22258.408709104337 ; 33047.40863964986 ; 672411.6817176444 ; 1520180.7974238936 ; 0.0
47 ; 22473.743272572698 ; 33047.40863964986 ; 694670.0904267487 ; 1553228.2060635434 ; 0.0
48 ; 22630.565734820382 ; 33047.40863964986 ; 717143.8336993214 ; 1586275.6147031933 ; 0.0
49 ; 23057.072015067577 ; 33047.40863964986 ; 739774.3994341418 ; 1619323.0233428432 ; 0.0
50 ; 23051.07348965215 ; 33047.40863964986 ; 762831.4714492094 ; 1652370.431982493 ; 0.0
51 ; 23264.570480666003 ; 33047.40863964986 ; 785882.5449388615 ; 1685417.840622143 ; 0.0
52 ; 23466.1994309757 ; 33047.40863964986 ; 809147.1154195275 ; 1718465.2492617927 ; 0.0
53 ; 23633.085590722483 ; 33047.40863964986 ; 832613.3148505032 ; 1751512.6579014426 ; 0.0
54 ; 23841.791170893022 ; 33047.40863964986 ; 856246.4004412257 ; 1784560.0665410925 ; 0.0
55 ; 23939.490101560405 ; 33047.40863964986 ; 880088.1916121187 ; 1817607.4751807423 ; 0.0
56 ; 24078.07267458413 ; 33047.40863964986 ; 904027.6817136791 ; 1850654.8838203922 ; 0.0
57 ; 24259.745664995873 ; 33047.40863964986 ; 928105.7543882632 ; 1883702.292460042 ; 0.0
58 ; 24384.858376724897 ; 33047.40863964986 ; 952365.5000532591 ; 1916749.701099692 ; 0.0
59 ; 24601.782522049823 ; 33047.40863964986 ; 976750.358429984 ; 1949797.1097393418 ; 0.0
60 ; 24747.73242887162 ; 33047.40863964986 ; 1001352.1409520338 ; 1982844.5183789916 ; 0.0
61 ; 24908.851599228572 ; 33047.40863964986 ; 1026099.8733809055 ; 2015891.9270186415 ; 0.0
62 ; 24877.383352575558 ; 33047.40863964986 ; 1051008.724980134 ; 2048939.3356582914 ; 0.0
63 ; 25051.024447768847 ; 33047.40863964986 ; 1075886.1083327096 ; 2081986.7442979412 ; 0.0
64 ; 25232.221175170303 ; 33047.40863964986 ; 1100937.1327804786 ; 2115034.152937591 ; 0.0
65 ; 25619.87643667363 ; 33047.40863964986 ; 1126169.3539556488 ; 2148081.561577241 ; 0.0
66 ; 25523.00096869953 ; 33047.40863964986 ; 1151789.2303923224 ; 2181128.970216891 ; 0.0
67 ; 25503.938191324796 ; 33047.40863964986 ; 1177312.231361022 ; 2214176.3788565407 ; 0.0
68 ; 25794.641845757393 ; 33047.40863964986 ; 1202816.1695523467 ; 2247223.7874961905 ; 0.0
69 ; 25851.68329920526 ; 33047.40863964986 ; 1228610.811398104 ; 2280271.1961358404 ; 0.0
70 ; 25782.8168336274 ; 33047.40863964986 ; 1254462.4946973093 ; 2313318.6047754902 ; 0.0
71 ; 26054.673354124167 ; 33047.40863964986 ; 1280245.3115309367 ; 2346366.01341514 ; 0.0
72 ; 25991.593283128357 ; 33047.40863964986 ; 1306299.984885061 ; 2379413.42205479 ; 0.0
73 ; 25962.13577434302 ; 33047.40863964986 ; 1332291.5781681894 ; 2412460.83069444 ; 0.0
74 ; 26200.16570126395 ; 33047.40863964986 ; 1358253.7139425324 ; 2445508.2393340897 ; 0.0
75 ; 26166.42994234606 ; 33047.40863964986 ; 1384453.8796437965 ; 2478555.6479737395 ; 0.0
76 ; 26150.626871491455 ; 33047.40863964986 ; 1410620.3095861427 ; 2511603.0566133894 ; 0.0
77 ; 26238.381371727202 ; 33047.40863964986 ; 1436770.9364576342 ; 2544650.4652530393 ; 0.0
78 ; 26412.697145680333 ; 33047.40863964986 ; 1463009.3178293614 ; 2577697.873892689 ; 0.0
79 ; 26310.74399140602 ; 33047.40863964986 ; 1489422.0149750418 ; 2610745.282532339 ; 0.0
80 ; 26207.646700567002 ; 33047.40863964986 ; 1515732.7589664478 ; 2643792.691171989 ; 0.0
81 ; 26364.093243883322 ; 33047.40863964986 ; 1541940.405667015 ; 2676840.0998116387 ; 0.0
82 ; 26424.41702141769 ; 33047.40863964986 ; 1568304.498910898 ; 2709887.5084512886 ; 0.0
83 ; 26403.8568054888 ; 33047.40863964986 ; 1594728.9159323159 ; 2742934.9170909384 ; 0.0
84 ; 26482.634787287432 ; 33047.40863964986 ; 1621132.7727378046 ; 2775982.3257305883 ; 0.0
85 ; 26393.148931436812 ; 33047.40863964986 ; 1647615.407525092 ; 2809029.734370238 ; 0.0
86 ; 26210.6162036167 ; 33047.40863964986 ; 1674008.5564565286 ; 2842077.143009888 ; 0.0
87 ; 26175.376137110223 ; 33047.40863964986 ; 1700219.1726601452 ; 2875124.551649538 ; 0.0
88 ; 26297.729585075496 ; 33047.40863964986 ; 1726394.5487972554 ; 2908171.9602891877 ; 0.0
89 ; 26143.10587345993 ; 33047.40863964986 ; 1752692.278382331 ; 2941219.3689288376 ; 0.0
90 ; 26045.608372685376 ; 33047.40863964986 ; 1778835.3842557909 ; 2974266.7775684875 ; 0.0
91 ; 26088.4124489785 ; 33047.40863964986 ; 1804880.9926284761 ; 3007314.1862081373 ; 0.0
92 ; 26157.520072540097 ; 33047.40863964986 ; 1830969.4050774546 ; 3040361.594847787 ; 0.0
93 ; 25885.402083377223 ; 33047.40863964986 ; 1857126.9251499947 ; 3073409.003487437 ; 0.0
94 ; 25924.876592631754 ; 33047.40863964986 ; 1883012.3272333718 ; 3106456.412127087 ; 0.0
95 ; 25772.53546709325 ; 33047.40863964986 ; 1908937.2038260035 ; 3139503.8207667368 ; 0.0
96 ; 25663.939339110762 ; 33047.40863964986 ; 1934709.7392930968 ; 3172551.2294063866 ; 0.0
97 ; 25650.96602514987 ; 33047.40863964986 ; 1960373.6786322077 ; 3205598.6380460365 ; 0.0
98 ; 25615.093616390688 ; 33047.40863964986 ; 1986024.6446573576 ; 3238646.0466856863 ; 0.0
99 ; 25526.24608131078 ; 33047.40863964986 ; 2011639.7382737482 ; 3271693.455325336 ; 0.0
100 ; 25273.850633564576 ; 33047.40863964986 ; 2037165.984355059 ; 3304740.863964986 ; 0.0
101 ; 25303.863421562375 ; 33047.40863964986 ; 2062439.8349886236 ; 3337788.272604636 ; 0.0
102 ; 25017.533629422727 ; 33047.40863964986 ; 2087743.698410186 ; 3370835.681244286 ; 0.0
103 ; 25029.195657625594 ; 33047.40863964986 ; 2112761.2320396085 ; 3403883.0898839356 ; 0.0
104 ; 24778.315098981093 ; 33047.40863964986 ; 2137790.4276972343 ; 3436930.4985235855 ; 0.0
105 ; 24885.739287199827 ; 33047.40863964986 ; 2162568.742796215 ; 3469977.9071632354 ; 0.0
106 ; 24700.13335061148 ; 33047.40863964986 ; 2187454.482083415 ; 3503025.315802885 ; 0.0
107 ; 24416.609231742706 ; 33047.40863964986 ; 2212154.615434027 ; 3536072.724442535 ; 0.0
108 ; 24327.61467210508 ; 33047.40863964986 ; 2236571.2246657694 ; 3569120.133082185 ; 0.0
109 ; 24086.383954768582 ; 33047.40863964986 ; 2260898.8393378747 ; 3602167.541721835 ; 0.0
110 ; 23922.955894668983 ; 33047.40863964986 ; 2284985.223292643 ; 3635214.9503614847 ; 0.0
111 ; 23723.108494097374 ; 33047.40863964986 ; 2308908.1791873123 ; 3668262.3590011345 ; 0.0
112 ; 23577.57639096465 ; 33047.40863964986 ; 2332631.2876814096 ; 3701309.7676407844 ; 0.0
113 ; 23529.740980451104 ; 33047.40863964986 ; 2356208.864072374 ; 3734357.1762804342 ; 0.0
114 ; 23261.882428493776 ; 33047.40863964986 ; 2379738.605052825 ; 3767404.584920084 ; 0.0
115 ; 23082.11215034187 ; 33047.40863964986 ; 2403000.487481319 ; 3800451.993559734 ; 0.0
116 ; 22762.58869452725 ; 33047.40863964986 ; 2426082.5996316606 ; 3833499.402199384 ; 0.0
117 ; 22462.425861357082 ; 33047.40863964986 ; 2448845.188326188 ; 3866546.8108390337 ; 0.0
118 ; 22226.061504994614 ; 33047.40863964986 ; 2471307.614187545 ; 3899594.2194786835 ; 0.0
119 ; 22071.439720214636 ; 33047.40863964986 ; 2493533.6756925397 ; 3932641.6281183334 ; 0.0
120 ; 21863.99833650969 ; 33047.40863964986 ; 2515605.1154127545 ; 3965689.0367579833 ; 0.0
121 ; 21738.589410306984 ; 33047.40863964986 ; 2537469.1137492643 ; 3998736.445397633 ; 0.0
122 ; 21530.331217073337 ; 33047.40863964986 ; 2559207.703159571 ; 4031783.854037283 ; 0.0
123 ; 20991.896159101307 ; 33047.40863964986 ; 2580738.0343766445 ; 4064831.262676933 ; 0.0
124 ; 20915.60636588331 ; 33047.40863964986 ; 2601729.930535746 ; 4097878.6713165827 ; 0.0
125 ; 20644.172440293223 ; 33047.40863964986 ; 2622645.536901629 ; 4130926.0799562326 ; 0.0
126 ; 20391.26278266885 ; 33047.40863964986 ; 2643289.7093419223 ; 4163973.4885958824 ; 0.0
127 ; 20083.68039332561 ; 33047.40863964986 ; 2663680.972124591 ; 4197020.897235532 ; 0.0
128 ; 19768.132873984046 ; 33047.40863964986 ; 2683764.6525179166 ; 4230068.305875182 ; 0.0
129 ; 19474.238242511812 ; 33047.40863964986 ; 2703532.7853919007 ; 4263115.714514832 ; 0.0
130 ; 19120.03446612331 ; 33047.40863964986 ; 2723007.0236344123 ; 4296163.123154482 ; 0.0
131 ; 18954.487240958286 ; 33047.40863964986 ; 2742127.0581005355 ; 4329210.531794132 ; 0.0
132 ; 18728.42494635951 ; 33047.40863964986 ; 2761081.545341494 ; 4362257.940433782 ; 0.0
133 ; 18375.57046941811 ; 33047.40863964986 ; 2779809.9702878534 ; 4395305.349073431 ; 0.0
134 ; 17970.79948504655 ; 33047.40863964986 ; 2798185.5407572715 ; 4428352.757713081 ; 0.0
135 ; 17765.870486353797 ; 33047.40863964986 ; 2816156.340242318 ; 4461400.166352731 ; 0.0
136 ; 17388.661051582643 ; 33047.40863964986 ; 2833922.210728672 ; 4494447.574992381 ; 0.0
137 ; 17134.75046829218 ; 33047.40863964986 ; 2851310.8717802544 ; 4527494.983632031 ; 0.0
138 ; 16556.325670507886 ; 33047.40863964986 ; 2868445.6222485467 ; 4560542.392271681 ; 0.0
139 ; 16219.616979066406 ; 33047.40863964986 ; 2885001.9479190544 ; 4593589.800911331 ; 0.0
140 ; 15879.967289852342 ; 33047.40863964986 ; 2901221.5648981207 ; 4626637.2095509805 ; 0.0
141 ; 15586.071808608314 ; 33047.40863964986 ; 2917101.532187973 ; 4659684.61819063 ; 0.0
142 ; 15315.195469737771 ; 33047.40863964986 ; 2932687.6039965814 ; 4692732.02683028 ; 0.0
143 ; 14725.891273505169 ; 33047.40863964986 ; 2948002.7994663194 ; 4725779.43546993 ; 0.0
144 ; 14486.178169616802 ; 33047.40863964986 ; 2962728.6907398244 ; 4758826.84410958 ; 0.0
145 ; 14300.791388612311 ; 33047.40863964986 ; 2977214.8689094414 ; 4791874.25274923 ; 0.0
146 ; 14259.868298194577 ; 33047.40863964986 ; 2991515.6602980536 ; 4824921.66138888 ; 0.0
147 ; 14282.298878143669 ; 33047.40863964986 ; 3005775.528596248 ; 4857969.0700285295 ; 0.0
148 ; 14076.08684164313 ; 33047.40863964986 ; 3020057.8274743916 ; 4891016.478668179 ; 0.0
149 ; 13948.587902524065 ; 33047.40863964986 ; 3034133.914316035 ; 4924063.887307829 ; 0.0
150 ; 13773.114501811226 ; 33047.40863964986 ; 3048082.502218559 ; 4957111.295947479 ; 0.0
151 ; 13671.081349732838 ; 33047.40863964986 ; 3061855.61672037 ; 4990158.704587129 ; 0.0
152 ; 13491.252090715127 ; 33047.40863964986 ; 3075526.698070103 ; 5023206.113226779 ; 0.0
153 ; 13263.410985097857 ; 33047.40863964986 ; 3089017.950160818 ; 5056253.521866429 ; 0.0
154 ; 13390.725811199936 ; 33047.40863964986 ; 3102281.361145916 ; 5089300.9305060785 ; 0.0
155 ; 13175.203532975962 ; 33047.40863964986 ; 3115672.0869571157 ; 5122348.339145728 ; 0.0
156 ; 13063.413513548672 ; 33047.40863964986 ; 3128847.290490092 ; 5155395.747785378 ; 0.0
157 ; 13182.196989443071 ; 33047.40863964986 ; 3141910.7040036405 ; 5188443.156425028 ; 0.0
158 ; 12878.643258723456 ; 33047.40863964986 ; 3155092.9009930836 ; 5221490.565064678 ; 0.0
159 ; 12694.253581174744 ; 33047.40863964986 ; 3167971.544251807 ; 5254537.973704328 ; 0.0
160 ; 12538.355867526108 ; 33047.40863964986 ; 3180665.7978329817 ; 5287585.382343978 ; 0.0
161 ; 12434.721226848635 ; 33047.40863964986 ; 3193204.1537005077 ; 5320632.790983628 ; 0.0
162 ; 12242.118982513311 ; 33047.40863964986 ; 3205638.8749273564 ; 5353680.199623277 ; 0.0
163 ; 12134.033261629409 ; 33047.40863964986 ; 3217880.99390987 ; 5386727.608262927 ; 0.0
164 ; 11899.022473964282 ; 33047.40863964986 ; 3230015.027171499 ; 5419775.016902577 ; 0.0
165 ; 11689.119555283847 ; 33047.40863964986 ; 3241914.0496454635 ; 5452822.425542227 ; 0.0
166 ; 11541.66221751511 ; 33047.40863964986 ; 3253603.1692007473 ; 5485869.834181877 ; 0.0
167 ; 11447.51955387439 ; 33047.40863964986 ; 3265144.8314182623 ; 5518917.242821527 ; 0.0
168 ; 11282.078705371645 ; 33047.40863964986 ; 3276592.350972137 ; 5551964.651461177 ; 0.0
169 ; 11295.435221729207 ; 33047.40863964986 ; 3287874.429677509 ; 5585012.060100826 ; 0.0
170 ; 11029.207330570565 ; 33047.40863964986 ; 3299169.864899238 ; 5618059.468740476 ; 0.0
171 ; 10915.50237394534 ; 33047.40863964986 ; 3310199.0722298087 ; 5651106.877380126 ; 0.0
172 ; 10778.419711907161 ; 33047.40863964986 ; 3321114.574603754 ; 5684154.286019776 ; 0.0
173 ; 10359.82451755972 ; 33047.40863964986 ; 3331892.9943156615 ; 5717201.694659426 ; 0.0
174 ; 10730.096476368546 ; 33047.40863964986 ; 3342252.818833221 ; 5750249.103299076 ; 0.0
175 ; 10538.509186251513 ; 33047.40863964986 ; 3352982.91530959 ; 5783296.511938726 ; 0.0
176 ; 10616.79789873537 ; 33047.40863964986 ; 3363521.4244958414 ; 5816343.920578375 ; 0.0
177 ; 10713.289511855688 ; 33047.40863964986 ; 3374138.2223945768 ; 5849391.329218025 ; 0.0
178 ; 10696.967383359442 ; 33047.40863964986 ; 3384851.5119064325 ; 5882438.737857675 ; 0.0
179 ; 10774.917630162157 ; 33047.40863964986 ; 3395548.479289792 ; 5915486.146497325 ; 0.0
180 ; 10832.885481843343 ; 33047.40863964986 ; 3406323.396919954 ; 5948533.555136975 ; 0.0
181 ; 10909.416892182508 ; 33047.40863964986 ; 3417156.2824017974 ; 5981580.963776625 ; 0.0
182 ; 10852.68045500094 ; 33047.40863964986 ; 3428065.69929398 ; 6014628.372416275 ; 0.0
183 ; 10931.251769391254 ; 33047.40863964986 ; 3438918.379748981 ; 6047675.7810559245 ; 0.0
184 ; 11019.79955397395 ; 33047.40863964986 ; 3449849.6315183723 ; 6080723.189695574 ; 0.0
185 ; 10968.37663455363 ; 33047.40863964986 ; 3460869.4310723464 ; 6113770.598335224 ; 0.0
186 ; 11100.058782745353 ; 33047.40863964986 ; 3471837.8077069 ; 6146818.006974874 ; 0.0
187 ; 10925.697140998718 ; 33047.40863964986 ; 3482937.866489645 ; 6179865.415614524 ; 0.0
188 ; 10973.73460131244 ; 33047.40863964986 ; 3493863.5636306438 ; 6212912.824254174 ; 0.0
189 ; 11297.866116015131 ; 33047.40863964986 ; 3504837.298231956 ; 6245960.232893824 ; 0.0
190 ; 11267.516347608238 ; 33047.40863964986 ; 3516135.1643479713 ; 6279007.6415334735 ; 0.0
191 ; 11264.530825953156 ; 33047.40863964986 ; 3527402.6806955794 ; 6312055.050173123 ; 0.0
192 ; 11182.334109894575 ; 33047.40863964986 ; 3538667.2115215324 ; 6345102.458812773 ; 0.0
193 ; 11270.415406465803 ; 33047.40863964986 ; 3549849.545631427 ; 6378149.867452423 ; 0.0
194 ; 11207.910223708357 ; 33047.40863964986 ; 3561119.961037893 ; 6411197.276092073 ; 0.0
195 ; 11194.85429126065 ; 33047.40863964986 ; 3572327.8712616013 ; 6444244.684731723 ; 0.0
196 ; 11339.44341846896 ; 33047.40863964986 ; 3583522.725552862 ; 6477292.093371373 ; 0.0
197 ; 11313.35392583548 ; 33047.40863964986 ; 3594862.168971331 ; 6510339.5020110225 ; 0.0
198 ; 11370.929000434448 ; 33047.40863964986 ; 3606175.522897166 ; 6543386.910650672 ; 0.0
199 ; 11458.741428043735 ; 33047.40863964986 ; 3617546.4518976007 ; 6576434.319290322 ; 0.0
200 ; 11405.75154111912 ; 33047.40863964986 ; 3629005.1933256444 ; 6609481.727929972 ; 0.0
201 ; 11505.516834787717 ; 33047.40863964986 ; 3640410.9448667634 ; 6642529.136569622 ; 0.0
202 ; 11542.691616007782 ; 33047.40863964986 ; 3651916.461701551 ; 6675576.545209272 ; 0.0
203 ; 11661.938018110106 ; 33047.40863964986 ; 3663459.1533175586 ; 6708623.953848922 ; 0.0
204 ; 11572.039116944512 ; 33047.40863964986 ; 3675121.0913356687 ; 6741671.362488572 ; 0.0
205 ; 11611.559594963142 ; 33047.40863964986 ; 3686693.1304526133 ; 6774718.771128221 ; 0.0
206 ; 11619.94595622874 ; 33047.40863964986 ; 3698304.6900475766 ; 6807766.179767871 ; 0.0
207 ; 11539.214771312854 ; 33047.40863964986 ; 3709924.6360038053 ; 6840813.588407521 ; 0.0
208 ; 11718.238163901598 ; 33047.40863964986 ; 3721463.850775118 ; 6873860.997047171 ; 0.0
209 ; 11672.248619525953 ; 33047.40863964986 ; 3733182.0889390195 ; 6906908.405686821 ; 0.0
210 ; 11599.335044230222 ; 33047.40863964986 ; 3744854.3375585456 ; 6939955.814326471 ; 0.0
211 ; 11812.636079775733 ; 33047.40863964986 ; 3756453.672602776 ; 6973003.222966121 ; 0.0
212 ; 11979.480330200362 ; 33047.40863964986 ; 3768266.3086825516 ; 7006050.63160577 ; 0.0
213 ; 11861.872049843356 ; 33047.40863964986 ; 3780245.789012752 ; 7039098.04024542 ; 0.0
214 ; 12001.343805014185 ; 33047.40863964986 ; 3792107.6610625954 ; 7072145.44888507 ; 0.0
215 ; 11989.942360114905 ; 33047.40863964986 ; 3804109.0048676096 ; 7105192.85752472 ; 0.0
216 ; 12013.542000536501 ; 33047.40863964986 ; 3816098.9472277244 ; 7138240.26616437 ; 0.0
