CSV File for the City 1 on Day 150
1 - Minute m 
2 - Power Consumed at minute m 
3 - Power Produced at minute m 
4 - Energy Consumed since the beginning of the day 
5 - Energy Produced since the beginning of the day 
6 - Energy Lost since the beginning of the day on lines starting from the city
 
0 ; 8600.91538566543 ; 5021.229629244379 ; 0.0 ; 0.0 ; 0.0
1 ; 9208.085701166916 ; 5021.229629244379 ; 8600.91538566543 ; 5021.229629244379 ; 238.00000000000003
2 ; 9682.24386630889 ; 5021.229629244379 ; 17809.001086832344 ; 10042.459258488758 ; 476.00000000000006
3 ; 10144.254874756583 ; 5021.229629244379 ; 27491.244953141235 ; 15063.688887733137 ; 714.0000000000001
4 ; 10490.665448763779 ; 5021.229629244379 ; 37635.49982789782 ; 20084.918516977516 ; 952.0000000000001
5 ; 11168.544739940106 ; 5021.229629244379 ; 48126.165276661595 ; 25106.148146221894 ; 1190.0000000000002
6 ; 11479.110956872953 ; 5021.229629244379 ; 59294.710016601704 ; 30127.377775466273 ; 1428.0000000000002
7 ; 11891.665631087926 ; 5021.229629244379 ; 70773.82097347466 ; 35148.60740471065 ; 1666.0000000000002
8 ; 12318.890783228942 ; 5021.229629244379 ; 82665.48660456258 ; 40169.83703395503 ; 1904.0000000000002
9 ; 12678.499856577917 ; 5021.229629244379 ; 94984.37738779152 ; 45191.06666319941 ; 2142.0000000000005
10 ; 13099.968806071283 ; 5021.229629244379 ; 107662.87724436945 ; 50212.29629244379 ; 2380.0000000000005
11 ; 13439.756780075539 ; 5021.229629244379 ; 120762.84605044073 ; 55233.52592168817 ; 2618.0000000000005
12 ; 14048.726377016244 ; 5021.229629244379 ; 134202.60283051626 ; 60254.75555093255 ; 2856.0000000000005
13 ; 14159.801513393224 ; 5021.229629244379 ; 148251.32920753252 ; 65275.985180176925 ; 3094.0000000000005
14 ; 14657.311838382548 ; 5021.229629244379 ; 162411.13072092575 ; 70297.2148094213 ; 3332.0000000000005
15 ; 15116.541320682429 ; 5021.229629244379 ; 177068.44255930829 ; 75318.44443866568 ; 3570.0000000000005
16 ; 15640.008203925589 ; 5021.229629244379 ; 192184.9838799907 ; 80339.67406791006 ; 3808.0000000000005
17 ; 15981.882201063618 ; 5021.229629244379 ; 207824.9920839163 ; 85360.90369715444 ; 4046.0000000000005
18 ; 16286.399242139554 ; 5021.229629244379 ; 223806.87428497992 ; 90382.13332639882 ; 4284.000000000001
19 ; 16598.548496889718 ; 5021.229629244379 ; 240093.27352711948 ; 95403.3629556432 ; 4522.000000000001
20 ; 17056.48186057963 ; 5021.229629244379 ; 256691.8220240092 ; 100424.59258488758 ; 4760.000000000001
21 ; 17266.065084372192 ; 5021.229629244379 ; 273748.3038845888 ; 105445.82221413196 ; 4998.000000000001
22 ; 17706.623748678157 ; 5021.229629244379 ; 291014.368968961 ; 110467.05184337634 ; 5236.000000000001
23 ; 17930.816717999005 ; 5021.229629244379 ; 308720.99271763914 ; 115488.28147262071 ; 5474.000000000001
24 ; 18393.53585946673 ; 5021.229629244379 ; 326651.80943563813 ; 120509.5111018651 ; 5712.000000000001
25 ; 18582.674786281656 ; 5021.229629244379 ; 345045.34529510484 ; 125530.74073110947 ; 5950.000000000001
26 ; 18936.970515755653 ; 5021.229629244379 ; 363628.0200813865 ; 130551.97036035385 ; 6188.000000000001
27 ; 19299.613437688793 ; 5021.229629244379 ; 382564.99059714214 ; 135573.19998959824 ; 6426.000000000001
28 ; 19592.026766046158 ; 5021.229629244379 ; 401864.60403483093 ; 140594.4296188426 ; 6664.000000000001
29 ; 19944.05589107995 ; 5021.229629244379 ; 421456.6308008771 ; 145615.65924808697 ; 6902.000000000001
30 ; 20233.53651377714 ; 5021.229629244379 ; 441400.68669195706 ; 150636.88887733134 ; 7140.000000000001
31 ; 20617.073618915772 ; 5021.229629244379 ; 461634.2232057342 ; 155658.1185065757 ; 7378.000000000001
32 ; 20674.240002221493 ; 5021.229629244379 ; 482251.29682464997 ; 160679.34813582007 ; 7616.000000000001
33 ; 21157.317926998032 ; 5021.229629244379 ; 502925.53682687145 ; 165700.57776506443 ; 7854.000000000001
34 ; 21444.169465492654 ; 5021.229629244379 ; 524082.85475386947 ; 170721.8073943088 ; 8092.000000000001
35 ; 21677.04916345462 ; 5021.229629244379 ; 545527.0242193621 ; 175743.03702355316 ; 8330.000000000002
36 ; 21885.290055193684 ; 5021.229629244379 ; 567204.0733828167 ; 180764.26665279752 ; 8568.000000000002
37 ; 22088.669608249336 ; 5021.229629244379 ; 589089.3634380104 ; 185785.4962820419 ; 8806.000000000002
38 ; 22439.716728810974 ; 5021.229629244379 ; 611178.0330462598 ; 190806.72591128625 ; 9044.000000000002
39 ; 22620.39362465316 ; 5021.229629244379 ; 633617.7497750707 ; 195827.95554053062 ; 9282.000000000002
40 ; 22871.30736099352 ; 5021.229629244379 ; 656238.1433997238 ; 200849.18516977498 ; 9520.000000000002
41 ; 23072.191637092146 ; 5021.229629244379 ; 679109.4507607173 ; 205870.41479901935 ; 9758.000000000002
42 ; 23479.35325065944 ; 5021.229629244379 ; 702181.6423978094 ; 210891.6444282637 ; 9996.000000000002
43 ; 23663.416283108974 ; 5021.229629244379 ; 725660.9956484688 ; 215912.87405750807 ; 10234.000000000002
44 ; 23655.83461767204 ; 5021.229629244379 ; 749324.4119315778 ; 220934.10368675244 ; 10472.000000000002
45 ; 24088.96081460553 ; 5021.229629244379 ; 772980.2465492499 ; 225955.3333159968 ; 10710.000000000002
46 ; 24114.820449694584 ; 5021.229629244379 ; 797069.2073638554 ; 230976.56294524117 ; 10948.000000000002
47 ; 24348.217203117492 ; 5021.229629244379 ; 821184.0278135501 ; 235997.79257448553 ; 11186.000000000002
48 ; 24548.267415850598 ; 5021.229629244379 ; 845532.2450166675 ; 241019.0222037299 ; 11424.000000000002
49 ; 24786.2085308297 ; 5021.229629244379 ; 870080.5124325182 ; 246040.25183297426 ; 11662.000000000002
50 ; 25110.56390038123 ; 5021.229629244379 ; 894866.7209633479 ; 251061.48146221862 ; 11900.000000000002
51 ; 25228.68501089463 ; 5021.229629244379 ; 919977.2848637291 ; 256082.711091463 ; 12138.000000000002
52 ; 25322.183712225054 ; 5021.229629244379 ; 945205.9698746238 ; 261103.94072070735 ; 12376.000000000002
53 ; 25576.221783453093 ; 5021.229629244379 ; 970528.1535868489 ; 266125.1703499517 ; 12614.000000000002
54 ; 25718.42419269702 ; 5021.229629244379 ; 996104.375370302 ; 271146.3999791961 ; 12852.000000000002
55 ; 25773.370407369144 ; 5021.229629244379 ; 1021822.799562999 ; 276167.62960844045 ; 13090.000000000002
56 ; 25898.699326735546 ; 5021.229629244379 ; 1047596.1699703682 ; 281188.8592376848 ; 13328.000000000002
57 ; 25850.914798407146 ; 5021.229629244379 ; 1073494.8692971037 ; 286210.0888669292 ; 13566.000000000002
58 ; 26166.247697726794 ; 5021.229629244379 ; 1099345.7840955108 ; 291231.31849617354 ; 13804.000000000002
59 ; 26308.72165640584 ; 5021.229629244379 ; 1125512.0317932377 ; 296252.5481254179 ; 14042.000000000002
60 ; 26578.124143571014 ; 5021.229629244379 ; 1151820.7534496435 ; 301273.77775466227 ; 14280.000000000002
61 ; 26715.042327760555 ; 5021.229629244379 ; 1178398.8775932146 ; 306295.00738390663 ; 14518.000000000002
62 ; 26843.273249727154 ; 5021.229629244379 ; 1205113.919920975 ; 311316.237013151 ; 14756.000000000002
63 ; 26901.139261685916 ; 5021.229629244379 ; 1231957.1931707023 ; 316337.46664239536 ; 14994.000000000002
64 ; 26821.350143699445 ; 5021.229629244379 ; 1258858.3324323883 ; 321358.6962716397 ; 15232.000000000002
65 ; 27075.239069705865 ; 5021.229629244379 ; 1285679.6825760878 ; 326379.9259008841 ; 15470.000000000002
66 ; 27089.793201584504 ; 5021.229629244379 ; 1312754.9216457936 ; 331401.15553012845 ; 15708.000000000002
67 ; 27122.25905164924 ; 5021.229629244379 ; 1339844.7148473782 ; 336422.3851593728 ; 15946.000000000002
68 ; 27252.71255752447 ; 5021.229629244379 ; 1366966.9738990273 ; 341443.6147886172 ; 16184.000000000002
69 ; 27423.453914751204 ; 5021.229629244379 ; 1394219.6864565518 ; 346464.84441786155 ; 16422.000000000004
70 ; 27506.764597212088 ; 5021.229629244379 ; 1421643.140371303 ; 351486.0740471059 ; 16660.000000000004
71 ; 27550.55457071336 ; 5021.229629244379 ; 1449149.9049685153 ; 356507.3036763503 ; 16898.000000000004
72 ; 27604.876430648634 ; 5021.229629244379 ; 1476700.4595392286 ; 361528.53330559464 ; 17136.000000000004
73 ; 27607.327025731887 ; 5021.229629244379 ; 1504305.3359698772 ; 366549.762934839 ; 17374.000000000004
74 ; 27641.224993444986 ; 5021.229629244379 ; 1531912.662995609 ; 371570.99256408337 ; 17612.000000000004
75 ; 27556.761330853642 ; 5021.229629244379 ; 1559553.887989054 ; 376592.22219332773 ; 17850.000000000004
76 ; 27695.146930521096 ; 5021.229629244379 ; 1587110.6493199077 ; 381613.4518225721 ; 18088.000000000004
77 ; 27667.207801379445 ; 5021.229629244379 ; 1614805.7962504288 ; 386634.68145181646 ; 18326.000000000004
78 ; 27647.69892631045 ; 5021.229629244379 ; 1642473.0040518083 ; 391655.9110810608 ; 18564.000000000004
79 ; 27741.017869116095 ; 5021.229629244379 ; 1670120.7029781188 ; 396677.1407103052 ; 18802.000000000004
80 ; 27715.101158656886 ; 5021.229629244379 ; 1697861.7208472348 ; 401698.37033954955 ; 19040.000000000004
81 ; 27750.33226069287 ; 5021.229629244379 ; 1725576.8220058917 ; 406719.5999687939 ; 19278.000000000004
82 ; 27697.632589908742 ; 5021.229629244379 ; 1753327.1542665847 ; 411740.8295980383 ; 19516.000000000004
83 ; 27602.208812669614 ; 5021.229629244379 ; 1781024.7868564934 ; 416762.05922728265 ; 19754.000000000004
84 ; 27809.214925015127 ; 5021.229629244379 ; 1808626.995669163 ; 421783.288856527 ; 19992.000000000004
85 ; 27796.821987474443 ; 5021.229629244379 ; 1836436.2105941782 ; 426804.5184857714 ; 20230.000000000004
86 ; 27838.08964679402 ; 5021.229629244379 ; 1864233.0325816525 ; 431825.74811501574 ; 20468.000000000004
87 ; 27706.427380840447 ; 5021.229629244379 ; 1892071.1222284464 ; 436846.9777442601 ; 20706.000000000004
88 ; 27674.480276794693 ; 5021.229629244379 ; 1919777.549609287 ; 441868.20737350447 ; 20944.000000000004
89 ; 27565.004885518516 ; 5021.229629244379 ; 1947452.0298860816 ; 446889.43700274883 ; 21182.000000000004
90 ; 27510.919766312894 ; 5021.229629244379 ; 1975017.0347716 ; 451910.6666319932 ; 21420.000000000004
91 ; 27426.71847480675 ; 5021.229629244379 ; 2002527.954537913 ; 456931.89626123756 ; 21658.000000000004
92 ; 27537.144398796398 ; 5021.229629244379 ; 2029954.6730127197 ; 461953.1258904819 ; 21896.000000000004
93 ; 27384.208406383874 ; 5021.229629244379 ; 2057491.817411516 ; 466974.3555197263 ; 22134.000000000004
94 ; 27385.902806158665 ; 5021.229629244379 ; 2084876.0258179 ; 471995.58514897065 ; 22372.000000000004
95 ; 27212.320486136086 ; 5021.229629244379 ; 2112261.9286240586 ; 477016.814778215 ; 22610.000000000004
96 ; 27216.147819651145 ; 5021.229629244379 ; 2139474.249110195 ; 482038.0444074594 ; 22848.000000000004
97 ; 26990.138740357197 ; 5021.229629244379 ; 2166690.396929846 ; 487059.27403670375 ; 23086.000000000004
98 ; 26891.97459679318 ; 5021.229629244379 ; 2193680.535670203 ; 492080.5036659481 ; 23324.000000000004
99 ; 27041.492973211723 ; 5021.229629244379 ; 2220572.5102669965 ; 497101.7332951925 ; 23562.000000000004
100 ; 26772.09940407057 ; 5021.229629244379 ; 2247614.003240208 ; 502122.96292443684 ; 23800.000000000004
101 ; 26670.734848321295 ; 5021.229629244379 ; 2274386.1026442787 ; 507144.1925536812 ; 24038.000000000004
102 ; 26545.65713723649 ; 5021.229629244379 ; 2301056.8374926 ; 512165.42218292557 ; 24276.000000000004
103 ; 26547.698827461605 ; 5021.229629244379 ; 2327602.4946298366 ; 517186.65181216993 ; 24514.000000000004
104 ; 26309.717461876447 ; 5021.229629244379 ; 2354150.1934572984 ; 522207.8814414143 ; 24752.000000000004
105 ; 26353.964503508483 ; 5021.229629244379 ; 2380459.910919175 ; 527229.1110706587 ; 24990.000000000004
106 ; 26236.11336366883 ; 5021.229629244379 ; 2406813.8754226835 ; 532250.3406999031 ; 25228.000000000004
107 ; 25825.847541312967 ; 5021.229629244379 ; 2433049.9887863523 ; 537271.5703291475 ; 25466.000000000004
108 ; 25720.30674820294 ; 5021.229629244379 ; 2458875.8363276655 ; 542292.7999583919 ; 25704.000000000004
109 ; 25528.950135442232 ; 5021.229629244379 ; 2484596.1430758685 ; 547314.0295876364 ; 25942.000000000004
110 ; 25517.61417141006 ; 5021.229629244379 ; 2510125.093211311 ; 552335.2592168808 ; 26180.000000000004
111 ; 25092.561137206947 ; 5021.229629244379 ; 2535642.707382721 ; 557356.4888461252 ; 26418.000000000004
112 ; 25075.790337279064 ; 5021.229629244379 ; 2560735.2685199277 ; 562377.7184753696 ; 26656.000000000004
113 ; 24792.701082769712 ; 5021.229629244379 ; 2585811.0588572067 ; 567398.948104614 ; 26894.000000000004
114 ; 24781.88918717619 ; 5021.229629244379 ; 2610603.7599399765 ; 572420.1777338585 ; 27132.000000000004
115 ; 24705.973497738843 ; 5021.229629244379 ; 2635385.6491271527 ; 577441.4073631029 ; 27370.000000000004
116 ; 24166.514070732635 ; 5021.229629244379 ; 2660091.622624892 ; 582462.6369923473 ; 27608.000000000004
117 ; 23944.525481928322 ; 5021.229629244379 ; 2684258.1366956243 ; 587483.8666215917 ; 27846.000000000004
118 ; 23880.91184135623 ; 5021.229629244379 ; 2708202.6621775525 ; 592505.0962508362 ; 28084.000000000004
119 ; 23604.3476973812 ; 5021.229629244379 ; 2732083.5740189087 ; 597526.3258800806 ; 28322.000000000004
120 ; 23474.237524232645 ; 5021.229629244379 ; 2755687.92171629 ; 602547.555509325 ; 28560.000000000004
121 ; 23160.535296882368 ; 5021.229629244379 ; 2779162.159240523 ; 607568.7851385694 ; 28798.000000000004
122 ; 22781.883895482184 ; 5021.229629244379 ; 2802322.6945374054 ; 612590.0147678138 ; 29036.000000000004
123 ; 22589.498945902833 ; 5021.229629244379 ; 2825104.578432888 ; 617611.2443970583 ; 29274.000000000004
124 ; 22470.80506588356 ; 5021.229629244379 ; 2847694.077378791 ; 622632.4740263027 ; 29512.000000000004
125 ; 22178.798518628617 ; 5021.229629244379 ; 2870164.8824446746 ; 627653.7036555471 ; 29750.000000000004
126 ; 22018.34800719556 ; 5021.229629244379 ; 2892343.6809633034 ; 632674.9332847915 ; 29988.000000000004
127 ; 21607.109280503035 ; 5021.229629244379 ; 2914362.028970499 ; 637696.162914036 ; 30226.000000000004
128 ; 21334.719026319464 ; 5021.229629244379 ; 2935969.138251002 ; 642717.3925432804 ; 30464.000000000004
129 ; 21198.796344575036 ; 5021.229629244379 ; 2957303.8572773216 ; 647738.6221725248 ; 30702.000000000004
130 ; 20778.21191985349 ; 5021.229629244379 ; 2978502.6536218966 ; 652759.8518017692 ; 30940.000000000004
131 ; 20662.12341515862 ; 5021.229629244379 ; 2999280.86554175 ; 657781.0814310136 ; 31178.000000000004
132 ; 20131.713262929366 ; 5021.229629244379 ; 3019942.9889569087 ; 662802.3110602581 ; 31416.000000000004
133 ; 20119.347100290153 ; 5021.229629244379 ; 3040074.7022198383 ; 667823.5406895025 ; 31654.000000000004
134 ; 19773.455426625245 ; 5021.229629244379 ; 3060194.0493201283 ; 672844.7703187469 ; 31892.000000000004
135 ; 19271.65928614778 ; 5021.229629244379 ; 3079967.5047467537 ; 677865.9999479913 ; 32130.000000000004
136 ; 19097.681658105623 ; 5021.229629244379 ; 3099239.1640329016 ; 682887.2295772358 ; 32368.000000000004
137 ; 18663.145790018767 ; 5021.229629244379 ; 3118336.845691007 ; 687908.4592064802 ; 32606.000000000004
138 ; 18452.486449703327 ; 5021.229629244379 ; 3136999.9914810257 ; 692929.6888357246 ; 32844.00000000001
139 ; 18053.712884636807 ; 5021.229629244379 ; 3155452.477930729 ; 697950.918464969 ; 33082.00000000001
140 ; 17698.920377328155 ; 5021.229629244379 ; 3173506.1908153654 ; 702972.1480942135 ; 33320.00000000001
141 ; 17479.632415095573 ; 5021.229629244379 ; 3191205.1111926935 ; 707993.3777234579 ; 33558.00000000001
142 ; 17051.4801028682 ; 5021.229629244379 ; 3208684.743607789 ; 713014.6073527023 ; 33796.00000000001
143 ; 16686.714966491265 ; 5021.229629244379 ; 3225736.223710657 ; 718035.8369819467 ; 34034.00000000001
144 ; 16400.47663898859 ; 5021.229629244379 ; 3242422.9386771484 ; 723057.0666111911 ; 34272.00000000001
145 ; 16396.781231517776 ; 5021.229629244379 ; 3258823.415316137 ; 728078.2962404356 ; 34510.00000000001
146 ; 16182.395493747103 ; 5021.229629244379 ; 3275220.196547655 ; 733099.52586968 ; 34748.00000000001
147 ; 16023.583249990115 ; 5021.229629244379 ; 3291402.592041402 ; 738120.7554989244 ; 34986.00000000001
148 ; 15949.778645615539 ; 5021.229629244379 ; 3307426.175291392 ; 743141.9851281688 ; 35224.00000000001
149 ; 15778.73481445013 ; 5021.229629244379 ; 3323375.9539370076 ; 748163.2147574133 ; 35462.00000000001
150 ; 15754.994666464947 ; 5021.229629244379 ; 3339154.6887514577 ; 753184.4443866577 ; 35700.00000000001
151 ; 15545.1766777387 ; 5021.229629244379 ; 3354909.683417923 ; 758205.6740159021 ; 35938.00000000001
152 ; 15525.49892575055 ; 5021.229629244379 ; 3370454.8600956616 ; 763226.9036451465 ; 36176.00000000001
153 ; 15295.096158922335 ; 5021.229629244379 ; 3385980.359021412 ; 768248.133274391 ; 36414.00000000001
154 ; 15273.134986604146 ; 5021.229629244379 ; 3401275.4551803344 ; 773269.3629036354 ; 36652.00000000001
155 ; 15140.510377821553 ; 5021.229629244379 ; 3416548.5901669385 ; 778290.5925328798 ; 36890.00000000001
156 ; 15113.006876183757 ; 5021.229629244379 ; 3431689.10054476 ; 783311.8221621242 ; 37128.00000000001
157 ; 14974.471978849693 ; 5021.229629244379 ; 3446802.1074209437 ; 788333.0517913686 ; 37366.00000000001
158 ; 14814.685437410199 ; 5021.229629244379 ; 3461776.5793997934 ; 793354.281420613 ; 37604.00000000001
159 ; 14670.889733060796 ; 5021.229629244379 ; 3476591.2648372035 ; 798375.5110498575 ; 37842.00000000001
160 ; 14552.209289146398 ; 5021.229629244379 ; 3491262.1545702643 ; 803396.7406791019 ; 38080.00000000001
161 ; 14358.770774314109 ; 5021.229629244379 ; 3505814.363859411 ; 808417.9703083463 ; 38318.00000000001
162 ; 14272.122788835351 ; 5021.229629244379 ; 3520173.134633725 ; 813439.1999375907 ; 38556.00000000001
163 ; 14298.950809106858 ; 5021.229629244379 ; 3534445.2574225604 ; 818460.4295668352 ; 38794.00000000001
164 ; 13828.857244588538 ; 5021.229629244379 ; 3548744.208231667 ; 823481.6591960796 ; 39032.00000000001
165 ; 13915.345390616856 ; 5021.229629244379 ; 3562573.0654762555 ; 828502.888825324 ; 39270.00000000001
166 ; 13739.657731283758 ; 5021.229629244379 ; 3576488.4108668724 ; 833524.1184545684 ; 39508.00000000001
167 ; 13467.497626135191 ; 5021.229629244379 ; 3590228.0685981563 ; 838545.3480838129 ; 39746.00000000001
168 ; 13409.31066557359 ; 5021.229629244379 ; 3603695.5662242915 ; 843566.5777130573 ; 39984.00000000001
169 ; 13304.256902785008 ; 5021.229629244379 ; 3617104.876889865 ; 848587.8073423017 ; 40222.00000000001
170 ; 13087.279057096812 ; 5021.229629244379 ; 3630409.13379265 ; 853609.0369715461 ; 40460.00000000001
171 ; 12877.403501754274 ; 5021.229629244379 ; 3643496.4128497466 ; 858630.2666007906 ; 40698.00000000001
172 ; 12860.826846840753 ; 5021.229629244379 ; 3656373.816351501 ; 863651.496230035 ; 40936.00000000001
173 ; 12684.002082086743 ; 5021.229629244379 ; 3669234.6431983416 ; 868672.7258592794 ; 41174.00000000001
174 ; 12669.83399351358 ; 5021.229629244379 ; 3681918.645280428 ; 873693.9554885238 ; 41412.00000000001
175 ; 12785.504042698809 ; 5021.229629244379 ; 3694588.479273942 ; 878715.1851177682 ; 41650.00000000001
176 ; 12790.280821387947 ; 5021.229629244379 ; 3707373.983316641 ; 883736.4147470127 ; 41888.00000000001
177 ; 12675.463473569025 ; 5021.229629244379 ; 3720164.264138029 ; 888757.6443762571 ; 42126.00000000001
178 ; 12764.984013069203 ; 5021.229629244379 ; 3732839.727611598 ; 893778.8740055015 ; 42364.00000000001
179 ; 12713.368444246249 ; 5021.229629244379 ; 3745604.7116246675 ; 898800.1036347459 ; 42602.00000000001
180 ; 12832.48660941212 ; 5021.229629244379 ; 3758318.0800689138 ; 903821.3332639904 ; 42840.00000000001
181 ; 12777.874352289422 ; 5021.229629244379 ; 3771150.5666783256 ; 908842.5628932348 ; 43078.00000000001
182 ; 12871.994159184325 ; 5021.229629244379 ; 3783928.441030615 ; 913863.7925224792 ; 43316.00000000001
183 ; 12784.480549458993 ; 5021.229629244379 ; 3796800.4351897994 ; 918885.0221517236 ; 43554.00000000001
184 ; 12893.304148878164 ; 5021.229629244379 ; 3809584.9157392583 ; 923906.251780968 ; 43792.00000000001
185 ; 12981.53983764015 ; 5021.229629244379 ; 3822478.2198881363 ; 928927.4814102125 ; 44030.00000000001
186 ; 12918.348070507182 ; 5021.229629244379 ; 3835459.7597257765 ; 933948.7110394569 ; 44268.00000000001
