CSV File for the City 1 on Day 125
1 - Minute m 
2 - Power Consumed at minute m 
3 - Power Produced at minute m 
4 - Energy Consumed since the beginning of the day 
5 - Energy Produced since the beginning of the day 
6 - Energy Lost since the beginning of the day on lines starting from the city
 
0 ; 11336.192502535325 ; 17123.61925772647 ; 0.0 ; 0.0 ; 0.0
1 ; 11684.50212281609 ; 17123.61925772647 ; 11336.192502535325 ; 17123.61925772647 ; 238.00000000000003
2 ; 12206.97461472687 ; 17123.61925772647 ; 23020.694625351414 ; 34247.23851545294 ; 476.00000000000006
3 ; 12536.920019818377 ; 17123.61925772647 ; 35227.669240078285 ; 51370.85777317941 ; 714.0000000000001
4 ; 12850.44425637046 ; 17123.61925772647 ; 47764.58925989666 ; 68494.47703090588 ; 952.0000000000001
5 ; 13132.687784448835 ; 17123.61925772647 ; 60615.03351626712 ; 85618.09628863235 ; 1190.0000000000002
6 ; 13680.687449807787 ; 17123.61925772647 ; 73747.72130071596 ; 102741.71554635883 ; 1428.0000000000002
7 ; 13989.630048028628 ; 17123.61925772647 ; 87428.40875052374 ; 119865.3348040853 ; 1666.0000000000002
8 ; 14274.90787818717 ; 17123.61925772647 ; 101418.03879855237 ; 136988.95406181176 ; 1904.0000000000002
9 ; 14670.819204861988 ; 17123.61925772647 ; 115692.94667673954 ; 154112.57331953823 ; 2142.0000000000005
10 ; 15151.069941767972 ; 17123.61925772647 ; 130363.76588160152 ; 171236.1925772647 ; 2380.0000000000005
11 ; 15461.691148736663 ; 17123.61925772647 ; 145514.8358233695 ; 188359.81183499118 ; 2618.0000000000005
12 ; 15642.214494017633 ; 17123.61925772647 ; 160976.52697210616 ; 205483.43109271766 ; 2856.0000000000005
13 ; 16043.983576918852 ; 17123.61925772647 ; 176618.74146612379 ; 222607.05035044413 ; 3094.0000000000005
14 ; 16399.72265531726 ; 17123.61925772647 ; 192662.72504304265 ; 239730.6696081706 ; 3332.0000000000005
15 ; 16577.533406576786 ; 17123.61925772647 ; 209062.4476983599 ; 256854.28886589708 ; 3570.0000000000005
16 ; 17059.06350464795 ; 17123.61925772647 ; 225639.98110493668 ; 273977.9081236235 ; 3808.0000000000005
17 ; 17357.496872902113 ; 17123.61925772647 ; 242699.04460958464 ; 291101.52738135 ; 4046.0000000000005
18 ; 17580.565168524266 ; 17123.61925772647 ; 260056.54148248676 ; 308225.14663907647 ; 4284.000000000001
19 ; 17582.604041542803 ; 17123.61925772647 ; 277637.10665101104 ; 325348.76589680294 ; 4522.000000000001
20 ; 18163.559153444025 ; 17123.61925772647 ; 295219.71069255384 ; 342472.3851545294 ; 4760.000000000001
21 ; 18323.68765948557 ; 17123.61925772647 ; 313383.26984599786 ; 359596.0044122559 ; 4998.000000000001
22 ; 18572.221081941167 ; 17123.61925772647 ; 331706.9575054834 ; 376719.62366998236 ; 5236.000000000001
23 ; 19028.077484185353 ; 17123.61925772647 ; 350279.17858742457 ; 393843.24292770884 ; 5474.000000000001
24 ; 19358.748707922 ; 17123.61925772647 ; 369307.2560716099 ; 410966.8621854353 ; 5712.000000000001
25 ; 19646.652900875255 ; 17123.61925772647 ; 388666.0047795319 ; 428090.4814431618 ; 5950.000000000001
26 ; 19665.263896607696 ; 17123.61925772647 ; 408312.65768040717 ; 445214.10070088826 ; 6188.000000000001
27 ; 19893.30836870733 ; 17123.61925772647 ; 427977.92157701484 ; 462337.71995861473 ; 6426.000000000001
28 ; 20485.975652191755 ; 17123.61925772647 ; 447871.22994572215 ; 479461.3392163412 ; 6664.000000000001
29 ; 20447.900791881442 ; 17123.61925772647 ; 468357.2055979139 ; 496584.9584740677 ; 6902.000000000001
30 ; 20750.671119791095 ; 17123.61925772647 ; 488805.1063897953 ; 513708.57773179415 ; 7140.000000000001
31 ; 20983.86344516359 ; 17123.61925772647 ; 509555.7775095864 ; 530832.1969895206 ; 7378.000000000001
32 ; 21217.957291727445 ; 17123.61925772647 ; 530539.64095475 ; 547955.816247247 ; 7616.000000000001
33 ; 21544.274360695505 ; 17123.61925772647 ; 551757.5982464774 ; 565079.4355049735 ; 7854.000000000001
34 ; 21644.454950470044 ; 17123.61925772647 ; 573301.8726071729 ; 582203.0547627 ; 8092.000000000001
35 ; 21884.66879180922 ; 17123.61925772647 ; 594946.327557643 ; 599326.6740204265 ; 8330.000000000002
36 ; 22118.41904549142 ; 17123.61925772647 ; 616830.9963494522 ; 616450.2932781529 ; 8568.000000000002
37 ; 22406.678635308606 ; 17123.61925772647 ; 638949.4153949436 ; 633573.9125358794 ; 8806.000000000002
38 ; 22505.1538584415 ; 17123.61925772647 ; 661356.0940302522 ; 650697.5317936059 ; 9044.000000000002
39 ; 22783.568549165582 ; 17123.61925772647 ; 683861.2478886937 ; 667821.1510513324 ; 9282.000000000002
40 ; 22989.40906002007 ; 17123.61925772647 ; 706644.8164378593 ; 684944.7703090588 ; 9520.000000000002
41 ; 23106.81257947117 ; 17123.61925772647 ; 729634.2254978794 ; 702068.3895667853 ; 9758.000000000002
42 ; 23371.50185087291 ; 17123.61925772647 ; 752741.0380773506 ; 719192.0088245118 ; 9996.000000000002
43 ; 23459.447133922436 ; 17123.61925772647 ; 776112.5399282235 ; 736315.6280822383 ; 10234.000000000002
44 ; 23663.492926302162 ; 17123.61925772647 ; 799571.987062146 ; 753439.2473399647 ; 10472.000000000002
45 ; 23779.121277343318 ; 17123.61925772647 ; 823235.4799884481 ; 770562.8665976912 ; 10710.000000000002
46 ; 24011.402516838985 ; 17123.61925772647 ; 847014.6012657915 ; 787686.4858554177 ; 10948.000000000002
47 ; 24198.348483918635 ; 17123.61925772647 ; 871026.0037826304 ; 804810.1051131441 ; 11186.000000000002
48 ; 24306.910892162494 ; 17123.61925772647 ; 895224.352266549 ; 821933.7243708706 ; 11424.000000000002
49 ; 24492.78077269848 ; 17123.61925772647 ; 919531.2631587115 ; 839057.3436285971 ; 11662.000000000002
50 ; 24565.37485949506 ; 17123.61925772647 ; 944024.04393141 ; 856180.9628863236 ; 11900.000000000002
51 ; 24683.54439396524 ; 17123.61925772647 ; 968589.418790905 ; 873304.58214405 ; 12138.000000000002
52 ; 24812.244255509264 ; 17123.61925772647 ; 993272.9631848703 ; 890428.2014017765 ; 12376.000000000002
53 ; 25021.20013570518 ; 17123.61925772647 ; 1018085.2074403795 ; 907551.820659503 ; 12614.000000000002
54 ; 25169.72768143063 ; 17123.61925772647 ; 1043106.4075760847 ; 924675.4399172295 ; 12852.000000000002
55 ; 25343.327993485673 ; 17123.61925772647 ; 1068276.1352575154 ; 941799.0591749559 ; 13090.000000000002
56 ; 25358.79622416297 ; 17123.61925772647 ; 1093619.463251001 ; 958922.6784326824 ; 13328.000000000002
57 ; 25644.169517527745 ; 17123.61925772647 ; 1118978.2594751639 ; 976046.2976904089 ; 13566.000000000002
58 ; 25509.407668432825 ; 17123.61925772647 ; 1144622.4289926917 ; 993169.9169481354 ; 13804.000000000002
59 ; 25654.99706498342 ; 17123.61925772647 ; 1170131.8366611246 ; 1010293.5362058618 ; 14042.000000000002
60 ; 25841.275637564242 ; 17123.61925772647 ; 1195786.833726108 ; 1027417.1554635883 ; 14280.000000000002
61 ; 25857.36340462148 ; 17123.61925772647 ; 1221628.1093636723 ; 1044540.7747213148 ; 14518.000000000002
62 ; 25866.958797941672 ; 17123.61925772647 ; 1247485.4727682937 ; 1061664.3939790411 ; 14756.000000000002
63 ; 26119.955243672564 ; 17123.61925772647 ; 1273352.4315662354 ; 1078788.0132367676 ; 14994.000000000002
64 ; 26190.381370730192 ; 17123.61925772647 ; 1299472.3868099079 ; 1095911.632494494 ; 15232.000000000002
65 ; 26313.90703627386 ; 17123.61925772647 ; 1325662.768180638 ; 1113035.2517522206 ; 15470.000000000002
66 ; 26499.75784252221 ; 17123.61925772647 ; 1351976.675216912 ; 1130158.871009947 ; 15708.000000000002
67 ; 26440.995758413894 ; 17123.61925772647 ; 1378476.4330594342 ; 1147282.4902676735 ; 15946.000000000002
68 ; 26510.91133682813 ; 17123.61925772647 ; 1404917.428817848 ; 1164406.1095254 ; 16184.000000000002
69 ; 26576.55275583776 ; 17123.61925772647 ; 1431428.340154676 ; 1181529.7287831265 ; 16422.000000000004
70 ; 26570.216507926834 ; 17123.61925772647 ; 1458004.8929105138 ; 1198653.348040853 ; 16660.000000000004
71 ; 26585.776300611502 ; 17123.61925772647 ; 1484575.1094184406 ; 1215776.9672985794 ; 16898.000000000004
72 ; 26463.18298264598 ; 17123.61925772647 ; 1511160.885719052 ; 1232900.5865563059 ; 17136.000000000004
73 ; 26688.19372969681 ; 17123.61925772647 ; 1537624.068701698 ; 1250024.2058140323 ; 17374.000000000004
74 ; 26802.900272433384 ; 17123.61925772647 ; 1564312.2624313948 ; 1267147.8250717588 ; 17612.000000000004
75 ; 26929.891543092115 ; 17123.61925772647 ; 1591115.1627038282 ; 1284271.4443294853 ; 17850.000000000004
76 ; 26602.81705731663 ; 17123.61925772647 ; 1618045.0542469204 ; 1301395.0635872118 ; 18088.000000000004
77 ; 26736.805133821024 ; 17123.61925772647 ; 1644647.871304237 ; 1318518.6828449382 ; 18326.000000000004
78 ; 26801.538675693377 ; 17123.61925772647 ; 1671384.676438058 ; 1335642.3021026647 ; 18564.000000000004
79 ; 26677.205794657293 ; 17123.61925772647 ; 1698186.2151137514 ; 1352765.9213603912 ; 18802.000000000004
80 ; 26693.655417112066 ; 17123.61925772647 ; 1724863.4209084087 ; 1369889.5406181177 ; 19040.000000000004
81 ; 26701.815161927032 ; 17123.61925772647 ; 1751557.0763255209 ; 1387013.1598758441 ; 19278.000000000004
82 ; 26748.571604696197 ; 17123.61925772647 ; 1778258.891487448 ; 1404136.7791335706 ; 19516.000000000004
83 ; 26742.640520562964 ; 17123.61925772647 ; 1805007.463092144 ; 1421260.398391297 ; 19754.000000000004
84 ; 26821.052759342114 ; 17123.61925772647 ; 1831750.103612707 ; 1438384.0176490236 ; 19992.000000000004
85 ; 26727.387569452752 ; 17123.61925772647 ; 1858571.1563720491 ; 1455507.63690675 ; 20230.000000000004
86 ; 26732.51853667452 ; 17123.61925772647 ; 1885298.543941502 ; 1472631.2561644765 ; 20468.000000000004
87 ; 26588.682727118663 ; 17123.61925772647 ; 1912031.0624781766 ; 1489754.875422203 ; 20706.000000000004
88 ; 26580.318292441796 ; 17123.61925772647 ; 1938619.7452052953 ; 1506878.4946799295 ; 20944.000000000004
89 ; 26396.13906312402 ; 17123.61925772647 ; 1965200.063497737 ; 1524002.113937656 ; 21182.000000000004
90 ; 26364.887894355485 ; 17123.61925772647 ; 1991596.2025608611 ; 1541125.7331953824 ; 21420.000000000004
91 ; 26314.93644383367 ; 17123.61925772647 ; 2017961.0904552166 ; 1558249.3524531089 ; 21658.000000000004
92 ; 26425.526932048175 ; 17123.61925772647 ; 2044276.0268990502 ; 1575372.9717108354 ; 21896.000000000004
93 ; 26161.402424243184 ; 17123.61925772647 ; 2070701.5538310984 ; 1592496.5909685618 ; 22134.000000000004
94 ; 26343.152381759566 ; 17123.61925772647 ; 2096862.9562553416 ; 1609620.2102262883 ; 22372.000000000004
95 ; 26074.103346188804 ; 17123.61925772647 ; 2123206.108637101 ; 1626743.8294840148 ; 22610.000000000004
96 ; 26075.468361652922 ; 17123.61925772647 ; 2149280.21198329 ; 1643867.4487417412 ; 22848.000000000004
97 ; 26185.906643172533 ; 17123.61925772647 ; 2175355.680344943 ; 1660991.0679994677 ; 23086.000000000004
98 ; 25808.717550248708 ; 17123.61925772647 ; 2201541.5869881157 ; 1678114.6872571942 ; 23324.000000000004
99 ; 25795.095393326694 ; 17123.61925772647 ; 2227350.3045383645 ; 1695238.3065149207 ; 23562.000000000004
100 ; 25664.925225431125 ; 17123.61925772647 ; 2253145.399931691 ; 1712361.9257726471 ; 23800.000000000004
101 ; 25538.673470642345 ; 17123.61925772647 ; 2278810.325157122 ; 1729485.5450303736 ; 24038.000000000004
102 ; 25530.820691820165 ; 17123.61925772647 ; 2304348.9986277646 ; 1746609.1642881 ; 24276.000000000004
103 ; 25494.131010858433 ; 17123.61925772647 ; 2329879.819319585 ; 1763732.7835458266 ; 24514.000000000004
104 ; 25243.937088763716 ; 17123.61925772647 ; 2355373.950330443 ; 1780856.402803553 ; 24752.000000000004
105 ; 25302.71662294583 ; 17123.61925772647 ; 2380617.887419207 ; 1797980.0220612795 ; 24990.000000000004
106 ; 25049.241343191203 ; 17123.61925772647 ; 2405920.604042153 ; 1815103.641319006 ; 25228.000000000004
107 ; 25097.43358744975 ; 17123.61925772647 ; 2430969.8453853442 ; 1832227.2605767325 ; 25466.000000000004
108 ; 24758.09597346727 ; 17123.61925772647 ; 2456067.278972794 ; 1849350.879834459 ; 25704.000000000004
109 ; 24504.288198195627 ; 17123.61925772647 ; 2480825.3749462613 ; 1866474.4990921854 ; 25942.000000000004
110 ; 24276.727339471836 ; 17123.61925772647 ; 2505329.6631444567 ; 1883598.1183499119 ; 26180.000000000004
111 ; 24194.373041926192 ; 17123.61925772647 ; 2529606.3904839284 ; 1900721.7376076384 ; 26418.000000000004
112 ; 24218.391807564243 ; 17123.61925772647 ; 2553800.763525855 ; 1917845.3568653648 ; 26656.000000000004
113 ; 23909.655379399166 ; 17123.61925772647 ; 2578019.155333419 ; 1934968.9761230913 ; 26894.000000000004
114 ; 23947.772532879226 ; 17123.61925772647 ; 2601928.810712818 ; 1952092.5953808178 ; 27132.000000000004
115 ; 23657.066358200755 ; 17123.61925772647 ; 2625876.5832456974 ; 1969216.2146385442 ; 27370.000000000004
116 ; 23590.18253993796 ; 17123.61925772647 ; 2649533.649603898 ; 1986339.8338962707 ; 27608.000000000004
117 ; 23385.888642814818 ; 17123.61925772647 ; 2673123.832143836 ; 2003463.4531539972 ; 27846.000000000004
118 ; 23086.854756198165 ; 17123.61925772647 ; 2696509.720786651 ; 2020587.0724117237 ; 28084.000000000004
119 ; 22912.42644771852 ; 17123.61925772647 ; 2719596.5755428495 ; 2037710.6916694501 ; 28322.000000000004
120 ; 22701.348437625733 ; 17123.61925772647 ; 2742509.001990568 ; 2054834.3109271766 ; 28560.000000000004
121 ; 22545.60702162561 ; 17123.61925772647 ; 2765210.350428194 ; 2071957.930184903 ; 28798.000000000004
122 ; 22370.67808643397 ; 17123.61925772647 ; 2787755.9574498194 ; 2089081.5494426296 ; 29036.000000000004
123 ; 22072.37076837742 ; 17123.61925772647 ; 2810126.6355362535 ; 2106205.168700356 ; 29274.000000000004
124 ; 21915.811981206676 ; 17123.61925772647 ; 2832199.006304631 ; 2123328.7879580823 ; 29512.000000000004
125 ; 21841.093696200653 ; 17123.61925772647 ; 2854114.818285838 ; 2140452.4072158085 ; 29750.000000000004
126 ; 21420.63187379043 ; 17123.61925772647 ; 2875955.9119820385 ; 2157576.0264735348 ; 29988.000000000004
127 ; 21231.134061648838 ; 17123.61925772647 ; 2897376.543855829 ; 2174699.645731261 ; 30226.000000000004
128 ; 20959.216325106452 ; 17123.61925772647 ; 2918607.677917478 ; 2191823.2649889872 ; 30464.000000000004
129 ; 20751.663037641974 ; 17123.61925772647 ; 2939566.8942425847 ; 2208946.8842467135 ; 30702.000000000004
130 ; 20459.312158981957 ; 17123.61925772647 ; 2960318.5572802266 ; 2226070.5035044397 ; 30940.000000000004
131 ; 20436.165471885804 ; 17123.61925772647 ; 2980777.8694392084 ; 2243194.122762166 ; 31178.000000000004
132 ; 20010.136785038903 ; 17123.61925772647 ; 3001214.0349110942 ; 2260317.742019892 ; 31416.000000000004
133 ; 19853.296594577994 ; 17123.61925772647 ; 3021224.171696133 ; 2277441.3612776184 ; 31654.000000000004
134 ; 19495.271834064282 ; 17123.61925772647 ; 3041077.468290711 ; 2294564.9805353447 ; 31892.000000000004
135 ; 19468.95620129312 ; 17123.61925772647 ; 3060572.740124775 ; 2311688.599793071 ; 32130.000000000004
136 ; 18960.428803027924 ; 17123.61925772647 ; 3080041.696326068 ; 2328812.219050797 ; 32368.000000000004
137 ; 18731.723092069675 ; 17123.61925772647 ; 3099002.125129096 ; 2345935.8383085234 ; 32606.000000000004
138 ; 18465.955845914414 ; 17123.61925772647 ; 3117733.848221166 ; 2363059.4575662496 ; 32844.00000000001
139 ; 17926.82350298214 ; 17123.61925772647 ; 3136199.8040670804 ; 2380183.076823976 ; 33082.00000000001
140 ; 18005.65965335901 ; 17123.61925772647 ; 3154126.6275700624 ; 2397306.696081702 ; 33320.00000000001
141 ; 17407.776961588796 ; 17123.61925772647 ; 3172132.2872234215 ; 2414430.3153394284 ; 33558.00000000001
142 ; 17230.240480955257 ; 17123.61925772647 ; 3189540.0641850103 ; 2431553.9345971546 ; 33796.00000000001
143 ; 17018.459404827812 ; 17123.61925772647 ; 3206770.3046659655 ; 2448677.553854881 ; 34034.00000000001
144 ; 16505.204647692317 ; 17123.61925772647 ; 3223788.7640707935 ; 2465801.173112607 ; 34272.00000000001
145 ; 16361.668965828749 ; 17123.61925772647 ; 3240293.968718486 ; 2482924.7923703333 ; 34510.00000000001
146 ; 16583.881541148563 ; 17123.61925772647 ; 3256655.6376843145 ; 2500048.4116280596 ; 34748.00000000001
147 ; 16431.734954644173 ; 17123.61925772647 ; 3273239.5192254633 ; 2517172.030885786 ; 34986.00000000001
148 ; 16152.237560563528 ; 17123.61925772647 ; 3289671.2541801073 ; 2534295.650143512 ; 35224.00000000001
149 ; 16120.201946830775 ; 17123.61925772647 ; 3305823.491740671 ; 2551419.2694012383 ; 35462.00000000001
150 ; 16073.429098650004 ; 17123.61925772647 ; 3321943.693687502 ; 2568542.8886589645 ; 35700.00000000001
151 ; 15937.080673348393 ; 17123.61925772647 ; 3338017.1227861517 ; 2585666.507916691 ; 35938.00000000001
152 ; 15654.597947394683 ; 17123.61925772647 ; 3353954.2034595003 ; 2602790.127174417 ; 36176.00000000001
153 ; 15877.014713822762 ; 17123.61925772647 ; 3369608.801406895 ; 2619913.7464321433 ; 36414.00000000001
154 ; 15620.59930294392 ; 17123.61925772647 ; 3385485.8161207177 ; 2637037.3656898695 ; 36652.00000000001
155 ; 15416.504377868867 ; 17123.61925772647 ; 3401106.4154236615 ; 2654160.9849475957 ; 36890.00000000001
156 ; 15370.355000126561 ; 17123.61925772647 ; 3416522.9198015304 ; 2671284.604205322 ; 37128.00000000001
157 ; 15474.912135400184 ; 17123.61925772647 ; 3431893.274801657 ; 2688408.223463048 ; 37366.00000000001
158 ; 15016.148022762101 ; 17123.61925772647 ; 3447368.1869370574 ; 2705531.8427207745 ; 37604.00000000001
159 ; 14982.98021392976 ; 17123.61925772647 ; 3462384.3349598194 ; 2722655.4619785007 ; 37842.00000000001
160 ; 14983.975389594923 ; 17123.61925772647 ; 3477367.3151737493 ; 2739779.081236227 ; 38080.00000000001
161 ; 14630.296350532164 ; 17123.61925772647 ; 3492351.2905633445 ; 2756902.700493953 ; 38318.00000000001
162 ; 14853.279495453358 ; 17123.61925772647 ; 3506981.5869138767 ; 2774026.3197516794 ; 38556.00000000001
163 ; 14572.174876972866 ; 17123.61925772647 ; 3521834.86640933 ; 2791149.9390094057 ; 38794.00000000001
164 ; 14406.551496953627 ; 17123.61925772647 ; 3536407.041286303 ; 2808273.558267132 ; 39032.00000000001
165 ; 14326.831733504987 ; 17123.61925772647 ; 3550813.592783257 ; 2825397.177524858 ; 39270.00000000001
166 ; 14230.951237304864 ; 17123.61925772647 ; 3565140.4245167617 ; 2842520.7967825844 ; 39508.00000000001
167 ; 13934.075200149675 ; 17123.61925772647 ; 3579371.3757540667 ; 2859644.4160403106 ; 39746.00000000001
168 ; 13901.44773305419 ; 17123.61925772647 ; 3593305.4509542165 ; 2876768.035298037 ; 39984.00000000001
169 ; 13585.604025333212 ; 17123.61925772647 ; 3607206.898687271 ; 2893891.654555763 ; 40222.00000000001
170 ; 13707.701878914031 ; 17123.61925772647 ; 3620792.502712604 ; 2911015.2738134894 ; 40460.00000000001
171 ; 13408.296139585134 ; 17123.61925772647 ; 3634500.2045915183 ; 2928138.8930712156 ; 40698.00000000001
172 ; 13195.31387795793 ; 17123.61925772647 ; 3647908.5007311036 ; 2945262.512328942 ; 40936.00000000001
173 ; 13293.841786816012 ; 17123.61925772647 ; 3661103.8146090615 ; 2962386.131586668 ; 41174.00000000001
174 ; 13281.878419864528 ; 17123.61925772647 ; 3674397.6563958772 ; 2979509.7508443943 ; 41412.00000000001
175 ; 13489.762391885448 ; 17123.61925772647 ; 3687679.5348157417 ; 2996633.3701021206 ; 41650.00000000001
176 ; 13203.29373928863 ; 17123.61925772647 ; 3701169.297207627 ; 3013756.989359847 ; 41888.00000000001
177 ; 13264.44306557273 ; 17123.61925772647 ; 3714372.5909469156 ; 3030880.608617573 ; 42126.00000000001
178 ; 13128.031978659541 ; 17123.61925772647 ; 3727637.034012488 ; 3048004.2278752993 ; 42364.00000000001
179 ; 13329.484394068644 ; 17123.61925772647 ; 3740765.0659911474 ; 3065127.8471330255 ; 42602.00000000001
180 ; 13359.88655685977 ; 17123.61925772647 ; 3754094.5503852163 ; 3082251.466390752 ; 42840.00000000001
181 ; 13302.363330652535 ; 17123.61925772647 ; 3767454.436942076 ; 3099375.085648478 ; 43078.00000000001
182 ; 13315.627976745967 ; 17123.61925772647 ; 3780756.8002727283 ; 3116498.7049062042 ; 43316.00000000001
183 ; 13217.72719832986 ; 17123.61925772647 ; 3794072.428249474 ; 3133622.3241639305 ; 43554.00000000001
184 ; 13441.814006945999 ; 17123.61925772647 ; 3807290.155447804 ; 3150745.9434216567 ; 43792.00000000001
185 ; 13354.039007381403 ; 17123.61925772647 ; 3820731.96945475 ; 3167869.562679383 ; 44030.00000000001
