CSV File for the City 3 on Day 209
1 - Minute m 
2 - Power Consumed at minute m 
3 - Power Produced at minute m 
4 - Energy Consumed since the beginning of the day 
5 - Energy Produced since the beginning of the day 
6 - Energy Lost since the beginning of the day on lines starting from the city
 
0 ; 3841.1012276107344 ; 46669.888164530465 ; 0.0 ; 0.0 ; 0.0
1 ; 4359.885688382935 ; 46206.28494518525 ; 3841.1012276107344 ; 46669.888164530465 ; 0.0
2 ; 4887.759425253667 ; 45787.40719952125 ; 8200.98691599367 ; 92876.17310971572 ; 0.0
3 ; 5476.401369883136 ; 45414.5248204677 ; 13088.746341247337 ; 138663.58030923698 ; 0.0
4 ; 5788.99846523726 ; 45088.807680929225 ; 18565.147711130474 ; 184078.10512970467 ; 0.0
5 ; 6317.33607184385 ; 44811.309322675705 ; 24354.146176367733 ; 229166.9128106339 ; 0.0
6 ; 6716.322121615987 ; 44582.95144855141 ; 30671.48224821158 ; 273978.2221333096 ; 0.0
7 ; 7112.88826316534 ; 44404.50971059311 ; 37387.80436982757 ; 318561.17358186096 ; 0.0
8 ; 7573.367218792195 ; 44276.60127864983 ; 44500.69263299291 ; 362965.68329245405 ; 0.0
9 ; 8012.694023220605 ; 44199.67463831749 ; 52074.0598517851 ; 407242.28457110387 ; 0.0
10 ; 8530.975641828083 ; 44174.002003317066 ; 60086.75387500571 ; 451441.95920942136 ; 0.0
11 ; 8885.21572346605 ; 44199.67463831749 ; 68617.72951683379 ; 495615.9612127384 ; 0.0
12 ; 9237.047704835044 ; 44276.60127864983 ; 77502.94524029984 ; 539815.6358510558 ; 0.0
13 ; 9707.341229350663 ; 44404.50971059311 ; 86739.99294513489 ; 584092.2371297057 ; 0.0
14 ; 10140.241642300853 ; 44582.95144855131 ; 96447.33417448556 ; 628496.7468402989 ; 0.0
15 ; 10647.251565905903 ; 44811.309322675705 ; 106587.57581678641 ; 673079.6982888501 ; 0.0
16 ; 10974.026123558131 ; 45088.807680929225 ; 117234.82738269231 ; 717891.0076115258 ; 0.0
17 ; 11398.864322820733 ; 45414.524820467595 ; 128208.85350625044 ; 762979.815292455 ; 0.0
18 ; 11823.482775159542 ; 45787.407199521345 ; 139607.71782907116 ; 808394.3401129226 ; 0.0
19 ; 12187.809357901837 ; 46206.28494518516 ; 151431.2006042307 ; 854181.7473124439 ; 0.0
20 ; 12430.738677797923 ; 46669.88816453056 ; 163619.00996213252 ; 900388.0322576291 ; 0.0
21 ; 12935.2972869843 ; 47176.86358382869 ; 176049.74863993045 ; 947057.9204221596 ; 0.0
22 ; 13210.096785563197 ; 47725.791079239265 ; 188985.04592691475 ; 994234.7840059883 ; 0.0
23 ; 13713.92962603741 ; 48315.199716802694 ; 202195.14271247794 ; 1041960.5750852275 ; 0.0
24 ; 13865.666578247981 ; 48943.582984302375 ; 215909.07233851537 ; 1090275.7748020303 ; 0.0
25 ; 14392.382390462946 ; 49609.41296705037 ; 229774.73891676334 ; 1139219.3577863327 ; 0.0
26 ; 14676.99594153216 ; 50311.1532890539 ; 244167.12130722628 ; 1188828.7707533832 ; 0.0
27 ; 15023.925633987705 ; 51047.27070647388 ; 258844.11724875844 ; 1239139.924042437 ; 0.0
28 ; 15282.607691240668 ; 51816.24529895469 ; 273868.04288274614 ; 1290187.1947489108 ; 0.0
29 ; 15608.394452166745 ; 52616.579254556986 ; 289150.6505739868 ; 1342003.4400478655 ; 0.0
30 ; 16108.52203502097 ; 53446.804284838756 ; 304759.04502615356 ; 1394620.0193024224 ; 0.0
31 ; 16395.401903041326 ; 54305.4877380934 ; 320867.56706117454 ; 1448066.8235872611 ; 0.0
32 ; 16624.249641343515 ; 55191.23750140774 ; 337262.9689642159 ; 1502372.3113253545 ; 0.0
33 ; 16846.468214429835 ; 56102.70579698454 ; 353887.21860555944 ; 1557563.5488267622 ; 0.0
34 ; 17195.301026844852 ; 57038.5919862465 ; 370733.6868199893 ; 1613666.2546237467 ; 0.0
35 ; 17543.18887214451 ; 57997.64449781123 ; 387928.9878468341 ; 1670704.8466099931 ; 0.0
36 ; 17824.62751764274 ; 58978.66199372286 ; 405472.1767189786 ; 1728702.4911078045 ; 0.0
37 ; 18059.602843044657 ; 59980.493883434625 ; 423296.80423662136 ; 1787681.1531015274 ; 0.0
38 ; 18461.81623574791 ; 61002.04028794063 ; 441356.40707966604 ; 1847661.646984962 ; 0.0
39 ; 18611.957829174353 ; 62042.25154796182 ; 459818.2233154139 ; 1908663.6872729026 ; 0.0
40 ; 18894.255299308807 ; 63100.12736086281 ; 478430.1811445883 ; 1970705.9388208643 ; 0.0
41 ; 18978.667441343543 ; 64174.71562152466 ; 497324.4364438971 ; 2033806.0661817272 ; 0.0
42 ; 19116.261584300468 ; 65265.111033102585 ; 516303.1038852406 ; 2097980.7818032517 ; 0.0
43 ; 19461.883259223785 ; 66370.45354473234 ; 535419.365469541 ; 2163245.892836354 ; 0.0
44 ; 19765.003118001718 ; 67489.92666497976 ; 554881.2487287648 ; 2229616.3463810864 ; 0.0
45 ; 19968.154716826008 ; 68622.75569227946 ; 574646.2518467666 ; 2297106.273046066 ; 0.0
46 ; 20108.241266771904 ; 69768.20589680658 ; 594614.4065635926 ; 2365729.0287383455 ; 0.0
47 ; 20299.494417169295 ; 70925.58068219667 ; 614722.6478303645 ; 2435497.234635152 ; 0.0
48 ; 20462.164633710418 ; 72094.21975023915 ; 635022.1422475338 ; 2506422.8153173486 ; 0.0
49 ; 20630.315732198924 ; 73273.4972870837 ; 655484.3068812442 ; 2578517.0350675876 ; 0.0
50 ; 20848.198628271515 ; 74462.82018556043 ; 676114.6226134431 ; 2651790.5323546715 ; 0.0
51 ; 21131.83369230515 ; 75661.62631486313 ; 696962.8212417145 ; 2726253.352540232 ; 0.0
52 ; 21345.85148266836 ; 76869.3828460234 ; 718094.6549340197 ; 2801914.978855095 ; 0.0
53 ; 21599.81736562762 ; 78085.5846392399 ; 739440.506416688 ; 2878784.3617011183 ; 0.0
54 ; 21708.00374885071 ; 79309.75269717663 ; 761040.3237823156 ; 2956869.9463403584 ; 0.0
55 ; 21754.049317496185 ; 80541.43268674101 ; 782748.3275311663 ; 3036179.699037535 ; 0.0
56 ; 21942.885310530077 ; 81780.1935305541 ; 804502.3768486624 ; 3116721.131724276 ; 0.0
57 ; 22215.357132575416 ; 83025.62606828114 ; 826445.2621591925 ; 3198501.32525483 ; 0.0
58 ; 22369.943620256203 ; 84277.34178716819 ; 848660.619291768 ; 3281526.951323111 ; 0.0
59 ; 22409.26741758123 ; 85534.97162048827 ; 871030.5629120241 ; 3365804.2931102794 ; 0.0
60 ; 22535.251493470685 ; 86798.16481211096 ; 893439.8303296054 ; 3451339.264730768 ; 0.0
61 ; 22607.369507511983 ; 88066.58784504696 ; 915975.0818230761 ; 3538137.4295428786 ; 0.0
62 ; 22709.180723418744 ; 89339.92343156076 ; 938582.4513305881 ; 3626204.0173879256 ; 0.0
63 ; 23011.064711921576 ; 90617.86956226981 ; 961291.6320540068 ; 3715543.9408194865 ; 0.0
64 ; 23224.802860629992 ; 91900.13861154388 ; 984302.6967659284 ; 3806161.810381756 ; 0.0
65 ; 23165.931894273737 ; 93186.45649646784 ; 1007527.4996265584 ; 3898061.9489933 ; 0.0
66 ; 23139.421037172655 ; 94476.56188662397 ; 1030693.4315208321 ; 3991248.405489768 ; 0.0
67 ; 23324.758657844104 ; 95770.20546197763 ; 1053832.8525580047 ; 4085724.967376392 ; 0.0
68 ; 23521.841332149987 ; 97067.14921620417 ; 1077157.6112158487 ; 4181495.1728383694 ; 0.0
69 ; 23528.245130833726 ; 98367.16580286737 ; 1100679.4525479986 ; 4278562.322054573 ; 0.0
70 ; 23589.62849414163 ; 99670.03792194904 ; 1124207.6976788323 ; 4376929.4878574405 ; 0.0
71 ; 23764.763888576046 ; 100975.55774432597 ; 1147797.326172974 ; 4476599.52577939 ; 0.0
72 ; 23767.416298652606 ; 102283.52637189649 ; 1171562.09006155 ; 4577575.083523716 ; 0.0
73 ; 23875.4965097979 ; 103593.75333116762 ; 1195329.5063602026 ; 4679858.609895612 ; 0.0
74 ; 23848.838709491974 ; 104906.05609822247 ; 1219205.0028700004 ; 4783452.36322678 ; 0.0
75 ; 23879.591545534553 ; 106220.25965310016 ; 1243053.8415794924 ; 4888358.4193250025 ; 0.0
76 ; 23868.43987944491 ; 107536.1960617281 ; 1266933.433125027 ; 4994578.678978102 ; 0.0
77 ; 24077.21291126522 ; 108853.70408365282 ; 1290801.8730044719 ; 5102114.875039831 ; 0.0
78 ; 23910.808808899692 ; 110172.62880392025 ; 1314879.085915737 ; 5210968.579123484 ; 0.0
79 ; 23967.305422166748 ; 111492.8212875533 ; 1338789.8947246368 ; 5321141.207927404 ; 0.0
80 ; 24124.357893574266 ; 112814.13825517334 ; 1362757.2001468036 ; 5432634.029214958 ; 0.0
81 ; 24109.368879005666 ; 114136.44177839985 ; 1386881.558040378 ; 5545448.167470131 ; 0.0
82 ; 23936.607460163552 ; 115459.59899375167 ; 1410990.9269193837 ; 5659584.609248531 ; 0.0
83 ; 24061.240451300044 ; 116783.481833854 ; 1434927.5343795472 ; 5775044.208242282 ; 0.0
84 ; 24037.970994009007 ; 118107.96677483233 ; 1458988.7748308473 ; 5891827.690076136 ; 0.0
85 ; 23983.61043508944 ; 119432.93459884978 ; 1483026.7458248562 ; 6009935.6568509685 ; 0.0
86 ; 23906.99813606335 ; 120758.2701708096 ; 1507010.3562599455 ; 6129368.591449819 ; 0.0
87 ; 24152.618182178507 ; 122083.86222831285 ; 1530917.354396009 ; 6250126.861620628 ; 0.0
88 ; 24057.109010302185 ; 123409.6031840183 ; 1555069.9725781875 ; 6372210.723848941 ; 0.0
89 ; 24091.601747041706 ; 124735.3889396121 ; 1579127.0815884897 ; 6495620.327032959 ; 0.0
90 ; 24060.317999445517 ; 126061.11871064332 ; 1603218.6833355315 ; 6620355.715972572 ; 0.0
91 ; 23824.970318345906 ; 127386.69486153567 ; 1627279.001334977 ; 6746416.834683215 ; 0.0
92 ; 23746.275486332474 ; 128712.02275012815 ; 1651103.971653323 ; 6873803.529544751 ; 0.0
93 ; 23715.91806881187 ; 130037.01058114343 ; 1674850.2471396553 ; 7002515.552294879 ; 0.0
94 ; 23677.95058685795 ; 131361.56926802098 ; 1698566.165208467 ; 7132552.562876022 ; 0.0
95 ; 23605.58713680309 ; 132685.61230259147 ; 1722244.115795325 ; 7263914.132144043 ; 0.0
96 ; 23648.88595356092 ; 134009.0556321018 ; 1745849.7029321282 ; 7396599.744446634 ; 0.0
97 ; 23455.203905983086 ; 135331.8175431354 ; 1769498.5888856892 ; 7530608.800078736 ; 0.0
98 ; 23360.962310045044 ; 136653.81855199984 ; 1792953.7927916723 ; 7665940.617621871 ; 0.0
99 ; 23197.080462467595 ; 137974.98130118512 ; 1816314.7551017173 ; 7802594.43617387 ; 0.0
100 ; 23137.789849351837 ; 139295.23046151994 ; 1839511.835564185 ; 7940569.417475055 ; 0.0
101 ; 23103.243048509736 ; 140614.49263967905 ; 1862649.6254135368 ; 8079864.647936575 ; 0.0
102 ; 23023.825397126973 ; 141932.69629071775 ; 1885752.8684620466 ; 8220479.140576255 ; 0.0
103 ; 22730.640157597016 ; 143249.7716353296 ; 1908776.6938591737 ; 8362411.836866972 ; 0.0
104 ; 22673.896855310544 ; 144565.6505815452 ; 1931507.3340167706 ; 8505661.608502302 ; 0.0
105 ; 22533.03315043855 ; 145880.26665060606 ; 1954181.2308720811 ; 8650227.259083848 ; 0.0
106 ; 22388.847279114623 ; 147193.55490676704 ; 1976714.2640225196 ; 8796107.525734454 ; 0.0
107 ; 22327.25086914874 ; 148505.45189079508 ; 1999103.1113016342 ; 8943301.080641221 ; 0.0
108 ; 22306.121163713735 ; 149815.89555694742 ; 2021430.3621707829 ; 9091806.532532016 ; 0.0
109 ; 21873.495462933854 ; 151124.82521322666 ; 2043736.4833344966 ; 9241622.428088963 ; 0.0
110 ; 21778.396993323837 ; 152432.1814647229 ; 2065609.9787974304 ; 9392747.25330219 ; 0.0
111 ; 21747.401290173602 ; 153737.90615986485 ; 2087388.3757907543 ; 9545179.434766913 ; 0.0
112 ; 21565.73121568004 ; 155041.94233941298 ; 2109135.777080928 ; 9698917.340926778 ; 0.0
113 ; 21296.868160184004 ; 156344.23418803923 ; 2130701.508296608 ; 9853959.28326619 ; 0.0
114 ; 21111.963333352476 ; 157644.72698834614 ; 2151998.376456792 ; 1.001030351745423E7 ; 0.0
115 ; 20903.026155048425 ; 158943.36707718854 ; 2173110.3397901445 ; 1.0167948244442575E7 ; 0.0
116 ; 20693.616205266706 ; 160240.10180416895 ; 2194013.365945193 ; 1.0326891611519763E7 ; 0.0
117 ; 20484.849306896613 ; 161534.87949218578 ; 2214706.9821504597 ; 1.0487131713323932E7 ; 0.0
118 ; 20253.063477594256 ; 162827.64939992034 ; 2235191.8314573565 ; 1.0648666592816118E7 ; 0.0
119 ; 20147.212873490775 ; 164118.36168615744 ; 2255444.894934951 ; 1.0811494242216038E7 ; 0.0
120 ; 19798.848625779247 ; 165406.96737583776 ; 2275592.107808442 ; 1.0975612603902195E7 ; 0.0
121 ; 19770.06410017664 ; 166693.41832774947 ; 2295390.956434221 ; 1.1141019571278032E7 ; 0.0
122 ; 19426.31662940447 ; 167977.66720376964 ; 2315161.0205343976 ; 1.130771298960578E7 ; 0.0
123 ; 19281.25585772886 ; 169259.6674395729 ; 2334587.3371638022 ; 1.147569065680955E7 ; 0.0
124 ; 18950.170242288765 ; 170539.37321672877 ; 2353868.593021531 ; 1.1644950324249122E7 ; 0.0
125 ; 18703.165356097958 ; 171816.73943611444 ; 2372818.7632638197 ; 1.1815489697465852E7 ; 0.0
126 ; 18326.797603916315 ; 173091.72169257328 ; 2391521.9286199175 ; 1.1987306436901966E7 ; 0.0
127 ; 18240.58794989906 ; 174364.2762507542 ; 2409848.726223834 ; 1.216039815859454E7 ; 0.0
128 ; 17732.225634761537 ; 175634.3600220704 ; 2428089.314173733 ; 1.2334762434845293E7 ; 0.0
129 ; 17499.459745801723 ; 176901.93054271946 ; 2445821.5398084945 ; 1.2510396794867363E7 ; 0.0
130 ; 17428.011101698386 ; 178166.94595271 ; 2463320.999554296 ; 1.2687298725410081E7 ; 0.0
131 ; 17014.954684446217 ; 179429.3649758442 ; 2480749.0106559945 ; 1.2865465671362791E7 ; 0.0
132 ; 16726.01479316592 ; 180689.14690060663 ; 2497763.9653404406 ; 1.3044895036338635E7 ; 0.0
133 ; 16434.282006637623 ; 181946.25156191472 ; 2514489.9801336066 ; 1.3225584183239242E7 ; 0.0
134 ; 16081.553061924613 ; 183200.6393236862 ; 2530924.2621402442 ; 1.3407530434801158E7 ; 0.0
135 ; 15831.575646004787 ; 184452.2710621845 ; 2547005.8152021687 ; 1.3590731074124843E7 ; 0.0
136 ; 15552.559423430754 ; 185701.10815010185 ; 2562837.3908481733 ; 1.3775183345187027E7 ; 0.0
137 ; 15158.923205148221 ; 186947.1124413447 ; 2578389.950271604 ; 1.396088445333713E7 ; 0.0
138 ; 14816.03207167959 ; 188190.24625648672 ; 2593548.8734767525 ; 1.4147831565778473E7 ; 0.0
139 ; 14530.074795503702 ; 189430.47236885695 ; 2608364.905548432 ; 1.433602181203496E7 ; 0.0
140 ; 14011.600366521425 ; 190667.75399123222 ; 2622894.9803439355 ; 1.4525452284403818E7 ; 0.0
141 ; 13857.108414965589 ; 191902.0547631044 ; 2636906.580710457 ; 1.4716120038395049E7 ; 0.0
142 ; 13425.361515605968 ; 193133.33873849572 ; 2650763.689125423 ; 1.4908022093158154E7 ; 0.0
143 ; 13140.17330292224 ; 194361.5703742956 ; 2664189.0506410287 ; 1.510115543189665E7 ; 0.0
144 ; 12735.81367778773 ; 195586.71451909398 ; 2677329.223943951 ; 1.5295517002270944E7 ; 0.0
145 ; 12541.588341434877 ; 196808.7364024884 ; 2690065.037621739 ; 1.549110371679004E7 ; 0.0
146 ; 12573.91172056669 ; 198027.60162484224 ; 2702606.625963174 ; 1.5687912453192528E7 ; 0.0
147 ; 12470.134919738503 ; 199243.27614747323 ; 2715180.5376837407 ; 1.5885940054817371E7 ; 0.0
148 ; 12327.610912382259 ; 200455.72628325262 ; 2727650.672603479 ; 1.6085183330964845E7 ; 0.0
149 ; 12251.181028259478 ; 201664.91868759523 ; 2739978.2835158613 ; 1.6285639057248097E7 ; 0.0
150 ; 12130.476288386826 ; 202870.8203498235 ; 2752229.4645441207 ; 1.6487303975935692E7 ; 0.0
151 ; 12104.684920584566 ; 204073.3985848881 ; 2764359.9408325073 ; 1.6690174796285516E7 ; 0.0
152 ; 11889.422385175365 ; 205272.62102542885 ; 2776464.625753092 ; 1.6894248194870405E7 ; 0.0
153 ; 11862.53498819919 ; 206468.45561416028 ; 2788354.0481382674 ; 1.7099520815895833E7 ; 0.0
154 ; 11864.344164538881 ; 207660.87059656854 ; 2800216.5831264667 ; 1.7305989271509994E7 ; 0.0
155 ; 11665.438807126748 ; 208849.8345139045 ; 2812080.9272910054 ; 1.7513650142106563E7 ; 0.0
156 ; 11496.831367812672 ; 210035.31619646042 ; 2823746.366098132 ; 1.7722499976620466E7 ; 0.0
157 ; 11264.829185147903 ; 211217.2847571178 ; 2835243.1974659446 ; 1.7932535292816926E7 ; 0.0
158 ; 11096.538800502622 ; 212395.70958515414 ; 2846508.0266510923 ; 1.8143752577574044E7 ; 0.0
159 ; 11179.66380644493 ; 213570.56034029817 ; 2857604.565451595 ; 1.8356148287159197E7 ; 0.0
160 ; 10918.339300612399 ; 214741.8069470216 ; 2868784.22925804 ; 1.8569718847499494E7 ; 0.0
161 ; 10850.142572336017 ; 215909.41958905797 ; 2879702.5685586524 ; 1.8784460654446516E7 ; 0.0
162 ; 10587.546725517126 ; 217073.3687041389 ; 2890552.7111309883 ; 1.9000370074035574E7 ; 0.0
163 ; 10443.611912897817 ; 218233.62497893788 ; 2901140.2578565055 ; 1.9217443442739714E7 ; 0.0
164 ; 10450.592805441473 ; 219390.15934421332 ; 2911583.8697694032 ; 1.943567706771865E7 ; 0.0
165 ; 10280.284851306047 ; 220542.94297014218 ; 2922034.4625748447 ; 1.9655067227062866E7 ; 0.0
166 ; 10142.56134183707 ; 221691.94726183635 ; 2932314.747426151 ; 1.9875610170033008E7 ; 0.0
167 ; 9870.05436887407 ; 222837.14385503394 ; 2942457.308767988 ; 2.0097302117294844E7 ; 0.0
168 ; 9893.911962104565 ; 223978.5046119582 ; 2952327.363136862 ; 2.032013926114988E7 ; 0.0
169 ; 9638.72319056749 ; 225116.00161733726 ; 2962221.2750989664 ; 2.0544117765761837E7 ; 0.0
170 ; 9482.604393014375 ; 226249.6071745781 ; 2971859.998289534 ; 2.0769233767379176E7 ; 0.0
171 ; 9411.986959994281 ; 227379.2938020883 ; 2981342.602682548 ; 2.0995483374553755E7 ; 0.0
172 ; 9268.061822876902 ; 228505.0342297394 ; 2990754.5896425424 ; 2.1222862668355845E7 ; 0.0
173 ; 8962.76212634656 ; 229626.80139546638 ; 3000022.651465419 ; 2.1451367702585585E7 ; 0.0
174 ; 9114.157543903657 ; 230744.56844199772 ; 3008985.413591766 ; 2.168099450398105E7 ; 0.0
175 ; 9100.355215841997 ; 231858.30871371075 ; 3018099.5711356695 ; 2.191173907242305E7 ; 0.0
176 ; 9160.983114299217 ; 232967.99575360713 ; 3027199.9263515114 ; 2.214359738113676E7 ; 0.0
177 ; 9253.175438422271 ; 234073.6033004035 ; 3036360.9094658107 ; 2.237656537689037E7 ; 0.0
178 ; 9343.612332803319 ; 235175.10528573373 ; 3045614.084904233 ; 2.2610638980190773E7 ; 0.0
179 ; 9397.09419533306 ; 236272.4758314569 ; 3054957.697237036 ; 2.2845814085476507E7 ; 0.0
180 ; 9235.538697489352 ; 237365.68924706813 ; 3064354.791432369 ; 2.3082086561307963E7 ; 0.0
181 ; 9323.487788392775 ; 238454.72002720722 ; 3073590.3301298586 ; 2.331945225055503E7 ; 0.0
182 ; 9355.612065136216 ; 239539.54284926207 ; 3082913.8179182513 ; 2.355790697058224E7 ; 0.0
183 ; 9450.942162472225 ; 240620.1325710627 ; 3092269.4299833877 ; 2.37974465134315E7 ; 0.0
184 ; 9459.389027963838 ; 241696.4642286628 ; 3101720.37214586 ; 2.4038066646002565E7 ; 0.0
185 ; 9321.822234968438 ; 242768.51303420463 ; 3111179.761173824 ; 2.427976311023123E7 ; 0.0
186 ; 9512.024257359717 ; 243836.25437386543 ; 3120501.5834087925 ; 2.4522531623265434E7 ; 0.0
187 ; 9444.314194803483 ; 244899.66380588055 ; 3130013.607666152 ; 2.47663678776393E7 ; 0.0
188 ; 9557.374793734496 ; 245958.71705864204 ; 3139457.9218609557 ; 2.501126754144518E7 ; 0.0
189 ; 9496.945146871692 ; 247013.39002886834 ; 3149015.29665469 ; 2.5257226258503824E7 ; 0.0
190 ; 9696.997171954958 ; 248063.65877984365 ; 3158512.241801562 ; 2.5504239648532692E7 ; 0.0
191 ; 9587.961995146543 ; 249109.4995397237 ; 3168209.238973517 ; 2.5752303307312537E7 ; 0.0
192 ; 9661.213868241914 ; 250150.8886999051 ; 3177797.2009686637 ; 2.6001412806852262E7 ; 0.0
193 ; 9697.916610536919 ; 251187.80281345686 ; 3187458.4148369054 ; 2.6251563695552167E7 ; 0.0
194 ; 9651.591937609875 ; 252220.21859361118 ; 3197156.3314474425 ; 2.6502751498365622E7 ; 0.0
195 ; 9698.415641717693 ; 253248.11291231101 ; 3206807.9233850525 ; 2.6754971716959234E7 ; 0.0
196 ; 9765.649533584397 ; 254271.462798813 ; 3216506.33902677 ; 2.7008219829871546E7 ; 0.0
197 ; 9803.741772172605 ; 255290.24543834344 ; 3226271.9885603543 ; 2.7262491292670358E7 ; 0.0
198 ; 9839.013780056619 ; 256304.43817080493 ; 3236075.730332527 ; 2.7517781538108703E7 ; 0.0
199 ; 9870.890533354122 ; 257314.01848953284 ; 3245914.7441125833 ; 2.777408597627951E7 ; 0.0
200 ; 9956.94479894896 ; 258318.9640400985 ; 3255785.6346459375 ; 2.803139999476904E7 ; 0.0
201 ; 9822.726983782844 ; 259319.25261915868 ; 3265742.5794448867 ; 2.8289718958809137E7 ; 0.0
202 ; 9917.30025640499 ; 260314.8621733486 ; 3275565.3064286695 ; 2.8549038211428296E7 ; 0.0
203 ; 9920.880024147154 ; 261305.77079821785 ; 3285482.6066850745 ; 2.8809353073601644E7 ; 0.0
204 ; 10130.536524128465 ; 262291.9567372067 ; 3295403.4867092217 ; 2.9070658844399862E7 ; 0.0
205 ; 9953.163404138946 ; 263273.39838066243 ; 3305534.0232333504 ; 2.9332950801137067E7 ; 0.0
206 ; 10157.282740249086 ; 264250.07426489337 ; 3315487.186637489 ; 2.959622419951773E7 ; 0.0
207 ; 10162.657687279298 ; 265221.9630712594 ; 3325644.4693777384 ; 2.9860474273782626E7 ; 0.0
208 ; 10015.457913808877 ; 266189.0436252985 ; 3335807.127065018 ; 3.0125696236853886E7 ; 0.0
209 ; 10212.412052056134 ; 267151.29489588673 ; 3345822.584978827 ; 3.0391885280479185E7 ; 0.0
210 ; 10152.55276591691 ; 268108.69599443156 ; 3356034.997030883 ; 3.0659036575375073E7 ; 0.0
211 ; 10202.739663787348 ; 269061.22617409675 ; 3366187.5497968 ; 3.0927145271369506E7 ; 0.0
212 ; 10313.031796252968 ; 270008.8648290579 ; 3376390.2894605873 ; 3.1196206497543603E7 ; 0.0
