CSV File for the City 2 on Day 169
1 - Minute m 
2 - Power Consumed at minute m 
3 - Power Produced at minute m 
4 - Energy Consumed since the beginning of the day 
5 - Energy Produced since the beginning of the day 
6 - Energy Lost since the beginning of the day on lines starting from the city
 
0 ; 5818.872571862999 ; 31449.860155306655 ; 0.0 ; 0.0 ; 0.0
1 ; 6463.351193720936 ; 31449.860155306655 ; 5818.872571862999 ; 31449.860155306655 ; 0.0
2 ; 6915.907561878902 ; 31449.860155306655 ; 12282.223765583934 ; 62899.72031061331 ; 0.0
3 ; 7514.209224598978 ; 31449.860155306655 ; 19198.131327462837 ; 94349.58046591996 ; 0.0
4 ; 8019.73783258698 ; 31449.860155306655 ; 26712.340552061814 ; 125799.44062122662 ; 0.0
5 ; 8486.106301997948 ; 31449.860155306655 ; 34732.0783846488 ; 157249.30077653326 ; 0.0
6 ; 8652.719622296952 ; 31449.860155306655 ; 43218.184686646746 ; 188699.1609318399 ; 0.0
7 ; 9380.850553260118 ; 31449.860155306655 ; 51870.9043089437 ; 220149.02108714654 ; 0.0
8 ; 9656.296984967834 ; 31449.860155306655 ; 61251.754862203816 ; 251598.88124245318 ; 0.0
9 ; 9823.39216692212 ; 31449.860155306655 ; 70908.05184717165 ; 283048.7413977598 ; 0.0
10 ; 10438.022796307521 ; 31449.860155306655 ; 80731.44401409377 ; 314498.60155306646 ; 0.0
11 ; 10910.906448440763 ; 31449.860155306655 ; 91169.46681040128 ; 345948.4617083731 ; 0.0
12 ; 11401.817116361535 ; 31449.860155306655 ; 102080.37325884204 ; 377398.32186367974 ; 0.0
13 ; 11678.573047630374 ; 31449.860155306655 ; 113482.19037520357 ; 408848.1820189864 ; 0.0
14 ; 12070.338383945666 ; 31449.860155306655 ; 125160.76342283394 ; 440298.042174293 ; 0.0
15 ; 12468.687742967606 ; 31449.860155306655 ; 137231.10180677962 ; 471747.90232959966 ; 0.0
16 ; 12748.721309938723 ; 31449.860155306655 ; 149699.78954974722 ; 503197.7624849063 ; 0.0
17 ; 13264.623161239078 ; 31449.860155306655 ; 162448.51085968595 ; 534647.622640213 ; 0.0
18 ; 13568.517430613367 ; 31449.860155306655 ; 175713.13402092503 ; 566097.4827955196 ; 0.0
19 ; 14072.52370952686 ; 31449.860155306655 ; 189281.6514515384 ; 597547.3429508263 ; 0.0
20 ; 14313.494312099892 ; 31449.860155306655 ; 203354.17516106527 ; 628997.2031061329 ; 0.0
21 ; 14616.82423107602 ; 31449.860155306655 ; 217667.66947316515 ; 660447.0632614396 ; 0.0
22 ; 14906.665619875313 ; 31449.860155306655 ; 232284.49370424118 ; 691896.9234167462 ; 0.0
23 ; 15368.42034972023 ; 31449.860155306655 ; 247191.15932411648 ; 723346.7835720528 ; 0.0
24 ; 15658.526739263161 ; 31449.860155306655 ; 262559.5796738367 ; 754796.6437273595 ; 0.0
25 ; 15892.643803641313 ; 31449.860155306655 ; 278218.10641309986 ; 786246.5038826661 ; 0.0
26 ; 16087.074004736514 ; 31449.860155306655 ; 294110.7502167412 ; 817696.3640379728 ; 0.0
27 ; 16629.518310165367 ; 31449.860155306655 ; 310197.82422147767 ; 849146.2241932794 ; 0.0
28 ; 16895.673522190005 ; 31449.860155306655 ; 326827.34253164305 ; 880596.084348586 ; 0.0
29 ; 17127.564680070478 ; 31449.860155306655 ; 343723.01605383307 ; 912045.9445038927 ; 0.0
30 ; 17619.22960022849 ; 31449.860155306655 ; 360850.58073390357 ; 943495.8046591993 ; 0.0
31 ; 17939.01829350874 ; 31449.860155306655 ; 378469.81033413205 ; 974945.664814506 ; 0.0
32 ; 18045.020253001432 ; 31449.860155306655 ; 396408.8286276408 ; 1006395.5249698126 ; 0.0
33 ; 18190.35498580127 ; 31449.860155306655 ; 414453.8488806422 ; 1037845.3851251192 ; 0.0
34 ; 18684.87421417917 ; 31449.860155306655 ; 432644.2038664435 ; 1069295.245280426 ; 0.0
35 ; 18931.316315113727 ; 31449.860155306655 ; 451329.07808062265 ; 1100745.1054357328 ; 0.0
36 ; 19210.603644638344 ; 31449.860155306655 ; 470260.3943957364 ; 1132194.9655910395 ; 0.0
37 ; 19277.19494410793 ; 31449.860155306655 ; 489470.9980403747 ; 1163644.8257463463 ; 0.0
38 ; 19729.008577098946 ; 31449.860155306655 ; 508748.1929844826 ; 1195094.685901653 ; 0.0
39 ; 19714.683280437424 ; 31449.860155306655 ; 528477.2015615816 ; 1226544.5460569598 ; 0.0
40 ; 20202.75259517183 ; 31449.860155306655 ; 548191.884842019 ; 1257994.4062122665 ; 0.0
41 ; 20551.49164349 ; 31449.860155306655 ; 568394.6374371907 ; 1289444.2663675733 ; 0.0
42 ; 20548.07832911856 ; 31449.860155306655 ; 588946.1290806808 ; 1320894.12652288 ; 0.0
43 ; 20923.279303139792 ; 31449.860155306655 ; 609494.2074097993 ; 1352343.9866781868 ; 0.0
44 ; 21098.48008233488 ; 31449.860155306655 ; 630417.4867129391 ; 1383793.8468334936 ; 0.0
45 ; 21446.475037905868 ; 31449.860155306655 ; 651515.9667952739 ; 1415243.7069888003 ; 0.0
46 ; 21528.559198014933 ; 31449.860155306655 ; 672962.4418331798 ; 1446693.567144107 ; 0.0
47 ; 21657.24236934726 ; 31449.860155306655 ; 694491.0010311947 ; 1478143.4272994138 ; 0.0
48 ; 21953.023818255835 ; 31449.860155306655 ; 716148.243400542 ; 1509593.2874547206 ; 0.0
49 ; 21973.805038467308 ; 31449.860155306655 ; 738101.2672187978 ; 1541043.1476100273 ; 0.0
50 ; 22228.013776918146 ; 31449.860155306655 ; 760075.0722572651 ; 1572493.007765334 ; 0.0
51 ; 22438.41520234813 ; 31449.860155306655 ; 782303.0860341833 ; 1603942.8679206409 ; 0.0
52 ; 22693.176693713456 ; 31449.860155306655 ; 804741.5012365314 ; 1635392.7280759476 ; 0.0
53 ; 22732.931154860467 ; 31449.860155306655 ; 827434.6779302448 ; 1666842.5882312544 ; 0.0
54 ; 22985.923242829627 ; 31449.860155306655 ; 850167.6090851052 ; 1698292.4483865611 ; 0.0
55 ; 22990.973369063333 ; 31449.860155306655 ; 873153.5323279349 ; 1729742.3085418679 ; 0.0
56 ; 23348.96593289281 ; 31449.860155306655 ; 896144.5056969982 ; 1761192.1686971746 ; 0.0
57 ; 23407.33315730213 ; 31449.860155306655 ; 919493.4716298911 ; 1792642.0288524814 ; 0.0
58 ; 23394.70234777891 ; 31449.860155306655 ; 942900.8047871932 ; 1824091.8890077882 ; 0.0
59 ; 23673.291935407426 ; 31449.860155306655 ; 966295.5071349721 ; 1855541.749163095 ; 0.0
60 ; 23828.532945250205 ; 31449.860155306655 ; 989968.7990703796 ; 1886991.6093184017 ; 0.0
61 ; 23910.53263522683 ; 31449.860155306655 ; 1013797.3320156297 ; 1918441.4694737084 ; 0.0
62 ; 23951.286959659566 ; 31449.860155306655 ; 1037707.8646508566 ; 1949891.3296290152 ; 0.0
63 ; 24149.837161476797 ; 31449.860155306655 ; 1061659.1516105162 ; 1981341.189784322 ; 0.0
64 ; 24339.733714775975 ; 31449.860155306655 ; 1085808.988771993 ; 2012791.0499396287 ; 0.0
65 ; 24480.90224350959 ; 31449.860155306655 ; 1110148.7224867688 ; 2044240.9100949354 ; 0.0
66 ; 24459.038451213106 ; 31449.860155306655 ; 1134629.6247302785 ; 2075690.7702502422 ; 0.0
67 ; 24517.69392837472 ; 31449.860155306655 ; 1159088.6631814917 ; 2107140.630405549 ; 0.0
68 ; 24623.0226146574 ; 31449.860155306655 ; 1183606.3571098663 ; 2138590.4905608557 ; 0.0
69 ; 24572.31110236099 ; 31449.860155306655 ; 1208229.3797245238 ; 2170040.3507161625 ; 0.0
70 ; 24575.44004224274 ; 31449.860155306655 ; 1232801.6908268847 ; 2201490.210871469 ; 0.0
71 ; 24794.538900734213 ; 31449.860155306655 ; 1257377.1308691273 ; 2232940.071026776 ; 0.0
72 ; 24847.100522535853 ; 31449.860155306655 ; 1282171.6697698615 ; 2264389.9311820827 ; 0.0
73 ; 24761.531464862208 ; 31449.860155306655 ; 1307018.7702923974 ; 2295839.7913373895 ; 0.0
74 ; 24936.665461934335 ; 31449.860155306655 ; 1331780.3017572595 ; 2327289.6514926963 ; 0.0
75 ; 24988.94345867714 ; 31449.860155306655 ; 1356716.967219194 ; 2358739.511648003 ; 0.0
76 ; 24890.60095588334 ; 31449.860155306655 ; 1381705.910677871 ; 2390189.37180331 ; 0.0
77 ; 25135.593610876214 ; 31449.860155306655 ; 1406596.5116337542 ; 2421639.2319586165 ; 0.0
78 ; 25191.58095223538 ; 31449.860155306655 ; 1431732.1052446305 ; 2453089.0921139233 ; 0.0
79 ; 25057.839949638965 ; 31449.860155306655 ; 1456923.686196866 ; 2484538.95226923 ; 0.0
80 ; 25148.75607851397 ; 31449.860155306655 ; 1481981.526146505 ; 2515988.812424537 ; 0.0
81 ; 25134.41250461558 ; 31449.860155306655 ; 1507130.282225019 ; 2547438.6725798436 ; 0.0
82 ; 25184.59683841771 ; 31449.860155306655 ; 1532264.6947296346 ; 2578888.5327351503 ; 0.0
83 ; 25237.30864582183 ; 31449.860155306655 ; 1557449.2915680523 ; 2610338.392890457 ; 0.0
84 ; 25181.52725409116 ; 31449.860155306655 ; 1582686.6002138741 ; 2641788.253045764 ; 0.0
85 ; 25123.52163159706 ; 31449.860155306655 ; 1607868.1274679652 ; 2673238.1132010706 ; 0.0
86 ; 25158.01565227339 ; 31449.860155306655 ; 1632991.6490995623 ; 2704687.9733563773 ; 0.0
87 ; 25130.95450631735 ; 31449.860155306655 ; 1658149.6647518356 ; 2736137.833511684 ; 0.0
88 ; 25009.41328786569 ; 31449.860155306655 ; 1683280.619258153 ; 2767587.693666991 ; 0.0
89 ; 24865.088933379062 ; 31449.860155306655 ; 1708290.0325460187 ; 2799037.5538222976 ; 0.0
90 ; 24994.312476228308 ; 31449.860155306655 ; 1733155.1214793979 ; 2830487.4139776044 ; 0.0
91 ; 25009.594376721358 ; 31449.860155306655 ; 1758149.433955626 ; 2861937.274132911 ; 0.0
92 ; 24873.612273378934 ; 31449.860155306655 ; 1783159.0283323475 ; 2893387.134288218 ; 0.0
93 ; 24715.905344616865 ; 31449.860155306655 ; 1808032.6406057265 ; 2924836.9944435246 ; 0.0
94 ; 24655.909539729397 ; 31449.860155306655 ; 1832748.5459503434 ; 2956286.8545988314 ; 0.0
95 ; 24697.05539791285 ; 31449.860155306655 ; 1857404.4554900727 ; 2987736.714754138 ; 0.0
96 ; 24505.179333760756 ; 31449.860155306655 ; 1882101.5108879856 ; 3019186.574909445 ; 0.0
97 ; 24446.7952668969 ; 31449.860155306655 ; 1906606.6902217465 ; 3050636.4350647517 ; 0.0
98 ; 24546.645187971953 ; 31449.860155306655 ; 1931053.4854886434 ; 3082086.2952200584 ; 0.0
99 ; 24352.36751494034 ; 31449.860155306655 ; 1955600.1306766153 ; 3113536.155375365 ; 0.0
100 ; 24167.971030871275 ; 31449.860155306655 ; 1979952.4981915557 ; 3144986.015530672 ; 0.0
101 ; 24112.356352739633 ; 31449.860155306655 ; 2004120.469222427 ; 3176435.8756859787 ; 0.0
102 ; 24043.895474489746 ; 31449.860155306655 ; 2028232.8255751668 ; 3207885.7358412854 ; 0.0
103 ; 23816.740331569556 ; 31449.860155306655 ; 2052276.7210496566 ; 3239335.595996592 ; 0.0
104 ; 23732.126591974833 ; 31449.860155306655 ; 2076093.461381226 ; 3270785.456151899 ; 0.0
105 ; 23665.649256083667 ; 31449.860155306655 ; 2099825.5879732007 ; 3302235.3163072057 ; 0.0
106 ; 23564.70340434456 ; 31449.860155306655 ; 2123491.2372292844 ; 3333685.1764625125 ; 0.0
107 ; 23430.85815237488 ; 31449.860155306655 ; 2147055.940633629 ; 3365135.036617819 ; 0.0
108 ; 23419.891032039897 ; 31449.860155306655 ; 2170486.798786004 ; 3396584.896773126 ; 0.0
109 ; 23155.874287035116 ; 31449.860155306655 ; 2193906.689818044 ; 3428034.7569284327 ; 0.0
110 ; 22955.057648614093 ; 31449.860155306655 ; 2217062.5641050795 ; 3459484.6170837395 ; 0.0
111 ; 22686.611945321463 ; 31449.860155306655 ; 2240017.6217536936 ; 3490934.4772390462 ; 0.0
112 ; 22850.446831062327 ; 31449.860155306655 ; 2262704.233699015 ; 3522384.337394353 ; 0.0
113 ; 22543.27004281641 ; 31449.860155306655 ; 2285554.6805300773 ; 3553834.1975496598 ; 0.0
114 ; 22359.13728558591 ; 31449.860155306655 ; 2308097.950572894 ; 3585284.0577049665 ; 0.0
115 ; 21984.68408676773 ; 31449.860155306655 ; 2330457.08785848 ; 3616733.9178602733 ; 0.0
116 ; 21929.618379405 ; 31449.860155306655 ; 2352441.771945248 ; 3648183.77801558 ; 0.0
117 ; 21794.813960824897 ; 31449.860155306655 ; 2374371.390324653 ; 3679633.638170887 ; 0.0
118 ; 21345.41437623954 ; 31449.860155306655 ; 2396166.204285478 ; 3711083.4983261935 ; 0.0
119 ; 21193.238157751337 ; 31449.860155306655 ; 2417511.618661718 ; 3742533.3584815003 ; 0.0
120 ; 21168.18917779482 ; 31449.860155306655 ; 2438704.8568194695 ; 3773983.218636807 ; 0.0
121 ; 20834.782627474993 ; 31449.860155306655 ; 2459873.0459972643 ; 3805433.078792114 ; 0.0
122 ; 20819.647834180672 ; 31449.860155306655 ; 2480707.8286247393 ; 3836882.9389474206 ; 0.0
123 ; 20395.334475679017 ; 31449.860155306655 ; 2501527.47645892 ; 3868332.7991027273 ; 0.0
124 ; 20157.22887789532 ; 31449.860155306655 ; 2521922.810934599 ; 3899782.659258034 ; 0.0
125 ; 19993.738013182283 ; 31449.860155306655 ; 2542080.0398124945 ; 3931232.519413341 ; 0.0
126 ; 19673.724779678512 ; 31449.860155306655 ; 2562073.777825677 ; 3962682.3795686476 ; 0.0
127 ; 19448.591325724927 ; 31449.860155306655 ; 2581747.5026053553 ; 3994132.2397239543 ; 0.0
128 ; 19228.26595413819 ; 31449.860155306655 ; 2601196.0939310803 ; 4025582.099879261 ; 0.0
129 ; 18862.54612560866 ; 31449.860155306655 ; 2620424.3598852186 ; 4057031.960034568 ; 0.0
130 ; 18811.009881357135 ; 31449.860155306655 ; 2639286.906010827 ; 4088481.8201898746 ; 0.0
131 ; 18243.542603446644 ; 31449.860155306655 ; 2658097.9158921842 ; 4119931.6803451814 ; 0.0
132 ; 18267.861448283616 ; 31449.860155306655 ; 2676341.458495631 ; 4151381.540500488 ; 0.0
133 ; 17797.1061208986 ; 31449.860155306655 ; 2694609.3199439147 ; 4182831.400655795 ; 0.0
134 ; 17587.348675342757 ; 31449.860155306655 ; 2712406.426064813 ; 4214281.260811102 ; 0.0
135 ; 17318.10483815124 ; 31449.860155306655 ; 2729993.774740156 ; 4245731.120966408 ; 0.0
136 ; 16991.18994600572 ; 31449.860155306655 ; 2747311.879578307 ; 4277180.981121715 ; 0.0
137 ; 16705.767533986516 ; 31449.860155306655 ; 2764303.0695243124 ; 4308630.841277022 ; 0.0
138 ; 16293.58046905675 ; 31449.860155306655 ; 2781008.8370582988 ; 4340080.701432329 ; 0.0
139 ; 16153.345308592505 ; 31449.860155306655 ; 2797302.4175273557 ; 4371530.561587635 ; 0.0
140 ; 15578.345359091749 ; 31449.860155306655 ; 2813455.7628359483 ; 4402980.421742942 ; 0.0
141 ; 15313.726202283844 ; 31449.860155306655 ; 2829034.10819504 ; 4434430.281898249 ; 0.0
142 ; 14983.801581639978 ; 31449.860155306655 ; 2844347.834397324 ; 4465880.142053556 ; 0.0
143 ; 14705.076773063563 ; 31449.860155306655 ; 2859331.6359789637 ; 4497330.002208862 ; 0.0
144 ; 14348.137192831156 ; 31449.860155306655 ; 2874036.7127520274 ; 4528779.862364169 ; 0.0
145 ; 14078.197122599126 ; 31449.860155306655 ; 2888384.849944859 ; 4560229.722519476 ; 0.0
146 ; 14097.309641926899 ; 31449.860155306655 ; 2902463.047067458 ; 4591679.582674783 ; 0.0
147 ; 14086.388654625729 ; 31449.860155306655 ; 2916560.356709385 ; 4623129.4428300895 ; 0.0
148 ; 13978.051307252676 ; 31449.860155306655 ; 2930646.7453640103 ; 4654579.302985396 ; 0.0
149 ; 14006.802525369696 ; 31449.860155306655 ; 2944624.796671263 ; 4686029.163140703 ; 0.0
150 ; 13867.589935866736 ; 31449.860155306655 ; 2958631.599196633 ; 4717479.02329601 ; 0.0
151 ; 13494.513261748953 ; 31449.860155306655 ; 2972499.1891324995 ; 4748928.8834513165 ; 0.0
152 ; 13592.74322704047 ; 31449.860155306655 ; 2985993.7023942485 ; 4780378.743606623 ; 0.0
153 ; 13345.335360756488 ; 31449.860155306655 ; 2999586.445621289 ; 4811828.60376193 ; 0.0
154 ; 13136.55294802269 ; 31449.860155306655 ; 3012931.7809820455 ; 4843278.463917237 ; 0.0
155 ; 13100.996328882062 ; 31449.860155306655 ; 3026068.333930068 ; 4874728.3240725435 ; 0.0
156 ; 12926.041559732963 ; 31449.860155306655 ; 3039169.33025895 ; 4906178.18422785 ; 0.0
157 ; 13006.045742035602 ; 31449.860155306655 ; 3052095.371818683 ; 4937628.044383157 ; 0.0
158 ; 12762.99374597512 ; 31449.860155306655 ; 3065101.4175607185 ; 4969077.904538464 ; 0.0
159 ; 12902.570278826162 ; 31449.860155306655 ; 3077864.4113066937 ; 5000527.764693771 ; 0.0
160 ; 12627.316117358892 ; 31449.860155306655 ; 3090766.98158552 ; 5031977.624849077 ; 0.0
161 ; 12356.08630890675 ; 31449.860155306655 ; 3103394.2977028787 ; 5063427.485004384 ; 0.0
162 ; 12377.17745854686 ; 31449.860155306655 ; 3115750.3840117855 ; 5094877.345159691 ; 0.0
163 ; 12084.842561454638 ; 31449.860155306655 ; 3128127.5614703326 ; 5126327.205314998 ; 0.0
164 ; 12118.00043857988 ; 31449.860155306655 ; 3140212.404031787 ; 5157777.065470304 ; 0.0
165 ; 11930.258342426587 ; 31449.860155306655 ; 3152330.404470367 ; 5189226.925625611 ; 0.0
166 ; 11590.447992650226 ; 31449.860155306655 ; 3164260.6628127936 ; 5220676.785780918 ; 0.0
167 ; 11633.80864850171 ; 31449.860155306655 ; 3175851.110805444 ; 5252126.645936225 ; 0.0
168 ; 11346.325266373826 ; 31449.860155306655 ; 3187484.9194539455 ; 5283576.506091531 ; 0.0
169 ; 11330.94954837972 ; 31449.860155306655 ; 3198831.2447203193 ; 5315026.366246838 ; 0.0
170 ; 11244.067300918348 ; 31449.860155306655 ; 3210162.194268699 ; 5346476.226402145 ; 0.0
171 ; 11038.148045679813 ; 31449.860155306655 ; 3221406.2615696173 ; 5377926.086557452 ; 0.0
172 ; 10842.985945873337 ; 31449.860155306655 ; 3232444.4096152973 ; 5409375.946712758 ; 0.0
173 ; 10708.538410646295 ; 31449.860155306655 ; 3243287.3955611708 ; 5440825.806868065 ; 0.0
174 ; 10775.99336920669 ; 31449.860155306655 ; 3253995.933971817 ; 5472275.667023372 ; 0.0
175 ; 10797.959245969723 ; 31449.860155306655 ; 3264771.927341024 ; 5503725.527178679 ; 0.0
176 ; 10779.93932837473 ; 31449.860155306655 ; 3275569.8865869935 ; 5535175.387333985 ; 0.0
177 ; 10820.14763183714 ; 31449.860155306655 ; 3286349.8259153683 ; 5566625.247489292 ; 0.0
178 ; 10893.415909254849 ; 31449.860155306655 ; 3297169.9735472053 ; 5598075.107644599 ; 0.0
179 ; 11020.632716217244 ; 31449.860155306655 ; 3308063.3894564603 ; 5629524.967799906 ; 0.0
180 ; 10773.931810328284 ; 31449.860155306655 ; 3319084.0221726773 ; 5660974.827955212 ; 0.0
181 ; 11084.921323523833 ; 31449.860155306655 ; 3329857.9539830056 ; 5692424.688110519 ; 0.0
182 ; 11063.472642807747 ; 31449.860155306655 ; 3340942.8753065295 ; 5723874.548265826 ; 0.0
183 ; 10839.938351281065 ; 31449.860155306655 ; 3352006.347949337 ; 5755324.408421133 ; 0.0
184 ; 11071.471156690699 ; 31449.860155306655 ; 3362846.286300618 ; 5786774.2685764395 ; 0.0
185 ; 10957.118443159692 ; 31449.860155306655 ; 3373917.757457309 ; 5818224.128731746 ; 0.0
186 ; 11301.663068981761 ; 31449.860155306655 ; 3384874.875900469 ; 5849673.988887053 ; 0.0
187 ; 11030.871323680807 ; 31449.860155306655 ; 3396176.5389694506 ; 5881123.84904236 ; 0.0
188 ; 11122.69477302356 ; 31449.860155306655 ; 3407207.4102931316 ; 5912573.7091976665 ; 0.0
189 ; 11053.210953974582 ; 31449.860155306655 ; 3418330.105066155 ; 5944023.569352973 ; 0.0
190 ; 11366.166250124847 ; 31449.860155306655 ; 3429383.3160201297 ; 5975473.42950828 ; 0.0
191 ; 11190.01137966038 ; 31449.860155306655 ; 3440749.4822702548 ; 6006923.289663587 ; 0.0
192 ; 11235.545738127006 ; 31449.860155306655 ; 3451939.4936499153 ; 6038373.1498188935 ; 0.0
193 ; 11119.919815329225 ; 31449.860155306655 ; 3463175.0393880424 ; 6069823.0099742 ; 0.0
194 ; 11226.035134447455 ; 31449.860155306655 ; 3474294.959203372 ; 6101272.870129507 ; 0.0
195 ; 11553.60110452455 ; 31449.860155306655 ; 3485520.994337819 ; 6132722.730284814 ; 0.0
196 ; 11326.967225570825 ; 31449.860155306655 ; 3497074.5954423435 ; 6164172.590440121 ; 0.0
197 ; 11472.528350746345 ; 31449.860155306655 ; 3508401.562667914 ; 6195622.450595427 ; 0.0
198 ; 11474.912879881933 ; 31449.860155306655 ; 3519874.0910186605 ; 6227072.310750734 ; 0.0
199 ; 11295.683799685663 ; 31449.860155306655 ; 3531349.0038985424 ; 6258522.170906041 ; 0.0
200 ; 11537.618662256455 ; 31449.860155306655 ; 3542644.687698228 ; 6289972.031061348 ; 0.0
201 ; 11574.145278897173 ; 31449.860155306655 ; 3554182.306360484 ; 6321421.891216654 ; 0.0
202 ; 11637.700612251514 ; 31449.860155306655 ; 3565756.4516393812 ; 6352871.751371961 ; 0.0
203 ; 11485.848969260454 ; 31449.860155306655 ; 3577394.152251633 ; 6384321.611527268 ; 0.0
204 ; 11581.719379110922 ; 31449.860155306655 ; 3588880.001220893 ; 6415771.471682575 ; 0.0
205 ; 11581.723579615213 ; 31449.860155306655 ; 3600461.720600004 ; 6447221.331837881 ; 0.0
206 ; 11635.653914130273 ; 31449.860155306655 ; 3612043.444179619 ; 6478671.191993188 ; 0.0
207 ; 11663.157599970305 ; 31449.860155306655 ; 3623679.0980937495 ; 6510121.052148495 ; 0.0
208 ; 11667.18897354999 ; 31449.860155306655 ; 3635342.2556937197 ; 6541570.912303802 ; 0.0
209 ; 11739.806579416392 ; 31449.860155306655 ; 3647009.44466727 ; 6573020.772459108 ; 0.0
210 ; 11782.714579344925 ; 31449.860155306655 ; 3658749.2512466866 ; 6604470.632614415 ; 0.0
211 ; 11829.875323970105 ; 31449.860155306655 ; 3670531.9658260313 ; 6635920.492769722 ; 0.0
212 ; 11845.098329128978 ; 31449.860155306655 ; 3682361.8411500016 ; 6667370.352925029 ; 0.0
213 ; 11779.668553856283 ; 31449.860155306655 ; 3694206.939479131 ; 6698820.213080335 ; 0.0
