CSV File for the City 1 on Day 203
1 - Minute m 
2 - Power Consumed at minute m 
3 - Power Produced at minute m 
4 - Energy Consumed since the beginning of the day 
5 - Energy Produced since the beginning of the day 
6 - Energy Lost since the beginning of the day on lines starting from the city
 
0 ; 5216.206567217561 ; 4379.069237211141 ; 0.0 ; 0.0 ; 0.0
1 ; 5893.72466201257 ; 4379.069237211141 ; 5216.206567217561 ; 4379.069237211141 ; 238.00000000000003
2 ; 6414.1837421846785 ; 4379.069237211141 ; 11109.931229230131 ; 8758.138474422281 ; 476.00000000000006
3 ; 7020.439530670474 ; 4379.069237211141 ; 17524.11497141481 ; 13137.207711633422 ; 714.0000000000001
4 ; 7790.839527232687 ; 4379.069237211141 ; 24544.55450208528 ; 17516.276948844563 ; 952.0000000000001
5 ; 8592.424547941639 ; 4379.069237211141 ; 32335.39402931797 ; 21895.346186055704 ; 1190.0000000000002
6 ; 9061.397875282655 ; 4379.069237211141 ; 40927.818577259604 ; 26274.415423266844 ; 1428.0000000000002
7 ; 9586.974021567297 ; 4379.069237211141 ; 49989.216452542256 ; 30653.484660477985 ; 1666.0000000000002
8 ; 9973.74615303728 ; 4379.069237211141 ; 59576.19047410955 ; 35032.553897689126 ; 1904.0000000000002
9 ; 10654.814611692189 ; 4379.069237211141 ; 69549.93662714683 ; 39411.62313490026 ; 2142.0000000000005
10 ; 11132.448951923176 ; 4379.069237211141 ; 80204.75123883902 ; 43790.6923721114 ; 2380.0000000000005
11 ; 11783.259359511427 ; 4379.069237211141 ; 91337.20019076219 ; 48169.76160932254 ; 2618.0000000000005
12 ; 12530.531062229531 ; 4379.069237211141 ; 103120.45955027362 ; 52548.830846533674 ; 2856.0000000000005
13 ; 12966.396407254331 ; 4379.069237211141 ; 115650.99061250316 ; 56927.90008374481 ; 3094.0000000000005
14 ; 13402.41035817361 ; 4379.069237211141 ; 128617.38701975749 ; 61306.96932095595 ; 3332.0000000000005
15 ; 14021.942990614647 ; 4379.069237211141 ; 142019.7973779311 ; 65686.03855816709 ; 3570.0000000000005
16 ; 14466.387471136632 ; 4379.069237211141 ; 156041.74036854575 ; 70065.10779537822 ; 3808.0000000000005
17 ; 14985.168497333865 ; 4379.069237211141 ; 170508.1278396824 ; 74444.17703258936 ; 4046.0000000000005
18 ; 15530.947572450807 ; 4379.069237211141 ; 185493.29633701625 ; 78823.2462698005 ; 4284.000000000001
19 ; 16091.083170641245 ; 4379.069237211141 ; 201024.24390946704 ; 83202.31550701163 ; 4522.000000000001
20 ; 16574.29589037203 ; 4379.069237211141 ; 217115.32708010828 ; 87581.38474422277 ; 4760.000000000001
21 ; 16864.682809552036 ; 4379.069237211141 ; 233689.6229704803 ; 91960.45398143391 ; 4998.000000000001
22 ; 17432.615816976922 ; 4379.069237211141 ; 250554.30578003233 ; 96339.52321864504 ; 5236.000000000001
23 ; 17773.632010994726 ; 4379.069237211141 ; 267986.92159700923 ; 100718.59245585618 ; 5474.000000000001
24 ; 18356.80795772507 ; 4379.069237211141 ; 285760.55360800395 ; 105097.66169306732 ; 5712.000000000001
25 ; 18732.982051308914 ; 4379.069237211141 ; 304117.361565729 ; 109476.73093027846 ; 5950.000000000001
26 ; 19235.095623447505 ; 4379.069237211141 ; 322850.3436170379 ; 113855.8001674896 ; 6188.000000000001
27 ; 19611.18560908291 ; 4379.069237211141 ; 342085.43924048543 ; 118234.86940470073 ; 6426.000000000001
28 ; 20103.977109097195 ; 4379.069237211141 ; 361696.62484956835 ; 122613.93864191187 ; 6664.000000000001
29 ; 20444.624933466333 ; 4379.069237211141 ; 381800.60195866553 ; 126993.007879123 ; 6902.000000000001
30 ; 20990.599515047496 ; 4379.069237211141 ; 402245.22689213185 ; 131372.07711633414 ; 7140.000000000001
31 ; 21202.260067381096 ; 4379.069237211141 ; 423235.82640717935 ; 135751.14635354528 ; 7378.000000000001
32 ; 21621.287901630225 ; 4379.069237211141 ; 444438.08647456043 ; 140130.21559075642 ; 7616.000000000001
33 ; 22170.795995737764 ; 4379.069237211141 ; 466059.37437619065 ; 144509.28482796755 ; 7854.000000000001
34 ; 22551.89120290502 ; 4379.069237211141 ; 488230.1703719284 ; 148888.3540651787 ; 8092.000000000001
35 ; 22929.123415053407 ; 4379.069237211141 ; 510782.06157483347 ; 153267.42330238983 ; 8330.000000000002
36 ; 23144.485928855112 ; 4379.069237211141 ; 533711.1849898868 ; 157646.49253960096 ; 8568.000000000002
37 ; 23758.228005033703 ; 4379.069237211141 ; 556855.670918742 ; 162025.5617768121 ; 8806.000000000002
38 ; 23821.015385503342 ; 4379.069237211141 ; 580613.8989237756 ; 166404.63101402324 ; 9044.000000000002
39 ; 24154.236468469993 ; 4379.069237211141 ; 604434.914309279 ; 170783.70025123438 ; 9282.000000000002
40 ; 24546.006650485397 ; 4379.069237211141 ; 628589.1507777489 ; 175162.7694884455 ; 9520.000000000002
41 ; 24908.510837646067 ; 4379.069237211141 ; 653135.1574282343 ; 179541.83872565665 ; 9758.000000000002
42 ; 25324.693281488027 ; 4379.069237211141 ; 678043.6682658804 ; 183920.9079628678 ; 9996.000000000002
43 ; 25259.611315352984 ; 4379.069237211141 ; 703368.3615473685 ; 188299.97720007892 ; 10234.000000000002
44 ; 25646.218963182495 ; 4379.069237211141 ; 728627.9728627214 ; 192679.04643729006 ; 10472.000000000002
45 ; 26234.504931138952 ; 4379.069237211141 ; 754274.191825904 ; 197058.1156745012 ; 10710.000000000002
46 ; 26479.313671712913 ; 4379.069237211141 ; 780508.6967570429 ; 201437.18491171233 ; 10948.000000000002
47 ; 26644.940068503263 ; 4379.069237211141 ; 806988.0104287558 ; 205816.25414892347 ; 11186.000000000002
48 ; 26853.491925457707 ; 4379.069237211141 ; 833632.950497259 ; 210195.3233861346 ; 11424.000000000002
49 ; 27102.74975534434 ; 4379.069237211141 ; 860486.4424227168 ; 214574.39262334575 ; 11662.000000000002
50 ; 27558.380274036 ; 4379.069237211141 ; 887589.1921780611 ; 218953.46186055688 ; 11900.000000000002
51 ; 27704.38546750009 ; 4379.069237211141 ; 915147.5724520971 ; 223332.53109776802 ; 12138.000000000002
52 ; 28094.924283549728 ; 4379.069237211141 ; 942851.9579195972 ; 227711.60033497916 ; 12376.000000000002
53 ; 28176.32017441978 ; 4379.069237211141 ; 970946.8822031469 ; 232090.6695721903 ; 12614.000000000002
54 ; 28492.918373227214 ; 4379.069237211141 ; 999123.2023775667 ; 236469.73880940143 ; 12852.000000000002
55 ; 28622.917087891463 ; 4379.069237211141 ; 1027616.120750794 ; 240848.80804661257 ; 13090.000000000002
56 ; 28937.566422846514 ; 4379.069237211141 ; 1056239.0378386853 ; 245227.8772838237 ; 13328.000000000002
57 ; 29004.523147634794 ; 4379.069237211141 ; 1085176.6042615317 ; 249606.94652103484 ; 13566.000000000002
58 ; 29130.746660546996 ; 4379.069237211141 ; 1114181.1274091664 ; 253986.01575824598 ; 13804.000000000002
59 ; 29570.357277969877 ; 4379.069237211141 ; 1143311.8740697135 ; 258365.08499545712 ; 14042.000000000002
60 ; 29674.996390445398 ; 4379.069237211141 ; 1172882.2313476834 ; 262744.1542326683 ; 14280.000000000002
61 ; 29839.617119739156 ; 4379.069237211141 ; 1202557.2277381287 ; 267123.2234698794 ; 14518.000000000002
62 ; 29834.25566792171 ; 4379.069237211141 ; 1232396.8448578678 ; 271502.29270709056 ; 14756.000000000002
63 ; 29963.93318983337 ; 4379.069237211141 ; 1262231.1005257894 ; 275881.3619443017 ; 14994.000000000002
64 ; 30331.168909255735 ; 4379.069237211141 ; 1292195.0337156227 ; 280260.43118151283 ; 15232.000000000002
65 ; 30291.728641592617 ; 4379.069237211141 ; 1322526.2026248784 ; 284639.50041872397 ; 15470.000000000002
66 ; 30572.283536537223 ; 4379.069237211141 ; 1352817.931266471 ; 289018.5696559351 ; 15708.000000000002
67 ; 30799.676176996774 ; 4379.069237211141 ; 1383390.2148030084 ; 293397.63889314624 ; 15946.000000000002
68 ; 30658.370861063995 ; 4379.069237211141 ; 1414189.890980005 ; 297776.7081303574 ; 16184.000000000002
69 ; 30779.69113888994 ; 4379.069237211141 ; 1444848.261841069 ; 302155.7773675685 ; 16422.000000000004
70 ; 30970.251649718983 ; 4379.069237211141 ; 1475627.9529799588 ; 306534.84660477965 ; 16660.000000000004
71 ; 30873.171607000953 ; 4379.069237211141 ; 1506598.2046296778 ; 310913.9158419908 ; 16898.000000000004
72 ; 31060.231909755417 ; 4379.069237211141 ; 1537471.3762366788 ; 315292.9850792019 ; 17136.000000000004
73 ; 31289.876761328596 ; 4379.069237211141 ; 1568531.6081464342 ; 319672.05431641306 ; 17374.000000000004
74 ; 31107.896683464627 ; 4379.069237211141 ; 1599821.4849077628 ; 324051.1235536242 ; 17612.000000000004
75 ; 31426.65297519134 ; 4379.069237211141 ; 1630929.3815912274 ; 328430.19279083534 ; 17850.000000000004
76 ; 31442.89279135609 ; 4379.069237211141 ; 1662356.0345664187 ; 332809.2620280465 ; 18088.000000000004
77 ; 31595.851000591687 ; 4379.069237211141 ; 1693798.927357775 ; 337188.3312652576 ; 18326.000000000004
78 ; 31460.492104620396 ; 4379.069237211141 ; 1725394.7783583666 ; 341567.40050246875 ; 18564.000000000004
79 ; 31594.137233406025 ; 4379.069237211141 ; 1756855.270462987 ; 345946.4697396799 ; 18802.000000000004
80 ; 31673.668762192672 ; 4379.069237211141 ; 1788449.407696393 ; 350325.538976891 ; 19040.000000000004
81 ; 31530.159540785455 ; 4379.069237211141 ; 1820123.0764585857 ; 354704.60821410216 ; 19278.000000000004
82 ; 31645.789670635597 ; 4379.069237211141 ; 1851653.2359993712 ; 359083.6774513133 ; 19516.000000000004
83 ; 31586.716571036497 ; 4379.069237211141 ; 1883299.0256700069 ; 363462.74668852444 ; 19754.000000000004
84 ; 31605.48290028509 ; 4379.069237211141 ; 1914885.7422410434 ; 367841.8159257356 ; 19992.000000000004
85 ; 31592.102230749122 ; 4379.069237211141 ; 1946491.2251413285 ; 372220.8851629467 ; 20230.000000000004
86 ; 31396.286574924263 ; 4379.069237211141 ; 1978083.3273720776 ; 376599.95440015785 ; 20468.000000000004
87 ; 31624.436217358783 ; 4379.069237211141 ; 2009479.613947002 ; 380979.023637369 ; 20706.000000000004
88 ; 31570.416859160694 ; 4379.069237211141 ; 2041104.0501643608 ; 385358.0928745801 ; 20944.000000000004
89 ; 31412.212765965884 ; 4379.069237211141 ; 2072674.4670235214 ; 389737.16211179126 ; 21182.000000000004
90 ; 31281.201773589033 ; 4379.069237211141 ; 2104086.6797894873 ; 394116.2313490024 ; 21420.000000000004
91 ; 31333.601928128977 ; 4379.069237211141 ; 2135367.8815630763 ; 398495.30058621353 ; 21658.000000000004
92 ; 31248.213118215728 ; 4379.069237211141 ; 2166701.483491205 ; 402874.36982342467 ; 21896.000000000004
93 ; 31314.890126807644 ; 4379.069237211141 ; 2197949.6966094207 ; 407253.4390606358 ; 22134.000000000004
94 ; 30930.735615494934 ; 4379.069237211141 ; 2229264.5867362283 ; 411632.50829784694 ; 22372.000000000004
95 ; 30957.9668750811 ; 4379.069237211141 ; 2260195.3223517234 ; 416011.5775350581 ; 22610.000000000004
96 ; 30865.63900099815 ; 4379.069237211141 ; 2291153.2892268044 ; 420390.6467722692 ; 22848.000000000004
97 ; 30597.26936191617 ; 4379.069237211141 ; 2322018.9282278027 ; 424769.71600948035 ; 23086.000000000004
98 ; 30704.36670202845 ; 4379.069237211141 ; 2352616.1975897187 ; 429148.7852466915 ; 23324.000000000004
99 ; 30542.711809272838 ; 4379.069237211141 ; 2383320.5642917473 ; 433527.8544839026 ; 23562.000000000004
100 ; 30243.747613804124 ; 4379.069237211141 ; 2413863.27610102 ; 437906.92372111377 ; 23800.000000000004
101 ; 30278.2208376498 ; 4379.069237211141 ; 2444107.023714824 ; 442285.9929583249 ; 24038.000000000004
102 ; 29925.1079818116 ; 4379.069237211141 ; 2474385.244552474 ; 446665.06219553604 ; 24276.000000000004
103 ; 29823.41270108668 ; 4379.069237211141 ; 2504310.3525342857 ; 451044.1314327472 ; 24514.000000000004
104 ; 29645.31128887719 ; 4379.069237211141 ; 2534133.7652353724 ; 455423.2006699583 ; 24752.000000000004
105 ; 29597.339776409848 ; 4379.069237211141 ; 2563779.0765242497 ; 459802.26990716945 ; 24990.000000000004
106 ; 29249.55199243566 ; 4379.069237211141 ; 2593376.4163006595 ; 464181.3391443806 ; 25228.000000000004
107 ; 29002.0206045201 ; 4379.069237211141 ; 2622625.968293095 ; 468560.4083815917 ; 25466.000000000004
108 ; 29126.009729381127 ; 4379.069237211141 ; 2651627.988897615 ; 472939.47761880286 ; 25704.000000000004
109 ; 28854.21787995752 ; 4379.069237211141 ; 2680753.9986269963 ; 477318.546856014 ; 25942.000000000004
110 ; 28655.639463996944 ; 4379.069237211141 ; 2709608.216506954 ; 481697.61609322514 ; 26180.000000000004
111 ; 28346.38723894105 ; 4379.069237211141 ; 2738263.855970951 ; 486076.6853304363 ; 26418.000000000004
112 ; 28231.463127763574 ; 4379.069237211141 ; 2766610.243209892 ; 490455.7545676474 ; 26656.000000000004
113 ; 28000.358828698503 ; 4379.069237211141 ; 2794841.7063376554 ; 494834.82380485855 ; 26894.000000000004
114 ; 27602.53182378321 ; 4379.069237211141 ; 2822842.0651663537 ; 499213.8930420697 ; 27132.000000000004
115 ; 27405.800921496822 ; 4379.069237211141 ; 2850444.596990137 ; 503592.9622792808 ; 27370.000000000004
116 ; 27340.63596247351 ; 4379.069237211141 ; 2877850.397911634 ; 507972.03151649196 ; 27608.000000000004
117 ; 26992.16088006601 ; 4379.069237211141 ; 2905191.0338741075 ; 512351.1007537031 ; 27846.000000000004
118 ; 26653.48241011662 ; 4379.069237211141 ; 2932183.1947541735 ; 516730.16999091423 ; 28084.000000000004
119 ; 26371.375830340556 ; 4379.069237211141 ; 2958836.67716429 ; 521109.23922812537 ; 28322.000000000004
120 ; 26189.72844668017 ; 4379.069237211141 ; 2985208.0529946308 ; 525488.3084653366 ; 28560.000000000004
121 ; 25784.319545543905 ; 4379.069237211141 ; 3011397.781441311 ; 529867.3777025477 ; 28798.000000000004
122 ; 25589.899820359227 ; 4379.069237211141 ; 3037182.1009868546 ; 534246.4469397588 ; 29036.000000000004
123 ; 25058.2791913372 ; 4379.069237211141 ; 3062772.000807214 ; 538625.51617697 ; 29274.000000000004
124 ; 24818.214933922245 ; 4379.069237211141 ; 3087830.279998551 ; 543004.5854141811 ; 29512.000000000004
125 ; 24504.488334018126 ; 4379.069237211141 ; 3112648.494932473 ; 547383.6546513923 ; 29750.000000000004
126 ; 24171.84395439712 ; 4379.069237211141 ; 3137152.9832664914 ; 551762.7238886034 ; 29988.000000000004
127 ; 23821.20792696447 ; 4379.069237211141 ; 3161324.8272208883 ; 556141.7931258145 ; 30226.000000000004
128 ; 23556.977206439264 ; 4379.069237211141 ; 3185146.0351478527 ; 560520.8623630257 ; 30464.000000000004
129 ; 23049.293414763662 ; 4379.069237211141 ; 3208703.012354292 ; 564899.9316002368 ; 30702.000000000004
130 ; 22784.51109403021 ; 4379.069237211141 ; 3231752.3057690556 ; 569279.0008374479 ; 30940.000000000004
131 ; 22557.603423182845 ; 4379.069237211141 ; 3254536.8168630856 ; 573658.0700746591 ; 31178.000000000004
132 ; 21960.08959653857 ; 4379.069237211141 ; 3277094.4202862685 ; 578037.1393118702 ; 31416.000000000004
133 ; 21641.934610934502 ; 4379.069237211141 ; 3299054.509882807 ; 582416.2085490813 ; 31654.000000000004
134 ; 21319.670927413532 ; 4379.069237211141 ; 3320696.4444937413 ; 586795.2777862925 ; 31892.000000000004
135 ; 20800.127822178358 ; 4379.069237211141 ; 3342016.115421155 ; 591174.3470235036 ; 32130.000000000004
136 ; 20287.706831155003 ; 4379.069237211141 ; 3362816.2432433334 ; 595553.4162607148 ; 32368.000000000004
137 ; 20052.94509549359 ; 4379.069237211141 ; 3383103.9500744883 ; 599932.4854979259 ; 32606.000000000004
138 ; 19815.139110911914 ; 4379.069237211141 ; 3403156.8951699818 ; 604311.554735137 ; 32844.00000000001
139 ; 19263.433181710563 ; 4379.069237211141 ; 3422972.034280894 ; 608690.6239723482 ; 33082.00000000001
140 ; 18568.66938519558 ; 4379.069237211141 ; 3442235.4674626044 ; 613069.6932095593 ; 33320.00000000001
141 ; 18445.556038316525 ; 4379.069237211141 ; 3460804.1368478 ; 617448.7624467704 ; 33558.00000000001
142 ; 17923.291736379866 ; 4379.069237211141 ; 3479249.6928861164 ; 621827.8316839816 ; 33796.00000000001
143 ; 17398.97034990589 ; 4379.069237211141 ; 3497172.984622496 ; 626206.9009211927 ; 34034.00000000001
144 ; 16989.920916790114 ; 4379.069237211141 ; 3514571.954972402 ; 630585.9701584039 ; 34272.00000000001
145 ; 16793.897123357565 ; 4379.069237211141 ; 3531561.8758891923 ; 634965.039395615 ; 34510.00000000001
146 ; 16649.53594304321 ; 4379.069237211141 ; 3548355.77301255 ; 639344.1086328261 ; 34748.00000000001
147 ; 16579.340417382755 ; 4379.069237211141 ; 3565005.3089555935 ; 643723.1778700373 ; 34986.00000000001
148 ; 16378.21197221727 ; 4379.069237211141 ; 3581584.6493729763 ; 648102.2471072484 ; 35224.00000000001
149 ; 16129.665709394516 ; 4379.069237211141 ; 3597962.8613451933 ; 652481.3163444595 ; 35462.00000000001
150 ; 16242.865952324759 ; 4379.069237211141 ; 3614092.527054588 ; 656860.3855816707 ; 35700.00000000001
151 ; 15949.919839037728 ; 4379.069237211141 ; 3630335.3930069124 ; 661239.4548188818 ; 35938.00000000001
152 ; 15868.332578074986 ; 4379.069237211141 ; 3646285.31284595 ; 665618.524056093 ; 36176.00000000001
153 ; 15676.440046233089 ; 4379.069237211141 ; 3662153.645424025 ; 669997.5932933041 ; 36414.00000000001
154 ; 15466.16854737998 ; 4379.069237211141 ; 3677830.0854702583 ; 674376.6625305152 ; 36652.00000000001
155 ; 15310.443347917055 ; 4379.069237211141 ; 3693296.254017638 ; 678755.7317677264 ; 36890.00000000001
156 ; 15344.016651282498 ; 4379.069237211141 ; 3708606.697365555 ; 683134.8010049375 ; 37128.00000000001
157 ; 15094.669168713881 ; 4379.069237211141 ; 3723950.7140168375 ; 687513.8702421486 ; 37366.00000000001
158 ; 15044.639674690663 ; 4379.069237211141 ; 3739045.3831855515 ; 691892.9394793598 ; 37604.00000000001
159 ; 14490.229256769655 ; 4379.069237211141 ; 3754090.022860242 ; 696272.0087165709 ; 37842.00000000001
160 ; 14602.973735870182 ; 4379.069237211141 ; 3768580.2521170117 ; 700651.077953782 ; 38080.00000000001
161 ; 14399.778908681015 ; 4379.069237211141 ; 3783183.225852882 ; 705030.1471909932 ; 38318.00000000001
162 ; 14281.770059995319 ; 4379.069237211141 ; 3797583.004761563 ; 709409.2164282043 ; 38556.00000000001
163 ; 14224.82767840914 ; 4379.069237211141 ; 3811864.7748215585 ; 713788.2856654155 ; 38794.00000000001
164 ; 13918.271725196162 ; 4379.069237211141 ; 3826089.6024999674 ; 718167.3549026266 ; 39032.00000000001
165 ; 13637.88743918494 ; 4379.069237211141 ; 3840007.874225164 ; 722546.4241398377 ; 39270.00000000001
166 ; 13735.600079592223 ; 4379.069237211141 ; 3853645.7616643487 ; 726925.4933770489 ; 39508.00000000001
167 ; 13361.295542688784 ; 4379.069237211141 ; 3867381.361743941 ; 731304.56261426 ; 39746.00000000001
168 ; 13095.196107191587 ; 4379.069237211141 ; 3880742.6572866295 ; 735683.6318514711 ; 39984.00000000001
169 ; 12920.75625342593 ; 4379.069237211141 ; 3893837.853393821 ; 740062.7010886823 ; 40222.00000000001
170 ; 12853.855552150557 ; 4379.069237211141 ; 3906758.609647247 ; 744441.7703258934 ; 40460.00000000001
171 ; 12598.19714471774 ; 4379.069237211141 ; 3919612.4651993974 ; 748820.8395631046 ; 40698.00000000001
172 ; 12227.531251558119 ; 4379.069237211141 ; 3932210.6623441153 ; 753199.9088003157 ; 40936.00000000001
173 ; 12365.550408240553 ; 4379.069237211141 ; 3944438.1935956734 ; 757578.9780375268 ; 41174.00000000001
174 ; 12149.570032026517 ; 4379.069237211141 ; 3956803.744003914 ; 761958.047274738 ; 41412.00000000001
175 ; 12106.19250517454 ; 4379.069237211141 ; 3968953.3140359404 ; 766337.1165119491 ; 41650.00000000001
176 ; 12296.762273034663 ; 4379.069237211141 ; 3981059.5065411148 ; 770716.1857491602 ; 41888.00000000001
177 ; 12363.761867908204 ; 4379.069237211141 ; 3993356.2688141493 ; 775095.2549863714 ; 42126.00000000001
178 ; 12341.864429234462 ; 4379.069237211141 ; 4005720.0306820576 ; 779474.3242235825 ; 42364.00000000001
179 ; 12443.687937121227 ; 4379.069237211141 ; 4018061.895111292 ; 783853.3934607937 ; 42602.00000000001
180 ; 12516.452995130745 ; 4379.069237211141 ; 4030505.5830484135 ; 788232.4626980048 ; 42840.00000000001
181 ; 12438.253966508706 ; 4379.069237211141 ; 4043022.0360435443 ; 792611.5319352159 ; 43078.00000000001
182 ; 12408.506502707958 ; 4379.069237211141 ; 4055460.290010053 ; 796990.6011724271 ; 43316.00000000001
183 ; 12562.75731131063 ; 4379.069237211141 ; 4067868.796512761 ; 801369.6704096382 ; 43554.00000000001
184 ; 12529.064363118694 ; 4379.069237211141 ; 4080431.553824072 ; 805748.7396468493 ; 43792.00000000001
185 ; 12617.303028387436 ; 4379.069237211141 ; 4092960.6181871905 ; 810127.8088840605 ; 44030.00000000001
186 ; 12674.001649922495 ; 4379.069237211141 ; 4105577.921215578 ; 814506.8781212716 ; 44268.00000000001
