CSV File for the City 1 on Day 240
1 - Minute m 
2 - Power Consumed at minute m 
3 - Power Produced at minute m 
4 - Energy Consumed since the beginning of the day 
5 - Energy Produced since the beginning of the day 
6 - Energy Lost since the beginning of the day on lines starting from the city
 
0 ; 5610.540485318761 ; 3596.3574288534437 ; 0.0 ; 0.0 ; 0.0
1 ; 6544.312118661096 ; 3596.3574288534437 ; 5610.540485318761 ; 3596.3574288534437 ; 238.00000000000003
2 ; 6991.939384291656 ; 3596.3574288534437 ; 12154.852603979856 ; 7192.714857706887 ; 476.00000000000006
3 ; 7351.756324796 ; 3596.3574288534437 ; 19146.791988271514 ; 10789.072286560331 ; 714.0000000000001
4 ; 8092.727815838435 ; 3596.3574288534437 ; 26498.548313067513 ; 14385.429715413775 ; 952.0000000000001
5 ; 8706.948830611316 ; 3596.3574288534437 ; 34591.27612890595 ; 17981.78714426722 ; 1190.0000000000002
6 ; 9363.197568709555 ; 3596.3574288534437 ; 43298.22495951726 ; 21578.144573120662 ; 1428.0000000000002
7 ; 9946.483320276706 ; 3596.3574288534437 ; 52661.422528226816 ; 25174.502001974106 ; 1666.0000000000002
8 ; 10272.804619019644 ; 3596.3574288534437 ; 62607.90584850352 ; 28770.85943082755 ; 1904.0000000000002
9 ; 10876.629292316651 ; 3596.3574288534437 ; 72880.71046752317 ; 32367.216859680993 ; 2142.0000000000005
10 ; 11574.200443783704 ; 3596.3574288534437 ; 83757.33975983982 ; 35963.57428853444 ; 2380.0000000000005
11 ; 11990.633024293402 ; 3596.3574288534437 ; 95331.54020362352 ; 39559.93171738788 ; 2618.0000000000005
12 ; 12499.192107567664 ; 3596.3574288534437 ; 107322.17322791692 ; 43156.289146241324 ; 2856.0000000000005
13 ; 12984.333754857475 ; 3596.3574288534437 ; 119821.36533548459 ; 46752.64657509477 ; 3094.0000000000005
14 ; 13507.934521401374 ; 3596.3574288534437 ; 132805.69909034207 ; 50349.00400394821 ; 3332.0000000000005
15 ; 13960.510571401903 ; 3596.3574288534437 ; 146313.63361174345 ; 53945.361432801656 ; 3570.0000000000005
16 ; 14552.781944004255 ; 3596.3574288534437 ; 160274.14418314537 ; 57541.7188616551 ; 3808.0000000000005
17 ; 15073.21914738825 ; 3596.3574288534437 ; 174826.92612714964 ; 61138.07629050854 ; 4046.0000000000005
18 ; 15366.527769853068 ; 3596.3574288534437 ; 189900.14527453788 ; 64734.43371936199 ; 4284.000000000001
19 ; 15985.326463800018 ; 3596.3574288534437 ; 205266.67304439095 ; 68330.79114821543 ; 4522.000000000001
20 ; 16317.348495412276 ; 3596.3574288534437 ; 221251.99950819096 ; 71927.14857706887 ; 4760.000000000001
21 ; 16680.941010625065 ; 3596.3574288534437 ; 237569.34800360323 ; 75523.50600592232 ; 4998.000000000001
22 ; 17257.45689411645 ; 3596.3574288534437 ; 254250.2890142283 ; 79119.86343477576 ; 5236.000000000001
23 ; 17875.41246922747 ; 3596.3574288534437 ; 271507.74590834475 ; 82716.2208636292 ; 5474.000000000001
24 ; 18076.218484262336 ; 3596.3574288534437 ; 289383.1583775722 ; 86312.57829248265 ; 5712.000000000001
25 ; 18404.698201162995 ; 3596.3574288534437 ; 307459.37686183455 ; 89908.93572133609 ; 5950.000000000001
26 ; 18862.3524592603 ; 3596.3574288534437 ; 325864.0750629975 ; 93505.29315018954 ; 6188.000000000001
27 ; 19371.244624446434 ; 3596.3574288534437 ; 344726.42752225784 ; 97101.65057904298 ; 6426.000000000001
28 ; 19631.85421497057 ; 3596.3574288534437 ; 364097.6721467043 ; 100698.00800789642 ; 6664.000000000001
29 ; 20232.511248295377 ; 3596.3574288534437 ; 383729.5263616748 ; 104294.36543674987 ; 6902.000000000001
30 ; 20576.907153004267 ; 3596.3574288534437 ; 403962.0376099702 ; 107890.72286560331 ; 7140.000000000001
31 ; 20945.275484652462 ; 3596.3574288534437 ; 424538.94476297445 ; 111487.08029445675 ; 7378.000000000001
32 ; 21333.217766812406 ; 3596.3574288534437 ; 445484.2202476269 ; 115083.4377233102 ; 7616.000000000001
33 ; 21860.661744008794 ; 3596.3574288534437 ; 466817.4380144393 ; 118679.79515216364 ; 7854.000000000001
34 ; 22017.88706134065 ; 3596.3574288534437 ; 488678.0997584481 ; 122276.15258101709 ; 8092.000000000001
35 ; 22433.424571581225 ; 3596.3574288534437 ; 510695.98681978876 ; 125872.51000987053 ; 8330.000000000002
36 ; 22880.288531125934 ; 3596.3574288534437 ; 533129.41139137 ; 129468.86743872397 ; 8568.000000000002
37 ; 23091.089420987304 ; 3596.3574288534437 ; 556009.699922496 ; 133065.22486757743 ; 8806.000000000002
38 ; 23670.301937756183 ; 3596.3574288534437 ; 579100.7893434833 ; 136661.5822964309 ; 9044.000000000002
39 ; 23654.751479098984 ; 3596.3574288534437 ; 602771.0912812394 ; 140257.93972528435 ; 9282.000000000002
40 ; 23979.46826724774 ; 3596.3574288534437 ; 626425.8427603384 ; 143854.2971541378 ; 9520.000000000002
41 ; 24185.740507137412 ; 3596.3574288534437 ; 650405.3110275862 ; 147450.65458299126 ; 9758.000000000002
42 ; 24617.971102116502 ; 3596.3574288534437 ; 674591.0515347236 ; 151047.01201184472 ; 9996.000000000002
43 ; 24909.221294668903 ; 3596.3574288534437 ; 699209.0226368401 ; 154643.36944069818 ; 10234.000000000002
44 ; 25315.211355370913 ; 3596.3574288534437 ; 724118.243931509 ; 158239.72686955164 ; 10472.000000000002
45 ; 25595.310984905635 ; 3596.3574288534437 ; 749433.4552868799 ; 161836.0842984051 ; 10710.000000000002
46 ; 25769.994222773523 ; 3596.3574288534437 ; 775028.7662717856 ; 165432.44172725856 ; 10948.000000000002
47 ; 26151.588686809515 ; 3596.3574288534437 ; 800798.7604945591 ; 169028.799156112 ; 11186.000000000002
48 ; 26334.878608484043 ; 3596.3574288534437 ; 826950.3491813686 ; 172625.15658496547 ; 11424.000000000002
49 ; 26698.442001718773 ; 3596.3574288534437 ; 853285.2277898527 ; 176221.51401381893 ; 11662.000000000002
50 ; 26765.51301662306 ; 3596.3574288534437 ; 879983.6697915714 ; 179817.8714426724 ; 11900.000000000002
51 ; 27120.395401594877 ; 3596.3574288534437 ; 906749.1828081945 ; 183414.22887152585 ; 12138.000000000002
52 ; 27290.10677209209 ; 3596.3574288534437 ; 933869.5782097895 ; 187010.5863003793 ; 12376.000000000002
53 ; 27451.102467736873 ; 3596.3574288534437 ; 961159.6849818815 ; 190606.94372923276 ; 12614.000000000002
54 ; 27733.583389266907 ; 3596.3574288534437 ; 988610.7874496185 ; 194203.30115808622 ; 12852.000000000002
55 ; 28043.428984356317 ; 3596.3574288534437 ; 1016344.3708388853 ; 197799.65858693968 ; 13090.000000000002
56 ; 28035.78739296981 ; 3596.3574288534437 ; 1044387.7998232417 ; 201396.01601579314 ; 13328.000000000002
57 ; 28292.180798062807 ; 3596.3574288534437 ; 1072423.5872162115 ; 204992.3734446466 ; 13566.000000000002
58 ; 28430.669831401243 ; 3596.3574288534437 ; 1100715.7680142743 ; 208588.73087350006 ; 13804.000000000002
59 ; 28689.019130848217 ; 3596.3574288534437 ; 1129146.4378456755 ; 212185.0883023535 ; 14042.000000000002
60 ; 28831.8679569111 ; 3596.3574288534437 ; 1157835.4569765236 ; 215781.44573120697 ; 14280.000000000002
61 ; 28985.76584936504 ; 3596.3574288534437 ; 1186667.3249334348 ; 219377.80316006043 ; 14518.000000000002
62 ; 29029.86975765648 ; 3596.3574288534437 ; 1215653.0907828 ; 222974.1605889139 ; 14756.000000000002
63 ; 29285.11315885794 ; 3596.3574288534437 ; 1244682.9605404565 ; 226570.51801776735 ; 14994.000000000002
64 ; 29399.752080673177 ; 3596.3574288534437 ; 1273968.0736993144 ; 230166.8754466208 ; 15232.000000000002
65 ; 29494.655395843612 ; 3596.3574288534437 ; 1303367.8257799875 ; 233763.23287547426 ; 15470.000000000002
66 ; 29633.012169236303 ; 3596.3574288534437 ; 1332862.481175831 ; 237359.59030432772 ; 15708.000000000002
67 ; 29783.520204196597 ; 3596.3574288534437 ; 1362495.4933450674 ; 240955.94773318118 ; 15946.000000000002
68 ; 29826.645755229096 ; 3596.3574288534437 ; 1392279.013549264 ; 244552.30516203464 ; 16184.000000000002
69 ; 30046.851439677877 ; 3596.3574288534437 ; 1422105.659304493 ; 248148.6625908881 ; 16422.000000000004
70 ; 29991.857625826106 ; 3596.3574288534437 ; 1452152.510744171 ; 251745.02001974155 ; 16660.000000000004
71 ; 30121.26796982666 ; 3596.3574288534437 ; 1482144.368369997 ; 255341.377448595 ; 16898.000000000004
72 ; 30242.05129938914 ; 3596.3574288534437 ; 1512265.6363398237 ; 258937.73487744847 ; 17136.000000000004
73 ; 30366.791744562848 ; 3596.3574288534437 ; 1542507.687639213 ; 262534.0923063019 ; 17374.000000000004
74 ; 30617.56077876789 ; 3596.3574288534437 ; 1572874.4793837757 ; 266130.4497351554 ; 17612.000000000004
75 ; 30510.905888260793 ; 3596.3574288534437 ; 1603492.0401625435 ; 269726.80716400885 ; 17850.000000000004
76 ; 30312.261562070886 ; 3596.3574288534437 ; 1634002.9460508043 ; 273323.1645928623 ; 18088.000000000004
77 ; 30642.841020435255 ; 3596.3574288534437 ; 1664315.2076128752 ; 276919.52202171576 ; 18326.000000000004
78 ; 30621.11380971464 ; 3596.3574288534437 ; 1694958.0486333105 ; 280515.8794505692 ; 18564.000000000004
79 ; 30512.989229093342 ; 3596.3574288534437 ; 1725579.162443025 ; 284112.2368794227 ; 18802.000000000004
80 ; 30656.58726940698 ; 3596.3574288534437 ; 1756092.1516721183 ; 287708.59430827614 ; 19040.000000000004
81 ; 30565.33594185244 ; 3596.3574288534437 ; 1786748.7389415253 ; 291304.9517371296 ; 19278.000000000004
82 ; 30641.64776150245 ; 3596.3574288534437 ; 1817314.0748833779 ; 294901.30916598305 ; 19516.000000000004
83 ; 30686.293680919443 ; 3596.3574288534437 ; 1847955.7226448804 ; 298497.6665948365 ; 19754.000000000004
84 ; 30590.25657731398 ; 3596.3574288534437 ; 1878642.0163257997 ; 302094.02402368997 ; 19992.000000000004
85 ; 30517.14988589266 ; 3596.3574288534437 ; 1909232.2729031136 ; 305690.3814525434 ; 20230.000000000004
86 ; 30567.25309195232 ; 3596.3574288534437 ; 1939749.4227890063 ; 309286.7388813969 ; 20468.000000000004
87 ; 30642.76815472246 ; 3596.3574288534437 ; 1970316.6758809586 ; 312883.09631025034 ; 20706.000000000004
88 ; 30383.2397095246 ; 3596.3574288534437 ; 2000959.444035681 ; 316479.4537391038 ; 20944.000000000004
89 ; 30439.343068246188 ; 3596.3574288534437 ; 2031342.6837452056 ; 320075.81116795726 ; 21182.000000000004
90 ; 30417.783855314334 ; 3596.3574288534437 ; 2061782.026813452 ; 323672.1685968107 ; 21420.000000000004
91 ; 30343.278680655163 ; 3596.3574288534437 ; 2092199.8106687663 ; 327268.5260256642 ; 21658.000000000004
92 ; 30489.74375049737 ; 3596.3574288534437 ; 2122543.089349421 ; 330864.88345451764 ; 21896.000000000004
93 ; 30351.500624305754 ; 3596.3574288534437 ; 2153032.8330999184 ; 334461.2408833711 ; 22134.000000000004
94 ; 30176.371555424208 ; 3596.3574288534437 ; 2183384.333724224 ; 338057.59831222455 ; 22372.000000000004
95 ; 29996.18052751979 ; 3596.3574288534437 ; 2213560.7052796483 ; 341653.955741078 ; 22610.000000000004
96 ; 29784.243426013065 ; 3596.3574288534437 ; 2243556.885807168 ; 345250.31316993147 ; 22848.000000000004
97 ; 29702.756439483663 ; 3596.3574288534437 ; 2273341.1292331815 ; 348846.6705987849 ; 23086.000000000004
98 ; 29678.92659879884 ; 3596.3574288534437 ; 2303043.885672665 ; 352443.0280276384 ; 23324.000000000004
99 ; 29686.157597302576 ; 3596.3574288534437 ; 2332722.812271464 ; 356039.38545649184 ; 23562.000000000004
100 ; 29436.715362012 ; 3596.3574288534437 ; 2362408.9698687666 ; 359635.7428853453 ; 23800.000000000004
101 ; 29424.16198074944 ; 3596.3574288534437 ; 2391845.6852307785 ; 363232.10031419876 ; 24038.000000000004
102 ; 28984.5016465983 ; 3596.3574288534437 ; 2421269.847211528 ; 366828.4577430522 ; 24276.000000000004
103 ; 28906.034113784826 ; 3596.3574288534437 ; 2450254.3488581264 ; 370424.8151719057 ; 24514.000000000004
104 ; 28938.145951559713 ; 3596.3574288534437 ; 2479160.382971911 ; 374021.17260075914 ; 24752.000000000004
105 ; 28790.92291046418 ; 3596.3574288534437 ; 2508098.528923471 ; 377617.5300296126 ; 24990.000000000004
106 ; 28517.90971286442 ; 3596.3574288534437 ; 2536889.451833935 ; 381213.88745846605 ; 25228.000000000004
107 ; 28412.907338120818 ; 3596.3574288534437 ; 2565407.3615467995 ; 384810.2448873195 ; 25466.000000000004
108 ; 28374.567482839797 ; 3596.3574288534437 ; 2593820.2688849205 ; 388406.60231617297 ; 25704.000000000004
109 ; 28188.332186179865 ; 3596.3574288534437 ; 2622194.8363677603 ; 392002.9597450264 ; 25942.000000000004
110 ; 27870.304311074247 ; 3596.3574288534437 ; 2650383.16855394 ; 395599.3171738799 ; 26180.000000000004
111 ; 27394.123296822283 ; 3596.3574288534437 ; 2678253.4728650143 ; 399195.67460273334 ; 26418.000000000004
112 ; 27384.353213608876 ; 3596.3574288534437 ; 2705647.5961618368 ; 402792.0320315868 ; 26656.000000000004
113 ; 27396.877482043496 ; 3596.3574288534437 ; 2733031.9493754455 ; 406388.38946044026 ; 26894.000000000004
114 ; 27031.034220803394 ; 3596.3574288534437 ; 2760428.826857489 ; 409984.7468892937 ; 27132.000000000004
115 ; 26904.186175666284 ; 3596.3574288534437 ; 2787459.8610782926 ; 413581.1043181472 ; 27370.000000000004
116 ; 26348.483489898405 ; 3596.3574288534437 ; 2814364.047253959 ; 417177.46174700063 ; 27608.000000000004
117 ; 26266.142799218116 ; 3596.3574288534437 ; 2840712.5307438574 ; 420773.8191758541 ; 27846.000000000004
118 ; 26070.575843028004 ; 3596.3574288534437 ; 2866978.6735430756 ; 424370.17660470755 ; 28084.000000000004
119 ; 25666.388876377616 ; 3596.3574288534437 ; 2893049.2493861034 ; 427966.534033561 ; 28322.000000000004
120 ; 25470.492841702726 ; 3596.3574288534437 ; 2918715.638262481 ; 431562.89146241447 ; 28560.000000000004
121 ; 25235.015720023443 ; 3596.3574288534437 ; 2944186.131104184 ; 435159.2488912679 ; 28798.000000000004
122 ; 24895.578070910437 ; 3596.3574288534437 ; 2969421.146824207 ; 438755.6063201214 ; 29036.000000000004
123 ; 24651.17114834043 ; 3596.3574288534437 ; 2994316.724895118 ; 442351.96374897484 ; 29274.000000000004
124 ; 24432.728081331785 ; 3596.3574288534437 ; 3018967.896043458 ; 445948.3211778283 ; 29512.000000000004
125 ; 23930.55466812696 ; 3596.3574288534437 ; 3043400.6241247896 ; 449544.67860668176 ; 29750.000000000004
126 ; 23743.91727256165 ; 3596.3574288534437 ; 3067331.1787929167 ; 453141.0360355352 ; 29988.000000000004
127 ; 23354.279038792043 ; 3596.3574288534437 ; 3091075.0960654784 ; 456737.3934643887 ; 30226.000000000004
128 ; 22938.038637720092 ; 3596.3574288534437 ; 3114429.3751042704 ; 460333.75089324213 ; 30464.000000000004
129 ; 22814.097673755678 ; 3596.3574288534437 ; 3137367.4137419905 ; 463930.1083220956 ; 30702.000000000004
130 ; 22428.73627186642 ; 3596.3574288534437 ; 3160181.511415746 ; 467526.46575094905 ; 30940.000000000004
131 ; 21949.52660261072 ; 3596.3574288534437 ; 3182610.2476876127 ; 471122.8231798025 ; 31178.000000000004
132 ; 21599.56102189427 ; 3596.3574288534437 ; 3204559.7742902236 ; 474719.18060865597 ; 31416.000000000004
133 ; 21046.179712444227 ; 3596.3574288534437 ; 3226159.335312118 ; 478315.5380375094 ; 31654.000000000004
134 ; 20834.72504088836 ; 3596.3574288534437 ; 3247205.515024562 ; 481911.8954663629 ; 31892.000000000004
135 ; 20534.407600807877 ; 3596.3574288534437 ; 3268040.2400654503 ; 485508.25289521634 ; 32130.000000000004
136 ; 20194.70902466944 ; 3596.3574288534437 ; 3288574.6476662583 ; 489104.6103240698 ; 32368.000000000004
137 ; 19567.010403856377 ; 3596.3574288534437 ; 3308769.356690928 ; 492700.96775292326 ; 32606.000000000004
138 ; 19432.78037226384 ; 3596.3574288534437 ; 3328336.367094784 ; 496297.3251817767 ; 32844.00000000001
139 ; 19083.99220873814 ; 3596.3574288534437 ; 3347769.147467048 ; 499893.6826106302 ; 33082.00000000001
140 ; 18397.666252797808 ; 3596.3574288534437 ; 3366853.1396757863 ; 503490.04003948363 ; 33320.00000000001
141 ; 18023.941326676402 ; 3596.3574288534437 ; 3385250.805928584 ; 507086.3974683371 ; 33558.00000000001
142 ; 17723.486619097854 ; 3596.3574288534437 ; 3403274.7472552606 ; 510682.75489719055 ; 33796.00000000001
143 ; 17122.258506734088 ; 3596.3574288534437 ; 3420998.2338743582 ; 514279.112326044 ; 34034.00000000001
144 ; 16626.029167231027 ; 3596.3574288534437 ; 3438120.492381092 ; 517875.46975489747 ; 34272.00000000001
145 ; 16371.37411884101 ; 3596.3574288534437 ; 3454746.5215483233 ; 521471.8271837509 ; 34510.00000000001
146 ; 16685.629699261124 ; 3596.3574288534437 ; 3471117.895667164 ; 525068.1846126043 ; 34748.00000000001
147 ; 16304.807115947031 ; 3596.3574288534437 ; 3487803.525366425 ; 528664.5420414577 ; 34986.00000000001
148 ; 16207.552209076182 ; 3596.3574288534437 ; 3504108.332482372 ; 532260.8994703111 ; 35224.00000000001
149 ; 16212.606053860505 ; 3596.3574288534437 ; 3520315.884691448 ; 535857.2568991645 ; 35462.00000000001
150 ; 15902.260010990709 ; 3596.3574288534437 ; 3536528.4907453083 ; 539453.6143280179 ; 35700.00000000001
151 ; 15889.809594213948 ; 3596.3574288534437 ; 3552430.750756299 ; 543049.9717568713 ; 35938.00000000001
152 ; 15752.265232952903 ; 3596.3574288534437 ; 3568320.560350513 ; 546646.3291857247 ; 36176.00000000001
153 ; 15595.076477184872 ; 3596.3574288534437 ; 3584072.825583466 ; 550242.6866145781 ; 36414.00000000001
154 ; 15329.02863173807 ; 3596.3574288534437 ; 3599667.9020606508 ; 553839.0440434315 ; 36652.00000000001
155 ; 15339.362378826096 ; 3596.3574288534437 ; 3614996.9306923887 ; 557435.4014722849 ; 36890.00000000001
156 ; 15133.022183146688 ; 3596.3574288534437 ; 3630336.2930712146 ; 561031.7589011383 ; 37128.00000000001
157 ; 15021.57633976553 ; 3596.3574288534437 ; 3645469.3152543614 ; 564628.1163299917 ; 37366.00000000001
158 ; 15024.490029708973 ; 3596.3574288534437 ; 3660490.891594127 ; 568224.4737588451 ; 37604.00000000001
159 ; 14655.598076883389 ; 3596.3574288534437 ; 3675515.381623836 ; 571820.8311876985 ; 37842.00000000001
160 ; 14547.560901618283 ; 3596.3574288534437 ; 3690170.979700719 ; 575417.1886165519 ; 38080.00000000001
161 ; 14327.671474595854 ; 3596.3574288534437 ; 3704718.540602337 ; 579013.5460454053 ; 38318.00000000001
162 ; 14221.391725922398 ; 3596.3574288534437 ; 3719046.212076933 ; 582609.9034742587 ; 38556.00000000001
163 ; 13957.008664354613 ; 3596.3574288534437 ; 3733267.6038028556 ; 586206.2609031121 ; 38794.00000000001
164 ; 13888.240149146963 ; 3596.3574288534437 ; 3747224.6124672103 ; 589802.6183319655 ; 39032.00000000001
165 ; 13755.916858887504 ; 3596.3574288534437 ; 3761112.852616357 ; 593398.9757608189 ; 39270.00000000001
166 ; 13544.82152226492 ; 3596.3574288534437 ; 3774868.7694752445 ; 596995.3331896723 ; 39508.00000000001
167 ; 13280.588927976603 ; 3596.3574288534437 ; 3788413.590997509 ; 600591.6906185257 ; 39746.00000000001
168 ; 13162.065730179998 ; 3596.3574288534437 ; 3801694.179925486 ; 604188.0480473791 ; 39984.00000000001
169 ; 12898.460234237305 ; 3596.3574288534437 ; 3814856.245655666 ; 607784.4054762325 ; 40222.00000000001
170 ; 12688.96079396898 ; 3596.3574288534437 ; 3827754.7058899035 ; 611380.7629050859 ; 40460.00000000001
171 ; 12481.56860779101 ; 3596.3574288534437 ; 3840443.666683872 ; 614977.1203339393 ; 40698.00000000001
172 ; 12362.6063483661 ; 3596.3574288534437 ; 3852925.235291663 ; 618573.4777627927 ; 40936.00000000001
173 ; 12310.261986641117 ; 3596.3574288534437 ; 3865287.841640029 ; 622169.8351916461 ; 41174.00000000001
174 ; 12230.882931537035 ; 3596.3574288534437 ; 3877598.1036266703 ; 625766.1926204995 ; 41412.00000000001
175 ; 12283.42432357649 ; 3596.3574288534437 ; 3889828.9865582073 ; 629362.5500493529 ; 41650.00000000001
176 ; 12342.370847753922 ; 3596.3574288534437 ; 3902112.410881784 ; 632958.9074782063 ; 41888.00000000001
177 ; 12279.394946525465 ; 3596.3574288534437 ; 3914454.7817295375 ; 636555.2649070597 ; 42126.00000000001
178 ; 12610.097307890777 ; 3596.3574288534437 ; 3926734.176676063 ; 640151.6223359131 ; 42364.00000000001
179 ; 12346.966369831027 ; 3596.3574288534437 ; 3939344.2739839535 ; 643747.9797647665 ; 42602.00000000001
180 ; 12402.992293727753 ; 3596.3574288534437 ; 3951691.2403537845 ; 647344.3371936199 ; 42840.00000000001
181 ; 12733.92407403625 ; 3596.3574288534437 ; 3964094.232647512 ; 650940.6946224733 ; 43078.00000000001
182 ; 12658.665777548755 ; 3596.3574288534437 ; 3976828.156721548 ; 654537.0520513267 ; 43316.00000000001
183 ; 12570.284722532779 ; 3596.3574288534437 ; 3989486.822499097 ; 658133.4094801801 ; 43554.00000000001
184 ; 12588.514345155207 ; 3596.3574288534437 ; 4002057.1072216295 ; 661729.7669090335 ; 43792.00000000001
