CSV File for the City 1 on Day 273
1 - Minute m 
2 - Power Consumed at minute m 
3 - Power Produced at minute m 
4 - Energy Consumed since the beginning of the day 
5 - Energy Produced since the beginning of the day 
6 - Energy Lost since the beginning of the day on lines starting from the city
 
0 ; 8092.870950567301 ; 2836.59375855088 ; 0.0 ; 0.0 ; 0.0
1 ; 8708.872757341143 ; 2836.59375855088 ; 8092.870950567301 ; 2836.59375855088 ; 238.00000000000003
2 ; 9096.653386336238 ; 2836.59375855088 ; 16801.743707908445 ; 5673.18751710176 ; 476.00000000000006
3 ; 9778.384520169291 ; 2836.59375855088 ; 25898.397094244683 ; 8509.78127565264 ; 714.0000000000001
4 ; 9986.890493338347 ; 2836.59375855088 ; 35676.78161441397 ; 11346.37503420352 ; 952.0000000000001
5 ; 10420.279620287696 ; 2836.59375855088 ; 45663.67210775232 ; 14182.9687927544 ; 1190.0000000000002
6 ; 10892.884581638544 ; 2836.59375855088 ; 56083.95172804002 ; 17019.56255130528 ; 1428.0000000000002
7 ; 11456.885463259146 ; 2836.59375855088 ; 66976.83630967856 ; 19856.15630985616 ; 1666.0000000000002
8 ; 11826.024912464987 ; 2836.59375855088 ; 78433.72177293772 ; 22692.75006840704 ; 1904.0000000000002
9 ; 12441.507156170419 ; 2836.59375855088 ; 90259.7466854027 ; 25529.34382695792 ; 2142.0000000000005
10 ; 12678.581984055836 ; 2836.59375855088 ; 102701.25384157313 ; 28365.9375855088 ; 2380.0000000000005
11 ; 13291.28934506711 ; 2836.59375855088 ; 115379.83582562896 ; 31202.53134405968 ; 2618.0000000000005
12 ; 13683.1091403977 ; 2836.59375855088 ; 128671.12517069608 ; 34039.12510261056 ; 2856.0000000000005
13 ; 14133.88773118044 ; 2836.59375855088 ; 142354.23431109378 ; 36875.71886116144 ; 3094.0000000000005
14 ; 14399.63147671916 ; 2836.59375855088 ; 156488.12204227422 ; 39712.31261971232 ; 3332.0000000000005
15 ; 14773.556658922073 ; 2836.59375855088 ; 170887.75351899338 ; 42548.9063782632 ; 3570.0000000000005
16 ; 15456.837466955301 ; 2836.59375855088 ; 185661.31017791547 ; 45385.50013681408 ; 3808.0000000000005
17 ; 15663.930634097662 ; 2836.59375855088 ; 201118.14764487077 ; 48222.09389536496 ; 4046.0000000000005
18 ; 16140.480586737918 ; 2836.59375855088 ; 216782.07827896843 ; 51058.68765391584 ; 4284.000000000001
19 ; 16404.019893459128 ; 2836.59375855088 ; 232922.55886570635 ; 53895.28141246672 ; 4522.000000000001
20 ; 16780.203356597856 ; 2836.59375855088 ; 249326.57875916548 ; 56731.8751710176 ; 4760.000000000001
21 ; 17258.75002251662 ; 2836.59375855088 ; 266106.78211576334 ; 59568.46892956848 ; 4998.000000000001
22 ; 17702.35234285373 ; 2836.59375855088 ; 283365.53213828 ; 62405.06268811936 ; 5236.000000000001
23 ; 17992.909542977395 ; 2836.59375855088 ; 301067.8844811337 ; 65241.65644667024 ; 5474.000000000001
24 ; 18228.987221768235 ; 2836.59375855088 ; 319060.7940241111 ; 68078.25020522112 ; 5712.000000000001
25 ; 18734.457064173344 ; 2836.59375855088 ; 337289.78124587936 ; 70914.843963772 ; 5950.000000000001
26 ; 19043.226851850937 ; 2836.59375855088 ; 356024.2383100527 ; 73751.43772232288 ; 6188.000000000001
27 ; 19197.542929602656 ; 2836.59375855088 ; 375067.46516190364 ; 76588.03148087376 ; 6426.000000000001
28 ; 19729.02654487005 ; 2836.59375855088 ; 394265.0080915063 ; 79424.62523942464 ; 6664.000000000001
29 ; 20010.75009567955 ; 2836.59375855088 ; 413994.03463637637 ; 82261.21899797552 ; 6902.000000000001
30 ; 20375.82397323561 ; 2836.59375855088 ; 434004.7847320559 ; 85097.8127565264 ; 7140.000000000001
31 ; 20762.860759964267 ; 2836.59375855088 ; 454380.6087052915 ; 87934.40651507728 ; 7378.000000000001
32 ; 21031.665183953985 ; 2836.59375855088 ; 475143.4694652558 ; 90771.00027362816 ; 7616.000000000001
33 ; 21179.488334986734 ; 2836.59375855088 ; 496175.1346492098 ; 93607.59403217904 ; 7854.000000000001
34 ; 21500.214310572355 ; 2836.59375855088 ; 517354.6229841965 ; 96444.18779072992 ; 8092.000000000001
35 ; 21994.372322133975 ; 2836.59375855088 ; 538854.8372947689 ; 99280.7815492808 ; 8330.000000000002
36 ; 22046.43504017693 ; 2836.59375855088 ; 560849.2096169029 ; 102117.37530783168 ; 8568.000000000002
37 ; 22403.32308615983 ; 2836.59375855088 ; 582895.6446570798 ; 104953.96906638256 ; 8806.000000000002
38 ; 22447.066367000367 ; 2836.59375855088 ; 605298.9677432397 ; 107790.56282493344 ; 9044.000000000002
39 ; 23024.207125400397 ; 2836.59375855088 ; 627746.03411024 ; 110627.15658348432 ; 9282.000000000002
40 ; 23270.337287023205 ; 2836.59375855088 ; 650770.2412356405 ; 113463.7503420352 ; 9520.000000000002
41 ; 23370.435350252268 ; 2836.59375855088 ; 674040.5785226637 ; 116300.34410058608 ; 9758.000000000002
42 ; 23716.345565097734 ; 2836.59375855088 ; 697411.013872916 ; 119136.93785913696 ; 9996.000000000002
43 ; 23775.816940999357 ; 2836.59375855088 ; 721127.3594380138 ; 121973.53161768784 ; 10234.000000000002
44 ; 24026.052718875777 ; 2836.59375855088 ; 744903.1763790131 ; 124810.12537623872 ; 10472.000000000002
45 ; 24274.954697215733 ; 2836.59375855088 ; 768929.2290978889 ; 127646.7191347896 ; 10710.000000000002
46 ; 24766.826025551145 ; 2836.59375855088 ; 793204.1837951046 ; 130483.31289334048 ; 10948.000000000002
47 ; 24640.876338502847 ; 2836.59375855088 ; 817971.0098206558 ; 133319.90665189136 ; 11186.000000000002
48 ; 25170.251880617398 ; 2836.59375855088 ; 842611.8861591587 ; 136156.50041044224 ; 11424.000000000002
49 ; 25143.483978879813 ; 2836.59375855088 ; 867782.138039776 ; 138993.09416899312 ; 11662.000000000002
50 ; 25417.16900819343 ; 2836.59375855088 ; 892925.6220186558 ; 141829.687927544 ; 11900.000000000002
51 ; 25568.536331817275 ; 2836.59375855088 ; 918342.7910268492 ; 144666.28168609488 ; 12138.000000000002
52 ; 25578.006657817292 ; 2836.59375855088 ; 943911.3273586665 ; 147502.87544464576 ; 12376.000000000002
53 ; 25882.45660323944 ; 2836.59375855088 ; 969489.3340164837 ; 150339.46920319664 ; 12614.000000000002
54 ; 26142.594497655777 ; 2836.59375855088 ; 995371.7906197231 ; 153176.06296174752 ; 12852.000000000002
55 ; 26330.505073682158 ; 2836.59375855088 ; 1021514.3851173789 ; 156012.6567202984 ; 13090.000000000002
56 ; 26472.750576104158 ; 2836.59375855088 ; 1047844.8901910611 ; 158849.25047884928 ; 13328.000000000002
57 ; 26609.295371014847 ; 2836.59375855088 ; 1074317.6407671652 ; 161685.84423740016 ; 13566.000000000002
58 ; 26788.450222476433 ; 2836.59375855088 ; 1100926.93613818 ; 164522.43799595104 ; 13804.000000000002
59 ; 26811.80270373051 ; 2836.59375855088 ; 1127715.3863606565 ; 167359.03175450192 ; 14042.000000000002
60 ; 27051.8293258137 ; 2836.59375855088 ; 1154527.189064387 ; 170195.6255130528 ; 14280.000000000002
61 ; 27080.753823523737 ; 2836.59375855088 ; 1181579.0183902008 ; 173032.21927160368 ; 14518.000000000002
62 ; 27165.094343796045 ; 2836.59375855088 ; 1208659.7722137244 ; 175868.81303015456 ; 14756.000000000002
63 ; 27324.077222388543 ; 2836.59375855088 ; 1235824.8665575206 ; 178705.40678870544 ; 14994.000000000002
64 ; 27533.298103215227 ; 2836.59375855088 ; 1263148.943779909 ; 181542.00054725632 ; 15232.000000000002
65 ; 27470.924249625175 ; 2836.59375855088 ; 1290682.2418831242 ; 184378.5943058072 ; 15470.000000000002
66 ; 27722.769996817027 ; 2836.59375855088 ; 1318153.1661327493 ; 187215.18806435808 ; 15708.000000000002
67 ; 27808.404306385946 ; 2836.59375855088 ; 1345875.9361295663 ; 190051.78182290896 ; 15946.000000000002
68 ; 27800.781313736858 ; 2836.59375855088 ; 1373684.3404359522 ; 192888.37558145984 ; 16184.000000000002
69 ; 28019.20853655622 ; 2836.59375855088 ; 1401485.121749689 ; 195724.96934001072 ; 16422.000000000004
70 ; 27895.68883978576 ; 2836.59375855088 ; 1429504.3302862453 ; 198561.5630985616 ; 16660.000000000004
71 ; 28194.490881685066 ; 2836.59375855088 ; 1457400.019126031 ; 201398.15685711248 ; 16898.000000000004
72 ; 28245.076146440286 ; 2836.59375855088 ; 1485594.5100077162 ; 204234.75061566336 ; 17136.000000000004
73 ; 28287.58452221732 ; 2836.59375855088 ; 1513839.5861541566 ; 207071.34437421424 ; 17374.000000000004
74 ; 28031.03655154193 ; 2836.59375855088 ; 1542127.1706763739 ; 209907.93813276512 ; 17612.000000000004
75 ; 28387.904816448965 ; 2836.59375855088 ; 1570158.2072279158 ; 212744.531891316 ; 17850.000000000004
76 ; 28541.519430933557 ; 2836.59375855088 ; 1598546.1120443647 ; 215581.12564986688 ; 18088.000000000004
77 ; 28300.947856264385 ; 2836.59375855088 ; 1627087.6314752982 ; 218417.71940841776 ; 18326.000000000004
78 ; 28419.86819939981 ; 2836.59375855088 ; 1655388.5793315626 ; 221254.31316696864 ; 18564.000000000004
79 ; 28486.156035414606 ; 2836.59375855088 ; 1683808.4475309625 ; 224090.90692551952 ; 18802.000000000004
80 ; 28484.262893545376 ; 2836.59375855088 ; 1712294.6035663772 ; 226927.5006840704 ; 19040.000000000004
81 ; 28638.653551086933 ; 2836.59375855088 ; 1740778.8664599226 ; 229764.09444262128 ; 19278.000000000004
82 ; 28679.612605196955 ; 2836.59375855088 ; 1769417.5200110096 ; 232600.68820117216 ; 19516.000000000004
83 ; 28442.817621417704 ; 2836.59375855088 ; 1798097.1326162065 ; 235437.28195972304 ; 19754.000000000004
84 ; 28583.564949990243 ; 2836.59375855088 ; 1826539.9502376243 ; 238273.87571827392 ; 19992.000000000004
85 ; 28613.755244806332 ; 2836.59375855088 ; 1855123.5151876146 ; 241110.4694768248 ; 20230.000000000004
86 ; 28410.675299329192 ; 2836.59375855088 ; 1883737.270432421 ; 243947.06323537568 ; 20468.000000000004
87 ; 28541.706157409604 ; 2836.59375855088 ; 1912147.9457317502 ; 246783.65699392656 ; 20706.000000000004
88 ; 28396.043530891104 ; 2836.59375855088 ; 1940689.6518891598 ; 249620.25075247744 ; 20944.000000000004
89 ; 28294.94296216663 ; 2836.59375855088 ; 1969085.695420051 ; 252456.84451102832 ; 21182.000000000004
90 ; 28336.43786710515 ; 2836.59375855088 ; 1997380.6383822176 ; 255293.4382695792 ; 21420.000000000004
91 ; 28271.9397865138 ; 2836.59375855088 ; 2025717.0762493229 ; 258130.03202813008 ; 21658.000000000004
92 ; 28319.31383473948 ; 2836.59375855088 ; 2053989.0160358367 ; 260966.62578668096 ; 21896.000000000004
93 ; 28140.527078187326 ; 2836.59375855088 ; 2082308.329870576 ; 263803.21954523184 ; 22134.000000000004
94 ; 27962.352371327226 ; 2836.59375855088 ; 2110448.856948763 ; 266639.8133037827 ; 22372.000000000004
95 ; 28128.3365258789 ; 2836.59375855088 ; 2138411.2093200902 ; 269476.4070623336 ; 22610.000000000004
96 ; 27990.508445059724 ; 2836.59375855088 ; 2166539.545845969 ; 272313.0008208845 ; 22848.000000000004
97 ; 27845.506489068575 ; 2836.59375855088 ; 2194530.054291029 ; 275149.59457943536 ; 23086.000000000004
98 ; 27520.825101586724 ; 2836.59375855088 ; 2222375.5607800977 ; 277986.18833798624 ; 23324.000000000004
99 ; 27598.60252930249 ; 2836.59375855088 ; 2249896.3858816843 ; 280822.7820965371 ; 23562.000000000004
100 ; 27458.344027887204 ; 2836.59375855088 ; 2277494.988410987 ; 283659.375855088 ; 23800.000000000004
101 ; 27452.79337924607 ; 2836.59375855088 ; 2304953.332438874 ; 286495.9696136389 ; 24038.000000000004
102 ; 27254.17280811855 ; 2836.59375855088 ; 2332406.1258181203 ; 289332.56337218976 ; 24276.000000000004
103 ; 27097.09128330157 ; 2836.59375855088 ; 2359660.298626239 ; 292169.15713074064 ; 24514.000000000004
104 ; 27031.660153560653 ; 2836.59375855088 ; 2386757.3899095403 ; 295005.7508892915 ; 24752.000000000004
105 ; 26749.04518920851 ; 2836.59375855088 ; 2413789.050063101 ; 297842.3446478424 ; 24990.000000000004
106 ; 26507.617239049054 ; 2836.59375855088 ; 2440538.0952523095 ; 300678.9384063933 ; 25228.000000000004
107 ; 26623.589805980846 ; 2836.59375855088 ; 2467045.7124913586 ; 303515.53216494416 ; 25466.000000000004
108 ; 26401.710082760103 ; 2836.59375855088 ; 2493669.3022973393 ; 306352.12592349504 ; 25704.000000000004
109 ; 26150.27614155046 ; 2836.59375855088 ; 2520071.0123800994 ; 309188.7196820459 ; 25942.000000000004
110 ; 26047.560660881056 ; 2836.59375855088 ; 2546221.28852165 ; 312025.3134405968 ; 26180.000000000004
111 ; 25901.10650262452 ; 2836.59375855088 ; 2572268.849182531 ; 314861.9071991477 ; 26418.000000000004
112 ; 25644.432097593548 ; 2836.59375855088 ; 2598169.9556851555 ; 317698.50095769856 ; 26656.000000000004
113 ; 25473.986386957426 ; 2836.59375855088 ; 2623814.387782749 ; 320535.09471624944 ; 26894.000000000004
114 ; 25260.755167455616 ; 2836.59375855088 ; 2649288.3741697064 ; 323371.6884748003 ; 27132.000000000004
115 ; 25057.998114172984 ; 2836.59375855088 ; 2674549.129337162 ; 326208.2822333512 ; 27370.000000000004
116 ; 24868.972103960743 ; 2836.59375855088 ; 2699607.1274513346 ; 329044.8759919021 ; 27608.000000000004
117 ; 24609.956278034482 ; 2836.59375855088 ; 2724476.0995552954 ; 331881.46975045296 ; 27846.000000000004
118 ; 24508.942821384437 ; 2836.59375855088 ; 2749086.05583333 ; 334718.06350900384 ; 28084.000000000004
119 ; 24270.479245702714 ; 2836.59375855088 ; 2773594.9986547143 ; 337554.6572675547 ; 28322.000000000004
120 ; 24025.86411068059 ; 2836.59375855088 ; 2797865.477900417 ; 340391.2510261056 ; 28560.000000000004
121 ; 23661.606400180215 ; 2836.59375855088 ; 2821891.342011098 ; 343227.8447846565 ; 28798.000000000004
122 ; 23541.601347116433 ; 2836.59375855088 ; 2845552.948411278 ; 346064.43854320736 ; 29036.000000000004
123 ; 23315.10814637911 ; 2836.59375855088 ; 2869094.5497583942 ; 348901.03230175824 ; 29274.000000000004
124 ; 22955.00508228328 ; 2836.59375855088 ; 2892409.6579047735 ; 351737.6260603091 ; 29512.000000000004
125 ; 22655.920859488826 ; 2836.59375855088 ; 2915364.6629870567 ; 354574.21981886 ; 29750.000000000004
126 ; 22507.581844979406 ; 2836.59375855088 ; 2938020.5838465453 ; 357410.8135774109 ; 29988.000000000004
127 ; 22265.23603970816 ; 2836.59375855088 ; 2960528.1656915247 ; 360247.40733596176 ; 30226.000000000004
128 ; 21861.883817493865 ; 2836.59375855088 ; 2982793.401731233 ; 363084.00109451264 ; 30464.000000000004
129 ; 21587.37196581134 ; 2836.59375855088 ; 3004655.285548727 ; 365920.5948530635 ; 30702.000000000004
130 ; 21521.170139983587 ; 2836.59375855088 ; 3026242.657514538 ; 368757.1886116144 ; 30940.000000000004
131 ; 20932.64486265758 ; 2836.59375855088 ; 3047763.827654522 ; 371593.7823701653 ; 31178.000000000004
132 ; 20869.940939780943 ; 2836.59375855088 ; 3068696.4725171793 ; 374430.37612871616 ; 31416.000000000004
133 ; 20708.06863640795 ; 2836.59375855088 ; 3089566.41345696 ; 377266.96988726704 ; 31654.000000000004
134 ; 20083.44234862397 ; 2836.59375855088 ; 3110274.482093368 ; 380103.5636458179 ; 31892.000000000004
135 ; 19856.179230077596 ; 2836.59375855088 ; 3130357.9244419923 ; 382940.1574043688 ; 32130.000000000004
136 ; 19550.94753456011 ; 2836.59375855088 ; 3150214.10367207 ; 385776.7511629197 ; 32368.000000000004
137 ; 19283.978987453065 ; 2836.59375855088 ; 3169765.05120663 ; 388613.34492147056 ; 32606.000000000004
138 ; 18933.217951371083 ; 2836.59375855088 ; 3189049.030194083 ; 391449.93868002144 ; 32844.00000000001
139 ; 18506.847066340186 ; 2836.59375855088 ; 3207982.248145454 ; 394286.5324385723 ; 33082.00000000001
140 ; 18070.987845746346 ; 2836.59375855088 ; 3226489.095211794 ; 397123.1261971232 ; 33320.00000000001
141 ; 17813.008454603383 ; 2836.59375855088 ; 3244560.0830575405 ; 399959.7199556741 ; 33558.00000000001
142 ; 17498.351081554014 ; 2836.59375855088 ; 3262373.091512144 ; 402796.31371422496 ; 33796.00000000001
143 ; 16961.27784887948 ; 2836.59375855088 ; 3279871.442593698 ; 405632.90747277584 ; 34034.00000000001
144 ; 16605.84431904629 ; 2836.59375855088 ; 3296832.7204425773 ; 408469.5012313267 ; 34272.00000000001
145 ; 16482.87252497993 ; 2836.59375855088 ; 3313438.5647616237 ; 411306.0949898776 ; 34510.00000000001
146 ; 16142.2511591842 ; 2836.59375855088 ; 3329921.4372866037 ; 414142.6887484285 ; 34748.00000000001
147 ; 16154.132048653866 ; 2836.59375855088 ; 3346063.688445788 ; 416979.28250697936 ; 34986.00000000001
148 ; 16217.142564785974 ; 2836.59375855088 ; 3362217.820494442 ; 419815.87626553024 ; 35224.00000000001
149 ; 16097.920222210661 ; 2836.59375855088 ; 3378434.963059228 ; 422652.4700240811 ; 35462.00000000001
150 ; 15909.424186407003 ; 2836.59375855088 ; 3394532.8832814386 ; 425489.063782632 ; 35700.00000000001
151 ; 15872.332266419655 ; 2836.59375855088 ; 3410442.3074678457 ; 428325.6575411829 ; 35938.00000000001
152 ; 15584.537864981221 ; 2836.59375855088 ; 3426314.6397342654 ; 431162.25129973376 ; 36176.00000000001
153 ; 15525.975987356333 ; 2836.59375855088 ; 3441899.1775992466 ; 433998.84505828464 ; 36414.00000000001
154 ; 15566.291210080439 ; 2836.59375855088 ; 3457425.153586603 ; 436835.4388168355 ; 36652.00000000001
155 ; 15517.624315860008 ; 2836.59375855088 ; 3472991.4447966833 ; 439672.0325753864 ; 36890.00000000001
156 ; 15302.498286565347 ; 2836.59375855088 ; 3488509.0691125435 ; 442508.6263339373 ; 37128.00000000001
157 ; 15108.248463497664 ; 2836.59375855088 ; 3503811.567399109 ; 445345.22009248816 ; 37366.00000000001
158 ; 14896.33900381119 ; 2836.59375855088 ; 3518919.8158626063 ; 448181.81385103904 ; 37604.00000000001
159 ; 14936.732605626945 ; 2836.59375855088 ; 3533816.1548664174 ; 451018.4076095899 ; 37842.00000000001
160 ; 14605.755181358114 ; 2836.59375855088 ; 3548752.887472044 ; 453855.0013681408 ; 38080.00000000001
161 ; 14536.09859571282 ; 2836.59375855088 ; 3563358.6426534024 ; 456691.5951266917 ; 38318.00000000001
162 ; 14458.253122290256 ; 2836.59375855088 ; 3577894.741249115 ; 459528.18888524256 ; 38556.00000000001
163 ; 14210.2540972162 ; 2836.59375855088 ; 3592352.9943714053 ; 462364.78264379344 ; 38794.00000000001
164 ; 14082.531754129488 ; 2836.59375855088 ; 3606563.2484686216 ; 465201.3764023443 ; 39032.00000000001
165 ; 13856.841799131855 ; 2836.59375855088 ; 3620645.780222751 ; 468037.9701608952 ; 39270.00000000001
166 ; 13864.677397351637 ; 2836.59375855088 ; 3634502.6220218833 ; 470874.5639194461 ; 39508.00000000001
167 ; 13730.728953150618 ; 2836.59375855088 ; 3648367.299419235 ; 473711.15767799696 ; 39746.00000000001
168 ; 13555.209794035552 ; 2836.59375855088 ; 3662098.0283723855 ; 476547.75143654784 ; 39984.00000000001
169 ; 13304.601466879087 ; 2836.59375855088 ; 3675653.238166421 ; 479384.3451950987 ; 40222.00000000001
170 ; 13272.398975457021 ; 2836.59375855088 ; 3688957.8396333004 ; 482220.9389536496 ; 40460.00000000001
171 ; 12871.8767636809 ; 2836.59375855088 ; 3702230.2386087575 ; 485057.5327122005 ; 40698.00000000001
172 ; 12803.041032337578 ; 2836.59375855088 ; 3715102.1153724384 ; 487894.12647075136 ; 40936.00000000001
173 ; 12701.075610911268 ; 2836.59375855088 ; 3727905.156404776 ; 490730.72022930224 ; 41174.00000000001
174 ; 12880.743282681779 ; 2836.59375855088 ; 3740606.2320156875 ; 493567.3139878531 ; 41412.00000000001
175 ; 12629.4933802991 ; 2836.59375855088 ; 3753486.9752983693 ; 496403.907746404 ; 41650.00000000001
176 ; 12752.756009886512 ; 2836.59375855088 ; 3766116.4686786686 ; 499240.5015049549 ; 41888.00000000001
177 ; 12660.722249356137 ; 2836.59375855088 ; 3778869.224688555 ; 502077.09526350576 ; 42126.00000000001
178 ; 12868.026102943633 ; 2836.59375855088 ; 3791529.946937911 ; 504913.68902205664 ; 42364.00000000001
179 ; 12788.91639163877 ; 2836.59375855088 ; 3804397.973040855 ; 507750.2827806075 ; 42602.00000000001
180 ; 12665.117731083074 ; 2836.59375855088 ; 3817186.8894324936 ; 510586.8765391584 ; 42840.00000000001
181 ; 12830.123948001603 ; 2836.59375855088 ; 3829852.007163577 ; 513423.4702977093 ; 43078.00000000001
182 ; 12921.86521833467 ; 2836.59375855088 ; 3842682.1311115786 ; 516260.06405626016 ; 43316.00000000001
183 ; 13039.579398010346 ; 2836.59375855088 ; 3855603.9963299134 ; 519096.65781481104 ; 43554.00000000001
184 ; 12871.19350825091 ; 2836.59375855088 ; 3868643.575727924 ; 521933.2515733619 ; 43792.00000000001
185 ; 13155.892601758575 ; 2836.59375855088 ; 3881514.769236175 ; 524769.8453319129 ; 44030.00000000001
186 ; 13097.668525095698 ; 2836.59375855088 ; 3894670.6618379336 ; 527606.4390904638 ; 44268.00000000001
187 ; 13274.009162476 ; 2836.59375855088 ; 3907768.330363029 ; 530443.0328490147 ; 44506.00000000001
188 ; 13142.176566274378 ; 2836.59375855088 ; 3921042.339525505 ; 533279.6266075657 ; 44744.00000000001
