CSV File for the City 3 on Day 153
1 - Minute m 
2 - Power Consumed at minute m 
3 - Power Produced at minute m 
4 - Energy Consumed since the beginning of the day 
5 - Energy Produced since the beginning of the day 
6 - Energy Lost since the beginning of the day on lines starting from the city
 
0 ; 6194.7428991252245 ; 96145.8821021201 ; 0.0 ; 0.0 ; 0.0
1 ; 6853.330126502451 ; 95803.87414637294 ; 6194.7428991252245 ; 96145.8821021201 ; 0.0
2 ; 6973.2748574347115 ; 95496.75849551776 ; 13048.073025627677 ; 191949.75624849304 ; 0.0
3 ; 7370.705575737268 ; 95224.89624270736 ; 20021.347883062386 ; 287446.5147440108 ; 0.0
4 ; 7757.39292999894 ; 94988.61086405595 ; 27392.053458799655 ; 382671.41098671814 ; 0.0
5 ; 8041.665711698239 ; 94788.18646966496 ; 35149.4463887986 ; 477660.02185077406 ; 0.0
6 ; 8391.832529628116 ; 94623.86623886271 ; 43191.11210049684 ; 572448.208320439 ; 0.0
7 ; 8843.293934198553 ; 94495.85105950652 ; 51582.944630124955 ; 667072.0745593017 ; 0.0
8 ; 9112.024597780037 ; 94404.2983889971 ; 60426.23856432351 ; 761567.9256188083 ; 0.0
9 ; 9393.29896558446 ; 94349.32135205937 ; 69538.26316210354 ; 855972.2240078053 ; 0.0
10 ; 9649.70967759823 ; 94330.98808739374 ; 78931.562127688 ; 950321.5453598647 ; 0.0
11 ; 9985.727084274555 ; 94349.32135205937 ; 88581.27180528623 ; 1044652.5334472584 ; 0.0
12 ; 10459.870126809337 ; 94404.2983889971 ; 98566.99888956078 ; 1139001.8547993177 ; 0.0
13 ; 10531.942542889183 ; 94495.85105950652 ; 109026.86901637012 ; 1233406.1531883148 ; 0.0
14 ; 10844.74106268408 ; 94623.86623886263 ; 119558.81155925931 ; 1327902.0042478212 ; 0.0
15 ; 11177.639053110437 ; 94788.18646966496 ; 130403.55262194338 ; 1422525.8704866837 ; 0.0
16 ; 11506.965934089087 ; 94988.61086405595 ; 141581.19167505382 ; 1517314.0569563487 ; 0.0
17 ; 11796.508079616315 ; 95224.89624270727 ; 153088.15760914292 ; 1612302.6678204047 ; 0.0
18 ; 12121.22455549739 ; 95496.75849551785 ; 164884.66568875924 ; 1707527.564063112 ; 0.0
19 ; 12534.239269241529 ; 95803.87414637294 ; 177005.89024425662 ; 1803024.3225586298 ; 0.0
20 ; 12789.309551649178 ; 96145.88210212019 ; 189540.12951349813 ; 1898828.1967050028 ; 0.0
21 ; 13039.882378989707 ; 96522.38556416807 ; 202329.4390651473 ; 1994974.078807123 ; 0.0
22 ; 13194.966366284 ; 96932.95407982288 ; 215369.32144413702 ; 2091496.464371291 ; 0.0
23 ; 13486.250567051286 ; 97377.12570966354 ; 228564.28781042102 ; 2188429.418451114 ; 0.0
24 ; 13667.52152182847 ; 97854.4092868969 ; 242050.53837747232 ; 2285806.5441607777 ; 0.0
25 ; 13954.858607264003 ; 98364.28674472096 ; 255718.05989930077 ; 2383660.9534476744 ; 0.0
26 ; 14263.958959403208 ; 98906.21548822091 ; 269672.9185065648 ; 2482025.240192395 ; 0.0
27 ; 14484.609446496814 ; 99479.63078818472 ; 283936.877465968 ; 2580931.455680616 ; 0.0
28 ; 14718.594025982622 ; 100083.94817541236 ; 298421.48691246484 ; 2680411.086468801 ; 0.0
29 ; 14982.685182514684 ; 100718.5658155461 ; 313140.08093844744 ; 2780495.034644213 ; 0.0
30 ; 15186.144626162351 ; 101382.86684611322 ; 328122.7661209621 ; 2881213.600459759 ; 0.0
31 ; 15438.85615180228 ; 102076.22165930028 ; 343308.91074712446 ; 2982596.467305872 ; 0.0
32 ; 15492.487654286184 ; 102797.99011590591 ; 358747.76689892675 ; 3084672.6889651725 ; 0.0
33 ; 15871.062162087857 ; 103547.52367789774 ; 374240.25455321296 ; 3187470.6790810786 ; 0.0
34 ; 16232.272223009866 ; 104324.16744899325 ; 390111.31671530084 ; 3291018.2027589763 ; 0.0
35 ; 16156.884276159493 ; 105127.26211463685 ; 406343.5889383107 ; 3395342.3702079696 ; 0.0
36 ; 16500.767618577673 ; 105956.14577463326 ; 422500.4732144702 ; 3500469.6323226066 ; 0.0
37 ; 16699.532136319136 ; 106810.15566348679 ; 439001.2408330479 ; 3606425.77809724 ; 0.0
38 ; 16755.659399389464 ; 107688.62975516629 ; 455700.77296936704 ; 3713235.9337607264 ; 0.0
39 ; 17056.211692444347 ; 108590.9082505462 ; 472456.4323687565 ; 3820924.5635158927 ; 0.0
40 ; 16939.65009817695 ; 109516.33494715871 ; 489512.64406120084 ; 3929515.471766439 ; 0.0
41 ; 17437.079870830366 ; 110464.25849212238 ; 506452.2941593778 ; 4039031.8067135974 ; 0.0
42 ; 17662.7271756321 ; 111434.03352018377 ; 523889.37403020816 ; 4149496.06520572 ; 0.0
43 ; 17760.176879434697 ; 112425.0216797281 ; 541552.1012058402 ; 4260930.098725904 ; 0.0
44 ; 17782.759395570298 ; 113436.59255038385 ; 559312.278085275 ; 4373355.120405632 ; 0.0
45 ; 18119.87208933871 ; 114468.1244564737 ; 577095.0374808452 ; 4486791.712956016 ; 0.0
46 ; 18052.478555729624 ; 115519.00518105805 ; 595214.909570184 ; 4601259.83741249 ; 0.0
47 ; 18489.956951055046 ; 116588.63258569097 ; 613267.3881259136 ; 4716778.842593548 ; 0.0
48 ; 18544.07599311727 ; 117676.41514127025 ; 631757.3450769687 ; 4833367.475179239 ; 0.0
49 ; 18583.935919981668 ; 118781.77237552672 ; 650301.421070086 ; 4951043.89032051 ; 0.0
50 ; 18896.647506265566 ; 119904.13524277594 ; 668885.3569900676 ; 5069825.6626960365 ; 0.0
51 ; 19068.545687609716 ; 121042.94642155635 ; 687782.0044963332 ; 5189729.7979388125 ; 0.0
52 ; 19040.485581225603 ; 122197.66054571657 ; 706850.5501839429 ; 5310772.744360369 ; 0.0
53 ; 19181.461851445743 ; 123367.7443743989 ; 725891.0357651685 ; 5432970.404906086 ; 0.0
54 ; 19427.9236203844 ; 124552.67690620603 ; 745072.4976166142 ; 5556338.149280485 ; 0.0
55 ; 19336.60137325931 ; 125751.94944264549 ; 764500.4212369986 ; 5680890.8261866905 ; 0.0
56 ; 19578.501943847616 ; 126965.06560572419 ; 783837.022610258 ; 5806642.775629336 ; 0.0
57 ; 19680.62689680427 ; 128191.54131432295 ; 803415.5245541056 ; 5933607.84123506 ; 0.0
58 ; 19799.11352091801 ; 129430.9047237305 ; 823096.1514509099 ; 6061799.382549383 ; 0.0
59 ; 19864.035818458244 ; 130682.69613244949 ; 842895.264971828 ; 6191230.287273114 ; 0.0
60 ; 20165.937523156 ; 131946.4678601223 ; 862759.3007902862 ; 6321912.983405563 ; 0.0
61 ; 20123.503660475784 ; 133221.78410015997 ; 882925.2383134422 ; 6453859.451265685 ; 0.0
62 ; 20284.72784050797 ; 134508.22075039183 ; 903048.741973918 ; 6587081.235365845 ; 0.0
63 ; 20233.110138325224 ; 135805.3652247997 ; 923333.469814426 ; 6721589.456116237 ; 0.0
64 ; 20210.483806641772 ; 137112.8162491497 ; 943566.5799527513 ; 6857394.821341037 ; 0.0
65 ; 20462.502523112584 ; 138430.18364309976 ; 963777.0637593931 ; 6994507.637590187 ; 0.0
66 ; 20466.782190017675 ; 139757.08809112752 ; 984239.5662825056 ; 7132937.8212332865 ; 0.0
67 ; 20413.219551928516 ; 141093.16090441376 ; 1004706.3484725233 ; 7272694.909324414 ; 0.0
68 ; 20610.17737265794 ; 142438.04377560754 ; 1025119.5680244518 ; 7413788.070228828 ; 0.0
69 ; 20576.353261643624 ; 143791.38852821078 ; 1045729.7453971098 ; 7556226.114004436 ; 0.0
70 ; 20687.970904271944 ; 145152.85686214134 ; 1066306.0986587533 ; 7700017.502532647 ; 0.0
71 ; 20758.645476261125 ; 146522.12009686587 ; 1086994.0695630254 ; 7845170.359394789 ; 0.0
72 ; 20935.16767972562 ; 147898.85891334116 ; 1107752.7150392865 ; 7991692.479491655 ; 0.0
73 ; 20863.364465101946 ; 149282.76309586046 ; 1128687.8827190122 ; 8139591.338404996 ; 0.0
74 ; 20882.820797877786 ; 150673.53127476986 ; 1149551.247184114 ; 8288874.101500857 ; 0.0
75 ; 20924.327684202013 ; 152070.8706709004 ; 1170434.067981992 ; 8439547.632775627 ; 0.0
76 ; 21026.671626724536 ; 153474.49684245183 ; 1191358.395666194 ; 8591618.503446527 ; 0.0
77 ; 20988.99950787388 ; 154884.13343496466 ; 1212385.0672929185 ; 8745093.000288978 ; 0.0
78 ; 20984.41783302432 ; 156299.51193492603 ; 1233374.0668007922 ; 8899977.133723943 ; 0.0
79 ; 21071.046450035417 ; 157720.37142747213 ; 1254358.4846338166 ; 9056276.64565887 ; 0.0
80 ; 20959.698061407144 ; 159146.45835857873 ; 1275429.531083852 ; 9213997.017086342 ; 0.0
81 ; 21108.753958135923 ; 160577.52630206 ; 1296389.2291452591 ; 9373143.47544492 ; 0.0
82 ; 21011.025701243725 ; 162013.33573164113 ; 1317497.983103395 ; 9533721.00174698 ; 0.0
83 ; 21128.05273530297 ; 163453.6537983128 ; 1338509.0088046386 ; 9695734.337478621 ; 0.0
84 ; 21027.69952581664 ; 164898.25411312951 ; 1359637.0615399417 ; 9859187.991276933 ; 0.0
85 ; 20890.152282384355 ; 166346.9165355719 ; 1380664.7610657583 ; 1.0024086245390063E7 ; 0.0
86 ; 20952.381145673768 ; 167799.4269675543 ; 1401554.9133481428 ; 1.0190433161925634E7 ; 0.0
87 ; 20971.095510366056 ; 169255.57715312627 ; 1422507.2944938166 ; 1.0358232588893188E7 ; 0.0
88 ; 21112.977537469997 ; 170715.1644838882 ; 1443478.3900041827 ; 1.0527488166046314E7 ; 0.0
89 ; 20804.920693683478 ; 172177.99181011564 ; 1464591.3675416526 ; 1.0698203330530202E7 ; 0.0
90 ; 20801.57277375894 ; 173643.867257563 ; 1485396.288235336 ; 1.0870381322340317E7 ; 0.0
91 ; 20958.612540977338 ; 175112.6040499016 ; 1506197.861009095 ; 1.104402518959788E7 ; 0.0
92 ; 20807.492920057928 ; 176584.02033672715 ; 1527156.4735500724 ; 1.1219137793647783E7 ; 0.0
93 ; 20924.03868951422 ; 178057.93902706003 ; 1547963.9664701303 ; 1.139572181398451E7 ; 0.0
94 ; 20725.188603650124 ; 179534.18762824862 ; 1568888.0051596444 ; 1.157377975301157E7 ; 0.0
95 ; 20639.074923630633 ; 181012.59809017662 ; 1589613.1937632945 ; 1.1753313940639818E7 ; 0.0
96 ; 20759.713988425527 ; 182493.00665466703 ; 1610252.268686925 ; 1.1934326538729995E7 ; 0.0
97 ; 20519.92363219868 ; 183975.25370996827 ; 1631011.9826753505 ; 1.2116819545384662E7 ; 0.0
98 ; 20544.852154151977 ; 185459.1836502032 ; 1651531.9063075492 ; 1.230079479909463E7 ; 0.0
99 ; 20131.10537511854 ; 186944.644739658 ; 1672076.7584617012 ; 1.2486253982744833E7 ; 0.0
100 ; 20487.27367983368 ; 188431.48898178348 ; 1692207.8638368198 ; 1.2673198627484491E7 ; 0.0
101 ; 20234.960927386503 ; 189919.571992781 ; 1712695.1375166534 ; 1.2861630116466274E7 ; 0.0
102 ; 20197.9074209486 ; 191408.75287964268 ; 1732930.09844404 ; 1.3051549688459055E7 ; 0.0
103 ; 19996.724109201776 ; 192898.8941225158 ; 1753128.0058649885 ; 1.3242958441338697E7 ; 0.0
104 ; 19985.443304287335 ; 194389.8614612605 ; 1773124.7299741902 ; 1.3435857335461214E7 ; 0.0
105 ; 19928.24235699093 ; 195881.52378607192 ; 1793110.1732784775 ; 1.3630247196922475E7 ; 0.0
106 ; 19840.589225263036 ; 197373.75303203723 ; 1813038.4156354684 ; 1.3826128720708547E7 ; 0.0
107 ; 19604.6971297537 ; 198866.4240775014 ; 1832879.0048607315 ; 1.4023502473740585E7 ; 0.0
108 ; 19380.718329257536 ; 200359.4146461152 ; 1852483.7019904852 ; 1.4222368897818087E7 ; 0.0
109 ; 19303.454934925485 ; 201852.60521244325 ; 1871864.4203197428 ; 1.4422728312464202E7 ; 0.0
110 ; 19274.403638044612 ; 203345.87891101066 ; 1891167.8752546683 ; 1.4624580917676644E7 ; 0.0
111 ; 19149.060481864108 ; 204839.1214486703 ; 1910442.278892713 ; 1.4827926796587655E7 ; 0.0
112 ; 18982.519519844052 ; 206332.22102017465 ; 1929591.339374577 ; 1.5032765918036325E7 ; 0.0
113 ; 18921.568649647772 ; 207825.06822683944 ; 1948573.858894421 ; 1.52390981390565E7 ; 0.0
114 ; 18715.252782446507 ; 209317.55599818932 ; 1967495.4275440688 ; 1.544692320728334E7 ; 0.0
115 ; 18581.634029006298 ; 210809.5795164786 ; 1986210.6803265153 ; 1.565624076328153E7 ; 0.0
116 ; 18426.5074013659 ; 212301.0361439829 ; 2004792.3143555217 ; 1.5867050342798008E7 ; 0.0
117 ; 18032.5547132119 ; 213791.8253529608 ; 2023218.8217568875 ; 1.607935137894199E7 ; 0.0
118 ; 18107.823026177542 ; 215281.84865818755 ; 2041251.3764700994 ; 1.6293143204294952E7 ; 0.0
119 ; 17896.01471097265 ; 216771.00955196682 ; 2059359.199496277 ; 1.6508425052953139E7 ; 0.0
120 ; 17794.176992517776 ; 218259.21344152692 ; 2077255.2142072495 ; 1.6725196062505106E7 ; 0.0
121 ; 17594.326303184345 ; 219746.3675887149 ; 2095049.3911997671 ; 1.6943455275946632E7 ; 0.0
122 ; 17214.52599258162 ; 221232.3810519008 ; 2112643.7175029516 ; 1.7163201643535346E7 ; 0.0
123 ; 17115.356892806216 ; 222717.16463001043 ; 2129858.2434955332 ; 1.7384434024587248E7 ; 0.0
124 ; 17023.9906429984 ; 224200.63080860584 ; 2146973.6003883393 ; 1.760715118921726E7 ; 0.0
125 ; 16819.680197226255 ; 225682.69370793653 ; 2163997.5910313376 ; 1.7831351820025865E7 ; 0.0
126 ; 16659.973519416042 ; 227163.26903288695 ; 2180817.271228564 ; 1.80570345137338E7 ; 0.0
127 ; 16415.042683991636 ; 228642.27402474816 ; 2197477.24474798 ; 1.828419778276669E7 ; 0.0
128 ; 16329.709284875857 ; 230119.62741474487 ; 2213892.2874319716 ; 1.8512840056791436E7 ; 0.0
129 ; 15989.534233620392 ; 231595.24937925106 ; 2230221.9967168476 ; 1.874295968420618E7 ; 0.0
130 ; 15755.709336388649 ; 233069.06149662918 ; 2246211.530950468 ; 1.897455493358543E7 ; 0.0
131 ; 15489.527775139475 ; 234540.98670563256 ; 2261967.240286857 ; 1.920762399508206E7 ; 0.0
132 ; 15479.920812264894 ; 236010.94926531013 ; 2277456.7680619964 ; 1.9442164981787693E7 ; 0.0
133 ; 15277.963370966747 ; 237478.87471635756 ; 2292936.6888742615 ; 1.9678175931053E7 ; 0.0
134 ; 14908.761056814668 ; 238944.6898438578 ; 2308214.652245228 ; 1.9915654805769358E7 ; 0.0
135 ; 14537.434400300051 ; 240408.32264136086 ; 2323123.413302043 ; 2.0154599495613217E7 ; 0.0
136 ; 14285.308175678409 ; 241869.70227624886 ; 2337660.847702343 ; 2.039500781825458E7 ; 0.0
137 ; 14167.651483486115 ; 243328.75905633968 ; 2351946.1558780214 ; 2.0636877520530827E7 ; 0.0
138 ; 13931.573311097058 ; 244785.42439768108 ; 2366113.8073615073 ; 2.088020627958717E7 ; 0.0
139 ; 13560.655604116277 ; 246239.6307934904 ; 2380045.3806726043 ; 2.112499170398485E7 ; 0.0
140 ; 13449.900075624877 ; 247691.31178419603 ; 2393606.0362767205 ; 2.137123133477834E7 ; 0.0
141 ; 13267.896438673759 ; 249140.4019285392 ; 2407055.936352345 ; 2.1618922646562535E7 ; 0.0
142 ; 13044.53586602133 ; 250586.83677569596 ; 2420323.8327910188 ; 2.1868063048491076E7 ; 0.0
143 ; 12737.333433169324 ; 252030.5528383806 ; 2433368.36865704 ; 2.2118649885266773E7 ; 0.0
144 ; 12324.90347625003 ; 253471.48756689343 ; 2446105.7020902093 ; 2.2370680438105155E7 ; 0.0
145 ; 12337.71374294854 ; 254909.57932407755 ; 2458430.6055664592 ; 2.2624151925672047E7 ; 0.0
146 ; 12230.871224085642 ; 256344.76736115039 ; 2470768.319309408 ; 2.2879061504996125E7 ; 0.0
147 ; 12033.358337761096 ; 257776.99179437658 ; 2482999.1905334936 ; 2.3135406272357274E7 ; 0.0
148 ; 12102.827639598905 ; 259206.19358255205 ; 2495032.5488712545 ; 2.339318326415165E7 ; 0.0
149 ; 11900.264824331987 ; 260632.31450526702 ; 2507135.3765108534 ; 2.3652389457734205E7 ; 0.0
150 ; 11793.25654738795 ; 262055.29714192063 ; 2519035.6413351856 ; 2.3913021772239473E7 ; 0.0
151 ; 11754.436679978655 ; 263475.0848514583 ; 2530828.897882574 ; 2.4175077069381393E7 ; 0.0
152 ; 11668.156903259585 ; 264891.6217528047 ; 2542583.3345625526 ; 2.4438552154232852E7 ; 0.0
153 ; 11593.854812332585 ; 266304.8527059677 ; 2554251.491465812 ; 2.470344377598566E7 ; 0.0
154 ; 11568.71723362229 ; 267714.72329378704 ; 2565845.3462781445 ; 2.4969748628691625E7 ; 0.0
155 ; 11410.251213572574 ; 269121.17980430514 ; 2577414.063511767 ; 2.5237463351985414E7 ; 0.0
156 ; 11193.296133847723 ; 270524.16921373643 ; 2588824.3147253394 ; 2.550658453178972E7 ; 0.0
157 ; 11100.944546047052 ; 271923.6391700136 ; 2600017.6108591873 ; 2.5777108701003455E7 ; 0.0
158 ; 11199.808356541354 ; 273319.53797688923 ; 2611118.5554052345 ; 2.6049032340173468E7 ; 0.0
159 ; 11032.54398838281 ; 274711.8145785733 ; 2622318.3637617757 ; 2.632235187815036E7 ; 0.0
160 ; 10946.688093056877 ; 276100.4185448861 ; 2633350.9077501586 ; 2.6597063692728933E7 ; 0.0
161 ; 11109.373320299443 ; 277485.30005690845 ; 2644297.5958432155 ; 2.6873164111273818E7 ; 0.0
162 ; 10774.507682576255 ; 278866.4098931111 ; 2655406.969163515 ; 2.7150649411330726E7 ; 0.0
163 ; 10460.092645000641 ; 280243.6994159461 ; 2666181.4768460914 ; 2.7429515821223836E7 ; 0.0
164 ; 10493.457377745459 ; 281617.12055888306 ; 2676641.569491092 ; 2.770975952063978E7 ; 0.0
165 ; 10329.40953951385 ; 282986.6258138747 ; 2687135.0268688374 ; 2.7991376641198665E7 ; 0.0
166 ; 10410.082097303708 ; 284352.1682192368 ; 2697464.436408351 ; 2.827436326701254E7 ; 0.0
167 ; 10172.760020891386 ; 285713.7013479263 ; 2707874.5185056548 ; 2.855871543523178E7 ; 0.0
168 ; 10067.43761683169 ; 287071.17929620505 ; 2718047.278526546 ; 2.8844429136579704E7 ; 0.0
169 ; 10037.39881198489 ; 288424.55667267455 ; 2728114.7161433776 ; 2.913150031587591E7 ; 0.0
170 ; 9750.699573994332 ; 289773.78858766844 ; 2738152.1149553624 ; 2.9419924872548584E7 ; 0.0
171 ; 9649.872058866176 ; 291118.83064299106 ; 2747902.8145293565 ; 2.970969866113625E7 ; 0.0
172 ; 9710.024309186474 ; 292459.638921989 ; 2757552.6865882226 ; 3.000081749177924E7 ; 0.0
173 ; 9495.477901903196 ; 293796.169979944 ; 2767262.710897409 ; 3.029327713070123E7 ; 0.0
174 ; 9443.867261690826 ; 295128.3808347769 ; 2776758.188799312 ; 3.0587073300681174E7 ; 0.0
175 ; 9669.676636446615 ; 296456.22895805066 ; 2786202.056061003 ; 3.088220168151595E7 ; 0.0
176 ; 9520.227738349062 ; 297779.6722662624 ; 2795871.7326974496 ; 3.1178657910474002E7 ; 0.0
177 ; 9519.946926414623 ; 299098.66911241534 ; 2805391.960435799 ; 3.1476437582740266E7 ; 0.0
178 ; 9477.397596502367 ; 300413.17827785946 ; 2814911.9073622134 ; 3.177553625185268E7 ; 0.0
179 ; 9522.38415915053 ; 301723.158964393 ; 2824389.3049587156 ; 3.207594943013054E7 ; 0.0
180 ; 9628.974040937343 ; 303028.5707866149 ; 2833911.689117866 ; 3.2377672589094933E7 ; 0.0
181 ; 9750.936297268985 ; 304329.3737645199 ; 2843540.6631588032 ; 3.2680701159881547E7 ; 0.0
182 ; 9713.349677624594 ; 305625.52831632877 ; 2853291.5994560723 ; 3.2985030533646066E7 ; 0.0
183 ; 9737.448829862706 ; 306916.995251544 ; 2863004.949133697 ; 3.3290656061962396E7 ; 0.0
184 ; 9587.89919490446 ; 308203.7357642252 ; 2872742.3979635597 ; 3.359757305721394E7 ; 0.0
185 ; 9815.321791394606 ; 309485.7114264754 ; 2882330.2971584643 ; 3.390577679297817E7 ; 0.0
186 ; 9738.136614676787 ; 310762.8841821319 ; 2892145.618949859 ; 3.421526250440464E7 ; 0.0
187 ; 9815.453449664252 ; 312035.2163406544 ; 2901883.7555645355 ; 3.4526025388586774E7 ; 0.0
188 ; 9778.245083481728 ; 313302.6705712042 ; 2911699.2090141997 ; 3.483806060492743E7 ; 0.0
189 ; 9820.431956116314 ; 314565.2098969075 ; 2921477.454097681 ; 3.515136327549863E7 ; 0.0
190 ; 9745.090650176648 ; 315822.7976892976 ; 2931297.8860537973 ; 3.5465928485395536E7 ; 0.0
191 ; 9818.325247436924 ; 317075.3976629289 ; 2941042.976703974 ; 3.578175128308483E7 ; 0.0
192 ; 9890.018142307159 ; 318322.9738701583 ; 2950861.3019514107 ; 3.609882668074776E7 ; 0.0
193 ; 9735.46179978093 ; 319565.49069608725 ; 2960751.320093718 ; 3.641714965461792E7 ; 0.0
194 ; 9862.82577813851 ; 320802.91285365983 ; 2970486.7818934987 ; 3.673671514531401E7 ; 0.0
195 ; 9897.420823396234 ; 322035.20537891256 ; 2980349.607671637 ; 3.7057518058167666E7 ; 0.0
196 ; 9869.46356629352 ; 323262.33362636867 ; 2990247.0284950333 ; 3.737955326354658E7 ; 0.0
197 ; 9835.518033033954 ; 324484.2632645746 ; 3000116.4920613267 ; 3.7702815597172946E7 ; 0.0
198 ; 9902.78903436733 ; 325700.96027177287 ; 3009952.010094361 ; 3.802729986043752E7 ; 0.0
199 ; 10116.918075660156 ; 326912.3909317069 ; 3019854.7991287285 ; 3.8353000820709296E7 ; 0.0
200 ; 10057.437071621862 ; 328118.5218295541 ; 3029971.7172043887 ; 3.8679913211641E7 ; 0.0
201 ; 9819.991876217064 ; 329319.31984798226 ; 3040029.1542760106 ; 3.900803173347055E7 ; 0.0
202 ; 10018.765106013283 ; 330514.7521633264 ; 3049849.1461522277 ; 3.933735105331853E7 ; 0.0
203 ; 10063.608364261752 ; 331704.7862418809 ; 3059867.911258241 ; 3.966786580548186E7 ; 0.0
204 ; 10197.841419945911 ; 332889.38983630494 ; 3069931.519622503 ; 3.999957059172374E7 ; 0.0
205 ; 10091.857907877526 ; 334068.5309821353 ; 3080129.361042449 ; 4.0332459981560044E7 ; 0.0
206 ; 10026.486700546837 ; 335242.17799440585 ; 3090221.218950326 ; 4.066652851254218E7 ; 0.0
207 ; 9962.309332160012 ; 336410.2994643681 ; 3100247.705650873 ; 4.100177069053659E7 ; 0.0
208 ; 10232.654118816588 ; 337572.86425631115 ; 3110210.014983033 ; 4.1338180990000956E7 ; 0.0
209 ; 10138.816884279906 ; 338729.8415044761 ; 3120442.669101849 ; 4.167575385425726E7 ; 0.0
210 ; 10323.010468292854 ; 339881.2006100651 ; 3130581.485986129 ; 4.201448369576174E7 ; 0.0
211 ; 10212.538377453264 ; 341026.9112383379 ; 3140904.496454422 ; 4.2354364896371804E7 ; 0.0
212 ; 10048.29460920695 ; 342166.9433157974 ; 3151117.034831875 ; 4.269539180761014E7 ; 0.0
