CSV File for the City 1 on Day 303
1 - Minute m 
2 - Power Consumed at minute m 
3 - Power Produced at minute m 
4 - Energy Consumed since the beginning of the day 
5 - Energy Produced since the beginning of the day 
6 - Energy Lost since the beginning of the day on lines starting from the city
 
0 ; 11117.027883297185 ; 13627.26692444073 ; 0.0 ; 0.0 ; 0.0
1 ; 11596.81577875918 ; 13627.26692444073 ; 11117.027883297185 ; 13627.26692444073 ; 238.00000000000003
2 ; 11852.149783753779 ; 13627.26692444073 ; 22713.843662056366 ; 27254.53384888146 ; 476.00000000000006
3 ; 12420.782411515107 ; 13627.26692444073 ; 34565.99344581015 ; 40881.80077332219 ; 714.0000000000001
4 ; 12640.968240559067 ; 13627.26692444073 ; 46986.77585732526 ; 54509.06769776292 ; 952.0000000000001
5 ; 13100.305592857958 ; 13627.26692444073 ; 59627.74409788432 ; 68136.33462220365 ; 1190.0000000000002
6 ; 13484.717125770145 ; 13627.26692444073 ; 72728.04969074228 ; 81763.60154664438 ; 1428.0000000000002
7 ; 14034.09378967719 ; 13627.26692444073 ; 86212.76681651242 ; 95390.86847108511 ; 1666.0000000000002
8 ; 14390.806924101455 ; 13627.26692444073 ; 100246.86060618961 ; 109018.13539552584 ; 1904.0000000000002
9 ; 14502.93244018901 ; 13627.26692444073 ; 114637.66753029107 ; 122645.40231996657 ; 2142.0000000000005
10 ; 14849.04738206678 ; 13627.26692444073 ; 129140.59997048008 ; 136272.6692444073 ; 2380.0000000000005
11 ; 15241.487477500179 ; 13627.26692444073 ; 143989.64735254686 ; 149899.936168848 ; 2618.0000000000005
12 ; 15678.189765925727 ; 13627.26692444073 ; 159231.13483004703 ; 163527.20309328876 ; 2856.0000000000005
13 ; 15930.13416227629 ; 13627.26692444073 ; 174909.32459597275 ; 177154.4700177295 ; 3094.0000000000005
14 ; 16379.474001569484 ; 13627.26692444073 ; 190839.45875824903 ; 190781.73694217025 ; 3332.0000000000005
15 ; 16641.63320104506 ; 13627.26692444073 ; 207218.9327598185 ; 204409.003866611 ; 3570.0000000000005
16 ; 16830.84854048667 ; 13627.26692444073 ; 223860.56596086358 ; 218036.27079105173 ; 3808.0000000000005
17 ; 17168.852972807534 ; 13627.26692444073 ; 240691.41450135026 ; 231663.53771549248 ; 4046.0000000000005
18 ; 17577.03046585078 ; 13627.26692444073 ; 257860.2674741578 ; 245290.80463993322 ; 4284.000000000001
19 ; 17927.012140982493 ; 13627.26692444073 ; 275437.2979400086 ; 258918.07156437397 ; 4522.000000000001
20 ; 18024.43321843473 ; 13627.26692444073 ; 293364.31008099107 ; 272545.3384888147 ; 4760.000000000001
21 ; 18469.720322056837 ; 13627.26692444073 ; 311388.7432994258 ; 286172.60541325546 ; 4998.000000000001
22 ; 18766.879615360114 ; 13627.26692444073 ; 329858.46362148266 ; 299799.8723376962 ; 5236.000000000001
23 ; 19143.456088197272 ; 13627.26692444073 ; 348625.3432368428 ; 313427.13926213695 ; 5474.000000000001
24 ; 19371.03555834487 ; 13627.26692444073 ; 367768.7993250401 ; 327054.4061865777 ; 5712.000000000001
25 ; 19589.666862763966 ; 13627.26692444073 ; 387139.83488338493 ; 340681.67311101843 ; 5950.000000000001
26 ; 19916.73779064608 ; 13627.26692444073 ; 406729.5017461489 ; 354308.9400354592 ; 6188.000000000001
27 ; 20245.315403383935 ; 13627.26692444073 ; 426646.239536795 ; 367936.2069598999 ; 6426.000000000001
28 ; 20401.82193576802 ; 13627.26692444073 ; 446891.55494017893 ; 381563.47388434067 ; 6664.000000000001
29 ; 20542.336144408222 ; 13627.26692444073 ; 467293.37687594694 ; 395190.7408087814 ; 6902.000000000001
30 ; 20898.063462213122 ; 13627.26692444073 ; 487835.71302035515 ; 408818.00773322216 ; 7140.000000000001
31 ; 21119.794301260852 ; 13627.26692444073 ; 508733.7764825683 ; 422445.2746576629 ; 7378.000000000001
32 ; 21424.786070667546 ; 13627.26692444073 ; 529853.5707838292 ; 436072.54158210364 ; 7616.000000000001
33 ; 21722.71157257269 ; 13627.26692444073 ; 551278.3568544968 ; 449699.8085065444 ; 7854.000000000001
34 ; 21619.900765137827 ; 13627.26692444073 ; 573001.0684270695 ; 463327.07543098513 ; 8092.000000000001
35 ; 22003.09141762905 ; 13627.26692444073 ; 594620.9691922073 ; 476954.3423554259 ; 8330.000000000002
36 ; 22281.207500188255 ; 13627.26692444073 ; 616624.0606098364 ; 490581.6092798666 ; 8568.000000000002
37 ; 22430.606797990888 ; 13627.26692444073 ; 638905.2681100246 ; 504208.87620430737 ; 8806.000000000002
38 ; 22747.823272491405 ; 13627.26692444073 ; 661335.8749080155 ; 517836.1431287481 ; 9044.000000000002
39 ; 22953.07350674168 ; 13627.26692444073 ; 684083.6981805069 ; 531463.4100531888 ; 9282.000000000002
40 ; 23214.856212677623 ; 13627.26692444073 ; 707036.7716872486 ; 545090.6769776295 ; 9520.000000000002
41 ; 23478.997857889168 ; 13627.26692444073 ; 730251.6278999263 ; 558717.9439020703 ; 9758.000000000002
42 ; 23589.839628523943 ; 13627.26692444073 ; 753730.6257578154 ; 572345.210826511 ; 9996.000000000002
43 ; 23703.340115232662 ; 13627.26692444073 ; 777320.4653863393 ; 585972.4777509518 ; 10234.000000000002
44 ; 24128.54651493941 ; 13627.26692444073 ; 801023.805501572 ; 599599.7446753925 ; 10472.000000000002
45 ; 24299.812366011203 ; 13627.26692444073 ; 825152.3520165114 ; 613227.0115998333 ; 10710.000000000002
46 ; 24315.548074804025 ; 13627.26692444073 ; 849452.1643825226 ; 626854.278524274 ; 10948.000000000002
47 ; 24486.974488930926 ; 13627.26692444073 ; 873767.7124573266 ; 640481.5454487148 ; 11186.000000000002
48 ; 24605.959773714658 ; 13627.26692444073 ; 898254.6869462575 ; 654108.8123731555 ; 11424.000000000002
49 ; 24653.02079551929 ; 13627.26692444073 ; 922860.6467199721 ; 667736.0792975962 ; 11662.000000000002
50 ; 24865.046929378164 ; 13627.26692444073 ; 947513.6675154914 ; 681363.346222037 ; 11900.000000000002
51 ; 24908.419579903824 ; 13627.26692444073 ; 972378.7144448695 ; 694990.6131464777 ; 12138.000000000002
52 ; 25343.162169741623 ; 13627.26692444073 ; 997287.1340247734 ; 708617.8800709185 ; 12376.000000000002
53 ; 25518.072634210934 ; 13627.26692444073 ; 1022630.296194515 ; 722245.1469953592 ; 12614.000000000002
54 ; 25521.211872649288 ; 13627.26692444073 ; 1048148.3688287259 ; 735872.4139198 ; 12852.000000000002
55 ; 25554.13943502856 ; 13627.26692444073 ; 1073669.5807013751 ; 749499.6808442407 ; 13090.000000000002
56 ; 25735.78321447929 ; 13627.26692444073 ; 1099223.7201364038 ; 763126.9477686814 ; 13328.000000000002
57 ; 25929.045547213183 ; 13627.26692444073 ; 1124959.503350883 ; 776754.2146931222 ; 13566.000000000002
58 ; 26046.7994019212 ; 13627.26692444073 ; 1150888.5488980962 ; 790381.4816175629 ; 13804.000000000002
59 ; 26060.832597992645 ; 13627.26692444073 ; 1176935.3483000174 ; 804008.7485420037 ; 14042.000000000002
60 ; 26167.92870282072 ; 13627.26692444073 ; 1202996.18089801 ; 817636.0154664444 ; 14280.000000000002
61 ; 26195.311341830155 ; 13627.26692444073 ; 1229164.1096008308 ; 831263.2823908852 ; 14518.000000000002
62 ; 26318.008601902413 ; 13627.26692444073 ; 1255359.420942661 ; 844890.5493153259 ; 14756.000000000002
63 ; 26267.29584548437 ; 13627.26692444073 ; 1281677.4295445634 ; 858517.8162397667 ; 14994.000000000002
64 ; 26649.81747398793 ; 13627.26692444073 ; 1307944.7253900478 ; 872145.0831642074 ; 15232.000000000002
65 ; 26590.056781481406 ; 13627.26692444073 ; 1334594.5428640356 ; 885772.3500886481 ; 15470.000000000002
66 ; 26651.424800023542 ; 13627.26692444073 ; 1361184.599645517 ; 899399.6170130889 ; 15708.000000000002
67 ; 26565.710790643032 ; 13627.26692444073 ; 1387836.0244455405 ; 913026.8839375296 ; 15946.000000000002
68 ; 26807.798730752802 ; 13627.26692444073 ; 1414401.7352361835 ; 926654.1508619704 ; 16184.000000000002
69 ; 26730.373354281226 ; 13627.26692444073 ; 1441209.5339669364 ; 940281.4177864111 ; 16422.000000000004
70 ; 26915.1793856606 ; 13627.26692444073 ; 1467939.9073212177 ; 953908.6847108519 ; 16660.000000000004
71 ; 26847.898067105798 ; 13627.26692444073 ; 1494855.0867068784 ; 967535.9516352926 ; 16898.000000000004
72 ; 26964.381812116746 ; 13627.26692444073 ; 1521702.9847739842 ; 981163.2185597334 ; 17136.000000000004
73 ; 26971.731965083185 ; 13627.26692444073 ; 1548667.366586101 ; 994790.4854841741 ; 17374.000000000004
74 ; 27092.39390322594 ; 13627.26692444073 ; 1575639.0985511842 ; 1008417.7524086148 ; 17612.000000000004
75 ; 27121.46647996514 ; 13627.26692444073 ; 1602731.49245441 ; 1022045.0193330556 ; 17850.000000000004
76 ; 27185.45371456151 ; 13627.26692444073 ; 1629852.9589343753 ; 1035672.2862574963 ; 18088.000000000004
77 ; 27074.14498183271 ; 13627.26692444073 ; 1657038.4126489367 ; 1049299.553181937 ; 18326.000000000004
78 ; 27073.45618113655 ; 13627.26692444073 ; 1684112.5576307694 ; 1062926.8201063776 ; 18564.000000000004
79 ; 27231.794525009405 ; 13627.26692444073 ; 1711186.013811906 ; 1076554.0870308182 ; 18802.000000000004
80 ; 27075.43554291202 ; 13627.26692444073 ; 1738417.8083369154 ; 1090181.3539552588 ; 19040.000000000004
81 ; 27090.381966569978 ; 13627.26692444073 ; 1765493.2438798274 ; 1103808.6208796995 ; 19278.000000000004
82 ; 27130.038570182172 ; 13627.26692444073 ; 1792583.6258463974 ; 1117435.88780414 ; 19516.000000000004
83 ; 27015.259582499937 ; 13627.26692444073 ; 1819713.6644165795 ; 1131063.1547285807 ; 19754.000000000004
84 ; 27046.04157264553 ; 13627.26692444073 ; 1846728.9239990795 ; 1144690.4216530214 ; 19992.000000000004
85 ; 27109.375638547284 ; 13627.26692444073 ; 1873774.965571725 ; 1158317.688577462 ; 20230.000000000004
86 ; 27146.425166773497 ; 13627.26692444073 ; 1900884.3412102724 ; 1171944.9555019026 ; 20468.000000000004
87 ; 26984.200098714846 ; 13627.26692444073 ; 1928030.766377046 ; 1185572.2224263432 ; 20706.000000000004
88 ; 26939.313992868836 ; 13627.26692444073 ; 1955014.9664757608 ; 1199199.4893507839 ; 20944.000000000004
89 ; 26789.48034106294 ; 13627.26692444073 ; 1981954.2804686297 ; 1212826.7562752245 ; 21182.000000000004
90 ; 26929.38106977086 ; 13627.26692444073 ; 2008743.7608096926 ; 1226454.0231996651 ; 21420.000000000004
91 ; 26756.02793382579 ; 13627.26692444073 ; 2035673.1418794633 ; 1240081.2901241058 ; 21658.000000000004
92 ; 26584.929291320313 ; 13627.26692444073 ; 2062429.169813289 ; 1253708.5570485464 ; 21896.000000000004
93 ; 26692.58304357618 ; 13627.26692444073 ; 2089014.0991046093 ; 1267335.823972987 ; 22134.000000000004
94 ; 26697.775181227425 ; 13627.26692444073 ; 2115706.6821481856 ; 1280963.0908974276 ; 22372.000000000004
95 ; 26597.152120493323 ; 13627.26692444073 ; 2142404.457329413 ; 1294590.3578218683 ; 22610.000000000004
96 ; 26564.906761031467 ; 13627.26692444073 ; 2169001.6094499063 ; 1308217.624746309 ; 22848.000000000004
97 ; 26468.717642477422 ; 13627.26692444073 ; 2195566.516210938 ; 1321844.8916707495 ; 23086.000000000004
98 ; 26285.45929239227 ; 13627.26692444073 ; 2222035.233853415 ; 1335472.1585951902 ; 23324.000000000004
99 ; 26107.932145118768 ; 13627.26692444073 ; 2248320.6931458074 ; 1349099.4255196308 ; 23562.000000000004
100 ; 26086.156698204057 ; 13627.26692444073 ; 2274428.625290926 ; 1362726.6924440714 ; 23800.000000000004
101 ; 25971.09592227344 ; 13627.26692444073 ; 2300514.78198913 ; 1376353.959368512 ; 24038.000000000004
102 ; 25964.365445096802 ; 13627.26692444073 ; 2326485.877911404 ; 1389981.2262929527 ; 24276.000000000004
103 ; 25740.943207738357 ; 13627.26692444073 ; 2352450.2433565008 ; 1403608.4932173933 ; 24514.000000000004
104 ; 25665.986759425043 ; 13627.26692444073 ; 2378191.186564239 ; 1417235.760141834 ; 24752.000000000004
105 ; 25394.99696388438 ; 13627.26692444073 ; 2403857.1733236643 ; 1430863.0270662745 ; 24990.000000000004
106 ; 25479.927883427816 ; 13627.26692444073 ; 2429252.1702875486 ; 1444490.2939907152 ; 25228.000000000004
107 ; 25322.42055027863 ; 13627.26692444073 ; 2454732.098170976 ; 1458117.5609151558 ; 25466.000000000004
108 ; 25268.328751311514 ; 13627.26692444073 ; 2480054.518721255 ; 1471744.8278395964 ; 25704.000000000004
109 ; 24985.496554878573 ; 13627.26692444073 ; 2505322.8474725666 ; 1485372.094764037 ; 25942.000000000004
110 ; 24642.37881644301 ; 13627.26692444073 ; 2530308.344027445 ; 1498999.3616884777 ; 26180.000000000004
111 ; 24710.778245879763 ; 13627.26692444073 ; 2554950.722843888 ; 1512626.6286129183 ; 26418.000000000004
112 ; 24437.309974767137 ; 13627.26692444073 ; 2579661.501089768 ; 1526253.895537359 ; 26656.000000000004
113 ; 24340.03459832878 ; 13627.26692444073 ; 2604098.8110645353 ; 1539881.1624617996 ; 26894.000000000004
114 ; 24299.330834206557 ; 13627.26692444073 ; 2628438.845662864 ; 1553508.4293862402 ; 27132.000000000004
115 ; 23865.433172842277 ; 13627.26692444073 ; 2652738.1764970706 ; 1567135.6963106808 ; 27370.000000000004
116 ; 23952.875380794274 ; 13627.26692444073 ; 2676603.609669913 ; 1580762.9632351215 ; 27608.000000000004
117 ; 23723.956060969052 ; 13627.26692444073 ; 2700556.485050707 ; 1594390.230159562 ; 27846.000000000004
118 ; 23536.97479655967 ; 13627.26692444073 ; 2724280.4411116764 ; 1608017.4970840027 ; 28084.000000000004
119 ; 23159.026937640974 ; 13627.26692444073 ; 2747817.415908236 ; 1621644.7640084433 ; 28322.000000000004
120 ; 23110.130561695914 ; 13627.26692444073 ; 2770976.4428458773 ; 1635272.030932884 ; 28560.000000000004
121 ; 22699.8838427359 ; 13627.26692444073 ; 2794086.573407573 ; 1648899.2978573246 ; 28798.000000000004
122 ; 22727.45309132369 ; 13627.26692444073 ; 2816786.457250309 ; 1662526.5647817652 ; 29036.000000000004
123 ; 22539.13814001321 ; 13627.26692444073 ; 2839513.910341633 ; 1676153.8317062058 ; 29274.000000000004
124 ; 22282.94958385558 ; 13627.26692444073 ; 2862053.048481646 ; 1689781.0986306465 ; 29512.000000000004
125 ; 21866.89688048414 ; 13627.26692444073 ; 2884335.9980655015 ; 1703408.365555087 ; 29750.000000000004
126 ; 21843.269327082646 ; 13627.26692444073 ; 2906202.8949459856 ; 1717035.6324795277 ; 29988.000000000004
127 ; 21263.881391417155 ; 13627.26692444073 ; 2928046.1642730683 ; 1730662.8994039684 ; 30226.000000000004
128 ; 21275.173017625122 ; 13627.26692444073 ; 2949310.0456644855 ; 1744290.166328409 ; 30464.000000000004
129 ; 21193.288232178827 ; 13627.26692444073 ; 2970585.218682111 ; 1757917.4332528496 ; 30702.000000000004
130 ; 20635.369877319106 ; 13627.26692444073 ; 2991778.5069142897 ; 1771544.7001772902 ; 30940.000000000004
131 ; 20787.659903283573 ; 13627.26692444073 ; 3012413.876791609 ; 1785171.9671017309 ; 31178.000000000004
132 ; 20052.417415762364 ; 13627.26692444073 ; 3033201.5366948927 ; 1798799.2340261715 ; 31416.000000000004
133 ; 19958.096856756656 ; 13627.26692444073 ; 3053253.954110655 ; 1812426.5009506121 ; 31654.000000000004
134 ; 19615.277685872617 ; 13627.26692444073 ; 3073212.0509674116 ; 1826053.7678750528 ; 31892.000000000004
135 ; 19355.971968747148 ; 13627.26692444073 ; 3092827.3286532843 ; 1839681.0347994934 ; 32130.000000000004
136 ; 19197.633258441092 ; 13627.26692444073 ; 3112183.3006220316 ; 1853308.301723934 ; 32368.000000000004
137 ; 18999.387812914505 ; 13627.26692444073 ; 3131380.9338804726 ; 1866935.5686483746 ; 32606.000000000004
138 ; 18547.72869809339 ; 13627.26692444073 ; 3150380.321693387 ; 1880562.8355728153 ; 32844.00000000001
139 ; 18554.089620499562 ; 13627.26692444073 ; 3168928.0503914803 ; 1894190.102497256 ; 33082.00000000001
140 ; 17936.20166092283 ; 13627.26692444073 ; 3187482.1400119797 ; 1907817.3694216965 ; 33320.00000000001
141 ; 17524.95198839348 ; 13627.26692444073 ; 3205418.3416729025 ; 1921444.6363461372 ; 33558.00000000001
142 ; 17281.95972148649 ; 13627.26692444073 ; 3222943.293661296 ; 1935071.9032705778 ; 33796.00000000001
143 ; 17203.63324118565 ; 13627.26692444073 ; 3240225.2533827825 ; 1948699.1701950184 ; 34034.00000000001
144 ; 16907.84497021012 ; 13627.26692444073 ; 3257428.886623968 ; 1962326.437119459 ; 34272.00000000001
145 ; 16800.578684758857 ; 13627.26692444073 ; 3274336.731594178 ; 1975953.7040438997 ; 34510.00000000001
146 ; 16691.375790098322 ; 13627.26692444073 ; 3291137.3102789368 ; 1989580.9709683403 ; 34748.00000000001
147 ; 16674.171473032744 ; 13627.26692444073 ; 3307828.686069035 ; 2003208.237892781 ; 34986.00000000001
148 ; 16291.300029901295 ; 13627.26692444073 ; 3324502.8575420678 ; 2016835.5048172215 ; 35224.00000000001
149 ; 16433.85063800944 ; 13627.26692444073 ; 3340794.157571969 ; 2030462.7717416622 ; 35462.00000000001
150 ; 16158.745825478427 ; 13627.26692444073 ; 3357228.0082099787 ; 2044090.0386661028 ; 35700.00000000001
151 ; 16049.61872108225 ; 13627.26692444073 ; 3373386.754035457 ; 2057717.3055905434 ; 35938.00000000001
152 ; 16076.05799414603 ; 13627.26692444073 ; 3389436.3727565394 ; 2071344.572514984 ; 36176.00000000001
153 ; 15913.699642727443 ; 13627.26692444073 ; 3405512.4307506853 ; 2084971.8394394247 ; 36414.00000000001
154 ; 15774.441704149864 ; 13627.26692444073 ; 3421426.130393413 ; 2098599.1063638655 ; 36652.00000000001
155 ; 15716.194261651526 ; 13627.26692444073 ; 3437200.5720975627 ; 2112226.3732883064 ; 36890.00000000001
156 ; 15554.866901779907 ; 13627.26692444073 ; 3452916.766359214 ; 2125853.6402127473 ; 37128.00000000001
157 ; 15332.670630153209 ; 13627.26692444073 ; 3468471.633260994 ; 2139480.907137188 ; 37366.00000000001
158 ; 15207.278803255846 ; 13627.26692444073 ; 3483804.3038911475 ; 2153108.174061629 ; 37604.00000000001
159 ; 15333.793461728726 ; 13627.26692444073 ; 3499011.5826944034 ; 2166735.44098607 ; 37842.00000000001
160 ; 15250.670959616305 ; 13627.26692444073 ; 3514345.376156132 ; 2180362.7079105107 ; 38080.00000000001
161 ; 15127.466533869652 ; 13627.26692444073 ; 3529596.0471157483 ; 2193989.9748349516 ; 38318.00000000001
162 ; 14920.901218641546 ; 13627.26692444073 ; 3544723.513649618 ; 2207617.2417593924 ; 38556.00000000001
163 ; 14576.77060294823 ; 13627.26692444073 ; 3559644.4148682593 ; 2221244.5086838333 ; 38794.00000000001
164 ; 14605.984986885658 ; 13627.26692444073 ; 3574221.1854712074 ; 2234871.775608274 ; 39032.00000000001
165 ; 14449.942321847708 ; 13627.26692444073 ; 3588827.170458093 ; 2248499.042532715 ; 39270.00000000001
166 ; 14418.516911263037 ; 13627.26692444073 ; 3603277.1127799405 ; 2262126.309457156 ; 39508.00000000001
167 ; 14166.822558115298 ; 13627.26692444073 ; 3617695.6296912036 ; 2275753.5763815967 ; 39746.00000000001
168 ; 13961.57492903727 ; 13627.26692444073 ; 3631862.452249319 ; 2289380.8433060376 ; 39984.00000000001
169 ; 13876.765240299093 ; 13627.26692444073 ; 3645824.027178356 ; 2303008.1102304785 ; 40222.00000000001
170 ; 13693.579669163202 ; 13627.26692444073 ; 3659700.792418655 ; 2316635.3771549193 ; 40460.00000000001
171 ; 13708.767278532981 ; 13627.26692444073 ; 3673394.372087818 ; 2330262.64407936 ; 40698.00000000001
172 ; 13566.083812318197 ; 13627.26692444073 ; 3687103.139366351 ; 2343889.911003801 ; 40936.00000000001
173 ; 13494.932155574103 ; 13627.26692444073 ; 3700669.2231786693 ; 2357517.177928242 ; 41174.00000000001
174 ; 13443.80255127604 ; 13627.26692444073 ; 3714164.1553342436 ; 2371144.4448526828 ; 41412.00000000001
175 ; 13300.991267300713 ; 13627.26692444073 ; 3727607.9578855196 ; 2384771.7117771236 ; 41650.00000000001
176 ; 13424.00465434952 ; 13627.26692444073 ; 3740908.9491528203 ; 2398398.9787015645 ; 41888.00000000001
177 ; 13394.025035801385 ; 13627.26692444073 ; 3754332.9538071696 ; 2412026.2456260053 ; 42126.00000000001
178 ; 13485.731499012823 ; 13627.26692444073 ; 3767726.978842971 ; 2425653.512550446 ; 42364.00000000001
179 ; 13428.395494249698 ; 13627.26692444073 ; 3781212.710341984 ; 2439280.779474887 ; 42602.00000000001
180 ; 13369.723604244145 ; 13627.26692444073 ; 3794641.1058362336 ; 2452908.046399328 ; 42840.00000000001
181 ; 13391.763038076137 ; 13627.26692444073 ; 3808010.829440478 ; 2466535.313323769 ; 43078.00000000001
182 ; 13303.589553147689 ; 13627.26692444073 ; 3821402.5924785538 ; 2480162.5802482096 ; 43316.00000000001
183 ; 13484.536560532306 ; 13627.26692444073 ; 3834706.1820317013 ; 2493789.8471726505 ; 43554.00000000001
184 ; 13579.062818575825 ; 13627.26692444073 ; 3848190.7185922335 ; 2507417.1140970914 ; 43792.00000000001
185 ; 13531.450918879147 ; 13627.26692444073 ; 3861769.781410809 ; 2521044.381021532 ; 44030.00000000001
