CSV File for the City 1 on Day 256
1 - Minute m 
2 - Power Consumed at minute m 
3 - Power Produced at minute m 
4 - Energy Consumed since the beginning of the day 
5 - Energy Produced since the beginning of the day 
6 - Energy Lost since the beginning of the day on lines starting from the city
 
0 ; 6713.836712925757 ; 2936.9683280862555 ; 0.0 ; 0.0 ; 0.0
1 ; 7015.907689352978 ; 2936.9683280862555 ; 6713.836712925757 ; 2936.9683280862555 ; 238.00000000000003
2 ; 7825.640421414561 ; 2936.9683280862555 ; 13729.744402278735 ; 5873.936656172511 ; 476.00000000000006
3 ; 8385.722494590324 ; 2936.9683280862555 ; 21555.384823693297 ; 8810.904984258766 ; 714.0000000000001
4 ; 8921.529416738396 ; 2936.9683280862555 ; 29941.10731828362 ; 11747.873312345022 ; 952.0000000000001
5 ; 9327.968340468557 ; 2936.9683280862555 ; 38862.63673502202 ; 14684.841640431277 ; 1190.0000000000002
6 ; 9956.79190656996 ; 2936.9683280862555 ; 48190.605075490574 ; 17621.809968517533 ; 1428.0000000000002
7 ; 10454.265540187473 ; 2936.9683280862555 ; 58147.396982060534 ; 20558.77829660379 ; 1666.0000000000002
8 ; 11000.225123074488 ; 2936.9683280862555 ; 68601.662522248 ; 23495.746624690044 ; 1904.0000000000002
9 ; 11390.645373247862 ; 2936.9683280862555 ; 79601.8876453225 ; 26432.7149527763 ; 2142.0000000000005
10 ; 12096.552751342102 ; 2936.9683280862555 ; 90992.53301857036 ; 29369.683280862555 ; 2380.0000000000005
11 ; 12403.296346038847 ; 2936.9683280862555 ; 103089.08576991246 ; 32306.65160894881 ; 2618.0000000000005
12 ; 13007.866625982051 ; 2936.9683280862555 ; 115492.3821159513 ; 35243.619937035066 ; 2856.0000000000005
13 ; 13399.257180921613 ; 2936.9683280862555 ; 128500.24874193335 ; 38180.58826512132 ; 3094.0000000000005
14 ; 13975.789742014076 ; 2936.9683280862555 ; 141899.50592285497 ; 41117.55659320757 ; 3332.0000000000005
15 ; 14149.656306544372 ; 2936.9683280862555 ; 155875.29566486905 ; 44054.52492129382 ; 3570.0000000000005
16 ; 14824.370479543106 ; 2936.9683280862555 ; 170024.95197141342 ; 46991.49324938007 ; 3808.0000000000005
17 ; 15082.80552600031 ; 2936.9683280862555 ; 184849.32245095653 ; 49928.461577466325 ; 4046.0000000000005
18 ; 15551.76112284386 ; 2936.9683280862555 ; 199932.12797695684 ; 52865.42990555258 ; 4284.000000000001
19 ; 15926.948128112317 ; 2936.9683280862555 ; 215483.8890998007 ; 55802.39823363883 ; 4522.000000000001
20 ; 16550.233346040917 ; 2936.9683280862555 ; 231410.83722791303 ; 58739.36656172508 ; 4760.000000000001
21 ; 16849.99579488899 ; 2936.9683280862555 ; 247961.07057395394 ; 61676.33488981133 ; 4998.000000000001
22 ; 17141.263545634145 ; 2936.9683280862555 ; 264811.0663688429 ; 64613.303217897585 ; 5236.000000000001
23 ; 17532.255364811448 ; 2936.9683280862555 ; 281952.3299144771 ; 67550.27154598384 ; 5474.000000000001
24 ; 18182.908296841775 ; 2936.9683280862555 ; 299484.5852792885 ; 70487.23987407009 ; 5712.000000000001
25 ; 18497.172997901354 ; 2936.9683280862555 ; 317667.4935761303 ; 73424.20820215634 ; 5950.000000000001
26 ; 18821.87517112582 ; 2936.9683280862555 ; 336164.66657403164 ; 76361.17653024259 ; 6188.000000000001
27 ; 19239.62783364337 ; 2936.9683280862555 ; 354986.54174515745 ; 79298.14485832884 ; 6426.000000000001
28 ; 19561.985427922013 ; 2936.9683280862555 ; 374226.1695788008 ; 82235.1131864151 ; 6664.000000000001
29 ; 19938.548833359 ; 2936.9683280862555 ; 393788.1550067228 ; 85172.08151450135 ; 6902.000000000001
30 ; 20186.294125411565 ; 2936.9683280862555 ; 413726.70384008175 ; 88109.0498425876 ; 7140.000000000001
31 ; 20595.25618030244 ; 2936.9683280862555 ; 433912.9979654933 ; 91046.01817067385 ; 7378.000000000001
32 ; 20889.169387820613 ; 2936.9683280862555 ; 454508.2541457957 ; 93982.9864987601 ; 7616.000000000001
33 ; 21406.232859267577 ; 2936.9683280862555 ; 475397.42353361635 ; 96919.95482684635 ; 7854.000000000001
34 ; 21638.589737813174 ; 2936.9683280862555 ; 496803.6563928839 ; 99856.9231549326 ; 8092.000000000001
35 ; 21784.692946365834 ; 2936.9683280862555 ; 518442.2461306971 ; 102793.89148301886 ; 8330.000000000002
36 ; 22272.266136595626 ; 2936.9683280862555 ; 540226.9390770629 ; 105730.85981110511 ; 8568.000000000002
37 ; 22540.15266556955 ; 2936.9683280862555 ; 562499.2052136585 ; 108667.82813919136 ; 8806.000000000002
38 ; 22554.669109914634 ; 2936.9683280862555 ; 585039.3578792281 ; 111604.79646727761 ; 9044.000000000002
39 ; 23228.439923929192 ; 2936.9683280862555 ; 607594.0269891428 ; 114541.76479536387 ; 9282.000000000002
40 ; 23436.392363501556 ; 2936.9683280862555 ; 630822.4669130719 ; 117478.73312345012 ; 9520.000000000002
41 ; 23526.57974005355 ; 2936.9683280862555 ; 654258.8592765735 ; 120415.70145153637 ; 9758.000000000002
42 ; 23955.646843262246 ; 2936.9683280862555 ; 677785.439016627 ; 123352.66977962262 ; 9996.000000000002
43 ; 24392.980291202985 ; 2936.9683280862555 ; 701741.0858598893 ; 126289.63810770887 ; 10234.000000000002
44 ; 24432.374584122073 ; 2936.9683280862555 ; 726134.0661510923 ; 129226.60643579513 ; 10472.000000000002
45 ; 24779.609578330666 ; 2936.9683280862555 ; 750566.4407352144 ; 132163.5747638814 ; 10710.000000000002
46 ; 25025.960833607587 ; 2936.9683280862555 ; 775346.050313545 ; 135100.54309196764 ; 10948.000000000002
47 ; 25323.660842270332 ; 2936.9683280862555 ; 800372.0111471526 ; 138037.5114200539 ; 11186.000000000002
48 ; 25416.454115414304 ; 2936.9683280862555 ; 825695.671989423 ; 140974.47974814015 ; 11424.000000000002
49 ; 25679.899928154246 ; 2936.9683280862555 ; 851112.1261048373 ; 143911.4480762264 ; 11662.000000000002
50 ; 26109.65604449126 ; 2936.9683280862555 ; 876792.0260329915 ; 146848.41640431265 ; 11900.000000000002
51 ; 26099.34635395309 ; 2936.9683280862555 ; 902901.6820774827 ; 149785.3847323989 ; 12138.000000000002
52 ; 26378.676341296345 ; 2936.9683280862555 ; 929001.0284314358 ; 152722.35306048515 ; 12376.000000000002
53 ; 26653.117870316473 ; 2936.9683280862555 ; 955379.7047727321 ; 155659.3213885714 ; 12614.000000000002
54 ; 26746.259737148073 ; 2936.9683280862555 ; 982032.8226430486 ; 158596.28971665766 ; 12852.000000000002
55 ; 26804.59409473553 ; 2936.9683280862555 ; 1008779.0823801967 ; 161533.2580447439 ; 13090.000000000002
56 ; 27247.468768613795 ; 2936.9683280862555 ; 1035583.6764749322 ; 164470.22637283016 ; 13328.000000000002
57 ; 27224.034983269103 ; 2936.9683280862555 ; 1062831.145243546 ; 167407.1947009164 ; 13566.000000000002
58 ; 27449.172338980417 ; 2936.9683280862555 ; 1090055.1802268152 ; 170344.16302900267 ; 13804.000000000002
59 ; 27696.764688659903 ; 2936.9683280862555 ; 1117504.3525657956 ; 173281.13135708892 ; 14042.000000000002
60 ; 27849.402287876856 ; 2936.9683280862555 ; 1145201.1172544556 ; 176218.09968517517 ; 14280.000000000002
61 ; 27841.507863616647 ; 2936.9683280862555 ; 1173050.5195423325 ; 179155.06801326142 ; 14518.000000000002
62 ; 28000.421131423416 ; 2936.9683280862555 ; 1200892.027405949 ; 182092.03634134767 ; 14756.000000000002
63 ; 28243.344387989666 ; 2936.9683280862555 ; 1228892.4485373725 ; 185029.00466943393 ; 14994.000000000002
64 ; 28450.733167567043 ; 2936.9683280862555 ; 1257135.7929253622 ; 187965.97299752018 ; 15232.000000000002
65 ; 28420.56917321122 ; 2936.9683280862555 ; 1285586.5260929293 ; 190902.94132560643 ; 15470.000000000002
66 ; 28687.471058140516 ; 2936.9683280862555 ; 1314007.0952661405 ; 193839.90965369268 ; 15708.000000000002
67 ; 28563.93706579201 ; 2936.9683280862555 ; 1342694.566324281 ; 196776.87798177893 ; 15946.000000000002
68 ; 28749.32176966367 ; 2936.9683280862555 ; 1371258.503390073 ; 199713.84630986518 ; 16184.000000000002
69 ; 28857.409990350545 ; 2936.9683280862555 ; 1400007.8251597367 ; 202650.81463795144 ; 16422.000000000004
70 ; 28995.403974448338 ; 2936.9683280862555 ; 1428865.2351500872 ; 205587.7829660377 ; 16660.000000000004
71 ; 28987.06669269285 ; 2936.9683280862555 ; 1457860.6391245355 ; 208524.75129412394 ; 16898.000000000004
72 ; 29239.774827233352 ; 2936.9683280862555 ; 1486847.7058172284 ; 211461.7196222102 ; 17136.000000000004
73 ; 29154.88682580136 ; 2936.9683280862555 ; 1516087.4806444617 ; 214398.68795029644 ; 17374.000000000004
74 ; 29105.294137985944 ; 2936.9683280862555 ; 1545242.367470263 ; 217335.6562783827 ; 17612.000000000004
75 ; 29110.173933081176 ; 2936.9683280862555 ; 1574347.661608249 ; 220272.62460646895 ; 17850.000000000004
76 ; 29278.69065545724 ; 2936.9683280862555 ; 1603457.83554133 ; 223209.5929345552 ; 18088.000000000004
77 ; 29285.070406224026 ; 2936.9683280862555 ; 1632736.5261967874 ; 226146.56126264145 ; 18326.000000000004
78 ; 29275.90587672939 ; 2936.9683280862555 ; 1662021.5966030115 ; 229083.5295907277 ; 18564.000000000004
79 ; 29369.46525393088 ; 2936.9683280862555 ; 1691297.502479741 ; 232020.49791881396 ; 18802.000000000004
80 ; 29289.199780418152 ; 2936.9683280862555 ; 1720666.9677336717 ; 234957.4662469002 ; 19040.000000000004
81 ; 29404.268397529435 ; 2936.9683280862555 ; 1749956.1675140897 ; 237894.43457498646 ; 19278.000000000004
82 ; 29204.91811698076 ; 2936.9683280862555 ; 1779360.435911619 ; 240831.4029030727 ; 19516.000000000004
83 ; 29344.078402688545 ; 2936.9683280862555 ; 1808565.3540285998 ; 243768.37123115896 ; 19754.000000000004
84 ; 29468.088467804413 ; 2936.9683280862555 ; 1837909.4324312883 ; 246705.3395592452 ; 19992.000000000004
85 ; 29431.400475800685 ; 2936.9683280862555 ; 1867377.5208990928 ; 249642.30788733147 ; 20230.000000000004
86 ; 29446.74114975246 ; 2936.9683280862555 ; 1896808.9213748935 ; 252579.27621541772 ; 20468.000000000004
87 ; 29321.365009916048 ; 2936.9683280862555 ; 1926255.662524646 ; 255516.24454350397 ; 20706.000000000004
88 ; 29266.168475417304 ; 2936.9683280862555 ; 1955577.027534562 ; 258453.21287159022 ; 20944.000000000004
89 ; 29316.58183025762 ; 2936.9683280862555 ; 1984843.1960099791 ; 261390.18119967647 ; 21182.000000000004
90 ; 29213.63232518689 ; 2936.9683280862555 ; 2014159.7778402367 ; 264327.1495277627 ; 21420.000000000004
91 ; 29128.959335868567 ; 2936.9683280862555 ; 2043373.4101654235 ; 267264.117855849 ; 21658.000000000004
92 ; 29203.21363545424 ; 2936.9683280862555 ; 2072502.369501292 ; 270201.08618393523 ; 21896.000000000004
93 ; 29190.27973666472 ; 2936.9683280862555 ; 2101705.583136746 ; 273138.0545120215 ; 22134.000000000004
94 ; 28865.710833976515 ; 2936.9683280862555 ; 2130895.862873411 ; 276075.02284010773 ; 22372.000000000004
95 ; 28834.083327623663 ; 2936.9683280862555 ; 2159761.5737073873 ; 279011.991168194 ; 22610.000000000004
96 ; 28762.45659943363 ; 2936.9683280862555 ; 2188595.657035011 ; 281948.95949628024 ; 22848.000000000004
97 ; 28786.476872420633 ; 2936.9683280862555 ; 2217358.1136344443 ; 284885.9278243665 ; 23086.000000000004
98 ; 28554.678322749194 ; 2936.9683280862555 ; 2246144.5905068647 ; 287822.89615245274 ; 23324.000000000004
99 ; 28320.861499694485 ; 2936.9683280862555 ; 2274699.268829614 ; 290759.864480539 ; 23562.000000000004
100 ; 28366.056856729698 ; 2936.9683280862555 ; 2303020.1303293086 ; 293696.83280862524 ; 23800.000000000004
101 ; 28437.760832518958 ; 2936.9683280862555 ; 2331386.187186038 ; 296633.8011367115 ; 24038.000000000004
102 ; 28029.746937789845 ; 2936.9683280862555 ; 2359823.948018557 ; 299570.76946479775 ; 24276.000000000004
103 ; 27981.631592660564 ; 2936.9683280862555 ; 2387853.694956347 ; 302507.737792884 ; 24514.000000000004
104 ; 27693.99103769965 ; 2936.9683280862555 ; 2415835.3265490076 ; 305444.70612097025 ; 24752.000000000004
105 ; 27690.94445788469 ; 2936.9683280862555 ; 2443529.3175867074 ; 308381.6744490565 ; 24990.000000000004
106 ; 27667.59297657141 ; 2936.9683280862555 ; 2471220.2620445923 ; 311318.64277714276 ; 25228.000000000004
107 ; 27515.839076056796 ; 2936.9683280862555 ; 2498887.855021164 ; 314255.611105229 ; 25466.000000000004
108 ; 27124.860186231756 ; 2936.9683280862555 ; 2526403.6940972204 ; 317192.57943331526 ; 25704.000000000004
109 ; 26882.455580701313 ; 2936.9683280862555 ; 2553528.554283452 ; 320129.5477614015 ; 25942.000000000004
110 ; 27003.44133585937 ; 2936.9683280862555 ; 2580411.0098641533 ; 323066.51608948776 ; 26180.000000000004
111 ; 26832.019025979167 ; 2936.9683280862555 ; 2607414.4512000126 ; 326003.484417574 ; 26418.000000000004
112 ; 26688.62211271436 ; 2936.9683280862555 ; 2634246.4702259917 ; 328940.45274566027 ; 26656.000000000004
113 ; 26072.817439104 ; 2936.9683280862555 ; 2660935.092338706 ; 331877.4210737465 ; 26894.000000000004
114 ; 25902.176021180057 ; 2936.9683280862555 ; 2687007.90977781 ; 334814.38940183277 ; 27132.000000000004
115 ; 25982.674780614467 ; 2936.9683280862555 ; 2712910.08579899 ; 337751.357729919 ; 27370.000000000004
116 ; 25637.392589973886 ; 2936.9683280862555 ; 2738892.7605796047 ; 340688.3260580053 ; 27608.000000000004
117 ; 25483.82264602221 ; 2936.9683280862555 ; 2764530.1531695784 ; 343625.2943860915 ; 27846.000000000004
118 ; 25103.784621525956 ; 2936.9683280862555 ; 2790013.9758156007 ; 346562.2627141778 ; 28084.000000000004
119 ; 24890.027152239745 ; 2936.9683280862555 ; 2815117.7604371267 ; 349499.23104226403 ; 28322.000000000004
120 ; 24623.464302257096 ; 2936.9683280862555 ; 2840007.7875893665 ; 352436.1993703503 ; 28560.000000000004
121 ; 24484.437262068008 ; 2936.9683280862555 ; 2864631.2518916237 ; 355373.16769843653 ; 28798.000000000004
122 ; 24161.630974220618 ; 2936.9683280862555 ; 2889115.6891536918 ; 358310.1360265228 ; 29036.000000000004
123 ; 23902.34734592844 ; 2936.9683280862555 ; 2913277.3201279123 ; 361247.10435460904 ; 29274.000000000004
124 ; 23622.02251934178 ; 2936.9683280862555 ; 2937179.667473841 ; 364184.0726826953 ; 29512.000000000004
125 ; 23423.42793159141 ; 2936.9683280862555 ; 2960801.6899931827 ; 367121.04101078154 ; 29750.000000000004
126 ; 23066.63762770506 ; 2936.9683280862555 ; 2984225.117924774 ; 370058.0093388678 ; 29988.000000000004
127 ; 22563.44563811956 ; 2936.9683280862555 ; 3007291.755552479 ; 372994.97766695404 ; 30226.000000000004
128 ; 22531.97493698359 ; 2936.9683280862555 ; 3029855.201190599 ; 375931.9459950403 ; 30464.000000000004
129 ; 21990.534655749594 ; 2936.9683280862555 ; 3052387.1761275823 ; 378868.91432312655 ; 30702.000000000004
130 ; 21916.99673229246 ; 2936.9683280862555 ; 3074377.710783332 ; 381805.8826512128 ; 30940.000000000004
131 ; 21500.618537493763 ; 2936.9683280862555 ; 3096294.7075156244 ; 384742.85097929905 ; 31178.000000000004
132 ; 21219.89233459444 ; 2936.9683280862555 ; 3117795.3260531183 ; 387679.8193073853 ; 31416.000000000004
133 ; 20861.5940279589 ; 2936.9683280862555 ; 3139015.2183877127 ; 390616.78763547156 ; 31654.000000000004
134 ; 20446.26328176768 ; 2936.9683280862555 ; 3159876.8124156715 ; 393553.7559635578 ; 31892.000000000004
135 ; 20037.808225619792 ; 2936.9683280862555 ; 3180323.0756974393 ; 396490.72429164406 ; 32130.000000000004
136 ; 19685.205956304802 ; 2936.9683280862555 ; 3200360.883923059 ; 399427.6926197303 ; 32368.000000000004
137 ; 19328.820477428886 ; 2936.9683280862555 ; 3220046.089879364 ; 402364.66094781656 ; 32606.000000000004
138 ; 18970.414416757692 ; 2936.9683280862555 ; 3239374.9103567926 ; 405301.6292759028 ; 32844.00000000001
139 ; 18610.93223396022 ; 2936.9683280862555 ; 3258345.3247735505 ; 408238.59760398907 ; 33082.00000000001
140 ; 18212.634920290584 ; 2936.9683280862555 ; 3276956.257007511 ; 411175.5659320753 ; 33320.00000000001
141 ; 17748.6277324093 ; 2936.9683280862555 ; 3295168.8919278015 ; 414112.53426016157 ; 33558.00000000001
142 ; 17459.967202642965 ; 2936.9683280862555 ; 3312917.5196602107 ; 417049.5025882478 ; 33796.00000000001
143 ; 16993.779728130343 ; 2936.9683280862555 ; 3330377.4868628536 ; 419986.4709163341 ; 34034.00000000001
144 ; 16411.736022709436 ; 2936.9683280862555 ; 3347371.266590984 ; 422923.4392444203 ; 34272.00000000001
145 ; 16465.63810388962 ; 2936.9683280862555 ; 3363783.0026136935 ; 425860.4075725066 ; 34510.00000000001
146 ; 16405.746808677726 ; 2936.9683280862555 ; 3380248.6407175832 ; 428797.37590059283 ; 34748.00000000001
147 ; 16146.739347260627 ; 2936.9683280862555 ; 3396654.387526261 ; 431734.3442286791 ; 34986.00000000001
148 ; 15852.294807624045 ; 2936.9683280862555 ; 3412801.1268735216 ; 434671.31255676533 ; 35224.00000000001
149 ; 16015.700913592238 ; 2936.9683280862555 ; 3428653.4216811457 ; 437608.2808848516 ; 35462.00000000001
150 ; 15802.873302617096 ; 2936.9683280862555 ; 3444669.122594738 ; 440545.24921293784 ; 35700.00000000001
151 ; 15890.163797831054 ; 2936.9683280862555 ; 3460471.995897355 ; 443482.2175410241 ; 35938.00000000001
152 ; 15394.007158891327 ; 2936.9683280862555 ; 3476362.159695186 ; 446419.18586911034 ; 36176.00000000001
153 ; 15472.239560877963 ; 2936.9683280862555 ; 3491756.1668540775 ; 449356.1541971966 ; 36414.00000000001
154 ; 15389.605336764318 ; 2936.9683280862555 ; 3507228.4064149554 ; 452293.12252528284 ; 36652.00000000001
155 ; 15339.602625403175 ; 2936.9683280862555 ; 3522618.0117517198 ; 455230.0908533691 ; 36890.00000000001
156 ; 15172.010617603273 ; 2936.9683280862555 ; 3537957.614377123 ; 458167.05918145535 ; 37128.00000000001
157 ; 14665.19118453773 ; 2936.9683280862555 ; 3553129.624994726 ; 461104.0275095416 ; 37366.00000000001
158 ; 14770.915918985816 ; 2936.9683280862555 ; 3567794.816179264 ; 464040.99583762785 ; 37604.00000000001
159 ; 14775.912509904832 ; 2936.9683280862555 ; 3582565.7320982497 ; 466977.9641657141 ; 37842.00000000001
160 ; 14704.168720939768 ; 2936.9683280862555 ; 3597341.6446081544 ; 469914.93249380036 ; 38080.00000000001
161 ; 14173.912124282635 ; 2936.9683280862555 ; 3612045.813329094 ; 472851.9008218866 ; 38318.00000000001
162 ; 14182.416413710713 ; 2936.9683280862555 ; 3626219.725453377 ; 475788.86914997286 ; 38556.00000000001
163 ; 14197.477764238422 ; 2936.9683280862555 ; 3640402.1418670877 ; 478725.8374780591 ; 38794.00000000001
164 ; 14034.947276393024 ; 2936.9683280862555 ; 3654599.6196313263 ; 481662.80580614536 ; 39032.00000000001
165 ; 13741.301370719586 ; 2936.9683280862555 ; 3668634.5669077192 ; 484599.7741342316 ; 39270.00000000001
166 ; 13613.490071693195 ; 2936.9683280862555 ; 3682375.8682784387 ; 487536.74246231787 ; 39508.00000000001
167 ; 13484.755403068626 ; 2936.9683280862555 ; 3695989.3583501317 ; 490473.7107904041 ; 39746.00000000001
168 ; 13042.035343037045 ; 2936.9683280862555 ; 3709474.1137532005 ; 493410.67911849037 ; 39984.00000000001
169 ; 13064.87643073856 ; 2936.9683280862555 ; 3722516.1490962375 ; 496347.6474465766 ; 40222.00000000001
170 ; 12981.261088876854 ; 2936.9683280862555 ; 3735581.025526976 ; 499284.6157746629 ; 40460.00000000001
171 ; 12660.952376386009 ; 2936.9683280862555 ; 3748562.286615853 ; 502221.5841027491 ; 40698.00000000001
172 ; 12417.121745599425 ; 2936.9683280862555 ; 3761223.2389922393 ; 505158.5524308354 ; 40936.00000000001
173 ; 12364.900706112965 ; 2936.9683280862555 ; 3773640.360737839 ; 508095.52075892163 ; 41174.00000000001
174 ; 12287.46863828258 ; 2936.9683280862555 ; 3786005.2614439516 ; 511032.4890870079 ; 41412.00000000001
175 ; 12405.69125023935 ; 2936.9683280862555 ; 3798292.7300822344 ; 513969.45741509413 ; 41650.00000000001
176 ; 12485.844583336526 ; 2936.9683280862555 ; 3810698.421332474 ; 516906.4257431804 ; 41888.00000000001
177 ; 12462.334491405301 ; 2936.9683280862555 ; 3823184.2659158106 ; 519843.39407126664 ; 42126.00000000001
178 ; 12348.292061164237 ; 2936.9683280862555 ; 3835646.6004072158 ; 522780.3623993529 ; 42364.00000000001
179 ; 12539.2506511116 ; 2936.9683280862555 ; 3847994.89246838 ; 525717.3307274391 ; 42602.00000000001
180 ; 12630.441977022625 ; 2936.9683280862555 ; 3860534.1431194916 ; 528654.2990555255 ; 42840.00000000001
181 ; 12770.716729332693 ; 2936.9683280862555 ; 3873164.5850965143 ; 531591.2673836118 ; 43078.00000000001
182 ; 12655.43689266746 ; 2936.9683280862555 ; 3885935.301825847 ; 534528.2357116981 ; 43316.00000000001
183 ; 12744.64454242096 ; 2936.9683280862555 ; 3898590.7387185143 ; 537465.2040397844 ; 43554.00000000001
184 ; 12771.309445308074 ; 2936.9683280862555 ; 3911335.383260935 ; 540402.1723678707 ; 43792.00000000001
