CSV File for the City 2 on Day 137
1 - Minute m 
2 - Power Consumed at minute m 
3 - Power Produced at minute m 
4 - Energy Consumed since the beginning of the day 
5 - Energy Produced since the beginning of the day 
6 - Energy Lost since the beginning of the day on lines starting from the city
 
0 ; 8812.918757763528 ; 27667.938209642984 ; 0.0 ; 0.0 ; 0.0
1 ; 9283.609735342188 ; 27667.938209642984 ; 8812.918757763528 ; 27667.938209642984 ; 0.0
2 ; 9650.81551179313 ; 27667.938209642984 ; 18096.528493105718 ; 55335.87641928597 ; 0.0
3 ; 9921.397436372212 ; 27667.938209642984 ; 27747.34400489885 ; 83003.81462892896 ; 0.0
4 ; 10436.3589382775 ; 27667.938209642984 ; 37668.741441271064 ; 110671.75283857193 ; 0.0
5 ; 10770.146658753554 ; 27667.938209642984 ; 48105.10037954857 ; 138339.6910482149 ; 0.0
6 ; 11127.679340980849 ; 27667.938209642984 ; 58875.24703830212 ; 166007.6292578579 ; 0.0
7 ; 11525.6134846178 ; 27667.938209642984 ; 70002.92637928297 ; 193675.56746750086 ; 0.0
8 ; 11768.378279924782 ; 27667.938209642984 ; 81528.53986390078 ; 221343.50567714384 ; 0.0
9 ; 12071.766560678436 ; 27667.938209642984 ; 93296.91814382556 ; 249011.44388678682 ; 0.0
10 ; 12517.28688318499 ; 27667.938209642984 ; 105368.684704504 ; 276679.3820964298 ; 0.0
11 ; 12727.396480140604 ; 27667.938209642984 ; 117885.971587689 ; 304347.3203060728 ; 0.0
12 ; 13164.024500899644 ; 27667.938209642984 ; 130613.36806782961 ; 332015.25851571583 ; 0.0
13 ; 13378.523970778497 ; 27667.938209642984 ; 143777.39256872926 ; 359683.19672535884 ; 0.0
14 ; 13547.986685286436 ; 27667.938209642984 ; 157155.91653950777 ; 387351.13493500184 ; 0.0
15 ; 13922.102806096269 ; 27667.938209642984 ; 170703.9032247942 ; 415019.07314464485 ; 0.0
16 ; 14333.021911690446 ; 27667.938209642984 ; 184626.00603089045 ; 442687.01135428785 ; 0.0
17 ; 14570.887651812835 ; 27667.938209642984 ; 198959.0279425809 ; 470354.94956393086 ; 0.0
18 ; 14817.560170968096 ; 27667.938209642984 ; 213529.91559439374 ; 498022.88777357386 ; 0.0
19 ; 15151.598395408733 ; 27667.938209642984 ; 228347.47576536183 ; 525690.8259832169 ; 0.0
20 ; 15506.374524088467 ; 27667.938209642984 ; 243499.07416077057 ; 553358.7641928599 ; 0.0
21 ; 15684.647161287725 ; 27667.938209642984 ; 259005.44868485903 ; 581026.7024025029 ; 0.0
22 ; 15923.73477069894 ; 27667.938209642984 ; 274690.09584614675 ; 608694.6406121459 ; 0.0
23 ; 16054.750801870567 ; 27667.938209642984 ; 290613.8306168457 ; 636362.5788217889 ; 0.0
24 ; 16535.291163728998 ; 27667.938209642984 ; 306668.58141871623 ; 664030.5170314319 ; 0.0
25 ; 16723.294419834685 ; 27667.938209642984 ; 323203.8725824452 ; 691698.4552410749 ; 0.0
26 ; 17003.15348026521 ; 27667.938209642984 ; 339927.1670022799 ; 719366.3934507179 ; 0.0
27 ; 17079.96483665648 ; 27667.938209642984 ; 356930.3204825451 ; 747034.3316603609 ; 0.0
28 ; 17335.308931797408 ; 27667.938209642984 ; 374010.2853192016 ; 774702.2698700039 ; 0.0
29 ; 17767.3212713433 ; 27667.938209642984 ; 391345.594250999 ; 802370.2080796469 ; 0.0
30 ; 18038.548957150495 ; 27667.938209642984 ; 409112.91552234226 ; 830038.1462892899 ; 0.0
31 ; 18167.858195212608 ; 27667.938209642984 ; 427151.46447949274 ; 857706.0844989329 ; 0.0
32 ; 18398.646003019818 ; 27667.938209642984 ; 445319.32267470536 ; 885374.0227085759 ; 0.0
33 ; 18569.187913074973 ; 27667.938209642984 ; 463717.9686777252 ; 913041.960918219 ; 0.0
34 ; 19037.42619326982 ; 27667.938209642984 ; 482287.15659080015 ; 940709.899127862 ; 0.0
35 ; 18917.124275672522 ; 27667.938209642984 ; 501324.58278407 ; 968377.837337505 ; 0.0
36 ; 19391.055203250435 ; 27667.938209642984 ; 520241.70705974253 ; 996045.775547148 ; 0.0
37 ; 19485.64012915305 ; 27667.938209642984 ; 539632.762262993 ; 1023713.713756791 ; 0.0
38 ; 19702.317106810948 ; 27667.938209642984 ; 559118.4023921461 ; 1051381.651966434 ; 0.0
39 ; 19921.807753625573 ; 27667.938209642984 ; 578820.719498957 ; 1079049.5901760769 ; 0.0
40 ; 20074.29604324101 ; 27667.938209642984 ; 598742.5272525826 ; 1106717.5283857198 ; 0.0
41 ; 20188.81975138528 ; 27667.938209642984 ; 618816.8232958236 ; 1134385.4665953626 ; 0.0
42 ; 20433.644407433832 ; 27667.938209642984 ; 639005.6430472089 ; 1162053.4048050055 ; 0.0
43 ; 20614.38651232436 ; 27667.938209642984 ; 659439.2874546427 ; 1189721.3430146484 ; 0.0
44 ; 20757.359623187498 ; 27667.938209642984 ; 680053.673966967 ; 1217389.2812242913 ; 0.0
45 ; 20882.133036114512 ; 27667.938209642984 ; 700811.0335901545 ; 1245057.2194339342 ; 0.0
46 ; 21085.90541501368 ; 27667.938209642984 ; 721693.166626269 ; 1272725.157643577 ; 0.0
47 ; 21218.442091566038 ; 27667.938209642984 ; 742779.0720412827 ; 1300393.09585322 ; 0.0
48 ; 21434.16017461857 ; 27667.938209642984 ; 763997.5141328487 ; 1328061.0340628629 ; 0.0
49 ; 21549.081539145143 ; 27667.938209642984 ; 785431.6743074673 ; 1355728.9722725058 ; 0.0
50 ; 21639.25789752226 ; 27667.938209642984 ; 806980.7558466124 ; 1383396.9104821486 ; 0.0
51 ; 21861.342494876313 ; 27667.938209642984 ; 828620.0137441347 ; 1411064.8486917915 ; 0.0
52 ; 21988.126715548446 ; 27667.938209642984 ; 850481.356239011 ; 1438732.7869014344 ; 0.0
53 ; 22134.872382009966 ; 27667.938209642984 ; 872469.4829545595 ; 1466400.7251110773 ; 0.0
54 ; 22310.411019411084 ; 27667.938209642984 ; 894604.3553365695 ; 1494068.6633207202 ; 0.0
55 ; 22397.375436704173 ; 27667.938209642984 ; 916914.7663559805 ; 1521736.601530363 ; 0.0
56 ; 22615.986759299227 ; 27667.938209642984 ; 939312.1417926847 ; 1549404.539740006 ; 0.0
57 ; 22718.47485031129 ; 27667.938209642984 ; 961928.1285519839 ; 1577072.4779496489 ; 0.0
58 ; 22732.712670438534 ; 27667.938209642984 ; 984646.6034022951 ; 1604740.4161592918 ; 0.0
59 ; 22934.279110633615 ; 27667.938209642984 ; 1007379.3160727337 ; 1632408.3543689346 ; 0.0
60 ; 22874.684387127723 ; 27667.938209642984 ; 1030313.5951833674 ; 1660076.2925785775 ; 0.0
61 ; 22975.203639932246 ; 27667.938209642984 ; 1053188.279570495 ; 1687744.2307882204 ; 0.0
62 ; 23191.523275514886 ; 27667.938209642984 ; 1076163.4832104272 ; 1715412.1689978633 ; 0.0
63 ; 23077.58005886373 ; 27667.938209642984 ; 1099355.006485942 ; 1743080.1072075062 ; 0.0
64 ; 23246.89404655722 ; 27667.938209642984 ; 1122432.5865448057 ; 1770748.045417149 ; 0.0
65 ; 23405.695457227794 ; 27667.938209642984 ; 1145679.4805913628 ; 1798415.983626792 ; 0.0
66 ; 23196.249939753485 ; 27667.938209642984 ; 1169085.1760485906 ; 1826083.9218364349 ; 0.0
67 ; 23363.55367494986 ; 27667.938209642984 ; 1192281.425988344 ; 1853751.8600460778 ; 0.0
68 ; 23478.590273616486 ; 27667.938209642984 ; 1215644.9796632938 ; 1881419.7982557206 ; 0.0
69 ; 23395.28548521948 ; 27667.938209642984 ; 1239123.5699369102 ; 1909087.7364653635 ; 0.0
70 ; 23525.43243989203 ; 27667.938209642984 ; 1262518.8554221296 ; 1936755.6746750064 ; 0.0
71 ; 23753.125542270718 ; 27667.938209642984 ; 1286044.2878620217 ; 1964423.6128846493 ; 0.0
72 ; 23847.497381174322 ; 27667.938209642984 ; 1309797.4134042924 ; 1992091.5510942922 ; 0.0
73 ; 23754.14676954223 ; 27667.938209642984 ; 1333644.9107854667 ; 2019759.489303935 ; 0.0
74 ; 23863.465814718285 ; 27667.938209642984 ; 1357399.057555009 ; 2047427.427513578 ; 0.0
75 ; 23701.57391335717 ; 27667.938209642984 ; 1381262.5233697272 ; 2075095.3657232209 ; 0.0
76 ; 23793.912303050296 ; 27667.938209642984 ; 1404964.0972830844 ; 2102763.3039328638 ; 0.0
77 ; 23871.461222396152 ; 27667.938209642984 ; 1428758.0095861347 ; 2130431.242142507 ; 0.0
78 ; 23778.972454674313 ; 27667.938209642984 ; 1452629.470808531 ; 2158099.18035215 ; 0.0
79 ; 23858.566753432624 ; 27667.938209642984 ; 1476408.4432632052 ; 2185767.118561793 ; 0.0
80 ; 23850.04523112612 ; 27667.938209642984 ; 1500267.0100166379 ; 2213435.0567714362 ; 0.0
81 ; 23786.821680019704 ; 27667.938209642984 ; 1524117.0552477639 ; 2241102.9949810794 ; 0.0
82 ; 23933.183516424415 ; 27667.938209642984 ; 1547903.8769277835 ; 2268770.9331907225 ; 0.0
83 ; 23828.334520117583 ; 27667.938209642984 ; 1571837.0604442079 ; 2296438.8714003656 ; 0.0
84 ; 23787.370262811262 ; 27667.938209642984 ; 1595665.3949643255 ; 2324106.8096100087 ; 0.0
85 ; 23727.88677205887 ; 27667.938209642984 ; 1619452.7652271367 ; 2351774.747819652 ; 0.0
86 ; 23916.519658751087 ; 27667.938209642984 ; 1643180.6519991956 ; 2379442.686029295 ; 0.0
87 ; 23852.565310394453 ; 27667.938209642984 ; 1667097.1716579467 ; 2407110.624238938 ; 0.0
88 ; 23739.48545495001 ; 27667.938209642984 ; 1690949.736968341 ; 2434778.562448581 ; 0.0
89 ; 23857.582911224705 ; 27667.938209642984 ; 1714689.222423291 ; 2462446.5006582243 ; 0.0
90 ; 23600.229667125535 ; 27667.938209642984 ; 1738546.8053345159 ; 2490114.4388678675 ; 0.0
91 ; 23768.73030864033 ; 27667.938209642984 ; 1762147.0350016414 ; 2517782.3770775106 ; 0.0
92 ; 23481.335922386843 ; 27667.938209642984 ; 1785915.7653102817 ; 2545450.3152871537 ; 0.0
93 ; 23310.120438743066 ; 27667.938209642984 ; 1809397.1012326684 ; 2573118.253496797 ; 0.0
94 ; 23454.101028007033 ; 27667.938209642984 ; 1832707.2216714115 ; 2600786.19170644 ; 0.0
95 ; 23409.61908315105 ; 27667.938209642984 ; 1856161.3226994185 ; 2628454.129916083 ; 0.0
96 ; 23295.795992300686 ; 27667.938209642984 ; 1879570.9417825695 ; 2656122.068125726 ; 0.0
97 ; 23272.86193024956 ; 27667.938209642984 ; 1902866.7377748701 ; 2683790.0063353693 ; 0.0
98 ; 23121.815890636808 ; 27667.938209642984 ; 1926139.5997051196 ; 2711457.9445450124 ; 0.0
99 ; 22994.21255056222 ; 27667.938209642984 ; 1949261.4155957564 ; 2739125.8827546556 ; 0.0
100 ; 22756.32653104625 ; 27667.938209642984 ; 1972255.6281463185 ; 2766793.8209642987 ; 0.0
101 ; 22783.015654111114 ; 27667.938209642984 ; 1995011.9546773648 ; 2794461.759173942 ; 0.0
102 ; 22750.056621431744 ; 27667.938209642984 ; 2017794.9703314758 ; 2822129.697383585 ; 0.0
103 ; 22644.388302453634 ; 27667.938209642984 ; 2040545.0269529077 ; 2849797.635593228 ; 0.0
104 ; 22701.239321315097 ; 27667.938209642984 ; 2063189.4152553612 ; 2877465.573802871 ; 0.0
105 ; 22372.23249085359 ; 27667.938209642984 ; 2085890.6545766764 ; 2905133.5120125143 ; 0.0
106 ; 22384.780307624525 ; 27667.938209642984 ; 2108262.88706753 ; 2932801.4502221574 ; 0.0
107 ; 22129.178654315845 ; 27667.938209642984 ; 2130647.6673751543 ; 2960469.3884318005 ; 0.0
108 ; 21963.510699161714 ; 27667.938209642984 ; 2152776.84602947 ; 2988137.3266414437 ; 0.0
109 ; 21954.35447643472 ; 27667.938209642984 ; 2174740.356728632 ; 3015805.264851087 ; 0.0
110 ; 21939.714292543882 ; 27667.938209642984 ; 2196694.7112050666 ; 3043473.20306073 ; 0.0
111 ; 21559.85704483282 ; 27667.938209642984 ; 2218634.4254976106 ; 3071141.141270373 ; 0.0
112 ; 21549.76540972861 ; 27667.938209642984 ; 2240194.2825424434 ; 3098809.079480016 ; 0.0
113 ; 21434.04193100533 ; 27667.938209642984 ; 2261744.047952172 ; 3126477.0176896593 ; 0.0
114 ; 21335.11724395059 ; 27667.938209642984 ; 2283178.089883177 ; 3154144.9558993024 ; 0.0
115 ; 21176.892676452084 ; 27667.938209642984 ; 2304513.207127128 ; 3181812.8941089455 ; 0.0
116 ; 20863.450083178122 ; 27667.938209642984 ; 2325690.09980358 ; 3209480.8323185886 ; 0.0
117 ; 20594.46382980954 ; 27667.938209642984 ; 2346553.549886758 ; 3237148.7705282317 ; 0.0
118 ; 20401.14708967017 ; 27667.938209642984 ; 2367148.0137165673 ; 3264816.708737875 ; 0.0
119 ; 20347.609292902325 ; 27667.938209642984 ; 2387549.1608062373 ; 3292484.646947518 ; 0.0
120 ; 20182.8199475677 ; 27667.938209642984 ; 2407896.77009914 ; 3320152.585157161 ; 0.0
121 ; 19913.439441510942 ; 27667.938209642984 ; 2428079.5900467075 ; 3347820.5233668042 ; 0.0
122 ; 19824.217976955224 ; 27667.938209642984 ; 2447993.0294882185 ; 3375488.4615764474 ; 0.0
123 ; 19636.60946105187 ; 27667.938209642984 ; 2467817.2474651737 ; 3403156.3997860905 ; 0.0
124 ; 19441.00196281043 ; 27667.938209642984 ; 2487453.8569262256 ; 3430824.3379957336 ; 0.0
125 ; 19420.454719479458 ; 27667.938209642984 ; 2506894.858889036 ; 3458492.2762053767 ; 0.0
126 ; 19059.406219645123 ; 27667.938209642984 ; 2526315.3136085155 ; 3486160.21441502 ; 0.0
127 ; 18931.659811816608 ; 27667.938209642984 ; 2545374.7198281605 ; 3513828.152624663 ; 0.0
128 ; 18637.16163778505 ; 27667.938209642984 ; 2564306.379639977 ; 3541496.090834306 ; 0.0
129 ; 18378.818969324653 ; 27667.938209642984 ; 2582943.541277762 ; 3569164.029043949 ; 0.0
130 ; 18161.481041947256 ; 27667.938209642984 ; 2601322.3602470867 ; 3596831.9672535923 ; 0.0
131 ; 17865.95548131948 ; 27667.938209642984 ; 2619483.841289034 ; 3624499.9054632355 ; 0.0
132 ; 17639.161175666686 ; 27667.938209642984 ; 2637349.796770354 ; 3652167.8436728786 ; 0.0
133 ; 17322.14562149884 ; 27667.938209642984 ; 2654988.9579460206 ; 3679835.7818825217 ; 0.0
134 ; 17286.090938180136 ; 27667.938209642984 ; 2672311.1035675197 ; 3707503.720092165 ; 0.0
135 ; 16876.95010048022 ; 27667.938209642984 ; 2689597.1945057 ; 3735171.658301808 ; 0.0
136 ; 16798.363223005428 ; 27667.938209642984 ; 2706474.14460618 ; 3762839.596511451 ; 0.0
137 ; 16463.285899746363 ; 27667.938209642984 ; 2723272.5078291856 ; 3790507.534721094 ; 0.0
138 ; 16285.487668087584 ; 27667.938209642984 ; 2739735.793728932 ; 3818175.4729307373 ; 0.0
139 ; 16109.347090899088 ; 27667.938209642984 ; 2756021.2813970195 ; 3845843.4111403804 ; 0.0
140 ; 15573.676199416353 ; 27667.938209642984 ; 2772130.6284879185 ; 3873511.3493500235 ; 0.0
141 ; 15285.77835972687 ; 27667.938209642984 ; 2787704.3046873347 ; 3901179.2875596667 ; 0.0
142 ; 15152.074784174954 ; 27667.938209642984 ; 2802990.0830470617 ; 3928847.22576931 ; 0.0
143 ; 14684.044355188908 ; 27667.938209642984 ; 2818142.1578312367 ; 3956515.163978953 ; 0.0
144 ; 14502.367231175722 ; 27667.938209642984 ; 2832826.2021864257 ; 3984183.102188596 ; 0.0
145 ; 14392.031539359421 ; 27667.938209642984 ; 2847328.5694176015 ; 4011851.040398239 ; 0.0
146 ; 14326.685159429488 ; 27667.938209642984 ; 2861720.600956961 ; 4039518.9786078823 ; 0.0
147 ; 14258.02879589365 ; 27667.938209642984 ; 2876047.2861163905 ; 4067186.9168175254 ; 0.0
148 ; 14252.918275170987 ; 27667.938209642984 ; 2890305.3149122843 ; 4094854.8550271685 ; 0.0
149 ; 13914.307012918025 ; 27667.938209642984 ; 2904558.233187455 ; 4122522.7932368116 ; 0.0
150 ; 13957.444922282846 ; 27667.938209642984 ; 2918472.540200373 ; 4150190.7314464548 ; 0.0
151 ; 13598.768024835694 ; 27667.938209642984 ; 2932429.985122656 ; 4177858.669656098 ; 0.0
152 ; 13687.174940108613 ; 27667.938209642984 ; 2946028.7531474917 ; 4205526.607865741 ; 0.0
153 ; 13641.444108557514 ; 27667.938209642984 ; 2959715.9280876005 ; 4233194.546075383 ; 0.0
154 ; 13537.54102323413 ; 27667.938209642984 ; 2973357.372196158 ; 4260862.484285026 ; 0.0
155 ; 13370.915860845864 ; 27667.938209642984 ; 2986894.913219392 ; 4288530.4224946685 ; 0.0
156 ; 13337.426286876238 ; 27667.938209642984 ; 3000265.8290802375 ; 4316198.360704311 ; 0.0
157 ; 13285.035058336074 ; 27667.938209642984 ; 3013603.2553671137 ; 4343866.298913954 ; 0.0
158 ; 13147.020024299176 ; 27667.938209642984 ; 3026888.2904254496 ; 4371534.2371235965 ; 0.0
159 ; 12817.9246403576 ; 27667.938209642984 ; 3040035.3104497488 ; 4399202.175333239 ; 0.0
160 ; 13002.053796561517 ; 27667.938209642984 ; 3052853.2350901063 ; 4426870.113542882 ; 0.0
161 ; 12728.11962254198 ; 27667.938209642984 ; 3065855.2888866677 ; 4454538.051752524 ; 0.0
162 ; 12665.135951408536 ; 27667.938209642984 ; 3078583.4085092098 ; 4482205.989962167 ; 0.0
163 ; 12571.579642919329 ; 27667.938209642984 ; 3091248.5444606184 ; 4509873.92817181 ; 0.0
164 ; 12286.673579512882 ; 27667.938209642984 ; 3103820.1241035378 ; 4537541.866381452 ; 0.0
165 ; 12248.1397290957 ; 27667.938209642984 ; 3116106.797683051 ; 4565209.804591095 ; 0.0
166 ; 11989.813627586855 ; 27667.938209642984 ; 3128354.9374121465 ; 4592877.742800738 ; 0.0
167 ; 12076.71968398798 ; 27667.938209642984 ; 3140344.751039733 ; 4620545.68101038 ; 0.0
168 ; 11788.230465874554 ; 27667.938209642984 ; 3152421.470723721 ; 4648213.619220023 ; 0.0
169 ; 11724.387904124935 ; 27667.938209642984 ; 3164209.7011895957 ; 4675881.557429666 ; 0.0
170 ; 11693.68612418669 ; 27667.938209642984 ; 3175934.0890937205 ; 4703549.495639308 ; 0.0
171 ; 11534.728290292418 ; 27667.938209642984 ; 3187627.775217907 ; 4731217.433848951 ; 0.0
172 ; 11325.314375279337 ; 27667.938209642984 ; 3199162.5035081995 ; 4758885.372058594 ; 0.0
173 ; 11280.136301513243 ; 27667.938209642984 ; 3210487.817883479 ; 4786553.310268236 ; 0.0
174 ; 11196.601692339746 ; 27667.938209642984 ; 3221767.9541849922 ; 4814221.248477879 ; 0.0
175 ; 11352.489888239226 ; 27667.938209642984 ; 3232964.555877332 ; 4841889.186687522 ; 0.0
176 ; 11138.071831319436 ; 27667.938209642984 ; 3244317.0457655713 ; 4869557.124897164 ; 0.0
177 ; 11602.332920240886 ; 27667.938209642984 ; 3255455.117596891 ; 4897225.063106807 ; 0.0
178 ; 11397.726392113296 ; 27667.938209642984 ; 3267057.4505171315 ; 4924893.00131645 ; 0.0
179 ; 11463.687369011152 ; 27667.938209642984 ; 3278455.1769092446 ; 4952560.939526092 ; 0.0
180 ; 11492.854131150618 ; 27667.938209642984 ; 3289918.864278256 ; 4980228.877735735 ; 0.0
181 ; 11295.58373405892 ; 27667.938209642984 ; 3301411.7184094065 ; 5007896.815945378 ; 0.0
182 ; 11552.943599734077 ; 27667.938209642984 ; 3312707.3021434653 ; 5035564.75415502 ; 0.0
183 ; 11447.687251764644 ; 27667.938209642984 ; 3324260.2457431993 ; 5063232.692364663 ; 0.0
184 ; 11407.655432151472 ; 27667.938209642984 ; 3335707.932994964 ; 5090900.630574306 ; 0.0
185 ; 11542.172301155573 ; 27667.938209642984 ; 3347115.5884271157 ; 5118568.568783948 ; 0.0
186 ; 11599.519197951206 ; 27667.938209642984 ; 3358657.760728271 ; 5146236.506993591 ; 0.0
187 ; 11532.31714101004 ; 27667.938209642984 ; 3370257.2799262223 ; 5173904.4452032335 ; 0.0
188 ; 11438.939964137913 ; 27667.938209642984 ; 3381789.5970672322 ; 5201572.383412876 ; 0.0
189 ; 11639.183570707406 ; 27667.938209642984 ; 3393228.53703137 ; 5229240.321622519 ; 0.0
190 ; 11404.992971934793 ; 27667.938209642984 ; 3404867.7206020774 ; 5256908.2598321615 ; 0.0
191 ; 11508.780014784865 ; 27667.938209642984 ; 3416272.7135740123 ; 5284576.198041804 ; 0.0
192 ; 11630.527383200488 ; 27667.938209642984 ; 3427781.4935887973 ; 5312244.136251447 ; 0.0
193 ; 11607.35248245316 ; 27667.938209642984 ; 3439412.0209719976 ; 5339912.074461089 ; 0.0
194 ; 11591.507939941277 ; 27667.938209642984 ; 3451019.3734544506 ; 5367580.012670732 ; 0.0
195 ; 11632.77621619282 ; 27667.938209642984 ; 3462610.881394392 ; 5395247.950880375 ; 0.0
196 ; 11611.382132550432 ; 27667.938209642984 ; 3474243.6576105845 ; 5422915.889090017 ; 0.0
197 ; 11564.580589423182 ; 27667.938209642984 ; 3485855.0397431348 ; 5450583.82729966 ; 0.0
198 ; 11676.018806625312 ; 27667.938209642984 ; 3497419.6203325577 ; 5478251.765509303 ; 0.0
199 ; 11638.326148400904 ; 27667.938209642984 ; 3509095.639139183 ; 5505919.703718945 ; 0.0
200 ; 11747.206640229744 ; 27667.938209642984 ; 3520733.965287584 ; 5533587.641928588 ; 0.0
201 ; 11768.173869712014 ; 27667.938209642984 ; 3532481.1719278134 ; 5561255.580138231 ; 0.0
202 ; 11541.59880930888 ; 27667.938209642984 ; 3544249.3457975253 ; 5588923.518347873 ; 0.0
203 ; 11688.216509135626 ; 27667.938209642984 ; 3555790.944606834 ; 5616591.456557516 ; 0.0
204 ; 11819.59524397532 ; 27667.938209642984 ; 3567479.1611159695 ; 5644259.394767159 ; 0.0
205 ; 11781.434991831446 ; 27667.938209642984 ; 3579298.756359945 ; 5671927.332976801 ; 0.0
206 ; 11848.748990303673 ; 27667.938209642984 ; 3591080.1913517765 ; 5699595.271186444 ; 0.0
207 ; 11761.236247342265 ; 27667.938209642984 ; 3602928.9403420803 ; 5727263.209396087 ; 0.0
208 ; 11849.683623992096 ; 27667.938209642984 ; 3614690.1765894224 ; 5754931.147605729 ; 0.0
209 ; 11728.9393249892 ; 27667.938209642984 ; 3626539.8602134143 ; 5782599.085815372 ; 0.0
210 ; 11742.559076902771 ; 27667.938209642984 ; 3638268.7995384033 ; 5810267.024025015 ; 0.0
211 ; 11818.603977214538 ; 27667.938209642984 ; 3650011.358615306 ; 5837934.962234657 ; 0.0
212 ; 11894.701587509195 ; 27667.938209642984 ; 3661829.9625925208 ; 5865602.9004443 ; 0.0
213 ; 11855.819059089545 ; 27667.938209642984 ; 3673724.66418003 ; 5893270.838653943 ; 0.0
