CSV File for the City 2 on Day 290
1 - Minute m 
2 - Power Consumed at minute m 
3 - Power Produced at minute m 
4 - Energy Consumed since the beginning of the day 
5 - Energy Produced since the beginning of the day 
6 - Energy Lost since the beginning of the day on lines starting from the city
 
0 ; 8547.871846059375 ; 28170.676393111156 ; 0.0 ; 0.0 ; 0.0
1 ; 8782.455426679016 ; 28170.676393111156 ; 8547.871846059375 ; 28170.676393111156 ; 0.0
2 ; 9261.77882278075 ; 28170.676393111156 ; 17330.327272738392 ; 56341.35278622231 ; 0.0
3 ; 9452.90504825589 ; 28170.676393111156 ; 26592.106095519142 ; 84512.02917933348 ; 0.0
4 ; 9913.338064802303 ; 28170.676393111156 ; 36045.01114377503 ; 112682.70557244463 ; 0.0
5 ; 10377.027048025544 ; 28170.676393111156 ; 45958.34920857733 ; 140853.38196555577 ; 0.0
6 ; 10789.313039082004 ; 28170.676393111156 ; 56335.376256602874 ; 169024.05835866692 ; 0.0
7 ; 11155.957521618071 ; 28170.676393111156 ; 67124.68929568488 ; 197194.73475177807 ; 0.0
8 ; 11419.889871920273 ; 28170.676393111156 ; 78280.64681730294 ; 225365.41114488922 ; 0.0
9 ; 11708.02597734655 ; 28170.676393111156 ; 89700.53668922321 ; 253536.08753800037 ; 0.0
10 ; 12078.238098288362 ; 28170.676393111156 ; 101408.56266656976 ; 281706.76393111155 ; 0.0
11 ; 12614.888527414912 ; 28170.676393111156 ; 113486.80076485813 ; 309877.4403242227 ; 0.0
12 ; 12828.920358836867 ; 28170.676393111156 ; 126101.68929227303 ; 338048.1167173339 ; 0.0
13 ; 13163.51442171539 ; 28170.676393111156 ; 138930.6096511099 ; 366218.7931104451 ; 0.0
14 ; 13505.548468742703 ; 28170.676393111156 ; 152094.1240728253 ; 394389.46950355626 ; 0.0
15 ; 13593.153228467758 ; 28170.676393111156 ; 165599.672541568 ; 422560.14589666744 ; 0.0
16 ; 13996.040416478014 ; 28170.676393111156 ; 179192.82577003576 ; 450730.8222897786 ; 0.0
17 ; 14304.044354542475 ; 28170.676393111156 ; 193188.86618651377 ; 478901.4986828898 ; 0.0
18 ; 14707.303461271847 ; 28170.676393111156 ; 207492.91054105625 ; 507072.175076001 ; 0.0
19 ; 15059.652338499673 ; 28170.676393111156 ; 222200.2140023281 ; 535242.8514691121 ; 0.0
20 ; 15259.197439674055 ; 28170.676393111156 ; 237259.86634082778 ; 563413.5278622232 ; 0.0
21 ; 15537.132235625191 ; 28170.676393111156 ; 252519.06378050183 ; 591584.2042553343 ; 0.0
22 ; 15842.94851843897 ; 28170.676393111156 ; 268056.196016127 ; 619754.8806484455 ; 0.0
23 ; 16030.24892843229 ; 28170.676393111156 ; 283899.144534566 ; 647925.5570415566 ; 0.0
24 ; 16322.20565668915 ; 28170.676393111156 ; 299929.39346299827 ; 676096.2334346677 ; 0.0
25 ; 16731.478372214035 ; 28170.676393111156 ; 316251.5991196874 ; 704266.9098277788 ; 0.0
26 ; 16815.265749180515 ; 28170.676393111156 ; 332983.0774919014 ; 732437.5862208899 ; 0.0
27 ; 17143.582835883382 ; 28170.676393111156 ; 349798.3432410819 ; 760608.262614001 ; 0.0
28 ; 17319.43082420376 ; 28170.676393111156 ; 366941.9260769653 ; 788778.9390071122 ; 0.0
29 ; 17658.336712039163 ; 28170.676393111156 ; 384261.35690116906 ; 816949.6154002233 ; 0.0
30 ; 18044.483226735883 ; 28170.676393111156 ; 401919.69361320825 ; 845120.2917933344 ; 0.0
31 ; 18249.734857853968 ; 28170.676393111156 ; 419964.17683994415 ; 873290.9681864455 ; 0.0
32 ; 18453.03966941453 ; 28170.676393111156 ; 438213.9116977981 ; 901461.6445795567 ; 0.0
33 ; 18644.0772300328 ; 28170.676393111156 ; 456666.95136721263 ; 929632.3209726678 ; 0.0
34 ; 18813.428362986608 ; 28170.676393111156 ; 475311.02859724546 ; 957802.9973657789 ; 0.0
35 ; 18931.616963536464 ; 28170.676393111156 ; 494124.45696023206 ; 985973.67375889 ; 0.0
36 ; 19261.267664280374 ; 28170.676393111156 ; 513056.07392376853 ; 1014144.3501520011 ; 0.0
37 ; 19483.995187679455 ; 28170.676393111156 ; 532317.341588049 ; 1042315.0265451123 ; 0.0
38 ; 19643.34081066231 ; 28170.676393111156 ; 551801.3367757284 ; 1070485.7029382235 ; 0.0
39 ; 20193.66421745817 ; 28170.676393111156 ; 571444.6775863906 ; 1098656.3793313347 ; 0.0
40 ; 20066.57650924174 ; 28170.676393111156 ; 591638.3418038489 ; 1126827.055724446 ; 0.0
41 ; 20236.807889180436 ; 28170.676393111156 ; 611704.9183130906 ; 1154997.7321175572 ; 0.0
42 ; 20401.56605392488 ; 28170.676393111156 ; 631941.7262022711 ; 1183168.4085106684 ; 0.0
43 ; 20632.47809229897 ; 28170.676393111156 ; 652343.2922561959 ; 1211339.0849037797 ; 0.0
44 ; 20952.36581103326 ; 28170.676393111156 ; 672975.7703484949 ; 1239509.761296891 ; 0.0
45 ; 21079.541590174904 ; 28170.676393111156 ; 693928.1361595282 ; 1267680.4376900021 ; 0.0
46 ; 21237.331178277138 ; 28170.676393111156 ; 715007.677749703 ; 1295851.1140831134 ; 0.0
47 ; 21274.02024305508 ; 28170.676393111156 ; 736245.0089279802 ; 1324021.7904762246 ; 0.0
48 ; 21342.07137202987 ; 28170.676393111156 ; 757519.0291710353 ; 1352192.4668693359 ; 0.0
49 ; 21715.147665704233 ; 28170.676393111156 ; 778861.1005430651 ; 1380363.143262447 ; 0.0
50 ; 21921.159856945156 ; 28170.676393111156 ; 800576.2482087694 ; 1408533.8196555583 ; 0.0
51 ; 22000.779868980964 ; 28170.676393111156 ; 822497.4080657145 ; 1436704.4960486696 ; 0.0
52 ; 22042.525365925958 ; 28170.676393111156 ; 844498.1879346955 ; 1464875.1724417808 ; 0.0
53 ; 22250.19909564693 ; 28170.676393111156 ; 866540.7133006215 ; 1493045.848834892 ; 0.0
54 ; 22342.214005513928 ; 28170.676393111156 ; 888790.9123962685 ; 1521216.5252280033 ; 0.0
55 ; 22554.537210852683 ; 28170.676393111156 ; 911133.1264017824 ; 1549387.2016211145 ; 0.0
56 ; 22605.371843897214 ; 28170.676393111156 ; 933687.6636126351 ; 1577557.8780142257 ; 0.0
57 ; 22631.40488170397 ; 28170.676393111156 ; 956293.0354565324 ; 1605728.554407337 ; 0.0
58 ; 22983.455043980117 ; 28170.676393111156 ; 978924.4403382364 ; 1633899.2308004482 ; 0.0
59 ; 22993.4197591421 ; 28170.676393111156 ; 1001907.8953822165 ; 1662069.9071935595 ; 0.0
60 ; 23099.6237901755 ; 28170.676393111156 ; 1024901.3151413586 ; 1690240.5835866707 ; 0.0
61 ; 23199.441773170034 ; 28170.676393111156 ; 1048000.9389315342 ; 1718411.259979782 ; 0.0
62 ; 23179.998235027215 ; 28170.676393111156 ; 1071200.3807047042 ; 1746581.9363728932 ; 0.0
63 ; 23292.897088140224 ; 28170.676393111156 ; 1094380.3789397315 ; 1774752.6127660044 ; 0.0
64 ; 23379.616037052914 ; 28170.676393111156 ; 1117673.2760278718 ; 1802923.2891591156 ; 0.0
65 ; 23547.73948349221 ; 28170.676393111156 ; 1141052.8920649246 ; 1831093.9655522269 ; 0.0
66 ; 23520.888901688486 ; 28170.676393111156 ; 1164600.6315484168 ; 1859264.641945338 ; 0.0
67 ; 23526.684358508795 ; 28170.676393111156 ; 1188121.5204501052 ; 1887435.3183384493 ; 0.0
68 ; 23818.651297072767 ; 28170.676393111156 ; 1211648.204808614 ; 1915605.9947315606 ; 0.0
69 ; 23772.867109856415 ; 28170.676393111156 ; 1235466.8561056869 ; 1943776.6711246718 ; 0.0
70 ; 23804.759920210556 ; 28170.676393111156 ; 1259239.7232155432 ; 1971947.347517783 ; 0.0
71 ; 23895.22388580832 ; 28170.676393111156 ; 1283044.4831357538 ; 2000118.0239108943 ; 0.0
72 ; 23795.054476518308 ; 28170.676393111156 ; 1306939.7070215621 ; 2028288.7003040055 ; 0.0
73 ; 23991.05546178871 ; 28170.676393111156 ; 1330734.7614980806 ; 2056459.3766971168 ; 0.0
74 ; 23799.9353184601 ; 28170.676393111156 ; 1354725.8169598693 ; 2084630.053090228 ; 0.0
75 ; 24056.98818918229 ; 28170.676393111156 ; 1378525.7522783293 ; 2112800.729483339 ; 0.0
76 ; 24083.14349134769 ; 28170.676393111156 ; 1402582.7404675116 ; 2140971.4058764502 ; 0.0
77 ; 23978.6513463519 ; 28170.676393111156 ; 1426665.8839588594 ; 2169142.0822695615 ; 0.0
78 ; 23957.025217258397 ; 28170.676393111156 ; 1450644.5353052113 ; 2197312.7586626727 ; 0.0
79 ; 24109.297412318636 ; 28170.676393111156 ; 1474601.5605224697 ; 2225483.435055784 ; 0.0
80 ; 24073.792697999947 ; 28170.676393111156 ; 1498710.8579347883 ; 2253654.111448895 ; 0.0
81 ; 23962.437021208625 ; 28170.676393111156 ; 1522784.6506327882 ; 2281824.7878420064 ; 0.0
82 ; 24088.912939864604 ; 28170.676393111156 ; 1546747.087653997 ; 2309995.4642351177 ; 0.0
83 ; 24097.16792207421 ; 28170.676393111156 ; 1570836.0005938616 ; 2338166.140628229 ; 0.0
84 ; 23946.308082573658 ; 28170.676393111156 ; 1594933.1685159358 ; 2366336.81702134 ; 0.0
85 ; 23924.259371415148 ; 28170.676393111156 ; 1618879.4765985094 ; 2394507.4934144514 ; 0.0
86 ; 24060.23584945779 ; 28170.676393111156 ; 1642803.7359699246 ; 2422678.1698075626 ; 0.0
87 ; 24041.290155795516 ; 28170.676393111156 ; 1666863.9718193824 ; 2450848.846200674 ; 0.0
88 ; 23997.985602815505 ; 28170.676393111156 ; 1690905.2619751778 ; 2479019.522593785 ; 0.0
89 ; 23922.82901004826 ; 28170.676393111156 ; 1714903.2475779932 ; 2507190.1989868963 ; 0.0
90 ; 23746.56970676868 ; 28170.676393111156 ; 1738826.0765880414 ; 2535360.8753800076 ; 0.0
91 ; 23890.200565985127 ; 28170.676393111156 ; 1762572.64629481 ; 2563531.551773119 ; 0.0
92 ; 23657.21496837106 ; 28170.676393111156 ; 1786462.8468607953 ; 2591702.22816623 ; 0.0
93 ; 23662.725830298077 ; 28170.676393111156 ; 1810120.0618291663 ; 2619872.9045593413 ; 0.0
94 ; 23698.716039713974 ; 28170.676393111156 ; 1833782.7876594644 ; 2648043.5809524525 ; 0.0
95 ; 23641.412302337558 ; 28170.676393111156 ; 1857481.5036991783 ; 2676214.2573455637 ; 0.0
96 ; 23232.69818084749 ; 28170.676393111156 ; 1881122.916001516 ; 2704384.933738675 ; 0.0
97 ; 23280.86688962495 ; 28170.676393111156 ; 1904355.6141823635 ; 2732555.610131786 ; 0.0
98 ; 23383.39784360835 ; 28170.676393111156 ; 1927636.4810719884 ; 2760726.2865248974 ; 0.0
99 ; 23340.70226648356 ; 28170.676393111156 ; 1951019.8789155968 ; 2788896.9629180087 ; 0.0
100 ; 23229.656544746555 ; 28170.676393111156 ; 1974360.5811820803 ; 2817067.63931112 ; 0.0
101 ; 23189.704326352075 ; 28170.676393111156 ; 1997590.237726827 ; 2845238.315704231 ; 0.0
102 ; 22916.13802668077 ; 28170.676393111156 ; 2020779.942053179 ; 2873408.9920973424 ; 0.0
103 ; 22912.84284255461 ; 28170.676393111156 ; 2043696.0800798598 ; 2901579.6684904536 ; 0.0
104 ; 22791.767675422325 ; 28170.676393111156 ; 2066608.9229224145 ; 2929750.344883565 ; 0.0
105 ; 22761.725323797793 ; 28170.676393111156 ; 2089400.6905978369 ; 2957921.021276676 ; 0.0
106 ; 22676.161999473832 ; 28170.676393111156 ; 2112162.4159216345 ; 2986091.6976697873 ; 0.0
107 ; 22291.890476083237 ; 28170.676393111156 ; 2134838.5779211083 ; 3014262.3740628986 ; 0.0
108 ; 22361.658075115534 ; 28170.676393111156 ; 2157130.4683971917 ; 3042433.05045601 ; 0.0
109 ; 21967.673422361346 ; 28170.676393111156 ; 2179492.1264723074 ; 3070603.726849121 ; 0.0
110 ; 22089.948237584336 ; 28170.676393111156 ; 2201459.7998946686 ; 3098774.4032422323 ; 0.0
111 ; 21991.200094793454 ; 28170.676393111156 ; 2223549.748132253 ; 3126945.0796353435 ; 0.0
112 ; 21883.442141428928 ; 28170.676393111156 ; 2245540.9482270465 ; 3155115.7560284548 ; 0.0
113 ; 21511.5186676642 ; 28170.676393111156 ; 2267424.3903684756 ; 3183286.432421566 ; 0.0
114 ; 21444.67211889093 ; 28170.676393111156 ; 2288935.90903614 ; 3211457.108814677 ; 0.0
115 ; 21321.776835416305 ; 28170.676393111156 ; 2310380.581155031 ; 3239627.7852077885 ; 0.0
116 ; 21077.87143063193 ; 28170.676393111156 ; 2331702.3579904474 ; 3267798.4616008997 ; 0.0
117 ; 20917.215865767877 ; 28170.676393111156 ; 2352780.229421079 ; 3295969.137994011 ; 0.0
118 ; 20830.018894253433 ; 28170.676393111156 ; 2373697.445286847 ; 3324139.814387122 ; 0.0
119 ; 20693.775829152637 ; 28170.676393111156 ; 2394527.4641811005 ; 3352310.4907802334 ; 0.0
120 ; 20505.075807798923 ; 28170.676393111156 ; 2415221.240010253 ; 3380481.1671733446 ; 0.0
121 ; 20195.176992642744 ; 28170.676393111156 ; 2435726.3158180523 ; 3408651.843566456 ; 0.0
122 ; 20025.447082718838 ; 28170.676393111156 ; 2455921.492810695 ; 3436822.519959567 ; 0.0
123 ; 19794.535261112196 ; 28170.676393111156 ; 2475946.939893414 ; 3464993.1963526784 ; 0.0
124 ; 19689.67124385808 ; 28170.676393111156 ; 2495741.475154526 ; 3493163.8727457896 ; 0.0
125 ; 19491.145660042894 ; 28170.676393111156 ; 2515431.146398384 ; 3521334.549138901 ; 0.0
126 ; 19413.964257226162 ; 28170.676393111156 ; 2534922.292058427 ; 3549505.225532012 ; 0.0
127 ; 18925.97685930255 ; 28170.676393111156 ; 2554336.256315653 ; 3577675.9019251233 ; 0.0
128 ; 18598.176982644887 ; 28170.676393111156 ; 2573262.233174956 ; 3605846.5783182345 ; 0.0
129 ; 18380.79809390428 ; 28170.676393111156 ; 2591860.410157601 ; 3634017.254711346 ; 0.0
130 ; 18417.332360467168 ; 28170.676393111156 ; 2610241.208251505 ; 3662187.931104457 ; 0.0
131 ; 17930.03234952067 ; 28170.676393111156 ; 2628658.540611972 ; 3690358.6074975682 ; 0.0
132 ; 17726.2275561674 ; 28170.676393111156 ; 2646588.572961493 ; 3718529.2838906795 ; 0.0
133 ; 17552.731041971594 ; 28170.676393111156 ; 2664314.80051766 ; 3746699.9602837907 ; 0.0
134 ; 17451.403967005037 ; 28170.676393111156 ; 2681867.5315596317 ; 3774870.636676902 ; 0.0
135 ; 17043.333957946623 ; 28170.676393111156 ; 2699318.935526637 ; 3803041.313070013 ; 0.0
136 ; 16731.13383864114 ; 28170.676393111156 ; 2716362.2694845833 ; 3831211.9894631244 ; 0.0
137 ; 16574.788917391248 ; 28170.676393111156 ; 2733093.4033232243 ; 3859382.6658562357 ; 0.0
138 ; 16235.965994152028 ; 28170.676393111156 ; 2749668.1922406154 ; 3887553.342249347 ; 0.0
139 ; 15853.316752177341 ; 28170.676393111156 ; 2765904.1582347676 ; 3915724.018642458 ; 0.0
140 ; 15636.934322840041 ; 28170.676393111156 ; 2781757.474986945 ; 3943894.6950355694 ; 0.0
141 ; 15329.798034525338 ; 28170.676393111156 ; 2797394.409309785 ; 3972065.3714286806 ; 0.0
142 ; 15148.95331394579 ; 28170.676393111156 ; 2812724.2073443104 ; 4000236.047821792 ; 0.0
143 ; 14909.943732462933 ; 28170.676393111156 ; 2827873.160658256 ; 4028406.724214903 ; 0.0
144 ; 14366.965232475772 ; 28170.676393111156 ; 2842783.104390719 ; 4056577.4006080143 ; 0.0
145 ; 14541.85853206927 ; 28170.676393111156 ; 2857150.0696231946 ; 4084748.0770011256 ; 0.0
146 ; 14296.818806910065 ; 28170.676393111156 ; 2871691.928155264 ; 4112918.753394237 ; 0.0
147 ; 14369.799546478776 ; 28170.676393111156 ; 2885988.746962174 ; 4141089.429787348 ; 0.0
148 ; 14116.258281932149 ; 28170.676393111156 ; 2900358.5465086526 ; 4169260.1061804593 ; 0.0
149 ; 14061.359625223871 ; 28170.676393111156 ; 2914474.804790585 ; 4197430.7825735705 ; 0.0
150 ; 13996.751471741425 ; 28170.676393111156 ; 2928536.164415809 ; 4225601.458966682 ; 0.0
151 ; 13922.934478915084 ; 28170.676393111156 ; 2942532.9158875505 ; 4253772.135359793 ; 0.0
152 ; 13819.546236360437 ; 28170.676393111156 ; 2956455.8503664657 ; 4281942.811752904 ; 0.0
153 ; 13716.890586919915 ; 28170.676393111156 ; 2970275.396602826 ; 4310113.488146015 ; 0.0
154 ; 13529.914872035759 ; 28170.676393111156 ; 2983992.2871897463 ; 4338284.164539127 ; 0.0
155 ; 13496.219067942795 ; 28170.676393111156 ; 2997522.202061782 ; 4366454.840932238 ; 0.0
156 ; 13208.902361552797 ; 28170.676393111156 ; 3011018.421129725 ; 4394625.517325349 ; 0.0
157 ; 13278.360244928861 ; 28170.676393111156 ; 3024227.3234912776 ; 4422796.19371846 ; 0.0
158 ; 13078.632483343368 ; 28170.676393111156 ; 3037505.6837362065 ; 4450966.870111572 ; 0.0
159 ; 13140.472385404111 ; 28170.676393111156 ; 3050584.31621955 ; 4479137.546504683 ; 0.0
160 ; 12932.75092771513 ; 28170.676393111156 ; 3063724.7886049543 ; 4507308.222897794 ; 0.0
161 ; 12872.645223962973 ; 28170.676393111156 ; 3076657.5395326694 ; 4535478.899290905 ; 0.0
162 ; 12723.545034779936 ; 28170.676393111156 ; 3089530.1847566324 ; 4563649.575684017 ; 0.0
163 ; 12619.27422224059 ; 28170.676393111156 ; 3102253.7297914126 ; 4591820.252077128 ; 0.0
164 ; 12405.954457255717 ; 28170.676393111156 ; 3114873.0040136534 ; 4619990.928470239 ; 0.0
165 ; 12384.33501884685 ; 28170.676393111156 ; 3127278.958470909 ; 4648161.60486335 ; 0.0
166 ; 12279.480471670022 ; 28170.676393111156 ; 3139663.2934897556 ; 4676332.2812564615 ; 0.0
167 ; 12054.697336389338 ; 28170.676393111156 ; 3151942.7739614258 ; 4704502.957649573 ; 0.0
168 ; 11918.081174106343 ; 28170.676393111156 ; 3163997.471297815 ; 4732673.634042684 ; 0.0
169 ; 11899.679016320848 ; 28170.676393111156 ; 3175915.5524719213 ; 4760844.310435795 ; 0.0
170 ; 11807.17661977855 ; 28170.676393111156 ; 3187815.2314882423 ; 4789014.986828906 ; 0.0
171 ; 11592.7597714552 ; 28170.676393111156 ; 3199622.4081080207 ; 4817185.663222018 ; 0.0
172 ; 11577.436434412904 ; 28170.676393111156 ; 3211215.1678794757 ; 4845356.339615129 ; 0.0
173 ; 11304.073096687092 ; 28170.676393111156 ; 3222792.6043138886 ; 4873527.01600824 ; 0.0
174 ; 11300.785925321365 ; 28170.676393111156 ; 3234096.6774105756 ; 4901697.692401351 ; 0.0
175 ; 11424.589378608009 ; 28170.676393111156 ; 3245397.463335897 ; 4929868.368794463 ; 0.0
176 ; 11439.6895339008 ; 28170.676393111156 ; 3256822.052714505 ; 4958039.045187574 ; 0.0
177 ; 11257.541385023575 ; 28170.676393111156 ; 3268261.7422484057 ; 4986209.721580685 ; 0.0
178 ; 11414.01826740029 ; 28170.676393111156 ; 3279519.283633429 ; 5014380.397973796 ; 0.0
179 ; 11637.219653331033 ; 28170.676393111156 ; 3290933.301900829 ; 5042551.074366908 ; 0.0
180 ; 11428.350541360227 ; 28170.676393111156 ; 3302570.5215541604 ; 5070721.750760019 ; 0.0
181 ; 11424.652999816986 ; 28170.676393111156 ; 3313998.8720955206 ; 5098892.42715313 ; 0.0
182 ; 11652.332873575375 ; 28170.676393111156 ; 3325423.5250953375 ; 5127063.103546241 ; 0.0
183 ; 11612.979105103768 ; 28170.676393111156 ; 3337075.857968913 ; 5155233.779939353 ; 0.0
184 ; 11395.384311278125 ; 28170.676393111156 ; 3348688.8370740167 ; 5183404.456332464 ; 0.0
185 ; 11578.829069998765 ; 28170.676393111156 ; 3360084.221385295 ; 5211575.132725575 ; 0.0
186 ; 11670.934696562128 ; 28170.676393111156 ; 3371663.0504552936 ; 5239745.809118686 ; 0.0
187 ; 11631.163286412846 ; 28170.676393111156 ; 3383333.9851518557 ; 5267916.4855117975 ; 0.0
188 ; 11570.79612390693 ; 28170.676393111156 ; 3394965.148438269 ; 5296087.161904909 ; 0.0
189 ; 11665.530063982185 ; 28170.676393111156 ; 3406535.944562176 ; 5324257.83829802 ; 0.0
190 ; 11668.098057350375 ; 28170.676393111156 ; 3418201.474626158 ; 5352428.514691131 ; 0.0
191 ; 11554.327093838405 ; 28170.676393111156 ; 3429869.572683508 ; 5380599.191084242 ; 0.0
192 ; 11586.20186608785 ; 28170.676393111156 ; 3441423.8997773463 ; 5408769.867477354 ; 0.0
193 ; 11596.117598941151 ; 28170.676393111156 ; 3453010.1016434343 ; 5436940.543870465 ; 0.0
194 ; 11802.604331469975 ; 28170.676393111156 ; 3464606.2192423753 ; 5465111.220263576 ; 0.0
195 ; 11766.069670917332 ; 28170.676393111156 ; 3476408.8235738454 ; 5493281.896656687 ; 0.0
196 ; 11878.011735176318 ; 28170.676393111156 ; 3488174.893244763 ; 5521452.573049799 ; 0.0
197 ; 11856.469865409217 ; 28170.676393111156 ; 3500052.904979939 ; 5549623.24944291 ; 0.0
198 ; 11725.751720691092 ; 28170.676393111156 ; 3511909.3748453483 ; 5577793.925836021 ; 0.0
199 ; 11872.221823043506 ; 28170.676393111156 ; 3523635.1265660394 ; 5605964.602229132 ; 0.0
200 ; 12001.289296921152 ; 28170.676393111156 ; 3535507.348389083 ; 5634135.278622244 ; 0.0
201 ; 11780.828450436098 ; 28170.676393111156 ; 3547508.6376860044 ; 5662305.955015355 ; 0.0
202 ; 12024.793021187408 ; 28170.676393111156 ; 3559289.4661364406 ; 5690476.631408466 ; 0.0
203 ; 11842.6280209968 ; 28170.676393111156 ; 3571314.259157628 ; 5718647.307801577 ; 0.0
204 ; 12071.503899110297 ; 28170.676393111156 ; 3583156.8871786245 ; 5746817.9841946885 ; 0.0
205 ; 11818.167495977006 ; 28170.676393111156 ; 3595228.391077735 ; 5774988.6605878 ; 0.0
206 ; 11950.542426093512 ; 28170.676393111156 ; 3607046.558573712 ; 5803159.336980911 ; 0.0
207 ; 12049.048820917724 ; 28170.676393111156 ; 3618997.1009998056 ; 5831330.013374022 ; 0.0
208 ; 11812.442611440594 ; 28170.676393111156 ; 3631046.149820723 ; 5859500.689767133 ; 0.0
209 ; 11914.291117202794 ; 28170.676393111156 ; 3642858.5924321637 ; 5887671.366160245 ; 0.0
210 ; 12193.823444503258 ; 28170.676393111156 ; 3654772.8835493666 ; 5915842.042553356 ; 0.0
211 ; 12051.79482961266 ; 28170.676393111156 ; 3666966.70699387 ; 5944012.718946467 ; 0.0
212 ; 11943.143016868016 ; 28170.676393111156 ; 3679018.5018234826 ; 5972183.395339578 ; 0.0
213 ; 11944.546782269053 ; 28170.676393111156 ; 3690961.6448403504 ; 6000354.07173269 ; 0.0
