CSV File for the City 1 on Day 291
1 - Minute m 
2 - Power Consumed at minute m 
3 - Power Produced at minute m 
4 - Energy Consumed since the beginning of the day 
5 - Energy Produced since the beginning of the day 
6 - Energy Lost since the beginning of the day on lines starting from the city
 
0 ; 10036.19894721326 ; 7486.6261713214335 ; 0.0 ; 0.0 ; 0.0
1 ; 10537.162301944249 ; 7486.6261713214335 ; 10036.19894721326 ; 7486.6261713214335 ; 238.00000000000003
2 ; 10810.301850316904 ; 7486.6261713214335 ; 20573.36124915751 ; 14973.252342642867 ; 476.00000000000006
3 ; 11077.5107380073 ; 7486.6261713214335 ; 31383.663099474416 ; 22459.8785139643 ; 714.0000000000001
4 ; 11580.537016061793 ; 7486.6261713214335 ; 42461.173837481714 ; 29946.504685285734 ; 952.0000000000001
5 ; 11962.22784364883 ; 7486.6261713214335 ; 54041.71085354351 ; 37433.13085660717 ; 1190.0000000000002
6 ; 12595.036762205431 ; 7486.6261713214335 ; 66003.93869719234 ; 44919.7570279286 ; 1428.0000000000002
7 ; 12953.772933786004 ; 7486.6261713214335 ; 78598.97545939777 ; 52406.383199250035 ; 1666.0000000000002
8 ; 13282.680467246755 ; 7486.6261713214335 ; 91552.74839318378 ; 59893.00937057147 ; 1904.0000000000002
9 ; 13497.127662595984 ; 7486.6261713214335 ; 104835.42886043053 ; 67379.6355418929 ; 2142.0000000000005
10 ; 14077.061874923245 ; 7486.6261713214335 ; 118332.55652302652 ; 74866.26171321434 ; 2380.0000000000005
11 ; 14485.306003967848 ; 7486.6261713214335 ; 132409.61839794976 ; 82352.88788453577 ; 2618.0000000000005
12 ; 14824.01708526486 ; 7486.6261713214335 ; 146894.9244019176 ; 89839.5140558572 ; 2856.0000000000005
13 ; 15181.916693385561 ; 7486.6261713214335 ; 161718.94148718248 ; 97326.14022717864 ; 3094.0000000000005
14 ; 15500.654525780277 ; 7486.6261713214335 ; 176900.85818056806 ; 104812.76639850007 ; 3332.0000000000005
15 ; 15900.361418200777 ; 7486.6261713214335 ; 192401.51270634832 ; 112299.3925698215 ; 3570.0000000000005
16 ; 16149.976995225468 ; 7486.6261713214335 ; 208301.8741245491 ; 119786.01874114294 ; 3808.0000000000005
17 ; 16682.313929258566 ; 7486.6261713214335 ; 224451.85111977457 ; 127272.64491246437 ; 4046.0000000000005
18 ; 16925.12189806409 ; 7486.6261713214335 ; 241134.16504903312 ; 134759.2710837858 ; 4284.000000000001
19 ; 17315.191529517007 ; 7486.6261713214335 ; 258059.28694709722 ; 142245.89725510724 ; 4522.000000000001
20 ; 17666.122245579496 ; 7486.6261713214335 ; 275374.4784766142 ; 149732.52342642867 ; 4760.000000000001
21 ; 17928.666659615836 ; 7486.6261713214335 ; 293040.6007221937 ; 157219.1495977501 ; 4998.000000000001
22 ; 18423.2725762405 ; 7486.6261713214335 ; 310969.26738180954 ; 164705.77576907154 ; 5236.000000000001
23 ; 18540.861920778036 ; 7486.6261713214335 ; 329392.53995805 ; 172192.40194039297 ; 5474.000000000001
24 ; 18905.48664753179 ; 7486.6261713214335 ; 347933.40187882807 ; 179679.0281117144 ; 5712.000000000001
25 ; 19264.532671417695 ; 7486.6261713214335 ; 366838.88852635986 ; 187165.65428303584 ; 5950.000000000001
26 ; 19253.349418281985 ; 7486.6261713214335 ; 386103.42119777756 ; 194652.28045435727 ; 6188.000000000001
27 ; 19911.527320753463 ; 7486.6261713214335 ; 405356.77061605954 ; 202138.9066256787 ; 6426.000000000001
28 ; 19868.2931005218 ; 7486.6261713214335 ; 425268.297936813 ; 209625.53279700014 ; 6664.000000000001
29 ; 20407.470401195507 ; 7486.6261713214335 ; 445136.59103733476 ; 217112.15896832157 ; 6902.000000000001
30 ; 20493.808815162254 ; 7486.6261713214335 ; 465544.0614385303 ; 224598.785139643 ; 7140.000000000001
31 ; 20734.681277364587 ; 7486.6261713214335 ; 486037.87025369256 ; 232085.41131096444 ; 7378.000000000001
32 ; 20902.535198989604 ; 7486.6261713214335 ; 506772.55153105716 ; 239572.03748228587 ; 7616.000000000001
33 ; 21581.65180948731 ; 7486.6261713214335 ; 527675.0867300468 ; 247058.6636536073 ; 7854.000000000001
34 ; 21528.836888270045 ; 7486.6261713214335 ; 549256.738539534 ; 254545.28982492874 ; 8092.000000000001
35 ; 21935.60727169877 ; 7486.6261713214335 ; 570785.5754278041 ; 262031.91599625017 ; 8330.000000000002
36 ; 22230.95229257903 ; 7486.6261713214335 ; 592721.1826995029 ; 269518.5421675716 ; 8568.000000000002
37 ; 22472.957507679206 ; 7486.6261713214335 ; 614952.1349920819 ; 277005.16833889304 ; 8806.000000000002
38 ; 22633.82090589844 ; 7486.6261713214335 ; 637425.0924997611 ; 284491.7945102145 ; 9044.000000000002
39 ; 22770.126793266645 ; 7486.6261713214335 ; 660058.9134056596 ; 291978.4206815359 ; 9282.000000000002
40 ; 23202.754203851582 ; 7486.6261713214335 ; 682829.0401989262 ; 299465.04685285734 ; 9520.000000000002
41 ; 23440.103981303342 ; 7486.6261713214335 ; 706031.7944027778 ; 306951.6730241788 ; 9758.000000000002
42 ; 23499.727131781885 ; 7486.6261713214335 ; 729471.8983840812 ; 314438.2991955002 ; 9996.000000000002
43 ; 23705.87324670481 ; 7486.6261713214335 ; 752971.6255158631 ; 321924.92536682164 ; 10234.000000000002
44 ; 24068.517571420067 ; 7486.6261713214335 ; 776677.4987625679 ; 329411.5515381431 ; 10472.000000000002
45 ; 24280.612996694384 ; 7486.6261713214335 ; 800746.0163339879 ; 336898.1777094645 ; 10710.000000000002
46 ; 24176.003201430292 ; 7486.6261713214335 ; 825026.6293306823 ; 344384.80388078594 ; 10948.000000000002
47 ; 24481.278381656954 ; 7486.6261713214335 ; 849202.6325321126 ; 351871.4300521074 ; 11186.000000000002
48 ; 24701.875073751362 ; 7486.6261713214335 ; 873683.9109137696 ; 359358.0562234288 ; 11424.000000000002
49 ; 24985.65219351491 ; 7486.6261713214335 ; 898385.7859875209 ; 366844.68239475024 ; 11662.000000000002
50 ; 24974.73888531553 ; 7486.6261713214335 ; 923371.4381810358 ; 374331.3085660717 ; 11900.000000000002
51 ; 25187.46530971731 ; 7486.6261713214335 ; 948346.1770663513 ; 381817.9347373931 ; 12138.000000000002
52 ; 25485.972689353857 ; 7486.6261713214335 ; 973533.6423760686 ; 389304.56090871454 ; 12376.000000000002
53 ; 25488.649341038465 ; 7486.6261713214335 ; 999019.6150654225 ; 396791.187080036 ; 12614.000000000002
54 ; 25757.71263877392 ; 7486.6261713214335 ; 1024508.2644064609 ; 404277.8132513574 ; 12852.000000000002
55 ; 25674.00396937084 ; 7486.6261713214335 ; 1050265.9770452348 ; 411764.43942267884 ; 13090.000000000002
56 ; 25900.3822359287 ; 7486.6261713214335 ; 1075939.9810146056 ; 419251.0655940003 ; 13328.000000000002
57 ; 25829.867694637996 ; 7486.6261713214335 ; 1101840.3632505343 ; 426737.6917653217 ; 13566.000000000002
58 ; 26172.61889468714 ; 7486.6261713214335 ; 1127670.2309451723 ; 434224.31793664314 ; 13804.000000000002
59 ; 26286.254520340713 ; 7486.6261713214335 ; 1153842.8498398594 ; 441710.9441079646 ; 14042.000000000002
60 ; 26398.705572095834 ; 7486.6261713214335 ; 1180129.1043602002 ; 449197.570279286 ; 14280.000000000002
61 ; 26377.652990977735 ; 7486.6261713214335 ; 1206527.8099322962 ; 456684.19645060744 ; 14518.000000000002
62 ; 26772.569795061063 ; 7486.6261713214335 ; 1232905.462923274 ; 464170.8226219289 ; 14756.000000000002
63 ; 26720.347168729346 ; 7486.6261713214335 ; 1259678.032718335 ; 471657.4487932503 ; 14994.000000000002
64 ; 26669.817653458787 ; 7486.6261713214335 ; 1286398.3798870645 ; 479144.07496457174 ; 15232.000000000002
65 ; 27004.74517868443 ; 7486.6261713214335 ; 1313068.1975405233 ; 486630.7011358932 ; 15470.000000000002
66 ; 27106.262746541794 ; 7486.6261713214335 ; 1340072.9427192076 ; 494117.3273072146 ; 15708.000000000002
67 ; 26984.25674860535 ; 7486.6261713214335 ; 1367179.2054657494 ; 501603.95347853604 ; 15946.000000000002
68 ; 26946.817610336308 ; 7486.6261713214335 ; 1394163.4622143547 ; 509090.5796498575 ; 16184.000000000002
69 ; 27102.885094039622 ; 7486.6261713214335 ; 1421110.279824691 ; 516577.2058211789 ; 16422.000000000004
70 ; 27302.43400226687 ; 7486.6261713214335 ; 1448213.1649187305 ; 524063.83199250035 ; 16660.000000000004
71 ; 27198.618512330064 ; 7486.6261713214335 ; 1475515.5989209975 ; 531550.4581638218 ; 16898.000000000004
72 ; 27440.63219386013 ; 7486.6261713214335 ; 1502714.2174333276 ; 539037.0843351432 ; 17136.000000000004
73 ; 27492.76812671301 ; 7486.6261713214335 ; 1530154.8496271877 ; 546523.7105064646 ; 17374.000000000004
74 ; 27477.541267305343 ; 7486.6261713214335 ; 1557647.6177539008 ; 554010.336677786 ; 17612.000000000004
75 ; 27448.847239208193 ; 7486.6261713214335 ; 1585125.1590212062 ; 561496.9628491073 ; 17850.000000000004
76 ; 27451.69420114933 ; 7486.6261713214335 ; 1612574.0062604144 ; 568983.5890204287 ; 18088.000000000004
77 ; 27675.721338846302 ; 7486.6261713214335 ; 1640025.7004615637 ; 576470.2151917501 ; 18326.000000000004
78 ; 27410.325165501123 ; 7486.6261713214335 ; 1667701.42180041 ; 583956.8413630715 ; 18564.000000000004
79 ; 27663.532986453574 ; 7486.6261713214335 ; 1695111.746965911 ; 591443.4675343928 ; 18802.000000000004
80 ; 27620.389266944778 ; 7486.6261713214335 ; 1722775.2799523645 ; 598930.0937057142 ; 19040.000000000004
81 ; 27508.650637654242 ; 7486.6261713214335 ; 1750395.6692193092 ; 606416.7198770356 ; 19278.000000000004
82 ; 27590.99773810782 ; 7486.6261713214335 ; 1777904.3198569636 ; 613903.346048357 ; 19516.000000000004
83 ; 27699.985959557423 ; 7486.6261713214335 ; 1805495.3175950714 ; 621389.9722196783 ; 19754.000000000004
84 ; 27561.184839550442 ; 7486.6261713214335 ; 1833195.3035546287 ; 628876.5983909997 ; 19992.000000000004
85 ; 27337.54369469917 ; 7486.6261713214335 ; 1860756.4883941791 ; 636363.2245623211 ; 20230.000000000004
86 ; 27522.056373422576 ; 7486.6261713214335 ; 1888094.0320888783 ; 643849.8507336425 ; 20468.000000000004
87 ; 27499.59368928516 ; 7486.6261713214335 ; 1915616.0884623008 ; 651336.4769049638 ; 20706.000000000004
88 ; 27393.257741409077 ; 7486.6261713214335 ; 1943115.682151586 ; 658823.1030762852 ; 20944.000000000004
89 ; 27358.377862849982 ; 7486.6261713214335 ; 1970508.9398929952 ; 666309.7292476066 ; 21182.000000000004
90 ; 27418.918167648004 ; 7486.6261713214335 ; 1997867.3177558451 ; 673796.355418928 ; 21420.000000000004
91 ; 27134.386297924702 ; 7486.6261713214335 ; 2025286.235923493 ; 681282.9815902493 ; 21658.000000000004
92 ; 27306.839167650705 ; 7486.6261713214335 ; 2052420.6222214177 ; 688769.6077615707 ; 21896.000000000004
93 ; 27198.41558807495 ; 7486.6261713214335 ; 2079727.4613890685 ; 696256.2339328921 ; 22134.000000000004
94 ; 27125.494861873955 ; 7486.6261713214335 ; 2106925.8769771433 ; 703742.8601042135 ; 22372.000000000004
95 ; 27123.576915707396 ; 7486.6261713214335 ; 2134051.371839017 ; 711229.4862755348 ; 22610.000000000004
96 ; 27056.147519315055 ; 7486.6261713214335 ; 2161174.9487547246 ; 718716.1124468562 ; 22848.000000000004
97 ; 27035.10573155221 ; 7486.6261713214335 ; 2188231.0962740397 ; 726202.7386181776 ; 23086.000000000004
98 ; 26902.05584417974 ; 7486.6261713214335 ; 2215266.2020055917 ; 733689.364789499 ; 23324.000000000004
99 ; 26542.90509214918 ; 7486.6261713214335 ; 2242168.2578497715 ; 741175.9909608203 ; 23562.000000000004
100 ; 26693.834601223854 ; 7486.6261713214335 ; 2268711.1629419206 ; 748662.6171321417 ; 23800.000000000004
101 ; 26420.87879566688 ; 7486.6261713214335 ; 2295404.9975431445 ; 756149.2433034631 ; 24038.000000000004
102 ; 26458.81194526082 ; 7486.6261713214335 ; 2321825.8763388116 ; 763635.8694747845 ; 24276.000000000004
103 ; 26286.43950427577 ; 7486.6261713214335 ; 2348284.6882840726 ; 771122.4956461058 ; 24514.000000000004
104 ; 26154.4901773383 ; 7486.6261713214335 ; 2374571.127788348 ; 778609.1218174272 ; 24752.000000000004
105 ; 26065.087686870895 ; 7486.6261713214335 ; 2400725.6179656866 ; 786095.7479887486 ; 24990.000000000004
106 ; 25769.52765140743 ; 7486.6261713214335 ; 2426790.7056525573 ; 793582.37416007 ; 25228.000000000004
107 ; 25801.104604293538 ; 7486.6261713214335 ; 2452560.2333039646 ; 801069.0003313913 ; 25466.000000000004
108 ; 25503.376200305047 ; 7486.6261713214335 ; 2478361.337908258 ; 808555.6265027127 ; 25704.000000000004
109 ; 25595.223518842995 ; 7486.6261713214335 ; 2503864.714108563 ; 816042.2526740341 ; 25942.000000000004
110 ; 25373.431222131996 ; 7486.6261713214335 ; 2529459.937627406 ; 823528.8788453555 ; 26180.000000000004
111 ; 25342.929082231854 ; 7486.6261713214335 ; 2554833.368849538 ; 831015.5050166768 ; 26418.000000000004
112 ; 25014.476759420286 ; 7486.6261713214335 ; 2580176.29793177 ; 838502.1311879982 ; 26656.000000000004
113 ; 24727.425780537797 ; 7486.6261713214335 ; 2605190.77469119 ; 845988.7573593196 ; 26894.000000000004
114 ; 24609.991345528055 ; 7486.6261713214335 ; 2629918.200471728 ; 853475.383530641 ; 27132.000000000004
115 ; 24420.0261381372 ; 7486.6261713214335 ; 2654528.191817256 ; 860962.0097019623 ; 27370.000000000004
116 ; 24303.094033012403 ; 7486.6261713214335 ; 2678948.2179553933 ; 868448.6358732837 ; 27608.000000000004
117 ; 23888.616506431023 ; 7486.6261713214335 ; 2703251.311988406 ; 875935.2620446051 ; 27846.000000000004
118 ; 23866.782563316414 ; 7486.6261713214335 ; 2727139.928494837 ; 883421.8882159265 ; 28084.000000000004
119 ; 23538.003319970016 ; 7486.6261713214335 ; 2751006.711058154 ; 890908.5143872479 ; 28322.000000000004
120 ; 23169.531462918316 ; 7486.6261713214335 ; 2774544.7143781236 ; 898395.1405585692 ; 28560.000000000004
121 ; 23129.225930311717 ; 7486.6261713214335 ; 2797714.245841042 ; 905881.7667298906 ; 28798.000000000004
122 ; 22970.81889892864 ; 7486.6261713214335 ; 2820843.471771354 ; 913368.392901212 ; 29036.000000000004
123 ; 22654.150404319997 ; 7486.6261713214335 ; 2843814.2906702827 ; 920855.0190725334 ; 29274.000000000004
124 ; 22783.433176309038 ; 7486.6261713214335 ; 2866468.441074603 ; 928341.6452438547 ; 29512.000000000004
125 ; 22212.544796823782 ; 7486.6261713214335 ; 2889251.8742509116 ; 935828.2714151761 ; 29750.000000000004
126 ; 21887.328011362304 ; 7486.6261713214335 ; 2911464.4190477356 ; 943314.8975864975 ; 29988.000000000004
127 ; 21986.999421746386 ; 7486.6261713214335 ; 2933351.747059098 ; 950801.5237578189 ; 30226.000000000004
128 ; 21316.85856510709 ; 7486.6261713214335 ; 2955338.7464808444 ; 958288.1499291402 ; 30464.000000000004
129 ; 21339.52104025374 ; 7486.6261713214335 ; 2976655.6050459514 ; 965774.7761004616 ; 30702.000000000004
130 ; 21171.604364147333 ; 7486.6261713214335 ; 2997995.1260862052 ; 973261.402271783 ; 30940.000000000004
131 ; 20758.329474095124 ; 7486.6261713214335 ; 3019166.7304503527 ; 980748.0284431044 ; 31178.000000000004
132 ; 20511.702402292947 ; 7486.6261713214335 ; 3039925.059924448 ; 988234.6546144257 ; 31416.000000000004
133 ; 20114.8114733452 ; 7486.6261713214335 ; 3060436.7623267407 ; 995721.2807857471 ; 31654.000000000004
134 ; 19792.875202082763 ; 7486.6261713214335 ; 3080551.573800086 ; 1003207.9069570685 ; 31892.000000000004
135 ; 19818.829789152 ; 7486.6261713214335 ; 3100344.4490021686 ; 1010694.5331283899 ; 32130.000000000004
136 ; 19214.24893527481 ; 7486.6261713214335 ; 3120163.2787913205 ; 1018181.1592997112 ; 32368.000000000004
137 ; 18947.62599248665 ; 7486.6261713214335 ; 3139377.5277265953 ; 1025667.7854710326 ; 32606.000000000004
138 ; 18657.3462149625 ; 7486.6261713214335 ; 3158325.153719082 ; 1033154.411642354 ; 32844.00000000001
139 ; 18272.67390881129 ; 7486.6261713214335 ; 3176982.4999340447 ; 1040641.0378136754 ; 33082.00000000001
140 ; 17948.33937016372 ; 7486.6261713214335 ; 3195255.1738428557 ; 1048127.6639849967 ; 33320.00000000001
141 ; 17723.56904407017 ; 7486.6261713214335 ; 3213203.5132130194 ; 1055614.290156318 ; 33558.00000000001
142 ; 17302.955523071698 ; 7486.6261713214335 ; 3230927.0822570897 ; 1063100.9163276395 ; 33796.00000000001
143 ; 17118.18054114039 ; 7486.6261713214335 ; 3248230.0377801615 ; 1070587.5424989609 ; 34034.00000000001
144 ; 16814.159318419017 ; 7486.6261713214335 ; 3265348.218321302 ; 1078074.1686702822 ; 34272.00000000001
145 ; 16569.517524382823 ; 7486.6261713214335 ; 3282162.377639721 ; 1085560.7948416036 ; 34510.00000000001
146 ; 16668.820302663502 ; 7486.6261713214335 ; 3298731.895164104 ; 1093047.421012925 ; 34748.00000000001
147 ; 16361.235219570952 ; 7486.6261713214335 ; 3315400.7154667675 ; 1100534.0471842464 ; 34986.00000000001
148 ; 16599.400759228858 ; 7486.6261713214335 ; 3331761.9506863384 ; 1108020.6733555677 ; 35224.00000000001
149 ; 16090.11114337643 ; 7486.6261713214335 ; 3348361.3514455673 ; 1115507.299526889 ; 35462.00000000001
150 ; 15997.379023758103 ; 7486.6261713214335 ; 3364451.4625889435 ; 1122993.9256982105 ; 35700.00000000001
151 ; 16041.119504804738 ; 7486.6261713214335 ; 3380448.841612702 ; 1130480.5518695319 ; 35938.00000000001
152 ; 15704.265591959214 ; 7486.6261713214335 ; 3396489.9611175065 ; 1137967.1780408532 ; 36176.00000000001
153 ; 15684.611607475064 ; 7486.6261713214335 ; 3412194.2267094655 ; 1145453.8042121746 ; 36414.00000000001
154 ; 15536.903354109567 ; 7486.6261713214335 ; 3427878.8383169407 ; 1152940.430383496 ; 36652.00000000001
155 ; 15568.138984029752 ; 7486.6261713214335 ; 3443415.7416710504 ; 1160427.0565548174 ; 36890.00000000001
156 ; 15252.086580867284 ; 7486.6261713214335 ; 3458983.88065508 ; 1167913.6827261387 ; 37128.00000000001
157 ; 15191.005407962817 ; 7486.6261713214335 ; 3474235.9672359475 ; 1175400.30889746 ; 37366.00000000001
158 ; 15183.066950988881 ; 7486.6261713214335 ; 3489426.9726439104 ; 1182886.9350687815 ; 37604.00000000001
159 ; 14982.567923903458 ; 7486.6261713214335 ; 3504610.0395948994 ; 1190373.5612401029 ; 37842.00000000001
160 ; 14679.827698646417 ; 7486.6261713214335 ; 3519592.607518803 ; 1197860.1874114242 ; 38080.00000000001
161 ; 14660.545016497981 ; 7486.6261713214335 ; 3534272.4352174494 ; 1205346.8135827456 ; 38318.00000000001
162 ; 14725.910889722756 ; 7486.6261713214335 ; 3548932.9802339473 ; 1212833.439754067 ; 38556.00000000001
163 ; 14262.138204382587 ; 7486.6261713214335 ; 3563658.89112367 ; 1220320.0659253884 ; 38794.00000000001
164 ; 14302.124091338752 ; 7486.6261713214335 ; 3577921.029328053 ; 1227806.6920967097 ; 39032.00000000001
165 ; 14136.42211104323 ; 7486.6261713214335 ; 3592223.1534193917 ; 1235293.318268031 ; 39270.00000000001
166 ; 13896.429284503307 ; 7486.6261713214335 ; 3606359.575530435 ; 1242779.9444393525 ; 39508.00000000001
167 ; 13916.3890017341 ; 7486.6261713214335 ; 3620256.004814938 ; 1250266.5706106739 ; 39746.00000000001
168 ; 13698.965042749032 ; 7486.6261713214335 ; 3634172.3938166723 ; 1257753.1967819952 ; 39984.00000000001
169 ; 13511.543010744837 ; 7486.6261713214335 ; 3647871.358859421 ; 1265239.8229533166 ; 40222.00000000001
170 ; 13549.963057489822 ; 7486.6261713214335 ; 3661382.901870166 ; 1272726.449124638 ; 40460.00000000001
171 ; 13250.51948775266 ; 7486.6261713214335 ; 3674932.8649276556 ; 1280213.0752959594 ; 40698.00000000001
172 ; 13117.597790901911 ; 7486.6261713214335 ; 3688183.384415408 ; 1287699.7014672807 ; 40936.00000000001
173 ; 13120.844581245154 ; 7486.6261713214335 ; 3701300.98220631 ; 1295186.3276386021 ; 41174.00000000001
174 ; 13207.96433573636 ; 7486.6261713214335 ; 3714421.826787555 ; 1302672.9538099235 ; 41412.00000000001
175 ; 12993.430757390603 ; 7486.6261713214335 ; 3727629.7911232915 ; 1310159.5799812449 ; 41650.00000000001
176 ; 13112.096707398476 ; 7486.6261713214335 ; 3740623.2218806823 ; 1317646.2061525662 ; 41888.00000000001
177 ; 13088.458641076992 ; 7486.6261713214335 ; 3753735.318588081 ; 1325132.8323238876 ; 42126.00000000001
178 ; 13190.913319992096 ; 7486.6261713214335 ; 3766823.7772291577 ; 1332619.458495209 ; 42364.00000000001
179 ; 13031.324883105162 ; 7486.6261713214335 ; 3780014.6905491496 ; 1340106.0846665304 ; 42602.00000000001
180 ; 13238.06653456865 ; 7486.6261713214335 ; 3793046.015432255 ; 1347592.7108378517 ; 42840.00000000001
181 ; 13145.58535505822 ; 7486.6261713214335 ; 3806284.0819668234 ; 1355079.3370091731 ; 43078.00000000001
182 ; 13226.682168828687 ; 7486.6261713214335 ; 3819429.6673218817 ; 1362565.9631804945 ; 43316.00000000001
183 ; 13481.698586664053 ; 7486.6261713214335 ; 3832656.3494907105 ; 1370052.5893518159 ; 43554.00000000001
184 ; 13438.631969621374 ; 7486.6261713214335 ; 3846138.0480773747 ; 1377539.2155231372 ; 43792.00000000001
