CSV File for the City 1 on Day 213
1 - Minute m 
2 - Power Consumed at minute m 
3 - Power Produced at minute m 
4 - Energy Consumed since the beginning of the day 
5 - Energy Produced since the beginning of the day 
6 - Energy Lost since the beginning of the day on lines starting from the city
 
0 ; 5060.593017375435 ; 3339.0070853446487 ; 0.0 ; 0.0 ; 0.0
1 ; 5717.12343905988 ; 3339.0070853446487 ; 5060.593017375435 ; 3339.0070853446487 ; 238.00000000000003
2 ; 6442.355687674704 ; 3339.0070853446487 ; 10777.716456435315 ; 6678.014170689297 ; 476.00000000000006
3 ; 6979.9127222068255 ; 3339.0070853446487 ; 17220.072144110018 ; 10017.021256033946 ; 714.0000000000001
4 ; 7799.104733268816 ; 3339.0070853446487 ; 24199.984866316845 ; 13356.028341378595 ; 952.0000000000001
5 ; 8269.460320185755 ; 3339.0070853446487 ; 31999.089599585663 ; 16695.035426723243 ; 1190.0000000000002
6 ; 8873.258728241708 ; 3339.0070853446487 ; 40268.549919771416 ; 20034.042512067892 ; 1428.0000000000002
7 ; 9612.405288125943 ; 3339.0070853446487 ; 49141.808648013124 ; 23373.04959741254 ; 1666.0000000000002
8 ; 10300.141857091678 ; 3339.0070853446487 ; 58754.213936139065 ; 26712.05668275719 ; 1904.0000000000002
9 ; 10704.74381698963 ; 3339.0070853446487 ; 69054.35579323074 ; 30051.063768101838 ; 2142.0000000000005
10 ; 11326.320204711943 ; 3339.0070853446487 ; 79759.09961022038 ; 33390.07085344649 ; 2380.0000000000005
11 ; 11905.457000447634 ; 3339.0070853446487 ; 91085.41981493232 ; 36729.07793879113 ; 2618.0000000000005
12 ; 12487.291279121746 ; 3339.0070853446487 ; 102990.87681537995 ; 40068.085024135784 ; 2856.0000000000005
13 ; 13075.138174167696 ; 3339.0070853446487 ; 115478.16809450169 ; 43407.092109480436 ; 3094.0000000000005
14 ; 13639.138042704679 ; 3339.0070853446487 ; 128553.30626866937 ; 46746.09919482509 ; 3332.0000000000005
15 ; 14108.971362163164 ; 3339.0070853446487 ; 142192.44431137404 ; 50085.10628016974 ; 3570.0000000000005
16 ; 14695.086576615926 ; 3339.0070853446487 ; 156301.4156735372 ; 53424.11336551439 ; 3808.0000000000005
17 ; 15319.222821297082 ; 3339.0070853446487 ; 170996.50225015313 ; 56763.120450859045 ; 4046.0000000000005
18 ; 15928.648287727301 ; 3339.0070853446487 ; 186315.72507145023 ; 60102.1275362037 ; 4284.000000000001
19 ; 16328.512108685396 ; 3339.0070853446487 ; 202244.37335917752 ; 63441.13462154835 ; 4522.000000000001
20 ; 16821.633477446267 ; 3339.0070853446487 ; 218572.8854678629 ; 66780.141706893 ; 4760.000000000001
21 ; 17520.172857996346 ; 3339.0070853446487 ; 235394.5189453092 ; 70119.14879223765 ; 4998.000000000001
22 ; 17759.85908261694 ; 3339.0070853446487 ; 252914.69180330553 ; 73458.1558775823 ; 5236.000000000001
23 ; 18260.69954997732 ; 3339.0070853446487 ; 270674.55088592245 ; 76797.16296292696 ; 5474.000000000001
24 ; 18808.672314919888 ; 3339.0070853446487 ; 288935.25043589977 ; 80136.17004827161 ; 5712.000000000001
25 ; 19240.170526920778 ; 3339.0070853446487 ; 307743.92275081965 ; 83475.17713361626 ; 5950.000000000001
26 ; 19692.637607817152 ; 3339.0070853446487 ; 326984.0932777404 ; 86814.18421896092 ; 6188.000000000001
27 ; 20008.64801177486 ; 3339.0070853446487 ; 346676.73088555754 ; 90153.19130430557 ; 6426.000000000001
28 ; 20624.399889898323 ; 3339.0070853446487 ; 366685.3788973324 ; 93492.19838965022 ; 6664.000000000001
29 ; 20869.323395297255 ; 3339.0070853446487 ; 387309.7787872307 ; 96831.20547499487 ; 6902.000000000001
30 ; 21435.784344989257 ; 3339.0070853446487 ; 408179.102182528 ; 100170.21256033953 ; 7140.000000000001
31 ; 21940.592782007072 ; 3339.0070853446487 ; 429614.8865275173 ; 103509.21964568418 ; 7378.000000000001
32 ; 22231.654309171474 ; 3339.0070853446487 ; 451555.47930952435 ; 106848.22673102883 ; 7616.000000000001
33 ; 22727.01239383879 ; 3339.0070853446487 ; 473787.13361869584 ; 110187.23381637348 ; 7854.000000000001
34 ; 23162.789854558505 ; 3339.0070853446487 ; 496514.1460125346 ; 113526.24090171813 ; 8092.000000000001
35 ; 23536.524974519125 ; 3339.0070853446487 ; 519676.93586709315 ; 116865.24798706279 ; 8330.000000000002
36 ; 23748.485119898767 ; 3339.0070853446487 ; 543213.4608416123 ; 120204.25507240744 ; 8568.000000000002
37 ; 24366.992839747265 ; 3339.0070853446487 ; 566961.9459615111 ; 123543.26215775209 ; 8806.000000000002
38 ; 24581.354297516897 ; 3339.0070853446487 ; 591328.9388012583 ; 126882.26924309674 ; 9044.000000000002
39 ; 24919.03991359114 ; 3339.0070853446487 ; 615910.2930987752 ; 130221.2763284414 ; 9282.000000000002
40 ; 25244.48505516305 ; 3339.0070853446487 ; 640829.3330123663 ; 133560.28341378603 ; 9520.000000000002
41 ; 25678.175587818972 ; 3339.0070853446487 ; 666073.8180675294 ; 136899.29049913067 ; 9758.000000000002
42 ; 25927.998485780692 ; 3339.0070853446487 ; 691751.9936553483 ; 140238.2975844753 ; 9996.000000000002
43 ; 26429.459625158506 ; 3339.0070853446487 ; 717679.992141129 ; 143577.30466981995 ; 10234.000000000002
44 ; 26492.822582228237 ; 3339.0070853446487 ; 744109.4517662874 ; 146916.31175516458 ; 10472.000000000002
45 ; 26954.359412901787 ; 3339.0070853446487 ; 770602.2743485157 ; 150255.31884050922 ; 10710.000000000002
46 ; 27392.289399788107 ; 3339.0070853446487 ; 797556.6337614175 ; 153594.32592585386 ; 10948.000000000002
47 ; 27486.012065298415 ; 3339.0070853446487 ; 824948.9231612056 ; 156933.3330111985 ; 11186.000000000002
48 ; 27820.821147381583 ; 3339.0070853446487 ; 852434.935226504 ; 160272.34009654314 ; 11424.000000000002
49 ; 28226.753443545967 ; 3339.0070853446487 ; 880255.7563738856 ; 163611.34718188777 ; 11662.000000000002
50 ; 28311.275485571896 ; 3339.0070853446487 ; 908482.5098174316 ; 166950.3542672324 ; 11900.000000000002
51 ; 28711.596166130235 ; 3339.0070853446487 ; 936793.7853030035 ; 170289.36135257705 ; 12138.000000000002
52 ; 28828.369283724394 ; 3339.0070853446487 ; 965505.3814691338 ; 173628.3684379217 ; 12376.000000000002
53 ; 29009.442447876267 ; 3339.0070853446487 ; 994333.7507528581 ; 176967.37552326632 ; 12614.000000000002
54 ; 29464.87301461749 ; 3339.0070853446487 ; 1023343.1932007344 ; 180306.38260861096 ; 12852.000000000002
55 ; 29633.457097150975 ; 3339.0070853446487 ; 1052808.066215352 ; 183645.3896939556 ; 13090.000000000002
56 ; 29730.631024547998 ; 3339.0070853446487 ; 1082441.523312503 ; 186984.39677930024 ; 13328.000000000002
57 ; 29955.01861368993 ; 3339.0070853446487 ; 1112172.154337051 ; 190323.40386464488 ; 13566.000000000002
58 ; 30278.382209103613 ; 3339.0070853446487 ; 1142127.172950741 ; 193662.4109499895 ; 13804.000000000002
59 ; 30440.25866004794 ; 3339.0070853446487 ; 1172405.5551598445 ; 197001.41803533415 ; 14042.000000000002
60 ; 30503.461221961268 ; 3339.0070853446487 ; 1202845.8138198925 ; 200340.4251206788 ; 14280.000000000002
61 ; 30816.322804077532 ; 3339.0070853446487 ; 1233349.2750418538 ; 203679.43220602343 ; 14518.000000000002
62 ; 30858.183937735364 ; 3339.0070853446487 ; 1264165.5978459313 ; 207018.43929136806 ; 14756.000000000002
63 ; 31094.004735588034 ; 3339.0070853446487 ; 1295023.7817836667 ; 210357.4463767127 ; 14994.000000000002
64 ; 31165.94728408006 ; 3339.0070853446487 ; 1326117.7865192548 ; 213696.45346205734 ; 15232.000000000002
65 ; 31474.909817352665 ; 3339.0070853446487 ; 1357283.7338033349 ; 217035.46054740198 ; 15470.000000000002
66 ; 31616.801576164053 ; 3339.0070853446487 ; 1388758.6436206875 ; 220374.46763274661 ; 15708.000000000002
67 ; 31442.04648676728 ; 3339.0070853446487 ; 1420375.4451968516 ; 223713.47471809125 ; 15946.000000000002
68 ; 31750.63908501098 ; 3339.0070853446487 ; 1451817.4916836189 ; 227052.4818034359 ; 16184.000000000002
69 ; 31732.15182563436 ; 3339.0070853446487 ; 1483568.13076863 ; 230391.48888878053 ; 16422.000000000004
70 ; 31881.494424586424 ; 3339.0070853446487 ; 1515300.2825942643 ; 233730.49597412517 ; 16660.000000000004
71 ; 31980.253497646758 ; 3339.0070853446487 ; 1547181.7770188507 ; 237069.5030594698 ; 16898.000000000004
72 ; 32013.533132142144 ; 3339.0070853446487 ; 1579162.0305164973 ; 240408.51014481444 ; 17136.000000000004
73 ; 32302.59124681949 ; 3339.0070853446487 ; 1611175.5636486395 ; 243747.51723015908 ; 17374.000000000004
74 ; 32222.919933754925 ; 3339.0070853446487 ; 1643478.154895459 ; 247086.52431550372 ; 17612.000000000004
75 ; 32161.21545807866 ; 3339.0070853446487 ; 1675701.074829214 ; 250425.53140084835 ; 17850.000000000004
76 ; 32399.700446994837 ; 3339.0070853446487 ; 1707862.2902872926 ; 253764.538486193 ; 18088.000000000004
77 ; 32431.728247915013 ; 3339.0070853446487 ; 1740261.9907342873 ; 257103.54557153763 ; 18326.000000000004
78 ; 32490.522405777887 ; 3339.0070853446487 ; 1772693.7189822022 ; 260442.55265688227 ; 18564.000000000004
79 ; 32540.010403945904 ; 3339.0070853446487 ; 1805184.24138798 ; 263781.5597422269 ; 18802.000000000004
80 ; 32691.384126419074 ; 3339.0070853446487 ; 1837724.2517919259 ; 267120.56682757154 ; 19040.000000000004
81 ; 32573.08336576919 ; 3339.0070853446487 ; 1870415.6359183448 ; 270459.5739129162 ; 19278.000000000004
82 ; 32401.545678156264 ; 3339.0070853446487 ; 1902988.719284114 ; 273798.5809982608 ; 19516.000000000004
83 ; 32480.356271806635 ; 3339.0070853446487 ; 1935390.2649622702 ; 277137.58808360546 ; 19754.000000000004
84 ; 32424.88415774281 ; 3339.0070853446487 ; 1967870.6212340768 ; 280476.5951689501 ; 19992.000000000004
85 ; 32644.80096127735 ; 3339.0070853446487 ; 2000295.5053918196 ; 283815.60225429473 ; 20230.000000000004
86 ; 32283.88714952043 ; 3339.0070853446487 ; 2032940.306353097 ; 287154.60933963937 ; 20468.000000000004
87 ; 32415.853933877843 ; 3339.0070853446487 ; 2065224.1935026175 ; 290493.616424984 ; 20706.000000000004
88 ; 32415.08827580968 ; 3339.0070853446487 ; 2097640.0474364953 ; 293832.62351032865 ; 20944.000000000004
89 ; 32108.551972529585 ; 3339.0070853446487 ; 2130055.135712305 ; 297171.6305956733 ; 21182.000000000004
90 ; 32064.884205507336 ; 3339.0070853446487 ; 2162163.6876848345 ; 300510.6376810179 ; 21420.000000000004
91 ; 32057.38526094789 ; 3339.0070853446487 ; 2194228.5718903416 ; 303849.64476636256 ; 21658.000000000004
92 ; 32142.329726178767 ; 3339.0070853446487 ; 2226285.9571512896 ; 307188.6518517072 ; 21896.000000000004
93 ; 32096.456181495214 ; 3339.0070853446487 ; 2258428.286877468 ; 310527.65893705183 ; 22134.000000000004
94 ; 31943.600569737275 ; 3339.0070853446487 ; 2290524.743058963 ; 313866.6660223965 ; 22372.000000000004
95 ; 31697.583576958954 ; 3339.0070853446487 ; 2322468.3436287004 ; 317205.6731077411 ; 22610.000000000004
96 ; 31750.78827344547 ; 3339.0070853446487 ; 2354165.9272056594 ; 320544.68019308575 ; 22848.000000000004
97 ; 31535.131075010344 ; 3339.0070853446487 ; 2385916.715479105 ; 323883.6872784304 ; 23086.000000000004
98 ; 31576.66501304469 ; 3339.0070853446487 ; 2417451.846554115 ; 327222.694363775 ; 23324.000000000004
99 ; 31629.30325662016 ; 3339.0070853446487 ; 2449028.5115671596 ; 330561.70144911966 ; 23562.000000000004
100 ; 31185.23152719293 ; 3339.0070853446487 ; 2480657.8148237797 ; 333900.7085344643 ; 23800.000000000004
101 ; 31202.555768984967 ; 3339.0070853446487 ; 2511843.0463509727 ; 337239.71561980894 ; 24038.000000000004
102 ; 31010.22869794169 ; 3339.0070853446487 ; 2543045.6021199576 ; 340578.7227051536 ; 24276.000000000004
103 ; 30730.565577966536 ; 3339.0070853446487 ; 2574055.830817899 ; 343917.7297904982 ; 24514.000000000004
104 ; 30397.13485645876 ; 3339.0070853446487 ; 2604786.396395866 ; 347256.73687584285 ; 24752.000000000004
105 ; 30346.605639662845 ; 3339.0070853446487 ; 2635183.5312523246 ; 350595.7439611875 ; 24990.000000000004
106 ; 30106.546186484164 ; 3339.0070853446487 ; 2665530.1368919876 ; 353934.7510465321 ; 25228.000000000004
107 ; 30044.202805522047 ; 3339.0070853446487 ; 2695636.6830784716 ; 357273.75813187676 ; 25466.000000000004
108 ; 29852.710962508732 ; 3339.0070853446487 ; 2725680.8858839935 ; 360612.7652172214 ; 25704.000000000004
109 ; 29515.668198836924 ; 3339.0070853446487 ; 2755533.5968465023 ; 363951.77230256604 ; 25942.000000000004
110 ; 29269.248522357164 ; 3339.0070853446487 ; 2785049.2650453392 ; 367290.7793879107 ; 26180.000000000004
111 ; 29062.348935290844 ; 3339.0070853446487 ; 2814318.5135676963 ; 370629.7864732553 ; 26418.000000000004
112 ; 28957.90927779585 ; 3339.0070853446487 ; 2843380.862502987 ; 373968.79355859995 ; 26656.000000000004
113 ; 28843.06539737907 ; 3339.0070853446487 ; 2872338.771780783 ; 377307.8006439446 ; 26894.000000000004
114 ; 28462.95947141768 ; 3339.0070853446487 ; 2901181.837178162 ; 380646.8077292892 ; 27132.000000000004
115 ; 28105.8502280257 ; 3339.0070853446487 ; 2929644.7966495794 ; 383985.81481463386 ; 27370.000000000004
116 ; 27947.875756102363 ; 3339.0070853446487 ; 2957750.646877605 ; 387324.8218999785 ; 27608.000000000004
117 ; 27671.792259525893 ; 3339.0070853446487 ; 2985698.522633707 ; 390663.82898532314 ; 27846.000000000004
118 ; 27450.87127268289 ; 3339.0070853446487 ; 3013370.314893233 ; 394002.8360706678 ; 28084.000000000004
119 ; 26974.18607433226 ; 3339.0070853446487 ; 3040821.186165916 ; 397341.8431560124 ; 28322.000000000004
120 ; 26463.99148627138 ; 3339.0070853446487 ; 3067795.372240248 ; 400680.85024135705 ; 28560.000000000004
121 ; 26212.79631172138 ; 3339.0070853446487 ; 3094259.3637265195 ; 404019.8573267017 ; 28798.000000000004
122 ; 25989.73013743168 ; 3339.0070853446487 ; 3120472.1600382407 ; 407358.8644120463 ; 29036.000000000004
123 ; 25587.3244394795 ; 3339.0070853446487 ; 3146461.8901756722 ; 410697.87149739097 ; 29274.000000000004
124 ; 25429.563409404764 ; 3339.0070853446487 ; 3172049.2146151518 ; 414036.8785827356 ; 29512.000000000004
125 ; 25110.500780542247 ; 3339.0070853446487 ; 3197478.7780245566 ; 417375.88566808024 ; 29750.000000000004
126 ; 24665.058334679623 ; 3339.0070853446487 ; 3222589.278805099 ; 420714.8927534249 ; 29988.000000000004
127 ; 24500.09391819016 ; 3339.0070853446487 ; 3247254.337139779 ; 424053.8998387695 ; 30226.000000000004
128 ; 24153.098523676155 ; 3339.0070853446487 ; 3271754.431057969 ; 427392.90692411416 ; 30464.000000000004
129 ; 23629.491844357493 ; 3339.0070853446487 ; 3295907.529581645 ; 430731.9140094588 ; 30702.000000000004
130 ; 23236.484204786968 ; 3339.0070853446487 ; 3319537.0214260025 ; 434070.92109480343 ; 30940.000000000004
131 ; 22937.29990025589 ; 3339.0070853446487 ; 3342773.5056307893 ; 437409.92818014807 ; 31178.000000000004
132 ; 22532.941218742126 ; 3339.0070853446487 ; 3365710.8055310454 ; 440748.9352654927 ; 31416.000000000004
133 ; 21834.571015332363 ; 3339.0070853446487 ; 3388243.7467497876 ; 444087.94235083734 ; 31654.000000000004
134 ; 21480.440590174956 ; 3339.0070853446487 ; 3410078.31776512 ; 447426.949436182 ; 31892.000000000004
135 ; 21296.232949655023 ; 3339.0070853446487 ; 3431558.758355295 ; 450765.9565215266 ; 32130.000000000004
136 ; 20750.95824613351 ; 3339.0070853446487 ; 3452854.99130495 ; 454104.96360687126 ; 32368.000000000004
137 ; 20352.368732699688 ; 3339.0070853446487 ; 3473605.949551083 ; 457443.9706922159 ; 32606.000000000004
138 ; 19785.45554084199 ; 3339.0070853446487 ; 3493958.318283783 ; 460782.97777756053 ; 32844.00000000001
139 ; 19385.756788505667 ; 3339.0070853446487 ; 3513743.7738246247 ; 464121.98486290517 ; 33082.00000000001
140 ; 18821.448016642065 ; 3339.0070853446487 ; 3533129.5306131304 ; 467460.9919482498 ; 33320.00000000001
141 ; 18590.860885730577 ; 3339.0070853446487 ; 3551950.9786297726 ; 470799.99903359445 ; 33558.00000000001
142 ; 17894.525042891062 ; 3339.0070853446487 ; 3570541.839515503 ; 474139.0061189391 ; 33796.00000000001
143 ; 17395.239079101335 ; 3339.0070853446487 ; 3588436.364558394 ; 477478.0132042837 ; 34034.00000000001
144 ; 17056.178463195567 ; 3339.0070853446487 ; 3605831.6036374955 ; 480817.02028962836 ; 34272.00000000001
145 ; 16946.96227630504 ; 3339.0070853446487 ; 3622887.782100691 ; 484156.027374973 ; 34510.00000000001
146 ; 16751.749331396866 ; 3339.0070853446487 ; 3639834.744376996 ; 487495.03446031763 ; 34748.00000000001
147 ; 16462.934736395273 ; 3339.0070853446487 ; 3656586.493708393 ; 490834.0415456623 ; 34986.00000000001
148 ; 16286.612630829797 ; 3339.0070853446487 ; 3673049.4284447883 ; 494173.0486310069 ; 35224.00000000001
149 ; 16254.336481895976 ; 3339.0070853446487 ; 3689336.041075618 ; 497512.05571635155 ; 35462.00000000001
150 ; 16228.739344453816 ; 3339.0070853446487 ; 3705590.377557514 ; 500851.0628016962 ; 35700.00000000001
151 ; 16139.92506488525 ; 3339.0070853446487 ; 3721819.1169019677 ; 504190.0698870408 ; 35938.00000000001
152 ; 15753.084316919249 ; 3339.0070853446487 ; 3737959.0419668527 ; 507529.07697238546 ; 36176.00000000001
153 ; 15800.76019300872 ; 3339.0070853446487 ; 3753712.126283772 ; 510868.0840577301 ; 36414.00000000001
154 ; 15640.711822006151 ; 3339.0070853446487 ; 3769512.8864767808 ; 514207.09114307474 ; 36652.00000000001
155 ; 15446.486302874984 ; 3339.0070853446487 ; 3785153.5982987867 ; 517546.0982284194 ; 36890.00000000001
156 ; 15271.551190198941 ; 3339.0070853446487 ; 3800600.0846016617 ; 520885.105313764 ; 37128.00000000001
157 ; 14991.264864292618 ; 3339.0070853446487 ; 3815871.6357918605 ; 524224.11239910865 ; 37366.00000000001
158 ; 14815.611145546121 ; 3339.0070853446487 ; 3830862.900656153 ; 527563.1194844533 ; 37604.00000000001
159 ; 14847.29727422223 ; 3339.0070853446487 ; 3845678.511801699 ; 530902.126569798 ; 37842.00000000001
160 ; 14711.442842270251 ; 3339.0070853446487 ; 3860525.8090759213 ; 534241.1336551426 ; 38080.00000000001
161 ; 14329.608704072436 ; 3339.0070853446487 ; 3875237.2519181916 ; 537580.1407404873 ; 38318.00000000001
162 ; 14105.092027059714 ; 3339.0070853446487 ; 3889566.860622264 ; 540919.1478258319 ; 38556.00000000001
163 ; 14126.580846039767 ; 3339.0070853446487 ; 3903671.9526493237 ; 544258.1549111765 ; 38794.00000000001
164 ; 13844.11952169408 ; 3339.0070853446487 ; 3917798.5334953633 ; 547597.1619965212 ; 39032.00000000001
165 ; 13744.677279678508 ; 3339.0070853446487 ; 3931642.6530170576 ; 550936.1690818658 ; 39270.00000000001
166 ; 13325.348043062042 ; 3339.0070853446487 ; 3945387.330296736 ; 554275.1761672104 ; 39508.00000000001
167 ; 13142.451282531018 ; 3339.0070853446487 ; 3958712.6783397985 ; 557614.1832525551 ; 39746.00000000001
168 ; 13009.444761633022 ; 3339.0070853446487 ; 3971855.1296223295 ; 560953.1903378997 ; 39984.00000000001
169 ; 12942.245963882206 ; 3339.0070853446487 ; 3984864.5743839624 ; 564292.1974232444 ; 40222.00000000001
170 ; 12578.232427936848 ; 3339.0070853446487 ; 3997806.8203478446 ; 567631.204508589 ; 40460.00000000001
171 ; 12488.744750203086 ; 3339.0070853446487 ; 4010385.0527757816 ; 570970.2115939336 ; 40698.00000000001
172 ; 12206.504873543625 ; 3339.0070853446487 ; 4022873.7975259847 ; 574309.2186792783 ; 40936.00000000001
173 ; 12024.692646693384 ; 3339.0070853446487 ; 4035080.302399528 ; 577648.2257646229 ; 41174.00000000001
174 ; 12107.264036158425 ; 3339.0070853446487 ; 4047104.9950462217 ; 580987.2328499675 ; 41412.00000000001
175 ; 12113.99027428268 ; 3339.0070853446487 ; 4059212.25908238 ; 584326.2399353122 ; 41650.00000000001
176 ; 12304.08746961528 ; 3339.0070853446487 ; 4071326.249356663 ; 587665.2470206568 ; 41888.00000000001
177 ; 12358.660952801292 ; 3339.0070853446487 ; 4083630.3368262784 ; 591004.2541060015 ; 42126.00000000001
178 ; 12221.19848055118 ; 3339.0070853446487 ; 4095988.9977790797 ; 594343.2611913461 ; 42364.00000000001
179 ; 12253.955697952406 ; 3339.0070853446487 ; 4108210.196259631 ; 597682.2682766907 ; 42602.00000000001
180 ; 12310.009640906641 ; 3339.0070853446487 ; 4120464.151957583 ; 601021.2753620354 ; 42840.00000000001
181 ; 12376.368789106247 ; 3339.0070853446487 ; 4132774.1615984896 ; 604360.28244738 ; 43078.00000000001
182 ; 12331.889094350148 ; 3339.0070853446487 ; 4145150.5303875958 ; 607699.2895327247 ; 43316.00000000001
183 ; 12406.540454883962 ; 3339.0070853446487 ; 4157482.4194819457 ; 611038.2966180693 ; 43554.00000000001
184 ; 12429.026607587557 ; 3339.0070853446487 ; 4169888.9599368297 ; 614377.3037034139 ; 43792.00000000001
