CSV File for the City 3 on Day 182
1 - Minute m 
2 - Power Consumed at minute m 
3 - Power Produced at minute m 
4 - Energy Consumed since the beginning of the day 
5 - Energy Produced since the beginning of the day 
6 - Energy Lost since the beginning of the day on lines starting from the city
 
0 ; 4570.734123706415 ; 79588.95572094333 ; 0.0 ; 0.0 ; 0.0
1 ; 5062.284656033909 ; 79234.18417793448 ; 4570.734123706415 ; 79588.95572094333 ; 0.0
2 ; 5530.368251880033 ; 78915.3320877419 ; 9633.018779740323 ; 158823.13989887782 ; 0.0
3 ; 5785.598401992535 ; 78632.86082444055 ; 15163.387031620357 ; 237738.47198661973 ; 0.0
4 ; 6244.04411134714 ; 78387.18530574933 ; 20948.985433612892 ; 316371.33281106025 ; 0.0
5 ; 6694.452376499825 ; 78178.67121149533 ; 27193.02954496003 ; 394758.51811680954 ; 0.0
6 ; 7123.414107235609 ; 78007.63247452813 ; 33887.481921459854 ; 472937.18932830484 ; 0.0
7 ; 7550.461113708654 ; 77874.32908335887 ; 41010.89602869546 ; 550944.821802833 ; 0.0
8 ; 7834.030014313492 ; 77778.9652319206 ; 48561.357142404115 ; 628819.1508861919 ; 0.0
9 ; 8228.701674875829 ; 77721.68784696593 ; 56395.38715671761 ; 706598.1161181125 ; 0.0
10 ; 8604.239045938008 ; 77702.58551785417 ; 64624.08883159344 ; 784319.8039650784 ; 0.0
11 ; 9054.287694667348 ; 77721.68784696593 ; 73228.32787753145 ; 862022.3894829326 ; 0.0
12 ; 9482.779089534517 ; 77778.9652319206 ; 82282.6155721988 ; 939744.0773298986 ; 0.0
13 ; 9840.945028535967 ; 77874.32908335887 ; 91765.39466173333 ; 1017523.0425618192 ; 0.0
14 ; 10240.837062598126 ; 78007.63247452807 ; 101606.33969026929 ; 1095397.3716451782 ; 0.0
15 ; 10563.693887857795 ; 78178.67121149533 ; 111847.17675286741 ; 1173405.0041197063 ; 0.0
16 ; 10723.258736614172 ; 78387.18530574933 ; 122410.8706407252 ; 1251583.6753312016 ; 0.0
17 ; 11226.36611951567 ; 78632.86082444049 ; 133134.12937733938 ; 1329970.860636951 ; 0.0
18 ; 11478.050846424992 ; 78915.33208774195 ; 144360.49549685506 ; 1408603.7214613915 ; 0.0
19 ; 11782.55502105151 ; 79234.18417793442 ; 155838.54634328006 ; 1487519.0535491335 ; 0.0
20 ; 12205.09902938209 ; 79588.95572094338 ; 167621.10136433158 ; 1566753.237727068 ; 0.0
21 ; 12509.011557529355 ; 79979.14189824872 ; 179826.20039371366 ; 1646342.1934480113 ; 0.0
22 ; 12792.72139989894 ; 80404.19764537243 ; 192335.21195124302 ; 1726321.33534626 ; 0.0
23 ; 13109.406132489623 ; 80863.54099250738 ; 205127.93335114195 ; 1806725.5329916326 ; 0.0
24 ; 13453.456902739807 ; 81356.55650322392 ; 218237.33948363157 ; 1887589.07398414 ; 0.0
25 ; 13837.508005913713 ; 81882.5987684936 ; 231690.79638637137 ; 1968945.630487364 ; 0.0
26 ; 14005.471553454998 ; 82440.99591538512 ; 245528.3043922851 ; 2050828.2292558576 ; 0.0
27 ; 14216.512763606212 ; 83031.05309258621 ; 259533.77594574008 ; 2133269.225171243 ; 0.0
28 ; 14544.480165209621 ; 83652.05589824202 ; 273750.2887093463 ; 2216300.278263829 ; 0.0
29 ; 14769.117078827883 ; 84303.27371933938 ; 288294.76887455594 ; 2299952.3341620713 ; 0.0
30 ; 15140.40334467676 ; 84983.96295585152 ; 303063.8859533838 ; 2384255.6078814105 ; 0.0
31 ; 15284.223595260155 ; 85693.37010697338 ; 318204.2892980606 ; 2469239.570837262 ; 0.0
32 ; 15626.59251745524 ; 86430.73470089155 ; 333488.51289332076 ; 2554932.9409442353 ; 0.0
33 ; 15903.407922354558 ; 87195.29205354607 ; 349115.105410776 ; 2641363.675645127 ; 0.0
34 ; 16190.792238524915 ; 87986.27584567029 ; 365018.51333313057 ; 2728558.9676986733 ; 0.0
35 ; 16447.125552926464 ; 88802.92051096498 ; 381209.3055716555 ; 2816545.2435443434 ; 0.0
36 ; 16748.70831393506 ; 89644.46343152925 ; 397656.43112458196 ; 2905348.1640553083 ; 0.0
37 ; 16877.53563616748 ; 90510.14693959609 ; 414405.13943851704 ; 2994992.6274868376 ; 0.0
38 ; 17186.202090950927 ; 91399.22012718912 ; 431282.67507468455 ; 3085502.7744264337 ; 0.0
39 ; 17385.808520220322 ; 92310.94046751996 ; 448468.87716563547 ; 3176901.994553623 ; 0.0
40 ; 17550.530206486757 ; 93244.5752537906 ; 465854.6856858558 ; 3269212.935021143 ; 0.0
41 ; 17845.227851017335 ; 94199.40286256865 ; 483405.21589234256 ; 3362457.5102749337 ; 0.0
42 ; 18145.44184958154 ; 95174.71385007956 ; 501250.4437433599 ; 3456656.9131375025 ; 0.0
43 ; 18249.2388230541 ; 96169.81189064524 ; 519395.8855929414 ; 3551831.626987582 ; 0.0
44 ; 18396.28260329983 ; 97184.0145671101 ; 537645.1244159956 ; 3648001.4388782275 ; 0.0
45 ; 18474.10244635685 ; 98216.65402347624 ; 556041.4070192954 ; 3745185.4534453377 ; 0.0
46 ; 18824.93827730164 ; 99267.07749014041 ; 574515.5094656523 ; 3843402.107468814 ; 0.0
47 ; 18923.339679684123 ; 100334.64769212248 ; 593340.4477429539 ; 3942669.1849589543 ; 0.0
48 ; 19313.590618403065 ; 101418.74315052612 ; 612263.787422638 ; 4043003.832651077 ; 0.0
49 ; 19236.86596042629 ; 102518.75838720362 ; 631577.3780410411 ; 4144422.575801603 ; 0.0
50 ; 19457.408555114598 ; 103634.10404223466 ; 650814.2440014674 ; 4246941.334188807 ; 0.0
51 ; 19666.381227183792 ; 104764.20691339145 ; 670271.652556582 ; 4350575.438231042 ; 0.0
52 ; 19823.055174181412 ; 105908.5099262782 ; 689938.0337837657 ; 4455339.645144433 ; 0.0
53 ; 20046.77514473951 ; 107066.47204330639 ; 709761.0889579472 ; 4561248.155070711 ; 0.0
54 ; 20030.57361060284 ; 108237.56811912452 ; 729807.8641026868 ; 4668314.6271140175 ; 0.0
55 ; 20293.611595607796 ; 109421.2887095682 ; 749838.4377132896 ; 4776552.195233142 ; 0.0
56 ; 20450.76264088752 ; 110617.13984064406 ; 770132.0493088975 ; 4885973.48394271 ; 0.0
57 ; 20618.905264845547 ; 111824.64274351916 ; 790582.811949785 ; 4996590.623783354 ; 0.0
58 ; 20624.144140143682 ; 113043.33356096096 ; 811201.7172146306 ; 5108415.266526873 ; 0.0
59 ; 20860.53678140345 ; 114272.76303016835 ; 831825.8613547742 ; 5221458.6000878345 ; 0.0
60 ; 20877.523035647177 ; 115512.49614645205 ; 852686.3981361777 ; 5335731.363118003 ; 0.0
61 ; 21130.039015014187 ; 116762.11181176921 ; 873563.9211718249 ; 5451243.859264455 ; 0.0
62 ; 21194.54696729288 ; 118021.20247169156 ; 894693.9601868391 ; 5568005.971076224 ; 0.0
63 ; 21220.17319740122 ; 119289.37374398849 ; 915888.507154132 ; 5686027.173547915 ; 0.0
64 ; 21432.157520292436 ; 120566.24404164129 ; 937108.6803515332 ; 5805316.547291904 ; 0.0
65 ; 21464.853089679822 ; 121851.44419276452 ; 958540.8378718257 ; 5925882.791333545 ; 0.0
66 ; 21807.378890990705 ; 123144.61705960163 ; 980005.6909615055 ; 6047734.235526309 ; 0.0
67 ; 21736.841235381446 ; 124445.41715847752 ; 1001813.0698524963 ; 6170878.852585911 ; 0.0
68 ; 21717.929324410467 ; 125753.51028233646 ; 1023549.9110878777 ; 6295324.269744389 ; 0.0
69 ; 21684.414519466904 ; 127068.57312725739 ; 1045267.8404122882 ; 6421077.7800267255 ; 0.0
70 ; 21832.059079248127 ; 128390.29292413245 ; 1066952.2549317551 ; 6548146.353153983 ; 0.0
71 ; 21973.835470014135 ; 129718.36707650447 ; 1088784.3140110034 ; 6676536.646078115 ; 0.0
72 ; 21919.638620490467 ; 131052.50280539138 ; 1110758.1494810176 ; 6806255.013154619 ; 0.0
73 ; 21993.89103729481 ; 132392.4168017763 ; 1132677.788101508 ; 6937307.515960011 ; 0.0
74 ; 22077.483423543297 ; 133737.8348873079 ; 1154671.679138803 ; 7069699.932761787 ; 0.0
75 ; 22112.364200309094 ; 135088.49168363897 ; 1176749.1625623463 ; 7203437.7676490955 ; 0.0
76 ; 22210.0326941787 ; 136444.13029072745 ; 1198861.5267626555 ; 7338526.259332734 ; 0.0
77 ; 22267.027665745423 ; 137804.50197433264 ; 1221071.559456834 ; 7474970.389623461 ; 0.0
78 ; 22261.844465254842 ; 139169.36586286192 ; 1243338.5871225796 ; 7612774.891597794 ; 0.0
79 ; 22335.692017682013 ; 140538.48865365147 ; 1265600.4315878344 ; 7751944.257460657 ; 0.0
80 ; 22106.497507248085 ; 141911.6443287089 ; 1287936.1236055163 ; 7892482.746114308 ; 0.0
81 ; 22276.42935643972 ; 143288.6138798908 ; 1310042.6211127643 ; 8034394.390443017 ; 0.0
82 ; 22214.209471897277 ; 144669.1850434473 ; 1332319.050469204 ; 8177683.004322908 ; 0.0
83 ; 22230.833109234147 ; 146053.15204382763 ; 1354533.2599411013 ; 8322352.189366356 ; 0.0
84 ; 22342.304386272757 ; 147440.31534660948 ; 1376764.0930503355 ; 8468405.341410182 ; 0.0
85 ; 22252.897920086678 ; 148830.48142039045 ; 1399106.3974366083 ; 8615845.656756792 ; 0.0
86 ; 22220.556107847882 ; 150223.46250745663 ; 1421359.295356695 ; 8764676.138177183 ; 0.0
87 ; 22337.221474431237 ; 151619.07640302842 ; 1443579.851464543 ; 8914899.600684639 ; 0.0
88 ; 22312.567312507264 ; 153017.14624286885 ; 1465917.0729389742 ; 9066518.677087668 ; 0.0
89 ; 22029.982388087352 ; 154417.50029903027 ; 1488229.6402514814 ; 9219535.823330536 ; 0.0
90 ; 22046.337233369253 ; 155819.97178350567 ; 1510259.6226395688 ; 9373953.323629567 ; 0.0
91 ; 22162.85184320168 ; 157224.39865954875 ; 1532305.959872938 ; 9529773.295413073 ; 0.0
92 ; 21895.851803794358 ; 158630.623460421 ; 1554468.8117161398 ; 9686997.694072623 ; 0.0
93 ; 21921.79739153718 ; 160038.4931153228 ; 1576364.663519934 ; 9845628.317533044 ; 0.0
94 ; 21826.67461216319 ; 161447.8587822678 ; 1598286.4609114712 ; 1.0005666810648367E7 ; 0.0
95 ; 21760.358341204224 ; 162858.575687658 ; 1620113.1355236343 ; 1.0167114669430634E7 ; 0.0
96 ; 21707.152383700923 ; 164270.5029723218 ; 1641873.4938648385 ; 1.0329973245118292E7 ; 0.0
97 ; 21605.326544860913 ; 165683.50354377914 ; 1663580.6462485394 ; 1.0494243748090614E7 ; 0.0
98 ; 21576.819041008377 ; 167097.44393450266 ; 1685185.9727934003 ; 1.0659927251634393E7 ; 0.0
99 ; 21480.143365245644 ; 168512.19416594817 ; 1706762.7918344087 ; 1.0827024695568895E7 ; 0.0
100 ; 21520.475742765644 ; 169927.6276181324 ; 1728242.9351996542 ; 1.0995536889734844E7 ; 0.0
101 ; 21407.42200634689 ; 171343.62090454274 ; 1749763.41094242 ; 1.1165464517352976E7 ; 0.0
102 ; 21223.135840291496 ; 172760.05375216814 ; 1771170.8329487669 ; 1.1336808138257518E7 ; 0.0
103 ; 21150.870947926633 ; 174176.80888644716 ; 1792393.9687890583 ; 1.1509568192009687E7 ; 0.0
104 ; 20950.524385159613 ; 175593.77192093548 ; 1813544.8397369848 ; 1.1683745000896135E7 ; 0.0
105 ; 20824.874574019675 ; 177010.83125150093 ; 1834495.3641221444 ; 1.1859338772817072E7 ; 0.0
106 ; 20783.640638508285 ; 178427.87795486106 ; 1855320.238696164 ; 1.2036349604068572E7 ; 0.0
107 ; 20630.35888959258 ; 179844.80569128421 ; 1876103.8793346724 ; 1.2214777482023433E7 ; 0.0
108 ; 20491.304572213638 ; 181261.51061128135 ; 1896734.238224265 ; 1.2394622287714718E7 ; 0.0
109 ; 20473.8360252196 ; 182677.89126612284 ; 1917225.5427964786 ; 1.2575883798325999E7 ; 0.0
110 ; 20274.59634184216 ; 184093.84852201983 ; 1937699.3788216983 ; 1.2758561689592121E7 ; 0.0
111 ; 19920.5983618323 ; 185509.2854778161 ; 1957973.9751635403 ; 1.2942655538114142E7 ; 0.0
112 ; 19944.892076753757 ; 186924.10738604292 ; 1977894.5735253727 ; 1.3128164823591957E7 ; 0.0
113 ; 19891.61721794117 ; 188338.22157719385 ; 1997839.4656021264 ; 1.3315088930978E7 ; 0.0
114 ; 19607.087158621547 ; 189751.53738708384 ; 2017731.0828200676 ; 1.3503427152555194E7 ; 0.0
115 ; 19256.827904823098 ; 191163.96608716136 ; 2037338.1699786892 ; 1.3693178689942278E7 ; 0.0
116 ; 19244.196060292663 ; 192575.42081764757 ; 2056594.9978835122 ; 1.3884342656029439E7 ; 0.0
117 ; 18942.456522311742 ; 193985.8165233828 ; 2075839.1939438048 ; 1.4076918076847086E7 ; 0.0
118 ; 18957.48757421408 ; 195395.06989226426 ; 2094781.6504661166 ; 1.4270903893370468E7 ; 0.0
119 ; 18695.544920963035 ; 196803.09929616514 ; 2113739.1380403307 ; 1.4466298963262733E7 ; 0.0
120 ; 18355.076315381186 ; 198209.8247342285 ; 2132434.682961294 ; 1.4663102062558899E7 ; 0.0
121 ; 18441.388761229395 ; 199615.1677784353 ; 2150789.759276675 ; 1.4861311887293126E7 ; 0.0
122 ; 18168.213600266823 ; 201019.05152134952 ; 2169231.1480379044 ; 1.5060927055071563E7 ; 0.0
123 ; 17867.10388523998 ; 202421.40052594672 ; 2187399.361638171 ; 1.5261946106592912E7 ; 0.0
124 ; 17658.032891742 ; 203822.14077743876 ; 2205266.465523411 ; 1.5464367507118858E7 ; 0.0
125 ; 17309.169992913496 ; 205221.1996370084 ; 2222924.498415153 ; 1.5668189647896297E7 ; 0.0
126 ; 17334.978180208025 ; 206618.50579737342 ; 2240233.6684080665 ; 1.5873410847533306E7 ; 0.0
127 ; 16901.443322457213 ; 208013.9892401019 ; 2257568.6465882747 ; 1.608002935333068E7 ; 0.0
128 ; 16884.726131864776 ; 209407.58119460568 ; 2274470.089910732 ; 1.6288043342570782E7 ; 0.0
129 ; 16638.847115287284 ; 210799.21409873926 ; 2291354.816042597 ; 1.6497450923765387E7 ; 0.0
130 ; 16318.502355383773 ; 212188.82156093803 ; 2307993.663157884 ; 1.6708250137864126E7 ; 0.0
131 ; 15975.83835637131 ; 213576.33832382952 ; 2324312.1655132677 ; 1.6920438959425066E7 ; 0.0
132 ; 15752.002684347775 ; 214961.70022925653 ; 2340288.0038696392 ; 1.7134015297748893E7 ; 0.0
133 ; 15527.09612062861 ; 216344.8441846531 ; 2356040.006553987 ; 1.734897699797815E7 ; 0.0
134 ; 15293.690623780756 ; 217725.7081307157 ; 2371567.1026746156 ; 1.7565321842162803E7 ; 0.0
135 ; 14949.386472597418 ; 219104.23101031617 ; 2386860.7932983963 ; 1.778304755029352E7 ; 0.0
136 ; 14610.493138764705 ; 220480.35273860482 ; 2401810.1797709935 ; 1.8002151781303838E7 ; 0.0
137 ; 14428.89302914329 ; 221854.01417425353 ; 2416420.672909758 ; 1.822263213404244E7 ; 0.0
138 ; 14327.198581845178 ; 223225.15709179247 ; 2430849.565938901 ; 1.8444486148216695E7 ; 0.0
139 ; 13855.929545829018 ; 224593.72415499444 ; 2445176.764520746 ; 1.8667711305308487E7 ; 0.0
140 ; 13602.717601855444 ; 225959.6588912643 ; 2459032.6940665753 ; 1.889230502946348E7 ; 0.0
141 ; 13223.485712265541 ; 227322.90566699117 ; 2472635.4116684305 ; 1.9118264688354746E7 ; 0.0
142 ; 13019.296715466902 ; 228683.40966382553 ; 2485858.897380696 ; 1.9345587594021738E7 ; 0.0
143 ; 12579.192295667168 ; 230041.1168558421 ; 2498878.194096163 ; 1.9574271003685564E7 ; 0.0
144 ; 12255.47545617237 ; 231395.97398755237 ; 2511457.38639183 ; 1.9804312120541405E7 ; 0.0
145 ; 12205.362739769293 ; 232747.9285527339 ; 2523712.8618480028 ; 2.003570809452896E7 ; 0.0
146 ; 11985.130813898311 ; 234096.92877404112 ; 2535918.224587772 ; 2.0268456023081694E7 ; 0.0
147 ; 12032.044961146512 ; 235442.92358336764 ; 2547903.3554016706 ; 2.0502552951855734E7 ; 0.0
148 ; 11980.981944510479 ; 236785.86260292964 ; 2559935.400362817 ; 2.07379958754391E7 ; 0.0
149 ; 11925.364611611956 ; 238125.69612704078 ; 2571916.3823073274 ; 2.097478173804203E7 ; 0.0
150 ; 11727.437345045677 ; 239462.37510455158 ; 2583841.7469189395 ; 2.1212907434169073E7 ; 0.0
151 ; 11690.982197790083 ; 240795.8511219267 ; 2595569.184263985 ; 2.1452369809273623E7 ; 0.0
152 ; 11765.013373531694 ; 242126.07638693528 ; 2607260.166461775 ; 2.169316566039555E7 ; 0.0
153 ; 11566.28119504317 ; 243453.0037129286 ; 2619025.179835307 ; 2.1935291736782487E7 ; 0.0
154 ; 11451.914116860817 ; 244776.58650368376 ; 2630591.46103035 ; 2.2178744740495417E7 ; 0.0
155 ; 11106.480633987709 ; 246096.7787387905 ; 2642043.375147211 ; 2.24235213269991E7 ; 0.0
156 ; 11242.466448001682 ; 247413.5349595593 ; 2653149.8557811985 ; 2.266961810573789E7 ; 0.0
157 ; 11107.026419546384 ; 248726.81025543093 ; 2664392.3222292 ; 2.291703164069745E7 ; 0.0
158 ; 10898.628069434415 ; 250036.56025086838 ; 2675499.3486487465 ; 2.316575845095288E7 ; 0.0
159 ; 11003.828619433782 ; 251342.74109271218 ; 2686397.976718181 ; 2.3415795011203747E7 ; 0.0
160 ; 10728.17773842775 ; 252645.30943798053 ; 2697401.8053376144 ; 2.366713775229646E7 ; 0.0
161 ; 10733.671424105742 ; 253944.22244209863 ; 2708129.983076042 ; 2.3919783061734438E7 ; 0.0
162 ; 10417.836967363919 ; 255239.4377475394 ; 2718863.654500148 ; 2.4173727284176536E7 ; 0.0
163 ; 10250.645461210119 ; 256530.91347286082 ; 2729281.4914675117 ; 2.4428966721924074E7 ; 0.0
164 ; 10289.933647082964 ; 257818.60820212428 ; 2739532.136928722 ; 2.4685497635396935E7 ; 0.0
165 ; 10126.59463751743 ; 259102.48097467993 ; 2749822.070575805 ; 2.494331624359906E7 ; 0.0
166 ; 10053.287226738128 ; 260382.4912753049 ; 2759948.6652133223 ; 2.5202418724573743E7 ; 0.0
167 ; 9815.690606698461 ; 261658.59902468117 ; 2770001.95244006 ; 2.5462801215849046E7 ; 0.0
168 ; 9808.528000282931 ; 262930.7645702007 ; 2779817.6430467586 ; 2.5724459814873725E7 ; 0.0
169 ; 9510.826237432017 ; 264198.9486770848 ; 2789626.1710470417 ; 2.5987390579443924E7 ; 0.0
170 ; 9468.733666656279 ; 265463.1125198076 ; 2799136.997284474 ; 2.625158952812101E7 ; 0.0
171 ; 9443.640128929888 ; 266723.21767381 ; 2808605.73095113 ; 2.6517052640640818E7 ; 0.0
172 ; 9222.242193516233 ; 267979.2261074967 ; 2818049.37108006 ; 2.6783775858314626E7 ; 0.0
173 ; 8869.22355216141 ; 269231.1001745016 ; 2827271.6132735764 ; 2.7051755084422123E7 ; 0.0
174 ; 9222.684453456422 ; 270478.8026062166 ; 2836140.8368257377 ; 2.7320986184596624E7 ; 0.0
175 ; 9182.182595347103 ; 271722.29650456965 ; 2845363.521279194 ; 2.759146498720284E7 ; 0.0
176 ; 9104.941965349457 ; 272961.54533504666 ; 2854545.703874541 ; 2.786318728370741E7 ; 0.0
177 ; 9270.73441652216 ; 274196.51291994593 ; 2863650.6458398905 ; 2.8136148829042457E7 ; 0.0
178 ; 9247.875218691233 ; 275427.16343185777 ; 2872921.3802564126 ; 2.8410345341962405E7 ; 0.0
179 ; 9220.352239381295 ; 276653.4613873616 ; 2882169.255475104 ; 2.868577250539426E7 ; 0.0
180 ; 9228.657538847438 ; 277875.3716409317 ; 2891389.6077144854 ; 2.8962425966781624E7 ; 0.0
181 ; 9230.292827580557 ; 279092.85937904497 ; 2900618.265253333 ; 2.9240301338422555E7 ; 0.0
182 ; 9526.861093614234 ; 280305.89011448313 ; 2909848.5580809135 ; 2.95193941978016E7 ; 0.0
183 ; 9470.7194694072 ; 281514.42968082277 ; 2919375.4191745277 ; 2.9799700087916084E7 ; 0.0
184 ; 9380.371309096077 ; 282718.4442271062 ; 2928846.138643935 ; 3.0081214517596908E7 ; 0.0
185 ; 9400.501377751443 ; 283917.9002126875 ; 2938226.509953031 ; 3.0363932961824015E7 ; 0.0
186 ; 9492.074987502647 ; 285112.7644022464 ; 2947627.0113307824 ; 3.06478508620367E7 ; 0.0
187 ; 9653.838442571894 ; 286303.00386096555 ; 2957119.086318285 ; 3.093296362643895E7 ; 0.0
188 ; 9388.305749318253 ; 287488.5859498641 ; 2966772.924760857 ; 3.1219266630299915E7 ; 0.0
189 ; 9557.999984797889 ; 288669.4783212839 ; 2976161.230510175 ; 3.150675521624978E7 ; 0.0
190 ; 9585.437692618962 ; 289845.64891452104 ; 2985719.2304949732 ; 3.1795424694571063E7 ; 0.0
191 ; 9597.818429460633 ; 291017.0659515991 ; 2995304.668187592 ; 3.2085270343485583E7 ; 0.0
192 ; 9610.977432098278 ; 292183.69793317904 ; 3004902.486617053 ; 3.2376287409437183E7 ; 0.0
193 ; 9739.166621008093 ; 293345.51363460044 ; 3014513.464049151 ; 3.266847110737036E7 ; 0.0
194 ; 9716.977214813533 ; 294502.4821020507 ; 3024252.630670159 ; 3.296181662100496E7 ; 0.0
195 ; 9685.862979320971 ; 295654.5726488565 ; 3033969.607884973 ; 3.3256319103107013E7 ; 0.0
196 ; 9728.351098979609 ; 296801.7548518947 ; 3043655.4708642936 ; 3.355197367575587E7 ; 0.0
197 ; 9866.633989395743 ; 297943.9985481176 ; 3053383.8219632735 ; 3.3848775430607766E7 ; 0.0
198 ; 9823.555951974231 ; 299081.2738311894 ; 3063250.455952669 ; 3.4146719429155886E7 ; 0.0
199 ; 9716.75583304451 ; 300213.55104823 ; 3073074.0119046434 ; 3.4445800702987075E7 ; 0.0
200 ; 9691.008664280322 ; 301340.8007966623 ; 3082790.767737688 ; 3.47460142540353E7 ; 0.0
201 ; 9903.771369101909 ; 302462.99392115924 ; 3092481.776401968 ; 3.504735505483197E7 ; 0.0
202 ; 9849.19050862962 ; 303580.1015106891 ; 3102385.54777107 ; 3.534981804875313E7 ; 0.0
203 ; 9866.438250174628 ; 304692.09489565284 ; 3112234.7382797 ; 3.5653398150263816E7 ; 0.0
204 ; 9820.775575811747 ; 305798.94564511307 ; 3122101.1765298746 ; 3.595809024515947E7 ; 0.0
205 ; 10019.718146744288 ; 306900.6255641104 ; 3131921.9521056865 ; 3.6263889190804586E7 ; 0.0
206 ; 10059.692351868252 ; 307997.1066910644 ; 3141941.6702524307 ; 3.65707898163687E7 ; 0.0
207 ; 9953.615298196062 ; 309088.36129525653 ; 3152001.362604299 ; 3.687878692305976E7 ; 0.0
208 ; 10086.649436266582 ; 310174.3618743928 ; 3161954.9779024953 ; 3.7187875284355015E7 ; 0.0
209 ; 9964.004230610344 ; 311255.08115224226 ; 3172041.627338762 ; 3.749804964622941E7 ; 0.0
210 ; 10261.56413666372 ; 312330.492076351 ; 3182005.6315693725 ; 3.7809304727381654E7 ; 0.0
211 ; 10178.006507973723 ; 313400.56781582686 ; 3192267.1957060364 ; 3.812163521945801E7 ; 0.0
212 ; 10120.008803541996 ; 314465.28175919404 ; 3202445.20221401 ; 3.843503578727383E7 ; 0.0
