CSV File for the City 2 on Day 178
1 - Minute m 
2 - Power Consumed at minute m 
3 - Power Produced at minute m 
4 - Energy Consumed since the beginning of the day 
5 - Energy Produced since the beginning of the day 
6 - Energy Lost since the beginning of the day on lines starting from the city
 
0 ; 5490.075338588196 ; 32332.503431745816 ; 0.0 ; 0.0 ; 0.0
1 ; 6134.67323499306 ; 32332.503431745816 ; 5490.075338588196 ; 32332.503431745816 ; 0.0
2 ; 6625.756685810098 ; 32332.503431745816 ; 11624.748573581255 ; 64665.00686349163 ; 0.0
3 ; 6981.274260338813 ; 32332.503431745816 ; 18250.505259391353 ; 96997.51029523744 ; 0.0
4 ; 7528.002542460031 ; 32332.503431745816 ; 25231.779519730168 ; 129330.01372698326 ; 0.0
5 ; 7883.464071755542 ; 32332.503431745816 ; 32759.7820621902 ; 161662.51715872908 ; 0.0
6 ; 8390.648198793799 ; 32332.503431745816 ; 40643.246133945744 ; 193995.0205904749 ; 0.0
7 ; 8926.009821551126 ; 32332.503431745816 ; 49033.89433273954 ; 226327.5240222207 ; 0.0
8 ; 9178.485782600907 ; 32332.503431745816 ; 57959.90415429066 ; 258660.0274539665 ; 0.0
9 ; 9624.4819740467 ; 32332.503431745816 ; 67138.38993689157 ; 290992.5308857123 ; 0.0
10 ; 10249.465756490505 ; 32332.503431745816 ; 76762.87191093827 ; 323325.0343174581 ; 0.0
11 ; 10694.357905483372 ; 32332.503431745816 ; 87012.33766742877 ; 355657.5377492039 ; 0.0
12 ; 10927.764239146107 ; 32332.503431745816 ; 97706.69557291214 ; 387990.0411809497 ; 0.0
13 ; 11554.930331530515 ; 32332.503431745816 ; 108634.45981205825 ; 420322.5446126955 ; 0.0
14 ; 11770.963873839244 ; 32332.503431745816 ; 120189.39014358877 ; 452655.0480444413 ; 0.0
15 ; 12178.883633959233 ; 32332.503431745816 ; 131960.354017428 ; 484987.55147618713 ; 0.0
16 ; 12644.162410948249 ; 32332.503431745816 ; 144139.23765138723 ; 517320.05490793294 ; 0.0
17 ; 13069.067589862503 ; 32332.503431745816 ; 156783.40006233548 ; 549652.5583396788 ; 0.0
18 ; 13465.76954969219 ; 32332.503431745816 ; 169852.46765219799 ; 581985.0617714246 ; 0.0
19 ; 13716.153200801707 ; 32332.503431745816 ; 183318.23720189018 ; 614317.5652031704 ; 0.0
20 ; 14139.7816032192 ; 32332.503431745816 ; 197034.39040269188 ; 646650.0686349162 ; 0.0
21 ; 14428.238451885847 ; 32332.503431745816 ; 211174.17200591107 ; 678982.572066662 ; 0.0
22 ; 14782.057934603214 ; 32332.503431745816 ; 225602.4104577969 ; 711315.0754984078 ; 0.0
23 ; 15264.399840718235 ; 32332.503431745816 ; 240384.46839240013 ; 743647.5789301536 ; 0.0
24 ; 15724.387094739674 ; 32332.503431745816 ; 255648.86823311835 ; 775980.0823618994 ; 0.0
25 ; 15930.854080846231 ; 32332.503431745816 ; 271373.25532785803 ; 808312.5857936452 ; 0.0
26 ; 16035.900584548315 ; 32332.503431745816 ; 287304.1094087043 ; 840645.089225391 ; 0.0
27 ; 16646.663159356423 ; 32332.503431745816 ; 303340.0099932526 ; 872977.5926571368 ; 0.0
28 ; 16931.236274029266 ; 32332.503431745816 ; 319986.67315260903 ; 905310.0960888827 ; 0.0
29 ; 17268.345549957954 ; 32332.503431745816 ; 336917.9094266383 ; 937642.5995206285 ; 0.0
30 ; 17641.808791946143 ; 32332.503431745816 ; 354186.2549765962 ; 969975.1029523743 ; 0.0
31 ; 17857.075092448766 ; 32332.503431745816 ; 371828.0637685424 ; 1002307.6063841201 ; 0.0
32 ; 18038.135524827307 ; 32332.503431745816 ; 389685.1388609911 ; 1034640.1098158659 ; 0.0
33 ; 18419.8711698993 ; 32332.503431745816 ; 407723.2743858184 ; 1066972.6132476118 ; 0.0
34 ; 18743.56772351424 ; 32332.503431745816 ; 426143.1455557177 ; 1099305.1166793576 ; 0.0
35 ; 19086.11669873303 ; 32332.503431745816 ; 444886.7132792319 ; 1131637.6201111034 ; 0.0
36 ; 19279.24583420957 ; 32332.503431745816 ; 463972.8299779649 ; 1163970.1235428492 ; 0.0
37 ; 19776.20004547775 ; 32332.503431745816 ; 483252.0758121745 ; 1196302.626974595 ; 0.0
38 ; 19801.74936405241 ; 32332.503431745816 ; 503028.27585765225 ; 1228635.1304063408 ; 0.0
39 ; 20204.29308046328 ; 32332.503431745816 ; 522830.0252217047 ; 1260967.6338380866 ; 0.0
40 ; 20459.53852732616 ; 32332.503431745816 ; 543034.3183021679 ; 1293300.1372698324 ; 0.0
41 ; 20910.42797675479 ; 32332.503431745816 ; 563493.8568294941 ; 1325632.6407015782 ; 0.0
42 ; 20830.84055365464 ; 32332.503431745816 ; 584404.284806249 ; 1357965.144133324 ; 0.0
43 ; 20953.283763284642 ; 32332.503431745816 ; 605235.1253599036 ; 1390297.6475650698 ; 0.0
44 ; 21341.278538657545 ; 32332.503431745816 ; 626188.4091231882 ; 1422630.1509968156 ; 0.0
45 ; 21476.701109917372 ; 32332.503431745816 ; 647529.6876618458 ; 1454962.6544285615 ; 0.0
46 ; 21722.757512677857 ; 32332.503431745816 ; 669006.3887717632 ; 1487295.1578603073 ; 0.0
47 ; 21987.790426888405 ; 32332.503431745816 ; 690729.146284441 ; 1519627.661292053 ; 0.0
48 ; 22236.183225814293 ; 32332.503431745816 ; 712716.9367113294 ; 1551960.1647237989 ; 0.0
49 ; 22340.06336071808 ; 32332.503431745816 ; 734953.1199371436 ; 1584292.6681555447 ; 0.0
50 ; 22525.681984881354 ; 32332.503431745816 ; 757293.1832978617 ; 1616625.1715872905 ; 0.0
51 ; 22709.413345590463 ; 32332.503431745816 ; 779818.8652827431 ; 1648957.6750190363 ; 0.0
52 ; 22869.228667816897 ; 32332.503431745816 ; 802528.2786283336 ; 1681290.178450782 ; 0.0
53 ; 23094.117577766454 ; 32332.503431745816 ; 825397.5072961504 ; 1713622.681882528 ; 0.0
54 ; 23382.900779569485 ; 32332.503431745816 ; 848491.6248739169 ; 1745955.1853142737 ; 0.0
55 ; 23347.78875148141 ; 32332.503431745816 ; 871874.5256534864 ; 1778287.6887460195 ; 0.0
56 ; 23697.563398211812 ; 32332.503431745816 ; 895222.3144049678 ; 1810620.1921777653 ; 0.0
57 ; 23605.399391258044 ; 32332.503431745816 ; 918919.8778031797 ; 1842952.695609511 ; 0.0
58 ; 24112.567841297816 ; 32332.503431745816 ; 942525.2771944377 ; 1875285.199041257 ; 0.0
59 ; 23937.495501179408 ; 32332.503431745816 ; 966637.8450357355 ; 1907617.7024730027 ; 0.0
60 ; 24234.48143753324 ; 32332.503431745816 ; 990575.3405369149 ; 1939950.2059047485 ; 0.0
61 ; 24492.781062090937 ; 32332.503431745816 ; 1014809.8219744482 ; 1972282.7093364943 ; 0.0
62 ; 24508.836560372358 ; 32332.503431745816 ; 1039302.603036539 ; 2004615.2127682401 ; 0.0
63 ; 24606.19826185774 ; 32332.503431745816 ; 1063811.4395969114 ; 2036947.716199986 ; 0.0
64 ; 24857.35288298497 ; 32332.503431745816 ; 1088417.6378587692 ; 2069280.2196317317 ; 0.0
65 ; 24719.681112816317 ; 32332.503431745816 ; 1113274.9907417542 ; 2101612.723063478 ; 0.0
66 ; 24859.87722825758 ; 32332.503431745816 ; 1137994.6718545705 ; 2133945.2264952236 ; 0.0
67 ; 25015.606380663747 ; 32332.503431745816 ; 1162854.549082828 ; 2166277.7299269694 ; 0.0
68 ; 25192.981073640676 ; 32332.503431745816 ; 1187870.1554634918 ; 2198610.233358715 ; 0.0
69 ; 25195.719129926314 ; 32332.503431745816 ; 1213063.1365371326 ; 2230942.736790461 ; 0.0
70 ; 25318.553492096813 ; 32332.503431745816 ; 1238258.8556670588 ; 2263275.240222207 ; 0.0
71 ; 25237.1638653366 ; 32332.503431745816 ; 1263577.4091591556 ; 2295607.7436539526 ; 0.0
72 ; 25329.39726584716 ; 32332.503431745816 ; 1288814.5730244922 ; 2327940.2470856984 ; 0.0
73 ; 25443.726235146245 ; 32332.503431745816 ; 1314143.9702903393 ; 2360272.750517444 ; 0.0
74 ; 25605.93140207241 ; 32332.503431745816 ; 1339587.6965254855 ; 2392605.25394919 ; 0.0
75 ; 25443.5831614956 ; 32332.503431745816 ; 1365193.6279275578 ; 2424937.757380936 ; 0.0
76 ; 25633.981074778727 ; 32332.503431745816 ; 1390637.2110890534 ; 2457270.2608126816 ; 0.0
77 ; 25743.198148501782 ; 32332.503431745816 ; 1416271.1921638323 ; 2489602.7642444274 ; 0.0
78 ; 25660.604993529527 ; 32332.503431745816 ; 1442014.390312334 ; 2521935.2676761732 ; 0.0
79 ; 25627.98810117777 ; 32332.503431745816 ; 1467674.9953058637 ; 2554267.771107919 ; 0.0
80 ; 25493.484006996478 ; 32332.503431745816 ; 1493302.9834070415 ; 2586600.274539665 ; 0.0
81 ; 25809.361074229862 ; 32332.503431745816 ; 1518796.467414038 ; 2618932.7779714107 ; 0.0
82 ; 25808.538169049687 ; 32332.503431745816 ; 1544605.828488268 ; 2651265.2814031565 ; 0.0
83 ; 25640.59258273626 ; 32332.503431745816 ; 1570414.3666573176 ; 2683597.7848349023 ; 0.0
84 ; 25625.8224298643 ; 32332.503431745816 ; 1596054.9592400538 ; 2715930.288266648 ; 0.0
85 ; 25661.510105454847 ; 32332.503431745816 ; 1621680.781669918 ; 2748262.791698394 ; 0.0
86 ; 25580.494865821787 ; 32332.503431745816 ; 1647342.2917753728 ; 2780595.2951301397 ; 0.0
87 ; 25538.409239097506 ; 32332.503431745816 ; 1672922.7866411945 ; 2812927.7985618855 ; 0.0
88 ; 25491.581701452556 ; 32332.503431745816 ; 1698461.195880292 ; 2845260.3019936313 ; 0.0
89 ; 25522.175350334564 ; 32332.503431745816 ; 1723952.7775817446 ; 2877592.805425377 ; 0.0
90 ; 25545.658086920765 ; 32332.503431745816 ; 1749474.952932079 ; 2909925.308857123 ; 0.0
91 ; 25596.956047633466 ; 32332.503431745816 ; 1775020.611019 ; 2942257.8122888687 ; 0.0
92 ; 25441.904887414785 ; 32332.503431745816 ; 1800617.5670666334 ; 2974590.3157206145 ; 0.0
93 ; 25552.97316284611 ; 32332.503431745816 ; 1826059.4719540481 ; 3006922.8191523603 ; 0.0
94 ; 25323.908282046254 ; 32332.503431745816 ; 1851612.4451168943 ; 3039255.322584106 ; 0.0
95 ; 25220.809040955664 ; 32332.503431745816 ; 1876936.3533989405 ; 3071587.826015852 ; 0.0
96 ; 25216.773141604943 ; 32332.503431745816 ; 1902157.1624398963 ; 3103920.3294475977 ; 0.0
97 ; 25040.15639133752 ; 32332.503431745816 ; 1927373.935581501 ; 3136252.8328793435 ; 0.0
98 ; 24982.110780517774 ; 32332.503431745816 ; 1952414.0919728386 ; 3168585.3363110893 ; 0.0
99 ; 25005.13553864167 ; 32332.503431745816 ; 1977396.2027533564 ; 3200917.839742835 ; 0.0
100 ; 24905.66262949773 ; 32332.503431745816 ; 2002401.338291998 ; 3233250.343174581 ; 0.0
101 ; 24753.904189381068 ; 32332.503431745816 ; 2027307.0009214957 ; 3265582.8466063268 ; 0.0
102 ; 24591.286140138436 ; 32332.503431745816 ; 2052060.9051108768 ; 3297915.3500380726 ; 0.0
103 ; 24421.034915157074 ; 32332.503431745816 ; 2076652.1912510153 ; 3330247.8534698184 ; 0.0
104 ; 24312.745432851032 ; 32332.503431745816 ; 2101073.2261661724 ; 3362580.356901564 ; 0.0
105 ; 24220.97042363848 ; 32332.503431745816 ; 2125385.9715990233 ; 3394912.86033331 ; 0.0
106 ; 24070.87630857559 ; 32332.503431745816 ; 2149606.9420226617 ; 3427245.363765056 ; 0.0
107 ; 23738.112700670652 ; 32332.503431745816 ; 2173677.8183312374 ; 3459577.8671968016 ; 0.0
108 ; 23908.694198592642 ; 32332.503431745816 ; 2197415.931031908 ; 3491910.3706285474 ; 0.0
109 ; 23534.62077251569 ; 32332.503431745816 ; 2221324.6252305005 ; 3524242.874060293 ; 0.0
110 ; 23403.97803624429 ; 32332.503431745816 ; 2244859.2460030164 ; 3556575.377492039 ; 0.0
111 ; 23282.718876015653 ; 32332.503431745816 ; 2268263.2240392608 ; 3588907.880923785 ; 0.0
112 ; 23070.368375487233 ; 32332.503431745816 ; 2291545.9429152766 ; 3621240.3843555306 ; 0.0
113 ; 23008.516623798198 ; 32332.503431745816 ; 2314616.311290764 ; 3653572.8877872764 ; 0.0
114 ; 22923.90508129294 ; 32332.503431745816 ; 2337624.827914562 ; 3685905.391219022 ; 0.0
115 ; 22474.692295147117 ; 32332.503431745816 ; 2360548.732995855 ; 3718237.894650768 ; 0.0
116 ; 22309.36471939108 ; 32332.503431745816 ; 2383023.4252910023 ; 3750570.398082514 ; 0.0
117 ; 21967.827264130843 ; 32332.503431745816 ; 2405332.790010393 ; 3782902.9015142596 ; 0.0
118 ; 21787.631224211662 ; 32332.503431745816 ; 2427300.617274524 ; 3815235.4049460054 ; 0.0
119 ; 21854.77071000271 ; 32332.503431745816 ; 2449088.248498736 ; 3847567.9083777512 ; 0.0
120 ; 21383.221960667313 ; 32332.503431745816 ; 2470943.0192087386 ; 3879900.411809497 ; 0.0
121 ; 21260.055270499302 ; 32332.503431745816 ; 2492326.241169406 ; 3912232.915241243 ; 0.0
122 ; 20815.521958013345 ; 32332.503431745816 ; 2513586.296439905 ; 3944565.4186729887 ; 0.0
123 ; 20837.54951543252 ; 32332.503431745816 ; 2534401.8183979187 ; 3976897.9221047345 ; 0.0
124 ; 20626.48479903465 ; 32332.503431745816 ; 2555239.3679133514 ; 4009230.4255364803 ; 0.0
125 ; 20366.733275190898 ; 32332.503431745816 ; 2575865.852712386 ; 4041562.928968226 ; 0.0
126 ; 20078.311445699965 ; 32332.503431745816 ; 2596232.5859875767 ; 4073895.432399972 ; 0.0
127 ; 19705.50186826339 ; 32332.503431745816 ; 2616310.8974332768 ; 4106227.9358317177 ; 0.0
128 ; 19558.415536737502 ; 32332.503431745816 ; 2636016.39930154 ; 4138560.4392634635 ; 0.0
129 ; 19172.254264309093 ; 32332.503431745816 ; 2655574.8148382776 ; 4170892.9426952093 ; 0.0
130 ; 19044.90162916347 ; 32332.503431745816 ; 2674747.0691025867 ; 4203225.446126956 ; 0.0
131 ; 18588.609187723254 ; 32332.503431745816 ; 2693791.97073175 ; 4235557.949558701 ; 0.0
132 ; 18554.435738486798 ; 32332.503431745816 ; 2712380.5799194733 ; 4267890.452990447 ; 0.0
133 ; 17891.339249349032 ; 32332.503431745816 ; 2730935.01565796 ; 4300222.956422193 ; 0.0
134 ; 17776.0230551333 ; 32332.503431745816 ; 2748826.354907309 ; 4332555.459853939 ; 0.0
135 ; 17357.093068007718 ; 32332.503431745816 ; 2766602.3779624426 ; 4364887.963285685 ; 0.0
136 ; 17125.330121200433 ; 32332.503431745816 ; 2783959.4710304504 ; 4397220.46671743 ; 0.0
137 ; 16772.272684986423 ; 32332.503431745816 ; 2801084.801151651 ; 4429552.970149176 ; 0.0
138 ; 16504.5931160941 ; 32332.503431745816 ; 2817857.073836637 ; 4461885.473580922 ; 0.0
139 ; 15962.514090942497 ; 32332.503431745816 ; 2834361.666952731 ; 4494217.977012668 ; 0.0
140 ; 15651.547751280734 ; 32332.503431745816 ; 2850324.181043674 ; 4526550.480444414 ; 0.0
141 ; 15481.12302051032 ; 32332.503431745816 ; 2865975.7287949547 ; 4558882.983876159 ; 0.0
142 ; 15013.88687557937 ; 32332.503431745816 ; 2881456.851815465 ; 4591215.487307905 ; 0.0
143 ; 14510.133015007992 ; 32332.503431745816 ; 2896470.7386910445 ; 4623547.990739651 ; 0.0
144 ; 14372.921339141136 ; 32332.503431745816 ; 2910980.8717060527 ; 4655880.494171397 ; 0.0
145 ; 14164.463413826334 ; 32332.503431745816 ; 2925353.793045194 ; 4688212.997603143 ; 0.0
146 ; 14122.745081413754 ; 32332.503431745816 ; 2939518.25645902 ; 4720545.501034888 ; 0.0
147 ; 13923.646723658694 ; 32332.503431745816 ; 2953641.0015404336 ; 4752878.004466634 ; 0.0
148 ; 13829.17050291476 ; 32332.503431745816 ; 2967564.6482640924 ; 4785210.50789838 ; 0.0
149 ; 13726.45062725073 ; 32332.503431745816 ; 2981393.818767007 ; 4817543.011330126 ; 0.0
150 ; 13754.441417664502 ; 32332.503431745816 ; 2995120.2693942576 ; 4849875.514761872 ; 0.0
151 ; 13585.057652398498 ; 32332.503431745816 ; 3008874.710811922 ; 4882208.018193617 ; 0.0
152 ; 13427.354146145324 ; 32332.503431745816 ; 3022459.7684643203 ; 4914540.521625363 ; 0.0
153 ; 13344.735789551634 ; 32332.503431745816 ; 3035887.1226104656 ; 4946873.025057109 ; 0.0
154 ; 13285.33549533649 ; 32332.503431745816 ; 3049231.8584000175 ; 4979205.528488855 ; 0.0
155 ; 13169.041154030794 ; 32332.503431745816 ; 3062517.193895354 ; 5011538.031920601 ; 0.0
156 ; 13052.10717699628 ; 32332.503431745816 ; 3075686.2350493846 ; 5043870.5353523465 ; 0.0
157 ; 12839.423661041841 ; 32332.503431745816 ; 3088738.342226381 ; 5076203.038784092 ; 0.0
158 ; 12669.032995381735 ; 32332.503431745816 ; 3101577.765887423 ; 5108535.542215838 ; 0.0
159 ; 12691.920573553836 ; 32332.503431745816 ; 3114246.798882805 ; 5140868.045647584 ; 0.0
160 ; 12570.658509134748 ; 32332.503431745816 ; 3126938.719456359 ; 5173200.54907933 ; 0.0
161 ; 12479.51737614694 ; 32332.503431745816 ; 3139509.3779654936 ; 5205533.0525110755 ; 0.0
162 ; 12146.410874714671 ; 32332.503431745816 ; 3151988.8953416403 ; 5237865.555942821 ; 0.0
163 ; 12018.191787452162 ; 32332.503431745816 ; 3164135.306216355 ; 5270198.059374567 ; 0.0
164 ; 12117.11916437484 ; 32332.503431745816 ; 3176153.498003807 ; 5302530.562806313 ; 0.0
165 ; 11961.527792597719 ; 32332.503431745816 ; 3188270.6171681816 ; 5334863.066238059 ; 0.0
166 ; 11843.163486014799 ; 32332.503431745816 ; 3200232.144960779 ; 5367195.569669805 ; 0.0
167 ; 11369.766471407618 ; 32332.503431745816 ; 3212075.308446794 ; 5399528.07310155 ; 0.0
168 ; 11399.302914157526 ; 32332.503431745816 ; 3223445.0749182017 ; 5431860.576533296 ; 0.0
169 ; 11202.703530265326 ; 32332.503431745816 ; 3234844.377832359 ; 5464193.079965042 ; 0.0
170 ; 11004.48254663764 ; 32332.503431745816 ; 3246047.0813626247 ; 5496525.583396788 ; 0.0
171 ; 10996.033842217765 ; 32332.503431745816 ; 3257051.5639092624 ; 5528858.086828534 ; 0.0
172 ; 10747.402998337011 ; 32332.503431745816 ; 3268047.59775148 ; 5561190.590260279 ; 0.0
173 ; 10620.32840354718 ; 32332.503431745816 ; 3278795.000749817 ; 5593523.093692025 ; 0.0
174 ; 10714.4809532969 ; 32332.503431745816 ; 3289415.3291533645 ; 5625855.597123771 ; 0.0
175 ; 10726.818427606959 ; 32332.503431745816 ; 3300129.8101066616 ; 5658188.100555517 ; 0.0
176 ; 10708.271978133798 ; 32332.503431745816 ; 3310856.6285342686 ; 5690520.603987263 ; 0.0
177 ; 10709.217847011108 ; 32332.503431745816 ; 3321564.9005124024 ; 5722853.107419008 ; 0.0
178 ; 10785.980396377505 ; 32332.503431745816 ; 3332274.1183594135 ; 5755185.610850754 ; 0.0
179 ; 10827.020331250444 ; 32332.503431745816 ; 3343060.098755791 ; 5787518.1142825 ; 0.0
180 ; 10787.920196382744 ; 32332.503431745816 ; 3353887.1190870414 ; 5819850.617714246 ; 0.0
181 ; 10802.690381147822 ; 32332.503431745816 ; 3364675.039283424 ; 5852183.121145992 ; 0.0
182 ; 11000.965047681724 ; 32332.503431745816 ; 3375477.729664572 ; 5884515.624577737 ; 0.0
183 ; 10953.340128502328 ; 32332.503431745816 ; 3386478.6947122538 ; 5916848.128009483 ; 0.0
184 ; 10923.206072581514 ; 32332.503431745816 ; 3397432.034840756 ; 5949180.631441229 ; 0.0
185 ; 11061.180779269216 ; 32332.503431745816 ; 3408355.2409133376 ; 5981513.134872975 ; 0.0
186 ; 11169.17307243294 ; 32332.503431745816 ; 3419416.421692607 ; 6013845.638304721 ; 0.0
187 ; 11228.937053086831 ; 32332.503431745816 ; 3430585.59476504 ; 6046178.141736466 ; 0.0
188 ; 11227.775111591152 ; 32332.503431745816 ; 3441814.531818127 ; 6078510.645168212 ; 0.0
189 ; 11307.141928009009 ; 32332.503431745816 ; 3453042.306929718 ; 6110843.148599958 ; 0.0
190 ; 11223.251449033542 ; 32332.503431745816 ; 3464349.448857727 ; 6143175.652031704 ; 0.0
191 ; 11208.527999372607 ; 32332.503431745816 ; 3475572.7003067606 ; 6175508.15546345 ; 0.0
192 ; 11189.044103088494 ; 32332.503431745816 ; 3486781.2283061333 ; 6207840.658895195 ; 0.0
193 ; 11289.931638707141 ; 32332.503431745816 ; 3497970.2724092216 ; 6240173.162326941 ; 0.0
194 ; 11560.615800691197 ; 32332.503431745816 ; 3509260.2040479286 ; 6272505.665758687 ; 0.0
195 ; 11237.742623230706 ; 32332.503431745816 ; 3520820.81984862 ; 6304838.169190433 ; 0.0
196 ; 11330.841455605878 ; 32332.503431745816 ; 3532058.562471851 ; 6337170.672622179 ; 0.0
197 ; 11397.561644631694 ; 32332.503431745816 ; 3543389.4039274566 ; 6369503.1760539245 ; 0.0
198 ; 11503.70477925189 ; 32332.503431745816 ; 3554786.9655720885 ; 6401835.67948567 ; 0.0
199 ; 11347.694939514357 ; 32332.503431745816 ; 3566290.6703513404 ; 6434168.182917416 ; 0.0
200 ; 11469.682780564573 ; 32332.503431745816 ; 3577638.3652908546 ; 6466500.686349162 ; 0.0
201 ; 11529.040116911461 ; 32332.503431745816 ; 3589108.0480714194 ; 6498833.189780908 ; 0.0
202 ; 11494.441122843386 ; 32332.503431745816 ; 3600637.0881883306 ; 6531165.6932126535 ; 0.0
203 ; 11616.631104084947 ; 32332.503431745816 ; 3612131.529311174 ; 6563498.196644399 ; 0.0
204 ; 11458.163459784062 ; 32332.503431745816 ; 3623748.160415259 ; 6595830.700076145 ; 0.0
205 ; 11545.851364733451 ; 32332.503431745816 ; 3635206.323875043 ; 6628163.203507891 ; 0.0
206 ; 11682.636708644519 ; 32332.503431745816 ; 3646752.1752397767 ; 6660495.706939637 ; 0.0
207 ; 11841.84740948669 ; 32332.503431745816 ; 3658434.8119484214 ; 6692828.210371383 ; 0.0
208 ; 11796.495455953156 ; 32332.503431745816 ; 3670276.659357908 ; 6725160.713803128 ; 0.0
209 ; 11631.303798198156 ; 32332.503431745816 ; 3682073.1548138615 ; 6757493.217234874 ; 0.0
210 ; 11799.336990037427 ; 32332.503431745816 ; 3693704.4586120597 ; 6789825.72066662 ; 0.0
211 ; 11634.488048727531 ; 32332.503431745816 ; 3705503.795602097 ; 6822158.224098366 ; 0.0
212 ; 11845.48234758372 ; 32332.503431745816 ; 3717138.283650825 ; 6854490.727530112 ; 0.0
213 ; 11711.038063191556 ; 32332.503431745816 ; 3728983.7659984087 ; 6886823.230961857 ; 0.0
