CSV File for the City 1 on Day 208
1 - Minute m 
2 - Power Consumed at minute m 
3 - Power Produced at minute m 
4 - Energy Consumed since the beginning of the day 
5 - Energy Produced since the beginning of the day 
6 - Energy Lost since the beginning of the day on lines starting from the city
 
0 ; 5071.608204071965 ; 3538.067687060906 ; 0.0 ; 0.0 ; 0.0
1 ; 5840.764977839177 ; 3538.067687060906 ; 5071.608204071965 ; 3538.067687060906 ; 238.00000000000003
2 ; 6422.068615002624 ; 3538.067687060906 ; 10912.373181911142 ; 7076.135374121812 ; 476.00000000000006
3 ; 7037.204629258538 ; 3538.067687060906 ; 17334.441796913765 ; 10614.203061182718 ; 714.0000000000001
4 ; 7694.404600816657 ; 3538.067687060906 ; 24371.6464261723 ; 14152.270748243624 ; 952.0000000000001
5 ; 8410.982142025947 ; 3538.067687060906 ; 32066.051026988956 ; 17690.33843530453 ; 1190.0000000000002
6 ; 8948.760721969578 ; 3538.067687060906 ; 40477.0331690149 ; 21228.406122365435 ; 1428.0000000000002
7 ; 9566.659888771808 ; 3538.067687060906 ; 49425.79389098448 ; 24766.47380942634 ; 1666.0000000000002
8 ; 10079.390305666422 ; 3538.067687060906 ; 58992.45377975629 ; 28304.541496487247 ; 1904.0000000000002
9 ; 10799.510666081655 ; 3538.067687060906 ; 69071.84408542271 ; 31842.609183548153 ; 2142.0000000000005
10 ; 11171.30603191967 ; 3538.067687060906 ; 79871.35475150436 ; 35380.67687060906 ; 2380.0000000000005
11 ; 12016.184394859818 ; 3538.067687060906 ; 91042.66078342403 ; 38918.74455766997 ; 2618.0000000000005
12 ; 12316.653077592298 ; 3538.067687060906 ; 103058.84517828384 ; 42456.81224473087 ; 2856.0000000000005
13 ; 12993.609298188883 ; 3538.067687060906 ; 115375.49825587614 ; 45994.87993179177 ; 3094.0000000000005
14 ; 13563.152565239148 ; 3538.067687060906 ; 128369.10755406502 ; 49532.947618852675 ; 3332.0000000000005
15 ; 14021.137215115958 ; 3538.067687060906 ; 141932.26011930418 ; 53071.01530591358 ; 3570.0000000000005
16 ; 14520.836934720202 ; 3538.067687060906 ; 155953.39733442012 ; 56609.08299297448 ; 3808.0000000000005
17 ; 15056.974068531003 ; 3538.067687060906 ; 170474.23426914032 ; 60147.15068003538 ; 4046.0000000000005
18 ; 15696.44309869627 ; 3538.067687060906 ; 185531.20833767133 ; 63685.218367096284 ; 4284.000000000001
19 ; 16003.046133908656 ; 3538.067687060906 ; 201227.6514363676 ; 67223.28605415719 ; 4522.000000000001
20 ; 16566.25512855265 ; 3538.067687060906 ; 217230.69757027624 ; 70761.35374121809 ; 4760.000000000001
21 ; 17087.434358741753 ; 3538.067687060906 ; 233796.95269882889 ; 74299.42142827899 ; 4998.000000000001
22 ; 17512.710088227588 ; 3538.067687060906 ; 250884.38705757062 ; 77837.4891153399 ; 5236.000000000001
23 ; 18105.284474599568 ; 3538.067687060906 ; 268397.0971457982 ; 81375.5568024008 ; 5474.000000000001
24 ; 18564.143698024393 ; 3538.067687060906 ; 286502.3816203978 ; 84913.6244894617 ; 5712.000000000001
25 ; 19009.564714008775 ; 3538.067687060906 ; 305066.5253184222 ; 88451.6921765226 ; 5950.000000000001
26 ; 19595.63112298643 ; 3538.067687060906 ; 324076.09003243095 ; 91989.7598635835 ; 6188.000000000001
27 ; 19960.15384199006 ; 3538.067687060906 ; 343671.7211554174 ; 95527.8275506444 ; 6426.000000000001
28 ; 20241.470353111945 ; 3538.067687060906 ; 363631.87499740743 ; 99065.8952377053 ; 6664.000000000001
29 ; 20690.627852764064 ; 3538.067687060906 ; 383873.3453505194 ; 102603.96292476621 ; 6902.000000000001
30 ; 21130.35699282787 ; 3538.067687060906 ; 404563.97320328344 ; 106142.03061182711 ; 7140.000000000001
31 ; 21576.975039700803 ; 3538.067687060906 ; 425694.3301961113 ; 109680.09829888801 ; 7378.000000000001
32 ; 21998.357805178446 ; 3538.067687060906 ; 447271.3052358121 ; 113218.16598594892 ; 7616.000000000001
33 ; 22467.334088524745 ; 3538.067687060906 ; 469269.66304099053 ; 116756.23367300982 ; 7854.000000000001
34 ; 22722.08555493454 ; 3538.067687060906 ; 491736.9971295153 ; 120294.30136007072 ; 8092.000000000001
35 ; 22911.245725473727 ; 3538.067687060906 ; 514459.0826844498 ; 123832.36904713162 ; 8330.000000000002
36 ; 23452.25641001271 ; 3538.067687060906 ; 537370.3284099235 ; 127370.43673419252 ; 8568.000000000002
37 ; 23651.64078677756 ; 3538.067687060906 ; 560822.5848199362 ; 130908.50442125343 ; 8806.000000000002
38 ; 24286.80767154376 ; 3538.067687060906 ; 584474.2256067138 ; 134446.57210831434 ; 9044.000000000002
39 ; 24598.6064083818 ; 3538.067687060906 ; 608761.0332782576 ; 137984.63979537526 ; 9282.000000000002
40 ; 24965.451166685853 ; 3538.067687060906 ; 633359.6396866394 ; 141522.70748243618 ; 9520.000000000002
41 ; 25371.314444370037 ; 3538.067687060906 ; 658325.0908533253 ; 145060.7751694971 ; 9758.000000000002
42 ; 25553.561443574283 ; 3538.067687060906 ; 683696.4052976953 ; 148598.842856558 ; 9996.000000000002
43 ; 25788.82100485923 ; 3538.067687060906 ; 709249.9667412696 ; 152136.91054361893 ; 10234.000000000002
44 ; 26145.467308723593 ; 3538.067687060906 ; 735038.7877461289 ; 155674.97823067984 ; 10472.000000000002
45 ; 26486.167760836106 ; 3538.067687060906 ; 761184.2550548525 ; 159213.04591774076 ; 10710.000000000002
46 ; 26691.66524149075 ; 3538.067687060906 ; 787670.4228156885 ; 162751.11360480168 ; 10948.000000000002
47 ; 26972.206518111787 ; 3538.067687060906 ; 814362.0880571792 ; 166289.1812918626 ; 11186.000000000002
48 ; 27392.69403003047 ; 3538.067687060906 ; 841334.294575291 ; 169827.2489789235 ; 11424.000000000002
49 ; 27464.123056356057 ; 3538.067687060906 ; 868726.9886053215 ; 173365.31666598443 ; 11662.000000000002
50 ; 27859.304340313938 ; 3538.067687060906 ; 896191.1116616776 ; 176903.38435304535 ; 11900.000000000002
51 ; 27985.082835453206 ; 3538.067687060906 ; 924050.4160019915 ; 180441.45204010626 ; 12138.000000000002
52 ; 28376.384293956442 ; 3538.067687060906 ; 952035.4988374447 ; 183979.51972716718 ; 12376.000000000002
53 ; 28459.3682455832 ; 3538.067687060906 ; 980411.8831314011 ; 187517.5874142281 ; 12614.000000000002
54 ; 28786.323509261478 ; 3538.067687060906 ; 1008871.2513769843 ; 191055.655101289 ; 12852.000000000002
55 ; 28873.081264996617 ; 3538.067687060906 ; 1037657.5748862458 ; 194593.72278834993 ; 13090.000000000002
56 ; 29218.47314469595 ; 3538.067687060906 ; 1066530.6561512423 ; 198131.79047541085 ; 13328.000000000002
57 ; 29426.110190836305 ; 3538.067687060906 ; 1095749.1292959382 ; 201669.85816247176 ; 13566.000000000002
58 ; 29631.023544459396 ; 3538.067687060906 ; 1125175.2394867744 ; 205207.92584953268 ; 13804.000000000002
59 ; 29772.663992581696 ; 3538.067687060906 ; 1154806.2630312338 ; 208745.9935365936 ; 14042.000000000002
60 ; 29957.51300465001 ; 3538.067687060906 ; 1184578.9270238155 ; 212284.0612236545 ; 14280.000000000002
61 ; 30044.660877922204 ; 3538.067687060906 ; 1214536.4400284654 ; 215822.12891071543 ; 14518.000000000002
62 ; 30355.274266062843 ; 3538.067687060906 ; 1244581.1009063877 ; 219360.19659777635 ; 14756.000000000002
63 ; 30518.368466392767 ; 3538.067687060906 ; 1274936.3751724504 ; 222898.26428483726 ; 14994.000000000002
64 ; 30688.649735021874 ; 3538.067687060906 ; 1305454.7436388433 ; 226436.33197189818 ; 15232.000000000002
65 ; 30650.274050591568 ; 3538.067687060906 ; 1336143.3933738652 ; 229974.3996589591 ; 15470.000000000002
66 ; 31058.35683672546 ; 3538.067687060906 ; 1366793.6674244567 ; 233512.46734602 ; 15708.000000000002
67 ; 31069.613204649744 ; 3538.067687060906 ; 1397852.0242611822 ; 237050.53503308093 ; 15946.000000000002
68 ; 31161.13923241613 ; 3538.067687060906 ; 1428921.6374658318 ; 240588.60272014185 ; 16184.000000000002
69 ; 31123.337927720222 ; 3538.067687060906 ; 1460082.776698248 ; 244126.67040720276 ; 16422.000000000004
70 ; 31367.77958062997 ; 3538.067687060906 ; 1491206.1146259683 ; 247664.73809426368 ; 16660.000000000004
71 ; 31440.531583005588 ; 3538.067687060906 ; 1522573.8942065982 ; 251202.8057813246 ; 16898.000000000004
72 ; 31618.5920652054 ; 3538.067687060906 ; 1554014.4257896037 ; 254740.87346838551 ; 17136.000000000004
73 ; 31656.739821223557 ; 3538.067687060906 ; 1585633.017854809 ; 258278.94115544643 ; 17374.000000000004
74 ; 31657.71728976576 ; 3538.067687060906 ; 1617289.7576760326 ; 261817.00884250735 ; 17612.000000000004
75 ; 31693.719458028725 ; 3538.067687060906 ; 1648947.4749657984 ; 265355.07652956824 ; 17850.000000000004
76 ; 31746.31551491032 ; 3538.067687060906 ; 1680641.194423827 ; 268893.14421662915 ; 18088.000000000004
77 ; 31754.709387479554 ; 3538.067687060906 ; 1712387.5099387374 ; 272431.21190369007 ; 18326.000000000004
78 ; 31778.050389652963 ; 3538.067687060906 ; 1744142.219326217 ; 275969.279590751 ; 18564.000000000004
79 ; 31835.712819680703 ; 3538.067687060906 ; 1775920.26971587 ; 279507.3472778119 ; 18802.000000000004
80 ; 31895.89592691443 ; 3538.067687060906 ; 1807755.9825355508 ; 283045.4149648728 ; 19040.000000000004
81 ; 31890.988221208 ; 3538.067687060906 ; 1839651.8784624652 ; 286583.48265193374 ; 19278.000000000004
82 ; 32208.960241177174 ; 3538.067687060906 ; 1871542.8666836733 ; 290121.55033899465 ; 19516.000000000004
83 ; 32079.74003382118 ; 3538.067687060906 ; 1903751.8269248505 ; 293659.61802605557 ; 19754.000000000004
84 ; 32099.10369708585 ; 3538.067687060906 ; 1935831.5669586717 ; 297197.6857131165 ; 19992.000000000004
85 ; 31993.19155206363 ; 3538.067687060906 ; 1967930.6706557574 ; 300735.7534001774 ; 20230.000000000004
86 ; 31795.18750801357 ; 3538.067687060906 ; 1999923.862207821 ; 304273.8210872383 ; 20468.000000000004
87 ; 31927.64478466905 ; 3538.067687060906 ; 2031719.0497158347 ; 307811.88877429924 ; 20706.000000000004
88 ; 31893.445266324994 ; 3538.067687060906 ; 2063646.6945005038 ; 311349.95646136015 ; 20944.000000000004
89 ; 31847.51527765079 ; 3538.067687060906 ; 2095540.1397668289 ; 314888.0241484211 ; 21182.000000000004
90 ; 31520.600473063754 ; 3538.067687060906 ; 2127387.6550444798 ; 318426.091835482 ; 21420.000000000004
91 ; 31703.482356945286 ; 3538.067687060906 ; 2158908.2555175433 ; 321964.1595225429 ; 21658.000000000004
92 ; 31468.511169597143 ; 3538.067687060906 ; 2190611.7378744883 ; 325502.2272096038 ; 21896.000000000004
93 ; 31604.500770158447 ; 3538.067687060906 ; 2222080.2490440854 ; 329040.29489666474 ; 22134.000000000004
94 ; 31446.371881082505 ; 3538.067687060906 ; 2253684.749814244 ; 332578.36258372565 ; 22372.000000000004
95 ; 31482.23429315461 ; 3538.067687060906 ; 2285131.1216953266 ; 336116.4302707866 ; 22610.000000000004
96 ; 31327.772974282074 ; 3538.067687060906 ; 2316613.355988481 ; 339654.4979578475 ; 22848.000000000004
97 ; 31085.60212563444 ; 3538.067687060906 ; 2347941.128962763 ; 343192.5656449084 ; 23086.000000000004
98 ; 31016.94333304887 ; 3538.067687060906 ; 2379026.7310883976 ; 346730.6333319693 ; 23324.000000000004
99 ; 30967.337482548697 ; 3538.067687060906 ; 2410043.6744214464 ; 350268.70101903024 ; 23562.000000000004
100 ; 30760.09246854254 ; 3538.067687060906 ; 2441011.011903995 ; 353806.76870609116 ; 23800.000000000004
101 ; 30458.203971111612 ; 3538.067687060906 ; 2471771.1043725377 ; 357344.8363931521 ; 24038.000000000004
102 ; 30584.414669999744 ; 3538.067687060906 ; 2502229.3083436494 ; 360882.904080213 ; 24276.000000000004
103 ; 30313.74450331369 ; 3538.067687060906 ; 2532813.723013649 ; 364420.9717672739 ; 24514.000000000004
104 ; 30148.038791002637 ; 3538.067687060906 ; 2563127.467516963 ; 367959.0394543348 ; 24752.000000000004
105 ; 30052.926713221663 ; 3538.067687060906 ; 2593275.5063079656 ; 371497.10714139574 ; 24990.000000000004
106 ; 29853.278239697425 ; 3538.067687060906 ; 2623328.4330211873 ; 375035.17482845666 ; 25228.000000000004
107 ; 29543.235848791286 ; 3538.067687060906 ; 2653181.7112608845 ; 378573.2425155176 ; 25466.000000000004
108 ; 29343.40749729503 ; 3538.067687060906 ; 2682724.947109676 ; 382111.3102025785 ; 25704.000000000004
109 ; 29219.363299833647 ; 3538.067687060906 ; 2712068.354606971 ; 385649.3778896394 ; 25942.000000000004
110 ; 28979.89950220381 ; 3538.067687060906 ; 2741287.7179068048 ; 389187.4455767003 ; 26180.000000000004
111 ; 28685.640158064267 ; 3538.067687060906 ; 2770267.6174090086 ; 392725.51326376124 ; 26418.000000000004
112 ; 28361.165375181277 ; 3538.067687060906 ; 2798953.2575670728 ; 396263.58095082216 ; 26656.000000000004
113 ; 28341.659785370714 ; 3538.067687060906 ; 2827314.422942254 ; 399801.6486378831 ; 26894.000000000004
114 ; 28078.178367230696 ; 3538.067687060906 ; 2855656.082727625 ; 403339.716324944 ; 27132.000000000004
115 ; 27948.632750748 ; 3538.067687060906 ; 2883734.2610948556 ; 406877.7840120049 ; 27370.000000000004
116 ; 27473.9044013141 ; 3538.067687060906 ; 2911682.893845604 ; 410415.8516990658 ; 27608.000000000004
117 ; 27011.709830258937 ; 3538.067687060906 ; 2939156.798246918 ; 413953.91938612674 ; 27846.000000000004
118 ; 26869.453262196355 ; 3538.067687060906 ; 2966168.5080771768 ; 417491.98707318766 ; 28084.000000000004
119 ; 26672.96791077723 ; 3538.067687060906 ; 2993037.961339373 ; 421030.0547602486 ; 28322.000000000004
120 ; 26357.56712683581 ; 3538.067687060906 ; 3019710.9292501505 ; 424568.1224473095 ; 28560.000000000004
121 ; 26095.941769440407 ; 3538.067687060906 ; 3046068.496376986 ; 428106.1901343704 ; 28798.000000000004
122 ; 25724.657692644614 ; 3538.067687060906 ; 3072164.4381464263 ; 431644.2578214313 ; 29036.000000000004
123 ; 25503.025095683086 ; 3538.067687060906 ; 3097889.095839071 ; 435182.32550849224 ; 29274.000000000004
124 ; 25136.382610688186 ; 3538.067687060906 ; 3123392.120934754 ; 438720.39319555316 ; 29512.000000000004
125 ; 24790.986364423497 ; 3538.067687060906 ; 3148528.503545442 ; 442258.4608826141 ; 29750.000000000004
126 ; 24525.73103111904 ; 3538.067687060906 ; 3173319.4899098654 ; 445796.528569675 ; 29988.000000000004
127 ; 24150.832547810587 ; 3538.067687060906 ; 3197845.2209409843 ; 449334.5962567359 ; 30226.000000000004
128 ; 23745.42582565001 ; 3538.067687060906 ; 3221996.0534887947 ; 452872.6639437968 ; 30464.000000000004
129 ; 23432.293201202927 ; 3538.067687060906 ; 3245741.4793144446 ; 456410.73163085774 ; 30702.000000000004
130 ; 23011.659386762352 ; 3538.067687060906 ; 3269173.7725156476 ; 459948.79931791866 ; 30940.000000000004
131 ; 22525.558395719567 ; 3538.067687060906 ; 3292185.43190241 ; 463486.8670049796 ; 31178.000000000004
132 ; 22268.9024819463 ; 3538.067687060906 ; 3314710.9902981296 ; 467024.9346920405 ; 31416.000000000004
133 ; 21820.895933760894 ; 3538.067687060906 ; 3336979.892780076 ; 470563.0023791014 ; 31654.000000000004
134 ; 21343.695101066347 ; 3538.067687060906 ; 3358800.7887138366 ; 474101.0700661623 ; 31892.000000000004
135 ; 20855.270006393897 ; 3538.067687060906 ; 3380144.483814903 ; 477639.13775322324 ; 32130.000000000004
136 ; 20592.049530468856 ; 3538.067687060906 ; 3400999.753821297 ; 481177.20544028416 ; 32368.000000000004
137 ; 20084.24251744413 ; 3538.067687060906 ; 3421591.803351766 ; 484715.2731273451 ; 32606.000000000004
138 ; 19556.165119335416 ; 3538.067687060906 ; 3441676.0458692103 ; 488253.340814406 ; 32844.00000000001
139 ; 19302.663789185546 ; 3538.067687060906 ; 3461232.210988546 ; 491791.4085014669 ; 33082.00000000001
140 ; 18788.620087944255 ; 3538.067687060906 ; 3480534.8747777315 ; 495329.4761885278 ; 33320.00000000001
141 ; 18466.913478358125 ; 3538.067687060906 ; 3499323.494865676 ; 498867.54387558874 ; 33558.00000000001
142 ; 17756.009468246895 ; 3538.067687060906 ; 3517790.408344034 ; 502405.61156264966 ; 33796.00000000001
143 ; 17498.887495157258 ; 3538.067687060906 ; 3535546.417812281 ; 505943.6792497106 ; 34034.00000000001
144 ; 16855.668024534432 ; 3538.067687060906 ; 3553045.305307438 ; 509481.7469367715 ; 34272.00000000001
145 ; 16842.661241654874 ; 3538.067687060906 ; 3569900.9733319725 ; 513019.8146238324 ; 34510.00000000001
146 ; 16572.769789413614 ; 3538.067687060906 ; 3586743.6345736273 ; 516557.8823108933 ; 34748.00000000001
147 ; 16441.115230175605 ; 3538.067687060906 ; 3603316.404363041 ; 520095.94999795425 ; 34986.00000000001
148 ; 16335.762745994067 ; 3538.067687060906 ; 3619757.5195932165 ; 523634.01768501516 ; 35224.00000000001
149 ; 16114.12033332149 ; 3538.067687060906 ; 3636093.2823392106 ; 527172.085372076 ; 35462.00000000001
150 ; 16243.62592716069 ; 3538.067687060906 ; 3652207.402672532 ; 530710.1530591369 ; 35700.00000000001
151 ; 16074.82240568198 ; 3538.067687060906 ; 3668451.0285996925 ; 534248.2207461979 ; 35938.00000000001
152 ; 15657.321652408888 ; 3538.067687060906 ; 3684525.8510053745 ; 537786.2884332588 ; 36176.00000000001
153 ; 15545.42289282452 ; 3538.067687060906 ; 3700183.172657783 ; 541324.3561203197 ; 36414.00000000001
154 ; 15470.213793843704 ; 3538.067687060906 ; 3715728.595550608 ; 544862.4238073806 ; 36652.00000000001
155 ; 15417.660694227701 ; 3538.067687060906 ; 3731198.8093444514 ; 548400.4914944415 ; 36890.00000000001
156 ; 15263.389134729718 ; 3538.067687060906 ; 3746616.470038679 ; 551938.5591815024 ; 37128.00000000001
157 ; 15166.229219266012 ; 3538.067687060906 ; 3761879.8591734087 ; 555476.6268685634 ; 37366.00000000001
158 ; 14700.669249520244 ; 3538.067687060906 ; 3777046.088392675 ; 559014.6945556243 ; 37604.00000000001
159 ; 14804.133710929269 ; 3538.067687060906 ; 3791746.757642195 ; 562552.7622426852 ; 37842.00000000001
160 ; 14637.981901303649 ; 3538.067687060906 ; 3806550.8913531243 ; 566090.8299297461 ; 38080.00000000001
161 ; 14213.715891998288 ; 3538.067687060906 ; 3821188.873254428 ; 569628.897616807 ; 38318.00000000001
162 ; 13946.503930733468 ; 3538.067687060906 ; 3835402.5891464264 ; 573166.9653038679 ; 38556.00000000001
163 ; 13824.318432970305 ; 3538.067687060906 ; 3849349.09307716 ; 576705.0329909289 ; 38794.00000000001
164 ; 13745.141435009455 ; 3538.067687060906 ; 3863173.4115101304 ; 580243.1006779898 ; 39032.00000000001
165 ; 13659.709646074372 ; 3538.067687060906 ; 3876918.55294514 ; 583781.1683650507 ; 39270.00000000001
166 ; 13448.67207426555 ; 3538.067687060906 ; 3890578.2625912144 ; 587319.2360521116 ; 39508.00000000001
167 ; 13045.63988851162 ; 3538.067687060906 ; 3904026.93466548 ; 590857.3037391725 ; 39746.00000000001
168 ; 12954.245964520524 ; 3538.067687060906 ; 3917072.5745539917 ; 594395.3714262334 ; 39984.00000000001
169 ; 12772.193018459708 ; 3538.067687060906 ; 3930026.8205185123 ; 597933.4391132944 ; 40222.00000000001
170 ; 12552.073304350666 ; 3538.067687060906 ; 3942799.013536972 ; 601471.5068003553 ; 40460.00000000001
171 ; 12337.244272267286 ; 3538.067687060906 ; 3955351.0868413225 ; 605009.5744874162 ; 40698.00000000001
172 ; 12032.487622771825 ; 3538.067687060906 ; 3967688.33111359 ; 608547.6421744771 ; 40936.00000000001
173 ; 12138.237672634 ; 3538.067687060906 ; 3979720.818736362 ; 612085.709861538 ; 41174.00000000001
174 ; 12095.296009282109 ; 3538.067687060906 ; 3991859.0564089958 ; 615623.7775485989 ; 41412.00000000001
175 ; 12136.22253851906 ; 3538.067687060906 ; 4003954.352418278 ; 619161.8452356599 ; 41650.00000000001
176 ; 12243.410660054618 ; 3538.067687060906 ; 4016090.574956797 ; 622699.9129227208 ; 41888.00000000001
177 ; 12167.016722369504 ; 3538.067687060906 ; 4028333.9856168516 ; 626237.9806097817 ; 42126.00000000001
178 ; 12257.952808093047 ; 3538.067687060906 ; 4040501.002339221 ; 629776.0482968426 ; 42364.00000000001
179 ; 12276.185456658332 ; 3538.067687060906 ; 4052758.955147314 ; 633314.1159839035 ; 42602.00000000001
180 ; 12293.635562738 ; 3538.067687060906 ; 4065035.140603972 ; 636852.1836709644 ; 42840.00000000001
181 ; 12215.900023660723 ; 3538.067687060906 ; 4077328.77616671 ; 640390.2513580254 ; 43078.00000000001
182 ; 12348.501426005972 ; 3538.067687060906 ; 4089544.6761903707 ; 643928.3190450863 ; 43316.00000000001
183 ; 12412.612404342279 ; 3538.067687060906 ; 4101893.177616377 ; 647466.3867321472 ; 43554.00000000001
184 ; 12417.867752020587 ; 3538.067687060906 ; 4114305.790020719 ; 651004.4544192081 ; 43792.00000000001
185 ; 12302.491383619654 ; 3538.067687060906 ; 4126723.65777274 ; 654542.522106269 ; 44030.00000000001
186 ; 12610.846354729485 ; 3538.067687060906 ; 4139026.1491563595 ; 658080.58979333 ; 44268.00000000001
