CSV File for the City 1 on Day 163
1 - Minute m 
2 - Power Consumed at minute m 
3 - Power Produced at minute m 
4 - Energy Consumed since the beginning of the day 
5 - Energy Produced since the beginning of the day 
6 - Energy Lost since the beginning of the day on lines starting from the city
 
0 ; 7483.444406517612 ; 2760.3652583620133 ; 0.0 ; 0.0 ; 0.0
1 ; 8046.084962101703 ; 2760.3652583620133 ; 7483.444406517612 ; 2760.3652583620133 ; 238.00000000000003
2 ; 8462.892621771234 ; 2760.3652583620133 ; 15529.529368619314 ; 5520.7305167240265 ; 476.00000000000006
3 ; 8934.351823697732 ; 2760.3652583620133 ; 23992.421990390547 ; 8281.09577508604 ; 714.0000000000001
4 ; 9354.696475171737 ; 2760.3652583620133 ; 32926.77381408828 ; 11041.461033448053 ; 952.0000000000001
5 ; 10179.61135817741 ; 2760.3652583620133 ; 42281.47028926002 ; 13801.826291810066 ; 1190.0000000000002
6 ; 10532.724658432888 ; 2760.3652583620133 ; 52461.08164743743 ; 16562.19155017208 ; 1428.0000000000002
7 ; 10879.420562069196 ; 2760.3652583620133 ; 62993.80630587032 ; 19322.556808534093 ; 1666.0000000000002
8 ; 11517.382543077727 ; 2760.3652583620133 ; 73873.22686793952 ; 22082.922066896106 ; 1904.0000000000002
9 ; 11972.675252941208 ; 2760.3652583620133 ; 85390.60941101724 ; 24843.28732525812 ; 2142.0000000000005
10 ; 12350.753969667074 ; 2760.3652583620133 ; 97363.28466395845 ; 27603.652583620133 ; 2380.0000000000005
11 ; 12998.152674883197 ; 2760.3652583620133 ; 109714.03863362552 ; 30364.017841982146 ; 2618.0000000000005
12 ; 13266.374104843346 ; 2760.3652583620133 ; 122712.19130850871 ; 33124.38310034416 ; 2856.0000000000005
13 ; 13629.137622635657 ; 2760.3652583620133 ; 135978.56541335207 ; 35884.74835870617 ; 3094.0000000000005
14 ; 14252.987081147767 ; 2760.3652583620133 ; 149607.70303598774 ; 38645.113617068186 ; 3332.0000000000005
15 ; 14576.6115027789 ; 2760.3652583620133 ; 163860.6901171355 ; 41405.4788754302 ; 3570.0000000000005
16 ; 15002.029703749156 ; 2760.3652583620133 ; 178437.3016199144 ; 44165.84413379221 ; 3808.0000000000005
17 ; 15284.317509528712 ; 2760.3652583620133 ; 193439.33132366356 ; 46926.209392154225 ; 4046.0000000000005
18 ; 15617.439137464618 ; 2760.3652583620133 ; 208723.64883319227 ; 49686.57465051624 ; 4284.000000000001
19 ; 15931.194171221514 ; 2760.3652583620133 ; 224341.0879706569 ; 52446.93990887825 ; 4522.000000000001
20 ; 16617.062139914302 ; 2760.3652583620133 ; 240272.28214187842 ; 55207.305167240265 ; 4760.000000000001
21 ; 16971.313026603217 ; 2760.3652583620133 ; 256889.34428179273 ; 57967.67042560228 ; 4998.000000000001
22 ; 17096.95563882239 ; 2760.3652583620133 ; 273860.65730839595 ; 60728.03568396429 ; 5236.000000000001
23 ; 17690.5895363391 ; 2760.3652583620133 ; 290957.61294721835 ; 63488.400942326305 ; 5474.000000000001
24 ; 18094.87923267716 ; 2760.3652583620133 ; 308648.20248355746 ; 66248.76620068832 ; 5712.000000000001
25 ; 18458.591455254926 ; 2760.3652583620133 ; 326743.0817162346 ; 69009.13145905033 ; 5950.000000000001
26 ; 18834.61235291038 ; 2760.3652583620133 ; 345201.67317148956 ; 71769.49671741234 ; 6188.000000000001
27 ; 18899.58280570975 ; 2760.3652583620133 ; 364036.28552439995 ; 74529.86197577436 ; 6426.000000000001
28 ; 19293.35960927111 ; 2760.3652583620133 ; 382935.8683301097 ; 77290.22723413637 ; 6664.000000000001
29 ; 19669.75991851512 ; 2760.3652583620133 ; 402229.2279393808 ; 80050.59249249838 ; 6902.000000000001
30 ; 20039.57380927203 ; 2760.3652583620133 ; 421898.9878578959 ; 82810.9577508604 ; 7140.000000000001
31 ; 20342.107393340197 ; 2760.3652583620133 ; 441938.56166716793 ; 85571.32300922241 ; 7378.000000000001
32 ; 20538.316367097937 ; 2760.3652583620133 ; 462280.66906050814 ; 88331.68826758442 ; 7616.000000000001
33 ; 21116.48438898567 ; 2760.3652583620133 ; 482818.9854276061 ; 91092.05352594644 ; 7854.000000000001
34 ; 21212.738351320153 ; 2760.3652583620133 ; 503935.46981659177 ; 93852.41878430845 ; 8092.000000000001
35 ; 21633.407413777946 ; 2760.3652583620133 ; 525148.208167912 ; 96612.78404267046 ; 8330.000000000002
36 ; 21808.504468177533 ; 2760.3652583620133 ; 546781.6155816899 ; 99373.14930103248 ; 8568.000000000002
37 ; 22220.160095497456 ; 2760.3652583620133 ; 568590.1200498674 ; 102133.51455939449 ; 8806.000000000002
38 ; 22445.249185838566 ; 2760.3652583620133 ; 590810.2801453649 ; 104893.8798177565 ; 9044.000000000002
39 ; 22724.953263511485 ; 2760.3652583620133 ; 613255.5293312036 ; 107654.24507611852 ; 9282.000000000002
40 ; 23141.501451201028 ; 2760.3652583620133 ; 635980.4825947151 ; 110414.61033448053 ; 9520.000000000002
41 ; 23333.990229436997 ; 2760.3652583620133 ; 659121.9840459161 ; 113174.97559284254 ; 9758.000000000002
42 ; 23462.58574709582 ; 2760.3652583620133 ; 682455.9742753531 ; 115935.34085120456 ; 9996.000000000002
43 ; 23545.31008977959 ; 2760.3652583620133 ; 705918.560022449 ; 118695.70610956657 ; 10234.000000000002
44 ; 23944.058934751614 ; 2760.3652583620133 ; 729463.8701122286 ; 121456.07136792858 ; 10472.000000000002
45 ; 24206.569639654448 ; 2760.3652583620133 ; 753407.9290469802 ; 124216.4366262906 ; 10710.000000000002
46 ; 24470.615199004853 ; 2760.3652583620133 ; 777614.4986866347 ; 126976.80188465261 ; 10948.000000000002
47 ; 24611.16516444376 ; 2760.3652583620133 ; 802085.1138856396 ; 129737.16714301462 ; 11186.000000000002
48 ; 24625.673696890557 ; 2760.3652583620133 ; 826696.2790500834 ; 132497.53240137664 ; 11424.000000000002
49 ; 24979.98511096397 ; 2760.3652583620133 ; 851321.952746974 ; 135257.89765973866 ; 11662.000000000002
50 ; 25235.618855038523 ; 2760.3652583620133 ; 876301.9378579379 ; 138018.2629181007 ; 11900.000000000002
51 ; 25591.220908577925 ; 2760.3652583620133 ; 901537.5567129764 ; 140778.62817646272 ; 12138.000000000002
52 ; 25848.75985789432 ; 2760.3652583620133 ; 927128.7776215543 ; 143538.99343482475 ; 12376.000000000002
53 ; 25806.177123436344 ; 2760.3652583620133 ; 952977.5374794486 ; 146299.35869318678 ; 12614.000000000002
54 ; 25939.77037907148 ; 2760.3652583620133 ; 978783.714602885 ; 149059.7239515488 ; 12852.000000000002
55 ; 26128.450279658795 ; 2760.3652583620133 ; 1004723.4849819564 ; 151820.08920991083 ; 13090.000000000002
56 ; 26530.99493696582 ; 2760.3652583620133 ; 1030851.9352616152 ; 154580.45446827286 ; 13328.000000000002
57 ; 26523.84788774401 ; 2760.3652583620133 ; 1057382.930198581 ; 157340.8197266349 ; 13566.000000000002
58 ; 26730.30274681417 ; 2760.3652583620133 ; 1083906.778086325 ; 160101.18498499691 ; 13804.000000000002
59 ; 26721.41625556077 ; 2760.3652583620133 ; 1110637.0808331391 ; 162861.55024335894 ; 14042.000000000002
60 ; 27110.739332248282 ; 2760.3652583620133 ; 1137358.4970886998 ; 165621.91550172097 ; 14280.000000000002
61 ; 27078.39005005471 ; 2760.3652583620133 ; 1164469.236420948 ; 168382.280760083 ; 14518.000000000002
62 ; 27214.705268974998 ; 2760.3652583620133 ; 1191547.6264710028 ; 171142.64601844503 ; 14756.000000000002
63 ; 27381.980175476154 ; 2760.3652583620133 ; 1218762.331739978 ; 173903.01127680705 ; 14994.000000000002
64 ; 27213.463790130398 ; 2760.3652583620133 ; 1246144.311915454 ; 176663.37653516908 ; 15232.000000000002
65 ; 27591.370260792988 ; 2760.3652583620133 ; 1273357.7757055843 ; 179423.7417935311 ; 15470.000000000002
66 ; 27649.50529039779 ; 2760.3652583620133 ; 1300949.1459663773 ; 182184.10705189314 ; 15708.000000000002
67 ; 27877.11610729983 ; 2760.3652583620133 ; 1328598.651256775 ; 184944.47231025517 ; 15946.000000000002
68 ; 27740.899363217995 ; 2760.3652583620133 ; 1356475.767364075 ; 187704.8375686172 ; 16184.000000000002
69 ; 28048.533599734797 ; 2760.3652583620133 ; 1384216.666727293 ; 190465.20282697922 ; 16422.000000000004
70 ; 28099.88100876843 ; 2760.3652583620133 ; 1412265.2003270278 ; 193225.56808534125 ; 16660.000000000004
71 ; 28125.598787857154 ; 2760.3652583620133 ; 1440365.0813357963 ; 195985.93334370328 ; 16898.000000000004
72 ; 28099.68608946689 ; 2760.3652583620133 ; 1468490.6801236535 ; 198746.2986020653 ; 17136.000000000004
73 ; 28300.544438751494 ; 2760.3652583620133 ; 1496590.3662131203 ; 201506.66386042733 ; 17374.000000000004
74 ; 28214.62070097606 ; 2760.3652583620133 ; 1524890.9106518717 ; 204267.02911878936 ; 17612.000000000004
75 ; 28369.536495532597 ; 2760.3652583620133 ; 1553105.5313528478 ; 207027.3943771514 ; 17850.000000000004
76 ; 28200.3113429821 ; 2760.3652583620133 ; 1581475.0678483804 ; 209787.75963551342 ; 18088.000000000004
77 ; 28341.461648604556 ; 2760.3652583620133 ; 1609675.3791913625 ; 212548.12489387544 ; 18326.000000000004
78 ; 28402.00491010538 ; 2760.3652583620133 ; 1638016.8408399671 ; 215308.49015223747 ; 18564.000000000004
79 ; 28483.952920202682 ; 2760.3652583620133 ; 1666418.8457500725 ; 218068.8554105995 ; 18802.000000000004
80 ; 28515.293837330388 ; 2760.3652583620133 ; 1694902.7986702751 ; 220829.22066896153 ; 19040.000000000004
81 ; 28613.535901978605 ; 2760.3652583620133 ; 1723418.0925076054 ; 223589.58592732355 ; 19278.000000000004
82 ; 28624.58975239965 ; 2760.3652583620133 ; 1752031.628409584 ; 226349.95118568558 ; 19516.000000000004
83 ; 28601.321593632085 ; 2760.3652583620133 ; 1780656.2181619836 ; 229110.3164440476 ; 19754.000000000004
84 ; 28467.90298714784 ; 2760.3652583620133 ; 1809257.5397556156 ; 231870.68170240964 ; 19992.000000000004
85 ; 28668.493677608134 ; 2760.3652583620133 ; 1837725.4427427636 ; 234631.04696077167 ; 20230.000000000004
86 ; 28580.5806511771 ; 2760.3652583620133 ; 1866393.9364203718 ; 237391.4122191337 ; 20468.000000000004
87 ; 28471.539488000715 ; 2760.3652583620133 ; 1894974.5170715488 ; 240151.77747749572 ; 20706.000000000004
88 ; 28354.522012913287 ; 2760.3652583620133 ; 1923446.0565595496 ; 242912.14273585775 ; 20944.000000000004
89 ; 28242.299839813233 ; 2760.3652583620133 ; 1951800.578572463 ; 245672.50799421978 ; 21182.000000000004
90 ; 28301.764103728914 ; 2760.3652583620133 ; 1980042.8784122763 ; 248432.8732525818 ; 21420.000000000004
91 ; 28076.440256055634 ; 2760.3652583620133 ; 2008344.642516005 ; 251193.23851094383 ; 21658.000000000004
92 ; 28145.35790813951 ; 2760.3652583620133 ; 2036421.0827720608 ; 253953.60376930586 ; 21896.000000000004
93 ; 27958.98473720624 ; 2760.3652583620133 ; 2064566.4406802002 ; 256713.9690276679 ; 22134.000000000004
94 ; 27887.662379753714 ; 2760.3652583620133 ; 2092525.4254174065 ; 259474.33428602992 ; 22372.000000000004
95 ; 28019.881873583352 ; 2760.3652583620133 ; 2120413.0877971603 ; 262234.69954439194 ; 22610.000000000004
96 ; 27781.983309436946 ; 2760.3652583620133 ; 2148432.9696707437 ; 264995.064802754 ; 22848.000000000004
97 ; 27810.21352596868 ; 2760.3652583620133 ; 2176214.9529801807 ; 267755.430061116 ; 23086.000000000004
98 ; 27861.717834132036 ; 2760.3652583620133 ; 2204025.1665061493 ; 270515.795319478 ; 23324.000000000004
99 ; 27522.649541967574 ; 2760.3652583620133 ; 2231886.8843402816 ; 273276.16057784006 ; 23562.000000000004
100 ; 27462.67007205885 ; 2760.3652583620133 ; 2259409.533882249 ; 276036.5258362021 ; 23800.000000000004
101 ; 27487.952191092692 ; 2760.3652583620133 ; 2286872.203954308 ; 278796.8910945641 ; 24038.000000000004
102 ; 27349.973916376995 ; 2760.3652583620133 ; 2314360.1561454004 ; 281557.25635292614 ; 24276.000000000004
103 ; 27130.762359266773 ; 2760.3652583620133 ; 2341710.1300617773 ; 284317.62161128817 ; 24514.000000000004
104 ; 27102.609549678138 ; 2760.3652583620133 ; 2368840.892421044 ; 287077.9868696502 ; 24752.000000000004
105 ; 26816.762429270722 ; 2760.3652583620133 ; 2395943.501970722 ; 289838.3521280122 ; 24990.000000000004
106 ; 26719.975514333193 ; 2760.3652583620133 ; 2422760.264399993 ; 292598.71738637425 ; 25228.000000000004
107 ; 26631.964716128576 ; 2760.3652583620133 ; 2449480.239914326 ; 295359.0826447363 ; 25466.000000000004
108 ; 26257.025211839744 ; 2760.3652583620133 ; 2476112.2046304545 ; 298119.4479030983 ; 25704.000000000004
109 ; 26196.004575778847 ; 2760.3652583620133 ; 2502369.2298422945 ; 300879.81316146033 ; 25942.000000000004
110 ; 25934.754211576368 ; 2760.3652583620133 ; 2528565.234418073 ; 303640.17841982236 ; 26180.000000000004
111 ; 25875.388834318037 ; 2760.3652583620133 ; 2554499.9886296494 ; 306400.5436781844 ; 26418.000000000004
112 ; 25608.07137721836 ; 2760.3652583620133 ; 2580375.3774639675 ; 309160.9089365464 ; 26656.000000000004
113 ; 25403.25315443913 ; 2760.3652583620133 ; 2605983.448841186 ; 311921.27419490844 ; 26894.000000000004
114 ; 25409.197588807707 ; 2760.3652583620133 ; 2631386.7019956247 ; 314681.6394532705 ; 27132.000000000004
115 ; 24927.694950437675 ; 2760.3652583620133 ; 2656795.8995844326 ; 317442.0047116325 ; 27370.000000000004
116 ; 24766.718758900435 ; 2760.3652583620133 ; 2681723.5945348702 ; 320202.3699699945 ; 27608.000000000004
117 ; 24822.078610857985 ; 2760.3652583620133 ; 2706490.313293771 ; 322962.73522835656 ; 27846.000000000004
118 ; 24495.94095646199 ; 2760.3652583620133 ; 2731312.391904629 ; 325723.1004867186 ; 28084.000000000004
119 ; 24254.90775662408 ; 2760.3652583620133 ; 2755808.332861091 ; 328483.4657450806 ; 28322.000000000004
120 ; 23963.851906359156 ; 2760.3652583620133 ; 2780063.2406177153 ; 331243.83100344264 ; 28560.000000000004
121 ; 23715.611295201477 ; 2760.3652583620133 ; 2804027.0925240745 ; 334004.19626180467 ; 28798.000000000004
122 ; 23378.991844902113 ; 2760.3652583620133 ; 2827742.703819276 ; 336764.5615201667 ; 29036.000000000004
123 ; 23225.126509576836 ; 2760.3652583620133 ; 2851121.695664178 ; 339524.9267785287 ; 29274.000000000004
124 ; 22948.197851381618 ; 2760.3652583620133 ; 2874346.822173755 ; 342285.29203689075 ; 29512.000000000004
125 ; 22763.182865753955 ; 2760.3652583620133 ; 2897295.020025137 ; 345045.6572952528 ; 29750.000000000004
126 ; 22411.542565093456 ; 2760.3652583620133 ; 2920058.2028908907 ; 347806.0225536148 ; 29988.000000000004
127 ; 22057.05270367707 ; 2760.3652583620133 ; 2942469.745455984 ; 350566.38781197683 ; 30226.000000000004
128 ; 21768.85578448795 ; 2760.3652583620133 ; 2964526.7981596612 ; 353326.75307033886 ; 30464.000000000004
129 ; 21636.35392945546 ; 2760.3652583620133 ; 2986295.653944149 ; 356087.1183287009 ; 30702.000000000004
130 ; 21132.082484980227 ; 2760.3652583620133 ; 3007932.0078736045 ; 358847.4835870629 ; 30940.000000000004
131 ; 20841.450224755867 ; 2760.3652583620133 ; 3029064.0903585847 ; 361607.84884542495 ; 31178.000000000004
132 ; 20626.93143806037 ; 2760.3652583620133 ; 3049905.5405833405 ; 364368.214103787 ; 31416.000000000004
133 ; 20426.883068494757 ; 2760.3652583620133 ; 3070532.472021401 ; 367128.579362149 ; 31654.000000000004
134 ; 19973.01950835444 ; 2760.3652583620133 ; 3090959.355089896 ; 369888.944620511 ; 31892.000000000004
135 ; 19768.415476984585 ; 2760.3652583620133 ; 3110932.3745982503 ; 372649.30987887306 ; 32130.000000000004
136 ; 19464.776063740326 ; 2760.3652583620133 ; 3130700.790075235 ; 375409.6751372351 ; 32368.000000000004
137 ; 18869.387737714358 ; 2760.3652583620133 ; 3150165.5661389753 ; 378170.0403955971 ; 32606.000000000004
138 ; 18707.594597138686 ; 2760.3652583620133 ; 3169034.9538766895 ; 380930.40565395914 ; 32844.00000000001
139 ; 18306.869600097416 ; 2760.3652583620133 ; 3187742.548473828 ; 383690.77091232117 ; 33082.00000000001
140 ; 17994.41911111312 ; 2760.3652583620133 ; 3206049.418073925 ; 386451.1361706832 ; 33320.00000000001
141 ; 17589.129281691243 ; 2760.3652583620133 ; 3224043.8371850383 ; 389211.5014290452 ; 33558.00000000001
142 ; 17187.40208609507 ; 2760.3652583620133 ; 3241632.9664667295 ; 391971.86668740725 ; 33796.00000000001
143 ; 16714.52525557554 ; 2760.3652583620133 ; 3258820.3685528245 ; 394732.2319457693 ; 34034.00000000001
144 ; 16498.584043467024 ; 2760.3652583620133 ; 3275534.8938084 ; 397492.5972041313 ; 34272.00000000001
145 ; 16285.482519244915 ; 2760.3652583620133 ; 3292033.4778518667 ; 400252.96246249333 ; 34510.00000000001
146 ; 16286.21511277294 ; 2760.3652583620133 ; 3308318.9603711115 ; 403013.32772085536 ; 34748.00000000001
147 ; 16156.999119591603 ; 2760.3652583620133 ; 3324605.1754838843 ; 405773.6929792174 ; 34986.00000000001
148 ; 16230.756697480256 ; 2760.3652583620133 ; 3340762.1746034757 ; 408534.0582375794 ; 35224.00000000001
149 ; 15696.999281873992 ; 2760.3652583620133 ; 3356992.931300956 ; 411294.42349594145 ; 35462.00000000001
150 ; 15700.31717353058 ; 2760.3652583620133 ; 3372689.9305828298 ; 414054.7887543035 ; 35700.00000000001
151 ; 15877.77232187978 ; 2760.3652583620133 ; 3388390.24775636 ; 416815.1540126655 ; 35938.00000000001
152 ; 15635.552538083695 ; 2760.3652583620133 ; 3404268.02007824 ; 419575.51927102753 ; 36176.00000000001
153 ; 15396.960140773028 ; 2760.3652583620133 ; 3419903.572616324 ; 422335.88452938956 ; 36414.00000000001
154 ; 15255.53061990288 ; 2760.3652583620133 ; 3435300.532757097 ; 425096.2497877516 ; 36652.00000000001
155 ; 15135.473409684033 ; 2760.3652583620133 ; 3450556.063377 ; 427856.6150461136 ; 36890.00000000001
156 ; 15103.44625467738 ; 2760.3652583620133 ; 3465691.536786684 ; 430616.98030447564 ; 37128.00000000001
157 ; 15055.69810321226 ; 2760.3652583620133 ; 3480794.9830413614 ; 433377.34556283767 ; 37366.00000000001
158 ; 14708.047523071493 ; 2760.3652583620133 ; 3495850.6811445737 ; 436137.7108211997 ; 37604.00000000001
159 ; 14677.606689974613 ; 2760.3652583620133 ; 3510558.7286676452 ; 438898.0760795617 ; 37842.00000000001
160 ; 14407.864252343894 ; 2760.3652583620133 ; 3525236.33535762 ; 441658.44133792375 ; 38080.00000000001
161 ; 14315.704253704856 ; 2760.3652583620133 ; 3539644.1996099637 ; 444418.8065962858 ; 38318.00000000001
162 ; 14125.009110433619 ; 2760.3652583620133 ; 3553959.9038636684 ; 447179.1718546478 ; 38556.00000000001
163 ; 14013.457988580512 ; 2760.3652583620133 ; 3568084.912974102 ; 449939.53711300984 ; 38794.00000000001
164 ; 13947.885738222829 ; 2760.3652583620133 ; 3582098.3709626826 ; 452699.90237137186 ; 39032.00000000001
165 ; 13798.314770808525 ; 2760.3652583620133 ; 3596046.2567009055 ; 455460.2676297339 ; 39270.00000000001
166 ; 13654.257822490577 ; 2760.3652583620133 ; 3609844.571471714 ; 458220.6328880959 ; 39508.00000000001
167 ; 13372.049640073037 ; 2760.3652583620133 ; 3623498.8292942047 ; 460980.99814645795 ; 39746.00000000001
168 ; 13134.463478102309 ; 2760.3652583620133 ; 3636870.8789342777 ; 463741.36340482 ; 39984.00000000001
169 ; 13008.312183538936 ; 2760.3652583620133 ; 3650005.34241238 ; 466501.728663182 ; 40222.00000000001
170 ; 12993.990335454593 ; 2760.3652583620133 ; 3663013.654595919 ; 469262.09392154403 ; 40460.00000000001
171 ; 12577.26041536213 ; 2760.3652583620133 ; 3676007.6449313737 ; 472022.45917990606 ; 40698.00000000001
172 ; 12492.032101007866 ; 2760.3652583620133 ; 3688584.905346736 ; 474782.8244382681 ; 40936.00000000001
173 ; 12375.33114826278 ; 2760.3652583620133 ; 3701076.9374477435 ; 477543.1896966301 ; 41174.00000000001
174 ; 12437.812231322258 ; 2760.3652583620133 ; 3713452.268596006 ; 480303.55495499214 ; 41412.00000000001
175 ; 12352.598900122463 ; 2760.3652583620133 ; 3725890.0808273284 ; 483063.92021335417 ; 41650.00000000001
176 ; 12501.6913171938 ; 2760.3652583620133 ; 3738242.679727451 ; 485824.2854717162 ; 41888.00000000001
177 ; 12685.290080006927 ; 2760.3652583620133 ; 3750744.3710446446 ; 488584.6507300782 ; 42126.00000000001
178 ; 12621.309943671322 ; 2760.3652583620133 ; 3763429.6611246513 ; 491345.01598844025 ; 42364.00000000001
179 ; 12616.035818757464 ; 2760.3652583620133 ; 3776050.9710683227 ; 494105.3812468023 ; 42602.00000000001
180 ; 12652.556838595838 ; 2760.3652583620133 ; 3788667.00688708 ; 496865.7465051643 ; 42840.00000000001
181 ; 12677.832478135504 ; 2760.3652583620133 ; 3801319.563725676 ; 499626.11176352634 ; 43078.00000000001
182 ; 12604.418541604788 ; 2760.3652583620133 ; 3813997.3962038113 ; 502386.47702188836 ; 43316.00000000001
183 ; 12506.317179084801 ; 2760.3652583620133 ; 3826601.814745416 ; 505146.8422802504 ; 43554.00000000001
184 ; 12870.353255631799 ; 2760.3652583620133 ; 3839108.1319245007 ; 507907.2075386124 ; 43792.00000000001
