CSV File for the City 2 on Day 256
1 - Minute m 
2 - Power Consumed at minute m 
3 - Power Produced at minute m 
4 - Energy Consumed since the beginning of the day 
5 - Energy Produced since the beginning of the day 
6 - Energy Lost since the beginning of the day on lines starting from the city
 
0 ; 5713.034869727207 ; 32256.010222718316 ; 0.0 ; 0.0 ; 0.0
1 ; 6210.721360938295 ; 32256.010222718316 ; 5713.034869727207 ; 32256.010222718316 ; 0.0
2 ; 6895.433458407934 ; 32256.010222718316 ; 11923.756230665502 ; 64512.02044543663 ; 0.0
3 ; 7160.285654423576 ; 32256.010222718316 ; 18819.189689073435 ; 96768.03066815494 ; 0.0
4 ; 7516.145635761515 ; 32256.010222718316 ; 25979.47534349701 ; 129024.04089087326 ; 0.0
5 ; 8187.638521031788 ; 32256.010222718316 ; 33495.62097925853 ; 161280.0511135916 ; 0.0
6 ; 8564.018389717025 ; 32256.010222718316 ; 41683.25950029032 ; 193536.0613363099 ; 0.0
7 ; 8972.552458236041 ; 32256.010222718316 ; 50247.277890007346 ; 225792.07155902823 ; 0.0
8 ; 9407.979644042183 ; 32256.010222718316 ; 59219.830348243384 ; 258048.08178174656 ; 0.0
9 ; 9917.488950380752 ; 32256.010222718316 ; 68627.80999228556 ; 290304.0920044649 ; 0.0
10 ; 10286.090428729083 ; 32256.010222718316 ; 78545.29894266631 ; 322560.1022271832 ; 0.0
11 ; 10723.764156482783 ; 32256.010222718316 ; 88831.3893713954 ; 354816.11244990147 ; 0.0
12 ; 11130.519419869497 ; 32256.010222718316 ; 99555.15352787818 ; 387072.12267261976 ; 0.0
13 ; 11627.735339352987 ; 32256.010222718316 ; 110685.67294774768 ; 419328.13289533806 ; 0.0
14 ; 12065.681204991335 ; 32256.010222718316 ; 122313.40828710067 ; 451584.14311805635 ; 0.0
15 ; 12504.999195208717 ; 32256.010222718316 ; 134379.089492092 ; 483840.15334077465 ; 0.0
16 ; 12816.260820218211 ; 32256.010222718316 ; 146884.0886873007 ; 516096.16356349294 ; 0.0
17 ; 13010.339860592301 ; 32256.010222718316 ; 159700.34950751893 ; 548352.1737862113 ; 0.0
18 ; 13464.996587723062 ; 32256.010222718316 ; 172710.68936811123 ; 580608.1840089296 ; 0.0
19 ; 14057.373291443053 ; 32256.010222718316 ; 186175.68595583428 ; 612864.194231648 ; 0.0
20 ; 14269.069074963434 ; 32256.010222718316 ; 200233.05924727733 ; 645120.2044543664 ; 0.0
21 ; 14513.755767089506 ; 32256.010222718316 ; 214502.12832224075 ; 677376.2146770847 ; 0.0
22 ; 15206.561256975341 ; 32256.010222718316 ; 229015.88408933027 ; 709632.224899803 ; 0.0
23 ; 15253.080433608715 ; 32256.010222718316 ; 244222.4453463056 ; 741888.2351225214 ; 0.0
24 ; 15702.91420033131 ; 32256.010222718316 ; 259475.52577991431 ; 774144.2453452398 ; 0.0
25 ; 15964.650929723084 ; 32256.010222718316 ; 275178.4399802456 ; 806400.2555679581 ; 0.0
26 ; 16376.421273373717 ; 32256.010222718316 ; 291143.0909099687 ; 838656.2657906765 ; 0.0
27 ; 16614.37473988659 ; 32256.010222718316 ; 307519.5121833424 ; 870912.2760133948 ; 0.0
28 ; 16846.17608471078 ; 32256.010222718316 ; 324133.88692322903 ; 903168.2862361132 ; 0.0
29 ; 17292.662094896645 ; 32256.010222718316 ; 340980.06300793984 ; 935424.2964588315 ; 0.0
30 ; 17856.721351267344 ; 32256.010222718316 ; 358272.7251028365 ; 967680.3066815499 ; 0.0
31 ; 17795.927195273718 ; 32256.010222718316 ; 376129.44645410386 ; 999936.3169042682 ; 0.0
32 ; 18273.996585969988 ; 32256.010222718316 ; 393925.3736493776 ; 1032192.3271269866 ; 0.0
33 ; 18592.177419641423 ; 32256.010222718316 ; 412199.3702353476 ; 1064448.337349705 ; 0.0
34 ; 18740.48847765255 ; 32256.010222718316 ; 430791.547654989 ; 1096704.3475724233 ; 0.0
35 ; 19095.486592091045 ; 32256.010222718316 ; 449532.03613264154 ; 1128960.3577951416 ; 0.0
36 ; 19301.588010569296 ; 32256.010222718316 ; 468627.5227247326 ; 1161216.36801786 ; 0.0
37 ; 19618.480620573504 ; 32256.010222718316 ; 487929.11073530186 ; 1193472.3782405783 ; 0.0
38 ; 19852.523371109037 ; 32256.010222718316 ; 507547.59135587537 ; 1225728.3884632967 ; 0.0
39 ; 20210.058897065155 ; 32256.010222718316 ; 527400.1147269844 ; 1257984.398686015 ; 0.0
40 ; 20500.625866904447 ; 32256.010222718316 ; 547610.1736240495 ; 1290240.4089087334 ; 0.0
41 ; 20830.667463874368 ; 32256.010222718316 ; 568110.799490954 ; 1322496.4191314518 ; 0.0
42 ; 20894.10370282993 ; 32256.010222718316 ; 588941.4669548284 ; 1354752.42935417 ; 0.0
43 ; 21026.747380257915 ; 32256.010222718316 ; 609835.5706576583 ; 1387008.4395768885 ; 0.0
44 ; 21513.312272425763 ; 32256.010222718316 ; 630862.3180379162 ; 1419264.4497996068 ; 0.0
45 ; 21449.95546652565 ; 32256.010222718316 ; 652375.630310342 ; 1451520.4600223252 ; 0.0
46 ; 21759.694688730182 ; 32256.010222718316 ; 673825.5857768676 ; 1483776.4702450435 ; 0.0
47 ; 22024.33277564632 ; 32256.010222718316 ; 695585.2804655978 ; 1516032.4804677619 ; 0.0
48 ; 22215.958118331237 ; 32256.010222718316 ; 717609.6132412441 ; 1548288.4906904802 ; 0.0
49 ; 22526.94761127592 ; 32256.010222718316 ; 739825.5713595754 ; 1580544.5009131986 ; 0.0
50 ; 22618.593843343355 ; 32256.010222718316 ; 762352.5189708513 ; 1612800.511135917 ; 0.0
51 ; 22911.32191273161 ; 32256.010222718316 ; 784971.1128141946 ; 1645056.5213586353 ; 0.0
52 ; 23163.846143164494 ; 32256.010222718316 ; 807882.4347269263 ; 1677312.5315813536 ; 0.0
53 ; 23115.050523277605 ; 32256.010222718316 ; 831046.2808700907 ; 1709568.541804072 ; 0.0
54 ; 23380.099652278423 ; 32256.010222718316 ; 854161.3313933683 ; 1741824.5520267903 ; 0.0
55 ; 23412.31701171694 ; 32256.010222718316 ; 877541.4310456468 ; 1774080.5622495087 ; 0.0
56 ; 23641.659583226505 ; 32256.010222718316 ; 900953.7480573637 ; 1806336.572472227 ; 0.0
57 ; 23759.605819870336 ; 32256.010222718316 ; 924595.4076405902 ; 1838592.5826949454 ; 0.0
58 ; 23831.425888073045 ; 32256.010222718316 ; 948355.0134604606 ; 1870848.5929176637 ; 0.0
59 ; 24064.90059421368 ; 32256.010222718316 ; 972186.4393485336 ; 1903104.603140382 ; 0.0
60 ; 24278.252192131997 ; 32256.010222718316 ; 996251.3399427473 ; 1935360.6133631004 ; 0.0
61 ; 24302.870663512917 ; 32256.010222718316 ; 1020529.5921348792 ; 1967616.6235858188 ; 0.0
62 ; 24497.183697117594 ; 32256.010222718316 ; 1044832.4627983922 ; 1999872.6338085372 ; 0.0
63 ; 24470.79279625223 ; 32256.010222718316 ; 1069329.6464955097 ; 2032128.6440312555 ; 0.0
64 ; 24649.995527038685 ; 32256.010222718316 ; 1093800.439291762 ; 2064384.6542539739 ; 0.0
65 ; 24876.779361459594 ; 32256.010222718316 ; 1118450.4348188005 ; 2096640.6644766922 ; 0.0
66 ; 24908.323121512865 ; 32256.010222718316 ; 1143327.2141802602 ; 2128896.6746994103 ; 0.0
67 ; 24911.317650187273 ; 32256.010222718316 ; 1168235.537301773 ; 2161152.6849221285 ; 0.0
68 ; 25088.36793957967 ; 32256.010222718316 ; 1193146.8549519603 ; 2193408.6951448466 ; 0.0
69 ; 25096.43245749307 ; 32256.010222718316 ; 1218235.22289154 ; 2225664.7053675647 ; 0.0
70 ; 25432.963716763472 ; 32256.010222718316 ; 1243331.6553490332 ; 2257920.715590283 ; 0.0
71 ; 25229.714391289814 ; 32256.010222718316 ; 1268764.6190657967 ; 2290176.725813001 ; 0.0
72 ; 25396.84725797058 ; 32256.010222718316 ; 1293994.3334570865 ; 2322432.736035719 ; 0.0
73 ; 25439.493341913025 ; 32256.010222718316 ; 1319391.180715057 ; 2354688.746258437 ; 0.0
74 ; 25529.050645749347 ; 32256.010222718316 ; 1344830.67405697 ; 2386944.7564811553 ; 0.0
75 ; 25474.04732573401 ; 32256.010222718316 ; 1370359.7247027194 ; 2419200.7667038734 ; 0.0
76 ; 25497.035471410385 ; 32256.010222718316 ; 1395833.7720284534 ; 2451456.7769265915 ; 0.0
77 ; 25591.124272050918 ; 32256.010222718316 ; 1421330.807499864 ; 2483712.7871493096 ; 0.0
78 ; 25508.248466989302 ; 32256.010222718316 ; 1446921.931771915 ; 2515968.7973720278 ; 0.0
79 ; 25462.904442628384 ; 32256.010222718316 ; 1472430.1802389042 ; 2548224.807594746 ; 0.0
80 ; 25789.278374082638 ; 32256.010222718316 ; 1497893.0846815326 ; 2580480.817817464 ; 0.0
81 ; 25543.7648733141 ; 32256.010222718316 ; 1523682.3630556152 ; 2612736.828040182 ; 0.0
82 ; 25626.928928965473 ; 32256.010222718316 ; 1549226.1279289294 ; 2644992.8382629002 ; 0.0
83 ; 25758.230210426398 ; 32256.010222718316 ; 1574853.0568578949 ; 2677248.8484856184 ; 0.0
84 ; 25804.847176399224 ; 32256.010222718316 ; 1600611.2870683214 ; 2709504.8587083365 ; 0.0
85 ; 25502.445658589117 ; 32256.010222718316 ; 1626416.1342447207 ; 2741760.8689310546 ; 0.0
86 ; 25717.022349294846 ; 32256.010222718316 ; 1651918.5799033097 ; 2774016.8791537727 ; 0.0
87 ; 25722.51196828906 ; 32256.010222718316 ; 1677635.6022526044 ; 2806272.889376491 ; 0.0
88 ; 25548.521394847223 ; 32256.010222718316 ; 1703358.1142208935 ; 2838528.899599209 ; 0.0
89 ; 25488.43758779527 ; 32256.010222718316 ; 1728906.6356157407 ; 2870784.909821927 ; 0.0
90 ; 25628.98104517996 ; 32256.010222718316 ; 1754395.073203536 ; 2903040.920044645 ; 0.0
91 ; 25390.13218106392 ; 32256.010222718316 ; 1780024.054248716 ; 2935296.9302673633 ; 0.0
92 ; 25288.340787339745 ; 32256.010222718316 ; 1805414.18642978 ; 2967552.9404900814 ; 0.0
93 ; 25197.86577496459 ; 32256.010222718316 ; 1830702.5272171197 ; 2999808.9507127996 ; 0.0
94 ; 25054.960573518398 ; 32256.010222718316 ; 1855900.3929920844 ; 3032064.9609355177 ; 0.0
95 ; 25231.35983221221 ; 32256.010222718316 ; 1880955.3535656028 ; 3064320.971158236 ; 0.0
96 ; 25074.960000262785 ; 32256.010222718316 ; 1906186.713397815 ; 3096576.981380954 ; 0.0
97 ; 25152.826284904975 ; 32256.010222718316 ; 1931261.6733980777 ; 3128832.991603672 ; 0.0
98 ; 24867.42902863468 ; 32256.010222718316 ; 1956414.4996829827 ; 3161089.00182639 ; 0.0
99 ; 24738.83045805727 ; 32256.010222718316 ; 1981281.9287116174 ; 3193345.0120491083 ; 0.0
100 ; 24708.254984790587 ; 32256.010222718316 ; 2006020.7591696747 ; 3225601.0222718264 ; 0.0
101 ; 24683.80929313693 ; 32256.010222718316 ; 2030729.0141544654 ; 3257857.0324945445 ; 0.0
102 ; 24478.961060295314 ; 32256.010222718316 ; 2055412.8234476023 ; 3290113.0427172626 ; 0.0
103 ; 24395.61942945856 ; 32256.010222718316 ; 2079891.7845078977 ; 3322369.0529399808 ; 0.0
104 ; 24338.270429211665 ; 32256.010222718316 ; 2104287.403937356 ; 3354625.063162699 ; 0.0
105 ; 24112.731701900855 ; 32256.010222718316 ; 2128625.6743665677 ; 3386881.073385417 ; 0.0
106 ; 23993.495801733687 ; 32256.010222718316 ; 2152738.4060684685 ; 3419137.083608135 ; 0.0
107 ; 24024.486908756047 ; 32256.010222718316 ; 2176731.9018702023 ; 3451393.0938308532 ; 0.0
108 ; 23697.818605875495 ; 32256.010222718316 ; 2200756.3887789585 ; 3483649.1040535714 ; 0.0
109 ; 23500.12440779877 ; 32256.010222718316 ; 2224454.207384834 ; 3515905.1142762895 ; 0.0
110 ; 23388.284809323963 ; 32256.010222718316 ; 2247954.331792633 ; 3548161.1244990076 ; 0.0
111 ; 23114.87442951507 ; 32256.010222718316 ; 2271342.616601957 ; 3580417.1347217257 ; 0.0
112 ; 22908.65853867917 ; 32256.010222718316 ; 2294457.491031472 ; 3612673.144944444 ; 0.0
113 ; 22916.641547437863 ; 32256.010222718316 ; 2317366.149570151 ; 3644929.155167162 ; 0.0
114 ; 22699.392995534487 ; 32256.010222718316 ; 2340282.791117589 ; 3677185.16538988 ; 0.0
115 ; 22600.818873879984 ; 32256.010222718316 ; 2362982.1841131235 ; 3709441.175612598 ; 0.0
116 ; 22390.246103979385 ; 32256.010222718316 ; 2385583.0029870034 ; 3741697.1858353163 ; 0.0
117 ; 22107.047010773982 ; 32256.010222718316 ; 2407973.2490909826 ; 3773953.1960580344 ; 0.0
118 ; 21793.22246931464 ; 32256.010222718316 ; 2430080.2961017564 ; 3806209.2062807526 ; 0.0
119 ; 21642.469667863377 ; 32256.010222718316 ; 2451873.518571071 ; 3838465.2165034707 ; 0.0
120 ; 21630.70372099011 ; 32256.010222718316 ; 2473515.9882389344 ; 3870721.226726189 ; 0.0
121 ; 21209.66947852425 ; 32256.010222718316 ; 2495146.6919599245 ; 3902977.236948907 ; 0.0
122 ; 20902.530680511034 ; 32256.010222718316 ; 2516356.361438449 ; 3935233.247171625 ; 0.0
123 ; 20732.05983094281 ; 32256.010222718316 ; 2537258.89211896 ; 3967489.257394343 ; 0.0
124 ; 20621.3079218188 ; 32256.010222718316 ; 2557990.951949903 ; 3999745.2676170613 ; 0.0
125 ; 20137.39845789465 ; 32256.010222718316 ; 2578612.2598717217 ; 4032001.2778397794 ; 0.0
126 ; 20085.334620189664 ; 32256.010222718316 ; 2598749.6583296163 ; 4064257.2880624975 ; 0.0
127 ; 19735.445033982895 ; 32256.010222718316 ; 2618834.992949806 ; 4096513.2982852156 ; 0.0
128 ; 19489.55427619372 ; 32256.010222718316 ; 2638570.437983789 ; 4128769.3085079337 ; 0.0
129 ; 19396.508948633098 ; 32256.010222718316 ; 2658059.9922599825 ; 4161025.318730652 ; 0.0
130 ; 18968.98051530138 ; 32256.010222718316 ; 2677456.5012086155 ; 4193281.32895337 ; 0.0
131 ; 18626.833383634552 ; 32256.010222718316 ; 2696425.4817239167 ; 4225537.339176089 ; 0.0
132 ; 18401.0559695091 ; 32256.010222718316 ; 2715052.3151075514 ; 4257793.349398807 ; 0.0
133 ; 18088.90552485316 ; 32256.010222718316 ; 2733453.3710770607 ; 4290049.359621525 ; 0.0
134 ; 17817.51302377909 ; 32256.010222718316 ; 2751542.276601914 ; 4322305.369844243 ; 0.0
135 ; 17561.39382557083 ; 32256.010222718316 ; 2769359.789625693 ; 4354561.380066961 ; 0.0
136 ; 17080.74453322487 ; 32256.010222718316 ; 2786921.183451264 ; 4386817.390289679 ; 0.0
137 ; 16707.886339082113 ; 32256.010222718316 ; 2804001.927984489 ; 4419073.400512397 ; 0.0
138 ; 16495.51622451686 ; 32256.010222718316 ; 2820709.814323571 ; 4451329.410735115 ; 0.0
139 ; 16281.032523220982 ; 32256.010222718316 ; 2837205.330548088 ; 4483585.4209578335 ; 0.0
140 ; 15761.762654091088 ; 32256.010222718316 ; 2853486.363071309 ; 4515841.431180552 ; 0.0
141 ; 15523.163331357213 ; 32256.010222718316 ; 2869248.1257254 ; 4548097.44140327 ; 0.0
142 ; 15178.298168171474 ; 32256.010222718316 ; 2884771.2890567575 ; 4580353.451625988 ; 0.0
143 ; 14899.525396044004 ; 32256.010222718316 ; 2899949.587224929 ; 4612609.461848706 ; 0.0
144 ; 14403.921954177727 ; 32256.010222718316 ; 2914849.112620973 ; 4644865.472071424 ; 0.0
145 ; 14501.312083982257 ; 32256.010222718316 ; 2929253.034575151 ; 4677121.482294142 ; 0.0
146 ; 14117.790822529136 ; 32256.010222718316 ; 2943754.346659133 ; 4709377.49251686 ; 0.0
147 ; 14239.629337625747 ; 32256.010222718316 ; 2957872.1374816624 ; 4741633.5027395785 ; 0.0
148 ; 14067.1659834863 ; 32256.010222718316 ; 2972111.766819288 ; 4773889.512962297 ; 0.0
149 ; 13802.123125863653 ; 32256.010222718316 ; 2986178.9328027745 ; 4806145.523185015 ; 0.0
150 ; 13789.635936895858 ; 32256.010222718316 ; 2999981.055928638 ; 4838401.533407733 ; 0.0
151 ; 13550.456057905207 ; 32256.010222718316 ; 3013770.691865534 ; 4870657.543630451 ; 0.0
152 ; 13561.963982820904 ; 32256.010222718316 ; 3027321.1479234393 ; 4902913.553853169 ; 0.0
153 ; 13570.362516869724 ; 32256.010222718316 ; 3040883.1119062603 ; 4935169.564075887 ; 0.0
154 ; 13381.702040289454 ; 32256.010222718316 ; 3054453.47442313 ; 4967425.574298605 ; 0.0
155 ; 13042.180478949325 ; 32256.010222718316 ; 3067835.1764634196 ; 4999681.584521323 ; 0.0
156 ; 13118.64308808128 ; 32256.010222718316 ; 3080877.3569423687 ; 5031937.594744042 ; 0.0
157 ; 13026.686090569105 ; 32256.010222718316 ; 3093996.00003045 ; 5064193.60496676 ; 0.0
158 ; 12937.796268733156 ; 32256.010222718316 ; 3107022.686121019 ; 5096449.615189478 ; 0.0
159 ; 12809.3640548494 ; 32256.010222718316 ; 3119960.4823897523 ; 5128705.625412196 ; 0.0
160 ; 12567.503121671423 ; 32256.010222718316 ; 3132769.8464446017 ; 5160961.635634914 ; 0.0
161 ; 12486.108738443523 ; 32256.010222718316 ; 3145337.349566273 ; 5193217.645857632 ; 0.0
162 ; 12234.01375947662 ; 32256.010222718316 ; 3157823.4583047163 ; 5225473.65608035 ; 0.0
163 ; 12184.767927973315 ; 32256.010222718316 ; 3170057.472064193 ; 5257729.666303068 ; 0.0
164 ; 11902.346354384781 ; 32256.010222718316 ; 3182242.2399921664 ; 5289985.6765257865 ; 0.0
165 ; 12001.736619178688 ; 32256.010222718316 ; 3194144.5863465513 ; 5322241.686748505 ; 0.0
166 ; 11944.49547951802 ; 32256.010222718316 ; 3206146.32296573 ; 5354497.696971223 ; 0.0
167 ; 11542.172193394588 ; 32256.010222718316 ; 3218090.818445248 ; 5386753.707193941 ; 0.0
168 ; 11553.346941028001 ; 32256.010222718316 ; 3229632.9906386426 ; 5419009.717416659 ; 0.0
169 ; 11344.985657409845 ; 32256.010222718316 ; 3241186.3375796704 ; 5451265.727639377 ; 0.0
170 ; 11057.066291557085 ; 32256.010222718316 ; 3252531.32323708 ; 5483521.737862095 ; 0.0
171 ; 11108.530977038974 ; 32256.010222718316 ; 3263588.3895286373 ; 5515777.748084813 ; 0.0
172 ; 10847.523212353262 ; 32256.010222718316 ; 3274696.9205056764 ; 5548033.7583075315 ; 0.0
173 ; 10727.086733302058 ; 32256.010222718316 ; 3285544.4437180297 ; 5580289.76853025 ; 0.0
174 ; 11021.311765911885 ; 32256.010222718316 ; 3296271.5304513318 ; 5612545.778752968 ; 0.0
175 ; 10867.393971915972 ; 32256.010222718316 ; 3307292.8422172437 ; 5644801.788975686 ; 0.0
176 ; 11040.737185676993 ; 32256.010222718316 ; 3318160.2361891596 ; 5677057.799198404 ; 0.0
177 ; 11062.470678623704 ; 32256.010222718316 ; 3329200.9733748366 ; 5709313.809421122 ; 0.0
178 ; 10850.566151997324 ; 32256.010222718316 ; 3340263.4440534604 ; 5741569.81964384 ; 0.0
179 ; 11084.491102313019 ; 32256.010222718316 ; 3351114.010205458 ; 5773825.829866558 ; 0.0
180 ; 10950.650247576734 ; 32256.010222718316 ; 3362198.501307771 ; 5806081.840089276 ; 0.0
181 ; 11074.345210576103 ; 32256.010222718316 ; 3373149.1515553477 ; 5838337.850311995 ; 0.0
182 ; 11069.069815913994 ; 32256.010222718316 ; 3384223.4967659237 ; 5870593.860534713 ; 0.0
183 ; 11217.017249072498 ; 32256.010222718316 ; 3395292.566581838 ; 5902849.870757431 ; 0.0
184 ; 11272.069767276764 ; 32256.010222718316 ; 3406509.5838309103 ; 5935105.880980149 ; 0.0
185 ; 11057.416901793174 ; 32256.010222718316 ; 3417781.653598187 ; 5967361.891202867 ; 0.0
186 ; 11320.981905154476 ; 32256.010222718316 ; 3428839.0704999804 ; 5999617.901425585 ; 0.0
187 ; 11069.138480686452 ; 32256.010222718316 ; 3440160.052405135 ; 6031873.911648303 ; 0.0
188 ; 11215.716778314349 ; 32256.010222718316 ; 3451229.1908858214 ; 6064129.921871021 ; 0.0
189 ; 11286.181901477918 ; 32256.010222718316 ; 3462444.9076641356 ; 6096385.9320937395 ; 0.0
190 ; 11450.40224069204 ; 32256.010222718316 ; 3473731.0895656133 ; 6128641.942316458 ; 0.0
191 ; 11382.422337570699 ; 32256.010222718316 ; 3485181.4918063055 ; 6160897.952539176 ; 0.0
192 ; 11348.465146139059 ; 32256.010222718316 ; 3496563.914143876 ; 6193153.962761894 ; 0.0
193 ; 11330.292909497919 ; 32256.010222718316 ; 3507912.3792900154 ; 6225409.972984612 ; 0.0
194 ; 11158.599589123594 ; 32256.010222718316 ; 3519242.6721995133 ; 6257665.98320733 ; 0.0
195 ; 11384.452744516968 ; 32256.010222718316 ; 3530401.2717886367 ; 6289921.993430048 ; 0.0
196 ; 11403.960845554793 ; 32256.010222718316 ; 3541785.7245331537 ; 6322178.003652766 ; 0.0
197 ; 11507.362078361342 ; 32256.010222718316 ; 3553189.6853787084 ; 6354434.0138754845 ; 0.0
198 ; 11422.205623030779 ; 32256.010222718316 ; 3564697.0474570696 ; 6386690.024098203 ; 0.0
199 ; 11412.26241585548 ; 32256.010222718316 ; 3576119.2530801003 ; 6418946.034320921 ; 0.0
200 ; 11642.892294774148 ; 32256.010222718316 ; 3587531.515495956 ; 6451202.044543639 ; 0.0
201 ; 11567.024670175555 ; 32256.010222718316 ; 3599174.4077907302 ; 6483458.054766357 ; 0.0
202 ; 11830.156392981644 ; 32256.010222718316 ; 3610741.432460906 ; 6515714.064989075 ; 0.0
203 ; 11671.016785174064 ; 32256.010222718316 ; 3622571.5888538877 ; 6547970.075211793 ; 0.0
204 ; 11798.761579553193 ; 32256.010222718316 ; 3634242.605639062 ; 6580226.085434511 ; 0.0
205 ; 11790.266442342792 ; 32256.010222718316 ; 3646041.367218615 ; 6612482.095657229 ; 0.0
206 ; 11653.741831712145 ; 32256.010222718316 ; 3657831.6336609577 ; 6644738.105879948 ; 0.0
207 ; 11849.339083904313 ; 32256.010222718316 ; 3669485.3754926696 ; 6676994.116102666 ; 0.0
208 ; 11770.421370292845 ; 32256.010222718316 ; 3681334.714576574 ; 6709250.126325384 ; 0.0
209 ; 11902.478557505194 ; 32256.010222718316 ; 3693105.135946867 ; 6741506.136548102 ; 0.0
210 ; 11945.021864805749 ; 32256.010222718316 ; 3705007.6145043722 ; 6773762.14677082 ; 0.0
211 ; 11791.002085020404 ; 32256.010222718316 ; 3716952.636369178 ; 6806018.156993538 ; 0.0
212 ; 11907.61669705077 ; 32256.010222718316 ; 3728743.6384541984 ; 6838274.167216256 ; 0.0
213 ; 12094.414919474664 ; 32256.010222718316 ; 3740651.255151249 ; 6870530.177438974 ; 0.0
