CSV File for the City 3 on Day 143
1 - Minute m 
2 - Power Consumed at minute m 
3 - Power Produced at minute m 
4 - Energy Consumed since the beginning of the day 
5 - Energy Produced since the beginning of the day 
6 - Energy Lost since the beginning of the day on lines starting from the city
 
0 ; 7111.552697243494 ; 98705.30346615413 ; 0.0 ; 0.0 ; 0.0
1 ; 7533.424709717333 ; 98364.08982966277 ; 7111.552697243494 ; 98705.30346615413 ; 0.0
2 ; 7780.107060051728 ; 98057.71686501814 ; 14644.977406960827 ; 197069.3932958169 ; 0.0
3 ; 8014.92521019926 ; 97786.53548134754 ; 22425.084467012555 ; 295127.110160835 ; 0.0
4 ; 8379.684590244393 ; 97550.85989622142 ; 30440.009677211816 ; 392913.64564218256 ; 0.0
5 ; 8675.047035922042 ; 97350.96598268197 ; 38819.69426745621 ; 490464.505538404 ; 0.0
6 ; 9067.742407092417 ; 97187.08979171664 ; 47494.74130337825 ; 587815.471521086 ; 0.0
7 ; 9246.313528120803 ; 97059.42626842168 ; 56562.48371047067 ; 685002.5613128026 ; 0.0
8 ; 9568.449318764193 ; 96968.12817805553 ; 65808.79723859148 ; 782061.9875812243 ; 0.0
9 ; 9966.042153018694 ; 96913.30525578524 ; 75377.24655735567 ; 879030.1157592798 ; 0.0
10 ; 10271.594281596092 ; 96895.02359121191 ; 85343.28871037436 ; 975943.421015065 ; 0.0
11 ; 10471.278317652157 ; 96913.30525578524 ; 95614.88299197044 ; 1072838.444606277 ; 0.0
12 ; 10721.296749126868 ; 96968.12817805553 ; 106086.1613096226 ; 1169751.7498620623 ; 0.0
13 ; 11172.557071613433 ; 97059.42626842168 ; 116807.45805874947 ; 1266719.878040118 ; 0.0
14 ; 11339.488681403594 ; 97187.08979171664 ; 127980.01513036291 ; 1363779.3043085395 ; 0.0
15 ; 11767.978408868945 ; 97350.96598268197 ; 139319.5038117665 ; 1460966.394100256 ; 0.0
16 ; 11925.430414453425 ; 97550.85989622142 ; 151087.48222063546 ; 1558317.360082938 ; 0.0
17 ; 12191.880394009877 ; 97786.53548134754 ; 163012.9126350889 ; 1655868.2199791595 ; 0.0
18 ; 12460.820384137558 ; 98057.71686501823 ; 175204.79302909877 ; 1753654.755460507 ; 0.0
19 ; 12731.274606693296 ; 98364.08982966277 ; 187665.61341323634 ; 1851712.4723255252 ; 0.0
20 ; 13013.570424845277 ; 98705.30346615413 ; 200396.88801992964 ; 1950076.562155188 ; 0.0
21 ; 13178.683411983995 ; 99080.97198234433 ; 213410.4584447749 ; 2048781.865621342 ; 0.0
22 ; 13410.745681406723 ; 99490.67664604916 ; 226589.1418567589 ; 2147862.8376036864 ; 0.0
23 ; 13648.872857118633 ; 99933.96784056723 ; 239999.88753816564 ; 2247353.5142497355 ; 0.0
24 ; 13954.784518663753 ; 100410.36721043037 ; 253648.76039528428 ; 2347287.4820903027 ; 0.0
25 ; 14228.421567509307 ; 100919.36987509824 ; 267603.54491394805 ; 2447697.8493007333 ; 0.0
26 ; 14441.567515140541 ; 101460.44668870271 ; 281831.96648145735 ; 2548617.2191758314 ; 0.0
27 ; 14598.189065602395 ; 102033.04652467587 ; 296273.53399659786 ; 2650077.665864534 ; 0.0
28 ; 14671.719127925635 ; 102636.59856512473 ; 310871.72306220024 ; 2752110.7123892102 ; 0.0
29 ; 15276.040397362705 ; 103270.51457609635 ; 325543.4421901259 ; 2854747.310954335 ; 0.0
30 ; 15293.099496171517 ; 103934.19115136108 ; 340819.4825874886 ; 2958017.8255304317 ; 0.0
31 ; 15559.609013622554 ; 104627.01190897734 ; 356112.5820836601 ; 3061952.0166817927 ; 0.0
32 ; 15765.779302646995 ; 105348.34962664812 ; 371672.1910972827 ; 3166579.02859077 ; 0.0
33 ; 15816.88314956498 ; 106097.56830368048 ; 387437.9703999297 ; 3271927.378217418 ; 0.0
34 ; 16115.246466523673 ; 106874.02513918183 ; 403254.85354949464 ; 3378024.9465210987 ; 0.0
35 ; 16356.987729909699 ; 107677.07241792826 ; 419370.1000160183 ; 3484898.9716602806 ; 0.0
36 ; 16452.76871027699 ; 108506.05929708952 ; 435727.08774592803 ; 3592576.044078209 ; 0.0
37 ; 16587.42356264005 ; 109360.33348866216 ; 452179.856456205 ; 3701082.1033752984 ; 0.0
38 ; 16794.797787522413 ; 110239.24283403279 ; 468767.28001884505 ; 3810442.4368639607 ; 0.0
39 ; 16928.85341574395 ; 111142.1367685374 ; 485562.0778063675 ; 3920681.6796979937 ; 0.0
40 ; 17203.35927160277 ; 112068.36767520274 ; 502490.93122211145 ; 4031823.8164665313 ; 0.0
41 ; 17445.24923650841 ; 113017.29212803517 ; 519694.2904937142 ; 4143892.184141734 ; 0.0
42 ; 17656.145060177594 ; 113988.27202626056 ; 537139.5397302227 ; 4256909.4762697695 ; 0.0
43 ; 17661.621855354188 ; 114980.67562181913 ; 554795.6847904002 ; 4370897.74829603 ; 0.0
44 ; 17841.988139131252 ; 115993.8784431789 ; 572457.3066457544 ; 4485878.423917849 ; 0.0
45 ; 18142.482851947418 ; 117027.2641191646 ; 590299.2947848856 ; 4601872.302361027 ; 0.0
46 ; 18032.9052472189 ; 118080.22510700418 ; 608441.777636833 ; 4718899.566480192 ; 0.0
47 ; 18255.04646730285 ; 119152.16332918925 ; 626474.6828840519 ; 4836979.791587196 ; 0.0
48 ; 18348.00608493046 ; 120242.49072403292 ; 644729.7293513548 ; 4956131.954916386 ; 0.0
49 ; 18632.483227590554 ; 121350.62971500248 ; 663077.7354362853 ; 5076374.445640419 ; 0.0
50 ; 18550.640632766383 ; 122476.01360401766 ; 681710.2186638758 ; 5197725.075355421 ; 0.0
51 ; 18817.887643176404 ; 123618.08689393623 ; 700260.8592966422 ; 5320201.088959439 ; 0.0
52 ; 18795.92604228064 ; 124776.3055454309 ; 719078.7469398186 ; 5443819.175853375 ; 0.0
53 ; 19078.749656981356 ; 125950.13717337458 ; 737874.6729820992 ; 5568595.481398806 ; 0.0
54 ; 19242.207370755303 ; 127139.06118773423 ; 756953.4226390806 ; 5694545.61857218 ; 0.0
55 ; 19291.045044854607 ; 128342.568883808 ; 776195.6300098358 ; 5821684.679759914 ; 0.0
56 ; 19335.09982193082 ; 129560.16348645854 ; 795486.6750546905 ; 5950027.248643722 ; 0.0
57 ; 19444.82399958479 ; 130791.3601527792 ; 814821.7748766213 ; 6079587.412130181 ; 0.0
58 ; 19475.151872978455 ; 132035.68593740958 ; 834266.5988762061 ; 6210378.77228296 ; 0.0
59 ; 19762.116265535966 ; 133292.67972447816 ; 853741.7507491845 ; 6342414.458220369 ; 0.0
60 ; 19711.55208488656 ; 134561.89212990928 ; 873503.8670147205 ; 6475707.137944847 ; 0.0
61 ; 20036.51844665456 ; 135842.88537758694 ; 893215.419099607 ; 6610269.030074757 ; 0.0
62 ; 19921.943833157893 ; 137135.23315262608 ; 913251.9375462616 ; 6746111.915452343 ; 0.0
63 ; 19957.766686209383 ; 138438.52043476293 ; 933173.8813794195 ; 6883247.1486049695 ; 0.0
64 ; 20052.768801125127 ; 139752.34331464375 ; 953131.6480656288 ; 7021685.669039733 ; 0.0
65 ; 20115.292553464114 ; 141076.3087955652 ; 973184.416866754 ; 7161438.012354377 ; 0.0
66 ; 20304.684857121778 ; 142410.03458300603 ; 993299.709420218 ; 7302514.3211499415 ; 0.0
67 ; 20487.454460793568 ; 143753.1488640809 ; 1013604.3942773398 ; 7444924.355732948 ; 0.0
68 ; 20197.92817844283 ; 145105.29007885544 ; 1034091.8487381333 ; 7588677.504597029 ; 0.0
69 ; 20432.447818257395 ; 146466.10668527475 ; 1054289.776916576 ; 7733782.794675884 ; 0.0
70 ; 20530.316801715097 ; 147835.2569192868 ; 1074722.2247348335 ; 7880248.901361158 ; 0.0
71 ; 20683.3170400532 ; 149212.4085515804 ; 1095252.5415365486 ; 8028084.158280445 ; 0.0
72 ; 20435.10306683742 ; 150597.2386422063 ; 1115935.8585766018 ; 8177296.566832026 ; 0.0
73 ; 20382.388484178482 ; 151989.43329421277 ; 1136370.9616434393 ; 8327893.805474232 ; 0.0
74 ; 20597.630942311796 ; 153388.68740729638 ; 1156753.3501276178 ; 8479883.238768445 ; 0.0
75 ; 20526.557729413253 ; 154794.7044323515 ; 1177350.9810699297 ; 8633271.926175741 ; 0.0
76 ; 20733.169769838853 ; 156207.19612769355 ; 1197877.538799343 ; 8788066.630608093 ; 0.0
77 ; 20649.8140871615 ; 157625.88231763075 ; 1218610.7085691819 ; 8944273.826735787 ; 0.0
78 ; 20723.683959375787 ; 159050.49065396996 ; 1239260.5226563434 ; 9101899.709053418 ; 0.0
79 ; 20812.66276157096 ; 160480.7563809574 ; 1259984.2066157192 ; 9260950.199707387 ; 0.0
80 ; 20739.337895291697 ; 161916.42210408402 ; 1280796.8693772901 ; 9421430.956088344 ; 0.0
81 ; 20716.577025967847 ; 163357.23756311365 ; 1301536.2072725818 ; 9583347.378192428 ; 0.0
82 ; 20736.811301671878 ; 164802.95940963447 ; 1322252.7842985496 ; 9746704.615755541 ; 0.0
83 ; 20672.1403775637 ; 166253.35098937782 ; 1342989.5956002215 ; 9911507.575165175 ; 0.0
84 ; 20682.911598295923 ; 167708.18212950006 ; 1363661.7359777852 ; 1.0077760926154552E7 ; 0.0
85 ; 20675.526910521716 ; 169167.22893097918 ; 1384344.647576081 ; 1.0245469108284052E7 ; 0.0
86 ; 20490.730851033484 ; 170630.27356623937 ; 1405020.174486603 ; 1.0414636337215032E7 ; 0.0
87 ; 20735.573003808222 ; 172097.10408208123 ; 1425510.9053376364 ; 1.0585266610781271E7 ; 0.0
88 ; 20443.37492369762 ; 173567.51420796552 ; 1446246.4783414446 ; 1.0757363714863352E7 ; 0.0
89 ; 20535.61687895021 ; 175041.30316967203 ; 1466689.8532651423 ; 1.0930931229071317E7 ; 0.0
90 ; 20446.07583398763 ; 176518.2755083294 ; 1487225.4701440926 ; 1.1105972532240989E7 ; 0.0
91 ; 20518.766316939676 ; 177998.24090479364 ; 1507671.5459780802 ; 1.1282490807749318E7 ; 0.0
92 ; 20419.785111392343 ; 179481.01400933435 ; 1528190.3122950199 ; 1.1460489048654111E7 ; 0.0
93 ; 20404.631325151637 ; 180966.41427657084 ; 1548610.0974064122 ; 1.1639970062663445E7 ; 0.0
94 ; 20265.648234288066 ; 182454.2658055898 ; 1569014.7287315638 ; 1.1820936476940015E7 ; 0.0
95 ; 20305.105492595798 ; 183944.3971851628 ; 1589280.3769658518 ; 1.2003390742745604E7 ; 0.0
96 ; 20385.162383940577 ; 185436.64134397393 ; 1609585.4824584476 ; 1.2187335139930768E7 ; 0.0
97 ; 19991.59153893986 ; 186930.83540575864 ; 1629970.644842388 ; 1.2372771781274742E7 ; 0.0
98 ; 20119.64943408341 ; 188426.82054925006 ; 1649962.236381328 ; 1.2559702616680501E7 ; 0.0
99 ; 19979.299440957067 ; 189924.4418728229 ; 1670081.8858154113 ; 1.274812943722975E7 ; 0.0
100 ; 19867.088348001376 ; 191423.5482637212 ; 1690061.1852563685 ; 1.2938053879102573E7 ; 0.0
101 ; 19766.609028670657 ; 192923.9922717535 ; 1709928.27360437 ; 1.3129477427366294E7 ; 0.0
102 ; 19841.241399327082 ; 194425.62998733643 ; 1729694.8826330407 ; 1.3322401419638047E7 ; 0.0
103 ; 19604.431051957105 ; 195928.320923767 ; 1749536.1240323677 ; 1.3516827049625384E7 ; 0.0
104 ; 19495.841709749217 ; 197431.9279036021 ; 1769140.555084325 ; 1.371275537054915E7 ; 0.0
105 ; 19459.40341993733 ; 198936.3169490251 ; 1788636.3967940742 ; 1.3910187298452752E7 ; 0.0
106 ; 19403.73911045443 ; 200441.3571760783 ; 1808095.8002140115 ; 1.4109123615401777E7 ; 0.0
107 ; 19164.84874215689 ; 201946.9206926423 ; 1827499.539324466 ; 1.4309564972577855E7 ; 0.0
108 ; 19052.371711462045 ; 203452.88250004328 ; 1846664.388066623 ; 1.4511511893270498E7 ; 0.0
109 ; 19109.198966082393 ; 204959.12039817096 ; 1865716.759778085 ; 1.4714964775770541E7 ; 0.0
110 ; 19011.339414638973 ; 206465.51489399388 ; 1884825.9587441674 ; 1.4919923896168713E7 ; 0.0
111 ; 18835.167970356124 ; 207971.94911335674 ; 1903837.2981588063 ; 1.5126389411062706E7 ; 0.0
112 ; 18608.792371354408 ; 209478.3087159508 ; 1922672.4661291623 ; 1.5334361360176062E7 ; 0.0
113 ; 18643.479980887834 ; 210984.481813348 ; 1941281.2585005166 ; 1.5543839668892013E7 ; 0.0
114 ; 18395.335658272415 ; 212490.35888999322 ; 1959924.7384814045 ; 1.5754824150705362E7 ; 0.0
115 ; 18332.300337827415 ; 213995.83272705178 ; 1978320.074139677 ; 1.5967314509595355E7 ; 0.0
116 ; 18090.1513814133 ; 215500.79832901104 ; 1996652.3744775043 ; 1.6181310342322407E7 ; 0.0
117 ; 18013.28334636504 ; 217005.152852939 ; 2014742.5258589175 ; 1.6396811140651418E7 ; 0.0
118 ; 17786.854825728282 ; 218508.7955403037 ; 2032755.8092052825 ; 1.6613816293504357E7 ; 0.0
119 ; 17731.341226645916 ; 220011.62765126297 ; 2050542.6640310108 ; 1.683232508904466E7 ; 0.0
120 ; 17491.07351781824 ; 221513.55240133306 ; 2068274.0052576568 ; 1.7052336716695923E7 ; 0.0
121 ; 17297.36990376457 ; 223014.47490035108 ; 2085765.078775475 ; 1.7273850269097257E7 ; 0.0
122 ; 17055.680263706374 ; 224514.30209364652 ; 2103062.4486792395 ; 1.7496864743997607E7 ; 0.0
123 ; 16935.689205905663 ; 226012.94270534048 ; 2120118.128942946 ; 1.7721379046091255E7 ; 0.0
124 ; 16855.353235418206 ; 227510.3071836948 ; 2137053.818148852 ; 1.7947391988796595E7 ; 0.0
125 ; 16750.239247744874 ; 229006.30764843477 ; 2153909.17138427 ; 1.817490229598029E7 ; 0.0
126 ; 16316.71339862078 ; 230500.8578399721 ; 2170659.4106320147 ; 1.8403908603628725E7 ; 0.0
127 ; 16318.42423525017 ; 231993.87307045737 ; 2186976.1240306357 ; 1.8634409461468697E7 ; 0.0
128 ; 16109.077938274659 ; 233485.2701765945 ; 2203294.548265886 ; 1.8866403334539153E7 ; 0.0
129 ; 15727.59100541252 ; 234974.96747415 ; 2219403.6262041605 ; 1.9099888604715746E7 ; 0.0
130 ; 15673.771005246106 ; 236462.88471409495 ; 2235131.217209573 ; 1.9334863572189897E7 ; 0.0
131 ; 15220.801031388744 ; 237948.94304031774 ; 2250804.988214819 ; 1.9571326456903994E7 ; 0.0
132 ; 15239.174951222525 ; 239433.06494884889 ; 2266025.789246208 ; 1.9809275399944313E7 ; 0.0
133 ; 14994.666398279942 ; 240915.1742485411 ; 2281264.9641974308 ; 2.0048708464893162E7 ; 0.0
134 ; 14743.342058349024 ; 242395.19602315017 ; 2296259.6305957106 ; 2.0289623639141705E7 ; 0.0
135 ; 14562.445474708305 ; 243873.05659476394 ; 2311002.9726540595 ; 2.0532018835164856E7 ; 0.0
136 ; 14265.990931369703 ; 245348.6834885288 ; 2325565.418128768 ; 2.077589189175962E7 ; 0.0
137 ; 14039.612127053844 ; 246822.00539862434 ; 2339831.409060138 ; 2.102124057524815E7 ; 0.0
138 ; 14035.397792197671 ; 248292.95215544102 ; 2353871.021187192 ; 2.1268062580646772E7 ; 0.0
139 ; 13566.714929180343 ; 249761.45469391358 ; 2367906.4189793896 ; 2.1516355532802213E7 ; 0.0
140 ; 13235.509985286684 ; 251227.44502296858 ; 2381473.13390857 ; 2.1766116987496126E7 ; 0.0
141 ; 13202.822408186716 ; 252690.85619604317 ; 2394708.6438938566 ; 2.2017344432519093E7 ; 0.0
142 ; 12835.80862568568 ; 254151.62228263597 ; 2407911.4663020433 ; 2.2270035288715135E7 ; 0.0
143 ; 12622.33332907072 ; 255609.678340851 ; 2420747.274927729 ; 2.252418691099777E7 ; 0.0
144 ; 12373.105620608017 ; 257064.96039089726 ; 2433369.6082567996 ; 2.2779796589338623E7 ; 0.0
145 ; 12236.61376450937 ; 258517.4053895091 ; 2445742.713877408 ; 2.303686154972952E7 ; 0.0
146 ; 12117.6653118045 ; 259966.9512052526 ; 2457979.3276419174 ; 2.329537895511903E7 ; 0.0
147 ; 12141.849051550213 ; 261413.53659468537 ; 2470096.992953722 ; 2.3555345906324282E7 ; 0.0
148 ; 12184.85517575996 ; 262857.1011793377 ; 2482238.842005272 ; 2.3816759442918967E7 ; 0.0
149 ; 12056.945806794645 ; 264297.5854234849 ; 2494423.697181032 ; 2.4079616544098306E7 ; 0.0
150 ; 11914.689685290561 ; 265734.93061268196 ; 2506480.642987827 ; 2.434391412952179E7 ; 0.0
151 ; 11862.0979760419 ; 267169.0788330314 ; 2518395.3326731175 ; 2.4609649060134474E7 ; 0.0
152 ; 11809.297938380996 ; 268599.97295115894 ; 2530257.4306491595 ; 2.4876818138967507E7 ; 0.0
153 ; 11598.302086430418 ; 270027.55659486866 ; 2542066.7285875403 ; 2.5145418111918665E7 ; 0.0
154 ; 11604.269670204316 ; 271451.7741344556 ; 2553665.030673971 ; 2.5415445668513533E7 ; 0.0
155 ; 11622.615480224757 ; 272872.57066464925 ; 2565269.300344175 ; 2.568689744264799E7 ; 0.0
156 ; 11337.763318438017 ; 274289.8919871667 ; 2576891.9158244 ; 2.5959770013312638E7 ; 0.0
157 ; 11270.732466265872 ; 275703.6845938516 ; 2588229.679142838 ; 2.6234059905299805E7 ; 0.0
158 ; 11138.78369383189 ; 277113.8956503795 ; 2599500.411609104 ; 2.6509763589893658E7 ; 0.0
159 ; 10988.535793974459 ; 278520.472980508 ; 2610639.195302936 ; 2.6786877485544037E7 ; 0.0
160 ; 10927.429503911915 ; 279923.36505085183 ; 2621627.7310969103 ; 2.7065397958524544E7 ; 0.0
161 ; 10903.837545917833 ; 281322.5209561644 ; 2632555.1606008224 ; 2.7345321323575396E7 ; 0.0
162 ; 10832.198786498793 ; 282717.89040510805 ; 2643458.9981467403 ; 2.7626643844531562E7 ; 0.0
163 ; 10696.990818368955 ; 284109.42370649445 ; 2654291.196933239 ; 2.790936173493667E7 ; 0.0
164 ; 10704.394590877428 ; 285497.0717559789 ; 2664988.187751608 ; 2.8193471158643164E7 ; 0.0
165 ; 10482.1639722926 ; 286880.7860231929 ; 2675692.5823424854 ; 2.8478968230399143E7 ; 0.0
166 ; 10304.591674728546 ; 288260.5185392984 ; 2686174.746314778 ; 2.8765849016422335E7 ; 0.0
167 ; 10283.051971515004 ; 289636.2218849492 ; 2696479.3379895063 ; 2.9054109534961633E7 ; 0.0
168 ; 10286.306353837583 ; 291007.8491786458 ; 2706762.3899610215 ; 2.9343745756846584E7 ; 0.0
169 ; 10111.377190239537 ; 292375.35406546824 ; 2717048.696314859 ; 2.963475360602523E7 ; 0.0
170 ; 10070.451978108136 ; 293738.6907061756 ; 2727160.073505099 ; 2.9927128960090697E7 ; 0.0
171 ; 9916.897269961351 ; 295097.8137666576 ; 2737230.525483207 ; 3.022086765079687E7 ; 0.0
172 ; 9717.563199134092 ; 296452.6784077277 ; 2747147.4227531683 ; 3.051596546456353E7 ; 0.0
173 ; 9450.37124384127 ; 297803.2402752435 ; 2756864.9859523023 ; 3.081241814297126E7 ; 0.0
174 ; 9585.569062770706 ; 299149.4554905456 ; 2766315.357196144 ; 3.1110221383246504E7 ; 0.0
175 ; 9767.073673802024 ; 300491.2806412024 ; 2775900.9262589146 ; 3.140937083873705E7 ; 0.0
176 ; 9668.945797068769 ; 301828.6727720505 ; 2785667.9999327166 ; 3.170986211937825E7 ; 0.0
177 ; 9591.379747835896 ; 303161.5893765204 ; 2795336.9457297856 ; 3.20116907921503E7 ; 0.0
178 ; 9684.124283486495 ; 304489.9883882389 ; 2804928.3254776215 ; 3.231485238152682E7 ; 0.0
179 ; 9723.598872432813 ; 305813.8281728967 ; 2814612.449761108 ; 3.261934236991506E7 ; 0.0
180 ; 9691.23443273096 ; 307133.0675203741 ; 2824336.048633541 ; 3.2925156198087957E7 ; 0.0
181 ; 9721.051688779635 ; 308447.6656371146 ; 2834027.283066272 ; 3.323228926560833E7 ; 0.0
182 ; 9760.872482595272 ; 309757.5821387392 ; 2843748.3347550514 ; 3.3540736931245442E7 ; 0.0
183 ; 9602.933134125678 ; 311062.777042892 ; 2853509.207237647 ; 3.385049451338418E7 ; 0.0
184 ; 9822.23183175574 ; 312363.2107623104 ; 2863112.1403717725 ; 3.4161557290427074E7 ; 0.0
185 ; 9683.746668598042 ; 313658.84409811214 ; 2872934.3722035284 ; 3.447392050118938E7 ; 0.0
186 ; 9912.602481502618 ; 314949.63823329104 ; 2882618.1188721266 ; 3.4787579345287494E7 ; 0.0
187 ; 9677.426808919889 ; 316235.55472641566 ; 2892530.721353629 ; 3.510252898352078E7 ; 0.0
188 ; 9756.532467242236 ; 317516.5555055238 ; 2902208.148162549 ; 3.54187645382472E7 ; 0.0
189 ; 9784.629282982709 ; 318792.60286220536 ; 2911964.680629791 ; 3.573628109375272E7 ; 0.0
190 ; 9754.079817946213 ; 320063.659445869 ; 2921749.309912774 ; 3.605507369661492E7 ; 0.0
191 ; 9861.952608384132 ; 321329.68825818546 ; 2931503.38973072 ; 3.637513735606079E7 ; 0.0
192 ; 9955.156913933948 ; 322590.6526477016 ; 2941365.342339104 ; 3.6696467044318974E7 ; 0.0
193 ; 9915.618464229692 ; 323846.51630462013 ; 2951320.499253038 ; 3.701905769696668E7 ; 0.0
194 ; 10013.037934237824 ; 325097.2432557396 ; 2961236.1177172675 ; 3.73429042132713E7 ; 0.0
195 ; 9980.057826717975 ; 326342.79785954923 ; 2971249.155651505 ; 3.766800145652704E7 ; 0.0
196 ; 10003.310745246017 ; 327583.14480147307 ; 2981229.213478223 ; 3.799434425438659E7 ; 0.0
197 ; 9951.665209945284 ; 328818.2490892598 ; 2991232.524223469 ; 3.8321927399188064E7 ; 0.0
198 ; 10048.811762770458 ; 330048.0760485125 ; 3001184.1894334145 ; 3.865074564827733E7 ; 0.0
199 ; 9928.035502909812 ; 331272.591318354 ; 3011233.001196185 ; 3.898079372432584E7 ; 0.0
200 ; 9984.420043509479 ; 332491.7608472243 ; 3021161.036699095 ; 3.93120663156442E7 ; 0.0
201 ; 9991.328858932511 ; 333705.5508888044 ; 3031145.4567426043 ; 3.964455807649142E7 ; 0.0
202 ; 10069.711180019853 ; 334913.92799806426 ; 3041136.7856015367 ; 3.997826362738023E7 ; 0.0
203 ; 10171.022022281752 ; 336116.85902742884 ; 3051206.4967815564 ; 4.0313177555378295E7 ; 0.0
204 ; 10094.240184053078 ; 337314.3111230605 ; 3061377.518803838 ; 4.0649294414405726E7 ; 0.0
205 ; 10121.319571421678 ; 338506.2517212533 ; 3071471.758987891 ; 4.0986608725528784E7 ; 0.0
206 ; 9965.594542666237 ; 339692.64854493464 ; 3081593.0785593125 ; 4.132511497725004E7 ; 0.0
207 ; 10107.610186709207 ; 340873.46960027266 ; 3091558.673101979 ; 4.166480762579498E7 ; 0.0
208 ; 10086.70678636355 ; 342048.68317338516 ; 3101666.283288688 ; 4.200568109539525E7 ; 0.0
209 ; 10410.329228732518 ; 343218.2578271464 ; 3111752.9900750513 ; 4.234772977856864E7 ; 0.0
210 ; 10151.336798567743 ; 344382.16239808965 ; 3122163.319303784 ; 4.269094803639579E7 ; 0.0
211 ; 10302.478403100662 ; 345540.3659934025 ; 3132314.656102352 ; 4.303533019879388E7 ; 0.0
212 ; 10263.254249156098 ; 346692.8379880106 ; 3142617.1345054526 ; 4.338087056478728E7 ; 0.0
