CSV File for the City 1 on Day 101
1 - Minute m 
2 - Power Consumed at minute m 
3 - Power Produced at minute m 
4 - Energy Consumed since the beginning of the day 
5 - Energy Produced since the beginning of the day 
6 - Energy Lost since the beginning of the day on lines starting from the city
 
0 ; 10848.495305245733 ; 27141.59842345769 ; 0.0 ; 0.0 ; 0.0
1 ; 11193.885259223305 ; 27141.59842345769 ; 10848.495305245733 ; 27141.59842345769 ; 238.00000000000003
2 ; 11617.080123143181 ; 27141.59842345769 ; 22042.380564469036 ; 54283.19684691538 ; 476.00000000000006
3 ; 11808.04239607877 ; 27141.59842345769 ; 33659.46068761222 ; 81424.79527037307 ; 714.0000000000001
4 ; 12031.678180075292 ; 27141.59842345769 ; 45467.50308369099 ; 108566.39369383076 ; 952.0000000000001
5 ; 12330.003059050796 ; 27141.59842345769 ; 57499.18126376628 ; 135707.99211728846 ; 1190.0000000000002
6 ; 12576.509186669631 ; 27141.59842345769 ; 69829.18432281708 ; 162849.59054074617 ; 1428.0000000000002
7 ; 12958.622484879186 ; 27141.59842345769 ; 82405.69350948671 ; 189991.18896420387 ; 1666.0000000000002
8 ; 13266.311634120142 ; 27141.59842345769 ; 95364.3159943659 ; 217132.78738766158 ; 1904.0000000000002
9 ; 13598.821862948378 ; 27141.59842345769 ; 108630.62762848604 ; 244274.38581111928 ; 2142.0000000000005
10 ; 13931.789652595216 ; 27141.59842345769 ; 122229.44949143441 ; 271415.984234577 ; 2380.0000000000005
11 ; 14005.140297799768 ; 27141.59842345769 ; 136161.23914402962 ; 298557.5826580347 ; 2618.0000000000005
12 ; 14413.10887662496 ; 27141.59842345769 ; 150166.3794418294 ; 325699.1810814924 ; 2856.0000000000005
13 ; 14536.378771876327 ; 27141.59842345769 ; 164579.48831845436 ; 352840.7795049501 ; 3094.0000000000005
14 ; 14868.577501670878 ; 27141.59842345769 ; 179115.8670903307 ; 379982.3779284078 ; 3332.0000000000005
15 ; 15296.1664155835 ; 27141.59842345769 ; 193984.44459200156 ; 407123.9763518655 ; 3570.0000000000005
16 ; 15476.478952793666 ; 27141.59842345769 ; 209280.61100758504 ; 434265.5747753232 ; 3808.0000000000005
17 ; 15558.696301204098 ; 27141.59842345769 ; 224757.0899603787 ; 461407.1731987809 ; 4046.0000000000005
18 ; 15881.352661255542 ; 27141.59842345769 ; 240315.7862615828 ; 488548.7716222386 ; 4284.000000000001
19 ; 16144.74758050005 ; 27141.59842345769 ; 256197.13892283835 ; 515690.3700456963 ; 4522.000000000001
20 ; 16374.787016214806 ; 27141.59842345769 ; 272341.8865033384 ; 542831.968469154 ; 4760.000000000001
21 ; 16660.48105167157 ; 27141.59842345769 ; 288716.6735195532 ; 569973.5668926117 ; 4998.000000000001
22 ; 16927.20170231215 ; 27141.59842345769 ; 305377.15457122476 ; 597115.1653160694 ; 5236.000000000001
23 ; 17158.823986055846 ; 27141.59842345769 ; 322304.3562735369 ; 624256.7637395271 ; 5474.000000000001
24 ; 17217.88421636344 ; 27141.59842345769 ; 339463.1802595928 ; 651398.3621629848 ; 5712.000000000001
25 ; 17572.94225050049 ; 27141.59842345769 ; 356681.0644759562 ; 678539.9605864425 ; 5950.000000000001
26 ; 17963.24952677292 ; 27141.59842345769 ; 374254.0067264567 ; 705681.5590099002 ; 6188.000000000001
27 ; 18037.511682716668 ; 27141.59842345769 ; 392217.2562532296 ; 732823.1574333579 ; 6426.000000000001
28 ; 18061.466740968204 ; 27141.59842345769 ; 410254.7679359463 ; 759964.7558568156 ; 6664.000000000001
29 ; 18300.036280177497 ; 27141.59842345769 ; 428316.2346769145 ; 787106.3542802733 ; 6902.000000000001
30 ; 18622.43583147596 ; 27141.59842345769 ; 446616.270957092 ; 814247.952703731 ; 7140.000000000001
31 ; 18942.83942279744 ; 27141.59842345769 ; 465238.70678856794 ; 841389.5511271887 ; 7378.000000000001
32 ; 19096.531905443513 ; 27141.59842345769 ; 484181.5462113654 ; 868531.1495506464 ; 7616.000000000001
33 ; 19184.302020082596 ; 27141.59842345769 ; 503278.0781168089 ; 895672.7479741041 ; 7854.000000000001
34 ; 19503.467645677774 ; 27141.59842345769 ; 522462.3801368915 ; 922814.3463975618 ; 8092.000000000001
35 ; 19498.122346526117 ; 27141.59842345769 ; 541965.8477825692 ; 949955.9448210195 ; 8330.000000000002
36 ; 19761.04541902475 ; 27141.59842345769 ; 561463.9701290954 ; 977097.5432444772 ; 8568.000000000002
37 ; 19892.114494204172 ; 27141.59842345769 ; 581225.0155481201 ; 1004239.141667935 ; 8806.000000000002
38 ; 19969.341609467912 ; 27141.59842345769 ; 601117.1300423243 ; 1031380.7400913927 ; 9044.000000000002
39 ; 20457.685306921536 ; 27141.59842345769 ; 621086.4716517922 ; 1058522.3385148502 ; 9282.000000000002
40 ; 20438.585675382525 ; 27141.59842345769 ; 641544.1569587137 ; 1085663.936938308 ; 9520.000000000002
41 ; 20475.829153505372 ; 27141.59842345769 ; 661982.7426340962 ; 1112805.5353617657 ; 9758.000000000002
42 ; 20751.237713828377 ; 27141.59842345769 ; 682458.5717876016 ; 1139947.1337852234 ; 9996.000000000002
43 ; 20915.425495618914 ; 27141.59842345769 ; 703209.8095014299 ; 1167088.732208681 ; 10234.000000000002
44 ; 20997.51058391004 ; 27141.59842345769 ; 724125.2349970489 ; 1194230.3306321388 ; 10472.000000000002
45 ; 21054.369015536024 ; 27141.59842345769 ; 745122.7455809589 ; 1221371.9290555965 ; 10710.000000000002
46 ; 21406.317770617123 ; 27141.59842345769 ; 766177.1145964949 ; 1248513.5274790542 ; 10948.000000000002
47 ; 21355.921960485637 ; 27141.59842345769 ; 787583.432367112 ; 1275655.1259025119 ; 11186.000000000002
48 ; 21678.03135859952 ; 27141.59842345769 ; 808939.3543275977 ; 1302796.7243259696 ; 11424.000000000002
49 ; 21815.46412026843 ; 27141.59842345769 ; 830617.3856861972 ; 1329938.3227494273 ; 11662.000000000002
50 ; 21872.76222995006 ; 27141.59842345769 ; 852432.8498064657 ; 1357079.921172885 ; 11900.000000000002
51 ; 21874.556887490347 ; 27141.59842345769 ; 874305.6120364157 ; 1384221.5195963427 ; 12138.000000000002
52 ; 22039.578864275572 ; 27141.59842345769 ; 896180.168923906 ; 1411363.1180198004 ; 12376.000000000002
53 ; 22069.64351951604 ; 27141.59842345769 ; 918219.7477881816 ; 1438504.716443258 ; 12614.000000000002
54 ; 22173.050658419404 ; 27141.59842345769 ; 940289.3913076976 ; 1465646.3148667158 ; 12852.000000000002
55 ; 22305.350867755118 ; 27141.59842345769 ; 962462.441966117 ; 1492787.9132901735 ; 13090.000000000002
56 ; 22634.346807681854 ; 27141.59842345769 ; 984767.7928338721 ; 1519929.5117136312 ; 13328.000000000002
57 ; 22599.8012235859 ; 27141.59842345769 ; 1007402.139641554 ; 1547071.110137089 ; 13566.000000000002
58 ; 22651.96808663612 ; 27141.59842345769 ; 1030001.9408651398 ; 1574212.7085605466 ; 13804.000000000002
59 ; 22747.439742957195 ; 27141.59842345769 ; 1052653.9089517759 ; 1601354.3069840043 ; 14042.000000000002
60 ; 22694.411704269412 ; 27141.59842345769 ; 1075401.348694733 ; 1628495.905407462 ; 14280.000000000002
61 ; 22873.00261535494 ; 27141.59842345769 ; 1098095.7603990026 ; 1655637.5038309197 ; 14518.000000000002
62 ; 23036.969324577316 ; 27141.59842345769 ; 1120968.7630143575 ; 1682779.1022543774 ; 14756.000000000002
63 ; 22997.513270540334 ; 27141.59842345769 ; 1144005.732338935 ; 1709920.7006778351 ; 14994.000000000002
64 ; 23251.037400573055 ; 27141.59842345769 ; 1167003.2456094753 ; 1737062.2991012929 ; 15232.000000000002
65 ; 23290.440237153318 ; 27141.59842345769 ; 1190254.2830100483 ; 1764203.8975247506 ; 15470.000000000002
66 ; 23049.337372929218 ; 27141.59842345769 ; 1213544.7232472016 ; 1791345.4959482083 ; 15708.000000000002
67 ; 23339.185741053923 ; 27141.59842345769 ; 1236594.060620131 ; 1818487.094371666 ; 15946.000000000002
68 ; 23337.981812231945 ; 27141.59842345769 ; 1259933.2463611849 ; 1845628.6927951237 ; 16184.000000000002
69 ; 23605.678846575232 ; 27141.59842345769 ; 1283271.2281734168 ; 1872770.2912185814 ; 16422.000000000004
70 ; 23372.87929046283 ; 27141.59842345769 ; 1306876.9070199921 ; 1899911.889642039 ; 16660.000000000004
71 ; 23639.178909289476 ; 27141.59842345769 ; 1330249.786310455 ; 1927053.4880654968 ; 16898.000000000004
72 ; 23379.43231578704 ; 27141.59842345769 ; 1353888.9652197445 ; 1954195.0864889545 ; 17136.000000000004
73 ; 23657.655999439612 ; 27141.59842345769 ; 1377268.3975355315 ; 1981336.6849124122 ; 17374.000000000004
74 ; 23638.029421534684 ; 27141.59842345769 ; 1400926.053534971 ; 2008478.28333587 ; 17612.000000000004
75 ; 23716.486960222486 ; 27141.59842345769 ; 1424564.0829565057 ; 2035619.8817593276 ; 17850.000000000004
76 ; 23535.17696468073 ; 27141.59842345769 ; 1448280.5699167282 ; 2062761.4801827853 ; 18088.000000000004
77 ; 23627.13203386389 ; 27141.59842345769 ; 1471815.7468814088 ; 2089903.078606243 ; 18326.000000000004
78 ; 23671.96767884822 ; 27141.59842345769 ; 1495442.8789152727 ; 2117044.6770297005 ; 18564.000000000004
79 ; 23800.819940264424 ; 27141.59842345769 ; 1519114.8465941208 ; 2144186.275453158 ; 18802.000000000004
80 ; 23657.852022203064 ; 27141.59842345769 ; 1542915.6665343852 ; 2171327.873876616 ; 19040.000000000004
81 ; 23755.946086887554 ; 27141.59842345769 ; 1566573.5185565883 ; 2198469.4723000736 ; 19278.000000000004
82 ; 23681.023073654815 ; 27141.59842345769 ; 1590329.4646434758 ; 2225611.0707235313 ; 19516.000000000004
83 ; 23862.01169350296 ; 27141.59842345769 ; 1614010.4877171307 ; 2252752.669146989 ; 19754.000000000004
84 ; 23498.125881413405 ; 27141.59842345769 ; 1637872.4994106337 ; 2279894.2675704467 ; 19992.000000000004
85 ; 23597.871262198332 ; 27141.59842345769 ; 1661370.6252920472 ; 2307035.8659939044 ; 20230.000000000004
86 ; 23775.74633087631 ; 27141.59842345769 ; 1684968.4965542455 ; 2334177.464417362 ; 20468.000000000004
87 ; 23685.323970621586 ; 27141.59842345769 ; 1708744.2428851218 ; 2361319.06284082 ; 20706.000000000004
88 ; 23620.03754970309 ; 27141.59842345769 ; 1732429.5668557435 ; 2388460.6612642775 ; 20944.000000000004
89 ; 23408.81643839002 ; 27141.59842345769 ; 1756049.6044054467 ; 2415602.2596877352 ; 21182.000000000004
90 ; 23611.841646176916 ; 27141.59842345769 ; 1779458.4208438366 ; 2442743.858111193 ; 21420.000000000004
91 ; 23644.035145536574 ; 27141.59842345769 ; 1803070.2624900136 ; 2469885.4565346506 ; 21658.000000000004
92 ; 23455.30290200971 ; 27141.59842345769 ; 1826714.2976355501 ; 2497027.0549581083 ; 21896.000000000004
93 ; 23415.920224037007 ; 27141.59842345769 ; 1850169.60053756 ; 2524168.653381566 ; 22134.000000000004
94 ; 23255.64462324647 ; 27141.59842345769 ; 1873585.520761597 ; 2551310.2518050238 ; 22372.000000000004
95 ; 23119.71040376848 ; 27141.59842345769 ; 1896841.1653848435 ; 2578451.8502284815 ; 22610.000000000004
96 ; 23314.819893655378 ; 27141.59842345769 ; 1919960.875788612 ; 2605593.448651939 ; 22848.000000000004
97 ; 23469.5679114821 ; 27141.59842345769 ; 1943275.6956822674 ; 2632735.047075397 ; 23086.000000000004
98 ; 23287.962215527696 ; 27141.59842345769 ; 1966745.2635937496 ; 2659876.6454988546 ; 23324.000000000004
99 ; 23248.6008332463 ; 27141.59842345769 ; 1990033.2258092773 ; 2687018.2439223123 ; 23562.000000000004
100 ; 22910.660407298023 ; 27141.59842345769 ; 2013281.8266425235 ; 2714159.84234577 ; 23800.000000000004
101 ; 22835.495457998994 ; 27141.59842345769 ; 2036192.4870498215 ; 2741301.4407692277 ; 24038.000000000004
102 ; 22707.8667948683 ; 27141.59842345769 ; 2059027.9825078205 ; 2768443.0391926854 ; 24276.000000000004
103 ; 22637.061603122558 ; 27141.59842345769 ; 2081735.8493026888 ; 2795584.637616143 ; 24514.000000000004
104 ; 22669.922171998485 ; 27141.59842345769 ; 2104372.9109058115 ; 2822726.236039601 ; 24752.000000000004
105 ; 22491.090211583072 ; 27141.59842345769 ; 2127042.83307781 ; 2849867.8344630585 ; 24990.000000000004
106 ; 22491.03476850681 ; 27141.59842345769 ; 2149533.923289393 ; 2877009.432886516 ; 25228.000000000004
107 ; 22418.32398035993 ; 27141.59842345769 ; 2172024.9580579 ; 2904151.031309974 ; 25466.000000000004
108 ; 22152.789142694157 ; 27141.59842345769 ; 2194443.28203826 ; 2931292.6297334316 ; 25704.000000000004
109 ; 22105.910941512117 ; 27141.59842345769 ; 2216596.071180954 ; 2958434.2281568893 ; 25942.000000000004
110 ; 21846.46661093245 ; 27141.59842345769 ; 2238701.9821224664 ; 2985575.826580347 ; 26180.000000000004
111 ; 21867.11965233234 ; 27141.59842345769 ; 2260548.4487333987 ; 3012717.4250038047 ; 26418.000000000004
112 ; 21665.69305989472 ; 27141.59842345769 ; 2282415.568385731 ; 3039859.0234272624 ; 26656.000000000004
113 ; 21769.20631639101 ; 27141.59842345769 ; 2304081.2614456257 ; 3067000.62185072 ; 26894.000000000004
114 ; 21392.862620576907 ; 27141.59842345769 ; 2325850.4677620167 ; 3094142.220274178 ; 27132.000000000004
115 ; 21230.704738208497 ; 27141.59842345769 ; 2347243.3303825934 ; 3121283.8186976356 ; 27370.000000000004
116 ; 21122.120497364314 ; 27141.59842345769 ; 2368474.035120802 ; 3148425.4171210933 ; 27608.000000000004
117 ; 21098.416296873464 ; 27141.59842345769 ; 2389596.155618166 ; 3175567.015544551 ; 27846.000000000004
118 ; 20996.337790326186 ; 27141.59842345769 ; 2410694.5719150393 ; 3202708.6139680087 ; 28084.000000000004
119 ; 20761.035148883042 ; 27141.59842345769 ; 2431690.9097053655 ; 3229850.2123914664 ; 28322.000000000004
120 ; 20602.408378090462 ; 27141.59842345769 ; 2452451.944854249 ; 3256991.810814924 ; 28560.000000000004
121 ; 20506.977415118075 ; 27141.59842345769 ; 2473054.353232339 ; 3284133.409238382 ; 28798.000000000004
122 ; 20203.89421979636 ; 27141.59842345769 ; 2493561.330647457 ; 3311275.0076618395 ; 29036.000000000004
123 ; 20046.613563105606 ; 27141.59842345769 ; 2513765.224867253 ; 3338416.606085297 ; 29274.000000000004
124 ; 19968.410686538195 ; 27141.59842345769 ; 2533811.8384303586 ; 3365558.204508755 ; 29512.000000000004
125 ; 19705.37893408938 ; 27141.59842345769 ; 2553780.2491168967 ; 3392699.8029322126 ; 29750.000000000004
126 ; 19654.482612702664 ; 27141.59842345769 ; 2573485.628050986 ; 3419841.4013556703 ; 29988.000000000004
127 ; 19566.44711721713 ; 27141.59842345769 ; 2593140.1106636887 ; 3446982.999779128 ; 30226.000000000004
128 ; 19115.235076302062 ; 27141.59842345769 ; 2612706.557780906 ; 3474124.5982025857 ; 30464.000000000004
129 ; 18972.076236757715 ; 27141.59842345769 ; 2631821.7928572083 ; 3501266.1966260434 ; 30702.000000000004
130 ; 18686.504881697943 ; 27141.59842345769 ; 2650793.869093966 ; 3528407.795049501 ; 30940.000000000004
131 ; 18480.499218863035 ; 27141.59842345769 ; 2669480.3739756644 ; 3555549.393472959 ; 31178.000000000004
132 ; 18511.00619677345 ; 27141.59842345769 ; 2687960.8731945273 ; 3582690.9918964165 ; 31416.000000000004
133 ; 18195.62996864949 ; 27141.59842345769 ; 2706471.879391301 ; 3609832.590319874 ; 31654.000000000004
134 ; 18125.11912243636 ; 27141.59842345769 ; 2724667.5093599507 ; 3636974.188743332 ; 31892.000000000004
135 ; 17777.9113489812 ; 27141.59842345769 ; 2742792.628482387 ; 3664115.7871667896 ; 32130.000000000004
136 ; 17581.525326641105 ; 27141.59842345769 ; 2760570.5398313683 ; 3691257.3855902473 ; 32368.000000000004
137 ; 17519.53968601205 ; 27141.59842345769 ; 2778152.0651580095 ; 3718398.984013705 ; 32606.000000000004
138 ; 17286.46626781119 ; 27141.59842345769 ; 2795671.6048440216 ; 3745540.5824371628 ; 32844.00000000001
139 ; 16763.24719919538 ; 27141.59842345769 ; 2812958.0711118327 ; 3772682.1808606205 ; 33082.00000000001
140 ; 16558.041010035453 ; 27141.59842345769 ; 2829721.318311028 ; 3799823.779284078 ; 33320.00000000001
141 ; 16448.037605053203 ; 27141.59842345769 ; 2846279.359321064 ; 3826965.377707536 ; 33558.00000000001
142 ; 16060.56886956722 ; 27141.59842345769 ; 2862727.396926117 ; 3854106.9761309936 ; 33796.00000000001
143 ; 15989.324631677982 ; 27141.59842345769 ; 2878787.965795684 ; 3881248.5745544513 ; 34034.00000000001
144 ; 15554.239012920574 ; 27141.59842345769 ; 2894777.290427362 ; 3908390.172977909 ; 34272.00000000001
145 ; 15728.935401868166 ; 27141.59842345769 ; 2910331.529440283 ; 3935531.7714013667 ; 34510.00000000001
146 ; 15606.55253922327 ; 27141.59842345769 ; 2926060.464842151 ; 3962673.3698248244 ; 34748.00000000001
147 ; 15543.452695187269 ; 27141.59842345769 ; 2941667.0173813743 ; 3989814.968248282 ; 34986.00000000001
148 ; 15416.946866550958 ; 27141.59842345769 ; 2957210.4700765614 ; 4016956.56667174 ; 35224.00000000001
149 ; 15080.596681430736 ; 27141.59842345769 ; 2972627.4169431124 ; 4044098.1650951975 ; 35462.00000000001
150 ; 15152.593261753995 ; 27141.59842345769 ; 2987708.0136245433 ; 4071239.763518655 ; 35700.00000000001
151 ; 15018.706330055338 ; 27141.59842345769 ; 3002860.6068862975 ; 4098381.361942113 ; 35938.00000000001
152 ; 15043.866501446253 ; 27141.59842345769 ; 3017879.313216353 ; 4125522.9603655706 ; 36176.00000000001
153 ; 14849.423453934849 ; 27141.59842345769 ; 3032923.179717799 ; 4152664.5587890283 ; 36414.00000000001
154 ; 14711.363141737682 ; 27141.59842345769 ; 3047772.603171734 ; 4179806.157212486 ; 36652.00000000001
155 ; 14798.623576338923 ; 27141.59842345769 ; 3062483.966313472 ; 4206947.755635943 ; 36890.00000000001
156 ; 14644.902913748405 ; 27141.59842345769 ; 3077282.589889811 ; 4234089.354059401 ; 37128.00000000001
157 ; 14569.466009602802 ; 27141.59842345769 ; 3091927.492803559 ; 4261230.952482859 ; 37366.00000000001
158 ; 14567.290882031892 ; 27141.59842345769 ; 3106496.958813162 ; 4288372.550906316 ; 37604.00000000001
159 ; 14534.590985294075 ; 27141.59842345769 ; 3121064.249695194 ; 4315514.149329774 ; 37842.00000000001
160 ; 14308.62005358473 ; 27141.59842345769 ; 3135598.840680488 ; 4342655.747753232 ; 38080.00000000001
161 ; 14169.444653220517 ; 27141.59842345769 ; 3149907.4607340726 ; 4369797.3461766895 ; 38318.00000000001
162 ; 14098.352390955808 ; 27141.59842345769 ; 3164076.905387293 ; 4396938.944600147 ; 38556.00000000001
163 ; 14033.7939819537 ; 27141.59842345769 ; 3178175.2577782487 ; 4424080.543023605 ; 38794.00000000001
164 ; 13852.594202573564 ; 27141.59842345769 ; 3192209.0517602023 ; 4451222.141447063 ; 39032.00000000001
165 ; 13673.080532259737 ; 27141.59842345769 ; 3206061.6459627757 ; 4478363.73987052 ; 39270.00000000001
166 ; 13778.987735101427 ; 27141.59842345769 ; 3219734.7264950355 ; 4505505.338293978 ; 39508.00000000001
167 ; 13564.989002558053 ; 27141.59842345769 ; 3233513.714230137 ; 4532646.936717436 ; 39746.00000000001
168 ; 13421.188306300093 ; 27141.59842345769 ; 3247078.703232695 ; 4559788.535140893 ; 39984.00000000001
169 ; 13512.853572816146 ; 27141.59842345769 ; 3260499.891538995 ; 4586930.133564351 ; 40222.00000000001
170 ; 13102.099258725066 ; 27141.59842345769 ; 3274012.745111811 ; 4614071.731987809 ; 40460.00000000001
171 ; 13046.908724165947 ; 27141.59842345769 ; 3287114.844370536 ; 4641213.330411267 ; 40698.00000000001
172 ; 13155.082989929451 ; 27141.59842345769 ; 3300161.753094702 ; 4668354.928834724 ; 40936.00000000001
173 ; 12978.216558198756 ; 27141.59842345769 ; 3313316.8360846313 ; 4695496.527258182 ; 41174.00000000001
174 ; 12829.002284458085 ; 27141.59842345769 ; 3326295.05264283 ; 4722638.12568164 ; 41412.00000000001
175 ; 12916.272594013477 ; 27141.59842345769 ; 3339124.054927288 ; 4749779.724105097 ; 41650.00000000001
176 ; 12932.86729588457 ; 27141.59842345769 ; 3352040.3275213013 ; 4776921.322528555 ; 41888.00000000001
177 ; 13029.305603982844 ; 27141.59842345769 ; 3364973.194817186 ; 4804062.920952013 ; 42126.00000000001
178 ; 12966.28534720366 ; 27141.59842345769 ; 3378002.5004211687 ; 4831204.5193754705 ; 42364.00000000001
179 ; 13029.58631330347 ; 27141.59842345769 ; 3390968.7857683725 ; 4858346.117798928 ; 42602.00000000001
180 ; 13252.557417416681 ; 27141.59842345769 ; 3403998.372081676 ; 4885487.716222386 ; 42840.00000000001
181 ; 12893.67613965683 ; 27141.59842345769 ; 3417250.9294990925 ; 4912629.314645844 ; 43078.00000000001
182 ; 13110.614360254822 ; 27141.59842345769 ; 3430144.6056387494 ; 4939770.913069301 ; 43316.00000000001
183 ; 13034.57609664149 ; 27141.59842345769 ; 3443255.219999004 ; 4966912.511492759 ; 43554.00000000001
184 ; 13250.049900785918 ; 27141.59842345769 ; 3456289.7960956455 ; 4994054.109916217 ; 43792.00000000001
185 ; 13241.31150475574 ; 27141.59842345769 ; 3469539.8459964315 ; 5021195.708339674 ; 44030.00000000001
186 ; 13152.083401621523 ; 27141.59842345769 ; 3482781.157501187 ; 5048337.306763132 ; 44268.00000000001
