CSV File for the City 1 on Day 254
1 - Minute m 
2 - Power Consumed at minute m 
3 - Power Produced at minute m 
4 - Energy Consumed since the beginning of the day 
5 - Energy Produced since the beginning of the day 
6 - Energy Lost since the beginning of the day on lines starting from the city
 
0 ; 6578.801527821272 ; 2668.076816568533 ; 0.0 ; 0.0 ; 0.0
1 ; 6864.84720886535 ; 2668.076816568533 ; 6578.801527821272 ; 2668.076816568533 ; 238.00000000000003
2 ; 7551.592138514671 ; 2668.076816568533 ; 13443.648736686622 ; 5336.153633137066 ; 476.00000000000006
3 ; 7948.893090929136 ; 2668.076816568533 ; 20995.240875201293 ; 8004.230449705599 ; 714.0000000000001
4 ; 8399.484876706452 ; 2668.076816568533 ; 28944.13396613043 ; 10672.307266274132 ; 952.0000000000001
5 ; 9195.340726663235 ; 2668.076816568533 ; 37343.618842836884 ; 13340.384082842666 ; 1190.0000000000002
6 ; 9663.13023660506 ; 2668.076816568533 ; 46538.95956950012 ; 16008.460899411199 ; 1428.0000000000002
7 ; 10140.345557175193 ; 2668.076816568533 ; 56202.08980610518 ; 18676.53771597973 ; 1666.0000000000002
8 ; 10707.488184436823 ; 2668.076816568533 ; 66342.43536328037 ; 21344.614532548265 ; 1904.0000000000002
9 ; 11434.137432765383 ; 2668.076816568533 ; 77049.92354771719 ; 24012.691349116798 ; 2142.0000000000005
10 ; 11566.265952917836 ; 2668.076816568533 ; 88484.06098048258 ; 26680.76816568533 ; 2380.0000000000005
11 ; 12326.165951304878 ; 2668.076816568533 ; 100050.32693340041 ; 29348.844982253864 ; 2618.0000000000005
12 ; 12759.670119507393 ; 2668.076816568533 ; 112376.4928847053 ; 32016.921798822397 ; 2856.0000000000005
13 ; 13201.553912435189 ; 2668.076816568533 ; 125136.16300421269 ; 34684.99861539093 ; 3094.0000000000005
14 ; 13581.025020611933 ; 2668.076816568533 ; 138337.71691664789 ; 37353.075431959456 ; 3332.0000000000005
15 ; 14177.960183336045 ; 2668.076816568533 ; 151918.74193725982 ; 40021.152248527986 ; 3570.0000000000005
16 ; 14619.290541321248 ; 2668.076816568533 ; 166096.70212059587 ; 42689.229065096515 ; 3808.0000000000005
17 ; 14825.000108116617 ; 2668.076816568533 ; 180715.99266191712 ; 45357.305881665045 ; 4046.0000000000005
18 ; 15558.206994789993 ; 2668.076816568533 ; 195540.99277003374 ; 48025.382698233574 ; 4284.000000000001
19 ; 16031.72443884661 ; 2668.076816568533 ; 211099.19976482374 ; 50693.4595148021 ; 4522.000000000001
20 ; 16352.977462878813 ; 2668.076816568533 ; 227130.92420367035 ; 53361.53633137063 ; 4760.000000000001
21 ; 16794.82680780522 ; 2668.076816568533 ; 243483.90166654915 ; 56029.61314793916 ; 4998.000000000001
22 ; 17061.544009824684 ; 2668.076816568533 ; 260278.72847435437 ; 58697.68996450769 ; 5236.000000000001
23 ; 17539.709136707836 ; 2668.076816568533 ; 277340.27248417906 ; 61365.76678107622 ; 5474.000000000001
24 ; 17910.34608332992 ; 2668.076816568533 ; 294879.9816208869 ; 64033.84359764475 ; 5712.000000000001
25 ; 18317.04864341557 ; 2668.076816568533 ; 312790.3277042168 ; 66701.92041421328 ; 5950.000000000001
26 ; 18731.94096278047 ; 2668.076816568533 ; 331107.3763476324 ; 69369.99723078181 ; 6188.000000000001
27 ; 19148.141699767537 ; 2668.076816568533 ; 349839.3173104129 ; 72038.07404735034 ; 6426.000000000001
28 ; 19540.68179827781 ; 2668.076816568533 ; 368987.45901018044 ; 74706.15086391887 ; 6664.000000000001
29 ; 19866.786598719882 ; 2668.076816568533 ; 388528.14080845827 ; 77374.2276804874 ; 6902.000000000001
30 ; 20148.035629800503 ; 2668.076816568533 ; 408394.92740717815 ; 80042.30449705593 ; 7140.000000000001
31 ; 20448.755943837117 ; 2668.076816568533 ; 428542.9630369787 ; 82710.38131362446 ; 7378.000000000001
32 ; 20866.575232516927 ; 2668.076816568533 ; 448991.7189808158 ; 85378.45813019299 ; 7616.000000000001
33 ; 21342.423094224916 ; 2668.076816568533 ; 469858.2942133327 ; 88046.53494676152 ; 7854.000000000001
34 ; 21718.085990550993 ; 2668.076816568533 ; 491200.71730755764 ; 90714.61176333005 ; 8092.000000000001
35 ; 21856.587948460317 ; 2668.076816568533 ; 512918.8032981086 ; 93382.68857989857 ; 8330.000000000002
36 ; 22314.49010965131 ; 2668.076816568533 ; 534775.391246569 ; 96050.7653964671 ; 8568.000000000002
37 ; 22526.898776329803 ; 2668.076816568533 ; 557089.8813562203 ; 98718.84221303563 ; 8806.000000000002
38 ; 23001.63500907541 ; 2668.076816568533 ; 579616.7801325502 ; 101386.91902960416 ; 9044.000000000002
39 ; 23081.223435962744 ; 2668.076816568533 ; 602618.4151416256 ; 104054.9958461727 ; 9282.000000000002
40 ; 23226.995186299413 ; 2668.076816568533 ; 625699.6385775883 ; 106723.07266274122 ; 9520.000000000002
41 ; 23751.64564570875 ; 2668.076816568533 ; 648926.6337638877 ; 109391.14947930975 ; 9758.000000000002
42 ; 24082.97222009355 ; 2668.076816568533 ; 672678.2794095965 ; 112059.22629587828 ; 9996.000000000002
43 ; 24305.04055331933 ; 2668.076816568533 ; 696761.25162969 ; 114727.30311244681 ; 10234.000000000002
44 ; 24460.428486638622 ; 2668.076816568533 ; 721066.2921830094 ; 117395.37992901534 ; 10472.000000000002
45 ; 24724.275914370803 ; 2668.076816568533 ; 745526.720669648 ; 120063.45674558387 ; 10710.000000000002
46 ; 25145.789826371332 ; 2668.076816568533 ; 770250.9965840188 ; 122731.5335621524 ; 10948.000000000002
47 ; 25171.016231339403 ; 2668.076816568533 ; 795396.7864103902 ; 125399.61037872093 ; 11186.000000000002
48 ; 25620.90781875475 ; 2668.076816568533 ; 820567.8026417296 ; 128067.68719528946 ; 11424.000000000002
49 ; 25686.28544395104 ; 2668.076816568533 ; 846188.7104604844 ; 130735.76401185799 ; 11662.000000000002
50 ; 25916.434425653817 ; 2668.076816568533 ; 871874.9959044354 ; 133403.84082842653 ; 11900.000000000002
51 ; 26095.89197159477 ; 2668.076816568533 ; 897791.4303300892 ; 136071.91764499506 ; 12138.000000000002
52 ; 26290.216218319856 ; 2668.076816568533 ; 923887.322301684 ; 138739.9944615636 ; 12376.000000000002
53 ; 26598.69744719228 ; 2668.076816568533 ; 950177.5385200038 ; 141408.07127813212 ; 12614.000000000002
54 ; 26818.106592913176 ; 2668.076816568533 ; 976776.2359671961 ; 144076.14809470065 ; 12852.000000000002
55 ; 26945.13869012702 ; 2668.076816568533 ; 1003594.3425601092 ; 146744.22491126918 ; 13090.000000000002
56 ; 27345.362260513743 ; 2668.076816568533 ; 1030539.4812502363 ; 149412.3017278377 ; 13328.000000000002
57 ; 27456.217905762012 ; 2668.076816568533 ; 1057884.84351075 ; 152080.37854440624 ; 13566.000000000002
58 ; 27568.63728361565 ; 2668.076816568533 ; 1085341.061416512 ; 154748.45536097477 ; 13804.000000000002
59 ; 27794.966280937228 ; 2668.076816568533 ; 1112909.6987001277 ; 157416.5321775433 ; 14042.000000000002
60 ; 28008.057753213547 ; 2668.076816568533 ; 1140704.6649810649 ; 160084.60899411183 ; 14280.000000000002
61 ; 28085.99229993593 ; 2668.076816568533 ; 1168712.7227342783 ; 162752.68581068036 ; 14518.000000000002
62 ; 28202.727528009586 ; 2668.076816568533 ; 1196798.7150342143 ; 165420.76262724889 ; 14756.000000000002
63 ; 28242.91337770226 ; 2668.076816568533 ; 1225001.4425622239 ; 168088.83944381741 ; 14994.000000000002
64 ; 28419.181266160856 ; 2668.076816568533 ; 1253244.355939926 ; 170756.91626038594 ; 15232.000000000002
65 ; 28501.66941222166 ; 2668.076816568533 ; 1281663.537206087 ; 173424.99307695447 ; 15470.000000000002
66 ; 28611.26666654477 ; 2668.076816568533 ; 1310165.2066183088 ; 176093.069893523 ; 15708.000000000002
67 ; 28796.273872758044 ; 2668.076816568533 ; 1338776.4732848536 ; 178761.14671009153 ; 15946.000000000002
68 ; 28926.308131461406 ; 2668.076816568533 ; 1367572.7471576117 ; 181429.22352666006 ; 16184.000000000002
69 ; 29065.547899641137 ; 2668.076816568533 ; 1396499.0552890731 ; 184097.3003432286 ; 16422.000000000004
70 ; 28930.59112446168 ; 2668.076816568533 ; 1425564.6031887142 ; 186765.37715979712 ; 16660.000000000004
71 ; 29314.036922891988 ; 2668.076816568533 ; 1454495.194313176 ; 189433.45397636565 ; 16898.000000000004
72 ; 29349.978354812873 ; 2668.076816568533 ; 1483809.231236068 ; 192101.53079293418 ; 17136.000000000004
73 ; 29466.48567208915 ; 2668.076816568533 ; 1513159.209590881 ; 194769.6076095027 ; 17374.000000000004
74 ; 29347.657468299338 ; 2668.076816568533 ; 1542625.69526297 ; 197437.68442607124 ; 17612.000000000004
75 ; 29490.073518542147 ; 2668.076816568533 ; 1571973.3527312693 ; 200105.76124263977 ; 17850.000000000004
76 ; 29378.815415278816 ; 2668.076816568533 ; 1601463.4262498114 ; 202773.8380592083 ; 18088.000000000004
77 ; 29451.34049415548 ; 2668.076816568533 ; 1630842.2416650902 ; 205441.91487577683 ; 18326.000000000004
78 ; 29416.47958414046 ; 2668.076816568533 ; 1660293.5821592456 ; 208109.99169234536 ; 18564.000000000004
79 ; 29452.94858423259 ; 2668.076816568533 ; 1689710.061743386 ; 210778.0685089139 ; 18802.000000000004
80 ; 29371.256402384683 ; 2668.076816568533 ; 1719163.0103276186 ; 213446.14532548242 ; 19040.000000000004
81 ; 29647.81075680498 ; 2668.076816568533 ; 1748534.2667300033 ; 216114.22214205094 ; 19278.000000000004
82 ; 29302.199301243832 ; 2668.076816568533 ; 1778182.0774868082 ; 218782.29895861947 ; 19516.000000000004
83 ; 29330.20896923322 ; 2668.076816568533 ; 1807484.276788052 ; 221450.375775188 ; 19754.000000000004
84 ; 29605.635482598755 ; 2668.076816568533 ; 1836814.4857572853 ; 224118.45259175653 ; 19992.000000000004
85 ; 29413.71093707923 ; 2668.076816568533 ; 1866420.121239884 ; 226786.52940832506 ; 20230.000000000004
86 ; 29577.18501285893 ; 2668.076816568533 ; 1895833.8321769633 ; 229454.6062248936 ; 20468.000000000004
87 ; 29654.924922875853 ; 2668.076816568533 ; 1925411.0171898222 ; 232122.68304146212 ; 20706.000000000004
88 ; 29260.444310747316 ; 2668.076816568533 ; 1955065.942112698 ; 234790.75985803065 ; 20944.000000000004
89 ; 29399.967313169956 ; 2668.076816568533 ; 1984326.3864234453 ; 237458.83667459918 ; 21182.000000000004
90 ; 29242.534036093202 ; 2668.076816568533 ; 2013726.3537366153 ; 240126.9134911677 ; 21420.000000000004
91 ; 29440.37005885761 ; 2668.076816568533 ; 2042968.8877727084 ; 242794.99030773624 ; 21658.000000000004
92 ; 29201.07036587965 ; 2668.076816568533 ; 2072409.257831566 ; 245463.06712430477 ; 21896.000000000004
93 ; 29207.38775915035 ; 2668.076816568533 ; 2101610.3281974457 ; 248131.1439408733 ; 22134.000000000004
94 ; 28999.876391541104 ; 2668.076816568533 ; 2130817.715956596 ; 250799.22075744183 ; 22372.000000000004
95 ; 28909.009053363865 ; 2668.076816568533 ; 2159817.5923481374 ; 253467.29757401036 ; 22610.000000000004
96 ; 28837.873860786196 ; 2668.076816568533 ; 2188726.6014015013 ; 256135.3743905789 ; 22848.000000000004
97 ; 28835.41696714446 ; 2668.076816568533 ; 2217564.4752622875 ; 258803.45120714742 ; 23086.000000000004
98 ; 28493.430032168417 ; 2668.076816568533 ; 2246399.892229432 ; 261471.52802371595 ; 23324.000000000004
99 ; 28605.283920929323 ; 2668.076816568533 ; 2274893.3222616003 ; 264139.6048402845 ; 23562.000000000004
100 ; 28432.246386016992 ; 2668.076816568533 ; 2303498.6061825296 ; 266807.68165685306 ; 23800.000000000004
101 ; 28303.186495746046 ; 2668.076816568533 ; 2331930.852568547 ; 269475.7584734216 ; 24038.000000000004
102 ; 27955.999656820884 ; 2668.076816568533 ; 2360234.039064293 ; 272143.8352899902 ; 24276.000000000004
103 ; 28130.273070205123 ; 2668.076816568533 ; 2388190.0387211135 ; 274811.91210655874 ; 24514.000000000004
104 ; 27855.86736509085 ; 2668.076816568533 ; 2416320.3117913185 ; 277479.9889231273 ; 24752.000000000004
105 ; 27855.902051346548 ; 2668.076816568533 ; 2444176.179156409 ; 280148.06573969586 ; 24990.000000000004
106 ; 27634.606472286836 ; 2668.076816568533 ; 2472032.0812077555 ; 282816.1425562644 ; 25228.000000000004
107 ; 27468.58573075115 ; 2668.076816568533 ; 2499666.6876800423 ; 285484.219372833 ; 25466.000000000004
108 ; 27195.237956467645 ; 2668.076816568533 ; 2527135.2734107934 ; 288152.29618940153 ; 25704.000000000004
109 ; 27133.858940112113 ; 2668.076816568533 ; 2554330.511367261 ; 290820.3730059701 ; 25942.000000000004
110 ; 26990.169710392864 ; 2668.076816568533 ; 2581464.370307373 ; 293488.44982253865 ; 26180.000000000004
111 ; 26817.666431655984 ; 2668.076816568533 ; 2608454.540017766 ; 296156.5266391072 ; 26418.000000000004
112 ; 26361.329178001724 ; 2668.076816568533 ; 2635272.206449422 ; 298824.60345567577 ; 26656.000000000004
113 ; 26274.194097359446 ; 2668.076816568533 ; 2661633.535627424 ; 301492.6802722443 ; 26894.000000000004
114 ; 26159.903724096384 ; 2668.076816568533 ; 2687907.7297247835 ; 304160.7570888129 ; 27132.000000000004
115 ; 25712.811506036818 ; 2668.076816568533 ; 2714067.6334488797 ; 306828.83390538144 ; 27370.000000000004
116 ; 25609.446956616688 ; 2668.076816568533 ; 2739780.4449549164 ; 309496.91072195 ; 27608.000000000004
117 ; 25450.64423084984 ; 2668.076816568533 ; 2765389.891911533 ; 312164.98753851856 ; 27846.000000000004
118 ; 25125.011799155716 ; 2668.076816568533 ; 2790840.5361423832 ; 314833.0643550871 ; 28084.000000000004
119 ; 25003.8395405272 ; 2668.076816568533 ; 2815965.547941539 ; 317501.1411716557 ; 28322.000000000004
120 ; 24832.743690632247 ; 2668.076816568533 ; 2840969.387482066 ; 320169.21798822423 ; 28560.000000000004
121 ; 24566.057302252717 ; 2668.076816568533 ; 2865802.1311726985 ; 322837.2948047928 ; 28798.000000000004
122 ; 23979.400038905467 ; 2668.076816568533 ; 2890368.1884749513 ; 325505.37162136135 ; 29036.000000000004
123 ; 23991.226223232465 ; 2668.076816568533 ; 2914347.5885138568 ; 328173.4484379299 ; 29274.000000000004
124 ; 23658.463326061228 ; 2668.076816568533 ; 2938338.8147370894 ; 330841.52525449847 ; 29512.000000000004
125 ; 23034.913588103358 ; 2668.076816568533 ; 2961997.2780631506 ; 333509.602071067 ; 29750.000000000004
126 ; 23009.55712578832 ; 2668.076816568533 ; 2985032.191651254 ; 336177.6788876356 ; 29988.000000000004
127 ; 22766.913312730267 ; 2668.076816568533 ; 3008041.748777042 ; 338845.75570420414 ; 30226.000000000004
128 ; 22346.445413376674 ; 2668.076816568533 ; 3030808.6620897725 ; 341513.8325207727 ; 30464.000000000004
129 ; 21972.652584655378 ; 2668.076816568533 ; 3053155.107503149 ; 344181.90933734126 ; 30702.000000000004
130 ; 21886.950620274547 ; 2668.076816568533 ; 3075127.7600878044 ; 346849.9861539098 ; 30940.000000000004
131 ; 21301.932439267668 ; 2668.076816568533 ; 3097014.710708079 ; 349518.0629704784 ; 31178.000000000004
132 ; 21197.133591728947 ; 2668.076816568533 ; 3118316.6431473466 ; 352186.13978704694 ; 31416.000000000004
133 ; 20814.17346028548 ; 2668.076816568533 ; 3139513.7767390753 ; 354854.2166036155 ; 31654.000000000004
134 ; 20547.27512348665 ; 2668.076816568533 ; 3160327.950199361 ; 357522.29342018405 ; 31892.000000000004
135 ; 19979.94614558938 ; 2668.076816568533 ; 3180875.2253228477 ; 360190.3702367526 ; 32130.000000000004
136 ; 19549.834793331713 ; 2668.076816568533 ; 3200855.171468437 ; 362858.4470533212 ; 32368.000000000004
137 ; 19209.47926593839 ; 2668.076816568533 ; 3220405.0062617688 ; 365526.52386988973 ; 32606.000000000004
138 ; 18933.1548597444 ; 2668.076816568533 ; 3239614.4855277073 ; 368194.6006864583 ; 32844.00000000001
139 ; 18404.301915593627 ; 2668.076816568533 ; 3258547.6403874517 ; 370862.67750302685 ; 33082.00000000001
140 ; 18324.757532097454 ; 2668.076816568533 ; 3276951.942303045 ; 373530.7543195954 ; 33320.00000000001
141 ; 17747.06869204924 ; 2668.076816568533 ; 3295276.6998351426 ; 376198.83113616396 ; 33558.00000000001
142 ; 17365.459376108945 ; 2668.076816568533 ; 3313023.7685271916 ; 378866.9079527325 ; 33796.00000000001
143 ; 17071.35202306596 ; 2668.076816568533 ; 3330389.2279033004 ; 381534.9847693011 ; 34034.00000000001
144 ; 16578.88266160928 ; 2668.076816568533 ; 3347460.5799263665 ; 384203.06158586964 ; 34272.00000000001
145 ; 16472.863228848688 ; 2668.076816568533 ; 3364039.462587976 ; 386871.1384024382 ; 34510.00000000001
146 ; 16307.422936177863 ; 2668.076816568533 ; 3380512.3258168246 ; 389539.21521900676 ; 34748.00000000001
147 ; 16220.201425992844 ; 2668.076816568533 ; 3396819.7487530024 ; 392207.2920355753 ; 34986.00000000001
148 ; 16117.75523919613 ; 2668.076816568533 ; 3413039.9501789953 ; 394875.3688521439 ; 35224.00000000001
149 ; 16048.822537245165 ; 2668.076816568533 ; 3429157.7054181914 ; 397543.44566871243 ; 35462.00000000001
150 ; 15715.91800723305 ; 2668.076816568533 ; 3445206.5279554366 ; 400211.522485281 ; 35700.00000000001
151 ; 15887.15519001744 ; 2668.076816568533 ; 3460922.44596267 ; 402879.59930184955 ; 35938.00000000001
152 ; 15562.698037855414 ; 2668.076816568533 ; 3476809.6011526873 ; 405547.6761184181 ; 36176.00000000001
153 ; 15504.215773901902 ; 2668.076816568533 ; 3492372.2991905427 ; 408215.75293498667 ; 36414.00000000001
154 ; 15323.682535267086 ; 2668.076816568533 ; 3507876.5149644446 ; 410883.8297515552 ; 36652.00000000001
155 ; 15317.800396445873 ; 2668.076816568533 ; 3523200.1974997115 ; 413551.9065681238 ; 36890.00000000001
156 ; 15252.935680353738 ; 2668.076816568533 ; 3538517.997896157 ; 416219.98338469234 ; 37128.00000000001
157 ; 15009.878551383876 ; 2668.076816568533 ; 3553770.9335765108 ; 418888.0602012609 ; 37366.00000000001
158 ; 14769.821243808552 ; 2668.076816568533 ; 3568780.8121278947 ; 421556.13701782946 ; 37604.00000000001
159 ; 14651.311239921022 ; 2668.076816568533 ; 3583550.6333717033 ; 424224.213834398 ; 37842.00000000001
160 ; 14576.598136536923 ; 2668.076816568533 ; 3598201.9446116243 ; 426892.2906509666 ; 38080.00000000001
161 ; 14434.238133202776 ; 2668.076816568533 ; 3612778.542748161 ; 429560.36746753514 ; 38318.00000000001
162 ; 14010.50928264428 ; 2668.076816568533 ; 3627212.780881364 ; 432228.4442841037 ; 38556.00000000001
163 ; 13846.913242443654 ; 2668.076816568533 ; 3641223.2901640083 ; 434896.52110067225 ; 38794.00000000001
164 ; 13946.64247983175 ; 2668.076816568533 ; 3655070.2034064517 ; 437564.5979172408 ; 39032.00000000001
165 ; 13742.035745411205 ; 2668.076816568533 ; 3669016.8458862836 ; 440232.67473380937 ; 39270.00000000001
166 ; 13564.740367303371 ; 2668.076816568533 ; 3682758.8816316947 ; 442900.7515503779 ; 39508.00000000001
167 ; 13251.678846812925 ; 2668.076816568533 ; 3696323.6219989983 ; 445568.8283669465 ; 39746.00000000001
168 ; 13023.007097732983 ; 2668.076816568533 ; 3709575.300845811 ; 448236.90518351505 ; 39984.00000000001
169 ; 13125.972335556648 ; 2668.076816568533 ; 3722598.3079435444 ; 450904.9820000836 ; 40222.00000000001
170 ; 12912.601615833433 ; 2668.076816568533 ; 3735724.280279101 ; 453573.05881665216 ; 40460.00000000001
171 ; 12724.714462183809 ; 2668.076816568533 ; 3748636.8818949345 ; 456241.1356332207 ; 40698.00000000001
172 ; 12558.944880399142 ; 2668.076816568533 ; 3761361.5963571183 ; 458909.2124497893 ; 40936.00000000001
173 ; 12150.212941253825 ; 2668.076816568533 ; 3773920.5412375173 ; 461577.28926635784 ; 41174.00000000001
174 ; 12526.653119644152 ; 2668.076816568533 ; 3786070.7541787713 ; 464245.3660829264 ; 41412.00000000001
175 ; 12514.500664770845 ; 2668.076816568533 ; 3798597.4072984154 ; 466913.44289949496 ; 41650.00000000001
176 ; 12489.406257430182 ; 2668.076816568533 ; 3811111.9079631865 ; 469581.5197160635 ; 41888.00000000001
177 ; 12443.926000674399 ; 2668.076816568533 ; 3823601.3142206166 ; 472249.5965326321 ; 42126.00000000001
178 ; 12525.40543706988 ; 2668.076816568533 ; 3836045.240221291 ; 474917.67334920063 ; 42364.00000000001
179 ; 12404.414256504775 ; 2668.076816568533 ; 3848570.645658361 ; 477585.7501657692 ; 42602.00000000001
180 ; 12749.418464410794 ; 2668.076816568533 ; 3860975.0599148655 ; 480253.82698233775 ; 42840.00000000001
181 ; 12722.18390317092 ; 2668.076816568533 ; 3873724.478379276 ; 482921.9037989063 ; 43078.00000000001
182 ; 12707.801148282151 ; 2668.076816568533 ; 3886446.662282447 ; 485589.98061547487 ; 43316.00000000001
183 ; 12881.012557764105 ; 2668.076816568533 ; 3899154.463430729 ; 488258.0574320434 ; 43554.00000000001
184 ; 12951.146400644438 ; 2668.076816568533 ; 3912035.4759884933 ; 490926.134248612 ; 43792.00000000001
185 ; 12852.652251472731 ; 2668.076816568533 ; 3924986.6223891377 ; 493594.21106518054 ; 44030.00000000001
