CSV File for the City 1 on Day 170
1 - Minute m 
2 - Power Consumed at minute m 
3 - Power Produced at minute m 
4 - Energy Consumed since the beginning of the day 
5 - Energy Produced since the beginning of the day 
6 - Energy Lost since the beginning of the day on lines starting from the city
 
0 ; 7005.138109632158 ; 2840.153601796308 ; 0.0 ; 0.0 ; 0.0
1 ; 7476.02525217967 ; 2840.153601796308 ; 7005.138109632158 ; 2840.153601796308 ; 238.00000000000003
2 ; 7951.35097409471 ; 2840.153601796308 ; 14481.163361811829 ; 5680.307203592616 ; 476.00000000000006
3 ; 8632.65272201472 ; 2840.153601796308 ; 22432.51433590654 ; 8520.460805388924 ; 714.0000000000001
4 ; 9183.089459562774 ; 2840.153601796308 ; 31065.16705792126 ; 11360.614407185232 ; 952.0000000000001
5 ; 9645.55030973482 ; 2840.153601796308 ; 40248.256517484035 ; 14200.76800898154 ; 1190.0000000000002
6 ; 10071.551680298558 ; 2840.153601796308 ; 49893.806827218854 ; 17040.92161077785 ; 1428.0000000000002
7 ; 10566.872572274731 ; 2840.153601796308 ; 59965.35850751741 ; 19881.075212574156 ; 1666.0000000000002
8 ; 11134.870737890073 ; 2840.153601796308 ; 70532.23107979214 ; 22721.228814370465 ; 1904.0000000000002
9 ; 11666.695470176788 ; 2840.153601796308 ; 81667.10181768221 ; 25561.382416166773 ; 2142.0000000000005
10 ; 12127.782373250075 ; 2840.153601796308 ; 93333.797287859 ; 28401.53601796308 ; 2380.0000000000005
11 ; 12671.970394424066 ; 2840.153601796308 ; 105461.57966110906 ; 31241.68961975939 ; 2618.0000000000005
12 ; 12945.619786963105 ; 2840.153601796308 ; 118133.55005553312 ; 34081.8432215557 ; 2856.0000000000005
13 ; 13328.295671192394 ; 2840.153601796308 ; 131079.16984249622 ; 36921.996823352005 ; 3094.0000000000005
14 ; 13914.568210006677 ; 2840.153601796308 ; 144407.46551368863 ; 39762.15042514831 ; 3332.0000000000005
15 ; 14301.052426131126 ; 2840.153601796308 ; 158322.03372369532 ; 42602.30402694462 ; 3570.0000000000005
16 ; 14710.397898599429 ; 2840.153601796308 ; 172623.08614982644 ; 45442.45762874093 ; 3808.0000000000005
17 ; 15210.344951223247 ; 2840.153601796308 ; 187333.48404842586 ; 48282.61123053724 ; 4046.0000000000005
18 ; 15586.066555884938 ; 2840.153601796308 ; 202543.8289996491 ; 51122.764832333545 ; 4284.000000000001
19 ; 15959.184333955387 ; 2840.153601796308 ; 218129.89555553402 ; 53962.91843412985 ; 4522.000000000001
20 ; 16414.82930245958 ; 2840.153601796308 ; 234089.0798894894 ; 56803.07203592616 ; 4760.000000000001
21 ; 16770.646143861224 ; 2840.153601796308 ; 250503.90919194897 ; 59643.22563772247 ; 4998.000000000001
22 ; 17185.502662062274 ; 2840.153601796308 ; 267274.5553358102 ; 62483.37923951878 ; 5236.000000000001
23 ; 17589.504896478567 ; 2840.153601796308 ; 284460.05799787247 ; 65323.532841315086 ; 5474.000000000001
24 ; 17910.486863732098 ; 2840.153601796308 ; 302049.562894351 ; 68163.6864431114 ; 5712.000000000001
25 ; 18363.788413485017 ; 2840.153601796308 ; 319960.0497580831 ; 71003.8400449077 ; 5950.000000000001
26 ; 18712.745222919588 ; 2840.153601796308 ; 338323.8381715681 ; 73843.99364670401 ; 6188.000000000001
27 ; 19160.490724830663 ; 2840.153601796308 ; 357036.5833944877 ; 76684.14724850032 ; 6426.000000000001
28 ; 19521.858114573213 ; 2840.153601796308 ; 376197.07411931833 ; 79524.30085029663 ; 6664.000000000001
29 ; 19939.020909280025 ; 2840.153601796308 ; 395718.93223389157 ; 82364.45445209293 ; 6902.000000000001
30 ; 20277.199417314194 ; 2840.153601796308 ; 415657.9531431716 ; 85204.60805388924 ; 7140.000000000001
31 ; 20411.53412117458 ; 2840.153601796308 ; 435935.1525604858 ; 88044.76165568555 ; 7378.000000000001
32 ; 20724.412953366238 ; 2840.153601796308 ; 456346.6866816604 ; 90884.91525748186 ; 7616.000000000001
33 ; 21212.778508885356 ; 2840.153601796308 ; 477071.09963502665 ; 93725.06885927817 ; 7854.000000000001
34 ; 21263.38283455647 ; 2840.153601796308 ; 498283.878143912 ; 96565.22246107447 ; 8092.000000000001
35 ; 21691.183762749333 ; 2840.153601796308 ; 519547.26097846846 ; 99405.37606287078 ; 8330.000000000002
36 ; 22040.48215523446 ; 2840.153601796308 ; 541238.4447412178 ; 102245.52966466709 ; 8568.000000000002
37 ; 22397.80298392035 ; 2840.153601796308 ; 563278.9268964522 ; 105085.6832664634 ; 8806.000000000002
38 ; 22611.23687120224 ; 2840.153601796308 ; 585676.7298803725 ; 107925.8368682597 ; 9044.000000000002
39 ; 22967.585259201667 ; 2840.153601796308 ; 608287.9667515748 ; 110765.99047005601 ; 9282.000000000002
40 ; 23257.343023094654 ; 2840.153601796308 ; 631255.5520107765 ; 113606.14407185232 ; 9520.000000000002
41 ; 23508.990333736616 ; 2840.153601796308 ; 654512.8950338712 ; 116446.29767364863 ; 9758.000000000002
42 ; 23624.413928234888 ; 2840.153601796308 ; 678021.8853676078 ; 119286.45127544494 ; 9996.000000000002
43 ; 23953.846217226936 ; 2840.153601796308 ; 701646.2992958426 ; 122126.60487724125 ; 10234.000000000002
44 ; 24189.09626832412 ; 2840.153601796308 ; 725600.1455130696 ; 124966.75847903755 ; 10472.000000000002
45 ; 24394.78283653252 ; 2840.153601796308 ; 749789.2417813936 ; 127806.91208083386 ; 10710.000000000002
46 ; 24676.96812565404 ; 2840.153601796308 ; 774184.0246179262 ; 130647.06568263017 ; 10948.000000000002
47 ; 24915.737885609306 ; 2840.153601796308 ; 798860.9927435803 ; 133487.21928442648 ; 11186.000000000002
48 ; 25395.10562988519 ; 2840.153601796308 ; 823776.7306291895 ; 136327.3728862228 ; 11424.000000000002
49 ; 25472.611495107612 ; 2840.153601796308 ; 849171.8362590747 ; 139167.5264880191 ; 11662.000000000002
50 ; 25475.064705487068 ; 2840.153601796308 ; 874644.4477541824 ; 142007.6800898154 ; 11900.000000000002
51 ; 25688.333059934925 ; 2840.153601796308 ; 900119.5124596695 ; 144847.8336916117 ; 12138.000000000002
52 ; 25853.959020853876 ; 2840.153601796308 ; 925807.8455196044 ; 147687.98729340802 ; 12376.000000000002
53 ; 26328.082363210848 ; 2840.153601796308 ; 951661.8045404583 ; 150528.14089520433 ; 12614.000000000002
54 ; 26484.510959268973 ; 2840.153601796308 ; 977989.8869036691 ; 153368.29449700064 ; 12852.000000000002
55 ; 26479.867271570234 ; 2840.153601796308 ; 1004474.3978629381 ; 156208.44809879694 ; 13090.000000000002
56 ; 26697.59800728873 ; 2840.153601796308 ; 1030954.2651345084 ; 159048.60170059325 ; 13328.000000000002
57 ; 27068.78756828711 ; 2840.153601796308 ; 1057651.863141797 ; 161888.75530238956 ; 13566.000000000002
58 ; 27208.59881697817 ; 2840.153601796308 ; 1084720.650710084 ; 164728.90890418587 ; 13804.000000000002
59 ; 27367.797977512437 ; 2840.153601796308 ; 1111929.2495270623 ; 167569.06250598218 ; 14042.000000000002
60 ; 27342.44924964964 ; 2840.153601796308 ; 1139297.0475045748 ; 170409.21610777848 ; 14280.000000000002
61 ; 27814.809358018014 ; 2840.153601796308 ; 1166639.4967542244 ; 173249.3697095748 ; 14518.000000000002
62 ; 27546.43692473227 ; 2840.153601796308 ; 1194454.3061122424 ; 176089.5233113711 ; 14756.000000000002
63 ; 27693.22370036197 ; 2840.153601796308 ; 1222000.7430369747 ; 178929.6769131674 ; 14994.000000000002
64 ; 28019.079688343318 ; 2840.153601796308 ; 1249693.9667373367 ; 181769.83051496372 ; 15232.000000000002
65 ; 27899.673092235626 ; 2840.153601796308 ; 1277713.04642568 ; 184609.98411676002 ; 15470.000000000002
66 ; 27998.637360858524 ; 2840.153601796308 ; 1305612.7195179155 ; 187450.13771855633 ; 15708.000000000002
67 ; 27912.51291841645 ; 2840.153601796308 ; 1333611.356878774 ; 190290.29132035264 ; 15946.000000000002
68 ; 28515.08427524995 ; 2840.153601796308 ; 1361523.8697971904 ; 193130.44492214895 ; 16184.000000000002
69 ; 28452.192485706168 ; 2840.153601796308 ; 1390038.9540724403 ; 195970.59852394526 ; 16422.000000000004
70 ; 28624.40976108359 ; 2840.153601796308 ; 1418491.1465581465 ; 198810.75212574156 ; 16660.000000000004
71 ; 28475.179689130935 ; 2840.153601796308 ; 1447115.55631923 ; 201650.90572753787 ; 16898.000000000004
72 ; 28626.573232723036 ; 2840.153601796308 ; 1475590.736008361 ; 204491.05932933418 ; 17136.000000000004
73 ; 28787.21970970394 ; 2840.153601796308 ; 1504217.309241084 ; 207331.2129311305 ; 17374.000000000004
74 ; 28765.03743163973 ; 2840.153601796308 ; 1533004.5289507878 ; 210171.3665329268 ; 17612.000000000004
75 ; 28691.25932927596 ; 2840.153601796308 ; 1561769.5663824275 ; 213011.5201347231 ; 17850.000000000004
76 ; 28855.31577144144 ; 2840.153601796308 ; 1590460.8257117034 ; 215851.6737365194 ; 18088.000000000004
77 ; 28875.393326646714 ; 2840.153601796308 ; 1619316.1414831448 ; 218691.82733831572 ; 18326.000000000004
78 ; 28782.09535208629 ; 2840.153601796308 ; 1648191.5348097915 ; 221531.98094011203 ; 18564.000000000004
79 ; 29087.53982691139 ; 2840.153601796308 ; 1676973.6301618777 ; 224372.13454190834 ; 18802.000000000004
80 ; 28958.994266325153 ; 2840.153601796308 ; 1706061.1699887891 ; 227212.28814370465 ; 19040.000000000004
81 ; 28918.414723083133 ; 2840.153601796308 ; 1735020.1642551143 ; 230052.44174550095 ; 19278.000000000004
82 ; 29075.49671501772 ; 2840.153601796308 ; 1763938.5789781974 ; 232892.59534729726 ; 19516.000000000004
83 ; 29001.77435537345 ; 2840.153601796308 ; 1793014.0756932152 ; 235732.74894909357 ; 19754.000000000004
84 ; 28925.260361558343 ; 2840.153601796308 ; 1822015.8500485886 ; 238572.90255088988 ; 19992.000000000004
85 ; 28960.680407706473 ; 2840.153601796308 ; 1850941.1104101469 ; 241413.0561526862 ; 20230.000000000004
86 ; 28810.873702195116 ; 2840.153601796308 ; 1879901.7908178533 ; 244253.2097544825 ; 20468.000000000004
87 ; 28950.07008913931 ; 2840.153601796308 ; 1908712.6645200483 ; 247093.3633562788 ; 20706.000000000004
88 ; 28654.945272681827 ; 2840.153601796308 ; 1937662.7346091876 ; 249933.5169580751 ; 20944.000000000004
89 ; 28804.204829935894 ; 2840.153601796308 ; 1966317.6798818693 ; 252773.67055987142 ; 21182.000000000004
90 ; 28638.438461341913 ; 2840.153601796308 ; 1995121.8847118053 ; 255613.82416166773 ; 21420.000000000004
91 ; 28639.646071018185 ; 2840.153601796308 ; 2023760.3231731472 ; 258453.97776346403 ; 21658.000000000004
92 ; 28741.123262797202 ; 2840.153601796308 ; 2052399.9692441653 ; 261294.13136526034 ; 21896.000000000004
93 ; 28507.620525484315 ; 2840.153601796308 ; 2081141.0925069626 ; 264134.28496705665 ; 22134.000000000004
94 ; 28331.658015986428 ; 2840.153601796308 ; 2109648.713032447 ; 266974.43856885296 ; 22372.000000000004
95 ; 28299.176507661432 ; 2840.153601796308 ; 2137980.3710484332 ; 269814.59217064927 ; 22610.000000000004
96 ; 28334.25592921052 ; 2840.153601796308 ; 2166279.547556095 ; 272654.7457724456 ; 22848.000000000004
97 ; 28038.419806677903 ; 2840.153601796308 ; 2194613.8034853055 ; 275494.8993742419 ; 23086.000000000004
98 ; 28096.3118840751 ; 2840.153601796308 ; 2222652.2232919834 ; 278335.0529760382 ; 23324.000000000004
99 ; 27950.703748117692 ; 2840.153601796308 ; 2250748.5351760583 ; 281175.2065778345 ; 23562.000000000004
100 ; 27963.3596594484 ; 2840.153601796308 ; 2278699.238924176 ; 284015.3601796308 ; 23800.000000000004
101 ; 27767.908272171364 ; 2840.153601796308 ; 2306662.598583624 ; 286855.5137814271 ; 24038.000000000004
102 ; 27566.927943145274 ; 2840.153601796308 ; 2334430.5068557956 ; 289695.6673832234 ; 24276.000000000004
103 ; 27470.065650321616 ; 2840.153601796308 ; 2361997.434798941 ; 292535.82098501973 ; 24514.000000000004
104 ; 27272.510684072524 ; 2840.153601796308 ; 2389467.5004492626 ; 295375.97458681604 ; 24752.000000000004
105 ; 27346.474451721617 ; 2840.153601796308 ; 2416740.011133335 ; 298216.12818861235 ; 24990.000000000004
106 ; 26867.743368803614 ; 2840.153601796308 ; 2444086.4855850567 ; 301056.28179040866 ; 25228.000000000004
107 ; 26778.11256063799 ; 2840.153601796308 ; 2470954.2289538602 ; 303896.43539220496 ; 25466.000000000004
108 ; 26771.178271552068 ; 2840.153601796308 ; 2497732.341514498 ; 306736.5889940013 ; 25704.000000000004
109 ; 26582.96733516996 ; 2840.153601796308 ; 2524503.51978605 ; 309576.7425957976 ; 25942.000000000004
110 ; 26570.536498868067 ; 2840.153601796308 ; 2551086.48712122 ; 312416.8961975939 ; 26180.000000000004
111 ; 26204.034185157663 ; 2840.153601796308 ; 2577657.023620088 ; 315257.0497993902 ; 26418.000000000004
112 ; 26094.60112648676 ; 2840.153601796308 ; 2603861.0578052457 ; 318097.2034011865 ; 26656.000000000004
113 ; 25754.215512952498 ; 2840.153601796308 ; 2629955.6589317326 ; 320937.3570029828 ; 26894.000000000004
114 ; 25534.67927282664 ; 2840.153601796308 ; 2655709.874444685 ; 323777.5106047791 ; 27132.000000000004
115 ; 25320.604589208513 ; 2840.153601796308 ; 2681244.5537175117 ; 326617.6642065754 ; 27370.000000000004
116 ; 25032.0641426809 ; 2840.153601796308 ; 2706565.15830672 ; 329457.81780837174 ; 27608.000000000004
117 ; 25111.90899884071 ; 2840.153601796308 ; 2731597.222449401 ; 332297.97141016804 ; 27846.000000000004
118 ; 24740.685972143052 ; 2840.153601796308 ; 2756709.1314482414 ; 335138.12501196435 ; 28084.000000000004
119 ; 24557.7773892107 ; 2840.153601796308 ; 2781449.8174203844 ; 337978.27861376066 ; 28322.000000000004
120 ; 24188.90396245699 ; 2840.153601796308 ; 2806007.594809595 ; 340818.43221555697 ; 28560.000000000004
121 ; 24028.38350335091 ; 2840.153601796308 ; 2830196.498772052 ; 343658.5858173533 ; 28798.000000000004
122 ; 23706.106267198884 ; 2840.153601796308 ; 2854224.882275403 ; 346498.7394191496 ; 29036.000000000004
123 ; 23626.071851995384 ; 2840.153601796308 ; 2877930.988542602 ; 349338.8930209459 ; 29274.000000000004
124 ; 23181.325311328626 ; 2840.153601796308 ; 2901557.0603945972 ; 352179.0466227422 ; 29512.000000000004
125 ; 22762.240534487042 ; 2840.153601796308 ; 2924738.385705926 ; 355019.2002245385 ; 29750.000000000004
126 ; 22576.35820116205 ; 2840.153601796308 ; 2947500.626240413 ; 357859.3538263348 ; 29988.000000000004
127 ; 22319.253348752292 ; 2840.153601796308 ; 2970076.984441575 ; 360699.5074281311 ; 30226.000000000004
128 ; 22152.583137080466 ; 2840.153601796308 ; 2992396.2377903275 ; 363539.66102992743 ; 30464.000000000004
129 ; 21702.03169377487 ; 2840.153601796308 ; 3014548.820927408 ; 366379.81463172374 ; 30702.000000000004
130 ; 21438.94940902545 ; 2840.153601796308 ; 3036250.852621183 ; 369219.96823352005 ; 30940.000000000004
131 ; 21260.53530810628 ; 2840.153601796308 ; 3057689.802030208 ; 372060.12183531636 ; 31178.000000000004
132 ; 20753.17771710986 ; 2840.153601796308 ; 3078950.3373383144 ; 374900.27543711266 ; 31416.000000000004
133 ; 20480.88457828551 ; 2840.153601796308 ; 3099703.515055424 ; 377740.429038909 ; 31654.000000000004
134 ; 20161.254390062386 ; 2840.153601796308 ; 3120184.39963371 ; 380580.5826407053 ; 31892.000000000004
135 ; 19795.36277313817 ; 2840.153601796308 ; 3140345.654023772 ; 383420.7362425016 ; 32130.000000000004
136 ; 19474.467437062405 ; 2840.153601796308 ; 3160141.01679691 ; 386260.8898442979 ; 32368.000000000004
137 ; 19087.711440769115 ; 2840.153601796308 ; 3179615.4842339726 ; 389101.0434460942 ; 32606.000000000004
138 ; 18648.454306643383 ; 2840.153601796308 ; 3198703.1956747416 ; 391941.1970478905 ; 32844.00000000001
139 ; 18415.143231332124 ; 2840.153601796308 ; 3217351.649981385 ; 394781.3506496868 ; 33082.00000000001
140 ; 17973.39406677065 ; 2840.153601796308 ; 3235766.7932127174 ; 397621.50425148313 ; 33320.00000000001
141 ; 17574.933504276985 ; 2840.153601796308 ; 3253740.187279488 ; 400461.65785327944 ; 33558.00000000001
142 ; 17161.902765525534 ; 2840.153601796308 ; 3271315.120783765 ; 403301.81145507575 ; 33796.00000000001
143 ; 16871.392690636283 ; 2840.153601796308 ; 3288477.0235492904 ; 406141.96505687205 ; 34034.00000000001
144 ; 16472.255021488585 ; 2840.153601796308 ; 3305348.4162399266 ; 408982.11865866836 ; 34272.00000000001
145 ; 16343.841723503161 ; 2840.153601796308 ; 3321820.6712614154 ; 411822.27226046467 ; 34510.00000000001
146 ; 16155.778303978888 ; 2840.153601796308 ; 3338164.5129849184 ; 414662.425862261 ; 34748.00000000001
147 ; 16138.124992543491 ; 2840.153601796308 ; 3354320.2912888974 ; 417502.5794640573 ; 34986.00000000001
148 ; 15739.488877665677 ; 2840.153601796308 ; 3370458.4162814408 ; 420342.7330658536 ; 35224.00000000001
149 ; 16006.265466747462 ; 2840.153601796308 ; 3386197.9051591065 ; 423182.8866676499 ; 35462.00000000001
150 ; 15535.304930935394 ; 2840.153601796308 ; 3402204.170625854 ; 426023.0402694462 ; 35700.00000000001
151 ; 15642.118091534405 ; 2840.153601796308 ; 3417739.4755567894 ; 428863.1938712425 ; 35938.00000000001
152 ; 15539.761265599423 ; 2840.153601796308 ; 3433381.593648324 ; 431703.3474730388 ; 36176.00000000001
153 ; 15210.48205925371 ; 2840.153601796308 ; 3448921.3549139234 ; 434543.50107483513 ; 36414.00000000001
154 ; 15146.937036434661 ; 2840.153601796308 ; 3464131.8369731773 ; 437383.65467663144 ; 36652.00000000001
155 ; 15087.7183018103 ; 2840.153601796308 ; 3479278.774009612 ; 440223.80827842775 ; 36890.00000000001
156 ; 14938.81001971937 ; 2840.153601796308 ; 3494366.4923114222 ; 443063.96188022406 ; 37128.00000000001
157 ; 14850.986006485473 ; 2840.153601796308 ; 3509305.3023311417 ; 445904.11548202037 ; 37366.00000000001
158 ; 14682.026469809163 ; 2840.153601796308 ; 3524156.288337627 ; 448744.2690838167 ; 37604.00000000001
159 ; 14625.879875871125 ; 2840.153601796308 ; 3538838.314807436 ; 451584.422685613 ; 37842.00000000001
160 ; 14402.642630032378 ; 2840.153601796308 ; 3553464.1946833073 ; 454424.5762874093 ; 38080.00000000001
161 ; 14231.150230256695 ; 2840.153601796308 ; 3567866.8373133396 ; 457264.7298892056 ; 38318.00000000001
162 ; 14061.922653079164 ; 2840.153601796308 ; 3582097.9875435964 ; 460104.8834910019 ; 38556.00000000001
163 ; 13948.514677450887 ; 2840.153601796308 ; 3596159.9101966755 ; 462945.0370927982 ; 38794.00000000001
164 ; 13718.87050188603 ; 2840.153601796308 ; 3610108.4248741264 ; 465785.1906945945 ; 39032.00000000001
165 ; 13645.550328363517 ; 2840.153601796308 ; 3623827.2953760126 ; 468625.34429639083 ; 39270.00000000001
166 ; 13625.649718295654 ; 2840.153601796308 ; 3637472.845704376 ; 471465.49789818714 ; 39508.00000000001
167 ; 13368.713132227787 ; 2840.153601796308 ; 3651098.495422672 ; 474305.65149998345 ; 39746.00000000001
168 ; 13079.60540203568 ; 2840.153601796308 ; 3664467.2085549 ; 477145.80510177976 ; 39984.00000000001
169 ; 13095.258930073182 ; 2840.153601796308 ; 3677546.8139569354 ; 479985.95870357606 ; 40222.00000000001
170 ; 13012.87518627798 ; 2840.153601796308 ; 3690642.0728870085 ; 482826.1123053724 ; 40460.00000000001
171 ; 12684.006147364971 ; 2840.153601796308 ; 3703654.9480732866 ; 485666.2659071687 ; 40698.00000000001
172 ; 12442.05463535177 ; 2840.153601796308 ; 3716338.9542206516 ; 488506.419508965 ; 40936.00000000001
173 ; 12204.177757673679 ; 2840.153601796308 ; 3728781.0088560036 ; 491346.5731107613 ; 41174.00000000001
174 ; 12395.205617809183 ; 2840.153601796308 ; 3740985.1866136775 ; 494186.7267125576 ; 41412.00000000001
175 ; 12461.300220728877 ; 2840.153601796308 ; 3753380.3922314867 ; 497026.8803143539 ; 41650.00000000001
176 ; 12574.183858795272 ; 2840.153601796308 ; 3765841.6924522156 ; 499867.0339161502 ; 41888.00000000001
177 ; 12470.86727434799 ; 2840.153601796308 ; 3778415.8763110107 ; 502707.1875179465 ; 42126.00000000001
178 ; 12650.458320390077 ; 2840.153601796308 ; 3790886.743585359 ; 505547.34111974284 ; 42364.00000000001
179 ; 12626.013930414254 ; 2840.153601796308 ; 3803537.201905749 ; 508387.49472153914 ; 42602.00000000001
180 ; 12588.258034296312 ; 2840.153601796308 ; 3816163.215836163 ; 511227.64832333545 ; 42840.00000000001
181 ; 12496.246634308545 ; 2840.153601796308 ; 3828751.4738704595 ; 514067.80192513176 ; 43078.00000000001
182 ; 12628.724084991652 ; 2840.153601796308 ; 3841247.720504768 ; 516907.95552692807 ; 43316.00000000001
183 ; 12593.595071181464 ; 2840.153601796308 ; 3853876.4445897597 ; 519748.1091287244 ; 43554.00000000001
184 ; 12774.84389766717 ; 2840.153601796308 ; 3866470.0396609413 ; 522588.2627305207 ; 43792.00000000001
185 ; 12693.040627354369 ; 2840.153601796308 ; 3879244.8835586086 ; 525428.416332317 ; 44030.00000000001
186 ; 12710.005094284315 ; 2840.153601796308 ; 3891937.924185963 ; 528268.5699341134 ; 44268.00000000001
