CSV File for the City 3 on Day 173
1 - Minute m 
2 - Power Consumed at minute m 
3 - Power Produced at minute m 
4 - Energy Consumed since the beginning of the day 
5 - Energy Produced since the beginning of the day 
6 - Energy Lost since the beginning of the day on lines starting from the city
 
0 ; 4953.087741127121 ; 86466.31924135785 ; 0.0 ; 0.0 ; 0.0
1 ; 5351.642653888385 ; 86118.68123268572 ; 4953.087741127121 ; 86466.31924135785 ; 0.0
2 ; 5847.206851864945 ; 85806.37135705122 ; 10304.730395015507 ; 172585.00047404357 ; 0.0
3 ; 6295.885935019777 ; 85529.80051869599 ; 16151.937246880452 ; 258391.3718310948 ; 0.0
4 ; 6639.278083771667 ; 85289.33755071809 ; 22447.82318190023 ; 343921.1723497908 ; 0.0
5 ; 7036.266335057975 ; 85085.30697337378 ; 29087.101265671896 ; 429210.5099005089 ; 0.0
6 ; 7426.330844169145 ; 84917.9869800265 ; 36123.36760072987 ; 514295.81687388266 ; 0.0
7 ; 7787.112023974014 ; 84787.60767938581 ; 43549.69844489902 ; 599213.8038539091 ; 0.0
8 ; 8118.020333921844 ; 84694.34961968662 ; 51336.81046887303 ; 684001.411533295 ; 0.0
9 ; 8533.802749540953 ; 84638.34261680233 ; 59454.83080279487 ; 768695.7611529815 ; 0.0
10 ; 8839.259771214478 ; 84619.66490405951 ; 67988.63355233583 ; 853334.1037697839 ; 0.0
11 ; 9320.157417965886 ; 84638.34261680233 ; 76827.8933235503 ; 937953.7686738434 ; 0.0
12 ; 9467.491194113732 ; 84694.34961968662 ; 86148.0507415162 ; 1022592.1112906457 ; 0.0
13 ; 9990.700668635698 ; 84787.60767938581 ; 95615.54193562994 ; 1107286.4609103324 ; 0.0
14 ; 10314.121029463357 ; 84917.98698002638 ; 105606.24260426563 ; 1192074.068589718 ; 0.0
15 ; 10558.963597311931 ; 85085.30697337378 ; 115920.363633729 ; 1276992.0555697444 ; 0.0
16 ; 11011.548588394158 ; 85289.33755071809 ; 126479.32723104092 ; 1362077.3625431182 ; 0.0
17 ; 11185.935102802152 ; 85529.80051869599 ; 137490.87581943508 ; 1447366.7000938363 ; 0.0
18 ; 11649.569733688582 ; 85806.37135705122 ; 148676.81092223723 ; 1532896.5006125323 ; 0.0
19 ; 11905.218787439755 ; 86118.68123268572 ; 160326.3806559258 ; 1618702.8719695834 ; 0.0
20 ; 12096.06812343727 ; 86466.31924135785 ; 172231.59944336556 ; 1704821.5532022691 ; 0.0
21 ; 12469.296852533691 ; 86848.83484610922 ; 184327.66756680282 ; 1791287.872443627 ; 0.0
22 ; 12898.442394521979 ; 87265.74047994894 ; 196796.96441933652 ; 1878136.7072897363 ; 0.0
23 ; 13070.585536454513 ; 87716.51427952292 ; 209695.4068138585 ; 1965402.4477696852 ; 0.0
24 ; 13432.887203800074 ; 88200.60291638576 ; 222765.99235031303 ; 2053118.962049208 ; 0.0
25 ; 13708.519236975633 ; 88717.42449306411 ; 236198.8795541131 ; 2141319.564965594 ; 0.0
26 ; 14112.335350800398 ; 89266.37147225217 ; 249907.39879108875 ; 2230036.9894586583 ; 0.0
27 ; 14131.716058547652 ; 89846.8136091659 ; 264019.73414188914 ; 2319303.3609309103 ; 0.0
28 ; 14654.805084361984 ; 90458.10085919147 ; 278151.4502004368 ; 2409150.1745400764 ; 0.0
29 ; 14815.192186122391 ; 91099.5662354209 ; 292806.2552847988 ; 2499608.2753992677 ; 0.0
30 ; 15038.532775551344 ; 91770.52859336518 ; 307621.4474709212 ; 2590707.8416346884 ; 0.0
31 ; 15282.185240755682 ; 92470.2953230008 ; 322659.9802464726 ; 2682478.3702280535 ; 0.0
32 ; 15628.243887539935 ; 93198.16493123859 ; 337942.16548722825 ; 2774948.6655510543 ; 0.0
33 ; 15710.013116011003 ; 93953.4295008357 ; 353570.4093747682 ; 2868146.830482293 ; 0.0
34 ; 16075.85472789822 ; 94735.3770146414 ; 369280.4224907792 ; 2962100.2599831284 ; 0.0
35 ; 16140.719087294643 ; 95543.29353680542 ; 385356.2772186774 ; 3056835.6369977696 ; 0.0
36 ; 16752.041447991858 ; 96376.4652451532 ; 401496.99630597205 ; 3152378.930534575 ; 0.0
37 ; 16701.40684635762 ; 97234.18031130548 ; 418249.0377539639 ; 3248755.3957797284 ; 0.0
38 ; 16980.387735722623 ; 98115.73062726068 ; 434950.4446003215 ; 3345989.576091034 ; 0.0
39 ; 17118.76399393731 ; 99020.41337907063 ; 451930.8323360442 ; 3444105.3067182945 ; 0.0
40 ; 17399.574255582393 ; 99947.53246989548 ; 469049.59632998146 ; 3543125.7200973653 ; 0.0
41 ; 17616.623951646063 ; 100896.3997961412 ; 486449.1705855639 ; 3643073.252567261 ; 0.0
42 ; 17788.497448134847 ; 101866.33638156048 ; 504065.7945372099 ; 3743969.6523634023 ; 0.0
43 ; 17872.388629363602 ; 102856.67337515391 ; 521854.2919853447 ; 3845835.988744963 ; 0.0
44 ; 18084.326012834605 ; 103866.7529194455 ; 539726.6806147083 ; 3948692.662120117 ; 0.0
45 ; 18377.420823617224 ; 104895.92889626345 ; 557811.0066275429 ; 4052559.415039562 ; 0.0
46 ; 18561.333755027525 ; 105943.56755752969 ; 576188.4274511602 ; 4157455.3439358254 ; 0.0
47 ; 18643.419602154514 ; 107009.04804878846 ; 594749.7612061877 ; 4263398.911493355 ; 0.0
48 ; 18845.20939141784 ; 108091.76283329363 ; 613393.1808083422 ; 4370407.959542144 ; 0.0
49 ; 18982.840770227598 ; 109191.11802445067 ; 632238.39019976 ; 4478499.722375438 ; 0.0
50 ; 19207.887060663226 ; 110306.53363429217 ; 651221.2309699876 ; 4587690.840399888 ; 0.0
51 ; 19308.49192123231 ; 111437.44374546391 ; 670429.1180306508 ; 4697997.37403418 ; 0.0
52 ; 19529.19650359834 ; 112583.29661394209 ; 689737.6099518831 ; 4809434.817779644 ; 0.0
53 ; 19834.505183426772 ; 113743.55470939037 ; 709266.8064554814 ; 4922018.114393586 ; 0.0
54 ; 19770.325220508617 ; 114917.6946997202 ; 729101.3116389082 ; 5035761.669102977 ; 0.0
55 ; 20041.903170625756 ; 116105.20738604823 ; 748871.6368594168 ; 5150679.3638026975 ; 0.0
56 ; 20003.202314649847 ; 117305.5975938591 ; 768913.5400300426 ; 5266784.571188746 ; 0.0
57 ; 20189.54632750739 ; 118518.38402578619 ; 788916.7423446925 ; 5384090.168782605 ; 0.0
58 ; 20369.85062154044 ; 119743.09908103173 ; 809106.2886721998 ; 5502608.552808391 ; 0.0
59 ; 20484.503869746877 ; 120979.28864605754 ; 829476.1392937403 ; 5622351.651889423 ; 0.0
60 ; 20539.17081553332 ; 122226.51186079693 ; 849960.6431634872 ; 5743330.94053548 ; 0.0
61 ; 20688.739405112923 ; 123484.3408642728 ; 870499.8139790206 ; 5865557.452396277 ; 0.0
62 ; 20734.635441113693 ; 124752.36052315531 ; 891188.5533841335 ; 5989041.79326055 ; 0.0
63 ; 20928.258626385992 ; 126030.16814645773 ; 911923.1888252472 ; 6113794.153783705 ; 0.0
64 ; 20842.265194979977 ; 127317.37318925437 ; 932851.4474516332 ; 6239824.321930163 ; 0.0
65 ; 21088.677021108077 ; 128613.5969480089 ; 953693.7126466131 ; 6367141.695119417 ; 0.0
66 ; 21078.70252847673 ; 129918.47224982435 ; 974782.3896677212 ; 6495755.292067426 ; 0.0
67 ; 21222.479616087858 ; 131231.6431376706 ; 995861.092196198 ; 6625673.764317251 ; 0.0
68 ; 21415.436184144088 ; 132552.76455340796 ; 1017083.5718122858 ; 6756905.407454921 ; 0.0
69 ; 21315.843516738856 ; 133881.50202020732 ; 1038499.0079964299 ; 6889458.172008329 ; 0.0
70 ; 21491.572780912487 ; 135217.5313257686 ; 1059814.8515131688 ; 7023339.674028536 ; 0.0
71 ; 21576.82620095999 ; 136560.53820755516 ; 1081306.4242940813 ; 7158557.205354305 ; 0.0
72 ; 21636.022767448918 ; 137910.21804109824 ; 1102883.2504950413 ; 7295117.74356186 ; 0.0
73 ; 21666.55113915101 ; 139266.27553227378 ; 1124519.2732624903 ; 7433027.961602959 ; 0.0
74 ; 21613.7323069783 ; 140628.42441431907 ; 1146185.8244016413 ; 7572294.237135232 ; 0.0
75 ; 21820.57657186672 ; 141996.38715023414 ; 1167799.5567086195 ; 7712922.661549551 ; 0.0
76 ; 21569.706850778988 ; 143369.89464110407 ; 1189620.133280486 ; 7854919.048699786 ; 0.0
77 ; 21742.75786766357 ; 144748.68594078007 ; 1211189.840131265 ; 7998288.94334089 ; 0.0
78 ; 21819.431301498684 ; 146132.50797727032 ; 1232932.5979989287 ; 8143037.62928167 ; 0.0
79 ; 21862.71930325553 ; 147521.1152811133 ; 1254752.0293004275 ; 8289170.13725894 ; 0.0
80 ; 21914.16926230115 ; 148914.26972094065 ; 1276614.748603683 ; 8436691.252540054 ; 0.0
81 ; 21797.16693838807 ; 150311.7402463722 ; 1298528.9178659841 ; 8585605.522260994 ; 0.0
82 ; 21882.05205065596 ; 151713.30263833771 ; 1320326.0848043722 ; 8735917.262507366 ; 0.0
83 ; 21804.76636207583 ; 153118.73926686926 ; 1342208.136855028 ; 8887630.565145703 ; 0.0
84 ; 21912.187574464024 ; 154527.83885637193 ; 1364012.903217104 ; 9040749.304412572 ; 0.0
85 ; 21762.24602094962 ; 155940.39625834345 ; 1385925.0907915682 ; 9195277.143268943 ; 0.0
86 ; 21924.019046714024 ; 157356.21223148424 ; 1407687.3368125178 ; 9351217.539527286 ; 0.0
87 ; 21847.55385734287 ; 158775.09322911495 ; 1429611.355859232 ; 9508573.75175877 ; 0.0
88 ; 21764.843722909707 ; 160196.8511937951 ; 1451458.9097165747 ; 9667348.844987884 ; 0.0
89 ; 21593.49181379988 ; 161621.30335902126 ; 1473223.7534394844 ; 9827545.69618168 ; 0.0
90 ; 21567.689693927914 ; 163048.27205786502 ; 1494817.2452532842 ; 9989166.9995407 ; 0.0
91 ; 21542.989376245623 ; 164477.5845384019 ; 1516384.9349472122 ; 1.0152215271598564E7 ; 0.0
92 ; 21692.246942470978 ; 165909.07278577064 ; 1537927.9243234578 ; 1.0316692856136966E7 ; 0.0
93 ; 21461.083981329713 ; 167342.5733506955 ; 1559620.1712659288 ; 1.0482601928922737E7 ; 0.0
94 ; 21461.146917085134 ; 168777.92718429814 ; 1581081.2552472586 ; 1.0649944502273433E7 ; 0.0
95 ; 21456.364093800814 ; 170214.97947902232 ; 1602542.4021643437 ; 1.0818722429457732E7 ; 0.0
96 ; 21234.170082021814 ; 171653.57951549056 ; 1623998.7662581445 ; 1.0988937408936754E7 ; 0.0
97 ; 21380.238527669724 ; 173093.5805151123 ; 1645232.9363401663 ; 1.1160590988452245E7 ; 0.0
98 ; 21131.695590920048 ; 174534.83949826055 ; 1666613.174867836 ; 1.1333684568967357E7 ; 0.0
99 ; 21214.948421946858 ; 175977.2171478373 ; 1687744.870458756 ; 1.1508219408465618E7 ; 0.0
100 ; 21053.374728134302 ; 177420.5776780464 ; 1708959.818880703 ; 1.1684196625613455E7 ; 0.0
101 ; 20862.39086251443 ; 178864.7887081969 ; 1730013.1936088374 ; 1.1861617203291502E7 ; 0.0
102 ; 20863.689631612182 ; 180309.72114136122 ; 1750875.584471352 ; 1.2040481991999699E7 ; 0.0
103 ; 20688.032647741355 ; 181755.2490477159 ; 1771739.2741029642 ; 1.222079171314106E7 ; 0.0
104 ; 20608.178922433934 ; 183201.2495523961 ; 1792427.3067507055 ; 1.2402546962188775E7 ; 0.0
105 ; 20643.1361322874 ; 184647.60272769872 ; 1813035.4856731393 ; 1.258574821174117E7 ; 0.0
106 ; 20465.105803340175 ; 186094.19148947293 ; 1833678.6218054267 ; 1.2770395814468868E7 ; 0.0
107 ; 20354.41978649959 ; 187540.9014975416 ; 1854143.7276087669 ; 1.2956490005958341E7 ; 0.0
108 ; 20166.687915005994 ; 188987.62106000015 ; 1874498.1473952665 ; 1.3144030907455882E7 ; 0.0
109 ; 20055.69969995635 ; 190434.24104124532 ; 1894664.8353102724 ; 1.3333018528515883E7 ; 0.0
110 ; 20025.01337555562 ; 191880.65477358986 ; 1914720.5350102289 ; 1.3523452769557128E7 ; 0.0
111 ; 19681.578948324677 ; 193326.75797232418 ; 1934745.5483857845 ; 1.3715333424330717E7 ; 0.0
112 ; 19792.136878267473 ; 194772.4486540898 ; 1954427.1273341093 ; 1.3908660182303041E7 ; 0.0
113 ; 19425.475921379122 ; 196217.6270584347 ; 1974219.2642123767 ; 1.410343263095713E7 ; 0.0
114 ; 19200.45878302696 ; 197662.19557242526 ; 1993644.7401337558 ; 1.4299650258015566E7 ; 0.0
115 ; 19217.895089886253 ; 199106.05865819278 ; 2012845.1989167829 ; 1.449731245358799E7 ; 0.0
116 ; 19016.098566711014 ; 200549.1227832982 ; 2032063.094006669 ; 1.4696418512246182E7 ; 0.0
117 ; 18711.351207053463 ; 201991.29635380223 ; 2051079.19257338 ; 1.489696763502948E7 ; 0.0
118 ; 18660.940513774258 ; 203432.48964993248 ; 2069790.5437804335 ; 1.5098958931383282E7 ; 0.0
119 ; 18509.76337473229 ; 204872.61476424287 ; 2088451.4842942078 ; 1.5302391421033215E7 ; 0.0
120 ; 18336.845485715345 ; 206311.5855421656 ; 2106961.24766894 ; 1.5507264035797458E7 ; 0.0
121 ; 18094.238087499994 ; 207749.31752485823 ; 2125298.0931546553 ; 1.5713575621339623E7 ; 0.0
122 ; 17973.2386537426 ; 209185.72789425464 ; 2143392.3312421553 ; 1.592132493886448E7 ; 0.0
123 ; 17616.689234964528 ; 210620.73542022856 ; 2161365.569895898 ; 1.6130510666758735E7 ; 0.0
124 ; 17354.9948876149 ; 212054.26040978642 ; 2178982.2591308625 ; 1.6341131402178964E7 ; 0.0
125 ; 17407.849865955548 ; 213486.22465820567 ; 2196337.2540184776 ; 1.6553185662588751E7 ; 0.0
126 ; 17115.645513238218 ; 214916.55140204102 ; 2213745.1038844334 ; 1.6766671887246957E7 ; 0.0
127 ; 16819.787653039675 ; 216345.16527392177 ; 2230860.749397672 ; 1.6981588438649E7 ; 0.0
128 ; 16543.0593772019 ; 217771.99225906876 ; 2247680.5370507115 ; 1.7197933603922922E7 ; 0.0
129 ; 16481.7383781322 ; 219196.95965346086 ; 2264223.5964279133 ; 1.7415705596181992E7 ; 0.0
130 ; 16146.9592474944 ; 220619.996023584 ; 2280705.3348060455 ; 1.7634902555835452E7 ; 0.0
131 ; 16022.3509817986 ; 222041.03116769978 ; 2296852.29405354 ; 1.7855522551859036E7 ; 0.0
132 ; 15629.47791900483 ; 223459.99607857096 ; 2312874.6450353386 ; 1.8077563583026737E7 ; 0.0
133 ; 15332.371765720585 ; 224876.82290758658 ; 2328504.1229543434 ; 1.8301023579105306E7 ; 0.0
134 ; 15126.713004802106 ; 226291.44493022916 ; 2343836.494720064 ; 1.8525900402012892E7 ; 0.0
135 ; 14923.294281967484 ; 227703.79651283054 ; 2358963.207724866 ; 1.875219184694312E7 ; 0.0
136 ; 14694.64894173206 ; 229113.81308056472 ; 2373886.5020068334 ; 1.8979895643455952E7 ; 0.0
137 ; 14369.756930602842 ; 230521.43108662832 ; 2388581.1509485655 ; 1.9209009456536517E7 ; 0.0
138 ; 14006.538653618198 ; 231926.58798256004 ; 2402950.907879168 ; 1.9439530887623146E7 ; 0.0
139 ; 13756.596150484776 ; 233329.2221896556 ; 2416957.4465327864 ; 1.9671457475605708E7 ; 0.0
140 ; 13493.740484673743 ; 234729.27307143278 ; 2430714.042683271 ; 1.9904786697795365E7 ; 0.0
141 ; 13076.196368498348 ; 236126.68090710547 ; 2444207.7831679448 ; 2.01395159708668E7 ; 0.0
142 ; 12978.613466682446 ; 237521.3868660274 ; 2457283.979536443 ; 2.0375642651773904E7 ; 0.0
143 ; 12557.051359589343 ; 238913.33298306586 ; 2470262.5930031254 ; 2.061316403863993E7 ; 0.0
144 ; 12388.755608268788 ; 240302.46213487012 ; 2482819.6443627146 ; 2.0852077371622995E7 ; 0.0
145 ; 12043.291174090793 ; 241688.71801699797 ; 2495208.3999709836 ; 2.1092379833757866E7 ; 0.0
146 ; 12065.192423722388 ; 243072.0451218683 ; 2507251.6911450746 ; 2.1334068551774863E7 ; 0.0
147 ; 12008.781266175485 ; 244452.3887175054 ; 2519316.883568797 ; 2.157714059689673E7 ; 0.0
148 ; 12006.239630866537 ; 245829.69482704636 ; 2531325.6648349725 ; 2.1821592985614236E7 ; 0.0
149 ; 11778.919835586501 ; 247203.91020897985 ; 2543331.904465839 ; 2.2067422680441283E7 ; 0.0
150 ; 11749.441462997465 ; 248574.98233808894 ; 2555110.8243014254 ; 2.2314626590650264E7 ; 0.0
151 ; 11624.61689330177 ; 249942.85938707073 ; 2566860.2657644227 ; 2.2563201572988354E7 ; 0.0
152 ; 11523.964309453753 ; 251307.4902088063 ; 2578484.8826577244 ; 2.2813144432375424E7 ; 0.0
153 ; 11535.066954437352 ; 252668.82431925595 ; 2590008.8469671784 ; 2.306445192258423E7 ; 0.0
154 ; 11466.149054996844 ; 254026.8118809563 ; 2601543.9139216156 ; 2.3317120746903483E7 ; 0.0
155 ; 11397.313033546094 ; 255381.40368709553 ; 2613010.0629766122 ; 2.357114755878444E7 ; 0.0
156 ; 11216.431338527827 ; 256732.55114614518 ; 2624407.3760101586 ; 2.3826528962471537E7 ; 0.0
157 ; 11248.48901356517 ; 258080.20626702733 ; 2635623.8073486863 ; 2.4083261513617683E7 ; 0.0
158 ; 11152.160537853422 ; 259424.32164479655 ; 2646872.2963622515 ; 2.4341341719884712E7 ; 0.0
159 ; 10895.309104093783 ; 260764.85044681776 ; 2658024.456900105 ; 2.460076604152951E7 ; 0.0
160 ; 10745.532743922631 ; 262101.74639942072 ; 2668919.7660041987 ; 2.4861530891976327E7 ; 0.0
161 ; 10621.634475073752 ; 263434.96377501375 ; 2679665.298748121 ; 2.5123632638375748E7 ; 0.0
162 ; 10616.828776794659 ; 264764.4573796392 ; 2690286.933223195 ; 2.538706760215076E7 ; 0.0
163 ; 10461.914437023801 ; 266090.1825409547 ; 2700903.7619999894 ; 2.56518320595304E7 ; 0.0
164 ; 10326.849027548269 ; 267412.0950966232 ; 2711365.6764370133 ; 2.5917922242071353E7 ; 0.0
165 ; 10205.992096891281 ; 268730.1513830986 ; 2721692.525464562 ; 2.6185334337167975E7 ; 0.0
166 ; 10191.274705863882 ; 270044.3082247907 ; 2731898.517561453 ; 2.6454064488551073E7 ; 0.0
167 ; 9712.58195807911 ; 271354.52292359556 ; 2742089.792267317 ; 2.6724108796775863E7 ; 0.0
168 ; 9775.543816379104 ; 272660.7532487798 ; 2751802.374225396 ; 2.699546331969946E7 ; 0.0
169 ; 9601.29999928488 ; 273962.95742720313 ; 2761577.9180417755 ; 2.726812407294824E7 ; 0.0
170 ; 9530.41581215039 ; 275261.0941338692 ; 2771179.2180410605 ; 2.7542087030375443E7 ; 0.0
171 ; 9434.732496392533 ; 276555.1224827914 ; 2780709.633853211 ; 2.7817348124509312E7 ; 0.0
172 ; 9327.122358949226 ; 277845.00201816316 ; 2790144.3663496035 ; 2.8093903246992104E7 ; 0.0
173 ; 9203.219159611639 ; 279130.69270582026 ; 2799471.488708553 ; 2.837174824901027E7 ; 0.0
174 ; 9262.51737445053 ; 280412.1549249877 ; 2808674.7078681644 ; 2.865087894171609E7 ; 0.0
175 ; 9042.960974994201 ; 281689.3494602968 ; 2817937.2252426147 ; 2.893129109664108E7 ; 0.0
176 ; 9161.035736001768 ; 282962.2374940669 ; 2826980.186217609 ; 2.9212980446101375E7 ; 0.0
177 ; 9358.174605298525 ; 284230.78059883905 ; 2836141.2219536104 ; 2.949594268359544E7 ; 0.0
178 ; 9293.145956613034 ; 285494.9407301556 ; 2845499.3965589087 ; 2.978017346419428E7 ; 0.0
179 ; 9465.69426861105 ; 286754.6802195744 ; 2854792.542515522 ; 3.0065668404924434E7 ; 0.0
180 ; 9400.510923376207 ; 288009.9617679111 ; 2864258.236784133 ; 3.035242308514401E7 ; 0.0
181 ; 9411.671719914488 ; 289260.74843870115 ; 2873658.7477075094 ; 3.064043304691192E7 ; 0.0
182 ; 9312.227637259739 ; 290507.0036518732 ; 2883070.4194274237 ; 3.0929693795350622E7 ; 0.0
183 ; 9364.770778647264 ; 291748.691177628 ; 2892382.6470646835 ; 3.1220200799002495E7 ; 0.0
184 ; 9417.909426146 ; 292985.77513051336 ; 2901747.4178433307 ; 3.1511949490180124E7 ; 0.0
185 ; 9418.53997418549 ; 294218.21996369096 ; 2911165.327269477 ; 3.1804935265310638E7 ; 0.0
186 ; 9541.621021899533 ; 295445.9904633868 ; 2920583.8672436625 ; 3.209915348527433E7 ; 0.0
187 ; 9551.99386923845 ; 296669.0517435192 ; 2930125.488265562 ; 3.2394599475737717E7 ; 0.0
188 ; 9440.316089572827 ; 297887.3692404985 ; 2939677.4821348004 ; 3.2691268527481236E7 ; 0.0
189 ; 9573.904688782564 ; 299100.908708193 ; 2949117.7982243733 ; 3.2989155896721736E7 ; 0.0
190 ; 9730.365224455369 ; 300309.6362130545 ; 2958691.702913156 ; 3.3288256805429928E7 ; 0.0
191 ; 9646.640865708805 ; 301513.5181293991 ; 2968422.0681376113 ; 3.3588566441642985E7 ; 0.0
192 ; 9580.659020671466 ; 302712.52113483706 ; 2978068.70900332 ; 3.3890079959772386E7 ; 0.0
193 ; 9598.826745664666 ; 303906.6122058475 ; 2987649.3680239916 ; 3.4192792480907224E7 ; 0.0
194 ; 9831.246979818563 ; 305095.75861349265 ; 2997248.1947696563 ; 3.449669909311307E7 ; 0.0
195 ; 9777.455693045586 ; 306279.92791926704 ; 3007079.441749475 ; 3.480179485172656E7 ; 0.0
196 ; 9739.854565206057 ; 307459.0879710771 ; 3016856.8974425206 ; 3.510807477964583E7 ; 0.0
197 ; 9980.512378763038 ; 308633.2068993473 ; 3026596.7520077266 ; 3.541553386761691E7 ; 0.0
198 ; 9886.685298140928 ; 309802.2531132477 ; 3036577.2643864895 ; 3.572416707451625E7 ; 0.0
199 ; 9827.87331119414 ; 310966.19529703987 ; 3046463.9496846306 ; 3.60339693276295E7 ; 0.0
200 ; 9782.644742256853 ; 312125.0024065369 ; 3056291.8229958247 ; 3.634493552292654E7 ; 0.0
201 ; 9872.808444251024 ; 313278.64366567327 ; 3066074.4677380817 ; 3.665706052533308E7 ; 0.0
202 ; 9718.952089345952 ; 314427.08856318216 ; 3075947.2761823325 ; 3.697033916899875E7 ; 0.0
203 ; 9991.932286241617 ; 315570.3068493753 ; 3085666.2282716786 ; 3.728476625756193E7 ; 0.0
204 ; 9895.72067337482 ; 316708.26853302325 ; 3095658.16055792 ; 3.7600336564411305E7 ; 0.0
205 ; 10075.603952694213 ; 317840.94387833204 ; 3105553.881231295 ; 3.7917044832944326E7 ; 0.0
206 ; 10012.031127576673 ; 318968.3034020135 ; 3115629.485183989 ; 3.823488577682266E7 ; 0.0
207 ; 9937.403394924268 ; 320090.317870446 ; 3125641.516311566 ; 3.855385408022467E7 ; 0.0
208 ; 10043.59912625054 ; 321206.95829692297 ; 3135578.9197064904 ; 3.8873944398095116E7 ; 0.0
209 ; 10150.551753752008 ; 322318.19593898585 ; 3145622.518832741 ; 3.919515135639204E7 ; 0.0
210 ; 10000.751788578133 ; 323424.00229583995 ; 3155773.070586493 ; 3.951746955233103E7 ; 0.0
211 ; 10018.164214488705 ; 324524.3491058487 ; 3165773.822375071 ; 3.984089355462687E7 ; 0.0
212 ; 10043.403898974942 ; 325619.208344106 ; 3175791.9865895594 ; 4.016541790373272E7 ; 0.0
