CSV File for the City 1 on Day 123
1 - Minute m 
2 - Power Consumed at minute m 
3 - Power Produced at minute m 
4 - Energy Consumed since the beginning of the day 
5 - Energy Produced since the beginning of the day 
6 - Energy Lost since the beginning of the day on lines starting from the city
 
0 ; 11335.841904545843 ; 18030.56988341697 ; 0.0 ; 0.0 ; 0.0
1 ; 11878.29730726616 ; 18030.56988341697 ; 11335.841904545843 ; 18030.56988341697 ; 238.00000000000003
2 ; 12212.080979901124 ; 18030.56988341697 ; 23214.139211812006 ; 36061.13976683394 ; 476.00000000000006
3 ; 12379.61461552009 ; 18030.56988341697 ; 35426.22019171313 ; 54091.70965025091 ; 714.0000000000001
4 ; 12913.489710604566 ; 18030.56988341697 ; 47805.83480723322 ; 72122.27953366788 ; 952.0000000000001
5 ; 13266.727442968342 ; 18030.56988341697 ; 60719.32451783779 ; 90152.84941708486 ; 1190.0000000000002
6 ; 13593.737734196242 ; 18030.56988341697 ; 73986.05196080613 ; 108183.41930050183 ; 1428.0000000000002
7 ; 13977.880650627872 ; 18030.56988341697 ; 87579.78969500237 ; 126213.9891839188 ; 1666.0000000000002
8 ; 14296.532353753204 ; 18030.56988341697 ; 101557.67034563025 ; 144244.55906733577 ; 1904.0000000000002
9 ; 14629.543962200001 ; 18030.56988341697 ; 115854.20269938346 ; 162275.12895075273 ; 2142.0000000000005
10 ; 14984.900566062932 ; 18030.56988341697 ; 130483.74666158346 ; 180305.69883416969 ; 2380.0000000000005
11 ; 15311.011967023685 ; 18030.56988341697 ; 145468.64722764638 ; 198336.26871758664 ; 2618.0000000000005
12 ; 15647.106315897892 ; 18030.56988341697 ; 160779.65919467006 ; 216366.8386010036 ; 2856.0000000000005
13 ; 15906.656309749325 ; 18030.56988341697 ; 176426.76551056796 ; 234397.40848442056 ; 3094.0000000000005
14 ; 16425.448720013712 ; 18030.56988341697 ; 192333.42182031728 ; 252427.97836783752 ; 3332.0000000000005
15 ; 16772.40309014548 ; 18030.56988341697 ; 208758.870540331 ; 270458.5482512545 ; 3570.0000000000005
16 ; 17117.679774998964 ; 18030.56988341697 ; 225531.27363047647 ; 288489.1181346715 ; 3808.0000000000005
17 ; 17413.834570869087 ; 18030.56988341697 ; 242648.95340547542 ; 306519.68801808846 ; 4046.0000000000005
18 ; 17782.770733861773 ; 18030.56988341697 ; 260062.7879763445 ; 324550.25790150545 ; 4284.000000000001
19 ; 17741.274686793065 ; 18030.56988341697 ; 277845.55871020624 ; 342580.82778492244 ; 4522.000000000001
20 ; 18087.150556269262 ; 18030.56988341697 ; 295586.8333969993 ; 360611.3976683394 ; 4760.000000000001
21 ; 18387.437954838613 ; 18030.56988341697 ; 313673.98395326856 ; 378641.9675517564 ; 4998.000000000001
22 ; 18769.146477033348 ; 18030.56988341697 ; 332061.4219081072 ; 396672.5374351734 ; 5236.000000000001
23 ; 19000.132444443727 ; 18030.56988341697 ; 350830.5683851405 ; 414703.1073185904 ; 5474.000000000001
24 ; 19211.29589174472 ; 18030.56988341697 ; 369830.7008295842 ; 432733.6772020074 ; 5712.000000000001
25 ; 19469.21044279144 ; 18030.56988341697 ; 389041.99672132893 ; 450764.2470854244 ; 5950.000000000001
26 ; 19976.432173560974 ; 18030.56988341697 ; 408511.2071641204 ; 468794.81696884136 ; 6188.000000000001
27 ; 19900.364593103164 ; 18030.56988341697 ; 428487.63933768135 ; 486825.38685225835 ; 6426.000000000001
28 ; 20242.119929812674 ; 18030.56988341697 ; 448388.0039307845 ; 504855.95673567534 ; 6664.000000000001
29 ; 20648.072255944506 ; 18030.56988341697 ; 468630.1238605972 ; 522886.5266190923 ; 6902.000000000001
30 ; 20845.680339949326 ; 18030.56988341697 ; 489278.1961165417 ; 540917.0965025093 ; 7140.000000000001
31 ; 21047.291828266574 ; 18030.56988341697 ; 510123.876456491 ; 558947.6663859263 ; 7378.000000000001
32 ; 21369.984120544777 ; 18030.56988341697 ; 531171.1682847575 ; 576978.2362693433 ; 7616.000000000001
33 ; 21513.664725066872 ; 18030.56988341697 ; 552541.1524053023 ; 595008.8061527603 ; 7854.000000000001
34 ; 21722.68637464585 ; 18030.56988341697 ; 574054.8171303691 ; 613039.3760361773 ; 8092.000000000001
35 ; 22038.098434898493 ; 18030.56988341697 ; 595777.5035050149 ; 631069.9459195943 ; 8330.000000000002
36 ; 22207.056292562524 ; 18030.56988341697 ; 617815.6019399135 ; 649100.5158030113 ; 8568.000000000002
37 ; 22142.51521817859 ; 18030.56988341697 ; 640022.658232476 ; 667131.0856864282 ; 8806.000000000002
38 ; 22595.30539049153 ; 18030.56988341697 ; 662165.1734506546 ; 685161.6555698452 ; 9044.000000000002
39 ; 22700.69235665337 ; 18030.56988341697 ; 684760.4788411461 ; 703192.2254532622 ; 9282.000000000002
40 ; 22740.998256886196 ; 18030.56988341697 ; 707461.1711977995 ; 721222.7953366792 ; 9520.000000000002
41 ; 23127.73398741308 ; 18030.56988341697 ; 730202.1694546856 ; 739253.3652200962 ; 9758.000000000002
42 ; 23115.32038438357 ; 18030.56988341697 ; 753329.9034420988 ; 757283.9351035132 ; 9996.000000000002
43 ; 23405.779590772512 ; 18030.56988341697 ; 776445.2238264823 ; 775314.5049869302 ; 10234.000000000002
44 ; 23538.456513463392 ; 18030.56988341697 ; 799851.0034172548 ; 793345.0748703472 ; 10472.000000000002
45 ; 23886.5610330232 ; 18030.56988341697 ; 823389.4599307182 ; 811375.6447537642 ; 10710.000000000002
46 ; 23907.35852545588 ; 18030.56988341697 ; 847276.0209637413 ; 829406.2146371811 ; 10948.000000000002
47 ; 24118.343374314398 ; 18030.56988341697 ; 871183.3794891973 ; 847436.7845205981 ; 11186.000000000002
48 ; 24157.118636400828 ; 18030.56988341697 ; 895301.7228635116 ; 865467.3544040151 ; 11424.000000000002
49 ; 24266.69245548378 ; 18030.56988341697 ; 919458.8414999124 ; 883497.9242874321 ; 11662.000000000002
50 ; 24492.934943483255 ; 18030.56988341697 ; 943725.5339553963 ; 901528.4941708491 ; 11900.000000000002
51 ; 24666.06738036694 ; 18030.56988341697 ; 968218.4688988795 ; 919559.0640542661 ; 12138.000000000002
52 ; 24830.78513044534 ; 18030.56988341697 ; 992884.5362792464 ; 937589.6339376831 ; 12376.000000000002
53 ; 24783.193353490908 ; 18030.56988341697 ; 1017715.3214096918 ; 955620.2038211001 ; 12614.000000000002
54 ; 24855.274694320608 ; 18030.56988341697 ; 1042498.5147631827 ; 973650.773704517 ; 12852.000000000002
55 ; 25136.380197006776 ; 18030.56988341697 ; 1067353.7894575032 ; 991681.343587934 ; 13090.000000000002
56 ; 25268.90736453288 ; 18030.56988341697 ; 1092490.16965451 ; 1009711.913471351 ; 13328.000000000002
57 ; 25529.857556341132 ; 18030.56988341697 ; 1117759.0770190428 ; 1027742.483354768 ; 13566.000000000002
58 ; 25687.791128565066 ; 18030.56988341697 ; 1143288.934575384 ; 1045773.053238185 ; 13804.000000000002
59 ; 25746.335964746362 ; 18030.56988341697 ; 1168976.725703949 ; 1063803.623121602 ; 14042.000000000002
60 ; 25623.43849000195 ; 18030.56988341697 ; 1194723.0616686954 ; 1081834.1930050189 ; 14280.000000000002
61 ; 25762.054406762356 ; 18030.56988341697 ; 1220346.5001586974 ; 1099864.7628884357 ; 14518.000000000002
62 ; 25681.71806997444 ; 18030.56988341697 ; 1246108.5545654597 ; 1117895.3327718526 ; 14756.000000000002
63 ; 26002.000983025926 ; 18030.56988341697 ; 1271790.272635434 ; 1135925.9026552695 ; 14994.000000000002
64 ; 25939.094270093803 ; 18030.56988341697 ; 1297792.27361846 ; 1153956.4725386864 ; 15232.000000000002
65 ; 26022.605094970764 ; 18030.56988341697 ; 1323731.3678885538 ; 1171987.0424221032 ; 15470.000000000002
66 ; 26341.299775122025 ; 18030.56988341697 ; 1349753.9729835244 ; 1190017.61230552 ; 15708.000000000002
67 ; 26275.204520654854 ; 18030.56988341697 ; 1376095.2727586464 ; 1208048.182188937 ; 15946.000000000002
68 ; 26288.838205174798 ; 18030.56988341697 ; 1402370.4772793013 ; 1226078.7520723538 ; 16184.000000000002
69 ; 26306.562512056837 ; 18030.56988341697 ; 1428659.315484476 ; 1244109.3219557707 ; 16422.000000000004
70 ; 26438.975970054853 ; 18030.56988341697 ; 1454965.877996533 ; 1262139.8918391876 ; 16660.000000000004
71 ; 26315.47578028318 ; 18030.56988341697 ; 1481404.8539665877 ; 1280170.4617226045 ; 16898.000000000004
72 ; 26493.051569003397 ; 18030.56988341697 ; 1507720.3297468708 ; 1298201.0316060213 ; 17136.000000000004
73 ; 26403.42988063326 ; 18030.56988341697 ; 1534213.3813158742 ; 1316231.6014894382 ; 17374.000000000004
74 ; 26591.183803398068 ; 18030.56988341697 ; 1560616.8111965074 ; 1334262.171372855 ; 17612.000000000004
75 ; 26534.978606783934 ; 18030.56988341697 ; 1587207.9949999056 ; 1352292.741256272 ; 17850.000000000004
76 ; 26556.8035802786 ; 18030.56988341697 ; 1613742.9736066896 ; 1370323.3111396888 ; 18088.000000000004
77 ; 26433.49307863352 ; 18030.56988341697 ; 1640299.7771869681 ; 1388353.8810231057 ; 18326.000000000004
78 ; 26677.04584864113 ; 18030.56988341697 ; 1666733.2702656016 ; 1406384.4509065226 ; 18564.000000000004
79 ; 26505.11399439962 ; 18030.56988341697 ; 1693410.3161142427 ; 1424415.0207899394 ; 18802.000000000004
80 ; 26671.979465073426 ; 18030.56988341697 ; 1719915.4301086422 ; 1442445.5906733563 ; 19040.000000000004
81 ; 26544.24881801111 ; 18030.56988341697 ; 1746587.4095737156 ; 1460476.1605567732 ; 19278.000000000004
82 ; 26464.69149437215 ; 18030.56988341697 ; 1773131.6583917267 ; 1478506.73044019 ; 19516.000000000004
83 ; 26639.278312942046 ; 18030.56988341697 ; 1799596.3498860989 ; 1496537.300323607 ; 19754.000000000004
84 ; 26485.159613514777 ; 18030.56988341697 ; 1826235.628199041 ; 1514567.8702070238 ; 19992.000000000004
85 ; 26403.406978922096 ; 18030.56988341697 ; 1852720.7878125557 ; 1532598.4400904407 ; 20230.000000000004
86 ; 26311.690644838665 ; 18030.56988341697 ; 1879124.1947914779 ; 1550629.0099738576 ; 20468.000000000004
87 ; 26590.83455446528 ; 18030.56988341697 ; 1905435.8854363165 ; 1568659.5798572744 ; 20706.000000000004
88 ; 26381.537506267447 ; 18030.56988341697 ; 1932026.7199907817 ; 1586690.1497406913 ; 20944.000000000004
89 ; 26332.305620765415 ; 18030.56988341697 ; 1958408.2574970492 ; 1604720.7196241082 ; 21182.000000000004
90 ; 26206.460969546217 ; 18030.56988341697 ; 1984740.5631178145 ; 1622751.289507525 ; 21420.000000000004
91 ; 26128.166851984606 ; 18030.56988341697 ; 2010947.0240873606 ; 1640781.859390942 ; 21658.000000000004
92 ; 26231.320438088966 ; 18030.56988341697 ; 2037075.1909393452 ; 1658812.4292743588 ; 21896.000000000004
93 ; 26154.52365477668 ; 18030.56988341697 ; 2063306.5113774342 ; 1676842.9991577757 ; 22134.000000000004
94 ; 26024.870511321413 ; 18030.56988341697 ; 2089461.0350322109 ; 1694873.5690411925 ; 22372.000000000004
95 ; 25755.525841484075 ; 18030.56988341697 ; 2115485.905543532 ; 1712904.1389246094 ; 22610.000000000004
96 ; 25755.933021702767 ; 18030.56988341697 ; 2141241.431385016 ; 1730934.7088080263 ; 22848.000000000004
97 ; 25801.453854998108 ; 18030.56988341697 ; 2166997.364406719 ; 1748965.2786914431 ; 23086.000000000004
98 ; 25678.399217007605 ; 18030.56988341697 ; 2192798.818261717 ; 1766995.84857486 ; 23324.000000000004
99 ; 25567.240578806865 ; 18030.56988341697 ; 2218477.2174787247 ; 1785026.418458277 ; 23562.000000000004
100 ; 25403.500933869807 ; 18030.56988341697 ; 2244044.4580575316 ; 1803056.9883416938 ; 23800.000000000004
101 ; 25446.10801303576 ; 18030.56988341697 ; 2269447.9589914014 ; 1821087.5582251106 ; 24038.000000000004
102 ; 25099.146129933535 ; 18030.56988341697 ; 2294894.067004437 ; 1839118.1281085275 ; 24276.000000000004
103 ; 25077.772468411455 ; 18030.56988341697 ; 2319993.2131343707 ; 1857148.6979919444 ; 24514.000000000004
104 ; 25037.531051282484 ; 18030.56988341697 ; 2345070.985602782 ; 1875179.2678753613 ; 24752.000000000004
105 ; 24841.96601267649 ; 18030.56988341697 ; 2370108.5166540644 ; 1893209.8377587781 ; 24990.000000000004
106 ; 24870.172989984214 ; 18030.56988341697 ; 2394950.482666741 ; 1911240.407642195 ; 25228.000000000004
107 ; 24630.017362769744 ; 18030.56988341697 ; 2419820.655656725 ; 1929270.9775256119 ; 25466.000000000004
108 ; 24444.923874714223 ; 18030.56988341697 ; 2444450.673019495 ; 1947301.5474090287 ; 25704.000000000004
109 ; 24281.752180755942 ; 18030.56988341697 ; 2468895.5968942093 ; 1965332.1172924456 ; 25942.000000000004
110 ; 24279.660635372973 ; 18030.56988341697 ; 2493177.3490749653 ; 1983362.6871758625 ; 26180.000000000004
111 ; 23997.224005528817 ; 18030.56988341697 ; 2517457.0097103384 ; 2001393.2570592794 ; 26418.000000000004
112 ; 24018.955226714832 ; 18030.56988341697 ; 2541454.233715867 ; 2019423.8269426962 ; 26656.000000000004
113 ; 23863.69375040264 ; 18030.56988341697 ; 2565473.188942582 ; 2037454.396826113 ; 26894.000000000004
114 ; 23645.58741445647 ; 18030.56988341697 ; 2589336.8826929843 ; 2055484.96670953 ; 27132.000000000004
115 ; 23528.004974208146 ; 18030.56988341697 ; 2612982.470107441 ; 2073515.5365929469 ; 27370.000000000004
116 ; 23461.74499261003 ; 18030.56988341697 ; 2636510.475081649 ; 2091546.1064763637 ; 27608.000000000004
117 ; 23161.74334260638 ; 18030.56988341697 ; 2659972.220074259 ; 2109576.6763597806 ; 27846.000000000004
118 ; 23018.420467753072 ; 18030.56988341697 ; 2683133.9634168656 ; 2127607.2462431975 ; 28084.000000000004
119 ; 22697.55123378928 ; 18030.56988341697 ; 2706152.3838846185 ; 2145637.8161266143 ; 28322.000000000004
120 ; 22590.48460669011 ; 18030.56988341697 ; 2728849.935118408 ; 2163668.386010031 ; 28560.000000000004
121 ; 22282.682316634677 ; 18030.56988341697 ; 2751440.419725098 ; 2181698.955893448 ; 28798.000000000004
122 ; 22197.707374334273 ; 18030.56988341697 ; 2773723.102041733 ; 2199729.525776865 ; 29036.000000000004
123 ; 21968.007998545625 ; 18030.56988341697 ; 2795920.8094160673 ; 2217760.095660282 ; 29274.000000000004
124 ; 21642.292091846404 ; 18030.56988341697 ; 2817888.817414613 ; 2235790.6655436987 ; 29512.000000000004
125 ; 21511.94334035667 ; 18030.56988341697 ; 2839531.1095064594 ; 2253821.2354271156 ; 29750.000000000004
126 ; 21303.710742692234 ; 18030.56988341697 ; 2861043.052846816 ; 2271851.8053105325 ; 29988.000000000004
127 ; 20914.00788205226 ; 18030.56988341697 ; 2882346.7635895084 ; 2289882.3751939493 ; 30226.000000000004
128 ; 20845.544598854456 ; 18030.56988341697 ; 2903260.7714715605 ; 2307912.945077366 ; 30464.000000000004
129 ; 20453.282495802963 ; 18030.56988341697 ; 2924106.316070415 ; 2325943.514960783 ; 30702.000000000004
130 ; 20314.688615310435 ; 18030.56988341697 ; 2944559.598566218 ; 2343974.0848442 ; 30940.000000000004
131 ; 20279.875368710786 ; 18030.56988341697 ; 2964874.2871815283 ; 2362004.654727617 ; 31178.000000000004
132 ; 20006.3967180806 ; 18030.56988341697 ; 2985154.162550239 ; 2380035.2246110337 ; 31416.000000000004
133 ; 19752.028592803767 ; 18030.56988341697 ; 3005160.5592683195 ; 2398065.7944944506 ; 31654.000000000004
134 ; 19424.602395771493 ; 18030.56988341697 ; 3024912.5878611235 ; 2416096.3643778674 ; 31892.000000000004
135 ; 19009.695460843974 ; 18030.56988341697 ; 3044337.190256895 ; 2434126.9342612843 ; 32130.000000000004
136 ; 18983.29787273885 ; 18030.56988341697 ; 3063346.885717739 ; 2452157.504144701 ; 32368.000000000004
137 ; 18643.26393932675 ; 18030.56988341697 ; 3082330.183590478 ; 2470188.074028118 ; 32606.000000000004
138 ; 18311.726518541487 ; 18030.56988341697 ; 3100973.4475298044 ; 2488218.643911535 ; 32844.00000000001
139 ; 18010.21457981079 ; 18030.56988341697 ; 3119285.174048346 ; 2506249.213794952 ; 33082.00000000001
140 ; 17760.140755353976 ; 18030.56988341697 ; 3137295.388628157 ; 2524279.7836783687 ; 33320.00000000001
141 ; 17447.015588149057 ; 18030.56988341697 ; 3155055.529383511 ; 2542310.3535617855 ; 33558.00000000001
142 ; 17065.274016855314 ; 18030.56988341697 ; 3172502.54497166 ; 2560340.9234452024 ; 33796.00000000001
143 ; 16666.761676411017 ; 18030.56988341697 ; 3189567.818988515 ; 2578371.4933286193 ; 34034.00000000001
144 ; 16358.016447295457 ; 18030.56988341697 ; 3206234.580664926 ; 2596402.063212036 ; 34272.00000000001
145 ; 16509.04262161219 ; 18030.56988341697 ; 3222592.5971122216 ; 2614432.633095453 ; 34510.00000000001
146 ; 16268.125160929703 ; 18030.56988341697 ; 3239101.6397338337 ; 2632463.20297887 ; 34748.00000000001
147 ; 16199.763220916091 ; 18030.56988341697 ; 3255369.7648947635 ; 2650493.772862287 ; 34986.00000000001
148 ; 16060.965014466152 ; 18030.56988341697 ; 3271569.5281156795 ; 2668524.3427457036 ; 35224.00000000001
149 ; 15859.213242273177 ; 18030.56988341697 ; 3287630.4931301456 ; 2686554.9126291205 ; 35462.00000000001
150 ; 15831.312535310148 ; 18030.56988341697 ; 3303489.706372419 ; 2704585.4825125374 ; 35700.00000000001
151 ; 15864.480587048844 ; 18030.56988341697 ; 3319321.018907729 ; 2722616.0523959543 ; 35938.00000000001
152 ; 15635.652485228904 ; 18030.56988341697 ; 3335185.499494778 ; 2740646.622279371 ; 36176.00000000001
153 ; 15574.532583814813 ; 18030.56988341697 ; 3350821.151980007 ; 2758677.192162788 ; 36414.00000000001
154 ; 15435.863597870979 ; 18030.56988341697 ; 3366395.684563822 ; 2776707.762046205 ; 36652.00000000001
155 ; 15417.020127948777 ; 18030.56988341697 ; 3381831.548161693 ; 2794738.3319296218 ; 36890.00000000001
156 ; 15080.63032196786 ; 18030.56988341697 ; 3397248.5682896418 ; 2812768.9018130386 ; 37128.00000000001
157 ; 15212.153796290615 ; 18030.56988341697 ; 3412329.1986116096 ; 2830799.4716964555 ; 37366.00000000001
158 ; 15018.526080427888 ; 18030.56988341697 ; 3427541.3524079 ; 2848830.0415798724 ; 37604.00000000001
159 ; 14964.818550971471 ; 18030.56988341697 ; 3442559.878488328 ; 2866860.6114632892 ; 37842.00000000001
160 ; 14689.260795035469 ; 18030.56988341697 ; 3457524.697039299 ; 2884891.181346706 ; 38080.00000000001
161 ; 14525.849924417673 ; 18030.56988341697 ; 3472213.9578343346 ; 2902921.751230123 ; 38318.00000000001
162 ; 14491.003638802533 ; 18030.56988341697 ; 3486739.8077587523 ; 2920952.32111354 ; 38556.00000000001
163 ; 14258.638666524603 ; 18030.56988341697 ; 3501230.811397555 ; 2938982.8909969567 ; 38794.00000000001
164 ; 14255.967030760263 ; 18030.56988341697 ; 3515489.4500640794 ; 2957013.4608803736 ; 39032.00000000001
165 ; 14156.2113112133 ; 18030.56988341697 ; 3529745.4170948397 ; 2975044.0307637905 ; 39270.00000000001
166 ; 14069.809396821252 ; 18030.56988341697 ; 3543901.628406053 ; 2993074.6006472073 ; 39508.00000000001
167 ; 13790.838795201975 ; 18030.56988341697 ; 3557971.437802874 ; 3011105.170530624 ; 39746.00000000001
168 ; 13638.121180840895 ; 18030.56988341697 ; 3571762.276598076 ; 3029135.740414041 ; 39984.00000000001
169 ; 13558.206171757587 ; 18030.56988341697 ; 3585400.3977789166 ; 3047166.310297458 ; 40222.00000000001
170 ; 13376.94392492273 ; 18030.56988341697 ; 3598958.603950674 ; 3065196.880180875 ; 40460.00000000001
171 ; 13227.180367681061 ; 18030.56988341697 ; 3612335.547875597 ; 3083227.4500642917 ; 40698.00000000001
172 ; 13289.278086376411 ; 18030.56988341697 ; 3625562.7282432783 ; 3101258.0199477086 ; 40936.00000000001
173 ; 12887.59036930314 ; 18030.56988341697 ; 3638852.0063296547 ; 3119288.5898311255 ; 41174.00000000001
174 ; 13112.242274939132 ; 18030.56988341697 ; 3651739.596698958 ; 3137319.1597145423 ; 41412.00000000001
175 ; 13142.130513190372 ; 18030.56988341697 ; 3664851.838973897 ; 3155349.729597959 ; 41650.00000000001
176 ; 13063.22218330078 ; 18030.56988341697 ; 3677993.9694870873 ; 3173380.299481376 ; 41888.00000000001
177 ; 13044.779365573308 ; 18030.56988341697 ; 3691057.191670388 ; 3191410.869364793 ; 42126.00000000001
178 ; 12978.949780711584 ; 18030.56988341697 ; 3704101.971035961 ; 3209441.43924821 ; 42364.00000000001
179 ; 13052.349808886825 ; 18030.56988341697 ; 3717080.9208166725 ; 3227472.0091316267 ; 42602.00000000001
180 ; 12959.454111190207 ; 18030.56988341697 ; 3730133.270625559 ; 3245502.5790150436 ; 42840.00000000001
181 ; 13030.525703663165 ; 18030.56988341697 ; 3743092.724736749 ; 3263533.1488984604 ; 43078.00000000001
182 ; 13042.258830384822 ; 18030.56988341697 ; 3756123.250440412 ; 3281563.7187818773 ; 43316.00000000001
183 ; 13165.302360646121 ; 18030.56988341697 ; 3769165.509270797 ; 3299594.288665294 ; 43554.00000000001
184 ; 13238.462040465402 ; 18030.56988341697 ; 3782330.811631443 ; 3317624.858548711 ; 43792.00000000001
185 ; 13011.75039235321 ; 18030.56988341697 ; 3795569.2736719083 ; 3335655.428432128 ; 44030.00000000001
186 ; 13224.424725606605 ; 18030.56988341697 ; 3808581.0240642615 ; 3353685.998315545 ; 44268.00000000001
