CSV File for the City 3 on Day 220
1 - Minute m 
2 - Power Consumed at minute m 
3 - Power Produced at minute m 
4 - Energy Consumed since the beginning of the day 
5 - Energy Produced since the beginning of the day 
6 - Energy Lost since the beginning of the day on lines starting from the city
 
0 ; 3841.1129040641054 ; 28462.86333061042 ; 0.0 ; 0.0 ; 0.0
1 ; 4346.481383079947 ; 27774.995371729306 ; 3841.1129040641054 ; 28462.86333061042 ; 0.0
2 ; 4898.670522917066 ; 27144.617483337457 ; 8187.594287144052 ; 56237.85870233973 ; 0.0
3 ; 5330.994486612369 ; 26575.87057245337 ; 13086.264810061119 ; 83382.47618567718 ; 0.0
4 ; 5855.821453926206 ; 26072.832791194473 ; 18417.25929667349 ; 109958.34675813054 ; 0.0
5 ; 6310.480122863579 ; 25639.411350869523 ; 24273.080750599693 ; 136031.17954932502 ; 0.0
6 ; 6801.731075024882 ; 25279.221062365214 ; 30583.56087346327 ; 161670.59090019454 ; 0.0
7 ; 7100.134945908215 ; 24995.45590206933 ; 37385.29194848815 ; 186949.81196255976 ; 0.0
8 ; 7665.360321204147 ; 24790.76230257371 ; 44485.42689439636 ; 211945.2678646291 ; 0.0
9 ; 8124.386675135287 ; 24667.124537918884 ; 52150.78721560051 ; 236736.0301672028 ; 0.0
10 ; 8453.841275993695 ; 24625.772956441728 ; 60275.173890735794 ; 261403.1547051217 ; 0.0
11 ; 9008.964395324936 ; 24667.124537918884 ; 68729.01516672948 ; 286028.92766156344 ; 0.0
12 ; 9420.710097787985 ; 24790.76230257371 ; 77737.97956205442 ; 310696.05219948234 ; 0.0
13 ; 9784.65235812775 ; 24995.45590206933 ; 87158.6896598424 ; 335486.81450205605 ; 0.0
14 ; 10268.904443899075 ; 25279.221062365035 ; 96943.34201797016 ; 360482.2704041254 ; 0.0
15 ; 10672.760761035563 ; 25639.411350869523 ; 107212.24646186925 ; 385761.49146649044 ; 0.0
16 ; 10985.01870015781 ; 26072.832791194473 ; 117885.00722290481 ; 411400.90281735995 ; 0.0
17 ; 11469.982491982906 ; 26575.87057245337 ; 128870.02592306263 ; 437473.73560855445 ; 0.0
18 ; 11950.546124654747 ; 27144.617483337457 ; 140340.00841504554 ; 464049.6061810078 ; 0.0
19 ; 12179.374190288803 ; 27774.995371729143 ; 152290.55453970027 ; 491194.2236643453 ; 0.0
20 ; 12697.245779228173 ; 28462.86333061042 ; 164469.92872998907 ; 518969.2190360744 ; 0.0
21 ; 12945.807971711778 ; 29204.10888206999 ; 177167.17450921724 ; 547432.0823666848 ; 0.0
22 ; 13338.091254497336 ; 29994.720744311824 ; 190112.982480929 ; 576636.1912487547 ; 0.0
23 ; 13686.93033021286 ; 30830.843574659233 ; 203451.07373542633 ; 606630.9119930665 ; 0.0
24 ; 14032.308023702028 ; 31708.8163067773 ; 217138.0040656392 ; 637461.7555677257 ; 0.0
25 ; 14496.325102073986 ; 32625.196385909185 ; 231170.31208934123 ; 669170.571874503 ; 0.0
26 ; 14675.201463448202 ; 33576.77246021881 ; 245666.6371914152 ; 701795.7682604123 ; 0.0
27 ; 15128.465180244306 ; 34560.568037145786 ; 260341.83865486342 ; 735372.5407206311 ; 0.0
28 ; 15524.017242285623 ; 35573.8383787154 ; 275470.3038351077 ; 769933.1087577769 ; 0.0
29 ; 15716.66731507726 ; 36614.06258251179 ; 290994.3210773933 ; 805506.9471364924 ; 0.0
30 ; 16068.027431896018 ; 37678.932441582845 ; 306710.9883924706 ; 842121.0097190042 ; 0.0
31 ; 16308.903291783126 ; 38766.33933847017 ; 322779.0158243666 ; 879799.9421605871 ; 0.0
32 ; 16710.826019106178 ; 39874.360128390115 ; 339087.9191161497 ; 918566.2814990572 ; 0.0
33 ; 16934.887844076326 ; 41001.242713590895 ; 355798.7451352559 ; 958440.6416274473 ; 0.0
34 ; 17366.044534938104 ; 42145.391805952604 ; 372733.63297933224 ; 999441.8843410382 ; 0.0
35 ; 17718.685321614197 ; 43305.35521413815 ; 390099.67751427036 ; 1041587.2761469908 ; 0.0
36 ; 17830.313162472758 ; 44479.81086901242 ; 407818.36283588456 ; 1084892.631361129 ; 0.0
37 ; 18178.650696301716 ; 45667.554709999495 ; 425648.6759983573 ; 1129372.4422301415 ; 0.0
38 ; 18347.659996656446 ; 46867.48948919742 ; 443827.326694659 ; 1175039.996940141 ; 0.0
39 ; 18714.405882379982 ; 48078.61450383288 ; 462174.9866913155 ; 1221907.4864293386 ; 0.0
40 ; 18857.84647266962 ; 49300.01623630096 ; 480889.39257369546 ; 1269986.1009331713 ; 0.0
41 ; 19103.14598002937 ; 50530.85986080531 ; 499747.2390463651 ; 1319286.1171694724 ; 0.0
42 ; 19378.09771657025 ; 51770.38156348089 ; 518850.38502639445 ; 1369816.9770302777 ; 0.0
43 ; 19608.986217112248 ; 53017.881616543506 ; 538228.4827429648 ; 1421587.3585937587 ; 0.0
44 ; 19737.198615837347 ; 54272.71814470243 ; 557837.468960077 ; 1474605.2402103022 ; 0.0
45 ; 20058.401192121764 ; 55534.30152251279 ; 577574.6675759144 ; 1528877.9583550047 ; 0.0
46 ; 20287.172346911277 ; 56802.08934355316 ; 597633.0687680362 ; 1584412.2598775174 ; 0.0
47 ; 20458.12273078634 ; 58075.58190562703 ; 617920.2411149475 ; 1641214.3492210705 ; 0.0
48 ; 20742.451468095453 ; 59354.318160095274 ; 638378.3638457338 ; 1699289.9311266975 ; 0.0
49 ; 20995.714200086786 ; 60637.87207763019 ; 659120.8153138292 ; 1758644.2492867927 ; 0.0
50 ; 21167.531037719837 ; 61925.84938689364 ; 680116.529513916 ; 1819282.1213644228 ; 0.0
51 ; 21486.15554455744 ; 63217.88464674452 ; 701284.0605516358 ; 1881207.9707513165 ; 0.0
52 ; 21373.50300136418 ; 64513.63861647569 ; 722770.2160961933 ; 1944425.855398061 ; 0.0
53 ; 21729.498144866728 ; 65812.79589221066 ; 744143.7190975575 ; 2008939.4940145367 ; 0.0
54 ; 21846.79641852829 ; 67115.06278093877 ; 765873.2172424243 ; 2074752.2899067474 ; 0.0
55 ; 22130.369860852763 ; 68420.16538671813 ; 787720.0136609526 ; 2141867.352687686 ; 0.0
56 ; 22215.774400898215 ; 69727.84788633967 ; 809850.3835218053 ; 2210287.5180744044 ; 0.0
57 ; 22361.363012054084 ; 71037.87097423227 ; 832066.1579227035 ; 2280015.365960744 ; 0.0
58 ; 22520.06438691851 ; 72350.01045861993 ; 854427.5209347577 ; 2351053.2369349767 ; 0.0
59 ; 22791.048678190917 ; 73664.05599293405 ; 876947.5853216762 ; 2423403.2473935965 ; 0.0
60 ; 22724.718278796576 ; 74979.809928257 ; 899738.6339998671 ; 2497067.3033865304 ; 0.0
61 ; 23003.13470734767 ; 76297.08627415294 ; 922463.3522786637 ; 2572047.1133147874 ; 0.0
62 ; 23047.475626466337 ; 77615.70975664216 ; 945466.4869860114 ; 2648344.1995889405 ; 0.0
63 ; 23127.25564711236 ; 78935.51496331731 ; 968513.9626124777 ; 2725959.9093455826 ; 0.0
64 ; 23288.1664861111 ; 80256.34556670338 ; 991641.2182595901 ; 2804895.4243089 ; 0.0
65 ; 23443.102006971363 ; 81578.05361793641 ; 1014929.3847457012 ; 2885151.7698756033 ; 0.0
66 ; 23454.29858370023 ; 82900.49890370212 ; 1038372.4867526726 ; 2966729.82349354 ; 0.0
67 ; 23596.81564871102 ; 84223.54836014051 ; 1061826.785336373 ; 3049630.322397242 ; 0.0
68 ; 23788.901704191878 ; 85547.07553810137 ; 1085423.600985084 ; 3133853.8707573824 ; 0.0
69 ; 23835.884843754167 ; 86870.96011473444 ; 1109212.502689276 ; 3219400.946295484 ; 0.0
70 ; 23805.8797671997 ; 88195.0874469349 ; 1133048.38753303 ; 3306271.906410218 ; 0.0
71 ; 23957.09289611122 ; 89519.34816263286 ; 1156854.2673002298 ; 3394466.993857153 ; 0.0
72 ; 23991.22341351917 ; 90843.63778633846 ; 1180811.360196341 ; 3483986.342019786 ; 0.0
73 ; 23995.10837369961 ; 92167.85639572525 ; 1204802.5836098602 ; 3574829.9798061247 ; 0.0
74 ; 23888.47299667902 ; 93491.90830636531 ; 1228797.6919835599 ; 3666997.83620185 ; 0.0
75 ; 24188.235275899744 ; 94815.70178202537 ; 1252686.1649802388 ; 3760489.744508215 ; 0.0
76 ; 24194.65524781844 ; 96139.14876819431 ; 1276874.4002561385 ; 3855305.4462902406 ; 0.0
77 ; 24422.67734756865 ; 97462.16464674597 ; 1301069.055503957 ; 3951444.595058435 ; 0.0
78 ; 24301.206245369995 ; 98784.66800985084 ; 1325491.7328515255 ; 4048906.7597051812 ; 0.0
79 ; 24241.66106005543 ; 100106.58045143362 ; 1349792.9390968955 ; 4147691.427715032 ; 0.0
80 ; 24173.078482467223 ; 101427.8263746428 ; 1374034.600156951 ; 4247798.008166466 ; 0.0
81 ; 24299.23870950312 ; 102748.33281394411 ; 1398207.6786394182 ; 4349225.834541108 ; 0.0
82 ; 24216.367251267584 ; 104068.02927058439 ; 1422506.9173489213 ; 4451974.167355052 ; 0.0
83 ; 24368.569753618318 ; 105386.84756029077 ; 1446723.284600189 ; 4556042.196625637 ; 0.0
84 ; 24444.883224652072 ; 106704.72167217713 ; 1471091.8543538072 ; 4661429.044185928 ; 0.0
85 ; 24213.974919473327 ; 108021.58763792478 ; 1495536.7375784593 ; 4768133.765858105 ; 0.0
86 ; 24203.159822124577 ; 109337.3834103924 ; 1519750.7124979326 ; 4876155.35349603 ; 0.0
87 ; 24262.28325687782 ; 110652.04875088492 ; 1543953.8723200571 ; 4985492.736906422 ; 0.0
88 ; 24167.53902942217 ; 111965.52512438281 ; 1568216.155576935 ; 5096144.785657307 ; 0.0
89 ; 24211.54627174304 ; 113277.75560209612 ; 1592383.6946063573 ; 5208110.31078169 ; 0.0
90 ; 24012.55973936118 ; 114588.6847707618 ; 1616595.2408781003 ; 5321388.0663837865 ; 0.0
91 ; 24174.272335812027 ; 115898.25864815712 ; 1640607.8006174616 ; 5435976.7511545485 ; 0.0
92 ; 24085.15871888846 ; 117206.42460434623 ; 1664782.0729532735 ; 5551875.009802706 ; 0.0
93 ; 24031.880726010717 ; 118513.13128821859 ; 1688867.231672162 ; 5669081.434407052 ; 0.0
94 ; 23986.199087621695 ; 119818.32855891707 ; 1712899.1123981727 ; 5787594.56569527 ; 0.0
95 ; 23968.16104831145 ; 121121.96742178651 ; 1736885.3114857944 ; 5907412.894254187 ; 0.0
96 ; 23720.062079960382 ; 122423.99996850523 ; 1760853.4725341059 ; 6028534.861675974 ; 0.0
97 ; 23641.581405633788 ; 123724.37932108997 ; 1784573.5346140664 ; 6150958.861644479 ; 0.0
98 ; 23432.524782529847 ; 125023.05957949009 ; 1808215.1160197002 ; 6274683.240965569 ; 0.0
99 ; 23462.60331032293 ; 126319.9957725109 ; 1831647.64080223 ; 6399706.300545059 ; 0.0
100 ; 23316.6768030331 ; 127615.14381182591 ; 1855110.2441125528 ; 6526026.29631757 ; 0.0
101 ; 23239.262078443877 ; 128908.46044885853 ; 1878426.920915586 ; 6653641.440129396 ; 0.0
102 ; 22919.701734104223 ; 130199.90323432989 ; 1901666.1829940297 ; 6782549.900578254 ; 0.0
103 ; 22954.15698755038 ; 131489.4304802865 ; 1924585.884728134 ; 6912749.803812584 ; 0.0
104 ; 23032.120158598038 ; 132777.00122443578 ; 1947540.0417156843 ; 7044239.23429287 ; 0.0
105 ; 22700.179150164604 ; 134062.57519663047 ; 1970572.1618742824 ; 7177016.235517306 ; 0.0
106 ; 22493.715369245718 ; 135346.11278735608 ; 1993272.341024447 ; 7311078.810713937 ; 0.0
107 ; 22432.902749626257 ; 136627.57501808554 ; 2015766.0563936927 ; 7446424.923501292 ; 0.0
108 ; 22202.064184909977 ; 137906.9235133762 ; 2038198.959143319 ; 7583052.498519378 ; 0.0
109 ; 22235.762761356094 ; 139184.12047459406 ; 2060401.0233282289 ; 7720959.422032754 ; 0.0
110 ; 21983.810281572518 ; 140459.12865515705 ; 2082636.786089585 ; 7860143.542507348 ; 0.0
111 ; 21933.288191056992 ; 141731.9113372 ; 2104620.5963711576 ; 8000602.671162505 ; 0.0
112 ; 21564.815243107958 ; 143002.43230956738 ; 2126553.8845622144 ; 8142334.582499704 ; 0.0
113 ; 21341.93892480698 ; 144270.65584705042 ; 2148118.699805322 ; 8285337.014809271 ; 0.0
114 ; 21342.8498958392 ; 145536.54669078824 ; 2169460.638730129 ; 8429607.670656322 ; 0.0
115 ; 21001.93506469285 ; 146800.07002976036 ; 2190803.4886259683 ; 8575144.21734711 ; 0.0
116 ; 20848.193229117118 ; 148061.1914833021 ; 2211805.4236906613 ; 8721944.28737687 ; 0.0
117 ; 20800.26629385563 ; 149319.87708457926 ; 2232653.6169197783 ; 8870005.478860172 ; 0.0
118 ; 20476.3412131502 ; 150576.09326496327 ; 2253453.883213634 ; 9019325.35594475 ; 0.0
119 ; 20277.96378185411 ; 151829.80683925204 ; 2273930.2244267846 ; 9169901.449209714 ; 0.0
120 ; 19836.327073053628 ; 153080.98499168473 ; 2294208.1882086387 ; 9321731.256048966 ; 0.0
121 ; 19803.668083692264 ; 154329.5952627035 ; 2314044.515281692 ; 9474812.24104065 ; 0.0
122 ; 19576.05670612335 ; 155575.6055364173 ; 2333848.1833653846 ; 9629141.836303353 ; 0.0
123 ; 19273.12408896774 ; 156818.9840287262 ; 2353424.240071508 ; 9784717.441839771 ; 0.0
124 ; 18941.21112085612 ; 158059.69927606772 ; 2372697.364160476 ; 9941536.425868498 ; 0.0
125 ; 18741.563861647424 ; 159297.720124749 ; 2391638.575281332 ; 1.0099596125144565E7 ; 0.0
126 ; 18428.728877834754 ; 160533.01572083047 ; 2410380.1391429794 ; 1.0258893845269315E7 ; 0.0
127 ; 18248.307392040213 ; 161765.5555005304 ; 2428808.8680208144 ; 1.0419426860990146E7 ; 0.0
128 ; 18019.030520080236 ; 162995.30918111952 ; 2447057.1754128546 ; 1.0581192416490676E7 ; 0.0
129 ; 17600.754799476297 ; 164222.24675227926 ; 2465076.205932935 ; 1.0744187725671796E7 ; 0.0
130 ; 17363.622615528155 ; 165446.3384678962 ; 2482676.960732411 ; 1.0908409972424075E7 ; 0.0
131 ; 17031.29721798253 ; 166667.55483827027 ; 2500040.5833479394 ; 1.1073856310891971E7 ; 0.0
132 ; 16782.589069550955 ; 167885.86662271208 ; 2517071.880565922 ; 1.1240523865730241E7 ; 0.0
133 ; 16406.708806419072 ; 169101.2448225093 ; 2533854.4696354726 ; 1.1408409732352953E7 ; 0.0
134 ; 16360.242611329668 ; 170313.66067424137 ; 2550261.178441892 ; 1.1577510977175463E7 ; 0.0
135 ; 15974.930143648595 ; 171523.08564342395 ; 2566621.4210532214 ; 1.1747824637849703E7 ; 0.0
136 ; 15408.343167452924 ; 172729.49141846545 ; 2582596.35119687 ; 1.1919347723493127E7 ; 0.0
137 ; 15255.682791955789 ; 173932.84990491884 ; 2598004.6943643233 ; 1.2092077214911593E7 ; 0.0
138 ; 14898.919268788275 ; 175133.13322001326 ; 2613260.377156279 ; 1.2266010064816512E7 ; 0.0
139 ; 14616.544241919859 ; 176330.31368745086 ; 2628159.2964250674 ; 1.2441143198036525E7 ; 0.0
140 ; 14134.379928970735 ; 177524.36383245463 ; 2642775.840666987 ; 1.2617473511723977E7 ; 0.0
141 ; 13928.979727911952 ; 178715.25637705455 ; 2656910.2205959577 ; 1.2794997875556432E7 ; 0.0
142 ; 13586.851065127023 ; 179902.96423559965 ; 2670839.2003238695 ; 1.2973713131933486E7 ; 0.0
143 ; 13050.438978782686 ; 181087.46051048473 ; 2684426.0513889967 ; 1.3153616096169086E7 ; 0.0
144 ; 12710.7052386593 ; 182268.71848808014 ; 2697476.4903677795 ; 1.3334703556679571E7 ; 0.0
145 ; 12624.367789090647 ; 183446.71163485516 ; 2710187.195606439 ; 1.3516972275167651E7 ; 0.0
146 ; 12571.482420063707 ; 184621.41359368488 ; 2722811.5633955295 ; 1.3700418986802507E7 ; 0.0
147 ; 12429.84826736528 ; 185792.79818033107 ; 2735383.045815593 ; 1.3885040400396192E7 ; 0.0
148 ; 12281.119766695674 ; 186960.83938008963 ; 2747812.8940829583 ; 1.4070833198576523E7 ; 0.0
149 ; 12170.868404740919 ; 188125.51134459488 ; 2760094.0138496542 ; 1.4257794037956612E7 ; 0.0
150 ; 12219.40897651044 ; 189286.78838877403 ; 2772264.882254395 ; 1.4445919549301207E7 ; 0.0
151 ; 12170.63631394206 ; 190444.6449879445 ; 2784484.291230906 ; 1.463520633768998E7 ; 0.0
152 ; 12011.949107809678 ; 191599.05577504673 ; 2796654.927544848 ; 1.4825650982677925E7 ; 0.0
153 ; 11836.80953500142 ; 192749.99553800595 ; 2808666.8766526575 ; 1.5017250038452972E7 ; 0.0
154 ; 11654.27031664679 ; 193897.43921721776 ; 2820503.686187659 ; 1.5210000033990977E7 ; 0.0
155 ; 11691.59659439016 ; 195041.36190315013 ; 2832157.956504306 ; 1.5403897473208195E7 ; 0.0
156 ; 11387.774816605839 ; 196181.73883405767 ; 2843849.553098696 ; 1.5598938835111344E7 ; 0.0
157 ; 11351.41650817678 ; 197318.5453938018 ; 2855237.3279153015 ; 1.5795120573945401E7 ; 0.0
158 ; 11191.880692806037 ; 198451.75710977285 ; 2866588.7444234784 ; 1.5992439119339203E7 ; 0.0
159 ; 11196.977030687614 ; 199581.3496509089 ; 2877780.6251162845 ; 1.6190890876448976E7 ; 0.0
160 ; 10960.724606624348 ; 200707.29882580665 ; 2888977.602146972 ; 1.6390472226099884E7 ; 0.0
161 ; 10662.302371386446 ; 201829.58058092053 ; 2899938.3267535963 ; 1.659117952492569E7 ; 0.0
162 ; 10516.157042455363 ; 202948.1709988459 ; 2910600.6291249827 ; 1.679300910550661E7 ; 0.0
163 ; 10575.859559518945 ; 204063.0462966825 ; 2921116.786167438 ; 1.6995957276505455E7 ; 0.0
164 ; 10405.380776885599 ; 205174.18282447447 ; 2931692.645726957 ; 1.7200020322802138E7 ; 0.0
165 ; 10265.6890033194 ; 206281.5570637234 ; 2942098.0265038423 ; 1.740519450562661E7 ; 0.0
166 ; 10082.93717516357 ; 207385.14562597175 ; 2952363.715507162 ; 1.7611476062690336E7 ; 0.0
167 ; 10045.978120515836 ; 208484.92525145254 ; 2962446.6526823253 ; 1.7818861208316308E7 ; 0.0
168 ; 9775.344961489112 ; 209580.87280780333 ; 2972492.6308028414 ; 1.802734613356776E7 ; 0.0
169 ; 9698.131226846785 ; 210672.9652888406 ; 2982267.9757643305 ; 1.8236927006375566E7 ; 0.0
170 ; 9433.15132507998 ; 211761.17981339342 ; 2991966.1069911774 ; 1.8447599971664406E7 ; 0.0
171 ; 9368.994339601402 ; 212845.49362419205 ; 3001399.2583162575 ; 1.86593611514778E7 ; 0.0
172 ; 9108.265942482436 ; 213925.8840868106 ; 3010768.252655859 ; 1.887220664510199E7 ; 0.0
173 ; 9005.809445501378 ; 215002.3286886602 ; 3019876.5185983414 ; 1.90861325291888E7 ; 0.0
174 ; 9040.034587929202 ; 216074.80503803145 ; 3028882.3280438427 ; 1.930113485787746E7 ; 0.0
175 ; 8966.543122557207 ; 217143.2908631835 ; 3037922.3626317717 ; 1.951720966291549E7 ; 0.0
176 ; 9093.880776958798 ; 218207.764011478 ; 3046888.9057543287 ; 1.9734352953778673E7 ; 0.0
177 ; 9070.965759647068 ; 219268.20244855576 ; 3055982.7865312877 ; 1.995256071779015E7 ; 0.0
178 ; 9188.556248335939 ; 220324.5842575547 ; 3065053.752290935 ; 2.0171828920238703E7 ; 0.0
179 ; 9157.181009088357 ; 221376.8876383671 ; 3074242.308539271 ; 2.0392153504496258E7 ; 0.0
180 ; 9224.901937833276 ; 222425.0909069343 ; 3083399.489548359 ; 2.0613530392134625E7 ; 0.0
181 ; 9354.506555462 ; 223469.17249457765 ; 3092624.391486192 ; 2.083595548304156E7 ; 0.0
182 ; 9251.942235608774 ; 224509.1109473644 ; 3101978.898041654 ; 2.1059424655536138E7 ; 0.0
183 ; 9293.895725566586 ; 225544.88492550608 ; 3111230.8402772625 ; 2.12839337664835E7 ; 0.0
184 ; 9260.194555996146 ; 226576.47320278914 ; 3120524.736002829 ; 2.1509478651409008E7 ; 0.0
185 ; 9335.567390701592 ; 227603.85466603603 ; 3129784.930558825 ; 2.1736055124611795E7 ; 0.0
186 ; 9443.10893761267 ; 228627.00831459524 ; 3139120.4979495266 ; 2.196365897927783E7 ; 0.0
187 ; 9523.499869556694 ; 229645.91325985975 ; 3148563.6068871394 ; 2.2192285987592425E7 ; 0.0
188 ; 9424.030232918061 ; 230660.54872481182 ; 3158087.106756696 ; 2.2421931900852285E7 ; 0.0
189 ; 9548.043379394534 ; 231670.89404359413 ; 3167511.136989614 ; 2.2652592449577097E7 ; 0.0
190 ; 9510.573114469358 ; 232676.92866110537 ; 3177059.1803690083 ; 2.288426334362069E7 ; 0.0
191 ; 9528.242434597276 ; 233678.63213261927 ; 3186569.7534834775 ; 2.3116940272281796E7 ; 0.0
192 ; 9780.919294311358 ; 234675.98412342698 ; 3196097.9959180746 ; 2.3350618904414415E7 ; 0.0
193 ; 9659.01860475247 ; 235668.9644085008 ; 3205878.915212386 ; 2.3585294888537843E7 ; 0.0
194 ; 9695.840738313434 ; 236657.552872179 ; 3215537.9338171384 ; 2.3820963852946345E7 ; 0.0
195 ; 9888.170207770992 ; 237641.7295078711 ; 3225233.7745554517 ; 2.4057621405818522E7 ; 0.0
196 ; 9776.202066081709 ; 238621.47441778157 ; 3235121.9447632227 ; 2.4295263135326393E7 ; 0.0
197 ; 9711.577342838835 ; 239596.7678126532 ; 3244898.1468293043 ; 2.4533884609744176E7 ; 0.0
198 ; 9924.562113106933 ; 240567.5900115272 ; 3254609.7241721433 ; 2.477348137755683E7 ; 0.0
199 ; 9988.864864358919 ; 241533.92144152118 ; 3264534.28628525 ; 2.5014048967568357E7 ; 0.0
200 ; 9953.58609156599 ; 242495.74263762296 ; 3274523.151149609 ; 2.5255582889009878E7 ; 0.0
201 ; 9889.88810540699 ; 243453.03424250026 ; 3284476.737241175 ; 2.54980786316475E7 ; 0.0
202 ; 9741.830367412233 ; 244405.7770063259 ; 3294366.625346582 ; 2.574153166589E7 ; 0.0
203 ; 9946.287799649817 ; 245353.95178661664 ; 3304108.4557139943 ; 2.5985937442896325E7 ; 0.0
204 ; 9941.551931058175 ; 246297.5395480868 ; 3314054.743513644 ; 2.623129139468294E7 ; 0.0
205 ; 10134.964514754196 ; 247236.52136251456 ; 3323996.2954447023 ; 2.6477588934231028E7 ; 0.0
206 ; 10067.34623125878 ; 248170.87840862176 ; 3334131.2599594565 ; 2.672482545559354E7 ; 0.0
207 ; 9985.36273835468 ; 249100.59197196527 ; 3344198.6061907155 ; 2.6972996334002163E7 ; 0.0
208 ; 10032.975243360212 ; 250025.64344484085 ; 3354183.96892907 ; 2.7222096925974127E7 ; 0.0
209 ; 9959.097970234981 ; 250946.01432619776 ; 3364216.9441724303 ; 2.7472122569418967E7 ; 0.0
210 ; 10236.899530824554 ; 251861.68622156465 ; 3374176.0421426655 ; 2.7723068583745163E7 ; 0.0
211 ; 10207.71622209095 ; 252772.640842986 ; 3384412.94167349 ; 2.797493026996673E7 ; 0.0
212 ; 10250.989075019843 ; 253678.860008968 ; 3394620.6578955813 ; 2.8227702910809714E7 ; 0.0
213 ; 10306.94781575352 ; 254580.32564443478 ; 3404871.6469706013 ; 2.848138177081868E7 ; 0.0
