CSV File for the City 2 on Day 250
1 - Minute m 
2 - Power Consumed at minute m 
3 - Power Produced at minute m 
4 - Energy Consumed since the beginning of the day 
5 - Energy Produced since the beginning of the day 
6 - Energy Lost since the beginning of the day on lines starting from the city
 
0 ; 5629.107453865419 ; 32732.502279315573 ; 0.0 ; 0.0 ; 0.0
1 ; 5974.511276111622 ; 32732.502279315573 ; 5629.107453865419 ; 32732.502279315573 ; 0.0
2 ; 6410.456852767262 ; 32732.502279315573 ; 11603.61872997704 ; 65465.004558631146 ; 0.0
3 ; 6715.392385994855 ; 32732.502279315573 ; 18014.075582744303 ; 98197.50683794671 ; 0.0
4 ; 7376.8714236003 ; 32732.502279315573 ; 24729.467968739158 ; 130930.00911726229 ; 0.0
5 ; 8060.857001590182 ; 32732.502279315573 ; 32106.339392339458 ; 163662.51139657787 ; 0.0
6 ; 8456.377896277667 ; 32732.502279315573 ; 40167.19639392964 ; 196395.01367589345 ; 0.0
7 ; 8800.401989683356 ; 32732.502279315573 ; 48623.57429020731 ; 229127.51595520903 ; 0.0
8 ; 9133.6088522865 ; 32732.502279315573 ; 57423.97627989067 ; 261860.0182345246 ; 0.0
9 ; 9771.131267877718 ; 32732.502279315573 ; 66557.58513217716 ; 294592.5205138402 ; 0.0
10 ; 10309.917703404084 ; 32732.502279315573 ; 76328.71640005488 ; 327325.02279315575 ; 0.0
11 ; 10572.497284403707 ; 32732.502279315573 ; 86638.63410345896 ; 360057.5250724713 ; 0.0
12 ; 11042.976158898948 ; 32732.502279315573 ; 97211.13138786267 ; 392790.02735178685 ; 0.0
13 ; 11506.90781825068 ; 32732.502279315573 ; 108254.10754676162 ; 425522.5296311024 ; 0.0
14 ; 11812.500464051505 ; 32732.502279315573 ; 119761.0153650123 ; 458255.03191041795 ; 0.0
15 ; 12298.592971066388 ; 32732.502279315573 ; 131573.5158290638 ; 490987.5341897335 ; 0.0
16 ; 12548.031476148652 ; 32732.502279315573 ; 143872.1088001302 ; 523720.03646904905 ; 0.0
17 ; 13066.874960318635 ; 32732.502279315573 ; 156420.14027627883 ; 556452.5387483647 ; 0.0
18 ; 13556.596379399414 ; 32732.502279315573 ; 169487.01523659748 ; 589185.0410276803 ; 0.0
19 ; 13834.900478690353 ; 32732.502279315573 ; 183043.6116159969 ; 621917.5433069959 ; 0.0
20 ; 14214.547061608575 ; 32732.502279315573 ; 196878.51209468726 ; 654650.0455863115 ; 0.0
21 ; 14549.905485706415 ; 32732.502279315573 ; 211093.05915629584 ; 687382.5478656271 ; 0.0
22 ; 14786.903713013859 ; 32732.502279315573 ; 225642.96464200225 ; 720115.0501449427 ; 0.0
23 ; 15339.389831110233 ; 32732.502279315573 ; 240429.8683550161 ; 752847.5524242583 ; 0.0
24 ; 15740.165869055561 ; 32732.502279315573 ; 255769.25818612633 ; 785580.0547035739 ; 0.0
25 ; 16022.671945283 ; 32732.502279315573 ; 271509.4240551819 ; 818312.5569828895 ; 0.0
26 ; 16239.850457637558 ; 32732.502279315573 ; 287532.0960004649 ; 851045.0592622051 ; 0.0
27 ; 16854.937292299393 ; 32732.502279315573 ; 303771.9464581025 ; 883777.5615415208 ; 0.0
28 ; 17165.074196309757 ; 32732.502279315573 ; 320626.8837504019 ; 916510.0638208364 ; 0.0
29 ; 17320.639574238518 ; 32732.502279315573 ; 337791.9579467117 ; 949242.566100152 ; 0.0
30 ; 17778.44180449832 ; 32732.502279315573 ; 355112.5975209502 ; 981975.0683794676 ; 0.0
31 ; 17935.789154747967 ; 32732.502279315573 ; 372891.0393254485 ; 1014707.5706587832 ; 0.0
32 ; 18475.991026948002 ; 32732.502279315573 ; 390826.8284801965 ; 1047440.0729380988 ; 0.0
33 ; 18640.380663440923 ; 32732.502279315573 ; 409302.8195071445 ; 1080172.5752174144 ; 0.0
34 ; 18765.169275406217 ; 32732.502279315573 ; 427943.2001705854 ; 1112905.07749673 ; 0.0
35 ; 19052.864609155 ; 32732.502279315573 ; 446708.36944599164 ; 1145637.5797760456 ; 0.0
36 ; 19475.99578891544 ; 32732.502279315573 ; 465761.23405514663 ; 1178370.0820553612 ; 0.0
37 ; 19689.328256223896 ; 32732.502279315573 ; 485237.22984406207 ; 1211102.5843346769 ; 0.0
38 ; 20184.949524705742 ; 32732.502279315573 ; 504926.55810028594 ; 1243835.0866139925 ; 0.0
39 ; 20250.346374983204 ; 32732.502279315573 ; 525111.5076249917 ; 1276567.588893308 ; 0.0
40 ; 20633.881146825846 ; 32732.502279315573 ; 545361.8539999749 ; 1309300.0911726237 ; 0.0
41 ; 20759.55775964666 ; 32732.502279315573 ; 565995.7351468008 ; 1342032.5934519393 ; 0.0
42 ; 20864.40410011551 ; 32732.502279315573 ; 586755.2929064474 ; 1374765.095731255 ; 0.0
43 ; 21341.0281374212 ; 32732.502279315573 ; 607619.697006563 ; 1407497.5980105705 ; 0.0
44 ; 21614.956242349504 ; 32732.502279315573 ; 628960.7251439842 ; 1440230.1002898861 ; 0.0
45 ; 21896.68205274282 ; 32732.502279315573 ; 650575.6813863337 ; 1472962.6025692017 ; 0.0
46 ; 21987.083168625002 ; 32732.502279315573 ; 672472.3634390765 ; 1505695.1048485173 ; 0.0
47 ; 22232.677418096275 ; 32732.502279315573 ; 694459.4466077015 ; 1538427.607127833 ; 0.0
48 ; 22418.38433547076 ; 32732.502279315573 ; 716692.1240257977 ; 1571160.1094071486 ; 0.0
49 ; 22638.34602476323 ; 32732.502279315573 ; 739110.5083612684 ; 1603892.6116864642 ; 0.0
50 ; 22749.25842322285 ; 32732.502279315573 ; 761748.8543860316 ; 1636625.1139657798 ; 0.0
51 ; 23161.72532845162 ; 32732.502279315573 ; 784498.1128092544 ; 1669357.6162450954 ; 0.0
52 ; 23146.017110981727 ; 32732.502279315573 ; 807659.838137706 ; 1702090.118524411 ; 0.0
53 ; 23435.524768361032 ; 32732.502279315573 ; 830805.8552486878 ; 1734822.6208037266 ; 0.0
54 ; 23527.39112650345 ; 32732.502279315573 ; 854241.3800170488 ; 1767555.1230830422 ; 0.0
55 ; 23712.15047207902 ; 32732.502279315573 ; 877768.7711435523 ; 1800287.6253623578 ; 0.0
56 ; 23822.016497261055 ; 32732.502279315573 ; 901480.9216156313 ; 1833020.1276416734 ; 0.0
57 ; 24018.297559461756 ; 32732.502279315573 ; 925302.9381128923 ; 1865752.629920989 ; 0.0
58 ; 24106.198149280175 ; 32732.502279315573 ; 949321.2356723541 ; 1898485.1322003047 ; 0.0
59 ; 24492.267933449722 ; 32732.502279315573 ; 973427.4338216343 ; 1931217.6344796203 ; 0.0
60 ; 24586.38925911002 ; 32732.502279315573 ; 997919.701755084 ; 1963950.1367589359 ; 0.0
61 ; 24648.853993002 ; 32732.502279315573 ; 1022506.091014194 ; 1996682.6390382515 ; 0.0
62 ; 24820.816340264824 ; 32732.502279315573 ; 1047154.9450071959 ; 2029415.141317567 ; 0.0
63 ; 24909.54849641495 ; 32732.502279315573 ; 1071975.7613474608 ; 2062147.6435968827 ; 0.0
64 ; 24939.36920503428 ; 32732.502279315573 ; 1096885.3098438757 ; 2094880.1458761983 ; 0.0
65 ; 24985.981039297807 ; 32732.502279315573 ; 1121824.67904891 ; 2127612.6481555137 ; 0.0
66 ; 25326.679615562225 ; 32732.502279315573 ; 1146810.6600882078 ; 2160345.1504348293 ; 0.0
67 ; 25303.379733944585 ; 32732.502279315573 ; 1172137.3397037701 ; 2193077.652714145 ; 0.0
68 ; 25339.111926380923 ; 32732.502279315573 ; 1197440.7194377147 ; 2225810.1549934605 ; 0.0
69 ; 25421.257647831597 ; 32732.502279315573 ; 1222779.8313640957 ; 2258542.657272776 ; 0.0
70 ; 25593.43669561033 ; 32732.502279315573 ; 1248201.0890119274 ; 2291275.1595520917 ; 0.0
71 ; 25534.8038146111 ; 32732.502279315573 ; 1273794.5257075378 ; 2324007.6618314073 ; 0.0
72 ; 25618.10368762874 ; 32732.502279315573 ; 1299329.329522149 ; 2356740.164110723 ; 0.0
73 ; 25751.804211357365 ; 32732.502279315573 ; 1324947.4332097776 ; 2389472.6663900386 ; 0.0
74 ; 25776.660598274666 ; 32732.502279315573 ; 1350699.237421135 ; 2422205.168669354 ; 0.0
75 ; 25818.059102003815 ; 32732.502279315573 ; 1376475.8980194095 ; 2454937.67094867 ; 0.0
76 ; 25860.13439167738 ; 32732.502279315573 ; 1402293.9571214134 ; 2487670.1732279854 ; 0.0
77 ; 25843.845128662088 ; 32732.502279315573 ; 1428154.0915130908 ; 2520402.675507301 ; 0.0
78 ; 25949.986097536064 ; 32732.502279315573 ; 1453997.936641753 ; 2553135.1777866166 ; 0.0
79 ; 25977.265224565625 ; 32732.502279315573 ; 1479947.922739289 ; 2585867.680065932 ; 0.0
80 ; 25908.553023601256 ; 32732.502279315573 ; 1505925.1879638545 ; 2618600.182345248 ; 0.0
81 ; 25949.787927671456 ; 32732.502279315573 ; 1531833.7409874557 ; 2651332.6846245634 ; 0.0
82 ; 25900.152560412822 ; 32732.502279315573 ; 1557783.5289151273 ; 2684065.186903879 ; 0.0
83 ; 26151.211135027694 ; 32732.502279315573 ; 1583683.6814755402 ; 2716797.6891831947 ; 0.0
84 ; 25802.83171468573 ; 32732.502279315573 ; 1609834.8926105679 ; 2749530.1914625103 ; 0.0
85 ; 25990.8030832294 ; 32732.502279315573 ; 1635637.7243252536 ; 2782262.693741826 ; 0.0
86 ; 25757.57773074863 ; 32732.502279315573 ; 1661628.527408483 ; 2814995.1960211415 ; 0.0
87 ; 25805.224845602952 ; 32732.502279315573 ; 1687386.1051392315 ; 2847727.698300457 ; 0.0
88 ; 25925.825786345275 ; 32732.502279315573 ; 1713191.3299848344 ; 2880460.2005797727 ; 0.0
89 ; 25856.114496932278 ; 32732.502279315573 ; 1739117.1557711796 ; 2913192.7028590883 ; 0.0
90 ; 25782.205992100447 ; 32732.502279315573 ; 1764973.270268112 ; 2945925.205138404 ; 0.0
91 ; 25625.674177079873 ; 32732.502279315573 ; 1790755.4762602125 ; 2978657.7074177195 ; 0.0
92 ; 25757.644959371624 ; 32732.502279315573 ; 1816381.1504372924 ; 3011390.209697035 ; 0.0
93 ; 25652.12753312808 ; 32732.502279315573 ; 1842138.795396664 ; 3044122.7119763508 ; 0.0
94 ; 25661.69019939797 ; 32732.502279315573 ; 1867790.922929792 ; 3076855.2142556664 ; 0.0
95 ; 25486.998387995212 ; 32732.502279315573 ; 1893452.61312919 ; 3109587.716534982 ; 0.0
96 ; 25554.60652832314 ; 32732.502279315573 ; 1918939.611517185 ; 3142320.2188142976 ; 0.0
97 ; 25309.560347386225 ; 32732.502279315573 ; 1944494.2180455083 ; 3175052.721093613 ; 0.0
98 ; 25289.735451666053 ; 32732.502279315573 ; 1969803.7783928944 ; 3207785.223372929 ; 0.0
99 ; 25208.43669155835 ; 32732.502279315573 ; 1995093.5138445604 ; 3240517.7256522444 ; 0.0
100 ; 25106.06576179753 ; 32732.502279315573 ; 2020301.9505361188 ; 3273250.22793156 ; 0.0
101 ; 24942.915116247153 ; 32732.502279315573 ; 2045408.0162979164 ; 3305982.7302108756 ; 0.0
102 ; 24927.350493120895 ; 32732.502279315573 ; 2070350.9314141637 ; 3338715.2324901912 ; 0.0
103 ; 24654.614477297866 ; 32732.502279315573 ; 2095278.2819072846 ; 3371447.734769507 ; 0.0
104 ; 24637.188996352408 ; 32732.502279315573 ; 2119932.8963845824 ; 3404180.2370488225 ; 0.0
105 ; 24518.218086153134 ; 32732.502279315573 ; 2144570.0853809346 ; 3436912.739328138 ; 0.0
106 ; 24291.322616818048 ; 32732.502279315573 ; 2169088.303467088 ; 3469645.2416074537 ; 0.0
107 ; 24207.41283039727 ; 32732.502279315573 ; 2193379.626083906 ; 3502377.7438867693 ; 0.0
108 ; 24144.205244663404 ; 32732.502279315573 ; 2217587.0389143033 ; 3535110.246166085 ; 0.0
109 ; 23830.220391740957 ; 32732.502279315573 ; 2241731.2441589665 ; 3567842.7484454005 ; 0.0
110 ; 23728.81939565931 ; 32732.502279315573 ; 2265561.4645507075 ; 3600575.250724716 ; 0.0
111 ; 23613.95107391184 ; 32732.502279315573 ; 2289290.283946367 ; 3633307.7530040317 ; 0.0
112 ; 23145.034307215905 ; 32732.502279315573 ; 2312904.235020279 ; 3666040.2552833473 ; 0.0
113 ; 23093.120621636743 ; 32732.502279315573 ; 2336049.269327495 ; 3698772.757562663 ; 0.0
114 ; 23024.263695981477 ; 32732.502279315573 ; 2359142.3899491318 ; 3731505.2598419785 ; 0.0
115 ; 22752.851287995003 ; 32732.502279315573 ; 2382166.653645113 ; 3764237.762121294 ; 0.0
116 ; 22615.58832821067 ; 32732.502279315573 ; 2404919.504933108 ; 3796970.26440061 ; 0.0
117 ; 22405.54375968944 ; 32732.502279315573 ; 2427535.0932613187 ; 3829702.7666799254 ; 0.0
118 ; 22119.0181547806 ; 32732.502279315573 ; 2449940.6370210084 ; 3862435.268959241 ; 0.0
119 ; 22079.732062606476 ; 32732.502279315573 ; 2472059.655175789 ; 3895167.7712385566 ; 0.0
120 ; 21566.42831672255 ; 32732.502279315573 ; 2494139.3872383954 ; 3927900.273517872 ; 0.0
121 ; 21629.979833224912 ; 32732.502279315573 ; 2515705.815555118 ; 3960632.775797188 ; 0.0
122 ; 21158.40377220718 ; 32732.502279315573 ; 2537335.795388343 ; 3993365.2780765034 ; 0.0
123 ; 20971.346516113936 ; 32732.502279315573 ; 2558494.19916055 ; 4026097.780355819 ; 0.0
124 ; 20790.68542923857 ; 32732.502279315573 ; 2579465.5456766635 ; 4058830.2826351346 ; 0.0
125 ; 20504.102456580305 ; 32732.502279315573 ; 2600256.231105902 ; 4091562.7849144503 ; 0.0
126 ; 20298.052941615442 ; 32732.502279315573 ; 2620760.3335624826 ; 4124295.287193766 ; 0.0
127 ; 19916.93729152759 ; 32732.502279315573 ; 2641058.386504098 ; 4157027.7894730815 ; 0.0
128 ; 19611.14061963057 ; 32732.502279315573 ; 2660975.3237956255 ; 4189760.291752397 ; 0.0
129 ; 19398.55925705951 ; 32732.502279315573 ; 2680586.464415256 ; 4222492.794031712 ; 0.0
130 ; 19126.80730064789 ; 32732.502279315573 ; 2699985.0236723153 ; 4255225.296311027 ; 0.0
131 ; 18804.47755486836 ; 32732.502279315573 ; 2719111.830972963 ; 4287957.7985903425 ; 0.0
132 ; 18400.572779619284 ; 32732.502279315573 ; 2737916.3085278315 ; 4320690.300869658 ; 0.0
133 ; 18042.28690754949 ; 32732.502279315573 ; 2756316.8813074506 ; 4353422.803148973 ; 0.0
134 ; 17971.70486779081 ; 32732.502279315573 ; 2774359.168215 ; 4386155.305428288 ; 0.0
135 ; 17728.80559812587 ; 32732.502279315573 ; 2792330.873082791 ; 4418887.807707603 ; 0.0
136 ; 17254.065614619605 ; 32732.502279315573 ; 2810059.678680917 ; 4451620.309986918 ; 0.0
137 ; 16969.565218600488 ; 32732.502279315573 ; 2827313.7442955365 ; 4484352.812266233 ; 0.0
138 ; 16580.1837354766 ; 32732.502279315573 ; 2844283.309514137 ; 4517085.3145455485 ; 0.0
139 ; 16379.003799975737 ; 32732.502279315573 ; 2860863.493249614 ; 4549817.816824864 ; 0.0
140 ; 15903.954680487215 ; 32732.502279315573 ; 2877242.4970495896 ; 4582550.319104179 ; 0.0
141 ; 15394.101828900022 ; 32732.502279315573 ; 2893146.4517300767 ; 4615282.821383494 ; 0.0
142 ; 15233.730222103773 ; 32732.502279315573 ; 2908540.553558977 ; 4648015.323662809 ; 0.0
143 ; 14991.43410938216 ; 32732.502279315573 ; 2923774.2837810805 ; 4680747.825942124 ; 0.0
144 ; 14415.056166989138 ; 32732.502279315573 ; 2938765.717890463 ; 4713480.328221439 ; 0.0
145 ; 14390.102795338305 ; 32732.502279315573 ; 2953180.774057452 ; 4746212.8305007545 ; 0.0
146 ; 14324.83681468241 ; 32732.502279315573 ; 2967570.8768527904 ; 4778945.33278007 ; 0.0
147 ; 14193.723790354328 ; 32732.502279315573 ; 2981895.713667473 ; 4811677.835059385 ; 0.0
148 ; 13975.714421851515 ; 32732.502279315573 ; 2996089.437457827 ; 4844410.3373387 ; 0.0
149 ; 14160.523074533101 ; 32732.502279315573 ; 3010065.1518796785 ; 4877142.839618015 ; 0.0
150 ; 13912.826052191562 ; 32732.502279315573 ; 3024225.674954212 ; 4909875.34189733 ; 0.0
151 ; 13782.74672677018 ; 32732.502279315573 ; 3038138.5010064035 ; 4942607.844176645 ; 0.0
152 ; 13447.626790499717 ; 32732.502279315573 ; 3051921.2477331734 ; 4975340.346455961 ; 0.0
153 ; 13524.684599428067 ; 32732.502279315573 ; 3065368.874523673 ; 5008072.848735276 ; 0.0
154 ; 13421.085755209378 ; 32732.502279315573 ; 3078893.559123101 ; 5040805.351014591 ; 0.0
155 ; 13326.053839095159 ; 32732.502279315573 ; 3092314.6448783106 ; 5073537.853293906 ; 0.0
156 ; 13034.654739024492 ; 32732.502279315573 ; 3105640.6987174056 ; 5106270.355573221 ; 0.0
157 ; 12861.378611802322 ; 32732.502279315573 ; 3118675.35345643 ; 5139002.857852536 ; 0.0
158 ; 12742.663087370558 ; 32732.502279315573 ; 3131536.7320682323 ; 5171735.360131851 ; 0.0
159 ; 12792.375755998017 ; 32732.502279315573 ; 3144279.3951556026 ; 5204467.862411167 ; 0.0
160 ; 12558.561803625593 ; 32732.502279315573 ; 3157071.7709116004 ; 5237200.364690482 ; 0.0
161 ; 12570.39079933367 ; 32732.502279315573 ; 3169630.332715226 ; 5269932.866969797 ; 0.0
162 ; 12270.15736303831 ; 32732.502279315573 ; 3182200.7235145597 ; 5302665.369249112 ; 0.0
163 ; 12148.564573596841 ; 32732.502279315573 ; 3194470.880877598 ; 5335397.871528427 ; 0.0
164 ; 12175.694315946375 ; 32732.502279315573 ; 3206619.445451195 ; 5368130.373807742 ; 0.0
165 ; 12002.28835505669 ; 32732.502279315573 ; 3218795.139767141 ; 5400862.876087057 ; 0.0
166 ; 11736.029073202391 ; 32732.502279315573 ; 3230797.4281221977 ; 5433595.378366373 ; 0.0
167 ; 11585.747538108862 ; 32732.502279315573 ; 3242533.4571954003 ; 5466327.880645688 ; 0.0
168 ; 11407.207284762375 ; 32732.502279315573 ; 3254119.204733509 ; 5499060.382925003 ; 0.0
169 ; 11417.819897470366 ; 32732.502279315573 ; 3265526.4120182716 ; 5531792.885204318 ; 0.0
170 ; 11346.14630046847 ; 32732.502279315573 ; 3276944.231915742 ; 5564525.387483633 ; 0.0
171 ; 11116.127128478116 ; 32732.502279315573 ; 3288290.3782162108 ; 5597257.889762948 ; 0.0
172 ; 10902.823111271497 ; 32732.502279315573 ; 3299406.505344689 ; 5629990.392042263 ; 0.0
173 ; 10680.866718901061 ; 32732.502279315573 ; 3310309.3284559604 ; 5662722.894321579 ; 0.0
174 ; 10869.23615209349 ; 32732.502279315573 ; 3320990.1951748612 ; 5695455.396600894 ; 0.0
175 ; 10739.80693250605 ; 32732.502279315573 ; 3331859.4313269546 ; 5728187.898880209 ; 0.0
176 ; 10786.993500351007 ; 32732.502279315573 ; 3342599.238259461 ; 5760920.401159524 ; 0.0
177 ; 10813.186609361333 ; 32732.502279315573 ; 3353386.2317598118 ; 5793652.903438839 ; 0.0
178 ; 11044.683258410436 ; 32732.502279315573 ; 3364199.418369173 ; 5826385.405718154 ; 0.0
179 ; 10965.065836231894 ; 32732.502279315573 ; 3375244.1016275836 ; 5859117.907997469 ; 0.0
180 ; 10979.444451341515 ; 32732.502279315573 ; 3386209.1674638153 ; 5891850.410276785 ; 0.0
181 ; 10929.949225995704 ; 32732.502279315573 ; 3397188.6119151567 ; 5924582.9125561 ; 0.0
182 ; 10935.99348270241 ; 32732.502279315573 ; 3408118.5611411524 ; 5957315.414835415 ; 0.0
183 ; 11131.35503077025 ; 32732.502279315573 ; 3419054.554623855 ; 5990047.91711473 ; 0.0
184 ; 11016.937769944308 ; 32732.502279315573 ; 3430185.909654625 ; 6022780.419394045 ; 0.0
185 ; 11093.368959878248 ; 32732.502279315573 ; 3441202.8474245695 ; 6055512.92167336 ; 0.0
186 ; 11341.68179823089 ; 32732.502279315573 ; 3452296.2163844476 ; 6088245.423952675 ; 0.0
187 ; 11152.605020938974 ; 32732.502279315573 ; 3463637.8981826785 ; 6120977.926231991 ; 0.0
188 ; 11196.742405521267 ; 32732.502279315573 ; 3474790.5032036174 ; 6153710.428511306 ; 0.0
189 ; 11202.981017642896 ; 32732.502279315573 ; 3485987.2456091386 ; 6186442.930790621 ; 0.0
190 ; 11446.301181144321 ; 32732.502279315573 ; 3497190.2266267817 ; 6219175.433069936 ; 0.0
191 ; 11230.0888531456 ; 32732.502279315573 ; 3508636.5278079263 ; 6251907.935349251 ; 0.0
192 ; 11357.163402744489 ; 32732.502279315573 ; 3519866.616661072 ; 6284640.437628566 ; 0.0
193 ; 11310.675039476304 ; 32732.502279315573 ; 3531223.7800638163 ; 6317372.939907881 ; 0.0
194 ; 11511.085590360879 ; 32732.502279315573 ; 3542534.4551032926 ; 6350105.442187197 ; 0.0
195 ; 11335.779099966028 ; 32732.502279315573 ; 3554045.5406936533 ; 6382837.944466512 ; 0.0
196 ; 11437.483954678391 ; 32732.502279315573 ; 3565381.319793619 ; 6415570.446745827 ; 0.0
197 ; 11361.849172645998 ; 32732.502279315573 ; 3576818.8037482975 ; 6448302.949025142 ; 0.0
198 ; 11549.304734941601 ; 32732.502279315573 ; 3588180.6529209437 ; 6481035.451304457 ; 0.0
199 ; 11386.91155379857 ; 32732.502279315573 ; 3599729.9576558853 ; 6513767.953583772 ; 0.0
200 ; 11635.785695365052 ; 32732.502279315573 ; 3611116.869209684 ; 6546500.455863087 ; 0.0
201 ; 11676.803736600203 ; 32732.502279315573 ; 3622752.654905049 ; 6579232.958142403 ; 0.0
202 ; 11651.317784917876 ; 32732.502279315573 ; 3634429.458641649 ; 6611965.460421718 ; 0.0
203 ; 11680.299267840845 ; 32732.502279315573 ; 3646080.776426567 ; 6644697.962701033 ; 0.0
204 ; 11838.41557909858 ; 32732.502279315573 ; 3657761.0756944083 ; 6677430.464980348 ; 0.0
205 ; 11832.231216740707 ; 32732.502279315573 ; 3669599.491273507 ; 6710162.967259663 ; 0.0
206 ; 11709.413755285661 ; 32732.502279315573 ; 3681431.722490248 ; 6742895.469538978 ; 0.0
207 ; 11651.085753013345 ; 32732.502279315573 ; 3693141.1362455334 ; 6775627.971818293 ; 0.0
208 ; 11723.72034612477 ; 32732.502279315573 ; 3704792.2219985467 ; 6808360.474097609 ; 0.0
209 ; 11648.426532658057 ; 32732.502279315573 ; 3716515.9423446716 ; 6841092.976376924 ; 0.0
210 ; 11973.095203354953 ; 32732.502279315573 ; 3728164.36887733 ; 6873825.478656239 ; 0.0
211 ; 11796.539187531038 ; 32732.502279315573 ; 3740137.464080685 ; 6906557.980935554 ; 0.0
212 ; 11965.162775554318 ; 32732.502279315573 ; 3751934.003268216 ; 6939290.483214869 ; 0.0
213 ; 11902.120074785129 ; 32732.502279315573 ; 3763899.16604377 ; 6972022.985494184 ; 0.0
