CSV File for the City 3 on Day 222
1 - Minute m 
2 - Power Consumed at minute m 
3 - Power Produced at minute m 
4 - Energy Consumed since the beginning of the day 
5 - Energy Produced since the beginning of the day 
6 - Energy Lost since the beginning of the day on lines starting from the city
 
0 ; 3893.753683760254 ; 25231.62391091004 ; 0.0 ; 0.0 ; 0.0
1 ; 4373.396916103733 ; 24464.368425766774 ; 3893.753683760254 ; 25231.62391091004 ; 0.0
2 ; 4848.362456047507 ; 23756.717690002173 ; 8267.150599863988 ; 49695.99233667681 ; 0.0
3 ; 5292.8724908204895 ; 23114.203049747222 ; 13115.513055911495 ; 73452.71002667898 ; 0.0
4 ; 5692.617791380989 ; 22542.445686574792 ; 18408.385546731985 ; 96566.9130764262 ; 0.0
5 ; 6119.748503119468 ; 22046.99635063292 ; 24101.003338112972 ; 119109.35876300099 ; 0.0
6 ; 6754.094653791436 ; 21633.137466852044 ; 30220.751841232443 ; 141156.3551136339 ; 0.0
7 ; 7317.358590940216 ; 21305.65652407123 ; 36974.84649502388 ; 162789.49258048594 ; 0.0
8 ; 7559.193666363031 ; 21068.607185072033 ; 44292.205085964095 ; 184095.14910455717 ; 0.0
9 ; 8095.289538941332 ; 20925.081314082545 ; 51851.39875232713 ; 205163.7562896292 ; 0.0
10 ; 8404.17076685189 ; 20877.01886671391 ; 59946.68829126846 ; 226088.83760371176 ; 0.0
11 ; 8899.731865997577 ; 20925.081314082545 ; 68350.85905812035 ; 246965.85647042567 ; 0.0
12 ; 9350.119705524465 ; 21068.607185072033 ; 77250.59092411792 ; 267890.9377845082 ; 0.0
13 ; 9645.676997479752 ; 21305.65652407123 ; 86600.71062964239 ; 288959.54496958025 ; 0.0
14 ; 10252.520545988451 ; 21633.137466851837 ; 96246.38762712214 ; 310265.2014936515 ; 0.0
15 ; 10570.826680193866 ; 22046.99635063292 ; 106498.90817311058 ; 331898.33896050334 ; 0.0
16 ; 10972.424239454705 ; 22542.445686574792 ; 117069.73485330446 ; 353945.33531113627 ; 0.0
17 ; 11456.446272885963 ; 23114.203049747222 ; 128042.15909275916 ; 376487.78099771106 ; 0.0
18 ; 11746.200064682647 ; 23756.717690002173 ; 139498.6053656451 ; 399601.9840474583 ; 0.0
19 ; 12161.2375165347 ; 24464.36842576659 ; 151244.80543032775 ; 423358.70173746045 ; 0.0
20 ; 12539.366003326997 ; 25231.623910910217 ; 163406.04294686244 ; 447823.07016322704 ; 0.0
21 ; 12861.227072476835 ; 26053.16295234771 ; 175945.40895018942 ; 473054.69407413725 ; 0.0
22 ; 13264.526954488092 ; 26923.957321352387 ; 188806.63602266627 ; 499107.85702648497 ; 0.0
23 ; 13615.583891404984 ; 27839.322299562515 ; 202071.16297715437 ; 526031.8143478374 ; 0.0
24 ; 14014.808517008552 ; 28794.94134603311 ; 215686.74686855936 ; 553871.1366473999 ; 0.0
25 ; 14111.60306016214 ; 29786.87125904098 ; 229701.55538556792 ; 582666.077993433 ; 0.0
26 ; 14638.523205565878 ; 30811.533517713768 ; 243813.15844573005 ; 612452.949252474 ; 0.0
27 ; 15044.867295323405 ; 31865.696500130623 ; 258451.68165129592 ; 643264.4827701878 ; 0.0
28 ; 15325.278125886824 ; 32946.45223599331 ; 273496.5489466193 ; 675130.1792703184 ; 0.0
29 ; 15495.20813320781 ; 34051.190404034765 ; 288821.82707250613 ; 708076.6315063117 ; 0.0
30 ; 15841.462195866832 ; 35177.571489523565 ; 304317.03520571394 ; 742127.8219103465 ; 0.0
31 ; 16242.24202943749 ; 36323.50038914953 ; 320158.4974015808 ; 777305.39339987 ; 0.0
32 ; 16480.893446251994 ; 37487.101276484274 ; 336400.7394310183 ; 813628.8937890196 ; 0.0
33 ; 16758.535500322723 ; 38666.69419696247 ; 352881.6328772703 ; 851115.9950655039 ; 0.0
34 ; 16897.550434101857 ; 39860.77362026376 ; 369640.168377593 ; 889782.6892624664 ; 0.0
35 ; 17289.710281129777 ; 41067.98901538927 ; 386537.7188116948 ; 929643.4628827302 ; 0.0
36 ; 17685.920789976684 ; 42287.127408857676 ; 403827.4290928246 ; 970711.4518981194 ; 0.0
37 ; 17964.333792784102 ; 43517.097822759686 ; 421513.34988280124 ; 1012998.5793069771 ; 0.0
38 ; 18072.476552618285 ; 44756.91745429976 ; 439477.6836755853 ; 1056515.6771297369 ; 0.0
39 ; 18598.483352473497 ; 46005.69944263024 ; 457550.1602282036 ; 1101272.5945840366 ; 0.0
40 ; 18811.186591081154 ; 47262.64206550926 ; 476148.64358067705 ; 1147278.2940266668 ; 0.0
41 ; 18911.429883222845 ; 48527.019212889725 ; 494959.8301717582 ; 1194540.936092176 ; 0.0
42 ; 19258.261919908688 ; 49798.17199368923 ; 513871.26005498104 ; 1243067.9553050657 ; 0.0
43 ; 19341.895338595183 ; 51075.50134353468 ; 533129.5219748897 ; 1292866.1272987549 ; 0.0
44 ; 19497.89919174801 ; 52358.46151374549 ; 552471.4173134848 ; 1343941.6286422894 ; 0.0
45 ; 19739.482865801983 ; 53646.55433433869 ; 571969.3165052328 ; 1396300.090156035 ; 0.0
46 ; 20289.36504088768 ; 54939.324155823655 ; 591708.7993710348 ; 1449946.6444903738 ; 0.0
47 ; 20343.041614524856 ; 56236.35338571833 ; 611998.1644119226 ; 1504885.9686461973 ; 0.0
48 ; 20561.50828606373 ; 57537.25854589774 ; 632341.2060264475 ; 1561122.3220319157 ; 0.0
49 ; 20823.050755732555 ; 58841.68678604468 ; 652902.7143125111 ; 1618659.5805778133 ; 0.0
50 ; 20886.862016712028 ; 60149.31279662522 ; 673725.7650682437 ; 1677501.267363858 ; 0.0
51 ; 21249.520750792362 ; 61459.83607201022 ; 694612.6270849558 ; 1737650.5801604833 ; 0.0
52 ; 21441.80908885797 ; 62772.97848069168 ; 715862.1478357482 ; 1799110.4162324935 ; 0.0
53 ; 21474.078333717687 ; 64088.482105076684 ; 737303.9569246061 ; 1861883.3947131853 ; 0.0
54 ; 21784.73261445974 ; 65406.10731816437 ; 758778.0352583238 ; 1925971.876818262 ; 0.0
55 ; 21765.24424723722 ; 66725.63106861508 ; 780562.7678727835 ; 1991377.9841364264 ; 0.0
56 ; 22092.586395029775 ; 68046.84534936707 ; 802328.0121200207 ; 2058103.6152050414 ; 0.0
57 ; 22162.567190817117 ; 69369.555828124 ; 824420.5985150505 ; 2126150.4605544084 ; 0.0
58 ; 22228.169907834377 ; 70693.58062078797 ; 846583.1657058676 ; 2195520.016382532 ; 0.0
59 ; 22531.56542179528 ; 72018.74919129456 ; 868811.335613702 ; 2266213.59700332 ; 0.0
60 ; 22624.902060705124 ; 73344.90136337762 ; 891342.9010354972 ; 2338232.3461946147 ; 0.0
61 ; 22614.419719198813 ; 74671.88643158787 ; 913967.8030962023 ; 2411577.247557992 ; 0.0
62 ; 22949.303373646206 ; 75999.56236044863 ; 936582.2228154012 ; 2486249.13398958 ; 0.0
63 ; 22950.696076926335 ; 77327.79506198873 ; 959531.5261890474 ; 2562248.6963500287 ; 0.0
64 ; 23175.407570040166 ; 78656.45774307245 ; 982482.2222659737 ; 2639576.4914120175 ; 0.0
65 ; 23196.74055934472 ; 79985.43031497412 ; 1005657.6298360139 ; 2718232.94915509 ; 0.0
66 ; 23277.151482913843 ; 81314.59885853839 ; 1028854.3703953587 ; 2798218.379470064 ; 0.0
67 ; 23373.947838567063 ; 82643.85513905094 ; 1052131.5218782725 ; 2879532.9783286024 ; 0.0
68 ; 23593.30759153877 ; 83973.09616562606 ; 1075505.4697168395 ; 2962176.8334676535 ; 0.0
69 ; 23638.377173620225 ; 85302.22379051389 ; 1099098.7773083784 ; 3046149.9296332793 ; 0.0
70 ; 23714.137745002605 ; 86631.14434425457 ; 1122737.1544819986 ; 3131452.153423793 ; 0.0
71 ; 23743.0792030366 ; 87959.76830306399 ; 1146451.2922270012 ; 3218083.2977680475 ; 0.0
72 ; 23731.586615473992 ; 89288.0099852379 ; 1170194.3714300378 ; 3306043.0660711117 ; 0.0
73 ; 23826.592257217228 ; 90615.78727371797 ; 1193925.9580455117 ; 3395331.0760563496 ; 0.0
74 ; 24036.46510560781 ; 91943.02136227058 ; 1217752.550302729 ; 3485946.8633300676 ; 0.0
75 ; 23888.80789380964 ; 93269.63652300781 ; 1241789.0154083369 ; 3577889.8846923383 ; 0.0
76 ; 23930.964510403042 ; 94595.55989322007 ; 1265677.8233021465 ; 3671159.521215346 ; 0.0
77 ; 23818.181289920263 ; 95920.72127970432 ; 1289608.7878125496 ; 3765755.0811085664 ; 0.0
78 ; 24038.1358862464 ; 97245.05297896324 ; 1313426.96910247 ; 3861675.802388271 ; 0.0
79 ; 23918.58906301 ; 98568.48961181531 ; 1337465.1049887163 ; 3958920.855367234 ; 0.0
80 ; 24184.29343679379 ; 99890.96797110802 ; 1361383.6940517263 ; 4057489.344979049 ; 0.0
81 ; 24037.43567439979 ; 101212.42688135654 ; 1385567.98748852 ; 4157380.312950157 ; 0.0
82 ; 24140.422195509673 ; 102532.80706924912 ; 1409605.42316292 ; 4258592.739831514 ; 0.0
83 ; 24146.795094041754 ; 103852.05104406469 ; 1433745.8453584297 ; 4361125.546900763 ; 0.0
84 ; 23903.15146848597 ; 105170.10298714146 ; 1457892.6404524716 ; 4464977.597944828 ; 0.0
85 ; 24195.332987048954 ; 106486.90864961942 ; 1481795.7919209576 ; 4570147.700931969 ; 0.0
86 ; 24081.72769929245 ; 107802.41525775351 ; 1505991.1249080065 ; 4676634.609581589 ; 0.0
87 ; 24051.135012731887 ; 109116.57142516087 ; 1530072.8526072989 ; 4784437.024839343 ; 0.0
88 ; 24169.272889386284 ; 110429.32707142594 ; 1554123.9876200308 ; 4893553.596264504 ; 0.0
89 ; 23844.257717719058 ; 111740.63334654056 ; 1578293.2605094172 ; 5003982.923335929 ; 0.0
90 ; 23860.176899658094 ; 113050.4425607034 ; 1602137.5182271362 ; 5115723.55668247 ; 0.0
91 ; 23860.583603201605 ; 114358.70811904772 ; 1625997.6951267943 ; 5228773.999243174 ; 0.0
92 ; 23821.68081072521 ; 115665.3844609045 ; 1649858.278729996 ; 5343132.707362222 ; 0.0
93 ; 23690.06592723659 ; 116970.4270032431 ; 1673679.9595407213 ; 5458798.091823126 ; 0.0
94 ; 23635.409165892466 ; 118273.79208796323 ; 1697370.0254679578 ; 5575768.518826369 ; 0.0
95 ; 23784.957507813 ; 119575.43693274073 ; 1721005.4346338504 ; 5694042.310914332 ; 0.0
96 ; 23537.43757492134 ; 120875.31958515552 ; 1744790.3921416635 ; 5813617.747847073 ; 0.0
97 ; 23592.231621096646 ; 122173.3988798525 ; 1768327.8297165849 ; 5934493.0674322285 ; 0.0
98 ; 23404.55729528472 ; 123469.63439850864 ; 1791920.0613376815 ; 6056666.466312081 ; 0.0
99 ; 23310.371761617447 ; 124763.98643239755 ; 1815324.6186329662 ; 6180136.100710589 ; 0.0
100 ; 23099.886908952612 ; 126056.41594736058 ; 1838634.9903945837 ; 6304900.087142987 ; 0.0
101 ; 23062.704107200472 ; 127346.88455100966 ; 1861734.8773035363 ; 6430956.503090348 ; 0.0
102 ; 23037.11864212255 ; 128635.35446200005 ; 1884797.5814107368 ; 6558303.387641358 ; 0.0
103 ; 22880.408702205335 ; 129921.78848122623 ; 1907834.7000528593 ; 6686938.742103358 ; 0.0
104 ; 22718.65271764537 ; 131206.14996480392 ; 1930715.1087550647 ; 6816860.530584584 ; 0.0
105 ; 22394.198770929885 ; 132488.40279871385 ; 1953433.76147271 ; 6948066.680549388 ; 0.0
106 ; 22419.38907675843 ; 133768.5113749912 ; 1975827.9602436398 ; 7080555.083348102 ; 0.0
107 ; 22161.667305178664 ; 135046.44056935515 ; 1998247.3493203982 ; 7214323.594723093 ; 0.0
108 ; 22074.479828717485 ; 136322.15572017926 ; 2020409.016625577 ; 7349370.0352924485 ; 0.0
109 ; 21842.348298936395 ; 137595.62260871357 ; 2042483.4964542943 ; 7485692.191012627 ; 0.0
110 ; 21873.179425388476 ; 138866.8074404731 ; 2064325.8447532307 ; 7623287.813621341 ; 0.0
111 ; 21470.733378774083 ; 140135.67682771655 ; 2086199.0241786193 ; 7762154.621061814 ; 0.0
112 ; 21367.62040092054 ; 141402.19777294324 ; 2107669.7575573935 ; 7902290.297889531 ; 0.0
113 ; 21285.206666034173 ; 142666.3376533411 ; 2129037.377958314 ; 8043692.495662474 ; 0.0
114 ; 21101.267386656145 ; 143928.06420612542 ; 2150322.584624348 ; 8186358.833315815 ; 0.0
115 ; 20815.114499126674 ; 145187.34551471082 ; 2171423.8520110045 ; 8330286.89752194 ; 0.0
116 ; 20618.618501442277 ; 146444.1499956631 ; 2192238.966510131 ; 8475474.24303665 ; 0.0
117 ; 20596.496049467296 ; 147698.44638638265 ; 2212857.5850115735 ; 8621918.393032312 ; 0.0
118 ; 20301.127873866164 ; 148950.2037334732 ; 2233454.081061041 ; 8769616.839418694 ; 0.0
119 ; 20114.3506662704 ; 150199.39138175355 ; 2253755.2089349073 ; 8918567.043152168 ; 0.0
120 ; 19820.13504698727 ; 151445.97896387294 ; 2273869.559601178 ; 9068766.434533922 ; 0.0
121 ; 19582.310835095 ; 152689.93639049318 ; 2293689.6946481653 ; 9220212.413497794 ; 0.0
122 ; 19262.927826170842 ; 153931.2338410035 ; 2313272.0054832604 ; 9372902.349888287 ; 0.0
123 ; 18997.144177175578 ; 155169.8417547358 ; 2332534.933309431 ; 9526833.583729291 ; 0.0
124 ; 18863.22606965176 ; 156405.7308226509 ; 2351532.077486607 ; 9682003.425484028 ; 0.0
125 ; 18660.236323559555 ; 157638.87197946807 ; 2370395.3035562583 ; 9838409.156306678 ; 0.0
126 ; 18465.99420752567 ; 158869.23639621137 ; 2389055.539879818 ; 9996048.028286146 ; 0.0
127 ; 18058.992361507837 ; 160096.79547314934 ; 2407521.5340873436 ; 1.0154917264682358E7 ; 0.0
128 ; 17776.95916580504 ; 161321.5208331048 ; 2425580.5264488515 ; 1.0315014060155507E7 ; 0.0
129 ; 17566.74903918098 ; 162543.38431511392 ; 2443357.4856146565 ; 1.0476335580988612E7 ; 0.0
130 ; 17291.482009298725 ; 163762.3579684144 ; 2460924.2346538375 ; 1.0638878965303726E7 ; 0.0
131 ; 16915.44790107164 ; 164978.414046745 ; 2478215.716663136 ; 1.080264132327214E7 ; 0.0
132 ; 16717.2454258868 ; 166191.52500293773 ; 2495131.1645642077 ; 1.0967619737318886E7 ; 0.0
133 ; 16371.225177547278 ; 167401.66348378788 ; 2511848.4099900946 ; 1.1133811262321824E7 ; 0.0
134 ; 16067.654859023414 ; 168608.80232518553 ; 2528219.635167642 ; 1.1301212925805612E7 ; 0.0
135 ; 15831.512041921274 ; 169812.9145474948 ; 2544287.2900266657 ; 1.1469821728130797E7 ; 0.0
136 ; 15518.269614107081 ; 171013.9733511672 ; 2560118.802068587 ; 1.1639634642678292E7 ; 0.0
137 ; 15307.837539016387 ; 172211.9521125763 ; 2575637.071682694 ; 1.181064861602946E7 ; 0.0
138 ; 14916.781245145927 ; 173406.8243800625 ; 2590944.90922171 ; 1.1982860568142036E7 ; 0.0
139 ; 14534.031169643154 ; 174598.56387017583 ; 2605861.690466856 ; 1.2156267392522098E7 ; 0.0
140 ; 14186.432498665425 ; 175787.14446410706 ; 2620395.7216364993 ; 1.2330865956392275E7 ; 0.0
141 ; 13704.493293623997 ; 176972.54020429688 ; 2634582.154135165 ; 1.2506653100856382E7 ; 0.0
142 ; 13417.646532451752 ; 178154.72529121395 ; 2648286.6474287887 ; 1.268362564106068E7 ; 0.0
143 ; 13028.15069570893 ; 179333.67408029325 ; 2661704.2939612404 ; 1.2861780366351895E7 ; 0.0
144 ; 12830.371196238291 ; 180509.36107902628 ; 2674732.4446569495 ; 1.3041114040432189E7 ; 0.0
145 ; 12536.401890776135 ; 181681.76094419532 ; 2687562.815853188 ; 1.3221623401511215E7 ; 0.0
146 ; 12462.502386086768 ; 182850.84847924474 ; 2700099.217743964 ; 1.340330516245541E7 ; 0.0
147 ; 12292.519105288799 ; 184016.5986317821 ; 2712561.7201300506 ; 1.3586156010934655E7 ; 0.0
148 ; 12201.069222657135 ; 185178.9864912029 ; 2724854.239235339 ; 1.3770172609566437E7 ; 0.0
149 ; 12182.63901489026 ; 186337.98728643253 ; 2737055.308457996 ; 1.395535159605764E7 ; 0.0
150 ; 11961.61995488303 ; 187493.57638377958 ; 2749237.9474728866 ; 1.4141689583344072E7 ; 0.0
151 ; 11990.013130906664 ; 188645.72928489553 ; 2761199.56742777 ; 1.432918315972785E7 ; 0.0
152 ; 11854.079649249035 ; 189794.42162483503 ; 2773189.5805586763 ; 1.4517828889012747E7 ; 0.0
153 ; 11753.413408304497 ; 190939.6291702121 ; 2785043.6602079254 ; 1.4707623310637582E7 ; 0.0
154 ; 11608.185450563775 ; 192081.32781744777 ; 2796797.07361623 ; 1.4898562939807795E7 ; 0.0
155 ; 11426.929575014801 ; 193219.49359110472 ; 2808405.2590667936 ; 1.5090644267625242E7 ; 0.0
156 ; 11279.352101852557 ; 194354.1026423045 ; 2819832.1886418085 ; 1.5283863761216348E7 ; 0.0
157 ; 11138.671696253616 ; 195485.1312472236 ; 2831111.540743661 ; 1.5478217863858653E7 ; 0.0
158 ; 10994.89227094568 ; 196612.5558056649 ; 2842250.2124399147 ; 1.5673702995105878E7 ; 0.0
159 ; 11143.748339714217 ; 197736.35283970047 ; 2853245.10471086 ; 1.5870315550911542E7 ; 0.0
160 ; 10795.070690298628 ; 198856.4989923828 ; 2864388.853050574 ; 1.6068051903751243E7 ; 0.0
161 ; 10815.774155138259 ; 199972.97102652089 ; 2875183.9237408726 ; 1.6266908402743626E7 ; 0.0
162 ; 10604.099623284284 ; 201085.74582351864 ; 2885999.6978960107 ; 1.6466881373770148E7 ; 0.0
163 ; 10478.034196709817 ; 202194.8003822723 ; 2896603.797519295 ; 1.6667967119593667E7 ; 0.0
164 ; 10257.068656873773 ; 203300.11181812463 ; 2907081.8317160048 ; 1.687016191997594E7 ; 0.0
165 ; 10103.416216043304 ; 204401.65736187258 ; 2917338.9003728786 ; 1.7073462031794064E7 ; 0.0
166 ; 9997.021825156431 ; 205499.41435882731 ; 2927442.316588922 ; 1.7277863689155936E7 ; 0.0
167 ; 9884.453734475557 ; 206593.36026792205 ; 2937439.3384140786 ; 1.7483363103514764E7 ; 0.0
168 ; 9771.251532964365 ; 207683.47266086846 ; 2947323.792148554 ; 1.7689956463782687E7 ; 0.0
169 ; 9729.024561425706 ; 208769.72922135648 ; 2957095.0436815186 ; 1.7897639936443556E7 ; 0.0
170 ; 9541.950215379657 ; 209852.10774429794 ; 2966824.0682429443 ; 1.810640966566491E7 ; 0.0
171 ; 9282.686255930803 ; 210930.58613511082 ; 2976366.018458324 ; 1.831626177340921E7 ; 0.0
172 ; 9182.347890011983 ; 212005.14240904275 ; 2985648.704714255 ; 1.8527192359544322E7 ; 0.0
173 ; 9133.921301383141 ; 213075.75469053152 ; 2994831.052604267 ; 1.8739197501953363E7 ; 0.0
174 ; 9144.887566933587 ; 214142.40121260236 ; 3003964.97390565 ; 1.8952273256643895E7 ; 0.0
175 ; 9215.343316083105 ; 215205.0603162983 ; 3013109.8614725834 ; 1.9166415657856498E7 ; 0.0
176 ; 9232.33883595869 ; 216263.71045014422 ; 3022325.2047886667 ; 1.9381620718172796E7 ; 0.0
177 ; 9131.523487676965 ; 217318.33016964138 ; 3031557.5436246255 ; 1.959788442862294E7 ; 0.0
178 ; 9289.623226458858 ; 218368.89813679297 ; 3040689.0671123024 ; 1.981520275879258E7 ; 0.0
179 ; 9211.3604427783 ; 219415.39311965724 ; 3049978.690338761 ; 2.0033571656929374E7 ; 0.0
180 ; 9357.021523061268 ; 220457.79399192886 ; 3059190.050781539 ; 2.025298705004903E7 ; 0.0
181 ; 9287.228548094146 ; 221496.07973254626 ; 3068547.0723046004 ; 2.0473444844040956E7 ; 0.0
182 ; 9285.162897858587 ; 222530.22942532419 ; 3077834.3008526945 ; 2.06949409237735E7 ; 0.0
183 ; 9341.622728523169 ; 223560.2222586104 ; 3087119.4637505533 ; 2.0917471153198827E7 ; 0.0
184 ; 9241.074593887997 ; 224586.0375249651 ; 3096461.0864790766 ; 2.1141031375457436E7 ; 0.0
185 ; 9411.968668258865 ; 225607.6546208631 ; 3105702.161072965 ; 2.13656174129824E7 ; 0.0
186 ; 9434.37277587941 ; 226625.05304641664 ; 3115114.1297412235 ; 2.1591225067603264E7 ; 0.0
187 ; 9523.208256230406 ; 227638.21240511842 ; 3124548.5025171028 ; 2.181785012064968E7 ; 0.0
188 ; 9586.645862334577 ; 228647.11240360464 ; 3134071.710773333 ; 2.20454883330548E7 ; 0.0
189 ; 9605.836703344912 ; 229651.73285143595 ; 3143658.3566356674 ; 2.2274135445458405E7 ; 0.0
190 ; 9709.932425784356 ; 230652.05366089646 ; 3153264.193339012 ; 2.250378717830984E7 ; 0.0
191 ; 9627.610686284506 ; 231648.05484681032 ; 3162974.1257647965 ; 2.2734439231970735E7 ; 0.0
192 ; 9551.047452796329 ; 232639.71652637376 ; 3172601.736451081 ; 2.2966087286817547E7 ; 0.0
193 ; 9559.932345988715 ; 233627.0189190033 ; 3182152.7839038773 ; 2.319872700334392E7 ; 0.0
194 ; 9741.44629065996 ; 234609.94234619936 ; 3191712.716249866 ; 2.3432354022262923E7 ; 0.0
195 ; 9692.133326436033 ; 235588.46723142345 ; 3201454.162540526 ; 2.3666963964609124E7 ; 0.0
196 ; 9801.31632925192 ; 236562.57409998967 ; 3211146.295866962 ; 2.3902552431840546E7 ; 0.0
197 ; 9655.28277256354 ; 237532.24357896947 ; 3220947.612196214 ; 2.4139115005940538E7 ; 0.0
198 ; 9844.73430383986 ; 238497.4563971086 ; 3230602.8949687774 ; 2.437664724951951E7 ; 0.0
199 ; 9898.664911789998 ; 239458.19338475695 ; 3240447.6292726174 ; 2.4615144705916617E7 ; 0.0
200 ; 9936.99078651089 ; 240414.4354738093 ; 3250346.294184407 ; 2.4854602899301372E7 ; 0.0
201 ; 9866.500306743712 ; 241366.16369765758 ; 3260283.284970918 ; 2.5095017334775183E7 ; 0.0
202 ; 9926.388674549833 ; 242313.35919115372 ; 3270149.785277662 ; 2.533638349847284E7 ; 0.0
203 ; 10116.142548309757 ; 243256.0031905829 ; 3280076.1739522116 ; 2.5578696857663993E7 ; 0.0
204 ; 9828.658402450319 ; 244194.0770336462 ; 3290192.3165005213 ; 2.5821952860854577E7 ; 0.0
205 ; 9897.20739469365 ; 245127.56215945308 ; 3300020.9749029716 ; 2.6066146937888224E7 ; 0.0
206 ; 10141.733187378673 ; 246056.4401085226 ; 3309918.182297665 ; 2.6311274500047676E7 ; 0.0
207 ; 10047.916516719262 ; 246980.6925227933 ; 3320059.915485044 ; 2.65573309401562E7 ; 0.0
208 ; 10017.41528414974 ; 247900.30114564137 ; 3330107.8320017634 ; 2.6804311632678993E7 ; 0.0
209 ; 10104.715754713468 ; 248815.24782190647 ; 3340125.247285913 ; 2.7052211933824636E7 ; 0.0
210 ; 10249.100655609525 ; 249725.5144979257 ; 3350229.9630406266 ; 2.730102718164654E7 ; 0.0
211 ; 10263.67030434943 ; 250631.08322157417 ; 3360479.0636962363 ; 2.7550752696144465E7 ; 0.0
212 ; 10186.83608754461 ; 251531.93614231265 ; 3370742.734000586 ; 2.780138377936604E7 ; 0.0
213 ; 10194.311355365953 ; 252428.05551124207 ; 3380929.5700881304 ; 2.8052915715508353E7 ; 0.0
