CSV File for the City 1 on Day 157
1 - Minute m 
2 - Power Consumed at minute m 
3 - Power Produced at minute m 
4 - Energy Consumed since the beginning of the day 
5 - Energy Produced since the beginning of the day 
6 - Energy Lost since the beginning of the day on lines starting from the city
 
0 ; 8198.79527544208 ; 3679.3870430214592 ; 0.0 ; 0.0 ; 0.0
1 ; 8322.219469048043 ; 3679.3870430214592 ; 8198.79527544208 ; 3679.3870430214592 ; 238.00000000000003
2 ; 9090.914565445877 ; 3679.3870430214592 ; 16521.014744490123 ; 7358.7740860429185 ; 476.00000000000006
3 ; 9546.100903195094 ; 3679.3870430214592 ; 25611.929309936 ; 11038.161129064378 ; 714.0000000000001
4 ; 9803.418689210583 ; 3679.3870430214592 ; 35158.0302131311 ; 14717.548172085837 ; 952.0000000000001
5 ; 10263.082458768276 ; 3679.3870430214592 ; 44961.44890234168 ; 18396.935215107296 ; 1190.0000000000002
6 ; 10557.999264072629 ; 3679.3870430214592 ; 55224.531361109955 ; 22076.322258128755 ; 1428.0000000000002
7 ; 11142.858701963753 ; 3679.3870430214592 ; 65782.53062518258 ; 25755.709301150215 ; 1666.0000000000002
8 ; 11643.837336580971 ; 3679.3870430214592 ; 76925.38932714633 ; 29435.096344171674 ; 1904.0000000000002
9 ; 12028.958084279777 ; 3679.3870430214592 ; 88569.2266637273 ; 33114.48338719313 ; 2142.0000000000005
10 ; 12612.963833030284 ; 3679.3870430214592 ; 100598.18474800707 ; 36793.87043021459 ; 2380.0000000000005
11 ; 12925.48882470724 ; 3679.3870430214592 ; 113211.14858103736 ; 40473.25747323605 ; 2618.0000000000005
12 ; 13393.335591547087 ; 3679.3870430214592 ; 126136.6374057446 ; 44152.64451625751 ; 2856.0000000000005
13 ; 13789.208217822721 ; 3679.3870430214592 ; 139529.97299729168 ; 47832.03155927897 ; 3094.0000000000005
14 ; 14275.163641669955 ; 3679.3870430214592 ; 153319.1812151144 ; 51511.41860230043 ; 3332.0000000000005
15 ; 14523.286031720187 ; 3679.3870430214592 ; 167594.34485678436 ; 55190.80564532189 ; 3570.0000000000005
16 ; 15044.91491083962 ; 3679.3870430214592 ; 182117.63088850456 ; 58870.19268834335 ; 3808.0000000000005
17 ; 15569.273813846316 ; 3679.3870430214592 ; 197162.54579934417 ; 62549.57973136481 ; 4046.0000000000005
18 ; 15756.273698135934 ; 3679.3870430214592 ; 212731.81961319048 ; 66228.96677438627 ; 4284.000000000001
19 ; 16244.119641622885 ; 3679.3870430214592 ; 228488.0933113264 ; 69908.35381740773 ; 4522.000000000001
20 ; 16634.919921377477 ; 3679.3870430214592 ; 244732.21295294928 ; 73587.74086042918 ; 4760.000000000001
21 ; 17131.25681648474 ; 3679.3870430214592 ; 261367.13287432675 ; 77267.12790345064 ; 4998.000000000001
22 ; 17296.55210024048 ; 3679.3870430214592 ; 278498.3896908115 ; 80946.5149464721 ; 5236.000000000001
23 ; 17710.939021791728 ; 3679.3870430214592 ; 295794.941791052 ; 84625.90198949356 ; 5474.000000000001
24 ; 17983.014094770137 ; 3679.3870430214592 ; 313505.88081284374 ; 88305.28903251502 ; 5712.000000000001
25 ; 18371.965787708792 ; 3679.3870430214592 ; 331488.89490761387 ; 91984.67607553648 ; 5950.000000000001
26 ; 18641.108235778902 ; 3679.3870430214592 ; 349860.8606953227 ; 95664.06311855794 ; 6188.000000000001
27 ; 19350.06108669092 ; 3679.3870430214592 ; 368501.9689311016 ; 99343.4501615794 ; 6426.000000000001
28 ; 19381.4424699478 ; 3679.3870430214592 ; 387852.03001779254 ; 103022.83720460086 ; 6664.000000000001
29 ; 19645.683718972203 ; 3679.3870430214592 ; 407233.47248774034 ; 106702.22424762232 ; 6902.000000000001
30 ; 19989.40877468414 ; 3679.3870430214592 ; 426879.15620671253 ; 110381.61129064378 ; 7140.000000000001
31 ; 20434.75782219215 ; 3679.3870430214592 ; 446868.56498139666 ; 114060.99833366524 ; 7378.000000000001
32 ; 20680.292127325083 ; 3679.3870430214592 ; 467303.3228035888 ; 117740.3853766867 ; 7616.000000000001
33 ; 21007.453546143253 ; 3679.3870430214592 ; 487983.6149309139 ; 121419.77241970816 ; 7854.000000000001
34 ; 21189.944919192963 ; 3679.3870430214592 ; 508991.06847705715 ; 125099.15946272961 ; 8092.000000000001
35 ; 21465.583664850066 ; 3679.3870430214592 ; 530181.0133962501 ; 128778.54650575107 ; 8330.000000000002
36 ; 21832.04218929166 ; 3679.3870430214592 ; 551646.5970611002 ; 132457.93354877253 ; 8568.000000000002
37 ; 22071.320878338527 ; 3679.3870430214592 ; 573478.6392503919 ; 136137.32059179398 ; 8806.000000000002
38 ; 22300.44173732032 ; 3679.3870430214592 ; 595549.9601287304 ; 139816.70763481542 ; 9044.000000000002
39 ; 22378.53838318798 ; 3679.3870430214592 ; 617850.4018660507 ; 143496.09467783687 ; 9282.000000000002
40 ; 22919.208834316356 ; 3679.3870430214592 ; 640228.9402492386 ; 147175.4817208583 ; 9520.000000000002
41 ; 23188.33510565322 ; 3679.3870430214592 ; 663148.149083555 ; 150854.86876387976 ; 9758.000000000002
42 ; 23190.101924980034 ; 3679.3870430214592 ; 686336.4841892082 ; 154534.2558069012 ; 9996.000000000002
43 ; 23620.29220182516 ; 3679.3870430214592 ; 709526.5861141883 ; 158213.64284992265 ; 10234.000000000002
44 ; 23901.075062866912 ; 3679.3870430214592 ; 733146.8783160135 ; 161893.0298929441 ; 10472.000000000002
45 ; 24009.965822185608 ; 3679.3870430214592 ; 757047.9533788804 ; 165572.41693596554 ; 10710.000000000002
46 ; 24163.01009036633 ; 3679.3870430214592 ; 781057.919201066 ; 169251.80397898698 ; 10948.000000000002
47 ; 24346.828284244057 ; 3679.3870430214592 ; 805220.9292914324 ; 172931.19102200842 ; 11186.000000000002
48 ; 24616.77115576603 ; 3679.3870430214592 ; 829567.7575756764 ; 176610.57806502987 ; 11424.000000000002
49 ; 24818.383941655953 ; 3679.3870430214592 ; 854184.5287314424 ; 180289.9651080513 ; 11662.000000000002
50 ; 25085.29518419202 ; 3679.3870430214592 ; 879002.9126730984 ; 183969.35215107276 ; 11900.000000000002
51 ; 25168.094780929183 ; 3679.3870430214592 ; 904088.2078572904 ; 187648.7391940942 ; 12138.000000000002
52 ; 25401.94077766154 ; 3679.3870430214592 ; 929256.3026382196 ; 191328.12623711565 ; 12376.000000000002
53 ; 25598.822349198097 ; 3679.3870430214592 ; 954658.2434158811 ; 195007.5132801371 ; 12614.000000000002
54 ; 25683.737515927496 ; 3679.3870430214592 ; 980257.0657650791 ; 198686.90032315854 ; 12852.000000000002
55 ; 25926.358791629307 ; 3679.3870430214592 ; 1005940.8032810066 ; 202366.28736617998 ; 13090.000000000002
56 ; 26296.823369149937 ; 3679.3870430214592 ; 1031867.162072636 ; 206045.67440920143 ; 13328.000000000002
57 ; 26280.359593036846 ; 3679.3870430214592 ; 1058163.985441786 ; 209725.06145222287 ; 13566.000000000002
58 ; 26483.660905367953 ; 3679.3870430214592 ; 1084444.3450348228 ; 213404.44849524432 ; 13804.000000000002
59 ; 26473.02781144437 ; 3679.3870430214592 ; 1110928.0059401907 ; 217083.83553826576 ; 14042.000000000002
60 ; 26659.68858892326 ; 3679.3870430214592 ; 1137401.033751635 ; 220763.2225812872 ; 14280.000000000002
61 ; 26579.707125000325 ; 3679.3870430214592 ; 1164060.7223405584 ; 224442.60962430865 ; 14518.000000000002
62 ; 26994.417965703164 ; 3679.3870430214592 ; 1190640.4294655588 ; 228121.9966673301 ; 14756.000000000002
63 ; 26921.886416904006 ; 3679.3870430214592 ; 1217634.847431262 ; 231801.38371035154 ; 14994.000000000002
64 ; 26981.328634868227 ; 3679.3870430214592 ; 1244556.733848166 ; 235480.77075337298 ; 15232.000000000002
65 ; 27201.81784324356 ; 3679.3870430214592 ; 1271538.062483034 ; 239160.15779639443 ; 15470.000000000002
66 ; 27297.361626280024 ; 3679.3870430214592 ; 1298739.8803262776 ; 242839.54483941587 ; 15708.000000000002
67 ; 27323.11569066651 ; 3679.3870430214592 ; 1326037.2419525576 ; 246518.93188243732 ; 15946.000000000002
68 ; 27514.6592573667 ; 3679.3870430214592 ; 1353360.357643224 ; 250198.31892545876 ; 16184.000000000002
69 ; 27522.493578341513 ; 3679.3870430214592 ; 1380875.0169005909 ; 253877.7059684802 ; 16422.000000000004
70 ; 27726.160051946423 ; 3679.3870430214592 ; 1408397.5104789324 ; 257557.09301150165 ; 16660.000000000004
71 ; 27710.669336407802 ; 3679.3870430214592 ; 1436123.670530879 ; 261236.4800545231 ; 16898.000000000004
72 ; 27678.616713033458 ; 3679.3870430214592 ; 1463834.3398672868 ; 264915.86709754454 ; 17136.000000000004
73 ; 27819.922686656566 ; 3679.3870430214592 ; 1491512.9565803204 ; 268595.254140566 ; 17374.000000000004
74 ; 27732.370571531592 ; 3679.3870430214592 ; 1519332.8792669768 ; 272274.64118358743 ; 17612.000000000004
75 ; 27862.630644999314 ; 3679.3870430214592 ; 1547065.2498385084 ; 275954.0282266089 ; 17850.000000000004
76 ; 27968.767602664262 ; 3679.3870430214592 ; 1574927.8804835076 ; 279633.4152696303 ; 18088.000000000004
77 ; 27877.67595110793 ; 3679.3870430214592 ; 1602896.6480861718 ; 283312.80231265177 ; 18326.000000000004
78 ; 27973.33945481515 ; 3679.3870430214592 ; 1630774.3240372797 ; 286992.1893556732 ; 18564.000000000004
79 ; 28055.56862209954 ; 3679.3870430214592 ; 1658747.663492095 ; 290671.57639869465 ; 18802.000000000004
80 ; 28124.37227717724 ; 3679.3870430214592 ; 1686803.2321141944 ; 294350.9634417161 ; 19040.000000000004
81 ; 27956.629884915426 ; 3679.3870430214592 ; 1714927.6043913716 ; 298030.35048473754 ; 19278.000000000004
82 ; 27941.240487660376 ; 3679.3870430214592 ; 1742884.234276287 ; 301709.737527759 ; 19516.000000000004
83 ; 28146.649038853364 ; 3679.3870430214592 ; 1770825.4747639473 ; 305389.12457078043 ; 19754.000000000004
84 ; 28120.560049119114 ; 3679.3870430214592 ; 1798972.1238028007 ; 309068.5116138019 ; 19992.000000000004
85 ; 28178.071115890623 ; 3679.3870430214592 ; 1827092.6838519198 ; 312747.8986568233 ; 20230.000000000004
86 ; 27951.404178950386 ; 3679.3870430214592 ; 1855270.7549678104 ; 316427.28569984477 ; 20468.000000000004
87 ; 27800.337825162664 ; 3679.3870430214592 ; 1883222.1591467608 ; 320106.6727428662 ; 20706.000000000004
88 ; 27840.285299491014 ; 3679.3870430214592 ; 1911022.4969719234 ; 323786.05978588766 ; 20944.000000000004
89 ; 27883.863732277925 ; 3679.3870430214592 ; 1938862.7822714143 ; 327465.4468289091 ; 21182.000000000004
90 ; 27510.022505362558 ; 3679.3870430214592 ; 1966746.6460036922 ; 331144.83387193055 ; 21420.000000000004
91 ; 27977.959311496328 ; 3679.3870430214592 ; 1994256.6685090547 ; 334824.220914952 ; 21658.000000000004
92 ; 27807.838539220775 ; 3679.3870430214592 ; 2022234.627820551 ; 338503.60795797344 ; 21896.000000000004
93 ; 27544.95499539048 ; 3679.3870430214592 ; 2050042.4663597718 ; 342182.9950009949 ; 22134.000000000004
94 ; 27528.840765762285 ; 3679.3870430214592 ; 2077587.4213551623 ; 345862.3820440163 ; 22372.000000000004
95 ; 27296.640505113424 ; 3679.3870430214592 ; 2105116.2621209244 ; 349541.76908703777 ; 22610.000000000004
96 ; 27327.59275386334 ; 3679.3870430214592 ; 2132412.902626038 ; 353221.1561300592 ; 22848.000000000004
97 ; 27264.43596187947 ; 3679.3870430214592 ; 2159740.4953799015 ; 356900.54317308066 ; 23086.000000000004
98 ; 27335.205398038932 ; 3679.3870430214592 ; 2187004.931341781 ; 360579.9302161021 ; 23324.000000000004
99 ; 27162.443645493793 ; 3679.3870430214592 ; 2214340.13673982 ; 364259.31725912355 ; 23562.000000000004
100 ; 26970.075770693777 ; 3679.3870430214592 ; 2241502.5803853134 ; 367938.704302145 ; 23800.000000000004
101 ; 27078.09551415395 ; 3679.3870430214592 ; 2268472.656156007 ; 371618.09134516644 ; 24038.000000000004
102 ; 26666.33569244752 ; 3679.3870430214592 ; 2295550.7516701613 ; 375297.4783881879 ; 24276.000000000004
103 ; 26609.419971205734 ; 3679.3870430214592 ; 2322217.087362609 ; 378976.8654312093 ; 24514.000000000004
104 ; 26496.77805468686 ; 3679.3870430214592 ; 2348826.5073338146 ; 382656.2524742308 ; 24752.000000000004
105 ; 26304.798200831803 ; 3679.3870430214592 ; 2375323.2853885014 ; 386335.6395172522 ; 24990.000000000004
106 ; 26098.571609936884 ; 3679.3870430214592 ; 2401628.083589333 ; 390015.02656027366 ; 25228.000000000004
107 ; 26044.68566450196 ; 3679.3870430214592 ; 2427726.6551992698 ; 393694.4136032951 ; 25466.000000000004
108 ; 25904.915618514795 ; 3679.3870430214592 ; 2453771.3408637717 ; 397373.80064631655 ; 25704.000000000004
109 ; 25766.797063322738 ; 3679.3870430214592 ; 2479676.2564822864 ; 401053.187689338 ; 25942.000000000004
110 ; 25701.24015751896 ; 3679.3870430214592 ; 2505443.053545609 ; 404732.57473235944 ; 26180.000000000004
111 ; 25356.799462185445 ; 3679.3870430214592 ; 2531144.293703128 ; 408411.9617753809 ; 26418.000000000004
112 ; 25176.528171012396 ; 3679.3870430214592 ; 2556501.0931653134 ; 412091.34881840233 ; 26656.000000000004
113 ; 25023.016587087084 ; 3679.3870430214592 ; 2581677.6213363255 ; 415770.7358614238 ; 26894.000000000004
114 ; 24775.971555296997 ; 3679.3870430214592 ; 2606700.6379234125 ; 419450.1229044452 ; 27132.000000000004
115 ; 24618.077782654607 ; 3679.3870430214592 ; 2631476.6094787093 ; 423129.50994746666 ; 27370.000000000004
116 ; 24469.049546272574 ; 3679.3870430214592 ; 2656094.687261364 ; 426808.8969904881 ; 27608.000000000004
117 ; 24374.9674641811 ; 3679.3870430214592 ; 2680563.7368076365 ; 430488.28403350955 ; 27846.000000000004
118 ; 24069.5046441502 ; 3679.3870430214592 ; 2704938.7042718176 ; 434167.671076531 ; 28084.000000000004
119 ; 23673.64536215598 ; 3679.3870430214592 ; 2729008.208915968 ; 437847.05811955244 ; 28322.000000000004
120 ; 23587.257215524365 ; 3679.3870430214592 ; 2752681.854278124 ; 441526.4451625739 ; 28560.000000000004
121 ; 23449.78822758252 ; 3679.3870430214592 ; 2776269.1114936485 ; 445205.83220559533 ; 28798.000000000004
122 ; 23101.677255456158 ; 3679.3870430214592 ; 2799718.899721231 ; 448885.2192486168 ; 29036.000000000004
123 ; 23040.561635705708 ; 3679.3870430214592 ; 2822820.576976687 ; 452564.6062916382 ; 29274.000000000004
124 ; 22787.785354437092 ; 3679.3870430214592 ; 2845861.138612393 ; 456243.99333465967 ; 29512.000000000004
125 ; 22452.669020193975 ; 3679.3870430214592 ; 2868648.92396683 ; 459923.3803776811 ; 29750.000000000004
126 ; 22025.503010670305 ; 3679.3870430214592 ; 2891101.592987024 ; 463602.76742070256 ; 29988.000000000004
127 ; 21737.00297333727 ; 3679.3870430214592 ; 2913127.0959976944 ; 467282.154463724 ; 30226.000000000004
128 ; 21319.927642633593 ; 3679.3870430214592 ; 2934864.0989710316 ; 470961.54150674545 ; 30464.000000000004
129 ; 21335.819012413904 ; 3679.3870430214592 ; 2956184.0266136653 ; 474640.9285497669 ; 30702.000000000004
130 ; 20955.225047290438 ; 3679.3870430214592 ; 2977519.845626079 ; 478320.31559278833 ; 30940.000000000004
131 ; 20828.06550722385 ; 3679.3870430214592 ; 2998475.0706733693 ; 481999.7026358098 ; 31178.000000000004
132 ; 20258.25734892507 ; 3679.3870430214592 ; 3019303.136180593 ; 485679.0896788312 ; 31416.000000000004
133 ; 20070.29272135031 ; 3679.3870430214592 ; 3039561.393529518 ; 489358.47672185267 ; 31654.000000000004
134 ; 19834.89467797933 ; 3679.3870430214592 ; 3059631.6862508683 ; 493037.8637648741 ; 31892.000000000004
135 ; 19300.949115744912 ; 3679.3870430214592 ; 3079466.5809288477 ; 496717.25080789556 ; 32130.000000000004
136 ; 19083.80031697525 ; 3679.3870430214592 ; 3098767.5300445925 ; 500396.637850917 ; 32368.000000000004
137 ; 18815.555767350732 ; 3679.3870430214592 ; 3117851.330361568 ; 504076.02489393845 ; 32606.000000000004
138 ; 18524.479886916575 ; 3679.3870430214592 ; 3136666.8861289187 ; 507755.4119369599 ; 32844.00000000001
139 ; 18183.680264748436 ; 3679.3870430214592 ; 3155191.366015835 ; 511434.79897998134 ; 33082.00000000001
140 ; 17904.61052184317 ; 3679.3870430214592 ; 3173375.046280584 ; 515114.1860230028 ; 33320.00000000001
141 ; 17341.05523769179 ; 3679.3870430214592 ; 3191279.656802427 ; 518793.5730660242 ; 33558.00000000001
142 ; 17060.787873877653 ; 3679.3870430214592 ; 3208620.712040119 ; 522472.96010904567 ; 33796.00000000001
143 ; 16529.60437820683 ; 3679.3870430214592 ; 3225681.4999139966 ; 526152.3471520671 ; 34034.00000000001
144 ; 16471.815578765993 ; 3679.3870430214592 ; 3242211.104292203 ; 529831.7341950886 ; 34272.00000000001
145 ; 16300.909916236613 ; 3679.3870430214592 ; 3258682.9198709694 ; 533511.1212381101 ; 34510.00000000001
146 ; 15981.990062478175 ; 3679.3870430214592 ; 3274983.829787206 ; 537190.5082811316 ; 34748.00000000001
147 ; 16035.751064575441 ; 3679.3870430214592 ; 3290965.819849684 ; 540869.8953241531 ; 34986.00000000001
148 ; 16029.135138283442 ; 3679.3870430214592 ; 3307001.570914259 ; 544549.2823671746 ; 35224.00000000001
149 ; 15846.61770718985 ; 3679.3870430214592 ; 3323030.7060525427 ; 548228.6694101961 ; 35462.00000000001
150 ; 15523.30664591636 ; 3679.3870430214592 ; 3338877.3237597323 ; 551908.0564532176 ; 35700.00000000001
151 ; 15580.801775033198 ; 3679.3870430214592 ; 3354400.6304056486 ; 555587.4434962391 ; 35938.00000000001
152 ; 15345.779283198279 ; 3679.3870430214592 ; 3369981.4321806817 ; 559266.8305392606 ; 36176.00000000001
153 ; 15345.518737230106 ; 3679.3870430214592 ; 3385327.21146388 ; 562946.2175822821 ; 36414.00000000001
154 ; 15397.105473859978 ; 3679.3870430214592 ; 3400672.73020111 ; 566625.6046253036 ; 36652.00000000001
155 ; 14831.392654964242 ; 3679.3870430214592 ; 3416069.83567497 ; 570304.9916683252 ; 36890.00000000001
156 ; 14989.301010947709 ; 3679.3870430214592 ; 3430901.228329934 ; 573984.3787113467 ; 37128.00000000001
157 ; 14610.797271840987 ; 3679.3870430214592 ; 3445890.529340882 ; 577663.7657543682 ; 37366.00000000001
158 ; 14737.923805667368 ; 3679.3870430214592 ; 3460501.326612723 ; 581343.1527973897 ; 37604.00000000001
159 ; 14575.756726706883 ; 3679.3870430214592 ; 3475239.2504183906 ; 585022.5398404112 ; 37842.00000000001
160 ; 14375.552949127443 ; 3679.3870430214592 ; 3489815.0071450975 ; 588701.9268834327 ; 38080.00000000001
161 ; 14290.999034720286 ; 3679.3870430214592 ; 3504190.5600942248 ; 592381.3139264542 ; 38318.00000000001
162 ; 14117.034159718407 ; 3679.3870430214592 ; 3518481.559128945 ; 596060.7009694757 ; 38556.00000000001
163 ; 13748.141506858787 ; 3679.3870430214592 ; 3532598.593288664 ; 599740.0880124972 ; 38794.00000000001
164 ; 13691.90457886235 ; 3679.3870430214592 ; 3546346.7347955224 ; 603419.4750555187 ; 39032.00000000001
165 ; 13690.27672036776 ; 3679.3870430214592 ; 3560038.6393743847 ; 607098.8620985402 ; 39270.00000000001
166 ; 13658.55996972239 ; 3679.3870430214592 ; 3573728.9160947525 ; 610778.2491415617 ; 39508.00000000001
167 ; 13368.902094110203 ; 3679.3870430214592 ; 3587387.476064475 ; 614457.6361845832 ; 39746.00000000001
168 ; 13259.062641544986 ; 3679.3870430214592 ; 3600756.378158585 ; 618137.0232276047 ; 39984.00000000001
169 ; 13177.302444305129 ; 3679.3870430214592 ; 3614015.4408001304 ; 621816.4102706262 ; 40222.00000000001
170 ; 12964.267742616988 ; 3679.3870430214592 ; 3627192.7432444356 ; 625495.7973136477 ; 40460.00000000001
171 ; 12682.111740427177 ; 3679.3870430214592 ; 3640157.0109870527 ; 629175.1843566692 ; 40698.00000000001
172 ; 12402.34228557696 ; 3679.3870430214592 ; 3652839.12272748 ; 632854.5713996907 ; 40936.00000000001
173 ; 12400.841714219967 ; 3679.3870430214592 ; 3665241.4650130565 ; 636533.9584427122 ; 41174.00000000001
174 ; 12321.279823506642 ; 3679.3870430214592 ; 3677642.3067272766 ; 640213.3454857337 ; 41412.00000000001
175 ; 12634.89586532931 ; 3679.3870430214592 ; 3689963.5865507834 ; 643892.7325287552 ; 41650.00000000001
176 ; 12628.908670597713 ; 3679.3870430214592 ; 3702598.482416113 ; 647572.1195717767 ; 41888.00000000001
177 ; 12376.976958111616 ; 3679.3870430214592 ; 3715227.3910867106 ; 651251.5066147982 ; 42126.00000000001
178 ; 12719.511089337078 ; 3679.3870430214592 ; 3727604.368044822 ; 654930.8936578197 ; 42364.00000000001
179 ; 12585.213049197258 ; 3679.3870430214592 ; 3740323.879134159 ; 658610.2807008412 ; 42602.00000000001
180 ; 12619.304205242019 ; 3679.3870430214592 ; 3752909.092183356 ; 662289.6677438627 ; 42840.00000000001
181 ; 12762.490483746653 ; 3679.3870430214592 ; 3765528.3963885983 ; 665969.0547868842 ; 43078.00000000001
182 ; 12499.91092105079 ; 3679.3870430214592 ; 3778290.886872345 ; 669648.4418299057 ; 43316.00000000001
183 ; 12455.141502415698 ; 3679.3870430214592 ; 3790790.797793396 ; 673327.8288729272 ; 43554.00000000001
184 ; 12753.65200828662 ; 3679.3870430214592 ; 3803245.9392958116 ; 677007.2159159487 ; 43792.00000000001
