CSV File for the City 3 on Day 237
1 - Minute m 
2 - Power Consumed at minute m 
3 - Power Produced at minute m 
4 - Energy Consumed since the beginning of the day 
5 - Energy Produced since the beginning of the day 
6 - Energy Lost since the beginning of the day on lines starting from the city
 
0 ; 4227.486949562917 ; 23674.165803711807 ; 0.0 ; 0.0 ; 0.0
1 ; 4789.504941486837 ; 22860.011457301647 ; 4227.486949562917 ; 23674.165803711807 ; 0.0
2 ; 5018.93886404994 ; 22105.980478418784 ; 9016.991891049754 ; 46534.17726101345 ; 0.0
3 ; 5643.13386636454 ; 21418.483975498963 ; 14035.930755099695 ; 68640.15773943224 ; 0.0
4 ; 6087.074503218757 ; 20804.173890431743 ; 19679.064621464233 ; 90058.6417149312 ; 0.0
5 ; 6300.866182143578 ; 20269.754180560125 ; 25766.139124682988 ; 110862.81560536295 ; 0.0
6 ; 6821.890851611022 ; 19821.729926316486 ; 32067.005306826566 ; 131132.5697859231 ; 0.0
7 ; 7331.3350147400815 ; 19466.10252028799 ; 38888.89615843759 ; 150954.29971223956 ; 0.0
8 ; 7865.278021721186 ; 19208.032401183107 ; 46220.23117317767 ; 170420.40223252756 ; 0.0
9 ; 8022.1536031078895 ; 19051.504442424062 ; 54085.509194898856 ; 189628.43463371065 ; 0.0
10 ; 8472.164119984 ; 18999.040548840763 ; 62107.66279800674 ; 208679.9390761347 ; 0.0
11 ; 8774.073920174824 ; 19051.504442424062 ; 70579.82691799074 ; 227678.97962497547 ; 0.0
12 ; 9346.59238704179 ; 19208.032401183107 ; 79353.90083816556 ; 246730.48406739952 ; 0.0
13 ; 9744.399832137418 ; 19466.10252028799 ; 88700.49322520735 ; 265938.5164685826 ; 0.0
14 ; 10163.271958631838 ; 19821.72992631626 ; 98444.89305734477 ; 285404.6189888706 ; 0.0
15 ; 10613.31647747098 ; 20269.754180560125 ; 108608.16501597661 ; 305226.3489151868 ; 0.0
16 ; 10878.275216170203 ; 20804.173890431743 ; 119221.48149344759 ; 325496.10309574695 ; 0.0
17 ; 11286.071748584947 ; 21418.48397549875 ; 130099.7567096178 ; 346300.2769861787 ; 0.0
18 ; 11605.782212098446 ; 22105.980478418984 ; 141385.82845820274 ; 367718.7609616775 ; 0.0
19 ; 11936.006015039406 ; 22860.011457301454 ; 152991.6106703012 ; 389824.74144009646 ; 0.0
20 ; 12381.670348613592 ; 23674.165803711807 ; 164927.6166853406 ; 412684.7528973979 ; 0.0
21 ; 12755.79283158196 ; 24542.40199669778 ; 177309.28703395417 ; 436358.9187011097 ; 0.0
22 ; 12949.844804652257 ; 25459.124956838557 ; 190065.07986553613 ; 460901.3206978075 ; 0.0
23 ; 13404.690199567649 ; 26419.221774990336 ; 203014.9246701884 ; 486360.445654646 ; 0.0
24 ; 13730.669728262332 ; 27418.067210548426 ; 216419.61486975604 ; 512779.66742963635 ; 0.0
25 ; 13982.744987632417 ; 28451.508562493033 ; 230150.28459801836 ; 540197.7346401848 ; 0.0
26 ; 14357.005342246153 ; 29515.837646721415 ; 244133.02958565077 ; 568649.2432026778 ; 0.0
27 ; 14699.308415237741 ; 30607.7556946859 ; 258490.03492789692 ; 598165.0808493992 ; 0.0
28 ; 15127.772300628563 ; 31724.335296598616 ; 273189.3433431347 ; 628772.8365440851 ; 0.0
29 ; 15178.422812673798 ; 32862.98215029066 ; 288317.1156437632 ; 660497.1718406837 ; 0.0
30 ; 15482.499799354107 ; 34021.398347868744 ; 303495.538456437 ; 693360.1539909743 ; 0.0
31 ; 15847.26586644033 ; 35197.54819323342 ; 318978.0382557911 ; 727381.552338843 ; 0.0
32 ; 16051.231053211635 ; 36389.62703565917 ; 334825.30412223144 ; 762579.1005320764 ; 0.0
33 ; 16489.499570135977 ; 37596.03327077422 ; 350876.53517544304 ; 798968.7275677356 ; 0.0
34 ; 16787.774163815775 ; 38815.34345172477 ; 367366.034745579 ; 836564.7608385098 ; 0.0
35 ; 17047.025177375177 ; 40046.2903317645 ; 384153.8089093948 ; 875380.1042902345 ; 0.0
36 ; 17158.53746000072 ; 41287.74359639157 ; 401200.83408676996 ; 915426.394621999 ; 0.0
37 ; 17526.701943910986 ; 42538.693017912585 ; 418359.3715467707 ; 956714.1382183905 ; 0.0
38 ; 17615.83715146853 ; 43798.233763623764 ; 435886.07349068165 ; 999252.8312363031 ; 0.0
39 ; 17980.48066655656 ; 45065.5536009538 ; 453501.9106421502 ; 1043051.0649999268 ; 0.0
40 ; 18130.15199200162 ; 46339.92176248981 ; 471482.3913087068 ; 1088116.6186008807 ; 0.0
41 ; 18415.44545907974 ; 47620.6792566827 ; 489612.5433007084 ; 1134456.5403633704 ; 0.0
42 ; 18733.852384821912 ; 48907.23043364219 ; 508027.98875978816 ; 1182077.2196200532 ; 0.0
43 ; 18743.14126300722 ; 50199.03563828649 ; 526761.8411446101 ; 1230984.4500536954 ; 0.0
44 ; 19081.430829457873 ; 51495.60480435924 ; 545504.9824076173 ; 1281183.4856919819 ; 0.0
45 ; 19213.244799273594 ; 52796.49186210066 ; 564586.4132370751 ; 1332679.090496341 ; 0.0
46 ; 19543.64244991919 ; 54101.28984952246 ; 583799.6580363486 ; 1385475.5823584415 ; 0.0
47 ; 19803.524310908222 ; 55409.62663234142 ; 603343.3004862678 ; 1439576.872207964 ; 0.0
48 ; 19970.397967673463 ; 56721.161150797176 ; 623146.824797176 ; 1494986.4988403055 ; 0.0
49 ; 20202.36761383383 ; 58035.58012299449 ; 643117.2227648495 ; 1551707.6599911028 ; 0.0
50 ; 20390.407844469293 ; 59352.59514425529 ; 663319.5903786834 ; 1609743.2401140973 ; 0.0
51 ; 20374.953287702894 ; 60671.94013043162 ; 683709.9982231527 ; 1669095.8352583526 ; 0.0
52 ; 20712.730667906 ; 61993.369060394885 ; 704084.9515108556 ; 1729767.7753887842 ; 0.0
53 ; 20728.85577344803 ; 63316.65397913972 ; 724797.6821787616 ; 1791761.144449179 ; 0.0
54 ; 20890.824151965287 ; 64641.583228269454 ; 745526.5379522096 ; 1855077.7984283187 ; 0.0
55 ; 21220.508018714518 ; 65967.95987518986 ; 766417.3621041749 ; 1919719.381656588 ; 0.0
56 ; 21343.06606524499 ; 67295.60031624544 ; 787637.8701228894 ; 1985687.341531778 ; 0.0
57 ; 21554.770665169188 ; 68624.33303237279 ; 808980.9361881344 ; 2052982.9418480233 ; 0.0
58 ; 21595.320214129937 ; 69953.99747871286 ; 830535.7068533036 ; 2121607.274880396 ; 0.0
59 ; 21737.50560331912 ; 71284.4430920849 ; 852131.0270674336 ; 2191561.272359109 ; 0.0
60 ; 21774.226214086626 ; 72615.52840233238 ; 873868.5326707527 ; 2262845.715451194 ; 0.0
61 ; 21935.756187230058 ; 73947.12023536777 ; 895642.7588848394 ; 2335461.243853526 ; 0.0
62 ; 21970.931072404182 ; 75279.09299730741 ; 917578.5150720694 ; 2409408.364088894 ; 0.0
63 ; 22173.66156667414 ; 76611.3280304321 ; 939549.4461444735 ; 2484687.4570862013 ; 0.0
64 ; 22231.234452717184 ; 77943.71303287277 ; 961723.1077111476 ; 2561298.7851166334 ; 0.0
65 ; 22378.12772473886 ; 79276.14153492694 ; 983954.3421638649 ; 2639242.4981495063 ; 0.0
66 ; 22696.88532558719 ; 80608.512425781 ; 1006332.4698886038 ; 2718518.639684433 ; 0.0
67 ; 22580.288523876687 ; 81940.72952516758 ; 1029029.355214191 ; 2799127.1521102143 ; 0.0
68 ; 22739.446495287513 ; 83272.70119514591 ; 1051609.6437380677 ; 2881067.881635382 ; 0.0
69 ; 22724.687018823784 ; 84604.33998775815 ; 1074349.0902333553 ; 2964340.582830528 ; 0.0
70 ; 23034.63846387027 ; 85935.56232481802 ; 1097073.777252179 ; 3048944.922818286 ; 0.0
71 ; 22837.23860611054 ; 87266.28820651505 ; 1120108.4157160493 ; 3134880.485143104 ; 0.0
72 ; 22877.491747355027 ; 88596.44094590202 ; 1142945.6543221597 ; 3222146.773349619 ; 0.0
73 ; 22875.58067366832 ; 89925.94692666143 ; 1165823.1460695148 ; 3310743.214295521 ; 0.0
74 ; 23070.036658279914 ; 91254.73538183891 ; 1188698.726743183 ; 3400669.161222182 ; 0.0
75 ; 23028.122511396065 ; 92582.73819148687 ; 1211768.763401463 ; 3491923.896604021 ; 0.0
76 ; 23145.65406663704 ; 93909.88969738554 ; 1234796.8859128589 ; 3584506.634795508 ; 0.0
77 ; 23092.837868991188 ; 95236.12653320609 ; 1257942.5399794958 ; 3678416.5244928934 ; 0.0
78 ; 23076.364702174826 ; 96561.3874686568 ; 1281035.3778484869 ; 3773652.6510260995 ; 0.0
79 ; 23316.90816027453 ; 97885.61326630272 ; 1304111.7425506618 ; 3870214.0384947564 ; 0.0
80 ; 23079.854637989116 ; 99208.7465498919 ; 1327428.6507109364 ; 3968099.651761059 ; 0.0
81 ; 23180.129540092188 ; 100530.73168313477 ; 1350508.5053489255 ; 4067308.398310951 ; 0.0
82 ; 23160.75927282578 ; 101851.51465799633 ; 1373688.6348890176 ; 4167839.1299940855 ; 0.0
83 ; 23183.738051949236 ; 103171.04299165156 ; 1396849.3941618432 ; 4269690.644652082 ; 0.0
84 ; 23264.09926816759 ; 104489.26563134108 ; 1420033.1322137925 ; 4372861.687643733 ; 0.0
85 ; 23115.884764213657 ; 105806.13286643896 ; 1443297.23148196 ; 4477350.953275074 ; 0.0
86 ; 23269.19264375832 ; 107121.59624711054 ; 1466413.1162461736 ; 4583157.086141514 ; 0.0
87 ; 23096.631302126058 ; 108435.60850900007 ; 1489682.308889932 ; 4690278.682388624 ; 0.0
88 ; 22980.48751689251 ; 109748.1235034388 ; 1512778.940192058 ; 4798714.290897625 ; 0.0
89 ; 23187.31084081843 ; 111059.09613271548 ; 1535759.4277089506 ; 4908462.414401064 ; 0.0
90 ; 23080.157293723576 ; 112368.4822899899 ; 1558946.738549769 ; 5019521.510533779 ; 0.0
91 ; 22939.29836861069 ; 113676.23880347292 ; 1582026.8958434926 ; 5131889.992823768 ; 0.0
92 ; 22797.175275636546 ; 114982.32338452776 ; 1604966.1942121033 ; 5245566.231627242 ; 0.0
93 ; 22886.762396845705 ; 116286.69457938019 ; 1627763.3694877399 ; 5360548.55501177 ; 0.0
94 ; 22830.832313568906 ; 117589.31172415255 ; 1650650.1318845856 ; 5476835.24959115 ; 0.0
95 ; 22666.329788250303 ; 118890.13490296209 ; 1673480.9641981544 ; 5594424.561315303 ; 0.0
96 ; 22702.043436667303 ; 120189.12490884661 ; 1696147.2939864048 ; 5713314.696218265 ; 0.0
97 ; 22527.52860927452 ; 121486.2432073009 ; 1718849.3374230722 ; 5833503.821127112 ; 0.0
98 ; 22528.7938127581 ; 122781.45190222665 ; 1741376.8660323466 ; 5954990.064334413 ; 0.0
99 ; 22477.86940723168 ; 124074.71370411427 ; 1763905.6598451047 ; 6077771.51623664 ; 0.0
100 ; 22294.291111854473 ; 125365.9919002917 ; 1786383.5292523364 ; 6201846.229940753 ; 0.0
101 ; 22122.107423594978 ; 126655.2503270876 ; 1808677.8203641907 ; 6327212.221841045 ; 0.0
102 ; 22110.995021896197 ; 127942.4533437699 ; 1830799.9277877857 ; 6453867.472168133 ; 0.0
103 ; 21815.09823910337 ; 129227.56580813188 ; 1852910.9228096819 ; 6581809.925511902 ; 0.0
104 ; 21675.097800350195 ; 130510.55305360781 ; 1874726.0210487852 ; 6711037.4913200345 ; 0.0
105 ; 21699.73131525703 ; 131791.38086781054 ; 1896401.1188491355 ; 6841548.044373643 ; 0.0
106 ; 21739.504443390902 ; 133070.0154723909 ; 1918100.8501643925 ; 6973339.425241454 ; 0.0
107 ; 21455.51802706318 ; 134346.42350412783 ; 1939840.3546077835 ; 7106409.440713844 ; 0.0
108 ; 21453.473339118304 ; 135620.57199716417 ; 1961295.8726348467 ; 7240755.864217972 ; 0.0
109 ; 21288.998035963912 ; 136892.42836631017 ; 1982749.345973965 ; 7376376.436215136 ; 0.0
110 ; 20978.62594825244 ; 138161.96039134293 ; 2004038.3440099289 ; 7513268.864581446 ; 0.0
111 ; 20932.58245946794 ; 139429.1362022353 ; 2025016.9699581813 ; 7651430.824972789 ; 0.0
112 ; 20497.73178744332 ; 140693.92426525184 ; 2045949.5524176492 ; 7790859.9611750245 ; 0.0
113 ; 20607.091318007315 ; 141956.29336985608 ; 2066447.2842050926 ; 7931553.885440276 ; 0.0
114 ; 20354.47468570937 ; 143216.21261637527 ; 2087054.3755231 ; 8073510.178810132 ; 0.0
115 ; 20074.785794052474 ; 144473.65140437445 ; 2107408.850208809 ; 8216726.391426507 ; 0.0
116 ; 20040.317223248858 ; 145728.57942169392 ; 2127483.6360028614 ; 8361200.042830882 ; 0.0
117 ; 19837.57258876692 ; 146980.96663410863 ; 2147523.9532261104 ; 8506928.622252576 ; 0.0
118 ; 19575.18816740668 ; 148230.7832755698 ; 2167361.5258148774 ; 8653909.588886684 ; 0.0
119 ; 19438.346981513496 ; 149477.9998389928 ; 2186936.713982284 ; 8802140.372162253 ; 0.0
120 ; 19292.207921219968 ; 150722.58706755785 ; 2206375.0609637974 ; 8951618.372001246 ; 0.0
121 ; 18905.31326391708 ; 151964.51594649098 ; 2225667.2688850174 ; 9102340.959068803 ; 0.0
122 ; 19014.08999724866 ; 153203.75769529762 ; 2244572.5821489342 ; 9254305.475015294 ; 0.0
123 ; 18458.76622989865 ; 154440.2837604202 ; 2263586.672146183 ; 9407509.23271059 ; 0.0
124 ; 18424.650571967803 ; 155674.06580829498 ; 2282045.4383760816 ; 9561949.516471012 ; 0.0
125 ; 18196.57257021944 ; 156905.07571878462 ; 2300470.0889480496 ; 9717623.582279306 ; 0.0
126 ; 17775.744300334485 ; 158133.28557896364 ; 2318666.661518269 ; 9874528.65799809 ; 0.0
127 ; 17467.129355668116 ; 159358.66767723698 ; 2336442.405818604 ; 1.0032661943577055E7 ; 0.0
128 ; 17408.725861403746 ; 160581.19449777182 ; 2353909.535174272 ; 1.0192020611254292E7 ; 0.0
129 ; 17080.813124731838 ; 161800.83871522502 ; 2371318.2610356756 ; 1.0352601805752063E7 ; 0.0
130 ; 16779.62561246916 ; 163017.5731897486 ; 2388399.0741604073 ; 1.0514402644467289E7 ; 0.0
131 ; 16487.987015672148 ; 164231.3709622587 ; 2405178.6997728767 ; 1.0677420217657037E7 ; 0.0
132 ; 16352.37068480818 ; 165442.205249952 ; 2421666.6867885487 ; 1.0841651588619296E7 ; 0.0
133 ; 16133.40679392667 ; 166650.04944205654 ; 2438019.057473357 ; 1.1007093793869248E7 ; 0.0
134 ; 15818.293070244963 ; 167854.8770958036 ; 2454152.4642672837 ; 1.1173743843311304E7 ; 0.0
135 ; 15379.373621787774 ; 169056.66193260875 ; 2469970.7573375287 ; 1.1341598720407108E7 ; 0.0
136 ; 15128.478831182489 ; 170255.3778344506 ; 2485350.1309593166 ; 1.1510655382339716E7 ; 0.0
137 ; 14963.738245440356 ; 171450.99884043596 ; 2500478.6097904993 ; 1.1680910760174166E7 ; 0.0
138 ; 14648.830720050652 ; 172643.49914354246 ; 2515442.3480359395 ; 1.1852361759014603E7 ; 0.0
139 ; 14223.495456499959 ; 173832.85308752835 ; 2530091.17875599 ; 1.2025005258158145E7 ; 0.0
140 ; 14041.855792076714 ; 175019.03516400058 ; 2544314.67421249 ; 1.2198838111245673E7 ; 0.0
141 ; 13494.910101467543 ; 176202.02000963315 ; 2558356.530004567 ; 1.2373857146409674E7 ; 0.0
142 ; 13199.427417408231 ; 177381.782403528 ; 2571851.4401060347 ; 1.2550059166419307E7 ; 0.0
143 ; 12936.188479871698 ; 178558.29726471056 ; 2585050.867523443 ; 1.2727440948822835E7 ; 0.0
144 ; 12444.103388370659 ; 179731.5396497531 ; 2597987.0560033144 ; 1.2905999246087546E7 ; 0.0
145 ; 12410.865093822653 ; 180901.48475051962 ; 2610431.159391685 ; 1.3085730785737298E7 ; 0.0
146 ; 12383.509512657507 ; 182068.10789202593 ; 2622842.0244855075 ; 1.3266632270487819E7 ; 0.0
147 ; 12289.917315070628 ; 183231.38453040874 ; 2635225.533998165 ; 1.3448700378379844E7 ; 0.0
148 ; 12296.602888744774 ; 184391.29025099904 ; 2647515.4513132353 ; 1.3631931762910252E7 ; 0.0
149 ; 12203.282082625796 ; 185547.80076649363 ; 2659812.05420198 ; 1.3816323053161252E7 ; 0.0
150 ; 11898.497022899583 ; 186700.89191522068 ; 2672015.336284606 ; 1.4001870853927746E7 ; 0.0
151 ; 12003.860003783766 ; 187850.53965949418 ; 2683913.8333075056 ; 1.4188571745842967E7 ; 0.0
152 ; 11920.484006382892 ; 188996.7200840532 ; 2695917.6933112894 ; 1.4376422285502462E7 ; 0.0
153 ; 11668.034486067105 ; 190139.40939458148 ; 2707838.1773176724 ; 1.4565419005586514E7 ; 0.0
154 ; 11606.16708969853 ; 191278.5839163041 ; 2719506.2118037394 ; 1.4755558414981095E7 ; 0.0
155 ; 11658.119297615694 ; 192414.2200926565 ; 2731112.378893438 ; 1.49468369988974E7 ; 0.0
156 ; 11328.981098566905 ; 193546.29448402353 ; 2742770.4981910535 ; 1.5139251218990056E7 ; 0.0
157 ; 11308.553184997081 ; 194674.78376654416 ; 2754099.4792896206 ; 1.5332797513474079E7 ; 0.0
158 ; 11152.187991881336 ; 195799.66473097922 ; 2765408.032474618 ; 1.5527472297240622E7 ; 0.0
159 ; 10841.454716814329 ; 196920.91428163942 ; 2776560.220466499 ; 1.5723271961971601E7 ; 0.0
160 ; 10921.217631196701 ; 198038.5094353703 ; 2787401.6751833134 ; 1.5920192876253242E7 ; 0.0
161 ; 10769.218515619325 ; 199152.42732059158 ; 2798322.89281451 ; 1.6118231385688612E7 ; 0.0
162 ; 10771.415524355232 ; 200262.6451763887 ; 2809092.111330129 ; 1.6317383813009204E7 ; 0.0
163 ; 10566.837125019165 ; 201369.14035165386 ; 2819863.5268544843 ; 1.6517646458185593E7 ; 0.0
164 ; 10308.40437464847 ; 202471.89030427407 ; 2830430.3639795035 ; 1.6719015598537246E7 ; 0.0
165 ; 10208.326137625982 ; 203570.8726003647 ; 2840738.768354152 ; 1.692148748884152E7 ; 0.0
166 ; 10159.038426748724 ; 204666.0649135457 ; 2850947.094491778 ; 1.7125058361441884E7 ; 0.0
167 ; 9891.296108747105 ; 205757.44502425907 ; 2861106.132918527 ; 1.732972442635543E7 ; 0.0
168 ; 9871.886059986653 ; 206844.99081912558 ; 2870997.429027274 ; 1.753548187137969E7 ; 0.0
169 ; 9804.120548832816 ; 207928.6802903387 ; 2880869.31508726 ; 1.7742326862198815E7 ; 0.0
170 ; 9689.998149383722 ; 209008.49153509454 ; 2890673.435636093 ; 1.7950255542489152E7 ; 0.0
171 ; 9563.652140381968 ; 210084.4027550558 ; 2900363.4337854767 ; 1.8159264034024246E7 ; 0.0
172 ; 9291.761801506806 ; 211156.3922558487 ; 2909927.0859258585 ; 1.83693484367793E7 ; 0.0
173 ; 9184.22875479635 ; 212224.43844659024 ; 2919218.8477273653 ; 1.858050482903515E7 ; 0.0
174 ; 9125.706514598698 ; 213288.5198394463 ; 2928403.076482162 ; 1.879272926748174E7 ; 0.0
175 ; 9196.203901175058 ; 214348.61504921762 ; 2937528.7829967607 ; 1.9006017787321188E7 ; 0.0
176 ; 9213.286725741265 ; 215404.70279295315 ; 2946724.9868979356 ; 1.9220366402370404E7 ; 0.0
177 ; 9246.214086891905 ; 216456.76188958937 ; 2955938.273623677 ; 1.943577110516336E7 ; 0.0
178 ; 9475.34921785136 ; 217504.77125961467 ; 2965184.487710569 ; 1.9652227867052946E7 ; 0.0
179 ; 9299.219873110014 ; 218548.70992475757 ; 2974659.8369284202 ; 1.986973263831256E7 ; 0.0
180 ; 9437.192925291634 ; 219588.55700769756 ; 2983959.05680153 ; 2.0088281348237317E7 ; 0.0
181 ; 9411.918807079666 ; 220624.2917317976 ; 2993396.2497268217 ; 2.0307869905245014E7 ; 0.0
182 ; 9342.380173129413 ; 221655.893420858 ; 3002808.168533901 ; 2.052849419697681E7 ; 0.0
183 ; 9367.86184410711 ; 222683.34149888984 ; 3012150.5487070307 ; 2.0750150090397667E7 ; 0.0
184 ; 9568.1587433293 ; 223706.6154899074 ; 3021518.4105511378 ; 2.0972833431896556E7 ; 0.0
185 ; 9438.221895205936 ; 224725.6950177392 ; 3031086.569294467 ; 2.1196540047386464E7 ; 0.0
186 ; 9430.441424278866 ; 225740.55980585635 ; 3040524.791189673 ; 2.1421265742404204E7 ; 0.0
187 ; 9450.287379979914 ; 226751.18967721763 ; 3049955.232613952 ; 2.164700630221006E7 ; 0.0
188 ; 9475.506766624523 ; 227757.56455413054 ; 3059405.519993932 ; 2.1873757491887275E7 ; 0.0
189 ; 9683.249702565174 ; 228759.66445812778 ; 3068881.0267605567 ; 2.2101515056441404E7 ; 0.0
190 ; 9542.068579706607 ; 229757.46950985855 ; 3078564.276463122 ; 2.2330274720899533E7 ; 0.0
191 ; 9630.051401024155 ; 230750.95992899346 ; 3088106.345042829 ; 2.2560032190409392E7 ; 0.0
192 ; 9662.460281164264 ; 231740.11603414334 ; 3097736.396443853 ; 2.2790783150338385E7 ; 0.0
193 ; 9872.299428832444 ; 232724.9182427907 ; 3107398.8567250175 ; 2.3022523266372528E7 ; 0.0
194 ; 9656.232970446503 ; 233705.34707123353 ; 3117271.15615385 ; 2.3255248184615318E7 ; 0.0
195 ; 9691.558207498041 ; 234681.38313454096 ; 3126927.389124296 ; 2.3488953531686552E7 ; 0.0
196 ; 9892.090182961005 ; 235653.0071465201 ; 3136618.947331794 ; 2.3723634914821092E7 ; 0.0
197 ; 9763.195142605211 ; 236620.19991969402 ; 3146511.037514755 ; 2.395928792196761E7 ; 0.0
198 ; 9678.217939270282 ; 237582.94236528932 ; 3156274.2326573604 ; 2.4195908121887304E7 ; 0.0
199 ; 9843.695708441814 ; 238541.21549323466 ; 3165952.4505966306 ; 2.4433491064252593E7 ; 0.0
200 ; 10006.984112277363 ; 239495.00041216795 ; 3175796.1463050726 ; 2.467203227974583E7 ; 0.0
201 ; 9947.213577032235 ; 240444.2783294527 ; 3185803.1304173497 ; 2.4911527280157994E7 ; 0.0
202 ; 9953.441094173286 ; 241389.0305512035 ; 3195750.343994382 ; 2.515197155848745E7 ; 0.0
203 ; 9895.757853495546 ; 242329.23848231928 ; 3205703.785088555 ; 2.539336058903865E7 ; 0.0
204 ; 10028.95464925032 ; 243264.88362652485 ; 3215599.5429420504 ; 2.563568982752097E7 ; 0.0
205 ; 9975.659248724367 ; 244195.9475864197 ; 3225628.497591301 ; 2.5878954711147495E7 ; 0.0
206 ; 10066.422255527745 ; 245122.4120635346 ; 3235604.1568400254 ; 2.6123150658733916E7 ; 0.0
207 ; 10124.008879680603 ; 246044.25885839437 ; 3245670.579095553 ; 2.636827307079745E7 ; 0.0
208 ; 10182.882675045124 ; 246961.46987058793 ; 3255794.587975234 ; 2.6614317329655845E7 ; 0.0
209 ; 10055.08765999087 ; 247874.02709884438 ; 3265977.470650279 ; 2.6861278799526434E7 ; 0.0
210 ; 10308.840588305246 ; 248781.91264111517 ; 3276032.55831027 ; 2.710915282662528E7 ; 0.0
211 ; 10260.951361469562 ; 249685.1086946622 ; 3286341.398898575 ; 2.7357934739266396E7 ; 0.0
212 ; 10332.29141045117 ; 250583.59755615093 ; 3296602.3502600444 ; 2.7607619847961057E7 ; 0.0
213 ; 10346.666622642317 ; 251477.36162174944 ; 3306934.6416704957 ; 2.785820344551721E7 ; 0.0
