CSV File for the City 2 on Day 262
1 - Minute m 
2 - Power Consumed at minute m 
3 - Power Produced at minute m 
4 - Energy Consumed since the beginning of the day 
5 - Energy Produced since the beginning of the day 
6 - Energy Lost since the beginning of the day on lines starting from the city
 
0 ; 6237.850772809836 ; 31507.491349164655 ; 0.0 ; 0.0 ; 0.0
1 ; 6622.937827114128 ; 31507.491349164655 ; 6237.850772809836 ; 31507.491349164655 ; 0.0
2 ; 7151.623919599584 ; 31507.491349164655 ; 12860.788599923962 ; 63014.98269832931 ; 0.0
3 ; 7554.891902712719 ; 31507.491349164655 ; 20012.412519523547 ; 94522.47404749396 ; 0.0
4 ; 8060.981958481822 ; 31507.491349164655 ; 27567.304422236266 ; 126029.96539665862 ; 0.0
5 ; 8283.358994906619 ; 31507.491349164655 ; 35628.28638071809 ; 157537.45674582326 ; 0.0
6 ; 8991.708967909371 ; 31507.491349164655 ; 43911.64537562471 ; 189044.94809498792 ; 0.0
7 ; 9482.131970886536 ; 31507.491349164655 ; 52903.354343534076 ; 220552.43944415258 ; 0.0
8 ; 9779.923337242635 ; 31507.491349164655 ; 62385.48631442061 ; 252059.93079331724 ; 0.0
9 ; 10206.315006367613 ; 31507.491349164655 ; 72165.40965166324 ; 283567.4221424819 ; 0.0
10 ; 10576.027778597105 ; 31507.491349164655 ; 82371.72465803086 ; 315074.9134916465 ; 0.0
11 ; 11006.431042222026 ; 31507.491349164655 ; 92947.75243662795 ; 346582.40484081116 ; 0.0
12 ; 11326.76695936759 ; 31507.491349164655 ; 103954.18347884998 ; 378089.8961899758 ; 0.0
13 ; 11609.277294714087 ; 31507.491349164655 ; 115280.95043821758 ; 409597.3875391404 ; 0.0
14 ; 12275.453040369051 ; 31507.491349164655 ; 126890.22773293167 ; 441104.87888830504 ; 0.0
15 ; 12579.868218136635 ; 31507.491349164655 ; 139165.68077330073 ; 472612.3702374697 ; 0.0
16 ; 12904.846925866088 ; 31507.491349164655 ; 151745.54899143736 ; 504119.8615866343 ; 0.0
17 ; 13156.577298170436 ; 31507.491349164655 ; 164650.39591730345 ; 535627.3529357989 ; 0.0
18 ; 13699.60588982284 ; 31507.491349164655 ; 177806.97321547387 ; 567134.8442849636 ; 0.0
19 ; 14067.51043783351 ; 31507.491349164655 ; 191506.57910529673 ; 598642.3356341282 ; 0.0
20 ; 14313.782975429034 ; 31507.491349164655 ; 205574.08954313025 ; 630149.8269832928 ; 0.0
21 ; 14644.224069388038 ; 31507.491349164655 ; 219887.87251855928 ; 661657.3183324574 ; 0.0
22 ; 14997.014272493787 ; 31507.491349164655 ; 234532.0965879473 ; 693164.8096816221 ; 0.0
23 ; 15485.039868733083 ; 31507.491349164655 ; 249529.11086044108 ; 724672.3010307867 ; 0.0
24 ; 15720.193945785571 ; 31507.491349164655 ; 265014.15072917414 ; 756179.7923799513 ; 0.0
25 ; 16160.944244248336 ; 31507.491349164655 ; 280734.3446749597 ; 787687.283729116 ; 0.0
26 ; 16385.819038880196 ; 31507.491349164655 ; 296895.28891920805 ; 819194.7750782806 ; 0.0
27 ; 16725.326946696758 ; 31507.491349164655 ; 313281.1079580882 ; 850702.2664274452 ; 0.0
28 ; 16927.00521767481 ; 31507.491349164655 ; 330006.43490478495 ; 882209.7577766099 ; 0.0
29 ; 17289.67828710013 ; 31507.491349164655 ; 346933.4401224598 ; 913717.2491257745 ; 0.0
30 ; 17700.41739873777 ; 31507.491349164655 ; 364223.1184095599 ; 945224.7404749391 ; 0.0
31 ; 18061.29281001937 ; 31507.491349164655 ; 381923.53580829763 ; 976732.2318241037 ; 0.0
32 ; 18182.025151856622 ; 31507.491349164655 ; 399984.828618317 ; 1008239.7231732684 ; 0.0
33 ; 18493.619410033734 ; 31507.491349164655 ; 418166.8537701736 ; 1039747.214522433 ; 0.0
34 ; 18816.44958442852 ; 31507.491349164655 ; 436660.47318020737 ; 1071254.7058715976 ; 0.0
35 ; 19127.14808538673 ; 31507.491349164655 ; 455476.9227646359 ; 1102762.1972207623 ; 0.0
36 ; 19500.49802892179 ; 31507.491349164655 ; 474604.0708500226 ; 1134269.688569927 ; 0.0
37 ; 19706.265539298016 ; 31507.491349164655 ; 494104.5688789444 ; 1165777.1799190915 ; 0.0
38 ; 19752.83274235911 ; 31507.491349164655 ; 513810.8344182424 ; 1197284.6712682561 ; 0.0
39 ; 19982.86935841118 ; 31507.491349164655 ; 533563.6671606015 ; 1228792.1626174208 ; 0.0
40 ; 20201.653983828284 ; 31507.491349164655 ; 553546.5365190126 ; 1260299.6539665854 ; 0.0
41 ; 20788.869404609126 ; 31507.491349164655 ; 573748.1905028409 ; 1291807.14531575 ; 0.0
42 ; 20761.624996431525 ; 31507.491349164655 ; 594537.05990745 ; 1323314.6366649147 ; 0.0
43 ; 20961.080450856036 ; 31507.491349164655 ; 615298.6849038815 ; 1354822.1280140793 ; 0.0
44 ; 20931.871701432025 ; 31507.491349164655 ; 636259.7653547375 ; 1386329.619363244 ; 0.0
45 ; 21205.118592829698 ; 31507.491349164655 ; 657191.6370561696 ; 1417837.1107124086 ; 0.0
46 ; 21498.862983779607 ; 31507.491349164655 ; 678396.7556489992 ; 1449344.6020615732 ; 0.0
47 ; 21750.34227346567 ; 31507.491349164655 ; 699895.6186327789 ; 1480852.0934107378 ; 0.0
48 ; 22120.44521615671 ; 31507.491349164655 ; 721645.9609062446 ; 1512359.5847599024 ; 0.0
49 ; 22209.354401022247 ; 31507.491349164655 ; 743766.4061224012 ; 1543867.076109067 ; 0.0
50 ; 22363.6578910549 ; 31507.491349164655 ; 765975.7605234234 ; 1575374.5674582317 ; 0.0
51 ; 22590.723525705966 ; 31507.491349164655 ; 788339.4184144783 ; 1606882.0588073963 ; 0.0
52 ; 22760.103562946497 ; 31507.491349164655 ; 810930.1419401843 ; 1638389.550156561 ; 0.0
53 ; 23005.71901081817 ; 31507.491349164655 ; 833690.2455031308 ; 1669897.0415057256 ; 0.0
54 ; 23008.832096147606 ; 31507.491349164655 ; 856695.964513949 ; 1701404.5328548902 ; 0.0
55 ; 23146.88776454886 ; 31507.491349164655 ; 879704.7966100966 ; 1732912.0242040548 ; 0.0
56 ; 23413.77996011471 ; 31507.491349164655 ; 902851.6843746455 ; 1764419.5155532195 ; 0.0
57 ; 23392.851565061268 ; 31507.491349164655 ; 926265.4643347602 ; 1795927.006902384 ; 0.0
58 ; 23769.98068417791 ; 31507.491349164655 ; 949658.3158998215 ; 1827434.4982515487 ; 0.0
59 ; 23951.953289375124 ; 31507.491349164655 ; 973428.2965839994 ; 1858941.9896007134 ; 0.0
60 ; 24010.81005686146 ; 31507.491349164655 ; 997380.2498733746 ; 1890449.480949878 ; 0.0
61 ; 23889.921384512316 ; 31507.491349164655 ; 1021391.0599302361 ; 1921956.9722990426 ; 0.0
62 ; 24218.37227788483 ; 31507.491349164655 ; 1045280.9813147484 ; 1953464.4636482073 ; 0.0
63 ; 24273.540531357074 ; 31507.491349164655 ; 1069499.3535926333 ; 1984971.9549973719 ; 0.0
64 ; 24270.876586039456 ; 31507.491349164655 ; 1093772.8941239903 ; 2016479.4463465365 ; 0.0
65 ; 24363.71940612926 ; 31507.491349164655 ; 1118043.7707100299 ; 2047986.9376957011 ; 0.0
66 ; 24614.756468958378 ; 31507.491349164655 ; 1142407.4901161592 ; 2079494.4290448658 ; 0.0
67 ; 24524.896211511095 ; 31507.491349164655 ; 1167022.2465851177 ; 2111001.9203940304 ; 0.0
68 ; 24832.27428013458 ; 31507.491349164655 ; 1191547.1427966286 ; 2142509.4117431953 ; 0.0
69 ; 24842.92577154273 ; 31507.491349164655 ; 1216379.4170767632 ; 2174016.90309236 ; 0.0
70 ; 24798.518618299055 ; 31507.491349164655 ; 1241222.342848306 ; 2205524.394441525 ; 0.0
71 ; 25006.56688328193 ; 31507.491349164655 ; 1266020.8614666052 ; 2237031.88579069 ; 0.0
72 ; 25063.165276279284 ; 31507.491349164655 ; 1291027.4283498873 ; 2268539.3771398547 ; 0.0
73 ; 25127.63938111726 ; 31507.491349164655 ; 1316090.5936261665 ; 2300046.8684890196 ; 0.0
74 ; 25313.470426440737 ; 31507.491349164655 ; 1341218.2330072836 ; 2331554.3598381844 ; 0.0
75 ; 25133.760955111473 ; 31507.491349164655 ; 1366531.7034337244 ; 2363061.8511873493 ; 0.0
76 ; 25134.62641355493 ; 31507.491349164655 ; 1391665.4643888357 ; 2394569.342536514 ; 0.0
77 ; 25255.29509880802 ; 31507.491349164655 ; 1416800.0908023906 ; 2426076.833885679 ; 0.0
78 ; 25332.25265770218 ; 31507.491349164655 ; 1442055.3859011987 ; 2457584.325234844 ; 0.0
79 ; 25161.385179394612 ; 31507.491349164655 ; 1467387.638558901 ; 2489091.8165840087 ; 0.0
80 ; 25316.602172309606 ; 31507.491349164655 ; 1492549.0237382955 ; 2520599.3079331736 ; 0.0
81 ; 25402.142220889204 ; 31507.491349164655 ; 1517865.625910605 ; 2552106.7992823385 ; 0.0
82 ; 25320.239449833367 ; 31507.491349164655 ; 1543267.7681314943 ; 2583614.2906315033 ; 0.0
83 ; 25406.4087641155 ; 31507.491349164655 ; 1568588.0075813276 ; 2615121.781980668 ; 0.0
84 ; 25165.307405182215 ; 31507.491349164655 ; 1593994.416345443 ; 2646629.273329833 ; 0.0
85 ; 25345.646417754822 ; 31507.491349164655 ; 1619159.7237506253 ; 2678136.764678998 ; 0.0
86 ; 25240.10415676569 ; 31507.491349164655 ; 1644505.3701683802 ; 2709644.256028163 ; 0.0
87 ; 25212.482924568638 ; 31507.491349164655 ; 1669745.4743251458 ; 2741151.7473773276 ; 0.0
88 ; 25212.274921362034 ; 31507.491349164655 ; 1694957.9572497145 ; 2772659.2387264925 ; 0.0
89 ; 25223.13355417121 ; 31507.491349164655 ; 1720170.2321710766 ; 2804166.7300756574 ; 0.0
90 ; 25152.841507131307 ; 31507.491349164655 ; 1745393.365725248 ; 2835674.221424822 ; 0.0
91 ; 25039.09217643254 ; 31507.491349164655 ; 1770546.2072323791 ; 2867181.712773987 ; 0.0
92 ; 24882.751343968142 ; 31507.491349164655 ; 1795585.2994088116 ; 2898689.204123152 ; 0.0
93 ; 25158.215776208213 ; 31507.491349164655 ; 1820468.0507527797 ; 2930196.695472317 ; 0.0
94 ; 24973.449599295218 ; 31507.491349164655 ; 1845626.266528988 ; 2961704.1868214817 ; 0.0
95 ; 24871.63282386444 ; 31507.491349164655 ; 1870599.7161282832 ; 2993211.6781706465 ; 0.0
96 ; 24804.339227290027 ; 31507.491349164655 ; 1895471.3489521476 ; 3024719.1695198114 ; 0.0
97 ; 24634.555010494583 ; 31507.491349164655 ; 1920275.6881794378 ; 3056226.6608689763 ; 0.0
98 ; 24532.684689008314 ; 31507.491349164655 ; 1944910.2431899323 ; 3087734.152218141 ; 0.0
99 ; 24583.812913143596 ; 31507.491349164655 ; 1969442.9278789407 ; 3119241.643567306 ; 0.0
100 ; 24591.680937144694 ; 31507.491349164655 ; 1994026.7407920843 ; 3150749.134916471 ; 0.0
101 ; 24521.25215741637 ; 31507.491349164655 ; 2018618.421729229 ; 3182256.6262656357 ; 0.0
102 ; 24434.308785669196 ; 31507.491349164655 ; 2043139.6738866454 ; 3213764.1176148006 ; 0.0
103 ; 24093.985785357334 ; 31507.491349164655 ; 2067573.9826723146 ; 3245271.6089639654 ; 0.0
104 ; 24074.845914310565 ; 31507.491349164655 ; 2091667.968457672 ; 3276779.1003131303 ; 0.0
105 ; 23839.602450757313 ; 31507.491349164655 ; 2115742.8143719826 ; 3308286.591662295 ; 0.0
106 ; 23836.72560518722 ; 31507.491349164655 ; 2139582.41682274 ; 3339794.08301146 ; 0.0
107 ; 23314.46580251086 ; 31507.491349164655 ; 2163419.142427927 ; 3371301.574360625 ; 0.0
108 ; 23471.41797828414 ; 31507.491349164655 ; 2186733.6082304376 ; 3402809.0657097897 ; 0.0
109 ; 23334.628516555174 ; 31507.491349164655 ; 2210205.0262087216 ; 3434316.5570589546 ; 0.0
110 ; 23087.844790617466 ; 31507.491349164655 ; 2233539.654725277 ; 3465824.0484081195 ; 0.0
111 ; 22888.030265275087 ; 31507.491349164655 ; 2256627.4995158943 ; 3497331.5397572843 ; 0.0
112 ; 22780.08305537409 ; 31507.491349164655 ; 2279515.5297811693 ; 3528839.031106449 ; 0.0
113 ; 22710.192265782458 ; 31507.491349164655 ; 2302295.6128365435 ; 3560346.522455614 ; 0.0
114 ; 22443.427577741262 ; 31507.491349164655 ; 2325005.805102326 ; 3591854.013804779 ; 0.0
115 ; 22399.21524559013 ; 31507.491349164655 ; 2347449.2326800674 ; 3623361.505153944 ; 0.0
116 ; 22075.90877282914 ; 31507.491349164655 ; 2369848.4479256575 ; 3654868.9965031086 ; 0.0
117 ; 21702.861160322747 ; 31507.491349164655 ; 2391924.3566984865 ; 3686376.4878522735 ; 0.0
118 ; 21634.020324755504 ; 31507.491349164655 ; 2413627.217858809 ; 3717883.9792014384 ; 0.0
119 ; 21585.103441852054 ; 31507.491349164655 ; 2435261.2381835645 ; 3749391.4705506032 ; 0.0
120 ; 21163.35568008934 ; 31507.491349164655 ; 2456846.3416254167 ; 3780898.961899768 ; 0.0
121 ; 21087.833669558167 ; 31507.491349164655 ; 2478009.697305506 ; 3812406.453248933 ; 0.0
122 ; 20937.01846910573 ; 31507.491349164655 ; 2499097.5309750643 ; 3843913.944598098 ; 0.0
123 ; 20558.90439373039 ; 31507.491349164655 ; 2520034.54944417 ; 3875421.4359472627 ; 0.0
124 ; 20317.519962507176 ; 31507.491349164655 ; 2540593.4538379004 ; 3906928.9272964275 ; 0.0
125 ; 20000.735851003636 ; 31507.491349164655 ; 2560910.9738004077 ; 3938436.4186455924 ; 0.0
126 ; 19846.140421619402 ; 31507.491349164655 ; 2580911.7096514115 ; 3969943.9099947573 ; 0.0
127 ; 19545.107972095302 ; 31507.491349164655 ; 2600757.8500730307 ; 4001451.401343922 ; 0.0
128 ; 19466.677223564995 ; 31507.491349164655 ; 2620302.958045126 ; 4032958.892693087 ; 0.0
129 ; 19101.604564539073 ; 31507.491349164655 ; 2639769.635268691 ; 4064466.384042252 ; 0.0
130 ; 18830.879114057996 ; 31507.491349164655 ; 2658871.23983323 ; 4095973.8753914167 ; 0.0
131 ; 18488.002109018813 ; 31507.491349164655 ; 2677702.118947288 ; 4127481.3667405816 ; 0.0
132 ; 18077.453555200103 ; 31507.491349164655 ; 2696190.1210563066 ; 4158988.8580897464 ; 0.0
133 ; 17842.906413532368 ; 31507.491349164655 ; 2714267.574611507 ; 4190496.3494389113 ; 0.0
134 ; 17728.338323126965 ; 31507.491349164655 ; 2732110.481025039 ; 4222003.840788076 ; 0.0
135 ; 17471.352805307175 ; 31507.491349164655 ; 2749838.819348166 ; 4253511.33213724 ; 0.0
136 ; 17032.847019545676 ; 31507.491349164655 ; 2767310.1721534734 ; 4285018.8234864045 ; 0.0
137 ; 16712.953372004802 ; 31507.491349164655 ; 2784343.019173019 ; 4316526.314835569 ; 0.0
138 ; 16501.305415104027 ; 31507.491349164655 ; 2801055.972545024 ; 4348033.806184733 ; 0.0
139 ; 16039.59148739074 ; 31507.491349164655 ; 2817557.277960128 ; 4379541.297533898 ; 0.0
140 ; 15834.374192149282 ; 31507.491349164655 ; 2833596.869447519 ; 4411048.788883062 ; 0.0
141 ; 15498.113739551296 ; 31507.491349164655 ; 2849431.2436396684 ; 4442556.2802322265 ; 0.0
142 ; 15192.892629540866 ; 31507.491349164655 ; 2864929.35737922 ; 4474063.771581391 ; 0.0
143 ; 14829.231765684033 ; 31507.491349164655 ; 2880122.250008761 ; 4505571.262930555 ; 0.0
144 ; 14485.78834765357 ; 31507.491349164655 ; 2894951.481774445 ; 4537078.75427972 ; 0.0
145 ; 14162.581290696371 ; 31507.491349164655 ; 2909437.2701220987 ; 4568586.245628884 ; 0.0
146 ; 14352.089808926847 ; 31507.491349164655 ; 2923599.851412795 ; 4600093.736978048 ; 0.0
147 ; 14108.992118581504 ; 31507.491349164655 ; 2937951.941221722 ; 4631601.228327213 ; 0.0
148 ; 14047.29322285591 ; 31507.491349164655 ; 2952060.9333403036 ; 4663108.719676377 ; 0.0
149 ; 14029.834537084522 ; 31507.491349164655 ; 2966108.2265631594 ; 4694616.211025542 ; 0.0
150 ; 13815.351224054306 ; 31507.491349164655 ; 2980138.061100244 ; 4726123.702374706 ; 0.0
151 ; 13820.050712473214 ; 31507.491349164655 ; 2993953.412324298 ; 4757631.19372387 ; 0.0
152 ; 13543.537940094375 ; 31507.491349164655 ; 3007773.4630367714 ; 4789138.685073035 ; 0.0
153 ; 13513.125489917655 ; 31507.491349164655 ; 3021317.0009768656 ; 4820646.176422199 ; 0.0
154 ; 13307.756771937817 ; 31507.491349164655 ; 3034830.126466783 ; 4852153.667771364 ; 0.0
155 ; 13479.49327117505 ; 31507.491349164655 ; 3048137.883238721 ; 4883661.159120528 ; 0.0
156 ; 13205.028052861284 ; 31507.491349164655 ; 3061617.376509896 ; 4915168.650469692 ; 0.0
157 ; 13041.045020564676 ; 31507.491349164655 ; 3074822.4045627574 ; 4946676.141818857 ; 0.0
158 ; 12905.03713314208 ; 31507.491349164655 ; 3087863.449583322 ; 4978183.633168021 ; 0.0
159 ; 12759.925729712595 ; 31507.491349164655 ; 3100768.4867164637 ; 5009691.124517186 ; 0.0
160 ; 12869.059575433444 ; 31507.491349164655 ; 3113528.412446176 ; 5041198.61586635 ; 0.0
161 ; 12691.371811274214 ; 31507.491349164655 ; 3126397.4720216095 ; 5072706.107215514 ; 0.0
162 ; 12449.295132026084 ; 31507.491349164655 ; 3139088.843832884 ; 5104213.598564679 ; 0.0
163 ; 12555.618248382516 ; 31507.491349164655 ; 3151538.13896491 ; 5135721.089913843 ; 0.0
164 ; 12256.735697648255 ; 31507.491349164655 ; 3164093.7572132926 ; 5167228.581263008 ; 0.0
165 ; 12133.63968335835 ; 31507.491349164655 ; 3176350.492910941 ; 5198736.072612172 ; 0.0
166 ; 11906.319731509693 ; 31507.491349164655 ; 3188484.1325942995 ; 5230243.563961336 ; 0.0
167 ; 11916.80542232437 ; 31507.491349164655 ; 3200390.4523258093 ; 5261751.055310501 ; 0.0
168 ; 11606.89435566882 ; 31507.491349164655 ; 3212307.2577481335 ; 5293258.546659665 ; 0.0
169 ; 11451.217529030404 ; 31507.491349164655 ; 3223914.152103802 ; 5324766.03800883 ; 0.0
170 ; 11664.780779388393 ; 31507.491349164655 ; 3235365.3696328327 ; 5356273.529357994 ; 0.0
171 ; 11248.509680479085 ; 31507.491349164655 ; 3247030.150412221 ; 5387781.020707158 ; 0.0
172 ; 11126.368503525078 ; 31507.491349164655 ; 3258278.6600927003 ; 5419288.512056323 ; 0.0
173 ; 10954.806035922644 ; 31507.491349164655 ; 3269405.028596225 ; 5450796.003405487 ; 0.0
174 ; 10787.646954183876 ; 31507.491349164655 ; 3280359.834632148 ; 5482303.494754652 ; 0.0
175 ; 11035.860744702015 ; 31507.491349164655 ; 3291147.481586332 ; 5513810.986103816 ; 0.0
176 ; 11047.99379227423 ; 31507.491349164655 ; 3302183.342331034 ; 5545318.47745298 ; 0.0
177 ; 11171.404599584606 ; 31507.491349164655 ; 3313231.336123308 ; 5576825.968802145 ; 0.0
178 ; 11053.68306045574 ; 31507.491349164655 ; 3324402.740722893 ; 5608333.460151309 ; 0.0
179 ; 11222.19324460331 ; 31507.491349164655 ; 3335456.4237833484 ; 5639840.951500474 ; 0.0
180 ; 11110.820462951484 ; 31507.491349164655 ; 3346678.617027952 ; 5671348.442849638 ; 0.0
181 ; 11268.548512724561 ; 31507.491349164655 ; 3357789.4374909033 ; 5702855.934198802 ; 0.0
182 ; 11169.243557437778 ; 31507.491349164655 ; 3369057.986003628 ; 5734363.425547967 ; 0.0
183 ; 11175.721267724934 ; 31507.491349164655 ; 3380227.229561066 ; 5765870.916897131 ; 0.0
184 ; 11282.231549386222 ; 31507.491349164655 ; 3391402.9508287907 ; 5797378.4082462955 ; 0.0
185 ; 11272.421981548587 ; 31507.491349164655 ; 3402685.182378177 ; 5828885.89959546 ; 0.0
186 ; 11307.058267337228 ; 31507.491349164655 ; 3413957.6043597255 ; 5860393.390944624 ; 0.0
187 ; 11302.734138849832 ; 31507.491349164655 ; 3425264.6626270628 ; 5891900.882293789 ; 0.0
188 ; 11434.308225689854 ; 31507.491349164655 ; 3436567.3967659124 ; 5923408.373642953 ; 0.0
189 ; 11285.821099156767 ; 31507.491349164655 ; 3448001.7049916023 ; 5954915.8649921175 ; 0.0
190 ; 11499.479243610336 ; 31507.491349164655 ; 3459287.5260907593 ; 5986423.356341282 ; 0.0
191 ; 11485.955956730766 ; 31507.491349164655 ; 3470787.00533437 ; 6017930.847690446 ; 0.0
192 ; 11563.837664475775 ; 31507.491349164655 ; 3482272.961291101 ; 6049438.339039611 ; 0.0
193 ; 11425.149500023324 ; 31507.491349164655 ; 3493836.7989555765 ; 6080945.830388775 ; 0.0
194 ; 11546.681889626088 ; 31507.491349164655 ; 3505261.9484555996 ; 6112453.3217379395 ; 0.0
195 ; 11587.148497355329 ; 31507.491349164655 ; 3516808.630345226 ; 6143960.813087104 ; 0.0
196 ; 11569.494325149386 ; 31507.491349164655 ; 3528395.778842581 ; 6175468.304436268 ; 0.0
197 ; 11707.704707552855 ; 31507.491349164655 ; 3539965.2731677303 ; 6206975.795785433 ; 0.0
198 ; 11687.176267664425 ; 31507.491349164655 ; 3551672.977875283 ; 6238483.287134597 ; 0.0
199 ; 11647.120288000371 ; 31507.491349164655 ; 3563360.1541429474 ; 6269990.7784837615 ; 0.0
200 ; 11739.598035325787 ; 31507.491349164655 ; 3575007.274430948 ; 6301498.269832926 ; 0.0
201 ; 11738.24786628393 ; 31507.491349164655 ; 3586746.8724662736 ; 6333005.76118209 ; 0.0
202 ; 11770.957997316244 ; 31507.491349164655 ; 3598485.1203325577 ; 6364513.252531255 ; 0.0
203 ; 11689.2293417371 ; 31507.491349164655 ; 3610256.0783298737 ; 6396020.743880419 ; 0.0
204 ; 11713.112878831575 ; 31507.491349164655 ; 3621945.3076716107 ; 6427528.235229583 ; 0.0
205 ; 11817.73642574661 ; 31507.491349164655 ; 3633658.4205504423 ; 6459035.726578748 ; 0.0
206 ; 11791.517080822721 ; 31507.491349164655 ; 3645476.156976189 ; 6490543.217927912 ; 0.0
207 ; 11921.359254778752 ; 31507.491349164655 ; 3657267.6740570115 ; 6522050.709277077 ; 0.0
208 ; 11920.656802794492 ; 31507.491349164655 ; 3669189.0333117903 ; 6553558.200626241 ; 0.0
209 ; 12106.682624215477 ; 31507.491349164655 ; 3681109.6901145848 ; 6585065.691975405 ; 0.0
210 ; 12005.405639135348 ; 31507.491349164655 ; 3693216.3727388 ; 6616573.18332457 ; 0.0
211 ; 12060.247418621868 ; 31507.491349164655 ; 3705221.7783779353 ; 6648080.674673734 ; 0.0
212 ; 12124.725665415093 ; 31507.491349164655 ; 3717282.0257965573 ; 6679588.166022899 ; 0.0
213 ; 12123.685210519476 ; 31507.491349164655 ; 3729406.7514619725 ; 6711095.657372063 ; 0.0
