CSV File for the City 1 on Day 164
1 - Minute m 
2 - Power Consumed at minute m 
3 - Power Produced at minute m 
4 - Energy Consumed since the beginning of the day 
5 - Energy Produced since the beginning of the day 
6 - Energy Lost since the beginning of the day on lines starting from the city
 
0 ; 7522.010654324101 ; 2856.920008278743 ; 0.0 ; 0.0 ; 0.0
1 ; 8112.937571251876 ; 2856.920008278743 ; 7522.010654324101 ; 2856.920008278743 ; 238.00000000000003
2 ; 8456.895743369654 ; 2856.920008278743 ; 15634.948225575976 ; 5713.840016557486 ; 476.00000000000006
3 ; 9108.463024234592 ; 2856.920008278743 ; 24091.843968945628 ; 8570.760024836229 ; 714.0000000000001
4 ; 9495.842948200505 ; 2856.920008278743 ; 33200.30699318022 ; 11427.680033114972 ; 952.0000000000001
5 ; 9952.33593064888 ; 2856.920008278743 ; 42696.14994138072 ; 14284.600041393714 ; 1190.0000000000002
6 ; 10449.653565282326 ; 2856.920008278743 ; 52648.485872029596 ; 17141.520049672457 ; 1428.0000000000002
7 ; 11154.280158277885 ; 2856.920008278743 ; 63098.139437311926 ; 19998.4400579512 ; 1666.0000000000002
8 ; 11581.462343955225 ; 2856.920008278743 ; 74252.4195955898 ; 22855.360066229943 ; 1904.0000000000002
9 ; 11899.22371911671 ; 2856.920008278743 ; 85833.88193954503 ; 25712.280074508686 ; 2142.0000000000005
10 ; 12340.418004162007 ; 2856.920008278743 ; 97733.10565866173 ; 28569.20008278743 ; 2380.0000000000005
11 ; 12779.367966853071 ; 2856.920008278743 ; 110073.52366282375 ; 31426.120091066172 ; 2618.0000000000005
12 ; 13241.95334003983 ; 2856.920008278743 ; 122852.89162967681 ; 34283.040099344915 ; 2856.0000000000005
13 ; 13746.722942104925 ; 2856.920008278743 ; 136094.84496971665 ; 37139.96010762366 ; 3094.0000000000005
14 ; 14367.127407757212 ; 2856.920008278743 ; 149841.56791182156 ; 39996.8801159024 ; 3332.0000000000005
15 ; 14727.025221058322 ; 2856.920008278743 ; 164208.69531957878 ; 42853.80012418114 ; 3570.0000000000005
16 ; 15031.694474512642 ; 2856.920008278743 ; 178935.7205406371 ; 45710.72013245989 ; 3808.0000000000005
17 ; 15302.802863250112 ; 2856.920008278743 ; 193967.41501514975 ; 48567.64014073863 ; 4046.0000000000005
18 ; 15779.150615134353 ; 2856.920008278743 ; 209270.21787839985 ; 51424.56014901737 ; 4284.000000000001
19 ; 16325.925172736836 ; 2856.920008278743 ; 225049.36849353422 ; 54281.480157296115 ; 4522.000000000001
20 ; 16527.17596763832 ; 2856.920008278743 ; 241375.29366627106 ; 57138.40016557486 ; 4760.000000000001
21 ; 16981.197221401642 ; 2856.920008278743 ; 257902.46963390938 ; 59995.3201738536 ; 4998.000000000001
22 ; 17321.46104813665 ; 2856.920008278743 ; 274883.666855311 ; 62852.240182132344 ; 5236.000000000001
23 ; 17737.69250494651 ; 2856.920008278743 ; 292205.12790344766 ; 65709.16019041109 ; 5474.000000000001
24 ; 18267.972308036064 ; 2856.920008278743 ; 309942.82040839415 ; 68566.08019868983 ; 5712.000000000001
25 ; 18499.922488574957 ; 2856.920008278743 ; 328210.7927164302 ; 71423.00020696857 ; 5950.000000000001
26 ; 18903.87799333791 ; 2856.920008278743 ; 346710.71520500514 ; 74279.92021524732 ; 6188.000000000001
27 ; 19226.81830670292 ; 2856.920008278743 ; 365614.59319834306 ; 77136.84022352606 ; 6426.000000000001
28 ; 19608.658937713724 ; 2856.920008278743 ; 384841.411505046 ; 79993.7602318048 ; 6664.000000000001
29 ; 19750.543234160366 ; 2856.920008278743 ; 404450.0704427597 ; 82850.68024008354 ; 6902.000000000001
30 ; 20121.10297206173 ; 2856.920008278743 ; 424200.61367692007 ; 85707.60024836229 ; 7140.000000000001
31 ; 20614.396456521354 ; 2856.920008278743 ; 444321.7166489818 ; 88564.52025664103 ; 7378.000000000001
32 ; 20808.682289700857 ; 2856.920008278743 ; 464936.11310550314 ; 91421.44026491977 ; 7616.000000000001
33 ; 21131.199877083593 ; 2856.920008278743 ; 485744.795395204 ; 94278.36027319852 ; 7854.000000000001
34 ; 21296.51608118687 ; 2856.920008278743 ; 506875.9952722876 ; 97135.28028147726 ; 8092.000000000001
35 ; 21684.159915445965 ; 2856.920008278743 ; 528172.5113534745 ; 99992.200289756 ; 8330.000000000002
36 ; 21962.42913736764 ; 2856.920008278743 ; 549856.6712689204 ; 102849.12029803474 ; 8568.000000000002
37 ; 22388.302487342884 ; 2856.920008278743 ; 571819.100406288 ; 105706.04030631349 ; 8806.000000000002
38 ; 22506.110809390342 ; 2856.920008278743 ; 594207.4028936309 ; 108562.96031459223 ; 9044.000000000002
39 ; 23003.993150494854 ; 2856.920008278743 ; 616713.5137030212 ; 111419.88032287097 ; 9282.000000000002
40 ; 23212.606291216856 ; 2856.920008278743 ; 639717.5068535161 ; 114276.80033114972 ; 9520.000000000002
41 ; 23407.168257651858 ; 2856.920008278743 ; 662930.113144733 ; 117133.72033942846 ; 9758.000000000002
42 ; 23558.149483690526 ; 2856.920008278743 ; 686337.2814023849 ; 119990.6403477072 ; 9996.000000000002
43 ; 23951.235270290865 ; 2856.920008278743 ; 709895.4308860754 ; 122847.56035598594 ; 10234.000000000002
44 ; 24357.20692807802 ; 2856.920008278743 ; 733846.6661563662 ; 125704.48036426469 ; 10472.000000000002
45 ; 24323.491425068063 ; 2856.920008278743 ; 758203.8730844442 ; 128561.40037254343 ; 10710.000000000002
46 ; 24680.21790568224 ; 2856.920008278743 ; 782527.3645095123 ; 131418.32038082217 ; 10948.000000000002
47 ; 24971.856023735214 ; 2856.920008278743 ; 807207.5824151946 ; 134275.24038910092 ; 11186.000000000002
48 ; 25017.326583897207 ; 2856.920008278743 ; 832179.4384389299 ; 137132.16039737966 ; 11424.000000000002
49 ; 25201.180935373322 ; 2856.920008278743 ; 857196.7650228271 ; 139989.0804056584 ; 11662.000000000002
50 ; 25619.340072715186 ; 2856.920008278743 ; 882397.9459582004 ; 142846.00041393714 ; 11900.000000000002
51 ; 25641.812627487918 ; 2856.920008278743 ; 908017.2860309156 ; 145702.9204222159 ; 12138.000000000002
52 ; 25783.41282142808 ; 2856.920008278743 ; 933659.0986584035 ; 148559.84043049463 ; 12376.000000000002
53 ; 26070.19882500427 ; 2856.920008278743 ; 959442.5114798315 ; 151416.76043877337 ; 12614.000000000002
54 ; 26206.84765922546 ; 2856.920008278743 ; 985512.7103048358 ; 154273.68044705212 ; 12852.000000000002
55 ; 26203.589114862927 ; 2856.920008278743 ; 1011719.5579640613 ; 157130.60045533086 ; 13090.000000000002
56 ; 26445.641159779076 ; 2856.920008278743 ; 1037923.1470789242 ; 159987.5204636096 ; 13328.000000000002
57 ; 26728.11070412804 ; 2856.920008278743 ; 1064368.7882387033 ; 162844.44047188835 ; 13566.000000000002
58 ; 26743.063071132412 ; 2856.920008278743 ; 1091096.8989428312 ; 165701.3604801671 ; 13804.000000000002
59 ; 26930.674748547008 ; 2856.920008278743 ; 1117839.9620139636 ; 168558.28048844583 ; 14042.000000000002
60 ; 27200.708279645067 ; 2856.920008278743 ; 1144770.6367625105 ; 171415.20049672457 ; 14280.000000000002
61 ; 27245.244327726035 ; 2856.920008278743 ; 1171971.3450421556 ; 174272.12050500332 ; 14518.000000000002
62 ; 27344.389998502964 ; 2856.920008278743 ; 1199216.5893698817 ; 177129.04051328206 ; 14756.000000000002
63 ; 27603.54198832666 ; 2856.920008278743 ; 1226560.9793683847 ; 179985.9605215608 ; 14994.000000000002
64 ; 27732.736172695888 ; 2856.920008278743 ; 1254164.5213567114 ; 182842.88052983955 ; 15232.000000000002
65 ; 27805.721664499564 ; 2856.920008278743 ; 1281897.2575294073 ; 185699.8005381183 ; 15470.000000000002
66 ; 27902.42120641334 ; 2856.920008278743 ; 1309702.9791939068 ; 188556.72054639703 ; 15708.000000000002
67 ; 27883.41436436785 ; 2856.920008278743 ; 1337605.40040032 ; 191413.64055467577 ; 15946.000000000002
68 ; 28201.111177815572 ; 2856.920008278743 ; 1365488.814764688 ; 194270.56056295452 ; 16184.000000000002
69 ; 28371.277024536495 ; 2856.920008278743 ; 1393689.9259425036 ; 197127.48057123326 ; 16422.000000000004
70 ; 28201.156628273977 ; 2856.920008278743 ; 1422061.20296704 ; 199984.400579512 ; 16660.000000000004
71 ; 28191.23637017327 ; 2856.920008278743 ; 1450262.359595314 ; 202841.32058779075 ; 16898.000000000004
72 ; 28393.549947536383 ; 2856.920008278743 ; 1478453.5959654872 ; 205698.2405960695 ; 17136.000000000004
73 ; 28454.890159794784 ; 2856.920008278743 ; 1506847.1459130235 ; 208555.16060434823 ; 17374.000000000004
74 ; 28569.62692193508 ; 2856.920008278743 ; 1535302.0360728183 ; 211412.08061262697 ; 17612.000000000004
75 ; 28356.48306022648 ; 2856.920008278743 ; 1563871.6629947533 ; 214269.00062090572 ; 17850.000000000004
76 ; 28615.37030406098 ; 2856.920008278743 ; 1592228.1460549799 ; 217125.92062918446 ; 18088.000000000004
77 ; 28753.34806168654 ; 2856.920008278743 ; 1620843.5163590407 ; 219982.8406374632 ; 18326.000000000004
78 ; 28418.138624000534 ; 2856.920008278743 ; 1649596.8644207274 ; 222839.76064574195 ; 18564.000000000004
79 ; 28772.14142364088 ; 2856.920008278743 ; 1678015.003044728 ; 225696.6806540207 ; 18802.000000000004
80 ; 28748.850877500703 ; 2856.920008278743 ; 1706787.1444683687 ; 228553.60066229943 ; 19040.000000000004
81 ; 28758.903084728252 ; 2856.920008278743 ; 1735535.9953458693 ; 231410.52067057817 ; 19278.000000000004
82 ; 28604.996731126 ; 2856.920008278743 ; 1764294.8984305975 ; 234267.44067885692 ; 19516.000000000004
83 ; 28764.358903343757 ; 2856.920008278743 ; 1792899.8951617235 ; 237124.36068713566 ; 19754.000000000004
84 ; 28621.18713119342 ; 2856.920008278743 ; 1821664.2540650673 ; 239981.2806954144 ; 19992.000000000004
85 ; 28581.717529574293 ; 2856.920008278743 ; 1850285.4411962607 ; 242838.20070369315 ; 20230.000000000004
86 ; 28619.919062326626 ; 2856.920008278743 ; 1878867.158725835 ; 245695.1207119719 ; 20468.000000000004
87 ; 28675.38620432593 ; 2856.920008278743 ; 1907487.0777881616 ; 248552.04072025063 ; 20706.000000000004
88 ; 28451.894539799803 ; 2856.920008278743 ; 1936162.4639924874 ; 251408.96072852938 ; 20944.000000000004
89 ; 28256.276274820306 ; 2856.920008278743 ; 1964614.3585322872 ; 254265.88073680812 ; 21182.000000000004
90 ; 28496.43416082386 ; 2856.920008278743 ; 1992870.6348071075 ; 257122.80074508686 ; 21420.000000000004
91 ; 28418.54251079069 ; 2856.920008278743 ; 2021367.0689679314 ; 259979.7207533656 ; 21658.000000000004
92 ; 28373.57128450974 ; 2856.920008278743 ; 2049785.6114787222 ; 262836.64076164435 ; 21896.000000000004
93 ; 28347.909158133247 ; 2856.920008278743 ; 2078159.182763232 ; 265693.5607699231 ; 22134.000000000004
94 ; 28039.350519215528 ; 2856.920008278743 ; 2106507.0919213654 ; 268550.48077820183 ; 22372.000000000004
95 ; 28203.50067414129 ; 2856.920008278743 ; 2134546.442440581 ; 271407.4007864806 ; 22610.000000000004
96 ; 28163.213419304564 ; 2856.920008278743 ; 2162749.943114722 ; 274264.3207947593 ; 22848.000000000004
97 ; 27818.993713064323 ; 2856.920008278743 ; 2190913.156534027 ; 277121.24080303806 ; 23086.000000000004
98 ; 27943.89979513447 ; 2856.920008278743 ; 2218732.150247091 ; 279978.1608113168 ; 23324.000000000004
99 ; 27743.228258894 ; 2856.920008278743 ; 2246676.0500422255 ; 282835.08081959555 ; 23562.000000000004
100 ; 27761.274657648755 ; 2856.920008278743 ; 2274419.2783011193 ; 285692.0008278743 ; 23800.000000000004
101 ; 27437.30672245176 ; 2856.920008278743 ; 2302180.552958768 ; 288548.92083615303 ; 24038.000000000004
102 ; 27454.89038851985 ; 2856.920008278743 ; 2329617.85968122 ; 291405.8408444318 ; 24276.000000000004
103 ; 27154.927441876658 ; 2856.920008278743 ; 2357072.7500697398 ; 294262.7608527105 ; 24514.000000000004
104 ; 26989.88094808255 ; 2856.920008278743 ; 2384227.6775116166 ; 297119.68086098926 ; 24752.000000000004
105 ; 26971.859228647532 ; 2856.920008278743 ; 2411217.558459699 ; 299976.600869268 ; 24990.000000000004
106 ; 26998.660085253592 ; 2856.920008278743 ; 2438189.4176883465 ; 302833.52087754675 ; 25228.000000000004
107 ; 26700.792572257495 ; 2856.920008278743 ; 2465188.0777736 ; 305690.4408858255 ; 25466.000000000004
108 ; 26269.046718176094 ; 2856.920008278743 ; 2491888.8703458575 ; 308547.36089410423 ; 25704.000000000004
109 ; 26381.885085830814 ; 2856.920008278743 ; 2518157.9170640334 ; 311404.280902383 ; 25942.000000000004
110 ; 26238.287487917198 ; 2856.920008278743 ; 2544539.8021498644 ; 314261.2009106617 ; 26180.000000000004
111 ; 25954.348619182205 ; 2856.920008278743 ; 2570778.0896377815 ; 317118.12091894046 ; 26418.000000000004
112 ; 25844.39522912101 ; 2856.920008278743 ; 2596732.4382569636 ; 319975.0409272192 ; 26656.000000000004
113 ; 25481.081794539554 ; 2856.920008278743 ; 2622576.833486085 ; 322831.96093549795 ; 26894.000000000004
114 ; 25402.698585071917 ; 2856.920008278743 ; 2648057.9152806243 ; 325688.8809437767 ; 27132.000000000004
115 ; 25096.26520141166 ; 2856.920008278743 ; 2673460.6138656964 ; 328545.80095205543 ; 27370.000000000004
116 ; 24855.59563157085 ; 2856.920008278743 ; 2698556.879067108 ; 331402.7209603342 ; 27608.000000000004
117 ; 24766.509162902494 ; 2856.920008278743 ; 2723412.474698679 ; 334259.6409686129 ; 27846.000000000004
118 ; 24608.108801200393 ; 2856.920008278743 ; 2748178.9838615814 ; 337116.56097689166 ; 28084.000000000004
119 ; 24339.52676814544 ; 2856.920008278743 ; 2772787.092662782 ; 339973.4809851704 ; 28322.000000000004
120 ; 23964.829457796684 ; 2856.920008278743 ; 2797126.6194309276 ; 342830.40099344915 ; 28560.000000000004
121 ; 23815.39830778668 ; 2856.920008278743 ; 2821091.448888724 ; 345687.3210017279 ; 28798.000000000004
122 ; 23412.884907044685 ; 2856.920008278743 ; 2844906.847196511 ; 348544.24101000663 ; 29036.000000000004
123 ; 23272.812151012477 ; 2856.920008278743 ; 2868319.7321035555 ; 351401.1610182854 ; 29274.000000000004
124 ; 23054.077545281878 ; 2856.920008278743 ; 2891592.544254568 ; 354258.0810265641 ; 29512.000000000004
125 ; 22658.38639849021 ; 2856.920008278743 ; 2914646.62179985 ; 357115.00103484286 ; 29750.000000000004
126 ; 22419.907314623964 ; 2856.920008278743 ; 2937305.00819834 ; 359971.9210431216 ; 29988.000000000004
127 ; 22114.32749257549 ; 2856.920008278743 ; 2959724.915512964 ; 362828.84105140035 ; 30226.000000000004
128 ; 21968.065046311836 ; 2856.920008278743 ; 2981839.2430055398 ; 365685.7610596791 ; 30464.000000000004
129 ; 21558.884375057653 ; 2856.920008278743 ; 3003807.3080518516 ; 368542.68106795783 ; 30702.000000000004
130 ; 21279.81244580842 ; 2856.920008278743 ; 3025366.192426909 ; 371399.6010762366 ; 30940.000000000004
131 ; 20820.077718266562 ; 2856.920008278743 ; 3046646.0048727174 ; 374256.5210845153 ; 31178.000000000004
132 ; 20667.50131249583 ; 2856.920008278743 ; 3067466.082590984 ; 377113.44109279406 ; 31416.000000000004
133 ; 20212.99896185648 ; 2856.920008278743 ; 3088133.58390348 ; 379970.3611010728 ; 31654.000000000004
134 ; 19939.86808307528 ; 2856.920008278743 ; 3108346.5828653364 ; 382827.28110935155 ; 31892.000000000004
135 ; 19732.621410688836 ; 2856.920008278743 ; 3128286.4509484116 ; 385684.2011176303 ; 32130.000000000004
136 ; 19346.03685766645 ; 2856.920008278743 ; 3148019.0723591004 ; 388541.12112590903 ; 32368.000000000004
137 ; 19217.648113988012 ; 2856.920008278743 ; 3167365.109216767 ; 391398.0411341878 ; 32606.000000000004
138 ; 18630.18583008457 ; 2856.920008278743 ; 3186582.757330755 ; 394254.9611424665 ; 32844.00000000001
139 ; 18174.660239351164 ; 2856.920008278743 ; 3205212.9431608394 ; 397111.88115074526 ; 33082.00000000001
140 ; 17887.551564507758 ; 2856.920008278743 ; 3223387.6034001904 ; 399968.801159024 ; 33320.00000000001
141 ; 17524.26774769129 ; 2856.920008278743 ; 3241275.154964698 ; 402825.72116730275 ; 33558.00000000001
142 ; 17197.338324095046 ; 2856.920008278743 ; 3258799.4227123894 ; 405682.6411755815 ; 33796.00000000001
143 ; 16681.237495926765 ; 2856.920008278743 ; 3275996.7610364845 ; 408539.56118386023 ; 34034.00000000001
144 ; 16467.456253434204 ; 2856.920008278743 ; 3292677.998532411 ; 411396.481192139 ; 34272.00000000001
145 ; 16541.450912866378 ; 2856.920008278743 ; 3309145.4547858452 ; 414253.4012004177 ; 34510.00000000001
146 ; 16058.234031400221 ; 2856.920008278743 ; 3325686.9056987115 ; 417110.32120869646 ; 34748.00000000001
147 ; 16036.6938049721 ; 2856.920008278743 ; 3341745.1397301117 ; 419967.2412169752 ; 34986.00000000001
148 ; 15899.80907950437 ; 2856.920008278743 ; 3357781.8335350836 ; 422824.16122525395 ; 35224.00000000001
149 ; 15749.328325289061 ; 2856.920008278743 ; 3373681.642614588 ; 425681.0812335327 ; 35462.00000000001
150 ; 15696.16143232328 ; 2856.920008278743 ; 3389430.970939877 ; 428538.00124181143 ; 35700.00000000001
151 ; 15505.685685995953 ; 2856.920008278743 ; 3405127.1323722005 ; 431394.9212500902 ; 35938.00000000001
152 ; 15436.537839471557 ; 2856.920008278743 ; 3420632.8180581965 ; 434251.8412583689 ; 36176.00000000001
153 ; 15284.489041613215 ; 2856.920008278743 ; 3436069.355897668 ; 437108.76126664766 ; 36414.00000000001
154 ; 15370.597206767427 ; 2856.920008278743 ; 3451353.844939281 ; 439965.6812749264 ; 36652.00000000001
155 ; 15218.940861220897 ; 2856.920008278743 ; 3466724.442146049 ; 442822.60128320515 ; 36890.00000000001
156 ; 14858.4605176373 ; 2856.920008278743 ; 3481943.38300727 ; 445679.5212914839 ; 37128.00000000001
157 ; 14815.836066615435 ; 2856.920008278743 ; 3496801.8435249072 ; 448536.44129976264 ; 37366.00000000001
158 ; 14713.756173974438 ; 2856.920008278743 ; 3511617.6795915226 ; 451393.3613080414 ; 37604.00000000001
159 ; 14553.743341535146 ; 2856.920008278743 ; 3526331.435765497 ; 454250.2813163201 ; 37842.00000000001
160 ; 14329.887587642876 ; 2856.920008278743 ; 3540885.1791070323 ; 457107.20132459886 ; 38080.00000000001
161 ; 14198.127703318114 ; 2856.920008278743 ; 3555215.066694675 ; 459964.1213328776 ; 38318.00000000001
162 ; 13998.14864944013 ; 2856.920008278743 ; 3569413.194397993 ; 462821.04134115635 ; 38556.00000000001
163 ; 13989.224952056182 ; 2856.920008278743 ; 3583411.343047433 ; 465677.9613494351 ; 38794.00000000001
164 ; 13634.51413232785 ; 2856.920008278743 ; 3597400.567999489 ; 468534.88135771384 ; 39032.00000000001
165 ; 13723.329923591662 ; 2856.920008278743 ; 3611035.082131817 ; 471391.8013659926 ; 39270.00000000001
166 ; 13503.634868514873 ; 2856.920008278743 ; 3624758.4120554086 ; 474248.7213742713 ; 39508.00000000001
167 ; 13387.138295644674 ; 2856.920008278743 ; 3638262.0469239233 ; 477105.64138255006 ; 39746.00000000001
168 ; 13429.623951358433 ; 2856.920008278743 ; 3651649.185219568 ; 479962.5613908288 ; 39984.00000000001
169 ; 12861.505472223187 ; 2856.920008278743 ; 3665078.8091709265 ; 482819.48139910755 ; 40222.00000000001
170 ; 12849.640570057933 ; 2856.920008278743 ; 3677940.3146431497 ; 485676.4014073863 ; 40460.00000000001
171 ; 12621.980627291638 ; 2856.920008278743 ; 3690789.9552132078 ; 488533.32141566504 ; 40698.00000000001
172 ; 12414.228614691625 ; 2856.920008278743 ; 3703411.9358404996 ; 491390.2414239438 ; 40936.00000000001
173 ; 12394.864089982604 ; 2856.920008278743 ; 3715826.164455191 ; 494247.1614322225 ; 41174.00000000001
174 ; 12567.219053365045 ; 2856.920008278743 ; 3728221.028545174 ; 497104.08144050126 ; 41412.00000000001
175 ; 12343.963434641444 ; 2856.920008278743 ; 3740788.2475985386 ; 499961.00144878 ; 41650.00000000001
176 ; 12439.975754268298 ; 2856.920008278743 ; 3753132.21103318 ; 502817.92145705875 ; 41888.00000000001
177 ; 12516.861632217771 ; 2856.920008278743 ; 3765572.1867874484 ; 505674.8414653375 ; 42126.00000000001
178 ; 12561.593226790616 ; 2856.920008278743 ; 3778089.048419666 ; 508531.76147361624 ; 42364.00000000001
179 ; 12724.818373249354 ; 2856.920008278743 ; 3790650.6416464564 ; 511388.681481895 ; 42602.00000000001
180 ; 12729.067264843963 ; 2856.920008278743 ; 3803375.460019706 ; 514245.6014901737 ; 42840.00000000001
181 ; 12587.768731016018 ; 2856.920008278743 ; 3816104.5272845495 ; 517102.52149845246 ; 43078.00000000001
182 ; 12757.501161830163 ; 2856.920008278743 ; 3828692.2960155657 ; 519959.4415067312 ; 43316.00000000001
183 ; 12585.714493756313 ; 2856.920008278743 ; 3841449.797177396 ; 522816.36151500995 ; 43554.00000000001
184 ; 12649.53373184726 ; 2856.920008278743 ; 3854035.511671152 ; 525673.2815232887 ; 43792.00000000001
185 ; 12774.5864892783 ; 2856.920008278743 ; 3866685.045402999 ; 528530.2015315674 ; 44030.00000000001
186 ; 12714.482508603207 ; 2856.920008278743 ; 3879459.6318922774 ; 531387.1215398461 ; 44268.00000000001
