CSV File for the City 1 on Day 258
1 - Minute m 
2 - Power Consumed at minute m 
3 - Power Produced at minute m 
4 - Energy Consumed since the beginning of the day 
5 - Energy Produced since the beginning of the day 
6 - Energy Lost since the beginning of the day on lines starting from the city
 
0 ; 6752.382191277643 ; 2687.7120348520148 ; 0.0 ; 0.0 ; 0.0
1 ; 7361.4800986605815 ; 2687.7120348520148 ; 6752.382191277643 ; 2687.7120348520148 ; 238.00000000000003
2 ; 7874.255759787498 ; 2687.7120348520148 ; 14113.862289938224 ; 5375.4240697040295 ; 476.00000000000006
3 ; 8282.121702413828 ; 2687.7120348520148 ; 21988.118049725723 ; 8063.136104556044 ; 714.0000000000001
4 ; 8807.145423339518 ; 2687.7120348520148 ; 30270.23975213955 ; 10750.848139408059 ; 952.0000000000001
5 ; 9375.950189567984 ; 2687.7120348520148 ; 39077.38517547907 ; 13438.560174260074 ; 1190.0000000000002
6 ; 10047.84105415807 ; 2687.7120348520148 ; 48453.33536504705 ; 16126.272209112089 ; 1428.0000000000002
7 ; 10446.184997006521 ; 2687.7120348520148 ; 58501.17641920512 ; 18813.984243964103 ; 1666.0000000000002
8 ; 10885.425823552787 ; 2687.7120348520148 ; 68947.36141621164 ; 21501.696278816118 ; 1904.0000000000002
9 ; 11284.64210450919 ; 2687.7120348520148 ; 79832.78723976442 ; 24189.408313668133 ; 2142.0000000000005
10 ; 11944.939257528496 ; 2687.7120348520148 ; 91117.42934427361 ; 26877.120348520148 ; 2380.0000000000005
11 ; 12175.679542810136 ; 2687.7120348520148 ; 103062.36860180211 ; 29564.832383372162 ; 2618.0000000000005
12 ; 12867.696576123988 ; 2687.7120348520148 ; 115238.04814461224 ; 32252.544418224177 ; 2856.0000000000005
13 ; 13410.505807919373 ; 2687.7120348520148 ; 128105.74472073623 ; 34940.25645307619 ; 3094.0000000000005
14 ; 13749.03561759359 ; 2687.7120348520148 ; 141516.2505286556 ; 37627.9684879282 ; 3332.0000000000005
15 ; 14395.511733404219 ; 2687.7120348520148 ; 155265.2861462492 ; 40315.68052278021 ; 3570.0000000000005
16 ; 14633.39818008569 ; 2687.7120348520148 ; 169660.7978796534 ; 43003.39255763222 ; 3808.0000000000005
17 ; 15047.999836166344 ; 2687.7120348520148 ; 184294.1960597391 ; 45691.10459248423 ; 4046.0000000000005
18 ; 15539.185802883705 ; 2687.7120348520148 ; 199342.19589590543 ; 48378.816627336244 ; 4284.000000000001
19 ; 15988.820956044914 ; 2687.7120348520148 ; 214881.38169878913 ; 51066.528662188255 ; 4522.000000000001
20 ; 16266.534619155993 ; 2687.7120348520148 ; 230870.20265483405 ; 53754.240697040266 ; 4760.000000000001
21 ; 16692.816610750164 ; 2687.7120348520148 ; 247136.73727399003 ; 56441.95273189228 ; 4998.000000000001
22 ; 16861.948773787004 ; 2687.7120348520148 ; 263829.5538847402 ; 59129.66476674429 ; 5236.000000000001
23 ; 17482.451697489712 ; 2687.7120348520148 ; 280691.5026585272 ; 61817.3768015963 ; 5474.000000000001
24 ; 18026.627886975195 ; 2687.7120348520148 ; 298173.95435601694 ; 64505.08883644831 ; 5712.000000000001
25 ; 18161.06218235434 ; 2687.7120348520148 ; 316200.5822429921 ; 67192.80087130032 ; 5950.000000000001
26 ; 18709.81859861044 ; 2687.7120348520148 ; 334361.64442534646 ; 69880.51290615233 ; 6188.000000000001
27 ; 19121.053797701006 ; 2687.7120348520148 ; 353071.4630239569 ; 72568.22494100434 ; 6426.000000000001
28 ; 19400.297044817045 ; 2687.7120348520148 ; 372192.51682165795 ; 75255.93697585636 ; 6664.000000000001
29 ; 19948.246366834555 ; 2687.7120348520148 ; 391592.813866475 ; 77943.64901070837 ; 6902.000000000001
30 ; 20253.341388711004 ; 2687.7120348520148 ; 411541.0602333096 ; 80631.36104556038 ; 7140.000000000001
31 ; 20443.56451712431 ; 2687.7120348520148 ; 431794.4016220206 ; 83319.07308041239 ; 7378.000000000001
32 ; 20864.300773619758 ; 2687.7120348520148 ; 452237.9661391449 ; 86006.7851152644 ; 7616.000000000001
33 ; 21236.581708320973 ; 2687.7120348520148 ; 473102.26691276464 ; 88694.49715011641 ; 7854.000000000001
34 ; 21444.708410284737 ; 2687.7120348520148 ; 494338.84862108564 ; 91382.20918496842 ; 8092.000000000001
35 ; 21814.888375992392 ; 2687.7120348520148 ; 515783.55703137035 ; 94069.92121982043 ; 8330.000000000002
36 ; 22018.249103733324 ; 2687.7120348520148 ; 537598.4454073628 ; 96757.63325467244 ; 8568.000000000002
37 ; 22395.68498268745 ; 2687.7120348520148 ; 559616.6945110961 ; 99445.34528952446 ; 8806.000000000002
38 ; 22844.279018330537 ; 2687.7120348520148 ; 582012.3794937836 ; 102133.05732437647 ; 9044.000000000002
39 ; 22931.41018967297 ; 2687.7120348520148 ; 604856.6585121141 ; 104820.76935922848 ; 9282.000000000002
40 ; 23371.84264526649 ; 2687.7120348520148 ; 627788.068701787 ; 107508.48139408049 ; 9520.000000000002
41 ; 23544.569196498287 ; 2687.7120348520148 ; 651159.9113470535 ; 110196.1934289325 ; 9758.000000000002
42 ; 23900.6479853488 ; 2687.7120348520148 ; 674704.4805435517 ; 112883.90546378451 ; 9996.000000000002
43 ; 23987.39569731042 ; 2687.7120348520148 ; 698605.1285289006 ; 115571.61749863652 ; 10234.000000000002
44 ; 24372.98689113674 ; 2687.7120348520148 ; 722592.524226211 ; 118259.32953348853 ; 10472.000000000002
45 ; 24672.685925062415 ; 2687.7120348520148 ; 746965.5111173477 ; 120947.04156834054 ; 10710.000000000002
46 ; 24651.43933149639 ; 2687.7120348520148 ; 771638.1970424101 ; 123634.75360319256 ; 10948.000000000002
47 ; 25068.409332718154 ; 2687.7120348520148 ; 796289.6363739065 ; 126322.46563804457 ; 11186.000000000002
48 ; 25209.024643288078 ; 2687.7120348520148 ; 821358.0457066246 ; 129010.17767289658 ; 11424.000000000002
49 ; 25507.306277933538 ; 2687.7120348520148 ; 846567.0703499127 ; 131697.8897077486 ; 11662.000000000002
50 ; 25872.482221174003 ; 2687.7120348520148 ; 872074.3766278463 ; 134385.60174260061 ; 11900.000000000002
51 ; 25836.610059681436 ; 2687.7120348520148 ; 897946.8588490203 ; 137073.31377745263 ; 12138.000000000002
52 ; 26226.131431037724 ; 2687.7120348520148 ; 923783.4689087018 ; 139761.02581230464 ; 12376.000000000002
53 ; 26455.713238139324 ; 2687.7120348520148 ; 950009.6003397395 ; 142448.73784715665 ; 12614.000000000002
54 ; 26634.904603802894 ; 2687.7120348520148 ; 976465.3135778788 ; 145136.44988200866 ; 12852.000000000002
55 ; 26811.674049131652 ; 2687.7120348520148 ; 1003100.2181816817 ; 147824.16191686067 ; 13090.000000000002
56 ; 27012.12671953033 ; 2687.7120348520148 ; 1029911.8922308134 ; 150511.87395171268 ; 13328.000000000002
57 ; 26932.019111223348 ; 2687.7120348520148 ; 1056924.0189503438 ; 153199.5859865647 ; 13566.000000000002
58 ; 27113.46619292366 ; 2687.7120348520148 ; 1083856.0380615671 ; 155887.2980214167 ; 13804.000000000002
59 ; 27479.63672376141 ; 2687.7120348520148 ; 1110969.5042544908 ; 158575.01005626871 ; 14042.000000000002
60 ; 27642.568007720496 ; 2687.7120348520148 ; 1138449.1409782523 ; 161262.72209112073 ; 14280.000000000002
61 ; 27575.918646395137 ; 2687.7120348520148 ; 1166091.7089859727 ; 163950.43412597274 ; 14518.000000000002
62 ; 27951.64486992928 ; 2687.7120348520148 ; 1193667.627632368 ; 166638.14616082475 ; 14756.000000000002
63 ; 27961.147164634207 ; 2687.7120348520148 ; 1221619.272502297 ; 169325.85819567676 ; 14994.000000000002
64 ; 28239.015477391345 ; 2687.7120348520148 ; 1249580.4196669313 ; 172013.57023052877 ; 15232.000000000002
65 ; 28095.841953790965 ; 2687.7120348520148 ; 1277819.4351443227 ; 174701.28226538078 ; 15470.000000000002
66 ; 28258.589279795342 ; 2687.7120348520148 ; 1305915.2770981137 ; 177388.9943002328 ; 15708.000000000002
67 ; 28398.983908894268 ; 2687.7120348520148 ; 1334173.866377909 ; 180076.7063350848 ; 15946.000000000002
68 ; 28333.28146283119 ; 2687.7120348520148 ; 1362572.8502868032 ; 182764.41836993681 ; 16184.000000000002
69 ; 28618.780775684212 ; 2687.7120348520148 ; 1390906.1317496344 ; 185452.13040478883 ; 16422.000000000004
70 ; 28657.55508660864 ; 2687.7120348520148 ; 1419524.9125253186 ; 188139.84243964084 ; 16660.000000000004
71 ; 28640.69440275839 ; 2687.7120348520148 ; 1448182.4676119273 ; 190827.55447449285 ; 16898.000000000004
72 ; 28772.812180800152 ; 2687.7120348520148 ; 1476823.1620146858 ; 193515.26650934486 ; 17136.000000000004
73 ; 28892.027529229243 ; 2687.7120348520148 ; 1505595.974195486 ; 196202.97854419687 ; 17374.000000000004
74 ; 28906.35371506343 ; 2687.7120348520148 ; 1534488.001724715 ; 198890.69057904888 ; 17612.000000000004
75 ; 28991.88874637761 ; 2687.7120348520148 ; 1563394.3554397787 ; 201578.4026139009 ; 17850.000000000004
76 ; 29076.088331231374 ; 2687.7120348520148 ; 1592386.2441861562 ; 204266.1146487529 ; 18088.000000000004
77 ; 29055.688552454936 ; 2687.7120348520148 ; 1621462.3325173876 ; 206953.82668360492 ; 18326.000000000004
78 ; 29105.159625484826 ; 2687.7120348520148 ; 1650518.0210698426 ; 209641.53871845693 ; 18564.000000000004
79 ; 29211.544047999814 ; 2687.7120348520148 ; 1679623.1806953275 ; 212329.25075330894 ; 18802.000000000004
80 ; 29438.57666676785 ; 2687.7120348520148 ; 1708834.7247433274 ; 215016.96278816095 ; 19040.000000000004
81 ; 29376.11142954153 ; 2687.7120348520148 ; 1738273.3014100953 ; 217704.67482301296 ; 19278.000000000004
82 ; 29081.745829727206 ; 2687.7120348520148 ; 1767649.412839637 ; 220392.38685786497 ; 19516.000000000004
83 ; 29272.656796490915 ; 2687.7120348520148 ; 1796731.1586693642 ; 223080.09889271698 ; 19754.000000000004
84 ; 29405.316499323897 ; 2687.7120348520148 ; 1826003.8154658552 ; 225767.810927569 ; 19992.000000000004
85 ; 29138.800734980865 ; 2687.7120348520148 ; 1855409.131965179 ; 228455.522962421 ; 20230.000000000004
86 ; 29167.84734710572 ; 2687.7120348520148 ; 1884547.93270016 ; 231143.23499727302 ; 20468.000000000004
87 ; 29176.718612593435 ; 2687.7120348520148 ; 1913715.7800472656 ; 233830.94703212503 ; 20706.000000000004
88 ; 29040.18298556038 ; 2687.7120348520148 ; 1942892.498659859 ; 236518.65906697704 ; 20944.000000000004
89 ; 29150.987357789454 ; 2687.7120348520148 ; 1971932.6816454192 ; 239206.37110182905 ; 21182.000000000004
90 ; 28948.38824309303 ; 2687.7120348520148 ; 2001083.6690032086 ; 241894.08313668106 ; 21420.000000000004
91 ; 29038.284497605204 ; 2687.7120348520148 ; 2030032.0572463016 ; 244581.79517153307 ; 21658.000000000004
92 ; 28901.233298668303 ; 2687.7120348520148 ; 2059070.3417439067 ; 247269.50720638508 ; 21896.000000000004
93 ; 28831.26371099448 ; 2687.7120348520148 ; 2087971.5750425751 ; 249957.2192412371 ; 22134.000000000004
94 ; 28682.750493505515 ; 2687.7120348520148 ; 2116802.8387535694 ; 252644.9312760891 ; 22372.000000000004
95 ; 28522.353014241042 ; 2687.7120348520148 ; 2145485.589247075 ; 255332.64331094112 ; 22610.000000000004
96 ; 28512.81254644808 ; 2687.7120348520148 ; 2174007.942261316 ; 258020.35534579313 ; 22848.000000000004
97 ; 28511.10041610208 ; 2687.7120348520148 ; 2202520.7548077637 ; 260708.06738064514 ; 23086.000000000004
98 ; 28499.111323226523 ; 2687.7120348520148 ; 2231031.8552238657 ; 263395.77941549715 ; 23324.000000000004
99 ; 28151.884213078854 ; 2687.7120348520148 ; 2259530.9665470924 ; 266083.49145034916 ; 23562.000000000004
100 ; 28216.772609605727 ; 2687.7120348520148 ; 2287682.850760171 ; 268771.2034852012 ; 23800.000000000004
101 ; 28131.61953184368 ; 2687.7120348520148 ; 2315899.623369777 ; 271458.9155200532 ; 24038.000000000004
102 ; 28021.630766205188 ; 2687.7120348520148 ; 2344031.242901621 ; 274146.6275549052 ; 24276.000000000004
103 ; 27734.043847206278 ; 2687.7120348520148 ; 2372052.873667826 ; 276834.3395897572 ; 24514.000000000004
104 ; 27595.240510043644 ; 2687.7120348520148 ; 2399786.917515032 ; 279522.0516246092 ; 24752.000000000004
105 ; 27492.21541091939 ; 2687.7120348520148 ; 2427382.1580250757 ; 282209.7636594612 ; 24990.000000000004
106 ; 27235.932168017167 ; 2687.7120348520148 ; 2454874.373435995 ; 284897.47569431324 ; 25228.000000000004
107 ; 27133.181352836335 ; 2687.7120348520148 ; 2482110.305604012 ; 287585.18772916525 ; 25466.000000000004
108 ; 26941.361962916224 ; 2687.7120348520148 ; 2509243.4869568488 ; 290272.89976401726 ; 25704.000000000004
109 ; 26863.986191867614 ; 2687.7120348520148 ; 2536184.848919765 ; 292960.6117988693 ; 25942.000000000004
110 ; 26534.385800485892 ; 2687.7120348520148 ; 2563048.8351116325 ; 295648.3238337213 ; 26180.000000000004
111 ; 26344.624258783555 ; 2687.7120348520148 ; 2589583.2209121184 ; 298336.0358685733 ; 26418.000000000004
112 ; 26128.34123549364 ; 2687.7120348520148 ; 2615927.845170902 ; 301023.7479034253 ; 26656.000000000004
113 ; 26141.967168373234 ; 2687.7120348520148 ; 2642056.186406396 ; 303711.4599382773 ; 26894.000000000004
114 ; 25870.679415829574 ; 2687.7120348520148 ; 2668198.153574769 ; 306399.1719731293 ; 27132.000000000004
115 ; 25836.60313081787 ; 2687.7120348520148 ; 2694068.8329905984 ; 309086.88400798134 ; 27370.000000000004
116 ; 25402.900361020453 ; 2687.7120348520148 ; 2719905.4361214163 ; 311774.59604283335 ; 27608.000000000004
117 ; 25248.84224430417 ; 2687.7120348520148 ; 2745308.336482437 ; 314462.30807768536 ; 27846.000000000004
118 ; 25116.039351213076 ; 2687.7120348520148 ; 2770557.178726741 ; 317150.0201125374 ; 28084.000000000004
119 ; 24646.00891810711 ; 2687.7120348520148 ; 2795673.2180779544 ; 319837.7321473894 ; 28322.000000000004
120 ; 24511.48860635518 ; 2687.7120348520148 ; 2820319.2269960614 ; 322525.4441822414 ; 28560.000000000004
121 ; 24200.649909128435 ; 2687.7120348520148 ; 2844830.7156024165 ; 325213.1562170934 ; 28798.000000000004
122 ; 24011.252111367732 ; 2687.7120348520148 ; 2869031.365511545 ; 327900.8682519454 ; 29036.000000000004
123 ; 23628.31549813421 ; 2687.7120348520148 ; 2893042.617622913 ; 330588.5802867974 ; 29274.000000000004
124 ; 23434.780718349215 ; 2687.7120348520148 ; 2916670.933121047 ; 333276.29232164944 ; 29512.000000000004
125 ; 23095.24568799609 ; 2687.7120348520148 ; 2940105.7138393964 ; 335964.00435650145 ; 29750.000000000004
126 ; 22875.647249944835 ; 2687.7120348520148 ; 2963200.9595273924 ; 338651.71639135346 ; 29988.000000000004
127 ; 22543.12495668588 ; 2687.7120348520148 ; 2986076.6067773374 ; 341339.4284262055 ; 30226.000000000004
128 ; 22233.984332182237 ; 2687.7120348520148 ; 3008619.7317340234 ; 344027.1404610575 ; 30464.000000000004
129 ; 21802.517311015978 ; 2687.7120348520148 ; 3030853.716066206 ; 346714.8524959095 ; 30702.000000000004
130 ; 21507.54170962857 ; 2687.7120348520148 ; 3052656.233377222 ; 349402.5645307615 ; 30940.000000000004
131 ; 21347.02461337271 ; 2687.7120348520148 ; 3074163.7750868504 ; 352090.2765656135 ; 31178.000000000004
132 ; 20799.44887503291 ; 2687.7120348520148 ; 3095510.799700223 ; 354777.9886004655 ; 31416.000000000004
133 ; 20657.95160308709 ; 2687.7120348520148 ; 3116310.2485752557 ; 357465.70063531754 ; 31654.000000000004
134 ; 20332.314567400634 ; 2687.7120348520148 ; 3136968.200178343 ; 360153.41267016955 ; 31892.000000000004
135 ; 19871.016954820752 ; 2687.7120348520148 ; 3157300.5147457435 ; 362841.12470502156 ; 32130.000000000004
136 ; 19581.969837303892 ; 2687.7120348520148 ; 3177171.531700564 ; 365528.8367398736 ; 32368.000000000004
137 ; 19176.678801294733 ; 2687.7120348520148 ; 3196753.501537868 ; 368216.5487747256 ; 32606.000000000004
138 ; 18926.837057771427 ; 2687.7120348520148 ; 3215930.1803391627 ; 370904.2608095776 ; 32844.00000000001
139 ; 18392.522022356436 ; 2687.7120348520148 ; 3234857.0173969343 ; 373591.9728444296 ; 33082.00000000001
140 ; 18117.867664613746 ; 2687.7120348520148 ; 3253249.5394192906 ; 376279.6848792816 ; 33320.00000000001
141 ; 17925.62512769948 ; 2687.7120348520148 ; 3271367.4070839044 ; 378967.3969141336 ; 33558.00000000001
142 ; 17341.58963912792 ; 2687.7120348520148 ; 3289293.032211604 ; 381655.10894898564 ; 33796.00000000001
143 ; 16772.855702646553 ; 2687.7120348520148 ; 3306634.621850732 ; 384342.82098383765 ; 34034.00000000001
144 ; 16606.26168401199 ; 2687.7120348520148 ; 3323407.4775533783 ; 387030.53301868966 ; 34272.00000000001
145 ; 16415.434321477314 ; 2687.7120348520148 ; 3340013.7392373905 ; 389718.2450535417 ; 34510.00000000001
146 ; 16194.515100078313 ; 2687.7120348520148 ; 3356429.173558868 ; 392405.9570883937 ; 34748.00000000001
147 ; 16318.584982704866 ; 2687.7120348520148 ; 3372623.688658946 ; 395093.6691232457 ; 34986.00000000001
148 ; 16132.343310052105 ; 2687.7120348520148 ; 3388942.273641651 ; 397781.3811580977 ; 35224.00000000001
149 ; 15804.41940301732 ; 2687.7120348520148 ; 3405074.616951703 ; 400469.0931929497 ; 35462.00000000001
150 ; 16015.102054576917 ; 2687.7120348520148 ; 3420879.0363547206 ; 403156.8052278017 ; 35700.00000000001
151 ; 15702.779907960916 ; 2687.7120348520148 ; 3436894.1384092974 ; 405844.51726265374 ; 35938.00000000001
152 ; 15368.350191543992 ; 2687.7120348520148 ; 3452596.9183172584 ; 408532.22929750575 ; 36176.00000000001
153 ; 15461.162678269859 ; 2687.7120348520148 ; 3467965.268508802 ; 411219.94133235776 ; 36414.00000000001
154 ; 15307.03222119889 ; 2687.7120348520148 ; 3483426.431187072 ; 413907.6533672098 ; 36652.00000000001
155 ; 15236.009867437806 ; 2687.7120348520148 ; 3498733.463408271 ; 416595.3654020618 ; 36890.00000000001
156 ; 15257.902261804824 ; 2687.7120348520148 ; 3513969.4732757085 ; 419283.0774369138 ; 37128.00000000001
157 ; 14919.968138389004 ; 2687.7120348520148 ; 3529227.3755375133 ; 421970.7894717658 ; 37366.00000000001
158 ; 14788.760878664474 ; 2687.7120348520148 ; 3544147.343675902 ; 424658.5015066178 ; 37604.00000000001
159 ; 14529.241194007225 ; 2687.7120348520148 ; 3558936.1045545666 ; 427346.2135414698 ; 37842.00000000001
160 ; 14349.266292577866 ; 2687.7120348520148 ; 3573465.345748574 ; 430033.92557632184 ; 38080.00000000001
161 ; 14261.333778729155 ; 2687.7120348520148 ; 3587814.612041152 ; 432721.63761117385 ; 38318.00000000001
162 ; 14114.598170614092 ; 2687.7120348520148 ; 3602075.9458198813 ; 435409.34964602586 ; 38556.00000000001
163 ; 14005.902595264735 ; 2687.7120348520148 ; 3616190.543990495 ; 438097.0616808779 ; 38794.00000000001
164 ; 13861.313569102247 ; 2687.7120348520148 ; 3630196.44658576 ; 440784.7737157299 ; 39032.00000000001
165 ; 13531.748810689307 ; 2687.7120348520148 ; 3644057.7601548624 ; 443472.4857505819 ; 39270.00000000001
166 ; 13507.990532981961 ; 2687.7120348520148 ; 3657589.508965552 ; 446160.1977854339 ; 39508.00000000001
167 ; 13360.065558170103 ; 2687.7120348520148 ; 3671097.499498534 ; 448847.9098202859 ; 39746.00000000001
168 ; 13277.114443375312 ; 2687.7120348520148 ; 3684457.565056704 ; 451535.6218551379 ; 39984.00000000001
169 ; 12942.806326264095 ; 2687.7120348520148 ; 3697734.6795000792 ; 454223.33388998994 ; 40222.00000000001
170 ; 12731.441409481477 ; 2687.7120348520148 ; 3710677.4858263433 ; 456911.04592484195 ; 40460.00000000001
171 ; 12730.982580588077 ; 2687.7120348520148 ; 3723408.927235825 ; 459598.75795969396 ; 40698.00000000001
172 ; 12261.24570240745 ; 2687.7120348520148 ; 3736139.909816413 ; 462286.469994546 ; 40936.00000000001
173 ; 12320.155674207395 ; 2687.7120348520148 ; 3748401.1555188205 ; 464974.182029398 ; 41174.00000000001
174 ; 12310.105418256682 ; 2687.7120348520148 ; 3760721.311193028 ; 467661.89406425 ; 41412.00000000001
175 ; 12410.426737339552 ; 2687.7120348520148 ; 3773031.4166112845 ; 470349.606099102 ; 41650.00000000001
176 ; 12468.598789996411 ; 2687.7120348520148 ; 3785441.843348624 ; 473037.318133954 ; 41888.00000000001
177 ; 12422.669499253727 ; 2687.7120348520148 ; 3797910.4421386207 ; 475725.030168806 ; 42126.00000000001
178 ; 12382.852374491835 ; 2687.7120348520148 ; 3810333.1116378745 ; 478412.74220365804 ; 42364.00000000001
179 ; 12565.932606545333 ; 2687.7120348520148 ; 3822715.9640123663 ; 481100.45423851005 ; 42602.00000000001
180 ; 12564.21842282052 ; 2687.7120348520148 ; 3835281.8966189115 ; 483788.16627336206 ; 42840.00000000001
181 ; 12651.350398897803 ; 2687.7120348520148 ; 3847846.115041732 ; 486475.8783082141 ; 43078.00000000001
182 ; 12768.073927845144 ; 2687.7120348520148 ; 3860497.4654406295 ; 489163.5903430661 ; 43316.00000000001
183 ; 12729.819391865554 ; 2687.7120348520148 ; 3873265.539368475 ; 491851.3023779181 ; 43554.00000000001
184 ; 12542.143693153019 ; 2687.7120348520148 ; 3885995.3587603406 ; 494539.0144127701 ; 43792.00000000001
