CSV File for the City 2 on Day 165
1 - Minute m 
2 - Power Consumed at minute m 
3 - Power Produced at minute m 
4 - Energy Consumed since the beginning of the day 
5 - Energy Produced since the beginning of the day 
6 - Energy Lost since the beginning of the day on lines starting from the city
 
0 ; 6444.208855848882 ; 30848.708012438565 ; 0.0 ; 0.0 ; 0.0
1 ; 6900.1491317187565 ; 30848.708012438565 ; 6444.208855848882 ; 30848.708012438565 ; 0.0
2 ; 7450.44503486839 ; 30848.708012438565 ; 13344.357987567639 ; 61697.41602487713 ; 0.0
3 ; 7905.712909887793 ; 30848.708012438565 ; 20794.80302243603 ; 92546.12403731569 ; 0.0
4 ; 8392.21489022984 ; 30848.708012438565 ; 28700.515932323822 ; 123394.83204975426 ; 0.0
5 ; 8622.840745780673 ; 30848.708012438565 ; 37092.73082255366 ; 154243.54006219283 ; 0.0
6 ; 9111.984977524335 ; 30848.708012438565 ; 45715.57156833434 ; 185092.24807463138 ; 0.0
7 ; 9582.375872555893 ; 30848.708012438565 ; 54827.55654585867 ; 215940.95608706994 ; 0.0
8 ; 9984.806105956035 ; 30848.708012438565 ; 64409.932418414566 ; 246789.6640995085 ; 0.0
9 ; 10158.80367342641 ; 30848.708012438565 ; 74394.7385243706 ; 277638.37211194704 ; 0.0
10 ; 10996.52351363727 ; 30848.708012438565 ; 84553.54219779701 ; 308487.0801243856 ; 0.0
11 ; 11230.663199176044 ; 30848.708012438565 ; 95550.06571143428 ; 339335.78813682415 ; 0.0
12 ; 11489.826688251853 ; 30848.708012438565 ; 106780.72891061031 ; 370184.4961492627 ; 0.0
13 ; 12006.920794142156 ; 30848.708012438565 ; 118270.55559886216 ; 401033.20416170126 ; 0.0
14 ; 12370.476795583836 ; 30848.708012438565 ; 130277.47639300433 ; 431881.9121741398 ; 0.0
15 ; 12699.814540926844 ; 30848.708012438565 ; 142647.95318858817 ; 462730.62018657837 ; 0.0
16 ; 13165.931470175068 ; 30848.708012438565 ; 155347.767729515 ; 493579.3281990169 ; 0.0
17 ; 13346.422483779726 ; 30848.708012438565 ; 168513.69919969008 ; 524428.0362114555 ; 0.0
18 ; 13719.051989768952 ; 30848.708012438565 ; 181860.1216834698 ; 555276.7442238941 ; 0.0
19 ; 14044.347434705007 ; 30848.708012438565 ; 195579.17367323875 ; 586125.4522363327 ; 0.0
20 ; 14423.34264445599 ; 30848.708012438565 ; 209623.52110794376 ; 616974.1602487713 ; 0.0
21 ; 14871.427510002928 ; 30848.708012438565 ; 224046.86375239975 ; 647822.8682612099 ; 0.0
22 ; 15199.894480534578 ; 30848.708012438565 ; 238918.29126240266 ; 678671.5762736485 ; 0.0
23 ; 15511.534232086764 ; 30848.708012438565 ; 254118.18574293723 ; 709520.2842860871 ; 0.0
24 ; 15883.234749140483 ; 30848.708012438565 ; 269629.719975024 ; 740368.9922985258 ; 0.0
25 ; 15984.347711377946 ; 30848.708012438565 ; 285512.9547241645 ; 771217.7003109644 ; 0.0
26 ; 16411.711740131108 ; 30848.708012438565 ; 301497.30243554246 ; 802066.408323403 ; 0.0
27 ; 16727.272750271255 ; 30848.708012438565 ; 317909.01417567354 ; 832915.1163358416 ; 0.0
28 ; 16942.141198773286 ; 30848.708012438565 ; 334636.2869259448 ; 863763.8243482802 ; 0.0
29 ; 17250.58987879417 ; 30848.708012438565 ; 351578.4281247181 ; 894612.5323607188 ; 0.0
30 ; 17655.53330567159 ; 30848.708012438565 ; 368829.01800351223 ; 925461.2403731574 ; 0.0
31 ; 17868.52514316309 ; 30848.708012438565 ; 386484.5513091838 ; 956309.948385596 ; 0.0
32 ; 18036.600196129686 ; 30848.708012438565 ; 404353.0764523469 ; 987158.6563980347 ; 0.0
33 ; 18525.534906905898 ; 30848.708012438565 ; 422389.6766484766 ; 1018007.3644104733 ; 0.0
34 ; 18749.332559650156 ; 30848.708012438565 ; 440915.2115553825 ; 1048856.0724229119 ; 0.0
35 ; 18858.90418416687 ; 30848.708012438565 ; 459664.5441150327 ; 1079704.7804353505 ; 0.0
36 ; 19266.367034565417 ; 30848.708012438565 ; 478523.4482991996 ; 1110553.488447789 ; 0.0
37 ; 19516.105089730303 ; 30848.708012438565 ; 497789.815333765 ; 1141402.1964602277 ; 0.0
38 ; 19812.967993293903 ; 30848.708012438565 ; 517305.9204234953 ; 1172250.9044726663 ; 0.0
39 ; 19969.298859684513 ; 30848.708012438565 ; 537118.8884167892 ; 1203099.612485105 ; 0.0
40 ; 20226.729620507507 ; 30848.708012438565 ; 557088.1872764737 ; 1233948.3204975436 ; 0.0
41 ; 20443.62043909378 ; 30848.708012438565 ; 577314.9168969812 ; 1264797.0285099822 ; 0.0
42 ; 20622.765983189573 ; 30848.708012438565 ; 597758.537336075 ; 1295645.7365224208 ; 0.0
43 ; 20966.877669746136 ; 30848.708012438565 ; 618381.3033192646 ; 1326494.4445348594 ; 0.0
44 ; 21022.585184278178 ; 30848.708012438565 ; 639348.1809890107 ; 1357343.152547298 ; 0.0
45 ; 21253.132352648074 ; 30848.708012438565 ; 660370.7661732889 ; 1388191.8605597366 ; 0.0
46 ; 21481.11240253764 ; 30848.708012438565 ; 681623.898525937 ; 1419040.5685721752 ; 0.0
47 ; 21770.10147125806 ; 30848.708012438565 ; 703105.0109284746 ; 1449889.2765846138 ; 0.0
48 ; 21891.697997301068 ; 30848.708012438565 ; 724875.1123997327 ; 1480737.9845970524 ; 0.0
49 ; 22055.903513682606 ; 30848.708012438565 ; 746766.8103970338 ; 1511586.692609491 ; 0.0
50 ; 22302.369197759923 ; 30848.708012438565 ; 768822.7139107165 ; 1542435.4006219297 ; 0.0
51 ; 22587.045827182395 ; 30848.708012438565 ; 791125.0831084764 ; 1573284.1086343683 ; 0.0
52 ; 22756.195045021028 ; 30848.708012438565 ; 813712.1289356587 ; 1604132.816646807 ; 0.0
53 ; 22791.058889290012 ; 30848.708012438565 ; 836468.3239806797 ; 1634981.5246592455 ; 0.0
54 ; 22842.757408148267 ; 30848.708012438565 ; 859259.3828699697 ; 1665830.2326716841 ; 0.0
55 ; 23072.876157586317 ; 30848.708012438565 ; 882102.140278118 ; 1696678.9406841227 ; 0.0
56 ; 23190.868637304 ; 30848.708012438565 ; 905175.0164357043 ; 1727527.6486965613 ; 0.0
57 ; 23412.163358851212 ; 30848.708012438565 ; 928365.8850730084 ; 1758376.356709 ; 0.0
58 ; 23557.546960568307 ; 30848.708012438565 ; 951778.0484318596 ; 1789225.0647214386 ; 0.0
59 ; 23709.73740625899 ; 30848.708012438565 ; 975335.5953924279 ; 1820073.7727338772 ; 0.0
60 ; 23851.742129853927 ; 30848.708012438565 ; 999045.3327986868 ; 1850922.4807463158 ; 0.0
61 ; 24074.587592564996 ; 30848.708012438565 ; 1022897.0749285407 ; 1881771.1887587544 ; 0.0
62 ; 23895.968843212668 ; 30848.708012438565 ; 1046971.6625211057 ; 1912619.896771193 ; 0.0
63 ; 23982.113354867466 ; 30848.708012438565 ; 1070867.6313643183 ; 1943468.6047836316 ; 0.0
64 ; 24098.11701369992 ; 30848.708012438565 ; 1094849.7447191859 ; 1974317.3127960702 ; 0.0
65 ; 24286.504555647825 ; 30848.708012438565 ; 1118947.8617328857 ; 2005166.0208085089 ; 0.0
66 ; 24435.714548911455 ; 30848.708012438565 ; 1143234.3662885334 ; 2036014.7288209475 ; 0.0
67 ; 24546.879053130786 ; 30848.708012438565 ; 1167670.0808374449 ; 2066863.436833386 ; 0.0
68 ; 24455.95688388634 ; 30848.708012438565 ; 1192216.9598905756 ; 2097712.1448458247 ; 0.0
69 ; 24674.714990202214 ; 30848.708012438565 ; 1216672.916774462 ; 2128560.852858263 ; 0.0
70 ; 24582.21244718304 ; 30848.708012438565 ; 1241347.631764664 ; 2159409.5608707014 ; 0.0
71 ; 24658.813275039392 ; 30848.708012438565 ; 1265929.844211847 ; 2190258.26888314 ; 0.0
72 ; 24889.47580802568 ; 30848.708012438565 ; 1290588.6574868865 ; 2221106.976895578 ; 0.0
73 ; 24903.23105264427 ; 30848.708012438565 ; 1315478.133294912 ; 2251955.6849080166 ; 0.0
74 ; 24995.570332233136 ; 30848.708012438565 ; 1340381.3643475564 ; 2282804.392920455 ; 0.0
75 ; 24943.25623738599 ; 30848.708012438565 ; 1365376.9346797895 ; 2313653.1009328933 ; 0.0
76 ; 25023.68573816881 ; 30848.708012438565 ; 1390320.1909171755 ; 2344501.8089453317 ; 0.0
77 ; 25042.653069788754 ; 30848.708012438565 ; 1415343.8766553444 ; 2375350.51695777 ; 0.0
78 ; 25057.14785519141 ; 30848.708012438565 ; 1440386.5297251332 ; 2406199.2249702085 ; 0.0
79 ; 25158.390931792594 ; 30848.708012438565 ; 1465443.6775803247 ; 2437047.932982647 ; 0.0
80 ; 25043.919499800737 ; 30848.708012438565 ; 1490602.0685121173 ; 2467896.6409950852 ; 0.0
81 ; 25150.35502744771 ; 30848.708012438565 ; 1515645.988011918 ; 2498745.3490075236 ; 0.0
82 ; 25055.671948599116 ; 30848.708012438565 ; 1540796.3430393657 ; 2529594.057019962 ; 0.0
83 ; 24910.794733379225 ; 30848.708012438565 ; 1565852.0149879649 ; 2560442.7650324004 ; 0.0
84 ; 25033.48285756705 ; 30848.708012438565 ; 1590762.8097213442 ; 2591291.4730448388 ; 0.0
85 ; 25002.850073649643 ; 30848.708012438565 ; 1615796.2925789112 ; 2622140.181057277 ; 0.0
86 ; 24903.63284772522 ; 30848.708012438565 ; 1640799.1426525607 ; 2652988.8890697155 ; 0.0
87 ; 25015.95086654784 ; 30848.708012438565 ; 1665702.775500286 ; 2683837.597082154 ; 0.0
88 ; 24757.100836543934 ; 30848.708012438565 ; 1690718.7263668338 ; 2714686.3050945923 ; 0.0
89 ; 24803.437748936623 ; 30848.708012438565 ; 1715475.8272033776 ; 2745535.0131070307 ; 0.0
90 ; 24827.397202034197 ; 30848.708012438565 ; 1740279.2649523143 ; 2776383.721119469 ; 0.0
91 ; 24793.82731328288 ; 30848.708012438565 ; 1765106.6621543486 ; 2807232.4291319074 ; 0.0
92 ; 24766.210150410952 ; 30848.708012438565 ; 1789900.4894676316 ; 2838081.137144346 ; 0.0
93 ; 24506.907195801785 ; 30848.708012438565 ; 1814666.6996180424 ; 2868929.845156784 ; 0.0
94 ; 24735.04918439719 ; 30848.708012438565 ; 1839173.6068138443 ; 2899778.5531692225 ; 0.0
95 ; 24586.263842551143 ; 30848.708012438565 ; 1863908.6559982414 ; 2930627.261181661 ; 0.0
96 ; 24525.925127989354 ; 30848.708012438565 ; 1888494.9198407924 ; 2961475.9691940993 ; 0.0
97 ; 24405.01013889826 ; 30848.708012438565 ; 1913020.8449687818 ; 2992324.6772065377 ; 0.0
98 ; 24493.34974487712 ; 30848.708012438565 ; 1937425.85510768 ; 3023173.385218976 ; 0.0
99 ; 24395.352641444886 ; 30848.708012438565 ; 1961919.204852557 ; 3054022.0932314144 ; 0.0
100 ; 24271.529126376274 ; 30848.708012438565 ; 1986314.557494002 ; 3084870.801243853 ; 0.0
101 ; 24010.680375586366 ; 30848.708012438565 ; 2010586.0866203783 ; 3115719.509256291 ; 0.0
102 ; 23912.90115159821 ; 30848.708012438565 ; 2034596.7669959646 ; 3146568.2172687296 ; 0.0
103 ; 23894.431256129265 ; 30848.708012438565 ; 2058509.6681475628 ; 3177416.925281168 ; 0.0
104 ; 23869.221913426434 ; 30848.708012438565 ; 2082404.099403692 ; 3208265.6332936063 ; 0.0
105 ; 23432.850739922713 ; 30848.708012438565 ; 2106273.3213171186 ; 3239114.3413060447 ; 0.0
106 ; 23546.165106606448 ; 30848.708012438565 ; 2129706.1720570414 ; 3269963.049318483 ; 0.0
107 ; 23375.28312229735 ; 30848.708012438565 ; 2153252.337163648 ; 3300811.7573309215 ; 0.0
108 ; 23363.15146300152 ; 30848.708012438565 ; 2176627.6202859455 ; 3331660.46534336 ; 0.0
109 ; 22875.83695384545 ; 30848.708012438565 ; 2199990.771748947 ; 3362509.1733557982 ; 0.0
110 ; 22715.073887941082 ; 30848.708012438565 ; 2222866.6087027923 ; 3393357.8813682366 ; 0.0
111 ; 22531.83858015569 ; 30848.708012438565 ; 2245581.6825907333 ; 3424206.589380675 ; 0.0
112 ; 22680.317673664777 ; 30848.708012438565 ; 2268113.521170889 ; 3455055.2973931134 ; 0.0
113 ; 22337.756994284668 ; 30848.708012438565 ; 2290793.838844554 ; 3485904.0054055518 ; 0.0
114 ; 22266.426865879992 ; 30848.708012438565 ; 2313131.5958388387 ; 3516752.71341799 ; 0.0
115 ; 22073.119155654935 ; 30848.708012438565 ; 2335398.0227047186 ; 3547601.4214304285 ; 0.0
116 ; 21772.150524176028 ; 30848.708012438565 ; 2357471.141860374 ; 3578450.129442867 ; 0.0
117 ; 21587.321882711138 ; 30848.708012438565 ; 2379243.29238455 ; 3609298.8374553053 ; 0.0
118 ; 21478.93493398915 ; 30848.708012438565 ; 2400830.6142672612 ; 3640147.5454677437 ; 0.0
119 ; 21150.936114001062 ; 30848.708012438565 ; 2422309.5492012505 ; 3670996.253480182 ; 0.0
120 ; 20810.76596154461 ; 30848.708012438565 ; 2443460.4853152516 ; 3701844.9614926204 ; 0.0
121 ; 20903.546213760295 ; 30848.708012438565 ; 2464271.251276796 ; 3732693.669505059 ; 0.0
122 ; 20772.815592278028 ; 30848.708012438565 ; 2485174.7974905567 ; 3763542.377517497 ; 0.0
123 ; 20498.893101498263 ; 30848.708012438565 ; 2505947.6130828345 ; 3794391.0855299355 ; 0.0
124 ; 20248.538867794217 ; 30848.708012438565 ; 2526446.506184333 ; 3825239.793542374 ; 0.0
125 ; 19845.733514556792 ; 30848.708012438565 ; 2546695.0450521274 ; 3856088.5015548123 ; 0.0
126 ; 19771.118538136216 ; 30848.708012438565 ; 2566540.778566684 ; 3886937.2095672507 ; 0.0
127 ; 19457.453328654683 ; 30848.708012438565 ; 2586311.8971048202 ; 3917785.917579689 ; 0.0
128 ; 19101.727106749226 ; 30848.708012438565 ; 2605769.350433475 ; 3948634.6255921274 ; 0.0
129 ; 19028.18229880942 ; 30848.708012438565 ; 2624871.077540224 ; 3979483.333604566 ; 0.0
130 ; 18614.91858533801 ; 30848.708012438565 ; 2643899.2598390332 ; 4010332.041617004 ; 0.0
131 ; 18348.12046535853 ; 30848.708012438565 ; 2662514.1784243714 ; 4041180.7496294426 ; 0.0
132 ; 18238.71168934116 ; 30848.708012438565 ; 2680862.29888973 ; 4072029.457641881 ; 0.0
133 ; 17900.357103511957 ; 30848.708012438565 ; 2699101.0105790715 ; 4102878.1656543193 ; 0.0
134 ; 17493.4071527735 ; 30848.708012438565 ; 2717001.3676825836 ; 4133726.8736667577 ; 0.0
135 ; 17367.18486120666 ; 30848.708012438565 ; 2734494.774835357 ; 4164575.581679196 ; 0.0
136 ; 17097.405338485954 ; 30848.708012438565 ; 2751861.9596965634 ; 4195424.2896916345 ; 0.0
137 ; 16836.515286063528 ; 30848.708012438565 ; 2768959.365035049 ; 4226272.997704073 ; 0.0
138 ; 16340.456219316811 ; 30848.708012438565 ; 2785795.8803211125 ; 4257121.705716511 ; 0.0
139 ; 16097.404901627444 ; 30848.708012438565 ; 2802136.3365404294 ; 4287970.41372895 ; 0.0
140 ; 15830.268583630539 ; 30848.708012438565 ; 2818233.741442057 ; 4318819.121741388 ; 0.0
141 ; 15432.50897529504 ; 30848.708012438565 ; 2834064.0100256875 ; 4349667.829753826 ; 0.0
142 ; 15210.802772745245 ; 30848.708012438565 ; 2849496.5190009824 ; 4380516.537766265 ; 0.0
143 ; 14627.786237686818 ; 30848.708012438565 ; 2864707.3217737274 ; 4411365.245778703 ; 0.0
144 ; 14298.634219765408 ; 30848.708012438565 ; 2879335.1080114143 ; 4442213.9537911415 ; 0.0
145 ; 14341.04703010867 ; 30848.708012438565 ; 2893633.7422311795 ; 4473062.66180358 ; 0.0
146 ; 14047.611756037111 ; 30848.708012438565 ; 2907974.789261288 ; 4503911.369816018 ; 0.0
147 ; 13990.51677516292 ; 30848.708012438565 ; 2922022.401017325 ; 4534760.077828457 ; 0.0
148 ; 13900.962362380435 ; 30848.708012438565 ; 2936012.917792488 ; 4565608.785840895 ; 0.0
149 ; 13914.21119364251 ; 30848.708012438565 ; 2949913.880154868 ; 4596457.493853333 ; 0.0
150 ; 13754.087490814638 ; 30848.708012438565 ; 2963828.0913485107 ; 4627306.201865772 ; 0.0
151 ; 13706.744076654715 ; 30848.708012438565 ; 2977582.1788393254 ; 4658154.90987821 ; 0.0
152 ; 13768.807563318598 ; 30848.708012438565 ; 2991288.92291598 ; 4689003.617890649 ; 0.0
153 ; 13299.400792906976 ; 30848.708012438565 ; 3005057.7304792986 ; 4719852.325903087 ; 0.0
154 ; 13430.961095104787 ; 30848.708012438565 ; 3018357.1312722056 ; 4750701.033915525 ; 0.0
155 ; 13256.37444649912 ; 30848.708012438565 ; 3031788.0923673105 ; 4781549.741927964 ; 0.0
156 ; 13101.165235151773 ; 30848.708012438565 ; 3045044.4668138097 ; 4812398.449940402 ; 0.0
157 ; 13108.964650920267 ; 30848.708012438565 ; 3058145.6320489617 ; 4843247.15795284 ; 0.0
158 ; 12943.036487107283 ; 30848.708012438565 ; 3071254.596699882 ; 4874095.865965279 ; 0.0
159 ; 12768.647571085085 ; 30848.708012438565 ; 3084197.633186989 ; 4904944.573977717 ; 0.0
160 ; 12607.972718235142 ; 30848.708012438565 ; 3096966.280758074 ; 4935793.281990156 ; 0.0
161 ; 12576.473645224163 ; 30848.708012438565 ; 3109574.253476309 ; 4966641.990002594 ; 0.0
162 ; 12457.356314473886 ; 30848.708012438565 ; 3122150.7271215334 ; 4997490.698015032 ; 0.0
163 ; 12230.429186447165 ; 30848.708012438565 ; 3134608.083436007 ; 5028339.406027471 ; 0.0
164 ; 12146.58498296303 ; 30848.708012438565 ; 3146838.512622454 ; 5059188.114039909 ; 0.0
165 ; 12008.222520440131 ; 30848.708012438565 ; 3158985.097605417 ; 5090036.8220523475 ; 0.0
166 ; 11822.034347958172 ; 30848.708012438565 ; 3170993.3201258574 ; 5120885.530064786 ; 0.0
167 ; 11733.059111284876 ; 30848.708012438565 ; 3182815.3544738158 ; 5151734.238077224 ; 0.0
168 ; 11523.069357783475 ; 30848.708012438565 ; 3194548.413585101 ; 5182582.946089663 ; 0.0
169 ; 11541.41092932492 ; 30848.708012438565 ; 3206071.4829428843 ; 5213431.654102101 ; 0.0
170 ; 11418.732714416037 ; 30848.708012438565 ; 3217612.8938722094 ; 5244280.362114539 ; 0.0
171 ; 11280.685100233362 ; 30848.708012438565 ; 3229031.6265866254 ; 5275129.070126978 ; 0.0
172 ; 10834.4778846473 ; 30848.708012438565 ; 3240312.3116868585 ; 5305977.778139416 ; 0.0
173 ; 10766.488051476957 ; 30848.708012438565 ; 3251146.789571506 ; 5336826.4861518545 ; 0.0
174 ; 10646.417184392187 ; 30848.708012438565 ; 3261913.277622983 ; 5367675.194164293 ; 0.0
175 ; 10956.96044698998 ; 30848.708012438565 ; 3272559.694807375 ; 5398523.902176731 ; 0.0
176 ; 10956.086609114573 ; 30848.708012438565 ; 3283516.655254365 ; 5429372.61018917 ; 0.0
177 ; 11000.500472934205 ; 30848.708012438565 ; 3294472.7418634794 ; 5460221.318201608 ; 0.0
178 ; 10986.363684588017 ; 30848.708012438565 ; 3305473.2423364134 ; 5491070.026214046 ; 0.0
179 ; 11046.644024333073 ; 30848.708012438565 ; 3316459.6060210015 ; 5521918.734226485 ; 0.0
180 ; 10947.625705407663 ; 30848.708012438565 ; 3327506.2500453345 ; 5552767.442238923 ; 0.0
181 ; 11081.948254019488 ; 30848.708012438565 ; 3338453.875750742 ; 5583616.150251362 ; 0.0
182 ; 11139.119479211646 ; 30848.708012438565 ; 3349535.8240047614 ; 5614464.8582638 ; 0.0
183 ; 10996.770219835367 ; 30848.708012438565 ; 3360674.943483973 ; 5645313.566276238 ; 0.0
184 ; 11187.714212022145 ; 30848.708012438565 ; 3371671.7137038084 ; 5676162.274288677 ; 0.0
185 ; 11053.662790907758 ; 30848.708012438565 ; 3382859.4279158306 ; 5707010.982301115 ; 0.0
186 ; 11085.997044939913 ; 30848.708012438565 ; 3393913.090706738 ; 5737859.690313553 ; 0.0
187 ; 11177.775212189934 ; 30848.708012438565 ; 3404999.087751678 ; 5768708.398325992 ; 0.0
188 ; 11280.688202474574 ; 30848.708012438565 ; 3416176.8629638683 ; 5799557.10633843 ; 0.0
189 ; 11380.362352556203 ; 30848.708012438565 ; 3427457.551166343 ; 5830405.814350869 ; 0.0
190 ; 11353.550128301022 ; 30848.708012438565 ; 3438837.913518899 ; 5861254.522363307 ; 0.0
191 ; 11337.480104250571 ; 30848.708012438565 ; 3450191.4636472003 ; 5892103.230375745 ; 0.0
192 ; 11252.478010105873 ; 30848.708012438565 ; 3461528.9437514506 ; 5922951.938388184 ; 0.0
193 ; 11222.825853256336 ; 30848.708012438565 ; 3472781.4217615565 ; 5953800.646400622 ; 0.0
194 ; 11290.161133248112 ; 30848.708012438565 ; 3484004.247614813 ; 5984649.3544130605 ; 0.0
195 ; 11210.322951271854 ; 30848.708012438565 ; 3495294.408748061 ; 6015498.062425499 ; 0.0
196 ; 11280.915230326704 ; 30848.708012438565 ; 3506504.7316993326 ; 6046346.770437937 ; 0.0
197 ; 11472.786090783007 ; 30848.708012438565 ; 3517785.6469296594 ; 6077195.478450376 ; 0.0
198 ; 11339.134819226163 ; 30848.708012438565 ; 3529258.4330204423 ; 6108044.186462814 ; 0.0
199 ; 11558.743514314097 ; 30848.708012438565 ; 3540597.5678396686 ; 6138892.894475252 ; 0.0
200 ; 11279.516381113472 ; 30848.708012438565 ; 3552156.311353983 ; 6169741.602487691 ; 0.0
201 ; 11482.572407365205 ; 30848.708012438565 ; 3563435.827735096 ; 6200590.310500129 ; 0.0
202 ; 11610.072674064095 ; 30848.708012438565 ; 3574918.4001424615 ; 6231439.0185125675 ; 0.0
203 ; 11416.042899015107 ; 30848.708012438565 ; 3586528.4728165255 ; 6262287.726525006 ; 0.0
204 ; 11583.73229821856 ; 30848.708012438565 ; 3597944.5157155404 ; 6293136.434537444 ; 0.0
205 ; 11549.421065574887 ; 30848.708012438565 ; 3609528.248013759 ; 6323985.142549883 ; 0.0
206 ; 11693.078455008654 ; 30848.708012438565 ; 3621077.669079334 ; 6354833.850562321 ; 0.0
207 ; 11599.629883589561 ; 30848.708012438565 ; 3632770.7475343426 ; 6385682.558574759 ; 0.0
208 ; 11812.485629926048 ; 30848.708012438565 ; 3644370.3774179323 ; 6416531.266587198 ; 0.0
209 ; 11651.046766381174 ; 30848.708012438565 ; 3656182.8630478582 ; 6447379.974599636 ; 0.0
210 ; 11671.278851995141 ; 30848.708012438565 ; 3667833.9098142395 ; 6478228.682612075 ; 0.0
211 ; 11767.561840594597 ; 30848.708012438565 ; 3679505.1886662347 ; 6509077.390624513 ; 0.0
212 ; 11789.295163106617 ; 30848.708012438565 ; 3691272.7505068295 ; 6539926.098636951 ; 0.0
213 ; 11773.651217892591 ; 30848.708012438565 ; 3703062.045669936 ; 6570774.80664939 ; 0.0
