CSV File for the City 3 on Day 171
1 - Minute m 
2 - Power Consumed at minute m 
3 - Power Produced at minute m 
4 - Energy Consumed since the beginning of the day 
5 - Energy Produced since the beginning of the day 
6 - Energy Lost since the beginning of the day on lines starting from the city
 
0 ; 5235.359814578384 ; 87758.74674384887 ; 0.0 ; 0.0 ; 0.0
1 ; 5614.024225587948 ; 87412.13084964485 ; 5235.359814578384 ; 87758.74674384887 ; 0.0
2 ; 5989.476648184983 ; 87100.7603616731 ; 10849.384040166333 ; 175170.87759349373 ; 0.0
3 ; 6399.469017640265 ; 86825.03830019973 ; 16838.860688351317 ; 262271.63795516687 ; 0.0
4 ; 6824.204256498882 ; 86585.3263110824 ; 23238.329705991582 ; 349096.6762553666 ; 0.0
5 ; 7061.218265314652 ; 86381.94250468991 ; 30062.533962490466 ; 435682.002566449 ; 0.0
6 ; 7501.437018212456 ; 86215.1595155361 ; 37123.75222780512 ; 522063.9450711389 ; 0.0
7 ; 7767.518297375874 ; 86085.2028097694 ; 44625.18924601757 ; 608279.1045866751 ; 0.0
8 ; 8327.336542454794 ; 85992.2492647974 ; 52392.707543393444 ; 694364.3073964445 ; 0.0
9 ; 8464.620960851134 ; 85936.42604184902 ; 60720.04408584824 ; 780356.5566612419 ; 0.0
10 ; 9014.402133208703 ; 85917.80976826572 ; 69184.66504669937 ; 866292.9827030909 ; 0.0
11 ; 9120.85988418775 ; 85936.42604184902 ; 78199.06717990807 ; 952210.7924713566 ; 0.0
12 ; 9617.458274725142 ; 85992.2492647974 ; 87319.92706409583 ; 1038147.2185132056 ; 0.0
13 ; 9924.74901938685 ; 86085.2028097694 ; 96937.38533882097 ; 1124139.467778003 ; 0.0
14 ; 10338.77790371511 ; 86215.15951553598 ; 106862.13435820781 ; 1210224.6705877725 ; 0.0
15 ; 10814.365710956023 ; 86381.94250468991 ; 117200.91226192292 ; 1296439.8301033084 ; 0.0
16 ; 11168.865972365353 ; 86585.3263110824 ; 128015.27797287895 ; 1382821.7726079985 ; 0.0
17 ; 11500.192369082855 ; 86825.03830019973 ; 139184.1439452443 ; 1469407.0989190808 ; 0.0
18 ; 11567.202947497763 ; 87100.7603616731 ; 150684.33631432714 ; 1556232.1372192805 ; 0.0
19 ; 11886.498495975984 ; 87412.13084964485 ; 162251.53926182492 ; 1643332.8975809535 ; 0.0
20 ; 12285.787630143566 ; 87758.74674384887 ; 174138.0377578009 ; 1730745.0284305983 ; 0.0
21 ; 12633.215226759223 ; 88140.16600207277 ; 186423.82538794447 ; 1818503.775174447 ; 0.0
22 ; 12883.636592942008 ; 88555.9100731515 ; 199057.0406147037 ; 1906643.94117652 ; 0.0
23 ; 13146.023456529389 ; 89005.46653882957 ; 211940.6772076457 ; 1995199.8512496715 ; 0.0
24 ; 13457.226097633074 ; 89488.29185266874 ; 225086.7006641751 ; 2084205.317788501 ; 0.0
25 ; 13741.44791474318 ; 90003.81414465272 ; 238543.92676180816 ; 2173693.6096411697 ; 0.0
26 ; 14021.15265696952 ; 90551.43606117513 ; 252285.37467655135 ; 2263697.4237858225 ; 0.0
27 ; 14305.496715729976 ; 91130.53761163181 ; 266306.5273335209 ; 2354248.8598469975 ; 0.0
28 ; 14646.710520756595 ; 91740.47899478197 ; 280612.0240492509 ; 2445379.397458629 ; 0.0
29 ; 14853.150288349208 ; 92380.60338032818 ; 295258.7345700075 ; 2537119.8764534113 ; 0.0
30 ; 15193.026738472543 ; 93050.23962367892 ; 310111.8848583567 ; 2629500.4798337393 ; 0.0
31 ; 15463.596306066152 ; 93748.70489454817 ; 325304.9115968292 ; 2722550.719457418 ; 0.0
32 ; 15540.464655301947 ; 94475.30720280731 ; 340768.50790289533 ; 2816299.4243519665 ; 0.0
33 ; 15888.80688763293 ; 95229.34780777936 ; 356308.9725581973 ; 2910774.7315547736 ; 0.0
34 ; 15889.031131138863 ; 96010.12349989006 ; 372197.7794458302 ; 3006004.079362553 ; 0.0
35 ; 16430.609565361734 ; 96816.92874620072 ; 388086.81057696906 ; 3102014.202862443 ; 0.0
36 ; 16496.54557911258 ; 97649.05769381604 ; 404517.4201423308 ; 3198831.1316086436 ; 0.0
37 ; 16653.030907207056 ; 98505.80602743888 ; 421013.9657214434 ; 3296480.18930246 ; 0.0
38 ; 17040.614919547574 ; 99386.47267941822 ; 437666.99662865046 ; 3394985.995329899 ; 0.0
39 ; 17093.576503468266 ; 100290.36139248859 ; 454707.61154819804 ; 3494372.468009317 ; 0.0
40 ; 17299.989020103527 ; 101216.78213702064 ; 471801.1880516663 ; 3594662.8294018055 ; 0.0
41 ; 17656.408234202296 ; 102165.05238599483 ; 489101.17707176984 ; 3695879.611538826 ; 0.0
42 ; 17779.348193070902 ; 103134.49825208035 ; 506757.58530597214 ; 3798044.6639248207 ; 0.0
43 ; 17992.711563330635 ; 104124.4554921541 ; 524536.933499043 ; 3901179.162176901 ; 0.0
44 ; 18212.41718771271 ; 105134.2703853485 ; 542529.6450623736 ; 4005303.6176690552 ; 0.0
45 ; 18402.004597993404 ; 106163.30049128737 ; 560742.0622500863 ; 4110437.888054404 ; 0.0
46 ; 18346.147844415053 ; 107210.91529556937 ; 579144.0668480798 ; 4216601.188545691 ; 0.0
47 ; 18717.78681846923 ; 108276.49674981234 ; 597490.2146924948 ; 4323812.10384126 ; 0.0
48 ; 18925.4225413537 ; 109359.43971369353 ; 616208.001510964 ; 4432088.600591073 ; 0.0
49 ; 19095.28827484254 ; 110459.15230643126 ; 635133.4240523177 ; 4541448.040304766 ; 0.0
50 ; 19199.378651273702 ; 111575.05617507029 ; 654228.7123271603 ; 4651907.192611197 ; 0.0
51 ; 19257.65774590688 ; 112706.5866867647 ; 673428.090978434 ; 4763482.248786267 ; 0.0
52 ; 19549.335909346097 ; 113853.19305203203 ; 692685.7487243408 ; 4876188.835473032 ; 0.0
53 ; 19651.687461130987 ; 115014.3383856683 ; 712235.0846336869 ; 4990042.028525064 ; 0.0
54 ; 19816.437020420428 ; 116189.49971170304 ; 731886.772094818 ; 5105056.366910732 ; 0.0
55 ; 19931.04815409351 ; 117378.16791842955 ; 751703.2091152384 ; 5221245.866622435 ; 0.0
56 ; 20175.21956795655 ; 118579.84766918681 ; 771634.257269332 ; 5338624.034540865 ; 0.0
57 ; 20220.905888066685 ; 119794.05727419879 ; 791809.4768372885 ; 5457203.882210052 ; 0.0
58 ; 20212.87589389344 ; 121020.3285284055 ; 812030.3827253552 ; 5576997.939484251 ; 0.0
59 ; 20423.08400729596 ; 122258.20651985094 ; 832243.2586192486 ; 5698018.268012656 ; 0.0
60 ; 20526.09615518045 ; 123507.24941282891 ; 852666.3426265446 ; 5820276.474532506 ; 0.0
61 ; 20671.461791006674 ; 124767.02820963661 ; 873192.4387817251 ; 5943783.7239453355 ; 0.0
62 ; 20684.018094284573 ; 126037.12649444849 ; 893863.9005727319 ; 6068550.752154972 ; 0.0
63 ; 20682.37631577757 ; 127317.14016249806 ; 914547.9186670164 ; 6194587.878649421 ; 0.0
64 ; 21035.531320407616 ; 128606.67713745112 ; 935230.294982794 ; 6321905.018811919 ; 0.0
65 ; 21010.69498672976 ; 129905.35707956592 ; 956265.8263032016 ; 6450511.69594937 ; 0.0
66 ; 21103.33132551696 ; 131212.81108696517 ; 977276.5212899314 ; 6580417.053028936 ; 0.0
67 ; 21263.201441459634 ; 132528.68139209482 ; 998379.8526154483 ; 6711629.8641159 ; 0.0
68 ; 21159.233303103407 ; 133852.6210552125 ; 1019643.0540569079 ; 6844158.545507995 ; 0.0
69 ; 21348.70325983476 ; 135184.29365653166 ; 1040802.2873600113 ; 6978011.166563208 ; 0.0
70 ; 21324.602120265103 ; 136523.37298845375 ; 1062150.990619846 ; 7113195.46021974 ; 0.0
71 ; 21458.512603288254 ; 137869.5427491365 ; 1083475.592740111 ; 7249718.833208194 ; 0.0
72 ; 21518.814794899354 ; 139222.49623848527 ; 1104934.1053433993 ; 7387588.375957331 ; 0.0
73 ; 21634.323847413467 ; 140581.93605750197 ; 1126452.9201382988 ; 7526810.872195816 ; 0.0
74 ; 21608.646698801833 ; 141947.57381179323 ; 1148087.2439857123 ; 7667392.808253318 ; 0.0
75 ; 21525.63942468324 ; 143319.12981991514 ; 1169695.890684514 ; 7809340.382065112 ; 0.0
76 ; 21686.28246212807 ; 144696.3328271231 ; 1191221.5301091974 ; 7952659.5118850265 ; 0.0
77 ; 21746.867369946754 ; 146078.9197249973 ; 1212907.8125713253 ; 8097355.844712149 ; 0.0
78 ; 21716.93583044145 ; 147466.63527732535 ; 1234654.6799412721 ; 8243434.7644371465 ; 0.0
79 ; 21761.593022196925 ; 148859.23185254433 ; 1256371.6157717137 ; 8390901.399714472 ; 0.0
80 ; 21779.176942076152 ; 150256.46916297908 ; 1278133.2087939107 ; 8539760.631567016 ; 0.0
81 ; 21867.329507914652 ; 151658.11401104627 ; 1299912.3857359868 ; 8690017.100729994 ; 0.0
82 ; 21689.586648992186 ; 153063.94004254477 ; 1321779.7152439014 ; 8841675.21474104 ; 0.0
83 ; 21990.189257772712 ; 154473.72750710268 ; 1343469.3018928936 ; 8994739.154783584 ; 0.0
84 ; 21804.056850464553 ; 155887.26302581042 ; 1365459.4911506663 ; 9149212.882290687 ; 0.0
85 ; 21728.61014644049 ; 157304.33936603426 ; 1387263.5480011308 ; 9305100.145316498 ; 0.0
86 ; 21694.78475745329 ; 158724.75522337254 ; 1408992.1581475714 ; 9462404.484682532 ; 0.0
87 ; 21663.674920807673 ; 160148.31501069092 ; 1430686.9429050246 ; 9621129.239905905 ; 0.0
88 ; 21616.965118791955 ; 161574.82865414929 ; 1452350.6178258322 ; 9781277.554916596 ; 0.0
89 ; 21558.417431229085 ; 163004.11139611626 ; 1473967.5829446241 ; 9942852.383570746 ; 0.0
90 ; 21510.937175863484 ; 164435.9836048471 ; 1495526.0003758532 ; 1.0105856494966863E7 ; 0.0
91 ; 21414.62284865967 ; 165870.27059079192 ; 1517036.9375517166 ; 1.027029247857171E7 ; 0.0
92 ; 21478.141528966076 ; 167306.8024293873 ; 1538451.5604003763 ; 1.04361627491625E7 ; 0.0
93 ; 21399.16698585017 ; 168745.4137901772 ; 1559929.7019293425 ; 1.0603469551591888E7 ; 0.0
94 ; 21205.94731755264 ; 170185.9437721019 ; 1581328.8689151926 ; 1.0772214965382066E7 ; 0.0
95 ; 21410.423088071893 ; 171628.2357447889 ; 1602534.8162327453 ; 1.0942400909154167E7 ; 0.0
96 ; 21027.212207744342 ; 173072.1371956766 ; 1623945.2393208172 ; 1.1114029144898957E7 ; 0.0
97 ; 21225.56476372255 ; 174517.49958279778 ; 1644972.4515285615 ; 1.1287101282094633E7 ; 0.0
98 ; 21083.285650464375 ; 175964.1781930514 ; 1666198.016292284 ; 1.146161878167743E7 ; 0.0
99 ; 21026.388543471025 ; 177412.0320057884 ; 1687281.3019427485 ; 1.1637582959870482E7 ; 0.0
100 ; 20869.74463232772 ; 178860.92356154023 ; 1708307.6904862195 ; 1.181499499187627E7 ; 0.0
101 ; 20806.8145544393 ; 180310.718835718 ; 1729177.4351185472 ; 1.199385591543781E7 ; 0.0
102 ; 20892.141045303382 ; 181761.28711711438 ; 1749984.2496729866 ; 1.2174166634273529E7 ; 0.0
103 ; 20548.91555134004 ; 183212.50089104092 ; 1770876.39071829 ; 1.2355927921390643E7 ; 0.0
104 ; 20481.72514657895 ; 184664.23572693794 ; 1791425.3062696299 ; 1.2539140422281684E7 ; 0.0
105 ; 20448.512144851127 ; 186116.37017029623 ; 1811907.0314162087 ; 1.2723804658008622E7 ; 0.0
106 ; 20369.57170365093 ; 187568.7856387345 ; 1832355.5435610597 ; 1.290992102817892E7 ; 0.0
107 ; 20345.56626353991 ; 189021.36632207912 ; 1852725.1152647107 ; 1.3097489813817654E7 ; 0.0
108 ; 20070.401802344368 ; 190473.99908629752 ; 1873070.6815282507 ; 1.3286511180139733E7 ; 0.0
109 ; 19809.73809905572 ; 191926.5733811405 ; 1893141.0833305952 ; 1.3476985179226032E7 ; 0.0
110 ; 19631.58906550134 ; 193378.98115135264 ; 1912950.821429651 ; 1.3668911752607172E7 ; 0.0
111 ; 19623.648701131224 ; 194831.11675131458 ; 1932582.4104951522 ; 1.3862290733758524E7 ; 0.0
112 ; 19573.835690648866 ; 196282.876862985 ; 1952206.0591962833 ; 1.405712185050984E7 ; 0.0
113 ; 19431.13742066048 ; 197734.1604170144 ; 1971779.894886932 ; 1.4253404727372823E7 ; 0.0
114 ; 19386.570139455544 ; 199184.86851690695 ; 1991211.0323075927 ; 1.4451138887789838E7 ; 0.0
115 ; 19161.788828865916 ; 200634.9043661114 ; 2010597.6024470483 ; 1.4650323756306745E7 ; 0.0
116 ; 19002.45090729445 ; 202084.17319792561 ; 2029759.3912759142 ; 1.4850958660672856E7 ; 0.0
117 ; 18947.378537715762 ; 203532.58220810367 ; 2048761.8421832086 ; 1.5053042833870782E7 ; 0.0
118 ; 18622.784522608268 ; 204980.04049005805 ; 2067709.2207209244 ; 1.5256575416078886E7 ; 0.0
119 ; 18509.03369006569 ; 206426.45897255477 ; 2086332.0052435326 ; 1.5461555456568943E7 ; 0.0
120 ; 18239.175474346448 ; 207871.7503598008 ; 2104841.0389335984 ; 1.5667981915541498E7 ; 0.0
121 ; 17860.546035270647 ; 209315.8290738296 ; 2123080.214407945 ; 1.58758536659013E7 ; 0.0
122 ; 17725.443111845896 ; 210758.61119909218 ; 2140940.7604432157 ; 1.608516949497513E7 ; 0.0
123 ; 17690.869611712194 ; 212200.0144291651 ; 2158666.2035550615 ; 1.6295928106174221E7 ; 0.0
124 ; 17378.76863801542 ; 213639.95801549134 ; 2176357.0731667737 ; 1.6508128120603386E7 ; 0.0
125 ; 17254.61819582014 ; 215078.36271807176 ; 2193735.841804789 ; 1.6721768078618878E7 ; 0.0
126 ; 16999.80814758987 ; 216515.1507580298 ; 2210990.460000609 ; 1.693684644133695E7 ; 0.0
127 ; 16754.319451090956 ; 217950.24577197255 ; 2227990.2681481987 ; 1.7153361592094976E7 ; 0.0
128 ; 16607.635998520756 ; 219383.57276807845 ; 2244744.5875992896 ; 1.737131183786695E7 ; 0.0
129 ; 16421.593312172015 ; 220815.05808384027 ; 2261352.22359781 ; 1.7590695410635028E7 ; 0.0
130 ; 16131.798066999614 ; 222244.62934539755 ; 2277773.8169099824 ; 1.7811510468718868E7 ; 0.0
131 ; 15886.394521326123 ; 223672.2154283961 ; 2293905.614976982 ; 1.8033755098064266E7 ; 0.0
132 ; 15651.96284530069 ; 225097.74642031104 ; 2309792.0094983084 ; 1.8257427313492663E7 ; 0.0
133 ; 15472.967107114615 ; 226521.153584177 ; 2325443.972343609 ; 1.8482525059912976E7 ; 0.0
134 ; 15280.461187251833 ; 227942.36932366775 ; 2340916.939450724 ; 1.8709046213497154E7 ; 0.0
135 ; 14785.384221878927 ; 229361.32714947278 ; 2356197.400637976 ; 1.893698858282082E7 ; 0.0
136 ; 14566.209077815098 ; 230777.96164691748 ; 2370982.7848598547 ; 1.9166349909970295E7 ; 0.0
137 ; 14322.230222626575 ; 232192.2084447789 ; 2385548.99393767 ; 1.9397127871617213E7 ; 0.0
138 ; 14112.168307636977 ; 233604.00418524913 ; 2399871.2241602964 ; 1.962932008006199E7 ; 0.0
139 ; 13829.264099215112 ; 235013.28649500047 ; 2413983.3924679332 ; 1.986292408424724E7 ; 0.0
140 ; 13740.494242005723 ; 236419.9939573091 ; 2427812.6565671484 ; 2.009793737074224E7 ; 0.0
141 ; 13282.586912816312 ; 237824.06608519566 ; 2441553.150809154 ; 2.033435736469955E7 ; 0.0
142 ; 13025.79963456495 ; 239225.44329554215 ; 2454835.7377219703 ; 2.0572181430784747E7 ; 0.0
143 ; 12636.123673547134 ; 240624.06688414738 ; 2467861.5373565354 ; 2.081140687408029E7 ; 0.0
144 ; 12356.976540739981 ; 242019.87900168364 ; 2480497.6610300825 ; 2.1052030940964438E7 ; 0.0
145 ; 12322.038154679856 ; 243412.82263051983 ; 2492854.6375708226 ; 2.1294050819966123E7 ; 0.0
146 ; 12210.877967964825 ; 244802.84156237647 ; 2505176.6757255024 ; 2.1537463642596643E7 ; 0.0
147 ; 12157.241502437126 ; 246189.8803767812 ; 2517387.5536934673 ; 2.178226648415902E7 ; 0.0
148 ; 12066.870006060613 ; 247573.88442029318 ; 2529544.7951959046 ; 2.20284563645358E7 ; 0.0
149 ; 11995.866489876165 ; 248954.79978646632 ; 2541611.6652019653 ; 2.2276030248956095E7 ; 0.0
150 ; 11917.330418617725 ; 250332.57329652342 ; 2553607.5316918413 ; 2.2524985048742563E7 ; 0.0
151 ; 11644.205279428155 ; 251707.15248071353 ; 2565524.8621104592 ; 2.2775317622039087E7 ; 0.0
152 ; 11680.97517961358 ; 253078.4855603264 ; 2577169.0673898873 ; 2.30270247745198E7 ; 0.0
153 ; 11473.984393828337 ; 254446.52143033865 ; 2588850.042569501 ; 2.328010326008013E7 ; 0.0
154 ; 11460.848834451204 ; 255811.2096426679 ; 2600324.0269633294 ; 2.353454978151047E7 ; 0.0
155 ; 11136.682343996754 ; 257172.50039001164 ; 2611784.8757977807 ; 2.3790360991153136E7 ; 0.0
156 ; 11346.671674465646 ; 258530.3444902484 ; 2622921.5581417773 ; 2.4047533491543148E7 ; 0.0
157 ; 11082.35337429949 ; 259884.69337137984 ; 2634268.229816243 ; 2.4306063836033396E7 ; 0.0
158 ; 11033.164257553486 ; 261235.4990569946 ; 2645350.5831905426 ; 2.4565948529404778E7 ; 0.0
159 ; 10788.923788297636 ; 262582.7141522324 ; 2656383.747448096 ; 2.4827184028461773E7 ; 0.0
160 ; 10775.159169446266 ; 263926.2918302312 ; 2667172.6712363935 ; 2.5089766742614005E7 ; 0.0
161 ; 10726.812386517455 ; 265266.18581903836 ; 2677947.8304058397 ; 2.5353693034444235E7 ; 0.0
162 ; 10500.26287965609 ; 266602.3503889694 ; 2688674.642792357 ; 2.5618959220263273E7 ; 0.0
163 ; 10553.143243813054 ; 267934.74034039734 ; 2699174.9056720133 ; 2.5885561570652243E7 ; 0.0
164 ; 10214.735798778258 ; 269263.3109919561 ; 2709728.0489158262 ; 2.615349631099264E7 ; 0.0
165 ; 10174.711373213893 ; 270588.0181691438 ; 2719942.7847146047 ; 2.6422759621984597E7 ; 0.0
166 ; 10187.663168289939 ; 271908.8181933111 ; 2730117.4960878184 ; 2.669334764015374E7 ; 0.0
167 ; 10106.75286369486 ; 273225.667871019 ; 2740305.1592561086 ; 2.6965256458347052E7 ; 0.0
168 ; 9804.65537601816 ; 274538.52448375494 ; 2750411.9121198035 ; 2.7238482126218073E7 ; 0.0
169 ; 9732.223880973163 ; 275847.34577799233 ; 2760216.5674958215 ; 2.751302065070183E7 ; 0.0
170 ; 9582.738071252295 ; 277152.0899555819 ; 2769948.7913767947 ; 2.778886799647982E7 ; 0.0
171 ; 9456.545935979786 ; 278452.71566446265 ; 2779531.529448047 ; 2.8066020086435404E7 ; 0.0
172 ; 9184.124769714013 ; 279749.18198968156 ; 2788988.0753840264 ; 2.8344472802099865E7 ; 0.0
173 ; 9095.982218318319 ; 281041.4484447088 ; 2798172.2001537406 ; 2.8624221984089546E7 ; 0.0
174 ; 9304.39190898841 ; 282329.4749630415 ; 2807268.1823720587 ; 2.8905263432534255E7 ; 0.0
175 ; 9385.041026147728 ; 283613.2218900821 ; 2816572.574281047 ; 2.9187592907497298E7 ; 0.0
176 ; 9288.527099984074 ; 284892.6499752841 ; 2825957.6153071946 ; 2.947120612938738E7 ; 0.0
177 ; 9484.059048976902 ; 286167.72036455444 ; 2835246.142407179 ; 2.9756098779362664E7 ; 0.0
178 ; 9386.780019928552 ; 287438.3945929038 ; 2844730.2014561556 ; 3.004226649972722E7 ; 0.0
179 ; 9411.132150284937 ; 288704.6345773365 ; 2854116.9814760843 ; 3.0329704894320123E7 ; 0.0
180 ; 9283.029707580727 ; 289966.40260997106 ; 2863528.1136263693 ; 3.061840952889746E7 ; 0.0
181 ; 9355.026658411936 ; 291223.6613513832 ; 2872811.14333395 ; 3.090837593150743E7 ; 0.0
182 ; 9423.230747856738 ; 292476.3738241643 ; 2882166.169992362 ; 3.1199599592858814E7 ; 0.0
183 ; 9377.2972126141 ; 293724.5034066878 ; 2891589.400740219 ; 3.1492075966682978E7 ; 0.0
184 ; 9667.637204424234 ; 294968.0138270748 ; 2900966.697952833 ; 3.1785800470089667E7 ; 0.0
185 ; 9437.697630023842 ; 296206.8691573547 ; 2910634.335157257 ; 3.208076848391674E7 ; 0.0
186 ; 9498.201129898855 ; 297441.0338078112 ; 2920072.032787281 ; 3.2376975353074096E7 ; 0.0
187 ; 9598.151351407816 ; 298670.47252151027 ; 2929570.23391718 ; 3.2674416386881907E7 ; 0.0
188 ; 9809.247519426444 ; 299895.1503690009 ; 2939168.3852685876 ; 3.2973086859403417E7 ; 0.0
189 ; 9531.618430127706 ; 301115.03274318576 ; 2948977.632788014 ; 3.3272982009772416E7 ; 0.0
190 ; 9803.359508248242 ; 302330.08535435307 ; 2958509.251218142 ; 3.3574097042515606E7 ; 0.0
191 ; 9678.927029969138 ; 303540.27422536694 ; 2968312.61072639 ; 3.3876427127869956E7 ; 0.0
192 ; 9702.84516610918 ; 304745.565687009 ; 2977991.537756359 ; 3.4179967402095325E7 ; 0.0
193 ; 9905.430963864126 ; 305945.92637346644 ; 2987694.3829224682 ; 3.448471296778233E7 ; 0.0
194 ; 9673.344219327495 ; 307141.3232179631 ; 2997599.8138863323 ; 3.47906588941558E7 ; 0.0
195 ; 9824.783193441079 ; 308331.72344852635 ; 3007273.1581056598 ; 3.5097800217373766E7 ; 0.0
196 ; 9754.759433256697 ; 309517.09458388784 ; 3017097.941299101 ; 3.5406131940822296E7 ; 0.0
197 ; 9843.674882682411 ; 310697.4044295115 ; 3026852.700732358 ; 3.571564903540619E7 ; 0.0
198 ; 9800.750756245126 ; 311872.6210737462 ; 3036696.3756150403 ; 3.60263464398357E7 ; 0.0
199 ; 9851.746153593349 ; 313042.71288409777 ; 3046497.1263712854 ; 3.633821906090944E7 ; 0.0
200 ; 9893.04498248439 ; 314207.6485036177 ; 3056348.872524879 ; 3.665126177379354E7 ; 0.0
201 ; 9838.11821247844 ; 315367.396847403 ; 3066241.9175073635 ; 3.696546942229716E7 ; 0.0
202 ; 9860.620315147677 ; 316521.9270992058 ; 3076080.0357198417 ; 3.728083681914456E7 ; 0.0
203 ; 9930.886696972306 ; 317671.2087081468 ; 3085940.6560349893 ; 3.759735874624377E7 ; 0.0
204 ; 9997.802058294163 ; 318815.21138553135 ; 3095871.5427319617 ; 3.791502995495191E7 ; 0.0
205 ; 9954.13650620505 ; 319953.90510176274 ; 3105869.3447902557 ; 3.8233845166337445E7 ; 0.0
206 ; 9945.127367442066 ; 321087.2600833519 ; 3115823.4812964606 ; 3.855379907143921E7 ; 0.0
207 ; 10047.442674003476 ; 322215.246810018 ; 3125768.6086639026 ; 3.887488633152256E7 ; 0.0
208 ; 10309.725399253248 ; 323337.83601187915 ; 3135816.051337906 ; 3.919710157833258E7 ; 0.0
209 ; 10069.187054007165 ; 324454.9986667283 ; 3146125.7767371596 ; 3.952043941434446E7 ; 0.0
210 ; 10179.432503060476 ; 325566.7059973944 ; 3156194.963791167 ; 3.9844894413011186E7 ; 0.0
211 ; 10246.764862889399 ; 326672.92946918256 ; 3166374.3962942273 ; 4.017046111900858E7 ; 0.0
212 ; 10097.868029262458 ; 327773.64078739384 ; 3176621.1611571168 ; 4.049713404847776E7 ; 0.0
