CSV File for the City 1 on Day 207
1 - Minute m 
2 - Power Consumed at minute m 
3 - Power Produced at minute m 
4 - Energy Consumed since the beginning of the day 
5 - Energy Produced since the beginning of the day 
6 - Energy Lost since the beginning of the day on lines starting from the city
 
0 ; 5221.085856773915 ; 3720.9621361553145 ; 0.0 ; 0.0 ; 0.0
1 ; 5792.627842347997 ; 3720.9621361553145 ; 5221.085856773915 ; 3720.9621361553145 ; 238.00000000000003
2 ; 6624.101447510477 ; 3720.9621361553145 ; 11013.713699121912 ; 7441.924272310629 ; 476.00000000000006
3 ; 7173.299671432156 ; 3720.9621361553145 ; 17637.81514663239 ; 11162.886408465944 ; 714.0000000000001
4 ; 7657.515409742735 ; 3720.9621361553145 ; 24811.114818064547 ; 14883.848544621258 ; 952.0000000000001
5 ; 8439.086133032664 ; 3720.9621361553145 ; 32468.630227807284 ; 18604.810680776573 ; 1190.0000000000002
6 ; 8976.900528274835 ; 3720.9621361553145 ; 40907.71636083995 ; 22325.772816931887 ; 1428.0000000000002
7 ; 9662.79685821922 ; 3720.9621361553145 ; 49884.61688911478 ; 26046.7349530872 ; 1666.0000000000002
8 ; 10224.709259596306 ; 3720.9621361553145 ; 59547.413747334 ; 29767.697089242516 ; 1904.0000000000002
9 ; 10884.759715685399 ; 3720.9621361553145 ; 69772.12300693031 ; 33488.65922539783 ; 2142.0000000000005
10 ; 11355.646748100577 ; 3720.9621361553145 ; 80656.88272261572 ; 37209.621361553145 ; 2380.0000000000005
11 ; 11905.471924055528 ; 3720.9621361553145 ; 92012.5294707163 ; 40930.58349770846 ; 2618.0000000000005
12 ; 12463.410198251762 ; 3720.9621361553145 ; 103918.00139477183 ; 44651.545633863774 ; 2856.0000000000005
13 ; 13003.84205947085 ; 3720.9621361553145 ; 116381.41159302359 ; 48372.50777001909 ; 3094.0000000000005
14 ; 13552.127715182176 ; 3720.9621361553145 ; 129385.25365249443 ; 52093.4699061744 ; 3332.0000000000005
15 ; 13914.628267624483 ; 3720.9621361553145 ; 142937.3813676766 ; 55814.43204232972 ; 3570.0000000000005
16 ; 14739.925003855516 ; 3720.9621361553145 ; 156852.00963530107 ; 59535.39417848503 ; 3808.0000000000005
17 ; 15083.876747465998 ; 3720.9621361553145 ; 171591.9346391566 ; 63256.35631464035 ; 4046.0000000000005
18 ; 15704.808237794095 ; 3720.9621361553145 ; 186675.8113866226 ; 66977.31845079566 ; 4284.000000000001
19 ; 16239.522845172321 ; 3720.9621361553145 ; 202380.6196244167 ; 70698.28058695098 ; 4522.000000000001
20 ; 16506.40700703086 ; 3720.9621361553145 ; 218620.14246958902 ; 74419.24272310629 ; 4760.000000000001
21 ; 17158.105794813946 ; 3720.9621361553145 ; 235126.54947661987 ; 78140.2048592616 ; 4998.000000000001
22 ; 17638.362209787734 ; 3720.9621361553145 ; 252284.65527143382 ; 81861.16699541692 ; 5236.000000000001
23 ; 18021.382834282173 ; 3720.9621361553145 ; 269923.0174812215 ; 85582.12913157223 ; 5474.000000000001
24 ; 18472.499324311277 ; 3720.9621361553145 ; 287944.4003155037 ; 89303.09126772755 ; 5712.000000000001
25 ; 18896.189964052548 ; 3720.9621361553145 ; 306416.899639815 ; 93024.05340388286 ; 5950.000000000001
26 ; 19462.007949501767 ; 3720.9621361553145 ; 325313.0896038675 ; 96745.01554003818 ; 6188.000000000001
27 ; 20055.056946099423 ; 3720.9621361553145 ; 344775.09755336924 ; 100465.97767619349 ; 6426.000000000001
28 ; 20324.21529899032 ; 3720.9621361553145 ; 364830.1544994687 ; 104186.9398123488 ; 6664.000000000001
29 ; 20730.27601590654 ; 3720.9621361553145 ; 385154.369798459 ; 107907.90194850412 ; 6902.000000000001
30 ; 21187.091337610822 ; 3720.9621361553145 ; 405884.64581436553 ; 111628.86408465944 ; 7140.000000000001
31 ; 21418.009669748302 ; 3720.9621361553145 ; 427071.7371519763 ; 115349.82622081475 ; 7378.000000000001
32 ; 21763.60583035485 ; 3720.9621361553145 ; 448489.74682172464 ; 119070.78835697006 ; 7616.000000000001
33 ; 22502.819433653563 ; 3720.9621361553145 ; 470253.3526520795 ; 122791.75049312538 ; 7854.000000000001
34 ; 22784.0852220916 ; 3720.9621361553145 ; 492756.17208573304 ; 126512.7126292807 ; 8092.000000000001
35 ; 23096.776815257756 ; 3720.9621361553145 ; 515540.2573078246 ; 130233.67476543601 ; 8330.000000000002
36 ; 23505.515646545304 ; 3720.9621361553145 ; 538637.0341230824 ; 133954.63690159132 ; 8568.000000000002
37 ; 23893.164888024152 ; 3720.9621361553145 ; 562142.5497696277 ; 137675.59903774664 ; 8806.000000000002
38 ; 24355.183908207197 ; 3720.9621361553145 ; 586035.7146576518 ; 141396.56117390195 ; 9044.000000000002
39 ; 24578.01945270053 ; 3720.9621361553145 ; 610390.8985658591 ; 145117.52331005727 ; 9282.000000000002
40 ; 24926.54393066679 ; 3720.9621361553145 ; 634968.9180185596 ; 148838.48544621258 ; 9520.000000000002
41 ; 25177.03944055365 ; 3720.9621361553145 ; 659895.4619492263 ; 152559.4475823679 ; 9758.000000000002
42 ; 25571.314087295224 ; 3720.9621361553145 ; 685072.50138978 ; 156280.4097185232 ; 9996.000000000002
43 ; 25874.423970114116 ; 3720.9621361553145 ; 710643.8154770752 ; 160001.37185467852 ; 10234.000000000002
44 ; 26100.385267347723 ; 3720.9621361553145 ; 736518.2394471893 ; 163722.33399083384 ; 10472.000000000002
45 ; 26371.558458996355 ; 3720.9621361553145 ; 762618.6247145369 ; 167443.29612698915 ; 10710.000000000002
46 ; 26712.29081114052 ; 3720.9621361553145 ; 788990.1831735333 ; 171164.25826314447 ; 10948.000000000002
47 ; 27138.458891805993 ; 3720.9621361553145 ; 815702.4739846739 ; 174885.22039929978 ; 11186.000000000002
48 ; 27382.51972748144 ; 3720.9621361553145 ; 842840.9328764798 ; 178606.1825354551 ; 11424.000000000002
49 ; 27581.116716290227 ; 3720.9621361553145 ; 870223.4526039612 ; 182327.1446716104 ; 11662.000000000002
50 ; 27785.064971267642 ; 3720.9621361553145 ; 897804.5693202515 ; 186048.10680776573 ; 11900.000000000002
51 ; 28104.622524706596 ; 3720.9621361553145 ; 925589.6342915191 ; 189769.06894392104 ; 12138.000000000002
52 ; 28420.189595188065 ; 3720.9621361553145 ; 953694.2568162257 ; 193490.03108007635 ; 12376.000000000002
53 ; 28586.71657408357 ; 3720.9621361553145 ; 982114.4464114137 ; 197210.99321623167 ; 12614.000000000002
54 ; 28824.01870469021 ; 3720.9621361553145 ; 1010701.1629854973 ; 200931.95535238698 ; 12852.000000000002
55 ; 28991.348092006152 ; 3720.9621361553145 ; 1039525.1816901874 ; 204652.9174885423 ; 13090.000000000002
56 ; 29338.093991115064 ; 3720.9621361553145 ; 1068516.5297821935 ; 208373.8796246976 ; 13328.000000000002
57 ; 29334.981948242057 ; 3720.9621361553145 ; 1097854.6237733085 ; 212094.84176085293 ; 13566.000000000002
58 ; 29663.92289289956 ; 3720.9621361553145 ; 1127189.6057215505 ; 215815.80389700824 ; 13804.000000000002
59 ; 29837.113002698974 ; 3720.9621361553145 ; 1156853.52861445 ; 219536.76603316356 ; 14042.000000000002
60 ; 29996.67507084267 ; 3720.9621361553145 ; 1186690.6416171489 ; 223257.72816931887 ; 14280.000000000002
61 ; 30127.312577626075 ; 3720.9621361553145 ; 1216687.3166879916 ; 226978.69030547419 ; 14518.000000000002
62 ; 30339.45204247726 ; 3720.9621361553145 ; 1246814.6292656176 ; 230699.6524416295 ; 14756.000000000002
63 ; 30477.32246301459 ; 3720.9621361553145 ; 1277154.0813080948 ; 234420.6145777848 ; 14994.000000000002
64 ; 30569.69229267056 ; 3720.9621361553145 ; 1307631.4037711094 ; 238141.57671394013 ; 15232.000000000002
65 ; 30656.00441198857 ; 3720.9621361553145 ; 1338201.09606378 ; 241862.53885009544 ; 15470.000000000002
66 ; 30755.311222991048 ; 3720.9621361553145 ; 1368857.1004757686 ; 245583.50098625076 ; 15708.000000000002
67 ; 30951.412506991874 ; 3720.9621361553145 ; 1399612.4116987595 ; 249304.46312240607 ; 15946.000000000002
68 ; 31050.311275199023 ; 3720.9621361553145 ; 1430563.8242057513 ; 253025.4252585614 ; 16184.000000000002
69 ; 31132.455197143478 ; 3720.9621361553145 ; 1461614.1354809504 ; 256746.3873947167 ; 16422.000000000004
70 ; 31381.474015530574 ; 3720.9621361553145 ; 1492746.5906780937 ; 260467.34953087202 ; 16660.000000000004
71 ; 31297.352465490276 ; 3720.9621361553145 ; 1524128.0646936244 ; 264188.3116670273 ; 16898.000000000004
72 ; 31596.631788381914 ; 3720.9621361553145 ; 1555425.4171591147 ; 267909.27380318264 ; 17136.000000000004
73 ; 31680.253374524855 ; 3720.9621361553145 ; 1587022.0489474966 ; 271630.235939338 ; 17374.000000000004
74 ; 31462.6634857156 ; 3720.9621361553145 ; 1618702.3023220215 ; 275351.19807549333 ; 17612.000000000004
75 ; 31687.7493599835 ; 3720.9621361553145 ; 1650164.965807737 ; 279072.1602116487 ; 17850.000000000004
76 ; 31736.412819234716 ; 3720.9621361553145 ; 1681852.7151677206 ; 282793.122347804 ; 18088.000000000004
77 ; 31702.612568933633 ; 3720.9621361553145 ; 1713589.1279869552 ; 286514.08448395936 ; 18326.000000000004
78 ; 31704.849409681192 ; 3720.9621361553145 ; 1745291.740555889 ; 290235.0466201147 ; 18564.000000000004
79 ; 31714.09186581211 ; 3720.9621361553145 ; 1776996.5899655703 ; 293956.00875627005 ; 18802.000000000004
80 ; 31804.544485882063 ; 3720.9621361553145 ; 1808710.6818313824 ; 297676.9708924254 ; 19040.000000000004
81 ; 31882.31036403471 ; 3720.9621361553145 ; 1840515.2263172646 ; 301397.93302858074 ; 19278.000000000004
82 ; 31815.74590950709 ; 3720.9621361553145 ; 1872397.5366812993 ; 305118.8951647361 ; 19516.000000000004
83 ; 31832.98986397543 ; 3720.9621361553145 ; 1904213.2825908065 ; 308839.8573008914 ; 19754.000000000004
84 ; 31877.69128986592 ; 3720.9621361553145 ; 1936046.272454782 ; 312560.81943704677 ; 19992.000000000004
85 ; 31940.050218802066 ; 3720.9621361553145 ; 1967923.9637446478 ; 316281.7815732021 ; 20230.000000000004
86 ; 31833.971267234723 ; 3720.9621361553145 ; 1999864.01396345 ; 320002.74370935746 ; 20468.000000000004
87 ; 31853.9980386056 ; 3720.9621361553145 ; 2031697.9852306847 ; 323723.7058455128 ; 20706.000000000004
88 ; 31825.855476380482 ; 3720.9621361553145 ; 2063551.9832692903 ; 327444.66798166814 ; 20944.000000000004
89 ; 31716.699237131197 ; 3720.9621361553145 ; 2095377.8387456709 ; 331165.6301178235 ; 21182.000000000004
90 ; 31706.25676985024 ; 3720.9621361553145 ; 2127094.537982802 ; 334886.59225397883 ; 21420.000000000004
91 ; 31576.891720374864 ; 3720.9621361553145 ; 2158800.7947526523 ; 338607.5543901342 ; 21658.000000000004
92 ; 31536.122110950506 ; 3720.9621361553145 ; 2190377.6864730273 ; 342328.5165262895 ; 21896.000000000004
93 ; 31450.973663908502 ; 3720.9621361553145 ; 2221913.8085839776 ; 346049.47866244486 ; 22134.000000000004
94 ; 31285.974006710385 ; 3720.9621361553145 ; 2253364.782247886 ; 349770.4407986002 ; 22372.000000000004
95 ; 31562.43881811161 ; 3720.9621361553145 ; 2284650.7562545966 ; 353491.40293475555 ; 22610.000000000004
96 ; 31107.54617554321 ; 3720.9621361553145 ; 2316213.195072708 ; 357212.3650709109 ; 22848.000000000004
97 ; 30980.771588070664 ; 3720.9621361553145 ; 2347320.7412482514 ; 360933.32720706624 ; 23086.000000000004
98 ; 31055.741616592222 ; 3720.9621361553145 ; 2378301.512836322 ; 364654.2893432216 ; 23324.000000000004
99 ; 30714.42975528225 ; 3720.9621361553145 ; 2409357.2544529145 ; 368375.2514793769 ; 23562.000000000004
100 ; 30932.31142972575 ; 3720.9621361553145 ; 2440071.6842081966 ; 372096.21361553227 ; 23800.000000000004
101 ; 30781.840842405298 ; 3720.9621361553145 ; 2471003.9956379225 ; 375817.1757516876 ; 24038.000000000004
102 ; 30360.094930441108 ; 3720.9621361553145 ; 2501785.836480328 ; 379538.13788784295 ; 24276.000000000004
103 ; 30102.59641095789 ; 3720.9621361553145 ; 2532145.931410769 ; 383259.1000239983 ; 24514.000000000004
104 ; 30110.16703306081 ; 3720.9621361553145 ; 2562248.527821727 ; 386980.06216015364 ; 24752.000000000004
105 ; 29929.502676111148 ; 3720.9621361553145 ; 2592358.694854788 ; 390701.024296309 ; 24990.000000000004
106 ; 29498.364514521836 ; 3720.9621361553145 ; 2622288.197530899 ; 394421.9864324643 ; 25228.000000000004
107 ; 29416.5226437541 ; 3720.9621361553145 ; 2651786.562045421 ; 398142.9485686197 ; 25466.000000000004
108 ; 29312.40550613275 ; 3720.9621361553145 ; 2681203.0846891752 ; 401863.910704775 ; 25704.000000000004
109 ; 29100.90989441445 ; 3720.9621361553145 ; 2710515.490195308 ; 405584.87284093036 ; 25942.000000000004
110 ; 28661.78491029462 ; 3720.9621361553145 ; 2739616.400089722 ; 409305.8349770857 ; 26180.000000000004
111 ; 28626.931766585956 ; 3720.9621361553145 ; 2768278.185000017 ; 413026.79711324105 ; 26418.000000000004
112 ; 28302.017248061566 ; 3720.9621361553145 ; 2796905.1167666027 ; 416747.7592493964 ; 26656.000000000004
113 ; 28133.891852867997 ; 3720.9621361553145 ; 2825207.134014664 ; 420468.72138555173 ; 26894.000000000004
114 ; 28023.676330661252 ; 3720.9621361553145 ; 2853341.025867532 ; 424189.6835217071 ; 27132.000000000004
115 ; 27720.595314595634 ; 3720.9621361553145 ; 2881364.7021981934 ; 427910.6456578624 ; 27370.000000000004
116 ; 27529.73905816712 ; 3720.9621361553145 ; 2909085.2975127893 ; 431631.60779401776 ; 27608.000000000004
117 ; 27224.359374994896 ; 3720.9621361553145 ; 2936615.0365709565 ; 435352.5699301731 ; 27846.000000000004
118 ; 27043.091902930857 ; 3720.9621361553145 ; 2963839.3959459513 ; 439073.53206632845 ; 28084.000000000004
119 ; 26535.200922779968 ; 3720.9621361553145 ; 2990882.487848882 ; 442794.4942024838 ; 28322.000000000004
120 ; 26348.625846499588 ; 3720.9621361553145 ; 3017417.688771662 ; 446515.45633863914 ; 28560.000000000004
121 ; 25993.274964409207 ; 3720.9621361553145 ; 3043766.3146181614 ; 450236.4184747945 ; 28798.000000000004
122 ; 25718.051127356008 ; 3720.9621361553145 ; 3069759.589582571 ; 453957.3806109498 ; 29036.000000000004
123 ; 25324.053356712655 ; 3720.9621361553145 ; 3095477.640709927 ; 457678.34274710517 ; 29274.000000000004
124 ; 25205.24417782552 ; 3720.9621361553145 ; 3120801.6940666395 ; 461399.3048832605 ; 29512.000000000004
125 ; 24780.972598368022 ; 3720.9621361553145 ; 3146006.9382444653 ; 465120.26701941586 ; 29750.000000000004
126 ; 24334.712104877068 ; 3720.9621361553145 ; 3170787.910842833 ; 468841.2291555712 ; 29988.000000000004
127 ; 23830.365300750684 ; 3720.9621361553145 ; 3195122.62294771 ; 472562.19129172654 ; 30226.000000000004
128 ; 23800.13780010139 ; 3720.9621361553145 ; 3218952.988248461 ; 476283.1534278819 ; 30464.000000000004
129 ; 23341.61890812762 ; 3720.9621361553145 ; 3242753.126048562 ; 480004.11556403723 ; 30702.000000000004
130 ; 22814.09110818569 ; 3720.9621361553145 ; 3266094.74495669 ; 483725.0777001926 ; 30940.000000000004
131 ; 22530.097212675453 ; 3720.9621361553145 ; 3288908.8360648756 ; 487446.0398363479 ; 31178.000000000004
132 ; 22292.103544551268 ; 3720.9621361553145 ; 3311438.933277551 ; 491167.00197250326 ; 31416.000000000004
133 ; 21635.570549847213 ; 3720.9621361553145 ; 3333731.0368221025 ; 494887.9641086586 ; 31654.000000000004
134 ; 21272.70879973376 ; 3720.9621361553145 ; 3355366.6073719496 ; 498608.92624481395 ; 31892.000000000004
135 ; 20970.021752197623 ; 3720.9621361553145 ; 3376639.3161716834 ; 502329.8883809693 ; 32130.000000000004
136 ; 20561.927881653293 ; 3720.9621361553145 ; 3397609.337923881 ; 506050.85051712464 ; 32368.000000000004
137 ; 20180.244785305076 ; 3720.9621361553145 ; 3418171.2658055346 ; 509771.81265328 ; 32606.000000000004
138 ; 19557.098727149278 ; 3720.9621361553145 ; 3438351.5105908397 ; 513492.7747894353 ; 32844.00000000001
139 ; 19248.656233795482 ; 3720.9621361553145 ; 3457908.609317989 ; 517213.73692559067 ; 33082.00000000001
140 ; 18743.803319057828 ; 3720.9621361553145 ; 3477157.2655517845 ; 520934.699061746 ; 33320.00000000001
141 ; 18180.168268472145 ; 3720.9621361553145 ; 3495901.0688708425 ; 524655.6611979014 ; 33558.00000000001
142 ; 17885.22798177509 ; 3720.9621361553145 ; 3514081.2371393144 ; 528376.6233340567 ; 33796.00000000001
143 ; 17345.517491472398 ; 3720.9621361553145 ; 3531966.4651210895 ; 532097.585470212 ; 34034.00000000001
144 ; 16879.214246122727 ; 3720.9621361553145 ; 3549311.982612562 ; 535818.5476063674 ; 34272.00000000001
145 ; 17060.80980321097 ; 3720.9621361553145 ; 3566191.1968586845 ; 539539.5097425227 ; 34510.00000000001
146 ; 16642.443204455514 ; 3720.9621361553145 ; 3583252.0066618957 ; 543260.4718786781 ; 34748.00000000001
147 ; 16503.765752162482 ; 3720.9621361553145 ; 3599894.449866351 ; 546981.4340148334 ; 34986.00000000001
148 ; 16378.580585476178 ; 3720.9621361553145 ; 3616398.2156185135 ; 550702.3961509888 ; 35224.00000000001
149 ; 16181.963288115661 ; 3720.9621361553145 ; 3632776.7962039895 ; 554423.3582871441 ; 35462.00000000001
150 ; 16077.206690104445 ; 3720.9621361553145 ; 3648958.7594921053 ; 558144.3204232994 ; 35700.00000000001
151 ; 15852.968527149727 ; 3720.9621361553145 ; 3665035.9661822096 ; 561865.2825594548 ; 35938.00000000001
152 ; 15872.038666133772 ; 3720.9621361553145 ; 3680888.9347093594 ; 565586.2446956101 ; 36176.00000000001
153 ; 15672.424804865062 ; 3720.9621361553145 ; 3696760.973375493 ; 569307.2068317655 ; 36414.00000000001
154 ; 15535.47602327925 ; 3720.9621361553145 ; 3712433.398180358 ; 573028.1689679208 ; 36652.00000000001
155 ; 15538.200163971036 ; 3720.9621361553145 ; 3727968.8742036372 ; 576749.1311040762 ; 36890.00000000001
156 ; 15151.269128646736 ; 3720.9621361553145 ; 3743507.0743676084 ; 580470.0932402315 ; 37128.00000000001
157 ; 15098.409821162126 ; 3720.9621361553145 ; 3758658.343496255 ; 584191.0553763869 ; 37366.00000000001
158 ; 14718.645765639496 ; 3720.9621361553145 ; 3773756.753317417 ; 587912.0175125422 ; 37604.00000000001
159 ; 14561.47250310914 ; 3720.9621361553145 ; 3788475.3990830565 ; 591632.9796486975 ; 37842.00000000001
160 ; 14470.511981136504 ; 3720.9621361553145 ; 3803036.871586166 ; 595353.9417848529 ; 38080.00000000001
161 ; 14311.028708492562 ; 3720.9621361553145 ; 3817507.3835673025 ; 599074.9039210082 ; 38318.00000000001
162 ; 14033.928859919277 ; 3720.9621361553145 ; 3831818.412275795 ; 602795.8660571636 ; 38556.00000000001
163 ; 13749.284122298539 ; 3720.9621361553145 ; 3845852.341135714 ; 606516.8281933189 ; 38794.00000000001
164 ; 13599.444439533454 ; 3720.9621361553145 ; 3859601.6252580127 ; 610237.7903294743 ; 39032.00000000001
165 ; 13584.779757743932 ; 3720.9621361553145 ; 3873201.0696975463 ; 613958.7524656296 ; 39270.00000000001
166 ; 13264.179615549416 ; 3720.9621361553145 ; 3886785.84945529 ; 617679.714601785 ; 39508.00000000001
167 ; 13237.748276784114 ; 3720.9621361553145 ; 3900050.0290708393 ; 621400.6767379403 ; 39746.00000000001
168 ; 12961.895028343743 ; 3720.9621361553145 ; 3913287.7773476234 ; 625121.6388740956 ; 39984.00000000001
169 ; 12935.418222513377 ; 3720.9621361553145 ; 3926249.6723759673 ; 628842.601010251 ; 40222.00000000001
170 ; 12535.205841744702 ; 3720.9621361553145 ; 3939185.090598481 ; 632563.5631464063 ; 40460.00000000001
171 ; 12433.650469650303 ; 3720.9621361553145 ; 3951720.2964402256 ; 636284.5252825617 ; 40698.00000000001
172 ; 11902.02505578406 ; 3720.9621361553145 ; 3964153.946909876 ; 640005.487418717 ; 40936.00000000001
173 ; 12131.755248564317 ; 3720.9621361553145 ; 3976055.9719656603 ; 643726.4495548723 ; 41174.00000000001
174 ; 11915.029070945915 ; 3720.9621361553145 ; 3988187.7272142246 ; 647447.4116910277 ; 41412.00000000001
175 ; 12024.960184304571 ; 3720.9621361553145 ; 4000102.7562851706 ; 651168.373827183 ; 41650.00000000001
176 ; 12122.90605767848 ; 3720.9621361553145 ; 4012127.716469475 ; 654889.3359633384 ; 41888.00000000001
177 ; 12100.396109305882 ; 3720.9621361553145 ; 4024250.6225271537 ; 658610.2980994937 ; 42126.00000000001
178 ; 12272.038812483463 ; 3720.9621361553145 ; 4036351.0186364595 ; 662331.2602356491 ; 42364.00000000001
179 ; 12256.421209842414 ; 3720.9621361553145 ; 4048623.057448943 ; 666052.2223718044 ; 42602.00000000001
180 ; 12163.991020404315 ; 3720.9621361553145 ; 4060879.4786587856 ; 669773.1845079598 ; 42840.00000000001
181 ; 12376.55590753881 ; 3720.9621361553145 ; 4073043.46967919 ; 673494.1466441151 ; 43078.00000000001
182 ; 12178.611685284755 ; 3720.9621361553145 ; 4085420.0255867285 ; 677215.1087802704 ; 43316.00000000001
183 ; 12333.730747056723 ; 3720.9621361553145 ; 4097598.6372720134 ; 680936.0709164258 ; 43554.00000000001
184 ; 12347.24890500659 ; 3720.9621361553145 ; 4109932.36801907 ; 684657.0330525811 ; 43792.00000000001
