CSV File for the City 2 on Day 179
1 - Minute m 
2 - Power Consumed at minute m 
3 - Power Produced at minute m 
4 - Energy Consumed since the beginning of the day 
5 - Energy Produced since the beginning of the day 
6 - Energy Lost since the beginning of the day on lines starting from the city
 
0 ; 5435.676819916556 ; 32428.47406661023 ; 0.0 ; 0.0 ; 0.0
1 ; 5769.071265895413 ; 32428.47406661023 ; 5435.676819916556 ; 32428.47406661023 ; 0.0
2 ; 6433.617640541336 ; 32428.47406661023 ; 11204.748085811969 ; 64856.94813322046 ; 0.0
3 ; 7026.194884343284 ; 32428.47406661023 ; 17638.365726353306 ; 97285.42219983069 ; 0.0
4 ; 7598.497452159128 ; 32428.47406661023 ; 24664.56061069659 ; 129713.89626644092 ; 0.0
5 ; 8079.471973207804 ; 32428.47406661023 ; 32263.058062855718 ; 162142.37033305113 ; 0.0
6 ; 8413.972675122293 ; 32428.47406661023 ; 40342.53003606352 ; 194570.84439966135 ; 0.0
7 ; 8816.789361994204 ; 32428.47406661023 ; 48756.502711185814 ; 226999.31846627156 ; 0.0
8 ; 9513.289538866766 ; 32428.47406661023 ; 57573.29207318002 ; 259427.79253288178 ; 0.0
9 ; 9629.635892368495 ; 32428.47406661023 ; 67086.58161204678 ; 291856.266599492 ; 0.0
10 ; 10276.323117605474 ; 32428.47406661023 ; 76716.21750441527 ; 324284.7406661022 ; 0.0
11 ; 10481.942881982397 ; 32428.47406661023 ; 86992.54062202074 ; 356713.2147327124 ; 0.0
12 ; 10798.051621457793 ; 32428.47406661023 ; 97474.48350400313 ; 389141.68879932264 ; 0.0
13 ; 11370.376794452848 ; 32428.47406661023 ; 108272.53512546093 ; 421570.16286593286 ; 0.0
14 ; 11799.312549453918 ; 32428.47406661023 ; 119642.91191991378 ; 453998.6369325431 ; 0.0
15 ; 12235.178623268785 ; 32428.47406661023 ; 131442.2244693677 ; 486427.1109991533 ; 0.0
16 ; 12564.619283950522 ; 32428.47406661023 ; 143677.4030926365 ; 518855.5850657635 ; 0.0
17 ; 13004.749526971587 ; 32428.47406661023 ; 156242.022376587 ; 551284.0591323738 ; 0.0
18 ; 13426.802973967735 ; 32428.47406661023 ; 169246.77190355858 ; 583712.533198984 ; 0.0
19 ; 13889.04154732532 ; 32428.47406661023 ; 182673.57487752632 ; 616141.0072655942 ; 0.0
20 ; 14182.704530381976 ; 32428.47406661023 ; 196562.61642485164 ; 648569.4813322044 ; 0.0
21 ; 14483.414876097755 ; 32428.47406661023 ; 210745.32095523362 ; 680997.9553988146 ; 0.0
22 ; 14930.947104235125 ; 32428.47406661023 ; 225228.73583133137 ; 713426.4294654249 ; 0.0
23 ; 15259.036949444362 ; 32428.47406661023 ; 240159.6829355665 ; 745854.9035320351 ; 0.0
24 ; 15557.545237659238 ; 32428.47406661023 ; 255418.71988501085 ; 778283.3775986453 ; 0.0
25 ; 15996.018399362163 ; 32428.47406661023 ; 270976.2651226701 ; 810711.8516652555 ; 0.0
26 ; 16230.782332926416 ; 32428.47406661023 ; 286972.28352203226 ; 843140.3257318657 ; 0.0
27 ; 16550.780859045313 ; 32428.47406661023 ; 303203.06585495867 ; 875568.7997984759 ; 0.0
28 ; 16842.643564245325 ; 32428.47406661023 ; 319753.846714004 ; 907997.2738650861 ; 0.0
29 ; 17437.933512098785 ; 32428.47406661023 ; 336596.4902782493 ; 940425.7479316964 ; 0.0
30 ; 17555.31208437832 ; 32428.47406661023 ; 354034.4237903481 ; 972854.2219983066 ; 0.0
31 ; 17996.57828162016 ; 32428.47406661023 ; 371589.73587472644 ; 1005282.6960649168 ; 0.0
32 ; 18185.209805043156 ; 32428.47406661023 ; 389586.3141563466 ; 1037711.170131527 ; 0.0
33 ; 18489.805383458744 ; 32428.47406661023 ; 407771.5239613898 ; 1070139.6441981373 ; 0.0
34 ; 18807.409568646384 ; 32428.47406661023 ; 426261.3293448485 ; 1102568.1182647476 ; 0.0
35 ; 19003.3065588547 ; 32428.47406661023 ; 445068.7389134949 ; 1134996.5923313578 ; 0.0
36 ; 19418.222279173122 ; 32428.47406661023 ; 464072.0454723496 ; 1167425.066397968 ; 0.0
37 ; 19516.236401895123 ; 32428.47406661023 ; 483490.26775152277 ; 1199853.5404645782 ; 0.0
38 ; 19896.70319081149 ; 32428.47406661023 ; 503006.5041534179 ; 1232282.0145311884 ; 0.0
39 ; 20076.922005612607 ; 32428.47406661023 ; 522903.2073442294 ; 1264710.4885977986 ; 0.0
40 ; 20201.964102258808 ; 32428.47406661023 ; 542980.129349842 ; 1297138.9626644088 ; 0.0
41 ; 20807.78168868867 ; 32428.47406661023 ; 563182.0934521008 ; 1329567.436731019 ; 0.0
42 ; 20902.364775580736 ; 32428.47406661023 ; 583989.8751407894 ; 1361995.9107976293 ; 0.0
43 ; 21204.762257922426 ; 32428.47406661023 ; 604892.2399163701 ; 1394424.3848642395 ; 0.0
44 ; 21431.0040724065 ; 32428.47406661023 ; 626097.0021742926 ; 1426852.8589308497 ; 0.0
45 ; 21556.266634239917 ; 32428.47406661023 ; 647528.006246699 ; 1459281.33299746 ; 0.0
46 ; 21802.10296334786 ; 32428.47406661023 ; 669084.272880939 ; 1491709.8070640701 ; 0.0
47 ; 22014.29450921632 ; 32428.47406661023 ; 690886.3758442868 ; 1524138.2811306803 ; 0.0
48 ; 22300.38020684787 ; 32428.47406661023 ; 712900.6703535031 ; 1556566.7551972906 ; 0.0
49 ; 22436.734225023163 ; 32428.47406661023 ; 735201.050560351 ; 1588995.2292639008 ; 0.0
50 ; 22685.69793777031 ; 32428.47406661023 ; 757637.7847853742 ; 1621423.703330511 ; 0.0
51 ; 22738.08296881353 ; 32428.47406661023 ; 780323.4827231445 ; 1653852.1773971212 ; 0.0
52 ; 22978.578057739203 ; 32428.47406661023 ; 803061.565691958 ; 1686280.6514637314 ; 0.0
53 ; 23211.563447537068 ; 32428.47406661023 ; 826040.1437496971 ; 1718709.1255303416 ; 0.0
54 ; 23499.775494374455 ; 32428.47406661023 ; 849251.7071972342 ; 1751137.5995969519 ; 0.0
55 ; 23600.844010331974 ; 32428.47406661023 ; 872751.4826916086 ; 1783566.073663562 ; 0.0
56 ; 23747.5535251776 ; 32428.47406661023 ; 896352.3267019406 ; 1815994.5477301723 ; 0.0
57 ; 23939.558727526193 ; 32428.47406661023 ; 920099.8802271183 ; 1848423.0217967825 ; 0.0
58 ; 23871.96341114091 ; 32428.47406661023 ; 944039.4389546445 ; 1880851.4958633927 ; 0.0
59 ; 24127.93234232302 ; 32428.47406661023 ; 967911.4023657854 ; 1913279.969930003 ; 0.0
60 ; 24380.663536838518 ; 32428.47406661023 ; 992039.3347081085 ; 1945708.4439966131 ; 0.0
61 ; 24332.581690040326 ; 32428.47406661023 ; 1016419.9982449469 ; 1978136.9180632234 ; 0.0
62 ; 24554.83635484584 ; 32428.47406661023 ; 1040752.5799349872 ; 2010565.3921298336 ; 0.0
63 ; 24782.74700517294 ; 32428.47406661023 ; 1065307.4162898331 ; 2042993.8661964438 ; 0.0
64 ; 24724.541342401677 ; 32428.47406661023 ; 1090090.1632950061 ; 2075422.340263054 ; 0.0
65 ; 24863.17066315317 ; 32428.47406661023 ; 1114814.7046374078 ; 2107850.814329664 ; 0.0
66 ; 25017.874266927884 ; 32428.47406661023 ; 1139677.875300561 ; 2140279.2883962747 ; 0.0
67 ; 25050.68608993717 ; 32428.47406661023 ; 1164695.749567489 ; 2172707.762462885 ; 0.0
68 ; 25163.7725216279 ; 32428.47406661023 ; 1189746.435657426 ; 2205136.2365294956 ; 0.0
69 ; 25113.56542416199 ; 32428.47406661023 ; 1214910.2081790539 ; 2237564.710596106 ; 0.0
70 ; 25271.36940394817 ; 32428.47406661023 ; 1240023.7736032158 ; 2269993.1846627165 ; 0.0
71 ; 25376.75859866693 ; 32428.47406661023 ; 1265295.143007164 ; 2302421.658729327 ; 0.0
72 ; 25463.029226383576 ; 32428.47406661023 ; 1290671.9016058308 ; 2334850.1327959374 ; 0.0
73 ; 25411.603290860246 ; 32428.47406661023 ; 1316134.9308322144 ; 2367278.606862548 ; 0.0
74 ; 25478.847359385654 ; 32428.47406661023 ; 1341546.5341230747 ; 2399707.0809291583 ; 0.0
75 ; 25692.140523462134 ; 32428.47406661023 ; 1367025.3814824603 ; 2432135.5549957687 ; 0.0
76 ; 25754.514276902617 ; 32428.47406661023 ; 1392717.5220059224 ; 2464564.029062379 ; 0.0
77 ; 25696.129825103893 ; 32428.47406661023 ; 1418472.036282825 ; 2496992.5031289896 ; 0.0
78 ; 25604.686738971206 ; 32428.47406661023 ; 1444168.1661079288 ; 2529420.9771956 ; 0.0
79 ; 25744.83371800195 ; 32428.47406661023 ; 1469772.8528469 ; 2561849.4512622105 ; 0.0
80 ; 25603.20297680504 ; 32428.47406661023 ; 1495517.6865649018 ; 2594277.925328821 ; 0.0
81 ; 25805.591219015318 ; 32428.47406661023 ; 1521120.889541707 ; 2626706.3993954314 ; 0.0
82 ; 25829.805837962755 ; 32428.47406661023 ; 1546926.4807607224 ; 2659134.873462042 ; 0.0
83 ; 25813.4201880416 ; 32428.47406661023 ; 1572756.2865986852 ; 2691563.3475286523 ; 0.0
84 ; 25806.093325726866 ; 32428.47406661023 ; 1598569.7067867268 ; 2723991.8215952627 ; 0.0
85 ; 25867.428080094927 ; 32428.47406661023 ; 1624375.8001124538 ; 2756420.295661873 ; 0.0
86 ; 25670.82702947891 ; 32428.47406661023 ; 1650243.2281925487 ; 2788848.7697284836 ; 0.0
87 ; 25546.500081440052 ; 32428.47406661023 ; 1675914.0552220277 ; 2821277.243795094 ; 0.0
88 ; 25631.15410118231 ; 32428.47406661023 ; 1701460.5553034677 ; 2853705.7178617045 ; 0.0
89 ; 25695.183598852742 ; 32428.47406661023 ; 1727091.70940465 ; 2886134.191928315 ; 0.0
90 ; 25600.4263582365 ; 32428.47406661023 ; 1752786.8930035026 ; 2918562.6659949254 ; 0.0
91 ; 25425.291709210414 ; 32428.47406661023 ; 1778387.319361739 ; 2950991.140061536 ; 0.0
92 ; 25359.352399992193 ; 32428.47406661023 ; 1803812.6110709496 ; 2983419.6141281463 ; 0.0
93 ; 25440.179089446265 ; 32428.47406661023 ; 1829171.9634709419 ; 3015848.088194757 ; 0.0
94 ; 25380.396781638032 ; 32428.47406661023 ; 1854612.1425603882 ; 3048276.562261367 ; 0.0
95 ; 25050.357053836513 ; 32428.47406661023 ; 1879992.5393420262 ; 3080705.0363279777 ; 0.0
96 ; 25105.497551766628 ; 32428.47406661023 ; 1905042.8963958628 ; 3113133.510394588 ; 0.0
97 ; 24985.399366089932 ; 32428.47406661023 ; 1930148.3939476295 ; 3145561.9844611986 ; 0.0
98 ; 24950.19633044049 ; 32428.47406661023 ; 1955133.7933137193 ; 3177990.458527809 ; 0.0
99 ; 24947.933795481804 ; 32428.47406661023 ; 1980083.9896441598 ; 3210418.9325944195 ; 0.0
100 ; 24800.409626787092 ; 32428.47406661023 ; 2005031.9234396415 ; 3242847.40666103 ; 0.0
101 ; 24640.104525324143 ; 32428.47406661023 ; 2029832.3330664285 ; 3275275.8807276404 ; 0.0
102 ; 24578.492907477183 ; 32428.47406661023 ; 2054472.4375917527 ; 3307704.354794251 ; 0.0
103 ; 24466.935007409094 ; 32428.47406661023 ; 2079050.9304992298 ; 3340132.8288608612 ; 0.0
104 ; 24317.339497456967 ; 32428.47406661023 ; 2103517.865506639 ; 3372561.3029274717 ; 0.0
105 ; 24117.033112627945 ; 32428.47406661023 ; 2127835.2050040956 ; 3404989.776994082 ; 0.0
106 ; 24016.795622229238 ; 32428.47406661023 ; 2151952.2381167235 ; 3437418.2510606926 ; 0.0
107 ; 24005.32038946355 ; 32428.47406661023 ; 2175969.0337389526 ; 3469846.725127303 ; 0.0
108 ; 23689.517180182807 ; 32428.47406661023 ; 2199974.354128416 ; 3502275.1991939135 ; 0.0
109 ; 23500.68831128463 ; 32428.47406661023 ; 2223663.871308599 ; 3534703.673260524 ; 0.0
110 ; 23369.576858996454 ; 32428.47406661023 ; 2247164.5596198835 ; 3567132.1473271344 ; 0.0
111 ; 23410.772255746688 ; 32428.47406661023 ; 2270534.13647888 ; 3599560.621393745 ; 0.0
112 ; 23052.264094545473 ; 32428.47406661023 ; 2293944.9087346266 ; 3631989.0954603553 ; 0.0
113 ; 22958.486056562757 ; 32428.47406661023 ; 2316997.172829172 ; 3664417.5695269657 ; 0.0
114 ; 22796.67474064261 ; 32428.47406661023 ; 2339955.658885735 ; 3696846.043593576 ; 0.0
115 ; 22384.34033690868 ; 32428.47406661023 ; 2362752.333626378 ; 3729274.5176601866 ; 0.0
116 ; 22440.179874682006 ; 32428.47406661023 ; 2385136.6739632864 ; 3761702.991726797 ; 0.0
117 ; 22109.575987264587 ; 32428.47406661023 ; 2407576.8538379683 ; 3794131.4657934075 ; 0.0
118 ; 21816.558525901575 ; 32428.47406661023 ; 2429686.429825233 ; 3826559.939860018 ; 0.0
119 ; 21806.952103182364 ; 32428.47406661023 ; 2451502.9883511346 ; 3858988.4139266284 ; 0.0
120 ; 21549.58215513882 ; 32428.47406661023 ; 2473309.940454317 ; 3891416.887993239 ; 0.0
121 ; 21238.329259014477 ; 32428.47406661023 ; 2494859.5226094555 ; 3923845.3620598493 ; 0.0
122 ; 20878.26163324986 ; 32428.47406661023 ; 2516097.85186847 ; 3956273.8361264598 ; 0.0
123 ; 20816.032868139926 ; 32428.47406661023 ; 2536976.11350172 ; 3988702.31019307 ; 0.0
124 ; 20451.52353071554 ; 32428.47406661023 ; 2557792.14636986 ; 4021130.7842596807 ; 0.0
125 ; 20109.079959244493 ; 32428.47406661023 ; 2578243.6699005757 ; 4053559.258326291 ; 0.0
126 ; 20041.976349235203 ; 32428.47406661023 ; 2598352.74985982 ; 4085987.7323929016 ; 0.0
127 ; 19602.888551112683 ; 32428.47406661023 ; 2618394.726209055 ; 4118416.206459512 ; 0.0
128 ; 19456.766214929197 ; 32428.47406661023 ; 2637997.614760168 ; 4150844.6805261225 ; 0.0
129 ; 19103.916195620746 ; 32428.47406661023 ; 2657454.380975097 ; 4183273.154592733 ; 0.0
130 ; 18699.261815625927 ; 32428.47406661023 ; 2676558.2971707177 ; 4215701.628659343 ; 0.0
131 ; 18663.04037869191 ; 32428.47406661023 ; 2695257.5589863434 ; 4248130.102725954 ; 0.0
132 ; 18176.65912910801 ; 32428.47406661023 ; 2713920.5993650355 ; 4280558.576792564 ; 0.0
133 ; 18097.03642416459 ; 32428.47406661023 ; 2732097.2584941434 ; 4312987.050859175 ; 0.0
134 ; 17703.56001973999 ; 32428.47406661023 ; 2750194.294918308 ; 4345415.524925785 ; 0.0
135 ; 17246.087649698886 ; 32428.47406661023 ; 2767897.854938048 ; 4377843.998992396 ; 0.0
136 ; 17075.182678496032 ; 32428.47406661023 ; 2785143.942587747 ; 4410272.473059006 ; 0.0
137 ; 16647.422400502277 ; 32428.47406661023 ; 2802219.125266243 ; 4442700.9471256165 ; 0.0
138 ; 16379.91716789125 ; 32428.47406661023 ; 2818866.5476667453 ; 4475129.421192227 ; 0.0
139 ; 16135.357431441693 ; 32428.47406661023 ; 2835246.4648346365 ; 4507557.895258837 ; 0.0
140 ; 15621.969505195939 ; 32428.47406661023 ; 2851381.822266078 ; 4539986.369325448 ; 0.0
141 ; 15296.587767859384 ; 32428.47406661023 ; 2867003.791771274 ; 4572414.843392058 ; 0.0
142 ; 14987.250138147729 ; 32428.47406661023 ; 2882300.3795391335 ; 4604843.317458669 ; 0.0
143 ; 14595.592721807123 ; 32428.47406661023 ; 2897287.6296772812 ; 4637271.791525279 ; 0.0
144 ; 14368.3149622892 ; 32428.47406661023 ; 2911883.2223990886 ; 4669700.26559189 ; 0.0
145 ; 14161.955349588025 ; 32428.47406661023 ; 2926251.537361378 ; 4702128.7396585 ; 0.0
146 ; 14190.09429279064 ; 32428.47406661023 ; 2940413.4927109657 ; 4734557.2137251105 ; 0.0
147 ; 14062.788461440763 ; 32428.47406661023 ; 2954603.5870037563 ; 4766985.687791721 ; 0.0
148 ; 13934.417149714249 ; 32428.47406661023 ; 2968666.375465197 ; 4799414.161858331 ; 0.0
149 ; 13940.398155032188 ; 32428.47406661023 ; 2982600.792614911 ; 4831842.635924942 ; 0.0
150 ; 13747.43554943344 ; 32428.47406661023 ; 2996541.1907699434 ; 4864271.109991552 ; 0.0
151 ; 13763.484704592804 ; 32428.47406661023 ; 3010288.6263193768 ; 4896699.584058163 ; 0.0
152 ; 13524.860229307744 ; 32428.47406661023 ; 3024052.1110239695 ; 4929128.058124773 ; 0.0
153 ; 13358.276560694165 ; 32428.47406661023 ; 3037576.9712532773 ; 4961556.532191384 ; 0.0
154 ; 13513.46748818236 ; 32428.47406661023 ; 3050935.2478139712 ; 4993985.006257994 ; 0.0
155 ; 13247.531767926788 ; 32428.47406661023 ; 3064448.7153021535 ; 5026413.480324605 ; 0.0
156 ; 12990.452978476804 ; 32428.47406661023 ; 3077696.24707008 ; 5058841.954391215 ; 0.0
157 ; 13021.629186667327 ; 32428.47406661023 ; 3090686.700048557 ; 5091270.428457825 ; 0.0
158 ; 12788.214792082768 ; 32428.47406661023 ; 3103708.3292352245 ; 5123698.902524436 ; 0.0
159 ; 12657.773220192688 ; 32428.47406661023 ; 3116496.544027307 ; 5156127.376591046 ; 0.0
160 ; 12505.591875609443 ; 32428.47406661023 ; 3129154.3172474997 ; 5188555.850657657 ; 0.0
161 ; 12423.185404032207 ; 32428.47406661023 ; 3141659.909123109 ; 5220984.324724267 ; 0.0
162 ; 12256.763723331578 ; 32428.47406661023 ; 3154083.094527141 ; 5253412.798790878 ; 0.0
163 ; 12096.27177261436 ; 32428.47406661023 ; 3166339.8582504727 ; 5285841.272857488 ; 0.0
164 ; 12028.040644358149 ; 32428.47406661023 ; 3178436.130023087 ; 5318269.746924099 ; 0.0
165 ; 11852.711384339387 ; 32428.47406661023 ; 3190464.1706674453 ; 5350698.220990709 ; 0.0
166 ; 11526.931813296784 ; 32428.47406661023 ; 3202316.8820517845 ; 5383126.6950573195 ; 0.0
167 ; 11705.470009723322 ; 32428.47406661023 ; 3213843.8138650814 ; 5415555.16912393 ; 0.0
168 ; 11194.65299353002 ; 32428.47406661023 ; 3225549.2838748046 ; 5447983.64319054 ; 0.0
169 ; 11297.8531255549 ; 32428.47406661023 ; 3236743.9368683347 ; 5480412.117257151 ; 0.0
170 ; 11056.293929403013 ; 32428.47406661023 ; 3248041.7899938896 ; 5512840.591323761 ; 0.0
171 ; 10977.010756428814 ; 32428.47406661023 ; 3259098.083923293 ; 5545269.065390372 ; 0.0
172 ; 10705.063122578245 ; 32428.47406661023 ; 3270075.0946797216 ; 5577697.539456982 ; 0.0
173 ; 10696.272709132729 ; 32428.47406661023 ; 3280780.1578023 ; 5610126.013523593 ; 0.0
174 ; 10507.662399795377 ; 32428.47406661023 ; 3291476.4305114327 ; 5642554.487590203 ; 0.0
175 ; 10574.345665675439 ; 32428.47406661023 ; 3301984.092911228 ; 5674982.9616568135 ; 0.0
176 ; 10818.66946444105 ; 32428.47406661023 ; 3312558.4385769037 ; 5707411.435723424 ; 0.0
177 ; 10742.617535902527 ; 32428.47406661023 ; 3323377.1080413447 ; 5739839.909790034 ; 0.0
178 ; 10781.207663222674 ; 32428.47406661023 ; 3334119.7255772473 ; 5772268.383856645 ; 0.0
179 ; 11006.505190908727 ; 32428.47406661023 ; 3344900.93324047 ; 5804696.857923255 ; 0.0
180 ; 10965.449887305047 ; 32428.47406661023 ; 3355907.438431379 ; 5837125.331989866 ; 0.0
181 ; 10972.700801496716 ; 32428.47406661023 ; 3366872.888318684 ; 5869553.806056476 ; 0.0
182 ; 10808.61852375718 ; 32428.47406661023 ; 3377845.589120181 ; 5901982.280123087 ; 0.0
183 ; 11007.056035155725 ; 32428.47406661023 ; 3388654.207643938 ; 5934410.754189697 ; 0.0
184 ; 11091.354009802346 ; 32428.47406661023 ; 3399661.2636790937 ; 5966839.228256308 ; 0.0
185 ; 11023.505249081902 ; 32428.47406661023 ; 3410752.617688896 ; 5999267.702322918 ; 0.0
186 ; 10749.250134244256 ; 32428.47406661023 ; 3421776.1229379782 ; 6031696.176389528 ; 0.0
187 ; 11026.79053163521 ; 32428.47406661023 ; 3432525.3730722223 ; 6064124.650456139 ; 0.0
188 ; 11140.764672947316 ; 32428.47406661023 ; 3443552.1636038576 ; 6096553.124522749 ; 0.0
189 ; 11029.934139639157 ; 32428.47406661023 ; 3454692.9282768047 ; 6128981.59858936 ; 0.0
190 ; 11136.32719479727 ; 32428.47406661023 ; 3465722.862416444 ; 6161410.07265597 ; 0.0
191 ; 11053.484580803397 ; 32428.47406661023 ; 3476859.189611241 ; 6193838.546722581 ; 0.0
192 ; 11299.951781290994 ; 32428.47406661023 ; 3487912.6741920444 ; 6226267.020789191 ; 0.0
193 ; 11092.819025706362 ; 32428.47406661023 ; 3499212.6259733355 ; 6258695.494855802 ; 0.0
194 ; 11135.517861657023 ; 32428.47406661023 ; 3510305.444999042 ; 6291123.968922412 ; 0.0
195 ; 11164.887363458487 ; 32428.47406661023 ; 3521440.962860699 ; 6323552.4429890225 ; 0.0
196 ; 11289.53200528897 ; 32428.47406661023 ; 3532605.8502241573 ; 6355980.917055633 ; 0.0
197 ; 11396.54846181555 ; 32428.47406661023 ; 3543895.3822294464 ; 6388409.391122243 ; 0.0
198 ; 11444.897817484634 ; 32428.47406661023 ; 3555291.930691262 ; 6420837.865188854 ; 0.0
199 ; 11303.204832403846 ; 32428.47406661023 ; 3566736.8285087463 ; 6453266.339255464 ; 0.0
200 ; 11203.105717903474 ; 32428.47406661023 ; 3578040.0333411503 ; 6485694.813322075 ; 0.0
201 ; 11356.467367632451 ; 32428.47406661023 ; 3589243.1390590537 ; 6518123.287388685 ; 0.0
202 ; 11578.297511176956 ; 32428.47406661023 ; 3600599.606426686 ; 6550551.761455296 ; 0.0
203 ; 11678.176529051145 ; 32428.47406661023 ; 3612177.903937863 ; 6582980.235521906 ; 0.0
204 ; 11615.864699255884 ; 32428.47406661023 ; 3623856.0804669145 ; 6615408.7095885165 ; 0.0
205 ; 11630.156106387387 ; 32428.47406661023 ; 3635471.94516617 ; 6647837.183655127 ; 0.0
206 ; 11580.792737223783 ; 32428.47406661023 ; 3647102.1012725574 ; 6680265.657721737 ; 0.0
207 ; 11635.258032445352 ; 32428.47406661023 ; 3658682.894009781 ; 6712694.131788348 ; 0.0
208 ; 11775.844048512437 ; 32428.47406661023 ; 3670318.1520422264 ; 6745122.605854958 ; 0.0
209 ; 11703.750100514768 ; 32428.47406661023 ; 3682093.996090739 ; 6777551.079921569 ; 0.0
210 ; 11908.330004020196 ; 32428.47406661023 ; 3693797.746191254 ; 6809979.553988179 ; 0.0
211 ; 11733.693682563087 ; 32428.47406661023 ; 3705706.076195274 ; 6842408.02805479 ; 0.0
212 ; 11878.03897050091 ; 32428.47406661023 ; 3717439.769877837 ; 6874836.5021214 ; 0.0
213 ; 11693.575446694811 ; 32428.47406661023 ; 3729317.8088483377 ; 6907264.976188011 ; 0.0
214 ; 11834.407339917805 ; 32428.47406661023 ; 3741011.3842950324 ; 6939693.450254621 ; 0.0
215 ; 11838.441975538533 ; 32428.47406661023 ; 3752845.7916349503 ; 6972121.924321231 ; 0.0
216 ; 11990.678441809461 ; 32428.47406661023 ; 3764684.233610489 ; 7004550.398387842 ; 0.0
