CSV File for the City 1 on Day 219
1 - Minute m 
2 - Power Consumed at minute m 
3 - Power Produced at minute m 
4 - Energy Consumed since the beginning of the day 
5 - Energy Produced since the beginning of the day 
6 - Energy Lost since the beginning of the day on lines starting from the city
 
0 ; 5430.747622447477 ; 3522.871056808657 ; 0.0 ; 0.0 ; 0.0
1 ; 5891.0561685452485 ; 3522.871056808657 ; 5430.747622447477 ; 3522.871056808657 ; 238.00000000000003
2 ; 6770.104420352377 ; 3522.871056808657 ; 11321.803790992726 ; 7045.742113617314 ; 476.00000000000006
3 ; 7265.227270162944 ; 3522.871056808657 ; 18091.908211345104 ; 10568.613170425971 ; 714.0000000000001
4 ; 7919.320289604895 ; 3522.871056808657 ; 25357.13548150805 ; 14091.484227234629 ; 952.0000000000001
5 ; 8574.534487961302 ; 3522.871056808657 ; 33276.455771112946 ; 17614.355284043286 ; 1190.0000000000002
6 ; 9044.365097729864 ; 3522.871056808657 ; 41850.99025907425 ; 21137.226340851943 ; 1428.0000000000002
7 ; 9876.370713926097 ; 3522.871056808657 ; 50895.35535680411 ; 24660.0973976606 ; 1666.0000000000002
8 ; 10249.262832188471 ; 3522.871056808657 ; 60771.726070730205 ; 28182.968454469257 ; 1904.0000000000002
9 ; 11019.806431783949 ; 3522.871056808657 ; 71020.98890291867 ; 31705.839511277914 ; 2142.0000000000005
10 ; 11399.157459196425 ; 3522.871056808657 ; 82040.79533470262 ; 35228.71056808657 ; 2380.0000000000005
11 ; 12232.725674525775 ; 3522.871056808657 ; 93439.95279389905 ; 38751.58162489523 ; 2618.0000000000005
12 ; 12646.101653794032 ; 3522.871056808657 ; 105672.67846842483 ; 42274.452681703886 ; 2856.0000000000005
13 ; 13175.396700701165 ; 3522.871056808657 ; 118318.78012221886 ; 45797.32373851254 ; 3094.0000000000005
14 ; 13863.352664324526 ; 3522.871056808657 ; 131494.17682292 ; 49320.19479532119 ; 3332.0000000000005
15 ; 14358.015045281098 ; 3522.871056808657 ; 145357.52948724452 ; 52843.06585212985 ; 3570.0000000000005
16 ; 14628.833861549101 ; 3522.871056808657 ; 159715.54453252562 ; 56365.9369089385 ; 3808.0000000000005
17 ; 15390.325729703733 ; 3522.871056808657 ; 174344.3783940747 ; 59888.80796574715 ; 4046.0000000000005
18 ; 15982.09686574188 ; 3522.871056808657 ; 189734.70412377844 ; 63411.67902255581 ; 4284.000000000001
19 ; 16378.971944117573 ; 3522.871056808657 ; 205716.80098952033 ; 66934.55007936446 ; 4522.000000000001
20 ; 16930.99486908497 ; 3522.871056808657 ; 222095.7729336379 ; 70457.42113617311 ; 4760.000000000001
21 ; 17480.981350684055 ; 3522.871056808657 ; 239026.76780272287 ; 73980.29219298177 ; 4998.000000000001
22 ; 18061.2518377483 ; 3522.871056808657 ; 256507.7491534069 ; 77503.16324979042 ; 5236.000000000001
23 ; 18449.98779681863 ; 3522.871056808657 ; 274569.0009911552 ; 81026.03430659907 ; 5474.000000000001
24 ; 18774.885329164805 ; 3522.871056808657 ; 293018.9887879738 ; 84548.90536340773 ; 5712.000000000001
25 ; 19387.038480303043 ; 3522.871056808657 ; 311793.8741171386 ; 88071.77642021638 ; 5950.000000000001
26 ; 19872.48562281869 ; 3522.871056808657 ; 331180.91259744164 ; 91594.64747702504 ; 6188.000000000001
27 ; 20307.25079529085 ; 3522.871056808657 ; 351053.39822026034 ; 95117.51853383369 ; 6426.000000000001
28 ; 20834.70194305943 ; 3522.871056808657 ; 371360.6490155512 ; 98640.38959064234 ; 6664.000000000001
29 ; 21016.79487589638 ; 3522.871056808657 ; 392195.35095861065 ; 102163.260647451 ; 6902.000000000001
30 ; 21424.467187903694 ; 3522.871056808657 ; 413212.145834507 ; 105686.13170425965 ; 7140.000000000001
31 ; 21779.273081756546 ; 3522.871056808657 ; 434636.6130224107 ; 109209.0027610683 ; 7378.000000000001
32 ; 22367.195995973016 ; 3522.871056808657 ; 456415.88610416726 ; 112731.87381787696 ; 7616.000000000001
33 ; 22786.5118241418 ; 3522.871056808657 ; 478783.0821001403 ; 116254.74487468561 ; 7854.000000000001
34 ; 22986.044928035844 ; 3522.871056808657 ; 501569.59392428206 ; 119777.61593149426 ; 8092.000000000001
35 ; 23548.062278194335 ; 3522.871056808657 ; 524555.6388523179 ; 123300.48698830292 ; 8330.000000000002
36 ; 23816.318115003796 ; 3522.871056808657 ; 548103.7011305123 ; 126823.35804511157 ; 8568.000000000002
37 ; 24285.021712552818 ; 3522.871056808657 ; 571920.019245516 ; 130346.22910192022 ; 8806.000000000002
38 ; 24686.19657955707 ; 3522.871056808657 ; 596205.0409580689 ; 133869.1001587289 ; 9044.000000000002
39 ; 25017.96951432877 ; 3522.871056808657 ; 620891.237537626 ; 137391.97121553755 ; 9282.000000000002
40 ; 25304.16239163658 ; 3522.871056808657 ; 645909.2070519547 ; 140914.8422723462 ; 9520.000000000002
41 ; 25530.599258864022 ; 3522.871056808657 ; 671213.3694435912 ; 144437.71332915485 ; 9758.000000000002
42 ; 26027.22298373139 ; 3522.871056808657 ; 696743.9687024553 ; 147960.5843859635 ; 9996.000000000002
43 ; 26342.3698974874 ; 3522.871056808657 ; 722771.1916861867 ; 151483.45544277216 ; 10234.000000000002
44 ; 26674.93730627876 ; 3522.871056808657 ; 749113.561583674 ; 155006.3264995808 ; 10472.000000000002
45 ; 26961.52573109184 ; 3522.871056808657 ; 775788.4988899528 ; 158529.19755638947 ; 10710.000000000002
46 ; 27324.49912697389 ; 3522.871056808657 ; 802750.0246210446 ; 162052.06861319812 ; 10948.000000000002
47 ; 27474.147565583986 ; 3522.871056808657 ; 830074.5237480185 ; 165574.93967000677 ; 11186.000000000002
48 ; 27556.756289407436 ; 3522.871056808657 ; 857548.6713136025 ; 169097.81072681543 ; 11424.000000000002
49 ; 27984.614220856176 ; 3522.871056808657 ; 885105.4276030099 ; 172620.68178362408 ; 11662.000000000002
50 ; 28277.162540898786 ; 3522.871056808657 ; 913090.0418238661 ; 176143.55284043273 ; 11900.000000000002
51 ; 28625.249834765546 ; 3522.871056808657 ; 941367.2043647649 ; 179666.4238972414 ; 12138.000000000002
52 ; 28838.334862834414 ; 3522.871056808657 ; 969992.4541995304 ; 183189.29495405004 ; 12376.000000000002
53 ; 29100.430390525715 ; 3522.871056808657 ; 998830.7890623648 ; 186712.1660108587 ; 12614.000000000002
54 ; 29182.741497539388 ; 3522.871056808657 ; 1027931.2194528906 ; 190235.03706766735 ; 12852.000000000002
55 ; 29461.746847284492 ; 3522.871056808657 ; 1057113.96095043 ; 193757.908124476 ; 13090.000000000002
56 ; 29717.19743252702 ; 3522.871056808657 ; 1086575.7077977145 ; 197280.77918128466 ; 13328.000000000002
57 ; 29907.532285302925 ; 3522.871056808657 ; 1116292.9052302416 ; 200803.6502380933 ; 13566.000000000002
58 ; 30235.244915434443 ; 3522.871056808657 ; 1146200.4375155445 ; 204326.52129490196 ; 13804.000000000002
59 ; 30149.444616676195 ; 3522.871056808657 ; 1176435.6824309789 ; 207849.39235171062 ; 14042.000000000002
60 ; 30551.465036707785 ; 3522.871056808657 ; 1206585.1270476552 ; 211372.26340851927 ; 14280.000000000002
61 ; 30678.331147328016 ; 3522.871056808657 ; 1237136.5920843629 ; 214895.13446532792 ; 14518.000000000002
62 ; 30781.251878823008 ; 3522.871056808657 ; 1267814.923231691 ; 218418.00552213658 ; 14756.000000000002
63 ; 31062.64805939033 ; 3522.871056808657 ; 1298596.1751105138 ; 221940.87657894523 ; 14994.000000000002
64 ; 31240.209775771218 ; 3522.871056808657 ; 1329658.823169904 ; 225463.74763575388 ; 15232.000000000002
65 ; 31336.504066063237 ; 3522.871056808657 ; 1360899.0329456753 ; 228986.61869256254 ; 15470.000000000002
66 ; 31447.37829515213 ; 3522.871056808657 ; 1392235.5370117386 ; 232509.4897493712 ; 15708.000000000002
67 ; 31637.611490657888 ; 3522.871056808657 ; 1423682.9153068908 ; 236032.36080617984 ; 15946.000000000002
68 ; 31687.54939800681 ; 3522.871056808657 ; 1455320.5267975486 ; 239555.2318629885 ; 16184.000000000002
69 ; 31572.191130754323 ; 3522.871056808657 ; 1487008.0761955555 ; 243078.10291979715 ; 16422.000000000004
70 ; 31926.11130975824 ; 3522.871056808657 ; 1518580.2673263098 ; 246600.9739766058 ; 16660.000000000004
71 ; 31971.850260334137 ; 3522.871056808657 ; 1550506.378636068 ; 250123.84503341446 ; 16898.000000000004
72 ; 32100.085879973187 ; 3522.871056808657 ; 1582478.228896402 ; 253646.7160902231 ; 17136.000000000004
73 ; 32120.192234457594 ; 3522.871056808657 ; 1614578.3147763752 ; 257169.58714703177 ; 17374.000000000004
74 ; 32125.423242651526 ; 3522.871056808657 ; 1646698.507010833 ; 260692.45820384042 ; 17612.000000000004
75 ; 32182.93282635615 ; 3522.871056808657 ; 1678823.9302534845 ; 264215.3292606491 ; 17850.000000000004
76 ; 32318.895564914557 ; 3522.871056808657 ; 1711006.8630798408 ; 267738.2003174578 ; 18088.000000000004
77 ; 32301.294414125558 ; 3522.871056808657 ; 1743325.7586447552 ; 271261.07137426647 ; 18326.000000000004
78 ; 32502.551906653647 ; 3522.871056808657 ; 1775627.0530588808 ; 274783.94243107515 ; 18564.000000000004
79 ; 32357.788583492824 ; 3522.871056808657 ; 1808129.6049655345 ; 278306.81348788383 ; 18802.000000000004
80 ; 32406.150449027526 ; 3522.871056808657 ; 1840487.3935490274 ; 281829.6845446925 ; 19040.000000000004
81 ; 32422.87339944877 ; 3522.871056808657 ; 1872893.543998055 ; 285352.5556015012 ; 19278.000000000004
82 ; 32462.37010947008 ; 3522.871056808657 ; 1905316.4173975037 ; 288875.4266583099 ; 19516.000000000004
83 ; 32341.95399981741 ; 3522.871056808657 ; 1937778.7875069738 ; 292398.29771511856 ; 19754.000000000004
84 ; 32473.115952287128 ; 3522.871056808657 ; 1970120.7415067912 ; 295921.16877192724 ; 19992.000000000004
85 ; 32453.03049508916 ; 3522.871056808657 ; 2002593.8574590783 ; 299444.0398287359 ; 20230.000000000004
86 ; 32483.158263966223 ; 3522.871056808657 ; 2035046.8879541676 ; 302966.9108855446 ; 20468.000000000004
87 ; 32376.90727204323 ; 3522.871056808657 ; 2067530.0462181338 ; 306489.7819423533 ; 20706.000000000004
88 ; 32383.682843890118 ; 3522.871056808657 ; 2099906.953490177 ; 310012.652999162 ; 20944.000000000004
89 ; 32297.096614376154 ; 3522.871056808657 ; 2132290.636334067 ; 313535.52405597066 ; 21182.000000000004
90 ; 32004.709507907544 ; 3522.871056808657 ; 2164587.7329484434 ; 317058.39511277934 ; 21420.000000000004
91 ; 32130.513657017502 ; 3522.871056808657 ; 2196592.442456351 ; 320581.266169588 ; 21658.000000000004
92 ; 31971.24182270053 ; 3522.871056808657 ; 2228722.9561133687 ; 324104.1372263967 ; 21896.000000000004
93 ; 31896.120631748516 ; 3522.871056808657 ; 2260694.197936069 ; 327627.0082832054 ; 22134.000000000004
94 ; 31894.967651585655 ; 3522.871056808657 ; 2292590.3185678176 ; 331149.8793400141 ; 22372.000000000004
95 ; 31816.9538612507 ; 3522.871056808657 ; 2324485.286219403 ; 334672.75039682275 ; 22610.000000000004
96 ; 31781.07664139065 ; 3522.871056808657 ; 2356302.2400806537 ; 338195.62145363144 ; 22848.000000000004
97 ; 31442.09980779572 ; 3522.871056808657 ; 2388083.3167220443 ; 341718.4925104401 ; 23086.000000000004
98 ; 31445.59233899067 ; 3522.871056808657 ; 2419525.41652984 ; 345241.3635672488 ; 23324.000000000004
99 ; 31271.1862026221 ; 3522.871056808657 ; 2450971.0088688307 ; 348764.2346240575 ; 23562.000000000004
100 ; 31039.228606020617 ; 3522.871056808657 ; 2482242.1950714528 ; 352287.10568086617 ; 23800.000000000004
101 ; 31023.35086463374 ; 3522.871056808657 ; 2513281.4236774733 ; 355809.97673767485 ; 24038.000000000004
102 ; 30829.104898246456 ; 3522.871056808657 ; 2544304.7745421072 ; 359332.84779448353 ; 24276.000000000004
103 ; 30690.30906816043 ; 3522.871056808657 ; 2575133.8794403537 ; 362855.7188512922 ; 24514.000000000004
104 ; 30383.463395641033 ; 3522.871056808657 ; 2605824.1885085143 ; 366378.5899081009 ; 24752.000000000004
105 ; 30362.55603021896 ; 3522.871056808657 ; 2636207.6519041555 ; 369901.4609649096 ; 24990.000000000004
106 ; 30275.068711717548 ; 3522.871056808657 ; 2666570.2079343745 ; 373424.33202171826 ; 25228.000000000004
107 ; 30038.858557063413 ; 3522.871056808657 ; 2696845.276646092 ; 376947.20307852695 ; 25466.000000000004
108 ; 29662.179857432548 ; 3522.871056808657 ; 2726884.1352031557 ; 380470.0741353356 ; 25704.000000000004
109 ; 29609.278930487246 ; 3522.871056808657 ; 2756546.315060588 ; 383992.9451921443 ; 25942.000000000004
110 ; 29342.821818276323 ; 3522.871056808657 ; 2786155.593991075 ; 387515.816248953 ; 26180.000000000004
111 ; 29197.65355113464 ; 3522.871056808657 ; 2815498.4158093515 ; 391038.6873057617 ; 26418.000000000004
112 ; 28792.012620495214 ; 3522.871056808657 ; 2844696.069360486 ; 394561.55836257036 ; 26656.000000000004
113 ; 28619.681588799056 ; 3522.871056808657 ; 2873488.0819809814 ; 398084.42941937904 ; 26894.000000000004
114 ; 28163.648531857692 ; 3522.871056808657 ; 2902107.7635697806 ; 401607.3004761877 ; 27132.000000000004
115 ; 28105.332650019474 ; 3522.871056808657 ; 2930271.4121016385 ; 405130.1715329964 ; 27370.000000000004
116 ; 28037.069886786398 ; 3522.871056808657 ; 2958376.744751658 ; 408653.0425898051 ; 27608.000000000004
117 ; 27559.67059111671 ; 3522.871056808657 ; 2986413.814638444 ; 412175.9136466138 ; 27846.000000000004
118 ; 27532.772373162938 ; 3522.871056808657 ; 3013973.485229561 ; 415698.78470342245 ; 28084.000000000004
119 ; 26959.91805515727 ; 3522.871056808657 ; 3041506.2576027242 ; 419221.65576023114 ; 28322.000000000004
120 ; 26657.79555634718 ; 3522.871056808657 ; 3068466.1756578814 ; 422744.5268170398 ; 28560.000000000004
121 ; 26210.756494960773 ; 3522.871056808657 ; 3095123.971214229 ; 426267.3978738485 ; 28798.000000000004
122 ; 25913.059143139173 ; 3522.871056808657 ; 3121334.7277091895 ; 429790.2689306572 ; 29036.000000000004
123 ; 25566.588493705123 ; 3522.871056808657 ; 3147247.7868523286 ; 433313.13998746587 ; 29274.000000000004
124 ; 25363.647809413003 ; 3522.871056808657 ; 3172814.375346034 ; 436836.01104427455 ; 29512.000000000004
125 ; 25017.065496534593 ; 3522.871056808657 ; 3198178.0231554466 ; 440358.88210108323 ; 29750.000000000004
126 ; 24783.727216270803 ; 3522.871056808657 ; 3223195.088651981 ; 443881.7531578919 ; 29988.000000000004
127 ; 24382.080053572674 ; 3522.871056808657 ; 3247978.815868252 ; 447404.6242147006 ; 30226.000000000004
128 ; 24027.10784862493 ; 3522.871056808657 ; 3272360.8959218245 ; 450927.4952715093 ; 30464.000000000004
129 ; 23777.09855797209 ; 3522.871056808657 ; 3296388.003770449 ; 454450.36632831796 ; 30702.000000000004
130 ; 23186.63516218396 ; 3522.871056808657 ; 3320165.102328421 ; 457973.23738512665 ; 30940.000000000004
131 ; 23038.84040298258 ; 3522.871056808657 ; 3343351.737490605 ; 461496.1084419353 ; 31178.000000000004
132 ; 22467.37315529532 ; 3522.871056808657 ; 3366390.5778935878 ; 465018.979498744 ; 31416.000000000004
133 ; 21986.396089003894 ; 3522.871056808657 ; 3388857.951048883 ; 468541.8505555527 ; 31654.000000000004
134 ; 21636.257563740557 ; 3522.871056808657 ; 3410844.347137887 ; 472064.7216123614 ; 31892.000000000004
135 ; 21160.311258451755 ; 3522.871056808657 ; 3432480.6047016275 ; 475587.59266917006 ; 32130.000000000004
136 ; 20677.617170470156 ; 3522.871056808657 ; 3453640.915960079 ; 479110.46372597874 ; 32368.000000000004
137 ; 20543.416703913892 ; 3522.871056808657 ; 3474318.5331305494 ; 482633.3347827874 ; 32606.000000000004
138 ; 20124.829897625328 ; 3522.871056808657 ; 3494861.949834463 ; 486156.2058395961 ; 32844.00000000001
139 ; 19283.451313744885 ; 3522.871056808657 ; 3514986.7797320886 ; 489679.0768964048 ; 33082.00000000001
140 ; 18888.79688077105 ; 3522.871056808657 ; 3534270.2310458333 ; 493201.9479532135 ; 33320.00000000001
141 ; 18430.841467635 ; 3522.871056808657 ; 3553159.0279266043 ; 496724.81901002215 ; 33558.00000000001
142 ; 18014.77887710316 ; 3522.871056808657 ; 3571589.869394239 ; 500247.69006683084 ; 33796.00000000001
143 ; 17421.53808018886 ; 3522.871056808657 ; 3589604.6482713423 ; 503770.5611236395 ; 34034.00000000001
144 ; 16972.74656367597 ; 3522.871056808657 ; 3607026.186351531 ; 507293.4321804482 ; 34272.00000000001
145 ; 16897.730976845596 ; 3522.871056808657 ; 3623998.932915207 ; 510816.3032372569 ; 34510.00000000001
146 ; 16897.61937770725 ; 3522.871056808657 ; 3640896.6638920526 ; 514339.17429406557 ; 34748.00000000001
147 ; 16614.556730685676 ; 3522.871056808657 ; 3657794.2832697597 ; 517862.04535087425 ; 34986.00000000001
148 ; 16483.026672738153 ; 3522.871056808657 ; 3674408.8400004455 ; 521384.91640768293 ; 35224.00000000001
149 ; 16361.82289141271 ; 3522.871056808657 ; 3690891.8666731836 ; 524907.7874644916 ; 35462.00000000001
150 ; 16273.499711101449 ; 3522.871056808657 ; 3707253.6895645964 ; 528430.6585213002 ; 35700.00000000001
151 ; 16107.793517773738 ; 3522.871056808657 ; 3723527.189275698 ; 531953.5295781088 ; 35938.00000000001
152 ; 15988.132134481844 ; 3522.871056808657 ; 3739634.982793472 ; 535476.4006349174 ; 36176.00000000001
153 ; 15755.85099852067 ; 3522.871056808657 ; 3755623.1149279536 ; 538999.271691726 ; 36414.00000000001
154 ; 15615.682750910624 ; 3522.871056808657 ; 3771378.9659264744 ; 542522.1427485347 ; 36652.00000000001
155 ; 15506.273707721137 ; 3522.871056808657 ; 3786994.648677385 ; 546045.0138053433 ; 36890.00000000001
156 ; 15403.420552577403 ; 3522.871056808657 ; 3802500.922385106 ; 549567.8848621519 ; 37128.00000000001
157 ; 15004.281192949396 ; 3522.871056808657 ; 3817904.342937683 ; 553090.7559189606 ; 37366.00000000001
158 ; 14911.069066868982 ; 3522.871056808657 ; 3832908.6241306327 ; 556613.6269757692 ; 37604.00000000001
159 ; 14663.724869863132 ; 3522.871056808657 ; 3847819.693197502 ; 560136.4980325778 ; 37842.00000000001
160 ; 14563.32335778699 ; 3522.871056808657 ; 3862483.418067365 ; 563659.3690893864 ; 38080.00000000001
161 ; 14229.010678023691 ; 3522.871056808657 ; 3877046.741425152 ; 567182.240146195 ; 38318.00000000001
162 ; 14303.848437136463 ; 3522.871056808657 ; 3891275.7521031755 ; 570705.1112030037 ; 38556.00000000001
163 ; 14139.769708910857 ; 3522.871056808657 ; 3905579.600540312 ; 574227.9822598123 ; 38794.00000000001
164 ; 13817.29948437995 ; 3522.871056808657 ; 3919719.370249223 ; 577750.8533166209 ; 39032.00000000001
165 ; 13785.289181924745 ; 3522.871056808657 ; 3933536.669733603 ; 581273.7243734295 ; 39270.00000000001
166 ; 13424.898870868854 ; 3522.871056808657 ; 3947321.958915528 ; 584796.5954302382 ; 39508.00000000001
167 ; 13164.147419256726 ; 3522.871056808657 ; 3960746.857786397 ; 588319.4664870468 ; 39746.00000000001
168 ; 13235.153715261853 ; 3522.871056808657 ; 3973911.0052056536 ; 591842.3375438554 ; 39984.00000000001
169 ; 12826.946307211416 ; 3522.871056808657 ; 3987146.1589209153 ; 595365.208600664 ; 40222.00000000001
170 ; 12832.8461699695 ; 3522.871056808657 ; 3999973.105228127 ; 598888.0796574727 ; 40460.00000000001
171 ; 12570.051843580512 ; 3522.871056808657 ; 4012805.9513980965 ; 602410.9507142813 ; 40698.00000000001
172 ; 12322.27732746808 ; 3522.871056808657 ; 4025376.003241677 ; 605933.8217710899 ; 40936.00000000001
173 ; 12006.028193639044 ; 3522.871056808657 ; 4037698.280569145 ; 609456.6928278985 ; 41174.00000000001
174 ; 12035.297896118227 ; 3522.871056808657 ; 4049704.308762784 ; 612979.5638847072 ; 41412.00000000001
175 ; 12000.201597219895 ; 3522.871056808657 ; 4061739.6066589025 ; 616502.4349415158 ; 41650.00000000001
176 ; 12184.927829272978 ; 3522.871056808657 ; 4073739.8082561223 ; 620025.3059983244 ; 41888.00000000001
177 ; 12382.304908045026 ; 3522.871056808657 ; 4085924.7360853953 ; 623548.177055133 ; 42126.00000000001
178 ; 12233.101455976008 ; 3522.871056808657 ; 4098307.0409934404 ; 627071.0481119417 ; 42364.00000000001
179 ; 12304.1500354846 ; 3522.871056808657 ; 4110540.142449416 ; 630593.9191687503 ; 42602.00000000001
180 ; 12419.700375835953 ; 3522.871056808657 ; 4122844.292484901 ; 634116.7902255589 ; 42840.00000000001
181 ; 12427.209877371688 ; 3522.871056808657 ; 4135263.992860737 ; 637639.6612823675 ; 43078.00000000001
182 ; 12491.436154265202 ; 3522.871056808657 ; 4147691.2027381086 ; 641162.5323391762 ; 43316.00000000001
183 ; 12537.428888732544 ; 3522.871056808657 ; 4160182.638892374 ; 644685.4033959848 ; 43554.00000000001
184 ; 12571.615751592273 ; 3522.871056808657 ; 4172720.0677811066 ; 648208.2744527934 ; 43792.00000000001
185 ; 12563.78973421427 ; 3522.871056808657 ; 4185291.683532699 ; 651731.145509602 ; 44030.00000000001
186 ; 12637.308301535504 ; 3522.871056808657 ; 4197855.473266914 ; 655254.0165664107 ; 44268.00000000001
