CSV File for the City 1 on Day 218
1 - Minute m 
2 - Power Consumed at minute m 
3 - Power Produced at minute m 
4 - Energy Consumed since the beginning of the day 
5 - Energy Produced since the beginning of the day 
6 - Energy Lost since the beginning of the day on lines starting from the city
 
0 ; 5218.33028319181 ; 3176.0816102442222 ; 0.0 ; 0.0 ; 0.0
1 ; 5769.048703324787 ; 3176.0816102442222 ; 5218.33028319181 ; 3176.0816102442222 ; 238.00000000000003
2 ; 6526.984223743633 ; 3176.0816102442222 ; 10987.378986516596 ; 6352.1632204884445 ; 476.00000000000006
3 ; 7067.897116123245 ; 3176.0816102442222 ; 17514.363210260228 ; 9528.244830732667 ; 714.0000000000001
4 ; 7863.928052149482 ; 3176.0816102442222 ; 24582.26032638347 ; 12704.326440976889 ; 952.0000000000001
5 ; 8350.51447417506 ; 3176.0816102442222 ; 32446.188378532956 ; 15880.408051221111 ; 1190.0000000000002
6 ; 8911.391221557875 ; 3176.0816102442222 ; 40796.70285270801 ; 19056.489661465333 ; 1428.0000000000002
7 ; 9542.23828326926 ; 3176.0816102442222 ; 49708.094074265886 ; 22232.571271709556 ; 1666.0000000000002
8 ; 10228.663597821273 ; 3176.0816102442222 ; 59250.332357535146 ; 25408.652881953778 ; 1904.0000000000002
9 ; 10974.445106944668 ; 3176.0816102442222 ; 69478.99595535643 ; 28584.734492198 ; 2142.0000000000005
10 ; 11431.602710430327 ; 3176.0816102442222 ; 80453.44106230109 ; 31760.816102442222 ; 2380.0000000000005
11 ; 11964.797977862283 ; 3176.0816102442222 ; 91885.04377273141 ; 34936.89771268645 ; 2618.0000000000005
12 ; 12528.001927833391 ; 3176.0816102442222 ; 103849.8417505937 ; 38112.97932293067 ; 2856.0000000000005
13 ; 13135.47375102304 ; 3176.0816102442222 ; 116377.84367842709 ; 41289.060933174886 ; 3094.0000000000005
14 ; 13772.214409252882 ; 3176.0816102442222 ; 129513.31742945014 ; 44465.142543419104 ; 3332.0000000000005
15 ; 14239.28183900124 ; 3176.0816102442222 ; 143285.53183870303 ; 47641.22415366332 ; 3570.0000000000005
16 ; 14698.543343050576 ; 3176.0816102442222 ; 157524.81367770425 ; 50817.30576390754 ; 3808.0000000000005
17 ; 15441.650247647813 ; 3176.0816102442222 ; 172223.35702075483 ; 53993.38737415176 ; 4046.0000000000005
18 ; 15718.64843918549 ; 3176.0816102442222 ; 187665.00726840264 ; 57169.46898439598 ; 4284.000000000001
19 ; 16304.281392851934 ; 3176.0816102442222 ; 203383.65570758813 ; 60345.5505946402 ; 4522.000000000001
20 ; 16972.546865016415 ; 3176.0816102442222 ; 219687.93710044006 ; 63521.632204884416 ; 4760.000000000001
21 ; 17333.308138050725 ; 3176.0816102442222 ; 236660.4839654565 ; 66697.71381512863 ; 4998.000000000001
22 ; 18012.68382040543 ; 3176.0816102442222 ; 253993.7921035072 ; 69873.79542537285 ; 5236.000000000001
23 ; 18357.259448191937 ; 3176.0816102442222 ; 272006.47592391266 ; 73049.87703561707 ; 5474.000000000001
24 ; 18796.531266609563 ; 3176.0816102442222 ; 290363.73537210457 ; 76225.95864586129 ; 5712.000000000001
25 ; 19148.336313462933 ; 3176.0816102442222 ; 309160.2666387141 ; 79402.04025610551 ; 5950.000000000001
26 ; 19739.088423127516 ; 3176.0816102442222 ; 328308.60295217705 ; 82578.12186634973 ; 6188.000000000001
27 ; 20197.6108887205 ; 3176.0816102442222 ; 348047.6913753046 ; 85754.20347659395 ; 6426.000000000001
28 ; 20690.274927907143 ; 3176.0816102442222 ; 368245.3022640251 ; 88930.28508683816 ; 6664.000000000001
29 ; 21048.12745894569 ; 3176.0816102442222 ; 388935.57719193224 ; 92106.36669708238 ; 6902.000000000001
30 ; 21437.578109878887 ; 3176.0816102442222 ; 409983.7046508779 ; 95282.4483073266 ; 7140.000000000001
31 ; 21782.573258453194 ; 3176.0816102442222 ; 431421.2827607568 ; 98458.52991757082 ; 7378.000000000001
32 ; 22289.866593735333 ; 3176.0816102442222 ; 453203.85601920995 ; 101634.61152781504 ; 7616.000000000001
33 ; 22840.3966461917 ; 3176.0816102442222 ; 475493.7226129453 ; 104810.69313805926 ; 7854.000000000001
34 ; 23040.062480440687 ; 3176.0816102442222 ; 498334.119259137 ; 107986.77474830348 ; 8092.000000000001
35 ; 23638.323844682353 ; 3176.0816102442222 ; 521374.18173957773 ; 111162.8563585477 ; 8330.000000000002
36 ; 23816.301024707733 ; 3176.0816102442222 ; 545012.5055842601 ; 114338.93796879191 ; 8568.000000000002
37 ; 24233.521471032807 ; 3176.0816102442222 ; 568828.8066089678 ; 117515.01957903613 ; 8806.000000000002
38 ; 24645.10606943521 ; 3176.0816102442222 ; 593062.3280800006 ; 120691.10118928035 ; 9044.000000000002
39 ; 24836.297489149805 ; 3176.0816102442222 ; 617707.4341494358 ; 123867.18279952457 ; 9282.000000000002
40 ; 25322.659099140303 ; 3176.0816102442222 ; 642543.7316385857 ; 127043.26440976879 ; 9520.000000000002
41 ; 25676.183588335847 ; 3176.0816102442222 ; 667866.390737726 ; 130219.346020013 ; 9758.000000000002
42 ; 26116.734528050336 ; 3176.0816102442222 ; 693542.5743260619 ; 133395.42763025724 ; 9996.000000000002
43 ; 26451.60984457158 ; 3176.0816102442222 ; 719659.3088541122 ; 136571.50924050147 ; 10234.000000000002
44 ; 26729.595618884494 ; 3176.0816102442222 ; 746110.9186986837 ; 139747.5908507457 ; 10472.000000000002
45 ; 26866.96722190995 ; 3176.0816102442222 ; 772840.5143175683 ; 142923.67246098994 ; 10710.000000000002
46 ; 27234.207876869605 ; 3176.0816102442222 ; 799707.4815394782 ; 146099.75407123417 ; 10948.000000000002
47 ; 27584.97660136094 ; 3176.0816102442222 ; 826941.6894163478 ; 149275.8356814784 ; 11186.000000000002
48 ; 27624.80312563723 ; 3176.0816102442222 ; 854526.6660177087 ; 152451.91729172264 ; 11424.000000000002
49 ; 28114.14084069582 ; 3176.0816102442222 ; 882151.469143346 ; 155627.99890196687 ; 11662.000000000002
50 ; 28193.51942998215 ; 3176.0816102442222 ; 910265.6099840418 ; 158804.0805122111 ; 11900.000000000002
51 ; 28566.110224964203 ; 3176.0816102442222 ; 938459.129414024 ; 161980.16212245534 ; 12138.000000000002
52 ; 28835.34638106327 ; 3176.0816102442222 ; 967025.2396389882 ; 165156.24373269957 ; 12376.000000000002
53 ; 29189.17680998265 ; 3176.0816102442222 ; 995860.5860200514 ; 168332.3253429438 ; 12614.000000000002
54 ; 29475.501601326883 ; 3176.0816102442222 ; 1025049.762830034 ; 171508.40695318804 ; 12852.000000000002
55 ; 29698.117106806956 ; 3176.0816102442222 ; 1054525.2644313609 ; 174684.48856343227 ; 13090.000000000002
56 ; 29615.543122018284 ; 3176.0816102442222 ; 1084223.3815381678 ; 177860.5701736765 ; 13328.000000000002
57 ; 30068.943857425165 ; 3176.0816102442222 ; 1113838.924660186 ; 181036.65178392074 ; 13566.000000000002
58 ; 30303.291610553086 ; 3176.0816102442222 ; 1143907.8685176112 ; 184212.73339416497 ; 13804.000000000002
59 ; 30403.404395313315 ; 3176.0816102442222 ; 1174211.1601281643 ; 187388.8150044092 ; 14042.000000000002
60 ; 30443.382855455333 ; 3176.0816102442222 ; 1204614.5645234776 ; 190564.89661465344 ; 14280.000000000002
61 ; 30696.829311594774 ; 3176.0816102442222 ; 1235057.947378933 ; 193740.97822489767 ; 14518.000000000002
62 ; 30934.354257249386 ; 3176.0816102442222 ; 1265754.7766905278 ; 196917.0598351419 ; 14756.000000000002
63 ; 31127.09387367343 ; 3176.0816102442222 ; 1296689.130947777 ; 200093.14144538614 ; 14994.000000000002
64 ; 31274.277796491442 ; 3176.0816102442222 ; 1327816.2248214504 ; 203269.22305563037 ; 15232.000000000002
65 ; 31550.389832049626 ; 3176.0816102442222 ; 1359090.502617942 ; 206445.3046658746 ; 15470.000000000002
66 ; 31427.855608426395 ; 3176.0816102442222 ; 1390640.8924499915 ; 209621.38627611884 ; 15708.000000000002
67 ; 31757.82187095289 ; 3176.0816102442222 ; 1422068.748058418 ; 212797.46788636307 ; 15946.000000000002
68 ; 31813.431256774602 ; 3176.0816102442222 ; 1453826.569929371 ; 215973.5494966073 ; 16184.000000000002
69 ; 32133.591603647557 ; 3176.0816102442222 ; 1485640.0011861455 ; 219149.63110685154 ; 16422.000000000004
70 ; 31943.026929185886 ; 3176.0816102442222 ; 1517773.592789793 ; 222325.71271709577 ; 16660.000000000004
71 ; 32014.328469531254 ; 3176.0816102442222 ; 1549716.6197189789 ; 225501.79432734 ; 16898.000000000004
72 ; 32032.043676440597 ; 3176.0816102442222 ; 1581730.94818851 ; 228677.87593758423 ; 17136.000000000004
73 ; 32303.228783781175 ; 3176.0816102442222 ; 1613762.9918649506 ; 231853.95754782847 ; 17374.000000000004
74 ; 32317.03560686758 ; 3176.0816102442222 ; 1646066.2206487318 ; 235030.0391580727 ; 17612.000000000004
75 ; 32402.659039309663 ; 3176.0816102442222 ; 1678383.2562555994 ; 238206.12076831693 ; 17850.000000000004
76 ; 32324.937944356254 ; 3176.0816102442222 ; 1710785.9152949092 ; 241382.20237856117 ; 18088.000000000004
77 ; 32417.328370562907 ; 3176.0816102442222 ; 1743110.8532392655 ; 244558.2839888054 ; 18326.000000000004
78 ; 32583.366269612463 ; 3176.0816102442222 ; 1775528.1816098285 ; 247734.36559904963 ; 18564.000000000004
79 ; 32562.908873588196 ; 3176.0816102442222 ; 1808111.547879441 ; 250910.44720929387 ; 18802.000000000004
80 ; 32650.305776676025 ; 3176.0816102442222 ; 1840674.456753029 ; 254086.5288195381 ; 19040.000000000004
81 ; 32678.104262872308 ; 3176.0816102442222 ; 1873324.762529705 ; 257262.61042978233 ; 19278.000000000004
82 ; 32534.218091377516 ; 3176.0816102442222 ; 1906002.8667925773 ; 260438.69204002657 ; 19516.000000000004
83 ; 32727.641252415593 ; 3176.0816102442222 ; 1938537.0848839548 ; 263614.77365027077 ; 19754.000000000004
84 ; 32591.745833603272 ; 3176.0816102442222 ; 1971264.7261363703 ; 266790.855260515 ; 19992.000000000004
85 ; 32656.07047612574 ; 3176.0816102442222 ; 2003856.4719699735 ; 269966.93687075924 ; 20230.000000000004
86 ; 32513.428774862205 ; 3176.0816102442222 ; 2036512.5424460992 ; 273143.01848100347 ; 20468.000000000004
87 ; 32521.69221908112 ; 3176.0816102442222 ; 2069025.9712209615 ; 276319.1000912477 ; 20706.000000000004
88 ; 32308.22340893904 ; 3176.0816102442222 ; 2101547.6634400426 ; 279495.18170149194 ; 20944.000000000004
89 ; 32495.32947727444 ; 3176.0816102442222 ; 2133855.8868489815 ; 282671.26331173617 ; 21182.000000000004
90 ; 32360.197283213867 ; 3176.0816102442222 ; 2166351.216326256 ; 285847.3449219804 ; 21420.000000000004
91 ; 32118.244764564763 ; 3176.0816102442222 ; 2198711.41360947 ; 289023.42653222464 ; 21658.000000000004
92 ; 31997.295115488287 ; 3176.0816102442222 ; 2230829.6583740343 ; 292199.50814246887 ; 21896.000000000004
93 ; 32342.244696272006 ; 3176.0816102442222 ; 2262826.9534895224 ; 295375.5897527131 ; 22134.000000000004
94 ; 31867.486861919526 ; 3176.0816102442222 ; 2295169.1981857945 ; 298551.67136295734 ; 22372.000000000004
95 ; 31907.854391350455 ; 3176.0816102442222 ; 2327036.685047714 ; 301727.75297320157 ; 22610.000000000004
96 ; 31617.608942984883 ; 3176.0816102442222 ; 2358944.5394390645 ; 304903.8345834458 ; 22848.000000000004
97 ; 31592.706054029466 ; 3176.0816102442222 ; 2390562.1483820495 ; 308079.91619369003 ; 23086.000000000004
98 ; 31545.055212110838 ; 3176.0816102442222 ; 2422154.854436079 ; 311255.99780393427 ; 23324.000000000004
99 ; 31323.373121404984 ; 3176.0816102442222 ; 2453699.90964819 ; 314432.0794141785 ; 23562.000000000004
100 ; 31354.865061997963 ; 3176.0816102442222 ; 2485023.282769595 ; 317608.16102442273 ; 23800.000000000004
101 ; 30942.604373645307 ; 3176.0816102442222 ; 2516378.1478315927 ; 320784.24263466697 ; 24038.000000000004
102 ; 30843.254937944053 ; 3176.0816102442222 ; 2547320.752205238 ; 323960.3242449112 ; 24276.000000000004
103 ; 30850.330122214706 ; 3176.0816102442222 ; 2578164.007143182 ; 327136.40585515543 ; 24514.000000000004
104 ; 30527.118817114293 ; 3176.0816102442222 ; 2609014.337265397 ; 330312.48746539967 ; 24752.000000000004
105 ; 30489.599325258027 ; 3176.0816102442222 ; 2639541.456082511 ; 333488.5690756439 ; 24990.000000000004
106 ; 30171.170339155342 ; 3176.0816102442222 ; 2670031.055407769 ; 336664.65068588813 ; 25228.000000000004
107 ; 30236.919325622162 ; 3176.0816102442222 ; 2700202.2257469245 ; 339840.73229613237 ; 25466.000000000004
108 ; 29831.532948270684 ; 3176.0816102442222 ; 2730439.145072547 ; 343016.8139063766 ; 25704.000000000004
109 ; 29712.20537748312 ; 3176.0816102442222 ; 2760270.6780208177 ; 346192.89551662083 ; 25942.000000000004
110 ; 29358.085526268223 ; 3176.0816102442222 ; 2789982.883398301 ; 349368.97712686507 ; 26180.000000000004
111 ; 29300.338469641953 ; 3176.0816102442222 ; 2819340.968924569 ; 352545.0587371093 ; 26418.000000000004
112 ; 28951.020624361965 ; 3176.0816102442222 ; 2848641.3073942107 ; 355721.14034735353 ; 26656.000000000004
113 ; 28850.395723338304 ; 3176.0816102442222 ; 2877592.3280185726 ; 358897.22195759777 ; 26894.000000000004
114 ; 28443.885013563984 ; 3176.0816102442222 ; 2906442.723741911 ; 362073.303567842 ; 27132.000000000004
115 ; 27970.17593105025 ; 3176.0816102442222 ; 2934886.608755475 ; 365249.38517808623 ; 27370.000000000004
116 ; 27840.27164206638 ; 3176.0816102442222 ; 2962856.7846865254 ; 368425.46678833046 ; 27608.000000000004
117 ; 27706.172875327906 ; 3176.0816102442222 ; 2990697.056328592 ; 371601.5483985747 ; 27846.000000000004
118 ; 27465.218216960693 ; 3176.0816102442222 ; 3018403.22920392 ; 374777.63000881893 ; 28084.000000000004
119 ; 27066.149211036387 ; 3176.0816102442222 ; 3045868.4474208807 ; 377953.71161906316 ; 28322.000000000004
120 ; 26938.338350737893 ; 3176.0816102442222 ; 3072934.596631917 ; 381129.7932293074 ; 28560.000000000004
121 ; 26419.991021821486 ; 3176.0816102442222 ; 3099872.934982655 ; 384305.87483955163 ; 28798.000000000004
122 ; 26127.561140742127 ; 3176.0816102442222 ; 3126292.9260044764 ; 387481.95644979586 ; 29036.000000000004
123 ; 25688.516879259165 ; 3176.0816102442222 ; 3152420.4871452185 ; 390658.0380600401 ; 29274.000000000004
124 ; 25392.98982718177 ; 3176.0816102442222 ; 3178109.0040244777 ; 393834.11967028433 ; 29512.000000000004
125 ; 25170.599651989785 ; 3176.0816102442222 ; 3203501.9938516594 ; 397010.20128052856 ; 29750.000000000004
126 ; 24740.17991222227 ; 3176.0816102442222 ; 3228672.5935036493 ; 400186.2828907728 ; 29988.000000000004
127 ; 24399.84889282779 ; 3176.0816102442222 ; 3253412.7734158714 ; 403362.36450101703 ; 30226.000000000004
128 ; 23982.845984091524 ; 3176.0816102442222 ; 3277812.6223086994 ; 406538.44611126126 ; 30464.000000000004
129 ; 23790.232044974317 ; 3176.0816102442222 ; 3301795.468292791 ; 409714.5277215055 ; 30702.000000000004
130 ; 23387.658134734695 ; 3176.0816102442222 ; 3325585.7003377653 ; 412890.6093317497 ; 30940.000000000004
131 ; 23075.786128085776 ; 3176.0816102442222 ; 3348973.3584725 ; 416066.69094199396 ; 31178.000000000004
132 ; 22502.950543766616 ; 3176.0816102442222 ; 3372049.1446005856 ; 419242.7725522382 ; 31416.000000000004
133 ; 22033.97530185844 ; 3176.0816102442222 ; 3394552.0951443524 ; 422418.8541624824 ; 31654.000000000004
134 ; 21670.310810603234 ; 3176.0816102442222 ; 3416586.070446211 ; 425594.93577272666 ; 31892.000000000004
135 ; 21369.935758897936 ; 3176.0816102442222 ; 3438256.381256814 ; 428771.0173829709 ; 32130.000000000004
136 ; 20798.26882689717 ; 3176.0816102442222 ; 3459626.317015712 ; 431947.0989932151 ; 32368.000000000004
137 ; 20520.526969874696 ; 3176.0816102442222 ; 3480424.5858426094 ; 435123.18060345936 ; 32606.000000000004
138 ; 20090.068783272516 ; 3176.0816102442222 ; 3500945.112812484 ; 438299.2622137036 ; 32844.00000000001
139 ; 19478.231765485118 ; 3176.0816102442222 ; 3521035.1815957567 ; 441475.3438239478 ; 33082.00000000001
140 ; 19008.673909985544 ; 3176.0816102442222 ; 3540513.4133612416 ; 444651.42543419206 ; 33320.00000000001
141 ; 18583.282693775676 ; 3176.0816102442222 ; 3559522.087271227 ; 447827.5070444363 ; 33558.00000000001
142 ; 18052.66809496531 ; 3176.0816102442222 ; 3578105.369965003 ; 451003.5886546805 ; 33796.00000000001
143 ; 17624.47221699761 ; 3176.0816102442222 ; 3596158.038059968 ; 454179.67026492476 ; 34034.00000000001
144 ; 17122.823350706632 ; 3176.0816102442222 ; 3613782.510276966 ; 457355.751875169 ; 34272.00000000001
145 ; 17082.72183071909 ; 3176.0816102442222 ; 3630905.3336276724 ; 460531.8334854132 ; 34510.00000000001
146 ; 16737.61846465887 ; 3176.0816102442222 ; 3647988.0554583916 ; 463707.91509565746 ; 34748.00000000001
147 ; 16818.59057632613 ; 3176.0816102442222 ; 3664725.6739230505 ; 466883.9967059017 ; 34986.00000000001
148 ; 16444.586858057 ; 3176.0816102442222 ; 3681544.2644993765 ; 470060.0783161459 ; 35224.00000000001
149 ; 16561.91664640126 ; 3176.0816102442222 ; 3697988.8513574335 ; 473236.15992639016 ; 35462.00000000001
150 ; 16318.328728787748 ; 3176.0816102442222 ; 3714550.768003835 ; 476412.2415366344 ; 35700.00000000001
151 ; 16130.086281134649 ; 3176.0816102442222 ; 3730869.0967326225 ; 479588.3231468786 ; 35938.00000000001
152 ; 16027.199219845257 ; 3176.0816102442222 ; 3746999.183013757 ; 482764.40475712286 ; 36176.00000000001
153 ; 15792.326489721952 ; 3176.0816102442222 ; 3763026.3822336025 ; 485940.4863673671 ; 36414.00000000001
154 ; 15766.766523632112 ; 3176.0816102442222 ; 3778818.7087233244 ; 489116.5679776113 ; 36652.00000000001
155 ; 15572.580061564711 ; 3176.0816102442222 ; 3794585.4752469566 ; 492292.64958785556 ; 36890.00000000001
156 ; 15160.306290527285 ; 3176.0816102442222 ; 3810158.0553085213 ; 495468.7311980998 ; 37128.00000000001
157 ; 15247.787100772808 ; 3176.0816102442222 ; 3825318.3615990486 ; 498644.812808344 ; 37366.00000000001
158 ; 14945.020849285544 ; 3176.0816102442222 ; 3840566.1486998214 ; 501820.89441858826 ; 37604.00000000001
159 ; 14917.166645110463 ; 3176.0816102442222 ; 3855511.169549107 ; 504996.9760288325 ; 37842.00000000001
160 ; 14829.14204815122 ; 3176.0816102442222 ; 3870428.3361942177 ; 508173.0576390767 ; 38080.00000000001
161 ; 14674.710958074082 ; 3176.0816102442222 ; 3885257.478242369 ; 511349.13924932096 ; 38318.00000000001
162 ; 14275.718122758008 ; 3176.0816102442222 ; 3899932.189200443 ; 514525.2208595652 ; 38556.00000000001
163 ; 14184.666459927601 ; 3176.0816102442222 ; 3914207.907323201 ; 517701.3024698094 ; 38794.00000000001
164 ; 13964.236541172777 ; 3176.0816102442222 ; 3928392.573783129 ; 520877.38408005366 ; 39032.00000000001
165 ; 13775.814000117924 ; 3176.0816102442222 ; 3942356.810324302 ; 524053.4656902979 ; 39270.00000000001
166 ; 13521.473206605657 ; 3176.0816102442222 ; 3956132.62432442 ; 527229.5473005421 ; 39508.00000000001
167 ; 13459.496015832014 ; 3176.0816102442222 ; 3969654.0975310258 ; 530405.6289107864 ; 39746.00000000001
168 ; 13003.54685017683 ; 3176.0816102442222 ; 3983113.5935468576 ; 533581.7105210306 ; 39984.00000000001
169 ; 12882.245655762807 ; 3176.0816102442222 ; 3996117.1403970346 ; 536757.7921312748 ; 40222.00000000001
170 ; 12617.97512334646 ; 3176.0816102442222 ; 4008999.3860527975 ; 539933.873741519 ; 40460.00000000001
171 ; 12622.875115111456 ; 3176.0816102442222 ; 4021617.361176144 ; 543109.9553517633 ; 40698.00000000001
172 ; 12314.547801648234 ; 3176.0816102442222 ; 4034240.2362912553 ; 546286.0369620075 ; 40936.00000000001
173 ; 12221.997235798732 ; 3176.0816102442222 ; 4046554.7840929036 ; 549462.1185722518 ; 41174.00000000001
174 ; 12176.570366307435 ; 3176.0816102442222 ; 4058776.7813287023 ; 552638.200182496 ; 41412.00000000001
175 ; 12212.831127889369 ; 3176.0816102442222 ; 4070953.35169501 ; 555814.2817927402 ; 41650.00000000001
176 ; 12191.234603636665 ; 3176.0816102442222 ; 4083166.1828228994 ; 558990.3634029845 ; 41888.00000000001
177 ; 12255.903437893749 ; 3176.0816102442222 ; 4095357.417426536 ; 562166.4450132287 ; 42126.00000000001
178 ; 12404.09948344679 ; 3176.0816102442222 ; 4107613.3208644297 ; 565342.5266234729 ; 42364.00000000001
179 ; 12494.986004370268 ; 3176.0816102442222 ; 4120017.4203478764 ; 568518.6082337172 ; 42602.00000000001
180 ; 12340.653661898115 ; 3176.0816102442222 ; 4132512.4063522466 ; 571694.6898439614 ; 42840.00000000001
181 ; 12444.483147670488 ; 3176.0816102442222 ; 4144853.060014145 ; 574870.7714542056 ; 43078.00000000001
182 ; 12421.832707040574 ; 3176.0816102442222 ; 4157297.5431618155 ; 578046.8530644499 ; 43316.00000000001
183 ; 12384.889750758039 ; 3176.0816102442222 ; 4169719.375868856 ; 581222.9346746941 ; 43554.00000000001
184 ; 12533.148588924698 ; 3176.0816102442222 ; 4182104.265619614 ; 584399.0162849383 ; 43792.00000000001
