CSV File for the City 1 on Day 241
1 - Minute m 
2 - Power Consumed at minute m 
3 - Power Produced at minute m 
4 - Energy Consumed since the beginning of the day 
5 - Energy Produced since the beginning of the day 
6 - Energy Lost since the beginning of the day on lines starting from the city
 
0 ; 5664.337789078986 ; 3485.0622696240607 ; 0.0 ; 0.0 ; 0.0
1 ; 6246.437229572323 ; 3485.0622696240607 ; 5664.337789078986 ; 3485.0622696240607 ; 238.00000000000003
2 ; 6970.401893465266 ; 3485.0622696240607 ; 11910.77501865131 ; 6970.124539248121 ; 476.00000000000006
3 ; 7506.217374178091 ; 3485.0622696240607 ; 18881.176912116574 ; 10455.186808872182 ; 714.0000000000001
4 ; 8206.745046943122 ; 3485.0622696240607 ; 26387.394286294664 ; 13940.249078496243 ; 952.0000000000001
5 ; 8526.421350339817 ; 3485.0622696240607 ; 34594.139333237785 ; 17425.311348120304 ; 1190.0000000000002
6 ; 9188.344169777733 ; 3485.0622696240607 ; 43120.5606835776 ; 20910.373617744364 ; 1428.0000000000002
7 ; 9735.679282297795 ; 3485.0622696240607 ; 52308.90485335533 ; 24395.435887368425 ; 1666.0000000000002
8 ; 10210.074366009947 ; 3485.0622696240607 ; 62044.584135653124 ; 27880.498156992486 ; 1904.0000000000002
9 ; 10961.230966627103 ; 3485.0622696240607 ; 72254.65850166307 ; 31365.560426616546 ; 2142.0000000000005
10 ; 11357.954938063904 ; 3485.0622696240607 ; 83215.88946829017 ; 34850.62269624061 ; 2380.0000000000005
11 ; 12020.075046615966 ; 3485.0622696240607 ; 94573.84440635408 ; 38335.68496586467 ; 2618.0000000000005
12 ; 12346.076360596107 ; 3485.0622696240607 ; 106593.91945297005 ; 41820.74723548873 ; 2856.0000000000005
13 ; 12836.200663380663 ; 3485.0622696240607 ; 118939.99581356616 ; 45305.80950511279 ; 3094.0000000000005
14 ; 13384.51843569375 ; 3485.0622696240607 ; 131776.19647694682 ; 48790.87177473685 ; 3332.0000000000005
15 ; 13868.665694171441 ; 3485.0622696240607 ; 145160.71491264057 ; 52275.93404436091 ; 3570.0000000000005
16 ; 14439.412038006272 ; 3485.0622696240607 ; 159029.38060681202 ; 55760.99631398497 ; 3808.0000000000005
17 ; 14811.420807939903 ; 3485.0622696240607 ; 173468.79264481828 ; 59246.05858360903 ; 4046.0000000000005
18 ; 15290.496436867857 ; 3485.0622696240607 ; 188280.21345275818 ; 62731.12085323309 ; 4284.000000000001
19 ; 15870.098349435142 ; 3485.0622696240607 ; 203570.70988962604 ; 66216.18312285715 ; 4522.000000000001
20 ; 16347.075647903373 ; 3485.0622696240607 ; 219440.80823906118 ; 69701.24539248121 ; 4760.000000000001
21 ; 16746.50054244075 ; 3485.0622696240607 ; 235787.88388696456 ; 73186.30766210528 ; 4998.000000000001
22 ; 17081.460906640186 ; 3485.0622696240607 ; 252534.3844294053 ; 76671.36993172934 ; 5236.000000000001
23 ; 17559.13157016984 ; 3485.0622696240607 ; 269615.8453360455 ; 80156.4322013534 ; 5474.000000000001
24 ; 17922.427630662154 ; 3485.0622696240607 ; 287174.9769062153 ; 83641.49447097746 ; 5712.000000000001
25 ; 18401.25440919531 ; 3485.0622696240607 ; 305097.40453687747 ; 87126.55674060152 ; 5950.000000000001
26 ; 18731.04451839021 ; 3485.0622696240607 ; 323498.6589460728 ; 90611.61901022558 ; 6188.000000000001
27 ; 19137.46315445978 ; 3485.0622696240607 ; 342229.703464463 ; 94096.68127984964 ; 6426.000000000001
28 ; 19774.143942149563 ; 3485.0622696240607 ; 361367.1666189228 ; 97581.7435494737 ; 6664.000000000001
29 ; 20192.16443125127 ; 3485.0622696240607 ; 381141.3105610724 ; 101066.80581909776 ; 6902.000000000001
30 ; 20329.72932113593 ; 3485.0622696240607 ; 401333.47499232367 ; 104551.86808872182 ; 7140.000000000001
31 ; 20804.30223595439 ; 3485.0622696240607 ; 421663.2043134596 ; 108036.93035834588 ; 7378.000000000001
32 ; 21298.837787093344 ; 3485.0622696240607 ; 442467.50654941396 ; 111521.99262796994 ; 7616.000000000001
33 ; 21615.91478827559 ; 3485.0622696240607 ; 463766.3443365073 ; 115007.054897594 ; 7854.000000000001
34 ; 21966.96824541129 ; 3485.0622696240607 ; 485382.2591247829 ; 118492.11716721806 ; 8092.000000000001
35 ; 22304.18877047654 ; 3485.0622696240607 ; 507349.2273701942 ; 121977.17943684213 ; 8330.000000000002
36 ; 22708.657123473717 ; 3485.0622696240607 ; 529653.4161406708 ; 125462.24170646619 ; 8568.000000000002
37 ; 22897.775475823342 ; 3485.0622696240607 ; 552362.0732641445 ; 128947.30397609025 ; 8806.000000000002
38 ; 23451.733998312076 ; 3485.0622696240607 ; 575259.8487399678 ; 132432.3662457143 ; 9044.000000000002
39 ; 23501.688792452802 ; 3485.0622696240607 ; 598711.5827382798 ; 135917.42851533837 ; 9282.000000000002
40 ; 23902.658573593126 ; 3485.0622696240607 ; 622213.2715307326 ; 139402.49078496243 ; 9520.000000000002
41 ; 24304.17958428975 ; 3485.0622696240607 ; 646115.9301043258 ; 142887.5530545865 ; 9758.000000000002
42 ; 24727.366656680413 ; 3485.0622696240607 ; 670420.1096886155 ; 146372.61532421055 ; 9996.000000000002
43 ; 24823.373386275147 ; 3485.0622696240607 ; 695147.4763452959 ; 149857.6775938346 ; 10234.000000000002
44 ; 25071.31610223626 ; 3485.0622696240607 ; 719970.849731571 ; 153342.73986345867 ; 10472.000000000002
45 ; 25330.95440459023 ; 3485.0622696240607 ; 745042.1658338073 ; 156827.80213308273 ; 10710.000000000002
46 ; 25599.04388376223 ; 3485.0622696240607 ; 770373.1202383975 ; 160312.8644027068 ; 10948.000000000002
47 ; 25905.89104126829 ; 3485.0622696240607 ; 795972.1641221597 ; 163797.92667233085 ; 11186.000000000002
48 ; 26141.315060461253 ; 3485.0622696240607 ; 821878.055163428 ; 167282.9889419549 ; 11424.000000000002
49 ; 26485.78533975711 ; 3485.0622696240607 ; 848019.3702238892 ; 170768.05121157898 ; 11662.000000000002
50 ; 26765.576712770384 ; 3485.0622696240607 ; 874505.1555636463 ; 174253.11348120304 ; 11900.000000000002
51 ; 26904.847267302037 ; 3485.0622696240607 ; 901270.7322764167 ; 177738.1757508271 ; 12138.000000000002
52 ; 27020.81118026868 ; 3485.0622696240607 ; 928175.5795437187 ; 181223.23802045116 ; 12376.000000000002
53 ; 27333.747594928478 ; 3485.0622696240607 ; 955196.3907239874 ; 184708.30029007522 ; 12614.000000000002
54 ; 27683.820283018766 ; 3485.0622696240607 ; 982530.1383189159 ; 188193.36255969928 ; 12852.000000000002
55 ; 27633.989689800732 ; 3485.0622696240607 ; 1010213.9586019346 ; 191678.42482932334 ; 13090.000000000002
56 ; 27932.945692215606 ; 3485.0622696240607 ; 1037847.9482917354 ; 195163.4870989474 ; 13328.000000000002
57 ; 28192.30779527177 ; 3485.0622696240607 ; 1065780.893983951 ; 198648.54936857146 ; 13566.000000000002
58 ; 28300.14087205279 ; 3485.0622696240607 ; 1093973.2017792228 ; 202133.61163819552 ; 13804.000000000002
59 ; 28473.091105269636 ; 3485.0622696240607 ; 1122273.3426512757 ; 205618.67390781958 ; 14042.000000000002
60 ; 28651.23131505849 ; 3485.0622696240607 ; 1150746.4337565454 ; 209103.73617744364 ; 14280.000000000002
61 ; 28902.638917255375 ; 3485.0622696240607 ; 1179397.6650716038 ; 212588.7984470677 ; 14518.000000000002
62 ; 28871.62588631426 ; 3485.0622696240607 ; 1208300.3039888593 ; 216073.86071669176 ; 14756.000000000002
63 ; 29070.16032876329 ; 3485.0622696240607 ; 1237171.9298751736 ; 219558.92298631583 ; 14994.000000000002
64 ; 29208.341440509197 ; 3485.0622696240607 ; 1266242.090203937 ; 223043.9852559399 ; 15232.000000000002
65 ; 29350.376224774187 ; 3485.0622696240607 ; 1295450.4316444462 ; 226529.04752556395 ; 15470.000000000002
66 ; 29394.06318180453 ; 3485.0622696240607 ; 1324800.8078692204 ; 230014.109795188 ; 15708.000000000002
67 ; 29520.69253708726 ; 3485.0622696240607 ; 1354194.8710510249 ; 233499.17206481207 ; 15946.000000000002
68 ; 29609.345927645485 ; 3485.0622696240607 ; 1383715.5635881121 ; 236984.23433443613 ; 16184.000000000002
69 ; 29830.07051134854 ; 3485.0622696240607 ; 1413324.9095157576 ; 240469.2966040602 ; 16422.000000000004
70 ; 30054.148712466995 ; 3485.0622696240607 ; 1443154.9800271061 ; 243954.35887368425 ; 16660.000000000004
71 ; 29885.09586866111 ; 3485.0622696240607 ; 1473209.128739573 ; 247439.4211433083 ; 16898.000000000004
72 ; 30226.04195411633 ; 3485.0622696240607 ; 1503094.2246082341 ; 250924.48341293237 ; 17136.000000000004
73 ; 29988.566954688176 ; 3485.0622696240607 ; 1533320.2665623506 ; 254409.54568255643 ; 17374.000000000004
74 ; 30182.40860821727 ; 3485.0622696240607 ; 1563308.8335170387 ; 257894.6079521805 ; 17612.000000000004
75 ; 30127.70004402531 ; 3485.0622696240607 ; 1593491.242125256 ; 261379.67022180455 ; 17850.000000000004
76 ; 30271.726852149037 ; 3485.0622696240607 ; 1623618.9421692812 ; 264864.7324914286 ; 18088.000000000004
77 ; 30189.513393505018 ; 3485.0622696240607 ; 1653890.6690214302 ; 268349.7947610527 ; 18326.000000000004
78 ; 30324.003884558057 ; 3485.0622696240607 ; 1684080.1824149352 ; 271834.8570306768 ; 18564.000000000004
79 ; 30444.829677888632 ; 3485.0622696240607 ; 1714404.1862994933 ; 275319.9193003009 ; 18802.000000000004
80 ; 30416.217470224678 ; 3485.0622696240607 ; 1744849.015977382 ; 278804.981569925 ; 19040.000000000004
81 ; 30348.667698144614 ; 3485.0622696240607 ; 1775265.2334476067 ; 282290.04383954906 ; 19278.000000000004
82 ; 30283.998843096713 ; 3485.0622696240607 ; 1805613.9011457514 ; 285775.10610917315 ; 19516.000000000004
83 ; 30296.368533062236 ; 3485.0622696240607 ; 1835897.899988848 ; 289260.16837879724 ; 19754.000000000004
84 ; 30198.936590720346 ; 3485.0622696240607 ; 1866194.2685219103 ; 292745.23064842133 ; 19992.000000000004
85 ; 30479.398702061702 ; 3485.0622696240607 ; 1896393.2051126307 ; 296230.2929180454 ; 20230.000000000004
86 ; 30273.70515717335 ; 3485.0622696240607 ; 1926872.6038146925 ; 299715.3551876695 ; 20468.000000000004
87 ; 30145.63300758782 ; 3485.0622696240607 ; 1957146.3089718658 ; 303200.4174572936 ; 20706.000000000004
88 ; 30365.9809746755 ; 3485.0622696240607 ; 1987291.9419794537 ; 306685.4797269177 ; 20944.000000000004
89 ; 30333.506093841992 ; 3485.0622696240607 ; 2017657.922954129 ; 310170.5419965418 ; 21182.000000000004
90 ; 30093.25664675771 ; 3485.0622696240607 ; 2047991.429047971 ; 313655.6042661659 ; 21420.000000000004
91 ; 30079.81546968367 ; 3485.0622696240607 ; 2078084.6856947287 ; 317140.66653578996 ; 21658.000000000004
92 ; 30091.235990649533 ; 3485.0622696240607 ; 2108164.5011644126 ; 320625.72880541405 ; 21896.000000000004
93 ; 29914.995086873736 ; 3485.0622696240607 ; 2138255.737155062 ; 324110.79107503814 ; 22134.000000000004
94 ; 30160.6731718977 ; 3485.0622696240607 ; 2168170.732241936 ; 327595.85334466223 ; 22372.000000000004
95 ; 29806.07071542061 ; 3485.0622696240607 ; 2198331.405413834 ; 331080.9156142863 ; 22610.000000000004
96 ; 29711.179612351883 ; 3485.0622696240607 ; 2228137.4761292543 ; 334565.9778839104 ; 22848.000000000004
97 ; 29679.35587322025 ; 3485.0622696240607 ; 2257848.6557416064 ; 338051.0401535345 ; 23086.000000000004
98 ; 29503.860071770367 ; 3485.0622696240607 ; 2287528.0116148265 ; 341536.1024231586 ; 23324.000000000004
99 ; 29222.443446811976 ; 3485.0622696240607 ; 2317031.871686597 ; 345021.1646927827 ; 23562.000000000004
100 ; 29236.168381427713 ; 3485.0622696240607 ; 2346254.3151334086 ; 348506.22696240677 ; 23800.000000000004
101 ; 29134.3553374077 ; 3485.0622696240607 ; 2375490.4835148365 ; 351991.28923203086 ; 24038.000000000004
102 ; 28836.564251389602 ; 3485.0622696240607 ; 2404624.8388522444 ; 355476.35150165495 ; 24276.000000000004
103 ; 28831.959638558863 ; 3485.0622696240607 ; 2433461.4031036342 ; 358961.41377127904 ; 24514.000000000004
104 ; 28667.3824935316 ; 3485.0622696240607 ; 2462293.362742193 ; 362446.47604090313 ; 24752.000000000004
105 ; 28483.253673181636 ; 3485.0622696240607 ; 2490960.745235725 ; 365931.5383105272 ; 24990.000000000004
106 ; 28276.680872432 ; 3485.0622696240607 ; 2519443.9989089062 ; 369416.6005801513 ; 25228.000000000004
107 ; 28174.992116792775 ; 3485.0622696240607 ; 2547720.679781338 ; 372901.6628497754 ; 25466.000000000004
108 ; 28085.964407424537 ; 3485.0622696240607 ; 2575895.671898131 ; 376386.7251193995 ; 25704.000000000004
109 ; 27740.560218371298 ; 3485.0622696240607 ; 2603981.6363055552 ; 379871.7873890236 ; 25942.000000000004
110 ; 27547.504860326902 ; 3485.0622696240607 ; 2631722.1965239267 ; 383356.84965864767 ; 26180.000000000004
111 ; 27370.738038492873 ; 3485.0622696240607 ; 2659269.701384254 ; 386841.91192827176 ; 26418.000000000004
112 ; 27191.79401059255 ; 3485.0622696240607 ; 2686640.4394227467 ; 390326.97419789585 ; 26656.000000000004
113 ; 26979.402949657968 ; 3485.0622696240607 ; 2713832.2334333393 ; 393812.03646751994 ; 26894.000000000004
114 ; 27111.69513469233 ; 3485.0622696240607 ; 2740811.636382997 ; 397297.098737144 ; 27132.000000000004
115 ; 26636.605958368895 ; 3485.0622696240607 ; 2767923.3315176894 ; 400782.1610067681 ; 27370.000000000004
116 ; 26111.809275922624 ; 3485.0622696240607 ; 2794559.9374760585 ; 404267.2232763922 ; 27608.000000000004
117 ; 26221.15005396764 ; 3485.0622696240607 ; 2820671.7467519813 ; 407752.2855460163 ; 27846.000000000004
118 ; 25905.916217809026 ; 3485.0622696240607 ; 2846892.896805949 ; 411237.3478156404 ; 28084.000000000004
119 ; 25499.98820804184 ; 3485.0622696240607 ; 2872798.813023758 ; 414722.4100852645 ; 28322.000000000004
120 ; 25276.55296601447 ; 3485.0622696240607 ; 2898298.8012318 ; 418207.47235488857 ; 28560.000000000004
121 ; 24966.424944463102 ; 3485.0622696240607 ; 2923575.3541978146 ; 421692.53462451266 ; 28798.000000000004
122 ; 24590.49445448661 ; 3485.0622696240607 ; 2948541.779142278 ; 425177.59689413675 ; 29036.000000000004
123 ; 24611.091157387425 ; 3485.0622696240607 ; 2973132.2735967645 ; 428662.65916376084 ; 29274.000000000004
124 ; 24213.880231787705 ; 3485.0622696240607 ; 2997743.364754152 ; 432147.7214333849 ; 29512.000000000004
125 ; 23855.34464436877 ; 3485.0622696240607 ; 3021957.24498594 ; 435632.783703009 ; 29750.000000000004
126 ; 23576.791978184272 ; 3485.0622696240607 ; 3045812.5896303086 ; 439117.8459726331 ; 29988.000000000004
127 ; 23236.13114319932 ; 3485.0622696240607 ; 3069389.3816084927 ; 442602.9082422572 ; 30226.000000000004
128 ; 22911.541798294766 ; 3485.0622696240607 ; 3092625.512751692 ; 446087.9705118813 ; 30464.000000000004
129 ; 22693.522220347495 ; 3485.0622696240607 ; 3115537.054549987 ; 449573.0327815054 ; 30702.000000000004
130 ; 22288.239120061986 ; 3485.0622696240607 ; 3138230.5767703345 ; 453058.09505112946 ; 30940.000000000004
131 ; 21903.820371019938 ; 3485.0622696240607 ; 3160518.8158903965 ; 456543.15732075355 ; 31178.000000000004
132 ; 21394.66769066655 ; 3485.0622696240607 ; 3182422.6362614166 ; 460028.21959037764 ; 31416.000000000004
133 ; 21205.0756286919 ; 3485.0622696240607 ; 3203817.303952083 ; 463513.28186000173 ; 31654.000000000004
134 ; 20837.26977676928 ; 3485.0622696240607 ; 3225022.379580775 ; 466998.3441296258 ; 31892.000000000004
135 ; 20360.472064516645 ; 3485.0622696240607 ; 3245859.6493575443 ; 470483.4063992499 ; 32130.000000000004
136 ; 19948.592814275533 ; 3485.0622696240607 ; 3266220.1214220608 ; 473968.468668874 ; 32368.000000000004
137 ; 19547.29207666234 ; 3485.0622696240607 ; 3286168.7142363363 ; 477453.5309384981 ; 32606.000000000004
138 ; 19080.738168020922 ; 3485.0622696240607 ; 3305716.0063129985 ; 480938.5932081222 ; 32844.00000000001
139 ; 18707.619291759547 ; 3485.0622696240607 ; 3324796.744481019 ; 484423.6554777463 ; 33082.00000000001
140 ; 18341.840061599 ; 3485.0622696240607 ; 3343504.363772779 ; 487908.71774737036 ; 33320.00000000001
141 ; 18059.75929658025 ; 3485.0622696240607 ; 3361846.2038343777 ; 491393.78001699445 ; 33558.00000000001
142 ; 17530.916904568214 ; 3485.0622696240607 ; 3379905.963130958 ; 494878.84228661854 ; 33796.00000000001
143 ; 17082.797582666804 ; 3485.0622696240607 ; 3397436.880035526 ; 498363.90455624263 ; 34034.00000000001
144 ; 16894.942028801863 ; 3485.0622696240607 ; 3414519.677618193 ; 501848.9668258667 ; 34272.00000000001
145 ; 16538.636801705892 ; 3485.0622696240607 ; 3431414.619646995 ; 505334.0290954908 ; 34510.00000000001
146 ; 16414.5026908781 ; 3485.0622696240607 ; 3447953.2564487006 ; 508819.0913651149 ; 34748.00000000001
147 ; 16276.401097744714 ; 3485.0622696240607 ; 3464367.759139579 ; 512304.153634739 ; 34986.00000000001
148 ; 16157.442920370497 ; 3485.0622696240607 ; 3480644.1602373235 ; 515789.2159043631 ; 35224.00000000001
149 ; 16104.674147836573 ; 3485.0622696240607 ; 3496801.603157694 ; 519274.2781739872 ; 35462.00000000001
150 ; 16057.485518556492 ; 3485.0622696240607 ; 3512906.2773055304 ; 522759.34044361126 ; 35700.00000000001
151 ; 15617.168951955638 ; 3485.0622696240607 ; 3528963.762824087 ; 526244.4027132354 ; 35938.00000000001
152 ; 15643.509207716506 ; 3485.0622696240607 ; 3544580.9317760426 ; 529729.4649828594 ; 36176.00000000001
153 ; 15630.168268220776 ; 3485.0622696240607 ; 3560224.4409837592 ; 533214.5272524835 ; 36414.00000000001
154 ; 15416.153989978784 ; 3485.0622696240607 ; 3575854.60925198 ; 536699.5895221076 ; 36652.00000000001
155 ; 15108.940723852053 ; 3485.0622696240607 ; 3591270.763241959 ; 540184.6517917317 ; 36890.00000000001
156 ; 15211.158763082172 ; 3485.0622696240607 ; 3606379.703965811 ; 543669.7140613558 ; 37128.00000000001
157 ; 14972.793541111769 ; 3485.0622696240607 ; 3621590.8627288933 ; 547154.7763309799 ; 37366.00000000001
158 ; 14640.521832384045 ; 3485.0622696240607 ; 3636563.6562700053 ; 550639.838600604 ; 37604.00000000001
159 ; 14736.213975200137 ; 3485.0622696240607 ; 3651204.1781023894 ; 554124.9008702281 ; 37842.00000000001
160 ; 14491.004179304216 ; 3485.0622696240607 ; 3665940.3920775894 ; 557609.9631398522 ; 38080.00000000001
161 ; 14194.567141950816 ; 3485.0622696240607 ; 3680431.3962568934 ; 561095.0254094762 ; 38318.00000000001
162 ; 14059.872020889426 ; 3485.0622696240607 ; 3694625.963398844 ; 564580.0876791003 ; 38556.00000000001
163 ; 14101.669881343456 ; 3485.0622696240607 ; 3708685.8354197335 ; 568065.1499487244 ; 38794.00000000001
164 ; 13870.400608523036 ; 3485.0622696240607 ; 3722787.505301077 ; 571550.2122183485 ; 39032.00000000001
165 ; 13610.035285245973 ; 3485.0622696240607 ; 3736657.9059095997 ; 575035.2744879726 ; 39270.00000000001
166 ; 13469.18298580098 ; 3485.0622696240607 ; 3750267.941194846 ; 578520.3367575967 ; 39508.00000000001
167 ; 13338.06222095715 ; 3485.0622696240607 ; 3763737.1241806466 ; 582005.3990272208 ; 39746.00000000001
168 ; 12976.194941517213 ; 3485.0622696240607 ; 3777075.1864016037 ; 585490.4612968449 ; 39984.00000000001
169 ; 12815.90260944593 ; 3485.0622696240607 ; 3790051.381343121 ; 588975.523566469 ; 40222.00000000001
170 ; 12708.69538887744 ; 3485.0622696240607 ; 3802867.2839525673 ; 592460.585836093 ; 40460.00000000001
171 ; 12427.744678125195 ; 3485.0622696240607 ; 3815575.9793414446 ; 595945.6481057171 ; 40698.00000000001
172 ; 12246.566591842704 ; 3485.0622696240607 ; 3828003.72401957 ; 599430.7103753412 ; 40936.00000000001
173 ; 12236.688425038146 ; 3485.0622696240607 ; 3840250.2906114124 ; 602915.7726449653 ; 41174.00000000001
174 ; 12329.584653637665 ; 3485.0622696240607 ; 3852486.9790364504 ; 606400.8349145894 ; 41412.00000000001
175 ; 12192.61650962516 ; 3485.0622696240607 ; 3864816.563690088 ; 609885.8971842135 ; 41650.00000000001
176 ; 12185.20685735046 ; 3485.0622696240607 ; 3877009.1801997134 ; 613370.9594538376 ; 41888.00000000001
177 ; 12128.68478315252 ; 3485.0622696240607 ; 3889194.387057064 ; 616856.0217234617 ; 42126.00000000001
178 ; 12498.919092758824 ; 3485.0622696240607 ; 3901323.0718402164 ; 620341.0839930858 ; 42364.00000000001
179 ; 12512.676922328239 ; 3485.0622696240607 ; 3913821.9909329754 ; 623826.1462627099 ; 42602.00000000001
180 ; 12343.36253537705 ; 3485.0622696240607 ; 3926334.6678553037 ; 627311.208532334 ; 42840.00000000001
181 ; 12509.050904065864 ; 3485.0622696240607 ; 3938678.030390681 ; 630796.270801958 ; 43078.00000000001
182 ; 12432.947276536812 ; 3485.0622696240607 ; 3951187.0812947466 ; 634281.3330715821 ; 43316.00000000001
183 ; 12549.030438977292 ; 3485.0622696240607 ; 3963620.0285712834 ; 637766.3953412062 ; 43554.00000000001
184 ; 12586.192354440338 ; 3485.0622696240607 ; 3976169.0590102607 ; 641251.4576108303 ; 43792.00000000001
