CSV File for the City 1 on Day 91
1 - Minute m 
2 - Power Consumed at minute m 
3 - Power Produced at minute m 
4 - Energy Consumed since the beginning of the day 
5 - Energy Produced since the beginning of the day 
6 - Energy Lost since the beginning of the day on lines starting from the city
 
0 ; 10779.831139649503 ; 30049.878155422677 ; 0.0 ; 0.0 ; 0.0
1 ; 10968.199956268787 ; 30049.878155422677 ; 10779.831139649503 ; 30049.878155422677 ; 238.00000000000003
2 ; 11301.228764512904 ; 30049.878155422677 ; 21748.03109591829 ; 60099.756310845354 ; 476.00000000000006
3 ; 11620.988182204515 ; 30049.878155422677 ; 33049.25986043119 ; 90149.63446626803 ; 714.0000000000001
4 ; 11981.734993704878 ; 30049.878155422677 ; 44670.24804263571 ; 120199.51262169071 ; 952.0000000000001
5 ; 12147.646586250188 ; 30049.878155422677 ; 56651.983036340585 ; 150249.39077711338 ; 1190.0000000000002
6 ; 12299.130767978448 ; 30049.878155422677 ; 68799.62962259077 ; 180299.26893253607 ; 1428.0000000000002
7 ; 12532.329170126799 ; 30049.878155422677 ; 81098.76039056922 ; 210349.14708795876 ; 1666.0000000000002
8 ; 12846.247405176879 ; 30049.878155422677 ; 93631.08956069603 ; 240399.02524338145 ; 1904.0000000000002
9 ; 13216.673971216029 ; 30049.878155422677 ; 106477.3369658729 ; 270448.90339880413 ; 2142.0000000000005
10 ; 13485.768265116061 ; 30049.878155422677 ; 119694.01093708894 ; 300498.7815542268 ; 2380.0000000000005
11 ; 13690.571629486096 ; 30049.878155422677 ; 133179.779202205 ; 330548.6597096495 ; 2618.0000000000005
12 ; 13981.728244451437 ; 30049.878155422677 ; 146870.35083169112 ; 360598.5378650722 ; 2856.0000000000005
13 ; 14249.302116725672 ; 30049.878155422677 ; 160852.07907614255 ; 390648.4160204949 ; 3094.0000000000005
14 ; 14360.729033975944 ; 30049.878155422677 ; 175101.38119286823 ; 420698.2941759176 ; 3332.0000000000005
15 ; 14613.088205735861 ; 30049.878155422677 ; 189462.11022684418 ; 450748.17233134026 ; 3570.0000000000005
16 ; 15003.090448237617 ; 30049.878155422677 ; 204075.19843258004 ; 480798.05048676295 ; 3808.0000000000005
17 ; 15150.053025613352 ; 30049.878155422677 ; 219078.28888081765 ; 510847.92864218564 ; 4046.0000000000005
18 ; 15351.7942143303 ; 30049.878155422677 ; 234228.34190643101 ; 540897.8067976083 ; 4284.000000000001
19 ; 15466.84922204988 ; 30049.878155422677 ; 249580.1361207613 ; 570947.6849530309 ; 4522.000000000001
20 ; 15827.010836157298 ; 30049.878155422677 ; 265046.9853428112 ; 600997.5631084535 ; 4760.000000000001
21 ; 15961.594251696952 ; 30049.878155422677 ; 280873.9961789685 ; 631047.4412638762 ; 4998.000000000001
22 ; 16081.675125059706 ; 30049.878155422677 ; 296835.59043066547 ; 661097.3194192988 ; 5236.000000000001
23 ; 16444.65188347778 ; 30049.878155422677 ; 312917.2655557252 ; 691147.1975747214 ; 5474.000000000001
24 ; 16490.261649736825 ; 30049.878155422677 ; 329361.917439203 ; 721197.075730144 ; 5712.000000000001
25 ; 16758.6465112201 ; 30049.878155422677 ; 345852.17908893985 ; 751246.9538855667 ; 5950.000000000001
26 ; 16886.457121291038 ; 30049.878155422677 ; 362610.82560015994 ; 781296.8320409893 ; 6188.000000000001
27 ; 17092.370901974544 ; 30049.878155422677 ; 379497.28272145096 ; 811346.7101964119 ; 6426.000000000001
28 ; 17500.119284061322 ; 30049.878155422677 ; 396589.6536234255 ; 841396.5883518346 ; 6664.000000000001
29 ; 17547.528994598375 ; 30049.878155422677 ; 414089.7729074868 ; 871446.4665072572 ; 6902.000000000001
30 ; 17800.399140731304 ; 30049.878155422677 ; 431637.3019020852 ; 901496.3446626798 ; 7140.000000000001
31 ; 17735.713983655452 ; 30049.878155422677 ; 449437.7010428165 ; 931546.2228181025 ; 7378.000000000001
32 ; 18122.715728558072 ; 30049.878155422677 ; 467173.41502647195 ; 961596.1009735251 ; 7616.000000000001
33 ; 18422.13063952147 ; 30049.878155422677 ; 485296.13075503 ; 991645.9791289477 ; 7854.000000000001
34 ; 18509.286000521217 ; 30049.878155422677 ; 503718.2613945515 ; 1021695.8572843703 ; 8092.000000000001
35 ; 18616.7723758434 ; 30049.878155422677 ; 522227.5473950727 ; 1051745.735439793 ; 8330.000000000002
36 ; 18761.3364390719 ; 30049.878155422677 ; 540844.3197709161 ; 1081795.6135952156 ; 8568.000000000002
37 ; 18752.145437859377 ; 30049.878155422677 ; 559605.656209988 ; 1111845.4917506382 ; 8806.000000000002
38 ; 19183.247311060855 ; 30049.878155422677 ; 578357.8016478474 ; 1141895.3699060609 ; 9044.000000000002
39 ; 19001.705621351717 ; 30049.878155422677 ; 597541.0489589083 ; 1171945.2480614835 ; 9282.000000000002
40 ; 19218.570688641426 ; 30049.878155422677 ; 616542.75458026 ; 1201995.1262169061 ; 9520.000000000002
41 ; 19488.832284139302 ; 30049.878155422677 ; 635761.3252689014 ; 1232045.0043723288 ; 9758.000000000002
42 ; 19625.531845461926 ; 30049.878155422677 ; 655250.1575530408 ; 1262094.8825277514 ; 9996.000000000002
43 ; 19773.475969217274 ; 30049.878155422677 ; 674875.6893985027 ; 1292144.760683174 ; 10234.000000000002
44 ; 19845.60441704653 ; 30049.878155422677 ; 694649.16536772 ; 1322194.6388385966 ; 10472.000000000002
45 ; 20047.813781012548 ; 30049.878155422677 ; 714494.7697847665 ; 1352244.5169940193 ; 10710.000000000002
46 ; 20175.652810664164 ; 30049.878155422677 ; 734542.583565779 ; 1382294.395149442 ; 10948.000000000002
47 ; 20176.90959085515 ; 30049.878155422677 ; 754718.2363764432 ; 1412344.2733048645 ; 11186.000000000002
48 ; 20469.132762238165 ; 30049.878155422677 ; 774895.1459672983 ; 1442394.1514602872 ; 11424.000000000002
49 ; 20774.78199364072 ; 30049.878155422677 ; 795364.2787295365 ; 1472444.0296157098 ; 11662.000000000002
50 ; 20621.885199504675 ; 30049.878155422677 ; 816139.0607231772 ; 1502493.9077711324 ; 11900.000000000002
51 ; 20700.30055989799 ; 30049.878155422677 ; 836760.9459226818 ; 1532543.785926555 ; 12138.000000000002
52 ; 20921.476191924747 ; 30049.878155422677 ; 857461.2464825799 ; 1562593.6640819777 ; 12376.000000000002
53 ; 20946.488095173867 ; 30049.878155422677 ; 878382.7226745046 ; 1592643.5422374003 ; 12614.000000000002
54 ; 21053.557838589128 ; 30049.878155422677 ; 899329.2107696785 ; 1622693.420392823 ; 12852.000000000002
55 ; 21082.895164917754 ; 30049.878155422677 ; 920382.7686082677 ; 1652743.2985482456 ; 13090.000000000002
56 ; 21203.868043718034 ; 30049.878155422677 ; 941465.6637731855 ; 1682793.1767036682 ; 13328.000000000002
57 ; 21380.500746181962 ; 30049.878155422677 ; 962669.5318169035 ; 1712843.0548590908 ; 13566.000000000002
58 ; 21375.05553203733 ; 30049.878155422677 ; 984050.0325630854 ; 1742892.9330145135 ; 13804.000000000002
59 ; 21522.87376338132 ; 30049.878155422677 ; 1005425.0880951227 ; 1772942.811169936 ; 14042.000000000002
60 ; 21554.993543489927 ; 30049.878155422677 ; 1026947.961858504 ; 1802992.6893253587 ; 14280.000000000002
61 ; 21620.797562198568 ; 30049.878155422677 ; 1048502.9554019939 ; 1833042.5674807813 ; 14518.000000000002
62 ; 21614.70333527936 ; 30049.878155422677 ; 1070123.7529641925 ; 1863092.445636204 ; 14756.000000000002
63 ; 21647.090789653983 ; 30049.878155422677 ; 1091738.456299472 ; 1893142.3237916266 ; 14994.000000000002
64 ; 21894.103386968898 ; 30049.878155422677 ; 1113385.547089126 ; 1923192.2019470492 ; 15232.000000000002
65 ; 21872.74266456707 ; 30049.878155422677 ; 1135279.6504760948 ; 1953242.0801024719 ; 15470.000000000002
66 ; 22014.28547409268 ; 30049.878155422677 ; 1157152.3931406618 ; 1983291.9582578945 ; 15708.000000000002
67 ; 21804.464903438733 ; 30049.878155422677 ; 1179166.6786147545 ; 2013341.8364133171 ; 15946.000000000002
68 ; 21907.179062344774 ; 30049.878155422677 ; 1200971.1435181932 ; 2043391.7145687398 ; 16184.000000000002
69 ; 22073.52612732238 ; 30049.878155422677 ; 1222878.322580538 ; 2073441.5927241624 ; 16422.000000000004
70 ; 22095.55983589146 ; 30049.878155422677 ; 1244951.8487078603 ; 2103491.470879585 ; 16660.000000000004
71 ; 22094.246273696863 ; 30049.878155422677 ; 1267047.4085437518 ; 2133541.349035008 ; 16898.000000000004
72 ; 22089.763356571995 ; 30049.878155422677 ; 1289141.6548174487 ; 2163591.2271904307 ; 17136.000000000004
73 ; 22281.756613967376 ; 30049.878155422677 ; 1311231.4181740207 ; 2193641.1053458536 ; 17374.000000000004
74 ; 22239.133763557416 ; 30049.878155422677 ; 1333513.1747879882 ; 2223690.9835012765 ; 17612.000000000004
75 ; 22175.04535472936 ; 30049.878155422677 ; 1355752.3085515457 ; 2253740.8616566993 ; 17850.000000000004
76 ; 22051.388453040887 ; 30049.878155422677 ; 1377927.353906275 ; 2283790.739812122 ; 18088.000000000004
77 ; 22288.376702417285 ; 30049.878155422677 ; 1399978.742359316 ; 2313840.617967545 ; 18326.000000000004
78 ; 22339.43233462979 ; 30049.878155422677 ; 1422267.1190617334 ; 2343890.496122968 ; 18564.000000000004
79 ; 22293.362653397133 ; 30049.878155422677 ; 1444606.5513963632 ; 2373940.374278391 ; 18802.000000000004
80 ; 22413.427439132658 ; 30049.878155422677 ; 1466899.9140497602 ; 2403990.2524338136 ; 19040.000000000004
81 ; 22091.249936450604 ; 30049.878155422677 ; 1489313.341488893 ; 2434040.1305892365 ; 19278.000000000004
82 ; 22224.834751871967 ; 30049.878155422677 ; 1511404.5914253434 ; 2464090.0087446594 ; 19516.000000000004
83 ; 22280.8280911136 ; 30049.878155422677 ; 1533629.4261772153 ; 2494139.886900082 ; 19754.000000000004
84 ; 22293.4135082036 ; 30049.878155422677 ; 1555910.254268329 ; 2524189.765055505 ; 19992.000000000004
85 ; 22060.73749816188 ; 30049.878155422677 ; 1578203.6677765325 ; 2554239.643210928 ; 20230.000000000004
86 ; 22065.0078804343 ; 30049.878155422677 ; 1600264.4052746943 ; 2584289.521366351 ; 20468.000000000004
87 ; 22238.32741666342 ; 30049.878155422677 ; 1622329.4131551287 ; 2614339.3995217737 ; 20706.000000000004
88 ; 22136.590422357935 ; 30049.878155422677 ; 1644567.7405717922 ; 2644389.2776771965 ; 20944.000000000004
89 ; 22202.051510808604 ; 30049.878155422677 ; 1666704.3309941501 ; 2674439.1558326194 ; 21182.000000000004
90 ; 22036.684881471847 ; 30049.878155422677 ; 1688906.3825049587 ; 2704489.0339880423 ; 21420.000000000004
91 ; 21897.662008102525 ; 30049.878155422677 ; 1710943.0673864305 ; 2734538.912143465 ; 21658.000000000004
92 ; 22104.676637762695 ; 30049.878155422677 ; 1732840.729394533 ; 2764588.790298888 ; 21896.000000000004
93 ; 21749.058524029602 ; 30049.878155422677 ; 1754945.4060322957 ; 2794638.668454311 ; 22134.000000000004
94 ; 21852.131906868304 ; 30049.878155422677 ; 1776694.4645563252 ; 2824688.5466097337 ; 22372.000000000004
95 ; 21672.048152967316 ; 30049.878155422677 ; 1798546.5964631934 ; 2854738.4247651566 ; 22610.000000000004
96 ; 21765.07631582689 ; 30049.878155422677 ; 1820218.6446161608 ; 2884788.3029205794 ; 22848.000000000004
97 ; 21725.434439814377 ; 30049.878155422677 ; 1841983.7209319877 ; 2914838.1810760023 ; 23086.000000000004
98 ; 21621.21325646299 ; 30049.878155422677 ; 1863709.1553718022 ; 2944888.059231425 ; 23324.000000000004
99 ; 21636.62486597424 ; 30049.878155422677 ; 1885330.368628265 ; 2974937.937386848 ; 23562.000000000004
100 ; 21464.702166771604 ; 30049.878155422677 ; 1906966.9934942394 ; 3004987.815542271 ; 23800.000000000004
101 ; 21272.06357461529 ; 30049.878155422677 ; 1928431.695661011 ; 3035037.6936976938 ; 24038.000000000004
102 ; 21282.443161130177 ; 30049.878155422677 ; 1949703.7592356263 ; 3065087.5718531166 ; 24276.000000000004
103 ; 21170.374206191103 ; 30049.878155422677 ; 1970986.2023967565 ; 3095137.4500085395 ; 24514.000000000004
104 ; 21261.337604895692 ; 30049.878155422677 ; 1992156.5766029477 ; 3125187.3281639623 ; 24752.000000000004
105 ; 20921.973383940538 ; 30049.878155422677 ; 2013417.9142078434 ; 3155237.206319385 ; 24990.000000000004
106 ; 20755.8436672231 ; 30049.878155422677 ; 2034339.887591784 ; 3185287.084474808 ; 25228.000000000004
107 ; 20932.457520258256 ; 30049.878155422677 ; 2055095.731259007 ; 3215336.962630231 ; 25466.000000000004
108 ; 20742.342245823318 ; 30049.878155422677 ; 2076028.1887792652 ; 3245386.840785654 ; 25704.000000000004
109 ; 20540.19250016559 ; 30049.878155422677 ; 2096770.5310250884 ; 3275436.7189410767 ; 25942.000000000004
110 ; 20575.27620189204 ; 30049.878155422677 ; 2117310.723525254 ; 3305486.5970964995 ; 26180.000000000004
111 ; 20498.410206110762 ; 30049.878155422677 ; 2137885.9997271462 ; 3335536.4752519224 ; 26418.000000000004
112 ; 20208.94945992515 ; 30049.878155422677 ; 2158384.409933257 ; 3365586.3534073452 ; 26656.000000000004
113 ; 20330.45680296429 ; 30049.878155422677 ; 2178593.359393182 ; 3395636.231562768 ; 26894.000000000004
114 ; 20180.916082032683 ; 30049.878155422677 ; 2198923.8161961464 ; 3425686.109718191 ; 27132.000000000004
115 ; 19988.599740033733 ; 30049.878155422677 ; 2219104.732278179 ; 3455735.987873614 ; 27370.000000000004
116 ; 19880.038751159813 ; 30049.878155422677 ; 2239093.3320182124 ; 3485785.8660290367 ; 27608.000000000004
117 ; 19772.426007643673 ; 30049.878155422677 ; 2258973.370769372 ; 3515835.7441844596 ; 27846.000000000004
118 ; 19644.14709491273 ; 30049.878155422677 ; 2278745.796777016 ; 3545885.6223398824 ; 28084.000000000004
119 ; 19560.137631351536 ; 30049.878155422677 ; 2298389.943871929 ; 3575935.5004953053 ; 28322.000000000004
120 ; 19321.507572052462 ; 30049.878155422677 ; 2317950.0815032804 ; 3605985.378650728 ; 28560.000000000004
121 ; 19070.260756373173 ; 30049.878155422677 ; 2337271.589075333 ; 3636035.256806151 ; 28798.000000000004
122 ; 19050.11784395008 ; 30049.878155422677 ; 2356341.849831706 ; 3666085.134961574 ; 29036.000000000004
123 ; 18729.200622782435 ; 30049.878155422677 ; 2375391.967675656 ; 3696135.0131169967 ; 29274.000000000004
124 ; 18588.690687022186 ; 30049.878155422677 ; 2394121.1682984387 ; 3726184.8912724196 ; 29512.000000000004
125 ; 18515.385149070855 ; 30049.878155422677 ; 2412709.858985461 ; 3756234.7694278425 ; 29750.000000000004
126 ; 18420.86036415343 ; 30049.878155422677 ; 2431225.244134532 ; 3786284.6475832653 ; 29988.000000000004
127 ; 18298.396212029915 ; 30049.878155422677 ; 2449646.1044986853 ; 3816334.525738688 ; 30226.000000000004
128 ; 18158.160656291715 ; 30049.878155422677 ; 2467944.500710715 ; 3846384.403894111 ; 30464.000000000004
129 ; 17898.59373216028 ; 30049.878155422677 ; 2486102.6613670066 ; 3876434.282049534 ; 30702.000000000004
130 ; 17680.929955389685 ; 30049.878155422677 ; 2504001.2550991667 ; 3906484.160204957 ; 30940.000000000004
131 ; 17478.904587660596 ; 30049.878155422677 ; 2521682.1850545565 ; 3936534.0383603796 ; 31178.000000000004
132 ; 17415.40627852583 ; 30049.878155422677 ; 2539161.089642217 ; 3966583.9165158025 ; 31416.000000000004
133 ; 17128.17535186423 ; 30049.878155422677 ; 2556576.495920743 ; 3996633.7946712254 ; 31654.000000000004
134 ; 16760.766236120264 ; 30049.878155422677 ; 2573704.671272607 ; 4026683.672826648 ; 31892.000000000004
135 ; 16758.768775061282 ; 30049.878155422677 ; 2590465.4375087274 ; 4056733.550982071 ; 32130.000000000004
136 ; 16546.66712519844 ; 30049.878155422677 ; 2607224.2062837887 ; 4086783.429137494 ; 32368.000000000004
137 ; 16476.129908023908 ; 30049.878155422677 ; 2623770.873408987 ; 4116833.307292917 ; 32606.000000000004
138 ; 15945.338471564839 ; 30049.878155422677 ; 2640247.003317011 ; 4146883.1854483397 ; 32844.00000000001
139 ; 15773.650363414261 ; 30049.878155422677 ; 2656192.341788576 ; 4176933.0636037625 ; 33082.00000000001
140 ; 15679.634526374613 ; 30049.878155422677 ; 2671965.99215199 ; 4206982.941759185 ; 33320.00000000001
141 ; 15441.170090381596 ; 30049.878155422677 ; 2687645.626678365 ; 4237032.819914607 ; 33558.00000000001
142 ; 15227.73427043038 ; 30049.878155422677 ; 2703086.7967687463 ; 4267082.69807003 ; 33796.00000000001
143 ; 14965.586189970594 ; 30049.878155422677 ; 2718314.5310391765 ; 4297132.576225452 ; 34034.00000000001
144 ; 14774.22602779079 ; 30049.878155422677 ; 2733280.117229147 ; 4327182.4543808745 ; 34272.00000000001
145 ; 14929.272935582621 ; 30049.878155422677 ; 2748054.343256938 ; 4357232.332536297 ; 34510.00000000001
146 ; 14596.501160625829 ; 30049.878155422677 ; 2762983.6161925206 ; 4387282.210691719 ; 34748.00000000001
147 ; 14656.75759279909 ; 30049.878155422677 ; 2777580.1173531464 ; 4417332.088847142 ; 34986.00000000001
148 ; 14238.141774802716 ; 30049.878155422677 ; 2792236.8749459456 ; 4447381.967002564 ; 35224.00000000001
149 ; 14445.636502808644 ; 30049.878155422677 ; 2806475.0167207485 ; 4477431.8451579865 ; 35462.00000000001
150 ; 14158.716638650625 ; 30049.878155422677 ; 2820920.653223557 ; 4507481.723313409 ; 35700.00000000001
151 ; 14278.241827294396 ; 30049.878155422677 ; 2835079.3698622077 ; 4537531.601468831 ; 35938.00000000001
152 ; 13882.689390793974 ; 30049.878155422677 ; 2849357.611689502 ; 4567581.479624254 ; 36176.00000000001
153 ; 14115.008633598702 ; 30049.878155422677 ; 2863240.301080296 ; 4597631.357779676 ; 36414.00000000001
154 ; 13811.85807751832 ; 30049.878155422677 ; 2877355.3097138945 ; 4627681.2359350985 ; 36652.00000000001
155 ; 14016.915393049585 ; 30049.878155422677 ; 2891167.1677914127 ; 4657731.114090521 ; 36890.00000000001
156 ; 13818.832960650529 ; 30049.878155422677 ; 2905184.083184462 ; 4687780.992245943 ; 37128.00000000001
157 ; 13665.120911652764 ; 30049.878155422677 ; 2919002.9161451124 ; 4717830.870401366 ; 37366.00000000001
158 ; 13751.69555251904 ; 30049.878155422677 ; 2932668.037056765 ; 4747880.748556788 ; 37604.00000000001
159 ; 13746.855076613869 ; 30049.878155422677 ; 2946419.732609284 ; 4777930.6267122105 ; 37842.00000000001
160 ; 13493.713193010222 ; 30049.878155422677 ; 2960166.587685898 ; 4807980.504867633 ; 38080.00000000001
161 ; 13261.14761714915 ; 30049.878155422677 ; 2973660.300878908 ; 4838030.383023055 ; 38318.00000000001
162 ; 13346.199261547388 ; 30049.878155422677 ; 2986921.448496057 ; 4868080.261178478 ; 38556.00000000001
163 ; 13150.308950145296 ; 30049.878155422677 ; 3000267.6477576047 ; 4898130.1393339 ; 38794.00000000001
164 ; 13094.733083179086 ; 30049.878155422677 ; 3013417.95670775 ; 4928180.017489322 ; 39032.00000000001
165 ; 12719.20406490211 ; 30049.878155422677 ; 3026512.689790929 ; 4958229.895644745 ; 39270.00000000001
166 ; 12936.092665306607 ; 30049.878155422677 ; 3039231.893855831 ; 4988279.773800167 ; 39508.00000000001
167 ; 12729.869587086414 ; 30049.878155422677 ; 3052167.986521138 ; 5018329.65195559 ; 39746.00000000001
168 ; 12789.146306579172 ; 30049.878155422677 ; 3064897.8561082245 ; 5048379.530111012 ; 39984.00000000001
169 ; 12460.983654523134 ; 30049.878155422677 ; 3077687.0024148035 ; 5078429.408266434 ; 40222.00000000001
170 ; 12574.498438535571 ; 30049.878155422677 ; 3090147.9860693268 ; 5108479.286421857 ; 40460.00000000001
171 ; 12606.750133585176 ; 30049.878155422677 ; 3102722.4845078625 ; 5138529.164577279 ; 40698.00000000001
172 ; 12136.963416902561 ; 30049.878155422677 ; 3115329.2346414477 ; 5168579.042732702 ; 40936.00000000001
173 ; 12117.174932698425 ; 30049.878155422677 ; 3127466.19805835 ; 5198628.920888124 ; 41174.00000000001
174 ; 12279.74614406907 ; 30049.878155422677 ; 3139583.3729910483 ; 5228678.799043546 ; 41412.00000000001
175 ; 12190.55958615914 ; 30049.878155422677 ; 3151863.119135117 ; 5258728.677198969 ; 41650.00000000001
176 ; 12408.517214275134 ; 30049.878155422677 ; 3164053.678721276 ; 5288778.555354391 ; 41888.00000000001
177 ; 12204.676747077765 ; 30049.878155422677 ; 3176462.195935551 ; 5318828.433509814 ; 42126.00000000001
178 ; 12186.985499021981 ; 30049.878155422677 ; 3188666.8726826287 ; 5348878.311665236 ; 42364.00000000001
179 ; 12202.520915314479 ; 30049.878155422677 ; 3200853.8581816508 ; 5378928.189820658 ; 42602.00000000001
180 ; 12190.637419712852 ; 30049.878155422677 ; 3213056.3790969653 ; 5408978.067976081 ; 42840.00000000001
181 ; 12483.524727534075 ; 30049.878155422677 ; 3225247.016516678 ; 5439027.946131503 ; 43078.00000000001
182 ; 12005.959287068512 ; 30049.878155422677 ; 3237730.541244212 ; 5469077.824286926 ; 43316.00000000001
183 ; 12165.387676225055 ; 30049.878155422677 ; 3249736.5005312804 ; 5499127.702442348 ; 43554.00000000001
184 ; 12269.280544218484 ; 30049.878155422677 ; 3261901.8882075055 ; 5529177.58059777 ; 43792.00000000001
