CSV File for the City 1 on Day 275
1 - Minute m 
2 - Power Consumed at minute m 
3 - Power Produced at minute m 
4 - Energy Consumed since the beginning of the day 
5 - Energy Produced since the beginning of the day 
6 - Energy Lost since the beginning of the day on lines starting from the city
 
0 ; 8386.013681453422 ; 3322.114616348088 ; 0.0 ; 0.0 ; 0.0
1 ; 8639.693711958687 ; 3322.114616348088 ; 8386.013681453422 ; 3322.114616348088 ; 238.00000000000003
2 ; 9367.808775092588 ; 3322.114616348088 ; 17025.707393412107 ; 6644.229232696176 ; 476.00000000000006
3 ; 9719.491364082009 ; 3322.114616348088 ; 26393.516168504695 ; 9966.343849044264 ; 714.0000000000001
4 ; 10154.319705477294 ; 3322.114616348088 ; 36113.00753258671 ; 13288.458465392352 ; 952.0000000000001
5 ; 10763.922902878347 ; 3322.114616348088 ; 46267.327238064 ; 16610.57308174044 ; 1190.0000000000002
6 ; 11071.23639921891 ; 3322.114616348088 ; 57031.25014094234 ; 19932.687698088528 ; 1428.0000000000002
7 ; 11638.257038672256 ; 3322.114616348088 ; 68102.48654016125 ; 23254.802314436616 ; 1666.0000000000002
8 ; 12020.236263189436 ; 3322.114616348088 ; 79740.7435788335 ; 26576.916930784704 ; 1904.0000000000002
9 ; 12622.986211794108 ; 3322.114616348088 ; 91760.97984202293 ; 29899.031547132792 ; 2142.0000000000005
10 ; 12791.363407840905 ; 3322.114616348088 ; 104383.96605381704 ; 33221.14616348088 ; 2380.0000000000005
11 ; 13381.301335542745 ; 3322.114616348088 ; 117175.32946165795 ; 36543.26077982897 ; 2618.0000000000005
12 ; 13786.290647696213 ; 3322.114616348088 ; 130556.63079720069 ; 39865.375396177056 ; 2856.0000000000005
13 ; 14174.152364618254 ; 3322.114616348088 ; 144342.9214448969 ; 43187.490012525144 ; 3094.0000000000005
14 ; 14713.290508642864 ; 3322.114616348088 ; 158517.07380951516 ; 46509.60462887323 ; 3332.0000000000005
15 ; 15016.776498889607 ; 3322.114616348088 ; 173230.364318158 ; 49831.71924522132 ; 3570.0000000000005
16 ; 15379.070037025025 ; 3322.114616348088 ; 188247.14081704762 ; 53153.83386156941 ; 3808.0000000000005
17 ; 15782.752447782546 ; 3322.114616348088 ; 203626.21085407265 ; 56475.948477917496 ; 4046.0000000000005
18 ; 16091.08725026038 ; 3322.114616348088 ; 219408.9633018552 ; 59798.063094265584 ; 4284.000000000001
19 ; 16439.020002936802 ; 3322.114616348088 ; 235500.05055211557 ; 63120.17771061367 ; 4522.000000000001
20 ; 16760.59109274711 ; 3322.114616348088 ; 251939.07055505237 ; 66442.29232696176 ; 4760.000000000001
21 ; 17360.87849872224 ; 3322.114616348088 ; 268699.6616477995 ; 69764.40694330985 ; 4998.000000000001
22 ; 17556.786553482147 ; 3322.114616348088 ; 286060.5401465217 ; 73086.52155965794 ; 5236.000000000001
23 ; 17928.419759269913 ; 3322.114616348088 ; 303617.3267000038 ; 76408.63617600602 ; 5474.000000000001
24 ; 18153.319095583913 ; 3322.114616348088 ; 321545.74645927374 ; 79730.75079235411 ; 5712.000000000001
25 ; 18629.264351903716 ; 3322.114616348088 ; 339699.06555485766 ; 83052.8654087022 ; 5950.000000000001
26 ; 19153.60066186252 ; 3322.114616348088 ; 358328.32990676136 ; 86374.98002505029 ; 6188.000000000001
27 ; 19137.9656616805 ; 3322.114616348088 ; 377481.9305686239 ; 89697.09464139838 ; 6426.000000000001
28 ; 19620.593379316833 ; 3322.114616348088 ; 396619.8962303044 ; 93019.20925774646 ; 6664.000000000001
29 ; 20130.62691718334 ; 3322.114616348088 ; 416240.48960962123 ; 96341.32387409455 ; 6902.000000000001
30 ; 20126.4867644671 ; 3322.114616348088 ; 436371.1165268046 ; 99663.43849044264 ; 7140.000000000001
31 ; 20483.533969906202 ; 3322.114616348088 ; 456497.60329127166 ; 102985.55310679073 ; 7378.000000000001
32 ; 21081.50117510266 ; 3322.114616348088 ; 476981.1372611779 ; 106307.66772313882 ; 7616.000000000001
33 ; 21033.804958666486 ; 3322.114616348088 ; 498062.63843628054 ; 109629.7823394869 ; 7854.000000000001
34 ; 21619.23269243171 ; 3322.114616348088 ; 519096.44339494704 ; 112951.89695583499 ; 8092.000000000001
35 ; 21873.428292703546 ; 3322.114616348088 ; 540715.6760873788 ; 116274.01157218308 ; 8330.000000000002
36 ; 22103.76416097868 ; 3322.114616348088 ; 562589.1043800823 ; 119596.12618853117 ; 8568.000000000002
37 ; 22216.687108025657 ; 3322.114616348088 ; 584692.8685410611 ; 122918.24080487926 ; 8806.000000000002
38 ; 22802.89396015824 ; 3322.114616348088 ; 606909.5556490867 ; 126240.35542122734 ; 9044.000000000002
39 ; 22857.770060837054 ; 3322.114616348088 ; 629712.4496092449 ; 129562.47003757543 ; 9282.000000000002
40 ; 22947.664679929476 ; 3322.114616348088 ; 652570.219670082 ; 132884.58465392352 ; 9520.000000000002
41 ; 23374.94948036443 ; 3322.114616348088 ; 675517.8843500115 ; 136206.6992702716 ; 9758.000000000002
42 ; 23514.98247720722 ; 3322.114616348088 ; 698892.8338303759 ; 139528.8138866197 ; 9996.000000000002
43 ; 23767.36263767181 ; 3322.114616348088 ; 722407.8163075831 ; 142850.92850296778 ; 10234.000000000002
44 ; 24085.26644279001 ; 3322.114616348088 ; 746175.1789452549 ; 146173.04311931587 ; 10472.000000000002
45 ; 24306.1396514231 ; 3322.114616348088 ; 770260.4453880449 ; 149495.15773566396 ; 10710.000000000002
46 ; 24551.704871728718 ; 3322.114616348088 ; 794566.585039468 ; 152817.27235201205 ; 10948.000000000002
47 ; 24773.051002141747 ; 3322.114616348088 ; 819118.2899111967 ; 156139.38696836014 ; 11186.000000000002
48 ; 24876.958406701346 ; 3322.114616348088 ; 843891.3409133385 ; 159461.50158470822 ; 11424.000000000002
49 ; 25129.35381184367 ; 3322.114616348088 ; 868768.2993200398 ; 162783.6162010563 ; 11662.000000000002
50 ; 25246.975038287976 ; 3322.114616348088 ; 893897.6531318835 ; 166105.7308174044 ; 11900.000000000002
51 ; 25304.297119440762 ; 3322.114616348088 ; 919144.6281701714 ; 169427.8454337525 ; 12138.000000000002
52 ; 25599.362930098137 ; 3322.114616348088 ; 944448.9252896121 ; 172749.96005010058 ; 12376.000000000002
53 ; 25871.69325633455 ; 3322.114616348088 ; 970048.2882197102 ; 176072.07466644867 ; 12614.000000000002
54 ; 26091.89260971711 ; 3322.114616348088 ; 995919.9814760447 ; 179394.18928279675 ; 12852.000000000002
55 ; 26087.12454733875 ; 3322.114616348088 ; 1022011.8740857618 ; 182716.30389914484 ; 13090.000000000002
56 ; 26235.796260616655 ; 3322.114616348088 ; 1048098.9986331005 ; 186038.41851549293 ; 13328.000000000002
57 ; 26544.275135220818 ; 3322.114616348088 ; 1074334.7948937172 ; 189360.53313184102 ; 13566.000000000002
58 ; 26610.344857176824 ; 3322.114616348088 ; 1100879.070028938 ; 192682.6477481891 ; 13804.000000000002
59 ; 26607.903206924984 ; 3322.114616348088 ; 1127489.4148861147 ; 196004.7623645372 ; 14042.000000000002
60 ; 26838.80181474154 ; 3322.114616348088 ; 1154097.3180930396 ; 199326.87698088528 ; 14280.000000000002
61 ; 26939.44402145805 ; 3322.114616348088 ; 1180936.119907781 ; 202648.99159723337 ; 14518.000000000002
62 ; 27128.356202502655 ; 3322.114616348088 ; 1207875.563929239 ; 205971.10621358146 ; 14756.000000000002
63 ; 27289.33124192511 ; 3322.114616348088 ; 1235003.9201317418 ; 209293.22082992955 ; 14994.000000000002
64 ; 27120.990700522663 ; 3322.114616348088 ; 1262293.2513736668 ; 212615.33544627763 ; 15232.000000000002
65 ; 27459.47381425325 ; 3322.114616348088 ; 1289414.2420741895 ; 215937.45006262572 ; 15470.000000000002
66 ; 27505.677982358546 ; 3322.114616348088 ; 1316873.7158884427 ; 219259.5646789738 ; 15708.000000000002
67 ; 27616.98255457247 ; 3322.114616348088 ; 1344379.3938708012 ; 222581.6792953219 ; 15946.000000000002
68 ; 27620.357209178936 ; 3322.114616348088 ; 1371996.3764253736 ; 225903.79391166999 ; 16184.000000000002
69 ; 27663.97629492248 ; 3322.114616348088 ; 1399616.7336345525 ; 229225.90852801807 ; 16422.000000000004
70 ; 28163.741117206508 ; 3322.114616348088 ; 1427280.7099294749 ; 232548.02314436616 ; 16660.000000000004
71 ; 27977.6680334882 ; 3322.114616348088 ; 1455444.4510466813 ; 235870.13776071425 ; 16898.000000000004
72 ; 27977.533366301526 ; 3322.114616348088 ; 1483422.1190801694 ; 239192.25237706234 ; 17136.000000000004
73 ; 28060.360412181642 ; 3322.114616348088 ; 1511399.652446471 ; 242514.36699341043 ; 17374.000000000004
74 ; 28063.156475929904 ; 3322.114616348088 ; 1539460.0128586525 ; 245836.4816097585 ; 17612.000000000004
75 ; 28116.73234757714 ; 3322.114616348088 ; 1567523.1693345825 ; 249158.5962261066 ; 17850.000000000004
76 ; 28181.46213272964 ; 3322.114616348088 ; 1595639.9016821596 ; 252480.7108424547 ; 18088.000000000004
77 ; 28393.08559099383 ; 3322.114616348088 ; 1623821.3638148892 ; 255802.82545880278 ; 18326.000000000004
78 ; 28392.49215359112 ; 3322.114616348088 ; 1652214.449405883 ; 259124.94007515087 ; 18564.000000000004
79 ; 28313.54586467932 ; 3322.114616348088 ; 1680606.941559474 ; 262447.054691499 ; 18802.000000000004
80 ; 28274.281127552204 ; 3322.114616348088 ; 1708920.4874241534 ; 265769.16930784704 ; 19040.000000000004
81 ; 28385.787449370564 ; 3322.114616348088 ; 1737194.7685517056 ; 269091.2839241951 ; 19278.000000000004
82 ; 28136.659326116678 ; 3322.114616348088 ; 1765580.5560010762 ; 272413.39854054316 ; 19516.000000000004
83 ; 28243.640944357117 ; 3322.114616348088 ; 1793717.215327193 ; 275735.5131568912 ; 19754.000000000004
84 ; 28327.24592748212 ; 3322.114616348088 ; 1821960.85627155 ; 279057.6277732393 ; 19992.000000000004
85 ; 28198.920352721467 ; 3322.114616348088 ; 1850288.1021990322 ; 282379.74238958734 ; 20230.000000000004
86 ; 28432.036274055674 ; 3322.114616348088 ; 1878487.0225517536 ; 285701.8570059354 ; 20468.000000000004
87 ; 28118.936359692918 ; 3322.114616348088 ; 1906919.0588258093 ; 289023.97162228345 ; 20706.000000000004
88 ; 28005.40181433854 ; 3322.114616348088 ; 1935037.995185502 ; 292346.0862386315 ; 20944.000000000004
89 ; 27967.416552433828 ; 3322.114616348088 ; 1963043.3969998406 ; 295668.2008549796 ; 21182.000000000004
90 ; 28171.65612369246 ; 3322.114616348088 ; 1991010.8135522744 ; 298990.31547132763 ; 21420.000000000004
91 ; 28041.898816350356 ; 3322.114616348088 ; 2019182.4696759668 ; 302312.4300876757 ; 21658.000000000004
92 ; 27896.814199712186 ; 3322.114616348088 ; 2047224.3684923172 ; 305634.54470402375 ; 21896.000000000004
93 ; 27925.040660017643 ; 3322.114616348088 ; 2075121.1826920293 ; 308956.6593203718 ; 22134.000000000004
94 ; 27746.384468505054 ; 3322.114616348088 ; 2103046.223352047 ; 312278.77393671987 ; 22372.000000000004
95 ; 27863.193918173303 ; 3322.114616348088 ; 2130792.6078205523 ; 315600.8885530679 ; 22610.000000000004
96 ; 27514.91536198297 ; 3322.114616348088 ; 2158655.8017387255 ; 318923.003169416 ; 22848.000000000004
97 ; 27562.090050563835 ; 3322.114616348088 ; 2186170.7171007083 ; 322245.11778576404 ; 23086.000000000004
98 ; 27554.125086884065 ; 3322.114616348088 ; 2213732.807151272 ; 325567.2324021121 ; 23324.000000000004
99 ; 27397.09506818244 ; 3322.114616348088 ; 2241286.932238156 ; 328889.34701846016 ; 23562.000000000004
100 ; 27385.855930444 ; 3322.114616348088 ; 2268684.0273063383 ; 332211.4616348082 ; 23800.000000000004
101 ; 27279.71286377549 ; 3322.114616348088 ; 2296069.883236782 ; 335533.5762511563 ; 24038.000000000004
102 ; 26989.346328745753 ; 3322.114616348088 ; 2323349.5961005576 ; 338855.69086750434 ; 24276.000000000004
103 ; 26885.755947851805 ; 3322.114616348088 ; 2350338.942429303 ; 342177.8054838524 ; 24514.000000000004
104 ; 26782.729874130197 ; 3322.114616348088 ; 2377224.698377155 ; 345499.92010020046 ; 24752.000000000004
105 ; 26657.47130037335 ; 3322.114616348088 ; 2404007.428251285 ; 348822.0347165485 ; 24990.000000000004
106 ; 26252.858201444564 ; 3322.114616348088 ; 2430664.8995516584 ; 352144.1493328966 ; 25228.000000000004
107 ; 26204.666897791893 ; 3322.114616348088 ; 2456917.757753103 ; 355466.26394924463 ; 25466.000000000004
108 ; 26225.510476492655 ; 3322.114616348088 ; 2483122.424650895 ; 358788.3785655927 ; 25704.000000000004
109 ; 26063.087444415407 ; 3322.114616348088 ; 2509347.9351273878 ; 362110.49318194075 ; 25942.000000000004
110 ; 25858.90920920945 ; 3322.114616348088 ; 2535411.022571803 ; 365432.6077982888 ; 26180.000000000004
111 ; 25601.284610239087 ; 3322.114616348088 ; 2561269.9317810126 ; 368754.72241463687 ; 26418.000000000004
112 ; 25768.156449423608 ; 3322.114616348088 ; 2586871.2163912514 ; 372076.8370309849 ; 26656.000000000004
113 ; 25352.47049267226 ; 3322.114616348088 ; 2612639.372840675 ; 375398.951647333 ; 26894.000000000004
114 ; 24975.140929053512 ; 3322.114616348088 ; 2637991.8433333472 ; 378721.06626368104 ; 27132.000000000004
115 ; 24749.352810928547 ; 3322.114616348088 ; 2662966.984262401 ; 382043.1808800291 ; 27370.000000000004
116 ; 24718.166566064745 ; 3322.114616348088 ; 2687716.3370733294 ; 385365.29549637716 ; 27608.000000000004
117 ; 24601.64529279414 ; 3322.114616348088 ; 2712434.503639394 ; 388687.4101127252 ; 27846.000000000004
118 ; 24352.235478833172 ; 3322.114616348088 ; 2737036.1489321883 ; 392009.5247290733 ; 28084.000000000004
119 ; 24142.296483011338 ; 3322.114616348088 ; 2761388.3844110216 ; 395331.63934542134 ; 28322.000000000004
120 ; 23790.615313980532 ; 3322.114616348088 ; 2785530.680894033 ; 398653.7539617694 ; 28560.000000000004
121 ; 23651.53604901853 ; 3322.114616348088 ; 2809321.296208014 ; 401975.86857811746 ; 28798.000000000004
122 ; 23258.114960689745 ; 3322.114616348088 ; 2832972.8322570324 ; 405297.9831944655 ; 29036.000000000004
123 ; 23077.32460306331 ; 3322.114616348088 ; 2856230.947217722 ; 408620.0978108136 ; 29274.000000000004
124 ; 22779.336660826775 ; 3322.114616348088 ; 2879308.2718207855 ; 411942.21242716163 ; 29512.000000000004
125 ; 22750.73792983299 ; 3322.114616348088 ; 2902087.608481612 ; 415264.3270435097 ; 29750.000000000004
126 ; 22385.144069078025 ; 3322.114616348088 ; 2924838.346411445 ; 418586.44165985775 ; 29988.000000000004
127 ; 22039.079245316898 ; 3322.114616348088 ; 2947223.490480523 ; 421908.5562762058 ; 30226.000000000004
128 ; 21796.601880651237 ; 3322.114616348088 ; 2969262.56972584 ; 425230.67089255387 ; 30464.000000000004
129 ; 21642.40506124153 ; 3322.114616348088 ; 2991059.1716064913 ; 428552.7855089019 ; 30702.000000000004
130 ; 21261.93859100542 ; 3322.114616348088 ; 3012701.576667733 ; 431874.90012525 ; 30940.000000000004
131 ; 21038.570275043152 ; 3322.114616348088 ; 3033963.5152587383 ; 435197.01474159805 ; 31178.000000000004
132 ; 20587.293373483968 ; 3322.114616348088 ; 3055002.0855337814 ; 438519.1293579461 ; 31416.000000000004
133 ; 20231.77526539503 ; 3322.114616348088 ; 3075589.3789072656 ; 441841.24397429416 ; 31654.000000000004
134 ; 20134.655239906602 ; 3322.114616348088 ; 3095821.154172661 ; 445163.3585906422 ; 31892.000000000004
135 ; 19652.156254337435 ; 3322.114616348088 ; 3115955.8094125674 ; 448485.4732069903 ; 32130.000000000004
136 ; 19286.63863879833 ; 3322.114616348088 ; 3135607.965666905 ; 451807.58782333834 ; 32368.000000000004
137 ; 18995.759657789513 ; 3322.114616348088 ; 3154894.604305703 ; 455129.7024396864 ; 32606.000000000004
138 ; 18601.437335678016 ; 3322.114616348088 ; 3173890.3639634927 ; 458451.81705603446 ; 32844.00000000001
139 ; 18247.895803142183 ; 3322.114616348088 ; 3192491.8012991706 ; 461773.9316723825 ; 33082.00000000001
140 ; 17945.5872112645 ; 3322.114616348088 ; 3210739.697102313 ; 465096.0462887306 ; 33320.00000000001
141 ; 17492.75396238536 ; 3322.114616348088 ; 3228685.284313577 ; 468418.16090507864 ; 33558.00000000001
142 ; 17219.65010898759 ; 3322.114616348088 ; 3246178.0382759627 ; 471740.2755214267 ; 33796.00000000001
143 ; 16874.696840831974 ; 3322.114616348088 ; 3263397.68838495 ; 475062.39013777475 ; 34034.00000000001
144 ; 16347.122839739284 ; 3322.114616348088 ; 3280272.385225782 ; 478384.5047541228 ; 34272.00000000001
145 ; 16331.111404866568 ; 3322.114616348088 ; 3296619.5080655213 ; 481706.6193704709 ; 34510.00000000001
146 ; 16309.04991682138 ; 3322.114616348088 ; 3312950.6194703877 ; 485028.73398681893 ; 34748.00000000001
147 ; 16194.60309185281 ; 3322.114616348088 ; 3329259.669387209 ; 488350.848603167 ; 34986.00000000001
148 ; 16013.450081140832 ; 3322.114616348088 ; 3345454.272479062 ; 491672.96321951505 ; 35224.00000000001
149 ; 15949.27824944596 ; 3322.114616348088 ; 3361467.7225602027 ; 494995.0778358631 ; 35462.00000000001
150 ; 15804.318649662464 ; 3322.114616348088 ; 3377417.0008096485 ; 498317.19245221117 ; 35700.00000000001
151 ; 15947.309554458547 ; 3322.114616348088 ; 3393221.319459311 ; 501639.3070685592 ; 35938.00000000001
152 ; 15648.556191484162 ; 3322.114616348088 ; 3409168.62901377 ; 504961.4216849073 ; 36176.00000000001
153 ; 15577.002765691599 ; 3322.114616348088 ; 3424817.185205254 ; 508283.53630125534 ; 36414.00000000001
154 ; 15473.452272953466 ; 3322.114616348088 ; 3440394.187970945 ; 511605.6509176034 ; 36652.00000000001
155 ; 15242.894774140912 ; 3322.114616348088 ; 3455867.6402438986 ; 514927.76553395146 ; 36890.00000000001
156 ; 15390.716546845506 ; 3322.114616348088 ; 3471110.5350180394 ; 518249.8801502995 ; 37128.00000000001
157 ; 14960.173131966307 ; 3322.114616348088 ; 3486501.251564885 ; 521571.9947666476 ; 37366.00000000001
158 ; 14854.223616388252 ; 3322.114616348088 ; 3501461.4246968515 ; 524894.1093829956 ; 37604.00000000001
159 ; 14865.74368977149 ; 3322.114616348088 ; 3516315.6483132397 ; 528216.2239993437 ; 37842.00000000001
160 ; 14702.886464040914 ; 3322.114616348088 ; 3531181.392003011 ; 531538.3386156918 ; 38080.00000000001
161 ; 14566.151570109385 ; 3322.114616348088 ; 3545884.2784670517 ; 534860.4532320398 ; 38318.00000000001
162 ; 14385.502140324817 ; 3322.114616348088 ; 3560450.430037161 ; 538182.5678483879 ; 38556.00000000001
163 ; 14227.606191435832 ; 3322.114616348088 ; 3574835.932177486 ; 541504.6824647359 ; 38794.00000000001
164 ; 14073.397528938232 ; 3322.114616348088 ; 3589063.5383689217 ; 544826.797081084 ; 39032.00000000001
165 ; 14030.83003205457 ; 3322.114616348088 ; 3603136.9358978597 ; 548148.911697432 ; 39270.00000000001
166 ; 13707.253088405756 ; 3322.114616348088 ; 3617167.7659299145 ; 551471.0263137801 ; 39508.00000000001
167 ; 13722.581671250606 ; 3322.114616348088 ; 3630875.0190183204 ; 554793.1409301282 ; 39746.00000000001
168 ; 13367.94045054805 ; 3322.114616348088 ; 3644597.600689571 ; 558115.2555464762 ; 39984.00000000001
169 ; 13253.279505173407 ; 3322.114616348088 ; 3657965.541140119 ; 561437.3701628243 ; 40222.00000000001
170 ; 13112.91252677467 ; 3322.114616348088 ; 3671218.8206452923 ; 564759.4847791723 ; 40460.00000000001
171 ; 12932.255163961987 ; 3322.114616348088 ; 3684331.733172067 ; 568081.5993955204 ; 40698.00000000001
172 ; 12739.644848380616 ; 3322.114616348088 ; 3697263.988336029 ; 571403.7140118685 ; 40936.00000000001
173 ; 12488.408797146602 ; 3322.114616348088 ; 3710003.6331844097 ; 574725.8286282165 ; 41174.00000000001
174 ; 12611.025656931999 ; 3322.114616348088 ; 3722492.0419815565 ; 578047.9432445646 ; 41412.00000000001
175 ; 12706.226403143903 ; 3322.114616348088 ; 3735103.0676384885 ; 581370.0578609126 ; 41650.00000000001
176 ; 12576.9865122048 ; 3322.114616348088 ; 3747809.294041632 ; 584692.1724772607 ; 41888.00000000001
177 ; 12827.590588386256 ; 3322.114616348088 ; 3760386.280553837 ; 588014.2870936088 ; 42126.00000000001
178 ; 12925.364579949755 ; 3322.114616348088 ; 3773213.871142223 ; 591336.4017099568 ; 42364.00000000001
179 ; 12973.820513017907 ; 3322.114616348088 ; 3786139.2357221725 ; 594658.5163263049 ; 42602.00000000001
180 ; 12639.557035541595 ; 3322.114616348088 ; 3799113.0562351905 ; 597980.6309426529 ; 42840.00000000001
181 ; 12860.14806824716 ; 3322.114616348088 ; 3811752.613270732 ; 601302.745559001 ; 43078.00000000001
182 ; 12920.139506000145 ; 3322.114616348088 ; 3824612.7613389795 ; 604624.860175349 ; 43316.00000000001
183 ; 13037.033984086482 ; 3322.114616348088 ; 3837532.9008449796 ; 607946.9747916971 ; 43554.00000000001
184 ; 12914.267678114447 ; 3322.114616348088 ; 3850569.934829066 ; 611269.0894080452 ; 43792.00000000001
185 ; 12897.098295530574 ; 3322.114616348088 ; 3863484.2025071806 ; 614591.2040243932 ; 44030.00000000001
186 ; 13016.20426036668 ; 3322.114616348088 ; 3876381.3008027114 ; 617913.3186407413 ; 44268.00000000001
