CSV File for the City 2 on Day 202
1 - Minute m 
2 - Power Consumed at minute m 
3 - Power Produced at minute m 
4 - Energy Consumed since the beginning of the day 
5 - Energy Produced since the beginning of the day 
6 - Energy Lost since the beginning of the day on lines starting from the city
 
0 ; 4743.769683612178 ; 33702.43977288177 ; 0.0 ; 0.0 ; 0.0
1 ; 5281.0341557139955 ; 33702.43977288177 ; 4743.769683612178 ; 33702.43977288177 ; 0.0
2 ; 5916.275641833447 ; 33702.43977288177 ; 10024.803839326174 ; 67404.87954576354 ; 0.0
3 ; 6288.275978379882 ; 33702.43977288177 ; 15941.07948115962 ; 101107.31931864531 ; 0.0
4 ; 6615.726937404416 ; 33702.43977288177 ; 22229.355459539503 ; 134809.75909152708 ; 0.0
5 ; 7285.385722391686 ; 33702.43977288177 ; 28845.08239694392 ; 168512.19886440886 ; 0.0
6 ; 7894.467659718045 ; 33702.43977288177 ; 36130.46811933561 ; 202214.63863729063 ; 0.0
7 ; 8243.087653249147 ; 33702.43977288177 ; 44024.93577905365 ; 235917.0784101724 ; 0.0
8 ; 8986.389164872318 ; 33702.43977288177 ; 52268.0234323028 ; 269619.51818305417 ; 0.0
9 ; 9482.607008094674 ; 33702.43977288177 ; 61254.41259717512 ; 303321.95795593597 ; 0.0
10 ; 9774.186667638563 ; 33702.43977288177 ; 70737.0196052698 ; 337024.39772881777 ; 0.0
11 ; 10517.461212697734 ; 33702.43977288177 ; 80511.20627290837 ; 370726.83750169957 ; 0.0
12 ; 10769.727160606579 ; 33702.43977288177 ; 91028.6674856061 ; 404429.27727458137 ; 0.0
13 ; 11307.77162130122 ; 33702.43977288177 ; 101798.39464621268 ; 438131.7170474632 ; 0.0
14 ; 11741.578464642842 ; 33702.43977288177 ; 113106.1662675139 ; 471834.156820345 ; 0.0
15 ; 12052.686657829126 ; 33702.43977288177 ; 124847.74473215673 ; 505536.5965932268 ; 0.0
16 ; 12654.921453043165 ; 33702.43977288177 ; 136900.43138998587 ; 539239.0363661086 ; 0.0
17 ; 13283.86954207651 ; 33702.43977288177 ; 149555.35284302905 ; 572941.4761389904 ; 0.0
18 ; 13573.9337287285 ; 33702.43977288177 ; 162839.22238510556 ; 606643.9159118722 ; 0.0
19 ; 13933.61875062846 ; 33702.43977288177 ; 176413.15611383406 ; 640346.355684754 ; 0.0
20 ; 14481.763943165959 ; 33702.43977288177 ; 190346.77486446252 ; 674048.7954576358 ; 0.0
21 ; 14958.853175477903 ; 33702.43977288177 ; 204828.53880762847 ; 707751.2352305176 ; 0.0
22 ; 15265.789607602814 ; 33702.43977288177 ; 219787.39198310638 ; 741453.6750033994 ; 0.0
23 ; 15628.534451633324 ; 33702.43977288177 ; 235053.1815907092 ; 775156.1147762812 ; 0.0
24 ; 16083.711479509406 ; 33702.43977288177 ; 250681.7160423425 ; 808858.554549163 ; 0.0
25 ; 16421.481897558486 ; 33702.43977288177 ; 266765.4275218519 ; 842560.9943220448 ; 0.0
26 ; 16736.134593282506 ; 33702.43977288177 ; 283186.9094194104 ; 876263.4340949266 ; 0.0
27 ; 17208.466888642222 ; 33702.43977288177 ; 299923.0440126929 ; 909965.8738678084 ; 0.0
28 ; 17573.453035961647 ; 33702.43977288177 ; 317131.5109013351 ; 943668.3136406902 ; 0.0
29 ; 17917.21796296509 ; 33702.43977288177 ; 334704.96393729676 ; 977370.753413572 ; 0.0
30 ; 18424.441635308365 ; 33702.43977288177 ; 352622.18190026184 ; 1011073.1931864538 ; 0.0
31 ; 18620.369318756755 ; 33702.43977288177 ; 371046.6235355702 ; 1044775.6329593356 ; 0.0
32 ; 19108.660950059235 ; 33702.43977288177 ; 389666.99285432696 ; 1078478.0727322174 ; 0.0
33 ; 19385.280359700842 ; 33702.43977288177 ; 408775.6538043862 ; 1112180.5125050992 ; 0.0
34 ; 19666.67477665776 ; 33702.43977288177 ; 428160.93416408706 ; 1145882.952277981 ; 0.0
35 ; 19920.83370731904 ; 33702.43977288177 ; 447827.60894074483 ; 1179585.3920508628 ; 0.0
36 ; 20173.594633397526 ; 33702.43977288177 ; 467748.4426480639 ; 1213287.8318237446 ; 0.0
37 ; 20668.55986377358 ; 33702.43977288177 ; 487922.0372814614 ; 1246990.2715966264 ; 0.0
38 ; 20900.023731824338 ; 33702.43977288177 ; 508590.597145235 ; 1280692.7113695082 ; 0.0
39 ; 21111.6331635288 ; 33702.43977288177 ; 529490.6208770593 ; 1314395.15114239 ; 0.0
40 ; 21523.742449617886 ; 33702.43977288177 ; 550602.254040588 ; 1348097.5909152718 ; 0.0
41 ; 21642.45436360827 ; 33702.43977288177 ; 572125.9964902059 ; 1381800.0306881536 ; 0.0
42 ; 22071.303217339526 ; 33702.43977288177 ; 593768.4508538141 ; 1415502.4704610354 ; 0.0
43 ; 22286.478159751274 ; 33702.43977288177 ; 615839.7540711537 ; 1449204.9102339172 ; 0.0
44 ; 22553.96258862907 ; 33702.43977288177 ; 638126.232230905 ; 1482907.350006799 ; 0.0
45 ; 22768.23961856284 ; 33702.43977288177 ; 660680.1948195341 ; 1516609.7897796808 ; 0.0
46 ; 23006.979904385676 ; 33702.43977288177 ; 683448.4344380969 ; 1550312.2295525626 ; 0.0
47 ; 23436.5433950903 ; 33702.43977288177 ; 706455.4143424826 ; 1584014.6693254444 ; 0.0
48 ; 23606.695072237922 ; 33702.43977288177 ; 729891.9577375728 ; 1617717.1090983262 ; 0.0
49 ; 23757.645596885675 ; 33702.43977288177 ; 753498.6528098107 ; 1651419.548871208 ; 0.0
50 ; 23937.433125812833 ; 33702.43977288177 ; 777256.2984066964 ; 1685121.9886440898 ; 0.0
51 ; 24408.905189249912 ; 33702.43977288177 ; 801193.7315325092 ; 1718824.4284169716 ; 0.0
52 ; 24375.142674100614 ; 33702.43977288177 ; 825602.6367217591 ; 1752526.8681898534 ; 0.0
53 ; 24519.39532801015 ; 33702.43977288177 ; 849977.7793958597 ; 1786229.3079627352 ; 0.0
54 ; 24801.823058089703 ; 33702.43977288177 ; 874497.1747238699 ; 1819931.747735617 ; 0.0
55 ; 25081.544279152906 ; 33702.43977288177 ; 899298.9977819596 ; 1853634.1875084988 ; 0.0
56 ; 25172.885580204656 ; 33702.43977288177 ; 924380.5420611125 ; 1887336.6272813806 ; 0.0
57 ; 25244.12351437353 ; 33702.43977288177 ; 949553.4276413171 ; 1921039.0670542624 ; 0.0
58 ; 25455.233424802365 ; 33702.43977288177 ; 974797.5511556907 ; 1954741.5068271442 ; 0.0
59 ; 25796.032234492457 ; 33702.43977288177 ; 1000252.784580493 ; 1988443.946600026 ; 0.0
60 ; 25943.731043363394 ; 33702.43977288177 ; 1026048.8168149855 ; 2022146.3863729078 ; 0.0
61 ; 26059.17254070846 ; 33702.43977288177 ; 1051992.5478583488 ; 2055848.8261457896 ; 0.0
62 ; 26125.95340716723 ; 33702.43977288177 ; 1078051.7203990573 ; 2089551.2659186714 ; 0.0
63 ; 26117.713861942113 ; 33702.43977288177 ; 1104177.6738062245 ; 2123253.705691553 ; 0.0
64 ; 26304.83874400139 ; 33702.43977288177 ; 1130295.3876681665 ; 2156956.1454644348 ; 0.0
65 ; 26513.265288526974 ; 33702.43977288177 ; 1156600.226412168 ; 2190658.5852373163 ; 0.0
66 ; 26604.245275290014 ; 33702.43977288177 ; 1183113.491700695 ; 2224361.025010198 ; 0.0
67 ; 26700.371924196676 ; 33702.43977288177 ; 1209717.7369759849 ; 2258063.4647830795 ; 0.0
68 ; 26816.65378716946 ; 33702.43977288177 ; 1236418.1089001815 ; 2291765.904555961 ; 0.0
69 ; 26793.400409656646 ; 33702.43977288177 ; 1263234.7626873509 ; 2325468.3443288426 ; 0.0
70 ; 27008.177826756197 ; 33702.43977288177 ; 1290028.1630970074 ; 2359170.784101724 ; 0.0
71 ; 27063.51454323867 ; 33702.43977288177 ; 1317036.3409237636 ; 2392873.2238746057 ; 0.0
72 ; 27207.954926802468 ; 33702.43977288177 ; 1344099.8554670021 ; 2426575.6636474873 ; 0.0
73 ; 27102.80991790886 ; 33702.43977288177 ; 1371307.8103938047 ; 2460278.103420369 ; 0.0
74 ; 27226.4338161423 ; 33702.43977288177 ; 1398410.6203117135 ; 2493980.5431932504 ; 0.0
75 ; 27368.81034825042 ; 33702.43977288177 ; 1425637.054127856 ; 2527682.982966132 ; 0.0
76 ; 27165.005006273685 ; 33702.43977288177 ; 1453005.8644761064 ; 2561385.4227390136 ; 0.0
77 ; 27340.176661255147 ; 33702.43977288177 ; 1480170.86948238 ; 2595087.862511895 ; 0.0
78 ; 27349.02344417197 ; 33702.43977288177 ; 1507511.0461436352 ; 2628790.3022847767 ; 0.0
79 ; 27558.45721052449 ; 33702.43977288177 ; 1534860.0695878072 ; 2662492.7420576583 ; 0.0
80 ; 27328.378155152634 ; 33702.43977288177 ; 1562418.5267983316 ; 2696195.18183054 ; 0.0
81 ; 27561.716579129126 ; 33702.43977288177 ; 1589746.9049534842 ; 2729897.6216034214 ; 0.0
82 ; 27421.295637769985 ; 33702.43977288177 ; 1617308.6215326134 ; 2763600.061376303 ; 0.0
83 ; 27634.042328156756 ; 33702.43977288177 ; 1644729.9171703835 ; 2797302.5011491845 ; 0.0
84 ; 27553.22677913182 ; 33702.43977288177 ; 1672363.9594985403 ; 2831004.940922066 ; 0.0
85 ; 27481.046741070597 ; 33702.43977288177 ; 1699917.1862776722 ; 2864707.3806949477 ; 0.0
86 ; 27317.290432085305 ; 33702.43977288177 ; 1727398.2330187429 ; 2898409.8204678292 ; 0.0
87 ; 27353.021027207207 ; 33702.43977288177 ; 1754715.5234508282 ; 2932112.260240711 ; 0.0
88 ; 27228.616011461858 ; 33702.43977288177 ; 1782068.5444780353 ; 2965814.7000135924 ; 0.0
89 ; 27353.431256642405 ; 33702.43977288177 ; 1809297.1604894972 ; 2999517.139786474 ; 0.0
90 ; 27315.823353215885 ; 33702.43977288177 ; 1836650.5917461396 ; 3033219.5795593555 ; 0.0
91 ; 27387.949801510644 ; 33702.43977288177 ; 1863966.4150993554 ; 3066922.019332237 ; 0.0
92 ; 27162.571816352152 ; 33702.43977288177 ; 1891354.364900866 ; 3100624.4591051186 ; 0.0
93 ; 27120.026691957297 ; 33702.43977288177 ; 1918516.9367172183 ; 3134326.898878 ; 0.0
94 ; 27043.60740993714 ; 33702.43977288177 ; 1945636.9634091756 ; 3168029.338650882 ; 0.0
95 ; 27111.568400692777 ; 33702.43977288177 ; 1972680.5708191127 ; 3201731.7784237633 ; 0.0
96 ; 26873.943404831527 ; 33702.43977288177 ; 1999792.1392198056 ; 3235434.218196645 ; 0.0
97 ; 26630.938328077074 ; 33702.43977288177 ; 2026666.082624637 ; 3269136.6579695265 ; 0.0
98 ; 26550.64189388903 ; 33702.43977288177 ; 2053297.0209527141 ; 3302839.097742408 ; 0.0
99 ; 26573.931844919312 ; 33702.43977288177 ; 2079847.6628466032 ; 3336541.5375152896 ; 0.0
100 ; 26377.29330800169 ; 33702.43977288177 ; 2106421.5946915224 ; 3370243.977288171 ; 0.0
101 ; 26333.618786675455 ; 33702.43977288177 ; 2132798.887999524 ; 3403946.4170610528 ; 0.0
102 ; 26158.54706738627 ; 33702.43977288177 ; 2159132.5067861993 ; 3437648.8568339343 ; 0.0
103 ; 26093.488887824373 ; 33702.43977288177 ; 2185291.0538535854 ; 3471351.296606816 ; 0.0
104 ; 25871.772366958212 ; 33702.43977288177 ; 2211384.54274141 ; 3505053.7363796975 ; 0.0
105 ; 25760.223052543028 ; 33702.43977288177 ; 2237256.315108368 ; 3538756.176152579 ; 0.0
106 ; 25636.38515380465 ; 33702.43977288177 ; 2263016.5381609113 ; 3572458.6159254606 ; 0.0
107 ; 25322.09257694171 ; 33702.43977288177 ; 2288652.9233147157 ; 3606161.055698342 ; 0.0
108 ; 25266.493828670482 ; 33702.43977288177 ; 2313975.0158916577 ; 3639863.4954712237 ; 0.0
109 ; 25265.814379046817 ; 33702.43977288177 ; 2339241.5097203283 ; 3673565.9352441053 ; 0.0
110 ; 24916.887218219916 ; 33702.43977288177 ; 2364507.324099375 ; 3707268.375016987 ; 0.0
111 ; 24648.198104859774 ; 33702.43977288177 ; 2389424.2113175946 ; 3740970.8147898684 ; 0.0
112 ; 24651.403077802315 ; 33702.43977288177 ; 2414072.4094224544 ; 3774673.25456275 ; 0.0
113 ; 24305.034233772465 ; 33702.43977288177 ; 2438723.8125002566 ; 3808375.6943356316 ; 0.0
114 ; 23939.98556886531 ; 33702.43977288177 ; 2463028.8467340292 ; 3842078.134108513 ; 0.0
115 ; 24029.233849238724 ; 33702.43977288177 ; 2486968.8323028944 ; 3875780.5738813947 ; 0.0
116 ; 23759.009549417155 ; 33702.43977288177 ; 2510998.066152133 ; 3909483.0136542763 ; 0.0
117 ; 23423.901665556034 ; 33702.43977288177 ; 2534757.07570155 ; 3943185.453427158 ; 0.0
118 ; 23223.988074166882 ; 33702.43977288177 ; 2558180.9773671064 ; 3976887.8932000394 ; 0.0
119 ; 22851.609014731537 ; 33702.43977288177 ; 2581404.965441273 ; 4010590.332972921 ; 0.0
120 ; 22609.39067370838 ; 33702.43977288177 ; 2604256.5744560044 ; 4044292.7727458025 ; 0.0
121 ; 22349.603822947203 ; 33702.43977288177 ; 2626865.9651297126 ; 4077995.212518684 ; 0.0
122 ; 22291.044903268736 ; 33702.43977288177 ; 2649215.5689526596 ; 4111697.6522915657 ; 0.0
123 ; 21784.288222290947 ; 33702.43977288177 ; 2671506.613855928 ; 4145400.0920644472 ; 0.0
124 ; 21734.419197539242 ; 33702.43977288177 ; 2693290.902078219 ; 4179102.531837329 ; 0.0
125 ; 21516.566471386104 ; 33702.43977288177 ; 2715025.3212757586 ; 4212804.971610211 ; 0.0
126 ; 21142.858326933347 ; 33702.43977288177 ; 2736541.887747145 ; 4246507.411383092 ; 0.0
127 ; 20733.860170962227 ; 33702.43977288177 ; 2757684.746074078 ; 4280209.851155974 ; 0.0
128 ; 20416.82856130114 ; 33702.43977288177 ; 2778418.6062450404 ; 4313912.290928856 ; 0.0
129 ; 20082.758189821325 ; 33702.43977288177 ; 2798835.434806342 ; 4347614.730701737 ; 0.0
130 ; 19789.087718604293 ; 33702.43977288177 ; 2818918.192996163 ; 4381317.170474619 ; 0.0
131 ; 19569.64982970046 ; 33702.43977288177 ; 2838707.280714767 ; 4415019.6102475 ; 0.0
132 ; 19243.178783303003 ; 33702.43977288177 ; 2858276.9305444676 ; 4448722.050020382 ; 0.0
133 ; 18890.835003022024 ; 33702.43977288177 ; 2877520.109327771 ; 4482424.489793263 ; 0.0
134 ; 18510.123725126094 ; 33702.43977288177 ; 2896410.944330793 ; 4516126.929566145 ; 0.0
135 ; 18081.923223782105 ; 33702.43977288177 ; 2914921.068055919 ; 4549829.3693390265 ; 0.0
136 ; 17769.961472306375 ; 33702.43977288177 ; 2933002.9912797012 ; 4583531.809111908 ; 0.0
137 ; 17428.019576819304 ; 33702.43977288177 ; 2950772.9527520076 ; 4617234.24888479 ; 0.0
138 ; 16991.23968730664 ; 33702.43977288177 ; 2968200.972328827 ; 4650936.688657671 ; 0.0
139 ; 16792.933903949535 ; 33702.43977288177 ; 2985192.2120161336 ; 4684639.128430553 ; 0.0
140 ; 16396.512799567266 ; 33702.43977288177 ; 3001985.145920083 ; 4718341.568203434 ; 0.0
141 ; 15885.859073807776 ; 33702.43977288177 ; 3018381.65871965 ; 4752044.007976316 ; 0.0
142 ; 15430.664422375992 ; 33702.43977288177 ; 3034267.517793458 ; 4785746.4477491975 ; 0.0
143 ; 15222.749098234806 ; 33702.43977288177 ; 3049698.182215834 ; 4819448.887522079 ; 0.0
144 ; 14754.324717195319 ; 33702.43977288177 ; 3064920.931314069 ; 4853151.327294961 ; 0.0
145 ; 14478.940840943826 ; 33702.43977288177 ; 3079675.256031264 ; 4886853.767067842 ; 0.0
146 ; 14446.689276105548 ; 33702.43977288177 ; 3094154.196872208 ; 4920556.206840724 ; 0.0
147 ; 14268.034209960273 ; 33702.43977288177 ; 3108600.8861483135 ; 4954258.646613605 ; 0.0
148 ; 14407.722899987952 ; 33702.43977288177 ; 3122868.9203582737 ; 4987961.086386487 ; 0.0
149 ; 14206.694277916744 ; 33702.43977288177 ; 3137276.6432582615 ; 5021663.526159368 ; 0.0
150 ; 13910.789323258576 ; 33702.43977288177 ; 3151483.337536178 ; 5055365.96593225 ; 0.0
151 ; 13887.304638274712 ; 33702.43977288177 ; 3165394.1268594367 ; 5089068.405705132 ; 0.0
152 ; 13663.523475926822 ; 33702.43977288177 ; 3179281.4314977117 ; 5122770.845478013 ; 0.0
153 ; 13795.586035137614 ; 33702.43977288177 ; 3192944.9549736385 ; 5156473.285250895 ; 0.0
154 ; 13418.12781534778 ; 33702.43977288177 ; 3206740.541008776 ; 5190175.725023776 ; 0.0
155 ; 13277.055058207548 ; 33702.43977288177 ; 3220158.6688241237 ; 5223878.164796658 ; 0.0
156 ; 13188.569532522215 ; 33702.43977288177 ; 3233435.723882331 ; 5257580.604569539 ; 0.0
157 ; 13011.99621528263 ; 33702.43977288177 ; 3246624.293414853 ; 5291283.044342421 ; 0.0
158 ; 12992.015695580007 ; 33702.43977288177 ; 3259636.2896301355 ; 5324985.484115303 ; 0.0
159 ; 12715.114259087048 ; 33702.43977288177 ; 3272628.3053257153 ; 5358687.923888184 ; 0.0
160 ; 12566.767174940494 ; 33702.43977288177 ; 3285343.4195848024 ; 5392390.363661066 ; 0.0
161 ; 12452.557919445117 ; 33702.43977288177 ; 3297910.186759743 ; 5426092.803433947 ; 0.0
162 ; 12417.086652628186 ; 33702.43977288177 ; 3310362.744679188 ; 5459795.243206829 ; 0.0
163 ; 12137.954135309385 ; 33702.43977288177 ; 3322779.831331816 ; 5493497.68297971 ; 0.0
164 ; 12018.646289191833 ; 33702.43977288177 ; 3334917.7854671255 ; 5527200.122752592 ; 0.0
165 ; 11996.899631550881 ; 33702.43977288177 ; 3346936.431756317 ; 5560902.562525474 ; 0.0
166 ; 11787.360306921484 ; 33702.43977288177 ; 3358933.331387868 ; 5594605.002298355 ; 0.0
167 ; 11574.045751858153 ; 33702.43977288177 ; 3370720.6916947896 ; 5628307.442071237 ; 0.0
168 ; 11571.253482998927 ; 33702.43977288177 ; 3382294.7374466476 ; 5662009.881844118 ; 0.0
169 ; 11300.535334756063 ; 33702.43977288177 ; 3393865.9909296464 ; 5695712.321617 ; 0.0
170 ; 11151.044196720211 ; 33702.43977288177 ; 3405166.5262644025 ; 5729414.761389881 ; 0.0
171 ; 10731.956731637685 ; 33702.43977288177 ; 3416317.570461123 ; 5763117.201162763 ; 0.0
172 ; 10661.828022607966 ; 33702.43977288177 ; 3427049.5271927603 ; 5796819.6409356445 ; 0.0
173 ; 10719.41825753241 ; 33702.43977288177 ; 3437711.3552153683 ; 5830522.080708526 ; 0.0
174 ; 10824.471932521505 ; 33702.43977288177 ; 3448430.773472901 ; 5864224.520481408 ; 0.0
175 ; 10791.048039709001 ; 33702.43977288177 ; 3459255.2454054225 ; 5897926.960254289 ; 0.0
176 ; 10694.446195881035 ; 33702.43977288177 ; 3470046.2934451317 ; 5931629.400027171 ; 0.0
177 ; 10883.686642269573 ; 33702.43977288177 ; 3480740.7396410126 ; 5965331.839800052 ; 0.0
178 ; 10881.588683887665 ; 33702.43977288177 ; 3491624.426283282 ; 5999034.279572934 ; 0.0
179 ; 10897.69416230576 ; 33702.43977288177 ; 3502506.01496717 ; 6032736.7193458155 ; 0.0
180 ; 10831.839458815368 ; 33702.43977288177 ; 3513403.709129476 ; 6066439.159118697 ; 0.0
181 ; 11024.447419522174 ; 33702.43977288177 ; 3524235.5485882913 ; 6100141.598891579 ; 0.0
182 ; 10974.267056628829 ; 33702.43977288177 ; 3535259.9960078136 ; 6133844.03866446 ; 0.0
183 ; 11030.260232040264 ; 33702.43977288177 ; 3546234.263064442 ; 6167546.478437342 ; 0.0
184 ; 11012.409804979045 ; 33702.43977288177 ; 3557264.5232964824 ; 6201248.918210223 ; 0.0
185 ; 10961.523933405937 ; 33702.43977288177 ; 3568276.9331014613 ; 6234951.357983105 ; 0.0
186 ; 11175.729833311212 ; 33702.43977288177 ; 3579238.4570348673 ; 6268653.797755986 ; 0.0
187 ; 11167.6460844414 ; 33702.43977288177 ; 3590414.1868681787 ; 6302356.237528868 ; 0.0
188 ; 11149.715600867177 ; 33702.43977288177 ; 3601581.83295262 ; 6336058.67730175 ; 0.0
189 ; 11036.691042145414 ; 33702.43977288177 ; 3612731.5485534873 ; 6369761.117074631 ; 0.0
190 ; 11104.477743772957 ; 33702.43977288177 ; 3623768.2395956325 ; 6403463.556847513 ; 0.0
191 ; 11193.254999074808 ; 33702.43977288177 ; 3634872.7173394053 ; 6437165.996620394 ; 0.0
192 ; 11113.324116189498 ; 33702.43977288177 ; 3646065.97233848 ; 6470868.436393276 ; 0.0
193 ; 11299.103209217641 ; 33702.43977288177 ; 3657179.2964546694 ; 6504570.876166157 ; 0.0
194 ; 11200.463027386431 ; 33702.43977288177 ; 3668478.399663887 ; 6538273.315939039 ; 0.0
195 ; 11254.09918141872 ; 33702.43977288177 ; 3679678.8626912734 ; 6571975.755711921 ; 0.0
196 ; 11197.535395677774 ; 33702.43977288177 ; 3690932.961872692 ; 6605678.195484802 ; 0.0
197 ; 11197.207999389298 ; 33702.43977288177 ; 3702130.49726837 ; 6639380.635257684 ; 0.0
198 ; 11323.690603170257 ; 33702.43977288177 ; 3713327.705267759 ; 6673083.075030565 ; 0.0
199 ; 11472.122842820952 ; 33702.43977288177 ; 3724651.395870929 ; 6706785.514803447 ; 0.0
200 ; 11487.597160330706 ; 33702.43977288177 ; 3736123.51871375 ; 6740487.954576328 ; 0.0
201 ; 11428.060546209685 ; 33702.43977288177 ; 3747611.1158740805 ; 6774190.39434921 ; 0.0
202 ; 11627.337113643844 ; 33702.43977288177 ; 3759039.17642029 ; 6807892.8341220915 ; 0.0
203 ; 11600.635408266458 ; 33702.43977288177 ; 3770666.513533934 ; 6841595.273894973 ; 0.0
204 ; 11672.242471484495 ; 33702.43977288177 ; 3782267.1489422005 ; 6875297.713667855 ; 0.0
205 ; 11613.640485047488 ; 33702.43977288177 ; 3793939.391413685 ; 6909000.153440736 ; 0.0
206 ; 11785.273479458112 ; 33702.43977288177 ; 3805553.0318987323 ; 6942702.593213618 ; 0.0
207 ; 11783.797044493936 ; 33702.43977288177 ; 3817338.3053781902 ; 6976405.032986499 ; 0.0
208 ; 11847.385147935893 ; 33702.43977288177 ; 3829122.102422684 ; 7010107.472759381 ; 0.0
209 ; 11773.086752389469 ; 33702.43977288177 ; 3840969.4875706197 ; 7043809.9125322625 ; 0.0
210 ; 11710.389831555454 ; 33702.43977288177 ; 3852742.5743230092 ; 7077512.352305144 ; 0.0
211 ; 11817.327153939881 ; 33702.43977288177 ; 3864452.964154565 ; 7111214.792078026 ; 0.0
212 ; 11716.393377567923 ; 33702.43977288177 ; 3876270.2913085045 ; 7144917.231850907 ; 0.0
213 ; 12090.147334686479 ; 33702.43977288177 ; 3887986.6846860726 ; 7178619.671623789 ; 0.0
214 ; 11842.925866563193 ; 33702.43977288177 ; 3900076.832020759 ; 7212322.11139667 ; 0.0
215 ; 12115.357786945766 ; 33702.43977288177 ; 3911919.7578873225 ; 7246024.551169552 ; 0.0
