CSV File for the City 1 on Day 192
1 - Minute m 
2 - Power Consumed at minute m 
3 - Power Produced at minute m 
4 - Energy Consumed since the beginning of the day 
5 - Energy Produced since the beginning of the day 
6 - Energy Lost since the beginning of the day on lines starting from the city
 
0 ; 5554.587133494666 ; 3897.3486024906706 ; 0.0 ; 0.0 ; 0.0
1 ; 5964.374938578509 ; 3897.3486024906706 ; 5554.587133494666 ; 3897.3486024906706 ; 238.00000000000003
2 ; 6761.526284700734 ; 3897.3486024906706 ; 11518.962072073175 ; 7794.697204981341 ; 476.00000000000006
3 ; 7357.201633715975 ; 3897.3486024906706 ; 18280.48835677391 ; 11692.045807472012 ; 714.0000000000001
4 ; 7883.541490098686 ; 3897.3486024906706 ; 25637.689990489882 ; 15589.394409962682 ; 952.0000000000001
5 ; 8471.527220561313 ; 3897.3486024906706 ; 33521.23148058857 ; 19486.743012453353 ; 1190.0000000000002
6 ; 8970.364246157522 ; 3897.3486024906706 ; 41992.75870114988 ; 23384.091614944024 ; 1428.0000000000002
7 ; 9603.177075500842 ; 3897.3486024906706 ; 50963.122947307405 ; 27281.440217434694 ; 1666.0000000000002
8 ; 10203.343423834072 ; 3897.3486024906706 ; 60566.300022808246 ; 31178.788819925365 ; 1904.0000000000002
9 ; 10729.447812666234 ; 3897.3486024906706 ; 70769.64344664232 ; 35076.13742241604 ; 2142.0000000000005
10 ; 11333.82200811265 ; 3897.3486024906706 ; 81499.09125930855 ; 38973.48602490671 ; 2380.0000000000005
11 ; 11764.785435708292 ; 3897.3486024906706 ; 92832.9132674212 ; 42870.83462739739 ; 2618.0000000000005
12 ; 12450.470894897895 ; 3897.3486024906706 ; 104597.6987031295 ; 46768.18322988806 ; 2856.0000000000005
13 ; 12799.97997978039 ; 3897.3486024906706 ; 117048.1695980274 ; 50665.531832378736 ; 3094.0000000000005
14 ; 13237.965964231336 ; 3897.3486024906706 ; 129848.14957780778 ; 54562.88043486941 ; 3332.0000000000005
15 ; 13913.180297713548 ; 3897.3486024906706 ; 143086.11554203913 ; 58460.229037360084 ; 3570.0000000000005
16 ; 14183.37689642595 ; 3897.3486024906706 ; 156999.29583975268 ; 62357.57763985076 ; 3808.0000000000005
17 ; 14556.133958461043 ; 3897.3486024906706 ; 171182.67273617862 ; 66254.92624234143 ; 4046.0000000000005
18 ; 15268.422542294096 ; 3897.3486024906706 ; 185738.80669463967 ; 70152.2748448321 ; 4284.000000000001
19 ; 15688.898122339453 ; 3897.3486024906706 ; 201007.22923693378 ; 74049.62344732278 ; 4522.000000000001
20 ; 16247.004917970089 ; 3897.3486024906706 ; 216696.12735927323 ; 77946.97204981346 ; 4760.000000000001
21 ; 16718.48342882179 ; 3897.3486024906706 ; 232943.13227724333 ; 81844.32065230413 ; 4998.000000000001
22 ; 17019.018523246414 ; 3897.3486024906706 ; 249661.61570606512 ; 85741.6692547948 ; 5236.000000000001
23 ; 17628.338885657482 ; 3897.3486024906706 ; 266680.63422931154 ; 89639.01785728548 ; 5474.000000000001
24 ; 17896.00391944518 ; 3897.3486024906706 ; 284308.97311496903 ; 93536.36645977615 ; 5712.000000000001
25 ; 18378.24269874589 ; 3897.3486024906706 ; 302204.9770344142 ; 97433.71506226683 ; 5950.000000000001
26 ; 18705.794562789026 ; 3897.3486024906706 ; 320583.2197331601 ; 101331.0636647575 ; 6188.000000000001
27 ; 19128.140127956038 ; 3897.3486024906706 ; 339289.01429594913 ; 105228.41226724818 ; 6426.000000000001
28 ; 19614.473488515156 ; 3897.3486024906706 ; 358417.1544239052 ; 109125.76086973885 ; 6664.000000000001
29 ; 20015.142149941 ; 3897.3486024906706 ; 378031.6279124203 ; 113023.10947222952 ; 6902.000000000001
30 ; 20453.653578091435 ; 3897.3486024906706 ; 398046.7700623613 ; 116920.4580747202 ; 7140.000000000001
31 ; 20708.770909429826 ; 3897.3486024906706 ; 418500.42364045273 ; 120817.80667721087 ; 7378.000000000001
32 ; 20964.11306399417 ; 3897.3486024906706 ; 439209.19454988255 ; 124715.15527970155 ; 7616.000000000001
33 ; 21540.442244079026 ; 3897.3486024906706 ; 460173.3076138767 ; 128612.50388219222 ; 7854.000000000001
34 ; 21821.803887939157 ; 3897.3486024906706 ; 481713.7498579557 ; 132509.8524846829 ; 8092.000000000001
35 ; 22338.071368831403 ; 3897.3486024906706 ; 503535.55374589487 ; 136407.20108717357 ; 8330.000000000002
36 ; 22519.707891509155 ; 3897.3486024906706 ; 525873.6251147263 ; 140304.54968966424 ; 8568.000000000002
37 ; 22955.302278610317 ; 3897.3486024906706 ; 548393.3330062354 ; 144201.89829215492 ; 8806.000000000002
38 ; 23197.512363441478 ; 3897.3486024906706 ; 571348.6352848457 ; 148099.2468946456 ; 9044.000000000002
39 ; 23479.04920430459 ; 3897.3486024906706 ; 594546.1476482872 ; 151996.59549713627 ; 9282.000000000002
40 ; 23682.03671411212 ; 3897.3486024906706 ; 618025.1968525918 ; 155893.94409962694 ; 9520.000000000002
41 ; 24134.28168533953 ; 3897.3486024906706 ; 641707.233566704 ; 159791.29270211761 ; 9758.000000000002
42 ; 24615.996105029804 ; 3897.3486024906706 ; 665841.5152520435 ; 163688.6413046083 ; 9996.000000000002
43 ; 24702.459245520484 ; 3897.3486024906706 ; 690457.5113570733 ; 167585.98990709896 ; 10234.000000000002
44 ; 24870.45421843522 ; 3897.3486024906706 ; 715159.9706025939 ; 171483.33850958964 ; 10472.000000000002
45 ; 25395.92920494236 ; 3897.3486024906706 ; 740030.4248210291 ; 175380.6871120803 ; 10710.000000000002
46 ; 25548.41839911453 ; 3897.3486024906706 ; 765426.3540259714 ; 179278.035714571 ; 10948.000000000002
47 ; 25707.331135211185 ; 3897.3486024906706 ; 790974.7724250859 ; 183175.38431706166 ; 11186.000000000002
48 ; 26081.245289710496 ; 3897.3486024906706 ; 816682.103560297 ; 187072.73291955233 ; 11424.000000000002
49 ; 26422.212818312913 ; 3897.3486024906706 ; 842763.3488500075 ; 190970.081522043 ; 11662.000000000002
50 ; 26596.5744922969 ; 3897.3486024906706 ; 869185.5616683204 ; 194867.43012453368 ; 11900.000000000002
51 ; 26784.294348451276 ; 3897.3486024906706 ; 895782.1361606173 ; 198764.77872702436 ; 12138.000000000002
52 ; 27041.178132905432 ; 3897.3486024906706 ; 922566.4305090687 ; 202662.12732951503 ; 12376.000000000002
53 ; 27295.690303013685 ; 3897.3486024906706 ; 949607.608641974 ; 206559.4759320057 ; 12614.000000000002
54 ; 27656.838000931504 ; 3897.3486024906706 ; 976903.2989449877 ; 210456.82453449638 ; 12852.000000000002
55 ; 27797.515325146436 ; 3897.3486024906706 ; 1004560.1369459193 ; 214354.17313698705 ; 13090.000000000002
56 ; 27988.80936028295 ; 3897.3486024906706 ; 1032357.6522710656 ; 218251.52173947773 ; 13328.000000000002
57 ; 28056.399803966855 ; 3897.3486024906706 ; 1060346.4616313486 ; 222148.8703419684 ; 13566.000000000002
58 ; 28288.978180675786 ; 3897.3486024906706 ; 1088402.8614353153 ; 226046.21894445908 ; 13804.000000000002
59 ; 28653.50891426481 ; 3897.3486024906706 ; 1116691.839615991 ; 229943.56754694975 ; 14042.000000000002
60 ; 28656.944598108992 ; 3897.3486024906706 ; 1145345.348530256 ; 233840.91614944043 ; 14280.000000000002
61 ; 28809.1370929613 ; 3897.3486024906706 ; 1174002.293128365 ; 237738.2647519311 ; 14518.000000000002
62 ; 28926.402722182185 ; 3897.3486024906706 ; 1202811.4302213262 ; 241635.61335442177 ; 14756.000000000002
63 ; 29051.803786848104 ; 3897.3486024906706 ; 1231737.8329435084 ; 245532.96195691245 ; 14994.000000000002
64 ; 29204.059917595972 ; 3897.3486024906706 ; 1260789.6367303566 ; 249430.31055940312 ; 15232.000000000002
65 ; 29384.6069568119 ; 3897.3486024906706 ; 1289993.6966479525 ; 253327.6591618938 ; 15470.000000000002
66 ; 29329.215160767053 ; 3897.3486024906706 ; 1319378.3036047644 ; 257225.00776438447 ; 15708.000000000002
67 ; 29531.891858221457 ; 3897.3486024906706 ; 1348707.5187655315 ; 261122.35636687514 ; 15946.000000000002
68 ; 29708.777387748214 ; 3897.3486024906706 ; 1378239.410623753 ; 265019.7049693658 ; 16184.000000000002
69 ; 29844.69764684212 ; 3897.3486024906706 ; 1407948.1880115012 ; 268917.05357185646 ; 16422.000000000004
70 ; 29795.49959764443 ; 3897.3486024906706 ; 1437792.8856583433 ; 272814.40217434714 ; 16660.000000000004
71 ; 29952.977923841267 ; 3897.3486024906706 ; 1467588.3852559878 ; 276711.7507768378 ; 16898.000000000004
72 ; 30015.565623030183 ; 3897.3486024906706 ; 1497541.363179829 ; 280609.0993793285 ; 17136.000000000004
73 ; 30261.800191751958 ; 3897.3486024906706 ; 1527556.928802859 ; 284506.44798181916 ; 17374.000000000004
74 ; 30273.254763301044 ; 3897.3486024906706 ; 1557818.728994611 ; 288403.79658430984 ; 17612.000000000004
75 ; 30282.380150150064 ; 3897.3486024906706 ; 1588091.983757912 ; 292301.1451868005 ; 17850.000000000004
76 ; 30306.15878071529 ; 3897.3486024906706 ; 1618374.363908062 ; 296198.4937892912 ; 18088.000000000004
77 ; 30222.933726818097 ; 3897.3486024906706 ; 1648680.5226887772 ; 300095.84239178186 ; 18326.000000000004
78 ; 30287.95785466982 ; 3897.3486024906706 ; 1678903.4564155953 ; 303993.19099427253 ; 18564.000000000004
79 ; 30640.183441222267 ; 3897.3486024906706 ; 1709191.414270265 ; 307890.5395967632 ; 18802.000000000004
80 ; 30350.772506917718 ; 3897.3486024906706 ; 1739831.5977114872 ; 311787.8881992539 ; 19040.000000000004
81 ; 30438.165200638927 ; 3897.3486024906706 ; 1770182.370218405 ; 315685.23680174456 ; 19278.000000000004
82 ; 30724.419004011263 ; 3897.3486024906706 ; 1800620.5354190439 ; 319582.58540423523 ; 19516.000000000004
83 ; 30540.198466074136 ; 3897.3486024906706 ; 1831344.954423055 ; 323479.9340067259 ; 19754.000000000004
84 ; 30484.902867329656 ; 3897.3486024906706 ; 1861885.1528891292 ; 327377.2826092166 ; 19992.000000000004
85 ; 30446.930307770683 ; 3897.3486024906706 ; 1892370.055756459 ; 331274.63121170725 ; 20230.000000000004
86 ; 30425.271676732697 ; 3897.3486024906706 ; 1922816.9860642296 ; 335171.9798141979 ; 20468.000000000004
87 ; 30237.17884434088 ; 3897.3486024906706 ; 1953242.2577409623 ; 339069.3284166886 ; 20706.000000000004
88 ; 30115.671777718384 ; 3897.3486024906706 ; 1983479.4365853032 ; 342966.6770191793 ; 20944.000000000004
89 ; 30038.793433669933 ; 3897.3486024906706 ; 2013595.1083630216 ; 346864.02562166995 ; 21182.000000000004
90 ; 30200.598394237346 ; 3897.3486024906706 ; 2043633.9017966916 ; 350761.3742241606 ; 21420.000000000004
91 ; 30206.597378790873 ; 3897.3486024906706 ; 2073834.500190929 ; 354658.7228266513 ; 21658.000000000004
92 ; 30011.363535510896 ; 3897.3486024906706 ; 2104041.09756972 ; 358556.071429142 ; 21896.000000000004
93 ; 30053.555345644283 ; 3897.3486024906706 ; 2134052.4611052307 ; 362453.42003163265 ; 22134.000000000004
94 ; 29954.16501495493 ; 3897.3486024906706 ; 2164106.016450875 ; 366350.7686341233 ; 22372.000000000004
95 ; 29906.77274128023 ; 3897.3486024906706 ; 2194060.1814658297 ; 370248.117236614 ; 22610.000000000004
96 ; 29876.88607281998 ; 3897.3486024906706 ; 2223966.9542071098 ; 374145.46583910467 ; 22848.000000000004
97 ; 29547.6565381429 ; 3897.3486024906706 ; 2253843.84027993 ; 378042.81444159534 ; 23086.000000000004
98 ; 29727.679547703105 ; 3897.3486024906706 ; 2283391.4968180726 ; 381940.163044086 ; 23324.000000000004
99 ; 29518.43987215712 ; 3897.3486024906706 ; 2313119.1763657755 ; 385837.5116465767 ; 23562.000000000004
100 ; 29322.247749908118 ; 3897.3486024906706 ; 2342637.616237933 ; 389734.86024906737 ; 23800.000000000004
101 ; 29176.060837529538 ; 3897.3486024906706 ; 2371959.8639878407 ; 393632.20885155804 ; 24038.000000000004
102 ; 29050.819235435207 ; 3897.3486024906706 ; 2401135.9248253703 ; 397529.5574540487 ; 24276.000000000004
103 ; 28886.48354567633 ; 3897.3486024906706 ; 2430186.7440608055 ; 401426.9060565394 ; 24514.000000000004
104 ; 28711.73364667825 ; 3897.3486024906706 ; 2459073.227606482 ; 405324.25465903006 ; 24752.000000000004
105 ; 28825.71951940651 ; 3897.3486024906706 ; 2487784.96125316 ; 409221.60326152074 ; 24990.000000000004
106 ; 28413.58381519855 ; 3897.3486024906706 ; 2516610.6807725667 ; 413118.9518640114 ; 25228.000000000004
107 ; 28336.342146719773 ; 3897.3486024906706 ; 2545024.264587765 ; 417016.3004665021 ; 25466.000000000004
108 ; 28143.809995435615 ; 3897.3486024906706 ; 2573360.606734485 ; 420913.64906899276 ; 25704.000000000004
109 ; 27834.680963225353 ; 3897.3486024906706 ; 2601504.4167299205 ; 424810.99767148343 ; 25942.000000000004
110 ; 27604.158668625507 ; 3897.3486024906706 ; 2629339.0976931457 ; 428708.3462739741 ; 26180.000000000004
111 ; 27548.92561833887 ; 3897.3486024906706 ; 2656943.2563617714 ; 432605.6948764648 ; 26418.000000000004
112 ; 27371.88272189506 ; 3897.3486024906706 ; 2684492.1819801102 ; 436503.04347895546 ; 26656.000000000004
113 ; 27029.0370469397 ; 3897.3486024906706 ; 2711864.064702005 ; 440400.39208144613 ; 26894.000000000004
114 ; 26790.613372431595 ; 3897.3486024906706 ; 2738893.1017489447 ; 444297.7406839368 ; 27132.000000000004
115 ; 26433.070956769614 ; 3897.3486024906706 ; 2765683.7151213763 ; 448195.0892864275 ; 27370.000000000004
116 ; 26287.634115833633 ; 3897.3486024906706 ; 2792116.7860781457 ; 452092.43788891815 ; 27608.000000000004
117 ; 26160.81951037805 ; 3897.3486024906706 ; 2818404.4201939795 ; 455989.7864914088 ; 27846.000000000004
118 ; 25801.75534622135 ; 3897.3486024906706 ; 2844565.2397043575 ; 459887.1350938995 ; 28084.000000000004
119 ; 25496.01535246719 ; 3897.3486024906706 ; 2870366.995050579 ; 463784.4836963902 ; 28322.000000000004
120 ; 25314.746695884925 ; 3897.3486024906706 ; 2895863.010403046 ; 467681.83229888085 ; 28560.000000000004
121 ; 24873.343329864354 ; 3897.3486024906706 ; 2921177.757098931 ; 471579.1809013715 ; 28798.000000000004
122 ; 24671.09724223058 ; 3897.3486024906706 ; 2946051.1004287954 ; 475476.5295038622 ; 29036.000000000004
123 ; 24564.33409308202 ; 3897.3486024906706 ; 2970722.197671026 ; 479373.8781063529 ; 29274.000000000004
124 ; 24054.365175322597 ; 3897.3486024906706 ; 2995286.531764108 ; 483271.22670884355 ; 29512.000000000004
125 ; 23818.78565679807 ; 3897.3486024906706 ; 3019340.896939431 ; 487168.5753113342 ; 29750.000000000004
126 ; 23633.02412574729 ; 3897.3486024906706 ; 3043159.682596229 ; 491065.9239138249 ; 29988.000000000004
127 ; 23134.020878950687 ; 3897.3486024906706 ; 3066792.7067219764 ; 494963.27251631557 ; 30226.000000000004
128 ; 22830.410483428976 ; 3897.3486024906706 ; 3089926.727600927 ; 498860.62111880624 ; 30464.000000000004
129 ; 22379.21411738848 ; 3897.3486024906706 ; 3112757.1380843557 ; 502757.9697212969 ; 30702.000000000004
130 ; 22262.01383127914 ; 3897.3486024906706 ; 3135136.3522017444 ; 506655.3183237876 ; 30940.000000000004
131 ; 21821.073051136755 ; 3897.3486024906706 ; 3157398.3660330237 ; 510552.66692627827 ; 31178.000000000004
132 ; 21441.779189491248 ; 3897.3486024906706 ; 3179219.4390841606 ; 514450.01552876894 ; 31416.000000000004
133 ; 21048.98472927554 ; 3897.3486024906706 ; 3200661.218273652 ; 518347.3641312596 ; 31654.000000000004
134 ; 20674.670010969752 ; 3897.3486024906706 ; 3221710.2030029274 ; 522244.7127337503 ; 31892.000000000004
135 ; 20314.48999604649 ; 3897.3486024906706 ; 3242384.8730138973 ; 526142.061336241 ; 32130.000000000004
136 ; 19867.519106881107 ; 3897.3486024906706 ; 3262699.3630099436 ; 530039.4099387316 ; 32368.000000000004
137 ; 19409.7424206304 ; 3897.3486024906706 ; 3282566.882116825 ; 533936.7585412222 ; 32606.000000000004
138 ; 19012.797841666157 ; 3897.3486024906706 ; 3301976.6245374554 ; 537834.1071437128 ; 32844.00000000001
139 ; 18767.177727479702 ; 3897.3486024906706 ; 3320989.4223791217 ; 541731.4557462034 ; 33082.00000000001
140 ; 18486.38860208518 ; 3897.3486024906706 ; 3339756.600106601 ; 545628.804348694 ; 33320.00000000001
141 ; 17716.437390401836 ; 3897.3486024906706 ; 3358242.988708686 ; 549526.1529511847 ; 33558.00000000001
142 ; 17506.36213479335 ; 3897.3486024906706 ; 3375959.426099088 ; 553423.5015536753 ; 33796.00000000001
143 ; 16940.570870604446 ; 3897.3486024906706 ; 3393465.7882338814 ; 557320.8501561659 ; 34034.00000000001
144 ; 16671.26629492858 ; 3897.3486024906706 ; 3410406.3591044857 ; 561218.1987586565 ; 34272.00000000001
145 ; 16478.50018256383 ; 3897.3486024906706 ; 3427077.6253994144 ; 565115.5473611471 ; 34510.00000000001
146 ; 16117.718966648657 ; 3897.3486024906706 ; 3443556.1255819784 ; 569012.8959636377 ; 34748.00000000001
147 ; 16313.064149919914 ; 3897.3486024906706 ; 3459673.844548627 ; 572910.2445661284 ; 34986.00000000001
148 ; 16134.669669503332 ; 3897.3486024906706 ; 3475986.9086985467 ; 576807.593168619 ; 35224.00000000001
149 ; 15933.587993947496 ; 3897.3486024906706 ; 3492121.57836805 ; 580704.9417711096 ; 35462.00000000001
150 ; 15930.586021048277 ; 3897.3486024906706 ; 3508055.1663619974 ; 584602.2903736002 ; 35700.00000000001
151 ; 15542.776548134689 ; 3897.3486024906706 ; 3523985.752383046 ; 588499.6389760908 ; 35938.00000000001
152 ; 15585.60194853784 ; 3897.3486024906706 ; 3539528.5289311805 ; 592396.9875785814 ; 36176.00000000001
153 ; 15502.994218937663 ; 3897.3486024906706 ; 3555114.1308797183 ; 596294.336181072 ; 36414.00000000001
154 ; 15181.431363722428 ; 3897.3486024906706 ; 3570617.125098656 ; 600191.6847835627 ; 36652.00000000001
155 ; 15096.583620279918 ; 3897.3486024906706 ; 3585798.5564623782 ; 604089.0333860533 ; 36890.00000000001
156 ; 15019.16447586717 ; 3897.3486024906706 ; 3600895.1400826583 ; 607986.3819885439 ; 37128.00000000001
157 ; 14890.570324798166 ; 3897.3486024906706 ; 3615914.3045585253 ; 611883.7305910345 ; 37366.00000000001
158 ; 14726.81153519403 ; 3897.3486024906706 ; 3630804.8748833234 ; 615781.0791935251 ; 37604.00000000001
159 ; 14615.353869594765 ; 3897.3486024906706 ; 3645531.6864185175 ; 619678.4277960157 ; 37842.00000000001
160 ; 14333.57713399438 ; 3897.3486024906706 ; 3660147.040288112 ; 623575.7763985064 ; 38080.00000000001
161 ; 14110.55252679948 ; 3897.3486024906706 ; 3674480.6174221067 ; 627473.125000997 ; 38318.00000000001
162 ; 14071.141679041959 ; 3897.3486024906706 ; 3688591.169948906 ; 631370.4736034876 ; 38556.00000000001
163 ; 13745.755073379863 ; 3897.3486024906706 ; 3702662.311627948 ; 635267.8222059782 ; 38794.00000000001
164 ; 13747.22665657711 ; 3897.3486024906706 ; 3716408.066701328 ; 639165.1708084688 ; 39032.00000000001
165 ; 13308.918583769522 ; 3897.3486024906706 ; 3730155.293357905 ; 643062.5194109594 ; 39270.00000000001
166 ; 13329.986118699331 ; 3897.3486024906706 ; 3743464.2119416744 ; 646959.8680134501 ; 39508.00000000001
167 ; 12891.504300491313 ; 3897.3486024906706 ; 3756794.198060374 ; 650857.2166159407 ; 39746.00000000001
168 ; 12854.008983733884 ; 3897.3486024906706 ; 3769685.702360865 ; 654754.5652184313 ; 39984.00000000001
169 ; 12722.664170906022 ; 3897.3486024906706 ; 3782539.7113445993 ; 658651.9138209219 ; 40222.00000000001
170 ; 12590.80120908082 ; 3897.3486024906706 ; 3795262.375515505 ; 662549.2624234125 ; 40460.00000000001
171 ; 12462.612556239066 ; 3897.3486024906706 ; 3807853.176724586 ; 666446.6110259031 ; 40698.00000000001
172 ; 12193.606165289113 ; 3897.3486024906706 ; 3820315.7892808253 ; 670343.9596283938 ; 40936.00000000001
173 ; 12054.518652568906 ; 3897.3486024906706 ; 3832509.3954461142 ; 674241.3082308844 ; 41174.00000000001
174 ; 12248.356513989196 ; 3897.3486024906706 ; 3844563.9140986833 ; 678138.656833375 ; 41412.00000000001
175 ; 12001.719583800887 ; 3897.3486024906706 ; 3856812.2706126724 ; 682036.0054358656 ; 41650.00000000001
176 ; 12264.914115481512 ; 3897.3486024906706 ; 3868813.9901964734 ; 685933.3540383562 ; 41888.00000000001
177 ; 12074.184479813548 ; 3897.3486024906706 ; 3881078.904311955 ; 689830.7026408468 ; 42126.00000000001
178 ; 12206.419977482048 ; 3897.3486024906706 ; 3893153.0887917685 ; 693728.0512433375 ; 42364.00000000001
179 ; 12356.265885406314 ; 3897.3486024906706 ; 3905359.5087692505 ; 697625.3998458281 ; 42602.00000000001
180 ; 12141.516319366861 ; 3897.3486024906706 ; 3917715.7746546566 ; 701522.7484483187 ; 42840.00000000001
181 ; 12403.2444704783 ; 3897.3486024906706 ; 3929857.2909740233 ; 705420.0970508093 ; 43078.00000000001
182 ; 12393.962611462535 ; 3897.3486024906706 ; 3942260.535444502 ; 709317.4456532999 ; 43316.00000000001
183 ; 12155.960162092253 ; 3897.3486024906706 ; 3954654.4980559642 ; 713214.7942557905 ; 43554.00000000001
184 ; 12389.638088625505 ; 3897.3486024906706 ; 3966810.4582180567 ; 717112.1428582811 ; 43792.00000000001
