CSV File for the City 2 on Day 134
1 - Minute m 
2 - Power Consumed at minute m 
3 - Power Produced at minute m 
4 - Energy Consumed since the beginning of the day 
5 - Energy Produced since the beginning of the day 
6 - Energy Lost since the beginning of the day on lines starting from the city
 
0 ; 8976.537610620764 ; 27461.58735262401 ; 0.0 ; 0.0 ; 0.0
1 ; 9378.452257279716 ; 27461.58735262401 ; 8976.537610620764 ; 27461.58735262401 ; 0.0
2 ; 9648.351811509594 ; 27461.58735262401 ; 18354.98986790048 ; 54923.17470524802 ; 0.0
3 ; 10045.918375545318 ; 27461.58735262401 ; 28003.341679410074 ; 82384.76205787202 ; 0.0
4 ; 10515.145772508618 ; 27461.58735262401 ; 38049.26005495539 ; 109846.34941049604 ; 0.0
5 ; 10780.616906426625 ; 27461.58735262401 ; 48564.40582746401 ; 137307.93676312006 ; 0.0
6 ; 11282.603897067314 ; 27461.58735262401 ; 59345.02273389064 ; 164769.52411574408 ; 0.0
7 ; 11497.635602768112 ; 27461.58735262401 ; 70627.62663095795 ; 192231.1114683681 ; 0.0
8 ; 11880.511628764136 ; 27461.58735262401 ; 82125.26223372607 ; 219692.6988209921 ; 0.0
9 ; 12201.55545749292 ; 27461.58735262401 ; 94005.7738624902 ; 247154.28617361613 ; 0.0
10 ; 12497.944592552867 ; 27461.58735262401 ; 106207.32931998311 ; 274615.8735262401 ; 0.0
11 ; 12755.622673235777 ; 27461.58735262401 ; 118705.27391253598 ; 302077.4608788641 ; 0.0
12 ; 12919.622243364243 ; 27461.58735262401 ; 131460.89658577176 ; 329539.0482314881 ; 0.0
13 ; 13363.766721213147 ; 27461.58735262401 ; 144380.518829136 ; 357000.6355841121 ; 0.0
14 ; 13749.375798601486 ; 27461.58735262401 ; 157744.28555034916 ; 384462.22293673607 ; 0.0
15 ; 13917.280318599089 ; 27461.58735262401 ; 171493.66134895064 ; 411923.81028936006 ; 0.0
16 ; 14359.869101188944 ; 27461.58735262401 ; 185410.94166754972 ; 439385.39764198405 ; 0.0
17 ; 14489.28391812479 ; 27461.58735262401 ; 199770.81076873865 ; 466846.98499460804 ; 0.0
18 ; 14783.874177734559 ; 27461.58735262401 ; 214260.09468686345 ; 494308.572347232 ; 0.0
19 ; 15018.810085723999 ; 27461.58735262401 ; 229043.96886459802 ; 521770.159699856 ; 0.0
20 ; 15441.973191675059 ; 27461.58735262401 ; 244062.778950322 ; 549231.74705248 ; 0.0
21 ; 15663.861864884566 ; 27461.58735262401 ; 259504.75214199707 ; 576693.334405104 ; 0.0
22 ; 15869.111159790991 ; 27461.58735262401 ; 275168.61400688166 ; 604154.9217577281 ; 0.0
23 ; 16196.204550047034 ; 27461.58735262401 ; 291037.72516667267 ; 631616.5091103521 ; 0.0
24 ; 16494.02601091478 ; 27461.58735262401 ; 307233.9297167197 ; 659078.0964629762 ; 0.0
25 ; 16699.256102132513 ; 27461.58735262401 ; 323727.9557276345 ; 686539.6838156002 ; 0.0
26 ; 16956.63605951859 ; 27461.58735262401 ; 340427.211829767 ; 714001.2711682243 ; 0.0
27 ; 17234.32490800191 ; 27461.58735262401 ; 357383.8478892856 ; 741462.8585208483 ; 0.0
28 ; 17506.356359163583 ; 27461.58735262401 ; 374618.1727972875 ; 768924.4458734724 ; 0.0
29 ; 17580.50448159309 ; 27461.58735262401 ; 392124.5291564511 ; 796386.0332260964 ; 0.0
30 ; 17905.067312520718 ; 27461.58735262401 ; 409705.0336380442 ; 823847.6205787205 ; 0.0
31 ; 18250.7339539073 ; 27461.58735262401 ; 427610.1009505649 ; 851309.2079313445 ; 0.0
32 ; 18360.970445645016 ; 27461.58735262401 ; 445860.8349044722 ; 878770.7952839686 ; 0.0
33 ; 18527.706137384135 ; 27461.58735262401 ; 464221.80535011727 ; 906232.3826365926 ; 0.0
34 ; 18871.60998512526 ; 27461.58735262401 ; 482749.5114875014 ; 933693.9699892167 ; 0.0
35 ; 18891.16328298329 ; 27461.58735262401 ; 501621.12147262663 ; 961155.5573418407 ; 0.0
36 ; 19294.564388809882 ; 27461.58735262401 ; 520512.28475560993 ; 988617.1446944647 ; 0.0
37 ; 19145.250130078315 ; 27461.58735262401 ; 539806.8491444198 ; 1016078.7320470888 ; 0.0
38 ; 19450.74148935338 ; 27461.58735262401 ; 558952.0992744981 ; 1043540.3193997128 ; 0.0
39 ; 19755.45448154418 ; 27461.58735262401 ; 578402.8407638514 ; 1071001.9067523368 ; 0.0
40 ; 20041.74393039842 ; 27461.58735262401 ; 598158.2952453956 ; 1098463.4941049607 ; 0.0
41 ; 19876.59525252265 ; 27461.58735262401 ; 618200.039175794 ; 1125925.0814575846 ; 0.0
42 ; 20139.680651123417 ; 27461.58735262401 ; 638076.6344283166 ; 1153386.6688102086 ; 0.0
43 ; 20753.525202172605 ; 27461.58735262401 ; 658216.31507944 ; 1180848.2561628325 ; 0.0
44 ; 20618.99932668895 ; 27461.58735262401 ; 678969.8402816126 ; 1208309.8435154564 ; 0.0
45 ; 20891.499755102188 ; 27461.58735262401 ; 699588.8396083015 ; 1235771.4308680804 ; 0.0
46 ; 21133.701590840235 ; 27461.58735262401 ; 720480.3393634037 ; 1263233.0182207043 ; 0.0
47 ; 21371.24294441644 ; 27461.58735262401 ; 741614.040954244 ; 1290694.6055733282 ; 0.0
48 ; 21169.206298097608 ; 27461.58735262401 ; 762985.2838986604 ; 1318156.1929259521 ; 0.0
49 ; 21369.973167232394 ; 27461.58735262401 ; 784154.4901967581 ; 1345617.780278576 ; 0.0
50 ; 21514.213180745817 ; 27461.58735262401 ; 805524.4633639904 ; 1373079.3676312 ; 0.0
51 ; 21663.136978822342 ; 27461.58735262401 ; 827038.6765447363 ; 1400540.954983824 ; 0.0
52 ; 21842.45331565187 ; 27461.58735262401 ; 848701.8135235586 ; 1428002.5423364479 ; 0.0
53 ; 21965.67741789566 ; 27461.58735262401 ; 870544.2668392104 ; 1455464.1296890718 ; 0.0
54 ; 22103.651536571168 ; 27461.58735262401 ; 892509.944257106 ; 1482925.7170416957 ; 0.0
55 ; 22076.058855639953 ; 27461.58735262401 ; 914613.5957936773 ; 1510387.3043943197 ; 0.0
56 ; 22347.26809255063 ; 27461.58735262401 ; 936689.6546493173 ; 1537848.8917469436 ; 0.0
57 ; 22245.59431220069 ; 27461.58735262401 ; 959036.9227418678 ; 1565310.4790995675 ; 0.0
58 ; 22441.339546436953 ; 27461.58735262401 ; 981282.5170540685 ; 1592772.0664521914 ; 0.0
59 ; 22688.90382417216 ; 27461.58735262401 ; 1003723.8566005054 ; 1620233.6538048154 ; 0.0
60 ; 22830.826088712434 ; 27461.58735262401 ; 1026412.7604246776 ; 1647695.2411574393 ; 0.0
61 ; 22828.76182801537 ; 27461.58735262401 ; 1049243.58651339 ; 1675156.8285100632 ; 0.0
62 ; 22963.545344558574 ; 27461.58735262401 ; 1072072.3483414054 ; 1702618.4158626872 ; 0.0
63 ; 23092.28095394121 ; 27461.58735262401 ; 1095035.893685964 ; 1730080.003215311 ; 0.0
64 ; 23140.572350045535 ; 27461.58735262401 ; 1118128.174639905 ; 1757541.590567935 ; 0.0
65 ; 23103.82708862342 ; 27461.58735262401 ; 1141268.7469899505 ; 1785003.177920559 ; 0.0
66 ; 23147.114448786935 ; 27461.58735262401 ; 1164372.5740785738 ; 1812464.765273183 ; 0.0
67 ; 23370.995088231073 ; 27461.58735262401 ; 1187519.6885273608 ; 1839926.3526258068 ; 0.0
68 ; 23314.532580633975 ; 27461.58735262401 ; 1210890.6836155918 ; 1867387.9399784307 ; 0.0
69 ; 23249.231796239183 ; 27461.58735262401 ; 1234205.2161962257 ; 1894849.5273310547 ; 0.0
70 ; 23581.34764034159 ; 27461.58735262401 ; 1257454.447992465 ; 1922311.1146836786 ; 0.0
71 ; 23647.289045947142 ; 27461.58735262401 ; 1281035.7956328066 ; 1949772.7020363025 ; 0.0
72 ; 23627.783843125268 ; 27461.58735262401 ; 1304683.0846787537 ; 1977234.2893889265 ; 0.0
73 ; 23516.553593441637 ; 27461.58735262401 ; 1328310.868521879 ; 2004695.8767415504 ; 0.0
74 ; 23458.451434558123 ; 27461.58735262401 ; 1351827.4221153206 ; 2032157.4640941743 ; 0.0
75 ; 23624.577855790296 ; 27461.58735262401 ; 1375285.8735498786 ; 2059619.0514467983 ; 0.0
76 ; 23534.430311737975 ; 27461.58735262401 ; 1398910.4514056689 ; 2087080.6387994222 ; 0.0
77 ; 23648.93212678225 ; 27461.58735262401 ; 1422444.881717407 ; 2114542.226152046 ; 0.0
78 ; 23567.665406341337 ; 27461.58735262401 ; 1446093.813844189 ; 2142003.8135046703 ; 0.0
79 ; 23586.409343343796 ; 27461.58735262401 ; 1469661.4792505305 ; 2169465.4008572944 ; 0.0
80 ; 23489.466578388183 ; 27461.58735262401 ; 1493247.8885938742 ; 2196926.9882099186 ; 0.0
81 ; 23592.464136500006 ; 27461.58735262401 ; 1516737.3551722623 ; 2224388.575562543 ; 0.0
82 ; 23793.369627400512 ; 27461.58735262401 ; 1540329.8193087622 ; 2251850.162915167 ; 0.0
83 ; 23625.370321396287 ; 27461.58735262401 ; 1564123.1889361627 ; 2279311.750267791 ; 0.0
84 ; 23679.87145784745 ; 27461.58735262401 ; 1587748.559257559 ; 2306773.3376204153 ; 0.0
85 ; 23713.98144158938 ; 27461.58735262401 ; 1611428.4307154065 ; 2334234.9249730394 ; 0.0
86 ; 23577.42071974469 ; 27461.58735262401 ; 1635142.4121569959 ; 2361696.5123256636 ; 0.0
87 ; 23666.70729696353 ; 27461.58735262401 ; 1658719.8328767405 ; 2389158.0996782877 ; 0.0
88 ; 23587.203808631988 ; 27461.58735262401 ; 1682386.540173704 ; 2416619.687030912 ; 0.0
89 ; 23522.64048095802 ; 27461.58735262401 ; 1705973.743982336 ; 2444081.274383536 ; 0.0
90 ; 23470.003399102003 ; 27461.58735262401 ; 1729496.384463294 ; 2471542.8617361602 ; 0.0
91 ; 23409.429844276438 ; 27461.58735262401 ; 1752966.387862396 ; 2499004.4490887844 ; 0.0
92 ; 23456.869809636155 ; 27461.58735262401 ; 1776375.8177066725 ; 2526466.0364414086 ; 0.0
93 ; 23367.98577352796 ; 27461.58735262401 ; 1799832.6875163086 ; 2553927.6237940327 ; 0.0
94 ; 23139.791719683508 ; 27461.58735262401 ; 1823200.6732898366 ; 2581389.211146657 ; 0.0
95 ; 23235.432265716798 ; 27461.58735262401 ; 1846340.46500952 ; 2608850.798499281 ; 0.0
96 ; 23324.794837474125 ; 27461.58735262401 ; 1869575.897275237 ; 2636312.385851905 ; 0.0
97 ; 23204.045148412417 ; 27461.58735262401 ; 1892900.692112711 ; 2663773.9732045294 ; 0.0
98 ; 23060.475465623662 ; 27461.58735262401 ; 1916104.7372611235 ; 2691235.5605571535 ; 0.0
99 ; 22996.93526123429 ; 27461.58735262401 ; 1939165.2127267472 ; 2718697.1479097777 ; 0.0
100 ; 22828.74704206549 ; 27461.58735262401 ; 1962162.1479879813 ; 2746158.735262402 ; 0.0
101 ; 22791.07213708081 ; 27461.58735262401 ; 1984990.8950300468 ; 2773620.322615026 ; 0.0
102 ; 22668.158332101484 ; 27461.58735262401 ; 2007781.9671671276 ; 2801081.90996765 ; 0.0
103 ; 22425.632264030268 ; 27461.58735262401 ; 2030450.1254992292 ; 2828543.4973202744 ; 0.0
104 ; 22339.34190750848 ; 27461.58735262401 ; 2052875.7577632593 ; 2856005.0846728985 ; 0.0
105 ; 22248.37150886563 ; 27461.58735262401 ; 2075215.0996707678 ; 2883466.6720255227 ; 0.0
106 ; 22342.25545344236 ; 27461.58735262401 ; 2097463.4711796334 ; 2910928.259378147 ; 0.0
107 ; 22041.13722193394 ; 27461.58735262401 ; 2119805.7266330756 ; 2938389.846730771 ; 0.0
108 ; 21910.03133612782 ; 27461.58735262401 ; 2141846.8638550094 ; 2965851.434083395 ; 0.0
109 ; 21895.90437590455 ; 27461.58735262401 ; 2163756.895191137 ; 2993313.0214360193 ; 0.0
110 ; 21858.65088781827 ; 27461.58735262401 ; 2185652.799567042 ; 3020774.6087886435 ; 0.0
111 ; 21370.651033395756 ; 27461.58735262401 ; 2207511.45045486 ; 3048236.1961412677 ; 0.0
112 ; 21442.599713786894 ; 27461.58735262401 ; 2228882.101488256 ; 3075697.783493892 ; 0.0
113 ; 21156.39306812836 ; 27461.58735262401 ; 2250324.701202043 ; 3103159.370846516 ; 0.0
114 ; 21111.676070071615 ; 27461.58735262401 ; 2271481.094270171 ; 3130620.95819914 ; 0.0
115 ; 20891.844682473416 ; 27461.58735262401 ; 2292592.770340243 ; 3158082.5455517643 ; 0.0
116 ; 20710.273449216565 ; 27461.58735262401 ; 2313484.615022716 ; 3185544.1329043885 ; 0.0
117 ; 20685.938324140694 ; 27461.58735262401 ; 2334194.8884719326 ; 3213005.7202570126 ; 0.0
118 ; 20539.22981729755 ; 27461.58735262401 ; 2354880.8267960735 ; 3240467.307609637 ; 0.0
119 ; 20206.564207030475 ; 27461.58735262401 ; 2375420.0566133712 ; 3267928.894962261 ; 0.0
120 ; 19989.23418579265 ; 27461.58735262401 ; 2395626.6208204017 ; 3295390.482314885 ; 0.0
121 ; 19944.7364900789 ; 27461.58735262401 ; 2415615.855006194 ; 3322852.0696675093 ; 0.0
122 ; 19621.52769135224 ; 27461.58735262401 ; 2435560.591496273 ; 3350313.6570201335 ; 0.0
123 ; 19465.046678691844 ; 27461.58735262401 ; 2455182.119187625 ; 3377775.2443727576 ; 0.0
124 ; 19320.248691806828 ; 27461.58735262401 ; 2474647.1658663168 ; 3405236.831725382 ; 0.0
125 ; 19121.74387860518 ; 27461.58735262401 ; 2493967.414558124 ; 3432698.419078006 ; 0.0
126 ; 18932.727492047085 ; 27461.58735262401 ; 2513089.158436729 ; 3460160.00643063 ; 0.0
127 ; 18737.01000911369 ; 27461.58735262401 ; 2532021.885928776 ; 3487621.5937832543 ; 0.0
128 ; 18544.89734753118 ; 27461.58735262401 ; 2550758.89593789 ; 3515083.1811358784 ; 0.0
129 ; 18282.678259496126 ; 27461.58735262401 ; 2569303.793285421 ; 3542544.7684885026 ; 0.0
130 ; 18065.632116360634 ; 27461.58735262401 ; 2587586.471544917 ; 3570006.3558411268 ; 0.0
131 ; 18072.96084001104 ; 27461.58735262401 ; 2605652.103661278 ; 3597467.943193751 ; 0.0
132 ; 17614.596107413658 ; 27461.58735262401 ; 2623725.064501289 ; 3624929.530546375 ; 0.0
133 ; 17505.464945966807 ; 27461.58735262401 ; 2641339.6606087023 ; 3652391.1178989992 ; 0.0
134 ; 17196.516767222438 ; 27461.58735262401 ; 2658845.125554669 ; 3679852.7052516234 ; 0.0
135 ; 17026.06696432867 ; 27461.58735262401 ; 2676041.6423218916 ; 3707314.2926042476 ; 0.0
136 ; 16713.770493173346 ; 27461.58735262401 ; 2693067.7092862204 ; 3734775.8799568717 ; 0.0
137 ; 16470.66017765309 ; 27461.58735262401 ; 2709781.479779394 ; 3762237.467309496 ; 0.0
138 ; 16216.600038269931 ; 27461.58735262401 ; 2726252.139957047 ; 3789699.05466212 ; 0.0
139 ; 15913.149985341124 ; 27461.58735262401 ; 2742468.739995317 ; 3817160.642014744 ; 0.0
140 ; 15557.638091494488 ; 27461.58735262401 ; 2758381.8899806584 ; 3844622.2293673684 ; 0.0
141 ; 15220.794690399358 ; 27461.58735262401 ; 2773939.5280721528 ; 3872083.8167199926 ; 0.0
142 ; 15188.864591921696 ; 27461.58735262401 ; 2789160.322762552 ; 3899545.4040726167 ; 0.0
143 ; 14829.213641881704 ; 27461.58735262401 ; 2804349.187354474 ; 3927006.991425241 ; 0.0
144 ; 14511.029973562232 ; 27461.58735262401 ; 2819178.4009963553 ; 3954468.578777865 ; 0.0
145 ; 14413.457136002282 ; 27461.58735262401 ; 2833689.4309699177 ; 3981930.166130489 ; 0.0
146 ; 14313.371214957357 ; 27461.58735262401 ; 2848102.88810592 ; 4009391.7534831134 ; 0.0
147 ; 14350.347690328628 ; 27461.58735262401 ; 2862416.2593208775 ; 4036853.3408357375 ; 0.0
148 ; 14158.596453752263 ; 27461.58735262401 ; 2876766.607011206 ; 4064314.9281883617 ; 0.0
149 ; 14146.552960969113 ; 27461.58735262401 ; 2890925.2034649584 ; 4091776.515540986 ; 0.0
150 ; 13881.336219557485 ; 27461.58735262401 ; 2905071.7564259274 ; 4119238.10289361 ; 0.0
151 ; 13756.293392629903 ; 27461.58735262401 ; 2918953.092645485 ; 4146699.690246234 ; 0.0
152 ; 13597.318964607677 ; 27461.58735262401 ; 2932709.386038115 ; 4174161.2775988583 ; 0.0
153 ; 13767.340765092971 ; 27461.58735262401 ; 2946306.7050027223 ; 4201622.864951482 ; 0.0
154 ; 13544.118700643412 ; 27461.58735262401 ; 2960074.0457678153 ; 4229084.452304106 ; 0.0
155 ; 13523.712815739555 ; 27461.58735262401 ; 2973618.164468459 ; 4256546.03965673 ; 0.0
156 ; 13384.553284747619 ; 27461.58735262401 ; 2987141.8772841985 ; 4284007.6270093545 ; 0.0
157 ; 13453.565712568263 ; 27461.58735262401 ; 3000526.430568946 ; 4311469.214361979 ; 0.0
158 ; 13329.146033196786 ; 27461.58735262401 ; 3013979.9962815144 ; 4338930.801714603 ; 0.0
159 ; 13058.604712756323 ; 27461.58735262401 ; 3027309.142314711 ; 4366392.389067227 ; 0.0
160 ; 12938.25420670808 ; 27461.58735262401 ; 3040367.7470274675 ; 4393853.976419851 ; 0.0
161 ; 12795.609599356285 ; 27461.58735262401 ; 3053306.0012341756 ; 4421315.563772475 ; 0.0
162 ; 12722.145477520773 ; 27461.58735262401 ; 3066101.6108335317 ; 4448777.1511250995 ; 0.0
163 ; 12463.995806210694 ; 27461.58735262401 ; 3078823.7563110525 ; 4476238.738477724 ; 0.0
164 ; 12465.654418712367 ; 27461.58735262401 ; 3091287.752117263 ; 4503700.325830348 ; 0.0
165 ; 12258.182681494001 ; 27461.58735262401 ; 3103753.4065359756 ; 4531161.913182972 ; 0.0
166 ; 12221.523727026412 ; 27461.58735262401 ; 3116011.5892174696 ; 4558623.500535596 ; 0.0
167 ; 11949.221026943982 ; 27461.58735262401 ; 3128233.112944496 ; 4586085.08788822 ; 0.0
168 ; 11907.241504012229 ; 27461.58735262401 ; 3140182.33397144 ; 4613546.6752408445 ; 0.0
169 ; 11943.675994038815 ; 27461.58735262401 ; 3152089.575475452 ; 4641008.262593469 ; 0.0
170 ; 11720.950654038876 ; 27461.58735262401 ; 3164033.251469491 ; 4668469.849946093 ; 0.0
171 ; 11509.326747535884 ; 27461.58735262401 ; 3175754.2021235297 ; 4695931.437298717 ; 0.0
172 ; 11321.222615825489 ; 27461.58735262401 ; 3187263.5288710655 ; 4723393.024651341 ; 0.0
173 ; 11372.723974180277 ; 27461.58735262401 ; 3198584.751486891 ; 4750854.612003965 ; 0.0
174 ; 11357.224897189442 ; 27461.58735262401 ; 3209957.4754610714 ; 4778316.1993565895 ; 0.0
175 ; 11360.2830448611 ; 27461.58735262401 ; 3221314.700358261 ; 4805777.786709214 ; 0.0
176 ; 11356.61164701138 ; 27461.58735262401 ; 3232674.983403122 ; 4833239.374061838 ; 0.0
177 ; 11460.444569077337 ; 27461.58735262401 ; 3244031.5950501333 ; 4860700.961414462 ; 0.0
178 ; 11478.238542827763 ; 27461.58735262401 ; 3255492.0396192106 ; 4888162.548767086 ; 0.0
179 ; 11536.809819853246 ; 27461.58735262401 ; 3266970.2781620384 ; 4915624.13611971 ; 0.0
180 ; 11532.993337072656 ; 27461.58735262401 ; 3278507.087981892 ; 4943085.723472334 ; 0.0
181 ; 11515.984049326087 ; 27461.58735262401 ; 3290040.0813189643 ; 4970547.310824959 ; 0.0
182 ; 11417.950178078241 ; 27461.58735262401 ; 3301556.0653682905 ; 4998008.898177583 ; 0.0
183 ; 11445.092238421312 ; 27461.58735262401 ; 3312974.015546369 ; 5025470.485530207 ; 0.0
184 ; 11406.336870093719 ; 27461.58735262401 ; 3324419.10778479 ; 5052932.072882831 ; 0.0
185 ; 11399.951638178829 ; 27461.58735262401 ; 3335825.444654884 ; 5080393.660235455 ; 0.0
186 ; 11537.041081441132 ; 27461.58735262401 ; 3347225.3962930627 ; 5107855.247588079 ; 0.0
187 ; 11457.933870161029 ; 27461.58735262401 ; 3358762.437374504 ; 5135316.834940704 ; 0.0
188 ; 11502.26672908728 ; 27461.58735262401 ; 3370220.371244665 ; 5162778.422293328 ; 0.0
189 ; 11575.274638092067 ; 27461.58735262401 ; 3381722.637973752 ; 5190240.009645952 ; 0.0
190 ; 11625.109905137315 ; 27461.58735262401 ; 3393297.912611844 ; 5217701.596998576 ; 0.0
191 ; 11631.846438734035 ; 27461.58735262401 ; 3404923.0225169812 ; 5245163.1843512 ; 0.0
192 ; 11549.214446868331 ; 27461.58735262401 ; 3416554.868955715 ; 5272624.771703824 ; 0.0
193 ; 11534.023340034282 ; 27461.58735262401 ; 3428104.0834025834 ; 5300086.359056449 ; 0.0
194 ; 11642.834790916266 ; 27461.58735262401 ; 3439638.1067426177 ; 5327547.946409073 ; 0.0
195 ; 11649.74835749161 ; 27461.58735262401 ; 3451280.941533534 ; 5355009.533761697 ; 0.0
196 ; 11874.307110335112 ; 27461.58735262401 ; 3462930.6898910254 ; 5382471.121114321 ; 0.0
197 ; 11751.962470656114 ; 27461.58735262401 ; 3474804.9970013606 ; 5409932.708466945 ; 0.0
198 ; 11712.231903512762 ; 27461.58735262401 ; 3486556.959472017 ; 5437394.295819569 ; 0.0
199 ; 11654.198631880638 ; 27461.58735262401 ; 3498269.19137553 ; 5464855.883172194 ; 0.0
200 ; 11721.503118537954 ; 27461.58735262401 ; 3509923.3900074107 ; 5492317.470524818 ; 0.0
201 ; 11676.562903213375 ; 27461.58735262401 ; 3521644.8931259485 ; 5519779.057877442 ; 0.0
202 ; 11798.972131970142 ; 27461.58735262401 ; 3533321.456029162 ; 5547240.645230066 ; 0.0
203 ; 11867.072661817818 ; 27461.58735262401 ; 3545120.428161132 ; 5574702.23258269 ; 0.0
204 ; 11863.761595622698 ; 27461.58735262401 ; 3556987.50082295 ; 5602163.819935314 ; 0.0
205 ; 11643.435392070149 ; 27461.58735262401 ; 3568851.262418573 ; 5629625.4072879385 ; 0.0
206 ; 11704.59422596822 ; 27461.58735262401 ; 3580494.697810643 ; 5657086.994640563 ; 0.0
207 ; 11826.444556325081 ; 27461.58735262401 ; 3592199.292036611 ; 5684548.581993187 ; 0.0
208 ; 11874.913018915877 ; 27461.58735262401 ; 3604025.7365929363 ; 5712010.169345811 ; 0.0
209 ; 11839.791059042354 ; 27461.58735262401 ; 3615900.649611852 ; 5739471.756698435 ; 0.0
210 ; 12023.880273610976 ; 27461.58735262401 ; 3627740.4406708945 ; 5766933.344051059 ; 0.0
211 ; 11836.85140436665 ; 27461.58735262401 ; 3639764.3209445053 ; 5794394.9314036835 ; 0.0
212 ; 11937.250815717376 ; 27461.58735262401 ; 3651601.172348872 ; 5821856.518756308 ; 0.0
213 ; 11864.640105812983 ; 27461.58735262401 ; 3663538.4231645893 ; 5849318.106108932 ; 0.0
214 ; 12000.934776253096 ; 27461.58735262401 ; 3675403.063270402 ; 5876779.693461556 ; 0.0
215 ; 11918.967615375068 ; 27461.58735262401 ; 3687403.998046655 ; 5904241.28081418 ; 0.0
216 ; 11809.763589732465 ; 27461.58735262401 ; 3699322.9656620305 ; 5931702.868166804 ; 0.0
