CSV File for the City 2 on Day 259
1 - Minute m 
2 - Power Consumed at minute m 
3 - Power Produced at minute m 
4 - Energy Consumed since the beginning of the day 
5 - Energy Produced since the beginning of the day 
6 - Energy Lost since the beginning of the day on lines starting from the city
 
0 ; 6027.251341029587 ; 31975.883521036678 ; 0.0 ; 0.0 ; 0.0
1 ; 6492.574481207399 ; 31975.883521036678 ; 6027.251341029587 ; 31975.883521036678 ; 0.0
2 ; 7005.509486462352 ; 31975.883521036678 ; 12519.825822236986 ; 63951.767042073356 ; 0.0
3 ; 7561.331822034946 ; 31975.883521036678 ; 19525.335308699337 ; 95927.65056311003 ; 0.0
4 ; 7906.637360411448 ; 31975.883521036678 ; 27086.667130734284 ; 127903.53408414671 ; 0.0
5 ; 8277.723278580595 ; 31975.883521036678 ; 34993.30449114573 ; 159879.41760518338 ; 0.0
6 ; 8861.217096814531 ; 31975.883521036678 ; 43271.02776972633 ; 191855.30112622006 ; 0.0
7 ; 9224.334392408442 ; 31975.883521036678 ; 52132.24486654086 ; 223831.18464725674 ; 0.0
8 ; 9493.708665509153 ; 31975.883521036678 ; 61356.5792589493 ; 255807.06816829342 ; 0.0
9 ; 10020.76448117713 ; 31975.883521036678 ; 70850.28792445845 ; 287782.9516893301 ; 0.0
10 ; 10536.295005865453 ; 31975.883521036678 ; 80871.05240563558 ; 319758.83521036676 ; 0.0
11 ; 10955.787609239202 ; 31975.883521036678 ; 91407.34741150103 ; 351734.7187314034 ; 0.0
12 ; 11405.428105523722 ; 31975.883521036678 ; 102363.13502074023 ; 383710.60225244006 ; 0.0
13 ; 11701.59232145365 ; 31975.883521036678 ; 113768.56312626395 ; 415686.4857734767 ; 0.0
14 ; 11970.635783494166 ; 31975.883521036678 ; 125470.1554477176 ; 447662.36929451337 ; 0.0
15 ; 12474.449065009861 ; 31975.883521036678 ; 137440.79123121177 ; 479638.25281555 ; 0.0
16 ; 12903.589646950155 ; 31975.883521036678 ; 149915.24029622163 ; 511614.1363365867 ; 0.0
17 ; 13413.458591836488 ; 31975.883521036678 ; 162818.8299431718 ; 543590.0198576234 ; 0.0
18 ; 13592.777974127814 ; 31975.883521036678 ; 176232.28853500827 ; 575565.9033786601 ; 0.0
19 ; 14051.223482175294 ; 31975.883521036678 ; 189825.0665091361 ; 607541.7868996968 ; 0.0
20 ; 14307.708608920037 ; 31975.883521036678 ; 203876.28999131138 ; 639517.6704207335 ; 0.0
21 ; 14731.029499850325 ; 31975.883521036678 ; 218183.99860023143 ; 671493.5539417702 ; 0.0
22 ; 15081.32996641914 ; 31975.883521036678 ; 232915.02810008175 ; 703469.4374628069 ; 0.0
23 ; 15373.079005595968 ; 31975.883521036678 ; 247996.3580665009 ; 735445.3209838436 ; 0.0
24 ; 15745.607371670212 ; 31975.883521036678 ; 263369.43707209686 ; 767421.2045048804 ; 0.0
25 ; 16041.874586698004 ; 31975.883521036678 ; 279115.04444376705 ; 799397.0880259171 ; 0.0
26 ; 16483.839747275662 ; 31975.883521036678 ; 295156.91903046507 ; 831372.9715469538 ; 0.0
27 ; 16784.881498275765 ; 31975.883521036678 ; 311640.75877774076 ; 863348.8550679905 ; 0.0
28 ; 17025.620882965075 ; 31975.883521036678 ; 328425.64027601655 ; 895324.7385890272 ; 0.0
29 ; 17373.711132496974 ; 31975.883521036678 ; 345451.26115898165 ; 927300.6221100639 ; 0.0
30 ; 17775.221813093467 ; 31975.883521036678 ; 362824.97229147865 ; 959276.5056311006 ; 0.0
31 ; 17975.856749577968 ; 31975.883521036678 ; 380600.1941045721 ; 991252.3891521373 ; 0.0
32 ; 18016.337604209555 ; 31975.883521036678 ; 398576.0508541501 ; 1023228.272673174 ; 0.0
33 ; 18585.80486277329 ; 31975.883521036678 ; 416592.38845835964 ; 1055204.1561942108 ; 0.0
34 ; 18941.95342075961 ; 31975.883521036678 ; 435178.1933211329 ; 1087180.0397152475 ; 0.0
35 ; 19041.32666808585 ; 31975.883521036678 ; 454120.1467418925 ; 1119155.9232362842 ; 0.0
36 ; 19347.132718759727 ; 31975.883521036678 ; 473161.4734099783 ; 1151131.8067573209 ; 0.0
37 ; 19678.72367788239 ; 31975.883521036678 ; 492508.606128738 ; 1183107.6902783576 ; 0.0
38 ; 19890.00607500448 ; 31975.883521036678 ; 512187.32980662043 ; 1215083.5737993943 ; 0.0
39 ; 20299.924494232288 ; 31975.883521036678 ; 532077.335881625 ; 1247059.457320431 ; 0.0
40 ; 20663.57469189684 ; 31975.883521036678 ; 552377.2603758572 ; 1279035.3408414677 ; 0.0
41 ; 20599.549136693473 ; 31975.883521036678 ; 573040.835067754 ; 1311011.2243625044 ; 0.0
42 ; 20789.864421549388 ; 31975.883521036678 ; 593640.3842044475 ; 1342987.1078835411 ; 0.0
43 ; 21171.554873102927 ; 31975.883521036678 ; 614430.2486259969 ; 1374962.9914045779 ; 0.0
44 ; 21348.678370357004 ; 31975.883521036678 ; 635601.8034990998 ; 1406938.8749256146 ; 0.0
45 ; 21543.60182701039 ; 31975.883521036678 ; 656950.4818694568 ; 1438914.7584466513 ; 0.0
46 ; 21911.0503196734 ; 31975.883521036678 ; 678494.0836964672 ; 1470890.641967688 ; 0.0
47 ; 22012.662042424454 ; 31975.883521036678 ; 700405.1340161406 ; 1502866.5254887247 ; 0.0
48 ; 22082.412257576696 ; 31975.883521036678 ; 722417.796058565 ; 1534842.4090097614 ; 0.0
49 ; 22430.678952450293 ; 31975.883521036678 ; 744500.2083161417 ; 1566818.2925307981 ; 0.0
50 ; 22651.62354932656 ; 31975.883521036678 ; 766930.887268592 ; 1598794.1760518348 ; 0.0
51 ; 22687.75615666586 ; 31975.883521036678 ; 789582.5108179186 ; 1630770.0595728715 ; 0.0
52 ; 23030.218752677385 ; 31975.883521036678 ; 812270.2669745844 ; 1662745.9430939083 ; 0.0
53 ; 23065.706464375187 ; 31975.883521036678 ; 835300.4857272619 ; 1694721.826614945 ; 0.0
54 ; 23353.88189622381 ; 31975.883521036678 ; 858366.192191637 ; 1726697.7101359817 ; 0.0
55 ; 23306.904640496727 ; 31975.883521036678 ; 881720.0740878608 ; 1758673.5936570184 ; 0.0
56 ; 23635.280738667338 ; 31975.883521036678 ; 905026.9787283575 ; 1790649.477178055 ; 0.0
57 ; 23801.659593919176 ; 31975.883521036678 ; 928662.2594670248 ; 1822625.3606990918 ; 0.0
58 ; 23815.559305002695 ; 31975.883521036678 ; 952463.919060944 ; 1854601.2442201285 ; 0.0
59 ; 23928.020038404276 ; 31975.883521036678 ; 976279.4783659467 ; 1886577.1277411652 ; 0.0
60 ; 24110.08656646641 ; 31975.883521036678 ; 1000207.498404351 ; 1918553.011262202 ; 0.0
61 ; 24258.10264784822 ; 31975.883521036678 ; 1024317.5849708173 ; 1950528.8947832386 ; 0.0
62 ; 24264.1208859567 ; 31975.883521036678 ; 1048575.6876186655 ; 1982504.7783042754 ; 0.0
63 ; 24491.511652349556 ; 31975.883521036678 ; 1072839.8085046222 ; 2014480.661825312 ; 0.0
64 ; 24650.53124742571 ; 31975.883521036678 ; 1097331.3201569717 ; 2046456.5453463488 ; 0.0
65 ; 24508.816470835176 ; 31975.883521036678 ; 1121981.8514043975 ; 2078432.4288673855 ; 0.0
66 ; 24717.80739666098 ; 31975.883521036678 ; 1146490.6678752326 ; 2110408.312388422 ; 0.0
67 ; 25206.7609145129 ; 31975.883521036678 ; 1171208.4752718937 ; 2142384.1959094587 ; 0.0
68 ; 24896.51236790499 ; 31975.883521036678 ; 1196415.2361864066 ; 2174360.0794304954 ; 0.0
69 ; 25049.568261102246 ; 31975.883521036678 ; 1221311.7485543115 ; 2206335.962951532 ; 0.0
70 ; 25027.834184827654 ; 31975.883521036678 ; 1246361.3168154138 ; 2238311.846472569 ; 0.0
71 ; 25286.83553963387 ; 31975.883521036678 ; 1271389.1510002415 ; 2270287.7299936055 ; 0.0
72 ; 25439.762404952115 ; 31975.883521036678 ; 1296675.9865398754 ; 2302263.613514642 ; 0.0
73 ; 25461.314751807706 ; 31975.883521036678 ; 1322115.7489448276 ; 2334239.497035679 ; 0.0
74 ; 25289.96372384837 ; 31975.883521036678 ; 1347577.0636966352 ; 2366215.3805567157 ; 0.0
75 ; 25450.875136819985 ; 31975.883521036678 ; 1372867.0274204835 ; 2398191.2640777524 ; 0.0
76 ; 25606.00494057452 ; 31975.883521036678 ; 1398317.9025573034 ; 2430167.147598789 ; 0.0
77 ; 25422.428778736463 ; 31975.883521036678 ; 1423923.907497878 ; 2462143.031119826 ; 0.0
78 ; 25391.54816449201 ; 31975.883521036678 ; 1449346.3362766143 ; 2494118.9146408625 ; 0.0
79 ; 25657.66115097099 ; 31975.883521036678 ; 1474737.8844411063 ; 2526094.798161899 ; 0.0
80 ; 25472.430496482437 ; 31975.883521036678 ; 1500395.5455920773 ; 2558070.681682936 ; 0.0
81 ; 25670.90039701671 ; 31975.883521036678 ; 1525867.9760885597 ; 2590046.5652039726 ; 0.0
82 ; 25711.577541498817 ; 31975.883521036678 ; 1551538.8764855764 ; 2622022.4487250093 ; 0.0
83 ; 25466.911547141026 ; 31975.883521036678 ; 1577250.4540270753 ; 2653998.332246046 ; 0.0
84 ; 25735.301244669878 ; 31975.883521036678 ; 1602717.3655742162 ; 2685974.2157670828 ; 0.0
85 ; 25481.62635347036 ; 31975.883521036678 ; 1628452.666818886 ; 2717950.0992881195 ; 0.0
86 ; 25620.72270428817 ; 31975.883521036678 ; 1653934.2931723564 ; 2749925.982809156 ; 0.0
87 ; 25344.76888150736 ; 31975.883521036678 ; 1679555.0158766445 ; 2781901.866330193 ; 0.0
88 ; 25458.25637907568 ; 31975.883521036678 ; 1704899.784758152 ; 2813877.7498512296 ; 0.0
89 ; 25436.714273080048 ; 31975.883521036678 ; 1730358.0411372276 ; 2845853.6333722663 ; 0.0
90 ; 25436.762227207848 ; 31975.883521036678 ; 1755794.7554103076 ; 2877829.516893303 ; 0.0
91 ; 25347.498697861665 ; 31975.883521036678 ; 1781231.5176375154 ; 2909805.4004143397 ; 0.0
92 ; 25244.194796685566 ; 31975.883521036678 ; 1806579.016335377 ; 2941781.2839353764 ; 0.0
93 ; 25097.415447723633 ; 31975.883521036678 ; 1831823.2111320626 ; 2973757.167456413 ; 0.0
94 ; 25077.34635006322 ; 31975.883521036678 ; 1856920.6265797862 ; 3005733.05097745 ; 0.0
95 ; 25076.204527953396 ; 31975.883521036678 ; 1881997.9729298493 ; 3037708.9344984866 ; 0.0
96 ; 25121.27598329367 ; 31975.883521036678 ; 1907074.1774578027 ; 3069684.8180195233 ; 0.0
97 ; 24972.16575169876 ; 31975.883521036678 ; 1932195.4534410965 ; 3101660.70154056 ; 0.0
98 ; 24803.95573111156 ; 31975.883521036678 ; 1957167.6191927951 ; 3133636.5850615967 ; 0.0
99 ; 24867.82656637642 ; 31975.883521036678 ; 1981971.5749239067 ; 3165612.4685826334 ; 0.0
100 ; 24671.557020763667 ; 31975.883521036678 ; 2006839.4014902832 ; 3197588.35210367 ; 0.0
101 ; 24443.268266142535 ; 31975.883521036678 ; 2031510.9585110468 ; 3229564.235624707 ; 0.0
102 ; 24423.64654819084 ; 31975.883521036678 ; 2055954.2267771894 ; 3261540.1191457435 ; 0.0
103 ; 24417.28969543689 ; 31975.883521036678 ; 2080377.8733253803 ; 3293516.0026667803 ; 0.0
104 ; 24318.424932497357 ; 31975.883521036678 ; 2104795.163020817 ; 3325491.886187817 ; 0.0
105 ; 24174.33119058054 ; 31975.883521036678 ; 2129113.5879533147 ; 3357467.7697088537 ; 0.0
106 ; 23931.50537559876 ; 31975.883521036678 ; 2153287.919143895 ; 3389443.6532298904 ; 0.0
107 ; 23835.548754442614 ; 31975.883521036678 ; 2177219.4245194937 ; 3421419.536750927 ; 0.0
108 ; 23753.254824638298 ; 31975.883521036678 ; 2201054.973273936 ; 3453395.420271964 ; 0.0
109 ; 23353.91858405361 ; 31975.883521036678 ; 2224808.2280985746 ; 3485371.3037930005 ; 0.0
110 ; 23411.401604407034 ; 31975.883521036678 ; 2248162.146682628 ; 3517347.1873140372 ; 0.0
111 ; 23278.844316820396 ; 31975.883521036678 ; 2271573.548287035 ; 3549323.070835074 ; 0.0
112 ; 23145.887379887736 ; 31975.883521036678 ; 2294852.3926038556 ; 3581298.9543561107 ; 0.0
113 ; 22894.296472471116 ; 31975.883521036678 ; 2317998.279983743 ; 3613274.8378771474 ; 0.0
114 ; 22640.745922614224 ; 31975.883521036678 ; 2340892.5764562143 ; 3645250.721398184 ; 0.0
115 ; 22656.176152379318 ; 31975.883521036678 ; 2363533.3223788287 ; 3677226.604919221 ; 0.0
116 ; 22292.5983721934 ; 31975.883521036678 ; 2386189.498531208 ; 3709202.4884402575 ; 0.0
117 ; 22289.289066583307 ; 31975.883521036678 ; 2408482.0969034014 ; 3741178.371961294 ; 0.0
118 ; 21929.165683833846 ; 31975.883521036678 ; 2430771.385969985 ; 3773154.255482331 ; 0.0
119 ; 21589.74470680891 ; 31975.883521036678 ; 2452700.5516538187 ; 3805130.1390033676 ; 0.0
120 ; 21488.54717515563 ; 31975.883521036678 ; 2474290.2963606277 ; 3837106.0225244043 ; 0.0
121 ; 21466.746372217713 ; 31975.883521036678 ; 2495778.8435357832 ; 3869081.906045441 ; 0.0
122 ; 20889.464060621598 ; 31975.883521036678 ; 2517245.589908001 ; 3901057.7895664778 ; 0.0
123 ; 20795.878138444383 ; 31975.883521036678 ; 2538135.053968623 ; 3933033.6730875145 ; 0.0
124 ; 20579.314299648766 ; 31975.883521036678 ; 2558930.932107067 ; 3965009.556608551 ; 0.0
125 ; 20401.672907209333 ; 31975.883521036678 ; 2579510.246406716 ; 3996985.440129588 ; 0.0
126 ; 20032.356651407983 ; 31975.883521036678 ; 2599911.9193139253 ; 4028961.3236506246 ; 0.0
127 ; 19806.292786506103 ; 31975.883521036678 ; 2619944.2759653335 ; 4060937.2071716613 ; 0.0
128 ; 19727.796074904454 ; 31975.883521036678 ; 2639750.5687518395 ; 4092913.090692698 ; 0.0
129 ; 19122.179013583867 ; 31975.883521036678 ; 2659478.364826744 ; 4124888.9742137347 ; 0.0
130 ; 19053.66895551412 ; 31975.883521036678 ; 2678600.5438403278 ; 4156864.8577347714 ; 0.0
131 ; 18799.427414701717 ; 31975.883521036678 ; 2697654.212795842 ; 4188840.741255808 ; 0.0
132 ; 18418.445445328565 ; 31975.883521036678 ; 2716453.6402105438 ; 4220816.624776845 ; 0.0
133 ; 18020.58972085606 ; 31975.883521036678 ; 2734872.0856558722 ; 4252792.508297881 ; 0.0
134 ; 17875.42979366132 ; 31975.883521036678 ; 2752892.675376728 ; 4284768.391818917 ; 0.0
135 ; 17562.046802330733 ; 31975.883521036678 ; 2770768.1051703896 ; 4316744.275339954 ; 0.0
136 ; 17390.131128608977 ; 31975.883521036678 ; 2788330.1519727204 ; 4348720.15886099 ; 0.0
137 ; 16787.7828903436 ; 31975.883521036678 ; 2805720.2831013296 ; 4380696.042382026 ; 0.0
138 ; 16700.610666089317 ; 31975.883521036678 ; 2822508.065991673 ; 4412671.925903062 ; 0.0
139 ; 16203.32794929691 ; 31975.883521036678 ; 2839208.6766577624 ; 4444647.809424099 ; 0.0
140 ; 15970.233292288673 ; 31975.883521036678 ; 2855412.004607059 ; 4476623.692945135 ; 0.0
141 ; 15610.627176245427 ; 31975.883521036678 ; 2871382.2378993477 ; 4508599.576466171 ; 0.0
142 ; 15175.138060934883 ; 31975.883521036678 ; 2886992.865075593 ; 4540575.459987207 ; 0.0
143 ; 14975.222501896953 ; 31975.883521036678 ; 2902168.0031365277 ; 4572551.343508244 ; 0.0
144 ; 14670.002158896821 ; 31975.883521036678 ; 2917143.2256384245 ; 4604527.22702928 ; 0.0
145 ; 14560.601714337361 ; 31975.883521036678 ; 2931813.2277973215 ; 4636503.110550316 ; 0.0
146 ; 14386.090935692617 ; 31975.883521036678 ; 2946373.8295116588 ; 4668478.994071352 ; 0.0
147 ; 14436.519518010484 ; 31975.883521036678 ; 2960759.9204473514 ; 4700454.877592389 ; 0.0
148 ; 14231.453326001161 ; 31975.883521036678 ; 2975196.4399653617 ; 4732430.761113425 ; 0.0
149 ; 14059.016311176258 ; 31975.883521036678 ; 2989427.893291363 ; 4764406.644634461 ; 0.0
150 ; 14058.024138424726 ; 31975.883521036678 ; 3003486.909602539 ; 4796382.528155497 ; 0.0
151 ; 13972.353932571314 ; 31975.883521036678 ; 3017544.9337409637 ; 4828358.4116765335 ; 0.0
152 ; 13822.288901108912 ; 31975.883521036678 ; 3031517.287673535 ; 4860334.29519757 ; 0.0
153 ; 13596.255215626745 ; 31975.883521036678 ; 3045339.5765746436 ; 4892310.178718606 ; 0.0
154 ; 13500.84651615927 ; 31975.883521036678 ; 3058935.8317902703 ; 4924286.062239642 ; 0.0
155 ; 13338.073773003183 ; 31975.883521036678 ; 3072436.6783064296 ; 4956261.9457606785 ; 0.0
156 ; 13364.876088913958 ; 31975.883521036678 ; 3085774.752079433 ; 4988237.829281715 ; 0.0
157 ; 13276.994444114396 ; 31975.883521036678 ; 3099139.628168347 ; 5020213.712802751 ; 0.0
158 ; 12992.702068274879 ; 31975.883521036678 ; 3112416.6226124614 ; 5052189.596323787 ; 0.0
159 ; 12844.89844518371 ; 31975.883521036678 ; 3125409.3246807363 ; 5084165.4798448235 ; 0.0
160 ; 12881.342233895231 ; 31975.883521036678 ; 3138254.22312592 ; 5116141.36336586 ; 0.0
161 ; 12479.367701283785 ; 31975.883521036678 ; 3151135.5653598155 ; 5148117.246886896 ; 0.0
162 ; 12549.067001768188 ; 31975.883521036678 ; 3163614.933061099 ; 5180093.130407932 ; 0.0
163 ; 12350.047501814634 ; 31975.883521036678 ; 3176164.0000628675 ; 5212069.013928968 ; 0.0
164 ; 12291.816226213577 ; 31975.883521036678 ; 3188514.047564682 ; 5244044.897450005 ; 0.0
165 ; 12042.907674208458 ; 31975.883521036678 ; 3200805.863790896 ; 5276020.780971041 ; 0.0
166 ; 11962.063232561348 ; 31975.883521036678 ; 3212848.771465104 ; 5307996.664492077 ; 0.0
167 ; 11835.296598640587 ; 31975.883521036678 ; 3224810.8346976656 ; 5339972.548013113 ; 0.0
168 ; 11687.668886157202 ; 31975.883521036678 ; 3236646.1312963064 ; 5371948.43153415 ; 0.0
169 ; 11510.804644627944 ; 31975.883521036678 ; 3248333.8001824636 ; 5403924.315055186 ; 0.0
170 ; 11330.244398899289 ; 31975.883521036678 ; 3259844.6048270916 ; 5435900.198576222 ; 0.0
171 ; 11130.86271405009 ; 31975.883521036678 ; 3271174.849225991 ; 5467876.082097258 ; 0.0
172 ; 10980.887528927653 ; 31975.883521036678 ; 3282305.711940041 ; 5499851.965618295 ; 0.0
173 ; 10901.355915423284 ; 31975.883521036678 ; 3293286.5994689683 ; 5531827.849139331 ; 0.0
174 ; 10823.192800715104 ; 31975.883521036678 ; 3304187.955384392 ; 5563803.732660367 ; 0.0
175 ; 11064.962390066634 ; 31975.883521036678 ; 3315011.148185107 ; 5595779.616181403 ; 0.0
176 ; 11055.687569121119 ; 31975.883521036678 ; 3326076.1105751735 ; 5627755.49970244 ; 0.0
177 ; 11124.655635364457 ; 31975.883521036678 ; 3337131.7981442944 ; 5659731.383223476 ; 0.0
178 ; 11075.528443589303 ; 31975.883521036678 ; 3348256.453779659 ; 5691707.266744512 ; 0.0
179 ; 10958.222138081304 ; 31975.883521036678 ; 3359331.982223248 ; 5723683.150265548 ; 0.0
180 ; 11260.146922443115 ; 31975.883521036678 ; 3370290.2043613293 ; 5755659.033786585 ; 0.0
181 ; 11147.063162933911 ; 31975.883521036678 ; 3381550.3512837724 ; 5787634.917307621 ; 0.0
182 ; 11214.600701691661 ; 31975.883521036678 ; 3392697.4144467064 ; 5819610.800828657 ; 0.0
183 ; 11127.160745894576 ; 31975.883521036678 ; 3403912.015148398 ; 5851586.684349693 ; 0.0
184 ; 11271.322968105258 ; 31975.883521036678 ; 3415039.1758942925 ; 5883562.56787073 ; 0.0
185 ; 11236.133127122503 ; 31975.883521036678 ; 3426310.498862398 ; 5915538.451391766 ; 0.0
186 ; 11410.565618637776 ; 31975.883521036678 ; 3437546.6319895205 ; 5947514.334912802 ; 0.0
187 ; 11492.486917854429 ; 31975.883521036678 ; 3448957.1976081585 ; 5979490.218433838 ; 0.0
188 ; 11257.641549217282 ; 31975.883521036678 ; 3460449.6845260127 ; 6011466.101954875 ; 0.0
189 ; 11294.755446888397 ; 31975.883521036678 ; 3471707.32607523 ; 6043441.985475911 ; 0.0
190 ; 11344.583087590932 ; 31975.883521036678 ; 3483002.0815221183 ; 6075417.868996947 ; 0.0
191 ; 11444.035597243499 ; 31975.883521036678 ; 3494346.6646097093 ; 6107393.752517983 ; 0.0
192 ; 11578.918767093743 ; 31975.883521036678 ; 3505790.7002069526 ; 6139369.63603902 ; 0.0
193 ; 11480.439832857042 ; 31975.883521036678 ; 3517369.6189740463 ; 6171345.519560056 ; 0.0
194 ; 11355.15840836039 ; 31975.883521036678 ; 3528850.058806903 ; 6203321.403081092 ; 0.0
195 ; 11651.909655916283 ; 31975.883521036678 ; 3540205.2172152638 ; 6235297.286602128 ; 0.0
196 ; 11622.00893142312 ; 31975.883521036678 ; 3551857.1268711803 ; 6267273.170123165 ; 0.0
197 ; 11724.519587895484 ; 31975.883521036678 ; 3563479.1358026033 ; 6299249.053644201 ; 0.0
198 ; 11681.170536071055 ; 31975.883521036678 ; 3575203.6553904987 ; 6331224.937165237 ; 0.0
199 ; 11729.647736065985 ; 31975.883521036678 ; 3586884.8259265698 ; 6363200.820686273 ; 0.0
200 ; 11635.99513552327 ; 31975.883521036678 ; 3598614.473662636 ; 6395176.7042073095 ; 0.0
201 ; 11537.24636395397 ; 31975.883521036678 ; 3610250.468798159 ; 6427152.587728346 ; 0.0
202 ; 11672.645430672075 ; 31975.883521036678 ; 3621787.7151621133 ; 6459128.471249382 ; 0.0
203 ; 11667.943915044774 ; 31975.883521036678 ; 3633460.3605927853 ; 6491104.354770418 ; 0.0
204 ; 11730.852441421788 ; 31975.883521036678 ; 3645128.30450783 ; 6523080.2382914545 ; 0.0
205 ; 11944.11289750672 ; 31975.883521036678 ; 3656859.156949252 ; 6555056.121812491 ; 0.0
206 ; 11828.219691071536 ; 31975.883521036678 ; 3668803.269846759 ; 6587032.005333527 ; 0.0
207 ; 11914.095587954114 ; 31975.883521036678 ; 3680631.4895378305 ; 6619007.888854563 ; 0.0
208 ; 11790.911464755796 ; 31975.883521036678 ; 3692545.5851257844 ; 6650983.7723755995 ; 0.0
209 ; 11922.47434354373 ; 31975.883521036678 ; 3704336.4965905403 ; 6682959.655896636 ; 0.0
210 ; 11962.246670666607 ; 31975.883521036678 ; 3716258.970934084 ; 6714935.539417672 ; 0.0
211 ; 12081.073893705785 ; 31975.883521036678 ; 3728221.217604751 ; 6746911.422938708 ; 0.0
212 ; 12100.315976605185 ; 31975.883521036678 ; 3740302.2914984566 ; 6778887.306459744 ; 0.0
213 ; 11924.990801650194 ; 31975.883521036678 ; 3752402.607475062 ; 6810863.189980781 ; 0.0
