CSV File for the City 1 on Day 267
1 - Minute m 
2 - Power Consumed at minute m 
3 - Power Produced at minute m 
4 - Energy Consumed since the beginning of the day 
5 - Energy Produced since the beginning of the day 
6 - Energy Lost since the beginning of the day on lines starting from the city
 
0 ; 7361.796224195418 ; 3018.104791707272 ; 0.0 ; 0.0 ; 0.0
1 ; 7814.538136359838 ; 3018.104791707272 ; 7361.796224195418 ; 3018.104791707272 ; 238.00000000000003
2 ; 8470.442988698564 ; 3018.104791707272 ; 15176.334360555256 ; 6036.209583414544 ; 476.00000000000006
3 ; 8940.14715906036 ; 3018.104791707272 ; 23646.777349253818 ; 9054.314375121816 ; 714.0000000000001
4 ; 9462.43064969523 ; 3018.104791707272 ; 32586.92450831418 ; 12072.419166829088 ; 952.0000000000001
5 ; 9899.166449252682 ; 3018.104791707272 ; 42049.355158009406 ; 15090.52395853636 ; 1190.0000000000002
6 ; 10391.267110420175 ; 3018.104791707272 ; 51948.52160726209 ; 18108.62875024363 ; 1428.0000000000002
7 ; 11016.393034373137 ; 3018.104791707272 ; 62339.78871768226 ; 21126.733541950904 ; 1666.0000000000002
8 ; 11400.21343211734 ; 3018.104791707272 ; 73356.1817520554 ; 24144.838333658176 ; 1904.0000000000002
9 ; 11841.203942756283 ; 3018.104791707272 ; 84756.39518417274 ; 27162.943125365447 ; 2142.0000000000005
10 ; 12248.85055906594 ; 3018.104791707272 ; 96597.59912692902 ; 30181.04791707272 ; 2380.0000000000005
11 ; 12610.22839573228 ; 3018.104791707272 ; 108846.44968599497 ; 33199.15270877999 ; 2618.0000000000005
12 ; 13175.481499494606 ; 3018.104791707272 ; 121456.67808172725 ; 36217.25750048726 ; 2856.0000000000005
13 ; 13545.809785954654 ; 3018.104791707272 ; 134632.15958122187 ; 39235.362292194535 ; 3094.0000000000005
14 ; 14017.073941487399 ; 3018.104791707272 ; 148177.96936717653 ; 42253.46708390181 ; 3332.0000000000005
15 ; 14466.055500000008 ; 3018.104791707272 ; 162195.04330866394 ; 45271.57187560908 ; 3570.0000000000005
16 ; 14830.078550909813 ; 3018.104791707272 ; 176661.09880866396 ; 48289.67666731635 ; 3808.0000000000005
17 ; 15300.003591029446 ; 3018.104791707272 ; 191491.17735957378 ; 51307.78145902362 ; 4046.0000000000005
18 ; 15743.88103048182 ; 3018.104791707272 ; 206791.18095060322 ; 54325.886250730895 ; 4284.000000000001
19 ; 16157.604407872017 ; 3018.104791707272 ; 222535.06198108505 ; 57343.99104243817 ; 4522.000000000001
20 ; 16324.002991740768 ; 3018.104791707272 ; 238692.66638895706 ; 60362.09583414544 ; 4760.000000000001
21 ; 16870.453091788793 ; 3018.104791707272 ; 255016.66938069783 ; 63380.20062585271 ; 4998.000000000001
22 ; 17379.89847695637 ; 3018.104791707272 ; 271887.12247248663 ; 66398.30541755998 ; 5236.000000000001
23 ; 17716.02430627641 ; 3018.104791707272 ; 289267.020949443 ; 69416.41020926725 ; 5474.000000000001
24 ; 17941.582251258656 ; 3018.104791707272 ; 306983.0452557194 ; 72434.51500097453 ; 5712.000000000001
25 ; 18322.048062187525 ; 3018.104791707272 ; 324924.62750697805 ; 75452.6197926818 ; 5950.000000000001
26 ; 18794.742620365843 ; 3018.104791707272 ; 343246.67556916556 ; 78470.72458438907 ; 6188.000000000001
27 ; 19056.558343772922 ; 3018.104791707272 ; 362041.4181895314 ; 81488.82937609634 ; 6426.000000000001
28 ; 19558.643440206386 ; 3018.104791707272 ; 381097.9765333043 ; 84506.93416780361 ; 6664.000000000001
29 ; 19705.46351559806 ; 3018.104791707272 ; 400656.6199735107 ; 87525.03895951089 ; 6902.000000000001
30 ; 20133.80659289503 ; 3018.104791707272 ; 420362.0834891087 ; 90543.14375121816 ; 7140.000000000001
31 ; 20509.525668466005 ; 3018.104791707272 ; 440495.8900820037 ; 93561.24854292543 ; 7378.000000000001
32 ; 20661.536356608587 ; 3018.104791707272 ; 461005.4157504697 ; 96579.3533346327 ; 7616.000000000001
33 ; 20998.179052527546 ; 3018.104791707272 ; 481666.9521070783 ; 99597.45812633997 ; 7854.000000000001
34 ; 21388.23805660451 ; 3018.104791707272 ; 502665.1311596058 ; 102615.56291804725 ; 8092.000000000001
35 ; 21522.68468298363 ; 3018.104791707272 ; 524053.3692162103 ; 105633.66770975452 ; 8330.000000000002
36 ; 22107.92703861651 ; 3018.104791707272 ; 545576.053899194 ; 108651.77250146179 ; 8568.000000000002
37 ; 22300.30738178758 ; 3018.104791707272 ; 567683.9809378105 ; 111669.87729316906 ; 8806.000000000002
38 ; 22472.469376713947 ; 3018.104791707272 ; 589984.2883195981 ; 114687.98208487633 ; 9044.000000000002
39 ; 22703.404312124592 ; 3018.104791707272 ; 612456.757696312 ; 117706.0868765836 ; 9282.000000000002
40 ; 23130.767921839884 ; 3018.104791707272 ; 635160.1620084366 ; 120724.19166829088 ; 9520.000000000002
41 ; 23430.973319779983 ; 3018.104791707272 ; 658290.9299302765 ; 123742.29645999815 ; 9758.000000000002
42 ; 23557.050301643834 ; 3018.104791707272 ; 681721.9032500564 ; 126760.40125170542 ; 9996.000000000002
43 ; 23824.56035420425 ; 3018.104791707272 ; 705278.9535517002 ; 129778.5060434127 ; 10234.000000000002
44 ; 23964.04672558957 ; 3018.104791707272 ; 729103.5139059045 ; 132796.61083511997 ; 10472.000000000002
45 ; 24289.25329339658 ; 3018.104791707272 ; 753067.560631494 ; 135814.71562682724 ; 10710.000000000002
46 ; 24598.003850553534 ; 3018.104791707272 ; 777356.8139248906 ; 138832.8204185345 ; 10948.000000000002
47 ; 24743.37547133165 ; 3018.104791707272 ; 801954.8177754441 ; 141850.92521024178 ; 11186.000000000002
48 ; 25129.828651323514 ; 3018.104791707272 ; 826698.1932467758 ; 144869.03000194905 ; 11424.000000000002
49 ; 25122.736438908407 ; 3018.104791707272 ; 851828.0218980993 ; 147887.13479365633 ; 11662.000000000002
50 ; 25284.755715287873 ; 3018.104791707272 ; 876950.7583370077 ; 150905.2395853636 ; 11900.000000000002
51 ; 25637.48226622092 ; 3018.104791707272 ; 902235.5140522956 ; 153923.34437707087 ; 12138.000000000002
52 ; 25635.77512742603 ; 3018.104791707272 ; 927872.9963185166 ; 156941.44916877814 ; 12376.000000000002
53 ; 25868.93198694299 ; 3018.104791707272 ; 953508.7714459426 ; 159959.5539604854 ; 12614.000000000002
54 ; 26158.835923390816 ; 3018.104791707272 ; 979377.7034328856 ; 162977.65875219268 ; 12852.000000000002
55 ; 26215.13890810382 ; 3018.104791707272 ; 1005536.5393562764 ; 165995.76354389996 ; 13090.000000000002
56 ; 26504.769559717537 ; 3018.104791707272 ; 1031751.6782643802 ; 169013.86833560723 ; 13328.000000000002
57 ; 26648.73219533353 ; 3018.104791707272 ; 1058256.4478240977 ; 172031.9731273145 ; 13566.000000000002
58 ; 26625.182033317295 ; 3018.104791707272 ; 1084905.1800194313 ; 175050.07791902177 ; 13804.000000000002
59 ; 26901.75166828851 ; 3018.104791707272 ; 1111530.3620527487 ; 178068.18271072904 ; 14042.000000000002
60 ; 26995.09877892058 ; 3018.104791707272 ; 1138432.1137210373 ; 181086.28750243632 ; 14280.000000000002
61 ; 27183.41680939826 ; 3018.104791707272 ; 1165427.2124999578 ; 184104.3922941436 ; 14518.000000000002
62 ; 27356.281789227527 ; 3018.104791707272 ; 1192610.629309356 ; 187122.49708585086 ; 14756.000000000002
63 ; 27277.849740394813 ; 3018.104791707272 ; 1219966.9110985836 ; 190140.60187755813 ; 14994.000000000002
64 ; 27565.627395931304 ; 3018.104791707272 ; 1247244.7608389785 ; 193158.7066692654 ; 15232.000000000002
65 ; 27705.54249899182 ; 3018.104791707272 ; 1274810.3882349099 ; 196176.81146097268 ; 15470.000000000002
66 ; 27971.192371626796 ; 3018.104791707272 ; 1302515.9307339017 ; 199194.91625267995 ; 15708.000000000002
67 ; 27822.79367514114 ; 3018.104791707272 ; 1330487.1231055285 ; 202213.02104438722 ; 15946.000000000002
68 ; 27904.737326992927 ; 3018.104791707272 ; 1358309.9167806697 ; 205231.1258360945 ; 16184.000000000002
69 ; 28044.47594283183 ; 3018.104791707272 ; 1386214.6541076626 ; 208249.23062780176 ; 16422.000000000004
70 ; 27979.617077690327 ; 3018.104791707272 ; 1414259.1300504943 ; 211267.33541950904 ; 16660.000000000004
71 ; 28071.464685153336 ; 3018.104791707272 ; 1442238.7471281847 ; 214285.4402112163 ; 16898.000000000004
72 ; 28210.12728344362 ; 3018.104791707272 ; 1470310.211813338 ; 217303.54500292358 ; 17136.000000000004
73 ; 28193.083794737217 ; 3018.104791707272 ; 1498520.3390967818 ; 220321.64979463085 ; 17374.000000000004
74 ; 28530.119633180057 ; 3018.104791707272 ; 1526713.422891519 ; 223339.75458633812 ; 17612.000000000004
75 ; 28392.325774990528 ; 3018.104791707272 ; 1555243.5425246991 ; 226357.8593780454 ; 17850.000000000004
76 ; 28505.251813148352 ; 3018.104791707272 ; 1583635.8682996896 ; 229375.96416975267 ; 18088.000000000004
77 ; 28380.792033835143 ; 3018.104791707272 ; 1612141.120112838 ; 232394.06896145994 ; 18326.000000000004
78 ; 28439.414848426088 ; 3018.104791707272 ; 1640521.912146673 ; 235412.1737531672 ; 18564.000000000004
79 ; 28615.78101331506 ; 3018.104791707272 ; 1668961.3269950992 ; 238430.27854487448 ; 18802.000000000004
80 ; 28506.228507659613 ; 3018.104791707272 ; 1697577.1080084143 ; 241448.38333658176 ; 19040.000000000004
81 ; 28529.15368738109 ; 3018.104791707272 ; 1726083.336516074 ; 244466.48812828903 ; 19278.000000000004
82 ; 28447.00853519485 ; 3018.104791707272 ; 1754612.490203455 ; 247484.5929199963 ; 19516.000000000004
83 ; 28465.54513719784 ; 3018.104791707272 ; 1783059.49873865 ; 250502.69771170357 ; 19754.000000000004
84 ; 28456.31504415396 ; 3018.104791707272 ; 1811525.043875848 ; 253520.80250341084 ; 19992.000000000004
85 ; 28658.508647815244 ; 3018.104791707272 ; 1839981.358920002 ; 256538.90729511812 ; 20230.000000000004
86 ; 28573.4774993116 ; 3018.104791707272 ; 1868639.8675678172 ; 259557.0120868254 ; 20468.000000000004
87 ; 28632.015062827693 ; 3018.104791707272 ; 1897213.3450671288 ; 262575.1168785327 ; 20706.000000000004
88 ; 28370.63478221051 ; 3018.104791707272 ; 1925845.3601299564 ; 265593.22167023993 ; 20944.000000000004
89 ; 28371.53730302545 ; 3018.104791707272 ; 1954215.9949121668 ; 268611.3264619472 ; 21182.000000000004
90 ; 28273.673315536795 ; 3018.104791707272 ; 1982587.5322151922 ; 271629.4312536544 ; 21420.000000000004
91 ; 28592.818720905336 ; 3018.104791707272 ; 2010861.205530729 ; 274647.53604536166 ; 21658.000000000004
92 ; 28279.472693196585 ; 3018.104791707272 ; 2039454.0242516343 ; 277665.6408370689 ; 21896.000000000004
93 ; 28298.17556423429 ; 3018.104791707272 ; 2067733.4969448308 ; 280683.74562877615 ; 22134.000000000004
94 ; 28020.891935283853 ; 3018.104791707272 ; 2096031.6725090651 ; 283701.8504204834 ; 22372.000000000004
95 ; 27985.576788417886 ; 3018.104791707272 ; 2124052.564444349 ; 286719.95521219063 ; 22610.000000000004
96 ; 27883.703323467114 ; 3018.104791707272 ; 2152038.141232767 ; 289738.0600038979 ; 22848.000000000004
97 ; 27896.043246905483 ; 3018.104791707272 ; 2179921.8445562343 ; 292756.1647956051 ; 23086.000000000004
98 ; 27747.26285239473 ; 3018.104791707272 ; 2207817.8878031396 ; 295774.26958731236 ; 23324.000000000004
99 ; 27556.79582063615 ; 3018.104791707272 ; 2235565.1506555346 ; 298792.3743790196 ; 23562.000000000004
100 ; 27422.107720035772 ; 3018.104791707272 ; 2263121.946476171 ; 301810.47917072685 ; 23800.000000000004
101 ; 27505.18706928896 ; 3018.104791707272 ; 2290544.0541962064 ; 304828.5839624341 ; 24038.000000000004
102 ; 27397.32365495722 ; 3018.104791707272 ; 2318049.2412654953 ; 307846.68875414133 ; 24276.000000000004
103 ; 27102.697395291187 ; 3018.104791707272 ; 2345446.5649204524 ; 310864.7935458486 ; 24514.000000000004
104 ; 26925.034422510336 ; 3018.104791707272 ; 2372549.2623157436 ; 313882.8983375558 ; 24752.000000000004
105 ; 26941.63659502316 ; 3018.104791707272 ; 2399474.296738254 ; 316901.00312926306 ; 24990.000000000004
106 ; 26650.25669284439 ; 3018.104791707272 ; 2426415.9333332772 ; 319919.1079209703 ; 25228.000000000004
107 ; 26698.933998599638 ; 3018.104791707272 ; 2453066.1900261217 ; 322937.21271267754 ; 25466.000000000004
108 ; 26538.83619167458 ; 3018.104791707272 ; 2479765.1240247213 ; 325955.3175043848 ; 25704.000000000004
109 ; 26242.33947421476 ; 3018.104791707272 ; 2506303.960216396 ; 328973.42229609203 ; 25942.000000000004
110 ; 26067.853781631737 ; 3018.104791707272 ; 2532546.2996906107 ; 331991.5270877993 ; 26180.000000000004
111 ; 25993.607111215413 ; 3018.104791707272 ; 2558614.1534722424 ; 335009.6318795065 ; 26418.000000000004
112 ; 25630.05619576609 ; 3018.104791707272 ; 2584607.760583458 ; 338027.73667121376 ; 26656.000000000004
113 ; 25691.951383694155 ; 3018.104791707272 ; 2610237.816779224 ; 341045.841462921 ; 26894.000000000004
114 ; 25423.23885703182 ; 3018.104791707272 ; 2635929.7681629183 ; 344063.94625462824 ; 27132.000000000004
115 ; 25127.20880467582 ; 3018.104791707272 ; 2661353.00701995 ; 347082.0510463355 ; 27370.000000000004
116 ; 24960.473164750496 ; 3018.104791707272 ; 2686480.215824626 ; 350100.15583804273 ; 27608.000000000004
117 ; 24734.709016094013 ; 3018.104791707272 ; 2711440.6889893766 ; 353118.26062975 ; 27846.000000000004
118 ; 24541.936083594344 ; 3018.104791707272 ; 2736175.3980054706 ; 356136.3654214572 ; 28084.000000000004
119 ; 24193.15825784478 ; 3018.104791707272 ; 2760717.334089065 ; 359154.47021316446 ; 28322.000000000004
120 ; 23938.34443255688 ; 3018.104791707272 ; 2784910.49234691 ; 362172.5750048717 ; 28560.000000000004
121 ; 23684.71113509043 ; 3018.104791707272 ; 2808848.836779467 ; 365190.67979657894 ; 28798.000000000004
122 ; 23503.522222671174 ; 3018.104791707272 ; 2832533.547914557 ; 368208.7845882862 ; 29036.000000000004
123 ; 23239.99780003126 ; 3018.104791707272 ; 2856037.0701372284 ; 371226.88937999343 ; 29274.000000000004
124 ; 22775.009089839594 ; 3018.104791707272 ; 2879277.0679372596 ; 374244.9941717007 ; 29512.000000000004
125 ; 22740.373270099153 ; 3018.104791707272 ; 2902052.077027099 ; 377263.0989634079 ; 29750.000000000004
126 ; 22366.347340554752 ; 3018.104791707272 ; 2924792.4502971983 ; 380281.20375511516 ; 29988.000000000004
127 ; 22352.050694514684 ; 3018.104791707272 ; 2947158.797637753 ; 383299.3085468224 ; 30226.000000000004
128 ; 21869.43043093481 ; 3018.104791707272 ; 2969510.8483322677 ; 386317.41333852964 ; 30464.000000000004
129 ; 21535.105570508036 ; 3018.104791707272 ; 2991380.2787632025 ; 389335.5181302369 ; 30702.000000000004
130 ; 21156.64657706958 ; 3018.104791707272 ; 3012915.3843337107 ; 392353.62292194413 ; 30940.000000000004
131 ; 21126.423790062636 ; 3018.104791707272 ; 3034072.03091078 ; 395371.7277136514 ; 31178.000000000004
132 ; 20634.26761738313 ; 3018.104791707272 ; 3055198.454700843 ; 398389.8325053586 ; 31416.000000000004
133 ; 20346.89149344767 ; 3018.104791707272 ; 3075832.722318226 ; 401407.93729706586 ; 31654.000000000004
134 ; 20019.798538814153 ; 3018.104791707272 ; 3096179.6138116736 ; 404426.0420887731 ; 31892.000000000004
135 ; 19514.66290933634 ; 3018.104791707272 ; 3116199.412350488 ; 407444.14688048034 ; 32130.000000000004
136 ; 19436.67102668929 ; 3018.104791707272 ; 3135714.0752598243 ; 410462.2516721876 ; 32368.000000000004
137 ; 18987.41656355564 ; 3018.104791707272 ; 3155150.7462865137 ; 413480.35646389483 ; 32606.000000000004
138 ; 18912.012105311333 ; 3018.104791707272 ; 3174138.1628500693 ; 416498.4612556021 ; 32844.00000000001
139 ; 18368.63765535235 ; 3018.104791707272 ; 3193050.1749553806 ; 419516.5660473093 ; 33082.00000000001
140 ; 17924.193906318687 ; 3018.104791707272 ; 3211418.812610733 ; 422534.67083901656 ; 33320.00000000001
141 ; 17820.211878577444 ; 3018.104791707272 ; 3229343.0065170517 ; 425552.7756307238 ; 33558.00000000001
142 ; 17203.343590460794 ; 3018.104791707272 ; 3247163.218395629 ; 428570.88042243104 ; 33796.00000000001
143 ; 17098.844226442543 ; 3018.104791707272 ; 3264366.5619860897 ; 431588.9852141383 ; 34034.00000000001
144 ; 16458.005041735378 ; 3018.104791707272 ; 3281465.4062125324 ; 434607.09000584553 ; 34272.00000000001
145 ; 16348.817785670784 ; 3018.104791707272 ; 3297923.4112542677 ; 437625.1947975528 ; 34510.00000000001
146 ; 16312.900822323914 ; 3018.104791707272 ; 3314272.2290399387 ; 440643.29958926 ; 34748.00000000001
147 ; 15984.848947959545 ; 3018.104791707272 ; 3330585.1298622624 ; 443661.40438096726 ; 34986.00000000001
148 ; 16027.864949289935 ; 3018.104791707272 ; 3346569.978810222 ; 446679.5091726745 ; 35224.00000000001
149 ; 15979.1082072159 ; 3018.104791707272 ; 3362597.8437595116 ; 449697.61396438174 ; 35462.00000000001
150 ; 15751.426719634066 ; 3018.104791707272 ; 3378576.9519667276 ; 452715.718756089 ; 35700.00000000001
151 ; 15679.975557738884 ; 3018.104791707272 ; 3394328.3786863615 ; 455733.82354779623 ; 35938.00000000001
152 ; 15422.097534225251 ; 3018.104791707272 ; 3410008.3542441004 ; 458751.9283395035 ; 36176.00000000001
153 ; 15434.10045597832 ; 3018.104791707272 ; 3425430.4517783257 ; 461770.0331312107 ; 36414.00000000001
154 ; 15371.773129186491 ; 3018.104791707272 ; 3440864.552234304 ; 464788.13792291796 ; 36652.00000000001
155 ; 15332.010317144648 ; 3018.104791707272 ; 3456236.3253634907 ; 467806.2427146252 ; 36890.00000000001
156 ; 15066.530726033356 ; 3018.104791707272 ; 3471568.335680635 ; 470824.34750633244 ; 37128.00000000001
157 ; 14832.741439351894 ; 3018.104791707272 ; 3486634.8664066684 ; 473842.4522980397 ; 37366.00000000001
158 ; 14709.334696909653 ; 3018.104791707272 ; 3501467.6078460203 ; 476860.55708974693 ; 37604.00000000001
159 ; 14411.119603430077 ; 3018.104791707272 ; 3516176.94254293 ; 479878.6618814542 ; 37842.00000000001
160 ; 14411.63146361041 ; 3018.104791707272 ; 3530588.06214636 ; 482896.7666731614 ; 38080.00000000001
161 ; 14312.41934512215 ; 3018.104791707272 ; 3544999.6936099706 ; 485914.87146486866 ; 38318.00000000001
162 ; 13964.183623643372 ; 3018.104791707272 ; 3559312.112955093 ; 488932.9762565759 ; 38556.00000000001
163 ; 14087.664865783185 ; 3018.104791707272 ; 3573276.2965787365 ; 491951.08104828314 ; 38794.00000000001
164 ; 13960.275432496595 ; 3018.104791707272 ; 3587363.96144452 ; 494969.1858399904 ; 39032.00000000001
165 ; 13611.930737350827 ; 3018.104791707272 ; 3601324.2368770167 ; 497987.29063169763 ; 39270.00000000001
166 ; 13377.548930339133 ; 3018.104791707272 ; 3614936.1676143673 ; 501005.3954234049 ; 39508.00000000001
167 ; 13340.580899107268 ; 3018.104791707272 ; 3628313.7165447064 ; 504023.5002151121 ; 39746.00000000001
168 ; 13363.307653591277 ; 3018.104791707272 ; 3641654.2974438136 ; 507041.60500681936 ; 39984.00000000001
169 ; 13133.92237423679 ; 3018.104791707272 ; 3655017.605097405 ; 510059.7097985266 ; 40222.00000000001
170 ; 12868.178069192989 ; 3018.104791707272 ; 3668151.527471642 ; 513077.81459023384 ; 40460.00000000001
171 ; 12836.013403795685 ; 3018.104791707272 ; 3681019.705540835 ; 516095.9193819411 ; 40698.00000000001
172 ; 12501.74739092582 ; 3018.104791707272 ; 3693855.7189446306 ; 519114.02417364833 ; 40936.00000000001
173 ; 12425.97703729822 ; 3018.104791707272 ; 3706357.4663355565 ; 522132.1289653556 ; 41174.00000000001
174 ; 12647.054685346402 ; 3018.104791707272 ; 3718783.4433728545 ; 525150.2337570628 ; 41412.00000000001
175 ; 12360.67380903054 ; 3018.104791707272 ; 3731430.498058201 ; 528168.33854877 ; 41650.00000000001
176 ; 12547.618272426535 ; 3018.104791707272 ; 3743791.1718672314 ; 531186.4433404773 ; 41888.00000000001
177 ; 12641.975688368397 ; 3018.104791707272 ; 3756338.790139658 ; 534204.5481321845 ; 42126.00000000001
178 ; 12588.275322839943 ; 3018.104791707272 ; 3768980.7658280265 ; 537222.6529238918 ; 42364.00000000001
179 ; 12577.442473111172 ; 3018.104791707272 ; 3781569.0411508665 ; 540240.757715599 ; 42602.00000000001
180 ; 12870.08034446062 ; 3018.104791707272 ; 3794146.4836239778 ; 543258.8625073063 ; 42840.00000000001
181 ; 12707.644109773122 ; 3018.104791707272 ; 3807016.563968438 ; 546276.9672990135 ; 43078.00000000001
182 ; 12649.076267519395 ; 3018.104791707272 ; 3819724.208078211 ; 549295.0720907208 ; 43316.00000000001
183 ; 12735.966941811519 ; 3018.104791707272 ; 3832373.2843457307 ; 552313.176882428 ; 43554.00000000001
184 ; 12865.398189104835 ; 3018.104791707272 ; 3845109.2512875423 ; 555331.2816741352 ; 43792.00000000001
185 ; 12669.148416433289 ; 3018.104791707272 ; 3857974.649476647 ; 558349.3864658425 ; 44030.00000000001
186 ; 12771.763137622906 ; 3018.104791707272 ; 3870643.7978930804 ; 561367.4912575497 ; 44268.00000000001
