CSV File for the City 2 on Day 220
1 - Minute m 
2 - Power Consumed at minute m 
3 - Power Produced at minute m 
4 - Energy Consumed since the beginning of the day 
5 - Energy Produced since the beginning of the day 
6 - Energy Lost since the beginning of the day on lines starting from the city
 
0 ; 4611.19688050913 ; 34272.73154994209 ; 0.0 ; 0.0 ; 0.0
1 ; 5078.477798502894 ; 34272.73154994209 ; 4611.19688050913 ; 34272.73154994209 ; 0.0
2 ; 5732.2884396873305 ; 34272.73154994209 ; 9689.674679012023 ; 68545.46309988417 ; 0.0
3 ; 6304.250393858595 ; 34272.73154994209 ; 15421.963118699354 ; 102818.19464982627 ; 0.0
4 ; 6852.309194888442 ; 34272.73154994209 ; 21726.213512557948 ; 137090.92619976835 ; 0.0
5 ; 7509.281375226996 ; 34272.73154994209 ; 28578.52270744639 ; 171363.65774971043 ; 0.0
6 ; 7753.789529486505 ; 34272.73154994209 ; 36087.804082673385 ; 205636.3892996525 ; 0.0
7 ; 8585.331658787756 ; 34272.73154994209 ; 43841.59361215989 ; 239909.1208495946 ; 0.0
8 ; 8922.681457836872 ; 34272.73154994209 ; 52426.92527094765 ; 274181.8523995367 ; 0.0
9 ; 9574.316342507174 ; 34272.73154994209 ; 61349.60672878452 ; 308454.5839494788 ; 0.0
10 ; 10030.843741948573 ; 34272.73154994209 ; 70923.92307129169 ; 342727.3154994209 ; 0.0
11 ; 10560.314584083128 ; 34272.73154994209 ; 80954.76681324026 ; 377000.047049363 ; 0.0
12 ; 11053.353846404818 ; 34272.73154994209 ; 91515.08139732339 ; 411272.77859930514 ; 0.0
13 ; 11649.68551130058 ; 34272.73154994209 ; 102568.4352437282 ; 445545.51014924725 ; 0.0
14 ; 11876.685183721533 ; 34272.73154994209 ; 114218.1207550288 ; 479818.24169918936 ; 0.0
15 ; 12421.262257503235 ; 34272.73154994209 ; 126094.80593875033 ; 514090.97324913146 ; 0.0
16 ; 12971.002929449065 ; 34272.73154994209 ; 138516.06819625356 ; 548363.7047990735 ; 0.0
17 ; 13396.874757735148 ; 34272.73154994209 ; 151487.0711257026 ; 582636.4363490156 ; 0.0
18 ; 13941.74404786911 ; 34272.73154994209 ; 164883.94588343776 ; 616909.1678989576 ; 0.0
19 ; 14177.271032462326 ; 34272.73154994209 ; 178825.68993130687 ; 651181.8994488997 ; 0.0
20 ; 14728.011928419637 ; 34272.73154994209 ; 193002.9609637692 ; 685454.6309988417 ; 0.0
21 ; 15129.787141374389 ; 34272.73154994209 ; 207730.97289218885 ; 719727.3625487838 ; 0.0
22 ; 15579.1790871438 ; 34272.73154994209 ; 222860.76003356325 ; 754000.0940987258 ; 0.0
23 ; 16042.774164582073 ; 34272.73154994209 ; 238439.93912070704 ; 788272.8256486679 ; 0.0
24 ; 16438.261302508377 ; 34272.73154994209 ; 254482.71328528912 ; 822545.5571986099 ; 0.0
25 ; 16903.827014253642 ; 34272.73154994209 ; 270920.9745877975 ; 856818.288748552 ; 0.0
26 ; 17156.059804615645 ; 34272.73154994209 ; 287824.8016020511 ; 891091.020298494 ; 0.0
27 ; 17832.365054520327 ; 34272.73154994209 ; 304980.86140666675 ; 925363.7518484361 ; 0.0
28 ; 17935.78633693333 ; 34272.73154994209 ; 322813.22646118706 ; 959636.4833983781 ; 0.0
29 ; 18530.012533393772 ; 34272.73154994209 ; 340749.0127981204 ; 993909.2149483202 ; 0.0
30 ; 18558.65039183027 ; 34272.73154994209 ; 359279.02533151413 ; 1028181.9464982622 ; 0.0
31 ; 19171.489799564064 ; 34272.73154994209 ; 377837.6757233444 ; 1062454.6780482044 ; 0.0
32 ; 19432.93481227741 ; 34272.73154994209 ; 397009.16552290844 ; 1096727.4095981466 ; 0.0
33 ; 19841.805125534916 ; 34272.73154994209 ; 416442.1003351859 ; 1131000.1411480887 ; 0.0
34 ; 20089.0348482674 ; 34272.73154994209 ; 436283.9054607208 ; 1165272.872698031 ; 0.0
35 ; 20422.723235277364 ; 34272.73154994209 ; 456372.9403089882 ; 1199545.604247973 ; 0.0
36 ; 20991.17415412836 ; 34272.73154994209 ; 476795.66354426555 ; 1233818.3357979152 ; 0.0
37 ; 21145.654282918895 ; 34272.73154994209 ; 497786.8376983939 ; 1268091.0673478574 ; 0.0
38 ; 21480.774096013854 ; 34272.73154994209 ; 518932.4919813128 ; 1302363.7988977996 ; 0.0
39 ; 21755.57786310939 ; 34272.73154994209 ; 540413.2660773266 ; 1336636.5304477417 ; 0.0
40 ; 22058.484115572028 ; 34272.73154994209 ; 562168.843940436 ; 1370909.261997684 ; 0.0
41 ; 22234.761335120755 ; 34272.73154994209 ; 584227.3280560081 ; 1405181.993547626 ; 0.0
42 ; 22672.872490339683 ; 34272.73154994209 ; 606462.0893911289 ; 1439454.7250975682 ; 0.0
43 ; 23007.324968802663 ; 34272.73154994209 ; 629134.9618814685 ; 1473727.4566475104 ; 0.0
44 ; 23037.91578017959 ; 34272.73154994209 ; 652142.2868502712 ; 1508000.1881974526 ; 0.0
45 ; 23499.091966767202 ; 34272.73154994209 ; 675180.2026304507 ; 1542272.9197473947 ; 0.0
46 ; 23927.778890942813 ; 34272.73154994209 ; 698679.2945972179 ; 1576545.651297337 ; 0.0
47 ; 24080.615005828062 ; 34272.73154994209 ; 722607.0734881607 ; 1610818.382847279 ; 0.0
48 ; 24184.906251744706 ; 34272.73154994209 ; 746687.6884939888 ; 1645091.1143972212 ; 0.0
49 ; 24475.846530437815 ; 34272.73154994209 ; 770872.5947457335 ; 1679363.8459471634 ; 0.0
50 ; 24745.21064729759 ; 34272.73154994209 ; 795348.4412761714 ; 1713636.5774971056 ; 0.0
51 ; 24894.65755324659 ; 34272.73154994209 ; 820093.6519234689 ; 1747909.3090470477 ; 0.0
52 ; 25111.861461186752 ; 34272.73154994209 ; 844988.3094767155 ; 1782182.04059699 ; 0.0
53 ; 25203.8545352917 ; 34272.73154994209 ; 870100.1709379023 ; 1816454.772146932 ; 0.0
54 ; 25480.468682752515 ; 34272.73154994209 ; 895304.025473194 ; 1850727.5036968742 ; 0.0
55 ; 25632.851148591435 ; 34272.73154994209 ; 920784.4941559464 ; 1885000.2352468164 ; 0.0
56 ; 25957.428378460692 ; 34272.73154994209 ; 946417.3453045378 ; 1919272.9667967586 ; 0.0
57 ; 26142.896314957972 ; 34272.73154994209 ; 972374.7736829985 ; 1953545.6983467008 ; 0.0
58 ; 26278.876684450453 ; 34272.73154994209 ; 998517.6699979565 ; 1987818.429896643 ; 0.0
59 ; 26392.572071905277 ; 34272.73154994209 ; 1024796.5466824069 ; 2022091.161446585 ; 0.0
60 ; 26572.377002120298 ; 34272.73154994209 ; 1051189.1187543122 ; 2056363.8929965273 ; 0.0
61 ; 26711.92704485883 ; 34272.73154994209 ; 1077761.4957564324 ; 2090636.6245464694 ; 0.0
62 ; 27053.85759774169 ; 34272.73154994209 ; 1104473.4228012913 ; 2124909.3560964116 ; 0.0
63 ; 27155.60052761278 ; 34272.73154994209 ; 1131527.280399033 ; 2159182.0876463535 ; 0.0
64 ; 26933.30991004975 ; 34272.73154994209 ; 1158682.8809266458 ; 2193454.8191962955 ; 0.0
65 ; 27293.23278288698 ; 34272.73154994209 ; 1185616.1908366955 ; 2227727.5507462374 ; 0.0
66 ; 27374.61285292425 ; 34272.73154994209 ; 1212909.4236195826 ; 2262000.2822961793 ; 0.0
67 ; 27341.736416194544 ; 34272.73154994209 ; 1240284.0364725068 ; 2296273.0138461213 ; 0.0
68 ; 27562.402505121874 ; 34272.73154994209 ; 1267625.7728887014 ; 2330545.745396063 ; 0.0
69 ; 27687.914836885193 ; 34272.73154994209 ; 1295188.1753938233 ; 2364818.476946005 ; 0.0
70 ; 27927.423029927413 ; 34272.73154994209 ; 1322876.0902307085 ; 2399091.208495947 ; 0.0
71 ; 27870.847354670692 ; 34272.73154994209 ; 1350803.5132606358 ; 2433363.940045889 ; 0.0
72 ; 27899.426651689573 ; 34272.73154994209 ; 1378674.3606153065 ; 2467636.671595831 ; 0.0
73 ; 28063.230503397608 ; 34272.73154994209 ; 1406573.7872669962 ; 2501909.403145773 ; 0.0
74 ; 28107.297683514367 ; 34272.73154994209 ; 1434637.0177703938 ; 2536182.134695715 ; 0.0
75 ; 28067.788879936266 ; 34272.73154994209 ; 1462744.3154539082 ; 2570454.8662456567 ; 0.0
76 ; 28196.539797502635 ; 34272.73154994209 ; 1490812.1043338445 ; 2604727.5977955987 ; 0.0
77 ; 28082.125382161626 ; 34272.73154994209 ; 1519008.644131347 ; 2639000.3293455406 ; 0.0
78 ; 28188.200301568122 ; 34272.73154994209 ; 1547090.7695135088 ; 2673273.0608954825 ; 0.0
79 ; 28328.569044719246 ; 34272.73154994209 ; 1575278.9698150768 ; 2707545.7924454245 ; 0.0
80 ; 28529.4926129806 ; 34272.73154994209 ; 1603607.538859796 ; 2741818.5239953664 ; 0.0
81 ; 28332.699673282845 ; 34272.73154994209 ; 1632137.0314727766 ; 2776091.2555453083 ; 0.0
82 ; 28262.88111136761 ; 34272.73154994209 ; 1660469.7311460595 ; 2810363.9870952503 ; 0.0
83 ; 28343.895993249094 ; 34272.73154994209 ; 1688732.612257427 ; 2844636.718645192 ; 0.0
84 ; 28258.659790446487 ; 34272.73154994209 ; 1717076.508250676 ; 2878909.450195134 ; 0.0
85 ; 28239.635173063823 ; 34272.73154994209 ; 1745335.1680411226 ; 2913182.181745076 ; 0.0
86 ; 28362.287659184298 ; 34272.73154994209 ; 1773574.8032141863 ; 2947454.913295018 ; 0.0
87 ; 28183.425391906207 ; 34272.73154994209 ; 1801937.0908733706 ; 2981727.64484496 ; 0.0
88 ; 28224.022185229005 ; 34272.73154994209 ; 1830120.5162652768 ; 3016000.376394902 ; 0.0
89 ; 28155.214138279887 ; 34272.73154994209 ; 1858344.5384505058 ; 3050273.107944844 ; 0.0
90 ; 28149.050201648228 ; 34272.73154994209 ; 1886499.7525887857 ; 3084545.8394947858 ; 0.0
91 ; 28015.45707635712 ; 34272.73154994209 ; 1914648.8027904339 ; 3118818.5710447277 ; 0.0
92 ; 28153.93979433562 ; 34272.73154994209 ; 1942664.259866791 ; 3153091.3025946696 ; 0.0
93 ; 27806.534729443327 ; 34272.73154994209 ; 1970818.1996611266 ; 3187364.0341446116 ; 0.0
94 ; 27882.892366122018 ; 34272.73154994209 ; 1998624.7343905699 ; 3221636.7656945535 ; 0.0
95 ; 27691.27041441567 ; 34272.73154994209 ; 2026507.6267566918 ; 3255909.4972444954 ; 0.0
96 ; 27650.856901318944 ; 34272.73154994209 ; 2054198.8971711076 ; 3290182.2287944374 ; 0.0
97 ; 27676.401030500198 ; 34272.73154994209 ; 2081849.7540724266 ; 3324454.9603443793 ; 0.0
98 ; 27301.125561007015 ; 34272.73154994209 ; 2109526.155102927 ; 3358727.6918943212 ; 0.0
99 ; 27418.34029937074 ; 34272.73154994209 ; 2136827.2806639336 ; 3393000.423444263 ; 0.0
100 ; 27294.439831786418 ; 34272.73154994209 ; 2164245.6209633043 ; 3427273.154994205 ; 0.0
101 ; 27272.449811447932 ; 34272.73154994209 ; 2191540.0607950906 ; 3461545.886544147 ; 0.0
102 ; 26798.758754879836 ; 34272.73154994209 ; 2218812.5106065385 ; 3495818.618094089 ; 0.0
103 ; 26752.024210587966 ; 34272.73154994209 ; 2245611.269361418 ; 3530091.349644031 ; 0.0
104 ; 26724.827698602872 ; 34272.73154994209 ; 2272363.2935720063 ; 3564364.081193973 ; 0.0
105 ; 26625.405481919996 ; 34272.73154994209 ; 2299088.121270609 ; 3598636.812743915 ; 0.0
106 ; 26409.43871086561 ; 34272.73154994209 ; 2325713.526752529 ; 3632909.5442938567 ; 0.0
107 ; 26301.052064049454 ; 34272.73154994209 ; 2352122.9654633948 ; 3667182.2758437986 ; 0.0
108 ; 25913.570286789178 ; 34272.73154994209 ; 2378424.0175274443 ; 3701455.0073937406 ; 0.0
109 ; 25712.846936434922 ; 34272.73154994209 ; 2404337.5878142333 ; 3735727.7389436825 ; 0.0
110 ; 25654.915405405227 ; 34272.73154994209 ; 2430050.4347506682 ; 3770000.4704936245 ; 0.0
111 ; 25423.724276003304 ; 34272.73154994209 ; 2455705.3501560735 ; 3804273.2020435664 ; 0.0
112 ; 25188.67787525003 ; 34272.73154994209 ; 2481129.074432077 ; 3838545.9335935083 ; 0.0
113 ; 25011.406689533706 ; 34272.73154994209 ; 2506317.752307327 ; 3872818.6651434503 ; 0.0
114 ; 24835.984229751848 ; 34272.73154994209 ; 2531329.1589968605 ; 3907091.396693392 ; 0.0
115 ; 24571.511234341004 ; 34272.73154994209 ; 2556165.1432266124 ; 3941364.128243334 ; 0.0
116 ; 24402.45563491762 ; 34272.73154994209 ; 2580736.6544609535 ; 3975636.859793276 ; 0.0
117 ; 24146.613710189973 ; 34272.73154994209 ; 2605139.110095871 ; 4009909.591343218 ; 0.0
118 ; 23884.61740283974 ; 34272.73154994209 ; 2629285.7238060613 ; 4044182.32289316 ; 0.0
119 ; 23554.56536219397 ; 34272.73154994209 ; 2653170.3412089013 ; 4078455.054443102 ; 0.0
120 ; 23277.67362797763 ; 34272.73154994209 ; 2676724.9065710953 ; 4112727.785993044 ; 0.0
121 ; 23060.50689645953 ; 34272.73154994209 ; 2700002.580199073 ; 4147000.5175429857 ; 0.0
122 ; 22712.743162360093 ; 34272.73154994209 ; 2723063.0870955326 ; 4181273.2490929277 ; 0.0
123 ; 22368.467417541757 ; 34272.73154994209 ; 2745775.8302578926 ; 4215545.98064287 ; 0.0
124 ; 21997.026877270386 ; 34272.73154994209 ; 2768144.2976754345 ; 4249818.712192812 ; 0.0
125 ; 21822.728332392508 ; 34272.73154994209 ; 2790141.324552705 ; 4284091.443742754 ; 0.0
126 ; 21620.20803935758 ; 34272.73154994209 ; 2811964.0528850975 ; 4318364.175292696 ; 0.0
127 ; 21295.08718480085 ; 34272.73154994209 ; 2833584.2609244552 ; 4352636.906842638 ; 0.0
128 ; 20939.86252677123 ; 34272.73154994209 ; 2854879.348109256 ; 4386909.63839258 ; 0.0
129 ; 20681.15064614533 ; 34272.73154994209 ; 2875819.210636027 ; 4421182.369942522 ; 0.0
130 ; 20452.483386348682 ; 34272.73154994209 ; 2896500.3612821726 ; 4455455.101492464 ; 0.0
131 ; 19968.783304993285 ; 34272.73154994209 ; 2916952.844668521 ; 4489727.833042406 ; 0.0
132 ; 19588.074305563037 ; 34272.73154994209 ; 2936921.627973514 ; 4524000.5645923475 ; 0.0
133 ; 19240.0631862538 ; 34272.73154994209 ; 2956509.7022790774 ; 4558273.296142289 ; 0.0
134 ; 18814.42147436992 ; 34272.73154994209 ; 2975749.7654653313 ; 4592546.027692231 ; 0.0
135 ; 18581.429266132665 ; 34272.73154994209 ; 2994564.186939701 ; 4626818.759242173 ; 0.0
136 ; 18170.27382723819 ; 34272.73154994209 ; 3013145.616205834 ; 4661091.490792115 ; 0.0
137 ; 17865.301969182936 ; 34272.73154994209 ; 3031315.890033072 ; 4695364.222342057 ; 0.0
138 ; 17318.27735132204 ; 34272.73154994209 ; 3049181.192002255 ; 4729636.953891999 ; 0.0
139 ; 17016.82530681871 ; 34272.73154994209 ; 3066499.469353577 ; 4763909.685441941 ; 0.0
140 ; 16570.43356072608 ; 34272.73154994209 ; 3083516.294660396 ; 4798182.416991883 ; 0.0
141 ; 16192.2281090773 ; 34272.73154994209 ; 3100086.728221122 ; 4832455.148541825 ; 0.0
142 ; 15802.75737051028 ; 34272.73154994209 ; 3116278.9563301993 ; 4866727.880091767 ; 0.0
143 ; 15293.554258818893 ; 34272.73154994209 ; 3132081.7137007094 ; 4901000.611641709 ; 0.0
144 ; 14924.204017417338 ; 34272.73154994209 ; 3147375.267959528 ; 4935273.343191651 ; 0.0
145 ; 14760.740864892507 ; 34272.73154994209 ; 3162299.4719769456 ; 4969546.074741593 ; 0.0
146 ; 14734.900940220821 ; 34272.73154994209 ; 3177060.212841838 ; 5003818.806291535 ; 0.0
147 ; 14509.639494942181 ; 34272.73154994209 ; 3191795.113782059 ; 5038091.5378414765 ; 0.0
148 ; 14419.483873395737 ; 34272.73154994209 ; 3206304.753277001 ; 5072364.269391418 ; 0.0
149 ; 14373.757384397068 ; 34272.73154994209 ; 3220724.2371503967 ; 5106637.00094136 ; 0.0
150 ; 14071.436173217011 ; 34272.73154994209 ; 3235097.994534794 ; 5140909.732491302 ; 0.0
151 ; 14116.652059559143 ; 34272.73154994209 ; 3249169.4307080107 ; 5175182.464041244 ; 0.0
152 ; 13885.987097578412 ; 34272.73154994209 ; 3263286.08276757 ; 5209455.195591186 ; 0.0
153 ; 13764.347219222369 ; 34272.73154994209 ; 3277172.0698651485 ; 5243727.927141128 ; 0.0
154 ; 13601.1370456978 ; 34272.73154994209 ; 3290936.4170843707 ; 5278000.65869107 ; 0.0
155 ; 13605.771997998596 ; 34272.73154994209 ; 3304537.5541300685 ; 5312273.390241012 ; 0.0
156 ; 13281.435938051429 ; 34272.73154994209 ; 3318143.326128067 ; 5346546.121790954 ; 0.0
157 ; 13104.18971907029 ; 34272.73154994209 ; 3331424.7620661184 ; 5380818.853340896 ; 0.0
158 ; 13022.020685958112 ; 34272.73154994209 ; 3344528.9517851886 ; 5415091.584890838 ; 0.0
159 ; 13002.538789609212 ; 34272.73154994209 ; 3357550.972471147 ; 5449364.31644078 ; 0.0
160 ; 12733.985383113064 ; 34272.73154994209 ; 3370553.511260756 ; 5483637.047990722 ; 0.0
161 ; 12511.804965059504 ; 34272.73154994209 ; 3383287.4966438687 ; 5517909.779540664 ; 0.0
162 ; 12579.16914717111 ; 34272.73154994209 ; 3395799.301608928 ; 5552182.5110906055 ; 0.0
163 ; 12378.199976843754 ; 34272.73154994209 ; 3408378.470756099 ; 5586455.242640547 ; 0.0
164 ; 12061.723794218693 ; 34272.73154994209 ; 3420756.670732943 ; 5620727.974190489 ; 0.0
165 ; 11895.299006364128 ; 34272.73154994209 ; 3432818.3945271615 ; 5655000.705740431 ; 0.0
166 ; 12003.173392799086 ; 34272.73154994209 ; 3444713.693533526 ; 5689273.437290373 ; 0.0
167 ; 11688.541856629003 ; 34272.73154994209 ; 3456716.866926325 ; 5723546.168840315 ; 0.0
168 ; 11409.700093289048 ; 34272.73154994209 ; 3468405.408782954 ; 5757818.900390257 ; 0.0
169 ; 11299.561654029383 ; 34272.73154994209 ; 3479815.108876243 ; 5792091.631940199 ; 0.0
170 ; 11146.292848798505 ; 34272.73154994209 ; 3491114.670530272 ; 5826364.363490141 ; 0.0
171 ; 11072.526643991472 ; 34272.73154994209 ; 3502260.9633790706 ; 5860637.095040083 ; 0.0
172 ; 10740.37594371025 ; 34272.73154994209 ; 3513333.490023062 ; 5894909.826590025 ; 0.0
173 ; 10470.40801279325 ; 34272.73154994209 ; 3524073.865966772 ; 5929182.558139967 ; 0.0
174 ; 10532.671642819692 ; 34272.73154994209 ; 3534544.2739795656 ; 5963455.289689909 ; 0.0
175 ; 10572.29276407172 ; 34272.73154994209 ; 3545076.9456223855 ; 5997728.021239851 ; 0.0
176 ; 10692.108144742497 ; 34272.73154994209 ; 3555649.2383864573 ; 6032000.752789793 ; 0.0
177 ; 10801.198454937192 ; 34272.73154994209 ; 3566341.3465311998 ; 6066273.484339735 ; 0.0
178 ; 10962.065573321654 ; 34272.73154994209 ; 3577142.5449861367 ; 6100546.2158896765 ; 0.0
179 ; 10707.026734887677 ; 34272.73154994209 ; 3588104.6105594584 ; 6134818.947439618 ; 0.0
180 ; 10882.995842950791 ; 34272.73154994209 ; 3598811.637294346 ; 6169091.67898956 ; 0.0
181 ; 11099.931614443103 ; 34272.73154994209 ; 3609694.633137297 ; 6203364.410539502 ; 0.0
182 ; 10937.09704932849 ; 34272.73154994209 ; 3620794.56475174 ; 6237637.142089444 ; 0.0
183 ; 11038.620188504612 ; 34272.73154994209 ; 3631731.6618010686 ; 6271909.873639386 ; 0.0
184 ; 10862.128961281598 ; 34272.73154994209 ; 3642770.281989573 ; 6306182.605189328 ; 0.0
185 ; 10957.168688847145 ; 34272.73154994209 ; 3653632.4109508544 ; 6340455.33673927 ; 0.0
186 ; 11167.162064890696 ; 34272.73154994209 ; 3664589.5796397016 ; 6374728.068289212 ; 0.0
187 ; 11155.377373289994 ; 34272.73154994209 ; 3675756.7417045925 ; 6409000.799839154 ; 0.0
188 ; 11195.345703898063 ; 34272.73154994209 ; 3686912.1190778823 ; 6443273.531389096 ; 0.0
189 ; 11180.319794540017 ; 34272.73154994209 ; 3698107.4647817803 ; 6477546.262939038 ; 0.0
190 ; 11215.5808635389 ; 34272.73154994209 ; 3709287.78457632 ; 6511818.99448898 ; 0.0
191 ; 11173.95818019795 ; 34272.73154994209 ; 3720503.365439859 ; 6546091.726038922 ; 0.0
192 ; 11259.748004054085 ; 34272.73154994209 ; 3731677.323620057 ; 6580364.457588864 ; 0.0
193 ; 11359.120726197647 ; 34272.73154994209 ; 3742937.0716241114 ; 6614637.1891388055 ; 0.0
194 ; 11404.725307002947 ; 34272.73154994209 ; 3754296.192350309 ; 6648909.920688747 ; 0.0
195 ; 11465.895453279361 ; 34272.73154994209 ; 3765700.917657312 ; 6683182.652238689 ; 0.0
196 ; 11367.355291911676 ; 34272.73154994209 ; 3777166.8131105914 ; 6717455.383788631 ; 0.0
197 ; 11429.620354948027 ; 34272.73154994209 ; 3788534.1684025032 ; 6751728.115338573 ; 0.0
198 ; 11585.598089237521 ; 34272.73154994209 ; 3799963.7887574513 ; 6786000.846888515 ; 0.0
199 ; 11393.836464381844 ; 34272.73154994209 ; 3811549.386846689 ; 6820273.578438457 ; 0.0
200 ; 11572.27257780927 ; 34272.73154994209 ; 3822943.223311071 ; 6854546.309988399 ; 0.0
201 ; 11722.661690084706 ; 34272.73154994209 ; 3834515.49588888 ; 6888819.041538341 ; 0.0
202 ; 11433.362874060862 ; 34272.73154994209 ; 3846238.1575789647 ; 6923091.773088283 ; 0.0
203 ; 11771.15480044617 ; 34272.73154994209 ; 3857671.5204530256 ; 6957364.504638225 ; 0.0
204 ; 11675.887773945267 ; 34272.73154994209 ; 3869442.675253472 ; 6991637.236188167 ; 0.0
205 ; 11745.10141424519 ; 34272.73154994209 ; 3881118.5630274173 ; 7025909.967738109 ; 0.0
206 ; 11620.73592896219 ; 34272.73154994209 ; 3892863.6644416624 ; 7060182.699288051 ; 0.0
207 ; 11768.852820828843 ; 34272.73154994209 ; 3904484.4003706244 ; 7094455.430837993 ; 0.0
208 ; 11792.94401127447 ; 34272.73154994209 ; 3916253.2531914534 ; 7128728.1623879345 ; 0.0
209 ; 11855.422404953913 ; 34272.73154994209 ; 3928046.1972027277 ; 7163000.893937876 ; 0.0
210 ; 11958.486258150075 ; 34272.73154994209 ; 3939901.6196076814 ; 7197273.625487818 ; 0.0
211 ; 12033.087704074513 ; 34272.73154994209 ; 3951860.1058658315 ; 7231546.35703776 ; 0.0
212 ; 11954.967603333518 ; 34272.73154994209 ; 3963893.193569906 ; 7265819.088587702 ; 0.0
213 ; 11963.861554228395 ; 34272.73154994209 ; 3975848.1611732394 ; 7300091.820137644 ; 0.0
214 ; 12091.999210899841 ; 34272.73154994209 ; 3987812.0227274676 ; 7334364.551687586 ; 0.0
215 ; 12168.007910419301 ; 34272.73154994209 ; 3999904.0219383673 ; 7368637.283237528 ; 0.0
216 ; 12146.457116977033 ; 34272.73154994209 ; 4012072.0298487865 ; 7402910.01478747 ; 0.0
