CSV File for the City 2 on Day 215
1 - Minute m 
2 - Power Consumed at minute m 
3 - Power Produced at minute m 
4 - Energy Consumed since the beginning of the day 
5 - Energy Produced since the beginning of the day 
6 - Energy Lost since the beginning of the day on lines starting from the city
 
0 ; 4726.593392013383 ; 34549.222032810525 ; 0.0 ; 0.0 ; 0.0
1 ; 5335.220896944232 ; 34549.222032810525 ; 4726.593392013383 ; 34549.222032810525 ; 0.0
2 ; 5874.356750947417 ; 34549.222032810525 ; 10061.814288957616 ; 69098.44406562105 ; 0.0
3 ; 6414.551315274929 ; 34549.222032810525 ; 15936.171039905032 ; 103647.66609843157 ; 0.0
4 ; 6947.102474072025 ; 34549.222032810525 ; 22350.72235517996 ; 138196.8881312421 ; 0.0
5 ; 7483.842364737092 ; 34549.222032810525 ; 29297.824829251986 ; 172746.11016405263 ; 0.0
6 ; 7954.009538802876 ; 34549.222032810525 ; 36781.66719398908 ; 207295.33219686316 ; 0.0
7 ; 8646.208047241558 ; 34549.222032810525 ; 44735.67673279196 ; 241844.5542296737 ; 0.0
8 ; 9148.132927603643 ; 34549.222032810525 ; 53381.88478003352 ; 276393.7762624842 ; 0.0
9 ; 9781.264550412887 ; 34549.222032810525 ; 62530.01770763716 ; 310942.9982952947 ; 0.0
10 ; 10218.206301160852 ; 34549.222032810525 ; 72311.28225805005 ; 345492.2203281052 ; 0.0
11 ; 10742.007731048461 ; 34549.222032810525 ; 82529.4885592109 ; 380041.4423609157 ; 0.0
12 ; 11220.100695415633 ; 34549.222032810525 ; 93271.49629025937 ; 414590.6643937262 ; 0.0
13 ; 11776.719540255051 ; 34549.222032810525 ; 104491.596985675 ; 449139.8864265367 ; 0.0
14 ; 12179.601415925983 ; 34549.222032810525 ; 116268.31652593006 ; 483689.1084593472 ; 0.0
15 ; 12681.37894905782 ; 34549.222032810525 ; 128447.91794185604 ; 518238.3304921577 ; 0.0
16 ; 13104.874407335337 ; 34549.222032810525 ; 141129.29689091386 ; 552787.5525249683 ; 0.0
17 ; 13575.897237392666 ; 34549.222032810525 ; 154234.1712982492 ; 587336.7745577788 ; 0.0
18 ; 13817.534155461837 ; 34549.222032810525 ; 167810.06853564185 ; 621885.9965905894 ; 0.0
19 ; 14514.581654776177 ; 34549.222032810525 ; 181627.6026911037 ; 656435.2186234 ; 0.0
20 ; 14950.700852250586 ; 34549.222032810525 ; 196142.18434587988 ; 690984.4406562105 ; 0.0
21 ; 15309.788585573266 ; 34549.222032810525 ; 211092.88519813048 ; 725533.6626890211 ; 0.0
22 ; 15866.89775270627 ; 34549.222032810525 ; 226402.67378370374 ; 760082.8847218317 ; 0.0
23 ; 16263.581769436221 ; 34549.222032810525 ; 242269.57153641002 ; 794632.1067546422 ; 0.0
24 ; 16686.371907427183 ; 34549.222032810525 ; 258533.15330584624 ; 829181.3287874528 ; 0.0
25 ; 17066.1090170607 ; 34549.222032810525 ; 275219.5252132734 ; 863730.5508202633 ; 0.0
26 ; 17457.6629060132 ; 34549.222032810525 ; 292285.63423033414 ; 898279.7728530739 ; 0.0
27 ; 17908.500682866223 ; 34549.222032810525 ; 309743.29713634733 ; 932828.9948858845 ; 0.0
28 ; 18296.601869304577 ; 34549.222032810525 ; 327651.79781921353 ; 967378.216918695 ; 0.0
29 ; 18645.4387479367 ; 34549.222032810525 ; 345948.39968851814 ; 1001927.4389515056 ; 0.0
30 ; 19109.68167980221 ; 34549.222032810525 ; 364593.8384364548 ; 1036476.6609843161 ; 0.0
31 ; 19487.941054218667 ; 34549.222032810525 ; 383703.520116257 ; 1071025.8830171267 ; 0.0
32 ; 20021.00263132167 ; 34549.222032810525 ; 403191.4611704757 ; 1105575.1050499373 ; 0.0
33 ; 20192.489391995714 ; 34549.222032810525 ; 423212.46380179736 ; 1140124.3270827478 ; 0.0
34 ; 20536.39471173571 ; 34549.222032810525 ; 443404.9531937931 ; 1174673.5491155584 ; 0.0
35 ; 20872.88018306324 ; 34549.222032810525 ; 463941.3479055288 ; 1209222.771148369 ; 0.0
36 ; 21290.225629328947 ; 34549.222032810525 ; 484814.228088592 ; 1243771.9931811795 ; 0.0
37 ; 21504.665404622574 ; 34549.222032810525 ; 506104.45371792093 ; 1278321.21521399 ; 0.0
38 ; 21760.072138428368 ; 34549.222032810525 ; 527609.1191225435 ; 1312870.4372468006 ; 0.0
39 ; 22075.8349974216 ; 34549.222032810525 ; 549369.1912609718 ; 1347419.6592796112 ; 0.0
40 ; 22486.420824402074 ; 34549.222032810525 ; 571445.0262583934 ; 1381968.8813124218 ; 0.0
41 ; 22566.531378504813 ; 34549.222032810525 ; 593931.4470827956 ; 1416518.1033452323 ; 0.0
42 ; 22985.720398249294 ; 34549.222032810525 ; 616497.9784613004 ; 1451067.3253780429 ; 0.0
43 ; 23490.627173436354 ; 34549.222032810525 ; 639483.6988595497 ; 1485616.5474108534 ; 0.0
44 ; 23680.631213378092 ; 34549.222032810525 ; 662974.326032986 ; 1520165.769443664 ; 0.0
45 ; 23791.768373031227 ; 34549.222032810525 ; 686654.9572463641 ; 1554714.9914764746 ; 0.0
46 ; 24028.281758187037 ; 34549.222032810525 ; 710446.7256193953 ; 1589264.2135092851 ; 0.0
47 ; 24379.634047959385 ; 34549.222032810525 ; 734475.0073775823 ; 1623813.4355420957 ; 0.0
48 ; 24673.489313362723 ; 34549.222032810525 ; 758854.6414255416 ; 1658362.6575749062 ; 0.0
49 ; 24717.1931801648 ; 34549.222032810525 ; 783528.1307389044 ; 1692911.8796077168 ; 0.0
50 ; 25279.88733076754 ; 34549.222032810525 ; 808245.3239190691 ; 1727461.1016405274 ; 0.0
51 ; 25338.43298662209 ; 34549.222032810525 ; 833525.2112498367 ; 1762010.323673338 ; 0.0
52 ; 25525.419215407226 ; 34549.222032810525 ; 858863.6442364588 ; 1796559.5457061485 ; 0.0
53 ; 25639.419649744694 ; 34549.222032810525 ; 884389.063451866 ; 1831108.767738959 ; 0.0
54 ; 25956.1521991876 ; 34549.222032810525 ; 910028.4831016107 ; 1865657.9897717696 ; 0.0
55 ; 26141.408867914248 ; 34549.222032810525 ; 935984.6353007982 ; 1900207.2118045802 ; 0.0
56 ; 26354.655223623 ; 34549.222032810525 ; 962126.0441687125 ; 1934756.4338373907 ; 0.0
57 ; 26539.80670756438 ; 34549.222032810525 ; 988480.6993923355 ; 1969305.6558702013 ; 0.0
58 ; 26616.14640641883 ; 34549.222032810525 ; 1015020.5060998999 ; 2003854.8779030119 ; 0.0
59 ; 27094.07640356361 ; 34549.222032810525 ; 1041636.6525063188 ; 2038404.0999358224 ; 0.0
60 ; 27214.188149135272 ; 34549.222032810525 ; 1068730.7289098823 ; 2072953.321968633 ; 0.0
61 ; 27284.257328788666 ; 34549.222032810525 ; 1095944.9170590176 ; 2107502.5440014433 ; 0.0
62 ; 27480.869174237414 ; 34549.222032810525 ; 1123229.1743878063 ; 2142051.766034254 ; 0.0
63 ; 27412.993906889642 ; 34549.222032810525 ; 1150710.0435620437 ; 2176600.9880670644 ; 0.0
64 ; 27638.125602839013 ; 34549.222032810525 ; 1178123.0374689333 ; 2211150.210099875 ; 0.0
65 ; 27887.33141217499 ; 34549.222032810525 ; 1205761.1630717723 ; 2245699.4321326856 ; 0.0
66 ; 27876.45220856705 ; 34549.222032810525 ; 1233648.4944839473 ; 2280248.654165496 ; 0.0
67 ; 27946.984736537306 ; 34549.222032810525 ; 1261524.9466925142 ; 2314797.8761983067 ; 0.0
68 ; 28095.675879994746 ; 34549.222032810525 ; 1289471.9314290516 ; 2349347.0982311172 ; 0.0
69 ; 28212.238239159862 ; 34549.222032810525 ; 1317567.6073090462 ; 2383896.320263928 ; 0.0
70 ; 28250.64861670949 ; 34549.222032810525 ; 1345779.845548206 ; 2418445.5422967384 ; 0.0
71 ; 28322.756929592826 ; 34549.222032810525 ; 1374030.4941649155 ; 2452994.764329549 ; 0.0
72 ; 28453.418088177506 ; 34549.222032810525 ; 1402353.2510945085 ; 2487543.9863623595 ; 0.0
73 ; 28436.9332634577 ; 34549.222032810525 ; 1430806.669182686 ; 2522093.20839517 ; 0.0
74 ; 28507.998453701955 ; 34549.222032810525 ; 1459243.6024461435 ; 2556642.4304279806 ; 0.0
75 ; 28678.64363061747 ; 34549.222032810525 ; 1487751.6008998454 ; 2591191.652460791 ; 0.0
76 ; 28618.751995274535 ; 34549.222032810525 ; 1516430.244530463 ; 2625740.8744936017 ; 0.0
77 ; 28686.75377066903 ; 34549.222032810525 ; 1545048.9965257375 ; 2660290.0965264123 ; 0.0
78 ; 28761.927324907745 ; 34549.222032810525 ; 1573735.7502964064 ; 2694839.318559223 ; 0.0
79 ; 28896.719141321977 ; 34549.222032810525 ; 1602497.6776213143 ; 2729388.5405920334 ; 0.0
80 ; 28839.208356516585 ; 34549.222032810525 ; 1631394.3967626363 ; 2763937.762624844 ; 0.0
81 ; 28863.898142277467 ; 34549.222032810525 ; 1660233.605119153 ; 2798486.9846576545 ; 0.0
82 ; 28775.122758673217 ; 34549.222032810525 ; 1689097.5032614304 ; 2833036.206690465 ; 0.0
83 ; 28866.39772680383 ; 34549.222032810525 ; 1717872.6260201037 ; 2867585.4287232757 ; 0.0
84 ; 28738.558995818763 ; 34549.222032810525 ; 1746739.0237469075 ; 2902134.650756086 ; 0.0
85 ; 28929.27047214859 ; 34549.222032810525 ; 1775477.5827427262 ; 2936683.872788897 ; 0.0
86 ; 28671.616621557463 ; 34549.222032810525 ; 1804406.8532148749 ; 2971233.0948217073 ; 0.0
87 ; 28812.180393542236 ; 34549.222032810525 ; 1833078.4698364323 ; 3005782.316854518 ; 0.0
88 ; 28794.13320029429 ; 34549.222032810525 ; 1861890.6502299744 ; 3040331.5388873285 ; 0.0
89 ; 28688.261592758063 ; 34549.222032810525 ; 1890684.7834302688 ; 3074880.760920139 ; 0.0
90 ; 28643.86950157573 ; 34549.222032810525 ; 1919373.0450230269 ; 3109429.9829529496 ; 0.0
91 ; 28683.744814656853 ; 34549.222032810525 ; 1948016.9145246027 ; 3143979.20498576 ; 0.0
92 ; 28375.647584119095 ; 34549.222032810525 ; 1976700.6593392596 ; 3178528.4270185707 ; 0.0
93 ; 28381.168054218797 ; 34549.222032810525 ; 2005076.3069233787 ; 3213077.6490513813 ; 0.0
94 ; 28345.12333620889 ; 34549.222032810525 ; 2033457.4749775976 ; 3247626.871084192 ; 0.0
95 ; 28263.4516872384 ; 34549.222032810525 ; 2061802.5983138066 ; 3282176.0931170024 ; 0.0
96 ; 28272.694721199685 ; 34549.222032810525 ; 2090066.050001045 ; 3316725.315149813 ; 0.0
97 ; 27892.293187492727 ; 34549.222032810525 ; 2118338.744722245 ; 3351274.5371826235 ; 0.0
98 ; 27923.68415966916 ; 34549.222032810525 ; 2146231.0379097373 ; 3385823.759215434 ; 0.0
99 ; 27769.385063592723 ; 34549.222032810525 ; 2174154.7220694064 ; 3420372.9812482446 ; 0.0
100 ; 27697.59786124671 ; 34549.222032810525 ; 2201924.107132999 ; 3454922.203281055 ; 0.0
101 ; 27547.468600100845 ; 34549.222032810525 ; 2229621.704994246 ; 3489471.4253138658 ; 0.0
102 ; 27335.740292162605 ; 34549.222032810525 ; 2257169.1735943467 ; 3524020.6473466763 ; 0.0
103 ; 27316.217404028925 ; 34549.222032810525 ; 2284504.9138865094 ; 3558569.869379487 ; 0.0
104 ; 27094.56350553334 ; 34549.222032810525 ; 2311821.1312905382 ; 3593119.0914122975 ; 0.0
105 ; 26830.697494166576 ; 34549.222032810525 ; 2338915.6947960714 ; 3627668.313445108 ; 0.0
106 ; 26833.817771520822 ; 34549.222032810525 ; 2365746.392290238 ; 3662217.5354779186 ; 0.0
107 ; 26534.734631315074 ; 34549.222032810525 ; 2392580.2100617588 ; 3696766.757510729 ; 0.0
108 ; 26424.555275858776 ; 34549.222032810525 ; 2419114.9446930736 ; 3731315.9795435397 ; 0.0
109 ; 26375.570157426762 ; 34549.222032810525 ; 2445539.4999689325 ; 3765865.2015763503 ; 0.0
110 ; 26004.79201360653 ; 34549.222032810525 ; 2471915.0701263594 ; 3800414.423609161 ; 0.0
111 ; 25774.655938232198 ; 34549.222032810525 ; 2497919.862139966 ; 3834963.6456419714 ; 0.0
112 ; 25649.07605436025 ; 34549.222032810525 ; 2523694.518078198 ; 3869512.867674782 ; 0.0
113 ; 25412.749331837964 ; 34549.222032810525 ; 2549343.5941325584 ; 3904062.0897075925 ; 0.0
114 ; 25243.7941561756 ; 34549.222032810525 ; 2574756.3434643964 ; 3938611.311740403 ; 0.0
115 ; 24959.330836924248 ; 34549.222032810525 ; 2600000.137620572 ; 3973160.5337732136 ; 0.0
116 ; 24778.356367788227 ; 34549.222032810525 ; 2624959.4684574963 ; 4007709.755806024 ; 0.0
117 ; 24346.05219640642 ; 34549.222032810525 ; 2649737.8248252845 ; 4042258.9778388347 ; 0.0
118 ; 24247.059414366875 ; 34549.222032810525 ; 2674083.877021691 ; 4076808.1998716453 ; 0.0
119 ; 24151.43390875779 ; 34549.222032810525 ; 2698330.9364360576 ; 4111357.421904456 ; 0.0
120 ; 23742.296071878638 ; 34549.222032810525 ; 2722482.3703448153 ; 4145906.6439372664 ; 0.0
121 ; 23517.785189278038 ; 34549.222032810525 ; 2746224.666416694 ; 4180455.865970077 ; 0.0
122 ; 22973.155460580914 ; 34549.222032810525 ; 2769742.451605972 ; 4215005.088002888 ; 0.0
123 ; 22864.591281005203 ; 34549.222032810525 ; 2792715.6070665526 ; 4249554.310035698 ; 0.0
124 ; 22387.59279589786 ; 34549.222032810525 ; 2815580.198347558 ; 4284103.532068509 ; 0.0
125 ; 22375.97168015129 ; 34549.222032810525 ; 2837967.7911434555 ; 4318652.754101319 ; 0.0
126 ; 21933.654198306038 ; 34549.222032810525 ; 2860343.762823607 ; 4353201.97613413 ; 0.0
127 ; 21460.35951547618 ; 34549.222032810525 ; 2882277.417021913 ; 4387751.19816694 ; 0.0
128 ; 21362.593790175248 ; 34549.222032810525 ; 2903737.776537389 ; 4422300.420199751 ; 0.0
129 ; 20840.68146235053 ; 34549.222032810525 ; 2925100.3703275644 ; 4456849.6422325615 ; 0.0
130 ; 20683.13396504009 ; 34549.222032810525 ; 2945941.0517899147 ; 4491398.864265372 ; 0.0
131 ; 20469.394903225853 ; 34549.222032810525 ; 2966624.185754955 ; 4525948.086298183 ; 0.0
132 ; 19737.181186143902 ; 34549.222032810525 ; 2987093.5806581806 ; 4560497.308330993 ; 0.0
133 ; 19601.756439895504 ; 34549.222032810525 ; 3006830.7618443244 ; 4595046.530363804 ; 0.0
134 ; 19172.287018050105 ; 34549.222032810525 ; 3026432.51828422 ; 4629595.752396614 ; 0.0
135 ; 18837.95950078974 ; 34549.222032810525 ; 3045604.8053022698 ; 4664144.974429425 ; 0.0
136 ; 18437.496637441218 ; 34549.222032810525 ; 3064442.7648030594 ; 4698694.196462235 ; 0.0
137 ; 17958.496234836453 ; 34549.222032810525 ; 3082880.2614405006 ; 4733243.418495046 ; 0.0
138 ; 17599.016806805303 ; 34549.222032810525 ; 3100838.757675337 ; 4767792.640527857 ; 0.0
139 ; 17272.55616569919 ; 34549.222032810525 ; 3118437.7744821426 ; 4802341.862560667 ; 0.0
140 ; 16823.51263769343 ; 34549.222032810525 ; 3135710.330647842 ; 4836891.084593478 ; 0.0
141 ; 16509.975948090487 ; 34549.222032810525 ; 3152533.8432855355 ; 4871440.306626288 ; 0.0
142 ; 15942.97677906933 ; 34549.222032810525 ; 3169043.819233626 ; 4905989.528659099 ; 0.0
143 ; 15536.627761314547 ; 34549.222032810525 ; 3184986.7960126954 ; 4940538.750691909 ; 0.0
144 ; 15081.770574383427 ; 34549.222032810525 ; 3200523.42377401 ; 4975087.97272472 ; 0.0
145 ; 15006.943964900473 ; 34549.222032810525 ; 3215605.1943483935 ; 5009637.1947575305 ; 0.0
146 ; 14992.37140615993 ; 34549.222032810525 ; 3230612.138313294 ; 5044186.416790341 ; 0.0
147 ; 14929.69874745888 ; 34549.222032810525 ; 3245604.5097194538 ; 5078735.638823152 ; 0.0
148 ; 14588.183501971958 ; 34549.222032810525 ; 3260534.2084669126 ; 5113284.860855962 ; 0.0
149 ; 14536.492880987613 ; 34549.222032810525 ; 3275122.3919688845 ; 5147834.082888773 ; 0.0
150 ; 14494.850527637696 ; 34549.222032810525 ; 3289658.884849872 ; 5182383.304921583 ; 0.0
151 ; 14343.550461305025 ; 34549.222032810525 ; 3304153.7353775096 ; 5216932.526954394 ; 0.0
152 ; 14052.129879354126 ; 34549.222032810525 ; 3318497.2858388145 ; 5251481.748987204 ; 0.0
153 ; 14098.990541484136 ; 34549.222032810525 ; 3332549.4157181685 ; 5286030.971020015 ; 0.0
154 ; 13798.36381110105 ; 34549.222032810525 ; 3346648.4062596527 ; 5320580.1930528255 ; 0.0
155 ; 13652.609889016765 ; 34549.222032810525 ; 3360446.7700707535 ; 5355129.415085636 ; 0.0
156 ; 13571.158437472204 ; 34549.222032810525 ; 3374099.3799597705 ; 5389678.637118447 ; 0.0
157 ; 13374.21512589886 ; 34549.222032810525 ; 3387670.538397243 ; 5424227.859151257 ; 0.0
158 ; 13285.287146205603 ; 34549.222032810525 ; 3401044.7535231416 ; 5458777.081184068 ; 0.0
159 ; 12960.403073455409 ; 34549.222032810525 ; 3414330.040669347 ; 5493326.303216878 ; 0.0
160 ; 12924.40906880922 ; 34549.222032810525 ; 3427290.4437428024 ; 5527875.525249689 ; 0.0
161 ; 12824.066480816899 ; 34549.222032810525 ; 3440214.8528116117 ; 5562424.747282499 ; 0.0
162 ; 12471.200154921074 ; 34549.222032810525 ; 3453038.9192924285 ; 5596973.96931531 ; 0.0
163 ; 12467.086819013868 ; 34549.222032810525 ; 3465510.1194473496 ; 5631523.191348121 ; 0.0
164 ; 12251.602977606652 ; 34549.222032810525 ; 3477977.2062663636 ; 5666072.413380931 ; 0.0
165 ; 12031.252318881061 ; 34549.222032810525 ; 3490228.80924397 ; 5700621.635413742 ; 0.0
166 ; 11968.272751306471 ; 34549.222032810525 ; 3502260.061562851 ; 5735170.857446552 ; 0.0
167 ; 11835.70547834726 ; 34549.222032810525 ; 3514228.3343141577 ; 5769720.079479363 ; 0.0
168 ; 11679.497197890809 ; 34549.222032810525 ; 3526064.039792505 ; 5804269.301512173 ; 0.0
169 ; 11328.992832174785 ; 34549.222032810525 ; 3537743.5369903957 ; 5838818.523544984 ; 0.0
170 ; 11034.753839436413 ; 34549.222032810525 ; 3549072.5298225707 ; 5873367.7455777945 ; 0.0
171 ; 11081.039885853606 ; 34549.222032810525 ; 3560107.283662007 ; 5907916.967610605 ; 0.0
172 ; 10890.86732013484 ; 34549.222032810525 ; 3571188.3235478606 ; 5942466.189643416 ; 0.0
173 ; 10794.806442247163 ; 34549.222032810525 ; 3582079.1908679954 ; 5977015.411676226 ; 0.0
174 ; 10764.257105589108 ; 34549.222032810525 ; 3592873.9973102426 ; 6011564.633709037 ; 0.0
175 ; 10742.317149355084 ; 34549.222032810525 ; 3603638.2544158315 ; 6046113.855741847 ; 0.0
176 ; 10832.819862400567 ; 34549.222032810525 ; 3614380.5715651866 ; 6080663.077774658 ; 0.0
177 ; 10922.334729960778 ; 34549.222032810525 ; 3625213.3914275873 ; 6115212.299807468 ; 0.0
178 ; 10919.37291033719 ; 34549.222032810525 ; 3636135.726157548 ; 6149761.521840279 ; 0.0
179 ; 10909.400848205461 ; 34549.222032810525 ; 3647055.099067885 ; 6184310.74387309 ; 0.0
180 ; 10997.725237417546 ; 34549.222032810525 ; 3657964.4999160906 ; 6218859.9659059 ; 0.0
181 ; 11029.36224563116 ; 34549.222032810525 ; 3668962.225153508 ; 6253409.187938711 ; 0.0
182 ; 10950.030787627116 ; 34549.222032810525 ; 3679991.587399139 ; 6287958.409971521 ; 0.0
183 ; 10958.323976815325 ; 34549.222032810525 ; 3690941.6181867663 ; 6322507.632004332 ; 0.0
184 ; 11124.642058249923 ; 34549.222032810525 ; 3701899.9421635815 ; 6357056.854037142 ; 0.0
185 ; 11180.149553283998 ; 34549.222032810525 ; 3713024.5842218315 ; 6391606.076069953 ; 0.0
186 ; 11154.935041198361 ; 34549.222032810525 ; 3724204.7337751156 ; 6426155.2981027635 ; 0.0
187 ; 11096.825462701763 ; 34549.222032810525 ; 3735359.668816314 ; 6460704.520135574 ; 0.0
188 ; 11051.788962448069 ; 34549.222032810525 ; 3746456.494279016 ; 6495253.742168385 ; 0.0
189 ; 11319.67924384646 ; 34549.222032810525 ; 3757508.283241464 ; 6529802.964201195 ; 0.0
190 ; 11392.726717065598 ; 34549.222032810525 ; 3768827.96248531 ; 6564352.186234006 ; 0.0
191 ; 11412.052991598848 ; 34549.222032810525 ; 3780220.6892023757 ; 6598901.408266816 ; 0.0
192 ; 11553.606782152887 ; 34549.222032810525 ; 3791632.7421939746 ; 6633450.630299627 ; 0.0
193 ; 11591.356449853498 ; 34549.222032810525 ; 3803186.3489761273 ; 6667999.852332437 ; 0.0
194 ; 11509.77217348464 ; 34549.222032810525 ; 3814777.705425981 ; 6702549.074365248 ; 0.0
195 ; 11453.558749787717 ; 34549.222032810525 ; 3826287.4775994658 ; 6737098.2963980585 ; 0.0
196 ; 11508.563446907867 ; 34549.222032810525 ; 3837741.0363492533 ; 6771647.518430869 ; 0.0
197 ; 11420.517792543716 ; 34549.222032810525 ; 3849249.599796161 ; 6806196.74046368 ; 0.0
198 ; 11617.83418770802 ; 34549.222032810525 ; 3860670.117588705 ; 6840745.96249649 ; 0.0
199 ; 11535.758518263667 ; 34549.222032810525 ; 3872287.951776413 ; 6875295.184529301 ; 0.0
200 ; 11727.187891104326 ; 34549.222032810525 ; 3883823.7102946765 ; 6909844.406562111 ; 0.0
201 ; 11716.834859934012 ; 34549.222032810525 ; 3895550.8981857807 ; 6944393.628594922 ; 0.0
202 ; 11714.12474136379 ; 34549.222032810525 ; 3907267.733045715 ; 6978942.850627732 ; 0.0
203 ; 11682.735300075186 ; 34549.222032810525 ; 3918981.8577870787 ; 7013492.072660543 ; 0.0
204 ; 11813.14018388904 ; 34549.222032810525 ; 3930664.593087154 ; 7048041.294693354 ; 0.0
205 ; 11914.583543395926 ; 34549.222032810525 ; 3942477.733271043 ; 7082590.516726164 ; 0.0
206 ; 11940.5211493993 ; 34549.222032810525 ; 3954392.316814439 ; 7117139.738758975 ; 0.0
207 ; 11914.703334753798 ; 34549.222032810525 ; 3966332.837963838 ; 7151688.960791785 ; 0.0
208 ; 11946.781988553104 ; 34549.222032810525 ; 3978247.541298592 ; 7186238.182824596 ; 0.0
209 ; 11840.813746252501 ; 34549.222032810525 ; 3990194.3232871452 ; 7220787.404857406 ; 0.0
210 ; 11994.98817105542 ; 34549.222032810525 ; 4002035.137033398 ; 7255336.626890217 ; 0.0
211 ; 12073.399438268343 ; 34549.222032810525 ; 4014030.1252044532 ; 7289885.8489230275 ; 0.0
212 ; 12026.745919367739 ; 34549.222032810525 ; 4026103.5246427217 ; 7324435.070955838 ; 0.0
213 ; 12129.881487389435 ; 34549.222032810525 ; 4038130.2705620895 ; 7358984.292988649 ; 0.0
