CSV File for the City 1 on Day 145
1 - Minute m 
2 - Power Consumed at minute m 
3 - Power Produced at minute m 
4 - Energy Consumed since the beginning of the day 
5 - Energy Produced since the beginning of the day 
6 - Energy Lost since the beginning of the day on lines starting from the city
 
0 ; 9226.72125982942 ; 7271.288040100946 ; 0.0 ; 0.0 ; 0.0
1 ; 9789.24537593341 ; 7271.288040100946 ; 9226.72125982942 ; 7271.288040100946 ; 238.00000000000003
2 ; 10130.718463091684 ; 7271.288040100946 ; 19015.96663576283 ; 14542.576080201892 ; 476.00000000000006
3 ; 10675.466378650879 ; 7271.288040100946 ; 29146.685098854512 ; 21813.86412030284 ; 714.0000000000001
4 ; 10990.415522825417 ; 7271.288040100946 ; 39822.151477505395 ; 29085.152160403784 ; 952.0000000000001
5 ; 11270.132231352925 ; 7271.288040100946 ; 50812.56700033081 ; 36356.44020050473 ; 1190.0000000000002
6 ; 11645.955465682371 ; 7271.288040100946 ; 62082.699231683735 ; 43627.72824060568 ; 1428.0000000000002
7 ; 12206.6779194005 ; 7271.288040100946 ; 73728.6546973661 ; 50899.01628070662 ; 1666.0000000000002
8 ; 12806.930174386334 ; 7271.288040100946 ; 85935.3326167666 ; 58170.30432080757 ; 1904.0000000000002
9 ; 13026.14275702266 ; 7271.288040100946 ; 98742.26279115293 ; 65441.592360908515 ; 2142.0000000000005
10 ; 13298.053219308593 ; 7271.288040100946 ; 111768.4055481756 ; 72712.88040100946 ; 2380.0000000000005
11 ; 13934.718408155613 ; 7271.288040100946 ; 125066.45876748419 ; 79984.1684411104 ; 2618.0000000000005
12 ; 14290.673800156694 ; 7271.288040100946 ; 139001.1771756398 ; 87255.45648121135 ; 2856.0000000000005
13 ; 14614.909007665796 ; 7271.288040100946 ; 153291.8509757965 ; 94526.7445213123 ; 3094.0000000000005
14 ; 15106.127657443478 ; 7271.288040100946 ; 167906.75998346228 ; 101798.03256141325 ; 3332.0000000000005
15 ; 15364.945946070093 ; 7271.288040100946 ; 183012.88764090577 ; 109069.32060151419 ; 3570.0000000000005
16 ; 15778.273761366047 ; 7271.288040100946 ; 198377.83358697587 ; 116340.60864161514 ; 3808.0000000000005
17 ; 16115.7670041732 ; 7271.288040100946 ; 214156.10734834193 ; 123611.89668171608 ; 4046.0000000000005
18 ; 16439.25021110058 ; 7271.288040100946 ; 230271.87435251512 ; 130883.18472181703 ; 4284.000000000001
19 ; 16686.90019915249 ; 7271.288040100946 ; 246711.1245636157 ; 138154.47276191798 ; 4522.000000000001
20 ; 17273.31231893437 ; 7271.288040100946 ; 263398.0247627682 ; 145425.76080201892 ; 4760.000000000001
21 ; 17459.298905475585 ; 7271.288040100946 ; 280671.33708170254 ; 152697.04884211987 ; 4998.000000000001
22 ; 17868.90201121196 ; 7271.288040100946 ; 298130.63598717813 ; 159968.3368822208 ; 5236.000000000001
23 ; 18011.86943242108 ; 7271.288040100946 ; 315999.5379983901 ; 167239.62492232176 ; 5474.000000000001
24 ; 18403.6537679618 ; 7271.288040100946 ; 334011.4074308112 ; 174510.9129624227 ; 5712.000000000001
25 ; 18618.427560073087 ; 7271.288040100946 ; 352415.061198773 ; 181782.20100252365 ; 5950.000000000001
26 ; 19053.680278121 ; 7271.288040100946 ; 371033.48875884607 ; 189053.4890426246 ; 6188.000000000001
27 ; 19295.429208449837 ; 7271.288040100946 ; 390087.1690369671 ; 196324.77708272554 ; 6426.000000000001
28 ; 19853.513157748825 ; 7271.288040100946 ; 409382.59824541694 ; 203596.0651228265 ; 6664.000000000001
29 ; 20064.854902028223 ; 7271.288040100946 ; 429236.1114031658 ; 210867.35316292744 ; 6902.000000000001
30 ; 20390.06959887146 ; 7271.288040100946 ; 449300.966305194 ; 218138.64120302838 ; 7140.000000000001
31 ; 20473.40025049396 ; 7271.288040100946 ; 469691.0359040655 ; 225409.92924312933 ; 7378.000000000001
32 ; 20591.302627639794 ; 7271.288040100946 ; 490164.43615455943 ; 232681.21728323027 ; 7616.000000000001
33 ; 21116.948258344197 ; 7271.288040100946 ; 510755.7387821992 ; 239952.50532333122 ; 7854.000000000001
34 ; 21315.529638171658 ; 7271.288040100946 ; 531872.6870405434 ; 247223.79336343217 ; 8092.000000000001
35 ; 21697.98606863562 ; 7271.288040100946 ; 553188.2166787151 ; 254495.0814035331 ; 8330.000000000002
36 ; 21757.02394951416 ; 7271.288040100946 ; 574886.2027473507 ; 261766.36944363406 ; 8568.000000000002
37 ; 22142.491154527506 ; 7271.288040100946 ; 596643.2266968648 ; 269037.657483735 ; 8806.000000000002
38 ; 22198.630759014475 ; 7271.288040100946 ; 618785.7178513923 ; 276308.94552383595 ; 9044.000000000002
39 ; 22570.663007849413 ; 7271.288040100946 ; 640984.3486104069 ; 283580.2335639369 ; 9282.000000000002
40 ; 22738.317701940414 ; 7271.288040100946 ; 663555.0116182562 ; 290851.52160403784 ; 9520.000000000002
41 ; 22969.52775753378 ; 7271.288040100946 ; 686293.3293201966 ; 298122.8096441388 ; 9758.000000000002
42 ; 23252.729049173933 ; 7271.288040100946 ; 709262.8570777305 ; 305394.09768423974 ; 9996.000000000002
43 ; 23545.708229886444 ; 7271.288040100946 ; 732515.5861269044 ; 312665.3857243407 ; 10234.000000000002
44 ; 23502.03355965191 ; 7271.288040100946 ; 756061.2943567908 ; 319936.6737644416 ; 10472.000000000002
45 ; 24042.342581916593 ; 7271.288040100946 ; 779563.3279164428 ; 327207.9618045426 ; 10710.000000000002
46 ; 24064.88895237546 ; 7271.288040100946 ; 803605.6704983594 ; 334479.2498446435 ; 10948.000000000002
47 ; 24084.063469753957 ; 7271.288040100946 ; 827670.5594507349 ; 341750.53788474447 ; 11186.000000000002
48 ; 24543.57178935302 ; 7271.288040100946 ; 851754.6229204888 ; 349021.8259248454 ; 11424.000000000002
49 ; 24524.929659092762 ; 7271.288040100946 ; 876298.1947098419 ; 356293.11396494636 ; 11662.000000000002
50 ; 24901.06297693228 ; 7271.288040100946 ; 900823.1243689347 ; 363564.4020050473 ; 11900.000000000002
51 ; 25084.04488252385 ; 7271.288040100946 ; 925724.1873458669 ; 370835.69004514825 ; 12138.000000000002
52 ; 25243.499844592003 ; 7271.288040100946 ; 950808.2322283908 ; 378106.9780852492 ; 12376.000000000002
53 ; 25249.117496259143 ; 7271.288040100946 ; 976051.7320729827 ; 385378.26612535014 ; 12614.000000000002
54 ; 25440.882420745547 ; 7271.288040100946 ; 1001300.8495692419 ; 392649.5541654511 ; 12852.000000000002
55 ; 25572.221711197155 ; 7271.288040100946 ; 1026741.7319899874 ; 399920.84220555204 ; 13090.000000000002
56 ; 25757.28973700034 ; 7271.288040100946 ; 1052313.9537011846 ; 407192.130245653 ; 13328.000000000002
57 ; 25836.328911952263 ; 7271.288040100946 ; 1078071.243438185 ; 414463.4182857539 ; 13566.000000000002
58 ; 26201.812643841306 ; 7271.288040100946 ; 1103907.5723501372 ; 421734.7063258549 ; 13804.000000000002
59 ; 26052.09879599481 ; 7271.288040100946 ; 1130109.3849939785 ; 429005.9943659558 ; 14042.000000000002
60 ; 26300.254382822262 ; 7271.288040100946 ; 1156161.4837899734 ; 436277.28240605677 ; 14280.000000000002
61 ; 26458.26690391884 ; 7271.288040100946 ; 1182461.7381727956 ; 443548.5704461577 ; 14518.000000000002
62 ; 26486.20236737845 ; 7271.288040100946 ; 1208920.0050767146 ; 450819.85848625866 ; 14756.000000000002
63 ; 26566.550452355772 ; 7271.288040100946 ; 1235406.207444093 ; 458091.1465263596 ; 14994.000000000002
64 ; 26732.645931845684 ; 7271.288040100946 ; 1261972.7578964487 ; 465362.43456646055 ; 15232.000000000002
65 ; 26587.13019750094 ; 7271.288040100946 ; 1288705.4038282945 ; 472633.7226065615 ; 15470.000000000002
66 ; 26982.764642760565 ; 7271.288040100946 ; 1315292.5340257955 ; 479905.01064666244 ; 15708.000000000002
67 ; 26765.26546823796 ; 7271.288040100946 ; 1342275.2986685561 ; 487176.2986867634 ; 15946.000000000002
68 ; 27089.19145831038 ; 7271.288040100946 ; 1369040.564136794 ; 494447.58672686433 ; 16184.000000000002
69 ; 27023.77445964293 ; 7271.288040100946 ; 1396129.7555951045 ; 501718.8747669653 ; 16422.000000000004
70 ; 27033.34888844006 ; 7271.288040100946 ; 1423153.5300547474 ; 508990.1628070662 ; 16660.000000000004
71 ; 27148.275302899256 ; 7271.288040100946 ; 1450186.8789431874 ; 516261.4508471672 ; 16898.000000000004
72 ; 27230.653752692462 ; 7271.288040100946 ; 1477335.1542460867 ; 523532.7388872681 ; 17136.000000000004
73 ; 27276.12332899999 ; 7271.288040100946 ; 1504565.8079987792 ; 530804.0269273691 ; 17374.000000000004
74 ; 27337.426263149926 ; 7271.288040100946 ; 1531841.9313277793 ; 538075.31496747 ; 17612.000000000004
75 ; 27356.45006628069 ; 7271.288040100946 ; 1559179.3575909291 ; 545346.603007571 ; 17850.000000000004
76 ; 27358.34866006023 ; 7271.288040100946 ; 1586535.80765721 ; 552617.8910476719 ; 18088.000000000004
77 ; 27474.33853116219 ; 7271.288040100946 ; 1613894.1563172701 ; 559889.1790877728 ; 18326.000000000004
78 ; 27379.750006844617 ; 7271.288040100946 ; 1641368.4948484323 ; 567160.4671278738 ; 18564.000000000004
79 ; 27587.15900134626 ; 7271.288040100946 ; 1668748.2448552768 ; 574431.7551679747 ; 18802.000000000004
80 ; 27507.111456178583 ; 7271.288040100946 ; 1696335.403856623 ; 581703.0432080757 ; 19040.000000000004
81 ; 27476.696499850546 ; 7271.288040100946 ; 1723842.5153128016 ; 588974.3312481766 ; 19278.000000000004
82 ; 27547.12200310112 ; 7271.288040100946 ; 1751319.2118126522 ; 596245.6192882776 ; 19516.000000000004
83 ; 27587.604861713913 ; 7271.288040100946 ; 1778866.3338157532 ; 603516.9073283785 ; 19754.000000000004
84 ; 27770.397135738414 ; 7271.288040100946 ; 1806453.9386774672 ; 610788.1953684795 ; 19992.000000000004
85 ; 27376.17958969957 ; 7271.288040100946 ; 1834224.3358132057 ; 618059.4834085804 ; 20230.000000000004
86 ; 27454.560293057348 ; 7271.288040100946 ; 1861600.5154029052 ; 625330.7714486814 ; 20468.000000000004
87 ; 27404.153688644004 ; 7271.288040100946 ; 1889055.0756959624 ; 632602.0594887823 ; 20706.000000000004
88 ; 27438.75173279645 ; 7271.288040100946 ; 1916459.2293846065 ; 639873.3475288833 ; 20944.000000000004
89 ; 27345.91714214002 ; 7271.288040100946 ; 1943897.981117403 ; 647144.6355689842 ; 21182.000000000004
90 ; 27199.103081801022 ; 7271.288040100946 ; 1971243.8982595429 ; 654415.9236090851 ; 21420.000000000004
91 ; 27423.29425029345 ; 7271.288040100946 ; 1998443.0013413439 ; 661687.2116491861 ; 21658.000000000004
92 ; 27267.904678450588 ; 7271.288040100946 ; 2025866.2955916373 ; 668958.499689287 ; 21896.000000000004
93 ; 27171.172407307113 ; 7271.288040100946 ; 2053134.200270088 ; 676229.787729388 ; 22134.000000000004
94 ; 27139.557360860905 ; 7271.288040100946 ; 2080305.3726773951 ; 683501.0757694889 ; 22372.000000000004
95 ; 26998.673768576235 ; 7271.288040100946 ; 2107444.930038256 ; 690772.3638095899 ; 22610.000000000004
96 ; 26836.284287362647 ; 7271.288040100946 ; 2134443.6038068323 ; 698043.6518496908 ; 22848.000000000004
97 ; 26831.009628160697 ; 7271.288040100946 ; 2161279.888094195 ; 705314.9398897918 ; 23086.000000000004
98 ; 26561.29461140916 ; 7271.288040100946 ; 2188110.897722356 ; 712586.2279298927 ; 23324.000000000004
99 ; 26605.96903715248 ; 7271.288040100946 ; 2214672.1923337653 ; 719857.5159699937 ; 23562.000000000004
100 ; 26477.45124049759 ; 7271.288040100946 ; 2241278.1613709177 ; 727128.8040100946 ; 23800.000000000004
101 ; 26372.98094555657 ; 7271.288040100946 ; 2267755.6126114153 ; 734400.0920501956 ; 24038.000000000004
102 ; 26066.3126917509 ; 7271.288040100946 ; 2294128.5935569718 ; 741671.3800902965 ; 24276.000000000004
103 ; 26232.664782077383 ; 7271.288040100946 ; 2320194.9062487227 ; 748942.6681303974 ; 24514.000000000004
104 ; 26076.506104071548 ; 7271.288040100946 ; 2346427.5710308 ; 756213.9561704984 ; 24752.000000000004
105 ; 25729.561076735175 ; 7271.288040100946 ; 2372504.077134872 ; 763485.2442105993 ; 24990.000000000004
106 ; 25782.057711686328 ; 7271.288040100946 ; 2398233.638211607 ; 770756.5322507003 ; 25228.000000000004
107 ; 25555.12364103775 ; 7271.288040100946 ; 2424015.6959232935 ; 778027.8202908012 ; 25466.000000000004
108 ; 25225.870855692134 ; 7271.288040100946 ; 2449570.8195643313 ; 785299.1083309022 ; 25704.000000000004
109 ; 25303.87051187466 ; 7271.288040100946 ; 2474796.6904200236 ; 792570.3963710031 ; 25942.000000000004
110 ; 25059.312171191956 ; 7271.288040100946 ; 2500100.560931898 ; 799841.6844111041 ; 26180.000000000004
111 ; 24929.64468499219 ; 7271.288040100946 ; 2525159.87310309 ; 807112.972451205 ; 26418.000000000004
112 ; 24939.65715077818 ; 7271.288040100946 ; 2550089.5177880824 ; 814384.260491306 ; 26656.000000000004
113 ; 24808.040618371706 ; 7271.288040100946 ; 2575029.1749388603 ; 821655.5485314069 ; 26894.000000000004
114 ; 24308.26837118192 ; 7271.288040100946 ; 2599837.215557232 ; 828926.8365715079 ; 27132.000000000004
115 ; 24288.52028434253 ; 7271.288040100946 ; 2624145.483928414 ; 836198.1246116088 ; 27370.000000000004
116 ; 24077.64659438466 ; 7271.288040100946 ; 2648434.0042127566 ; 843469.4126517097 ; 27608.000000000004
117 ; 23818.38654009449 ; 7271.288040100946 ; 2672511.6508071413 ; 850740.7006918107 ; 27846.000000000004
118 ; 23655.218861020447 ; 7271.288040100946 ; 2696330.0373472357 ; 858011.9887319116 ; 28084.000000000004
119 ; 23568.413514204756 ; 7271.288040100946 ; 2719985.2562082564 ; 865283.2767720126 ; 28322.000000000004
120 ; 23189.721094581382 ; 7271.288040100946 ; 2743553.669722461 ; 872554.5648121135 ; 28560.000000000004
121 ; 22901.36664606894 ; 7271.288040100946 ; 2766743.3908170424 ; 879825.8528522145 ; 28798.000000000004
122 ; 22832.608069107853 ; 7271.288040100946 ; 2789644.7574631115 ; 887097.1408923154 ; 29036.000000000004
123 ; 22462.718496007332 ; 7271.288040100946 ; 2812477.3655322194 ; 894368.4289324164 ; 29274.000000000004
124 ; 22283.2164486561 ; 7271.288040100946 ; 2834940.084028227 ; 901639.7169725173 ; 29512.000000000004
125 ; 22142.045533198954 ; 7271.288040100946 ; 2857223.300476883 ; 908911.0050126183 ; 29750.000000000004
126 ; 22088.52203805698 ; 7271.288040100946 ; 2879365.346010082 ; 916182.2930527192 ; 29988.000000000004
127 ; 21540.934283149116 ; 7271.288040100946 ; 2901453.868048139 ; 923453.5810928202 ; 30226.000000000004
128 ; 21179.34573903601 ; 7271.288040100946 ; 2922994.802331288 ; 930724.8691329211 ; 30464.000000000004
129 ; 21191.573564927578 ; 7271.288040100946 ; 2944174.1480703237 ; 937996.157173022 ; 30702.000000000004
130 ; 20806.385857605273 ; 7271.288040100946 ; 2965365.7216352513 ; 945267.445213123 ; 30940.000000000004
131 ; 20537.15479559667 ; 7271.288040100946 ; 2986172.1074928567 ; 952538.7332532239 ; 31178.000000000004
132 ; 20192.986697804416 ; 7271.288040100946 ; 3006709.2622884535 ; 959810.0212933249 ; 31416.000000000004
133 ; 20066.349044402963 ; 7271.288040100946 ; 3026902.248986258 ; 967081.3093334258 ; 31654.000000000004
134 ; 19646.188204773178 ; 7271.288040100946 ; 3046968.598030661 ; 974352.5973735268 ; 31892.000000000004
135 ; 19183.58528900361 ; 7271.288040100946 ; 3066614.7862354345 ; 981623.8854136277 ; 32130.000000000004
136 ; 18972.742187936594 ; 7271.288040100946 ; 3085798.3715244383 ; 988895.1734537287 ; 32368.000000000004
137 ; 18716.271717971824 ; 7271.288040100946 ; 3104771.113712375 ; 996166.4614938296 ; 32606.000000000004
138 ; 18505.416945196266 ; 7271.288040100946 ; 3123487.3854303467 ; 1003437.7495339306 ; 32844.00000000001
139 ; 18303.764382388996 ; 7271.288040100946 ; 3141992.802375543 ; 1010709.0375740315 ; 33082.00000000001
140 ; 17600.06582703667 ; 7271.288040100946 ; 3160296.566757932 ; 1017980.3256141325 ; 33320.00000000001
141 ; 17474.84989559552 ; 7271.288040100946 ; 3177896.6325849686 ; 1025251.6136542334 ; 33558.00000000001
142 ; 17019.182993766713 ; 7271.288040100946 ; 3195371.482480564 ; 1032522.9016943343 ; 33796.00000000001
143 ; 16826.12897956411 ; 7271.288040100946 ; 3212390.665474331 ; 1039794.1897344353 ; 34034.00000000001
144 ; 16275.438090736914 ; 7271.288040100946 ; 3229216.794453895 ; 1047065.4777745362 ; 34272.00000000001
145 ; 16360.682591250972 ; 7271.288040100946 ; 3245492.232544632 ; 1054336.7658146373 ; 34510.00000000001
146 ; 16122.80910913643 ; 7271.288040100946 ; 3261852.9151358833 ; 1061608.0538547384 ; 34748.00000000001
147 ; 16049.472696133553 ; 7271.288040100946 ; 3277975.7242450197 ; 1068879.3418948394 ; 34986.00000000001
148 ; 15889.149585518231 ; 7271.288040100946 ; 3294025.196941153 ; 1076150.6299349405 ; 35224.00000000001
149 ; 15830.894918242167 ; 7271.288040100946 ; 3309914.346526671 ; 1083421.9179750415 ; 35462.00000000001
150 ; 15756.129335849968 ; 7271.288040100946 ; 3325745.241444913 ; 1090693.2060151426 ; 35700.00000000001
151 ; 15649.381481760947 ; 7271.288040100946 ; 3341501.370780763 ; 1097964.4940552437 ; 35938.00000000001
152 ; 15563.392471303698 ; 7271.288040100946 ; 3357150.7522625243 ; 1105235.7820953447 ; 36176.00000000001
153 ; 15400.950741975494 ; 7271.288040100946 ; 3372714.144733828 ; 1112507.0701354458 ; 36414.00000000001
154 ; 15023.895335163517 ; 7271.288040100946 ; 3388115.0954758036 ; 1119778.3581755469 ; 36652.00000000001
155 ; 14996.280208140535 ; 7271.288040100946 ; 3403138.990810967 ; 1127049.646215648 ; 36890.00000000001
156 ; 14900.937121049557 ; 7271.288040100946 ; 3418135.2710191077 ; 1134320.934255749 ; 37128.00000000001
157 ; 15051.130497582486 ; 7271.288040100946 ; 3433036.208140157 ; 1141592.22229585 ; 37366.00000000001
158 ; 14756.59113968537 ; 7271.288040100946 ; 3448087.3386377394 ; 1148863.510335951 ; 37604.00000000001
159 ; 14657.423529210444 ; 7271.288040100946 ; 3462843.929777425 ; 1156134.7983760522 ; 37842.00000000001
160 ; 14409.417998157722 ; 7271.288040100946 ; 3477501.3533066353 ; 1163406.0864161532 ; 38080.00000000001
161 ; 14268.61719078356 ; 7271.288040100946 ; 3491910.771304793 ; 1170677.3744562543 ; 38318.00000000001
162 ; 14007.366971896097 ; 7271.288040100946 ; 3506179.3884955766 ; 1177948.6624963554 ; 38556.00000000001
163 ; 14165.598321564741 ; 7271.288040100946 ; 3520186.7554674726 ; 1185219.9505364564 ; 38794.00000000001
164 ; 13870.186347237417 ; 7271.288040100946 ; 3534352.3537890376 ; 1192491.2385765575 ; 39032.00000000001
165 ; 13721.942537756462 ; 7271.288040100946 ; 3548222.540136275 ; 1199762.5266166585 ; 39270.00000000001
166 ; 13951.072827510137 ; 7271.288040100946 ; 3561944.4826740315 ; 1207033.8146567596 ; 39508.00000000001
167 ; 13562.23967297491 ; 7271.288040100946 ; 3575895.5555015416 ; 1214305.1026968607 ; 39746.00000000001
168 ; 13481.620217074566 ; 7271.288040100946 ; 3589457.7951745163 ; 1221576.3907369617 ; 39984.00000000001
169 ; 13073.285693731897 ; 7271.288040100946 ; 3602939.415391591 ; 1228847.6787770628 ; 40222.00000000001
170 ; 13003.596073549268 ; 7271.288040100946 ; 3616012.701085323 ; 1236118.9668171639 ; 40460.00000000001
171 ; 12890.659602054575 ; 7271.288040100946 ; 3629016.2971588722 ; 1243390.254857265 ; 40698.00000000001
172 ; 12539.555918426531 ; 7271.288040100946 ; 3641906.9567609266 ; 1250661.542897366 ; 40936.00000000001
173 ; 12573.312513878533 ; 7271.288040100946 ; 3654446.5126793534 ; 1257932.830937467 ; 41174.00000000001
174 ; 12703.344847668823 ; 7271.288040100946 ; 3667019.825193232 ; 1265204.118977568 ; 41412.00000000001
175 ; 12635.679694714707 ; 7271.288040100946 ; 3679723.170040901 ; 1272475.4070176692 ; 41650.00000000001
176 ; 12764.491984764582 ; 7271.288040100946 ; 3692358.8497356153 ; 1279746.6950577702 ; 41888.00000000001
177 ; 12766.106457877253 ; 7271.288040100946 ; 3705123.34172038 ; 1287017.9830978713 ; 42126.00000000001
178 ; 13017.099189734656 ; 7271.288040100946 ; 3717889.4481782573 ; 1294289.2711379724 ; 42364.00000000001
179 ; 12760.946876476773 ; 7271.288040100946 ; 3730906.547367992 ; 1301560.5591780734 ; 42602.00000000001
180 ; 12582.590288129079 ; 7271.288040100946 ; 3743667.494244469 ; 1308831.8472181745 ; 42840.00000000001
181 ; 12960.653842112537 ; 7271.288040100946 ; 3756250.084532598 ; 1316103.1352582755 ; 43078.00000000001
182 ; 12812.235098496612 ; 7271.288040100946 ; 3769210.7383747105 ; 1323374.4232983766 ; 43316.00000000001
183 ; 12993.720205643556 ; 7271.288040100946 ; 3782022.973473207 ; 1330645.7113384777 ; 43554.00000000001
184 ; 12789.25270528542 ; 7271.288040100946 ; 3795016.693678851 ; 1337916.9993785787 ; 43792.00000000001
185 ; 12808.034596776515 ; 7271.288040100946 ; 3807805.946384136 ; 1345188.2874186798 ; 44030.00000000001
186 ; 12954.587168607814 ; 7271.288040100946 ; 3820613.9809809127 ; 1352459.5754587809 ; 44268.00000000001
