CSV File for the City 1 on Day 212
1 - Minute m 
2 - Power Consumed at minute m 
3 - Power Produced at minute m 
4 - Energy Consumed since the beginning of the day 
5 - Energy Produced since the beginning of the day 
6 - Energy Lost since the beginning of the day on lines starting from the city
 
0 ; 4978.089850032339 ; 3814.56623324017 ; 0.0 ; 0.0 ; 0.0
1 ; 5777.463026703304 ; 3814.56623324017 ; 4978.089850032339 ; 3814.56623324017 ; 238.00000000000003
2 ; 6411.830412349146 ; 3814.56623324017 ; 10755.552876735645 ; 7629.13246648034 ; 476.00000000000006
3 ; 7009.181029514473 ; 3814.56623324017 ; 17167.38328908479 ; 11443.69869972051 ; 714.0000000000001
4 ; 7652.462742808614 ; 3814.56623324017 ; 24176.564318599267 ; 15258.26493296068 ; 952.0000000000001
5 ; 8369.32190164298 ; 3814.56623324017 ; 31829.02706140788 ; 19072.83116620085 ; 1190.0000000000002
6 ; 9040.042040415348 ; 3814.56623324017 ; 40198.348963050856 ; 22887.39739944102 ; 1428.0000000000002
7 ; 9671.595516233572 ; 3814.56623324017 ; 49238.391003466204 ; 26701.96363268119 ; 1666.0000000000002
8 ; 10087.31473046533 ; 3814.56623324017 ; 58909.98651969978 ; 30516.52986592136 ; 1904.0000000000002
9 ; 10599.30554343066 ; 3814.56623324017 ; 68997.30125016511 ; 34331.09609916153 ; 2142.0000000000005
10 ; 11437.144115049621 ; 3814.56623324017 ; 79596.60679359577 ; 38145.6623324017 ; 2380.0000000000005
11 ; 11938.339153823823 ; 3814.56623324017 ; 91033.7509086454 ; 41960.22856564187 ; 2618.0000000000005
12 ; 12589.925941357795 ; 3814.56623324017 ; 102972.09006246921 ; 45774.79479888204 ; 2856.0000000000005
13 ; 13334.203519649489 ; 3814.56623324017 ; 115562.01600382701 ; 49589.36103212221 ; 3094.0000000000005
14 ; 13565.813099963443 ; 3814.56623324017 ; 128896.2195234765 ; 53403.92726536238 ; 3332.0000000000005
15 ; 14216.054820612053 ; 3814.56623324017 ; 142462.03262343994 ; 57218.49349860255 ; 3570.0000000000005
16 ; 14746.813661096341 ; 3814.56623324017 ; 156678.08744405198 ; 61033.05973184272 ; 3808.0000000000005
17 ; 15291.019275967257 ; 3814.56623324017 ; 171424.9011051483 ; 64847.62596508289 ; 4046.0000000000005
18 ; 15814.697281600682 ; 3814.56623324017 ; 186715.92038111557 ; 68662.19219832306 ; 4284.000000000001
19 ; 16304.245179774683 ; 3814.56623324017 ; 202530.61766271625 ; 72476.75843156323 ; 4522.000000000001
20 ; 16648.864701006354 ; 3814.56623324017 ; 218834.86284249093 ; 76291.3246648034 ; 4760.000000000001
21 ; 17378.90365293065 ; 3814.56623324017 ; 235483.72754349728 ; 80105.89089804357 ; 4998.000000000001
22 ; 17764.438313181377 ; 3814.56623324017 ; 252862.63119642794 ; 83920.45713128374 ; 5236.000000000001
23 ; 18275.231316009485 ; 3814.56623324017 ; 270627.0695096093 ; 87735.0233645239 ; 5474.000000000001
24 ; 18715.5159202591 ; 3814.56623324017 ; 288902.3008256188 ; 91549.58959776408 ; 5712.000000000001
25 ; 19155.8768162754 ; 3814.56623324017 ; 307617.8167458779 ; 95364.15583100425 ; 5950.000000000001
26 ; 19655.208262716118 ; 3814.56623324017 ; 326773.6935621533 ; 99178.72206424442 ; 6188.000000000001
27 ; 20054.714359013542 ; 3814.56623324017 ; 346428.90182486945 ; 102993.28829748459 ; 6426.000000000001
28 ; 20615.793187856747 ; 3814.56623324017 ; 366483.616183883 ; 106807.85453072476 ; 6664.000000000001
29 ; 20900.902186628806 ; 3814.56623324017 ; 387099.4093717397 ; 110622.42076396492 ; 6902.000000000001
30 ; 21363.2341941528 ; 3814.56623324017 ; 408000.3115583685 ; 114436.9869972051 ; 7140.000000000001
31 ; 21818.667265587483 ; 3814.56623324017 ; 429363.5457525213 ; 118251.55323044526 ; 7378.000000000001
32 ; 22078.13987143812 ; 3814.56623324017 ; 451182.2130181088 ; 122066.11946368543 ; 7616.000000000001
33 ; 22614.824620402956 ; 3814.56623324017 ; 473260.3528895469 ; 125880.6856969256 ; 7854.000000000001
34 ; 22840.423261991284 ; 3814.56623324017 ; 495875.17750994983 ; 129695.25193016577 ; 8092.000000000001
35 ; 23391.675476376935 ; 3814.56623324017 ; 518715.6007719411 ; 133509.81816340593 ; 8330.000000000002
36 ; 23690.768940444468 ; 3814.56623324017 ; 542107.276248318 ; 137324.3843966461 ; 8568.000000000002
37 ; 23992.000085309817 ; 3814.56623324017 ; 565798.0451887625 ; 141138.9506298863 ; 8806.000000000002
38 ; 24399.367697558217 ; 3814.56623324017 ; 589790.0452740723 ; 144953.51686312648 ; 9044.000000000002
39 ; 24804.402216846727 ; 3814.56623324017 ; 614189.4129716306 ; 148768.08309636667 ; 9282.000000000002
40 ; 25190.232705242768 ; 3814.56623324017 ; 638993.8151884773 ; 152582.64932960685 ; 9520.000000000002
41 ; 25257.178770258226 ; 3814.56623324017 ; 664184.0478937201 ; 156397.21556284704 ; 9758.000000000002
42 ; 25875.63733087602 ; 3814.56623324017 ; 689441.2266639783 ; 160211.78179608722 ; 9996.000000000002
43 ; 25989.31351490206 ; 3814.56623324017 ; 715316.8639948543 ; 164026.3480293274 ; 10234.000000000002
44 ; 26339.481128919524 ; 3814.56623324017 ; 741306.1775097563 ; 167840.9142625676 ; 10472.000000000002
45 ; 26805.552873702225 ; 3814.56623324017 ; 767645.6586386758 ; 171655.48049580777 ; 10710.000000000002
46 ; 27016.506661869553 ; 3814.56623324017 ; 794451.2115123781 ; 175470.04672904796 ; 10948.000000000002
47 ; 27422.368996924688 ; 3814.56623324017 ; 821467.7181742477 ; 179284.61296228814 ; 11186.000000000002
48 ; 27698.782464837554 ; 3814.56623324017 ; 848890.0871711724 ; 183099.17919552833 ; 11424.000000000002
49 ; 27753.442870722887 ; 3814.56623324017 ; 876588.8696360099 ; 186913.7454287685 ; 11662.000000000002
50 ; 28141.266565824975 ; 3814.56623324017 ; 904342.3125067328 ; 190728.3116620087 ; 11900.000000000002
51 ; 28512.735597080173 ; 3814.56623324017 ; 932483.5790725577 ; 194542.87789524888 ; 12138.000000000002
52 ; 28815.231682235106 ; 3814.56623324017 ; 960996.3146696379 ; 198357.44412848906 ; 12376.000000000002
53 ; 29013.35369555795 ; 3814.56623324017 ; 989811.5463518731 ; 202172.01036172925 ; 12614.000000000002
54 ; 29166.2971469388 ; 3814.56623324017 ; 1018824.900047431 ; 205986.57659496943 ; 12852.000000000002
55 ; 29142.293282758023 ; 3814.56623324017 ; 1047991.1971943697 ; 209801.14282820962 ; 13090.000000000002
56 ; 29666.287581876193 ; 3814.56623324017 ; 1077133.4904771277 ; 213615.7090614498 ; 13328.000000000002
57 ; 29773.119271924774 ; 3814.56623324017 ; 1106799.7780590039 ; 217430.27529469 ; 13566.000000000002
58 ; 29977.270300374046 ; 3814.56623324017 ; 1136572.8973309286 ; 221244.84152793017 ; 13804.000000000002
59 ; 30132.069225013576 ; 3814.56623324017 ; 1166550.1676313027 ; 225059.40776117035 ; 14042.000000000002
60 ; 30309.701401468614 ; 3814.56623324017 ; 1196682.2368563162 ; 228873.97399441054 ; 14280.000000000002
61 ; 30397.177779745234 ; 3814.56623324017 ; 1226991.9382577848 ; 232688.54022765072 ; 14518.000000000002
62 ; 30550.98446533799 ; 3814.56623324017 ; 1257389.1160375301 ; 236503.1064608909 ; 14756.000000000002
63 ; 30868.269333000113 ; 3814.56623324017 ; 1287940.1005028682 ; 240317.6726941311 ; 14994.000000000002
64 ; 30925.408648467816 ; 3814.56623324017 ; 1318808.3698358682 ; 244132.23892737128 ; 15232.000000000002
65 ; 31250.837500921923 ; 3814.56623324017 ; 1349733.778484336 ; 247946.80516061146 ; 15470.000000000002
66 ; 31160.45844386232 ; 3814.56623324017 ; 1380984.615985258 ; 251761.37139385164 ; 15708.000000000002
67 ; 31280.833373862595 ; 3814.56623324017 ; 1412145.0744291204 ; 255575.93762709183 ; 15946.000000000002
68 ; 31576.26600716857 ; 3814.56623324017 ; 1443425.907802983 ; 259390.503860332 ; 16184.000000000002
69 ; 31748.48797181966 ; 3814.56623324017 ; 1475002.1738101516 ; 263205.0700935722 ; 16422.000000000004
70 ; 31776.093917538146 ; 3814.56623324017 ; 1506750.6617819713 ; 267019.6363268124 ; 16660.000000000004
71 ; 31883.02873887481 ; 3814.56623324017 ; 1538526.7556995095 ; 270834.20256005257 ; 16898.000000000004
72 ; 31958.433570873793 ; 3814.56623324017 ; 1570409.7844383842 ; 274648.76879329275 ; 17136.000000000004
73 ; 32004.20595474333 ; 3814.56623324017 ; 1602368.218009258 ; 278463.33502653294 ; 17374.000000000004
74 ; 32054.177514409424 ; 3814.56623324017 ; 1634372.4239640012 ; 282277.9012597731 ; 17612.000000000004
75 ; 32306.414624695088 ; 3814.56623324017 ; 1666426.6014784107 ; 286092.4674930133 ; 17850.000000000004
76 ; 32215.952704912008 ; 3814.56623324017 ; 1698733.0161031059 ; 289907.0337262535 ; 18088.000000000004
77 ; 32059.45808852656 ; 3814.56623324017 ; 1730948.968808018 ; 293721.5999594937 ; 18326.000000000004
78 ; 32213.943190788646 ; 3814.56623324017 ; 1763008.4268965444 ; 297536.16619273386 ; 18564.000000000004
79 ; 32303.675690262662 ; 3814.56623324017 ; 1795222.370087333 ; 301350.73242597404 ; 18802.000000000004
80 ; 32313.40310004426 ; 3814.56623324017 ; 1827526.0457775956 ; 305165.2986592142 ; 19040.000000000004
81 ; 32070.68641774529 ; 3814.56623324017 ; 1859839.4488776398 ; 308979.8648924544 ; 19278.000000000004
82 ; 32151.435044953385 ; 3814.56623324017 ; 1891910.135295385 ; 312794.4311256946 ; 19516.000000000004
83 ; 32388.831283289306 ; 3814.56623324017 ; 1924061.5703403384 ; 316608.9973589348 ; 19754.000000000004
84 ; 32360.36586169999 ; 3814.56623324017 ; 1956450.4016236276 ; 320423.56359217496 ; 19992.000000000004
85 ; 32475.756569316385 ; 3814.56623324017 ; 1988810.7674853276 ; 324238.12982541515 ; 20230.000000000004
86 ; 32362.0500477005 ; 3814.56623324017 ; 2021286.524054644 ; 328052.69605865533 ; 20468.000000000004
87 ; 32223.991057217645 ; 3814.56623324017 ; 2053648.5741023445 ; 331867.2622918955 ; 20706.000000000004
88 ; 32118.834550920736 ; 3814.56623324017 ; 2085872.565159562 ; 335681.8285251357 ; 20944.000000000004
89 ; 32284.472348972322 ; 3814.56623324017 ; 2117991.399710483 ; 339496.3947583759 ; 21182.000000000004
90 ; 32283.14942408224 ; 3814.56623324017 ; 2150275.872059455 ; 343310.96099161607 ; 21420.000000000004
91 ; 32226.750804431907 ; 3814.56623324017 ; 2182559.0214835373 ; 347125.52722485625 ; 21658.000000000004
92 ; 32007.14266723501 ; 3814.56623324017 ; 2214785.772287969 ; 350940.09345809644 ; 21896.000000000004
93 ; 31721.52444140217 ; 3814.56623324017 ; 2246792.914955204 ; 354754.6596913366 ; 22134.000000000004
94 ; 31729.573561024612 ; 3814.56623324017 ; 2278514.439396606 ; 358569.2259245768 ; 22372.000000000004
95 ; 31610.3454054773 ; 3814.56623324017 ; 2310244.01295763 ; 362383.792157817 ; 22610.000000000004
96 ; 31572.431908842576 ; 3814.56623324017 ; 2341854.3583631073 ; 366198.3583910572 ; 22848.000000000004
97 ; 31670.404587559948 ; 3814.56623324017 ; 2373426.79027195 ; 370012.92462429736 ; 23086.000000000004
98 ; 31285.355630854563 ; 3814.56623324017 ; 2405097.19485951 ; 373827.49085753754 ; 23324.000000000004
99 ; 31165.952348087805 ; 3814.56623324017 ; 2436382.5504903644 ; 377642.05709077773 ; 23562.000000000004
100 ; 31081.723820538667 ; 3814.56623324017 ; 2467548.5028384523 ; 381456.6233240179 ; 23800.000000000004
101 ; 30872.351372451056 ; 3814.56623324017 ; 2498630.226658991 ; 385271.1895572581 ; 24038.000000000004
102 ; 30677.357612422416 ; 3814.56623324017 ; 2529502.578031442 ; 389085.7557904983 ; 24276.000000000004
103 ; 30716.247949047636 ; 3814.56623324017 ; 2560179.9356438643 ; 392900.32202373847 ; 24514.000000000004
104 ; 30407.831784649978 ; 3814.56623324017 ; 2590896.183592912 ; 396714.88825697865 ; 24752.000000000004
105 ; 30207.97970137719 ; 3814.56623324017 ; 2621304.0153775616 ; 400529.45449021884 ; 24990.000000000004
106 ; 30026.083069586293 ; 3814.56623324017 ; 2651511.9950789385 ; 404344.020723459 ; 25228.000000000004
107 ; 29851.860242228842 ; 3814.56623324017 ; 2681538.0781485247 ; 408158.5869566992 ; 25466.000000000004
108 ; 29759.050802257756 ; 3814.56623324017 ; 2711389.9383907537 ; 411973.1531899394 ; 25704.000000000004
109 ; 29436.442843341367 ; 3814.56623324017 ; 2741148.9891930115 ; 415787.7194231796 ; 25942.000000000004
110 ; 29261.296838154554 ; 3814.56623324017 ; 2770585.432036353 ; 419602.28565641976 ; 26180.000000000004
111 ; 28801.094210702202 ; 3814.56623324017 ; 2799846.7288745074 ; 423416.85188965994 ; 26418.000000000004
112 ; 28654.7439836691 ; 3814.56623324017 ; 2828647.8230852094 ; 427231.4181229001 ; 26656.000000000004
113 ; 28448.601813294226 ; 3814.56623324017 ; 2857302.5670688786 ; 431045.9843561403 ; 26894.000000000004
114 ; 28321.67326627531 ; 3814.56623324017 ; 2885751.1688821726 ; 434860.5505893805 ; 27132.000000000004
115 ; 27928.742934039747 ; 3814.56623324017 ; 2914072.842148448 ; 438675.1168226207 ; 27370.000000000004
116 ; 27717.135928906227 ; 3814.56623324017 ; 2942001.5850824877 ; 442489.68305586086 ; 27608.000000000004
117 ; 27317.05863320951 ; 3814.56623324017 ; 2969718.7210113937 ; 446304.24928910105 ; 27846.000000000004
118 ; 27221.78990575735 ; 3814.56623324017 ; 2997035.7796446034 ; 450118.81552234123 ; 28084.000000000004
119 ; 26725.73716571031 ; 3814.56623324017 ; 3024257.5695503606 ; 453933.3817555814 ; 28322.000000000004
120 ; 26611.830521045893 ; 3814.56623324017 ; 3050983.306716071 ; 457747.9479888216 ; 28560.000000000004
121 ; 26454.271110385598 ; 3814.56623324017 ; 3077595.1372371167 ; 461562.5142220618 ; 28798.000000000004
122 ; 25976.12280043991 ; 3814.56623324017 ; 3104049.4083475024 ; 465377.08045530197 ; 29036.000000000004
123 ; 25663.42750802957 ; 3814.56623324017 ; 3130025.5311479424 ; 469191.64668854215 ; 29274.000000000004
124 ; 25266.69487502231 ; 3814.56623324017 ; 3155688.958655972 ; 473006.21292178234 ; 29512.000000000004
125 ; 24992.120339866047 ; 3814.56623324017 ; 3180955.6535309944 ; 476820.7791550225 ; 29750.000000000004
126 ; 24682.169914050788 ; 3814.56623324017 ; 3205947.7738708607 ; 480635.3453882627 ; 29988.000000000004
127 ; 24306.634059776326 ; 3814.56623324017 ; 3230629.9437849117 ; 484449.9116215029 ; 30226.000000000004
128 ; 23958.526414596567 ; 3814.56623324017 ; 3254936.577844688 ; 488264.4778547431 ; 30464.000000000004
129 ; 23497.8184725248 ; 3814.56623324017 ; 3278895.1042592847 ; 492079.04408798326 ; 30702.000000000004
130 ; 23150.52146088421 ; 3814.56623324017 ; 3302392.9227318093 ; 495893.61032122344 ; 30940.000000000004
131 ; 22623.241467124317 ; 3814.56623324017 ; 3325543.4441926936 ; 499708.17655446363 ; 31178.000000000004
132 ; 22414.198127221047 ; 3814.56623324017 ; 3348166.685659818 ; 503522.7427877038 ; 31416.000000000004
133 ; 21851.72484043606 ; 3814.56623324017 ; 3370580.8837870387 ; 507337.309020944 ; 31654.000000000004
134 ; 21580.68027740709 ; 3814.56623324017 ; 3392432.608627475 ; 511151.8752541842 ; 31892.000000000004
135 ; 20996.181545353673 ; 3814.56623324017 ; 3414013.288904882 ; 514966.44148742437 ; 32130.000000000004
136 ; 20656.398104628253 ; 3814.56623324017 ; 3435009.4704502355 ; 518781.00772066455 ; 32368.000000000004
137 ; 20336.617991378655 ; 3814.56623324017 ; 3455665.8685548636 ; 522595.57395390474 ; 32606.000000000004
138 ; 19801.991424930697 ; 3814.56623324017 ; 3476002.486546242 ; 526410.1401871449 ; 32844.00000000001
139 ; 19509.56629267632 ; 3814.56623324017 ; 3495804.477971173 ; 530224.706420385 ; 33082.00000000001
140 ; 18857.41138493387 ; 3814.56623324017 ; 3515314.044263849 ; 534039.2726536252 ; 33320.00000000001
141 ; 18551.60824550196 ; 3814.56623324017 ; 3534171.455648783 ; 537853.8388868654 ; 33558.00000000001
142 ; 17940.399577961394 ; 3814.56623324017 ; 3552723.063894285 ; 541668.4051201056 ; 33796.00000000001
143 ; 17477.7662746235 ; 3814.56623324017 ; 3570663.463472246 ; 545482.9713533458 ; 34034.00000000001
144 ; 17004.324510706985 ; 3814.56623324017 ; 3588141.2297468698 ; 549297.537586586 ; 34272.00000000001
145 ; 16860.071337105863 ; 3814.56623324017 ; 3605145.554257577 ; 553112.1038198262 ; 34510.00000000001
146 ; 16602.166213025677 ; 3814.56623324017 ; 3622005.6255946825 ; 556926.6700530663 ; 34748.00000000001
147 ; 16528.178124594633 ; 3814.56623324017 ; 3638607.7918077083 ; 560741.2362863065 ; 34986.00000000001
148 ; 16282.722364311687 ; 3814.56623324017 ; 3655135.969932303 ; 564555.8025195467 ; 35224.00000000001
149 ; 16087.693933816961 ; 3814.56623324017 ; 3671418.6922966144 ; 568370.3687527869 ; 35462.00000000001
150 ; 16034.29908595713 ; 3814.56623324017 ; 3687506.3862304315 ; 572184.9349860271 ; 35700.00000000001
151 ; 15927.438522226581 ; 3814.56623324017 ; 3703540.6853163885 ; 575999.5012192673 ; 35938.00000000001
152 ; 15633.212106884583 ; 3814.56623324017 ; 3719468.123838615 ; 579814.0674525074 ; 36176.00000000001
153 ; 15894.791696921488 ; 3814.56623324017 ; 3735101.3359454996 ; 583628.6336857476 ; 36414.00000000001
154 ; 15489.660964012572 ; 3814.56623324017 ; 3750996.127642421 ; 587443.1999189878 ; 36652.00000000001
155 ; 15277.444744149034 ; 3814.56623324017 ; 3766485.7886064337 ; 591257.766152228 ; 36890.00000000001
156 ; 15141.761099828642 ; 3814.56623324017 ; 3781763.233350583 ; 595072.3323854682 ; 37128.00000000001
157 ; 14983.660269013686 ; 3814.56623324017 ; 3796904.9944504118 ; 598886.8986187084 ; 37366.00000000001
158 ; 14744.628059830366 ; 3814.56623324017 ; 3811888.6547194254 ; 602701.4648519485 ; 37604.00000000001
159 ; 14568.818466091152 ; 3814.56623324017 ; 3826633.282779256 ; 606516.0310851887 ; 37842.00000000001
160 ; 14434.594111187509 ; 3814.56623324017 ; 3841202.101245347 ; 610330.5973184289 ; 38080.00000000001
161 ; 14425.602349672925 ; 3814.56623324017 ; 3855636.6953565343 ; 614145.1635516691 ; 38318.00000000001
162 ; 14213.135923630602 ; 3814.56623324017 ; 3870062.2977062073 ; 617959.7297849093 ; 38556.00000000001
163 ; 14032.739096092033 ; 3814.56623324017 ; 3884275.433629838 ; 621774.2960181495 ; 38794.00000000001
164 ; 13762.975417017751 ; 3814.56623324017 ; 3898308.17272593 ; 625588.8622513897 ; 39032.00000000001
165 ; 13679.47973421807 ; 3814.56623324017 ; 3912071.148142948 ; 629403.4284846298 ; 39270.00000000001
166 ; 13270.397526399598 ; 3814.56623324017 ; 3925750.627877166 ; 633217.99471787 ; 39508.00000000001
167 ; 13371.747942620555 ; 3814.56623324017 ; 3939021.0254035657 ; 637032.5609511102 ; 39746.00000000001
168 ; 12853.681455209477 ; 3814.56623324017 ; 3952392.773346186 ; 640847.1271843504 ; 39984.00000000001
169 ; 12642.678668271292 ; 3814.56623324017 ; 3965246.4548013955 ; 644661.6934175906 ; 40222.00000000001
170 ; 12410.518124519112 ; 3814.56623324017 ; 3977889.133469667 ; 648476.2596508308 ; 40460.00000000001
171 ; 12314.460527281137 ; 3814.56623324017 ; 3990299.6515941857 ; 652290.825884071 ; 40698.00000000001
172 ; 12076.572534248266 ; 3814.56623324017 ; 4002614.112121467 ; 656105.3921173111 ; 40936.00000000001
173 ; 12075.648351138483 ; 3814.56623324017 ; 4014690.6846557152 ; 659919.9583505513 ; 41174.00000000001
174 ; 11796.635801830518 ; 3814.56623324017 ; 4026766.3330068537 ; 663734.5245837915 ; 41412.00000000001
175 ; 12150.563294192167 ; 3814.56623324017 ; 4038562.968808684 ; 667549.0908170317 ; 41650.00000000001
176 ; 12265.108543784418 ; 3814.56623324017 ; 4050713.5321028763 ; 671363.6570502719 ; 41888.00000000001
177 ; 12129.03856471426 ; 3814.56623324017 ; 4062978.6406466607 ; 675178.223283512 ; 42126.00000000001
178 ; 12223.8033102539 ; 3814.56623324017 ; 4075107.679211375 ; 678992.7895167522 ; 42364.00000000001
179 ; 12138.976764527526 ; 3814.56623324017 ; 4087331.482521629 ; 682807.3557499924 ; 42602.00000000001
180 ; 12467.531230110226 ; 3814.56623324017 ; 4099470.4592861566 ; 686621.9219832326 ; 42840.00000000001
181 ; 12260.50713724905 ; 3814.56623324017 ; 4111937.990516267 ; 690436.4882164728 ; 43078.00000000001
182 ; 12377.961643390128 ; 3814.56623324017 ; 4124198.497653516 ; 694251.054449713 ; 43316.00000000001
183 ; 12472.703790006812 ; 3814.56623324017 ; 4136576.4592969064 ; 698065.6206829532 ; 43554.00000000001
184 ; 12484.055558500155 ; 3814.56623324017 ; 4149049.163086913 ; 701880.1869161933 ; 43792.00000000001
185 ; 12447.717321897899 ; 3814.56623324017 ; 4161533.2186454134 ; 705694.7531494335 ; 44030.00000000001
186 ; 12519.043896688745 ; 3814.56623324017 ; 4173980.9359673113 ; 709509.3193826737 ; 44268.00000000001
187 ; 12493.284399867958 ; 3814.56623324017 ; 4186499.979864 ; 713323.8856159139 ; 44506.00000000001
188 ; 12558.179802039951 ; 3814.56623324017 ; 4198993.264263867 ; 717138.4518491541 ; 44744.00000000001
