CSV File for the City 3 on Day 184
1 - Minute m 
2 - Power Consumed at minute m 
3 - Power Produced at minute m 
4 - Energy Consumed since the beginning of the day 
5 - Energy Produced since the beginning of the day 
6 - Energy Lost since the beginning of the day on lines starting from the city
 
0 ; 4434.573054048796 ; 77807.35208002478 ; 0.0 ; 0.0 ; 0.0
1 ; 4906.7373235995565 ; 77450.20745572213 ; 4434.573054048796 ; 77807.35208002478 ; 0.0
2 ; 5469.784208152827 ; 77129.18170690342 ; 9341.310377648351 ; 155257.55953574693 ; 0.0
3 ; 5684.639881865985 ; 76844.75209334967 ; 14811.094585801178 ; 232386.74124265034 ; 0.0
4 ; 6338.128387476597 ; 76597.34806512158 ; 20495.734467667164 ; 309231.493336 ; 0.0
5 ; 6606.213235246534 ; 76387.34830263205 ; 26833.86285514376 ; 385828.8414011216 ; 0.0
6 ; 7152.105273126736 ; 76215.07804338641 ; 33440.0760903903 ; 462216.1897037536 ; 0.0
7 ; 7483.172505207301 ; 76080.80673838423 ; 40592.18136351703 ; 538431.26774714 ; 0.0
8 ; 7779.35433502249 ; 75984.74607700764 ; 48075.353868724334 ; 614512.0744855242 ; 0.0
9 ; 8232.79759636868 ; 75927.04841392413 ; 55854.70820374682 ; 690496.8205625318 ; 0.0
10 ; 8557.420446840846 ; 75907.80562523073 ; 64087.5058001155 ; 766423.868976456 ; 0.0
11 ; 8955.72162528504 ; 75927.04841392413 ; 72644.92624695634 ; 842331.6746016868 ; 0.0
12 ; 9296.020065524684 ; 75984.74607700764 ; 81600.64787224137 ; 918258.723015611 ; 0.0
13 ; 9556.581569897697 ; 76080.80673838423 ; 90896.66793776606 ; 994243.4690926186 ; 0.0
14 ; 10019.123773377607 ; 76215.07804338637 ; 100453.24950766376 ; 1070324.2758310027 ; 0.0
15 ; 10320.017291482018 ; 76387.34830263205 ; 110472.37328104136 ; 1146539.353874389 ; 0.0
16 ; 10754.43858621574 ; 76597.34806512158 ; 120792.39057252338 ; 1222926.7021770212 ; 0.0
17 ; 11080.95654092303 ; 76844.75209334961 ; 131546.82915873913 ; 1299524.0502421428 ; 0.0
18 ; 11481.171805486018 ; 77129.18170690347 ; 142627.78569966217 ; 1376368.8023354923 ; 0.0
19 ; 11785.241926596063 ; 77450.20745572208 ; 154108.9575051482 ; 1453497.9840423958 ; 0.0
20 ; 12157.47690038502 ; 77807.35208002484 ; 165894.19943174426 ; 1530948.191498118 ; 0.0
21 ; 12489.935564770865 ; 78200.09371095088 ; 178051.67633212928 ; 1608755.5435781428 ; 0.0
22 ; 12760.7095556711 ; 78627.86926420679 ; 190541.61189690014 ; 1686955.6372890936 ; 0.0
23 ; 13137.246296107161 ; 79090.07797846981 ; 203302.32145257125 ; 1765583.5065533004 ; 0.0
24 ; 13436.09126588155 ; 79586.08505086701 ; 216439.5677486784 ; 1844673.5845317703 ; 0.0
25 ; 13702.050458911177 ; 80115.22532344953 ; 229875.65901455996 ; 1924259.6695826373 ; 0.0
26 ; 13949.921184876996 ; 80676.8069770571 ; 243577.70947347113 ; 2004374.8949060868 ; 0.0
27 ; 14200.682355531317 ; 81270.1151921867 ; 257527.63065834812 ; 2085051.701883144 ; 0.0
28 ; 14776.47118249559 ; 81894.41574026222 ; 271728.31301387947 ; 2166321.8170753308 ; 0.0
29 ; 14810.236320197744 ; 82548.95847290005 ; 286504.78419637505 ; 2248216.232815593 ; 0.0
30 ; 14990.819609137947 ; 83232.98068120536 ; 301315.0205165728 ; 2330765.191288493 ; 0.0
31 ; 15323.40371358336 ; 83945.71030168208 ; 316305.84012571076 ; 2413998.1719696983 ; 0.0
32 ; 15574.847770509252 ; 84686.368949854 ; 331629.2438392941 ; 2497943.88227138 ; 0.0
33 ; 16064.641516860407 ; 85454.1747670686 ; 347204.0916098034 ; 2582630.251221234 ; 0.0
34 ; 16096.957819597881 ; 86248.34507009572 ; 363268.7331266638 ; 2668084.4259883026 ; 0.0
35 ; 16493.182610594235 ; 87068.09879696633 ; 379365.69094626163 ; 2754332.7710583983 ; 0.0
36 ; 16637.837366152984 ; 87912.65874597472 ; 395858.8735568559 ; 2841400.869855365 ; 0.0
37 ; 16983.921381737713 ; 88781.25360785592 ; 412496.71092300885 ; 2929313.5286013396 ; 0.0
38 ; 17326.156963866226 ; 89673.11979383323 ; 429480.63230474654 ; 3018094.7822091957 ; 0.0
39 ; 17451.08438346686 ; 90587.50306450996 ; 446806.78926861275 ; 3107767.902003029 ; 0.0
40 ; 17647.850532002743 ; 91523.65996645796 ; 464257.8736520796 ; 3198355.405067539 ; 0.0
41 ; 17774.787634433196 ; 92480.8590848658 ; 481905.72418408236 ; 3289879.065033997 ; 0.0
42 ; 18093.302291338172 ; 93458.38212176082 ; 499680.51181851554 ; 3382359.924118863 ; 0.0
43 ; 18266.225955428024 ; 94455.5248101621 ; 517773.8141098537 ; 3475818.306240624 ; 0.0
44 ; 18553.099482408626 ; 95471.59767507129 ; 536040.0400652817 ; 3570273.8310507857 ; 0.0
45 ; 18691.893249775447 ; 96505.92665251753 ; 554593.1395476903 ; 3665745.428725857 ; 0.0
46 ; 18890.05787677928 ; 97557.85357796034 ; 573285.0327974657 ; 3762251.3553783745 ; 0.0
47 ; 19080.124578726067 ; 98626.73655526967 ; 592175.0906742449 ; 3859809.2089563347 ; 0.0
48 ; 19250.083710683513 ; 99711.95021726274 ; 611255.2152529709 ; 3958435.945511604 ; 0.0
49 ; 19548.03377939926 ; 100812.88588842493 ; 630505.2989636544 ; 4058147.895728867 ; 0.0
50 ; 19483.494648905766 ; 101928.95165999398 ; 650053.3327430537 ; 4158960.781617292 ; 0.0
51 ; 19669.916232498184 ; 103059.57238707197 ; 669536.8273919595 ; 4260889.733277286 ; 0.0
52 ; 19974.123891502237 ; 104204.1896168672 ; 689206.7436244576 ; 4363949.305664359 ; 0.0
53 ; 20043.641370040994 ; 105362.26145657527 ; 709180.8675159599 ; 4468153.495281226 ; 0.0
54 ; 20085.113451929756 ; 106533.26238880187 ; 729224.5088860008 ; 4573515.756737801 ; 0.0
55 ; 20237.38998829522 ; 107716.68304181813 ; 749309.6223379306 ; 4680049.019126603 ; 0.0
56 ; 20547.54850486113 ; 108912.02992134039 ; 769547.0123262259 ; 4787765.702168422 ; 0.0
57 ; 20566.136369495453 ; 110118.82510993496 ; 790094.560831087 ; 4896677.732089763 ; 0.0
58 ; 20992.07600806671 ; 111336.60593958652 ; 810660.6972005824 ; 5006796.557199698 ; 0.0
59 ; 20953.045536660462 ; 112564.92464242851 ; 831652.7732086491 ; 5118133.163139285 ; 0.0
60 ; 21162.01536831157 ; 113803.34798412368 ; 852605.8187453096 ; 5230698.087781713 ; 0.0
61 ; 21101.884346439583 ; 115051.45688390487 ; 873767.8341136212 ; 5344501.435765837 ; 0.0
62 ; 21213.631401372364 ; 116308.84602484113 ; 894869.7184600608 ; 5459552.892649742 ; 0.0
63 ; 21610.735405376432 ; 117575.12345747894 ; 916083.3498614331 ; 5575861.738674583 ; 0.0
64 ; 21383.672068675565 ; 118849.9101996307 ; 937694.0852668096 ; 5693436.862132062 ; 0.0
65 ; 21492.2824228478 ; 120132.83983473176 ; 959077.7573354851 ; 5812286.772331693 ; 0.0
66 ; 21500.24425818029 ; 121423.55811086996 ; 980570.0397583329 ; 5932419.612166425 ; 0.0
67 ; 21699.401839254235 ; 122721.72254230251 ; 1002070.2840165131 ; 6053843.170277296 ; 0.0
68 ; 21758.92461230668 ; 124027.00201501549 ; 1023769.6858557673 ; 6176564.892819598 ; 0.0
69 ; 21790.86904957319 ; 125339.07639764357 ; 1045528.610468074 ; 6300591.894834613 ; 0.0
70 ; 22014.293221229575 ; 126657.6361588595 ; 1067319.479517647 ; 6425930.971232257 ; 0.0
71 ; 22041.460096388073 ; 127982.38199215279 ; 1089333.7727388768 ; 6552588.607391116 ; 0.0
72 ; 21839.49295433317 ; 129313.02444875026 ; 1111375.2328352649 ; 6680570.989383269 ; 0.0
73 ; 22199.315332380476 ; 130649.28357928338 ; 1133214.725789598 ; 6809884.01383202 ; 0.0
74 ; 22184.914124797648 ; 131990.8885846748 ; 1155414.0411219785 ; 6940533.297411303 ; 0.0
75 ; 22032.01576755698 ; 133337.57747660246 ; 1177598.955246776 ; 7072524.185995977 ; 0.0
76 ; 22307.684849770925 ; 134689.09674779885 ; 1199630.9710143332 ; 7205861.763472579 ; 0.0
77 ; 22357.713380505462 ; 136045.20105235442 ; 1221938.6558641042 ; 7340550.860220378 ; 0.0
78 ; 22365.612375587905 ; 137405.65289611943 ; 1244296.3692446097 ; 7476596.061272733 ; 0.0
79 ; 22380.833254867397 ; 138770.22233723063 ; 1266661.9816201977 ; 7614001.714168852 ; 0.0
80 ; 22399.91607829339 ; 140138.68669673573 ; 1289042.814875065 ; 7752771.936506083 ; 0.0
81 ; 22420.22882008509 ; 141510.83027923832 ; 1311442.7309533586 ; 7892910.623202819 ; 0.0
82 ; 22317.298734079108 ; 142886.44410344656 ; 1333862.9597734436 ; 8034421.453482058 ; 0.0
83 ; 22335.18528362963 ; 144265.3256424754 ; 1356180.2585075228 ; 8177307.897585505 ; 0.0
84 ; 22634.945886336136 ; 145647.278573723 ; 1378515.4437911524 ; 8321573.22322798 ; 0.0
85 ; 22501.887546649188 ; 147032.11253812004 ; 1401150.3896774885 ; 8467220.501801703 ; 0.0
86 ; 22291.473702712912 ; 148419.64290853182 ; 1423652.2772241377 ; 8614252.614339823 ; 0.0
87 ; 22254.73067862206 ; 149809.69056707848 ; 1445943.7509268506 ; 8762672.257248355 ; 0.0
88 ; 22398.56774718817 ; 151202.08169112797 ; 1468198.4816054727 ; 8912481.947815433 ; 0.0
89 ; 22214.523019002085 ; 152596.6475477085 ; 1490597.049352661 ; 9063684.02950656 ; 0.0
90 ; 22177.232569808235 ; 153993.2242960808 ; 1512811.572371663 ; 9216280.67705427 ; 0.0
91 ; 22245.81755467171 ; 155391.65279820858 ; 1534988.8049414712 ; 9370273.90135035 ; 0.0
92 ; 22055.12176707369 ; 156791.77843686377 ; 1557234.622496143 ; 9525665.554148559 ; 0.0
93 ; 21840.88775180969 ; 158193.45094110278 ; 1579289.7442632166 ; 9682457.332585422 ; 0.0
94 ; 22067.694330021317 ; 159596.52421885316 ; 1601130.6320150264 ; 9840650.783526525 ; 0.0
95 ; 21918.751462580338 ; 161000.85619635152 ; 1623198.3263450477 ; 1.0000247307745378E7 ; 0.0
96 ; 21844.442311973587 ; 162406.30866417853 ; 1645117.077807628 ; 1.016124816394173E7 ; 0.0
97 ; 21835.153081803328 ; 163812.74712964008 ; 1666961.5201196016 ; 1.0323654472605908E7 ; 0.0
98 ; 21684.666032665285 ; 165220.0406752512 ; 1688796.673201405 ; 1.0487467219735548E7 ; 0.0
99 ; 21865.50388491044 ; 166628.06182308236 ; 1710481.3392340702 ; 1.0652687260410799E7 ; 0.0
100 ; 21575.888954847367 ; 168036.6864047366 ; 1732346.8431189805 ; 1.0819315322233882E7 ; 0.0
101 ; 21520.18036064336 ; 169445.79343673043 ; 1753922.7320738279 ; 1.0987352008638619E7 ; 0.0
102 ; 21461.048998931597 ; 170855.26500105977 ; 1775442.9124344713 ; 1.1156797802075349E7 ; 0.0
103 ; 21320.288842562353 ; 172264.9861307377 ; 1796903.961433403 ; 1.132765306707641E7 ; 0.0
104 ; 21153.724883510655 ; 173674.84470009894 ; 1818224.2502759653 ; 1.1499918053207148E7 ; 0.0
105 ; 21074.488648779916 ; 175084.7313196727 ; 1839377.975159476 ; 1.1673592897907246E7 ; 0.0
106 ; 20985.868480822544 ; 176494.53923543156 ; 1860452.463808256 ; 1.184867762922692E7 ; 0.0
107 ; 20722.160319112412 ; 177904.16423223322 ; 1881438.3322890785 ; 1.2025172168462351E7 ; 0.0
108 ; 20696.04985332864 ; 179313.50454127594 ; 1902160.492608191 ; 1.2203076332694585E7 ; 0.0
109 ; 20608.515289008556 ; 180722.46075139786 ; 1922856.5424615196 ; 1.238238983723586E7 ; 0.0
110 ; 20336.531316148892 ; 182130.9357240557 ; 1943465.0577505282 ; 1.2563112297987258E7 ; 0.0
111 ; 20238.541337808274 ; 183538.83451182538 ; 1963801.589066677 ; 1.2745243233711313E7 ; 0.0
112 ; 19913.74122436876 ; 184946.06428027272 ; 1984040.1304044854 ; 1.292878206822314E7 ; 0.0
113 ; 19852.805638905666 ; 186352.53423304943 ; 2003953.8716288542 ; 1.3113728132503413E7 ; 0.0
114 ; 19796.804835821033 ; 187758.1555400752 ; 2023806.6772677598 ; 1.3300080666736461E7 ; 0.0
115 ; 19586.405839008683 ; 189162.84126867275 ; 2043603.4821035808 ; 1.3487838822276536E7 ; 0.0
116 ; 19373.817167864065 ; 190566.5063175275 ; 2063189.8879425896 ; 1.367700166354521E7 ; 0.0
117 ; 19173.54756134135 ; 191969.0673533505 ; 2082563.7051104535 ; 1.3867568169862738E7 ; 0.0
118 ; 18967.336330361522 ; 193370.44275012668 ; 2101737.252671795 ; 1.4059537237216089E7 ; 0.0
119 ; 18938.053004482652 ; 194770.55253083736 ; 2120704.5890021566 ; 1.4252907679966215E7 ; 0.0
120 ; 18629.062741841975 ; 196169.3183115491 ; 2139642.6420066394 ; 1.4447678232497053E7 ; 0.0
121 ; 18426.81722664055 ; 197566.6632477672 ; 2158271.7047484815 ; 1.4643847550808603E7 ; 0.0
122 ; 18248.82488803473 ; 198962.5119829553 ; 2176698.521975122 ; 1.484141421405637E7 ; 0.0
123 ; 17951.601844130062 ; 200356.790599128 ; 2194947.3468631567 ; 1.5040376726039326E7 ; 0.0
124 ; 17973.134833517004 ; 201749.42656942693 ; 2212898.9487072867 ; 1.5240733516638454E7 ; 0.0
125 ; 17536.755129980407 ; 203140.34871259445 ; 2230872.0835408038 ; 1.544248294320788E7 ; 0.0
126 ; 17334.073045132587 ; 204529.48714926382 ; 2248408.838670784 ; 1.5645623291920476E7 ; 0.0
127 ; 17073.166415737745 ; 205916.77325998727 ; 2265742.911715917 ; 1.585015277906974E7 ; 0.0
128 ; 16918.53228079761 ; 207302.13964492804 ; 2282816.0781316548 ; 1.6056069552329728E7 ; 0.0
129 ; 16532.522245851906 ; 208685.5200851448 ; 2299734.6104124524 ; 1.6263371691974657E7 ; 0.0
130 ; 16540.367502298483 ; 210066.84950539994 ; 2316267.132658304 ; 1.6472057212059801E7 ; 0.0
131 ; 16281.782675791861 ; 211446.06393842827 ; 2332807.500160603 ; 1.6682124061565202E7 ; 0.0
132 ; 15872.31367831347 ; 212823.10049060217 ; 2349089.282836395 ; 1.689357012550363E7 ; 0.0
133 ; 15475.295135540071 ; 214197.89730893538 ; 2364961.5965147084 ; 1.7106393225994233E7 ; 0.0
134 ; 15367.479858827743 ; 215570.39354936816 ; 2380436.8916502483 ; 1.7320591123303168E7 ; 0.0
135 ; 15132.366666938993 ; 216940.5293462796 ; 2395804.371509076 ; 1.7536161516852535E7 ; 0.0
136 ; 14800.129020015185 ; 218308.24578317621 ; 2410936.738176015 ; 1.7753102046198815E7 ; 0.0
137 ; 14563.583148113443 ; 219673.4848645062 ; 2425736.8671960304 ; 1.797141029198199E7 ; 0.0
138 ; 14199.312236710719 ; 221036.18948855362 ; 2440300.450344144 ; 1.81910837768465E7 ; 0.0
139 ; 14081.965734043155 ; 222396.30342136673 ; 2454499.762580855 ; 1.841211996633505E7 ; 0.0
140 ; 13645.404541201979 ; 223753.77127167696 ; 2468581.728314898 ; 1.8634516269756418E7 ; 0.0
141 ; 13354.095852178738 ; 225108.53846676878 ; 2482227.1328561 ; 1.8858270041028094E7 ; 0.0
142 ; 13032.710217044358 ; 226460.5512292595 ; 2495581.2287082784 ; 1.9083378579494864E7 ; 0.0
143 ; 12479.157547649043 ; 227809.75655475358 ; 2508613.9389253226 ; 1.9309839130724125E7 ; 0.0
144 ; 12452.747443841508 ; 229156.10219033321 ; 2521093.0964729716 ; 1.9537648887278877E7 ; 0.0
145 ; 12250.510096537122 ; 230499.53661385283 ; 2533545.843916813 ; 1.976680498946921E7 ; 0.0
146 ; 12089.175936324016 ; 231840.00901400333 ; 2545796.35401335 ; 1.9997304526083063E7 ; 0.0
147 ; 11995.689091023472 ; 233177.46927111616 ; 2557885.529949674 ; 2.0229144535097066E7 ; 0.0
148 ; 11971.664658146945 ; 234511.867938676 ; 2569881.2190406974 ; 2.0462322004368182E7 ; 0.0
149 ; 11944.027284184864 ; 235843.15622551407 ; 2581852.8836988444 ; 2.0696833872306857E7 ; 0.0
150 ; 11755.989169206132 ; 237171.28597865443 ; 2593796.9109830293 ; 2.093267702853237E7 ; 0.0
151 ; 11797.646512602238 ; 238496.20966678753 ; 2605552.9001522353 ; 2.1169848314511027E7 ; 0.0
152 ; 11589.804294270247 ; 239817.88036434542 ; 2617350.5466648377 ; 2.1408344524177816E7 ; 0.0
153 ; 11522.877183411943 ; 241136.2517361547 ; 2628940.350959108 ; 2.1648162404542163E7 ; 0.0
154 ; 11398.645781106878 ; 242451.27802264495 ; 2640463.22814252 ; 2.1889298656278316E7 ; 0.0
155 ; 11338.96595238135 ; 243762.91402559 ; 2651861.8739236267 ; 2.213174993430096E7 ; 0.0
156 ; 11187.380429354576 ; 245071.11509436116 ; 2663200.839876008 ; 2.237551284832655E7 ; 0.0
157 ; 11249.311261295325 ; 246375.83711267234 ; 2674388.2203053627 ; 2.262058396342091E7 ; 0.0
158 ; 10888.01657587206 ; 247677.03648579874 ; 2685637.531566658 ; 2.286695980053358E7 ; 0.0
159 ; 10960.369286487163 ; 248974.67012824886 ; 2696525.54814253 ; 2.311463683701938E7 ; 0.0
160 ; 10683.42849305262 ; 250268.69545187417 ; 2707485.9174290174 ; 2.336361150714763E7 ; 0.0
161 ; 10608.044776561857 ; 251559.07035439755 ; 2718169.34592207 ; 2.3613880202599503E7 ; 0.0
162 ; 10605.07128859009 ; 252845.75320834693 ; 2728777.3906986318 ; 2.38654392729539E7 ; 0.0
163 ; 10425.373177493973 ; 254128.70285037585 ; 2739382.461987222 ; 2.4118285026162248E7 ; 0.0
164 ; 10257.859023828374 ; 255407.87857095784 ; 2749807.835164716 ; 2.4372413729012623E7 ; 0.0
165 ; 10139.570820851111 ; 256683.2401044402 ; 2760065.6941885445 ; 2.4627821607583582E7 ; 0.0
166 ; 10078.101446410406 ; 257954.74761944322 ; 2770205.265009396 ; 2.4884504847688023E7 ; 0.0
167 ; 9871.692220945963 ; 259222.36170959158 ; 2780283.366455806 ; 2.5142459595307466E7 ; 0.0
168 ; 9606.773773926838 ; 260486.04338456632 ; 2790155.058676752 ; 2.5401681957017057E7 ; 0.0
169 ; 9534.53450713463 ; 261745.7540614641 ; 2799761.8324506786 ; 2.5662168000401624E7 ; 0.0
170 ; 9480.027416041394 ; 263001.45555645355 ; 2809296.366957813 ; 2.5923913754463088E7 ; 0.0
171 ; 9379.877845374716 ; 264253.1100767168 ; 2818776.3943738546 ; 2.618691521001954E7 ; 0.0
172 ; 9133.797817778972 ; 265500.68021266605 ; 2828156.2722192295 ; 2.6451168320096258E7 ; 0.0
173 ; 9152.43515164854 ; 266744.1289304242 ; 2837290.0700370083 ; 2.6716669000308923E7 ; 0.0
174 ; 9070.018429763957 ; 267983.419564562 ; 2846442.505188657 ; 2.6983413129239347E7 ; 0.0
175 ; 9100.933589360218 ; 269218.5158110786 ; 2855512.523618421 ; 2.725139654880391E7 ; 0.0
176 ; 8971.886422369465 ; 270449.381720621 ; 2864613.4572077813 ; 2.752061506461499E7 ; 0.0
177 ; 9080.240609795806 ; 271675.9816919299 ; 2873585.343630151 ; 2.779106444633561E7 ; 0.0
178 ; 9181.345728411785 ; 272898.2804655066 ; 2882665.5842399467 ; 2.806274042802754E7 ; 0.0
179 ; 9236.403468260141 ; 274116.2431174904 ; 2891846.9299683585 ; 2.8335638708493046E7 ; 0.0
180 ; 9120.487350981351 ; 275329.8350537416 ; 2901083.3334366186 ; 2.8609754951610535E7 ; 0.0
181 ; 9324.8554361573 ; 276539.0220041206 ; 2910203.8207876 ; 2.8885084786664277E7 ; 0.0
182 ; 9192.448642785446 ; 277743.77001695684 ; 2919528.676223757 ; 2.9161623808668397E7 ; 0.0
183 ; 9188.212087143354 ; 278944.04545370163 ; 2928721.124866543 ; 2.9439367578685354E7 ; 0.0
184 ; 9380.952760255113 ; 280139.81498375634 ; 2937909.336953686 ; 2.9718311624139056E7 ; 0.0
185 ; 9379.380028214293 ; 281331.04557947244 ; 2947290.289713941 ; 2.999845143912281E7 ; 0.0
186 ; 9447.991186180763 ; 282517.7045113149 ; 2956669.6697421554 ; 3.027978248470228E7 ; 0.0
187 ; 9508.906387218787 ; 283699.7593431844 ; 2966117.660928336 ; 3.0562300189213596E7 ; 0.0
188 ; 9445.150137724906 ; 284877.1779278931 ; 2975626.5673155547 ; 3.084599994855678E7 ; 0.0
189 ; 9312.058469481519 ; 286049.9284027876 ; 2985071.7174532795 ; 3.1130877126484673E7 ; 0.0
190 ; 9591.439687783779 ; 287217.9791855149 ; 2994383.775922761 ; 3.1416927054887462E7 ; 0.0
191 ; 9533.770487227694 ; 288381.298969926 ; 3003975.2156105447 ; 3.1704145034072977E7 ; 0.0
192 ; 9453.272731031011 ; 289539.8567221123 ; 3013508.986097772 ; 3.19925263330429E7 ; 0.0
193 ; 9597.636567774693 ; 290693.6216765703 ; 3022962.258828803 ; 3.2282066189765014E7 ; 0.0
194 ; 9630.129862024392 ; 291842.56333249115 ; 3032559.8953965777 ; 3.2572759811441585E7 ; 0.0
195 ; 9720.906953714935 ; 292986.6514501685 ; 3042190.025258602 ; 3.2864602374774076E7 ; 0.0
196 ; 9696.823952289189 ; 294125.85604752344 ; 3051910.932212317 ; 3.3157589026224244E7 ; 0.0
197 ; 9750.26972561727 ; 295260.1473967407 ; 3061607.756164606 ; 3.3451714882271767E7 ; 0.0
198 ; 9989.306415727644 ; 296389.4960210121 ; 3071358.0258902237 ; 3.374697502966851E7 ; 0.0
199 ; 9761.351043286293 ; 297513.87269138603 ; 3081347.3323059515 ; 3.404336452568952E7 ; 0.0
200 ; 9882.428115289713 ; 298633.2484237165 ; 3091108.683349238 ; 3.4340878398380905E7 ; 0.0
201 ; 9863.09492379182 ; 299747.59447570995 ; 3100991.1114645274 ; 3.463951164680462E7 ; 0.0
202 ; 9887.404843665694 ; 300856.8823440665 ; 3110854.2063883194 ; 3.493925924128033E7 ; 0.0
203 ; 9788.177437757175 ; 301961.0837617124 ; 3120741.611231985 ; 3.52401161236244E7 ; 0.0
204 ; 10002.502654967659 ; 303060.1706951205 ; 3130529.788669742 ; 3.554207720738611E7 ; 0.0
205 ; 10090.511558452106 ; 304154.11534171575 ; 3140532.29132471 ; 3.584513737808123E7 ; 0.0
206 ; 9882.983276238152 ; 305242.89012736344 ; 3150622.802883162 ; 3.614929149342295E7 ; 0.0
207 ; 10051.464865464315 ; 306326.4677039366 ; 3160505.7861594004 ; 3.645453438355031E7 ; 0.0
208 ; 10152.528471984457 ; 307404.82094696147 ; 3170557.2510248646 ; 3.676086085125425E7 ; 0.0
209 ; 10020.261489443872 ; 308477.92295333603 ; 3180709.779496849 ; 3.706826567220121E7 ; 0.0
210 ; 10152.057218806025 ; 309545.7470391227 ; 3190730.040986293 ; 3.7376743595154546E7 ; 0.0
211 ; 10133.262107784838 ; 310608.2667374088 ; 3200882.098205099 ; 3.768628934219367E7 ; 0.0
212 ; 10184.736342638249 ; 311665.45579623606 ; 3211015.3603128837 ; 3.799689760893108E7 ; 0.0
