CSV File for the City 3 on Day 224
1 - Minute m 
2 - Power Consumed at minute m 
3 - Power Produced at minute m 
4 - Energy Consumed since the beginning of the day 
5 - Energy Produced since the beginning of the day 
6 - Energy Lost since the beginning of the day on lines starting from the city
 
0 ; 3840.9531982317676 ; 22234.788807232984 ; 0.0 ; 0.0 ; 0.0
1 ; 4395.941763709453 ; 21370.800097887997 ; 3840.9531982317676 ; 22234.788807232984 ; 0.0
2 ; 4802.416670467026 ; 20566.828067672493 ; 8236.89496194122 ; 43605.58890512098 ; 0.0
3 ; 5318.696423731905 ; 19830.238545765293 ; 13039.311632408246 ; 64172.41697279348 ; 0.0
4 ; 5751.324447121447 ; 19168.860031649678 ; 18358.008056140152 ; 84002.65551855878 ; 0.0
5 ; 6087.18156348627 ; 18590.774147617652 ; 24109.332503261598 ; 103171.51555020845 ; 0.0
6 ; 6836.499663889344 ; 18104.007528076578 ; 30196.514066747866 ; 121762.28969782611 ; 0.0
7 ; 7116.656131060779 ; 17716.127417259235 ; 37033.01373063721 ; 139866.2972259027 ; 0.0
8 ; 7745.938160051943 ; 17433.765736269255 ; 44149.66986169799 ; 157582.42464316194 ; 0.0
9 ; 8084.7010730773745 ; 17262.123150127874 ; 51895.60802174993 ; 175016.19037943118 ; 0.0
10 ; 8464.146322444823 ; 17204.526959271672 ; 59980.30909482731 ; 192278.31352955906 ; 0.0
11 ; 8935.86960948428 ; 17262.123150127874 ; 68444.45541727214 ; 209482.84048883073 ; 0.0
12 ; 9277.575603616142 ; 17433.765736269255 ; 77380.32502675641 ; 226744.9636389586 ; 0.0
13 ; 9731.768823643437 ; 17716.127417259235 ; 86657.90063037256 ; 244178.72937522788 ; 0.0
14 ; 10212.591453974404 ; 18104.007528076334 ; 96389.669454016 ; 261894.85679248712 ; 0.0
15 ; 10462.376231151871 ; 18590.774147617652 ; 106602.26090799039 ; 279998.86432056344 ; 0.0
16 ; 10988.680827059998 ; 19168.860031649678 ; 117064.63713914226 ; 298589.6384681811 ; 0.0
17 ; 11342.309215811443 ; 19830.23854576507 ; 128053.31796620226 ; 317758.4984998308 ; 0.0
18 ; 11656.660117983278 ; 20566.82806767271 ; 139395.6271820137 ; 337588.73704559583 ; 0.0
19 ; 12125.7952211207 ; 21370.800097887997 ; 151052.28729999697 ; 358155.56511326856 ; 0.0
20 ; 12483.239741951962 ; 22234.788807233184 ; 163178.08252111767 ; 379526.36521115655 ; 0.0
21 ; 12964.982273300093 ; 23152.01410511147 ; 175661.32226306963 ; 401761.15401838976 ; 0.0
22 ; 13234.989386731706 ; 24116.336745183227 ; 188626.30453636972 ; 424913.16812350124 ; 0.0
23 ; 13517.289835208509 ; 25122.26472100713 ; 201861.29392310142 ; 449029.50486868445 ; 0.0
24 ; 13733.750997360507 ; 26164.92777174853 ; 215378.58375830992 ; 474151.7695896916 ; 0.0
25 ; 14412.025120824379 ; 27240.0331759031 ; 229112.33475567042 ; 500316.6973614401 ; 0.0
26 ; 14588.59544200934 ; 28343.812351816956 ; 243524.3598764948 ; 527556.7305373432 ; 0.0
27 ; 14849.82032072909 ; 29472.964674739593 ; 258112.95531850413 ; 555900.5428891601 ; 0.0
28 ; 15272.96497328804 ; 30624.602528835865 ; 272962.77563923324 ; 585373.5075638997 ; 0.0
29 ; 15568.384551870367 ; 31796.199898251136 ; 288235.7406125213 ; 615998.1100927356 ; 0.0
30 ; 15768.473975730069 ; 32985.54564033982 ; 303804.12516439165 ; 647794.3099909867 ; 0.0
31 ; 16246.438496481893 ; 34190.701838628425 ; 319572.5991401217 ; 680779.8556313266 ; 0.0
32 ; 16490.850754835647 ; 35409.96718150677 ; 335819.03763660364 ; 714970.557469955 ; 0.0
33 ; 16638.5421757899 ; 36641.845059676845 ; 352309.8883914393 ; 750380.5246514617 ; 0.0
34 ; 16994.595570782003 ; 37885.0159511628 ; 368948.43056722917 ; 787022.3697111385 ; 0.0
35 ; 17177.182218293798 ; 39138.31361843913 ; 385943.0261380112 ; 824907.3856623013 ; 0.0
36 ; 17550.271388975216 ; 40400.7046452143 ; 403120.20835630497 ; 864045.6992807405 ; 0.0
37 ; 17846.250622522013 ; 41671.270869308544 ; 420670.4797452802 ; 904446.4039259547 ; 0.0
38 ; 18162.701167082327 ; 42949.194309455124 ; 438516.7303678022 ; 946117.6747952632 ; 0.0
39 ; 18330.220421634152 ; 44233.744229607895 ; 456679.4315348845 ; 989066.8691047183 ; 0.0
40 ; 18754.950998027525 ; 45524.26602971839 ; 475009.65195651865 ; 1033300.6133343262 ; 0.0
41 ; 18930.367014575346 ; 46820.171694425146 ; 493764.60295454616 ; 1078824.8793640446 ; 0.0
42 ; 19228.76645430067 ; 48120.9315694691 ; 512694.9699691215 ; 1125645.0510584698 ; 0.0
43 ; 19209.040675457498 ; 49426.06726953361 ; 531923.7364234221 ; 1173765.982627939 ; 0.0
44 ; 19736.786166920396 ; 50735.14555064521 ; 551132.7770988796 ; 1223192.0498974726 ; 0.0
45 ; 19852.020260222667 ; 52047.77300559684 ; 570869.5632658 ; 1273927.1954481178 ; 0.0
46 ; 19908.093761481246 ; 53363.59146245645 ; 590721.5835260227 ; 1325974.9684537146 ; 0.0
47 ; 20213.316408551877 ; 54682.27398457064 ; 610629.677287504 ; 1379338.559916171 ; 0.0
48 ; 20408.991637570743 ; 56003.52138599052 ; 630842.9936960558 ; 1434020.8339007418 ; 0.0
49 ; 20662.73288728893 ; 57327.05918935052 ; 651251.9853336266 ; 1490024.3552867323 ; 0.0
50 ; 20871.241066089922 ; 58652.63496427544 ; 671914.7182209155 ; 1547351.414476083 ; 0.0
51 ; 20917.16015182145 ; 59980.01599369812 ; 692785.9592870055 ; 1606004.0494403583 ; 0.0
52 ; 21051.75407683828 ; 61308.98722331587 ; 713703.1194388269 ; 1665984.0654340563 ; 0.0
53 ; 21556.81680941339 ; 62639.34945602527 ; 734754.8735156652 ; 1727293.0526573723 ; 0.0
54 ; 21633.70237118887 ; 63970.9177587546 ; 756311.6903250786 ; 1789932.4021133976 ; 0.0
55 ; 21788.590776928457 ; 65303.52005382772 ; 777945.3926962675 ; 1853903.3198721523 ; 0.0
56 ; 21899.322071644983 ; 66636.9958709803 ; 799733.9834731959 ; 1919206.83992598 ; 0.0
57 ; 21954.927151700143 ; 67971.19523952255 ; 821633.3055448409 ; 1985843.8357969602 ; 0.0
58 ; 22041.881998649656 ; 69305.9777030131 ; 843588.232696541 ; 2053815.0310364827 ; 0.0
59 ; 22319.678425307044 ; 70641.21144123813 ; 865630.1146951907 ; 2123121.0087394956 ; 0.0
60 ; 22527.222136886816 ; 71976.77248636639 ; 887949.7931204977 ; 2193762.2201807336 ; 0.0
61 ; 22531.355322906278 ; 73312.54402191582 ; 910477.0152573845 ; 2265738.9926671 ; 0.0
62 ; 22689.935452911777 ; 74648.41575468011 ; 933008.3705802908 ; 2339051.5366890156 ; 0.0
63 ; 22701.835502436094 ; 75984.28335105495 ; 955698.3060332026 ; 2413699.9524436956 ; 0.0
64 ; 22819.785700927005 ; 77320.04793031368 ; 978400.1415356386 ; 2489684.2357947505 ; 0.0
65 ; 23092.168025926036 ; 78655.61560833456 ; 1001219.9272365656 ; 2567004.2837250642 ; 0.0
66 ; 23250.60548057119 ; 79990.8970861032 ; 1024312.0952624916 ; 2645659.899333399 ; 0.0
67 ; 23328.419281305643 ; 81325.8072780196 ; 1047562.7007430628 ; 2725650.796419502 ; 0.0
68 ; 23254.50323241728 ; 82660.26497565315 ; 1070891.1200243684 ; 2806976.603697521 ; 0.0
69 ; 23533.773091435534 ; 83994.19254311593 ; 1094145.6232567858 ; 2889636.868673174 ; 0.0
70 ; 23579.639029369268 ; 85327.51564068634 ; 1117679.3963482212 ; 2973631.06121629 ; 0.0
71 ; 23369.374451639607 ; 86660.16297371178 ; 1141259.0353775905 ; 3058958.5768569764 ; 0.0
72 ; 23561.845066434755 ; 87992.06606416819 ; 1164628.40982923 ; 3145618.739830688 ; 0.0
73 ; 23917.741455972802 ; 89323.15904255635 ; 1188190.2548956648 ; 3233610.8058948563 ; 0.0
74 ; 23793.286504586617 ; 90653.37845807939 ; 1212107.9963516376 ; 3322933.9649374126 ; 0.0
75 ; 23948.12441517232 ; 91982.66310527784 ; 1235901.2828562243 ; 3413587.343395492 ; 0.0
76 ; 23870.867020335892 ; 93310.95386550095 ; 1259849.4072713966 ; 3505570.00650077 ; 0.0
77 ; 23897.07497550372 ; 94638.1935617716 ; 1283720.2742917326 ; 3598880.960366271 ; 0.0
78 ; 23885.38337858718 ; 95964.32682575884 ; 1307617.3492672362 ; 3693519.1539280424 ; 0.0
79 ; 23960.454473403646 ; 97289.2999757088 ; 1331502.7326458234 ; 3789483.4807538013 ; 0.0
80 ; 23945.52088346208 ; 98613.06090430902 ; 1355463.1871192271 ; 3886772.78072951 ; 0.0
81 ; 23999.69285881729 ; 99935.55897556497 ; 1379408.7080026893 ; 3985385.841633819 ; 0.0
82 ; 23905.25042165988 ; 101256.74492986685 ; 1403408.4008615066 ; 4085321.400609384 ; 0.0
83 ; 23878.680064721193 ; 102576.57079650571 ; 1427313.6512831664 ; 4186578.1455392507 ; 0.0
84 ; 23910.420551741656 ; 103894.98981297409 ; 1451192.3313478876 ; 4289154.716335757 ; 0.0
85 ; 23816.179461133856 ; 105211.95635045329 ; 1475102.7518996294 ; 4393049.706148731 ; 0.0
86 ; 23978.918165400522 ; 106527.42584494725 ; 1498918.9313607633 ; 4498261.662499184 ; 0.0
87 ; 24041.320771658506 ; 107841.35473357714 ; 1522897.849526164 ; 4604789.088344131 ; 0.0
88 ; 23725.241069127806 ; 109153.70039559547 ; 1546939.1702978224 ; 4712630.443077708 ; 0.0
89 ; 23775.075535745742 ; 110464.42109772487 ; 1570664.4113669503 ; 4821784.143473303 ; 0.0
90 ; 23922.42488243549 ; 111773.47594345812 ; 1594439.486902696 ; 4932248.564571028 ; 0.0
91 ; 23768.309321941415 ; 113080.82482599569 ; 1618361.9117851316 ; 5044022.040514486 ; 0.0
92 ; 23654.377550476685 ; 114386.42838452298 ; 1642130.221107073 ; 5157102.8653404815 ; 0.0
93 ; 23515.212167066627 ; 115690.2479635589 ; 1665784.5986575496 ; 5271489.293725004 ; 0.0
94 ; 23602.49375809014 ; 116992.2455751304 ; 1689299.810824616 ; 5387179.541688563 ; 0.0
95 ; 23464.380022362842 ; 118292.38386355073 ; 1712902.3045827062 ; 5504171.787263693 ; 0.0
96 ; 23523.376315303907 ; 119590.62607259756 ; 1736366.684605069 ; 5622464.171127244 ; 0.0
97 ; 23296.72388740816 ; 120886.93601490623 ; 1759890.0609203728 ; 5742054.797199842 ; 0.0
98 ; 23269.269296126822 ; 122181.27804340849 ; 1783186.784807781 ; 5862941.733214748 ; 0.0
99 ; 23098.893570046206 ; 123473.61702466215 ; 1806456.054103908 ; 5985123.011258157 ; 0.0
100 ; 23200.452427911478 ; 124763.91831393023 ; 1829554.947673954 ; 6108596.628282819 ; 0.0
101 ; 22941.599050333385 ; 126052.14773187992 ; 1852755.4001018656 ; 6233360.546596749 ; 0.0
102 ; 22823.61453022058 ; 127338.27154278204 ; 1875696.9991521991 ; 6359412.6943286285 ; 0.0
103 ; 22644.40756324504 ; 128622.25643410292 ; 1898520.6136824198 ; 6486750.96587141 ; 0.0
104 ; 22439.768778860565 ; 129904.0694973875 ; 1921165.021245665 ; 6615373.222305513 ; 0.0
105 ; 22551.923747836365 ; 131183.6782103427 ; 1943604.7900245255 ; 6745277.291802901 ; 0.0
106 ; 22347.877453720037 ; 132461.05042003546 ; 1966156.7137723619 ; 6876460.970013243 ; 0.0
107 ; 22270.024385876222 ; 133736.15432712837 ; 1988504.5912260818 ; 7008922.020433279 ; 0.0
108 ; 21853.468321541182 ; 135008.95847108032 ; 2010774.615611958 ; 7142658.174760407 ; 0.0
109 ; 21742.584283623 ; 136279.43171624673 ; 2032628.0839334992 ; 7277667.133231487 ; 0.0
110 ; 21692.345002345704 ; 137547.54323881763 ; 2054370.668217122 ; 7413946.564947734 ; 0.0
111 ; 21393.759814547033 ; 138813.26251453778 ; 2076063.0132194678 ; 7551494.108186551 ; 0.0
112 ; 21445.013836485403 ; 140076.55930715599 ; 2097456.7730340147 ; 7690307.3707010895 ; 0.0
113 ; 21148.35722104042 ; 141337.4036575561 ; 2118901.7868705 ; 7830383.930008246 ; 0.0
114 ; 21046.27383889053 ; 142595.76587352465 ; 2140050.1440915405 ; 7971721.333665802 ; 0.0
115 ; 20713.118884050276 ; 143851.61652011372 ; 2161096.417930431 ; 8114317.0995393265 ; 0.0
116 ; 20520.124802677128 ; 145104.9264105613 ; 2181809.5368144815 ; 8258168.71605944 ; 0.0
117 ; 20501.384108425398 ; 146355.6665977327 ; 2202329.6616171584 ; 8403273.64247 ; 0.0
118 ; 20133.969232498886 ; 147603.80836605091 ; 2222831.045725584 ; 8549629.309067734 ; 0.0
119 ; 19920.462534952356 ; 148849.3232238846 ; 2242965.0149580827 ; 8697233.117433785 ; 0.0
120 ; 19708.127313127352 ; 150092.18289636573 ; 2262885.477493035 ; 8846082.44065767 ; 0.0
121 ; 19468.92376825793 ; 151332.3593186101 ; 2282593.6048061624 ; 8996174.623554036 ; 0.0
122 ; 19302.30257755496 ; 152569.82462931616 ; 2302062.52857442 ; 9147506.982872646 ; 0.0
123 ; 19073.036677555934 ; 153804.55116471928 ; 2321364.8311519753 ; 9300076.807501962 ; 0.0
124 ; 18729.043650846805 ; 155036.51145287993 ; 2340437.8678295314 ; 9453881.35866668 ; 0.0
125 ; 18581.836904569933 ; 156265.67820828606 ; 2359166.9114803784 ; 9608917.87011956 ; 0.0
126 ; 18303.60612553857 ; 157492.0243267509 ; 2377748.7483849484 ; 9765183.548327846 ; 0.0
127 ; 18209.433836336662 ; 158715.52288058866 ; 2396052.354510487 ; 9922675.572654597 ; 0.0
128 ; 17686.28382152066 ; 159936.1471140527 ; 2414261.788346824 ; 1.0081391095535185E7 ; 0.0
129 ; 17503.85103471485 ; 161153.8704390199 ; 2431948.0721683446 ; 1.0241327242649239E7 ; 0.0
130 ; 17294.178210556503 ; 162368.6664309079 ; 2449451.9232030595 ; 1.0402481113088258E7 ; 0.0
131 ; 17025.7683202692 ; 163580.50882481187 ; 2466746.101413616 ; 1.0564849779519165E7 ; 0.0
132 ; 16671.055231883256 ; 164789.37151184777 ; 2483771.8697338854 ; 1.0728430288343977E7 ; 0.0
133 ; 16424.57571934399 ; 165995.22853569163 ; 2500442.9249657686 ; 1.0893219659855826E7 ; 0.0
134 ; 15999.829652889164 ; 167198.05408930255 ; 2516867.5006851126 ; 1.1059214888391517E7 ; 0.0
135 ; 15612.70645603826 ; 168397.82251182076 ; 2532867.3303380017 ; 1.122641294248082E7 ; 0.0
136 ; 15340.823396109407 ; 169594.50828562988 ; 2548480.03679404 ; 1.139481076499264E7 ; 0.0
137 ; 15049.515498402616 ; 170788.0860335749 ; 2563820.8601901494 ; 1.156440527327827E7 ; 0.0
138 ; 14652.156635421696 ; 171978.53051632782 ; 2578870.375688552 ; 1.1735193359311845E7 ; 0.0
139 ; 14416.345952346897 ; 173165.81662989245 ; 2593522.5323239737 ; 1.1907171889828173E7 ; 0.0
140 ; 14083.906709995537 ; 174349.9194032413 ; 2607938.8782763206 ; 1.2080337706458066E7 ; 0.0
141 ; 13724.124945896887 ; 175530.81399607705 ; 2622022.784986316 ; 1.2254687625861308E7 ; 0.0
142 ; 13457.07834355686 ; 176708.47569671288 ; 2635746.909932213 ; 1.2430218439857384E7 ; 0.0
143 ; 12989.388123403593 ; 177882.87992006494 ; 2649203.9882757696 ; 1.2606926915554097E7 ; 0.0
144 ; 12591.128205823095 ; 179054.0022057507 ; 2662193.3763991734 ; 1.2784809795474162E7 ; 0.0
145 ; 12590.992971264577 ; 180221.81821628872 ; 2674784.5046049966 ; 1.2963863797679912E7 ; 0.0
146 ; 12545.069122664932 ; 181386.30373539383 ; 2687375.4975762614 ; 1.31440856158962E7 ; 0.0
147 ; 12400.215271676714 ; 182547.434666363 ; 2699920.5666989265 ; 1.3325471919631595E7 ; 0.0
148 ; 12243.24818913281 ; 183705.18703054785 ; 2712320.7819706034 ; 1.3508019354297958E7 ; 0.0
149 ; 12271.529033773731 ; 184859.53696590866 ; 2724564.030159736 ; 1.3691724541328507E7 ; 0.0
150 ; 12105.333380150425 ; 186010.46072564603 ; 2736835.5591935096 ; 1.3876584078294415E7 ; 0.0
151 ; 11834.076716985504 ; 187157.93467690705 ; 2748940.8925736602 ; 1.4062594539020061E7 ; 0.0
152 ; 11942.94164279114 ; 188301.93529956104 ; 2760774.969290646 ; 1.424975247369697E7 ; 0.0
153 ; 11783.02799131837 ; 189442.43918504228 ; 2772717.910933437 ; 1.443805440899653E7 ; 0.0
154 ; 11527.689183510645 ; 190579.4230352565 ; 2784500.938924755 ; 1.4627496848181572E7 ; 0.0
155 ; 11534.37151028662 ; 191712.86366154757 ; 2796028.628108266 ; 1.4818076271216828E7 ; 0.0
156 ; 11477.075643054122 ; 192842.7379837217 ; 2807562.9996185526 ; 1.5009789134878376E7 ; 0.0
157 ; 11298.3351176031 ; 193969.02302912634 ; 2819040.075261607 ; 1.5202631872862099E7 ; 0.0
158 ; 11193.197614502207 ; 195091.69593178132 ; 2830338.41037921 ; 1.5396600895891225E7 ; 0.0
159 ; 10847.948680868445 ; 196210.73393155957 ; 2841531.607993712 ; 1.5591692591823006E7 ; 0.0
160 ; 10829.903523179599 ; 197326.1143734151 ; 2852379.5566745806 ; 1.5787903325754566E7 ; 0.0
161 ; 10721.31761529839 ; 198437.81470665586 ; 2863209.4601977603 ; 1.5985229440127982E7 ; 0.0
162 ; 10596.231710205624 ; 199545.8124842599 ; 2873930.777813059 ; 1.6183667254834637E7 ; 0.0
163 ; 10455.621549116151 ; 200650.08536223203 ; 2884527.0095232646 ; 1.6383213067318898E7 ; 0.0
164 ; 10248.310513055178 ; 201750.61109899986 ; 2894982.6310723806 ; 1.6583863152681129E7 ; 0.0
165 ; 10033.730326799197 ; 202847.36755484669 ; 2905230.9415854355 ; 1.678561376378013E7 ; 0.0
166 ; 9994.800292745453 ; 203940.33269138038 ; 2915264.6719122347 ; 1.6988461131334975E7 ; 0.0
167 ; 9815.262042113409 ; 205029.48457103551 ; 2925259.47220498 ; 1.7192401464026354E7 ; 0.0
168 ; 9570.671079777914 ; 206114.80135660822 ; 2935074.7342470936 ; 1.739743094859739E7 ; 0.0
169 ; 9753.759269386992 ; 207196.2613108218 ; 2944645.4053268717 ; 1.7603545749954E7 ; 0.0
170 ; 9354.313051163215 ; 208273.8427959217 ; 2954399.1645962587 ; 1.7810742011264823E7 ; 0.0
171 ; 9257.000430516386 ; 209347.52427329862 ; 2963753.477647422 ; 1.8019015854060747E7 ; 0.0
172 ; 9163.005789712755 ; 210417.28430313861 ; 2973010.4780779383 ; 1.8228363378334045E7 ; 0.0
173 ; 8924.23089516827 ; 211483.10154409838 ; 2982173.483867651 ; 1.8438780662637185E7 ; 0.0
174 ; 9022.682830211314 ; 212544.95475300553 ; 2991097.714762819 ; 1.8650263764181282E7 ; 0.0
175 ; 9029.309442325435 ; 213602.82278458204 ; 3000120.3975930302 ; 1.8862808718934286E7 ; 0.0
176 ; 9112.478897660658 ; 214656.68459119005 ; 3009149.7070353557 ; 1.9076411541718867E7 ; 0.0
177 ; 9080.309288917699 ; 215706.5192225987 ; 3018262.1859330162 ; 1.9291068226310056E7 ; 0.0
178 ; 9237.654055635609 ; 216752.30582577205 ; 3027342.495221934 ; 1.9506774745532654E7 ; 0.0
179 ; 8992.437266734682 ; 217794.02364467594 ; 3036580.1492775693 ; 1.9723527051358428E7 ; 0.0
180 ; 9190.986852168811 ; 218831.65202010373 ; 3045572.586544304 ; 1.9941321075003102E7 ; 0.0
181 ; 9244.109582694073 ; 219865.17038951954 ; 3054763.573396473 ; 2.0160152727023207E7 ; 0.0
182 ; 9302.50840510006 ; 220894.55828691905 ; 3064007.6829791674 ; 2.0380017897412725E7 ; 0.0
183 ; 9356.424858571496 ; 221919.7953427063 ; 3073310.1913842675 ; 2.0600912455699645E7 ; 0.0
184 ; 9400.897069632789 ; 222940.86128358557 ; 3082666.616242839 ; 2.082283225104235E7 ; 0.0
185 ; 9350.350194087547 ; 223957.7359324692 ; 3092067.513312472 ; 2.1045773112325937E7 ; 0.0
186 ; 9380.2006981189 ; 224970.39920839886 ; 3101417.8635065597 ; 2.1269730848258406E7 ; 0.0
187 ; 9537.768549198636 ; 225978.8311264804 ; 3110798.064204679 ; 2.1494701247466806E7 ; 0.0
188 ; 9513.354794444369 ; 226983.0117978322 ; 3120335.8327538776 ; 2.1720680078593288E7 ; 0.0
189 ; 9528.010628598448 ; 227982.92142954556 ; 3129849.187548322 ; 2.1947663090391118E7 ; 0.0
190 ; 9621.709599804166 ; 228978.54032465702 ; 3139377.1981769204 ; 2.2175646011820663E7 ; 0.0
191 ; 9587.62238209675 ; 229969.8488821324 ; 3148998.9077767245 ; 2.240462455214532E7 ; 0.0
192 ; 9558.601725283024 ; 230956.82759686135 ; 3158586.5301588215 ; 2.2634594401027452E7 ; 0.0
193 ; 9471.619520898492 ; 231939.457059662 ; 3168145.1318841046 ; 2.2865551228624314E7 ; 0.0
194 ; 9547.423879826216 ; 232917.71795729664 ; 3177616.751405003 ; 2.3097490685683977E7 ; 0.0
195 ; 9603.806837585913 ; 233891.59107249568 ; 3187164.1752848295 ; 2.3330408403641272E7 ; 0.0
196 ; 9603.42492746178 ; 234861.05728399122 ; 3196767.982122415 ; 2.356429999471377E7 ; 0.0
197 ; 9746.337871461123 ; 235826.09756655968 ; 3206371.407049877 ; 2.379916105199776E7 ; 0.0
198 ; 9725.109444507685 ; 236786.6929910717 ; 3216117.7449213383 ; 2.403498714956432E7 ; 0.0
199 ; 9670.760634482831 ; 237742.8247245512 ; 3225842.854365846 ; 2.427177384255539E7 ; 0.0
200 ; 9868.81966664296 ; 238694.47403024102 ; 3235513.615000329 ; 2.450951666727994E7 ; 0.0
201 ; 9926.569286546006 ; 239641.62226767596 ; 3245382.434666972 ; 2.474821114131018E7 ; 0.0
202 ; 9943.822228379497 ; 240584.25089276346 ; 3255309.0039535183 ; 2.4987852763577856E7 ; 0.0
203 ; 9866.034299838771 ; 241522.34145786977 ; 3265252.826181898 ; 2.522843701447062E7 ; 0.0
204 ; 9950.38502307624 ; 242455.87561191316 ; 3275118.8604817367 ; 2.5469959355928488E7 ; 0.0
205 ; 9941.490186624183 ; 243384.835100463 ; 3285069.245504813 ; 2.57124152315404E7 ; 0.0
206 ; 10040.960945521689 ; 244309.20176584422 ; 3295010.735691437 ; 2.5955800066640865E7 ; 0.0
207 ; 9867.045574855958 ; 245228.9575472475 ; 3305051.6966369585 ; 2.6200109268406708E7 ; 0.0
208 ; 9948.18638330543 ; 246144.08448084487 ; 3314918.7422118145 ; 2.6445338225953955E7 ; 0.0
209 ; 10165.19432363993 ; 247054.5646999095 ; 3324866.92859512 ; 2.66914823104348E7 ; 0.0
210 ; 10107.394620326442 ; 247960.38043494133 ; 3335032.12291876 ; 2.693853687513471E7 ; 0.0
211 ; 10218.33687187083 ; 248861.51401379606 ; 3345139.5175390863 ; 2.718649725556965E7 ; 0.0
212 ; 10119.874201867453 ; 249757.947861819 ; 3355357.854410957 ; 2.743535876958345E7 ; 0.0
213 ; 10286.636181849477 ; 250649.66450198303 ; 3365477.7286128243 ; 2.768511671744527E7 ; 0.0
