CSV File for the City 2 on Day 203
1 - Minute m 
2 - Power Consumed at minute m 
3 - Power Produced at minute m 
4 - Energy Consumed since the beginning of the day 
5 - Energy Produced since the beginning of the day 
6 - Energy Lost since the beginning of the day on lines starting from the city
 
0 ; 4701.079764996631 ; 33470.26408567256 ; 0.0 ; 0.0 ; 0.0
1 ; 5319.0279634992485 ; 33470.26408567256 ; 4701.079764996631 ; 33470.26408567256 ; 0.0
2 ; 5766.717013461106 ; 33470.26408567256 ; 10020.10772849588 ; 66940.52817134513 ; 0.0
3 ; 6193.32155523778 ; 33470.26408567256 ; 15786.824741956985 ; 100410.79225701769 ; 0.0
4 ; 6835.913158507443 ; 33470.26408567256 ; 21980.146297194766 ; 133881.05634269025 ; 0.0
5 ; 7381.658445921616 ; 33470.26408567256 ; 28816.05945570221 ; 167351.32042836281 ; 0.0
6 ; 7779.232155396476 ; 33470.26408567256 ; 36197.71790162382 ; 200821.58451403538 ; 0.0
7 ; 8402.232261971225 ; 33470.26408567256 ; 43976.950057020294 ; 234291.84859970794 ; 0.0
8 ; 8933.199679430732 ; 33470.26408567256 ; 52379.182318991516 ; 267762.1126853805 ; 0.0
9 ; 9430.35623492799 ; 33470.26408567256 ; 61312.38199842225 ; 301232.37677105307 ; 0.0
10 ; 9905.865635291815 ; 33470.26408567256 ; 70742.73823335025 ; 334702.64085672563 ; 0.0
11 ; 10429.867842571035 ; 33470.26408567256 ; 80648.60386864207 ; 368172.9049423982 ; 0.0
12 ; 10939.863976218632 ; 33470.26408567256 ; 91078.4717112131 ; 401643.16902807076 ; 0.0
13 ; 11472.522797122476 ; 33470.26408567256 ; 102018.33568743174 ; 435113.4331137433 ; 0.0
14 ; 11910.325661695308 ; 33470.26408567256 ; 113490.85848455422 ; 468583.6971994159 ; 0.0
15 ; 12293.35878890399 ; 33470.26408567256 ; 125401.18414624952 ; 502053.96128508844 ; 0.0
16 ; 12717.3966913533 ; 33470.26408567256 ; 137694.5429351535 ; 535524.225370761 ; 0.0
17 ; 13071.325026973149 ; 33470.26408567256 ; 150411.9396265068 ; 568994.4894564336 ; 0.0
18 ; 13665.790062745351 ; 33470.26408567256 ; 163483.26465347994 ; 602464.7535421061 ; 0.0
19 ; 13978.345571554864 ; 33470.26408567256 ; 177149.0547162253 ; 635935.0176277787 ; 0.0
20 ; 14538.570924208387 ; 33470.26408567256 ; 191127.40028778018 ; 669405.2817134513 ; 0.0
21 ; 14885.050244015223 ; 33470.26408567256 ; 205665.97121198857 ; 702875.5457991238 ; 0.0
22 ; 15345.198046297775 ; 33470.26408567256 ; 220551.0214560038 ; 736345.8098847964 ; 0.0
23 ; 15706.696807570332 ; 33470.26408567256 ; 235896.21950230157 ; 769816.073970469 ; 0.0
24 ; 16076.028305585283 ; 33470.26408567256 ; 251602.9163098719 ; 803286.3380561415 ; 0.0
25 ; 16517.874510725997 ; 33470.26408567256 ; 267678.94461545715 ; 836756.6021418141 ; 0.0
26 ; 16883.7866940067 ; 33470.26408567256 ; 284196.81912618317 ; 870226.8662274866 ; 0.0
27 ; 17215.608511065908 ; 33470.26408567256 ; 301080.60582018987 ; 903697.1303131592 ; 0.0
28 ; 17648.07518497488 ; 33470.26408567256 ; 318296.21433125576 ; 937167.3943988318 ; 0.0
29 ; 17962.57607028686 ; 33470.26408567256 ; 335944.28951623064 ; 970637.6584845043 ; 0.0
30 ; 18363.76231558839 ; 33470.26408567256 ; 353906.8655865175 ; 1004107.9225701769 ; 0.0
31 ; 18729.850115484907 ; 33470.26408567256 ; 372270.62790210586 ; 1037578.1866558495 ; 0.0
32 ; 19101.42838980287 ; 33470.26408567256 ; 391000.47801759077 ; 1071048.450741522 ; 0.0
33 ; 19390.357846455838 ; 33470.26408567256 ; 410101.90640739363 ; 1104518.7148271946 ; 0.0
34 ; 19889.18008958187 ; 33470.26408567256 ; 429492.26425384945 ; 1137988.9789128671 ; 0.0
35 ; 20054.319359232733 ; 33470.26408567256 ; 449381.4443434313 ; 1171459.2429985397 ; 0.0
36 ; 20268.842177218743 ; 33470.26408567256 ; 469435.76370266406 ; 1204929.5070842123 ; 0.0
37 ; 20491.911387658623 ; 33470.26408567256 ; 489704.6058798828 ; 1238399.7711698848 ; 0.0
38 ; 20948.94650589773 ; 33470.26408567256 ; 510196.51726754144 ; 1271870.0352555574 ; 0.0
39 ; 21395.38937120225 ; 33470.26408567256 ; 531145.4637734392 ; 1305340.29934123 ; 0.0
40 ; 21671.360631359054 ; 33470.26408567256 ; 552540.8531446414 ; 1338810.5634269025 ; 0.0
41 ; 21930.83978501776 ; 33470.26408567256 ; 574212.2137760004 ; 1372280.827512575 ; 0.0
42 ; 22302.943118128216 ; 33470.26408567256 ; 596143.0535610182 ; 1405751.0915982476 ; 0.0
43 ; 22356.96756599613 ; 33470.26408567256 ; 618445.9966791464 ; 1439221.3556839202 ; 0.0
44 ; 22771.922032679537 ; 33470.26408567256 ; 640802.9642451425 ; 1472691.6197695928 ; 0.0
45 ; 22966.042632823086 ; 33470.26408567256 ; 663574.8862778221 ; 1506161.8838552653 ; 0.0
46 ; 23183.028924194467 ; 33470.26408567256 ; 686540.9289106452 ; 1539632.147940938 ; 0.0
47 ; 23466.636195659365 ; 33470.26408567256 ; 709723.9578348397 ; 1573102.4120266105 ; 0.0
48 ; 23713.52318913457 ; 33470.26408567256 ; 733190.5940304991 ; 1606572.676112283 ; 0.0
49 ; 23927.83160171811 ; 33470.26408567256 ; 756904.1172196337 ; 1640042.9401979556 ; 0.0
50 ; 23984.333812276756 ; 33470.26408567256 ; 780831.9488213517 ; 1673513.2042836281 ; 0.0
51 ; 24408.6287801467 ; 33470.26408567256 ; 804816.2826336285 ; 1706983.4683693007 ; 0.0
52 ; 24508.947331796622 ; 33470.26408567256 ; 829224.9114137752 ; 1740453.7324549733 ; 0.0
53 ; 24659.590298387262 ; 33470.26408567256 ; 853733.8587455718 ; 1773923.9965406458 ; 0.0
54 ; 24884.97066473804 ; 33470.26408567256 ; 878393.449043959 ; 1807394.2606263184 ; 0.0
55 ; 25177.25488605317 ; 33470.26408567256 ; 903278.4197086971 ; 1840864.524711991 ; 0.0
56 ; 25191.866862206374 ; 33470.26408567256 ; 928455.6745947503 ; 1874334.7887976635 ; 0.0
57 ; 25311.64819888216 ; 33470.26408567256 ; 953647.5414569566 ; 1907805.052883336 ; 0.0
58 ; 25528.12042477884 ; 33470.26408567256 ; 978959.1896558388 ; 1941275.3169690087 ; 0.0
59 ; 25661.540027706236 ; 33470.26408567256 ; 1004487.3100806177 ; 1974745.5810546812 ; 0.0
60 ; 26088.892706438593 ; 33470.26408567256 ; 1030148.8501083239 ; 2008215.8451403538 ; 0.0
61 ; 25998.57169336584 ; 33470.26408567256 ; 1056237.7428147625 ; 2041686.1092260263 ; 0.0
62 ; 26199.121489766563 ; 33470.26408567256 ; 1082236.3145081284 ; 2075156.373311699 ; 0.0
63 ; 26468.58475049714 ; 33470.26408567256 ; 1108435.435997895 ; 2108626.637397371 ; 0.0
64 ; 26441.301018626535 ; 33470.26408567256 ; 1134904.0207483922 ; 2142096.901483044 ; 0.0
65 ; 26448.72621199997 ; 33470.26408567256 ; 1161345.3217670186 ; 2175567.165568717 ; 0.0
66 ; 26697.320676597905 ; 33470.26408567256 ; 1187794.0479790187 ; 2209037.4296543896 ; 0.0
67 ; 26790.55588628834 ; 33470.26408567256 ; 1214491.3686556167 ; 2242507.6937400624 ; 0.0
68 ; 26884.022400052643 ; 33470.26408567256 ; 1241281.924541905 ; 2275977.957825735 ; 0.0
69 ; 26916.38676103434 ; 33470.26408567256 ; 1268165.9469419578 ; 2309448.221911408 ; 0.0
70 ; 27120.60167292748 ; 33470.26408567256 ; 1295082.3337029922 ; 2342918.485997081 ; 0.0
71 ; 27159.137192782357 ; 33470.26408567256 ; 1322202.9353759196 ; 2376388.7500827536 ; 0.0
72 ; 27102.66832533226 ; 33470.26408567256 ; 1349362.0725687018 ; 2409859.0141684264 ; 0.0
73 ; 27411.591736666185 ; 33470.26408567256 ; 1376464.740894034 ; 2443329.278254099 ; 0.0
74 ; 27289.473107242615 ; 33470.26408567256 ; 1403876.3326307002 ; 2476799.542339772 ; 0.0
75 ; 27387.116082312594 ; 33470.26408567256 ; 1431165.805737943 ; 2510269.806425445 ; 0.0
76 ; 27464.53474189116 ; 33470.26408567256 ; 1458552.9218202555 ; 2543740.0705111176 ; 0.0
77 ; 27563.30152266064 ; 33470.26408567256 ; 1486017.4565621465 ; 2577210.3345967904 ; 0.0
78 ; 27553.03858146211 ; 33470.26408567256 ; 1513580.758084807 ; 2610680.598682463 ; 0.0
79 ; 27530.428615249275 ; 33470.26408567256 ; 1541133.7966662692 ; 2644150.862768136 ; 0.0
80 ; 27568.19328834206 ; 33470.26408567256 ; 1568664.2252815184 ; 2677621.1268538088 ; 0.0
81 ; 27554.744412384185 ; 33470.26408567256 ; 1596232.4185698605 ; 2711091.3909394816 ; 0.0
82 ; 27669.098634368358 ; 33470.26408567256 ; 1623787.1629822447 ; 2744561.6550251544 ; 0.0
83 ; 27472.823904607616 ; 33470.26408567256 ; 1651456.261616613 ; 2778031.919110827 ; 0.0
84 ; 27713.903379823594 ; 33470.26408567256 ; 1678929.0855212207 ; 2811502.1831965 ; 0.0
85 ; 27635.153702327476 ; 33470.26408567256 ; 1706642.9889010442 ; 2844972.4472821727 ; 0.0
86 ; 27494.47328720224 ; 33470.26408567256 ; 1734278.1426033718 ; 2878442.7113678455 ; 0.0
87 ; 27712.610478998486 ; 33470.26408567256 ; 1761772.615890574 ; 2911912.9754535183 ; 0.0
88 ; 27476.094947184636 ; 33470.26408567256 ; 1789485.2263695723 ; 2945383.239539191 ; 0.0
89 ; 27565.222693283715 ; 33470.26408567256 ; 1816961.321316757 ; 2978853.503624864 ; 0.0
90 ; 27422.59197339548 ; 33470.26408567256 ; 1844526.5440100408 ; 3012323.7677105367 ; 0.0
91 ; 27331.0503198049 ; 33470.26408567256 ; 1871949.1359834364 ; 3045794.0317962095 ; 0.0
92 ; 27254.225532003376 ; 33470.26408567256 ; 1899280.1863032412 ; 3079264.2958818823 ; 0.0
93 ; 27055.287735695503 ; 33470.26408567256 ; 1926534.4118352446 ; 3112734.559967555 ; 0.0
94 ; 27072.538733810932 ; 33470.26408567256 ; 1953589.69957094 ; 3146204.824053228 ; 0.0
95 ; 26980.419074396184 ; 33470.26408567256 ; 1980662.238304751 ; 3179675.0881389007 ; 0.0
96 ; 27032.33259832902 ; 33470.26408567256 ; 2007642.6573791471 ; 3213145.3522245735 ; 0.0
97 ; 26810.10489027416 ; 33470.26408567256 ; 2034674.9899774762 ; 3246615.6163102463 ; 0.0
98 ; 26674.52603577246 ; 33470.26408567256 ; 2061485.0948677503 ; 3280085.880395919 ; 0.0
99 ; 26692.593086724213 ; 33470.26408567256 ; 2088159.6209035227 ; 3313556.144481592 ; 0.0
100 ; 26469.25018971746 ; 33470.26408567256 ; 2114852.213990247 ; 3347026.4085672647 ; 0.0
101 ; 26451.16830034758 ; 33470.26408567256 ; 2141321.4641799643 ; 3380496.6726529375 ; 0.0
102 ; 26158.932116333817 ; 33470.26408567256 ; 2167772.6324803117 ; 3413966.9367386103 ; 0.0
103 ; 26186.069835751015 ; 33470.26408567256 ; 2193931.5645966455 ; 3447437.200824283 ; 0.0
104 ; 26163.23588795395 ; 33470.26408567256 ; 2220117.6344323964 ; 3480907.464909956 ; 0.0
105 ; 25698.366202592162 ; 33470.26408567256 ; 2246280.8703203504 ; 3514377.7289956287 ; 0.0
106 ; 25753.703136327455 ; 33470.26408567256 ; 2271979.236522943 ; 3547847.9930813015 ; 0.0
107 ; 25613.876414666043 ; 33470.26408567256 ; 2297732.9396592705 ; 3581318.2571669742 ; 0.0
108 ; 25437.058362031883 ; 33470.26408567256 ; 2323346.8160739364 ; 3614788.521252647 ; 0.0
109 ; 25337.517150233598 ; 33470.26408567256 ; 2348783.874435968 ; 3648258.78533832 ; 0.0
110 ; 25231.51204446744 ; 33470.26408567256 ; 2374121.3915862017 ; 3681729.0494239926 ; 0.0
111 ; 24750.2821986529 ; 33470.26408567256 ; 2399352.903630669 ; 3715199.3135096654 ; 0.0
112 ; 24751.63233113403 ; 33470.26408567256 ; 2424103.1858293223 ; 3748669.577595338 ; 0.0
113 ; 24414.01172429939 ; 33470.26408567256 ; 2448854.818160456 ; 3782139.841681011 ; 0.0
114 ; 24313.152808589122 ; 33470.26408567256 ; 2473268.8298847554 ; 3815610.105766684 ; 0.0
115 ; 24082.205971724343 ; 33470.26408567256 ; 2497581.9826933444 ; 3849080.3698523566 ; 0.0
116 ; 23925.925260139604 ; 33470.26408567256 ; 2521664.1886650687 ; 3882550.6339380294 ; 0.0
117 ; 23390.39707023847 ; 33470.26408567256 ; 2545590.1139252083 ; 3916020.898023702 ; 0.0
118 ; 23195.29579552449 ; 33470.26408567256 ; 2568980.5109954467 ; 3949491.162109375 ; 0.0
119 ; 23018.287877388415 ; 33470.26408567256 ; 2592175.806790971 ; 3982961.426195048 ; 0.0
120 ; 22867.698550434943 ; 33470.26408567256 ; 2615194.0946683595 ; 4016431.6902807206 ; 0.0
121 ; 22403.40439727612 ; 33470.26408567256 ; 2638061.7932187943 ; 4049901.9543663934 ; 0.0
122 ; 22284.067816462815 ; 33470.26408567256 ; 2660465.1976160705 ; 4083372.218452066 ; 0.0
123 ; 22002.73887093564 ; 33470.26408567256 ; 2682749.2654325333 ; 4116842.482537739 ; 0.0
124 ; 21712.511489207285 ; 33470.26408567256 ; 2704752.004303469 ; 4150312.746623412 ; 0.0
125 ; 21375.88091002938 ; 33470.26408567256 ; 2726464.5157926762 ; 4183783.0107090846 ; 0.0
126 ; 21139.680385375945 ; 33470.26408567256 ; 2747840.3967027054 ; 4217253.274794757 ; 0.0
127 ; 20786.58744376027 ; 33470.26408567256 ; 2768980.0770880813 ; 4250723.53888043 ; 0.0
128 ; 20478.64359260867 ; 33470.26408567256 ; 2789766.6645318414 ; 4284193.802966103 ; 0.0
129 ; 20376.762682123106 ; 33470.26408567256 ; 2810245.30812445 ; 4317664.067051776 ; 0.0
130 ; 20073.254270364174 ; 33470.26408567256 ; 2830622.070806573 ; 4351134.331137449 ; 0.0
131 ; 19425.85153062664 ; 33470.26408567256 ; 2850695.325076937 ; 4384604.595223121 ; 0.0
132 ; 19291.95020818414 ; 33470.26408567256 ; 2870121.1766075636 ; 4418074.859308794 ; 0.0
133 ; 18978.179523095754 ; 33470.26408567256 ; 2889413.126815748 ; 4451545.123394467 ; 0.0
134 ; 18491.60463569828 ; 33470.26408567256 ; 2908391.306338844 ; 4485015.38748014 ; 0.0
135 ; 18214.88413011848 ; 33470.26408567256 ; 2926882.910974542 ; 4518485.6515658125 ; 0.0
136 ; 17869.043542416206 ; 33470.26408567256 ; 2945097.7951046606 ; 4551955.915651485 ; 0.0
137 ; 17369.40813576272 ; 33470.26408567256 ; 2962966.838647077 ; 4585426.179737158 ; 0.0
138 ; 17158.72665715596 ; 33470.26408567256 ; 2980336.2467828398 ; 4618896.443822831 ; 0.0
139 ; 16736.79026663842 ; 33470.26408567256 ; 2997494.9734399957 ; 4652366.707908504 ; 0.0
140 ; 16459.234071408144 ; 33470.26408567256 ; 3014231.7637066343 ; 4685836.9719941765 ; 0.0
141 ; 15890.35076872789 ; 33470.26408567256 ; 3030690.997778042 ; 4719307.236079849 ; 0.0
142 ; 15358.598087179706 ; 33470.26408567256 ; 3046581.34854677 ; 4752777.500165522 ; 0.0
143 ; 15163.543220439542 ; 33470.26408567256 ; 3061939.9466339494 ; 4786247.764251195 ; 0.0
144 ; 14793.379439556516 ; 33470.26408567256 ; 3077103.489854389 ; 4819718.028336868 ; 0.0
145 ; 14586.970609394348 ; 33470.26408567256 ; 3091896.8692939454 ; 4853188.2924225405 ; 0.0
146 ; 14504.476865760764 ; 33470.26408567256 ; 3106483.8399033397 ; 4886658.556508213 ; 0.0
147 ; 14372.662182960985 ; 33470.26408567256 ; 3120988.3167691007 ; 4920128.820593886 ; 0.0
148 ; 14273.071033454144 ; 33470.26408567256 ; 3135360.978952062 ; 4953599.084679559 ; 0.0
149 ; 14357.810246287654 ; 33470.26408567256 ; 3149634.049985516 ; 4987069.348765232 ; 0.0
150 ; 13859.592194579094 ; 33470.26408567256 ; 3163991.8602318037 ; 5020539.612850904 ; 0.0
151 ; 13999.831839060336 ; 33470.26408567256 ; 3177851.452426383 ; 5054009.876936577 ; 0.0
152 ; 13666.777988794975 ; 33470.26408567256 ; 3191851.284265443 ; 5087480.14102225 ; 0.0
153 ; 13925.061704293412 ; 33470.26408567256 ; 3205518.0622542384 ; 5120950.405107923 ; 0.0
154 ; 13517.43746800626 ; 33470.26408567256 ; 3219443.1239585318 ; 5154420.669193596 ; 0.0
155 ; 13451.072461314006 ; 33470.26408567256 ; 3232960.561426538 ; 5187890.933279268 ; 0.0
156 ; 13140.712497825447 ; 33470.26408567256 ; 3246411.633887852 ; 5221361.197364941 ; 0.0
157 ; 13092.607542629963 ; 33470.26408567256 ; 3259552.3463856773 ; 5254831.461450614 ; 0.0
158 ; 12911.251032002703 ; 33470.26408567256 ; 3272644.953928307 ; 5288301.725536287 ; 0.0
159 ; 12990.001231377344 ; 33470.26408567256 ; 3285556.20496031 ; 5321771.98962196 ; 0.0
160 ; 12759.821278132742 ; 33470.26408567256 ; 3298546.2061916874 ; 5355242.253707632 ; 0.0
161 ; 12578.907702456721 ; 33470.26408567256 ; 3311306.0274698203 ; 5388712.517793305 ; 0.0
162 ; 12299.888287692711 ; 33470.26408567256 ; 3323884.935172277 ; 5422182.781878978 ; 0.0
163 ; 12026.887788145434 ; 33470.26408567256 ; 3336184.82345997 ; 5455653.045964651 ; 0.0
164 ; 11989.813318242654 ; 33470.26408567256 ; 3348211.711248115 ; 5489123.310050324 ; 0.0
165 ; 11978.081227335093 ; 33470.26408567256 ; 3360201.524566358 ; 5522593.574135996 ; 0.0
166 ; 11673.579650385893 ; 33470.26408567256 ; 3372179.605793693 ; 5556063.838221669 ; 0.0
167 ; 11440.838942198503 ; 33470.26408567256 ; 3383853.185444079 ; 5589534.102307342 ; 0.0
168 ; 11332.912129153803 ; 33470.26408567256 ; 3395294.0243862774 ; 5623004.366393015 ; 0.0
169 ; 11152.54756830189 ; 33470.26408567256 ; 3406626.9365154314 ; 5656474.630478688 ; 0.0
170 ; 10983.86791993518 ; 33470.26408567256 ; 3417779.484083733 ; 5689944.89456436 ; 0.0
171 ; 10767.74358429745 ; 33470.26408567256 ; 3428763.3520036684 ; 5723415.158650033 ; 0.0
172 ; 10630.665726792964 ; 33470.26408567256 ; 3439531.095587966 ; 5756885.422735706 ; 0.0
173 ; 10471.56749728946 ; 33470.26408567256 ; 3450161.761314759 ; 5790355.686821379 ; 0.0
174 ; 10490.957342040807 ; 33470.26408567256 ; 3460633.3288120483 ; 5823825.950907052 ; 0.0
175 ; 10396.789904375624 ; 33470.26408567256 ; 3471124.286154089 ; 5857296.214992724 ; 0.0
176 ; 10557.960204656265 ; 33470.26408567256 ; 3481521.0760584646 ; 5890766.479078397 ; 0.0
177 ; 10579.432926030884 ; 33470.26408567256 ; 3492079.036263121 ; 5924236.74316407 ; 0.0
178 ; 10778.703085351506 ; 33470.26408567256 ; 3502658.4691891517 ; 5957707.007249743 ; 0.0
179 ; 10755.107665114032 ; 33470.26408567256 ; 3513437.1722745034 ; 5991177.271335416 ; 0.0
180 ; 10825.827909872738 ; 33470.26408567256 ; 3524192.2799396175 ; 6024647.535421088 ; 0.0
181 ; 10798.565260537827 ; 33470.26408567256 ; 3535018.1078494904 ; 6058117.799506761 ; 0.0
182 ; 10793.21248557977 ; 33470.26408567256 ; 3545816.6731100283 ; 6091588.063592434 ; 0.0
183 ; 10666.935530050574 ; 33470.26408567256 ; 3556609.885595608 ; 6125058.327678107 ; 0.0
184 ; 10719.978998449069 ; 33470.26408567256 ; 3567276.8211256587 ; 6158528.5917637795 ; 0.0
185 ; 10990.470724648378 ; 33470.26408567256 ; 3577996.800124108 ; 6191998.855849452 ; 0.0
186 ; 10908.71988930792 ; 33470.26408567256 ; 3588987.270848756 ; 6225469.119935125 ; 0.0
187 ; 10935.210786827172 ; 33470.26408567256 ; 3599895.990738064 ; 6258939.384020798 ; 0.0
188 ; 10967.370918184608 ; 33470.26408567256 ; 3610831.2015248914 ; 6292409.648106471 ; 0.0
189 ; 11174.857027499524 ; 33470.26408567256 ; 3621798.572443076 ; 6325879.9121921435 ; 0.0
190 ; 11159.869685532132 ; 33470.26408567256 ; 3632973.4294705754 ; 6359350.176277816 ; 0.0
191 ; 11178.60516176795 ; 33470.26408567256 ; 3644133.2991561075 ; 6392820.440363489 ; 0.0
192 ; 11090.467187166278 ; 33470.26408567256 ; 3655311.9043178754 ; 6426290.704449162 ; 0.0
193 ; 11410.537418078779 ; 33470.26408567256 ; 3666402.3715050416 ; 6459760.968534835 ; 0.0
194 ; 11294.181338691653 ; 33470.26408567256 ; 3677812.9089231202 ; 6493231.2326205075 ; 0.0
195 ; 11408.112437631626 ; 33470.26408567256 ; 3689107.090261812 ; 6526701.49670618 ; 0.0
196 ; 11415.188288216676 ; 33470.26408567256 ; 3700515.2026994433 ; 6560171.760791853 ; 0.0
197 ; 11324.134985335802 ; 33470.26408567256 ; 3711930.39098766 ; 6593642.024877526 ; 0.0
198 ; 11352.296759959012 ; 33470.26408567256 ; 3723254.5259729954 ; 6627112.288963199 ; 0.0
199 ; 11300.3774259034 ; 33470.26408567256 ; 3734606.8227329543 ; 6660582.553048871 ; 0.0
200 ; 11410.983875727823 ; 33470.26408567256 ; 3745907.2001588577 ; 6694052.817134544 ; 0.0
201 ; 11286.419573077577 ; 33470.26408567256 ; 3757318.1840345855 ; 6727523.081220217 ; 0.0
202 ; 11459.74664064491 ; 33470.26408567256 ; 3768604.603607663 ; 6760993.34530589 ; 0.0
203 ; 11605.725458951447 ; 33470.26408567256 ; 3780064.350248308 ; 6794463.609391563 ; 0.0
204 ; 11518.153108133289 ; 33470.26408567256 ; 3791670.0757072596 ; 6827933.873477235 ; 0.0
205 ; 11636.151847537569 ; 33470.26408567256 ; 3803188.228815393 ; 6861404.137562908 ; 0.0
206 ; 11473.69228720477 ; 33470.26408567256 ; 3814824.3806629307 ; 6894874.401648581 ; 0.0
207 ; 11720.213657480681 ; 33470.26408567256 ; 3826298.0729501355 ; 6928344.665734254 ; 0.0
208 ; 11677.972739783883 ; 33470.26408567256 ; 3838018.286607616 ; 6961814.929819927 ; 0.0
209 ; 11707.406654102278 ; 33470.26408567256 ; 3849696.2593474 ; 6995285.193905599 ; 0.0
210 ; 11932.069594360966 ; 33470.26408567256 ; 3861403.6660015024 ; 7028755.457991272 ; 0.0
211 ; 11827.946844148702 ; 33470.26408567256 ; 3873335.7355958633 ; 7062225.722076945 ; 0.0
212 ; 11820.004452502733 ; 33470.26408567256 ; 3885163.682440012 ; 7095695.986162618 ; 0.0
213 ; 11884.22131025424 ; 33470.26408567256 ; 3896983.686892515 ; 7129166.250248291 ; 0.0
214 ; 11769.331863984837 ; 33470.26408567256 ; 3908867.9082027692 ; 7162636.514333963 ; 0.0
215 ; 11896.723176382236 ; 33470.26408567256 ; 3920637.240066754 ; 7196106.778419636 ; 0.0
216 ; 12034.85529388414 ; 33470.26408567256 ; 3932533.963243136 ; 7229577.042505309 ; 0.0
