CSV File for the Network on Day 12
1 - Minute m 
2 - Power Consumed at minute m 
3 - Power Produced at minute m 
4 - Energy Consumed since the beginning of the day 
5 - Energy Produced since the beginning of the day 
6 - Energy Lost since the beginning of the day 
 
0 ; 4.996320577360388E7 ; 1.0516072819786593E8 ; 0.0 ; 0.0 ; 0.0
1 ; 5.001539964194188E7 ; 1.0531504918552023E8 ; 4.996320577360388E7 ; 1.0516072819786593E8 ; 613.6199999999999
2 ; 5.006540353014645E7 ; 1.0577801214848319E8 ; 9.997860541554576E7 ; 2.1047577738338616E8 ; 1227.2399999999998
3 ; 5.013032588250479E7 ; 1.065496170867548E8 ; 1.500440089456922E8 ; 3.1625378953186935E8 ; 1840.8599999999997
4 ; 5.019741707801145E7 ; 1.0762986400033504E8 ; 2.00174334828197E8 ; 4.2280340661862415E8 ; 2454.4799999999996
5 ; 5.028573092135282E7 ; 1.0901875288922393E8 ; 2.5037175190620846E8 ; 5.304332706189592E8 ; 3068.0999999999995
6 ; 5.041080275251083E7 ; 1.1071628375342144E8 ; 3.0065748282756126E8 ; 6.394520235081831E8 ; 3681.7199999999993
7 ; 5.057864635774225E7 ; 1.1272245659292762E8 ; 3.510682855800721E8 ; 7.501683072616045E8 ; 4295.339999999999
8 ; 5.082298969642758E7 ; 1.1503727140774243E8 ; 4.0164693193781435E8 ; 8.628907638545321E8 ; 4908.959999999999
9 ; 5.119231020376813E7 ; 1.1766072819786589E8 ; 4.5246992163424194E8 ; 9.779280352622745E8 ; 5522.579999999999
10 ; 5.1747806385030776E7 ; 1.2059282696329801E8 ; 5.036622318380101E8 ; 1.0955887634601405E9 ; 6136.199999999999
11 ; 5.2642679877181254E7 ; 1.2383356770403875E8 ; 5.554100382230408E8 ; 1.2161815904234385E9 ; 6749.819999999999
12 ; 5.407531065195336E7 ; 1.2738295042008813E8 ; 6.080527181002221E8 ; 1.3400151581274774E9 ; 7363.439999999999
13 ; 5.545683836017681E7 ; 1.3124097511144613E8 ; 6.621280287521755E8 ; 1.4673981085475655E9 ; 7977.059999999999
14 ; 5.562144361272337E7 ; 1.354076417781128E8 ; 7.175848671123523E8 ; 1.5986390836590116E9 ; 8590.679999999998
15 ; 5.56844439536941E7 ; 1.3988295042008808E8 ; 7.732063107250756E8 ; 1.7340467254371245E9 ; 9204.3
16 ; 5.574682074227627E7 ; 1.4466690103737205E8 ; 8.288907546787697E8 ; 1.8739296758572125E9 ; 9817.919999999998
17 ; 5.580655347762491E7 ; 1.4975949362996468E8 ; 8.84637575421046E8 ; 2.0185965768945847E9 ; 10431.539999999997
18 ; 5.5880113605489604E7 ; 1.5516072819786587E8 ; 9.404441288986709E8 ; 2.1683560705245495E9 ; 11045.159999999996
19 ; 5.594045381468514E7 ; 1.6087060474107572E8 ; 9.963242425041605E8 ; 2.3235167987224154E9 ; 11658.779999999995
20 ; 5.601051602836355E7 ; 1.6688912325959423E8 ; 1.0522646963188456E9 ; 2.484387403463491E9 ; 12272.399999999994
21 ; 5.607425634830809E7 ; 1.732162837534214E8 ; 1.1082752123472092E9 ; 2.6512765267230854E9 ; 12886.019999999993
22 ; 5.6139664614803724E7 ; 1.7985208622255722E8 ; 1.1643494686955173E9 ; 2.8244928104765067E9 ; 13499.639999999992
23 ; 5.621364157486357E7 ; 1.867965306670017E8 ; 1.220489133310321E9 ; 3.004344896699064E9 ; 14113.259999999991
24 ; 5.627020281537126E7 ; 1.9404961708675477E8 ; 1.2767027748851848E9 ; 3.1911414273660655E9 ; 14726.87999999999
25 ; 5.63354651628416E7 ; 2.0029938637999997E8 ; 1.332972977700556E9 ; 3.3851910444528203E9 ; 15340.499999999989
26 ; 5.6393513113609135E7 ; 2.0029938637999997E8 ; 1.3893084428633976E9 ; 3.5854904308328204E9 ; 15954.119999999988
27 ; 5.646332062529953E7 ; 2.0029938637999997E8 ; 1.4457019559770067E9 ; 3.7857898172128205E9 ; 16567.739999999987
28 ; 5.652800339609085E7 ; 2.0029938637999997E8 ; 1.5021652766023061E9 ; 3.9860892035928206E9 ; 17181.359999999986
29 ; 5.6589753691105664E7 ; 2.0029938637999997E8 ; 1.5586932799983969E9 ; 4.1863885899728208E9 ; 17794.979999999985
30 ; 5.6650731776346475E7 ; 2.0029938637999997E8 ; 1.6152830336895025E9 ; 4.38668797635282E9 ; 18408.599999999984
31 ; 5.671237694331745E7 ; 2.0029938637999997E8 ; 1.671933765465849E9 ; 4.5869873627328205E9 ; 19022.219999999983
32 ; 5.676553150460628E7 ; 2.0029938637999997E8 ; 1.7286461424091663E9 ; 4.787286749112821E9 ; 19635.839999999982
33 ; 5.682446020768191E7 ; 2.0029938637999997E8 ; 1.7854116739137726E9 ; 4.987586135492821E9 ; 20249.45999999998
34 ; 5.68893114806432E7 ; 2.0029938637999997E8 ; 1.8422361341214545E9 ; 5.187885521872821E9 ; 20863.07999999998
35 ; 5.693304274541335E7 ; 2.0029938637999997E8 ; 1.8991254456020977E9 ; 5.388184908252821E9 ; 21476.69999999998
36 ; 5.697734146313717E7 ; 2.0029938637999997E8 ; 1.956058488347511E9 ; 5.588484294632821E9 ; 22090.319999999978
37 ; 5.702804221126656E7 ; 2.0029938637999997E8 ; 2.0130358298106482E9 ; 5.788783681012821E9 ; 22703.939999999977
38 ; 5.7078711645264626E7 ; 2.0029938637999997E8 ; 2.0700638720219147E9 ; 5.989083067392821E9 ; 23317.559999999976
39 ; 5.712642161544962E7 ; 2.0029938637999997E8 ; 2.1271425836671793E9 ; 6.189382453772821E9 ; 23931.179999999975
40 ; 5.7168144604989044E7 ; 2.0029938637999997E8 ; 2.184269005282629E9 ; 6.389681840152822E9 ; 24544.799999999974
41 ; 5.721181437695189E7 ; 2.0029938637999997E8 ; 2.241437149887618E9 ; 6.589981226532822E9 ; 25158.419999999973
42 ; 5.724662914043598E7 ; 2.0029938637999997E8 ; 2.2986489642645698E9 ; 6.790280612912822E9 ; 25772.03999999997
43 ; 5.727760374580088E7 ; 2.0029938637999997E8 ; 2.355895593405006E9 ; 6.990579999292822E9 ; 26385.65999999997
44 ; 5.731636798210028E7 ; 2.0029938637999997E8 ; 2.413173197150807E9 ; 7.190879385672822E9 ; 26999.27999999997
45 ; 5.734736668272812E7 ; 2.0029938637999997E8 ; 2.4704895651329074E9 ; 7.391178772052822E9 ; 27612.89999999997
46 ; 5.73763939358154E7 ; 2.0029938637999997E8 ; 2.5278369318156357E9 ; 7.591478158432822E9 ; 28226.519999999968
47 ; 5.741158901429669E7 ; 2.0029938637999997E8 ; 2.585213325751451E9 ; 7.791777544812822E9 ; 28840.139999999967
48 ; 5.742427827184393E7 ; 2.0029938637999997E8 ; 2.6426249147657475E9 ; 7.992076931192822E9 ; 29453.759999999966
49 ; 5.744611877475797E7 ; 2.0029938637999997E8 ; 2.7000491930375915E9 ; 8.192376317572823E9 ; 30067.379999999965
50 ; 5.746277942549114E7 ; 2.0029938637999997E8 ; 2.7574953118123493E9 ; 8.392675703952823E9 ; 30680.999999999964
51 ; 5.747747606611925E7 ; 2.0029938637999997E8 ; 2.8149580912378407E9 ; 8.592975090332823E9 ; 31294.619999999963
52 ; 5.749223982676394E7 ; 2.0029938637999997E8 ; 2.87243556730396E9 ; 8.793274476712822E9 ; 31908.23999999996
53 ; 5.751059552947205E7 ; 2.0029938637999997E8 ; 2.929927807130724E9 ; 8.993573863092821E9 ; 32521.85999999996
54 ; 5.752291205860573E7 ; 2.0029938637999997E8 ; 2.987438402660196E9 ; 9.19387324947282E9 ; 33135.47999999996
55 ; 5.754419585291178E7 ; 2.0029938637999997E8 ; 3.0449613147188015E9 ; 9.39417263585282E9 ; 33749.09999999996
56 ; 5.755185488039476E7 ; 2.0029938637999997E8 ; 3.1025055105717134E9 ; 9.594472022232819E9 ; 34362.719999999965
57 ; 5.756443124922706E7 ; 2.0029938637999997E8 ; 3.1600573654521084E9 ; 9.794771408612818E9 ; 34976.33999999997
58 ; 5.758186603403057E7 ; 2.0029938637999997E8 ; 3.2176217967013354E9 ; 9.995070794992817E9 ; 35589.95999999997
59 ; 5.759779236819954E7 ; 2.0029938637999997E8 ; 3.275203662735366E9 ; 1.0195370181372816E10 ; 36203.57999999997
60 ; 5.760561562287934E7 ; 2.0029938637999997E8 ; 3.332801455103565E9 ; 1.0395669567752815E10 ; 36817.199999999975
61 ; 5.7616133347793445E7 ; 2.0029938637999997E8 ; 3.3904070707264447E9 ; 1.0595968954132814E10 ; 37430.81999999998
62 ; 5.762890105266337E7 ; 2.0029938637999997E8 ; 3.4480232040742383E9 ; 1.0796268340512814E10 ; 38044.43999999998
63 ; 5.763752441032372E7 ; 2.0029938637999997E8 ; 3.5056521051269016E9 ; 1.0996567726892813E10 ; 38658.05999999998
64 ; 5.764837224094164E7 ; 2.0029938637999997E8 ; 3.5632896295372252E9 ; 1.1196867113272812E10 ; 39271.679999999986
65 ; 5.7645268631574005E7 ; 2.0029938637999997E8 ; 3.620938001778167E9 ; 1.1397166499652811E10 ; 39885.29999999999
66 ; 5.7658926428856514E7 ; 2.0029938637999997E8 ; 3.678583270409741E9 ; 1.159746588603281E10 ; 40498.91999999999
67 ; 5.766547401899475E7 ; 2.0029938637999997E8 ; 3.7362421968385973E9 ; 1.179776527241281E10 ; 41112.53999999999
68 ; 5.767420272489321E7 ; 2.0029938637999997E8 ; 3.793907670857592E9 ; 1.1998064658792809E10 ; 41726.159999999996
69 ; 5.768165939614718E7 ; 2.0029938637999997E8 ; 3.851581873582485E9 ; 1.2198364045172808E10 ; 42339.78
70 ; 5.7691128361982845E7 ; 2.0029938637999997E8 ; 3.9092635329786325E9 ; 1.2398663431552807E10 ; 42953.4
71 ; 5.7693371138363644E7 ; 2.0029938637999997E8 ; 3.9669546613406153E9 ; 1.2598962817932806E10 ; 43567.020000000004
72 ; 5.770342020391406E7 ; 2.0029938637999997E8 ; 4.024648032478979E9 ; 1.2799262204312805E10 ; 44180.64000000001
73 ; 5.7700912319672674E7 ; 2.0029938637999997E8 ; 4.0823514526828933E9 ; 1.2999561590692804E10 ; 44794.26000000001
74 ; 5.771035998156026E7 ; 2.0029938637999997E8 ; 4.140052365002566E9 ; 1.3199860977072803E10 ; 45407.88000000001
75 ; 5.770606852034777E7 ; 2.0029938637999997E8 ; 4.197762724984126E9 ; 1.3400160363452803E10 ; 46021.500000000015
76 ; 5.770987162259801E7 ; 2.0029938637999997E8 ; 4.2554687935044737E9 ; 1.3600459749832802E10 ; 46635.12000000002
77 ; 5.770913422365715E7 ; 2.0029938637999997E8 ; 4.313178665127071E9 ; 1.3800759136212801E10 ; 47248.74000000002
78 ; 5.7692774300491184E7 ; 2.0029938637999997E8 ; 4.370887799350729E9 ; 1.40010585225928E10 ; 47862.36000000002
79 ; 5.7678667529936045E7 ; 2.0029938637999997E8 ; 4.42858057365122E9 ; 1.42013579089728E10 ; 48475.980000000025
80 ; 5.766578543538247E7 ; 2.0029938637999997E8 ; 4.486259241181156E9 ; 1.4401657295352798E10 ; 49089.60000000003
81 ; 5.765058025265397E7 ; 2.0029938637999997E8 ; 4.543925026616539E9 ; 1.4601956681732798E10 ; 49703.22000000003
82 ; 5.763321017865943E7 ; 2.0029938637999997E8 ; 4.601575606869193E9 ; 1.4802256068112797E10 ; 50316.84000000003
83 ; 5.761628544571791E7 ; 2.0029938637999997E8 ; 4.6592088170478525E9 ; 1.5002555454492796E10 ; 50930.460000000036
84 ; 5.759217320139435E7 ; 2.0029938637999997E8 ; 4.71682510249357E9 ; 1.5202854840872795E10 ; 51544.08000000004
85 ; 5.75699908978574E7 ; 2.0029938637999997E8 ; 4.774417275694964E9 ; 1.5403154227252794E10 ; 52157.70000000004
86 ; 5.75522977700481E7 ; 2.0029938637999997E8 ; 4.831987266592822E9 ; 1.5603453613632793E10 ; 52771.32000000004
87 ; 5.753591871703091E7 ; 2.0029938637999997E8 ; 4.88953956436287E9 ; 1.5803753000012793E10 ; 53384.940000000046
88 ; 5.7512591096945874E7 ; 2.0029938637999997E8 ; 4.947075483079901E9 ; 1.6004052386392792E10 ; 53998.56000000005
89 ; 5.7487103584741235E7 ; 2.0029938637999997E8 ; 5.0045880741768465E9 ; 1.620435177277279E10 ; 54612.18000000005
90 ; 5.746270175216854E7 ; 2.0029938637999997E8 ; 5.062075177761588E9 ; 1.640465115915279E10 ; 55225.800000000054
91 ; 5.744852487539508E7 ; 2.0029938637999997E8 ; 5.119537879513757E9 ; 1.660495054553279E10 ; 55839.42000000006
92 ; 5.741856502326157E7 ; 2.0029938637999997E8 ; 5.176986404389152E9 ; 1.6805249931912788E10 ; 56453.04000000006
93 ; 5.739592031000627E7 ; 2.0029938637999997E8 ; 5.234404969412414E9 ; 1.7005549318292788E10 ; 57066.66000000006
94 ; 5.736775102869267E7 ; 2.0029938637999997E8 ; 5.29180088972242E9 ; 1.7205848704672787E10 ; 57680.280000000064
95 ; 5.7346981308881395E7 ; 2.0029938637999997E8 ; 5.349168640751112E9 ; 1.7406148091052788E10 ; 58293.90000000007
96 ; 5.7320521290136024E7 ; 2.0029938637999997E8 ; 5.406515622059994E9 ; 1.760644747743279E10 ; 58907.52000000007
97 ; 5.729519589352536E7 ; 2.0029938637999997E8 ; 5.46383614335013E9 ; 1.780674686381279E10 ; 59521.14000000007
98 ; 5.726550317542644E7 ; 2.0029938637999997E8 ; 5.521131339243655E9 ; 1.800704625019279E10 ; 60134.760000000075
99 ; 5.724478256127633E7 ; 2.0029938637999997E8 ; 5.578396842419082E9 ; 1.8207345636572792E10 ; 60748.38000000008
100 ; 5.721181401433329E7 ; 2.0029938637999997E8 ; 5.635641624980358E9 ; 1.8407645022952793E10 ; 61362.00000000008
101 ; 5.71826131532844E7 ; 2.0029938637999997E8 ; 5.692853438994692E9 ; 1.8607944409332794E10 ; 61975.62000000008
102 ; 5.716229894247125E7 ; 2.0029938637999997E8 ; 5.750036052147976E9 ; 1.8808243795712795E10 ; 62589.240000000085
103 ; 5.71331081544376E7 ; 2.0029938637999997E8 ; 5.807198351090447E9 ; 1.9008543182092796E10 ; 63202.86000000009
104 ; 5.70991102755594E7 ; 2.0029938637999997E8 ; 5.864331459244885E9 ; 1.9208842568472797E10 ; 63816.48000000009
105 ; 5.706601719439913E7 ; 2.0029938637999997E8 ; 5.921430569520445E9 ; 1.94091419548528E10 ; 64430.10000000009
106 ; 5.703644582887007E7 ; 2.0029938637999997E8 ; 5.978496586714844E9 ; 1.96094413412328E10 ; 65043.720000000096
107 ; 5.7008690177970834E7 ; 2.0029938637999997E8 ; 6.035533032543714E9 ; 1.98097407276128E10 ; 65657.3400000001
108 ; 5.696825025163785E7 ; 2.0029938637999997E8 ; 6.092541722721684E9 ; 2.00100401139928E10 ; 66270.9600000001
109 ; 5.693946468046818E7 ; 2.0029938637999997E8 ; 6.149509972973322E9 ; 2.0210339500372803E10 ; 66884.58000000009
110 ; 5.690150241765029E7 ; 2.0029938637999997E8 ; 6.20644943765379E9 ; 2.0410638886752804E10 ; 67498.20000000008
111 ; 5.686618190243702E7 ; 2.0029938637999997E8 ; 6.263350940071441E9 ; 2.0610938273132805E10 ; 68111.82000000008
112 ; 5.6841995316219695E7 ; 2.0029938637999997E8 ; 6.320217121973878E9 ; 2.0811237659512806E10 ; 68725.44000000008
113 ; 5.680359703783329E7 ; 2.0029938637999997E8 ; 6.377059117290097E9 ; 2.1011537045892807E10 ; 69339.06000000007
114 ; 5.6765585238830075E7 ; 2.0029938637999997E8 ; 6.43386271432793E9 ; 2.1211836432272808E10 ; 69952.68000000007
115 ; 5.673757120459088E7 ; 2.0029938637999997E8 ; 6.49062829956676E9 ; 2.141213581865281E10 ; 70566.30000000006
116 ; 5.6689075743946396E7 ; 2.0029938637999997E8 ; 6.547365870771351E9 ; 2.161243520503281E10 ; 71179.92000000006
117 ; 5.6654537220128745E7 ; 2.0029938637999997E8 ; 6.604054946515297E9 ; 2.181273459141281E10 ; 71793.54000000005
118 ; 5.6613864418790445E7 ; 2.0029938637999997E8 ; 6.660709483735426E9 ; 2.2013033977792812E10 ; 72407.16000000005
119 ; 5.657892276634183E7 ; 2.0029938637999997E8 ; 6.717323348154217E9 ; 2.2213333364172813E10 ; 73020.78000000004
120 ; 5.6531798809725106E7 ; 2.0029938637999997E8 ; 6.773902270920559E9 ; 2.2413632750552814E10 ; 73634.40000000004
121 ; 5.6497643796481445E7 ; 2.0029938637999997E8 ; 6.830434069730284E9 ; 2.2613932136932816E10 ; 74248.02000000003
122 ; 5.645989318289773E7 ; 2.0029938637999997E8 ; 6.886931713526765E9 ; 2.2814231523312817E10 ; 74861.64000000003
123 ; 5.641339187916092E7 ; 2.0029938637999997E8 ; 6.943391606709662E9 ; 2.3014530909692818E10 ; 75475.26000000002
124 ; 5.637571711169141E7 ; 2.0029938637999997E8 ; 6.999804998588823E9 ; 2.321483029607282E10 ; 76088.88000000002
125 ; 5.6328905066982746E7 ; 2.0029938637999997E8 ; 7.056180715700515E9 ; 2.341512968245282E10 ; 76702.50000000001
126 ; 5.629700940429154E7 ; 2.0029938637999997E8 ; 7.112509620767498E9 ; 2.361542906883282E10 ; 77316.12000000001
127 ; 5.6248006483424075E7 ; 2.0029938637999997E8 ; 7.168806630171789E9 ; 2.3815728455212822E10 ; 77929.74
128 ; 5.62058985542323E7 ; 2.0029938637999997E8 ; 7.225054636655213E9 ; 2.4016027841592823E10 ; 78543.36
129 ; 5.615908830959843E7 ; 2.0029938637999997E8 ; 7.281260535209446E9 ; 2.4216327227972824E10 ; 79156.98
130 ; 5.611055235427733E7 ; 2.0029938637999997E8 ; 7.337419623519044E9 ; 2.4416626614352825E10 ; 79770.59999999999
131 ; 5.6037938064128235E7 ; 2.0029938637999997E8 ; 7.393530175873322E9 ; 2.4616926000732826E10 ; 80384.21999999999
132 ; 5.598839383146665E7 ; 2.0029938637999997E8 ; 7.449568113937449E9 ; 2.4817225387112827E10 ; 80997.83999999998
133 ; 5.591272397825162E7 ; 2.0029938637999997E8 ; 7.505556507768916E9 ; 2.501752477349283E10 ; 81611.45999999998
134 ; 5.5858248479230225E7 ; 2.0029938637999997E8 ; 7.561469231747168E9 ; 2.521782415987283E10 ; 82225.07999999997
135 ; 5.5798246447449826E7 ; 2.0029938637999997E8 ; 7.6173274802263975E9 ; 2.541812354625283E10 ; 82838.69999999997
136 ; 5.5725198287504576E7 ; 2.0029938637999997E8 ; 7.673125726673847E9 ; 2.561842293263283E10 ; 83452.31999999996
137 ; 5.566496919736848E7 ; 2.0029938637999997E8 ; 7.728850924961351E9 ; 2.5818722319012833E10 ; 84065.93999999996
138 ; 5.559587249262355E7 ; 2.0029938637999997E8 ; 7.78451589415872E9 ; 2.6019021705392834E10 ; 84679.55999999995
139 ; 5.553693764272821E7 ; 2.0029938637999997E8 ; 7.840111766651343E9 ; 2.6219321091772835E10 ; 85293.17999999995
140 ; 5.545998982419234E7 ; 2.0029938637999997E8 ; 7.895648704294071E9 ; 2.6419620478152836E10 ; 85906.79999999994
141 ; 5.5394670537531056E7 ; 2.0029938637999997E8 ; 7.951108694118263E9 ; 2.6619919864532837E10 ; 86520.41999999994
142 ; 5.5329855750817075E7 ; 2.0029938637999997E8 ; 8.006503364655794E9 ; 2.6820219250912838E10 ; 87134.03999999994
143 ; 5.525864912866683E7 ; 2.0029938637999997E8 ; 8.061833220406611E9 ; 2.702051863729284E10 ; 87747.65999999993
144 ; 5.519794786528498E7 ; 2.0029938637999997E8 ; 8.117091869535278E9 ; 2.722081802367284E10 ; 88361.27999999993
145 ; 5.514502957795015E7 ; 2.0029938637999997E8 ; 8.172289817400563E9 ; 2.742111741005284E10 ; 88974.89999999992
146 ; 5.5089908233225346E7 ; 2.0029938637999997E8 ; 8.227434846978514E9 ; 2.7621416796432842E10 ; 89588.51999999992
147 ; 5.5052124779590726E7 ; 2.0029938637999997E8 ; 8.282524755211739E9 ; 2.7821716182812843E10 ; 90202.13999999991
148 ; 5.499689738902691E7 ; 2.0029938637999997E8 ; 8.337576879991329E9 ; 2.8022015569192844E10 ; 90815.75999999991
149 ; 5.495423418160441E7 ; 2.0029938637999997E8 ; 8.392573777380356E9 ; 2.8222314955572845E10 ; 91429.3799999999
150 ; 5.49039638183132E7 ; 2.0029938637999997E8 ; 8.44752801156196E9 ; 2.8422614341952847E10 ; 92042.9999999999
151 ; 5.486012174141907E7 ; 2.0029938637999997E8 ; 8.502431975380274E9 ; 2.8622913728332848E10 ; 92656.6199999999
152 ; 5.480786937669761E7 ; 2.0029938637999997E8 ; 8.557292097121693E9 ; 2.882321311471285E10 ; 93270.23999999989
153 ; 5.476441695000676E7 ; 2.0029938637999997E8 ; 8.61209996649839E9 ; 2.902351250109285E10 ; 93883.85999999988
154 ; 5.470665167691081E7 ; 2.0029938637999997E8 ; 8.666864383448397E9 ; 2.922381188747285E10 ; 94497.47999999988
155 ; 5.466136059617457E7 ; 2.0029938637999997E8 ; 8.721571035125307E9 ; 2.942411127385285E10 ; 95111.09999999987
156 ; 5.4607797231174216E7 ; 2.0029938637999997E8 ; 8.776232395721481E9 ; 2.9624410660232853E10 ; 95724.71999999987
157 ; 5.456541364672481E7 ; 2.0029938637999997E8 ; 8.830840192952656E9 ; 2.9824710046612854E10 ; 96338.33999999987
158 ; 5.451079779843475E7 ; 2.0029938637999997E8 ; 8.88540560659938E9 ; 3.0025009432992855E10 ; 96951.95999999986
159 ; 5.4463952809871584E7 ; 2.0029938637999997E8 ; 8.939916404397816E9 ; 3.0225308819372856E10 ; 97565.57999999986
160 ; 5.441487853883952E7 ; 2.0029938637999997E8 ; 8.994380357207687E9 ; 3.0425608205752857E10 ; 98179.19999999985
161 ; 5.435593774443247E7 ; 2.0029938637999997E8 ; 9.048795235746527E9 ; 3.062590759213286E10 ; 98792.81999999985
162 ; 5.430621387413691E7 ; 2.0029938637999997E8 ; 9.10315117349096E9 ; 3.082620697851286E10 ; 99406.43999999984
163 ; 5.4256651905158944E7 ; 2.0029938637999997E8 ; 9.157457387365095E9 ; 3.102650636489286E10 ; 100020.05999999984
164 ; 5.420653628148313E7 ; 2.0029938637999997E8 ; 9.211714039270254E9 ; 3.122680575127286E10 ; 100633.67999999983
165 ; 5.415265804447396E7 ; 2.0029938637999997E8 ; 9.265920575551737E9 ; 3.1427105137652863E10 ; 101247.29999999983
166 ; 5.4103759277821064E7 ; 2.0029938637999997E8 ; 9.32007323359621E9 ; 3.1627404524032864E10 ; 101860.91999999982
167 ; 5.404988821530074E7 ; 2.0029938637999997E8 ; 9.374176992874031E9 ; 3.1827703910412865E10 ; 102474.53999999982
168 ; 5.399525548415163E7 ; 2.0029938637999997E8 ; 9.428226881089333E9 ; 3.2028003296792866E10 ; 103088.15999999981
169 ; 5.394297654054467E7 ; 2.0029938637999997E8 ; 9.482222136573484E9 ; 3.2228302683172867E10 ; 103701.77999999981
170 ; 5.389090508746096E7 ; 2.0029938637999997E8 ; 9.536165113114029E9 ; 3.2428602069552868E10 ; 104315.3999999998
171 ; 5.3836313660170265E7 ; 2.0029938637999997E8 ; 9.59005601820149E9 ; 3.262890145593287E10 ; 104929.0199999998
172 ; 5.378395112020067E7 ; 2.0029938637999997E8 ; 9.64389233186166E9 ; 3.282920084231287E10 ; 105542.6399999998
