CSV File for the Network on Day 180
1 - Minute m 
2 - Power Consumed at minute m 
3 - Power Produced at minute m 
4 - Energy Consumed since the beginning of the day 
5 - Energy Produced since the beginning of the day 
6 - Energy Lost since the beginning of the day 
 
0 ; 8877702.504103724 ; 6.345441544005543E8 ; 0.0 ; 0.0 ; 0.0
1 ; 8914441.3079554 ; 6.354545598786857E8 ; 8877702.504103724 ; 6.345441544005543E8 ; 0.0
2 ; 8948584.681475034 ; 6.38218390175518E8 ; 1.7792143812059123E7 ; 1.2699987142792401E9 ; 0.0
3 ; 8993912.452042937 ; 6.428356649814656E8 ; 2.6740728493534155E7 ; 1.9082171044547582E9 ; 0.0
4 ; 9046372.884864729 ; 6.493064019952985E8 ; 3.573464094557709E7 ; 2.551052769436224E9 ; 0.0
5 ; 9110432.656254746 ; 6.576306168084598E8 ; 4.478101383044182E7 ; 3.2003591714315224E9 ; 0.0
6 ; 9206494.284847101 ; 6.678083228008271E8 ; 5.389144648669656E7 ; 3.857989788239982E9 ; 0.0
7 ; 9335036.875743594 ; 6.798395310495094E8 ; 6.309794077154367E7 ; 4.52579811104081E9 ; 0.0
8 ; 9512763.324351072 ; 6.93724250252109E8 ; 7.243297764728726E7 ; 5.205637642090319E9 ; 0.0
9 ; 9785470.233128168 ; 7.094624866656871E8 ; 8.194574097163834E7 ; 5.899361892342428E9 ; 0.0
10 ; 1.0224239749074718E7 ; 7.270542440624256E8 ; 9.173121120476651E7 ; 6.608824379008116E9 ; 0.0
11 ; 1.0910957241289644E7 ; 7.464995237027243E8 ; 1.0195545095384122E8 ; 7.335878623070541E9 ; 0.0
12 ; 1.201469543034712E7 ; 7.677983243261833E8 ; 1.1286640819513087E8 ; 8.082378146773266E9 ; 0.0
13 ; 1.3075655537336979E7 ; 7.909506421606205E8 ; 1.2488110362547798E8 ; 8.85017647109945E9 ; 0.0
14 ; 1.3206961610837124E7 ; 8.159564709489756E8 ; 1.3795675916281497E8 ; 9.641127113260069E9 ; 0.0
15 ; 1.3250740772305496E7 ; 8.428158019936447E8 ; 1.511637207736521E8 ; 1.0457083584209045E10 ; 0.0
16 ; 1.3302387154662933E7 ; 8.715286242175208E8 ; 1.644144615459576E8 ; 1.129989938620269E10 ; 0.0
17 ; 1.3339117490541082E7 ; 9.020949242407249E8 ; 1.7771684870062053E8 ; 1.2171428010420212E10 ; 0.0
18 ; 1.3397379890193004E7 ; 9.345146864718143E8 ; 1.910559661911616E8 ; 1.3073522934660936E10 ; 0.0
19 ; 1.3440310683571227E7 ; 9.68787893212019E8 ; 2.0445334608135462E8 ; 1.4008037621132751E10 ; 0.0
20 ; 1.3490479579576831E7 ; 1.0049145247709244E9 ; 2.1789365676492584E8 ; 1.497682551434477E10 ; 0.0
21 ; 1.3539266385945844E7 ; 1.0428945595918893E9 ; 2.3138413634450266E8 ; 1.5981740039115694E10 ; 0.0
22 ; 1.3589578196857374E7 ; 1.0827279743854141E9 ; 2.449234027304485E8 ; 1.7024634598707582E10 ; 0.0
23 ; 1.3639027204017973E7 ; 1.124414744268648E9 ; 2.5851298092730588E8 ; 1.8107362573092995E10 ; 0.0
24 ; 1.3694549981820801E7 ; 1.1679548429092295E9 ; 2.721520081313239E8 ; 1.923177731736164E10 ; 0.0
25 ; 1.3732960998466475E7 ; 1.205476488060805E9 ; 2.858465581131447E8 ; 2.039973216027087E10 ; 0.0
26 ; 1.3788191351658642E7 ; 1.2055009379317207E9 ; 2.995795191116112E8 ; 2.1605208648331676E10 ; 0.0
27 ; 1.384346017381786E7 ; 1.2055267784810886E9 ; 3.133677104632698E8 ; 2.2810709586263397E10 ; 0.0
28 ; 1.3888506073069595E7 ; 1.2055539790439644E9 ; 3.272111706370877E8 ; 2.4016236364744484E10 ; 0.0
29 ; 1.3934398555412432E7 ; 1.2055825082319608E9 ; 3.410996767101573E8 ; 2.522179034378845E10 ; 0.0
30 ; 1.3979530970255615E7 ; 1.2056123340698652E9 ; 3.550340752655697E8 ; 2.642737285202041E10 ; 0.0
31 ; 1.4024413887482258E7 ; 1.2056434241267605E9 ; 3.690136062358253E8 ; 2.7632985186090275E10 ; 0.0
32 ; 1.4071991573538713E7 ; 1.2056757456408536E9 ; 3.830380201233076E8 ; 2.8838628610217033E10 ; 0.0
33 ; 1.4122053994357195E7 ; 1.2057092656373692E9 ; 3.971100116968463E8 ; 3.0044304355857887E10 ; 0.0
34 ; 1.4147651027124882E7 ; 1.2057439510390344E9 ; 4.112320656912035E8 ; 3.1250013621495255E10 ; 0.0
35 ; 1.4196473232886376E7 ; 1.2057797687688165E9 ; 4.2537971671832836E8 ; 3.245575757253429E10 ; 0.0
36 ; 1.4242552106041498E7 ; 1.205816685844717E9 ; 4.3957618995121473E8 ; 3.366153734130311E10 ; 0.0
37 ; 1.427832217981532E7 ; 1.205854669466548E9 ; 4.538187420572562E8 ; 3.486735402714783E10 ; 0.0
38 ; 1.4316747967170645E7 ; 1.2058936870947182E9 ; 4.680970642370715E8 ; 3.607320869661437E10 ; 0.0
39 ; 1.4350021745583177E7 ; 1.205933706521162E9 ; 4.8241381220424217E8 ; 3.727910238370909E10 ; 0.0
40 ; 1.4387527146379706E7 ; 1.2059746959326136E9 ; 4.9676383394982535E8 ; 3.8485036090230255E10 ; 0.0
41 ; 1.442037479919361E7 ; 1.2060166239664938E9 ; 5.1115136109620506E8 ; 3.969101078616287E10 ; 0.0
42 ; 1.4449229011818107E7 ; 1.2060594597597408E9 ; 5.255717358953987E8 ; 4.0897027410129364E10 ; 0.0
43 ; 1.4479672668057522E7 ; 1.206103172990943E9 ; 5.400209649072168E8 ; 4.210308686988911E10 ; 0.0
44 ; 1.4505744326395921E7 ; 1.2061477339161649E9 ; 5.545006375752743E8 ; 4.330919004288005E10 ; 0.0
45 ; 1.4534721855783377E7 ; 1.2061931133988872E9 ; 5.690063819016702E8 ; 4.451533777679622E10 ; 0.0
46 ; 1.4561177509417124E7 ; 1.206239282934472E9 ; 5.835411037574536E8 ; 4.572153089019511E10 ; 0.0
47 ; 1.4579994275989834E7 ; 1.2062862146695848E9 ; 5.981022812668707E8 ; 4.692777017312958E10 ; 0.0
48 ; 1.4605770629889678E7 ; 1.206333881416994E9 ; 6.126822755428606E8 ; 4.8134056387799164E10 ; 0.0
49 ; 1.4618614103800667E7 ; 1.206382256666162E9 ; 6.272880461727504E8 ; 4.9340390269216156E10 ; 0.0
50 ; 1.4632088913674295E7 ; 1.2064313145900214E9 ; 6.41906660276551E8 ; 5.054677252588232E10 ; 0.0
51 ; 1.4645748779226763E7 ; 1.2064810300483327E9 ; 6.565387491902254E8 ; 5.1753203840472336E10 ; 0.0
52 ; 1.467098912052895E7 ; 1.206531378587977E9 ; 6.711844979694521E8 ; 5.295968487052067E10 ; 0.0
53 ; 1.4688198079868108E7 ; 1.2065823364405348E9 ; 6.858554870899811E8 ; 5.416621624910864E10 ; 0.0
54 ; 1.4697486720592283E7 ; 1.2066338805174737E9 ; 7.005436851698492E8 ; 5.537279858554918E10 ; 0.0
55 ; 1.4707373055136599E7 ; 1.206685988403245E9 ; 7.152411718904414E8 ; 5.657943246606665E10 ; 0.0
56 ; 1.4725272663177991E7 ; 1.2067386383465707E9 ; 7.29948544945578E8 ; 5.7786118454469894E10 ; 0.0
57 ; 1.4741065875369534E7 ; 1.2067918092501733E9 ; 7.44673817608756E8 ; 5.899285709281647E10 ; 0.0
58 ; 1.4752934597075094E7 ; 1.2068454806591911E9 ; 7.594148834841255E8 ; 6.019964890206664E10 ; 0.0
59 ; 1.476945938110468E7 ; 1.206899632748484E9 ; 7.741678180812006E8 ; 6.140649438272583E10 ; 0.0
60 ; 1.4775859881526154E7 ; 1.2069542463090339E9 ; 7.889372774623053E8 ; 6.261339401547431E10 ; 0.0
61 ; 1.4795447763693238E7 ; 1.2070093027336078E9 ; 8.037131373438314E8 ; 6.382034826178335E10 ; 0.0
62 ; 1.4798643604323722E7 ; 1.2070647840018463E9 ; 8.185085851075246E8 ; 6.502735756451695E10 ; 0.0
63 ; 1.4810404027094822E7 ; 1.2071206726649125E9 ; 8.333072287118484E8 ; 6.62344223485188E10 ; 0.0
64 ; 1.4825740230782457E7 ; 1.2071769518298347E9 ; 8.481176327389432E8 ; 6.744154302118371E10 ; 0.0
65 ; 1.483444063987407E7 ; 1.2072336051436455E9 ; 8.629433729697257E8 ; 6.864871997301354E10 ; 0.0
66 ; 1.4843410172232583E7 ; 1.2072906167774189E9 ; 8.777778136095998E8 ; 6.985595357815718E10 ; 0.0
67 ; 1.4856247333259601E7 ; 1.2073479714102917E9 ; 8.926212237818325E8 ; 7.10632441949346E10 ; 0.0
68 ; 1.4867777373150181E7 ; 1.2074056542135396E9 ; 9.07477471115092E8 ; 7.22705921663449E10 ; 0.0
69 ; 1.4880824040736236E7 ; 1.2074636508347754E9 ; 9.223452484882423E8 ; 7.347799782055844E10 ; 0.0
70 ; 1.4887763096495472E7 ; 1.2075219473823242E9 ; 9.372260725289785E8 ; 7.468546147139322E10 ; 0.0
71 ; 1.4895429239121882E7 ; 1.2075805304098167E9 ; 9.52113835625474E8 ; 7.589298341877554E10 ; 0.0
72 ; 1.49017448096121E7 ; 1.2076393869010506E9 ; 9.670092648645959E8 ; 7.710056394918536E10 ; 0.0
73 ; 1.4913902616791021E7 ; 1.2076985042551405E9 ; 9.81911009674208E8 ; 7.830820333608641E10 ; 0.0
74 ; 1.4915110636260925E7 ; 1.2077578702719934E9 ; 9.96824912290999E8 ; 7.951590184034155E10 ; 0.0
75 ; 1.4934427357456332E7 ; 1.207817473138123E9 ; 1.0117400229272599E9 ; 8.072365971061354E10 ; 0.0
76 ; 1.4935014668632403E7 ; 1.207877301412827E9 ; 1.0266744502847162E9 ; 8.193147718375166E10 ; 0.0
77 ; 1.4947160133270524E7 ; 1.2079373440147336E9 ; 1.0416094649533486E9 ; 8.313935448516449E10 ; 0.0
78 ; 1.4934227373237424E7 ; 1.2079975902087314E9 ; 1.0565566250866191E9 ; 8.434729182917923E10 ; 0.0
79 ; 1.4932670132133797E7 ; 1.208058029593286E9 ; 1.0714908524598565E9 ; 8.555528941938795E10 ; 0.0
80 ; 1.49199658491482E7 ; 1.2081186520881453E9 ; 1.0864235225919902E9 ; 8.676334744898125E10 ; 0.0
81 ; 1.4918800294129595E7 ; 1.20817944792244E9 ; 1.1013434884411385E9 ; 8.79714661010694E10 ; 0.0
82 ; 1.4910670576307684E7 ; 1.2082404076231709E9 ; 1.116262288735268E9 ; 8.917964554899184E10 ; 0.0
83 ; 1.490625877103747E7 ; 1.2083015220040853E9 ; 1.131172959311576E9 ; 9.0387885956615E10 ; 0.0
84 ; 1.4891537075280357E7 ; 1.2083627821549368E9 ; 1.1460792180826135E9 ; 9.15961874786191E10 ; 0.0
85 ; 1.4888385376332082E7 ; 1.2084241794311216E9 ; 1.160970755157894E9 ; 9.280455026077403E10 ; 0.0
86 ; 1.4881844960097775E7 ; 1.2084857054436853E9 ; 1.175859140534226E9 ; 9.401297444020515E10 ; 0.0
87 ; 1.4877669381285805E7 ; 1.208547352049695E9 ; 1.1907409854943237E9 ; 9.522146014564883E10 ; 0.0
88 ; 1.4860958851916302E7 ; 1.208609111342965E9 ; 1.2056186548756096E9 ; 9.643000749769853E10 ; 0.0
89 ; 1.4858590922646811E7 ; 1.2086709756451283E9 ; 1.220479613727526E9 ; 9.76386166090415E10 ; 0.0
90 ; 1.4848719942206034E7 ; 1.208732937497048E9 ; 1.2353382046501727E9 ; 9.884728758468663E10 ; 0.0
91 ; 1.4838112010980394E7 ; 1.2087949896505532E9 ; 1.2501869245923789E9 ; 1.0005602052218369E11 ; 0.0
92 ; 1.4828724798716962E7 ; 1.2088571250604966E9 ; 1.2650250366033592E9 ; 1.0126481551183424E11 ; 0.0
93 ; 1.4817605554385044E7 ; 1.208919336877116E9 ; 1.2798537614020762E9 ; 1.0247367263689474E11 ; 0.0
94 ; 1.4807654767116435E7 ; 1.2089816184386995E9 ; 1.2946713669564612E9 ; 1.0368259197377187E11 ; 0.0
95 ; 1.4791169163532523E7 ; 1.2090439632645347E9 ; 1.3094790217235777E9 ; 1.0489157359221057E11 ; 0.0
96 ; 1.4772752394624274E7 ; 1.209106365048139E9 ; 1.3242701908871102E9 ; 1.0610061755547511E11 ; 0.0
97 ; 1.4775335353101956E7 ; 1.209168817650758E9 ; 1.3390429432817345E9 ; 1.0730972392052325E11 ; 0.0
98 ; 1.476050320749547E7 ; 1.2092313150951242E9 ; 1.3538182786348364E9 ; 1.0851889273817401E11 ; 0.0
99 ; 1.4746031749494549E7 ; 1.2092938515594637E9 ; 1.368578781842332E9 ; 1.0972812405326913E11 ; 0.0
100 ; 1.4737596783551097E7 ; 1.2093564213717453E9 ; 1.3833248135918264E9 ; 1.109374179048286E11 ; 0.0
101 ; 1.4718793196942814E7 ; 1.20941901900416E9 ; 1.3980624103753777E9 ; 1.1214677432620035E11 ; 0.0
102 ; 1.4710981944281768E7 ; 1.209481639067823E9 ; 1.4127812035723205E9 ; 1.1335619334520451E11 ; 0.0
103 ; 1.4690057429833092E7 ; 1.2095442763076906E9 ; 1.4274921855166023E9 ; 1.1456567498427234E11 ; 0.0
104 ; 1.4684371962199533E7 ; 1.209606925597682E9 ; 1.4421822429464355E9 ; 1.1577521926058003E11 ; 0.0
105 ; 1.4668055951057691E7 ; 1.2096695819359984E9 ; 1.456866614908635E9 ; 1.1698482618617772E11 ; 0.0
106 ; 1.46468186212305E7 ; 1.2097322404406319E9 ; 1.4715346708596926E9 ; 1.1819449576811372E11 ; 0.0
107 ; 1.4639917690109514E7 ; 1.209794896345056E9 ; 1.4861814894809232E9 ; 1.1940422800855435E11 ; 0.0
108 ; 1.4621361706499238E7 ; 1.2098575449940915E9 ; 1.5008214071710327E9 ; 1.2061402290489941E11 ; 0.0
109 ; 1.4604370190539643E7 ; 1.209920181839938E9 ; 1.515442768877532E9 ; 1.2182388044989351E11 ; 0.0
110 ; 1.4593028797896244E7 ; 1.209982802438368E9 ; 1.5300471390680716E9 ; 1.2303380063173344E11 ; 0.0
111 ; 1.4574514801342249E7 ; 1.210045402445074E9 ; 1.5446401678659678E9 ; 1.2424378343417181E11 ; 0.0
112 ; 1.4557211107603308E7 ; 1.2101079776121626E9 ; 1.55921468266731E9 ; 1.2545382883661688E11 ; 0.0
113 ; 1.4545349477984183E7 ; 1.2101705237847905E9 ; 1.5737718937749133E9 ; 1.2666393681422905E11 ; 0.0
114 ; 1.4527651331982696E7 ; 1.210233036897936E9 ; 1.5883172432528975E9 ; 1.2787410733801384E11 ; 0.0
115 ; 1.4505871204066964E7 ; 1.210295512973301E9 ; 1.60284489458488E9 ; 1.2908434037491177E11 ; 0.0
116 ; 1.448630816147888E7 ; 1.2103579481163359E9 ; 1.617350765788947E9 ; 1.3029463588788507E11 ; 0.0
117 ; 1.447197013462979E7 ; 1.2104203385133853E9 ; 1.631837073950426E9 ; 1.315049938360014E11 ; 0.0
118 ; 1.445338507953858E7 ; 1.2104826804289465E9 ; 1.6463090440850558E9 ; 1.3271541417451479E11 ; 0.0
119 ; 1.4434498786752664E7 ; 1.2105449702030382E9 ; 1.6607624291645944E9 ; 1.3392589685494373E11 ; 0.0
120 ; 1.4413166514835037E7 ; 1.210607204248675E9 ; 1.675196927951347E9 ; 1.3513644182514676E11 ; 0.0
121 ; 1.4393466902443841E7 ; 1.2106693790494392E9 ; 1.6896100944661822E9 ; 1.3634704902939543E11 ; 0.0
122 ; 1.4375458223034536E7 ; 1.2107314911571512E9 ; 1.704003561368626E9 ; 1.375577184084449E11 ; 0.0
123 ; 1.4353036035022743E7 ; 1.2107935371896327E9 ; 1.7183790195916607E9 ; 1.3876844989960205E11 ; 0.0
124 ; 1.4334111154671263E7 ; 1.2108555138285558E9 ; 1.7327320556266835E9 ; 1.399792434367917E11 ; 0.0
125 ; 1.431691893917444E7 ; 1.210917417817378E9 ; 1.7470661667813547E9 ; 1.4119009895062024E11 ; 0.0
126 ; 1.4297627029379478E7 ; 1.2109792459593573E9 ; 1.761383085720529E9 ; 1.4240101636843762E11 ; 0.0
127 ; 1.4280115089352932E7 ; 1.2110409951156468E9 ; 1.7756807127499084E9 ; 1.4361199561439697E11 ; 0.0
128 ; 1.4255129615326114E7 ; 1.2111026622034612E9 ; 1.7899608278392613E9 ; 1.4482303660951263E11 ; 0.0
129 ; 1.4227577176852565E7 ; 1.211164244194316E9 ; 1.8042159574545875E9 ; 1.460341392717161E11 ; 0.0
130 ; 1.4206071955359932E7 ; 1.2112257381123335E9 ; 1.81844353463144E9 ; 1.472453035159104E11 ; 0.0
131 ; 1.4167081094846588E7 ; 1.2112871410326176E9 ; 1.8326496065867999E9 ; 1.4845652925402274E11 ; 0.0
132 ; 1.4132961951310808E7 ; 1.211348450079687E9 ; 1.8468166876816463E9 ; 1.4966781639505536E11 ; 0.0
133 ; 1.4093247234771682E7 ; 1.211409662425971E9 ; 1.8609496496329572E9 ; 1.5087916484513504E11 ; 0.0
134 ; 1.4059845201028008E7 ; 1.211470775290361E9 ; 1.875042896867729E9 ; 1.52090574507561E11 ; 0.0
135 ; 1.402649198193876E7 ; 1.2115317859368207E9 ; 1.889102742068757E9 ; 1.5330204528285138E11 ; 0.0
136 ; 1.3986828193869168E7 ; 1.2115926916730456E9 ; 1.903129234050696E9 ; 1.545135770687882E11 ; 0.0
137 ; 1.3948279370782861E7 ; 1.211653489849174E9 ; 1.917116062244565E9 ; 1.5572516976046124E11 ; 0.0
138 ; 1.3910159062740007E7 ; 1.2117141778565485E9 ; 1.9310643416153479E9 ; 1.5693682325031042E11 ; 0.0
139 ; 1.387252914603668E7 ; 1.2117747531265218E9 ; 1.944974500678088E9 ; 1.5814853742816696E11 ; 0.0
140 ; 1.3840220534120418E7 ; 1.2118352131293092E9 ; 1.9588470298241246E9 ; 1.593603121812935E11 ; 0.0
141 ; 1.380061980877351E7 ; 1.211895555372882E9 ; 1.972687250358245E9 ; 1.605721473944228E11 ; 0.0
142 ; 1.375928573442052E7 ; 1.211955777401904E9 ; 1.9864878701670184E9 ; 1.617840429497957E11 ; 0.0
143 ; 1.3721611374234792E7 ; 1.2120158767967074E9 ; 2.000247155901439E9 ; 1.629959987271976E11 ; 0.0
144 ; 1.3684083065474093E7 ; 1.2120758511723037E9 ; 2.0139687672756736E9 ; 1.6420801460399432E11 ; 0.0
145 ; 1.3659669470140595E7 ; 1.2121356981774356E9 ; 2.0276528503411477E9 ; 1.6542009045516663E11 ; 0.0
146 ; 1.3635193576236498E7 ; 1.21219541549366E9 ; 2.0413125198112884E9 ; 1.6663222615334406E11 ; 0.0
147 ; 1.3617789959710378E7 ; 1.2122550008344662E9 ; 2.0549477133875248E9 ; 1.678444215688377E11 ; 0.0
148 ; 1.3587940298405085E7 ; 1.2123144519444265E9 ; 2.0685655033472352E9 ; 1.6905667656967218E11 ; 0.0
149 ; 1.3564518680236332E7 ; 1.2123737665983768E9 ; 2.0821534436456404E9 ; 1.702689910216166E11 ; 0.0
150 ; 1.3545565612159953E7 ; 1.2124329426006267E9 ; 2.0957179623258767E9 ; 1.71481364788215E11 ; 0.0
151 ; 1.3523113967402441E7 ; 1.2124919777842007E9 ; 2.1092635279380367E9 ; 1.726937977308156E11 ; 0.0
152 ; 1.3500652011952657E7 ; 1.2125508700101023E9 ; 2.1227866419054391E9 ; 1.7390628970859982E11 ; 0.0
153 ; 1.3480459847427603E7 ; 1.2126096171666093E9 ; 2.1362872939173918E9 ; 1.7511884057860992E11 ; 0.0
154 ; 1.3457168867419466E7 ; 1.2126682171685898E9 ; 2.149767753764819E9 ; 1.7633145019577652E11 ; 0.0
155 ; 1.343435319083127E7 ; 1.2127266679568467E9 ; 2.1632249226322384E9 ; 1.775441184129451E11 ; 0.0
156 ; 1.340451865646317E7 ; 1.212784967497482E9 ; 2.1766592758230696E9 ; 1.7875684508090195E11 ; 0.0
157 ; 1.3391574773164725E7 ; 1.2128431137812858E9 ; 2.1900637944795327E9 ; 1.799696300483994E11 ; 0.0
158 ; 1.3365530026361514E7 ; 1.2129011048231463E9 ; 2.2034553692526975E9 ; 1.811824731621807E11 ; 0.0
159 ; 1.333921465766532E7 ; 1.21295893866148E9 ; 2.216820899279059E9 ; 1.8239537426700385E11 ; 0.0
160 ; 1.3315598047824258E7 ; 1.2130166133576822E9 ; 2.230160113936724E9 ; 1.836083332056653E11 ; 0.0
161 ; 1.3289283014675606E7 ; 1.2130741269955974E9 ; 2.2434757119845486E9 ; 1.84821349819023E11 ; 0.0
162 ; 1.326658394304305E7 ; 1.213131477681007E9 ; 2.256764994999224E9 ; 1.8603442394601862E11 ; 0.0
163 ; 1.3247582893887673E7 ; 1.2131886635411353E9 ; 2.2700315789422674E9 ; 1.8724755542369962E11 ; 0.0
164 ; 1.3216470237767195E7 ; 1.213245682724173E9 ; 2.283279161836155E9 ; 1.8846074408724075E11 ; 0.0
165 ; 1.3203312724025168E7 ; 1.213302533398816E9 ; 2.296495632073922E9 ; 1.8967398976996494E11 ; 0.0
166 ; 1.3172407302977737E7 ; 1.2133592137538223E9 ; 2.3096989447979474E9 ; 1.9088729230336374E11 ; 0.0
167 ; 1.3148257625871459E7 ; 1.2134157219975796E9 ; 2.322871352100925E9 ; 1.9210065151711755E11 ; 0.0
168 ; 1.3124302517714825E7 ; 1.2134720563576949E9 ; 2.3360196097267966E9 ; 1.9331406723911514E11 ; 0.0
169 ; 1.3106829687869156E7 ; 1.2135282150805893E9 ; 2.3491439122445116E9 ; 1.9452753929547284E11 ; 0.0
170 ; 1.3076116472187307E7 ; 1.2135841964311147E9 ; 2.3622507419323807E9 ; 1.9574106751055344E11 ; 0.0
171 ; 1.305197995687107E7 ; 1.213639998692178E9 ; 2.375326858404568E9 ; 1.9695465170698456E11 ; 0.0
172 ; 1.3025807693141524E7 ; 1.2136956201643798E9 ; 2.388378838361439E9 ; 1.9816829170567673E11 ; 0.0
173 ; 1.300090532749377E7 ; 1.2137510591656668E9 ; 2.4014046460545807E9 ; 1.993819873258411E11 ; 0.0
174 ; 1.2990263757323384E7 ; 1.213806314030993E9 ; 2.4144055513820744E9 ; 2.0059573838500677E11 ; 0.0
175 ; 1.2969859870340398E7 ; 1.2138613831119933E9 ; 2.4273958151393976E9 ; 2.0180954469903778E11 ; 0.0
176 ; 1.2945252680916375E7 ; 1.2139162647766705E9 ; 2.440365675009738E9 ; 2.0302340608214978E11 ; 0.0
177 ; 1.2933681846834436E7 ; 1.2139709574090881E9 ; 2.4533109276906543E9 ; 2.0423732234692645E11 ; 0.0
178 ; 1.2911240127102485E7 ; 1.2140254594090776E9 ; 2.466244609537489E9 ; 2.0545129330433554E11 ; 0.0
179 ; 1.2896977778278382E7 ; 1.2140797691919522E9 ; 2.4791558496645913E9 ; 2.0666531876374463E11 ; 0.0
180 ; 1.2873098025173422E7 ; 1.2141338851882322E9 ; 2.4920528274428697E9 ; 2.0787939853293658E11 ; 0.0
181 ; 1.2866524725063343E7 ; 1.2141878058433793E9 ; 2.504925925468043E9 ; 2.0909353241812482E11 ; 0.0
182 ; 1.2849005204863228E7 ; 1.2142415296175375E9 ; 2.517792450193106E9 ; 2.103077202239682E11 ; 0.0
183 ; 1.2828120907246796E7 ; 1.2142950549852848E9 ; 2.5306414553979692E9 ; 2.1152196175358572E11 ; 0.0
184 ; 1.2813952885900103E7 ; 1.2143483804353926E9 ; 2.543469576305216E9 ; 2.12736256808571E11 ; 0.0
185 ; 1.2790466885407167E7 ; 1.214401504470592E9 ; 2.556283529191116E9 ; 2.139506051890064E11 ; 0.0
186 ; 1.2774353913353637E7 ; 1.2144544256073477E9 ; 2.569073996076523E9 ; 2.15165006693477E11 ; 0.0
187 ; 1.275441905388772E7 ; 1.2145071423756416E9 ; 2.5818483499898763E9 ; 2.1637946111908435E11 ; 0.0
188 ; 1.2741037685986498E7 ; 1.21455965331876E9 ; 2.594602769043764E9 ; 2.1759396826146E11 ; 0.0
189 ; 1.2717465958861211E7 ; 1.2146119569930892E9 ; 2.6073438067297506E9 ; 2.1880852791477875E11 ; 0.0
190 ; 1.2697483554688508E7 ; 1.2146640519679193E9 ; 2.620061272688612E9 ; 2.2002313987177185E11 ; 0.0
191 ; 1.2686070476728272E7 ; 1.2147159368252516E9 ; 2.6327587562433004E9 ; 2.2123780392373978E11 ; 0.0
192 ; 1.2663930196893523E7 ; 1.2147676101596136E9 ; 2.645444826720029E9 ; 2.2245251986056503E11 ; 0.0
193 ; 1.2649487264378775E7 ; 1.2148190705778804E9 ; 2.6581087569169226E9 ; 2.2366728747072464E11 ; 0.0
194 ; 1.2631220146148704E7 ; 1.2148703166990993E9 ; 2.670758244181301E9 ; 2.2488210654130252E11 ; 0.0
195 ; 1.260744124861586E7 ; 1.2149213471543248E9 ; 2.68338946432745E9 ; 2.2609697685800162E11 ; 0.0
