CSV File for the Network on Day 34
1 - Minute m 
2 - Power Consumed at minute m 
3 - Power Produced at minute m 
4 - Energy Consumed since the beginning of the day 
5 - Energy Produced since the beginning of the day 
6 - Energy Lost since the beginning of the day 
 
0 ; 3.83914213975749E7 ; 6.324147465271096E8 ; 0.0 ; 0.0 ; 0.0
1 ; 3.843588563485472E7 ; 6.333139622746642E8 ; 3.83914213975749E7 ; 6.324147465271096E8 ; 0.0
2 ; 3.847625158157998E7 ; 6.360674026272302E8 ; 7.682730703242962E7 ; 1.2657287088017738E9 ; 0.0
3 ; 3.852500999850001E7 ; 6.406751955918541E8 ; 1.153035586140096E8 ; 1.901796111429004E9 ; 0.0
4 ; 3.858086623335766E7 ; 6.471374638137996E8 ; 1.538285686125096E8 ; 2.542471307020858E9 ; 0.0
5 ; 3.86500908630324E7 ; 6.554543217931175E8 ; 1.9240943484586728E8 ; 3.1896087708346577E9 ; 0.0
6 ; 3.874270142519439E7 ; 6.656258729798881E8 ; 2.3105952570889968E8 ; 3.845063092627775E9 ; 0.0
7 ; 3.887227602493594E7 ; 6.776522068890133E8 ; 2.6980222713409406E8 ; 4.510688965607663E9 ; 0.0
8 ; 3.906465446331823E7 ; 6.915333963995322E8 ; 3.0867450315903E8 ; 5.188341172496676E9 ; 0.0
9 ; 3.934184663515845E7 ; 7.072694954134972E8 ; 3.4773915762234825E8 ; 5.879874568896209E9 ; 0.0
10 ; 3.978001398184631E7 ; 7.248605370411276E8 ; 3.870810042575067E8 ; 6.587144064309706E9 ; 0.0
11 ; 4.047135985557498E7 ; 7.443065324505343E8 ; 4.2686101823935306E8 ; 7.312004601350833E9 ; 0.0
12 ; 4.1573273918876305E7 ; 7.656074704736065E8 ; 4.67332378094928E8 ; 8.056311133801367E9 ; 0.0
13 ; 4.263548756928625E7 ; 7.887633180001245E8 ; 5.089056520138043E8 ; 8.821918604274973E9 ; 0.0
14 ; 4.276091963325511E7 ; 8.137740211280363E8 ; 5.515411395830905E8 ; 9.610681922275097E9 ; 0.0
15 ; 4.2816202545968994E7 ; 8.406395069783027E8 ; 5.943020592163457E8 ; 1.0424455943403133E10 ; 0.0
16 ; 4.2864314699627414E7 ; 8.69359686036022E8 ; 6.371182617623147E8 ; 1.1265095450381435E10 ; 0.0
17 ; 4.2914860126023E7 ; 8.999344548511132E8 ; 6.799825764619421E8 ; 1.2134455136417458E10 ; 0.0
18 ; 4.296223732425996E7 ; 9.323636989235265E8 ; 7.228974365879651E8 ; 1.303438959126857E10 ; 0.0
19 ; 4.3017948060364924E7 ; 9.666472956079974E8 ; 7.658596739122251E8 ; 1.3966753290192097E10 ; 0.0
20 ; 4.306777655787617E7 ; 1.0027851168974798E9 ; 8.088776219725901E8 ; 1.4933400585800095E10 ; 0.0
21 ; 4.311760675438169E7 ; 1.0407770319769064E9 ; 8.519453985304663E8 ; 1.5936185702697575E10 ; 0.0
22 ; 4.3168297038944714E7 ; 1.0806229094742885E9 ; 8.95063005284848E8 ; 1.697696273467448E10 ; 0.0
23 ; 4.322272833622564E7 ; 1.1223226193697808E9 ; 9.382313023237927E8 ; 1.805758564414877E10 ; 0.0
24 ; 4.326138116759156E7 ; 1.1658760345520725E9 ; 9.814540306600183E8 ; 1.917990826351855E10 ; 0.0
25 ; 4.332209664922234E7 ; 1.2034112774228675E9 ; 1.0247154118276099E9 ; 2.0345784298070625E10 ; 0.0
26 ; 4.3369059128718674E7 ; 1.2034495170198338E9 ; 1.0680375084768323E9 ; 2.1549195575493492E10 ; 0.0
27 ; 4.341670167526115E7 ; 1.2034892567903495E9 ; 1.111406567605551E9 ; 2.2752645092513325E10 ; 0.0
28 ; 4.346797133458881E7 ; 1.203530390460055E9 ; 1.1548232692808123E9 ; 2.3956134349303673E10 ; 0.0
29 ; 4.3515867522483274E7 ; 1.203572817985084E9 ; 1.198291240615401E9 ; 2.515966473976373E10 ; 0.0
30 ; 4.356590415562965E7 ; 1.2036164455887175E9 ; 1.2418071081378844E9 ; 2.6363237557748814E10 ; 0.0
31 ; 4.3607734962357335E7 ; 1.2036611856771529E9 ; 1.285373012293514E9 ; 2.7566854003337532E10 ; 0.0
32 ; 4.364906615562585E7 ; 1.203706956665022E9 ; 1.3289807472558713E9 ; 2.8770515189014687E10 ; 0.0
33 ; 4.3693926826480106E7 ; 1.2037536827364464E9 ; 1.372629813411497E9 ; 2.997422214567971E10 ; 0.0
34 ; 4.3745809468795E7 ; 1.2038012935627992E9 ; 1.4163237402379773E9 ; 3.1177975828416157E10 ; 0.0
35 ; 4.378037356540125E7 ; 1.203849723994093E9 ; 1.4600695497067723E9 ; 3.2381777121978954E10 ; 0.0
36 ; 4.382391305894085E7 ; 1.2038989137372088E9 ; 1.5038499232721736E9 ; 3.3585626845973045E10 ; 0.0
37 ; 4.386119169138715E7 ; 1.2039488070310287E9 ; 1.5476738363311145E9 ; 3.478952575971025E10 ; 0.0
38 ; 4.3898402192640685E7 ; 1.2039993523259192E9 ; 1.5915350280225017E9 ; 3.599347456674128E10 ; 0.0
39 ; 4.393391329820996E7 ; 1.2040505019728944E9 ; 1.6354334302151425E9 ; 3.71974739190672E10 ; 0.0
40 ; 4.396709970269024E7 ; 1.204102211926118E9 ; 1.6793673435133524E9 ; 3.840152442104009E10 ; 0.0
41 ; 4.399075167888564E7 ; 1.2041544414610705E9 ; 1.7233344432160425E9 ; 3.960562663296621E10 ; 0.0
42 ; 4.402888745924948E7 ; 1.2042071529097242E9 ; 1.7673251948949282E9 ; 4.080978107442728E10 ; 0.0
43 ; 4.405507262867378E7 ; 1.2042603114133008E9 ; 1.8113540823541777E9 ; 4.2013988227337E10 ; 0.0
44 ; 4.4080801771685466E7 ; 1.2043138846926389E9 ; 1.8554091549828515E9 ; 4.32182485387503E10 ; 0.0
45 ; 4.410867417673461E7 ; 1.204367842835807E9 ; 1.8994899567545369E9 ; 4.442256242344294E10 ; 0.0
46 ; 4.4126933767167225E7 ; 1.2044221581023166E9 ; 1.9435986309312716E9 ; 4.562693026627875E10 ; 0.0
47 ; 4.415321701142552E7 ; 1.2044768047431235E9 ; 1.987725564698439E9 ; 4.6831352424381065E10 ; 0.0
48 ; 4.416258019939894E7 ; 1.2045317588354907E9 ; 2.0318787817098644E9 ; 4.803582922912419E10 ; 0.0
49 ; 4.41821443507693E7 ; 1.2045869981317368E9 ; 2.0760413619092634E9 ; 4.924036098795968E10 ; 0.0
50 ; 4.4198378577707246E7 ; 1.2046425019208784E9 ; 2.1202235062600327E9 ; 5.0444947986091415E10 ; 0.0
51 ; 4.420707268497288E7 ; 1.204698250902187E9 ; 2.16442188483774E9 ; 5.164959048801229E10 ; 0.0
52 ; 4.4216515243709594E7 ; 1.2047542270697136E9 ; 2.2086289575227127E9 ; 5.2854288738914474E10 ; 0.0
53 ; 4.4231896588408574E7 ; 1.2048104136068726E9 ; 2.2528454727664223E9 ; 5.405904296598419E10 ; 0.0
54 ; 4.4237569561168134E7 ; 1.2048667947902386E9 ; 2.2970773693548307E9 ; 5.5263853379591064E10 ; 0.0
55 ; 4.425551968639776E7 ; 1.2049233559017549E9 ; 2.341314938915999E9 ; 5.64687201743813E10 ; 0.0
56 ; 4.4264468554725535E7 ; 1.2049800831486118E9 ; 2.3855704586023965E9 ; 5.767364353028306E10 ; 0.0
57 ; 4.427402944881092E7 ; 1.2050369635901194E9 ; 2.429834927157122E9 ; 5.887862361343167E10 ; 0.0
58 ; 4.428400199947578E7 ; 1.2050939850709352E9 ; 2.474108956605933E9 ; 6.008366057702179E10 ; 0.0
59 ; 4.429453595129132E7 ; 1.2051511361600819E9 ; 2.518392958605409E9 ; 6.128875456209273E10 ; 0.0
60 ; 4.430214033116068E7 ; 1.2052084060952218E9 ; 2.5626874945567007E9 ; 6.249390569825281E10 ; 0.0
61 ; 4.431147085642451E7 ; 1.2052657847317133E9 ; 2.6069896348878613E9 ; 6.369911410434803E10 ; 0.0
62 ; 4.431795665656913E7 ; 1.2053232624960117E9 ; 2.6513011057442856E9 ; 6.490437988907974E10 ; 0.0
63 ; 4.432450974930953E7 ; 1.2053808303430195E9 ; 2.6956190624008546E9 ; 6.610970315157575E10 ; 0.0
64 ; 4.433256957023652E7 ; 1.2054384797170224E9 ; 2.739943572150164E9 ; 6.731508398191877E10 ; 0.0
65 ; 4.434294644379631E7 ; 1.2054962025158951E9 ; 2.784276141720401E9 ; 6.8520522461635796E10 ; 0.0
66 ; 4.434306056434157E7 ; 1.205553991058269E9 ; 2.828619088164197E9 ; 6.972601866415169E10 ; 0.0
67 ; 4.4351899352212094E7 ; 1.2056118380534031E9 ; 2.8729621487285385E9 ; 7.093157265520996E10 ; 0.0
68 ; 4.435601512494702E7 ; 1.205669736573515E9 ; 2.9173140480807505E9 ; 7.213718449326337E10 ; 0.0
69 ; 4.436252750621528E7 ; 1.205727680028346E9 ; 2.9616700632056975E9 ; 7.334285422983688E10 ; 0.0
70 ; 4.435842680854529E7 ; 1.205785662141773E9 ; 3.0060325907119126E9 ; 7.454858190986523E10 ; 0.0
71 ; 4.436383605694154E7 ; 1.2058436769302726E9 ; 3.0503910175204577E9 ; 7.5754367572007E10 ; 0.0
72 ; 4.4368525262562506E7 ; 1.2059017186830904E9 ; 3.0947548535773993E9 ; 7.696021124893727E10 ; 0.0
73 ; 4.438607747905267E7 ; 1.2059597819439542E9 ; 3.1391233788399615E9 ; 7.816611296762036E10 ; 0.0
74 ; 4.437464481657415E7 ; 1.2060178614942045E9 ; 3.183509456319014E9 ; 7.937207274956432E10 ; 0.0
75 ; 4.437759105956882E7 ; 1.206075952337221E9 ; 3.227884101135588E9 ; 8.057809061105852E10 ; 0.0
76 ; 4.437941880320844E7 ; 1.2061340496840281E9 ; 3.272261692195157E9 ; 8.178416656339574E10 ; 0.0
77 ; 4.43872658294316E7 ; 1.2061921489399896E9 ; 3.3166411109983654E9 ; 8.299030061307976E10 ; 0.0
78 ; 4.436915281830603E7 ; 1.2062502456924925E9 ; 3.361028376827797E9 ; 8.419649276201974E10 ; 0.0
79 ; 4.435772346813828E7 ; 1.206308335699543E9 ; 3.405397529646103E9 ; 8.540274300771223E10 ; 0.0
80 ; 4.4338665409074925E7 ; 1.2063664148791962E9 ; 3.449755253114241E9 ; 8.660905134341177E10 ; 0.0
81 ; 4.4326548222986415E7 ; 1.2064244792997537E9 ; 3.494093918523316E9 ; 8.781541775829097E10 ; 0.0
82 ; 4.4310130778738834E7 ; 1.2064825251706657E9 ; 3.538420466746302E9 ; 8.902184223759073E10 ; 0.0
83 ; 4.43029424509828E7 ; 1.20654054883408E9 ; 3.582730597525041E9 ; 9.02283247627614E10 ; 0.0
84 ; 4.4286900800622374E7 ; 1.206598546756988E9 ; 3.6270335399760237E9 ; 9.143486531159547E10 ; 0.0
85 ; 4.426960367527737E7 ; 1.2066565155239198E9 ; 3.671320440776646E9 ; 9.264146385835246E10 ; 0.0
86 ; 4.426067680704686E7 ; 1.2067144518301432E9 ; 3.7155900444519234E9 ; 9.384812037387639E10 ; 0.0
87 ; 4.4237765356354654E7 ; 1.206772352475332E9 ; 3.7598507212589703E9 ; 9.505483482570653E10 ; 0.0
88 ; 4.4217677292083986E7 ; 1.2068302143576632E9 ; 3.804088486615325E9 ; 9.626160717818185E10 ; 0.0
89 ; 4.420649713732753E7 ; 1.2068880344683113E9 ; 3.848306163907409E9 ; 9.746843739253952E10 ; 0.0
90 ; 4.419003390151003E7 ; 1.2069458098863113E9 ; 3.892512661044737E9 ; 9.867532542700783E10 ; 0.0
91 ; 4.417373010923374E7 ; 1.2070035377737613E9 ; 3.936702694946247E9 ; 9.988227123689413E10 ; 0.0
92 ; 4.414786218875937E7 ; 1.2070612153713374E9 ; 3.980876425055481E9 ; 1.010892747746679E11 ; 0.0
93 ; 4.4128619880162425E7 ; 1.2071188399941041E9 ; 4.0250242872442403E9 ; 1.0229633599003923E11 ; 0.0
94 ; 4.411256179211811E7 ; 1.20717640902759E9 ; 4.0691529071244025E9 ; 1.0350345483003334E11 ; 0.0
95 ; 4.409318746657459E7 ; 1.2072339199241168E9 ; 4.1132654689165206E9 ; 1.0471063123906093E11 ; 0.0
96 ; 4.407751993416451E7 ; 1.2072913701993597E9 ; 4.1573586563830953E9 ; 1.0591786515898505E11 ; 0.0
97 ; 4.405782560781035E7 ; 1.207348757429123E9 ; 4.20143617631726E9 ; 1.071251565291844E11 ; 0.0
98 ; 4.403381271854965E7 ; 1.207406079246317E9 ; 4.2454940019250703E9 ; 1.0833250528661353E11 ; 0.0
99 ; 4.40123024684865E7 ; 1.20746333333812E9 ; 4.28952781464362E9 ; 1.0953991136585985E11 ; 0.0
100 ; 4.3987485327666976E7 ; 1.2075205174433155E9 ; 4.333540117112106E9 ; 1.1074737469919797E11 ; 0.0
101 ; 4.3972975845789775E7 ; 1.2075776293497884E9 ; 4.377527602439774E9 ; 1.1195489521664128E11 ; 0.0
102 ; 4.394406654193274E7 ; 1.2076346668921745E9 ; 4.421500578285563E9 ; 1.1316247284599107E11 ; 0.0
103 ; 4.391620314371623E7 ; 1.2076916279496474E9 ; 4.465444644827497E9 ; 1.1437010751288326E11 ; 0.0
104 ; 4.390112517499475E7 ; 1.207748510443837E9 ; 4.509360847971212E9 ; 1.155777991408329E11 ; 0.0
105 ; 4.3876135059196204E7 ; 1.2078053123368714E9 ; 4.553261973146207E9 ; 1.1678554765127673E11 ; 0.0
106 ; 4.385202923225284E7 ; 1.207862031629531E9 ; 4.597138108205403E9 ; 1.179933529636136E11 ; 0.0
107 ; 4.3822621204705626E7 ; 1.207918666359509E9 ; 4.640990137437656E9 ; 1.1920121499524313E11 ; 0.0
108 ; 4.37947769577671E7 ; 1.207975214599773E9 ; 4.684812758642362E9 ; 1.2040913366160265E11 ; 0.0
109 ; 4.3769070350963324E7 ; 1.2080316744570181E9 ; 4.728607535600129E9 ; 1.2161710887620242E11 ; 0.0
110 ; 4.374894829464232E7 ; 1.2080880440702085E9 ; 4.772376605951093E9 ; 1.2282514055065944E11 ; 0.0
111 ; 4.3712717605576985E7 ; 1.2081443216091986E9 ; 4.816125554245735E9 ; 1.2403322859472964E11 ; 0.0
112 ; 4.368826701546258E7 ; 1.208200505273432E9 ; 4.859838271851312E9 ; 1.2524137291633884E11 ; 0.0
113 ; 4.3663328499148086E7 ; 1.2082565932907138E9 ; 4.903526538866775E9 ; 1.2644957342161227E11 ; 0.0
114 ; 4.363871170094187E7 ; 1.2083125839160464E9 ; 4.947189867365923E9 ; 1.2765783001490298E11 ; 0.0
115 ; 4.36099335929262E7 ; 1.2083684754305303E9 ; 4.990828579066865E9 ; 1.2886614259881903E11 ; 0.0
116 ; 4.357869464825912E7 ; 1.2084242661403253E9 ; 5.034438512659791E9 ; 1.3007451107424956E11 ; 0.0
117 ; 4.355080928834765E7 ; 1.2084799543756654E9 ; 5.07801720730805E9 ; 1.3128293534038988E11 ; 0.0
118 ; 4.351987282800737E7 ; 1.208535538489926E9 ; 5.121568016596397E9 ; 1.3249141529476555E11 ; 0.0
119 ; 4.348729103807208E7 ; 1.2085910168587425E9 ; 5.165087889424405E9 ; 1.3369995083325548E11 ; 0.0
120 ; 4.34601440867163E7 ; 1.208646387879172E9 ; 5.208575180462477E9 ; 1.3490854185011423E11 ; 0.0
121 ; 4.342078697642636E7 ; 1.2087016499689016E9 ; 5.252035324549193E9 ; 1.361171882379934E11 ; 0.0
122 ; 4.3393933801181056E7 ; 1.2087568015654955E9 ; 5.2954561115256195E9 ; 1.373258898879623E11 ; 0.0
123 ; 4.336030413755546E7 ; 1.2088118411256807E9 ; 5.3388500453268E9 ; 1.385346466895278E11 ; 0.0
124 ; 4.332644939838137E7 ; 1.2088667671246717E9 ; 5.382210349464355E9 ; 1.3974345853065347E11 ; 0.0
125 ; 4.329587835645063E7 ; 1.2089215780555258E9 ; 5.425536798862737E9 ; 1.4095232529777814E11 ; 0.0
126 ; 4.3263791409421496E7 ; 1.208976272428534E9 ; 5.468832677219188E9 ; 1.4216124687583365E11 ; 0.0
127 ; 4.3225054108841315E7 ; 1.2090308487706409E9 ; 5.51209646862861E9 ; 1.4337022314826218E11 ; 0.0
128 ; 4.319514122113835E7 ; 1.2090853056248925E9 ; 5.555321522737451E9 ; 1.445792539970328E11 ; 0.0
129 ; 4.315658918811068E7 ; 1.2091396415499141E9 ; 5.598516663958589E9 ; 1.4578833930265768E11 ; 0.0
130 ; 4.3111201939618215E7 ; 1.2091938551194117E9 ; 5.641673253146699E9 ; 1.469974789442076E11 ; 0.0
131 ; 4.306631785396539E7 ; 1.2092479449216976E9 ; 5.684784455086317E9 ; 1.4820667279932703E11 ; 0.0
132 ; 4.301528075951831E7 ; 1.2093019095592408E9 ; 5.727850772940283E9 ; 1.4941592074424872E11 ; 0.0
133 ; 4.2967594739391804E7 ; 1.2093557476482377E9 ; 5.770866053699801E9 ; 1.5062522265380795E11 ; 0.0
134 ; 4.291327720585339E7 ; 1.2094094578182044E9 ; 5.813833648439194E9 ; 1.5183457840145618E11 ; 0.0
135 ; 4.2865226035100244E7 ; 1.209463038711587E9 ; 5.856746925645047E9 ; 1.5304398785927438E11 ; 0.0
136 ; 4.281789567923172E7 ; 1.2095164889833927E9 ; 5.899612151680147E9 ; 1.5425345089798596E11 ; 0.0
137 ; 4.27630349337062E7 ; 1.209569807300836E9 ; 5.942430047359379E9 ; 1.5546296738696936E11 ; 0.0
138 ; 4.2706312587653436E7 ; 1.2096229923430033E9 ; 5.985193082293085E9 ; 1.566725371942702E11 ; 0.0
139 ; 4.2660999093632944E7 ; 1.2096760428005333E9 ; 6.027899394880738E9 ; 1.5788216018661322E11 ; 0.0
140 ; 4.2601514923906855E7 ; 1.2097289573753102E9 ; 6.070560393974371E9 ; 1.5909183622941376E11 ; 0.0
141 ; 4.255240974295393E7 ; 1.2097817347801738E9 ; 6.113161908898278E9 ; 1.6030156518678906E11 ; 0.0
142 ; 4.249944166852334E7 ; 1.209834373738641E9 ; 6.1557143186412325E9 ; 1.6151134692156924E11 ; 0.0
143 ; 4.244560942226151E7 ; 1.209886872984642E9 ; 6.198213760309756E9 ; 1.627211812953079E11 ; 0.0
144 ; 4.239210728804756E7 ; 1.209939231262267E9 ; 6.2406593697320175E9 ; 1.6393106816829254E11 ; 0.0
145 ; 4.2354097445662916E7 ; 1.2099914473255246E9 ; 6.283051477020065E9 ; 1.651410073995548E11 ; 0.0
146 ; 4.2313380509931415E7 ; 1.2100435199381125E9 ; 6.325405574465728E9 ; 1.6635099884688034E11 ; 0.0
147 ; 4.227629660388562E7 ; 1.210095447873197E9 ; 6.367718954975659E9 ; 1.6756104236681845E11 ; 0.0
148 ; 4.2240662646243155E7 ; 1.2101472299132047E9 ; 6.409995251579545E9 ; 1.6877113781469165E11 ; 0.0
149 ; 4.220155266808291E7 ; 1.2101988648496199E9 ; 6.452235914225788E9 ; 1.6998128504460486E11 ; 0.0
150 ; 4.215690523458503E7 ; 1.2102503514827945E9 ; 6.494437466893871E9 ; 1.7119148390945447E11 ; 0.0
151 ; 4.212509455215263E7 ; 1.210301688621766E9 ; 6.536594372128456E9 ; 1.7240173426093726E11 ; 0.0
152 ; 4.208564358112813E7 ; 1.2103528750840816E9 ; 6.578719466680609E9 ; 1.7361203594955902E11 ; 0.0
153 ; 4.204051579606614E7 ; 1.2104039096956317E9 ; 6.620805110261737E9 ; 1.748223888246431E11 ; 0.0
154 ; 4.200386826973665E7 ; 1.2104547912904906E9 ; 6.662845626057803E9 ; 1.760327927343387E11 ; 0.0
155 ; 4.1965633596219555E7 ; 1.210505518710764E9 ; 6.704849494327539E9 ; 1.772432475256292E11 ; 0.0
156 ; 4.1921599373829626E7 ; 1.2105560908064437E9 ; 6.746815127923759E9 ; 1.7845375304433997E11 ; 0.0
157 ; 4.1883631311025545E7 ; 1.210606506435268E9 ; 6.788736727297589E9 ; 1.7966430913514642E11 ; 0.0
158 ; 4.184231527989329E7 ; 1.2106567644625883E9 ; 6.830620358608615E9 ; 1.808749156415817E11 ; 0.0
159 ; 4.1805235830241635E7 ; 1.2107068637612433E9 ; 6.872462673888508E9 ; 1.8208557240604428E11 ; 0.0
160 ; 4.175674948161992E7 ; 1.2107568032114348E9 ; 6.914267909718749E9 ; 1.832962792698055E11 ; 0.0
161 ; 4.171909198265159E7 ; 1.2108065817006135E9 ; 6.956024659200369E9 ; 1.8450703607301694E11 ; 0.0
162 ; 4.168009266887566E7 ; 1.2108561981233678E9 ; 6.997743751183021E9 ; 1.8571784265471756E11 ; 0.0
163 ; 4.163599496621352E7 ; 1.2109056513813155E9 ; 7.039423843851896E9 ; 1.8692869885284094E11 ; 0.0
164 ; 4.1594927565782696E7 ; 1.2109549403830035E9 ; 7.0810598388181095E9 ; 1.8813960450422226E11 ; 0.0
165 ; 4.155324269905084E7 ; 1.211004064043811E9 ; 7.122654766383892E9 ; 1.8935055944460526E11 ; 0.0
166 ; 4.151080176444728E7 ; 1.2110530212858543E9 ; 7.164208009082943E9 ; 1.9056156350864908E11 ; 0.0
167 ; 4.1471199723737024E7 ; 1.2111018110379007E9 ; 7.20571881084739E9 ; 1.9177261652993494E11 ; 0.0
168 ; 4.142885176527023E7 ; 1.2111504322352803E9 ; 7.247190010571127E9 ; 1.9298371834097284E11 ; 0.0
169 ; 4.137732196680006E7 ; 1.211198883819807E9 ; 7.288618862336397E9 ; 1.9419486877320813E11 ; 0.0
170 ; 4.134134932020526E7 ; 1.2112471647396994E9 ; 7.329996184303197E9 ; 1.9540606765702792E11 ; 0.0
171 ; 4.129327328301598E7 ; 1.2112952739495072E9 ; 7.371337533623403E9 ; 1.966173148217676E11 ; 0.0
172 ; 4.124941290140982E7 ; 1.2113432104100387E9 ; 7.412630806906419E9 ; 1.978286100957171E11 ; 0.0
173 ; 4.1220717920889035E7 ; 1.2113909730882945E9 ; 7.453880219807829E9 ; 1.9903995330612714E11 ; 0.0
174 ; 4.118934344303948E7 ; 1.2114385609574003E9 ; 7.495100937728718E9 ; 2.0025134427921542E11 ; 0.0
175 ; 4.1159687282795906E7 ; 1.2114859729965467E9 ; 7.536290281171758E9 ; 2.0146278284017282E11 ; 0.0
176 ; 4.113080465741649E7 ; 1.211533208190929E9 ; 7.577449968454554E9 ; 2.0267426881316937E11 ; 0.0
177 ; 4.1110082748838715E7 ; 1.211580265531689E9 ; 7.61858077311197E9 ; 2.038858020213603E11 ; 0.0
178 ; 4.108168586180689E7 ; 1.211627144015863E9 ; 7.659690855860808E9 ; 2.0509738228689197E11 ; 0.0
179 ; 4.1055771238069594E7 ; 1.2116738426463277E9 ; 7.700772541722615E9 ; 2.0630900943090784E11 ; 0.0
180 ; 4.103028932063612E7 ; 1.2117203604317527E9 ; 7.741828312960685E9 ; 2.0752068327355417E11 ; 0.0
181 ; 4.10124466394369E7 ; 1.2117666963865507E9 ; 7.782858602281321E9 ; 2.0873240363398593E11 ; 0.0
182 ; 4.0977228898434244E7 ; 1.2118128495308347E9 ; 7.823871048920757E9 ; 2.0994417033037247E11 ; 0.0
183 ; 4.0957262283933714E7 ; 1.2118588188903728E9 ; 7.864848277819192E9 ; 2.111559831799033E11 ; 0.0
184 ; 4.09294861353866E7 ; 1.2119046034965477E9 ; 7.905805540103126E9 ; 2.1236784199879367E11 ; 0.0
185 ; 4.09091235227046E7 ; 1.2119502023863177E9 ; 7.946735026238512E9 ; 2.1357974660229022E11 ; 0.0
186 ; 4.0882739780550204E7 ; 1.211995614602178E9 ; 7.987644149761217E9 ; 2.1479169680467654E11 ; 0.0
187 ; 4.0857116437094584E7 ; 1.2120408391921272E9 ; 8.028526889541767E9 ; 2.1600369241927872E11 ; 0.0
188 ; 4.08304581454638E7 ; 1.2120858752096295E9 ; 8.069384005978862E9 ; 2.1721573325847086E11 ; 0.0
189 ; 4.079816775644436E7 ; 1.212130721713585E9 ; 8.110214464124326E9 ; 2.1842781913368048E11 ; 0.0
190 ; 4.077985671628327E7 ; 1.2121753777682974E9 ; 8.15101263188077E9 ; 2.1963994985539407E11 ; 0.0
191 ; 4.075219032838856E7 ; 1.2122198424434457E9 ; 8.191792488597053E9 ; 2.2085212523316238E11 ; 0.0
192 ; 4.072488216885948E7 ; 1.2122641148140535E9 ; 8.232544678925441E9 ; 2.2206434507560583E11 ; 0.0
193 ; 4.070075659077144E7 ; 1.2123081939604652E9 ; 8.2732695610943E9 ; 2.232766091904199E11 ; 0.0
194 ; 4.067549517730188E7 ; 1.2123520789683177E9 ; 8.313970317685072E9 ; 2.2448891738438037E11 ; 0.0
195 ; 4.065170765655294E7 ; 1.2123957689285185E9 ; 8.354645812862373E9 ; 2.257012694633487E11 ; 0.0
196 ; 4.062528195428618E7 ; 1.212439262937221E9 ; 8.395297520518927E9 ; 2.2691366523227722E11 ; 0.0
