CSV File for the Network on Day 363
1 - Minute m 
2 - Power Consumed at minute m 
3 - Power Produced at minute m 
4 - Energy Consumed since the beginning of the day 
5 - Energy Produced since the beginning of the day 
6 - Energy Lost since the beginning of the day 
 
0 ; 3.848690438798726E7 ; 6.337999454089973E8 ; 0.0 ; 0.0 ; 0.0
1 ; 3.852770049962994E7 ; 6.347089561545463E8 ; 3.848690438798726E7 ; 6.337999454089973E8 ; 0.0
2 ; 3.856948882095124E7 ; 6.374715091840554E8 ; 7.70146048876172E7 ; 1.2685089015635436E9 ; 0.0
3 ; 3.861488780214463E7 ; 6.42087633376692E8 ; 1.1558409370856844E8 ; 1.9059804107475991E9 ; 0.0
4 ; 3.8670794978248134E7 ; 6.485573548753116E8 ; 1.5419898151071307E8 ; 2.5480680441242914E9 ; 0.0
5 ; 3.874568452401779E7 ; 6.568806968558458E8 ; 1.9286977648896122E8 ; 3.1966253989996033E9 ; 0.0
6 ; 3.883181389261431E7 ; 6.670576793163251E8 ; 2.31615461012979E8 ; 3.853506095855449E9 ; 0.0
7 ; 3.896567202754595E7 ; 6.790883188898575E8 ; 2.7044727490559334E8 ; 4.520563775171774E9 ; 0.0
8 ; 3.914595031154573E7 ; 6.929726286855412E8 ; 3.0941294693313926E8 ; 5.199652094061631E9 ; 0.0
9 ; 3.942853460320929E7 ; 7.087106181608071E8 ; 3.48558897244685E8 ; 5.892624722747172E9 ; 0.0
10 ; 3.986515974404333E7 ; 7.263022930280716E8 ; 3.879874318478943E8 ; 6.60133534090798E9 ; 0.0
11 ; 4.0555750241731375E7 ; 7.457476551978444E8 ; 4.2785259159193766E8 ; 7.327637633936051E9 ; 0.0
12 ; 4.165865317657646E7 ; 7.670467027596154E8 ; 4.6840834183366907E8 ; 8.073385289133896E9 ; 0.0
13 ; 4.272026064103563E7 ; 7.901994300009686E8 ; 5.100669950102455E8 ; 8.84043199189351E9 ; 0.0
14 ; 4.2845738753318384E7 ; 8.152058274644732E8 ; 5.527872556512811E8 ; 9.63063142189448E9 ; 0.0
15 ; 4.289516537082483E7 ; 8.420658820410309E8 ; 5.956329944045995E8 ; 1.0445837249358953E10 ; 0.0
16 ; 4.2948644235681E7 ; 8.707795770975341E8 ; 6.385281597754244E8 ; 1.1287903131399984E10 ; 0.0
17 ; 4.299500183677207E7 ; 9.013468926359513E8 ; 6.814768040111053E8 ; 1.2158682708497519E10 ; 0.0
18 ; 4.3041520772692315E7 ; 9.337678054803517E8 ; 7.244718058478774E8 ; 1.306002960113347E10 ; 0.0
19 ; 4.3092530903008565E7 ; 9.680422894878796E8 ; 7.675133266205697E8 ; 1.3993797406613823E10 ; 0.0
20 ; 4.314656160350174E7 ; 1.0041703157793674E9 ; 8.106058575235783E8 ; 1.4961839696101702E10 ; 0.0
21 ; 4.31922097875444E7 ; 1.042151852985088E9 ; 8.5375241912708E8 ; 1.596601001188107E10 ; 0.0
22 ; 4.3241860719622895E7 ; 1.0819868675011008E9 ; 8.969446289146243E8 ; 1.7008161864866158E10 ; 0.0
23 ; 4.328935688880838E7 ; 1.1236753237517602E9 ; 9.401864896342472E8 ; 1.809014873236726E10 ; 0.0
24 ; 4.334960489379269E7 ; 1.167217184454157E9 ; 9.834758465230556E8 ; 1.921382405611902E10 ; 0.0
25 ; 4.3391443679219365E7 ; 1.2047406562696977E9 ; 1.0268254514168482E9 ; 2.0381041240573177E10 ; 0.0
26 ; 4.344134662789528E7 ; 1.2047669862824788E9 ; 1.0702168950960675E9 ; 2.1585781896842876E10 ; 0.0
27 ; 4.348956879305616E7 ; 1.204794749397179E9 ; 1.1136582417239628E9 ; 2.2790548883125355E10 ; 0.0
28 ; 4.354269010053544E7 ; 1.2048239040570533E9 ; 1.157147810517019E9 ; 2.3995343632522533E10 ; 0.0
29 ; 4.359607002395469E7 ; 1.2048544082275684E9 ; 1.2006905006175544E9 ; 2.5200167536579586E10 ; 0.0
30 ; 4.363387144447613E7 ; 1.2048862196057706E9 ; 1.244286570641509E9 ; 2.6405021944807156E10 ; 0.0
31 ; 4.3681246979055405E7 ; 1.204919295813712E9 ; 1.2879204420859852E9 ; 2.7609908164412926E10 ; 0.0
32 ; 4.372887783133434E7 ; 1.2049535945752227E9 ; 1.3316016890650406E9 ; 2.881482746022664E10 ; 0.0
33 ; 4.377071860312623E7 ; 1.2049890738756983E9 ; 1.375330566896375E9 ; 3.001978105480186E10 ; 0.0
34 ; 4.3816878524224766E7 ; 1.2050256921049027E9 ; 1.4191012854995012E9 ; 3.122477012867756E10 ; 0.0
35 ; 4.38544043389698E7 ; 1.2050634081830869E9 ; 1.462918164023726E9 ; 3.2429795820782463E10 ; 0.0
36 ; 4.38950612386871E7 ; 1.2051021816709456E9 ; 1.5067725683626957E9 ; 3.363485922896555E10 ; 0.0
37 ; 4.393584443725918E7 ; 1.2051419728641245E9 ; 1.5506676296013827E9 ; 3.48399614106365E10 ; 0.0
38 ; 4.39700829516079E7 ; 1.205182742873145E9 ; 1.594603474038642E9 ; 3.6045103383500626E10 ; 0.0
39 ; 4.400852949736854E7 ; 1.2052244536896975E9 ; 1.6385735569902499E9 ; 3.725028612637377E10 ; 0.0
40 ; 4.404248649880061E7 ; 1.2052670682403288E9 ; 1.6825820864876184E9 ; 3.845551058006347E10 ; 0.0
41 ; 4.407286659646651E7 ; 1.2053105504285872E9 ; 1.726624572986419E9 ; 3.9660777648303795E10 ; 0.0
42 ; 4.409638921854174E7 ; 1.2053548651666846E9 ; 1.7706974395828855E9 ; 4.086608819873238E10 ; 0.0
43 ; 4.4131094827594884E7 ; 1.2053999783977306E9 ; 1.8147938288014274E9 ; 4.207144306389907E10 ; 0.0
44 ; 4.4154025599347256E7 ; 1.2054458571095572E9 ; 1.8589249236290224E9 ; 4.32768430422968E10 ; 0.0
45 ; 4.41823024963765E7 ; 1.2054924693411117E9 ; 1.9030789492283697E9 ; 4.448228889940636E10 ; 0.0
46 ; 4.420422260003368E7 ; 1.2055397841823397E9 ; 1.9472612517247462E9 ; 4.568778136874747E10 ; 0.0
47 ; 4.422269241367321E7 ; 1.2055877717684197E9 ; 1.99146547432478E9 ; 4.689332115292981E10 ; 0.0
48 ; 4.425093457757505E7 ; 1.2056364032691476E9 ; 2.0356881667384531E9 ; 4.809890892469823E10 ; 0.0
49 ; 4.425458905444385E7 ; 1.2056856508742013E9 ; 2.079939101316028E9 ; 4.930454532796738E10 ; 0.0
50 ; 4.42763488481702E7 ; 1.2057354877749584E9 ; 2.124193690370472E9 ; 5.0510230978841576E10 ; 0.0
51 ; 4.4289607071838744E7 ; 1.2057858881434588E9 ; 2.168470039218642E9 ; 5.171596646661653E10 ; 0.0
52 ; 4.4294926857954085E7 ; 1.2058368271090608E9 ; 2.212759646290481E9 ; 5.292175235475999E10 ; 0.0
53 ; 4.430972862476329E7 ; 1.2058882807332637E9 ; 2.257054573148435E9 ; 5.412758918186905E10 ; 0.0
54 ; 4.432286342233639E7 ; 1.2059402259831307E9 ; 2.3013643017731986E9 ; 5.533347746260231E10 ; 0.0
55 ; 4.433195421444082E7 ; 1.2059926407036738E9 ; 2.345687165195535E9 ; 5.653941768858544E10 ; 0.0
56 ; 4.434648129708261E7 ; 1.2060455035895371E9 ; 2.390019119409976E9 ; 5.7745410329289116E10 ; 0.0
57 ; 4.435483362624273E7 ; 1.2060987941562552E9 ; 2.4343656007070584E9 ; 5.8951455832878654E10 ; 0.0
58 ; 4.436836287875528E7 ; 1.206152492711328E9 ; 2.478720434333301E9 ; 6.015755462703491E10 ; 0.0
59 ; 4.438268472878671E7 ; 1.206206580325325E9 ; 2.523088797212056E9 ; 6.136370711974624E10 ; 0.0
60 ; 4.438379781520641E7 ; 1.206261038803186E9 ; 2.5674714819408426E9 ; 6.256991370007156E10 ; 0.0
61 ; 4.4396337238512956E7 ; 1.20631585065587E9 ; 2.611855279756049E9 ; 6.377617473887475E10 ; 0.0
62 ; 4.440573521759597E7 ; 1.206370999072476E9 ; 2.656251616994562E9 ; 6.498249058953062E10 ; 0.0
63 ; 4.440836525294654E7 ; 1.2064264678929234E9 ; 2.700657352212158E9 ; 6.6188861588603096E10 ; 0.0
64 ; 4.442108063718109E7 ; 1.2064822415812867E9 ; 2.7450657174651046E9 ; 6.739528805649602E10 ; 0.0
65 ; 4.443021489406534E7 ; 1.206538305199832E9 ; 2.789486798102286E9 ; 6.86017702980773E10 ; 0.0
66 ; 4.443420422955673E7 ; 1.206594644383818E9 ; 2.8339170129963512E9 ; 6.980830860327713E10 ; 0.0
67 ; 4.4439934488897145E7 ; 1.2066512453170779E9 ; 2.878351217225908E9 ; 7.101490324766095E10 ; 0.0
68 ; 4.444765696809469E7 ; 1.2067080947084267E9 ; 2.922791151714805E9 ; 7.222155449297803E10 ; 0.0
69 ; 4.445349159364782E7 ; 1.2067651797688909E9 ; 2.9672388086829E9 ; 7.342826258768645E10 ; 0.0
70 ; 4.445867100616397E7 ; 1.2068224881897764E9 ; 3.011692300276548E9 ; 7.463502776745534E10 ; 0.0
71 ; 4.446623603190975E7 ; 1.206880008121573E9 ; 3.056150971282712E9 ; 7.584185025564511E10 ; 0.0
72 ; 4.446672919953811E7 ; 1.2069377281536868E9 ; 3.100617207314622E9 ; 7.704873026376668E10 ; 0.0
73 ; 4.447490368945071E7 ; 1.2069956372949944E9 ; 3.14508393651416E9 ; 7.825566799192036E10 ; 0.0
74 ; 4.448189008403453E7 ; 1.2070537249552019E9 ; 3.189558840203611E9 ; 7.946266362921536E10 ; 0.0
75 ; 4.4480190830437094E7 ; 1.2071119809269893E9 ; 3.2340407302876453E9 ; 8.066971735417056E10 ; 0.0
76 ; 4.447852718774878E7 ; 1.2071703953689294E9 ; 3.2785209211180825E9 ; 8.187682933509755E10 ; 0.0
77 ; 4.448117747325581E7 ; 1.2072289587891479E9 ; 3.3229994483058314E9 ; 8.308399973046648E10 ; 0.0
78 ; 4.448214377138527E7 ; 1.207287662029713E9 ; 3.367480625779087E9 ; 8.429122868925563E10 ; 0.0
79 ; 4.446346532354994E7 ; 1.20734649625172E9 ; 3.4119627695504723E9 ; 8.549851635128534E10 ; 0.0
80 ; 4.445165994107179E7 ; 1.2074054529210594E9 ; 3.456426234874022E9 ; 8.670586284753706E10 ; 0.0
81 ; 4.443225062999329E7 ; 1.207464523794828E9 ; 3.500877894815094E9 ; 8.791326830045813E10 ; 0.0
82 ; 4.4428912793145895E7 ; 1.2075237009083722E9 ; 3.5453101454450874E9 ; 8.912073282425296E10 ; 0.0
83 ; 4.4420612972112164E7 ; 1.2075829765629315E9 ; 3.5897390582382336E9 ; 9.032825652516133E10 ; 0.0
84 ; 4.440552191454541E7 ; 1.2076423433138564E9 ; 3.6341596712103457E9 ; 9.153583950172426E10 ; 0.0
85 ; 4.439297981402295E7 ; 1.2077017939593797E9 ; 3.6785651931248913E9 ; 9.274348184503812E10 ; 0.0
86 ; 4.437384503457205E7 ; 1.2077613215299191E9 ; 3.7229581729389143E9 ; 9.39511836389975E10 ; 0.0
87 ; 4.4361107118259E7 ; 1.2078209192778802E9 ; 3.7673320179734864E9 ; 9.515894496052742E10 ; 0.0
88 ; 4.434646304151593E7 ; 1.2078805806679466E9 ; 3.8116931250917454E9 ; 9.63667658798053E10 ; 0.0
89 ; 4.4331409354930915E7 ; 1.2079402993678265E9 ; 3.856039588133261E9 ; 9.757464646047325E10 ; 0.0
90 ; 4.431243087733225E7 ; 1.2080000692394423E9 ; 3.900370997488192E9 ; 9.878258675984108E10 ; 0.0
91 ; 4.4297685897875816E7 ; 1.2080598843305378E9 ; 3.9446834283655243E9 ; 9.999058682908052E10 ; 0.0
92 ; 4.4278058622477345E7 ; 1.208119738866683E9 ; 3.9889811142634E9 ; 1.0119864671341106E11 ; 0.0
93 ; 4.426101042618789E7 ; 1.2081796272436612E9 ; 4.0332591728858776E9 ; 1.0240676645227774E11 ; 0.0
94 ; 4.424145038634553E7 ; 1.2082395440202167E9 ; 4.0775201833120656E9 ; 1.0361494607952141E11 ; 0.0
95 ; 4.422498128551029E7 ; 1.208299483911148E9 ; 4.121761633698411E9 ; 1.0482318562354163E11 ; 0.0
96 ; 4.420909724009103E7 ; 1.208359441780728E9 ; 4.165986614983921E9 ; 1.0603148510745277E11 ; 0.0
97 ; 4.419126988717066E7 ; 1.2084194126364357E9 ; 4.210195712224012E9 ; 1.072398445492335E11 ; 0.0
98 ; 4.417064745084145E7 ; 1.2084793916229854E9 ; 4.2543869821111827E9 ; 1.0844826396186993E11 ; 0.0
99 ; 4.415652125421287E7 ; 1.2085393740166376E9 ; 4.298557629562024E9 ; 1.0965674335349292E11 ; 0.0
100 ; 4.413653199408521E7 ; 1.2085993552197764E9 ; 4.342714150816237E9 ; 1.1086528272750955E11 ; 0.0
101 ; 4.41160304528954E7 ; 1.208659330755744E9 ; 4.386850682810323E9 ; 1.1207388208272932E11 ; 0.0
102 ; 4.40962188699686E7 ; 1.2087192962639177E9 ; 4.430966713263218E9 ; 1.1328254141348506E11 ; 0.0
103 ; 4.407089951710745E7 ; 1.208779247495013E9 ; 4.475062932133186E9 ; 1.1449126070974898E11 ; 0.0
104 ; 4.405142351801463E7 ; 1.208839180306611E9 ; 4.519133831650293E9 ; 1.1570003995724399E11 ; 0.0
105 ; 4.403065085320048E7 ; 1.2088990906588905E9 ; 4.563185255168308E9 ; 1.169088791375506E11 ; 0.0
106 ; 4.400516276791449E7 ; 1.2089589746105585E9 ; 4.607215906021509E9 ; 1.1811777822820949E11 ; 0.0
107 ; 4.3980966208974764E7 ; 1.2090188283149688E9 ; 4.651221068789424E9 ; 1.1932673720282005E11 ; 0.0
108 ; 4.39625647748602E7 ; 1.20907864801642E9 ; 4.695202034998399E9 ; 1.2053575603113503E11 ; 0.0
109 ; 4.393957492882323E7 ; 1.2091384300466216E9 ; 4.739164599773259E9 ; 1.2174483467915144E11 ; 0.0
110 ; 4.391282945743471E7 ; 1.2091981708213227E9 ; 4.783104174702083E9 ; 1.2295397310919806E11 ; 0.0
111 ; 4.3888601176399454E7 ; 1.2092578668370943E9 ; 4.827017004159517E9 ; 1.2416317128001938E11 ; 0.0
112 ; 4.386105763875485E7 ; 1.209317514668258E9 ; 4.8709056053359165E9 ; 1.2537242914685648E11 ; 0.0
113 ; 4.383789545035522E7 ; 1.2093771109639506E9 ; 4.914766662974671E9 ; 1.2658174666152473E11 ; 0.0
114 ; 4.381089966910426E7 ; 1.2094366524453244E9 ; 4.958604558425027E9 ; 1.2779112377248868E11 ; 0.0
115 ; 4.379425043140207E7 ; 1.209496135902872E9 ; 5.002415458094131E9 ; 1.29000560424934E11 ; 0.0
116 ; 4.376283735604731E7 ; 1.209555558193868E9 ; 5.046209708525534E9 ; 1.3021005656083688E11 ; 0.0
117 ; 4.373414586316471E7 ; 1.2096149162399275E9 ; 5.089972545881581E9 ; 1.3141961211903075E11 ; 0.0
118 ; 4.371062192743887E7 ; 1.209674207024672E9 ; 5.133706691744746E9 ; 1.3262922703527068E11 ; 0.0
119 ; 4.367343975211246E7 ; 1.2097334275914965E9 ; 5.177417313672185E9 ; 1.3383890124229535E11 ; 0.0
120 ; 4.36519931202676E7 ; 1.2097925750414362E9 ; 5.221090753424297E9 ; 1.3504863466988684E11 ; 0.0
121 ; 4.361823612592888E7 ; 1.2098516465311265E9 ; 5.264742746544565E9 ; 1.3625842724492828E11 ; 0.0
122 ; 4.359159177443294E7 ; 1.20991063927085E9 ; 5.308360982670494E9 ; 1.374682788914594E11 ; 0.0
123 ; 4.355893942467355E7 ; 1.2099695505226707E9 ; 5.351952574444927E9 ; 1.3867818953073026E11 ; 0.0
124 ; 4.352776019418222E7 ; 1.2100283775986469E9 ; 5.3955115138696E9 ; 1.3988815908125293E11 ; 0.0
125 ; 4.349489734477778E7 ; 1.2100871178591197E9 ; 5.439039274063783E9 ; 1.4109818745885156E11 ; 0.0
126 ; 4.3476143531679705E7 ; 1.2101457687110786E9 ; 5.482534171408561E9 ; 1.423082745767107E11 ; 0.0
127 ; 4.343471768070081E7 ; 1.210204327606593E9 ; 5.526010314940241E9 ; 1.4351842034542178E11 ; 0.0
128 ; 4.3406690293569714E7 ; 1.2102627920413103E9 ; 5.569445032620942E9 ; 1.4472862467302838E11 ; 0.0
129 ; 4.337575800326531E7 ; 1.210321159553021E9 ; 5.612851722914512E9 ; 1.459388874650697E11 ; 0.0
130 ; 4.333310591262902E7 ; 1.210379427720279E9 ; 5.656227480917777E9 ; 1.471492086246227E11 ; 0.0
131 ; 4.328790022560522E7 ; 1.2104375941610837E9 ; 5.699560586830406E9 ; 1.48359588052343E11 ; 0.0
132 ; 4.324428111624996E7 ; 1.2104956565316153E9 ; 5.742848487056011E9 ; 1.4957002564650406E11 ; 0.0
133 ; 4.320348024258101E7 ; 1.2105536125250204E9 ; 5.786092768172261E9 ; 1.5078052130303568E11 ; 0.0
134 ; 4.315188447153365E7 ; 1.2106114598702533E9 ; 5.829296248414843E9 ; 1.519910749155607E11 ; 0.0
135 ; 4.310383551774882E7 ; 1.2106691963309584E9 ; 5.872448132886376E9 ; 1.5320168637543094E11 ; 0.0
136 ; 4.305924588287261E7 ; 1.2107268197044032E9 ; 5.915551968404125E9 ; 1.544123555717619E11 ; 0.0
137 ; 4.301051644390965E7 ; 1.2107843278204517E9 ; 5.958611214286998E9 ; 1.556230823914663E11 ; 0.0
138 ; 4.2963718635208964E7 ; 1.210841718540582E9 ; 6.001621730730907E9 ; 1.5683386671928677E11 ; 0.0
139 ; 4.291078027625126E7 ; 1.21089898975694E9 ; 6.044585449366117E9 ; 1.5804470843782736E11 ; 0.0
140 ; 4.286190976597574E7 ; 1.2109561393914351E9 ; 6.087496229642367E9 ; 1.592556074275843E11 ; 0.0
141 ; 4.280752071217906E7 ; 1.2110131653948703E9 ; 6.130358139408343E9 ; 1.6046656356697574E11 ; 0.0
142 ; 4.275846785519307E7 ; 1.2110700657461054E9 ; 6.1731656601205225E9 ; 1.616775767323706E11 ; 0.0
143 ; 4.271441508594284E7 ; 1.211126838451256E9 ; 6.215924127975716E9 ; 1.628886467981167E11 ; 0.0
144 ; 4.2665169185613714E7 ; 1.2111834815429227E9 ; 6.258638543061659E9 ; 1.6409977363656796E11 ; 0.0
145 ; 4.263250505984227E7 ; 1.211239993079451E9 ; 6.3013037122472725E9 ; 1.6531095711811087E11 ; 0.0
146 ; 4.258582829010064E7 ; 1.2112963711442204E9 ; 6.343936217307115E9 ; 1.665221971111903E11 ; 0.0
147 ; 4.255518105194451E7 ; 1.2113526138449607E9 ; 6.386522045597216E9 ; 1.6773349348233453E11 ; 0.0
148 ; 4.252425382045143E7 ; 1.2114087193130946E9 ; 6.42907722664916E9 ; 1.689448460961795E11 ; 0.0
149 ; 4.249093712265257E7 ; 1.2114646857031074E9 ; 6.471601480469612E9 ; 1.7015625481549258E11 ; 0.0
150 ; 4.245115467038113E7 ; 1.2115205111919396E9 ; 6.514092417592265E9 ; 1.7136771950119568E11 ; 0.0
151 ; 4.2414932987506784E7 ; 1.2115761939784012E9 ; 6.556543572262647E9 ; 1.725792400123876E11 ; 0.0
152 ; 4.238278304512726E7 ; 1.2116317322826138E9 ; 6.598958505250154E9 ; 1.73790816206366E11 ; 0.0
153 ; 4.23473201751352E7 ; 1.2116871243454661E9 ; 6.64134128829528E9 ; 1.7500244793864862E11 ; 0.0
154 ; 4.231011434680278E7 ; 1.211742368428099E9 ; 6.683688608470416E9 ; 1.7621413506299408E11 ; 0.0
155 ; 4.227225968560853E7 ; 1.2117974628114007E9 ; 6.725998722817219E9 ; 1.7742587743142218E11 ; 0.0
156 ; 4.2240401643682614E7 ; 1.2118524057955294E9 ; 6.768270982502828E9 ; 1.7863767489423358E11 ; 0.0
157 ; 4.2202324363619305E7 ; 1.2119071956994483E9 ; 6.81051138414651E9 ; 1.798495273000291E11 ; 0.0
158 ; 4.216397989580486E7 ; 1.2119618308604796E9 ; 6.852713708510129E9 ; 1.8106143449572858E11 ; 0.0
159 ; 4.212860065053515E7 ; 1.2120163096338763E9 ; 6.894877688405933E9 ; 1.8227339632658905E11 ; 0.0
160 ; 4.2087285683484316E7 ; 1.2120706303924074E9 ; 6.937006289056469E9 ; 1.8348541263622293E11 ; 0.0
161 ; 4.205744735342E7 ; 1.2121247915259619E9 ; 6.979093574739953E9 ; 1.8469748326661533E11 ; 0.0
162 ; 4.202432120157012E7 ; 1.2121787914411623E9 ; 7.021151022093373E9 ; 1.859096080581413E11 ; 0.0
163 ; 4.1982076515669115E7 ; 1.212232628560999E9 ; 7.063175343294944E9 ; 1.8712178684958246E11 ; 0.0
164 ; 4.194370207196164E7 ; 1.2122863013244705E9 ; 7.105157419810613E9 ; 1.8833401947814346E11 ; 0.0
165 ; 4.1907319066872425E7 ; 1.2123398081862442E9 ; 7.147101121882574E9 ; 1.8954630577946793E11 ; 0.0
166 ; 4.186459420534519E7 ; 1.2123931476163232E9 ; 7.189008440949447E9 ; 1.9075864558765417E11 ; 0.0
167 ; 4.182707333962585E7 ; 1.212446318099729E9 ; 7.230873035154792E9 ; 1.919710387352705E11 ; 0.0
168 ; 4.1792390897256754E7 ; 1.2124993181361947E9 ; 7.272700108494418E9 ; 1.9318348505337024E11 ; 0.0
169 ; 4.1750107017052054E7 ; 1.2125521462398682E9 ; 7.314492499391675E9 ; 1.9439598437150644E11 ; 0.0
170 ; 4.1718438749880806E7 ; 1.2126048009390278E9 ; 7.356242606408727E9 ; 1.956085365177463E11 ; 0.0
171 ; 4.167531583403836E7 ; 1.212657280775806E9 ; 7.3979610451586075E9 ; 1.9682114131868533E11 ; 0.0
172 ; 4.163666132901077E7 ; 1.2127095843059251E9 ; 7.439636360992646E9 ; 1.9803379859946115E11 ; 0.0
173 ; 4.159955817084833E7 ; 1.2127617100984414E9 ; 7.481273022321657E9 ; 1.992465081837671E11 ; 0.0
174 ; 4.1576437662686355E7 ; 1.212813656735497E9 ; 7.522872580492505E9 ; 2.0045926989386554E11 ; 0.0
175 ; 4.154814519040696E7 ; 1.2128654228120835E9 ; 7.564449018155191E9 ; 2.0167208355060104E11 ; 0.0
176 ; 4.1525106991714954E7 ; 1.2129170069358106E9 ; 7.605997163345598E9 ; 2.0288494897341312E11 ; 0.0
177 ; 4.150659614643299E7 ; 1.2129684077266855E9 ; 7.647522270337313E9 ; 2.0409786598034894E11 ; 0.0
178 ; 4.147912634046946E7 ; 1.213019623816898E9 ; 7.689028866483746E9 ; 2.0531083438807562E11 ; 0.0
179 ; 4.1458500090211645E7 ; 1.2130706538506165E9 ; 7.730507992824215E9 ; 2.0652385401189252E11 ; 0.0
180 ; 4.143031799180638E7 ; 1.2131214964837852E9 ; 7.771966492914427E9 ; 2.0773692466574313E11 ; 0.0
181 ; 4.1410578670349166E7 ; 1.2131721503839345E9 ; 7.813396810906233E9 ; 2.0895004616222693E11 ; 0.0
182 ; 4.138199048200345E7 ; 1.2132226142299943E9 ; 7.854807389576582E9 ; 2.1016321831261087E11 ; 0.0
183 ; 4.1358270998824455E7 ; 1.2132728867121153E9 ; 7.896189380058585E9 ; 2.1137644092684085E11 ; 0.0
184 ; 4.133308928605013E7 ; 1.213322966531495E9 ; 7.937547651057409E9 ; 2.1258971381355298E11 ; 0.0
185 ; 4.1316547651044145E7 ; 1.2133728524002125E9 ; 7.978880740343459E9 ; 2.1380303678008447E11 ; 0.0
186 ; 4.128584112413279E7 ; 1.2134225430410652E9 ; 8.020197287994503E9 ; 2.1501640963248468E11 ; 0.0
187 ; 4.1261739645863004E7 ; 1.213472037187414E9 ; 8.061483129118636E9 ; 2.1622983217552576E11 ; 0.0
188 ; 4.123676840024407E7 ; 1.2135213335830336E9 ; 8.102744868764499E9 ; 2.1744330421271317E11 ; 0.0
189 ; 4.121818671288188E7 ; 1.213570430981965E9 ; 8.143981637164742E9 ; 2.186568255462962E11 ; 0.0
190 ; 4.11948221504609E7 ; 1.2136193281483781E9 ; 8.1851998238776245E9 ; 2.1987039597727817E11 ; 0.0
191 ; 4.116779116966849E7 ; 1.213668023856434E9 ; 8.226394646028086E9 ; 2.2108401530542654E11 ; 0.0
192 ; 4.114413067078534E7 ; 1.2137165168901548E9 ; 8.267562437197754E9 ; 2.22297683329283E11 ; 0.0
193 ; 4.11252918700826E7 ; 1.2137648060432968E9 ; 8.308706567868539E9 ; 2.2351139984617316E11 ; 0.0
194 ; 4.109198926535196E7 ; 1.2138128901192296E9 ; 8.349831859738622E9 ; 2.2472516465221646E11 ; 0.0
195 ; 4.107707359447929E7 ; 1.2138607679308155E9 ; 8.390923849003974E9 ; 2.259389775423357E11 ; 0.0
196 ; 4.105049212328518E7 ; 1.2139084383002987E9 ; 8.4320009225984535E9 ; 2.271528383102665E11 ; 0.0
197 ; 4.1034582072541E7 ; 1.213955900059192E9 ; 8.473051414721739E9 ; 2.283667467485668E11 ; 0.0
