CSV File for the Network on Day 74
1 - Minute m 
2 - Power Consumed at minute m 
3 - Power Produced at minute m 
4 - Energy Consumed since the beginning of the day 
5 - Energy Produced since the beginning of the day 
6 - Energy Lost since the beginning of the day 
 
0 ; 3.85078312373395E7 ; 6.346357725527174E8 ; 0.0 ; 0.0 ; 0.0
1 ; 3.853863043324825E7 ; 6.355462768869332E8 ; 3.85078312373395E7 ; 6.346357725527174E8 ; 0.0
2 ; 3.859055553226431E7 ; 6.383101978201346E8 ; 7.704646167058775E7 ; 1.2701820494396505E9 ; 0.0
3 ; 3.863279541785636E7 ; 6.429275543515239E8 ; 1.1563701720285206E8 ; 1.9084922472597852E9 ; 0.0
4 ; 3.869320416140257E7 ; 6.493983635485938E8 ; 1.542698126207084E8 ; 2.551419801611309E9 ; 0.0
5 ; 3.876490990669221E7 ; 6.577226404388772E8 ; 1.92963016782111E8 ; 3.2008181651599026E9 ; 0.0
6 ; 3.885196465093927E7 ; 6.679003979125258E8 ; 2.317279266888032E8 ; 3.8585408055987797E9 ; 0.0
7 ; 3.8985876240464956E7 ; 6.799316466371647E8 ; 2.705798913397425E8 ; 4.526441203511306E9 ; 0.0
8 ; 3.916804411879681E7 ; 6.938163949863144E8 ; 3.0956576758020747E8 ; 5.206372850148471E9 ; 0.0
9 ; 3.944552838238247E7 ; 7.095546489825009E8 ; 3.487338116990043E8 ; 5.900189245134786E9 ; 0.0
10 ; 3.987342675842264E7 ; 7.271464122559508E8 ; 3.8817934008138674E8 ; 6.609743894117287E9 ; 0.0
11 ; 4.056931773881969E7 ; 7.46591686019538E8 ; 4.280527668398094E8 ; 7.336890306373238E9 ; 0.0
12 ; 4.16774453297596E7 ; 7.678904690603886E8 ; 4.6862208457862914E8 ; 8.083481992392776E9 ; 0.0
13 ; 4.2739378594825104E7 ; 7.910427577482758E8 ; 5.1029952990838873E8 ; 8.851372461453163E9 ; 0.0
14 ; 4.286586111900757E7 ; 8.160485460606742E8 ; 5.530389085032139E8 ; 9.642415219201439E9 ; 0.0
15 ; 4.291636290093881E7 ; 8.429078256240623E8 ; 5.959047696222215E8 ; 1.0458463765262114E10 ; 0.0
16 ; 4.296002116952856E7 ; 8.716205857708161E8 ; 6.388211325231602E8 ; 1.1301371590886175E10 ; 0.0
17 ; 4.300901855700202E7 ; 9.021868136107831E8 ; 6.817811536926888E8 ; 1.2172992176656992E10 ; 0.0
18 ; 4.3063557815297134E7 ; 9.346064941164309E8 ; 7.247901722496909E8 ; 1.3075178990267775E10 ; 0.0
19 ; 4.3111768003382474E7 ; 9.688796102202666E8 ; 7.67853730064988E8 ; 1.4009785484384205E10 ; 0.0
20 ; 4.316610486046045E7 ; 1.0050061429230876E9 ; 8.109654980683705E8 ; 1.4978665094604471E10 ; 0.0
21 ; 4.321252790079273E7 ; 1.0429860714115057E9 ; 8.541316029288309E8 ; 1.598367123752756E10 ; 0.0
22 ; 4.326212579079153E7 ; 1.0828193731831193E9 ; 8.973441308296236E8 ; 1.7026657308939064E10 ; 0.0
23 ; 4.331893260512012E7 ; 1.1245060241776776E9 ; 9.406062566204151E8 ; 1.8109476682122185E10 ; 0.0
24 ; 4.3365974116738774E7 ; 1.1680459989125712E9 ; 9.839251892255352E8 ; 1.9233982706299862E10 ; 0.0
25 ; 4.340769774835366E7 ; 1.2055675160101442E9 ; 1.027291163342274E9 ; 2.0402028705212433E10 ; 0.0
26 ; 4.346192679571975E7 ; 1.2055918345584307E9 ; 1.0706988610906277E9 ; 2.1607596221222576E10 ; 0.0
27 ; 4.35106144747823E7 ; 1.205617541399641E9 ; 1.1141607878863475E9 ; 2.2813188055781006E10 ; 0.0
28 ; 4.356390205000412E7 ; 1.2056446067482119E9 ; 1.1576714023611298E9 ; 2.401880559718065E10 ; 0.0
29 ; 4.3609066754935056E7 ; 1.2056730000848289E9 ; 1.2012353044111338E9 ; 2.522445020392886E10 ; 0.0
30 ; 4.365958064178002E7 ; 1.2057026902870388E9 ; 1.2448443711660688E9 ; 2.6430123204013687E10 ; 0.0
31 ; 4.370321888195637E7 ; 1.205733645754992E9 ; 1.288503951807849E9 ; 2.7635825894300728E10 ; 0.0
32 ; 4.374927146172305E7 ; 1.205765834531536E9 ; 1.3322071706898053E9 ; 2.884155954005572E10 ; 0.0
33 ; 4.378892323953574E7 ; 1.2057992244160373E9 ; 1.3759564421515284E9 ; 3.0047325374587257E10 ; 0.0
34 ; 4.3828711696830116E7 ; 1.2058337830714326E9 ; 1.4197453653910642E9 ; 3.1253124599003296E10 ; 0.0
35 ; 4.387448726424142E7 ; 1.2058694781241693E9 ; 1.4635740770878942E9 ; 3.245895838207473E10 ; 0.0
36 ; 4.392030067198315E7 ; 1.2059062772568045E9 ; 1.5074485643521357E9 ; 3.36648278601989E10 ; 0.0
37 ; 4.3949543440506995E7 ; 1.2059441482931528E9 ; 1.551368865024119E9 ; 3.48707341374557E10 ; 0.0
38 ; 4.39914703482171E7 ; 1.2059830592759755E9 ; 1.5953184084646258E9 ; 3.6076678285748856E10 ; 0.0
39 ; 4.402095630249314E7 ; 1.2060229785372925E9 ; 1.6393098788128428E9 ; 3.728266134502483E10 ; 0.0
40 ; 4.4060647276500426E7 ; 1.2060638747614772E9 ; 1.683330835115336E9 ; 3.8488684323562126E10 ; 0.0
41 ; 4.409455051286714E7 ; 1.206105717041354E9 ; 1.7273914823918364E9 ; 3.96947481983236E10 ; 0.0
42 ; 4.412225823571362E7 ; 1.2061484749275775E9 ; 1.7714860329047036E9 ; 4.090085391536495E10 ; 0.0
43 ; 4.415088389496413E7 ; 1.206192118471611E9 ; 1.8156082911404173E9 ; 4.210700239029253E10 ; 0.0
44 ; 4.4177942785876654E7 ; 1.2062366182626455E9 ; 1.8597591750353816E9 ; 4.331319450876414E10 ; 0.0
45 ; 4.420233110135933E7 ; 1.206281945458837E9 ; 1.9039371178212583E9 ; 4.451943112702678E10 ; 0.0
46 ; 4.422626125964814E7 ; 1.2063280718132386E9 ; 1.9481394489226177E9 ; 4.572571307248562E10 ; 0.0
47 ; 4.424058270038919E7 ; 1.2063749696948195E9 ; 1.9923657101822658E9 ; 4.693204114429886E10 ; 0.0
48 ; 4.426630433960271E7 ; 1.2064226121049576E9 ; 2.036606292882655E9 ; 4.8138416113993675E10 ; 0.0
49 ; 4.4282062730851345E7 ; 1.2064709726897888E9 ; 2.0808725972222576E9 ; 4.934483872609863E10 ; 0.0
50 ; 4.429390510406022E7 ; 1.206520025748789E9 ; 2.125154659953109E9 ; 5.055130969878842E10 ; 0.0
51 ; 4.430331396260657E7 ; 1.206569746239949E9 ; 2.1694485650571694E9 ; 5.175782972453721E10 ; 0.0
52 ; 4.431973279604414E7 ; 1.2066201097818863E9 ; 2.213751879019776E9 ; 5.296439947077716E10 ; 0.0
53 ; 4.4338118582802586E7 ; 1.2066710926532233E9 ; 2.25807161181582E9 ; 5.4171019580559044E10 ; 0.0
54 ; 4.434521876486883E7 ; 1.2067226717895417E9 ; 2.302409730398623E9 ; 5.5377690673212265E10 ; 0.0
55 ; 4.436039028372724E7 ; 1.2067748247782001E9 ; 2.3467549491634917E9 ; 5.658441334500181E10 ; 0.0
56 ; 4.436799430992772E7 ; 1.2068275298512902E9 ; 2.391115339447219E9 ; 5.779118816978001E10 ; 0.0
57 ; 4.4373073703106664E7 ; 1.2068807658769717E9 ; 2.435483333757147E9 ; 5.8998015699631294E10 ; 0.0
58 ; 4.4389273466306925E7 ; 1.2069345123494267E9 ; 2.4798564074602537E9 ; 6.020489646550826E10 ; 0.0
59 ; 4.4404214916500464E7 ; 1.2069887493776348E9 ; 2.5242456809265604E9 ; 6.141183097785769E10 ; 0.0
60 ; 4.440644930160152E7 ; 1.2070434576731663E9 ; 2.568649895843061E9 ; 6.261881972723532E10 ; 0.0
61 ; 4.4418873663039505E7 ; 1.2070986185371654E9 ; 2.6130563451446624E9 ; 6.3825863184908485E10 ; 0.0
62 ; 4.4419544031565055E7 ; 1.20715421384668E9 ; 2.657475218807702E9 ; 6.503296180344565E10 ; 0.0
63 ; 4.4439671841788016E7 ; 1.207210226040482E9 ; 2.7018947628392673E9 ; 6.624011601729233E10 ; 0.0
64 ; 4.4443835350191996E7 ; 1.2072666381045003E9 ; 2.746334434681055E9 ; 6.744732624333281E10 ; 0.0
65 ; 4.445638954023993E7 ; 1.207323433556982E9 ; 2.790778270031247E9 ; 6.865459288143731E10 ; 0.0
66 ; 4.445477251601684E7 ; 1.207380596433482E9 ; 2.835234659571487E9 ; 6.98619163149943E10 ; 0.0
67 ; 4.446376866703321E7 ; 1.2074381112717626E9 ; 2.879689432087504E9 ; 7.106929691142778E10 ; 0.0
68 ; 4.4475811855516866E7 ; 1.207495963096691E9 ; 2.924153200754537E9 ; 7.227673502269954E10 ; 0.0
69 ; 4.447980788752E7 ; 1.2075541374051895E9 ; 2.968629012610054E9 ; 7.348423098579623E10 ; 0.0
70 ; 4.4481105531347305E7 ; 1.2076126201513054E9 ; 3.013108820497574E9 ; 7.469178512320142E10 ; 0.0
71 ; 4.449438371239894E7 ; 1.2076713977314456E9 ; 3.057589926028921E9 ; 7.589939774335272E10 ; 0.0
72 ; 4.449000607718918E7 ; 1.2077304569698195E9 ; 3.10208430974132E9 ; 7.710706914108417E10 ; 0.0
73 ; 4.449511647357937E7 ; 1.2077897851041288E9 ; 3.146574315818509E9 ; 7.831479959805399E10 ; 0.0
74 ; 4.450023549713395E7 ; 1.2078493697715254E9 ; 3.1910694322920885E9 ; 7.952258938315811E10 ; 0.0
75 ; 4.4505793790129796E7 ; 1.2079091989948752E9 ; 3.2355696677892222E9 ; 8.073043875292964E10 ; 0.0
76 ; 4.450523011196491E7 ; 1.207969261169335E9 ; 3.280075461579352E9 ; 8.193834795192451E10 ; 0.0
77 ; 4.451452177666688E7 ; 1.2080295450492635E9 ; 3.3245806916913166E9 ; 8.314631721309386E10 ; 0.0
78 ; 4.449473363416022E7 ; 1.208090039735482E9 ; 3.3690952134679832E9 ; 8.435434675814313E10 ; 0.0
79 ; 4.448522061661362E7 ; 1.2081507346628833E9 ; 3.4135899471021433E9 ; 8.556243679787862E10 ; 0.0
80 ; 4.447619465570238E7 ; 1.208211619588404E9 ; 3.4580751677187567E9 ; 8.67705875325415E10 ; 0.0
81 ; 4.4464114427805215E7 ; 1.2082726845793617E9 ; 3.5025513623744593E9 ; 8.797879915212991E10 ; 0.0
82 ; 4.4452409600211166E7 ; 1.208333920002151E9 ; 3.5470154768022647E9 ; 8.918707183670927E10 ; 0.0
83 ; 4.443490196072599E7 ; 1.208395316511307E9 ; 3.591467886402476E9 ; 9.039540575671143E10 ; 0.0
84 ; 4.442871777201734E7 ; 1.2084568650389297E9 ; 3.6359027883632016E9 ; 9.160380107322273E10 ; 0.0
85 ; 4.441597450444783E7 ; 1.2085185567844625E9 ; 3.680331506135219E9 ; 9.281225793826166E10 ; 0.0
86 ; 4.440118581615226E7 ; 1.2085803832048252E9 ; 3.724747480639667E9 ; 9.402077649504613E10 ; 0.0
87 ; 4.438517035520452E7 ; 1.2086423360048943E9 ; 3.769148666455819E9 ; 9.522935687825095E10 ; 0.0
88 ; 4.4368839305673346E7 ; 1.2087044071283188E9 ; 3.8135338368110237E9 ; 9.643799921425584E10 ; 0.0
89 ; 4.43608148227682E7 ; 1.208766588748674E9 ; 3.857902676116697E9 ; 9.764670362138416E10 ; 0.0
90 ; 4.433699273852712E7 ; 1.2088288732609336E9 ; 3.902263490939465E9 ; 9.885547021013283E10 ; 0.0
91 ; 4.4321399489334986E7 ; 1.208891253273263E9 ; 3.9466004836779923E9 ; 1.0006429908339377E11 ; 0.0
92 ; 4.430952807971031E7 ; 1.2089537215991163E9 ; 3.9909218831673274E9 ; 1.0127319033666704E11 ; 0.0
93 ; 4.429270619904696E7 ; 1.2090162712496347E9 ; 4.035231411247038E9 ; 1.0248214405826616E11 ; 0.0
94 ; 4.4274363606257156E7 ; 1.2090788954263332E9 ; 4.079524117446085E9 ; 1.036911603295158E11 ; 0.0
95 ; 4.4260843245778225E7 ; 1.2091415875140676E9 ; 4.123798481052342E9 ; 1.0490023922494212E11 ; 0.0
96 ; 4.423908456222706E7 ; 1.209204341074275E9 ; 4.16805932429812E9 ; 1.0610938081245619E11 ; 0.0
97 ; 4.422222503513567E7 ; 1.2092671498384743E9 ; 4.2122984088603473E9 ; 1.0731858515353047E11 ; 0.0
98 ; 4.420379052727792E7 ; 1.209330007702023E9 ; 4.256520633895483E9 ; 1.0852785230336894E11 ; 0.0
99 ; 4.419233176350592E7 ; 1.2093929087181168E9 ; 4.300724424422761E9 ; 1.0973718231107097E11 ; 0.0
100 ; 4.416862730899155E7 ; 1.209455847092026E9 ; 4.344916756186267E9 ; 1.109465752197891E11 ; 0.0
101 ; 4.415069151861258E7 ; 1.2095188171755595E9 ; 4.389085383495258E9 ; 1.1215603106688112E11 ; 0.0
102 ; 4.412483616430478E7 ; 1.2095818134617476E9 ; 4.433236075013871E9 ; 1.1336554988405667E11 ; 0.0
103 ; 4.410187787625039E7 ; 1.2096448305797362E9 ; 4.477360911178176E9 ; 1.1457513169751842E11 ; 0.0
104 ; 4.4085642162061624E7 ; 1.2097078632898822E9 ; 4.521462789054426E9 ; 1.1578477652809816E11 ; 0.0
105 ; 4.405391124645287E7 ; 1.2097709064790459E9 ; 4.565548431216488E9 ; 1.1699448439138805E11 ; 0.0
106 ; 4.404271716623035E7 ; 1.2098339551560705E9 ; 4.609602342462941E9 ; 1.182042552978671E11 ; 0.0
107 ; 4.40180006808828E7 ; 1.2098970044474406E9 ; 4.653645059629171E9 ; 1.1941408925302316E11 ; 0.0
108 ; 4.399325521466056E7 ; 1.209960049593116E9 ; 4.697663060310054E9 ; 1.206239862574706E11 ; 0.0
109 ; 4.397546585228611E7 ; 1.210023085942528E9 ; 4.741656315524714E9 ; 1.218339463070637E11 ; 0.0
110 ; 4.394868473462291E7 ; 1.2100861089507394E9 ; 4.785631781377001E9 ; 1.2304396939300624E11 ; 0.0
111 ; 4.392729079380194E7 ; 1.2101491141747541E9 ; 4.829580466111624E9 ; 1.2425405550195699E11 ; 0.0
112 ; 4.3897044068086386E7 ; 1.2102120972699769E9 ; 4.873507756905426E9 ; 1.2546420461613174E11 ; 0.0
113 ; 4.387197557122137E7 ; 1.2102750539868107E9 ; 4.917404800973513E9 ; 1.2667441671340172E11 ; 0.0
114 ; 4.384881900377642E7 ; 1.210337980167391E9 ; 4.961276776544734E9 ; 1.2788469176738853E11 ; 0.0
115 ; 4.382645423612705E7 ; 1.2104008717424512E9 ; 5.005125595548511E9 ; 1.2909502974755592E11 ; 0.0
116 ; 4.3801539487828925E7 ; 1.2104637247283077E9 ; 5.048952049784637E9 ; 1.3030543061929837E11 ; 0.0
117 ; 4.3767165581030205E7 ; 1.2105265352239707E9 ; 5.092753589272467E9 ; 1.3151589434402667E11 ; 0.0
118 ; 4.374552228296228E7 ; 1.2105892994083624E9 ; 5.136520754853497E9 ; 1.3272642087925064E11 ; 0.0
119 ; 4.3714994831082426E7 ; 1.2106520135376508E9 ; 5.180266277136458E9 ; 1.33937010178659E11 ; 0.0
120 ; 4.369090820739664E7 ; 1.2107146739426842E9 ; 5.223981271967541E9 ; 1.3514766219219664E11 ; 0.0
121 ; 4.365596642867626E7 ; 1.210777277026529E9 ; 5.267672180174937E9 ; 1.3635837686613933E11 ; 0.0
122 ; 4.3628425629029304E7 ; 1.2108398192621021E9 ; 5.311328146603614E9 ; 1.3756915414316586E11 ; 0.0
123 ; 4.3602986488717064E7 ; 1.210902297189899E9 ; 5.354956572232643E9 ; 1.3877999396242798E11 ; 0.0
124 ; 4.356940633411897E7 ; 1.2109647074158053E9 ; 5.39855955872136E9 ; 1.399908962596179E11 ; 0.0
125 ; 4.3545569889179416E7 ; 1.2110270466089985E9 ; 5.442128965055479E9 ; 1.412018609670337E11 ; 0.0
126 ; 4.352318070162955E7 ; 1.211089311499929E9 ; 5.485674534944658E9 ; 1.424128880136427E11 ; 0.0
127 ; 4.348459483017524E7 ; 1.2111514988783782E9 ; 5.529197715646288E9 ; 1.4362397732514264E11 ; 0.0
128 ; 4.345242057830089E7 ; 1.2112136055915942E9 ; 5.572682310476463E9 ; 1.4483512882402103E11 ; 0.0
129 ; 4.341890319059914E7 ; 1.211275628542497E9 ; 5.616134731054764E9 ; 1.460463424296126E11 ; 0.0
130 ; 4.3382836981557325E7 ; 1.2113375646879525E9 ; 5.659553634245363E9 ; 1.4725761805815512E11 ; 0.0
131 ; 4.333334793292329E7 ; 1.2113994110371153E9 ; 5.70293647122692E9 ; 1.4846895562284308E11 ; 0.0
132 ; 4.328380321630095E7 ; 1.2114611646498308E9 ; 5.746269819159843E9 ; 1.496803550338802E11 ; 0.0
133 ; 4.324703170526244E7 ; 1.2115228226351016E9 ; 5.789553622376144E9 ; 1.5089181619853003E11 ; 0.0
134 ; 4.3197803606087364E7 ; 1.2115843821496096E9 ; 5.832800654081407E9 ; 1.5210333902116513E11 ; 0.0
135 ; 4.3155993749488875E7 ; 1.2116458403962953E9 ; 5.875998457687494E9 ; 1.5331492340331473E11 ; 0.0
136 ; 4.311371215808517E7 ; 1.2117071946229901E9 ; 5.919154451436983E9 ; 1.5452656924371103E11 ; 0.0
137 ; 4.306332649939184E7 ; 1.2117684421211E9 ; 5.962268163595068E9 ; 1.55738276438334E11 ; 0.0
138 ; 4.3012617326135E7 ; 1.2118295802243385E9 ; 6.00533149009446E9 ; 1.569500448804551E11 ; 0.0
139 ; 4.296271606844882E7 ; 1.2118906063075078E9 ; 6.048344107420594E9 ; 1.5816187446067944E11 ; 0.0
140 ; 4.291058902014978E7 ; 1.2119515177853236E9 ; 6.091306823489043E9 ; 1.5937376506698694E11 ; 0.0
141 ; 4.286407997746328E7 ; 1.212012312111285E9 ; 6.134217412509193E9 ; 1.6058571658477225E11 ; 0.0
142 ; 4.281286239675832E7 ; 1.2120729867765841E9 ; 6.177081492486657E9 ; 1.6179772889688354E11 ; 0.0
143 ; 4.276688677551043E7 ; 1.21213353930906E9 ; 6.219894354883415E9 ; 1.6300980188366013E11 ; 0.0
144 ; 4.271402169308575E7 ; 1.2121939672721858E9 ; 6.262661241658926E9 ; 1.6422193542296918E11 ; 0.0
145 ; 4.267636756522624E7 ; 1.2122542682640963E9 ; 6.305375263352012E9 ; 1.6543412939024136E11 ; 0.0
146 ; 4.264951556981209E7 ; 1.2123144399166493E9 ; 6.348051630917238E9 ; 1.6664638365850546E11 ; 0.0
147 ; 4.2617454759390324E7 ; 1.2123744798945246E9 ; 6.39070114648705E9 ; 1.6785869809842212E11 ; 0.0
148 ; 4.257635427030292E7 ; 1.212434385894349E9 ; 6.43331860124644E9 ; 1.6907107257831665E11 ; 0.0
149 ; 4.2538403901059605E7 ; 1.2124941556438594E9 ; 6.475894955516743E9 ; 1.70283506964211E11 ; 0.0
150 ; 4.25118901119812E7 ; 1.2125537869010925E9 ; 6.518433359417802E9 ; 1.7149600111985486E11 ; 0.0
151 ; 4.2471230833695404E7 ; 1.2126132774536054E9 ; 6.560945249529783E9 ; 1.7270855490675595E11 ; 0.0
152 ; 4.243976256304431E7 ; 1.212672625117721E9 ; 6.603416480363479E9 ; 1.7392116818420956E11 ; 0.0
153 ; 4.240989444419259E7 ; 1.212731827737805E9 ; 6.645856242926523E9 ; 1.7513384080932727E11 ; 0.0
154 ; 4.237153461025984E7 ; 1.212790883185564E9 ; 6.688266137370716E9 ; 1.7634657263706506E11 ; 0.0
155 ; 4.232615262070913E7 ; 1.212849789359372E9 ; 6.730637671980976E9 ; 1.7755936352025064E11 ; 0.0
156 ; 4.229684306748015E7 ; 1.212908544183617E9 ; 6.772963824601686E9 ; 1.7877221330961002E11 ; 0.0
157 ; 4.226661605951451E7 ; 1.2129671456080756E9 ; 6.815260667669166E9 ; 1.7998512185379364E11 ; 0.0
158 ; 4.2223119206628725E7 ; 1.2130255916073039E9 ; 6.85752728372868E9 ; 1.811980889994017E11 ; 0.0
159 ; 4.219497366020072E7 ; 1.2130838801800537E9 ; 6.899750402935308E9 ; 1.82411114591009E11 ; 0.0
160 ; 4.215606978546128E7 ; 1.2131420093487077E9 ; 6.94194537659551E9 ; 1.8362419847118906E11 ; 0.0
161 ; 4.212063691497156E7 ; 1.2131999771587334E9 ; 6.984101446380971E9 ; 1.8483734048053775E11 ; 0.0
162 ; 4.2076332946965724E7 ; 1.2132577816781578E9 ; 7.026222083295942E9 ; 1.8605054045769647E11 ; 0.0
163 ; 4.2045174360299364E7 ; 1.21331542099706E9 ; 7.0682984162429085E9 ; 1.8726379823937463E11 ; 0.0
164 ; 4.200506343474895E7 ; 1.2133728932270775E9 ; 7.110343590603208E9 ; 1.884771136603717E11 ; 0.0
165 ; 4.196760500939538E7 ; 1.213430196500935E9 ; 7.152348654037956E9 ; 1.896904865535988E11 ; 0.0
166 ; 4.193231170014392E7 ; 1.2134873289719868E9 ; 7.194316259047352E9 ; 1.9090391675009973E11 ; 0.0
167 ; 4.189255587446542E7 ; 1.2135442888137727E9 ; 7.236248570747496E9 ; 1.9211740407907172E11 ; 0.0
168 ; 4.185864766594485E7 ; 1.2136010742195923E9 ; 7.278141126621961E9 ; 1.933309483678855E11 ; 0.0
169 ; 4.182226097662389E7 ; 1.2136576834020934E9 ; 7.319999774287906E9 ; 1.945445494421051E11 ; 0.0
170 ; 4.177970983965984E7 ; 1.2137141145928707E9 ; 7.361822035264529E9 ; 1.957582071255072E11 ; 0.0
171 ; 4.174116435008487E7 ; 1.2137703660420825E9 ; 7.403601745104189E9 ; 1.9697192124010007E11 ; 0.0
172 ; 4.1703162078954756E7 ; 1.2138264360180788E9 ; 7.445342909454274E9 ; 1.9818569160614215E11 ; 0.0
173 ; 4.1667608854979806E7 ; 1.2138823228070393E9 ; 7.487046071533229E9 ; 1.9939951804216022E11 ; 0.0
174 ; 4.1645371711947605E7 ; 1.2139380247126276E9 ; 7.528713680388208E9 ; 2.0061340036496725E11 ; 0.0
175 ; 4.162347407338428E7 ; 1.213993540055654E9 ; 7.570359052100156E9 ; 2.0182733838967987E11 ; 0.0
176 ; 4.159891465935661E7 ; 1.2140488671737502E9 ; 7.61198252617354E9 ; 2.0304133192973553E11 ; 0.0
177 ; 4.157593123484752E7 ; 1.214104004421056E9 ; 7.653581440832897E9 ; 2.0425538079690927E11 ; 0.0
178 ; 4.155781285157821E7 ; 1.2141589501679146E9 ; 7.695157372067744E9 ; 2.0546948480133032E11 ; 0.0
179 ; 4.152586271794869E7 ; 1.2142137028005784E9 ; 7.736715184919322E9 ; 2.0668364375149823E11 ; 0.0
180 ; 4.1508144180379584E7 ; 1.2142682607209253E9 ; 7.778241047637271E9 ; 2.078978574542988E11 ; 0.0
181 ; 4.1477803077856675E7 ; 1.2143226223461833E9 ; 7.819749191817651E9 ; 2.091121257150197E11 ; 0.0
182 ; 4.1456660793355204E7 ; 1.2143767861086655E9 ; 7.861226994895508E9 ; 2.103264483373659E11 ; 0.0
183 ; 4.14387887675815E7 ; 1.2144307504555109E9 ; 7.902683655688863E9 ; 2.1154082512347458E11 ; 0.0
184 ; 4.1412002928655066E7 ; 1.2144845138484373E9 ; 7.944122444456445E9 ; 2.1275525587393008E11 ; 0.0
185 ; 4.138738581613533E7 ; 1.2145380747634995E9 ; 7.985534447385099E9 ; 2.1396974038777853E11 ; 0.0
186 ; 4.136561606425366E7 ; 1.214591431690856E9 ; 8.026921833201235E9 ; 2.1518427846254202E11 ; 0.0
187 ; 4.134103437007687E7 ; 1.2146445831345444E9 ; 8.068287449265489E9 ; 2.1639886989423288E11 ; 0.0
188 ; 4.1316528809109196E7 ; 1.2146975276122622E9 ; 8.109628483635566E9 ; 2.1761351447736743E11 ; 0.0
189 ; 4.1293951116835624E7 ; 1.2147502636551566E9 ; 8.1509450124446745E9 ; 2.188282120049797E11 ; 0.0
190 ; 4.126538365430533E7 ; 1.214802789807618E9 ; 8.19223896356151E9 ; 2.2004296226863486E11 ; 0.0
191 ; 4.124459775971202E7 ; 1.214855104627084E9 ; 8.233504347215816E9 ; 2.2125776505844247E11 ; 0.0
192 ; 4.1221245110661134E7 ; 1.2149072066838477E9 ; 8.274748944975528E9 ; 2.2247262016306955E11 ; 0.0
193 ; 4.119705306068598E7 ; 1.2149590945608714E9 ; 8.315970190086189E9 ; 2.236875273697534E11 ; 0.0
194 ; 4.117376891855753E7 ; 1.2150107668536062E9 ; 8.357167243146875E9 ; 2.2490248646431427E11 ; 0.0
195 ; 4.114914358443594E7 ; 1.2150622221698203E9 ; 8.398341012065433E9 ; 2.2611749723116788E11 ; 0.0
196 ; 4.112458926184471E7 ; 1.2151134591294289E9 ; 8.439490155649868E9 ; 2.273325594533377E11 ; 0.0
