CSV File for the Network on Day 160
1 - Minute m 
2 - Power Consumed at minute m 
3 - Power Produced at minute m 
4 - Energy Consumed since the beginning of the day 
5 - Energy Produced since the beginning of the day 
6 - Energy Lost since the beginning of the day 
 
0 ; 1.7776783990184784E7 ; 6.350830627490631E8 ; 0.0 ; 0.0 ; 0.0
1 ; 1.780484179063282E7 ; 6.359938922556558E8 ; 1.7776783990184784E7 ; 6.350830627490631E8 ; 0.0
2 ; 1.783172989132374E7 ; 6.387581123333151E8 ; 3.5581625780817606E7 ; 1.2710769550047188E9 ; 0.0
3 ; 1.7857610785722855E7 ; 6.433757393798912E8 ; 5.341335567214134E7 ; 1.909835067338034E9 ; 0.0
4 ; 1.7898820029392377E7 ; 6.498467880920215E8 ; 7.12709664578642E7 ; 2.553210806717925E9 ; 0.0
5 ; 1.795850281625965E7 ; 6.581712713832879E8 ; 8.916978648725657E7 ; 3.2030575948099465E9 ; 0.0
6 ; 1.80343788885926E7 ; 6.683492003109199E8 ; 1.0712828930351622E8 ; 3.8612288661932344E9 ; 0.0
7 ; 1.814929880224545E7 ; 6.80380584011999E8 ; 1.2516266819210882E8 ; 4.529578066504154E9 ; 0.0
8 ; 1.83187185863818E7 ; 6.942654296500205E8 ; 1.4331196699435428E8 ; 5.209958650516153E9 ; 0.0
9 ; 1.8581651673401475E7 ; 7.100037423725395E8 ; 1.6163068558073607E8 ; 5.904224080166174E9 ; 0.0
10 ; 1.9008877206733283E7 ; 7.275955252804857E8 ; 1.8021233725413755E8 ; 6.614227822538713E9 ; 0.0
11 ; 1.968227566670298E7 ; 7.470407794095767E8 ; 1.9922121446087083E8 ; 7.3418233478192E9 ; 0.0
12 ; 2.0779081211722404E7 ; 7.683395037240947E8 ; 2.1890349012757382E8 ; 8.088864127228776E9 ; 0.0
13 ; 2.1825539921504177E7 ; 7.9149169512311E8 ; 2.3968257133929622E8 ; 8.857203630952871E9 ; 0.0
14 ; 2.1934111121668875E7 ; 8.164973484590682E8 ; 2.615081112608004E8 ; 9.648695326075981E9 ; 0.0
15 ; 2.196370299915361E7 ; 8.433564565684731E8 ; 2.834422223824693E8 ; 1.046519267453505E10 ; 0.0
16 ; 2.200202900587351E7 ; 8.720690103142437E8 ; 3.054059253816229E8 ; 1.1308549131103523E10 ; 0.0
17 ; 2.20428587841279E7 ; 9.026349986391506E8 ; 3.274079543874964E8 ; 1.2180618141417767E10 ; 0.0
18 ; 2.2075100444780968E7 ; 9.350544086296114E8 ; 3.494508131716243E8 ; 1.3083253140056917E10 ; 0.0
19 ; 2.211384457649407E7 ; 9.69327225588989E8 ; 3.7152591361640525E8 ; 1.401830754868653E10 ; 0.0
20 ; 2.214562299774317E7 ; 1.0054534331194333E9 ; 3.9363975819289935E8 ; 1.4987634774275518E10 ; 0.0
21 ; 2.2192634667059507E7 ; 1.0434330132112353E9 ; 4.1578538119064254E8 ; 1.599308820739495E10 ; 0.0
22 ; 2.2224298924378484E7 ; 1.0832659463385844E9 ; 4.37978015857702E8 ; 1.7036521220606186E10 ; 0.0
23 ; 2.226276076152076E7 ; 1.1249522115606022E9 ; 4.6020231478208053E8 ; 1.811978716694477E10 ; 0.0
24 ; 2.230235117560644E7 ; 1.1684917866264987E9 ; 4.824650755436013E8 ; 1.924473937850537E10 ; 0.0
25 ; 2.2337648995212317E7 ; 1.2060128934728134E9 ; 5.047674267192077E8 ; 2.041323116513187E10 ; 0.0
26 ; 2.2373073381042574E7 ; 1.2060367945547962E9 ; 5.2710507571442E8 ; 2.1619244058604683E10 ; 0.0
27 ; 2.241227717211078E7 ; 1.2060620801066368E9 ; 5.494781490954626E8 ; 2.2825280853159477E10 ; 0.0
28 ; 2.2446376607814617E7 ; 1.2060887237326992E9 ; 5.718904262675734E8 ; 2.4031342933266113E10 ; 0.0
29 ; 2.2479152680296853E7 ; 1.2061166982764523E9 ; 5.94336802875388E8 ; 2.5237431656998814E10 ; 0.0
30 ; 2.251711489530145E7 ; 1.2061459759279344E9 ; 6.168159555556849E8 ; 2.6443548355275265E10 ; 0.0
31 ; 2.2547127502496123E7 ; 1.2061765283284626E9 ; 6.393330704509864E8 ; 2.7649694331203197E10 ; 0.0
32 ; 2.2579899667936344E7 ; 1.2062083266719213E9 ; 6.618801979534825E8 ; 2.8855870859531662E10 ; 0.0
33 ; 2.260609829003565E7 ; 1.206241341802055E9 ; 6.844600976214188E8 ; 3.0062079186203583E10 ; 0.0
34 ; 2.2638574652058776E7 ; 1.206275544305295E9 ; 7.070661959114544E8 ; 3.126832052800564E10 ; 0.0
35 ; 2.2667521211780027E7 ; 1.2063109045987375E9 ; 7.297047705635132E8 ; 3.2474596072310932E10 ; 0.0
36 ; 2.270122567158273E7 ; 1.2063473930129821E9 ; 7.523722917752932E8 ; 3.3680906976909668E10 ; 0.0
37 ; 2.272713140542041E7 ; 1.206384979869627E9 ; 7.750735174468759E8 ; 3.488725436992265E10 ; 0.0
38 ; 2.275814833263969E7 ; 1.2064236355532894E9 ; 7.978006488522964E8 ; 3.609363934979228E10 ; 0.0
39 ; 2.2772027511006944E7 ; 1.2064633305781016E9 ; 8.20558797184936E8 ; 3.730006298534557E10 ; 0.0
40 ; 2.2797243967712358E7 ; 1.2065040356486826E9 ; 8.43330824695943E8 ; 3.8506526315923676E10 ; 0.0
41 ; 2.281823569812929E7 ; 1.2065457217156603E9 ; 8.661280686636554E8 ; 3.971303035157236E10 ; 0.0
42 ; 2.2828008003226057E7 ; 1.206588360025845E9 ; 8.889463043617847E8 ; 4.091957607328802E10 ; 0.0
43 ; 2.285540355573318E7 ; 1.206631922167222E9 ; 9.117743123650107E8 ; 4.2126164433313866E10 ; 0.0
44 ; 2.2869504097786617E7 ; 1.2066763801089392E9 ; 9.34629715920744E8 ; 4.333279635548109E10 ; 0.0
45 ; 2.28831704583733E7 ; 1.2067217062365155E9 ; 9.574992200185306E8 ; 4.453947273559003E10 ; 0.0
46 ; 2.2891367670038793E7 ; 1.2067678733824983E9 ; 9.803823904769039E8 ; 4.5746194441826546E10 ; 0.0
47 ; 2.290263191446984E7 ; 1.206814854852829E9 ; 1.0032737581469427E9 ; 4.6952962315209045E10 ; 0.0
48 ; 2.2911000870826337E7 ; 1.206862624449174E9 ; 1.0261763900614126E9 ; 4.8159777170061874E10 ; 0.0
49 ; 2.2914505731111873E7 ; 1.2069111564874852E9 ; 1.0490873909322389E9 ; 4.936663979451105E10 ; 0.0
50 ; 2.2921064391497042E7 ; 1.2069604258130713E9 ; 1.0720018966633508E9 ; 5.0573550950998535E10 ; 0.0
51 ; 2.2920329430512317E7 ; 1.2070104078124304E9 ; 1.094922961054848E9 ; 5.178051137681161E10 ; 0.0
52 ; 2.2925024309843894E7 ; 1.2070610784221194E9 ; 1.1178432904853604E9 ; 5.298752178462404E10 ; 0.0
53 ; 2.2926177526847094E7 ; 1.2071124141349096E9 ; 1.1407683147952042E9 ; 5.419458286304616E10 ; 0.0
54 ; 2.2929144596010074E7 ; 1.2071643920034783E9 ; 1.1636944923220513E9 ; 5.540169527718107E10 ; 0.0
55 ; 2.2928681556516845E7 ; 1.2072169896418672E9 ; 1.1866236369180613E9 ; 5.660885966918455E10 ; 0.0
56 ; 2.2928901241628494E7 ; 1.2072701852249405E9 ; 1.2095523184745781E9 ; 5.7816076658826416E10 ; 0.0
57 ; 2.2932235064530246E7 ; 1.2073239574860497E9 ; 1.2324812197162066E9 ; 5.902334684405135E10 ; 0.0
58 ; 2.2931681144689977E7 ; 1.2073782857131052E9 ; 1.2554134547807367E9 ; 6.02306708015374E10 ; 0.0
59 ; 2.2933187131087564E7 ; 1.207433149743247E9 ; 1.2783451359254267E9 ; 6.14380490872505E10 ; 0.0
60 ; 2.293492208550413E7 ; 1.2074885299562826E9 ; 1.3012783230565143E9 ; 6.264548223699375E10 ; 0.0
61 ; 2.2934045973485135E7 ; 1.2075444072670572E9 ; 1.3242132451420183E9 ; 6.3852970766950035E10 ; 0.0
62 ; 2.292966836147748E7 ; 1.2076007631169057E9 ; 1.3471472911155035E9 ; 6.5060515174217094E10 ; 0.0
63 ; 2.2925519277277663E7 ; 1.2076575794643211E9 ; 1.370076959476981E9 ; 6.6268115937334E10 ; 0.0
64 ; 2.2924984032872915E7 ; 1.2077148387749648E9 ; 1.3930024787542586E9 ; 6.7475773516798325E10 ; 0.0
65 ; 2.292075822156099E7 ; 1.2077725240111346E9 ; 1.4159274627871315E9 ; 6.868348835557329E10 ; 0.0
66 ; 2.291637899257669E7 ; 1.207830618620793E9 ; 1.4388482210086925E9 ; 6.989126087958443E10 ; 0.0
67 ; 2.2914489858344536E7 ; 1.2078891065262485E9 ; 1.461764600001269E9 ; 7.109909149820522E10 ; 0.0
68 ; 2.291106611770977E7 ; 1.2079479721125736E9 ; 1.4846790898596137E9 ; 7.230698060473146E10 ; 0.0
69 ; 2.2906734355621353E7 ; 1.2080072002158387E9 ; 1.5075901559773235E9 ; 7.351492857684404E10 ; 0.0
70 ; 2.2910335685353696E7 ; 1.208066776111223E9 ; 1.5304968903329449E9 ; 7.472293577705988E10 ; 0.0
71 ; 2.290556826858045E7 ; 1.2081266855010679E9 ; 1.5534072260182986E9 ; 7.59310025531711E10 ; 0.0
72 ; 2.289560744237101E7 ; 1.2081869145029228E9 ; 1.576312794286879E9 ; 7.713912923867216E10 ; 0.0
73 ; 2.2893450731725283E7 ; 1.2082474496376276E9 ; 1.59920840172925E9 ; 7.83473161531751E10 ; 0.0
74 ; 2.2891897372898713E7 ; 1.20830827781748E9 ; 1.6221018524609752E9 ; 7.955556360281273E10 ; 0.0
75 ; 2.288283746823918E7 ; 1.208369386334513E9 ; 1.644993749833874E9 ; 8.07638718806302E10 ; 0.0
76 ; 2.2869831775447972E7 ; 1.2084307628489196E9 ; 1.667876587302113E9 ; 8.197224126696472E10 ; 0.0
77 ; 2.2869194630169652E7 ; 1.2084923953776512E9 ; 1.6907464190775611E9 ; 8.318067202981364E10 ; 0.0
78 ; 2.28466345402969E7 ; 1.2085542722832065E9 ; 1.7136156137077308E9 ; 8.43891644251913E10 ; 0.0
79 ; 2.2833488609166343E7 ; 1.208616382262632E9 ; 1.7364622482480276E9 ; 8.55977186974745E10 ; 0.0
80 ; 2.2813260027932085E7 ; 1.2086787143367543E9 ; 1.759295736857194E9 ; 8.680633507973714E10 ; 0.0
81 ; 2.278792635785596E7 ; 1.2087412578396454E9 ; 1.782108996885126E9 ; 8.80150137940739E10 ; 0.0
82 ; 2.277561842675215E7 ; 1.2088040024083433E9 ; 1.8048969232429821E9 ; 8.922375505191354E10 ; 0.0
83 ; 2.2747326761481993E7 ; 1.2088669379728255E9 ; 1.8276725416697342E9 ; 9.043255905432188E10 ; 0.0
84 ; 2.272666147765241E7 ; 1.2089300547462468E9 ; 1.8504198684312162E9 ; 9.164142599229471E10 ; 0.0
85 ; 2.270705814065207E7 ; 1.2089933432154412E9 ; 1.8731465299088686E9 ; 9.285035604704095E10 ; 0.0
86 ; 2.268456136657792E7 ; 1.2090567941316955E9 ; 1.8958535880495207E9 ; 9.40593493902564E10 ; 0.0
87 ; 2.266227297335387E7 ; 1.2091203985017865E9 ; 1.9185381494160986E9 ; 9.526840618438809E10 ; 0.0
88 ; 2.2638388048290323E7 ; 1.2091841475792913E9 ; 1.9412004223894525E9 ; 9.647752658288988E10 ; 0.0
89 ; 2.2626618864592597E7 ; 1.2092480328561616E9 ; 1.9638388104377427E9 ; 9.768671073046916E10 ; 0.0
90 ; 2.258970568611478E7 ; 1.209312046054563E9 ; 1.9864654293023353E9 ; 9.889595876332532E10 ; 0.0
91 ; 2.2573652188957144E7 ; 1.2093761791189766E9 ; 2.00905513498845E9 ; 1.0010527080937988E11 ; 0.0
92 ; 2.2550815426486757E7 ; 1.2094404242085547E9 ; 2.0316287871774073E9 ; 1.0131464698849886E11 ; 0.0
93 ; 2.252331354118526E7 ; 1.2095047736897342E9 ; 2.054179602603894E9 ; 1.0252408741270741E11 ; 0.0
94 ; 2.2501472834688604E7 ; 1.2095692201290932E9 ; 2.0767029161450791E9 ; 1.0373359218639714E11 ; 0.0
95 ; 2.247395439396555E7 ; 1.2096337562864537E9 ; 2.0992043889797678E9 ; 1.0494316140652623E11 ; 0.0
96 ; 2.2446655367903586E7 ; 1.2096983751082196E9 ; 2.1216783433737333E9 ; 1.0615279516281268E11 ; 0.0
97 ; 2.2430309756438516E7 ; 1.2097630697209487E9 ; 2.1441249987416368E9 ; 1.073624935379209E11 ; 0.0
98 ; 2.2393770776383735E7 ; 1.2098278334251456E9 ; 2.1665553084980755E9 ; 1.0857225660764185E11 ; 0.0
99 ; 2.2369818775098246E7 ; 1.2098926596892796E9 ; 2.1889490792744594E9 ; 1.0978208444106699E11 ; 0.0
100 ; 2.234338814836799E7 ; 1.209957542144011E9 ; 2.2113188980495577E9 ; 1.1099197710075627E11 ; 0.0
101 ; 2.2318332304901026E7 ; 1.2100224745766287E9 ; 2.2336622861979256E9 ; 1.1220193464290028E11 ; 0.0
102 ; 2.2290696054598354E7 ; 1.2100874509256847E9 ; 2.2559806185028267E9 ; 1.1341195711747691E11 ; 0.0
103 ; 2.226713465298155E7 ; 1.2101524652758257E9 ; 2.278271314557425E9 ; 1.146220445684026E11 ; 0.0
104 ; 2.2240528801693704E7 ; 1.2102175118528123E9 ; 2.300538449210407E9 ; 1.1583219703367844E11 ; 0.0
105 ; 2.220871771781333E7 ; 1.2102825850187201E9 ; 2.3227789780121007E9 ; 1.1704241454553125E11 ; 0.0
106 ; 2.2183361835192896E7 ; 1.2103476792673182E9 ; 2.344987695729914E9 ; 1.1825269713054997E11 ; 0.0
107 ; 2.2152678344567683E7 ; 1.2104127892196164E9 ; 2.367171057565107E9 ; 1.1946304480981729E11 ; 0.0
108 ; 2.2123118807157986E7 ; 1.210477909619579E9 ; 2.3893237359096746E9 ; 1.2067345759903691E11 ; 0.0
109 ; 2.2089966175448902E7 ; 1.2105430353299952E9 ; 2.4114468547168326E9 ; 1.218839355086565E11 ; 0.0
110 ; 2.2059162471101284E7 ; 1.210608161328503E9 ; 2.4335368208922815E9 ; 1.230944785439865E11 ; 0.0
111 ; 2.203393992151641E7 ; 1.2106732827037625E9 ; 2.455595983363383E9 ; 1.24305086705315E11 ; 0.0
112 ; 2.2002956409455627E7 ; 1.2107383946517713E9 ; 2.477629923284899E9 ; 1.2551575998801877E11 ; 0.0
113 ; 2.1975353644584514E7 ; 1.210803492472314E9 ; 2.499632879694355E9 ; 1.2672649838267053E11 ; 0.0
114 ; 2.194064742513388E7 ; 1.210868571565548E9 ; 2.5216082333389397E9 ; 1.2793730187514285E11 ; 0.0
115 ; 2.191004721478217E7 ; 1.2109336274287148E9 ; 2.5435488807640734E9 ; 1.291481704467084E11 ; 0.0
116 ; 2.1880391337173E7 ; 1.2109986556529732E9 ; 2.5654589279788556E9 ; 1.3035910407413712E11 ; 0.0
117 ; 2.1847242983175717E7 ; 1.211063651920352E9 ; 2.5873393193160286E9 ; 1.3157010272979008E11 ; 0.0
118 ; 2.1808988755611427E7 ; 1.2111286120008163E9 ; 2.6091865622992043E9 ; 1.3278116638171043E11 ; 0.0
119 ; 2.1782230347063452E7 ; 1.2111935317494407E9 ; 2.630995551054816E9 ; 1.3399229499371124E11 ; 0.0
120 ; 2.174462831844324E7 ; 1.2112584071036906E9 ; 2.6527777814018793E9 ; 1.3520348852546068E11 ; 0.0
121 ; 2.1712678230666466E7 ; 1.2113232340808039E9 ; 2.6745224097203226E9 ; 1.3641474693256436E11 ; 0.0
122 ; 2.1686193787142154E7 ; 1.2113880087752678E9 ; 2.6962350879509892E9 ; 1.3762607016664517E11 ; 0.0
123 ; 2.164473258437966E7 ; 1.2114527273563933E9 ; 2.7179212817381315E9 ; 1.3883745817542044E11 ; 0.0
124 ; 2.1622846511533324E7 ; 1.2115173860659752E9 ; 2.739566014322511E9 ; 1.4004891090277682E11 ; 0.0
125 ; 2.157698533277063E7 ; 1.2115819812160418E9 ; 2.7611888608340445E9 ; 1.412604282888428E11 ; 0.0
126 ; 2.1543553078787513E7 ; 1.2116465091866865E9 ; 2.7827658461668153E9 ; 1.4247201027005884E11 ; 0.0
127 ; 2.1510703354856595E7 ; 1.2117109664239798E9 ; 2.8043093992456026E9 ; 1.436836567792455E11 ; 0.0
128 ; 2.1477534723805457E7 ; 1.2117753494379578E9 ; 2.825820102600459E9 ; 1.448953677456695E11 ; 0.0
129 ; 2.1439756145593323E7 ; 1.2118396548006845E9 ; 2.8472976373242645E9 ; 1.4610714309510745E11 ; 0.0
130 ; 2.1387423923245143E7 ; 1.2119038791443863E9 ; 2.8687373934698577E9 ; 1.4731898274990814E11 ; 0.0
131 ; 2.1347365633330498E7 ; 1.2119680191596525E9 ; 2.8901248173931026E9 ; 1.4853088662905252E11 ; 0.0
132 ; 2.1299703984967127E7 ; 1.212032071593705E9 ; 2.911472183026433E9 ; 1.4974285464821216E11 ; 0.0
133 ; 2.1239410724971857E7 ; 1.2120960332487276E9 ; 2.9327718870114E9 ; 1.5095488671980588E11 ; 0.0
134 ; 2.1194771787459888E7 ; 1.2121599009802573E9 ; 2.954011297736372E9 ; 1.521669827530546E11 ; 0.0
135 ; 2.114225064046993E7 ; 1.212223671695635E9 ; 2.975206069523832E9 ; 1.5337914265403485E11 ; 0.0
136 ; 2.108755750570113E7 ; 1.212287342352512E9 ; 2.996348320164302E9 ; 1.545913663257305E11 ; 0.0
137 ; 2.1039755192547087E7 ; 1.2123509099574068E9 ; 3.017435877670003E9 ; 1.55803653668083E11 ; 0.0
138 ; 2.098835435828692E7 ; 1.2124143715643206E9 ; 3.0384756328625503E9 ; 1.570160045780404E11 ; 0.0
139 ; 2.094053113841869E7 ; 1.212477724273396E9 ; 3.059463987220837E9 ; 1.5822841894960474E11 ; 0.0
140 ; 2.088998257449697E7 ; 1.2125409652296283E9 ; 3.080404518359256E9 ; 1.5944089667387814E11 ; 0.0
141 ; 2.0826644332194895E7 ; 1.2126040916216197E9 ; 3.1012945009337525E9 ; 1.6065343763910776E11 ; 0.0
142 ; 2.0782171157792494E7 ; 1.2126671006803799E9 ; 3.1221211452659473E9 ; 1.6186604173072937E11 ; 0.0
143 ; 2.0731497483025666E7 ; 1.212729989678168E9 ; 3.14290331642374E9 ; 1.6307870883140976E11 ; 0.0
144 ; 2.067182954025997E7 ; 1.2127927559273772E9 ; 3.1636348139067655E9 ; 1.6429143882108792E11 ; 0.0
145 ; 2.063576575813498E7 ; 1.2128553967794569E9 ; 3.1843066434470253E9 ; 1.655042315770153E11 ; 0.0
146 ; 2.0595404055124532E7 ; 1.212917909623873E9 ; 3.20494240920516E9 ; 1.6671708697379474E11 ; 0.0
147 ; 2.0562770187502116E7 ; 1.2129802918871064E9 ; 3.225537813260285E9 ; 1.679300048834186E11 ; 0.0
148 ; 2.051992140286262E7 ; 1.213042541031685E9 ; 3.246100583447787E9 ; 1.6914298517530573E11 ; 0.0
149 ; 2.0485521033712305E7 ; 1.213104654555251E9 ; 3.2666205048506494E9 ; 1.703560277163374E11 ; 0.0
150 ; 2.0450957753846847E7 ; 1.2131666299896574E9 ; 3.2871060258843617E9 ; 1.7156913237089264E11 ; 0.0
151 ; 2.040982176826767E7 ; 1.2132284649000998E9 ; 3.3075569836382084E9 ; 1.727822990008823E11 ; 0.0
152 ; 2.0367280895535074E7 ; 1.2132901568842776E9 ; 3.327966805406476E9 ; 1.7399552746578238E11 ; 0.0
153 ; 2.03317845577478E7 ; 1.2133517035715802E9 ; 3.348334086302011E9 ; 1.7520881762266666E11 ; 0.0
154 ; 2.029352217389372E7 ; 1.213413102622307E9 ; 3.368665870859759E9 ; 1.7642216932623825E11 ; 0.0
155 ; 2.0259704235784426E7 ; 1.2134743517269104E9 ; 3.388959393033653E9 ; 1.7763558242886057E11 ; 0.0
156 ; 2.0213622574450694E7 ; 1.2135354486052644E9 ; 3.4092190972694373E9 ; 1.7884905678058746E11 ; 0.0
157 ; 2.0183030679509737E7 ; 1.2135963910059614E9 ; 3.429432719843888E9 ; 1.8006259222919272E11 ; 0.0
158 ; 2.0145445524042092E7 ; 1.2136571767056298E9 ; 3.4496157505233974E9 ; 1.8127618862019867E11 ; 0.0
159 ; 2.0105334886046663E7 ; 1.213717803508276E9 ; 3.4697611960474396E9 ; 1.824898457969043E11 ; 0.0
160 ; 2.006757598280891E7 ; 1.213778269244648E9 ; 3.4898665309334865E9 ; 1.8370356360041257E11 ; 0.0
161 ; 2.0022910290041536E7 ; 1.2138385717716231E9 ; 3.5099341069162955E9 ; 1.8491734186965723E11 ; 0.0
162 ; 1.9986236908302233E7 ; 1.2138987089716113E9 ; 3.529957017206337E9 ; 1.8613118044142886E11 ; 0.0
163 ; 1.9951333429356415E7 ; 1.213958678751983E9 ; 3.5499432541146393E9 ; 1.8734507915040048E11 ; 0.0
164 ; 1.9912089072417E7 ; 1.2140184790445142E9 ; 3.569894587543996E9 ; 1.8855903782915247E11 ; 0.0
165 ; 1.9876739109323572E7 ; 1.2140781078048503E9 ; 3.5898066766164126E9 ; 1.89773056308197E11 ; 0.0
166 ; 1.9840194077799443E7 ; 1.2141375630119867E9 ; 3.609683415725736E9 ; 1.9098713441600183E11 ; 0.0
167 ; 1.9801061938722458E7 ; 1.2141968426677701E9 ; 3.6295236098035355E9 ; 1.9220127197901382E11 ; 0.0
168 ; 1.975404016330018E7 ; 1.2142559447964103E9 ; 3.649324671742258E9 ; 1.9341546882168158E11 ; 0.0
169 ; 1.972399622493805E7 ; 1.214314867444015E9 ; 3.669078711905558E9 ; 1.94629724766478E11 ; 0.0
170 ; 1.9676122677258346E7 ; 1.2143736086781344E9 ; 3.688802708130496E9 ; 1.95844039633922E11 ; 0.0
171 ; 1.9639114469902586E7 ; 1.2144321665873237E9 ; 3.7084788308077545E9 ; 1.9705841324260013E11 ; 0.0
172 ; 1.95978748855187E7 ; 1.2144905392807186E9 ; 3.728117945277657E9 ; 1.9827284540918744E11 ; 0.0
173 ; 1.956367565083014E7 ; 1.2145487248876252E9 ; 3.7477158201631756E9 ; 1.9948733594846817E11 ; 0.0
174 ; 1.9524989019195385E7 ; 1.2146067215571234E9 ; 3.767279495814006E9 ; 2.007018846733558E11 ; 0.0
175 ; 1.950509248522253E7 ; 1.2146645274576828E9 ; 3.7868044848332014E9 ; 2.0191649139491293E11 ; 0.0
176 ; 1.9461653583947033E7 ; 1.2147221407767909E9 ; 3.8063095773184237E9 ; 2.031311559223706E11 ; 0.0
177 ; 1.9431810864984915E7 ; 1.214779559720593E9 ; 3.825771230902371E9 ; 2.043458780631474E11 ; 0.0
178 ; 1.9396039723089032E7 ; 1.214836782513545E9 ; 3.845203041767356E9 ; 2.0556065762286798E11 ; 0.0
179 ; 1.9368619511573326E7 ; 1.2148938073980765E9 ; 3.864599081490445E9 ; 2.0677549440538153E11 ; 0.0
180 ; 1.9337519831496283E7 ; 1.2149506326342642E9 ; 3.8839677010020185E9 ; 2.079903882127796E11 ; 0.0
181 ; 1.930908630734642E7 ; 1.2150072564995165E9 ; 3.9033052208335147E9 ; 2.0920533884541388E11 ; 0.0
182 ; 1.9277954923817616E7 ; 1.215063677288267E9 ; 3.922614307140861E9 ; 2.104203461019134E11 ; 0.0
183 ; 1.9250369067851044E7 ; 1.2151198933116803E9 ; 3.9418922620646787E9 ; 2.1163540977920166E11 ; 0.0
184 ; 1.9212050432571117E7 ; 1.215175902897365E9 ; 3.9611426311325297E9 ; 2.1285052967251334E11 ; 0.0
185 ; 1.9178196321894802E7 ; 1.2152317043890944E9 ; 3.9803546815651007E9 ; 2.140657055754107E11 ; 0.0
186 ; 1.9152888710923404E7 ; 1.21528729614654E9 ; 3.9995328778869953E9 ; 2.152809372797998E11 ; 0.0
187 ; 1.9122050152810074E7 ; 1.2153426765450103E9 ; 4.0186857665979185E9 ; 2.1649622457594635E11 ; 0.0
188 ; 1.9087965685160644E7 ; 1.2153978439751992E9 ; 4.0378078167507286E9 ; 2.1771156725249136E11 ; 0.0
189 ; 1.905604221244949E7 ; 1.2154527968429403E9 ; 4.0568957824358892E9 ; 2.1892696509646655E11 ; 0.0
190 ; 1.9031535287514545E7 ; 1.215507533568973E9 ; 4.075951824648339E9 ; 2.2014241789330948E11 ; 0.0
191 ; 1.8996749451019958E7 ; 1.2155620525887105E9 ; 4.0949833599358535E9 ; 2.2135792542687845E11 ; 0.0
192 ; 1.8966399997757755E7 ; 1.2156163523520205E9 ; 4.1139801093868732E9 ; 2.2257348747946716E11 ; 0.0
193 ; 1.8928515026910648E7 ; 1.2156704313230076E9 ; 4.132946509384631E9 ; 2.2378910383181918E11 ; 0.0
194 ; 1.8899710104287058E7 ; 1.215724287979806E9 ; 4.151875024411542E9 ; 2.2500477426314218E11 ; 0.0
195 ; 1.887292637461504E7 ; 1.215777920814378E9 ; 4.170774734515829E9 ; 2.2622049855112198E11 ; 0.0
