CSV File for the Network on Day 227
1 - Minute m 
2 - Power Consumed at minute m 
3 - Power Produced at minute m 
4 - Energy Consumed since the beginning of the day 
5 - Energy Produced since the beginning of the day 
6 - Energy Lost since the beginning of the day 
 
0 ; 2949176.6472292286 ; 6.317876461234094E8 ; 0.0 ; 0.0 ; 0.0
1 ; 2995244.387606459 ; 6.326683865875233E8 ; 2949176.6472292286 ; 6.317876461234094E8 ; 0.0
2 ; 3043667.7884035246 ; 6.35403363491796E8 ; 5944421.034835688 ; 1.2644560327109327E9 ; 0.0
3 ; 3095712.5451692855 ; 6.399930232272259E8 ; 8988088.823239213 ; 1.8998593962027287E9 ; 0.0
4 ; 3145709.5024872506 ; 6.464378875535698E8 ; 1.2083801368408497E7 ; 2.5398524194299545E9 ; 0.0
5 ; 3234932.4648987856 ; 6.547385515643953E8 ; 1.5229510870895747E7 ; 3.1862903069835243E9 ; 0.0
6 ; 3321949.497281095 ; 6.648956693598136E8 ; 1.846444333579453E7 ; 3.8410288585479198E9 ; 0.0
7 ; 3457019.4440400656 ; 6.769099216474267E8 ; 2.1786392833075628E7 ; 4.505924527907733E9 ; 0.0
8 ; 3646236.0488414415 ; 6.907819616584525E8 ; 2.5243412277115695E7 ; 5.18283444955516E9 ; 0.0
9 ; 3934263.273000381 ; 7.065123422468745E8 ; 2.8889648325957138E7 ; 5.873616411213612E9 ; 0.0
10 ; 4382944.926202358 ; 7.241014372630676E8 ; 3.282391159895752E7 ; 6.580128753460486E9 ; 0.0
11 ; 5066977.115765648 ; 7.435493792839117E8 ; 3.720685652515988E7 ; 7.304230190723554E9 ; 0.0
12 ; 6185350.970707825 ; 7.648560357325267E8 ; 4.227383364092553E7 ; 8.047779570007465E9 ; 0.0
13 ; 7254090.185796031 ; 7.880210327585378E8 ; 4.845918461163335E7 ; 8.812635605739992E9 ; 0.0
14 ; 7387466.701487295 ; 8.13043817507962E8 ; 5.571327479742938E7 ; 9.60065663849853E9 ; 0.0
15 ; 7439476.684779342 ; 8.399237367495804E8 ; 6.310074149891668E7 ; 1.041370045600649E10 ; 0.0
16 ; 7489482.7864739625 ; 8.68660109775792E8 ; 7.054021818369602E7 ; 1.1253624192756071E10 ; 0.0
17 ; 7545754.881208968 ; 8.992522824864851E8 ; 7.802970097016998E7 ; 1.2122284302531862E10 ; 0.0
18 ; 7604588.6125258375 ; 9.316996597880924E8 ; 8.557545585137895E7 ; 1.3021536585018347E10 ; 0.0
19 ; 7656673.689477814 ; 9.660017199208566E8 ; 9.318004446390478E7 ; 1.3953236244806438E10 ; 0.0
20 ; 7720963.3538366845 ; 1.0021580164937795E9 ; 1.008367181533826E8 ; 1.4919237964727295E10 ; 0.0
21 ; 7780905.045735218 ; 1.0401681735008123E9 ; 1.0855768150721928E8 ; 1.5921395981221075E10 ; 0.0
22 ; 7834684.106183099 ; 1.0800318771192603E9 ; 1.163385865529545E8 ; 1.6961564154721888E10 ; 0.0
23 ; 7895343.704098765 ; 1.121748866636696E9 ; 1.2417327065913759E8 ; 1.804159603184115E10 ; 0.0
24 ; 7949592.721749276 ; 1.1653189257688844E9 ; 1.3206861436323635E8 ; 1.9163344898477844E10 ; 0.0
25 ; 8012828.999670543 ; 1.2028701203276095E9 ; 1.400182070849856E8 ; 2.0328663824246727E10 ; 0.0
26 ; 8064240.984590949 ; 1.2029235878554506E9 ; 1.4803103608465615E8 ; 2.1531533944574337E10 ; 0.0
27 ; 8127125.3129134085 ; 1.2029778192941766E9 ; 1.560952770692471E8 ; 2.2734457532429787E10 ; 0.0
28 ; 8183283.632730024 ; 1.2030327099713068E9 ; 1.642224023821605E8 ; 2.3937435351723965E10 ; 0.0
29 ; 8236946.517874155 ; 1.2030881717057312E9 ; 1.7240568601489055E8 ; 2.514046806169527E10 ; 0.0
30 ; 8294242.130276218 ; 1.2031441298496554E9 ; 1.806426325327647E8 ; 2.6343556233401E10 ; 0.0
31 ; 8339309.615279589 ; 1.2032005208973298E9 ; 1.8893687466304094E8 ; 2.7546700363250656E10 ; 0.0
32 ; 8392109.678109784 ; 1.2032572905510554E9 ; 1.9727618427832052E8 ; 2.8749900884147987E10 ; 0.0
33 ; 8441617.85093152 ; 1.2033143921542244E9 ; 2.0566829395643032E8 ; 2.9953158174699043E10 ; 0.0
34 ; 8499104.461609121 ; 1.2033717854183102E9 ; 2.1410991180736184E8 ; 3.1156472566853268E10 ; 0.0
35 ; 8546548.682579398 ; 1.2034294353852453E9 ; 2.2260901626897097E8 ; 3.2359844352271576E10 ; 0.0
36 ; 8602507.401169783 ; 1.203487311578514E9 ; 2.3115556495155036E8 ; 3.3563273787656822E10 ; 0.0
37 ; 8643327.555367924 ; 1.2035453873058894E9 ; 2.3975807235272014E8 ; 3.476676109923534E10 ; 0.0
38 ; 8692997.211439585 ; 1.203603639084361E9 ; 2.4840139990808806E8 ; 3.597030648654123E10 ; 0.0
39 ; 8734366.758228928 ; 1.2036620461638708E9 ; 2.5709439711952764E8 ; 3.717391012562559E10 ; 0.0
40 ; 8777248.005873676 ; 1.203720590131214E9 ; 2.6582876387775657E8 ; 3.837757217178946E10 ; 0.0
41 ; 8819569.360477906 ; 1.203779254579257E9 ; 2.746060118836302E8 ; 3.958129276192067E10 ; 0.0
42 ; 8862736.928856568 ; 1.2038380248295631E9 ; 2.8342558124410814E8 ; 4.078507201649992E10 ; 0.0
43 ; 8890179.59153789 ; 1.2038968876988692E9 ; 2.922883181729647E8 ; 4.198891004132948E10 ; 0.0
44 ; 8933336.38281113 ; 1.2039558313017175E9 ; 3.011784977645026E8 ; 4.319280692902835E10 ; 0.0
45 ; 8966809.940553695 ; 1.2040148448830035E9 ; 3.101118341473137E8 ; 4.439676276033007E10 ; 0.0
46 ; 8995899.040352989 ; 1.2040739186753852E9 ; 3.190786440878674E8 ; 4.560077760521307E10 ; 0.0
47 ; 9027388.348312574 ; 1.2041330437774217E9 ; 3.280745431282204E8 ; 4.680485152388846E10 ; 0.0
48 ; 9052078.341712547 ; 1.204192212049075E9 ; 3.3710193147653294E8 ; 4.800898456766588E10 ; 0.0
49 ; 9082163.759452842 ; 1.2042514160217888E9 ; 3.461540098182455E8 ; 4.921317677971495E10 ; 0.0
50 ; 9112478.97942855 ; 1.2043106488208754E9 ; 3.552361735776983E8 ; 5.041742819573674E10 ; 0.0
51 ; 9136287.872256147 ; 1.2043699040983002E9 ; 3.643486525571268E8 ; 5.162173884455762E10 ; 0.0
52 ; 9155462.145434791 ; 1.204429175974309E9 ; 3.73484940429383E8 ; 5.2826108748655914E10 ; 0.0
53 ; 9183183.417840358 ; 1.204488458986579E9 ; 3.826404025748178E8 ; 5.4030537924630226E10 ; 0.0
54 ; 9204839.20723457 ; 1.2045477480458007E9 ; 3.9182358599265814E8 ; 5.5235026383616806E10 ; 0.0
55 ; 9222913.704059664 ; 1.2046070383967736E9 ; 4.010284251998927E8 ; 5.6439574131662605E10 ; 0.0
56 ; 9251826.691608831 ; 1.2046663255842428E9 ; 4.1025133890395236E8 ; 5.764418117005938E10 ; 0.0
57 ; 9269232.296995094 ; 1.2047256054228184E9 ; 4.195031655955612E8 ; 5.884884749564362E10 ; 0.0
58 ; 9293080.81524582 ; 1.2047848739704294E9 ; 4.287723978925563E8 ; 6.0053573101066444E10 ; 0.0
59 ; 9312803.23913433 ; 1.2048441275048413E9 ; 4.380654787078021E8 ; 6.125835797503687E10 ; 0.0
60 ; 9337349.894441703 ; 1.2049033625028338E9 ; 4.473782819469364E8 ; 6.246320210254172E10 ; 0.0
61 ; 9363129.884986272 ; 1.2049625756216996E9 ; 4.5671563184137815E8 ; 6.366810546504455E10 ; 0.0
62 ; 9382060.306023195 ; 1.205021763682768E9 ; 4.6607876172636443E8 ; 6.4873068040666245E10 ; 0.0
63 ; 9398353.602248995 ; 1.2050809236567056E9 ; 4.754608220323876E8 ; 6.6078089804349014E10 ; 0.0
64 ; 9418523.274597228 ; 1.2051400526503701E9 ; 4.848591756346366E8 ; 6.728317072800572E10 ; 0.0
65 ; 9435753.940545298 ; 1.205199147895038E9 ; 4.942776989092338E8 ; 6.848831078065609E10 ; 0.0
66 ; 9453698.091316378 ; 1.205258206735836E9 ; 5.037134528497791E8 ; 6.969350992855113E10 ; 0.0
67 ; 9479612.117640015 ; 1.2053172266222415E9 ; 5.1316715094109553E8 ; 7.089876813528697E10 ; 0.0
68 ; 9490674.284320582 ; 1.2053762050995264E9 ; 5.2264676305873555E8 ; 7.210408536190921E10 ; 0.0
69 ; 9520951.552123178 ; 1.2054351398010375E9 ; 5.3213743734305614E8 ; 7.330946156700874E10 ; 0.0
70 ; 9530152.249843497 ; 1.2054940284412208E9 ; 5.416583888951793E8 ; 7.451489670680978E10 ; 0.0
71 ; 9551336.959381612 ; 1.2055528688093102E9 ; 5.511885411450227E8 ; 7.5720390735251E10 ; 0.0
72 ; 9570217.292733816 ; 1.2056116587636032E9 ; 5.607398781044043E8 ; 7.692594360406032E10 ; 0.0
73 ; 9581997.560789598 ; 1.2056703962262688E9 ; 5.703100953971381E8 ; 7.813155526282391E10 ; 0.0
74 ; 9606997.703248948 ; 1.2057290791786237E9 ; 5.798920929579277E8 ; 7.933722565905019E10 ; 0.0
75 ; 9617974.103871914 ; 1.2057877056568341E9 ; 5.894990906611767E8 ; 8.05429547382288E10 ; 0.0
76 ; 9640080.514901254 ; 1.2058462737479973E9 ; 5.991170647650486E8 ; 8.174874244388564E10 ; 0.0
77 ; 9654709.905482978 ; 1.2059047815865648E9 ; 6.087571452799499E8 ; 8.295458871763364E10 ; 0.0
78 ; 9656461.615695719 ; 1.2059632273510735E9 ; 6.184118551854329E8 ; 8.41604934992202E10 ; 0.0
79 ; 9664696.93732744 ; 1.2060216092611542E9 ; 6.280683168011286E8 ; 8.536645672657127E10 ; 0.0
80 ; 9661303.995158598 ; 1.2060799255747912E9 ; 6.37733013738456E8 ; 8.657247833583243E10 ; 0.0
81 ; 9669788.221368665 ; 1.2061381745858107E9 ; 6.473943177336146E8 ; 8.777855826140723E10 ; 0.0
82 ; 9667913.723492961 ; 1.2061963546215699E9 ; 6.570641059549832E8 ; 8.898469643599304E10 ; 0.0
83 ; 9670798.326155284 ; 1.2062544640408378E9 ; 6.667320196784762E8 ; 9.019089279061461E10 ; 0.0
84 ; 9674534.778583575 ; 1.2063125012318425E9 ; 6.764028180046315E8 ; 9.139714725465544E10 ; 0.0
85 ; 9668272.528602045 ; 1.2063704646104727E9 ; 6.86077352783215E8 ; 9.260345975588728E10 ; 0.0
86 ; 9671399.999710653 ; 1.2064283526186192E9 ; 6.95745625311817E8 ; 9.380983022049776E10 ; 0.0
87 ; 9677723.331629843 ; 1.206486163722646E9 ; 7.054170253115277E8 ; 9.501625857311638E10 ; 0.0
88 ; 9679405.204266068 ; 1.206543896411975E9 ; 7.150947486431576E8 ; 9.622274473683902E10 ; 0.0
89 ; 9673411.904963855 ; 1.2066015491977792E9 ; 7.247741538474237E8 ; 9.742928863325099E10 ; 0.0
90 ; 9680200.311733942 ; 1.2066591206117742E9 ; 7.344475657523875E8 ; 9.863589018244878E10 ; 0.0
91 ; 9678547.06081712 ; 1.2067166092050955E9 ; 7.441277660641215E8 ; 9.984254930306055E10 ; 0.0
92 ; 9677543.584010608 ; 1.2067740135472612E9 ; 7.538063131249386E8 ; 1.0104926591226564E11 ; 0.0
93 ; 9669006.709283652 ; 1.2068313322252078E9 ; 7.634838567089492E8 ; 1.022560399258129E11 ; 0.0
94 ; 9670254.113756742 ; 1.206888563842395E9 ; 7.731528634182329E8 ; 1.034628712580381E11 ; 0.0
95 ; 9674086.92121353 ; 1.2069457070179756E9 ; 7.828231175319897E8 ; 1.046697598218805E11 ; 0.0
96 ; 9669131.22903281 ; 1.2070027603860195E9 ; 7.924972044532032E8 ; 1.0587670552889847E11 ; 0.0
97 ; 9666935.005199557 ; 1.2070597225947976E9 ; 8.02166335682236E8 ; 1.0708370828928448E11 ; 0.0
98 ; 9659897.937204927 ; 1.20711659230611E9 ; 8.118332706874355E8 ; 1.0829076801187929E11 ; 0.0
99 ; 9659520.695814058 ; 1.2071733681946616E9 ; 8.214931686246405E8 ; 1.094978846041854E11 ; 0.0
100 ; 9664773.382549778 ; 1.2072300489474814E9 ; 8.311526893204545E8 ; 1.1070505797238005E11 ; 0.0
101 ; 9655817.73701874 ; 1.2072866332633784E9 ; 8.408174627030042E8 ; 1.1191228802132753E11 ; 0.0
102 ; 9646777.02311056 ; 1.2073431198524356E9 ; 8.50473280440023E8 ; 1.1311957465459091E11 ; 0.0
103 ; 9645976.874431051 ; 1.207399507435536E9 ; 8.601200574631335E8 ; 1.1432691777444334E11 ; 0.0
104 ; 9644451.613073861 ; 1.2074557947439208E9 ; 8.697660343375645E8 ; 1.1553431728187888E11 ; 0.0
105 ; 9635208.482611906 ; 1.2075119805187755E9 ; 8.794104859506383E8 ; 1.167417730766228E11 ; 0.0
106 ; 9633668.66381211 ; 1.2075680635108428E9 ; 8.890456944332502E8 ; 1.1794928505714157E11 ; 0.0
107 ; 9626093.045873355 ; 1.2076240424800613E9 ; 8.986793630970623E8 ; 1.1915685312065242E11 ; 0.0
108 ; 9626221.838425646 ; 1.207679916195225E9 ; 9.083054561429358E8 ; 1.2036447716313248E11 ; 0.0
109 ; 9619546.96427259 ; 1.207735683433667E9 ; 9.179316779813614E8 ; 1.215721570793277E11 ; 0.0
110 ; 9613815.862328803 ; 1.2077913429809608E9 ; 9.27551224945634E8 ; 1.2277989276276137E11 ; 0.0
111 ; 9608576.287772838 ; 1.2078468936306424E9 ; 9.371650408079628E8 ; 1.2398768410574232E11 ; 0.0
112 ; 9595090.43411907 ; 1.2079023341839478E9 ; 9.467736170957357E8 ; 1.2519553099937297E11 ; 0.0
113 ; 9595311.863989454 ; 1.2079576634495664E9 ; 9.563687075298548E8 ; 1.2640343333355692E11 ; 0.0
114 ; 9586382.827418314 ; 1.2080128802434132E9 ; 9.659640193938442E8 ; 1.2761139099700648E11 ; 0.0
115 ; 9581563.947835198 ; 1.2080679833884096E9 ; 9.755504022212626E8 ; 1.288194038772499E11 ; 0.0
116 ; 9566068.810060875 ; 1.2081229717142823E9 ; 9.851319661690978E8 ; 1.300274718606383E11 ; 0.0
117 ; 9558997.72890126 ; 1.208177844057371E9 ; 9.946980349791586E8 ; 1.3123559483235258E11 ; 0.0
118 ; 9555057.469665825 ; 1.2082325992604494E9 ; 1.0042570327080599E9 ; 1.3244377267640996E11 ; 0.0
119 ; 9546358.378137914 ; 1.2082872361725578E9 ; 1.0138120901777258E9 ; 1.3365200527567041E11 ; 0.0
120 ; 9537401.334554054 ; 1.2083417536488438E9 ; 1.0233584485558637E9 ; 1.3486029251184297E11 ; 0.0
121 ; 9522671.248127185 ; 1.2083961505504124E9 ; 1.0328958498904178E9 ; 1.3606863426549182E11 ; 0.0
122 ; 9518600.371605925 ; 1.2084504257441878E9 ; 1.042418521138545E9 ; 1.3727703041604224E11 ; 0.0
123 ; 9507034.694880694 ; 1.2085045781027803E9 ; 1.0519371215101509E9 ; 1.3848548084178644E11 ; 0.0
124 ; 9500096.080893893 ; 1.208558606504364E9 ; 1.0614441562050316E9 ; 1.3969398541988922E11 ; 0.0
125 ; 9491932.771225153 ; 1.2086125098325586E9 ; 1.0709442522859255E9 ; 1.409025440263936E11 ; 0.0
126 ; 9482008.30271976 ; 1.2086662869763212E9 ; 1.0804361850571506E9 ; 1.4211115653622614E11 ; 0.0
127 ; 9463320.408199755 ; 1.208719936829842E9 ; 1.0899181933598704E9 ; 1.4331982282320245E11 ; 0.0
128 ; 9462203.31635031 ; 1.2087734582924488E9 ; 1.0993815137680702E9 ; 1.445285427600323E11 ; 0.0
129 ; 9457009.69231435 ; 1.2088268502685153E9 ; 1.1088437170844204E9 ; 1.4573731621832474E11 ; 0.0
130 ; 9429942.186975857 ; 1.2088801116673756E9 ; 1.1183007267767348E9 ; 1.4694614306859326E11 ; 0.0
131 ; 9406710.763347302 ; 1.2089332414032416E9 ; 1.1277306689637108E9 ; 1.4815502318026065E11 ; 0.0
132 ; 9379067.034103826 ; 1.208986238395131E9 ; 1.1371373797270582E9 ; 1.4936395642166388E11 ; 0.0
133 ; 9348912.21657861 ; 1.2090391015667937E9 ; 1.146516446761162E9 ; 1.5057294266005902E11 ; 0.0
134 ; 9330493.167052241 ; 1.2090918298466444E9 ; 1.1558653589777408E9 ; 1.5178198176162582E11 ; 0.0
135 ; 9299009.477645982 ; 1.2091444221677012E9 ; 1.165195852144793E9 ; 1.5299107359147247E11 ; 0.0
136 ; 9278444.553638143 ; 1.209196877467526E9 ; 1.174494861622439E9 ; 1.5420021801364017E11 ; 0.0
137 ; 9249449.193754295 ; 1.2092491946881688E9 ; 1.1837733061760771E9 ; 1.554094148911077E11 ; 0.0
138 ; 9223779.258374233 ; 1.2093013727761161E9 ; 1.1930227553698313E9 ; 1.5661866408579587E11 ; 0.0
139 ; 9197783.520226795 ; 1.2093534106822424E9 ; 1.2022465346282055E9 ; 1.57827965458572E11 ; 0.0
140 ; 9167386.761698915 ; 1.2094053073617628E9 ; 1.2114443181484323E9 ; 1.5903731886925424E11 ; 0.0
141 ; 9142044.668550918 ; 1.2094570617741926E9 ; 1.2206117049101312E9 ; 1.60246724176616E11 ; 0.0
142 ; 9112797.012609554 ; 1.2095086728833053E9 ; 1.2297537495786822E9 ; 1.614561812383902E11 ; 0.0
143 ; 9084640.795201965 ; 1.2095601396570964E9 ; 1.2388665465912917E9 ; 1.626656899112735E11 ; 0.0
144 ; 9051672.592659822 ; 1.2096114610677466E9 ; 1.2479511873864937E9 ; 1.638752500509306E11 ; 0.0
145 ; 9039613.3587238 ; 1.209662636091591E9 ; 1.2570028599791534E9 ; 1.6508486151199835E11 ; 0.0
146 ; 9028790.10635845 ; 1.2097136637090874E9 ; 1.2660424733378773E9 ; 1.6629452414808994E11 ; 0.0
147 ; 9024098.408150624 ; 1.2097645429047883E9 ; 1.2750712634442358E9 ; 1.67504237811799E11 ; 0.0
148 ; 9003225.001300935 ; 1.2098152726673138E9 ; 1.2840953618523865E9 ; 1.687140023547038E11 ; 0.0
149 ; 8997945.181187093 ; 1.2098658519893281E9 ; 1.2930985868536875E9 ; 1.6992381762737112E11 ; 0.0
150 ; 8978366.497775696 ; 1.209916279867515E9 ; 1.3020965320348747E9 ; 1.7113368347936044E11 ; 0.0
151 ; 8973430.980047684 ; 1.2099665553025591E9 ; 1.3110748985326505E9 ; 1.7234359975922797E11 ; 0.0
152 ; 8957759.730068507 ; 1.2100166772991235E9 ; 1.3200483295126982E9 ; 1.7355356631453052E11 ; 0.0
153 ; 8948394.800981432 ; 1.2100666448658342E9 ; 1.3290060892427666E9 ; 1.7476358299182965E11 ; 0.0
154 ; 8939394.784775976 ; 1.2101164570152621E9 ; 1.3379544840437481E9 ; 1.759736496366955E11 ; 0.0
155 ; 8926389.779872261 ; 1.210166112763908E9 ; 1.346893878828524E9 ; 1.7718376609371075E11 ; 0.0
156 ; 8911847.871484065 ; 1.2102156111321893E9 ; 1.3558202686083963E9 ; 1.7839393220647467E11 ; 0.0
157 ; 8899221.051690489 ; 1.2102649511444273E9 ; 1.3647321164798803E9 ; 1.7960414781760687E11 ; 0.0
158 ; 8885995.362555677 ; 1.2103141318288345E9 ; 1.373631337531571E9 ; 1.808144127687513E11 ; 0.0
159 ; 8874600.349448211 ; 1.2103631522175062E9 ; 1.3825173328941267E9 ; 1.8202472690058014E11 ; 0.0
160 ; 8858817.02702877 ; 1.210412011346409E9 ; 1.3913919332435749E9 ; 1.8323509005279764E11 ; 0.0
161 ; 8850323.920774508 ; 1.2104607082553747E9 ; 1.4002507502706037E9 ; 1.8444550206414404E11 ; 0.0
162 ; 8835874.219053695 ; 1.2105092419880915E9 ; 1.409101074191378E9 ; 1.856559627723994E11 ; 0.0
163 ; 8825752.573078237 ; 1.210557611592098E9 ; 1.4179369484104319E9 ; 1.868664720143875E11 ; 0.0
164 ; 8810774.94499469 ; 1.2106058161187782E9 ; 1.42676270098351E9 ; 1.880770296259796E11 ; 0.0
165 ; 8804672.84925433 ; 1.2106538546233563E9 ; 1.4355734759285047E9 ; 1.892876354420984E11 ; 0.0
166 ; 8789875.81362923 ; 1.210701726164893E9 ; 1.444378148777759E9 ; 1.9049828929672174E11 ; 0.0
167 ; 8769407.522264965 ; 1.2107494298062816E9 ; 1.4531680245913882E9 ; 1.9170899102288663E11 ; 0.0
168 ; 8759197.613882393 ; 1.2107969646142464E9 ; 1.4619374321136532E9 ; 1.929197404526929E11 ; 0.0
169 ; 8750548.949113969 ; 1.2108443296593423E9 ; 1.4706966297275355E9 ; 1.9413053741730716E11 ; 0.0
170 ; 8735587.456794988 ; 1.2108915240159502E9 ; 1.4794471786766496E9 ; 1.953413817469665E11 ; 0.0
171 ; 8725143.858492685 ; 1.2109385467622795E9 ; 1.4881827661334445E9 ; 1.9655227327098245E11 ; 0.0
172 ; 8710572.331446221 ; 1.2109853969803674E9 ; 1.4969079099919372E9 ; 1.9776321181774472E11 ; 0.0
173 ; 8689857.249605335 ; 1.2110320737560787E9 ; 1.5056184823233833E9 ; 1.989741972147251E11 ; 0.0
174 ; 8691033.71418569 ; 1.2110785761791089E9 ; 1.5143083395729887E9 ; 2.0018522928848117E11 ; 0.0
175 ; 8682263.487966955 ; 1.2111249033429835E9 ; 1.5229993732871745E9 ; 2.0139630786466028E11 ; 0.0
176 ; 8670205.631017625 ; 1.2111710543450623E9 ; 1.5316816367751415E9 ; 2.0260743276800327E11 ; 0.0
177 ; 8658049.574428609 ; 1.211217028286541E9 ; 1.5403518424061592E9 ; 2.0381860382234833E11 ; 0.0
178 ; 8654419.026853789 ; 1.2112628242724545E9 ; 1.5490098919805877E9 ; 2.0502982085063486E11 ; 0.0
179 ; 8643527.479822895 ; 1.2113084414116807E9 ; 1.5576643110074415E9 ; 2.0624108367490732E11 ; 0.0
180 ; 8633192.98203261 ; 1.2113538788169436E9 ; 1.5663078384872644E9 ; 2.07452392116319E11 ; 0.0
181 ; 8626948.480699966 ; 1.2113991356048193E9 ; 1.574941031469297E9 ; 2.0866374599513596E11 ; 0.0
182 ; 8615968.640383596 ; 1.2114442108957386E9 ; 1.583567979949997E9 ; 2.0987514513074078E11 ; 0.0
183 ; 8609566.30727203 ; 1.211489103813993E9 ; 1.5921839485903804E9 ; 2.1108658934163654E11 ; 0.0
184 ; 8602901.330764811 ; 1.2115338134877405E9 ; 1.6007935148976524E9 ; 2.1229807844545053E11 ; 0.0
185 ; 8591913.90182295 ; 1.2115783390490103E9 ; 1.6093964162284172E9 ; 2.1350961225893826E11 ; 0.0
186 ; 8582835.453830559 ; 1.2116226796337094E9 ; 1.6179883301302402E9 ; 2.1472119059798727E11 ; 0.0
187 ; 8572946.059477895 ; 1.211666834381629E9 ; 1.6265711655840707E9 ; 2.1593281327762097E11 ; 0.0
188 ; 8570013.55634201 ; 1.2117108024364495E9 ; 1.6351441116435485E9 ; 2.171444801120026E11 ; 0.0
189 ; 8562217.943677278 ; 1.211754582945749E9 ; 1.6437141251998906E9 ; 2.1835619091443906E11 ; 0.0
190 ; 8555392.570225887 ; 1.2117981750610101E9 ; 1.6522763431435678E9 ; 2.195679454973848E11 ; 0.0
191 ; 8541256.409656063 ; 1.2118415779376256E9 ; 1.6608317357137938E9 ; 2.207797436724458E11 ; 0.0
192 ; 8537923.272653764 ; 1.2118847907349076E9 ; 1.6693729921234498E9 ; 2.2199158525038342E11 ; 0.0
193 ; 8534734.3906794 ; 1.211927812616094E9 ; 1.6779109153961036E9 ; 2.2320347004111832E11 ; 0.0
194 ; 8518763.153905844 ; 1.2119706427483578E9 ; 1.686445649786783E9 ; 2.244153978537344E11 ; 0.0
195 ; 8510311.011780255 ; 1.212013280302812E9 ; 1.6949644129406888E9 ; 2.2562736849648276E11 ; 0.0
196 ; 8497767.378393773 ; 1.2120557244545226E9 ; 1.703474723952469E9 ; 2.2683938177678558E11 ; 0.0
197 ; 8494622.678794274 ; 1.2120979743825123E9 ; 1.711972491330863E9 ; 2.280514375012401E11 ; 0.0
198 ; 8481389.485377094 ; 1.2121400292697713E9 ; 1.7204671140096574E9 ; 2.2926353547562262E11 ; 0.0
199 ; 8471583.930687748 ; 1.2121818883032663E9 ; 1.7289485034950345E9 ; 2.304756755048924E11 ; 0.0
200 ; 8465573.999387085 ; 1.212223550673948E9 ; 1.7374200874257221E9 ; 2.3168785739319565E11 ; 0.0
