CSV File for the Network on Day 252
1 - Minute m 
2 - Power Consumed at minute m 
3 - Power Produced at minute m 
4 - Energy Consumed since the beginning of the day 
5 - Energy Produced since the beginning of the day 
6 - Energy Lost since the beginning of the day 
 
0 ; 9264839.539269652 ; 6.335630693380901E8 ; 0.0 ; 0.0 ; 0.0
1 ; 9296182.943519164 ; 6.344713228858163E8 ; 9264839.539269652 ; 6.335630693380901E8 ; 0.0
2 ; 9337015.028214864 ; 6.372331815358428E8 ; 1.8561022482788816E7 ; 1.2680343922239065E9 ; 0.0
3 ; 9383957.093093581 ; 6.418486793816314E8 ; 2.789803751100368E7 ; 1.9052675737597494E9 ; 0.0
4 ; 9436554.44830025 ; 6.483178473995522E8 ; 3.728199460409726E7 ; 2.547116253141381E9 ; 0.0
5 ; 9501285.373827267 ; 6.566407131405361E8 ; 4.671854905239751E7 ; 3.195434100540933E9 ; 0.0
6 ; 9590763.4408919 ; 6.668173004457381E8 ; 5.621983442622478E7 ; 3.852074813681469E9 ; 0.0
7 ; 9715575.173503228 ; 6.78847629192756E8 ; 6.581059786711668E7 ; 4.518892114127207E9 ; 0.0
8 ; 9903210.367711632 ; 6.927317150785122E8 ; 7.552617304061991E7 ; 5.1977397433199625E9 ; 0.0
9 ; 1.018165100617034E7 ; 7.08469569444225E8 ; 8.542938340833154E7 ; 5.890471458398475E9 ; 0.0
10 ; 1.061338732079242E7 ; 7.260611991469781E8 ; 9.561103441450188E7 ; 6.5989410278427E9 ; 0.0
11 ; 1.1299003384031963E7 ; 7.455066064812622E8 ; 1.062244217352943E8 ; 7.325002226989678E9 ; 0.0
12 ; 1.2401127844220443E7 ; 7.668057891525863E8 ; 1.1752342511932626E8 ; 8.070508833470941E9 ; 0.0
13 ; 1.3471106337023541E7 ; 7.899587403038671E8 ; 1.2992455296354671E8 ; 8.837314622623528E9 ; 0.0
14 ; 1.3584711705859218E7 ; 8.149654485938864E8 ; 1.4339565930057025E8 ; 9.627273362927395E9 ; 0.0
15 ; 1.3635023449481897E7 ; 8.41825898325721E8 ; 1.5698037100642946E8 ; 1.0442238811521282E10 ; 0.0
16 ; 1.3685946897364832E7 ; 8.705400696217744E8 ; 1.7061539445591137E8 ; 1.1284064709847004E10 ; 0.0
17 ; 1.3723723616161633E7 ; 9.011079386408907E8 ; 1.843013413532762E8 ; 1.2154604779468779E10 ; 0.0
18 ; 1.3779446777598288E7 ; 9.335294778321393E8 ; 1.9802506496943784E8 ; 1.3055712718109669E10 ; 0.0
19 ; 1.382451945420616E7 ; 9.678046562191497E8 ; 2.1180451174703613E8 ; 1.3989242195941809E10 ; 0.0
20 ; 1.387929990285718E7 ; 1.0039334397084602E9 ; 2.256290312012423E8 ; 1.495704685216096E10 ; 0.0
21 ; 1.3925091752324171E7 ; 1.041915791415162E9 ; 2.3950833110409948E8 ; 1.596098029186942E10 ; 0.0
22 ; 1.3977629674934972E7 ; 1.0817516719991915E9 ; 2.5343342285642365E8 ; 1.700289608328458E10 ; 0.0
23 ; 1.4026597814426664E7 ; 1.123441040005905E9 ; 2.6741105253135863E8 ; 1.808464775528377E10 ; 0.0
24 ; 1.4073990213237258E7 ; 1.1669838522050261E9 ; 2.814376503457853E8 ; 1.9208088795289677E10 ; 0.0
25 ; 1.4123873758989248E7 ; 1.2045083093117743E9 ; 2.955116405590226E8 ; 2.03750726474947E10 ; 0.0
26 ; 1.4170314702731915E7 ; 1.204535652528743E9 ; 3.096355143180119E8 ; 2.1579580956806477E10 ; 0.0
27 ; 1.4216365668739751E7 ; 1.2045644510004628E9 ; 3.238058290207438E8 ; 2.278411660933522E10 ; 0.0
28 ; 1.4258927774430815E7 ; 1.2045946575807614E9 ; 3.380221946894835E8 ; 2.3988681060335682E10 ; 0.0
29 ; 1.431963437797302E7 ; 1.2046262248582475E9 ; 3.5228112246391433E8 ; 2.5193275717916443E10 ; 0.0
30 ; 1.4362249086598426E7 ; 1.204659105400039E9 ; 3.6660075684188735E8 ; 2.639790194277469E10 ; 0.0
31 ; 1.4413614839547172E7 ; 1.2046932519723E9 ; 3.8096300592848575E8 ; 2.760256104817473E10 ; 0.0
32 ; 1.4454420882692266E7 ; 1.2047286177372682E9 ; 3.953766207680329E8 ; 2.880725430014703E10 ; 0.0
33 ; 1.4503211891981717E7 ; 1.2047651564269545E9 ; 4.098310416507252E8 ; 3.0011982917884296E10 ; 0.0
34 ; 1.453619345356099E7 ; 1.2048028224941256E9 ; 4.243342535427069E8 ; 3.1216748074311253E10 ; 0.0
35 ; 1.4583732430722795E7 ; 1.2048415712415032E9 ; 4.388704469962679E8 ; 3.2421550896805378E10 ; 0.0
36 ; 1.462140594791422E7 ; 1.2048813589303825E9 ; 4.534541794269907E8 ; 3.3626392468046883E10 ; 0.0
37 ; 1.4663455672870174E7 ; 1.2049221428700418E9 ; 4.6807558537490493E8 ; 3.4831273826977264E10 ; 0.0
38 ; 1.4698836481574915E7 ; 1.20496388148945E9 ; 4.827390410477751E8 ; 3.6036195969847305E10 ; 0.0
39 ; 1.4730733555499626E7 ; 1.205006534392821E9 ; 4.9743787752935E8 ; 3.7241159851336754E10 ; 0.0
40 ; 1.4765039870084792E7 ; 1.2050500624006095E9 ; 5.121686110848496E8 ; 3.8446166385729576E10 ; 0.0
41 ; 1.4803440061792422E7 ; 1.2050944275774894E9 ; 5.2693365095493436E8 ; 3.965121644813019E10 ; 0.0
42 ; 1.4832593239775553E7 ; 1.2051395932488344E9 ; 5.417370910167267E8 ; 4.085631087570768E10 ; 0.0
43 ; 1.4857854159895E7 ; 1.2051855240071344E9 ; 5.565696842565023E8 ; 4.206145046895651E10 ; 0.0
44 ; 1.4884761202506334E7 ; 1.2052321857096965E9 ; 5.714275384163972E8 ; 4.3266635992963646E10 ; 0.0
45 ; 1.4915564374282781E7 ; 1.2052795454688823E9 ; 5.863122996189035E8 ; 4.447186817867334E10 ; 0.0
46 ; 1.4938502944481418E7 ; 1.2053275716360354E9 ; 6.012278639931864E8 ; 4.567714772414222E10 ; 0.0
47 ; 1.4955710076957464E7 ; 1.2053762337801359E9 ; 6.161663669376677E8 ; 4.688247529577825E10 ; 0.0
48 ; 1.4982374516920902E7 ; 1.2054255026621335E9 ; 6.311220770146252E8 ; 4.808785152955839E10 ; 0.0
49 ; 1.4994735248327255E7 ; 1.205475350205788E9 ; 6.461044515315461E8 ; 4.929327703222052E10 ; 0.0
50 ; 1.5020202587850321E7 ; 1.2055257494657695E9 ; 6.610991867798734E8 ; 5.049875238242631E10 ; 0.0
51 ; 1.5032185495972008E7 ; 1.2055766745936704E9 ; 6.761193893677237E8 ; 5.1704278131892075E10 ; 0.0
52 ; 1.504063448353764E7 ; 1.2056281008024962E9 ; 6.911515748636957E8 ; 5.290985480648575E10 ; 0.0
53 ; 1.5060897868581187E7 ; 1.2056800043301332E9 ; 7.061922093472334E8 ; 5.4115482907288246E10 ; 0.0
54 ; 1.5070615648319088E7 ; 1.2057323624022136E9 ; 7.212531072158146E8 ; 5.532116291161838E10 ; 0.0
55 ; 1.50872389792105E7 ; 1.2057851531947374E9 ; 7.363237228641337E8 ; 5.652689527402059E10 ; 0.0
56 ; 1.5092841003546983E7 ; 1.2058383557967596E9 ; 7.514109618433442E8 ; 5.773268042721533E10 ; 0.0
57 ; 1.5116506080833223E7 ; 1.2058919501733902E9 ; 7.665038028468912E8 ; 5.893851878301209E10 ; 0.0
58 ; 1.5130451986461401E7 ; 1.205945917129321E9 ; 7.816203089277244E8 ; 6.0144410733185486E10 ; 0.0
59 ; 1.5138284066939956E7 ; 1.2060002382730465E9 ; 7.967507609141858E8 ; 6.1350356650314804E10 ; 0.0
60 ; 1.5149300511033174E7 ; 1.206054895981916E9 ; 8.118890449811257E8 ; 6.255635688858785E10 ; 0.0
61 ; 1.5164678390646707E7 ; 1.2061098733681228E9 ; 8.270383454921589E8 ; 6.376241178456977E10 ; 0.0
62 ; 1.5175627708905067E7 ; 1.2061651542457151E9 ; 8.422030238828056E8 ; 6.49685216579379E10 ; 0.0
63 ; 1.5184115207530994E7 ; 1.206220723098683E9 ; 8.573786515917107E8 ; 6.617468681218361E10 ; 0.0
64 ; 1.5199858198989049E7 ; 1.206276565050165E9 ; 8.725627667992417E8 ; 6.7380907535282295E10 ; 0.0
65 ; 1.5208860677749654E7 ; 1.2063326658328004E9 ; 8.877626249982307E8 ; 6.858718410033246E10 ; 0.0
66 ; 1.5221491528359726E7 ; 1.2063890117602372E9 ; 9.029714856759803E8 ; 6.979351676616525E10 ; 0.0
67 ; 1.5225925513911087E7 ; 1.206445589699799E9 ; 9.181929772043401E8 ; 7.099990577792549E10 ; 0.0
68 ; 1.5241453232265731E7 ; 1.206502387046301E9 ; 9.334189027182512E8 ; 7.220635136762529E10 ; 0.0
69 ; 1.5244350263896206E7 ; 1.2065593916969974E9 ; 9.486603559505169E8 ; 7.341285375467159E10 ; 0.0
70 ; 1.52625417660893E7 ; 1.206616592027649E9 ; 9.639047062144132E8 ; 7.461941314636858E10 ; 0.0
71 ; 1.526184818357293E7 ; 1.206673976869669E9 ; 9.791672479805025E8 ; 7.582602973839622E10 ; 0.0
72 ; 1.5276744773574008E7 ; 1.2067315354883316E9 ; 9.944290961640754E8 ; 7.70327037152659E10 ; 0.0
73 ; 1.5283214091055198E7 ; 1.206789257562004E9 ; 1.0097058409376494E9 ; 7.823943525075423E10 ; 0.0
74 ; 1.5287180953885052E7 ; 1.2068471331623676E9 ; 1.0249890550287045E9 ; 7.944622450831622E10 ; 0.0
75 ; 1.5304305556276321E7 ; 1.2069051527355938E9 ; 1.0402762359825896E9 ; 8.065307164147859E10 ; 0.0
76 ; 1.5306230601869913E7 ; 1.2069633070844383E9 ; 1.0555805415388659E9 ; 8.185997679421419E10 ; 0.0
77 ; 1.5310852950378297E7 ; 1.2070215873512154E9 ; 1.0708867721407359E9 ; 8.306694010129863E10 ; 0.0
78 ; 1.5307443566914119E7 ; 1.2070799850016148E9 ; 1.086197625091114E9 ; 8.427396168864984E10 ; 0.0
79 ; 1.5294366217527637E7 ; 1.2071384918093278E9 ; 1.1015050686580281E9 ; 8.548104167365146E10 ; 0.0
80 ; 1.529728039287244E7 ; 1.2071970998414416E9 ; 1.1167994348755558E9 ; 8.668818016546078E10 ; 0.0
81 ; 1.5282469940008817E7 ; 1.2072558014445689E9 ; 1.132096715268428E9 ; 8.789537726530223E10 ; 0.0
82 ; 1.5281057506780144E7 ; 1.20731458923168E9 ; 1.147379185208437E9 ; 8.91026330667468E10 ; 0.0
83 ; 1.52731087199221E7 ; 1.2073734560695992E9 ; 1.162660242715217E9 ; 9.030994765597847E10 ; 0.0
84 ; 1.5267977095172409E7 ; 1.2074323950671384E9 ; 1.1779333514351392E9 ; 9.151732111204807E10 ; 0.0
85 ; 1.5254815008977097E7 ; 1.2074913995638304E9 ; 1.1932013285303116E9 ; 9.27247535071152E10 ; 0.0
86 ; 1.5250001103899442E7 ; 1.2075504631192367E9 ; 1.2084561435392888E9 ; 9.393224490667903E10 ; 0.0
87 ; 1.5247951219026133E7 ; 1.207609579502801E9 ; 1.2237061446431882E9 ; 9.513979536979826E10 ; 0.0
88 ; 1.5226365264769055E7 ; 1.2076687426842144E9 ; 1.2389540958622143E9 ; 9.634740494930107E10 ; 0.0
89 ; 1.5221904712870525E7 ; 1.2077279468242745E9 ; 1.2541804611269834E9 ; 9.755507369198529E10 ; 0.0
90 ; 1.5209595608825825E7 ; 1.2077871862662053E9 ; 1.269402365839854E9 ; 9.876280163880957E10 ; 0.0
91 ; 1.520802460807338E7 ; 1.2078464555274198E9 ; 1.28461196144868E9 ; 9.997058882507578E10 ; 0.0
92 ; 1.5189387712919308E7 ; 1.2079057492916968E9 ; 1.2998199860567534E9 ; 1.011784352806032E11 ; 0.0
93 ; 1.518289111544414E7 ; 1.2079650624017556E9 ; 1.3150093737696726E9 ; 1.023863410298949E11 ; 0.0
94 ; 1.5163710426843274E7 ; 1.2080243898522031E9 ; 1.3301922648851168E9 ; 1.0359430609229665E11 ; 0.0
95 ; 1.5157393587101877E7 ; 1.208083726782836E9 ; 1.34535597531196E9 ; 1.0480233048214885E11 ; 0.0
96 ; 1.514442837345858E7 ; 1.2081430684722784E9 ; 1.360513368899062E9 ; 1.0601041420893169E11 ; 0.0
97 ; 1.5138119163497347E7 ; 1.2082024103319387E9 ; 1.3756577972725205E9 ; 1.0721855727740396E11 ; 0.0
98 ; 1.5128214672337987E7 ; 1.2082617479002655E9 ; 1.390795916436018E9 ; 1.084267596877359E11 ; 0.0
99 ; 1.510232251244501E7 ; 1.2083210768372908E9 ; 1.405924131108356E9 ; 1.0963502143563617E11 ; 0.0
100 ; 1.5094225912093982E7 ; 1.2083803929194422E9 ; 1.421026453620801E9 ; 1.1084334251247346E11 ; 0.0
101 ; 1.5084528791547779E7 ; 1.2084396920346105E9 ; 1.4361206795328948E9 ; 1.1205172290539291E11 ; 0.0
102 ; 1.506925502541237E7 ; 1.2084989701774614E9 ; 1.4512052083244426E9 ; 1.1326016259742752E11 ; 0.0
103 ; 1.5061714851750776E7 ; 1.2085582234449735E9 ; 1.466274463349855E9 ; 1.1446866156760498E11 ; 0.0
104 ; 1.503947227942637E7 ; 1.2086174480321975E9 ; 1.4813361782016058E9 ; 1.1567721979104996E11 ; 0.0
105 ; 1.503629653494488E7 ; 1.2086766402282171E9 ; 1.4963756504810321E9 ; 1.1688583723908215E11 ; 0.0
106 ; 1.5015617756462522E7 ; 1.2087357964123106E9 ; 1.511411947015977E9 ; 1.1809451387931036E11 ; 0.0
107 ; 1.5001300456601083E7 ; 1.2087949130502899E9 ; 1.5264275647724395E9 ; 1.1930324967572267E11 ; 0.0
108 ; 1.4979658436779965E7 ; 1.208853986691022E9 ; 1.5414288652290406E9 ; 1.2051204458877296E11 ; 0.0
109 ; 1.4970566200669732E7 ; 1.2089130139631114E9 ; 1.5564085236658206E9 ; 1.2172089857546399E11 ; 0.0
110 ; 1.4955771023165978E7 ; 1.208971991571744E9 ; 1.5713790898664904E9 ; 1.229298115894271E11 ; 0.0
111 ; 1.4933846692199694E7 ; 1.209030916295675E9 ; 1.5863348608896563E9 ; 1.2413878358099884E11 ; 0.0
112 ; 1.4919156994750034E7 ; 1.209089784984365E9 ; 1.601268707581856E9 ; 1.2534781449729451E11 ; 0.0
113 ; 1.4896099498149911E7 ; 1.209148594555244E9 ; 1.616187864576606E9 ; 1.2655690428227887E11 ; 0.0
114 ; 1.4882604841477536E7 ; 1.2092073419911072E9 ; 1.631083964074756E9 ; 1.277660528768341E11 ; 0.0
115 ; 1.4862611825758338E7 ; 1.2092660243376303E9 ; 1.6459665689162335E9 ; 1.2897526021882521E11 ; 0.0
116 ; 1.4846209096361909E7 ; 1.2093246387009974E9 ; 1.660829180741992E9 ; 1.3018452624316284E11 ; 0.0
117 ; 1.4830449437229171E7 ; 1.209383182245642E9 ; 1.6756753898383539E9 ; 1.3139385088186385E11 ; 0.0
118 ; 1.4815784494122837E7 ; 1.2094416521920884E9 ; 1.690505839275583E9 ; 1.3260323406410948E11 ; 0.0
119 ; 1.4791534026003394E7 ; 1.2095000458148901E9 ; 1.7053216237697058E9 ; 1.3381267571630157E11 ; 0.0
120 ; 1.4773239509126537E7 ; 1.2095583604406664E9 ; 1.7201131577957091E9 ; 1.3502217576211647E11 ; 0.0
121 ; 1.4753977772989348E7 ; 1.209616593446222E9 ; 1.7348863973048356E9 ; 1.3623173412255714E11 ; 0.0
122 ; 1.4734303567150138E7 ; 1.2096747422567549E9 ; 1.7496403750778248E9 ; 1.3744135071600336E11 ; 0.0
123 ; 1.47073898215366E7 ; 1.2097328043441408E9 ; 1.764374678644975E9 ; 1.386510254582601E11 ; 0.0
124 ; 1.4689462597797774E7 ; 1.209790777225298E9 ; 1.7790820684665115E9 ; 1.3986075826260425E11 ; 0.0
125 ; 1.4671848808058467E7 ; 1.20984865846062E9 ; 1.7937715310643094E9 ; 1.4107054903982956E11 ; 0.0
126 ; 1.464647428267353E7 ; 1.2099064456524801E9 ; 1.8084433798723679E9 ; 1.422803976982902E11 ; 0.0
127 ; 1.4627596935728725E7 ; 1.2099641364438007E9 ; 1.8230898541550415E9 ; 1.4349030414394266E11 ; 0.0
128 ; 1.4605860622503838E7 ; 1.2100217285166838E9 ; 1.8377174510907702E9 ; 1.4470026828038644E11 ; 0.0
129 ; 1.4585556462850723E7 ; 1.2100792195911014E9 ; 1.852323311713274E9 ; 1.4591029000890314E11 ; 0.0
130 ; 1.4550437928415377E7 ; 1.2101366074236436E9 ; 1.8669088681761248E9 ; 1.4712036922849423E11 ; 0.0
131 ; 1.4519917750097122E7 ; 1.2101938898063197E9 ; 1.88145930610454E9 ; 1.4833050583591788E11 ; 0.0
132 ; 1.4481862484141143E7 ; 1.210251064565408E9 ; 1.8959792238546371E9 ; 1.4954069972572418E11 ; 0.0
133 ; 1.4448222676125897E7 ; 1.2103081295603595E9 ; 1.9104610863387783E9 ; 1.5075095079028958E11 ; 0.0
134 ; 1.4417466355799977E7 ; 1.2103650826827433E9 ; 1.9249093090149043E9 ; 1.5196125891984995E11 ; 0.0
135 ; 1.4377333415894123E7 ; 1.2104219218552384E9 ; 1.9393267753707042E9 ; 1.5317162400253268E11 ; 0.0
136 ; 1.4337598515581097E7 ; 1.2104786450306683E9 ; 1.9537041087865982E9 ; 1.543820459243879E11 ; 0.0
137 ; 1.4298153496860497E7 ; 1.210535250191075E9 ; 1.9680417073021793E9 ; 1.5559252456941858E11 ; 0.0
138 ; 1.426649577197444E7 ; 1.2105917353468308E9 ; 1.9823398607990398E9 ; 1.5680305981960965E11 ; 0.0
139 ; 1.4229283952752452E7 ; 1.210648098535789E9 ; 1.9966063565710142E9 ; 1.5801365155495648E11 ; 0.0
140 ; 1.4188143430416636E7 ; 1.2107043378224657E9 ; 2.0108356405237665E9 ; 1.5922429965349228E11 ; 0.0
141 ; 1.4151407079766255E7 ; 1.2107604512972603E9 ; 2.025023783954183E9 ; 1.6043500399131476E11 ; 0.0
142 ; 1.4112074354267273E7 ; 1.2108164370757031E9 ; 2.0391751910339494E9 ; 1.6164576444261203E11 ; 0.0
143 ; 1.4069022561098695E7 ; 1.210872293297736E9 ; 2.0532872653882167E9 ; 1.6285658087968774E11 ; 0.0
144 ; 1.4030291141349893E7 ; 1.2109280181270206E9 ; 2.0673562879493155E9 ; 1.6406745317298547E11 ; 0.0
145 ; 1.4010949487249637E7 ; 1.210983609750276E9 ; 2.0813865790906653E9 ; 1.652783811911125E11 ; 0.0
146 ; 1.3986840574296825E7 ; 1.2110390663766425E9 ; 2.095397528577915E9 ; 1.6648936480086276E11 ; 0.0
147 ; 1.3969724960066069E7 ; 1.2110943862370684E9 ; 2.1093843691522117E9 ; 1.677004038672394E11 ; 0.0
148 ; 1.3946627531536981E7 ; 1.211149567583725E9 ; 2.1233540941122777E9 ; 1.6891149825347647E11 ; 0.0
149 ; 1.3917485742218472E7 ; 1.211204608689442E9 ; 2.1373007216438148E9 ; 1.7012264782106018E11 ; 0.0
150 ; 1.3894600875735847E7 ; 1.211259507847165E9 ; 2.151218207386033E9 ; 1.7133385242974963E11 ; 0.0
151 ; 1.3872375592459202E7 ; 1.211314263369437E9 ; 2.165112808261769E9 ; 1.725451119375968E11 ; 0.0
152 ; 1.3849104626428764E7 ; 1.2113688735878963E9 ; 2.178985183854228E9 ; 1.7375642620096625E11 ; 0.0
153 ; 1.3823728008504445E7 ; 1.211423336852797E9 ; 2.1928342884806566E9 ; 1.7496779507455414E11 ; 0.0
154 ; 1.3800389185588073E7 ; 1.2114776515325475E9 ; 2.206658016489161E9 ; 1.7617921841140692E11 ; 0.0
155 ; 1.3773246111801228E7 ; 1.2115318160132637E9 ; 2.220458405674749E9 ; 1.7739069606293948E11 ; 0.0
156 ; 1.3755185244115446E7 ; 1.2115858286983447E9 ; 2.23423165178655E9 ; 1.7860222787895276E11 ; 0.0
157 ; 1.3725868427021245E7 ; 1.211639688008061E9 ; 2.2479868370306654E9 ; 1.798138137076511E11 ; 0.0
158 ; 1.3707885618336495E7 ; 1.2116933923791575E9 ; 2.2617127054576864E9 ; 1.8102545339565915E11 ; 0.0
159 ; 1.3680701880743021E7 ; 1.2117469402644775E9 ; 2.275420591076023E9 ; 1.822371467880383E11 ; 0.0
160 ; 1.366064675214982E7 ; 1.2118003301325917E9 ; 2.289101292956766E9 ; 1.8344889372830276E11 ; 0.0
161 ; 1.3634034909050154E7 ; 1.2118535604674506E9 ; 2.3027619397089157E9 ; 1.8466069405843536E11 ; 0.0
162 ; 1.3612618778058197E7 ; 1.2119066297680426E9 ; 2.3163959746179657E9 ; 1.858725476189028E11 ; 0.0
163 ; 1.35894195699258E7 ; 1.2119595365480704E9 ; 2.3300085933960238E9 ; 1.8708445424867084E11 ; 0.0
164 ; 1.3563659677946925E7 ; 1.2120122793356354E9 ; 2.3435980129659495E9 ; 1.882964137852189E11 ; 0.0
165 ; 1.3539364180732261E7 ; 1.212064856672935E9 ; 2.3571616726438966E9 ; 1.8950842606455453E11 ; 0.0
166 ; 1.3514071833502388E7 ; 1.2121172671159742E9 ; 2.370701036824629E9 ; 1.9072049092122748E11 ; 0.0
167 ; 1.3499270408526989E7 ; 1.2121695092342818E9 ; 2.384215108658131E9 ; 1.9193260818834344E11 ; 0.0
168 ; 1.3471621016275253E7 ; 1.212221581610643E9 ; 2.397714379066658E9 ; 1.9314477769757773E11 ; 0.0
169 ; 1.3441569683576342E7 ; 1.212273482840838E9 ; 2.4111860000829334E9 ; 1.943569992791884E11 ; 0.0
170 ; 1.3411802275497792E7 ; 1.2123252115333922E9 ; 2.4246275697665095E9 ; 1.9556927276202924E11 ; 0.0
171 ; 1.3395000998743486E7 ; 1.2123767663093338E9 ; 2.4380393720420074E9 ; 1.9678159797356262E11 ; 0.0
172 ; 1.3365517238720119E7 ; 1.212428145801962E9 ; 2.451434373040751E9 ; 1.9799397473987195E11 ; 0.0
173 ; 1.334270804129798E7 ; 1.2124793486566224E9 ; 2.464799890279471E9 ; 1.9920640288567392E11 ; 0.0
174 ; 1.3330750220389158E7 ; 1.2125303735304904E9 ; 2.478142598320769E9 ; 2.0041888223433054E11 ; 0.0
175 ; 1.3308743334900293E7 ; 1.2125812190923648E9 ; 2.491473348541158E9 ; 2.0163141260786102E11 ; 0.0
176 ; 1.3287297461481282E7 ; 1.2126318840224638E9 ; 2.5047820918760586E9 ; 2.028439938269534E11 ; 0.0
177 ; 1.3269527204356555E7 ; 1.2126823670122342E9 ; 2.5180693893375397E9 ; 2.0405662571097586E11 ; 0.0
178 ; 1.325452800698676E7 ; 1.2127326667641637E9 ; 2.5313389165418963E9 ; 2.052693080779881E11 ; 0.0
179 ; 1.3240003415661462E7 ; 1.2127827819916E9 ; 2.544593444548883E9 ; 2.0648204074475226E11 ; 0.0
180 ; 1.3215582213688694E7 ; 1.212832711418579E9 ; 2.5578334479645443E9 ; 2.0769482352674387E11 ; 0.0
181 ; 1.3195609374016596E7 ; 1.2128824537796557E9 ; 2.571049030178233E9 ; 2.0890765623816245E11 ; 0.0
182 ; 1.3180654686145715E7 ; 1.212932007819743E9 ; 2.58424463955225E9 ; 2.101205386919421E11 ; 0.0
183 ; 1.3162847928991139E7 ; 1.212981372293957E9 ; 2.5974252942383957E9 ; 2.1133347069976184E11 ; 0.0
184 ; 1.3141937945796719E7 ; 1.2130305459674656E9 ; 2.610588142167387E9 ; 2.125464520720558E11 ; 0.0
185 ; 1.3121509713759836E7 ; 1.2130795276153438E9 ; 2.6237300801131835E9 ; 2.1375948261802325E11 ; 0.0
186 ; 1.310298951159526E7 ; 1.213128316022434E9 ; 2.6368515898269434E9 ; 2.149725621456386E11 ; 0.0
187 ; 1.3081669964128748E7 ; 1.2131769099832106E9 ; 2.6499545793385386E9 ; 2.1618569046166104E11 ; 0.0
188 ; 1.3069804244308827E7 ; 1.21322530830165E9 ; 2.6630362493026676E9 ; 2.1739886737164426E11 ; 0.0
189 ; 1.3049518880621769E7 ; 1.2132735097911055E9 ; 2.6761060535469766E9 ; 2.186120926799459E11 ; 0.0
190 ; 1.3033119369523874E7 ; 1.2133215132741842E9 ; 2.6891555724275985E9 ; 2.19825366189737E11 ; 0.0
191 ; 1.3019057234893966E7 ; 1.2133693175826335E9 ; 2.7021886917971225E9 ; 2.2103868770301117E11 ; 0.0
192 ; 1.3001468811872032E7 ; 1.2134169215572226E9 ; 2.7152077490320163E9 ; 2.222520570205938E11 ; 0.0
193 ; 1.2977330154674243E7 ; 1.2134643240476398E9 ; 2.7282092178438883E9 ; 2.2346547394215103E11 ; 0.0
194 ; 1.29631963759807E7 ; 1.2135115239123816E9 ; 2.7411865479985623E9 ; 2.2467893826619867E11 ; 0.0
195 ; 1.294457098379725E7 ; 1.2135585200186553E9 ; 2.754149744374543E9 ; 2.2589244979011105E11 ; 0.0
