CSV File for the Network on Day 228
1 - Minute m 
2 - Power Consumed at minute m 
3 - Power Produced at minute m 
4 - Energy Consumed since the beginning of the day 
5 - Energy Produced since the beginning of the day 
6 - Energy Lost since the beginning of the day 
 
0 ; 551666.526170452 ; 2.1046478655145973E8 ; 0.0 ; 0.0 ; 0.0
1 ; 556822.2044686378 ; 2.1076483385849214E8 ; 551666.526170452 ; 2.1046478655145973E8 ; 356.14
2 ; 561917.8179262332 ; 2.116825706551767E8 ; 1108488.7306390898 ; 4.2122962040995187E8 ; 712.28
3 ; 566875.688396582 ; 2.1321808210730273E8 ; 1670406.548565323 ; 6.329121910651286E8 ; 1068.42
4 ; 572312.4735954022 ; 2.1537147112342304E8 ; 2237282.236961905 ; 8.461302731724312E8 ; 1424.56
5 ; 578863.5244214063 ; 2.181428594640752E8 ; 2809594.710557307 ; 1.0615017442958543E9 ; 1780.6999999999998
6 ; 583887.1481967664 ; 2.2153238634006256E8 ; 3388458.2349787136 ; 1.2796446037599297E9 ; 2136.8399999999997
7 ; 585529.5034228729 ; 2.2554020261461133E8 ; 3972345.38317548 ; 1.5011769900999923E9 ; 2492.9799999999996
8 ; 590052.3327924572 ; 2.3016645883892822E8 ; 4557874.886598353 ; 1.7267171927146037E9 ; 2849.1199999999994
9 ; 593268.8200312549 ; 2.3541128688755506E8 ; 5147927.2193908105 ; 1.956883651553532E9 ; 3205.2599999999993
10 ; 595873.6983943079 ; 2.4127477827197492E8 ; 5741196.039422065 ; 2.192294938441087E9 ; 3561.399999999999
11 ; 600803.0439902999 ; 2.477569658999008E8 ; 6337069.737816373 ; 2.433569716713062E9 ; 3917.539999999999
12 ; 606186.7570912641 ; 2.5485781686361963E8 ; 6937872.781806673 ; 2.6813266826129627E9 ; 4273.679999999999
13 ; 608137.0572555433 ; 2.6257723965164834E8 ; 7544059.538897937 ; 2.9361844994765825E9 ; 4629.82
14 ; 612991.7952860255 ; 2.709151023894453E8 ; 8152196.596153481 ; 3.198761739128231E9 ; 4985.96
15 ; 617837.6040330451 ; 2.7987125452580357E8 ; 8765188.391439507 ; 3.4696768415176764E9 ; 5342.1
16 ; 620565.7158538139 ; 2.894455451974971E8 ; 9383025.995472552 ; 3.74954809604348E9 ; 5698.240000000001
17 ; 623403.9207940538 ; 2.996378351937225E8 ; 1.0003591711326366E7 ; 4.0389936412409773E9 ; 6054.380000000001
18 ; 627234.8251530709 ; 3.1044800275394213E8 ; 1.062699563212042E7 ; 4.3386314764347E9 ; 6410.520000000001
19 ; 631560.9156119749 ; 3.2187594496960324E8 ; 1.125423045727349E7 ; 4.6490794791886425E9 ; 6766.660000000002
20 ; 633607.8249716243 ; 3.3392157667491645E8 ; 1.1885791372885466E7 ; 4.970955424158246E9 ; 7122.800000000002
21 ; 637989.428833005 ; 3.465848282189732E8 ; 1.251939919785709E7 ; 5.304877000833162E9 ; 7478.940000000002
22 ; 643857.5788487437 ; 3.598656429557256E8 ; 1.3157388626690093E7 ; 5.651461829052135E9 ; 7835.080000000003
23 ; 649093.6430062229 ; 3.7376397487524885E8 ; 1.3801246205538837E7 ; 6.011327472007861E9 ; 8191.220000000003
24 ; 651690.2701604827 ; 3.882797865477061E8 ; 1.445033984854506E7 ; 6.38509144688311E9 ; 8547.360000000002
25 ; 656102.8930427466 ; 4.0078912921404076E8 ; 1.5102030118705543E7 ; 6.773371233430817E9 ; 8903.500000000002
26 ; 661045.1008513228 ; 4.007990734804058E8 ; 1.575813301174829E7 ; 7.174160362644857E9 ; 9259.640000000001
27 ; 661909.3467885179 ; 4.0080913726818156E8 ; 1.6419178112599613E7 ; 7.574959436125263E9 ; 9615.78
28 ; 666384.54204339 ; 4.008193034369088E8 ; 1.708108745938813E7 ; 7.975768573393445E9 ; 9971.92
29 ; 668282.2190092284 ; 4.00829557683457E8 ; 1.774747200143152E7 ; 8.376587876830354E9 ; 10328.06
30 ; 672605.8528838585 ; 4.0083988799929583E8 ; 1.841575422044075E7 ; 8.777417434513811E9 ; 10684.199999999999
31 ; 677177.998238155 ; 4.008502842410356E8 ; 1.9088360073324606E7 ; 9.178257322513107E9 ; 11040.339999999998
32 ; 681318.0963524412 ; 4.008607377894496E8 ; 1.976553807156276E7 ; 9.579107606754143E9 ; 11396.479999999998
33 ; 682631.8916026877 ; 4.0087124127761424E8 ; 2.0446856167915203E7 ; 9.979968344543592E9 ; 11752.619999999997
34 ; 687270.9349857292 ; 4.0088178837313783E8 ; 2.112948805951789E7 ; 1.0380839585821207E10 ; 12108.759999999997
35 ; 691552.4966327853 ; 4.0089237360284466E8 ; 2.181675899450362E7 ; 1.0781721374194345E10 ; 12464.899999999996
36 ; 694387.7513433507 ; 4.0090299221091247E8 ; 2.2508311491136406E7 ; 1.118261374779719E10 ; 12821.039999999995
37 ; 694898.5878544663 ; 4.009136400434841E8 ; 2.3202699242479756E7 ; 1.1583516740008102E10 ; 13177.179999999995
38 ; 699789.7240728681 ; 4.009243134543283E8 ; 2.3897597830334224E7 ; 1.1984430380051586E10 ; 13533.319999999994
39 ; 702172.5502836338 ; 4.0093500922731775E8 ; 2.4597387554407094E7 ; 1.2385354693505915E10 ; 13889.459999999994
40 ; 706879.794589778 ; 4.009457245124099E8 ; 2.5299560104690727E7 ; 1.2786289702733232E10 ; 14245.599999999993
41 ; 708446.141116495 ; 4.009564567725231E8 ; 2.6006439899280503E7 ; 1.3187235427245642E10 ; 14601.739999999993
42 ; 711144.8691556596 ; 4.009672037392459E8 ; 2.6714886040397E7 ; 1.3588191884018166E10 ; 14957.879999999992
43 ; 715558.8601023523 ; 4.0097796337574434E8 ; 2.742603090955266E7 ; 1.3989159087757412E10 ; 15314.019999999991
44 ; 715619.5559238747 ; 4.009887338455613E8 ; 2.814158976965501E7 ; 1.4390137051133156E10 ; 15670.15999999999
45 ; 717641.0887088301 ; 4.009995134862598E8 ; 2.8857209325578887E7 ; 1.4791125784978718E10 ; 16026.29999999999
46 ; 722658.139138594 ; 4.010103007870696E8 ; 2.9574850414287716E7 ; 1.5192125298464977E10 ; 16382.43999999999
47 ; 724209.7906394396 ; 4.01021094369854E8 ; 3.029750855342631E7 ; 1.5593135599252047E10 ; 16738.57999999999
48 ; 728854.77785882 ; 4.010318929728422E8 ; 3.102171834406575E7 ; 1.59941566936219E10 ; 17094.71999999999
49 ; 730453.8890519256 ; 4.010426954366769E8 ; 3.1750573121924568E7 ; 1.6395188586594742E10 ; 17450.85999999999
50 ; 731563.292075405 ; 4.0105350069240385E8 ; 3.2481027010976493E7 ; 1.6796231282031418E10 ; 17806.99999999999
51 ; 734320.0661123395 ; 4.010643077511E8 ; 3.32125903030519E7 ; 1.7197284782723824E10 ; 18163.13999999999
52 ; 734491.3851500581 ; 4.0107511569488776E8 ; 3.394691036916424E7 ; 1.7598349090474922E10 ; 18519.279999999988
53 ; 738342.2011979353 ; 4.010859236691257E8 ; 3.46814017543143E7 ; 1.799942420616981E10 ; 18875.419999999987
54 ; 740052.2084708716 ; 4.010967308756012E8 ; 3.541974395551224E7 ; 1.8400510129838936E10 ; 19231.559999999987
55 ; 741382.6952002819 ; 4.0110753656658113E8 ; 3.6159796163983114E7 ; 1.880160686071454E10 ; 19587.699999999986
56 ; 743621.3575315633 ; 4.0111834003959584E8 ; 3.690117885918339E7 ; 1.920271439728112E10 ; 19943.839999999986
57 ; 746855.1389763457 ; 4.011291406328558E8 ; 3.7644800216714956E7 ; 1.9603832737320717E10 ; 20299.979999999985
58 ; 746173.2050954158 ; 4.011399377212128E8 ; 3.83916553556913E7 ; 2.000496187795357E10 ; 20656.119999999984
59 ; 751745.143283122 ; 4.0115073071259344E8 ; 3.913782856078672E7 ; 2.0406101815674786E10 ; 21012.259999999984
60 ; 752716.5204824689 ; 4.011615190448406E8 ; 3.988957370406984E7 ; 2.080725254638738E10 ; 21368.399999999983
61 ; 756789.0405193621 ; 4.011723021829108E8 ; 4.06422902245523E7 ; 2.120841406543222E10 ; 21724.539999999983
62 ; 756065.7298546036 ; 4.011830796163829E8 ; 4.139907926507167E7 ; 2.160958636761513E10 ; 22080.679999999982
63 ; 759062.1749027738 ; 4.01193850857236E8 ; 4.2155144994926274E7 ; 2.2010769447231514E10 ; 22436.81999999998
64 ; 762970.3690395171 ; 4.0120461543786675E8 ; 4.291420716982905E7 ; 2.241196329808875E10 ; 22792.95999999998
65 ; 764316.0834733527 ; 4.012153729093139E8 ; 4.367717753886857E7 ; 2.2813167913526615E10 ; 23149.09999999998
66 ; 766168.402591426 ; 4.012261228396677E8 ; 4.444149362234192E7 ; 2.321438328643593E10 ; 23505.23999999998
67 ; 769945.7204136647 ; 4.012368648126402E8 ; 4.520766202493335E7 ; 2.3615609409275597E10 ; 23861.37999999998
68 ; 769993.6961070723 ; 4.012475984262799E8 ; 4.5977607745347016E7 ; 2.4016846274088238E10 ; 24217.51999999998
69 ; 771865.5312349976 ; 4.0125832329181266E8 ; 4.674760144145409E7 ; 2.441809387251452E10 ; 24573.659999999978
70 ; 772087.9703388648 ; 4.01269039032595E8 ; 4.7519466972689085E7 ; 2.481935219580633E10 ; 24929.799999999977
71 ; 775279.4264098713 ; 4.012797452831682E8 ; 4.829155494302795E7 ; 2.522062123483893E10 ; 25285.939999999977
72 ; 778363.8661324327 ; 4.0129044168840134E8 ; 4.906683436943782E7 ; 2.5621900980122097E10 ; 25642.079999999976
73 ; 777879.2842946753 ; 4.01301127902714E8 ; 4.984519823557025E7 ; 2.6023191421810497E10 ; 25998.219999999976
74 ; 778721.7511207515 ; 4.013118035893698E8 ; 5.0623077519864924E7 ; 2.642449254971321E10 ; 26354.359999999975
75 ; 781627.0129469227 ; 4.013224684198345E8 ; 5.140179927098568E7 ; 2.682580435330258E10 ; 26710.499999999975
76 ; 782207.1483888668 ; 4.013331220731908E8 ; 5.2183426283932604E7 ; 2.7227126821722416E10 ; 27066.639999999974
77 ; 782967.5534689142 ; 4.013437642356045E8 ; 5.2965633432321474E7 ; 2.762845994379561E10 ; 27422.779999999973
78 ; 785218.4374399133 ; 4.013543945998373E8 ; 5.374860098579039E7 ; 2.802980370803121E10 ; 27778.919999999973
79 ; 784444.254111736 ; 4.013650128648008E8 ; 5.45338194232303E7 ; 2.843115810263105E10 ; 28135.059999999972
80 ; 786731.9134141944 ; 4.0137561873514867E8 ; 5.5318263677342035E7 ; 2.883252311549585E10 ; 28491.19999999997
81 ; 791676.6759001901 ; 4.0138621192090243E8 ; 5.610499559075623E7 ; 2.9233898734231E10 ; 28847.33999999997
82 ; 792572.1650485339 ; 4.0139679213710856E8 ; 5.689667226665642E7 ; 2.96352849461519E10 ; 29203.47999999997
83 ; 792498.1950675459 ; 4.0140735910352266E8 ; 5.768924443170495E7 ; 3.003668173828901E10 ; 29559.61999999997
84 ; 797064.2951954852 ; 4.0141791254432E8 ; 5.84817426267725E7 ; 3.0438089097392532E10 ; 29915.75999999997
85 ; 795905.4365002741 ; 4.0142845218782806E8 ; 5.927880692196798E7 ; 3.083950700993685E10 ; 30271.89999999997
86 ; 799062.5838794805 ; 4.01438977766281E8 ; 6.007471235846826E7 ; 3.124093546212468E10 ; 30628.039999999968
87 ; 800589.169318232 ; 4.014494890155927E8 ; 6.0873774942347735E7 ; 3.164237443989096E10 ; 30984.179999999968
88 ; 800693.0549684659 ; 4.0145998567514676E8 ; 6.1674364111665964E7 ; 3.2043823928906555E10 ; 31340.319999999967
89 ; 801223.9001056147 ; 4.0147046748760366E8 ; 6.247505716663443E7 ; 3.2445283914581703E10 ; 31696.459999999966
90 ; 804704.5015625292 ; 4.0148093419872135E8 ; 6.327628106674005E7 ; 3.2846754382069305E10 ; 32052.599999999966
91 ; 803567.0815991309 ; 4.014913855571894E8 ; 6.408098556830258E7 ; 3.324823531626803E10 ; 32408.739999999965
92 ; 805090.0674809675 ; 4.015018213144758E8 ; 6.488455264990171E7 ; 3.364972670182522E10 ; 32764.879999999965
93 ; 807439.3678378513 ; 4.0151224122468424E8 ; 6.568964271738268E7 ; 3.4051228523139694E10 ; 33121.01999999997
94 ; 809042.5473317697 ; 4.015226450444224E8 ; 6.649708208522053E7 ; 3.445274076436438E10 ; 33477.15999999997
95 ; 807844.4694381012 ; 4.0153303253267896E8 ; 6.73061246325523E7 ; 3.4854263409408806E10 ; 33833.29999999997
96 ; 809403.1381382704 ; 4.0154340345070994E8 ; 6.81139691019904E7 ; 3.525579644194148E10 ; 34189.439999999966
97 ; 813579.8409657517 ; 4.0155375756193256E8 ; 6.892337224012867E7 ; 3.565733984539219E10 ; 34545.579999999965
98 ; 811476.4517569286 ; 4.0156409463182664E8 ; 6.973695208109441E7 ; 3.6058893602954124E10 ; 34901.719999999965
99 ; 814920.1196025353 ; 4.015744144278426E8 ; 7.054842853285134E7 ; 3.646045769758595E10 ; 35257.859999999964
100 ; 815463.3218041434 ; 4.015847167193165E8 ; 7.136334865245387E7 ; 3.6862032112013794E10 ; 35613.99999999996
101 ; 816283.1056883805 ; 4.0159500127738965E8 ; 7.2178811974258E7 ; 3.726361682873311E10 ; 35970.13999999996
102 ; 815432.0677845426 ; 4.016052678749348E8 ; 7.299509507994638E7 ; 3.76652118300105E10 ; 36326.27999999996
103 ; 819876.2114593743 ; 4.016155162864863E8 ; 7.381052714773093E7 ; 3.806681709788543E10 ; 36682.41999999996
104 ; 819614.6189481465 ; 4.016257462881757E8 ; 7.46304033591903E7 ; 3.846843261417191E10 ; 37038.55999999996
105 ; 820871.5662047171 ; 4.0163595765767086E8 ; 7.545001797813845E7 ; 3.887005836046009E10 ; 37394.69999999996
106 ; 819926.028883206 ; 4.016461501741196E8 ; 7.627088954434316E7 ; 3.927169431811776E10 ; 37750.83999999996
107 ; 821457.0688873116 ; 4.016563236180968E8 ; 7.709081557322636E7 ; 3.967334046829188E10 ; 38106.97999999996
108 ; 823319.3226135126 ; 4.0166647777155495E8 ; 7.791227264211367E7 ; 4.007499679190997E10 ; 38463.11999999996
109 ; 823763.3062027844 ; 4.016766124177779E8 ; 7.873559196472718E7 ; 4.0476663269681526E10 ; 38819.25999999996
110 ; 827073.6918757171 ; 4.016867273413371E8 ; 7.955935527092996E7 ; 4.0878339882099304E10 ; 39175.39999999996
111 ; 827474.8636232547 ; 4.016968223280517E8 ; 8.038642896280567E7 ; 4.128002660944064E10 ; 39531.53999999996
112 ; 825875.1688610284 ; 4.0170689716495013E8 ; 8.121390382642893E7 ; 4.168172343176869E10 ; 39887.67999999996
113 ; 828114.5196125112 ; 4.017169516402345E8 ; 8.203977899528997E7 ; 4.208343032893364E10 ; 40243.819999999956
114 ; 829929.7812466773 ; 4.0172698554324734E8 ; 8.286789351490247E7 ; 4.2485147280573875E10 ; 40599.959999999955
115 ; 829884.7983960425 ; 4.017369986644404E8 ; 8.369782329614915E7 ; 4.288687426611713E10 ; 40956.099999999955
116 ; 829492.3322759893 ; 4.017469907953449E8 ; 8.452770809454519E7 ; 4.328861126478157E10 ; 41312.239999999954
117 ; 831639.9696786045 ; 4.017569617285445E8 ; 8.535720042682117E7 ; 4.369035825557691E10 ; 41668.379999999954
118 ; 830225.9792103198 ; 4.017669112576493E8 ; 8.618884039649978E7 ; 4.409211521730546E10 ; 42024.51999999995
119 ; 829879.185318329 ; 4.017768391772714E8 ; 8.70190663757101E7 ; 4.449388212856311E10 ; 42380.65999999995
120 ; 830959.5684753789 ; 4.0178674528300273E8 ; 8.784894556102844E7 ; 4.489565896774038E10 ; 42736.79999999995
121 ; 832506.8596532993 ; 4.017966293713932E8 ; 8.867990512950382E7 ; 4.5297445713023384E10 ; 43092.93999999995
122 ; 833147.3138855598 ; 4.0180649123993087E8 ; 8.951241198915711E7 ; 4.5699242342394775E10 ; 43449.07999999995
123 ; 834103.4566245002 ; 4.0181633068702346E8 ; 9.034555930304267E7 ; 4.6101048833634705E10 ; 43805.21999999995
124 ; 833156.0441299416 ; 4.018261475119803E8 ; 9.117966275966716E7 ; 4.650286516432173E10 ; 44161.35999999995
125 ; 832925.2467315154 ; 4.018359415149962E8 ; 9.20128188037971E7 ; 4.690469131183371E10 ; 44517.49999999995
126 ; 831357.7946752682 ; 4.018457124971355E8 ; 9.284574405052862E7 ; 4.730652725334871E10 ; 44873.63999999995
127 ; 832933.6853254982 ; 4.018554602603184E8 ; 9.367710184520388E7 ; 4.770837296584585E10 ; 45229.77999999995
128 ; 832477.7317526756 ; 4.018651846073061E8 ; 9.451003553052938E7 ; 4.811022842610616E10 ; 45585.91999999995
129 ; 829708.4676287039 ; 4.018748853416891E8 ; 9.534251326228206E7 ; 4.851209361071347E10 ; 45942.05999999995
130 ; 830762.9680576925 ; 4.018845622678747E8 ; 9.617222172991076E7 ; 4.891396849605516E10 ; 46298.199999999946
131 ; 831556.9772556637 ; 4.018942151910759E8 ; 9.700298469796845E7 ; 4.931585305832304E10 ; 46654.339999999946
132 ; 828583.993571358 ; 4.019038439173009E8 ; 9.783454167522411E7 ; 4.9717747273514114E10 ; 47010.479999999945
133 ; 828632.4753585989 ; 4.01913448253343E8 ; 9.866312566879547E7 ; 5.011965111743141E10 ; 47366.619999999944
134 ; 830238.8134193325 ; 4.019230280067719E8 ; 9.949175814415407E7 ; 5.052156456568475E10 ; 47722.759999999944
135 ; 831876.4911222626 ; 4.0193258298592484E8 ; 1.003219969575734E8 ; 5.092348759369153E10 ; 48078.89999999994
136 ; 832768.2336511918 ; 4.019421129998983E8 ; 1.0115387344869566E8 ; 5.132542017667745E10 ; 48435.03999999994
137 ; 831191.9374916492 ; 4.019516178585408E8 ; 1.0198664168234685E8 ; 5.172736228967735E10 ; 48791.17999999994
138 ; 829848.7762818384 ; 4.019610973724458E8 ; 1.028178336198385E8 ; 5.21293139075359E10 ; 49147.31999999994
139 ; 831038.429610009 ; 4.0197055135294527E8 ; 1.0364768239612034E8 ; 5.253127500490834E10 ; 49503.45999999994
140 ; 829954.6327518038 ; 4.0197997961210334E8 ; 1.0447872082573035E8 ; 5.2933245556261284E10 ; 49859.59999999994
141 ; 829519.3658017972 ; 4.0198938196271074E8 ; 1.0530867545848216E8 ; 5.333522553587339E10 ; 50215.73999999994
142 ; 831782.5317050086 ; 4.019987582182798E8 ; 1.0613819482428396E8 ; 5.37372149178361E10 ; 50571.87999999994
143 ; 829798.3738031616 ; 4.0200810819303906E8 ; 1.0696997735598896E8 ; 5.4139213676054375E10 ; 50928.01999999994
144 ; 829918.3511621134 ; 4.020174317019293E8 ; 1.0779977572979213E8 ; 5.454122178424741E10 ; 51284.15999999994
145 ; 830976.0526727998 ; 4.0202672856059885E8 ; 1.0862969408095425E8 ; 5.494323921594934E10 ; 51640.29999999994
146 ; 832494.4858781854 ; 4.0203599858540004E8 ; 1.0946067013362706E8 ; 5.534526594450994E10 ; 51996.43999999994
147 ; 833249.9544016226 ; 4.020452415933857E8 ; 1.1029316461950524E8 ; 5.5747301943095345E10 ; 52352.579999999936
148 ; 835080.5638496173 ; 4.020544574023056E8 ; 1.1112641457390687E8 ; 5.614934718468873E10 ; 52708.719999999936
149 ; 836874.282767935 ; 4.020636458306036E8 ; 1.1196149513775648E8 ; 5.6551401642091034E10 ; 53064.859999999935
150 ; 839649.5487697746 ; 4.020728066974151E8 ; 1.1279836942052442E8 ; 5.695346528792164E10 ; 53420.999999999935
151 ; 839985.8556938901 ; 4.020819398225643E8 ; 1.1363801896929419E8 ; 5.735553809461906E10 ; 53777.139999999934
152 ; 842357.7924093183 ; 4.0209104502656204E8 ; 1.1447800482498808E8 ; 5.775762003444162E10 ; 54133.27999999993
153 ; 843233.7445940658 ; 4.021001221306038E8 ; 1.153203626173974E8 ; 5.8159711079468185E10 ; 54489.41999999993
154 ; 843624.4530455772 ; 4.021091709565679E8 ; 1.1616359636199147E8 ; 5.8561811201598785E10 ; 54845.55999999993
155 ; 848478.0528436931 ; 4.0211819132701373E8 ; 1.1700722081503704E8 ; 5.896392037255535E10 ; 55201.69999999993
156 ; 849792.2607908475 ; 4.021271830651807E8 ; 1.1785569886788073E8 ; 5.936603856388236E10 ; 55557.83999999993
157 ; 850469.6055952727 ; 4.0213614599498653E8 ; 1.1870549112867159E8 ; 5.976816574694754E10 ; 55913.97999999993
158 ; 853272.6742302896 ; 4.0214507994102657E8 ; 1.1955596073426686E8 ; 6.017030189294253E10 ; 56270.11999999993
159 ; 853292.6704239819 ; 4.021539847285724E8 ; 1.2040923340849715E8 ; 6.057244697288355E10 ; 56626.25999999993
160 ; 856962.1042234836 ; 4.021628601835718E8 ; 1.2126252607892114E8 ; 6.097460095761212E10 ; 56982.39999999993
161 ; 856602.7791344391 ; 4.0217170613264763E8 ; 1.2211948818314463E8 ; 6.137676381779569E10 ; 57338.53999999993
162 ; 858595.3633174014 ; 4.021805224030972E8 ; 1.2297609096227907E8 ; 6.177893552392834E10 ; 57694.67999999993
163 ; 861953.8545273511 ; 4.0218930882289267E8 ; 1.2383468632559647E8 ; 6.2181116046331436E10 ; 58050.81999999993
164 ; 860585.8732130213 ; 4.0219806522067994E8 ; 1.2469664018012382E8 ; 6.258330535515433E10 ; 58406.95999999993
165 ; 861645.954240942 ; 4.022067914257794E8 ; 1.2555722605333684E8 ; 6.298550342037501E10 ; 58763.099999999926
166 ; 862880.0298565726 ; 4.022154872681854E8 ; 1.2641887200757779E8 ; 6.338771021180079E10 ; 59119.239999999925
167 ; 864092.1941414762 ; 4.022241525785665E8 ; 1.2728175203743437E8 ; 6.378992569906898E10 ; 59475.379999999925
168 ; 866938.0836646892 ; 4.022327871882659E8 ; 1.2814584423157585E8 ; 6.4192149851647545E10 ; 59831.519999999924
169 ; 868465.6866157552 ; 4.022413909293016E8 ; 1.2901278231524053E8 ; 6.459438263883581E10 ; 60187.65999999992
170 ; 869145.907709167 ; 4.022499636343671E8 ; 1.2988124800185628E8 ; 6.499662402976511E10 ; 60543.79999999992
171 ; 871000.0954303971 ; 4.022585051368313E8 ; 1.3075039390956545E8 ; 6.5398873993399475E10 ; 60899.93999999992
172 ; 873288.5573540844 ; 4.022670152707398E8 ; 1.3162139400499585E8 ; 6.580113249853631E10 ; 61256.07999999992
173 ; 875525.8728171904 ; 4.022754938708154E8 ; 1.3249468256234993E8 ; 6.6203399513807045E10 ; 61612.21999999992
174 ; 876564.4491908485 ; 4.022839407724585E8 ; 1.3337020843516712E8 ; 6.6605675007677864E10 ; 61968.35999999992
175 ; 877157.3082215841 ; 4.022923558117485E8 ; 1.3424677288435796E8 ; 6.7007958948450325E10 ; 62324.49999999992
176 ; 880543.3511110168 ; 4.023007388254442E8 ; 1.3512393019257954E8 ; 6.741025130426207E10 ; 62680.63999999992
177 ; 882254.754655703 ; 4.023090896509851E8 ; 1.3600447354369056E8 ; 6.781255204308752E10 ; 63036.77999999992
