CSV File for the Network on Day 27
1 - Minute m 
2 - Power Consumed at minute m 
3 - Power Produced at minute m 
4 - Energy Consumed since the beginning of the day 
5 - Energy Produced since the beginning of the day 
6 - Energy Lost since the beginning of the day 
 
0 ; 4533749.066301824 ; 2.1049616776107115E8 ; 0.0 ; 0.0 ; 0.0
1 ; 4537731.732892858 ; 2.107977441556797E8 ; 4533749.066301824 ; 2.1049616776107115E8 ; 356.14
2 ; 4543496.63157567 ; 2.1171708276097816E8 ; 9071480.799194682 ; 4.2129391191675085E8 ; 712.28
3 ; 4546309.318905737 ; 2.1325424543807197E8 ; 1.3614977430770352E7 ; 6.33010994677729E8 ; 1068.42
4 ; 4551540.090555453 ; 2.1540929858424914E8 ; 1.816128674967609E7 ; 8.46265240115801E8 ; 1424.56
5 ; 4555333.615964318 ; 2.181823114306596E8 ; 2.271282684023154E7 ; 1.0616745387000501E9 ; 1780.6999999999998
6 ; 4561103.254862022 ; 2.2157335341388613E8 ; 2.726816045619586E7 ; 1.2798568501307096E9 ; 2136.8399999999997
7 ; 4564182.30781981 ; 2.2558249060259694E8 ; 3.1829263711057883E7 ; 1.5014302035445957E9 ; 2492.9799999999996
8 ; 4567177.199853396 ; 2.3020978137557513E8 ; 3.639344601887769E7 ; 1.7270126941471927E9 ; 2849.1199999999994
9 ; 4571628.073850873 ; 2.3545527182014537E8 ; 4.096062321873109E7 ; 1.9572224755227678E9 ; 3205.2599999999993
10 ; 4576169.873999423 ; 2.413189915627312E8 ; 4.553225129258196E7 ; 2.192677747342913E9 ; 3561.399999999999
11 ; 4578727.956655628 ; 2.478009508324911E8 ; 5.0108421166581385E7 ; 2.4339967389056444E9 ; 3917.539999999999
12 ; 4581494.367825726 ; 2.5490113940026653E8 ; 5.4687149123237014E7 ; 2.6817976897381353E9 ; 4273.679999999999
13 ; 4585365.665185554 ; 2.6261952763963395E8 ; 5.926864349106274E7 ; 2.936698829138402E9 ; 4629.82
14 ; 4589446.520530457 ; 2.7095606946326894E8 ; 6.3854009156248294E7 ; 3.199318356778036E9 ; 4985.96
15 ; 4590857.965454983 ; 2.7991070649238795E8 ; 6.844345567677875E7 ; 3.470274426241305E9 ; 5342.1
16 ; 4596491.294690235 ; 2.894833726583232E8 ; 7.303431364223373E7 ; 3.7501851327336926E9 ; 5698.240000000001
17 ; 4598041.073026722 ; 2.996739985244917E8 ; 7.763080493692397E7 ; 4.039668505392016E9 ; 6054.380000000001
18 ; 4601297.711249397 ; 3.104825148597436E8 ; 8.222884600995068E7 ; 4.339342503916508E9 ; 6410.520000000001
19 ; 4604587.460711003 ; 3.219088552667908E8 ; 8.683014372120008E7 ; 4.649825018776251E9 ; 6766.660000000002
20 ; 4609712.930275024 ; 3.3395295788452786E8 ; 9.143473118191108E7 ; 4.971733874043041E9 ; 7122.800000000002
21 ; 4612481.51854385 ; 3.466147663089847E8 ; 9.60444441121861E7 ; 5.305686831927569E9 ; 7478.940000000002
22 ; 4614532.274814457 ; 3.598942299242571E8 ; 1.0065692563072996E8 ; 5.652301598236554E9 ; 7835.080000000003
23 ; 4617656.957550847 ; 3.737913038290417E8 ; 1.0527145790554442E8 ; 6.012195828160811E9 ; 8191.220000000003
24 ; 4621782.493728913 ; 3.883059485128773E8 ; 1.0988911486309527E8 ; 6.385987131989853E9 ; 8547.360000000002
25 ; 4626128.296840782 ; 4.008142111938505E8 ; 1.1451089735682419E8 ; 6.77429308050273E9 ; 8903.500000000002
26 ; 4626799.967700714 ; 4.008231573785099E8 ; 1.1913702565366498E8 ; 7.175107291696581E9 ; 9259.640000000001
27 ; 4628168.255779622 ; 4.008322993936492E8 ; 1.237638256213657E8 ; 7.57593044907509E9 ; 9615.78
28 ; 4635043.119821154 ; 4.0084161438777924E8 ; 1.2839199387714532E8 ; 7.9767627484687395E9 ; 9971.92
29 ; 4633419.522999021 ; 4.0085108246721506E8 ; 1.3302703699696648E8 ; 8.377604362856519E9 ; 10328.06
30 ; 4638585.519997298 ; 4.008606862937685E8 ; 1.376604565199655E8 ; 8.778455445323734E9 ; 10684.199999999999
31 ; 4641473.541491619 ; 4.008704107312933E8 ; 1.422990420399628E8 ; 9.179316131617502E9 ; 11040.339999999998
32 ; 4642551.822329367 ; 4.008802425386344E8 ; 1.4694051558145443E8 ; 9.580186542348795E9 ; 11396.479999999998
33 ; 4647323.383653993 ; 4.0089017010492134E8 ; 1.515830674037838E8 ; 9.98106678488743E9 ; 11752.619999999997
34 ; 4648319.723021148 ; 4.0090018322250795E8 ; 1.562303907874378E8 ; 1.0381956954992352E10 ; 12108.759999999997
35 ; 4653758.993445846 ; 4.0091027289281464E8 ; 1.6087871051045895E8 ; 1.0782857138214859E10 ; 12464.899999999996
36 ; 4652736.248189157 ; 4.009204311605876E8 ; 1.655324695039048E8 ; 1.1183767411107674E10 ; 12821.039999999995
37 ; 4656269.190803993 ; 4.009306509725084E8 ; 1.7018520575209394E8 ; 1.1584687842268261E10 ; 13177.179999999995
38 ; 4657769.778112409 ; 4.0094092605655956E8 ; 1.7484147494289795E8 ; 1.1985618493240768E10 ; 13533.319999999994
39 ; 4661122.333272836 ; 4.009512508190217E8 ; 1.7949924472101036E8 ; 1.2386559419297329E10 ; 13889.459999999994
40 ; 4661663.949117294 ; 4.0096162025641924E8 ; 1.841603670542832E8 ; 1.278751067011635E10 ; 14245.599999999993
41 ; 4663991.126397837 ; 4.009720298801292E8 ; 1.888220310034005E8 ; 1.318847229037277E10 ; 14601.739999999993
42 ; 4667139.542575842 ; 4.009824756517155E8 ; 1.9348602212979835E8 ; 1.35894443202529E10 ; 14957.879999999992
43 ; 4668203.376516956 ; 4.009929539273524E8 ; 1.981531616723742E8 ; 1.3990426795904615E10 ; 15314.019999999991
44 ; 4667990.773150894 ; 4.0100346140995854E8 ; 2.0282136504889116E8 ; 1.4391419749831968E10 ; 15670.15999999999
45 ; 4670243.175149803 ; 4.0101399510787964E8 ; 2.0748935582204205E8 ; 1.4792423211241926E10 ; 16026.29999999999
46 ; 4670963.6475740895 ; 4.010245522991435E8 ; 2.1215959899719185E8 ; 1.5193437206349806E10 ; 16382.43999999999
47 ; 4675448.704902697 ; 4.0103513050046307E8 ; 2.1683056264476594E8 ; 1.5594461758648949E10 ; 16738.57999999999
48 ; 4674300.332607715 ; 4.0104572744029576E8 ; 2.2150601134966865E8 ; 1.5995496889149412E10 ; 17094.71999999999
49 ; 4676466.574404358 ; 4.0105634103537226E8 ; 2.2618031168227637E8 ; 1.6396542616589708E10 ; 17450.85999999999
50 ; 4677365.691519778 ; 4.0106696937020135E8 ; 2.3085677825668073E8 ; 1.679759895762508E10 ; 17806.99999999999
51 ; 4679214.455653124 ; 4.010776106791327E8 ; 2.355341439482005E8 ; 1.719866592699528E10 ; 18163.13999999999
52 ; 4679447.788490064 ; 4.010882633306216E8 ; 2.4021335840385363E8 ; 1.7599743537674416E10 ; 18519.279999999988
53 ; 4680360.935913549 ; 4.01098925813396E8 ; 2.4489280619234368E8 ; 1.8000831801005035E10 ; 18875.419999999987
54 ; 4680204.199426645 ; 4.0110959672426844E8 ; 2.4957316712825724E8 ; 1.840193072681843E10 ; 19231.559999999987
55 ; 4680959.0189088555 ; 4.011202747573744E8 ; 2.542533713276839E8 ; 1.88030403235427E10 ; 19587.699999999986
56 ; 4681235.66017899 ; 4.011309586946502E8 ; 2.5893433034659275E8 ; 1.9204160598300076E10 ; 19943.839999999986
57 ; 4682156.271219625 ; 4.011416473973902E8 ; 2.6361556600677174E8 ; 1.9605291556994724E10 ; 20299.979999999985
58 ; 4683901.131313675 ; 4.011523397987467E8 ; 2.6829772227799135E8 ; 2.0006433204392113E10 ; 20656.119999999984
59 ; 4685963.969803754 ; 4.01163034897053E8 ; 2.7298162340930504E8 ; 2.040758554419086E10 ; 21012.259999999984
60 ; 4686664.797545172 ; 4.011737317498691E8 ; 2.776675873791088E8 ; 2.0808748579087914E10 ; 21368.399999999983
61 ; 4686047.729752635 ; 4.011844294686611E8 ; 2.82354252176654E8 ; 2.1209922310837784E10 ; 21724.539999999983
62 ; 4689153.926520896 ; 4.011951272140389E8 ; 2.8704029990640664E8 ; 2.1611106740306446E10 ; 22080.679999999982
63 ; 4687687.282946424 ; 4.012058241914855E8 ; 2.917294538329275E8 ; 2.2012301867520485E10 ; 22436.81999999998
64 ; 4690764.409741453 ; 4.0121651964752114E8 ; 2.9641714111587393E8 ; 2.241350769171197E10 ; 22792.95999999998
65 ; 4689216.697840539 ; 4.0122721286625147E8 ; 3.011079055256154E8 ; 2.2814724211359493E10 ; 23149.09999999998
66 ; 4690542.228863649 ; 4.0123790316625726E8 ; 3.057971222234559E8 ; 2.3215951424225746E10 ; 23505.23999999998
67 ; 4690661.096307787 ; 4.0124858989778674E8 ; 3.1048766445231956E8 ; 2.3617189327392002E10 ; 23861.37999999998
68 ; 4693693.198633739 ; 4.0125927244021654E8 ; 3.151783255486274E8 ; 2.4018437917289787E10 ; 24217.51999999998
69 ; 4692146.979740434 ; 4.012699501997541E8 ; 3.198720187472611E8 ; 2.4419697189730003E10 ; 24573.659999999978
70 ; 4693133.757450425 ; 4.012806226073535E8 ; 3.2456416572700155E8 ; 2.4820967139929756E10 ; 24929.799999999977
71 ; 4693749.0291458 ; 4.012912891168231E8 ; 3.2925729948445195E8 ; 2.522224776253711E10 ; 25285.939999999977
72 ; 4692905.508599118 ; 4.0130194920310485E8 ; 3.339510485135977E8 ; 2.562353905165393E10 ; 25642.079999999976
73 ; 4695296.522383362 ; 4.013126023607081E8 ; 3.386439540221968E8 ; 2.6024841000857037E10 ; 25998.219999999976
74 ; 4692078.069006622 ; 4.013232481022806E8 ; 3.433392505445802E8 ; 2.6426153603217743E10 ; 26354.359999999975
75 ; 4692732.906947078 ; 4.013338859573054E8 ; 3.4803132861358684E8 ; 2.6827476851320023E10 ; 26710.499999999975
76 ; 4692536.896659916 ; 4.0134451547090816E8 ; 3.527240615205339E8 ; 2.722881073727733E10 ; 27066.639999999974
77 ; 4693252.910099629 ; 4.013551362027675E8 ; 3.5741659841719383E8 ; 2.7630155252748238E10 ; 27422.779999999973
78 ; 4690739.978749421 ; 4.0136574772611487E8 ; 3.6210985132729346E8 ; 2.8031510388951004E10 ; 27778.919999999973
79 ; 4692845.477017227 ; 4.0137634962681895E8 ; 3.6680059130604285E8 ; 2.843287613667712E10 ; 28135.059999999972
80 ; 4690623.752565588 ; 4.0138694150254315E8 ; 3.714934367830601E8 ; 2.883425248630394E10 ; 28491.19999999997
81 ; 4692780.964397698 ; 4.0139752296197236E8 ; 3.7618406053562564E8 ; 2.9235639427806484E10 ; 28847.33999999997
82 ; 4692546.405349143 ; 4.014080936241009E8 ; 3.808768415000233E8 ; 2.9637036950768456E10 ; 29203.47999999997
83 ; 4692512.720140335 ; 4.014186531175766E8 ; 3.8556938790537244E8 ; 3.0038445044392555E10 ; 29559.61999999997
84 ; 4691621.144278684 ; 4.0142920108009577E8 ; 3.902619006255128E8 ; 3.043986369751013E10 ; 29915.75999999997
85 ; 4694002.219206771 ; 4.014397371578452E8 ; 3.949535217697915E8 ; 3.084129289859023E10 ; 30271.89999999997
86 ; 4690188.378502727 ; 4.0145026100498617E8 ; 3.9964752398899823E8 ; 3.1242732635748074E10 ; 30628.039999999968
87 ; 4692086.025856639 ; 4.014607722831774E8 ; 4.0433771236750096E8 ; 3.164418289675306E10 ; 30984.179999999968
88 ; 4689729.545535621 ; 4.014712706611335E8 ; 4.090297983933576E8 ; 3.2045643669036236E10 ; 31340.319999999967
89 ; 4688974.021117313 ; 4.014817558142164E8 ; 4.137195279388932E8 ; 3.244711493969737E10 ; 31696.459999999966
90 ; 4692561.978616159 ; 4.01492227424055E8 ; 4.184085019600105E8 ; 3.2848596695511585E10 ; 32052.599999999966
91 ; 4688856.261528867 ; 4.015026851781943E8 ; 4.231010639386267E8 ; 3.325008892293564E10 ; 32408.739999999965
92 ; 4687052.695752964 ; 4.015131287697677E8 ; 4.2778992020015556E8 ; 3.3651591608113834E10 ; 32764.879999999965
93 ; 4688699.917747086 ; 4.015235578971936E8 ; 4.3247697289590853E8 ; 3.4053104736883602E10 ; 33121.01999999997
94 ; 4688241.37137682 ; 4.015339722638924E8 ; 4.371656728136556E8 ; 3.445462829478079E10 ; 33477.15999999997
95 ; 4687763.161555373 ; 4.0154437157802355E8 ; 4.418539141850324E8 ; 3.4856162267044685E10 ; 33833.29999999997
96 ; 4684886.410477965 ; 4.015547555522404E8 ; 4.465416773465878E8 ; 3.525770663862271E10 ; 34189.439999999966
97 ; 4682240.487506057 ; 4.0156512390346134E8 ; 4.512265637570657E8 ; 3.565926139417495E10 ; 34545.579999999965
98 ; 4682622.827830031 ; 4.015754763526571E8 ; 4.5590880424457175E8 ; 3.606082651807841E10 ; 34901.719999999965
99 ; 4682659.628975488 ; 4.0158581262465125E8 ; 4.6059142707240176E8 ; 3.646240199443106E10 ; 35257.859999999964
100 ; 4681085.330436995 ; 4.015961324479345E8 ; 4.652740867013773E8 ; 3.686398780705571E10 ; 35613.99999999996
101 ; 4681459.929048851 ; 4.016064355544909E8 ; 4.699551720318143E8 ; 3.726558393950365E10 ; 35970.13999999996
102 ; 4680921.367251088 ; 4.016167216796349E8 ; 4.746366319608631E8 ; 3.7667190375058136E10 ; 36326.27999999996
103 ; 4679315.711902674 ; 4.016269905618596E8 ; 4.793175533281142E8 ; 3.806880709673777E10 ; 36682.41999999996
104 ; 4680434.257086627 ; 4.0163724194269425E8 ; 4.839968690400169E8 ; 3.847043408729963E10 ; 37038.55999999996
105 ; 4676688.88154946 ; 4.016474755665703E8 ; 4.886773032971035E8 ; 3.8872071329242325E10 ; 37394.69999999996
106 ; 4676220.8456158945 ; 4.0165769118069667E8 ; 4.93353992178653E8 ; 3.92737188048089E10 ; 37750.83999999996
107 ; 4674398.449619175 ; 4.0166788853494215E8 ; 4.980302130242689E8 ; 3.967537649598959E10 ; 38106.97999999996
108 ; 4672608.848182192 ; 4.016780673817253E8 ; 5.027046114738881E8 ; 4.0077044384524536E10 ; 38463.11999999996
109 ; 4669006.296775326 ; 4.016882274759108E8 ; 5.073772203220703E8 ; 4.0478722451906265E10 ; 38819.25999999996
110 ; 4670660.056847468 ; 4.016983685747124E8 ; 5.1204622661884564E8 ; 4.088041067938218E10 ; 39175.39999999996
111 ; 4670215.381802436 ; 4.017084904376015E8 ; 5.167168866756931E8 ; 4.1282109047956894E10 ; 39531.53999999996
112 ; 4668153.819821773 ; 4.017185928262212E8 ; 5.2138710205749553E8 ; 4.168381753839449E10 ; 39887.67999999996
113 ; 4668098.339351676 ; 4.0172867550430566E8 ; 5.260552558773173E8 ; 4.208553613122071E10 ; 40243.819999999956
114 ; 4663405.061136064 ; 4.0173873823760366E8 ; 5.3072335421666896E8 ; 4.248726480672501E10 ; 40599.959999999955
115 ; 4663636.538001426 ; 4.017487807938075E8 ; 5.3538675927780503E8 ; 4.2889003544962616E10 ; 40956.099999999955
116 ; 4659127.603058991 ; 4.01758802942485E8 ; 5.400503958158065E8 ; 4.3290752325756424E10 ; 41312.239999999954
117 ; 4659312.786066843 ; 4.017688044550164E8 ; 5.447095234188654E8 ; 4.3692511128698906E10 ; 41668.379999999954
118 ; 4657301.44398527 ; 4.0177878510453415E8 ; 5.493688362049323E8 ; 4.409427993315392E10 ; 42024.51999999995
119 ; 4655648.713493341 ; 4.017887446658666E8 ; 5.540261376489176E8 ; 4.449605871825845E10 ; 42380.65999999995
120 ; 4653563.813102509 ; 4.0179868291548467E8 ; 5.586817863624109E8 ; 4.489784746292432E10 ; 42736.79999999995
121 ; 4654044.696730394 ; 4.0180859963145137E8 ; 5.633353501755134E8 ; 4.52996461458398E10 ; 43092.93999999995
122 ; 4650462.626096898 ; 4.0181849459337455E8 ; 5.679893948722438E8 ; 4.570145474547125E10 ; 43449.07999999995
123 ; 4648789.893363334 ; 4.0182836758236223E8 ; 5.726398574983406E8 ; 4.610327324006463E10 ; 43805.21999999995
124 ; 4646742.5729383435 ; 4.018382183809799E8 ; 5.77288647391704E8 ; 4.650510160764699E10 ; 44161.35999999995
125 ; 4642765.277654386 ; 4.018480467732109E8 ; 5.819353899646423E8 ; 4.690693982602797E10 ; 44517.49999999995
126 ; 4641187.022674167 ; 4.0185785254441833E8 ; 5.865781552422967E8 ; 4.730878787280118E10 ; 44873.63999999995
127 ; 4638434.700667015 ; 4.0186763548130983E8 ; 5.912193422649709E8 ; 4.77106457253456E10 ; 45229.77999999995
128 ; 4634569.151816903 ; 4.018773953719033E8 ; 5.958577769656379E8 ; 4.8112513360826904E10 ; 45585.91999999995
129 ; 4631934.2796656545 ; 4.018871320054953E8 ; 6.004923461174548E8 ; 4.851439075619881E10 ; 45942.05999999995
130 ; 4628096.295700326 ; 4.01896845172631E8 ; 6.051242803971205E8 ; 4.89162778882043E10 ; 46298.199999999946
131 ; 4623391.151120066 ; 4.019065346650753E8 ; 6.097523766928208E8 ; 4.931817473337693E10 ; 46654.339999999946
132 ; 4621361.908702627 ; 4.0191620027578604E8 ; 6.143757678439409E8 ; 4.972008126804201E10 ; 47010.479999999945
133 ; 4621744.254249228 ; 4.019258417988887E8 ; 6.189971297526435E8 ; 5.0121997468317795E10 ; 47366.619999999944
134 ; 4617585.722907868 ; 4.0193545902965176E8 ; 6.236188740068927E8 ; 5.0523923310116684E10 ; 47722.759999999944
135 ; 4615244.859642221 ; 4.0194505176446414E8 ; 6.282364597298006E8 ; 5.092585876914634E10 ; 48078.89999999994
136 ; 4613850.938701843 ; 4.0195461980081356E8 ; 6.328517045894428E8 ; 5.1327803820910805E10 ; 48435.03999999994
137 ; 4610699.809819794 ; 4.019641629372661E8 ; 6.374655555281447E8 ; 5.172975844071162E10 ; 48791.17999999994
138 ; 4606808.271882433 ; 4.0197368097344667E8 ; 6.420762553379645E8 ; 5.213172260364888E10 ; 49147.31999999994
139 ; 4604550.99021735 ; 4.019831737100208E8 ; 6.46683063609847E8 ; 5.253369628462233E10 ; 49503.45999999994
140 ; 4600492.825106585 ; 4.019926409486772E8 ; 6.512876146000643E8 ; 5.293567945833235E10 ; 49859.59999999994
141 ; 4598668.62305807 ; 4.020020824921115E8 ; 6.558881074251709E8 ; 5.333767209928103E10 ; 50215.73999999994
142 ; 4595855.419869195 ; 4.0201149814401054E8 ; 6.60486776048229E8 ; 5.373967418177314E10 ; 50571.87999999994
143 ; 4594377.586454573 ; 4.020208877090378E8 ; 6.650826314680982E8 ; 5.414168567991715E10 ; 50928.01999999994
144 ; 4589933.583704983 ; 4.020302509928193E8 ; 6.696770090545528E8 ; 5.454370656762619E10 ; 51284.15999999994
145 ; 4587684.648606132 ; 4.0203958780193067E8 ; 6.742669426382577E8 ; 5.494573681861901E10 ; 51640.29999999994
146 ; 4588225.99225017 ; 4.020488979438845E8 ; 6.788546272868639E8 ; 5.5347776406420944E10 ; 51996.43999999994
147 ; 4585546.041976444 ; 4.0205818122711873E8 ; 6.834428532791141E8 ; 5.574982530436483E10 ; 52352.579999999936
148 ; 4584986.660625888 ; 4.020674374609854E8 ; 6.880283993210906E8 ; 5.615188348559195E10 ; 52708.719999999936
149 ; 4581885.467397139 ; 4.020766664557402E8 ; 6.926133859817165E8 ; 5.655395092305293E10 ; 53064.859999999935
150 ; 4582593.966747006 ; 4.0208586802253246E8 ; 6.971952714491136E8 ; 5.6956027589508675E10 ; 53420.999999999935
151 ; 4580227.215261048 ; 4.020950419733959E8 ; 7.017778654158607E8 ; 5.7358113457531204E10 ; 53777.139999999934
152 ; 4578245.569010312 ; 4.021041881212394E8 ; 7.063580926311218E8 ; 5.77602084995046E10 ; 54133.27999999993
153 ; 4576686.874035953 ; 4.0211330627983916E8 ; 7.10936338200132E8 ; 5.816231268762584E10 ; 54489.41999999993
154 ; 4575593.1987847695 ; 4.0212239626383024E8 ; 7.15513025074168E8 ; 5.856442599390568E10 ; 54845.55999999993
155 ; 4574664.513830073 ; 4.021314578886996E8 ; 7.200886182729528E8 ; 5.896654839016951E10 ; 55201.69999999993
156 ; 4573304.168360825 ; 4.021404909707787E8 ; 7.246632827867829E8 ; 5.936867984805821E10 ; 55557.83999999993
157 ; 4574047.937267835 ; 4.02149495327237E8 ; 7.292365869551437E8 ; 5.977082033902899E10 ; 55913.97999999993
158 ; 4571893.56440781 ; 4.021584707760759E8 ; 7.338106348924115E8 ; 6.017296983435623E10 ; 56270.11999999993
159 ; 4571617.770028286 ; 4.021674171361226E8 ; 7.383825284568193E8 ; 6.057512830513231E10 ; 56626.25999999993
160 ; 4571250.025303657 ; 4.021763342270247E8 ; 7.429541462268475E8 ; 6.097729572226843E10 ; 56982.39999999993
161 ; 4568547.954042002 ; 4.0218522186924505E8 ; 7.475253962521511E8 ; 6.137947205649546E10 ; 57338.53999999993
162 ; 4565676.352789277 ; 4.0219407988405687E8 ; 7.520939442061931E8 ; 6.178165727836471E10 ; 57694.67999999993
163 ; 4564870.644950984 ; 4.0220290809353924E8 ; 7.566596205589824E8 ; 6.2183851358248764E10 ; 58050.81999999993
164 ; 4560964.124598435 ; 4.0221170632057273E8 ; 7.612244912039334E8 ; 6.25860542663423E10 ; 58406.95999999993
165 ; 4557988.943826954 ; 4.0222047438883543E8 ; 7.657854553285317E8 ; 6.298826597266287E10 ; 58763.099999999926
166 ; 4558528.0426817695 ; 4.022292121227993E8 ; 7.703434442723587E8 ; 6.3390486447051704E10 ; 59119.239999999925
167 ; 4557085.59734978 ; 4.022379193477266E8 ; 7.749019723150405E8 ; 6.379271565917451E10 ; 59475.379999999925
168 ; 4553851.920426738 ; 4.022465958896668E8 ; 7.794590579123902E8 ; 6.419495357852223E10 ; 59831.519999999924
169 ; 4551812.411401292 ; 4.0225524157545334E8 ; 7.84012909832817E8 ; 6.4597200174411896E10 ; 60187.65999999992
170 ; 4550737.667710979 ; 4.0226385623270106E8 ; 7.885647222442182E8 ; 6.499945541598735E10 ; 60543.79999999992
171 ; 4549097.9784487095 ; 4.022724396898035E8 ; 7.931154599119292E8 ; 6.5401719272220055E10 ; 60899.93999999992
172 ; 4548108.3399758665 ; 4.0228099177593046E8 ; 7.97664557890378E8 ; 6.580399171190986E10 ; 61256.07999999992
173 ; 4547330.839119958 ; 4.02289512321026E8 ; 8.022126662303538E8 ; 6.620627270368579E10 ; 61612.21999999992
174 ; 4546238.094659918 ; 4.0229800115580636E8 ; 8.067599970694737E8 ; 6.660856221600682E10 ; 61968.35999999992
175 ; 4547148.499462406 ; 4.023064581117579E8 ; 8.113062351641337E8 ; 6.701086021716263E10 ; 62324.49999999992
176 ; 4546718.8306389665 ; 4.023148830211358E8 ; 8.15853383663596E8 ; 6.741316667527438E10 ; 62680.63999999992
177 ; 4547119.035544963 ; 4.023232757169621E8 ; 8.20400102494235E8 ; 6.781548155829552E10 ; 63036.77999999992
