CSV File for the Network on Day 104
1 - Minute m 
2 - Power Consumed at minute m 
3 - Power Produced at minute m 
4 - Energy Consumed since the beginning of the day 
5 - Energy Produced since the beginning of the day 
6 - Energy Lost since the beginning of the day 
 
0 ; 3.879834782936864E7 ; 6.352689782180974E8 ; 0.0 ; 0.0 ; 0.0
1 ; 3.884208386441831E7 ; 6.361798789986901E8 ; 3.879834782936864E7 ; 6.352689782180974E8 ; 0.0
2 ; 3.8880805468139775E7 ; 6.389441653478225E8 ; 7.764043169378695E7 ; 1.2714488572167876E9 ; 0.0
3 ; 3.8935654264928415E7 ; 6.435618528677034E8 ; 1.1652123716192672E8 ; 1.91039302256461E9 ; 0.0
4 ; 3.898881174679144E7 ; 6.50032955531347E8 ; 1.5545689142685515E8 ; 2.5539548754323134E9 ; 0.0
5 ; 3.9059993575595684E7 ; 6.583574856083233E8 ; 1.9444570317364657E8 ; 3.2039878309636602E9 ; 0.0
6 ; 3.915486239699058E7 ; 6.685354535983624E8 ; 2.3350569674924225E8 ; 3.8623453165719833E9 ; 0.0
7 ; 3.928948017112101E7 ; 6.805668681736509E8 ; 2.7266055914623284E8 ; 4.530880770170345E9 ; 0.0
8 ; 3.9470365862787716E7 ; 6.944517361305469E8 ; 3.1195003931735384E8 ; 5.211447638343996E9 ; 0.0
9 ; 3.975375715702754E7 ; 7.101900623513479E8 ; 3.5142040518014157E8 ; 5.905899374474543E9 ; 0.0
10 ; 4.018952836908049E7 ; 7.277818497766086E8 ; 3.911741623371691E8 ; 6.616089436825891E9 ; 0.0
11 ; 4.087938086851113E7 ; 7.472270993883849E8 ; 4.313636907062496E8 ; 7.343871286602499E9 ; 0.0
12 ; 4.199081213846193E7 ; 7.685258102046212E8 ; 4.7224307157476074E8 ; 8.091098385990884E9 ; 0.0
13 ; 4.3053050059829175E7 ; 7.916779792847619E8 ; 5.142338837132227E8 ; 8.859624196195505E9 ; 0.0
14 ; 4.317880064244732E7 ; 8.166836017465107E8 ; 5.572869337730519E8 ; 9.651302175480267E9 ; 0.0
15 ; 4.322937874329351E7 ; 8.435426707935084E8 ; 6.004657344154992E8 ; 1.0467985777226778E10 ; 0.0
16 ; 4.328105434057541E7 ; 8.722551777535692E8 ; 6.436951131587927E8 ; 1.1311528448020287E10 ; 0.0
17 ; 4.333140795177279E7 ; 9.028211121269628E8 ; 6.869761674993682E8 ; 1.2183783625773855E10 ; 0.0
18 ; 4.3389769847487226E7 ; 9.352404616441188E8 ; 7.30307575451141E8 ; 1.3086604737900818E10 ; 0.0
19 ; 4.3436552400962174E7 ; 9.695132123320234E8 ; 7.736973452986282E8 ; 1.4021845199544937E10 ; 0.0
20 ; 4.3488383468479455E7 ; 1.0056393485884676E9 ; 8.171338976995904E8 ; 1.499135841187696E10 ; 0.0
21 ; 4.354858772021517E7 ; 1.0436188532632588E9 ; 8.606222811680698E8 ; 1.5996997760465427E10 ; 0.0
22 ; 4.359623294682916E7 ; 1.0834517077454302E9 ; 9.04170868888285E8 ; 1.7040616613728685E10 ; 0.0
23 ; 4.364782385834659E7 ; 1.1251378920554595E9 ; 9.477671018351142E8 ; 1.8124068321474117E10 ; 0.0
24 ; 4.369808926344181E7 ; 1.168677384941484E9 ; 9.914149256934608E8 ; 1.9249206213529575E10 ; 0.0
25 ; 4.375305975566754E7 ; 1.2061984093676128E9 ; 1.0351130149569026E9 ; 2.0417883598471058E10 ; 0.0
26 ; 4.379701953124942E7 ; 1.206222228836512E9 ; 1.0788660747125702E9 ; 2.162408200783867E10 ; 0.0
27 ; 4.384500512620381E7 ; 1.206247434641086E9 ; 1.1226630942438197E9 ; 2.2830304236675182E10 ; 0.0
28 ; 4.389928529960209E7 ; 1.2062740014475155E9 ; 1.1665080993700235E9 ; 2.403655167131627E10 ; 0.0
29 ; 4.395052562239504E7 ; 1.2063019031564279E9 ; 1.2104073846696255E9 ; 2.5242825672763786E10 ; 0.0
30 ; 4.400236980738618E7 ; 1.2063311130031128E9 ; 1.2543579102920206E9 ; 2.6449127575920216E10 ; 0.0
31 ; 4.405443197889816E7 ; 1.206361603655548E9 ; 1.2983602800994067E9 ; 2.765545868892333E10 ; 0.0
32 ; 4.4096187552559584E7 ; 1.2063933473096132E9 ; 1.3424147120783048E9 ; 2.8861820292578876E10 ; 0.0
33 ; 4.4138192391929165E7 ; 1.2064263157809477E9 ; 1.3865108996308644E9 ; 3.006821363988849E10 ; 0.0
34 ; 4.418385954700474E7 ; 1.2064604805929923E9 ; 1.4306490920227935E9 ; 3.1274639955669437E10 ; 0.0
35 ; 4.423050499413069E7 ; 1.2064958130608387E9 ; 1.4748329515697982E9 ; 3.248110043626243E10 ; 0.0
36 ; 4.4274204624225795E7 ; 1.206532284370585E9 ; 1.5190634565639288E9 ; 3.3687596249323265E10 ; 0.0
37 ; 4.431613200709991E7 ; 1.2065698656539764E9 ; 1.5633376611881547E9 ; 3.489412853369385E10 ; 0.0
38 ; 4.434916176895755E7 ; 1.206608528058176E9 ; 1.6076537931952546E9 ; 3.6100698399347824E10 ; 0.0
39 ; 4.438759016969074E7 ; 1.206648242810581E9 ; 1.6520029549642122E9 ; 3.7307306927406E10 ; 0.0
40 ; 4.442383954543054E7 ; 1.2066889812786493E9 ; 1.696390545133903E9 ; 3.8513955170216576E10 ; 0.0
41 ; 4.446092407955694E7 ; 1.2067307150247686E9 ; 1.7408143846793337E9 ; 3.9720644151495224E10 ; 0.0
42 ; 4.44923439770571E7 ; 1.2067734158562312E9 ; 1.7852753087588906E9 ; 4.092737486651999E10 ; 0.0
43 ; 4.452292189691757E7 ; 1.2068170558704283E9 ; 1.8297676527359476E9 ; 4.213414828237622E10 ; 0.0
44 ; 4.454669363946914E7 ; 1.2068616074954052E9 ; 1.8742905746328652E9 ; 4.334096533824665E10 ; 0.0
45 ; 4.4582659728165135E7 ; 1.2069070435259523E9 ; 1.9188372682723343E9 ; 4.454782694574206E10 ; 0.0
46 ; 4.4605368996846E7 ; 1.2069533371554198E9 ; 1.9634199280004995E9 ; 4.575473398926801E10 ; 0.0
47 ; 4.462754723699435E7 ; 1.207000462003474E9 ; 2.0080252969973454E9 ; 4.696168732642343E10 ; 0.0
48 ; 4.4649472174234115E7 ; 1.2070483921400099E9 ; 2.0526528442343397E9 ; 4.81686877884269E10 ; 0.0
49 ; 4.466918249066473E7 ; 1.2070971021054587E9 ; 2.0973023164085739E9 ; 4.937573618056691E10 ; 0.0
50 ; 4.4684181178466596E7 ; 1.2071465669277186E9 ; 2.1419714988992386E9 ; 5.058283328267237E10 ; 0.0
51 ; 4.470068049388321E7 ; 1.2071967621359518E9 ; 2.1866556800777054E9 ; 5.178997984960009E10 ; 0.0
52 ; 4.4718349633277245E7 ; 1.2072476637714748E9 ; 2.2313563605715885E9 ; 5.299717661173604E10 ; 0.0
53 ; 4.4740351649423465E7 ; 1.2072992483959818E9 ; 2.276074710204866E9 ; 5.4204424275507515E10 ; 0.0
54 ; 4.474905848853977E7 ; 1.2073514930973153E9 ; 2.3208150618542895E9 ; 5.5411723523903496E10 ; 0.0
55 ; 4.476562703725244E7 ; 1.2074043754930098E9 ; 2.365564120342829E9 ; 5.661907501700081E10 ; 0.0
56 ; 4.477684524801298E7 ; 1.2074578737318125E9 ; 2.4103297473800817E9 ; 5.782647939249382E10 ; 0.0
57 ; 4.4787944804441914E7 ; 1.207511966493379E9 ; 2.4551065926280947E9 ; 5.903393726622563E10 ; 0.0
58 ; 4.4804564906128615E7 ; 1.2075666329863355E9 ; 2.4998945374325366E9 ; 6.024144923271901E10 ; 0.0
59 ; 4.481168822007595E7 ; 1.2076218529448786E9 ; 2.544699102338665E9 ; 6.1449015865705345E10 ; 0.0
60 ; 4.482672722809979E7 ; 1.2076776066240888E9 ; 2.589510790558741E9 ; 6.265663771865022E10 ; 0.0
61 ; 4.483221449384244E7 ; 1.2077338747941003E9 ; 2.634337517786841E9 ; 6.3864315325274315E10 ; 0.0
62 ; 4.485453021915221E7 ; 1.207790638733283E9 ; 2.6791697322806835E9 ; 6.507204920006841E10 ; 0.0
63 ; 4.4862181943360515E7 ; 1.2078478802205632E9 ; 2.724024262499836E9 ; 6.62798398388017E10 ; 0.0
64 ; 4.487710975134091E7 ; 1.2079055815270064E9 ; 2.7688864444431963E9 ; 6.748768771902226E10 ; 0.0
65 ; 4.4884632509564586E7 ; 1.2079637254067786E9 ; 2.813763554194537E9 ; 6.869559330054927E10 ; 0.0
66 ; 4.4897034058923766E7 ; 1.2080222950875845E9 ; 2.8586481867041016E9 ; 6.990355702595605E10 ; 0.0
67 ; 4.490953118417894E7 ; 1.2080812742606802E9 ; 2.9035452207630253E9 ; 7.111157932104364E10 ; 0.0
68 ; 4.491349309283796E7 ; 1.2081406470705445E9 ; 2.948454751947204E9 ; 7.231966059530432E10 ; 0.0
69 ; 4.49242923590603E7 ; 1.2082003981042829E9 ; 2.993368245040042E9 ; 7.352780124237486E10 ; 0.0
70 ; 4.493396563769728E7 ; 1.2082605123808382E9 ; 3.038292537399102E9 ; 7.473600164047914E10 ; 0.0
71 ; 4.4941203132382564E7 ; 1.208320975340067E9 ; 3.0832265030367994E9 ; 7.594426215285999E10 ; 0.0
72 ; 4.494720002829495E7 ; 1.208381772831737E9 ; 3.128167706169182E9 ; 7.715258312820006E10 ; 0.0
73 ; 4.495449843675909E7 ; 1.2084428911044962E9 ; 3.173114906197477E9 ; 7.83609649010318E10 ; 0.0
74 ; 4.496555445069899E7 ; 1.208504316794856E9 ; 3.218069404634236E9 ; 7.956940779213629E10 ; 0.0
75 ; 4.496926572568704E7 ; 1.2085660369162273E9 ; 3.2630349590849347E9 ; 8.077791210893115E10 ; 0.0
76 ; 4.497275860720223E7 ; 1.208628038848042E9 ; 3.3080042248106217E9 ; 8.198647814584738E10 ; 0.0
77 ; 4.498535166806568E7 ; 1.2086903103249907E9 ; 3.352976983417824E9 ; 8.319510618469542E10 ; 0.0
78 ; 4.4980220792897366E7 ; 1.2087528394264007E9 ; 3.3979623350858893E9 ; 8.440379649502042E10 ; 0.0
79 ; 4.4974574803650595E7 ; 1.208815614565775E9 ; 3.4429425558787866E9 ; 8.561254933444682E10 ; 0.0
80 ; 4.4960116674152955E7 ; 1.2088786244805126E9 ; 3.487917130682437E9 ; 8.68213649490126E10 ; 0.0
81 ; 4.495376660515554E7 ; 1.2089418582218227E9 ; 3.53287724735659E9 ; 8.803024357349312E10 ; 0.0
82 ; 4.494523902053841E7 ; 1.2090053051448486E9 ; 3.5778310139617453E9 ; 8.923918543171494E10 ; 0.0
83 ; 4.493292926259928E7 ; 1.2090689548990068E9 ; 3.6227762529822836E9 ; 9.044819073685979E10 ; 0.0
84 ; 4.49198538864063E7 ; 1.2091327974185567E9 ; 3.667709182244883E9 ; 9.165725969175879E10 ; 0.0
85 ; 4.4922290653476864E7 ; 1.2091968229133973E9 ; 3.7126290361312895E9 ; 9.286639248917735E10 ; 0.0
86 ; 4.490808363621821E7 ; 1.209261021860106E9 ; 3.757551326784766E9 ; 9.407558931209074E10 ; 0.0
87 ; 4.489638332294673E7 ; 1.2093253849932127E9 ; 3.8024594104209843E9 ; 9.528485033395085E10 ; 0.0
88 ; 4.488615340427437E7 ; 1.2093899032967184E9 ; 3.847355793743931E9 ; 9.649417571894406E10 ; 0.0
89 ; 4.48745683616247E7 ; 1.2094545679958532E9 ; 3.8922419471482053E9 ; 9.770356562224078E10 ; 0.0
90 ; 4.486331448528358E7 ; 1.2095193705490794E9 ; 3.93711651550983E9 ; 9.891302019023663E10 ; 0.0
91 ; 4.485045230635522E7 ; 1.2095843026403294E9 ; 3.9819798299951134E9 ; 1.001225395607857E11 ; 0.0
92 ; 4.483816791858146E7 ; 1.2096493561714861E9 ; 4.0268302823014684E9 ; 1.0133212386342604E11 ; 0.0
93 ; 4.4825480526008405E7 ; 1.2097145232550955E9 ; 4.07166845022005E9 ; 1.0254177321959753E11 ; 0.0
94 ; 4.48098176246644E7 ; 1.2097797962073116E9 ; 4.1164939307460585E9 ; 1.0375148774285263E11 ; 0.0
95 ; 4.479391516751808E7 ; 1.2098451675410707E9 ; 4.161303748370723E9 ; 1.0496126753905994E11 ; 0.0
96 ; 4.478253623571943E7 ; 1.209910629959485E9 ; 4.206097663538241E9 ; 1.0617111270660101E11 ; 0.0
97 ; 4.4771970241759196E7 ; 1.2099761763494608E9 ; 4.25088019977396E9 ; 1.073810233365605E11 ; 0.0
98 ; 4.476343575638895E7 ; 1.2100417997755246E9 ; 4.295652170015719E9 ; 1.0859099951290996E11 ; 0.0
99 ; 4.473793744302848E7 ; 1.2101074934738638E9 ; 4.340415605772108E9 ; 1.0980104131268549E11 ; 0.0
100 ; 4.472692925657652E7 ; 1.2101732508465679E9 ; 4.385153543215137E9 ; 1.1101114880615935E11 ; 0.0
101 ; 4.4710649981208205E7 ; 1.2102390654560685E9 ; 4.429880472471713E9 ; 1.1222132205700592E11 ; 0.0
102 ; 4.4689460520324126E7 ; 1.2103049310197742E9 ; 4.474591122452921E9 ; 1.1343156112246199E11 ; 0.0
103 ; 4.467309225033273E7 ; 1.2103708414048903E9 ; 4.519280582973245E9 ; 1.1464186605348177E11 ; 0.0
104 ; 4.46554378599066E7 ; 1.2104367906234224E9 ; 4.5639536752235775E9 ; 1.1585223689488666E11 ; 0.0
105 ; 4.464209027915874E7 ; 1.2105027728273585E9 ; 4.608609113083484E9 ; 1.1706267368551009E11 ; 0.0
106 ; 4.4629003823745355E7 ; 1.2105687823040173E9 ; 4.653251203362642E9 ; 1.1827317645833745E11 ; 0.0
107 ; 4.460558736878889E7 ; 1.2106348134715672E9 ; 4.697880207186388E9 ; 1.1948374524064146E11 ; 0.0
108 ; 4.459183823444836E7 ; 1.2107008608747044E9 ; 4.742485794555177E9 ; 1.2069438005411304E11 ; 0.0
109 ; 4.456820439417776E7 ; 1.2107669191804833E9 ; 4.787077632789625E9 ; 1.2190508091498775E11 ; 0.0
110 ; 4.454792862457888E7 ; 1.2108329831743035E9 ; 4.831645837183803E9 ; 1.2311584783416823E11 ; 0.0
111 ; 4.4529950244372964E7 ; 1.2108990477560349E9 ; 4.876193765808381E9 ; 1.2432668081734253E11 ; 0.0
112 ; 4.451012171372613E7 ; 1.2109651079362874E9 ; 4.920723716052754E9 ; 1.2553757986509857E11 ; 0.0
113 ; 4.449297865836489E7 ; 1.2110311588328137E9 ; 4.96523383776648E9 ; 1.2674854497303487E11 ; 0.0
114 ; 4.4467552883800745E7 ; 1.2110971956670449E9 ; 5.009726816424846E9 ; 1.2795957613186768E11 ; 0.0
115 ; 4.444488614180079E7 ; 1.2111632137607493E9 ; 5.054194369308646E9 ; 1.2917067332753471E11 ; 0.0
116 ; 4.442405775305368E7 ; 1.2112292085328143E9 ; 5.098639255450447E9 ; 1.3038183654129546E11 ; 0.0
117 ; 4.4399718134786494E7 ; 1.2112951754961457E9 ; 5.143063313203501E9 ; 1.3159306574982828E11 ; 0.0
118 ; 4.438105076105559E7 ; 1.2113611102546787E9 ; 5.187463031338287E9 ; 1.3280436092532442E11 ; 0.0
119 ; 4.435528660336974E7 ; 1.2114270085004983E9 ; 5.231844082099343E9 ; 1.340157220355791E11 ; 0.0
120 ; 4.433105332961885E7 ; 1.211492866011065E9 ; 5.276199368702713E9 ; 1.352271490440796E11 ; 0.0
121 ; 4.431918667439835E7 ; 1.2115586786465406E9 ; 5.320530422032331E9 ; 1.3643864191009067E11 ; 0.0
122 ; 4.428852655703969E7 ; 1.211624442347212E9 ; 5.36484960870673E9 ; 1.376502005887372E11 ; 0.0
123 ; 4.426492487790296E7 ; 1.2116901531310077E9 ; 5.409138135263769E9 ; 1.388618250310844E11 ; 0.0
124 ; 4.423765474918773E7 ; 1.2117558070911055E9 ; 5.453403060141672E9 ; 1.4007351518421542E11 ; 0.0
125 ; 4.421711949893688E7 ; 1.2118214003936257E9 ; 5.49764071489086E9 ; 1.4128527099130652E11 ; 0.0
126 ; 4.419195438602112E7 ; 1.21188692927541E9 ; 5.541857834389796E9 ; 1.4249709239170013E11 ; 0.0
127 ; 4.415351904587937E7 ; 1.211952390041879E9 ; 5.586049788775817E9 ; 1.4370897932097556E11 ; 0.0
128 ; 4.413662661429137E7 ; 1.2120177790649667E9 ; 5.630203307821696E9 ; 1.4492093171101743E11 ; 0.0
129 ; 4.41115730280162E7 ; 1.2120830927811315E9 ; 5.674339934435987E9 ; 1.461329494900824E11 ; 0.0
130 ; 4.407541468634346E7 ; 1.212148327689437E9 ; 5.718451507464004E9 ; 1.4734503258286353E11 ; 0.0
131 ; 4.403896591056959E7 ; 1.2122134803497038E9 ; 5.762526922150347E9 ; 1.4855718091055295E11 ; 0.0
132 ; 4.399164139275691E7 ; 1.212278547380725E9 ; 5.806565888060916E9 ; 1.4976939439090265E11 ; 0.0
133 ; 4.395867682829631E7 ; 1.2123435254585476E9 ; 5.850557529453672E9 ; 1.509816729382834E11 ; 0.0
134 ; 4.390818685803189E7 ; 1.212408411314815E9 ; 5.894516206281969E9 ; 1.5219401646374194E11 ; 0.0
135 ; 4.387293548283698E7 ; 1.2124732017351682E9 ; 5.938424393140001E9 ; 1.5340642487505676E11 ; 0.0
136 ; 4.3825710491762705E7 ; 1.2125378935577047E9 ; 5.982297328622838E9 ; 1.5461889807679193E11 ; 0.0
137 ; 4.378621285822578E7 ; 1.2126024836714907E9 ; 6.026123039114601E9 ; 1.5583143597034964E11 ; 0.0
138 ; 4.374482156275728E7 ; 1.2126669690151281E9 ; 6.069909251972827E9 ; 1.5704403845402112E11 ; 0.0
139 ; 4.369440221390946E7 ; 1.2127313465753698E9 ; 6.113654073535584E9 ; 1.5825670542303625E11 ; 0.0
140 ; 4.365312526799987E7 ; 1.2127956133857858E9 ; 6.157348475749494E9 ; 1.5946943676961163E11 ; 0.0
141 ; 4.361440503035267E7 ; 1.212859766525476E9 ; 6.201001601017493E9 ; 1.606822323829974E11 ; 0.0
142 ; 4.356829752794148E7 ; 1.2129238031178265E9 ; 6.244616006047846E9 ; 1.618950921495229E11 ; 0.0
143 ; 4.3522673013010785E7 ; 1.2129877203293118E9 ; 6.288184303575788E9 ; 1.6310801595264072E11 ; 0.0
144 ; 4.348210499249054E7 ; 1.2130515153683374E9 ; 6.3317069765887985E9 ; 1.6432100367297003E11 ; 0.0
145 ; 4.344296281112376E7 ; 1.2131151854841223E9 ; 6.375189081581289E9 ; 1.6553405518833838E11 ; 0.0
146 ; 4.342359105584088E7 ; 1.2131787279656222E9 ; 6.418632044392413E9 ; 1.667471703738225E11 ; 0.0
147 ; 4.33934566767449E7 ; 1.2132421401404881E9 ; 6.462055635448254E9 ; 1.6796034910178815E11 ; 0.0
148 ; 4.336093417098393E7 ; 1.213305419374062E9 ; 6.505449092124998E9 ; 1.6917359124192865E11 ; 0.0
149 ; 4.333612411121826E7 ; 1.2133685630684075E9 ; 6.548810026295982E9 ; 1.703868966613027E11 ; 0.0
150 ; 4.330550019009227E7 ; 1.2134315686613715E9 ; 6.592146150407201E9 ; 1.7160026522437112E11 ; 0.0
151 ; 4.327514838101203E7 ; 1.2134944336256812E9 ; 6.635451650597293E9 ; 1.728136967930325E11 ; 0.0
152 ; 4.3250055976409E7 ; 1.21355715546807E9 ; 6.678726798978305E9 ; 1.7402719122665817E11 ; 0.0
153 ; 4.3213203157276474E7 ; 1.2136197317284331E9 ; 6.721976854954714E9 ; 1.7524074838212625E11 ; 0.0
154 ; 4.3189390338392384E7 ; 1.2136821599790142E9 ; 6.76519005811199E9 ; 1.7645436811385468E11 ; 0.0
155 ; 4.316028546652446E7 ; 1.213744437823615E9 ; 6.808379448450382E9 ; 1.7766805027383368E11 ; 0.0
156 ; 4.312807618586877E7 ; 1.2138065628968375E9 ; 6.851539733916906E9 ; 1.788817947116573E11 ; 0.0
157 ; 4.309104168449366E7 ; 1.2138685328633466E9 ; 6.894667810102776E9 ; 1.8009560127455414E11 ; 0.0
158 ; 4.306601201605837E7 ; 1.2139303454171603E9 ; 6.93775885178727E9 ; 1.8130946980741748E11 ; 0.0
159 ; 4.303506305652698E7 ; 1.2139919982809632E9 ; 6.980824863803328E9 ; 1.8252340015283466E11 ; 0.0
160 ; 4.3005347561564825E7 ; 1.214053489205443E9 ; 7.023859926859855E9 ; 1.8373739215111563E11 ; 0.0
161 ; 4.2973213566715434E7 ; 1.2141148159686477E9 ; 7.066865274421419E9 ; 1.8495144564032108E11 ; 0.0
162 ; 4.294654643617854E7 ; 1.2141759763753672E9 ; 7.109838487988134E9 ; 1.8616556045628973E11 ; 0.0
163 ; 4.291636341129151E7 ; 1.2142369682565322E9 ; 7.152785034424313E9 ; 1.873797364326651E11 ; 0.0
164 ; 4.2883864736804515E7 ; 1.2142977894686346E9 ; 7.195701397835604E9 ; 1.8859397340092163E11 ; 0.0
165 ; 4.285138598671277E7 ; 1.2143584378931675E9 ; 7.238585262572409E9 ; 1.8980827119039026E11 ; 0.0
166 ; 4.282115542322031E7 ; 1.2144189114360816E9 ; 7.281436648559121E9 ; 1.9102262962828342E11 ; 0.0
167 ; 4.278627337900329E7 ; 1.2144792080272627E9 ; 7.324257803982342E9 ; 1.922370485397195E11 ; 0.0
168 ; 4.275778575906105E7 ; 1.2145393256200218E9 ; 7.367044077361345E9 ; 1.9345152774774677E11 ; 0.0
169 ; 4.272738756823015E7 ; 1.2145992621906066E9 ; 7.409801863120406E9 ; 1.946660670733668E11 ; 0.0
170 ; 4.269496588582175E7 ; 1.2146590157377245E9 ; 7.452529250688637E9 ; 1.958806663355574E11 ; 0.0
171 ; 4.26646576741026E7 ; 1.2147185842820864E9 ; 7.495224216574458E9 ; 1.9709532535129514E11 ; 0.0
172 ; 4.262319261457086E7 ; 1.2147779658659582E9 ; 7.537888874248561E9 ; 1.983100439355772E11 ; 0.0
173 ; 4.2594168123511925E7 ; 1.2148371585527332E9 ; 7.5805120668631315E9 ; 1.9952482190144318E11 ; 0.0
174 ; 4.258254114339012E7 ; 1.2148961604265153E9 ; 7.623106234986644E9 ; 2.007396590599959E11 ; 0.0
175 ; 4.255494308718236E7 ; 1.2149549695917156E9 ; 7.6656887761300335E9 ; 2.0195455522042242E11 ; 0.0
176 ; 4.2534512208370015E7 ; 1.2150135841726618E9 ; 7.708243719217216E9 ; 2.0316951019001413E11 ; 0.0
177 ; 4.251383728812818E7 ; 1.2150720023132215E9 ; 7.750778231425586E9 ; 2.043845237741868E11 ; 0.0
178 ; 4.250209964800833E7 ; 1.2151302221764374E9 ; 7.793292068713714E9 ; 2.0559959577650003E11 ; 0.0
179 ; 4.247699426433532E7 ; 1.2151882419441707E9 ; 7.835794168361722E9 ; 2.0681472599867645E11 ; 0.0
180 ; 4.245710977996713E7 ; 1.21524605981676E9 ; 7.878271162626058E9 ; 2.0802991424062064E11 ; 0.0
181 ; 4.243613865185019E7 ; 1.2153036740126905E9 ; 7.920728272406025E9 ; 2.092451603004374E11 ; 0.0
182 ; 4.241830410674408E7 ; 1.21536108276827E9 ; 7.963164411057875E9 ; 2.104604639744501E11 ; 0.0
183 ; 4.239794276315208E7 ; 1.2154182843373194E9 ; 8.0055827151646185E9 ; 2.1167582505721838E11 ; 0.0
184 ; 4.237573986367485E7 ; 1.21547527699087E9 ; 8.047980657927771E9 ; 2.128912433415557E11 ; 0.0
185 ; 4.235851226979144E7 ; 1.2155320590168731E9 ; 8.090356397791446E9 ; 2.1410671861854657E11 ; 0.0
186 ; 4.233098066310626E7 ; 1.2155886287199147E9 ; 8.132714910061237E9 ; 2.1532225067756345E11 ; 0.0
187 ; 4.232200200339986E7 ; 1.2156449844209433E9 ; 8.175045890724343E9 ; 2.1653783930628336E11 ; 0.0
188 ; 4.229927098048364E7 ; 1.215701124457003E9 ; 8.217367892727743E9 ; 2.1775348429070428E11 ; 0.0
189 ; 4.2276295557593785E7 ; 1.2157570471809769E9 ; 8.259667163708227E9 ; 2.189691854151613E11 ; 0.0
190 ; 4.226410838413258E7 ; 1.2158127509613378E9 ; 8.3019434592658205E9 ; 2.2018494246234225E11 ; 0.0
191 ; 4.2230153163237296E7 ; 1.2158682341819053E9 ; 8.344207567649953E9 ; 2.214007552133036E11 ; 0.0
192 ; 4.221804686184759E7 ; 1.2159234952416127E9 ; 8.38643772081319E9 ; 2.226166234474855E11 ; 0.0
193 ; 4.2198473334524065E7 ; 1.21597853255428E9 ; 8.428655767675038E9 ; 2.238325469427271E11 ; 0.0
194 ; 4.218274534590391E7 ; 1.2160333445483935E9 ; 8.4708542410095625E9 ; 2.250485254752814E11 ; 0.0
195 ; 4.216558616807537E7 ; 1.216087929666892E9 ; 8.513036986355467E9 ; 2.262645588198298E11 ; 0.0
196 ; 4.214384095264373E7 ; 1.216142286366961E9 ; 8.555202572523542E9 ; 2.274806467494967E11 ; 0.0
