CSV File for the Network on Day 159
1 - Minute m 
2 - Power Consumed at minute m 
3 - Power Produced at minute m 
4 - Energy Consumed since the beginning of the day 
5 - Energy Produced since the beginning of the day 
6 - Energy Lost since the beginning of the day 
 
0 ; 1.8295413934510577E7 ; 6.351015756608807E8 ; 0.0 ; 0.0 ; 0.0
1 ; 1.832124645513844E7 ; 6.360124137561736E8 ; 1.8295413934510577E7 ; 6.351015756608807E8 ; 0.0
2 ; 1.83460820854769E7 ; 6.387766417872313E8 ; 3.661666038964902E7 ; 1.2711139894170542E9 ; 0.0
3 ; 1.8379756691672042E7 ; 6.433942760664219E8 ; 5.4962742475125924E7 ; 1.9098906312042856E9 ; 0.0
4 ; 1.8420722551070835E7 ; 6.498653312126065E8 ; 7.334249916679797E7 ; 2.5532849072707076E9 ; 0.0
5 ; 1.8473528705774497E7 ; 6.581898200701209E8 ; 9.17632217178688E7 ; 3.203150238483314E9 ; 0.0
6 ; 1.85530600988087E7 ; 6.683677536362308E8 ; 1.102367504236433E8 ; 3.861340058553435E9 ; 0.0
7 ; 1.866925402651402E7 ; 6.803991409980006E8 ; 1.28789810522452E8 ; 4.529707812189666E9 ; 0.0
8 ; 1.8834088221188195E7 ; 6.942839892794175E8 ; 1.4745906454896602E8 ; 5.210106953187666E9 ; 0.0
9 ; 1.909746556151087E7 ; 7.100223035994872E8 ; 1.662931527701542E8 ; 5.904390942467083E9 ; 0.0
10 ; 1.952059378073913E7 ; 7.276140870418756E8 ; 1.8539061833166507E8 ; 6.61441324606657E9 ; 0.0
11 ; 2.0194237264357027E7 ; 7.470593406365243E8 ; 2.049112121124042E8 ; 7.342027333108446E9 ; 0.0
12 ; 2.1279001659671016E7 ; 7.683580633534918E8 ; 2.2510544937676123E8 ; 8.08908667374497E9 ; 0.0
13 ; 2.2336874556163285E7 ; 7.915102521091118E8 ; 2.4638445103643224E8 ; 8.857444737098461E9 ; 0.0
14 ; 2.2448777604485694E7 ; 8.165159017843792E8 ; 2.687213255925955E8 ; 9.648954989207573E9 ; 0.0
15 ; 2.2478310950248323E7 ; 8.43375005255306E8 ; 2.911701031970812E8 ; 1.0465470890991953E10 ; 0.0
16 ; 2.251459263976219E7 ; 8.720875534348289E8 ; 3.136484141473295E8 ; 1.130884589624726E10 ; 0.0
17 ; 2.2549147204487912E7 ; 9.026535353256811E8 ; 3.361630067870917E8 ; 1.2180933449682089E10 ; 0.0
18 ; 2.2590733438947376E7 ; 9.350729380835276E8 ; 3.587121539915796E8 ; 1.308358698500777E10 ; 0.0
19 ; 2.2618926723512597E7 ; 9.693457470895069E8 ; 3.81302887430527E8 ; 1.4018659923091297E10 ; 0.0
20 ; 2.265732099118439E7 ; 1.0054719460312508E9 ; 4.0392181415403956E8 ; 1.4988005670180803E10 ; 0.0
21 ; 2.269482336112777E7 ; 1.0434515169913507E9 ; 4.26579135145224E8 ; 1.5993477616212053E10 ; 0.0
22 ; 2.2724457172426686E7 ; 1.0832844405421867E9 ; 4.4927395850635177E8 ; 1.7036929133203403E10 ; 0.0
23 ; 2.2765209738726247E7 ; 1.1249706958460085E9 ; 4.7199841567877847E8 ; 1.812021357374559E10 ; 0.0
24 ; 2.2804676509648692E7 ; 1.168510260759119E9 ; 4.947636254175047E8 ; 1.92451842695916E10 ; 0.0
25 ; 2.2843715073696654E7 ; 1.2060313573281538E9 ; 5.175683019271534E8 ; 2.0413694530350716E10 ; 0.0
26 ; 2.2870415858518846E7 ; 1.2060552481205125E9 ; 5.404120170008501E8 ; 2.161972588767887E10 ; 0.0
27 ; 2.2908406438738614E7 ; 1.2060805234836667E9 ; 5.632824328593689E8 ; 2.2825781135799385E10 ; 0.0
28 ; 2.2944144236135155E7 ; 1.2061071571355147E9 ; 5.861908392981075E8 ; 2.403186165928305E10 ; 0.0
29 ; 2.298616825953412E7 ; 1.2061351220324798E9 ; 6.091349835342426E8 ; 2.5237968816418564E10 ; 0.0
30 ; 2.300848505423568E7 ; 1.2061643904762008E9 ; 6.321211517937768E8 ; 2.6444103938451042E10 ; 0.0
31 ; 2.3047036411851674E7 ; 1.2061949342175286E9 ; 6.551296368480124E8 ; 2.7650268328927242E10 ; 0.0
32 ; 2.3077827644247215E7 ; 1.2062267245571697E9 ; 6.781766732598641E8 ; 2.885646326314477E10 ; 0.0
33 ; 2.3113808463853545E7 ; 1.2062597324424033E9 ; 7.012545009041113E8 ; 3.0062689987701942E10 ; 0.0
34 ; 2.3133462315495815E7 ; 1.2062939285594053E9 ; 7.243683093679649E8 ; 3.1268949720144344E10 ; 0.0
35 ; 2.317035750822681E7 ; 1.2063292834207923E9 ; 7.475017716834607E8 ; 3.247524364870375E10 ; 0.0
36 ; 2.3195297554989982E7 ; 1.206365767448099E9 ; 7.706721291916875E8 ; 3.3681572932124542E10 ; 0.0
37 ; 2.3218317330273874E7 ; 1.206403351048977E9 ; 7.938674267466774E8 ; 3.488793869957264E10 ; 0.0
38 ; 2.3245157498772833E7 ; 1.2064420046889873E9 ; 8.170857440769513E8 ; 3.609434205062161E10 ; 0.0
39 ; 2.3263285037436515E7 ; 1.2064816989579282E9 ; 8.403309015757241E8 ; 3.73007840553106E10 ; 0.0
40 ; 2.3286073839027412E7 ; 1.2065224046306937E9 ; 8.635941866131606E8 ; 3.850726575426853E10 ; 0.0
41 ; 2.3305128956924736E7 ; 1.2065640927227387E9 ; 8.86880260452188E8 ; 3.971378815889922E10 ; 0.0
42 ; 2.3327114089560237E7 ; 1.2066067345402417E9 ; 9.101853894091127E8 ; 4.092035225162196E10 ; 0.0
43 ; 2.3340153842823427E7 ; 1.2066503017251275E9 ; 9.33512503498673E8 ; 4.212695898616221E10 ; 0.0
44 ; 2.335967003363754E7 ; 1.2066947662951267E9 ; 9.568526573414963E8 ; 4.333360928788734E10 ; 0.0
45 ; 2.3364323007661328E7 ; 1.2067401006790855E9 ; 9.802123273751339E8 ; 4.4540304054182465E10 ; 0.0
46 ; 2.3385954489040796E7 ; 1.2067862777477558E9 ; 1.0035766503827952E9 ; 4.574704415486155E10 ; 0.0
47 ; 2.338696371352608E7 ; 1.2068332708403156E9 ; 1.0269626048718361E9 ; 4.695383043260931E10 ; 0.0
48 ; 2.3396236740720693E7 ; 1.2068810537868736E9 ; 1.0503495685853622E9 ; 4.816066370344962E10 ; 0.0
49 ; 2.3409056377227522E7 ; 1.2069296009272244E9 ; 1.073745805326083E9 ; 4.9367544757236496E10 ; 0.0
50 ; 2.340677741945375E7 ; 1.2069788871261191E9 ; 1.0971548617033105E9 ; 5.057447435816372E10 ; 0.0
51 ; 2.3406771146519132E7 ; 1.2070288877853131E9 ; 1.1205616391227643E9 ; 5.178145324528984E10 ; 0.0
52 ; 2.3409508275842074E7 ; 1.2070795788526533E9 ; 1.1439684102692835E9 ; 5.298848213307516E10 ; 0.0
53 ; 2.3409901017842695E7 ; 1.207130936828456E9 ; 1.1673779185451257E9 ; 5.419556171192781E10 ; 0.0
54 ; 2.340758485578424E7 ; 1.2071829387694206E9 ; 1.1907878195629685E9 ; 5.540269264875626E10 ; 0.0
55 ; 2.3407084923598174E7 ; 1.207235562290312E9 ; 1.2141954044187527E9 ; 5.660987558752568E10 ; 0.0
56 ; 2.340898335406623E7 ; 1.2072887855636392E9 ; 1.237602489342351E9 ; 5.7817111149815994E10 ; 0.0
57 ; 2.341233452493827E7 ; 1.2073425873175316E9 ; 1.261011472696417E9 ; 5.902439993537963E10 ; 0.0
58 ; 2.340613229662359E7 ; 1.2073969468320277E9 ; 1.2844238072213554E9 ; 6.023174252269716E10 ; 0.0
59 ; 2.3405294365082797E7 ; 1.2074518439339445E9 ; 1.3078299395179791E9 ; 6.143913946952919E10 ; 0.0
60 ; 2.340862488637069E7 ; 1.2075072589905162E9 ; 1.331235233883062E9 ; 6.2646591313463135E10 ; 0.0
61 ; 2.3405476548698585E7 ; 1.207563172901954E9 ; 1.3546438587694325E9 ; 6.385409857245365E10 ; 0.0
62 ; 2.3403923356223825E7 ; 1.207619567093077E9 ; 1.3780493353181312E9 ; 6.5061661745355606E10 ; 0.0
63 ; 2.3399922331978947E7 ; 1.207676423504157E9 ; 1.401453258674355E9 ; 6.6269281312448685E10 ; 0.0
64 ; 2.3397661093832448E7 ; 1.207733724581091E9 ; 1.424853181006334E9 ; 6.747695773595284E10 ; 0.0
65 ; 2.339544044195307E7 ; 1.2077914532650268E9 ; 1.4482508421001666E9 ; 6.8684691460533936E10 ; 0.0
66 ; 2.3386636908589855E7 ; 1.2078495929815378E9 ; 1.4716462825421197E9 ; 6.989248291379897E10 ; 0.0
67 ; 2.3389306301075466E7 ; 1.2079081276294405E9 ; 1.4950329194507096E9 ; 7.11003325067805E10 ; 0.0
68 ; 2.3382501952720605E7 ; 1.2079670415693474E9 ; 1.518422225751785E9 ; 7.230824063440994E10 ; 0.0
69 ; 2.3378943867363486E7 ; 1.208026319612017E9 ; 1.5418047277045057E9 ; 7.35162076759793E10 ; 0.0
70 ; 2.3376707137046847E7 ; 1.2080859470065825E9 ; 1.5651836715718691E9 ; 7.472423399559131E10 ; 0.0
71 ; 2.336615568135331E7 ; 1.2081459094287086E9 ; 1.588560378708916E9 ; 7.593231994259789E10 ; 0.0
72 ; 2.33642192547706E7 ; 1.2082061929687357E9 ; 1.6119265343902693E9 ; 7.71404658520266E10 ; 0.0
73 ; 2.3359268684789084E7 ; 1.208266784119855E9 ; 1.6352907536450398E9 ; 7.834867204499533E10 ; 0.0
74 ; 2.3359327143175118E7 ; 1.208327669766358E9 ; 1.658650022329829E9 ; 7.955693882911519E10 ; 0.0
75 ; 2.3340821172306694E7 ; 1.2083888371719918E9 ; 1.682009349473004E9 ; 8.076526649888155E10 ; 0.0
76 ; 2.334135801072747E7 ; 1.208450273968458E9 ; 1.7053501706453109E9 ; 8.197365533605354E10 ; 0.0
77 ; 2.3334285154599573E7 ; 1.2085119681440725E9 ; 1.7286915286560383E9 ; 8.3182105610022E10 ; 0.0
78 ; 2.3316884856009338E7 ; 1.2085739080326164E9 ; 1.752025813810638E9 ; 8.439061757816608E10 ; 0.0
79 ; 2.3296646902014133E7 ; 1.208636082302392E9 ; 1.7753426986666472E9 ; 8.55991914861987E10 ; 0.0
80 ; 2.3265107720791414E7 ; 1.2086984799455032E9 ; 1.7986393455686612E9 ; 8.68078275685011E10 ; 0.0
81 ; 2.325295019658812E7 ; 1.2087610902673678E9 ; 1.8219044532894526E9 ; 8.80165260484466E10 ; 0.0
82 ; 2.3228658559820723E7 ; 1.208823902876478E9 ; 1.8451574034860406E9 ; 8.922528713871396E10 ; 0.0
83 ; 2.3207490741837997E7 ; 1.2088869076744106E9 ; 1.8683860620458612E9 ; 9.043411104159044E10 ; 0.0
84 ; 2.318775890141932E7 ; 1.208950094846099E9 ; 1.8915935527876992E9 ; 9.164299794926485E10 ; 0.0
85 ; 2.3164596652834907E7 ; 1.2090134548503652E9 ; 1.9147813116891186E9 ; 9.285194804411095E10 ; 0.0
86 ; 2.3147374013053764E7 ; 1.2090769784107182E9 ; 1.9379459083419535E9 ; 9.406096149896132E10 ; 0.0
87 ; 2.312237542764996E7 ; 1.2091406565064166E9 ; 1.9610932823550072E9 ; 9.527003847737204E10 ; 0.0
88 ; 2.3095163180820808E7 ; 1.209204480363799E9 ; 1.9842156577826571E9 ; 9.647917913387846E10 ; 0.0
89 ; 2.3068047250430424E7 ; 1.209268441447877E9 ; 2.0073108209634778E9 ; 9.768838361424226E10 ; 0.0
90 ; 2.304707283507794E7 ; 1.2093325314541898E9 ; 2.0303788682139082E9 ; 9.889765205569014E10 ; 0.0
91 ; 2.3025799895091042E7 ; 1.2093967423009195E9 ; 2.0534259410489862E9 ; 1.0010698458714433E11 ; 0.0
92 ; 2.2996132273341037E7 ; 1.2094610661212606E9 ; 2.0764517409440773E9 ; 1.0131638132944525E11 ; 0.0
93 ; 2.2971734281468913E7 ; 1.20952549525604E9 ; 2.0994478732174182E9 ; 1.0252584239556651E11 ; 0.0
94 ; 2.2949280611817785E7 ; 1.2095900222465863E9 ; 2.122419607498887E9 ; 1.0373536789082256E11 ; 0.0
95 ; 2.292107559549847E7 ; 1.2096546398278346E9 ; 2.145368888110705E9 ; 1.0494495791306914E11 ; 0.0
96 ; 2.290542819072424E7 ; 1.2097193409216743E9 ; 2.1682899637062035E9 ; 1.0615461255289697E11 ; 0.0
97 ; 2.2872396898030255E7 ; 1.2097841186305208E9 ; 2.191195391896928E9 ; 1.0736433189381865E11 ; 0.0
98 ; 2.284923000512016E7 ; 1.2098489662311165E9 ; 2.214067788794958E9 ; 1.0857411601244917E11 ; 0.0
99 ; 2.2813997465726934E7 ; 1.2099138771685464E9 ; 2.2369170188000784E9 ; 1.0978396497868028E11 ; 0.0
100 ; 2.2790920168021176E7 ; 1.2099788450504677E9 ; 2.2597310162658052E9 ; 1.1099387885584883E11 ; 0.0
101 ; 2.276913236950149E7 ; 1.2100438636415465E9 ; 2.2825219364338264E9 ; 1.1220385770089929E11 ; 0.0
102 ; 2.274081304970628E7 ; 1.210108926858092E9 ; 2.305291068803328E9 ; 1.1341390156454083E11 ; 0.0
103 ; 2.270556870399317E7 ; 1.210174028762888E9 ; 2.3280318818530345E9 ; 1.1462401049139893E11 ; 0.0
104 ; 2.267741395623256E7 ; 1.2102391635602074E9 ; 2.350737450557028E9 ; 1.1583418452016182E11 ; 0.0
105 ; 2.2652446645073622E7 ; 1.210304325591014E9 ; 2.3734148645132604E9 ; 1.1704442368372203E11 ; 0.0
106 ; 2.262256520542905E7 ; 1.2103695093283358E9 ; 2.396067311158334E9 ; 1.1825472800931305E11 ; 0.0
107 ; 2.2596542396288462E7 ; 1.2104347093728101E9 ; 2.418689876363763E9 ; 1.1946509751864139E11 ; 0.0
108 ; 2.2564157663825754E7 ; 1.2104999204483924E9 ; 2.4412864187600513E9 ; 1.2067553222801419E11 ; 0.0
109 ; 2.2535215859429903E7 ; 1.2105651373982232E9 ; 2.4638505764238772E9 ; 1.2188603214846259E11 ; 0.0
110 ; 2.2501563474317707E7 ; 1.2106303551806483E9 ; 2.486385792283307E9 ; 1.2309659728586081E11 ; 0.0
111 ; 2.2474656353926834E7 ; 1.2106955688653862E9 ; 2.5088873557576246E9 ; 1.2430722764104146E11 ; 0.0
112 ; 2.2439942346028596E7 ; 1.210760773629839E9 ; 2.5313620121115513E9 ; 1.2551792320990685E11 ; 0.0
113 ; 2.2401845255229935E7 ; 1.2108259647555363E9 ; 2.55380195445758E9 ; 1.2672868398353668E11 ; 0.0
114 ; 2.237683468568992E7 ; 1.2108911376247172E9 ; 2.57620379971281E9 ; 1.2793950994829222E11 ; 0.0
115 ; 2.2342663397490814E7 ; 1.2109562877170353E9 ; 2.5985806343985E9 ; 1.2915040108591693E11 ; 0.0
116 ; 2.2308513617890395E7 ; 1.2110214106063857E9 ; 2.620923297795991E9 ; 1.3036135737363397E11 ; 0.0
117 ; 2.228206841188654E7 ; 1.2110865019578538E9 ; 2.6432318114138813E9 ; 1.3157237878424036E11 ; 0.0
118 ; 2.2251986917870216E7 ; 1.211151557524774E9 ; 2.665513879825768E9 ; 1.3278346528619821E11 ; 0.0
119 ; 2.2213923766686752E7 ; 1.2112165731458998E9 ; 2.687765866743638E9 ; 1.3399461684372299E11 ; 0.0
120 ; 2.2178010715258293E7 ; 1.2112815447426765E9 ; 2.709979790510325E9 ; 1.352058334168689E11 ; 0.0
121 ; 2.2144736636732053E7 ; 1.2113464683166192E9 ; 2.732157801225583E9 ; 1.3641711496161157E11 ; 0.0
122 ; 2.2106733945874006E7 ; 1.2114113399467835E9 ; 2.754302537862315E9 ; 1.376284614299282E11 ; 0.0
123 ; 2.2070607331054952E7 ; 1.2114761557873335E9 ; 2.7764092718081894E9 ; 1.3883987276987497E11 ; 0.0
124 ; 2.204214562551418E7 ; 1.2115409120651975E9 ; 2.7984798791392446E9 ; 1.400513489256623E11 ; 0.0
125 ; 2.2000135907283217E7 ; 1.211605605077811E9 ; 2.8205220247647586E9 ; 1.4126288983772748E11 ; 0.0
126 ; 2.197236859328945E7 ; 1.2116702311909432E9 ; 2.842522160672042E9 ; 1.424744954428053E11 ; 0.0
127 ; 2.1929950846201748E7 ; 1.211734786836603E9 ; 2.8644945292653313E9 ; 1.4368616567399625E11 ; 0.0
128 ; 2.190082018770294E7 ; 1.2117992685110226E9 ; 2.886424480111533E9 ; 1.4489790046083286E11 ; 0.0
129 ; 2.1859086852972142E7 ; 1.2118636727727146E9 ; 2.9083253002992363E9 ; 1.4610969972934387E11 ; 0.0
130 ; 2.181695148437143E7 ; 1.2119279962405992E9 ; 2.9301843871522083E9 ; 1.4732156340211658E11 ; 0.0
131 ; 2.1763138338925987E7 ; 1.2119922355922031E9 ; 2.95200133863658E9 ; 1.4853349139835718E11 ; 0.0
132 ; 2.171268023573357E7 ; 1.2120563875619202E9 ; 2.973764476975506E9 ; 1.4974548363394937E11 ; 0.0
133 ; 2.1662851918064293E7 ; 1.2121204489393377E9 ; 2.9954771572112393E9 ; 1.509575400215113E11 ; 0.0
134 ; 2.1611796377529617E7 ; 1.2121844165676231E9 ; 3.0171400091293035E9 ; 1.5216966047045062E11 ; 0.0
135 ; 2.155370496676738E7 ; 1.2122482873419683E9 ; 3.038751805506833E9 ; 1.5338184488701825E11 ; 0.0
136 ; 2.150788383587168E7 ; 1.2123120582080908E9 ; 3.0603055104736004E9 ; 1.5459409317436023E11 ; 0.0
137 ; 2.1454821644214507E7 ; 1.2123757261607895E9 ; 3.081813394309472E9 ; 1.5580640523256833E11 ; 0.0
138 ; 2.140223000476974E7 ; 1.2124392882425504E9 ; 3.1032682159536867E9 ; 1.5701878095872913E11 ; 0.0
139 ; 2.1350961517959442E7 ; 1.2125027415422049E9 ; 3.1246704459584565E9 ; 1.5823122024697168E11 ; 0.0
140 ; 2.1293969685451444E7 ; 1.2125660831936338E9 ; 3.146021407476416E9 ; 1.594437229885139E11 ; 0.0
141 ; 2.1237430361573264E7 ; 1.2126293103745186E9 ; 3.1673153771618676E9 ; 1.6065628907170752E11 ; 0.0
142 ; 2.1193198150228508E7 ; 1.2126924203051376E9 ; 3.188552807523441E9 ; 1.6186891838208203E11 ; 0.0
143 ; 2.113287511012918E7 ; 1.2127554102472038E9 ; 3.2097460056736693E9 ; 1.6308161080238718E11 ; 0.0
144 ; 2.1079757835661028E7 ; 1.2128182775027437E9 ; 3.2308788807837987E9 ; 1.6429436621263437E11 ; 0.0
145 ; 2.104588577258114E7 ; 1.2128810194130182E9 ; 3.2519586386194596E9 ; 1.6550718449013712E11 ; 0.0
146 ; 2.1005602558585383E7 ; 1.2129436333574767E9 ; 3.2730045243920407E9 ; 1.6672006550955014E11 ; 0.0
147 ; 2.096871572424578E7 ; 1.2130061167527533E9 ; 3.294010126950626E9 ; 1.6793300914290762E11 ; 0.0
148 ; 2.092481977784062E7 ; 1.213068467051693E9 ; 3.3149788426748714E9 ; 1.6914601525966037E11 ; 0.0
149 ; 2.089059294827408E7 ; 1.2131306817424173E9 ; 3.335903662452712E9 ; 1.7035908372671207E11 ; 0.0
150 ; 2.084989151998891E7 ; 1.213192758347417E9 ; 3.356794255400986E9 ; 1.715722144084545E11 ; 0.0
151 ; 2.0811978744853195E7 ; 1.2132546944226794E9 ; 3.377644146920975E9 ; 1.727854071668019E11 ; 0.0
152 ; 2.0774159788898047E7 ; 1.213316487556846E9 ; 3.398456125665828E9 ; 1.7399866186122458E11 ; 0.0
153 ; 2.073512619331176E7 ; 1.2133781353703961E9 ; 3.419230285454726E9 ; 1.7521197834878143E11 ; 0.0
154 ; 2.0702816312658787E7 ; 1.2134396355148644E9 ; 3.439965411648038E9 ; 1.7642535648415182E11 ; 0.0
155 ; 2.066363575065861E7 ; 1.2135009856720781E9 ; 3.4606682279606967E9 ; 1.776387961196667E11 ; 0.0
156 ; 2.0613680573897503E7 ; 1.2135621835534258E9 ; 3.481331863711355E9 ; 1.7885229710533878E11 ; 0.0
157 ; 2.057885638481072E7 ; 1.213623226899148E9 ; 3.5019455442852526E9 ; 1.800658592888922E11 ; 0.0
158 ; 2.0541167069488227E7 ; 1.2136841134776535E9 ; 3.5225244006700635E9 ; 1.8127948251579135E11 ; 0.0
159 ; 2.0505730610311054E7 ; 1.2137448410848594E9 ; 3.5430655677395515E9 ; 1.82493166629269E11 ; 0.0
160 ; 2.0460644279979877E7 ; 1.21380540754355E9 ; 3.5635712983498626E9 ; 1.8370691147035388E11 ; 0.0
161 ; 2.0422630666788284E7 ; 1.2138658107027621E9 ; 3.5840319426298423E9 ; 1.8492071687789743E11 ; 0.0
162 ; 2.0381747174194545E7 ; 1.2139260484371862E9 ; 3.6044545732966304E9 ; 1.861345826886002E11 ; 0.0
163 ; 2.03475988037123E7 ; 1.2139861186465929E9 ; 3.6248363204708247E9 ; 1.8734850873703738E11 ; 0.0
164 ; 2.0301979587782998E7 ; 1.2140460192552722E9 ; 3.645183919274537E9 ; 1.88562494855684E11 ; 0.0
165 ; 2.0258710868835993E7 ; 1.214105748211498E9 ; 3.66548589886232E9 ; 1.8977654087493927E11 ; 0.0
166 ; 2.0224976563927807E7 ; 1.2141653034870052E9 ; 3.685744609731156E9 ; 1.9099064662315076E11 ; 0.0
167 ; 2.0177980845050044E7 ; 1.214224683076488E9 ; 3.7059695862950835E9 ; 1.9220481192663776E11 ; 0.0
168 ; 2.01465921718755E7 ; 1.21428388499711E9 ; 3.7261475671401334E9 ; 1.9341903660971423E11 ; 0.0
169 ; 2.010537083607243E7 ; 1.214342907288037E9 ; 3.746294159312009E9 ; 1.9463332049471133E11 ; 0.0
170 ; 2.0060442555478282E7 ; 1.2144017480099792E9 ; 3.7663995301480813E9 ; 1.9584766340199936E11 ; 0.0
171 ; 2.0028220551663347E7 ; 1.214460405244751E9 ; 3.7864599727035594E9 ; 1.9706206515000934E11 ; 0.0
172 ; 1.998321549170306E7 ; 1.2145188770948455E9 ; 3.806488193255223E9 ; 1.982765255552541E11 ; 0.0
173 ; 1.9940741750278253E7 ; 1.214577161683022E9 ; 3.826471408746926E9 ; 1.9949104443234894E11 ; 0.0
174 ; 1.9915411518560976E7 ; 1.2146352571519063E9 ; 3.8464121504972043E9 ; 2.0070562159403195E11 ; 0.0
175 ; 1.9877449501709323E7 ; 1.2146931616636066E9 ; 3.866327562015765E9 ; 2.0192025685118387E11 ; 0.0
176 ; 1.9850580466076765E7 ; 1.2147508733993387E9 ; 3.8862050115174747E9 ; 2.0313495001284747E11 ; 0.0
177 ; 1.98144691291753E7 ; 1.2148083905590634E9 ; 3.9060555919835515E9 ; 2.0434970088624683E11 ; 0.0
178 ; 1.978293064477287E7 ; 1.2148657113611407E9 ; 3.9258700611127267E9 ; 2.0556450927680588E11 ; 0.0
179 ; 1.975321159628078E7 ; 1.2149228340419862E9 ; 3.9456529917574997E9 ; 2.0677937498816702E11 ; 0.0
180 ; 1.9724452126067594E7 ; 1.214979756855747E9 ; 3.9654062033537803E9 ; 2.07994297822209E11 ; 0.0
181 ; 1.9686701682569686E7 ; 1.2150364780739827E9 ; 3.985130655479848E9 ; 2.0920927757906476E11 ; 0.0
182 ; 1.965343311353907E7 ; 1.215092995985359E9 ; 4.0048173571624174E9 ; 2.1042431405713873E11 ; 0.0
183 ; 1.962162677923531E7 ; 1.2151493088953495E9 ; 4.0244707902759566E9 ; 2.1163940705312408E11 ; 0.0
184 ; 1.958524507483408E7 ; 1.2152054151259475E9 ; 4.044092417055192E9 ; 2.1285455636201944E11 ; 0.0
185 ; 1.9564178761193786E7 ; 1.2152613130153885E9 ; 4.063677662130026E9 ; 2.140697617771454E11 ; 0.0
186 ; 1.952424728295273E7 ; 1.215317000917879E9 ; 4.0832418408912196E9 ; 2.1528502309016077E11 ; 0.0
187 ; 1.949357318563149E7 ; 1.2153724772033339E9 ; 4.1027660881741724E9 ; 2.1650034009107864E11 ; 0.0
188 ; 1.946379484293083E7 ; 1.215427740257125E9 ; 4.1222596613598037E9 ; 2.1771571256828198E11 ; 0.0
189 ; 1.9430915684575647E7 ; 1.215482788479835E9 ; 4.1417234562027345E9 ; 2.189311403085391E11 ; 0.0
190 ; 1.9395993722017318E7 ; 1.215537620287018E9 ; 4.16115437188731E9 ; 2.2014662309701892E11 ; 0.0
191 ; 1.9358840950867906E7 ; 1.2155922341089716E9 ; 4.1805503656093273E9 ; 2.2136216071730594E11 ; 0.0
192 ; 1.9332858064542383E7 ; 1.2156466283905113E9 ; 4.1999092065601954E9 ; 2.2257775295141492E11 ; 0.0
193 ; 1.929896575910729E7 ; 1.2157008015907562E9 ; 4.2192420646247377E9 ; 2.2379339957980542E11 ; 0.0
194 ; 1.9265715671811372E7 ; 1.2157547521829178E9 ; 4.238541030383845E9 ; 2.2500910038139618E11 ; 0.0
195 ; 1.923040063915333E7 ; 1.2158084786540976E9 ; 4.2578067460556564E9 ; 2.262248551335791E11 ; 0.0
