CSV File for the Network on Day 116
1 - Minute m 
2 - Power Consumed at minute m 
3 - Power Produced at minute m 
4 - Energy Consumed since the beginning of the day 
5 - Energy Produced since the beginning of the day 
6 - Energy Lost since the beginning of the day 
 
0 ; 3.893986705399835E7 ; 6.353607495769062E8 ; 0.0 ; 0.0 ; 0.0
1 ; 3.8992067710094646E7 ; 6.362716740019777E8 ; 3.893986705399835E7 ; 6.353607495769062E8 ; 0.0
2 ; 3.903099546414329E7 ; 6.390359825920867E8 ; 7.7931934764093E7 ; 1.271632423578884E9 ; 0.0
3 ; 3.9075802641507134E7 ; 6.436536906036477E8 ; 1.1696293022823629E8 ; 1.9106684061709704E9 ; 0.0
4 ; 3.9132622165421784E7 ; 6.501248116953899E8 ; 1.560387328697434E8 ; 2.554322096774618E9 ; 0.0
5 ; 3.920651178307286E7 ; 6.584493578573394E8 ; 1.951713550351652E8 ; 3.204446908470008E9 ; 0.0
6 ; 3.9297827156069145E7 ; 6.686273393473606E8 ; 2.3437786681823805E8 ; 3.8628962663273473E9 ; 0.0
7 ; 3.94359955179781E7 ; 6.806587646360363E8 ; 2.736756939743072E8 ; 4.531523605674707E9 ; 0.0
8 ; 3.962010140439172E7 ; 6.945436403605694E8 ; 3.1311168949228525E8 ; 5.212182370310743E9 ; 0.0
9 ; 3.989781037092168E7 ; 7.102819712882977E8 ; 3.5273179089667696E8 ; 5.906726010671312E9 ; 0.0
10 ; 4.0341908732865684E7 ; 7.278737602902844E8 ; 3.926296012675986E8 ; 6.61700798195961E9 ; 0.0
11 ; 4.1023554873153165E7 ; 7.473190083253347E8 ; 4.329715100004643E8 ; 7.344881742249894E9 ; 0.0
12 ; 4.214455290625565E7 ; 7.686177144346436E8 ; 4.739950648736175E8 ; 8.092200750575229E9 ; 0.0
13 ; 4.320709958704701E7 ; 7.917698757471473E8 ; 5.1613961777987313E8 ; 8.860818465009872E9 ; 0.0
14 ; 4.333551921290184E7 ; 8.167754874955089E8 ; 5.593467173669201E8 ; 9.652588340757019E9 ; 0.0
15 ; 4.338637381490768E7 ; 8.436345430425245E8 ; 6.02682236579822E8 ; 1.0469363828252527E10 ; 0.0
16 ; 4.343560695936297E7 ; 8.723470339176121E8 ; 6.460686103947296E8 ; 1.1312998371295052E10 ; 0.0
17 ; 4.348541355914284E7 ; 9.029129498629068E8 ; 6.895042173540926E8 ; 1.2185345405212664E10 ; 0.0
18 ; 4.354347149105239E7 ; 9.353322788883829E8 ; 7.329896309132354E8 ; 1.3088258355075571E10 ; 0.0
19 ; 4.360392317381444E7 ; 9.69605007335311E8 ; 7.765331024042878E8 ; 1.4023590633963955E10 ; 0.0
20 ; 4.365003740332057E7 ; 1.0057311199472764E9 ; 8.201370255781022E8 ; 1.4993195641299267E10 ; 0.0
21 ; 4.3699325014525756E7 ; 1.043710599947917E9 ; 8.637870629814228E8 ; 1.5998926761246544E10 ; 0.0
22 ; 4.375672943530018E7 ; 1.0835434291244779E9 ; 9.074863879959486E8 ; 1.7042637361194462E10 ; 0.0
23 ; 4.380117010560792E7 ; 1.1252295879162555E9 ; 9.512431174312488E8 ; 1.812618079031894E10 ; 0.0
24 ; 4.386460346910315E7 ; 1.1687690555069726E9 ; 9.950442875368567E8 ; 1.9251410378235195E10 ; 0.0
25 ; 4.390782330617199E7 ; 1.2062900553092456E9 ; 1.0389088910059597E9 ; 2.042017943374217E10 ; 0.0
26 ; 4.397159877870033E7 ; 1.206313851283373E9 ; 1.0828167143121316E9 ; 2.1626469489051414E10 ; 0.0
27 ; 4.4014174810322136E7 ; 1.2063390351853118E9 ; 1.126788313090832E9 ; 2.283278334033479E10 ; 0.0
28 ; 4.407017313068848E7 ; 1.2063655821461513E9 ; 1.170802487901154E9 ; 2.40391223755201E10 ; 0.0
29 ; 4.411920646948248E7 ; 1.2063934665298991E9 ; 1.2148726610318425E9 ; 2.5245487957666252E10 ; 0.0
30 ; 4.417467933094499E7 ; 1.2064226620305142E9 ; 1.258991867501325E9 ; 2.645188142419615E10 ; 0.0
31 ; 4.422047060306382E7 ; 1.206453141766994E9 ; 1.30316654683227E9 ; 2.7658304086226665E10 ; 0.0
32 ; 4.426797206903781E7 ; 1.206484878375895E9 ; 1.3473870174353337E9 ; 2.886475722799366E10 ; 0.0
33 ; 4.431649309929975E7 ; 1.2065178441007698E9 ; 1.3916549895043716E9 ; 3.0071242106369556E10 ; 0.0
34 ; 4.436364194696681E7 ; 1.206552010878064E9 ; 1.4359714826036713E9 ; 3.1277759950470325E10 ; 0.0
35 ; 4.4408275312274426E7 ; 1.206587350419095E9 ; 1.4803351245506382E9 ; 3.248431196134839E10 ; 0.0
36 ; 4.4450757239475295E7 ; 1.2066238342878203E9 ; 1.5247433998629127E9 ; 3.3690899311767483E10 ; 0.0
37 ; 4.449412171484775E7 ; 1.206661433974154E9 ; 1.569194157102388E9 ; 3.4897523146055305E10 ; 0.0
38 ; 4.4534531829106785E7 ; 1.206700120962681E9 ; 1.6136882788172357E9 ; 3.610418458002946E10 ; 0.0
39 ; 4.457415362242254E7 ; 1.2067398667966614E9 ; 1.6582228106463425E9 ; 3.731088470099214E10 ; 0.0
40 ; 4.461040877649383E7 ; 1.2067806431372807E9 ; 1.702796964268765E9 ; 3.85176245677888E10 ; 0.0
41 ; 4.4645145337486945E7 ; 1.206822421818161E9 ; 1.7474073730452588E9 ; 3.972440521092609E10 ; 0.0
42 ; 4.467539180205218E7 ; 1.206865174895175E9 ; 1.7920525183827457E9 ; 4.093122763274425E10 ; 0.0
43 ; 4.470613645684141E7 ; 1.206908874691665E9 ; 1.836727910184798E9 ; 4.213809280763942E10 ; 0.0
44 ; 4.473798753197434E7 ; 1.2069534938391838E9 ; 1.8814340466416395E9 ; 4.3345001682331085E10 ; 0.0
45 ; 4.477246219520995E7 ; 1.2069990053139143E9 ; 1.9261720341736138E9 ; 4.455195517617027E10 ; 0.0
46 ; 4.479360441429694E7 ; 1.2070453824689412E9 ; 1.9709444963688238E9 ; 4.5758954181484184E10 ; 0.0
47 ; 4.481615465466274E7 ; 1.2070925990625696E9 ; 2.0157381007831206E9 ; 4.6965999563953125E10 ; 0.0
48 ; 4.4842838787491344E7 ; 1.2071406292828965E9 ; 2.0605542554377835E9 ; 4.817309216301569E10 ; 0.0
49 ; 4.486474190032965E7 ; 1.2071894477688441E9 ; 2.1053970942252748E9 ; 4.938023279229859E10 ; 0.0
50 ; 4.487537844910632E7 ; 1.2072390296278868E9 ; 2.1502618361256046E9 ; 5.058742224006744E10 ; 0.0
51 ; 4.490053025682333E7 ; 1.2072893504506834E9 ; 2.195137214574711E9 ; 5.179466126969532E10 ; 0.0
52 ; 4.491730878046904E7 ; 1.2073403863228421E9 ; 2.2400377448315344E9 ; 5.3001950620146E10 ; 0.0
53 ; 4.493398475586749E7 ; 1.2073921138340375E9 ; 2.2849550536120033E9 ; 5.420929100646885E10 ; 0.0
54 ; 4.494684417460738E7 ; 1.2074445100846944E9 ; 2.329889038367871E9 ; 5.541668312030289E10 ; 0.0
55 ; 4.495623965342781E7 ; 1.207497552690441E9 ; 2.374835882542478E9 ; 5.662412763038758E10 ; 0.0
56 ; 4.497869550449598E7 ; 1.207551219784543E9 ; 2.4197921221959057E9 ; 5.783162518307802E10 ; 0.0
57 ; 4.499362533383864E7 ; 1.207605490018498E9 ; 2.464770817700402E9 ; 5.9039176402862564E10 ; 0.0
58 ; 4.501081456680266E7 ; 1.2076603425609803E9 ; 2.5097644430342402E9 ; 6.0246781892881065E10 ; 0.0
59 ; 4.502807176340625E7 ; 1.2077157570953078E9 ; 2.5547752576010427E9 ; 6.145444223544205E10 ; 0.0
60 ; 4.503490702670987E7 ; 1.2077717138155909E9 ; 2.599803329364449E9 ; 6.266215799253735E10 ; 0.0
61 ; 4.5046451438670516E7 ; 1.2078281934217145E9 ; 2.644838236391159E9 ; 6.386992970635294E10 ; 0.0
62 ; 4.506520240974617E7 ; 1.207885177113302E9 ; 2.6898846878298297E9 ; 6.507775789977466E10 ; 0.0
63 ; 4.508289310419947E7 ; 1.2079426465827808E9 ; 2.734949890239576E9 ; 6.628564307688796E10 ; 0.0
64 ; 4.508526120268775E7 ; 1.2080005840076838E9 ; 2.7800327833437753E9 ; 6.749358572347074E10 ; 0.0
65 ; 4.510750041573745E7 ; 1.2080589720422878E9 ; 2.825118044546463E9 ; 6.8701586307478424E10 ; 0.0
66 ; 4.5114000926876985E7 ; 1.2081177938086987E9 ; 2.8702255449622006E9 ; 6.99096452795207E10 ; 0.0
67 ; 4.5128259378145985E7 ; 1.2081770328874745E9 ; 2.9153395458890777E9 ; 7.11177630733294E10 ; 0.0
68 ; 4.5138932975402124E7 ; 1.2082366733078709E9 ; 2.960467805267224E9 ; 7.232594010621689E10 ; 0.0
69 ; 4.5146392570307344E7 ; 1.2082966995377874E9 ; 3.005606738242626E9 ; 7.353417677952477E10 ; 0.0
70 ; 4.516453621628583E7 ; 1.2083570964734864E9 ; 3.0507531308129334E9 ; 7.474247347906255E10 ; 0.0
71 ; 4.516980054169055E7 ; 1.208417849429142E9 ; 3.095917667029219E9 ; 7.595083057553603E10 ; 0.0
72 ; 4.517629020926003E7 ; 1.2084789441262825E9 ; 3.1410874675709095E9 ; 7.715924842496516E10 ; 0.0
73 ; 4.518367757065214E7 ; 1.2085403666831713E9 ; 3.1862637577801695E9 ; 7.836772736909145E10 ; 0.0
74 ; 4.519191456832683E7 ; 1.208602103604172E9 ; 3.2314474353508215E9 ; 7.957626773577461E10 ; 0.0
75 ; 4.520870845086387E7 ; 1.2086641417691405E9 ; 3.2766393499191484E9 ; 8.078486983937878E10 ; 0.0
76 ; 4.520995596591923E7 ; 1.208726468422874E9 ; 3.3218480583700123E9 ; 8.199353398114792E10 ; 0.0
77 ; 4.521816791070483E7 ; 1.2087890711646507E9 ; 3.3670580143359313E9 ; 8.320226044957079E10 ; 0.0
78 ; 4.521422932590784E7 ; 1.2088519379378853E9 ; 3.412276182246636E9 ; 8.441104952073544E10 ; 0.0
79 ; 4.5209255621286646E7 ; 1.2089150570199237E9 ; 3.4574904115725436E9 ; 8.561990145867332E10 ; 0.0
80 ; 4.520185841354091E7 ; 1.2089784170119958E9 ; 3.5026996671938305E9 ; 8.682881651569325E10 ; 0.0
81 ; 4.519939572707747E7 ; 1.209042006829343E9 ; 3.5479015256073713E9 ; 8.803779493270525E10 ; 0.0
82 ; 4.5187596030477405E7 ; 1.209105815691536E9 ; 3.593100921334449E9 ; 8.924683693953459E10 ; 0.0
83 ; 4.5178754794959396E7 ; 1.2091698331129894E9 ; 3.6382885173649263E9 ; 9.045594275522614E10 ; 0.0
84 ; 4.517232692840384E7 ; 1.20923404889369E9 ; 3.683467272159886E9 ; 9.166511258833913E10 ; 0.0
85 ; 4.5163935957990006E7 ; 1.2092984531101377E9 ; 3.7286395990882897E9 ; 9.287434663723282E10 ; 0.0
86 ; 4.515195574579211E7 ; 1.209363036106511E9 ; 3.77380353504628E9 ; 9.408364509034296E10 ; 0.0
87 ; 4.515212374046703E7 ; 1.2094277884860587E9 ; 3.818955490792072E9 ; 9.529300812644946E10 ; 0.0
88 ; 4.514019938032584E7 ; 1.2094927011027179E9 ; 3.864107614532539E9 ; 9.650243591493552E10 ; 0.0
89 ; 4.512902209168099E7 ; 1.209557765052966E9 ; 3.9092478139128647E9 ; 9.771192861603824E10 ; 0.0
90 ; 4.51203036573503E7 ; 1.2096229716678994E9 ; 3.9543768360045457E9 ; 9.89214863810912E10 ; 0.0
91 ; 4.511244199215181E7 ; 1.2096883125055451E9 ; 3.9994971396618958E9 ; 1.001311093527591E11 ; 0.0
92 ; 4.510343707727503E7 ; 1.2097537793433993E9 ; 4.0446095816540475E9 ; 1.0134079766526463E11 ; 0.0
93 ; 4.509009556630117E7 ; 1.2098193641711922E9 ; 4.0897130187313223E9 ; 1.0255055144460803E11 ; 0.0
94 ; 4.5075648324907616E7 ; 1.2098850591838775E9 ; 4.1348031142976236E9 ; 1.0376037080877922E11 ; 0.0
95 ; 4.5069648089271635E7 ; 1.2099508567748427E9 ; 4.1798787626225314E9 ; 1.049702558679631E11 ; 0.0
96 ; 4.505104840107281E7 ; 1.210016749529334E9 ; 4.224948410711803E9 ; 1.0618020672473795E11 ; 0.0
97 ; 4.50417962689973E7 ; 1.2100827302180974E9 ; 4.269999459112876E9 ; 1.0739022347426727E11 ; 0.0
98 ; 4.50293652891276E7 ; 1.2101487917912252E9 ; 4.315041255381873E9 ; 1.0860030620448537E11 ; 0.0
99 ; 4.50163152896531E7 ; 1.2102149273722088E9 ; 4.3600706206710005E9 ; 1.098104549962766E11 ; 0.0
100 ; 4.495651104460745E7 ; 1.2102811302521887E9 ; 4.405086935960653E9 ; 1.110206699236488E11 ; 0.0
101 ; 4.489240274576862E7 ; 1.2103473938844013E9 ; 4.45004344700526E9 ; 1.1223095105390099E11 ; 0.0
102 ; 4.482693032829417E7 ; 1.2104137118788123E9 ; 4.494935849751029E9 ; 1.1344129844778539E11 ; 0.0
103 ; 4.4752889852038845E7 ; 1.2104800779969358E9 ; 4.539762780079323E9 ; 1.146517121596642E11 ; 0.0
104 ; 4.4680775473817736E7 ; 1.210546486146834E9 ; 4.584515669931361E9 ; 1.1586219223766113E11 ; 0.0
105 ; 4.46184185355322E7 ; 1.2106129303782852E9 ; 4.629196445405179E9 ; 1.1707273872380797E11 ; 0.0
106 ; 4.455125808955503E7 ; 1.210679404878129E9 ; 4.673814863940711E9 ; 1.1828335165418625E11 ; 0.0
107 ; 4.4483278184281185E7 ; 1.2107459039657671E9 ; 4.718366122030266E9 ; 1.1949403105906438E11 ; 0.0
108 ; 4.440981557733941E7 ; 1.210812422088828E9 ; 4.762849400214547E9 ; 1.2070477696303015E11 ; 0.0
109 ; 4.434202237557898E7 ; 1.2108789538189828E9 ; 4.807259215791886E9 ; 1.2191558938511897E11 ; 0.0
110 ; 4.4261262847892046E7 ; 1.2109454938479095E9 ; 4.851601238167465E9 ; 1.2312646833893796E11 ; 0.0
111 ; 4.419715699459106E7 ; 1.211012036983404E9 ; 4.895862501015357E9 ; 1.2433741383278587E11 ; 0.0
112 ; 4.412365674800962E7 ; 1.2110785781456244E9 ; 4.940059658009948E9 ; 1.2554842586976927E11 ; 0.0
113 ; 4.4055615398666434E7 ; 1.2111451123634758E9 ; 4.984183314757957E9 ; 1.267595044479149E11 ; 0.0
114 ; 4.397930674036163E7 ; 1.21121163477112E9 ; 5.028238930156624E9 ; 1.2797064956027838E11 ; 0.0
115 ; 4.390149852410695E7 ; 1.2112781406046143E9 ; 5.072218236896985E9 ; 1.291818611950495E11 ; 0.0
116 ; 4.384318117597946E7 ; 1.2113446251986666E9 ; 5.116119735421092E9 ; 1.3039313933565411E11 ; 0.0
117 ; 4.375526404418987E7 ; 1.211411083983512E9 ; 5.159962916597072E9 ; 1.3160448396085278E11 ; 0.0
118 ; 4.369187161006256E7 ; 1.211477512481898E9 ; 5.203718180641261E9 ; 1.3281589504483629E11 ; 0.0
119 ; 4.361395603377342E7 ; 1.211543906306181E9 ; 5.247410052251324E9 ; 1.3402737255731819E11 ; 0.0
120 ; 4.354188517179552E7 ; 1.2116102611555243E9 ; 5.291024008285097E9 ; 1.3523891646362437E11 ; 0.0
121 ; 4.345867002756752E7 ; 1.2116765728132014E9 ; 5.334565893456893E9 ; 1.3645052672477989E11 ; 0.0
122 ; 4.338686793021853E7 ; 1.2117428371439912E9 ; 5.378024563484461E9 ; 1.3766220329759308E11 ; 0.0
123 ; 4.3312002901552096E7 ; 1.2118090500916712E9 ; 5.42141143141468E9 ; 1.3887394613473706E11 ; 0.0
124 ; 4.324054471738202E7 ; 1.2118752076765976E9 ; 5.464723434316232E9 ; 1.4008575518482874E11 ; 0.0
125 ; 4.315562217076908E7 ; 1.211941305993376E9 ; 5.507963979033614E9 ; 1.4129763039250534E11 ; 0.0
126 ; 4.3079021937012136E7 ; 1.2120073412086103E9 ; 5.551119601204383E9 ; 1.4250957169849872E11 ; 0.0
127 ; 4.300654465610424E7 ; 1.2120733095587387E9 ; 5.594198623141395E9 ; 1.4372157903970734E11 ; 0.0
128 ; 4.292735481474616E7 ; 1.2121392073479428E9 ; 5.637205167797499E9 ; 1.4493365234926608E11 ; 0.0
129 ; 4.285068713018765E7 ; 1.2122050309461317E9 ; 5.680132522612245E9 ; 1.46145791556614E11 ; 0.0
130 ; 4.27588728926164E7 ; 1.212270776787001E9 ; 5.722983209742433E9 ; 1.4735799658756015E11 ; 0.0
131 ; 4.2674332336447656E7 ; 1.2123364413661568E9 ; 5.765742082635049E9 ; 1.4857026736434714E11 ; 0.0
132 ; 4.25887148809151E7 ; 1.212402021239311E9 ; 5.808416414971497E9 ; 1.497826038057133E11 ; 0.0
133 ; 4.248633220800713E7 ; 1.2124675130205374E9 ; 5.851005129852411E9 ; 1.509950058269526E11 ; 0.0
134 ; 4.240147357770486E7 ; 1.212532913380591E9 ; 5.893491462060418E9 ; 1.5220747333997314E11 ; 0.0
135 ; 4.230013831252586E7 ; 1.2125982190452855E9 ; 5.935892935638123E9 ; 1.5342000625335373E11 ; 0.0
136 ; 4.2218930909448445E7 ; 1.2126634267939312E9 ; 5.978193073950648E9 ; 1.5463260447239902E11 ; 0.0
137 ; 4.2115572735239826E7 ; 1.2127285334578247E9 ; 6.020412004860097E9 ; 1.5584526789919296E11 ; 0.0
138 ; 4.202308036274086E7 ; 1.2127935359187922E9 ; 6.062527577595337E9 ; 1.570579964326508E11 ; 0.0
139 ; 4.192914703595584E7 ; 1.2128584311077871E9 ; 6.104550657958077E9 ; 1.5827078996856958E11 ; 0.0
140 ; 4.183733563810405E7 ; 1.2129232160035315E9 ; 6.146479804994033E9 ; 1.5948364839967737E11 ; 0.0
141 ; 4.173711835999401E7 ; 1.2129878876312099E9 ; 6.188317140632137E9 ; 1.606965716156809E11 ; 0.0
142 ; 4.164686251237351E7 ; 1.2130524430612063E9 ; 6.230054258992131E9 ; 1.619095595033121E11 ; 0.0
143 ; 4.154464306906898E7 ; 1.2131168794078846E9 ; 6.271701121504505E9 ; 1.6312261194637332E11 ; 0.0
144 ; 4.14540755591045E7 ; 1.2131811938284135E9 ; 6.313245764573574E9 ; 1.6433572882578122E11 ; 0.0
145 ; 4.137351227304669E7 ; 1.2132453835216293E9 ; 6.354699840132679E9 ; 1.6554891001960962E11 ; 0.0
146 ; 4.128776173404013E7 ; 1.2133094457269404E9 ; 6.3960733524057255E9 ; 1.6676215540313126E11 ; 0.0
147 ; 4.121112633360758E7 ; 1.2133733777232683E9 ; 6.437361114139766E9 ; 1.679754648488582E11 ; 0.0
148 ; 4.112549797971751E7 ; 1.2134371768280253E9 ; 6.478572240473373E9 ; 1.6918883822658145E11 ; 0.0
149 ; 4.105489393759462E7 ; 1.2135008403961267E9 ; 6.519697738453091E9 ; 1.704022754034095E11 ; 0.0
150 ; 4.0969868740819134E7 ; 1.2135643658190374E9 ; 6.560752632390685E9 ; 1.716157762438056E11 ; 0.0
151 ; 4.088509954098302E7 ; 1.213627750523851E9 ; 6.601722501131504E9 ; 1.7282934060962463E11 ; 0.0
152 ; 4.081218470487699E7 ; 1.2136909919723992E9 ; 6.642607600672487E9 ; 1.740429683601485E11 ; 0.0
153 ; 4.0726701325793065E7 ; 1.2137540876603935E9 ; 6.683419785377364E9 ; 1.752566593521209E11 ; 0.0
154 ; 4.065463543239192E7 ; 1.2138170351165931E9 ; 6.724146486703157E9 ; 1.764704134397813E11 ; 0.0
155 ; 4.0571610345620364E7 ; 1.2138798319020023E9 ; 6.76480112213555E9 ; 1.7768423047489792E11 ; 0.0
156 ; 4.048605854927173E7 ; 1.2139424756090972E9 ; 6.80537273248117E9 ; 1.7889811030679993E11 ; 0.0
157 ; 4.040571331332248E7 ; 1.2140049638610728E9 ; 6.845858791030441E9 ; 1.8011205278240903E11 ; 0.0
158 ; 4.032165617943379E7 ; 1.2140672943111203E9 ; 6.886264504343763E9 ; 1.813260577462701E11 ; 0.0
159 ; 4.02488710780071E7 ; 1.2141294646417265E9 ; 6.926586160523197E9 ; 1.8254012504058124E11 ; 0.0
160 ; 4.015855942373133E7 ; 1.2141914725639968E9 ; 6.966835031601204E9 ; 1.8375425450522296E11 ; 0.0
161 ; 4.007871466305367E7 ; 1.2142533158169994E9 ; 7.006993591024935E9 ; 1.8496844597778696E11 ; 0.0
162 ; 4.00001907416105E7 ; 1.2143149921671333E9 ; 7.047072305687988E9 ; 1.8618269929360394E11 ; 0.0
163 ; 3.9915279267716914E7 ; 1.2143764994075174E9 ; 7.087072496429599E9 ; 1.873970142857711E11 ; 0.0
164 ; 3.982816387732673E7 ; 1.2144378353573952E9 ; 7.126987775697316E9 ; 1.8861139078517862E11 ; 0.0
165 ; 3.975209001062652E7 ; 1.2144989978615656E9 ; 7.166815939574643E9 ; 1.89825828620536E11 ; 0.0
166 ; 3.966844011732916E7 ; 1.2145599847898264E9 ; 7.20656802958527E9 ; 1.9104032761839758E11 ; 0.0
167 ; 3.9589091635644905E7 ; 1.2146207940364413E9 ; 7.2462364697026E9 ; 1.922548876031874E11 ; 0.0
168 ; 3.9498500056604415E7 ; 1.2146814235196183E9 ; 7.285825561338244E9 ; 1.9346950839722385E11 ; 0.0
169 ; 3.9415614587255955E7 ; 1.2147418711810112E9 ; 7.325324061394849E9 ; 1.9468418982074347E11 ; 0.0
170 ; 3.933921336289461E7 ; 1.2148021349852326E9 ; 7.364739675982105E9 ; 1.9589893169192447E11 ; 0.0
171 ; 3.925646059111469E7 ; 1.2148622129193842E9 ; 7.404078889345E9 ; 1.971137338269097E11 ; 0.0
172 ; 3.91738432146752E7 ; 1.214922102992604E9 ; 7.443335349936115E9 ; 1.9832859603982907E11 ; 0.0
173 ; 3.908892371745514E7 ; 1.2149818032356243E9 ; 7.48250919315079E9 ; 1.995435181428217E11 ; 0.0
174 ; 3.901270619957758E7 ; 1.2150413117003474E9 ; 7.521598116868245E9 ; 2.007584999460573E11 ; 0.0
175 ; 3.8946600779350676E7 ; 1.2151006264594321E9 ; 7.560610823067822E9 ; 2.0197354125775766E11 ; 0.0
176 ; 3.88752633956012E7 ; 1.2151597456058967E9 ; 7.599557423847173E9 ; 2.031886418842171E11 ; 0.0
177 ; 3.8806112509864524E7 ; 1.2152186672527304E9 ; 7.638432687242774E9 ; 2.04403801629823E11 ; 0.0
178 ; 3.873165697208129E7 ; 1.2152773895325198E9 ; 7.677238799752639E9 ; 2.056190202970757E11 ; 0.0
179 ; 3.8655557481667355E7 ; 1.2153359105970883E9 ; 7.71597045672472E9 ; 2.0683429768660825E11 ; 0.0
180 ; 3.85892348390729E7 ; 1.2153942286171427E9 ; 7.7546260142063875E9 ; 2.0804963359720532E11 ; 0.0
181 ; 3.851625406945194E7 ; 1.215452341781935E9 ; 7.793215249045461E9 ; 2.0926502782582248E11 ; 0.0
182 ; 3.844435082909466E7 ; 1.215510248298933E9 ; 7.831731503114913E9 ; 2.104804801676044E11 ; 0.0
183 ; 3.836977943316168E7 ; 1.2155679463935013E9 ; 7.870175853944008E9 ; 2.1169599041590332E11 ; 0.0
184 ; 3.830403191871919E7 ; 1.2156254343085923E9 ; 7.90854563337717E9 ; 2.129115583622968E11 ; 0.0
185 ; 3.823030203593214E7 ; 1.2156827103044474E9 ; 7.946849665295889E9 ; 2.141271837966054E11 ; 0.0
186 ; 3.8158292215167E7 ; 1.2157397726583066E9 ; 7.985079967331821E9 ; 2.1534286650690985E11 ; 0.0
187 ; 3.808917882278739E7 ; 1.2157966196641283E9 ; 8.0232382595469885E9 ; 2.1655860627956815E11 ; 0.0
188 ; 3.801740185390646E7 ; 1.2158532496323156E9 ; 8.061327438369776E9 ; 2.1777440289923227E11 ; 0.0
189 ; 3.7946806087681055E7 ; 1.2159096608894553E9 ; 8.099344840223682E9 ; 2.189902561488646E11 ; 0.0
190 ; 3.787093789829684E7 ; 1.2159658517780588E9 ; 8.137291646311363E9 ; 2.2020616580975406E11 ; 0.0
191 ; 3.779601468905273E7 ; 1.2160218206563168E9 ; 8.175162584209661E9 ; 2.214221316615321E11 ; 0.0
192 ; 3.772951420028845E7 ; 1.2160775658978581E9 ; 8.212958598898713E9 ; 2.2263815348218842E11 ; 0.0
193 ; 3.765521179194705E7 ; 1.216133085891517E9 ; 8.250688113099002E9 ; 2.2385423104808627E11 ; 0.0
194 ; 3.7584198963635735E7 ; 1.2161883790411077E9 ; 8.288343324890949E9 ; 2.2507036413397778E11 ; 0.0
195 ; 3.751022778003973E7 ; 1.2162434437652054E9 ; 8.325927523854585E9 ; 2.262865525130189E11 ; 0.0
196 ; 3.743409683654955E7 ; 1.216298278496934E9 ; 8.3634377516346245E9 ; 2.275027959567841E11 ; 0.0
197 ; 3.737247011218666E7 ; 1.2163528816837606E9 ; 8.400871848471174E9 ; 2.2871909423528104E11 ; 0.0
