CSV File for the Network on Day 1
1 - Minute m 
2 - Power Consumed at minute m 
3 - Power Produced at minute m 
4 - Energy Consumed since the beginning of the day 
5 - Energy Produced since the beginning of the day 
6 - Energy Lost since the beginning of the day 
 
0 ; 4543729.525609853 ; 2.1075995074009976E8 ; 0.0 ; 0.0 ; 0.0
1 ; 4546945.2860196205 ; 2.110652410305998E8 ; 4543729.525609853 ; 2.1075995074009976E8 ; 356.14
2 ; 4551231.439835391 ; 2.1198814530765083E8 ; 9090674.811629474 ; 4.2182519177069956E8 ; 712.28
3 ; 4556339.918879812 ; 2.1352867078454164E8 ; 1.3641906251464866E7 ; 6.338133370783504E8 ; 1068.42
4 ; 4558579.692964276 ; 2.1568682403958657E8 ; 1.8198246170344677E7 ; 8.47342007862892E8 ; 1424.56
5 ; 4562870.093744192 ; 2.184626109432647E8 ; 2.275682586330895E7 ; 1.0630288319024786E9 ; 1780.6999999999998
6 ; 4567481.674972134 ; 2.2185603659048268E8 ; 2.7319695957053144E7 ; 1.2814914428457432E9 ; 2136.8399999999997
7 ; 4572133.323170841 ; 2.258671052396907E8 ; 3.188717763202528E7 ; 1.503347479436226E9 ; 2492.9799999999996
8 ; 4575598.587020161 ; 2.3049582026048443E8 ; 3.645931095519612E7 ; 1.7292145846759167E9 ; 2849.1199999999994
9 ; 4579184.962970121 ; 2.357421840911651E8 ; 4.103490954221628E7 ; 1.9597104049364011E9 ; 3205.2599999999993
10 ; 4582062.23487046 ; 2.416061982074853E8 ; 4.56140945051864E7 ; 2.1954525890275664E9 ; 3561.399999999999
11 ; 4585867.932133988 ; 2.4808786310351083E8 ; 5.019615674005686E7 ; 2.4370587872350516E9 ; 3917.539999999999
12 ; 4588512.220508723 ; 2.5518717828517583E8 ; 5.4782024672190845E7 ; 2.6851466503385625E9 ; 4273.679999999999
13 ; 4592195.745610045 ; 2.6290414227672774E8 ; 5.937053689269957E7 ; 2.9403338286237383E9 ; 4629.82
14 ; 4595874.178303833 ; 2.712387526398655E8 ; 6.396273263830961E7 ; 3.203237970900466E9 ; 4985.96
15 ; 4598983.930262902 ; 2.801910060049931E8 ; 6.855860681661345E7 ; 3.4744767235403314E9 ; 5342.1
16 ; 4601724.014949345 ; 2.897608981136607E8 ; 7.315759074687636E7 ; 3.7546677295453243E9 ; 5698.240000000001
17 ; 4604680.739131003 ; 2.999484238709614E8 ; 7.775931476182571E7 ; 4.044428627658985E9 ; 6054.380000000001
18 ; 4607517.27674184 ; 3.107535774064163E8 ; 8.236399550095671E7 ; 4.344377051529946E9 ; 6410.520000000001
19 ; 4611491.475858805 ; 3.2217635214171094E8 ; 8.697151277769855E7 ; 4.655130628936362E9 ; 6766.660000000002
20 ; 4611729.452249133 ; 3.342167408635565E8 ; 9.158300425355735E7 ; 4.9773069810780735E9 ; 7122.800000000002
21 ; 4618348.938834948 ; 3.4687473579993E8 ; 9.61947337058065E7 ; 5.31152372194163E9 ; 7478.940000000002
22 ; 4620879.817281858 ; 3.6015032869799894E8 ; 1.0081308264464144E8 ; 5.65839845774156E9 ; 7835.080000000003
23 ; 4623677.528092516 ; 3.7404351090214413E8 ; 1.054339624619233E8 ; 6.018548786439559E9 ; 8191.220000000003
24 ; 4627010.738047829 ; 3.885542734306471E8 ; 1.1005763999001582E8 ; 6.392592297341703E9 ; 8547.360000000002
25 ; 4630229.734852084 ; 4.010586888461673E8 ; 1.1468465072806364E8 ; 6.78114657077235E9 ; 8903.500000000002
26 ; 4634668.194835971 ; 4.010638434000268E8 ; 1.1931488046291573E8 ; 7.182205259618518E9 ; 9259.640000000001
27 ; 4636616.518413712 ; 4.010692661480732E8 ; 1.2394954865775171E8 ; 7.583269103018545E9 ; 9615.78
28 ; 4637392.955857466 ; 4.010749475052347E8 ; 1.2858616517616542E8 ; 7.984338369166618E9 ; 9971.92
29 ; 4639845.387121469 ; 4.010808778875654E8 ; 1.3322355813202289E8 ; 8.385413316671853E9 ; 10328.06
30 ; 4644626.9102303125 ; 4.010870477621204E8 ; 1.3786340351914436E8 ; 8.786494194559418E9 ; 10684.199999999999
31 ; 4648056.1668285495 ; 4.010934476910864E8 ; 1.4250803042937467E8 ; 9.187581242321539E9 ; 11040.339999999998
32 ; 4648533.979996749 ; 4.011000683702377E8 ; 1.471560865962032E8 ; 9.588674690012625E9 ; 11396.479999999998
33 ; 4651745.328395795 ; 4.01106900661901E8 ; 1.5180462057619995E8 ; 9.989774758382862E9 ; 11752.619999999997
34 ; 4654706.266397804 ; 4.0111393562269723E8 ; 1.5645636590459573E8 ; 1.0390881659044764E10 ; 12108.759999999997
35 ; 4658293.015525316 ; 4.011211645263909E8 ; 1.6111107217099354E8 ; 1.0791995594667461E10 ; 12464.899999999996
36 ; 4658464.6324887695 ; 4.0112857888222355E8 ; 1.6576936518651885E8 ; 1.1193116759193851E10 ; 12821.039999999995
37 ; 4663357.559729167 ; 4.0113617044912934E8 ; 1.704278298190076E8 ; 1.1594245338076075E10 ; 13177.179999999995
38 ; 4664071.353372935 ; 4.0114393124624455E8 ; 1.7509118737873676E8 ; 1.1995381508525204E10 ; 13533.319999999994
39 ; 4668064.910974228 ; 4.011518535601177E8 ; 1.797552587321097E8 ; 1.2396525439771448E10 ; 13889.459999999994
40 ; 4669259.234250617 ; 4.011599299490182E8 ; 1.8442332364308393E8 ; 1.2797677293331566E10 ; 14245.599999999993
41 ; 4667656.196796236 ; 4.0116815324472106E8 ; 1.8909258287733454E8 ; 1.3198837223280584E10 ; 14601.739999999993
42 ; 4672485.089421513 ; 4.011765165521234E8 ; 1.9376023907413077E8 ; 1.3600005376525305E10 ; 14957.879999999992
43 ; 4673705.294987072 ; 4.011850132470207E8 ; 1.9843272416355228E8 ; 1.4001181893077429E10 ; 15314.019999999991
44 ; 4674718.502046902 ; 4.0119363697234195E8 ; 2.0310642945853937E8 ; 1.440236690632445E10 ; 15670.15999999999
45 ; 4676202.6191487005 ; 4.012023816331162E8 ; 2.0778114796058628E8 ; 1.4803560543296791E10 ; 16026.29999999999
46 ; 4677646.397362056 ; 4.0121124139041066E8 ; 2.1245735057973498E8 ; 1.5204762924929907E10 ; 16382.43999999999
47 ; 4680268.724794758 ; 4.0122021065445626E8 ; 2.1713499697709703E8 ; 1.5605974166320318E10 ; 16738.57999999999
48 ; 4680290.128928384 ; 4.012292840771483E8 ; 2.2181526570189178E8 ; 1.6007194376974775E10 ; 17094.71999999999
49 ; 4683378.658234848 ; 4.0123845654408455E8 ; 2.2649555583082017E8 ; 1.6408423661051924E10 ; 17450.85999999999
50 ; 4684914.556286083 ; 4.012477231662842E8 ; 2.31178934489055E8 ; 1.6809662117596008E10 ; 17806.99999999999
51 ; 4683348.97330772 ; 4.012570792717055E8 ; 2.358638490453411E8 ; 1.721090984076229E10 ; 18163.13999999999
52 ; 4685074.138085171 ; 4.0126652039666545E8 ; 2.4054719801864883E8 ; 1.7612166920033997E10 ; 18519.279999999988
53 ; 4686614.5397313 ; 4.0127604227724683E8 ; 2.45232272156734E8 ; 1.801343344043066E10 ; 18875.419999999987
54 ; 4685353.776719064 ; 4.012856408407625E8 ; 2.4991888669646528E8 ; 1.841470948270791E10 ; 19231.559999999987
55 ; 4686617.313252628 ; 4.0129531219733584E8 ; 2.5460424047318435E8 ; 1.881599512354867E10 ; 19587.699999999986
56 ; 4687979.411386496 ; 4.0130505263164306E8 ; 2.5929085778643698E8 ; 1.9217290435746006E10 ; 19943.839999999986
57 ; 4687383.979441805 ; 4.0131485859485507E8 ; 2.6397883719782346E8 ; 1.9618595488377647E10 ; 20299.979999999985
58 ; 4689393.785888912 ; 4.0132472669680727E8 ; 2.686662211772653E8 ; 2.0019910346972504E10 ; 20656.119999999984
59 ; 4692620.074701095 ; 4.0133465369841826E8 ; 2.733556149631542E8 ; 2.042123507366931E10 ; 21012.259999999984
60 ; 4693944.704590061 ; 4.013446365043739E8 ; 2.7804823503785527E8 ; 2.082256972736773E10 ; 21368.399999999983
61 ; 4693104.301506255 ; 4.0135467215608543E8 ; 2.8274217974244535E8 ; 2.1223914363872105E10 ; 21724.539999999983
62 ; 4695351.001940407 ; 4.013647578249298E8 ; 2.8743528404395163E8 ; 2.162526903602819E10 ; 22080.679999999982
63 ; 4695991.971219633 ; 4.013748908057723E8 ; 2.9213063504589206E8 ; 2.202663379385312E10 ; 22436.81999999998
64 ; 4696926.059570935 ; 4.0138506851077306E8 ; 2.968266270171117E8 ; 2.242800868465889E10 ; 22792.95999999998
65 ; 4696656.152766406 ; 4.0139528846347344E8 ; 3.015235530766826E8 ; 2.2829393753169662E10 ; 23149.09999999998
66 ; 4697331.38709183 ; 4.014055482931582E8 ; 3.0622020922944903E8 ; 2.3230789041633137E10 ; 23505.23999999998
67 ; 4699987.836406562 ; 4.014158457294863E8 ; 3.1091754061654085E8 ; 2.3632194589926296E10 ; 23861.37999999998
68 ; 4699808.984001085 ; 4.014261785973852E8 ; 3.1561752845294744E8 ; 2.403361043565578E10 ; 24217.51999999998
69 ; 4700647.62702227 ; 4.0143654481219745E8 ; 3.2031733743694854E8 ; 2.4435036614253166E10 ; 24573.659999999978
70 ; 4700235.941697755 ; 4.0144694237507296E8 ; 3.250179850639708E8 ; 2.4836473159065365E10 ; 24929.799999999977
71 ; 4701334.647841365 ; 4.0145736936859703E8 ; 3.297182210056686E8 ; 2.5237920101440437E10 ; 25285.939999999977
72 ; 4700552.873577296 ; 4.014678239526446E8 ; 3.3441955565351E8 ; 2.5639377470809036E10 ; 25642.079999999976
73 ; 4699635.441773683 ; 4.014783043604504E8 ; 3.391201085270873E8 ; 2.604084529476168E10 ; 25998.219999999976
74 ; 4701388.366092234 ; 4.014888088948869E8 ; 3.43819743968861E8 ; 2.644232359912213E10 ; 26354.359999999975
75 ; 4700523.570690224 ; 4.014993359249389E8 ; 3.485211323349532E8 ; 2.6843812408017017E10 ; 26710.499999999975
76 ; 4699614.519255418 ; 4.015098838823662E8 ; 3.532216559056434E8 ; 2.7245311743941956E10 ; 27066.639999999974
77 ; 4698436.197520796 ; 4.015204512585447E8 ; 3.579212704248988E8 ; 2.764682162782432E10 ; 27422.779999999973
78 ; 4698533.9326404985 ; 4.0153103660147774E8 ; 3.626197066224196E8 ; 2.8048342079082867E10 ; 27778.919999999973
79 ; 4699214.569610151 ; 4.0154163851296735E8 ; 3.673182405550601E8 ; 2.8449873115684345E10 ; 28135.059999999972
80 ; 4701971.645502828 ; 4.015522556459395E8 ; 3.7201745512467027E8 ; 2.885141475419731E10 ; 28491.19999999997
81 ; 4701623.256620005 ; 4.015628867019124E8 ; 3.767194267701731E8 ; 2.925296700984325E10 ; 28847.33999999997
82 ; 4701867.187646615 ; 4.0157353042860264E8 ; 3.8142105002679306E8 ; 2.9654529896545162E10 ; 29203.47999999997
83 ; 4702711.988329795 ; 4.0158418561766016E8 ; 3.861229172144397E8 ; 3.0056103426973766E10 ; 29559.61999999997
84 ; 4700430.797058955 ; 4.015948511025261E8 ; 3.9082562920276946E8 ; 3.0457687612591427E10 ; 29915.75999999997
85 ; 4702507.207721191 ; 4.0160552575640553E8 ; 3.955260599998284E8 ; 3.0859282463693954E10 ; 30271.89999999997
86 ; 4699573.550778274 ; 4.0161620849035E8 ; 4.002285672075496E8 ; 3.126088798945036E10 ; 30628.039999999968
87 ; 4699605.477727437 ; 4.016268982514431E8 ; 4.0492814075832784E8 ; 3.166250419794071E10 ; 30984.179999999968
88 ; 4700795.332097691 ; 4.0163759402108324E8 ; 4.0962774623605525E8 ; 3.206413109619215E10 ; 31340.319999999967
89 ; 4700922.494982277 ; 4.0164829481335884E8 ; 4.1432854156815296E8 ; 3.2465768690213234E10 ; 31696.459999999966
90 ; 4701372.55426716 ; 4.016589996735097E8 ; 4.1902946406313527E8 ; 3.2867416985026592E10 ; 32052.599999999966
91 ; 4700635.2496242365 ; 4.0166970767647064E8 ; 4.2373083661740243E8 ; 3.3269075984700104E10 ; 32408.739999999965
92 ; 4697955.886388426 ; 4.0168041792549264E8 ; 4.284314718670267E8 ; 3.3670745692376575E10 ; 32764.879999999965
93 ; 4699477.057535182 ; 4.0169112955083656E8 ; 4.331294277534151E8 ; 3.4072426110302067E10 ; 33121.01999999997
94 ; 4698189.396801991 ; 4.017018417085357E8 ; 4.378289048109503E8 ; 3.4474117239852905E10 ; 33477.15999999997
95 ; 4696758.155644542 ; 4.0171255357922375E8 ; 4.425270942077523E8 ; 3.487581908156144E10 ; 33833.29999999997
96 ; 4695629.460717776 ; 4.0172326436702347E8 ; 4.472238523633968E8 ; 3.527753163514066E10 ; 34189.439999999966
97 ; 4693590.759822859 ; 4.017339732984939E8 ; 4.519194818241146E8 ; 3.567925489950769E10 ; 34545.579999999965
98 ; 4694709.041051952 ; 4.017446796216315E8 ; 4.5661307258393747E8 ; 3.608098887280618E10 ; 34901.719999999965
99 ; 4694584.333255741 ; 4.017553826049233E8 ; 4.613077816249894E8 ; 3.648273355242781E10 ; 35257.859999999964
100 ; 4694762.08195695 ; 4.0176608153644866E8 ; 4.6600236595824516E8 ; 3.688448893503274E10 ; 35613.99999999996
101 ; 4693540.398168984 ; 4.0177677572302675E8 ; 4.706971280402021E8 ; 3.728625501656918E10 ; 35970.13999999996
102 ; 4693654.529660307 ; 4.017874644894079E8 ; 4.7539066843837106E8 ; 3.768803179229221E10 ; 36326.27999999996
103 ; 4690855.765176973 ; 4.017981471775054E8 ; 4.8008432296803135E8 ; 3.8089819256781624E10 ; 36682.41999999996
104 ; 4691505.5842400445 ; 4.0180882314566636E8 ; 4.847751787332083E8 ; 3.849161740395913E10 ; 37038.55999999996
105 ; 4691132.011305769 ; 4.0181949176797926E8 ; 4.894666843174483E8 ; 3.88934262271048E10 ; 37394.69999999996
106 ; 4688538.724819021 ; 4.0183015243361574E8 ; 4.9415781632875407E8 ; 3.929524571887278E10 ; 37750.83999999996
107 ; 4688838.368875862 ; 4.018408045462054E8 ; 4.988463550535731E8 ; 3.96970758713064E10 ; 38106.97999999996
108 ; 4686203.184806169 ; 4.0185144752324116E8 ; 5.0353519342244893E8 ; 4.00989166758526E10 ; 38463.11999999996
109 ; 4684093.207103909 ; 4.018620807955144E8 ; 5.082213966072551E8 ; 4.050076812337584E10 ; 38819.25999999996
110 ; 4685874.784010646 ; 4.018727038065773E8 ; 5.12905489814359E8 ; 4.090263020417136E10 ; 39175.39999999996
111 ; 4684389.010578171 ; 4.0188331601223123E8 ; 5.1759136459836966E8 ; 4.1304502907977936E10 ; 39531.53999999996
112 ; 4682337.189011516 ; 4.018939168800406E8 ; 5.222757536089478E8 ; 4.1706386223990166E10 ; 39887.67999999996
113 ; 4681272.322957248 ; 4.0190450588886917E8 ; 5.269580907979593E8 ; 4.210828014087021E10 ; 40243.819999999956
114 ; 4680547.014335676 ; 4.019150825284394E8 ; 5.316393631209166E8 ; 4.251018464675908E10 ; 40599.959999999955
115 ; 4679118.342789131 ; 4.0192564629891247E8 ; 5.363199101352523E8 ; 4.291209972928752E10 ; 40956.099999999955
116 ; 4677077.291889871 ; 4.0193619671048796E8 ; 5.409990284780414E8 ; 4.331402537558643E10 ; 41312.239999999954
117 ; 4675579.205852494 ; 4.01946733283023E8 ; 5.456761057699313E8 ; 4.371596157229692E10 ; 41668.379999999954
118 ; 4675093.666082288 ; 4.019572555456684E8 ; 5.503516849757838E8 ; 4.411790830557994E10 ; 42024.51999999995
119 ; 4673539.516578711 ; 4.0196776303652304E8 ; 5.550267786418661E8 ; 4.451986556112561E10 ; 42380.65999999995
120 ; 4670190.248302418 ; 4.0197825530230284E8 ; 5.597003181584448E8 ; 4.492183332416213E10 ; 42736.79999999995
121 ; 4669438.993049873 ; 4.01988731898026E8 ; 5.643705084067472E8 ; 4.532381157946443E10 ; 43092.93999999995
122 ; 4667020.476712397 ; 4.0199919238671255E8 ; 5.690399473997971E8 ; 4.572580031136246E10 ; 43449.07999999995
123 ; 4666950.7259751335 ; 4.0200963633909714E8 ; 5.737069678765094E8 ; 4.612779950374917E10 ; 43805.21999999995
124 ; 4661572.482400125 ; 4.020200633333556E8 ; 5.783739186024846E8 ; 4.6529809140088264E10 ; 44161.35999999995
125 ; 4662715.901861746 ; 4.0203047295484304E8 ; 5.830354910848848E8 ; 4.693182920342162E10 ; 44517.49999999995
126 ; 4656538.317454684 ; 4.020408647958445E8 ; 5.876982069867465E8 ; 4.7333859676376465E10 ; 44873.63999999995
127 ; 4656147.379683614 ; 4.020512384553362E8 ; 5.923547453042012E8 ; 4.773590054117231E10 ; 45229.77999999995
128 ; 4652826.285327491 ; 4.020615935387578E8 ; 5.970108926838849E8 ; 4.813795177962765E10 ; 45585.91999999995
129 ; 4651563.3892640835 ; 4.0207192965779424E8 ; 6.016637189692123E8 ; 4.8540013373166405E10 ; 45942.05999999995
130 ; 4648434.825311132 ; 4.020822464301678E8 ; 6.063152823584764E8 ; 4.8942085302824196E10 ; 46298.199999999946
131 ; 4642046.238759718 ; 4.02092543479439E8 ; 6.109637171837876E8 ; 4.9344167549254364E10 ; 46654.339999999946
132 ; 4641688.775211143 ; 4.021028204348157E8 ; 6.156057634225473E8 ; 4.97462600927338E10 ; 47010.479999999945
133 ; 4639703.951897457 ; 4.021130769309715E8 ; 6.202474521977584E8 ; 5.014836291316862E10 ; 47366.619999999944
134 ; 4634715.993129043 ; 4.0212331260787094E8 ; 6.248871561496559E8 ; 5.055047599009959E10 ; 47722.759999999944
135 ; 4635336.670552932 ; 4.02133527110603E8 ; 6.29521872142785E8 ; 5.095259930270746E10 ; 48078.89999999994
136 ; 4634593.400204558 ; 4.02143720089221E8 ; 6.341572088133379E8 ; 5.135473282981806E10 ; 48435.03999999994
137 ; 4633258.037509105 ; 4.0215389119859004E8 ; 6.387918022135425E8 ; 5.175687654990728E10 ; 48791.17999999994
138 ; 4629109.73058172 ; 4.0216404009824044E8 ; 6.434250602510515E8 ; 5.215903044110587E10 ; 49147.31999999994
139 ; 4627184.957902099 ; 4.0217416645222723E8 ; 6.480541699816333E8 ; 5.256119448120412E10 ; 49503.45999999994
140 ; 4623853.876066266 ; 4.0218426992899597E8 ; 6.526813549395354E8 ; 5.296336864765634E10 ; 49859.59999999994
141 ; 4620452.904744933 ; 4.0219435020125383E8 ; 6.573052088156016E8 ; 5.3365552917585335E10 ; 50215.73999999994
142 ; 4619453.86585946 ; 4.022044069458462E8 ; 6.619256617203466E8 ; 5.376774726778659E10 ; 50571.87999999994
143 ; 4616716.617609159 ; 4.022144398436382E8 ; 6.665451155862061E8 ; 5.416995167473244E10 ; 50928.01999999994
144 ; 4615297.778587776 ; 4.022244485794014E8 ; 6.711618322038152E8 ; 5.457216611457607E10 ; 51284.15999999994
145 ; 4611192.757596005 ; 4.022344328417045E8 ; 6.75777129982403E8 ; 5.497439056315547E10 ; 51640.29999999994
146 ; 4611222.861809331 ; 4.0224439232280946E8 ; 6.80388322739999E8 ; 5.537662499599718E10 ; 51996.43999999994
147 ; 4607759.850819828 ; 4.022543267185712E8 ; 6.849995456018084E8 ; 5.5778869388319984E10 ; 52352.579999999936
148 ; 4608811.671930212 ; 4.022642357283411E8 ; 6.896073054526283E8 ; 5.618112371503856E10 ; 52708.719999999936
149 ; 4609389.450605903 ; 4.0227411905487496E8 ; 6.942161171245584E8 ; 5.65833879507669E10 ; 53064.859999999935
150 ; 4608337.538324219 ; 4.0228397640424466E8 ; 6.988255065751643E8 ; 5.698566206982178E10 ; 53420.999999999935
151 ; 4607083.084736072 ; 4.0229380748575264E8 ; 7.034338441134886E8 ; 5.738794604622602E10 ; 53777.139999999934
152 ; 4604405.198799785 ; 4.023036120118507E8 ; 7.080409271982247E8 ; 5.779023985371178E10 ; 54133.27999999993
153 ; 4603740.196861245 ; 4.023133896980611E8 ; 7.126453323970244E8 ; 5.8192543465723625E10 ; 54489.41999999993
154 ; 4602650.569746682 ; 4.0232314026290166E8 ; 7.172490725938857E8 ; 5.8594856855421684E10 ; 54845.55999999993
155 ; 4602506.588197418 ; 4.0233286342781305E8 ; 7.218517231636324E8 ; 5.8997179995684586E10 ; 55201.69999999993
156 ; 4601963.845564918 ; 4.0234255891708934E8 ; 7.264542297518299E8 ; 5.93995128591124E10 ; 55557.83999999993
157 ; 4600741.08050315 ; 4.0235222645781106E8 ; 7.310561935973948E8 ; 5.980185541802949E10 ; 55913.97999999993
158 ; 4599084.197739975 ; 4.02361865779781E8 ; 7.356569346778979E8 ; 6.02042076444873E10 ; 56270.11999999993
159 ; 4600125.874313359 ; 4.0237147661546254E8 ; 7.402560188756379E8 ; 6.0606569510267075E10 ; 56626.25999999993
160 ; 4598382.53619101 ; 4.0238105869991994E8 ; 7.448561447499512E8 ; 6.100894098688254E10 ; 56982.39999999993
161 ; 4596244.357713551 ; 4.023906117707616E8 ; 7.494545272861422E8 ; 6.141132204558246E10 ; 57338.53999999993
162 ; 4595489.907997403 ; 4.024001355680846E8 ; 7.540507716438558E8 ; 6.181371265735322E10 ; 57694.67999999993
163 ; 4591757.00758789 ; 4.0240962983442235E8 ; 7.586462615518532E8 ; 6.22161127929213E10 ; 58050.81999999993
164 ; 4592475.843629675 ; 4.0241909431469357E8 ; 7.632380185594411E8 ; 6.261852242275572E10 ; 58406.95999999993
165 ; 4590607.585877759 ; 4.0242852875615317E8 ; 7.678304944030708E8 ; 6.302094151707042E10 ; 58763.099999999926
166 ; 4588705.868223619 ; 4.0243793290834534E8 ; 7.724211019889486E8 ; 6.342337004582658E10 ; 59119.239999999925
167 ; 4588393.49976046 ; 4.024473065230583E8 ; 7.770098078571723E8 ; 6.3825807978734924E10 ; 59475.379999999925
168 ; 4584401.452782786 ; 4.024566493542805E8 ; 7.815982013569328E8 ; 6.422825528525798E10 ; 59831.519999999924
169 ; 4583726.2529817205 ; 4.0246596115815866E8 ; 7.861826028097155E8 ; 6.463071193461226E10 ; 60187.65999999992
170 ; 4582461.630560109 ; 4.0247524169295776E8 ; 7.907663290626972E8 ; 6.503317789577042E10 ; 60543.79999999992
171 ; 4582030.029169384 ; 4.024844907190213E8 ; 7.953487906932573E8 ; 6.543565313746337E10 ; 60899.93999999992
172 ; 4581367.422843462 ; 4.024937079987347E8 ; 7.999308207224268E8 ; 6.5838137628182396E10 ; 61256.07999999992
173 ; 4579078.9039558945 ; 4.0250289329648846E8 ; 8.045121881452702E8 ; 6.624063133618113E10 ; 61612.21999999992
174 ; 4580980.09577818 ; 4.025120463786439E8 ; 8.090912670492262E8 ; 6.6643134229477615E10 ; 61968.35999999992
175 ; 4581045.3584023435 ; 4.025211670134993E8 ; 8.136722471450044E8 ; 6.704564627585626E10 ; 62324.49999999992
176 ; 4580520.117560804 ; 4.025302549712581E8 ; 8.182532925034068E8 ; 6.744816744286976E10 ; 62680.63999999992
177 ; 4581873.260659692 ; 4.025393100239973E8 ; 8.228338126209676E8 ; 6.785069769784102E10 ; 63036.77999999992
