CSV File for the Network on Day 58
1 - Minute m 
2 - Power Consumed at minute m 
3 - Power Produced at minute m 
4 - Energy Consumed since the beginning of the day 
5 - Energy Produced since the beginning of the day 
6 - Energy Lost since the beginning of the day 
 
0 ; 3.842401627548225E7 ; 6.339653133366747E8 ; 0.0 ; 0.0 ; 0.0
1 ; 3.846676431939359E7 ; 6.348747455773289E8 ; 3.842401627548225E7 ; 6.339653133366747E8 ; 0.0
2 ; 3.8504372115045674E7 ; 6.376376847008537E8 ; 7.689078059487584E7 ; 1.2688400589140036E9 ; 0.0
3 ; 3.855534946867147E7 ; 6.422541567964869E8 ; 1.1539515270992151E8 ; 1.9064777436148572E9 ; 0.0
4 ; 3.861404594799803E7 ; 6.487241854331491E8 ; 1.5395050217859298E8 ; 2.548731900411344E9 ; 0.0
5 ; 3.868144433505724E7 ; 6.570477914668057E8 ; 1.9256454812659103E8 ; 3.197456085844493E9 ; 0.0
6 ; 3.8772886685531974E7 ; 6.672249928650079E8 ; 2.312459924616483E8 ; 3.8545038773112984E9 ; 0.0
7 ; 3.889874358781514E7 ; 6.792558045519464E8 ; 2.7001887914718026E8 ; 4.521728870176306E9 ; 0.0
8 ; 3.9087297110868864E7 ; 6.93140238277065E8 ; 3.089176227349954E8 ; 5.200984674728252E9 ; 0.0
9 ; 3.9362417790494666E7 ; 7.08878302509905E8 ; 3.480049198458643E8 ; 5.894124913005318E9 ; 0.0
10 ; 3.979981477657141E7 ; 7.264700023633559E8 ; 3.87367337636359E8 ; 6.603003215515223E9 ; 0.0
11 ; 4.049183412607996E7 ; 7.459153395469422E8 ; 4.2716715241293037E8 ; 7.329473217878578E9 ; 0.0
12 ; 4.15907191548006E7 ; 7.672143123511392E8 ; 4.6765898653901035E8 ; 8.07538855742552E9 ; 0.0
13 ; 4.265744554369474E7 ; 7.903669156630573E8 ; 5.0924970569381094E8 ; 8.842602869776659E9 ; 0.0
14 ; 4.277968257869023E7 ; 8.153731410131559E8 ; 5.519071512375057E8 ; 9.632969785439716E9 ; 0.0
15 ; 4.282925155512887E7 ; 8.422329766519907E8 ; 5.94686833816196E8 ; 1.0448342926452873E10 ; 0.0
16 ; 4.2887141268876344E7 ; 8.709464076553713E8 ; 6.375160853713248E8 ; 1.1290575903104864E10 ; 0.0
17 ; 4.292923048785492E7 ; 9.015134160557461E8 ; 6.804032266402011E8 ; 1.2161522310760235E10 ; 0.0
18 ; 4.297762889934392E7 ; 9.3393398099715E8 ; 7.23332457128056E8 ; 1.306303572681598E10 ; 0.0
19 ; 4.30304493070644E7 ; 9.682080789106623E8 ; 7.663100860274E8 ; 1.3996969707813131E10 ; 0.0
20 ; 4.307629506636757E7 ; 1.0043356837070448E9 ; 8.093405353344644E8 ; 1.4965177786723793E10 ; 0.0
21 ; 4.3124581673849195E7 ; 1.0423167669830524E9 ; 8.524168304008319E8 ; 1.5969513470430838E10 ; 0.0
22 ; 4.317993818609365E7 ; 1.0821512982378469E9 ; 8.955414120746812E8 ; 1.701183023741389E10 ; 0.0
23 ; 4.322681127389881E7 ; 1.1238392450959816E9 ; 9.387213502607749E8 ; 1.8093981535651737E10 ; 0.0
24 ; 4.3275483050602295E7 ; 1.1673805735335515E9 ; 9.819481615346737E8 ; 1.921782078074772E10 ; 0.0
25 ; 4.333020636097015E7 ; 1.20490349349341E9 ; 1.025223644585276E9 ; 2.038520135428127E10 ; 0.0
26 ; 4.337708895112185E7 ; 1.204929255329705E9 ; 1.0685538509462461E9 ; 2.159010484777468E10 ; 0.0
27 ; 4.3420769810894355E7 ; 1.2049564371748867E9 ; 1.111930939897368E9 ; 2.2795034103104385E10 ; 0.0
28 ; 4.3468339088870026E7 ; 1.2049850006301093E9 ; 1.1553517097082622E9 ; 2.3999990540279274E10 ; 0.0
29 ; 4.352269634435743E7 ; 1.2050149067247512E9 ; 1.1988200487971323E9 ; 2.520497554090938E10 ; 0.0
30 ; 4.3565376731755406E7 ; 1.205046116105225E9 ; 1.2423427451414897E9 ; 2.6409990447634132E10 ; 0.0
31 ; 4.360629445273235E7 ; 1.2050785892113898E9 ; 1.2859081218732452E9 ; 2.7615036563739357E10 ; 0.0
32 ; 4.365121308519351E7 ; 1.2051122864397392E9 ; 1.3295144163259776E9 ; 2.882011515295075E10 ; 0.0
33 ; 4.369923054867858E7 ; 1.2051471682928681E9 ; 1.373165629411171E9 ; 3.0025227439390488E10 ; 0.0
34 ; 4.374211952334798E7 ; 1.2051831955149903E9 ; 1.4168648599598496E9 ; 3.1230374607683357E10 ; 0.0
35 ; 4.377934555421516E7 ; 1.2052203292135372E9 ; 1.4606069794831977E9 ; 3.243555780319835E10 ; 0.0
36 ; 4.381568643457744E7 ; 1.2052585309670782E9 ; 1.504386325037413E9 ; 3.364077813241189E10 ; 0.0
37 ; 4.385687113744491E7 ; 1.2052977629199798E9 ; 1.5482020114719903E9 ; 3.484603666337897E10 ; 0.0
38 ; 4.388886315410346E7 ; 1.205337987864357E9 ; 1.5920588826094353E9 ; 3.605133442629895E10 ; 0.0
39 ; 4.393311635295822E7 ; 1.2053791693099906E9 ; 1.6359477457635388E9 ; 3.725667241416331E10 ; 0.0
40 ; 4.3961681710237235E7 ; 1.205421271542954E9 ; 1.679880862116497E9 ; 3.84620515834733E10 ; 0.0
41 ; 4.398756020522588E7 ; 1.2054642596737437E9 ; 1.7238425438267343E9 ; 3.966747285501625E10 ; 0.0
42 ; 4.401835508046824E7 ; 1.2055080996757498E9 ; 1.7678301040319602E9 ; 4.0872937114689995E10 ; 0.0
43 ; 4.4047780482117094E7 ; 1.2055527584148948E9 ; 1.8118484591124284E9 ; 4.2078445214365746E10 ; 0.0
44 ; 4.407229751126374E7 ; 1.2055982036712809E9 ; 1.8558962395945456E9 ; 4.328399797278064E10 ; 0.0
45 ; 4.410195229282883E7 ; 1.2056444041536474E9 ; 1.8999685371058095E9 ; 4.448959617645192E10 ; 0.0
46 ; 4.41184626413531E7 ; 1.2056913295074282E9 ; 1.9440704893986382E9 ; 4.569524058060557E10 ; 0.0
47 ; 4.4143027334157705E7 ; 1.2057389503171427E9 ; 1.9881889520399914E9 ; 4.6900931910113E10 ; 0.0
48 ; 4.415457589074658E7 ; 1.2057872381038277E9 ; 2.032331979374149E9 ; 4.8106670860430145E10 ; 0.0
49 ; 4.417161268607523E7 ; 1.2058361653181558E9 ; 2.0764865552648957E9 ; 4.931245809853397E10 ; 0.0
50 ; 4.418892120322138E7 ; 1.2058857053298476E9 ; 2.120658167950971E9 ; 5.051829426385213E10 ; 0.0
51 ; 4.4199026622529656E7 ; 1.2059358324139297E9 ; 2.1648470891541924E9 ; 5.172417996918198E10 ; 0.0
52 ; 4.4214439134201765E7 ; 1.205986521734343E9 ; 2.209046115776722E9 ; 5.293011580159591E10 ; 0.0
53 ; 4.42201564095125E7 ; 1.2060377493253531E9 ; 2.253260554910924E9 ; 5.413610232333025E10 ; 0.0
54 ; 4.4235427213138804E7 ; 1.2060894920711827E9 ; 2.2974807113204365E9 ; 5.534214007265561E10 ; 0.0
55 ; 4.424320975212874E7 ; 1.206141727684219E9 ; 2.341716138533575E9 ; 5.654822956472679E10 ; 0.0
56 ; 4.424746263224873E7 ; 1.2061944346821344E9 ; 2.3859593482857037E9 ; 5.775437129241101E10 ; 0.0
57 ; 4.4262365882499486E7 ; 1.206247592364197E9 ; 2.4302068109179525E9 ; 5.896056572709315E10 ; 0.0
58 ; 4.427555892413877E7 ; 1.2063011807870262E9 ; 2.474469176800452E9 ; 6.0166813319457344E10 ; 0.0
59 ; 4.428637646838609E7 ; 1.2063551807400148E9 ; 2.518744735724591E9 ; 6.137311450024437E10 ; 0.0
60 ; 4.4292715284097776E7 ; 1.2064095737206016E9 ; 2.563031112192977E9 ; 6.257946968098438E10 ; 0.0
61 ; 4.430189498463774E7 ; 1.2064643419095619E9 ; 2.6073238274770746E9 ; 6.378587925470499E10 ; 0.0
62 ; 4.4302765672700204E7 ; 1.206519468146451E9 ; 2.6516257224617124E9 ; 6.499234359661455E10 ; 0.0
63 ; 4.4317547860242255E7 ; 1.2065749359053211E9 ; 2.695928488134413E9 ; 6.6198863064761E10 ; 0.0
64 ; 4.4319695952326596E7 ; 1.2066307292708042E9 ; 2.740246035994655E9 ; 6.740543800066632E10 ; 0.0
65 ; 4.432672236301644E7 ; 1.206686832914647E9 ; 2.784565731946982E9 ; 6.8612068729937126E10 ; 0.0
66 ; 4.433572109930907E7 ; 1.2067432320727603E9 ; 2.8288924543099985E9 ; 6.981875556285178E10 ; 0.0
67 ; 4.4339415563807964E7 ; 1.2067999125228353E9 ; 2.8732281754093075E9 ; 7.102549879492453E10 ; 0.0
68 ; 4.434479131453329E7 ; 1.2068568605625668E9 ; 2.9175675909731154E9 ; 7.223229870744737E10 ; 0.0
69 ; 4.435026084715852E7 ; 1.2069140629885185E9 ; 2.9619123822876487E9 ; 7.343915556800993E10 ; 0.0
70 ; 4.435710002577491E7 ; 1.2069715070756443E9 ; 3.006262643134807E9 ; 7.464606963099846E10 ; 0.0
71 ; 4.436000774278907E7 ; 1.207029180557488E9 ; 3.050619743160582E9 ; 7.58530411380741E10 ; 0.0
72 ; 4.436193766131902E7 ; 1.2070870716070633E9 ; 3.0949797509033713E9 ; 7.706007031863159E10 ; 0.0
73 ; 4.436603688843483E7 ; 1.20714516881842E9 ; 3.1393416885646906E9 ; 7.826715739023865E10 ; 0.0
74 ; 4.436048108437571E7 ; 1.2072034611888943E9 ; 3.1837077254531255E9 ; 7.947430255905707E10 ; 0.0
75 ; 4.436636819968772E7 ; 1.2072619381020327E9 ; 3.2280682065375013E9 ; 8.068150602024596E10 ; 0.0
76 ; 4.43717149274777E7 ; 1.2073205893111866E9 ; 3.2724345747371893E9 ; 8.188876795834799E10 ; 0.0
77 ; 4.437383981694608E7 ; 1.207379404923762E9 ; 3.316806289664667E9 ; 8.309608854765918E10 ; 0.0
78 ; 4.435754645281461E7 ; 1.2074383753861108E9 ; 3.361180129481613E9 ; 8.430346795258295E10 ; 0.0
79 ; 4.434519265862315E7 ; 1.2074974914690454E9 ; 3.4055376759344277E9 ; 8.551090632796906E10 ; 0.0
80 ; 4.433562858769863E7 ; 1.207556744253968E9 ; 3.449882868593051E9 ; 8.67184038194381E10 ; 0.0
81 ; 4.43260708102216E7 ; 1.207616125119584E9 ; 3.4942184971807494E9 ; 8.792596056369206E10 ; 0.0
82 ; 4.430674872234514E7 ; 1.2076756257291944E9 ; 3.538544567990971E9 ; 8.913357668881165E10 ; 0.0
83 ; 4.429321168702238E7 ; 1.2077352380185335E9 ; 3.5828513167133164E9 ; 9.034125231454083E10 ; 0.0
84 ; 4.42817997696825E7 ; 1.2077949541841474E9 ; 3.6271445284003386E9 ; 9.154898755255937E10 ; 0.0
85 ; 4.426797907607663E7 ; 1.2078547666722813E9 ; 3.671426328170021E9 ; 9.275678250674352E10 ; 0.0
86 ; 4.4255715039609276E7 ; 1.2079146681682625E9 ; 3.7156943072460976E9 ; 9.39646372734158E10 ; 0.0
87 ; 4.424312300477458E7 ; 1.2079746515863588E9 ; 3.759950022285707E9 ; 9.517255194158406E10 ; 0.0
88 ; 4.422213966222034E7 ; 1.2080347100600922E9 ; 3.8041931452904816E9 ; 9.638052659317043E10 ; 0.0
89 ; 4.421054102295795E7 ; 1.2080948369329884E9 ; 3.848415284952702E9 ; 9.758856130323051E10 ; 0.0
90 ; 4.419022991195261E7 ; 1.2081550257497485E9 ; 3.89262582597566E9 ; 9.87966561401635E10 ; 0.0
91 ; 4.417411155672148E7 ; 1.2082152702478151E9 ; 3.9368160558876123E9 ; 1.0000481116591325E11 ; 0.0
92 ; 4.415085299610355E7 ; 1.208275564349329E9 ; 3.980990167444334E9 ; 1.0121302643616107E11 ; 0.0
93 ; 4.413656799489012E7 ; 1.2083359021534467E9 ; 4.025141020440438E9 ; 1.024213020005104E11 ; 0.0
94 ; 4.4119920417194486E7 ; 1.2083962779290109E9 ; 4.069277588435328E9 ; 1.0362963790266385E11 ; 0.0
95 ; 4.4091182063880734E7 ; 1.2084566861075537E9 ; 4.1133975088525224E9 ; 1.0483803418059286E11 ; 0.0
96 ; 4.4073415217989296E7 ; 1.2085171212766201E9 ; 4.1574886909164033E9 ; 1.0604649086670042E11 ; 0.0
97 ; 4.405867890004661E7 ; 1.2085775781733956E9 ; 4.2015621061343927E9 ; 1.0725500798797705E11 ; 0.0
98 ; 4.4039362908778146E7 ; 1.208638051678625E9 ; 4.2456207850344396E9 ; 1.0846358556615045E11 ; 0.0
99 ; 4.401548980648512E7 ; 1.2086985368108058E9 ; 4.2896601479432178E9 ; 1.0967222361782907E11 ; 0.0
100 ; 4.4001548741699964E7 ; 1.2087590287206495E9 ; 4.333675637749702E9 ; 1.1088092215463988E11 ; 0.0
101 ; 4.3974028575623E7 ; 1.2088195226857915E9 ; 4.377677186491403E9 ; 1.1208968118336052E11 ; 0.0
102 ; 4.395099750665332E7 ; 1.2088800141057417E9 ; 4.421651215067025E9 ; 1.1329850070604631E11 ; 0.0
103 ; 4.392740677908409E7 ; 1.2089404984970655E9 ; 4.465602212573679E9 ; 1.1450738072015205E11 ; 0.0
104 ; 4.390960330769771E7 ; 1.2090009714887805E9 ; 4.509529619352763E9 ; 1.1571632121864912E11 ; 0.0
105 ; 4.388069668374755E7 ; 1.209061428817961E9 ; 4.55343922266046E9 ; 1.1692532219013791E11 ; 0.0
106 ; 4.385981549681179E7 ; 1.209121866325541E9 ; 4.597319919344208E9 ; 1.1813438361895587E11 ; 0.0
107 ; 4.384034722313583E7 ; 1.2091822799523058E9 ; 4.64117973484102E9 ; 1.1934350548528142E11 ; 0.0
108 ; 4.381547167732833E7 ; 1.2092426657350614E9 ; 4.685020082064156E9 ; 1.2055268776523372E11 ; 0.0
109 ; 4.378864813805303E7 ; 1.2093030198029761E9 ; 4.728835553741484E9 ; 1.2176193043096878E11 ; 0.0
110 ; 4.3762123778307945E7 ; 1.209363338374085E9 ; 4.772624201879537E9 ; 1.2297123345077176E11 ; 0.0
111 ; 4.374030324900689E7 ; 1.2094236177519474E9 ; 4.816386325657845E9 ; 1.2418059678914584E11 ; 0.0
112 ; 4.3709112126296245E7 ; 1.2094838543224554E9 ; 4.860126628906852E9 ; 1.253900204068978E11 ; 0.0
113 ; 4.368209336525468E7 ; 1.2095440445507796E9 ; 4.903835741033148E9 ; 1.2659950426122025E11 ; 0.0
114 ; 4.365545296379925E7 ; 1.2096041849784515E9 ; 4.947517834398402E9 ; 1.2780904830577103E11 ; 0.0
115 ; 4.3634160502085395E7 ; 1.2096642722205713E9 ; 4.991173287362202E9 ; 1.2901865249074948E11 ; 0.0
116 ; 4.360288739817681E7 ; 1.20972430296314E9 ; 5.034807447864287E9 ; 1.3022831676297005E11 ; 0.0
117 ; 4.3573266122560844E7 ; 1.2097842739605048E9 ; 5.078410335262465E9 ; 1.3143804106593318E11 ; 0.0
118 ; 4.354139058732125E7 ; 1.2098441820329163E9 ; 5.121983601385025E9 ; 1.3264782533989369E11 ; 0.0
119 ; 4.3510090333204806E7 ; 1.2099040240641923E9 ; 5.165524991972346E9 ; 1.338576695219266E11 ; 0.0
120 ; 4.348604495827849E7 ; 1.2099637969994779E9 ; 5.209035082305552E9 ; 1.350675735459908E11 ; 0.0
121 ; 4.345892058239784E7 ; 1.2100234978431063E9 ; 5.25252112726383E9 ; 1.3627753734299028E11 ; 0.0
122 ; 4.342122113693489E7 ; 1.2100831236565473E9 ; 5.295980047846228E9 ; 1.3748756084083337E11 ; 0.0
123 ; 4.3393242231827885E7 ; 1.2101426715564444E9 ; 5.339401268983163E9 ; 1.3869764396448993E11 ; 0.0
124 ; 4.336257714847005E7 ; 1.2102021387127337E9 ; 5.382794511214991E9 ; 1.399077866360464E11 ; 0.0
125 ; 4.3329873325681545E7 ; 1.210261522346844E9 ; 5.426157088363461E9 ; 1.4111798877475912E11 ; 0.0
126 ; 4.330313510341446E7 ; 1.21032081972997E9 ; 5.469486961689142E9 ; 1.4232825029710596E11 ; 0.0
127 ; 4.3264804605972156E7 ; 1.2103800281814182E9 ; 5.512790096792557E9 ; 1.4353857111683594E11 ; 0.0
128 ; 4.323591021597336E7 ; 1.2104391450670245E9 ; 5.556054901398529E9 ; 1.4474895114501736E11 ; 0.0
129 ; 4.320358255094911E7 ; 1.2104981677976317E9 ; 5.599290811614502E9 ; 1.4595939029008438E11 ; 0.0
130 ; 4.3163557379483305E7 ; 1.2105570938276355E9 ; 5.642494394165451E9 ; 1.4716988845788202E11 ; 0.0
131 ; 4.3116271067984626E7 ; 1.2106159206535857E9 ; 5.685657951544934E9 ; 1.4838044555170966E11 ; 0.0
132 ; 4.306221406075582E7 ; 1.2106746458128476E9 ; 5.728774222612919E9 ; 1.4959106147236325E11 ; 0.0
133 ; 4.302049958066959E7 ; 1.2107332668823175E9 ; 5.771836436673675E9 ; 1.508017361181761E11 ; 0.0
134 ; 4.297095825419678E7 ; 1.2107917814771874E9 ; 5.814856936254344E9 ; 1.520124693850584E11 ; 0.0
135 ; 4.292227974382882E7 ; 1.2108501872497647E9 ; 5.857827894508541E9 ; 1.5322326116653558E11 ; 0.0
136 ; 4.286949463016362E7 ; 1.2109084818883348E9 ; 5.90075017425237E9 ; 1.5443411135378534E11 ; 0.0
137 ; 4.282241955893389E7 ; 1.21096666311607E9 ; 5.943619668882533E9 ; 1.5564501983567368E11 ; 0.0
138 ; 4.277023734082028E7 ; 1.2110247286899858E9 ; 5.986442088441467E9 ; 1.5685598649878973E11 ; 0.0
139 ; 4.2722462996489495E7 ; 1.211082676399933E9 ; 6.029212325782288E9 ; 1.580670112274797E11 ; 0.0
140 ; 4.26680386624369E7 ; 1.211140504067634E9 ; 6.071934788778777E9 ; 1.5927809390387964E11 ; 0.0
141 ; 4.261859317026408E7 ; 1.2111982095457544E9 ; 6.114602827441214E9 ; 1.6048923440794727E11 ; 0.0
142 ; 4.256862251106262E7 ; 1.2112557907170126E9 ; 6.157221420611478E9 ; 1.61700432617493E11 ; 0.0
143 ; 4.251895956837661E7 ; 1.2113132454933238E9 ; 6.19979004312254E9 ; 1.6291168840821002E11 ; 0.0
144 ; 4.245812750672765E7 ; 1.2113705718149774E9 ; 6.242309002690917E9 ; 1.6412300165370334E11 ; 0.0
145 ; 4.2421291232072994E7 ; 1.2114277676498444E9 ; 6.284767130197644E9 ; 1.653343722255183E11 ; 0.0
146 ; 4.239156818189638E7 ; 1.2114848309926195E9 ; 6.327188421429717E9 ; 1.6654579999316815E11 ; 0.0
147 ; 4.235257439396872E7 ; 1.2115417598640876E9 ; 6.369579989611613E9 ; 1.6775728482416077E11 ; 0.0
148 ; 4.231701564885973E7 ; 1.2115985523104224E9 ; 6.411932564005582E9 ; 1.6896882658402484E11 ; 0.0
149 ; 4.2282125566650316E7 ; 1.2116552064025087E9 ; 6.454249579654442E9 ; 1.7018042513633527E11 ; 0.0
150 ; 4.2240277183331005E7 ; 1.2117117202352922E9 ; 6.496531705221092E9 ; 1.7139208034273776E11 ; 0.0
151 ; 4.220494319858142E7 ; 1.211768091927154E9 ; 6.538771982404423E9 ; 1.7260379206297305E11 ; 0.0
152 ; 4.217071533821687E7 ; 1.2118243196193073E9 ; 6.580976925603004E9 ; 1.738155601549002E11 ; 0.0
153 ; 4.213340448775268E7 ; 1.2118804014752176E9 ; 6.623147640941221E9 ; 1.750273844745195E11 ; 0.0
154 ; 4.209355090584423E7 ; 1.2119363356800456E9 ; 6.665281045428974E9 ; 1.7623926487599472E11 ; 0.0
155 ; 4.205642821945074E7 ; 1.2119921204401078E9 ; 6.707374596334819E9 ; 1.7745120121167477E11 ; 0.0
156 ; 4.201608184445588E7 ; 1.2120477539823618E9 ; 6.74943102455427E9 ; 1.7866319333211487E11 ; 0.0
157 ; 4.198092427966047E7 ; 1.2121032345539055E9 ; 6.7914471063987255E9 ; 1.7987524108609723E11 ; 0.0
158 ; 4.1941222243537635E7 ; 1.2121585604214988E9 ; 6.833428030678386E9 ; 1.8108734432065112E11 ; 0.0
159 ; 4.190504255521484E7 ; 1.2122137298711E9 ; 6.875369252921924E9 ; 1.8229950288107263E11 ; 0.0
160 ; 4.187290899176553E7 ; 1.2122687412074225E9 ; 6.9172742954771385E9 ; 1.8351171661094373E11 ; 0.0
161 ; 4.182444953838506E7 ; 1.2123235927535033E9 ; 6.9591472044689045E9 ; 1.8472398535215115E11 ; 0.0
162 ; 4.178877446783588E7 ; 1.2123782828502905E9 ; 7.00097165400729E9 ; 1.8593630894490466E11 ; 0.0
163 ; 4.175283356570938E7 ; 1.212432809856246E9 ; 7.042760428475125E9 ; 1.8714868722775494E11 ; 0.0
164 ; 4.1707845871369265E7 ; 1.2124871721469579E9 ; 7.084513262040834E9 ; 1.8836112003761118E11 ; 0.0
165 ; 4.167117524519187E7 ; 1.2125413681147742E9 ; 7.126221107912204E9 ; 1.8957360720975815E11 ; 0.0
166 ; 4.1627919987389676E7 ; 1.2125953961684427E9 ; 7.167892283157395E9 ; 1.9078614857787292E11 ; 0.0
167 ; 4.15858999367485E7 ; 1.212649254732768E9 ; 7.209520203144785E9 ; 1.9199874397404138E11 ; 0.0
168 ; 4.15464813219708E7 ; 1.2127029422482796E9 ; 7.251106103081533E9 ; 1.9321139322877414E11 ; 0.0
169 ; 4.1516990056503296E7 ; 1.2127564571709101E9 ; 7.292652584403504E9 ; 1.9442409617102243E11 ; 0.0
170 ; 4.146252066899493E7 ; 1.212809797971688E9 ; 7.334169574460008E9 ; 1.9563685262819333E11 ; 0.0
171 ; 4.14266447961635E7 ; 1.2128629631364384E9 ; 7.375632095129003E9 ; 1.96849662426165E11 ; 0.0
172 ; 4.1384908323011786E7 ; 1.212915951165497E9 ; 7.417058739925166E9 ; 1.9806252538930145E11 ; 0.0
173 ; 4.135349712979147E7 ; 1.2129687605734303E9 ; 7.458443648248178E9 ; 1.9927544134046695E11 ; 0.0
174 ; 4.132414538364118E7 ; 1.2130213898887696E9 ; 7.499797145377969E9 ; 2.0048841010104037E11 ; 0.0
175 ; 4.129815661551447E7 ; 1.2130738376537516E9 ; 7.54112129076161E9 ; 2.0170143149092914E11 ; 0.0
176 ; 4.128070110699761E7 ; 1.21312610242407E9 ; 7.582419447377125E9 ; 2.029145053285829E11 ; 0.0
177 ; 4.1248993373404086E7 ; 1.2131781827686334E9 ; 7.623700148484122E9 ; 2.0412763143100696E11 ; 0.0
178 ; 4.1221783925199546E7 ; 1.2132300772693331E9 ; 7.664949141857527E9 ; 2.053408096137756E11 ; 0.0
179 ; 4.1199084461086504E7 ; 1.2132817845208201E9 ; 7.706170925782726E9 ; 2.0655403969104495E11 ; 0.0
180 ; 4.1177501721461065E7 ; 1.2133333031302862E9 ; 7.747370010243813E9 ; 2.0776732147556577E11 ; 0.0
181 ; 4.114358579257567E7 ; 1.213384631717256E9 ; 7.788547511965274E9 ; 2.0898065477869604E11 ; 0.0
182 ; 4.113186489072558E7 ; 1.213435768913384E9 ; 7.82969109775785E9 ; 2.101940394104133E11 ; 0.0
183 ; 4.11025494882707E7 ; 1.2134867133622599E9 ; 7.870822962648575E9 ; 2.114074751793267E11 ; 0.0
184 ; 4.107296404866999E7 ; 1.2135374637192206E9 ; 7.911925512136846E9 ; 2.1262096189268896E11 ; 0.0
185 ; 4.105265298257847E7 ; 1.2135880186511664E9 ; 7.952998476185515E9 ; 2.1383449935640817E11 ; 0.0
186 ; 4.1030252872592986E7 ; 1.2136383768363862E9 ; 7.994051129168094E9 ; 2.1504808737505933E11 ; 0.0
187 ; 4.100092964873495E7 ; 1.2136885369643872E9 ; 8.035081382040687E9 ; 2.1626172575189572E11 ; 0.0
188 ; 4.097590730125688E7 ; 1.2137384977357304E9 ; 8.076082311689422E9 ; 2.174754142888601E11 ; 0.0
189 ; 4.095221583005986E7 ; 1.2137882578618717E9 ; 8.117058218990679E9 ; 2.1868915278659583E11 ; 0.0
190 ; 4.092595029065155E7 ; 1.2138378160650098E9 ; 8.158010434820739E9 ; 2.199029410444577E11 ; 0.0
191 ; 4.090833786180264E7 ; 1.2138871710779352E9 ; 8.19893638511139E9 ; 2.211167788605227E11 ; 0.0
192 ; 4.088200551421638E7 ; 1.2139363216438909E9 ; 8.239844722973193E9 ; 2.2233066603160065E11 ; 0.0
193 ; 4.084775303247482E7 ; 1.2139852665164292E9 ; 8.28072672848741E9 ; 2.2354460235324454E11 ; 0.0
194 ; 4.082771183464415E7 ; 1.2140340044592814E9 ; 8.321574481519884E9 ; 2.2475858761976096E11 ; 0.0
195 ; 4.080251559479341E7 ; 1.2140825342462277E9 ; 8.362402193354528E9 ; 2.2597262162422025E11 ; 0.0
196 ; 4.078079740585788E7 ; 1.2141308546609707E9 ; 8.403204708949322E9 ; 2.2718670415846646E11 ; 0.0
