CSV File for the Network on Day 87
1 - Minute m 
2 - Power Consumed at minute m 
3 - Power Produced at minute m 
4 - Energy Consumed since the beginning of the day 
5 - Energy Produced since the beginning of the day 
6 - Energy Lost since the beginning of the day 
 
0 ; 3.862052487222805E7 ; 6.349938098670678E8 ; 0.0 ; 0.0 ; 0.0
1 ; 3.865739309766424E7 ; 6.359045930199578E8 ; 3.862052487222805E7 ; 6.349938098670678E8 ; 0.0
2 ; 3.870293979012541E7 ; 6.386687702593951E8 ; 7.72779179698923E7 ; 1.2708984028870256E9 ; 0.0
3 ; 3.8751619475220405E7 ; 6.432863584167793E8 ; 1.159808577600177E8 ; 1.9095671731464207E9 ; 0.0
4 ; 3.880944636898842E7 ; 6.497573725833484E8 ; 1.547324772352381E8 ; 2.5528535315632E9 ; 0.0
5 ; 3.887454341585873E7 ; 6.580818260241036E8 ; 1.9354192360422653E8 ; 3.2026109041465483E9 ; 0.0
6 ; 3.8976614964860514E7 ; 6.682597301006584E8 ; 2.3241646702008528E8 ; 3.860692730170652E9 ; 0.0
7 ; 3.909531304002251E7 ; 6.802910942040406E8 ; 2.713930819849458E8 ; 4.528952460271311E9 ; 0.0
8 ; 3.9287972481501386E7 ; 6.941759256983709E8 ; 3.1048839502496827E8 ; 5.209243554475351E9 ; 0.0
9 ; 3.956483521605408E7 ; 7.099142298761988E8 ; 3.4977636750646967E8 ; 5.903419480173722E9 ; 0.0
10 ; 3.9996111460178465E7 ; 7.275060099261341E8 ; 3.8934120272252375E8 ; 6.613333710049921E9 ; 0.0
11 ; 4.0684392812494606E7 ; 7.46951266913236E8 ; 4.293373141827022E8 ; 7.340839719976055E9 ; 0.0
12 ; 4.1796227300193354E7 ; 7.682499997724451E8 ; 4.700217069951968E8 ; 8.087790986889291E9 ; 0.0
13 ; 4.285779057378097E7 ; 7.914022053151517E8 ; 5.118179342953902E8 ; 8.856040986661736E9 ; 0.0
14 ; 4.2987110771437116E7 ; 8.164078782488067E8 ; 5.546757248691711E8 ; 9.647443191976887E9 ; 0.0
15 ; 4.303253170112256E7 ; 8.432670112092888E8 ; 5.976628356406083E8 ; 1.0463851070225693E10 ; 0.0
16 ; 4.308823141004622E7 ; 8.719795948055707E8 ; 6.406953673417308E8 ; 1.1307118081434982E10 ; 0.0
17 ; 4.313855077072109E7 ; 9.025456176760385E8 ; 6.83783598751777E8 ; 1.2179097676240553E10 ; 0.0
18 ; 4.3177717835400835E7 ; 9.349650665556914E8 ; 7.269221495224981E8 ; 1.3081643293916592E10 ; 0.0
19 ; 4.323626221989016E7 ; 9.692379263532912E8 ; 7.70099867357899E8 ; 1.4016608360472282E10 ; 0.0
20 ; 4.3292333007815585E7 ; 1.005364180237438E9 ; 8.133361295777891E8 ; 1.4985846286825573E10 ; 0.0
21 ; 4.333655206914687E7 ; 1.0433438097304487E9 ; 8.566284625856047E8 ; 1.5991210467063011E10 ; 0.0
22 ; 4.338761183087964E7 ; 1.0831767948088632E9 ; 8.999650146547515E8 ; 1.703455427679346E10 ; 0.0
23 ; 4.343390327234107E7 ; 1.1248631140093565E9 ; 9.433526264856312E8 ; 1.8117731071602325E10 ; 0.0
24 ; 4.349166270555867E7 ; 1.1684027445388315E9 ; 9.867865297579722E8 ; 1.9242594185611683E10 ; 0.0
25 ; 4.353500110509949E7 ; 1.2059239077765806E9 ; 1.0302781924635309E9 ; 2.0410996930150513E10 ; 0.0
26 ; 4.3591945831038505E7 ; 1.2059478656104927E9 ; 1.0738131935686305E9 ; 2.1616920837927094E10 ; 0.0
27 ; 4.364670331978626E7 ; 1.2059732077019596E9 ; 1.117405139399669E9 ; 2.2822868703537586E10 ; 0.0
28 ; 4.368827359067463E7 ; 1.2059999070815763E9 ; 1.1610518427194552E9 ; 2.4028841911239548E10 ; 0.0
29 ; 4.3738575315145016E7 ; 1.206027936022283E9 ; 1.20474011631013E9 ; 2.5234841818321125E10 ; 0.0
30 ; 4.37872796282084E7 ; 1.2060572661507463E9 ; 1.248478691625275E9 ; 2.6440869754343407E10 ; 0.0
31 ; 4.383296502558859E7 ; 1.2060878685556602E9 ; 1.2922659712534833E9 ; 2.7646927020494152E10 ; 0.0
32 ; 4.388123738402097E7 ; 1.2061197138922782E9 ; 1.3360989362790718E9 ; 2.8853014889049812E10 ; 0.0
33 ; 4.3922300547824934E7 ; 1.2061527724825926E9 ; 1.3799801736630929E9 ; 3.005913460294209E10 ; 0.0
34 ; 4.396851896794135E7 ; 1.2061870144106796E9 ; 1.4239024742109177E9 ; 3.1265287375424683E10 ; 0.0
35 ; 4.400644281969642E7 ; 1.2062224096128328E9 ; 1.467870993178859E9 ; 3.247147438983536E10 ; 0.0
36 ; 4.40420306438545E7 ; 1.206258927962198E9 ; 1.5118774359985554E9 ; 3.3677696799448193E10 ; 0.0
37 ; 4.408525360816009E7 ; 1.2062965393477178E9 ; 1.5559194666424098E9 ; 3.488395572741039E10 ; 0.0
38 ; 4.412895696838381E7 ; 1.2063352137472744E9 ; 1.6000047202505698E9 ; 3.609025226675811E10 ; 0.0
39 ; 4.4169287327361286E7 ; 1.2063749212949927E9 ; 1.6441336772189536E9 ; 3.729658748050539E10 ; 0.0
40 ; 4.4197996196816266E7 ; 1.2064156323427372E9 ; 1.688302964546315E9 ; 3.850296240180038E10 ; 0.0
41 ; 4.42301650361204E7 ; 1.2064573175158873E9 ; 1.7325009607431312E9 ; 3.970937803414311E10 ; 0.0
42 ; 4.4261949072367534E7 ; 1.206499947763531E9 ; 1.7767311257792516E9 ; 4.0915835351659E10 ; 0.0
43 ; 4.4288931587350324E7 ; 1.206543494403258E9 ; 1.820993074851619E9 ; 4.212233529942253E10 ; 0.0
44 ; 4.431237905210022E7 ; 1.2065879291607628E9 ; 1.8652820064389694E9 ; 4.332887879382579E10 ; 0.0
45 ; 4.433984211234304E7 ; 1.2066332242044992E9 ; 1.9095943854910696E9 ; 4.453546672298656E10 ; 0.0
46 ; 4.436744458397657E7 ; 1.2066793521756516E9 ; 1.9539342276034126E9 ; 4.5742099947191055E10 ; 0.0
47 ; 4.43896746414626E7 ; 1.206726286213685E9 ; 1.9983016721873891E9 ; 4.694877929936671E10 ; 0.0
48 ; 4.4411441786324024E7 ; 1.2067739999777727E9 ; 2.0426913468288517E9 ; 4.815550558558039E10 ; 0.0
49 ; 4.442211001488621E7 ; 1.2068224676643758E9 ; 2.0871027886151757E9 ; 4.936227958555817E10 ; 0.0
50 ; 4.444328407939207E7 ; 1.2068716640212662E9 ; 2.1315248986300619E9 ; 5.056910205322254E10 ; 0.0
51 ; 4.445138763472076E7 ; 1.2069215643582807E9 ; 2.175968182709454E9 ; 5.1775973717243805E10 ; 0.0
52 ; 4.4470999995155245E7 ; 1.2069721445550745E9 ; 2.220419570344175E9 ; 5.298289528160209E10 ; 0.0
53 ; 4.448480286214569E7 ; 1.207023381066151E9 ; 2.26489057033933E9 ; 5.4189867426157166E10 ; 0.0
54 ; 4.4495136222330526E7 ; 1.207075250923421E9 ; 2.309375373201476E9 ; 5.539689080722332E10 ; 0.0
55 ; 4.4513753014759615E7 ; 1.2071277317365386E9 ; 2.3538705094238067E9 ; 5.660396605814674E10 ; 0.0
56 ; 4.452172872657E7 ; 1.2071808016912518E9 ; 2.398384262438566E9 ; 5.7811093789883286E10 ; 0.0
57 ; 4.453213436013518E7 ; 1.2072344395459754E9 ; 2.4429059911651363E9 ; 5.901827459157454E10 ; 0.0
58 ; 4.453934992344784E7 ; 1.2072886246268108E9 ; 2.4874381255252714E9 ; 6.0225509031120514E10 ; 0.0
59 ; 4.455024182029777E7 ; 1.2073433368211865E9 ; 2.531977475448719E9 ; 6.143279765574732E10 ; 0.0
60 ; 4.4566400087564886E7 ; 1.2073985565703096E9 ; 2.5765277172690167E9 ; 6.264014099256851E10 ; 0.0
61 ; 4.457019524919847E7 ; 1.2074542648605876E9 ; 2.6210941173565817E9 ; 6.3847539549138824E10 ; 0.0
62 ; 4.458448894772832E7 ; 1.207510443214172E9 ; 2.66566431260578E9 ; 6.505499381399941E10 ; 0.0
63 ; 4.4595682250430174E7 ; 1.2075670736787643E9 ; 2.7102488015535083E9 ; 6.6262504257213585E10 ; 0.0
64 ; 4.460803236174945E7 ; 1.2076241388168077E9 ; 2.7548444838039384E9 ; 6.747007133089235E10 ; 0.0
65 ; 4.461408908617565E7 ; 1.2076816216941788E9 ; 2.799452516165688E9 ; 6.867769546970916E10 ; 0.0
66 ; 4.462278533054228E7 ; 1.207739505868486E9 ; 2.8440666052518635E9 ; 6.988537709140334E10 ; 0.0
67 ; 4.4631066968819484E7 ; 1.2077977753770652E9 ; 2.8886893905824056E9 ; 7.109311659727182E10 ; 0.0
68 ; 4.4636834773754776E7 ; 1.2078564147247531E9 ; 2.933320457551225E9 ; 7.230091437264888E10 ; 0.0
69 ; 4.464589520550145E7 ; 1.2079154088715198E9 ; 2.97795729232498E9 ; 7.350877078737363E10 ; 0.0
70 ; 4.46508920757902E7 ; 1.2079747432200181E9 ; 3.0226031875304813E9 ; 7.471668619624515E10 ; 0.0
71 ; 4.465843143436983E7 ; 1.208034403603117E9 ; 3.0672540796062717E9 ; 7.592466093946516E10 ; 0.0
72 ; 4.466939531021298E7 ; 1.2080943762714596E9 ; 3.111912511040642E9 ; 7.713269534306828E10 ; 0.0
73 ; 4.467102131093367E7 ; 1.2081546478811026E9 ; 3.156581906350855E9 ; 7.834078971933974E10 ; 0.0
74 ; 4.467281491901441E7 ; 1.2082152054812653E9 ; 3.2012529276617885E9 ; 7.954894436722084E10 ; 0.0
75 ; 4.467565618283427E7 ; 1.2082760365022292E9 ; 3.245925742580803E9 ; 8.07571595727021E10 ; 0.0
76 ; 4.4685839451004885E7 ; 1.2083371287434113E9 ; 3.290601398763637E9 ; 8.196543560920433E10 ; 0.0
77 ; 4.468732185450452E7 ; 1.2083984703616414E9 ; 3.335287238214642E9 ; 8.317377273794774E10 ; 0.0
78 ; 4.4683428018112406E7 ; 1.2084600498596573E9 ; 3.3799745600691466E9 ; 8.438217120830939E10 ; 0.0
79 ; 4.467009792394708E7 ; 1.2085218560748396E9 ; 3.424657988087259E9 ; 8.559063125816904E10 ; 0.0
80 ; 4.465962545900037E7 ; 1.2085838781681974E9 ; 3.4693280860112057E9 ; 8.679915311424388E10 ; 0.0
81 ; 4.464766306864688E7 ; 1.2086461056136172E9 ; 3.5139877114702063E9 ; 8.800773699241208E10 ; 0.0
82 ; 4.464175901853464E7 ; 1.2087085281873798E9 ; 3.558635374538853E9 ; 8.92163830980257E10 ; 0.0
83 ; 4.4631212976528004E7 ; 1.2087711359579573E9 ; 3.603277133557388E9 ; 9.042509162621307E10 ; 0.0
84 ; 4.4618295739716575E7 ; 1.2088339192760875E9 ; 3.647908346533916E9 ; 9.163386276217104E10 ; 0.0
85 ; 4.4600106726000875E7 ; 1.2088968687651331E9 ; 3.6925266422736325E9 ; 9.284269668144713E10 ; 0.0
86 ; 4.459679458633597E7 ; 1.2089599753117242E9 ; 3.7371267489996333E9 ; 9.405159355021227E10 ; 0.0
87 ; 4.458339079254148E7 ; 1.2090232300566852E9 ; 3.7817235435859694E9 ; 9.526055352552399E10 ; 0.0
88 ; 4.456977871556997E7 ; 1.209086624386242E9 ; 3.826306934378511E9 ; 9.646957675558067E10 ; 0.0
89 ; 4.455330144523056E7 ; 1.2091501499235086E9 ; 3.870876713094081E9 ; 9.767866337996692E10 ; 0.0
90 ; 4.4542206214323275E7 ; 1.2092137985202518E9 ; 3.9154300145393114E9 ; 9.888781352989043E10 ; 0.0
91 ; 4.451951810798505E7 ; 1.2092775622489243E9 ; 3.9599722207536345E9 ; 1.0009702732841068E11 ; 0.0
92 ; 4.451107864225785E7 ; 1.209341433394966E9 ; 4.0044917388616195E9 ; 1.013063048906596E11 ; 0.0
93 ; 4.449867968733295E7 ; 1.209405404449369E9 ; 4.049002817503877E9 ; 1.0251564632405457E11 ; 0.0
94 ; 4.447119687599801E7 ; 1.2094694681014962E9 ; 4.0935014971912103E9 ; 1.0372505172850394E11 ; 0.0
95 ; 4.446294260815395E7 ; 1.2095336172321506E9 ; 4.1379726940672083E9 ; 1.0493452119660544E11 ; 0.0
96 ; 4.444905985437648E7 ; 1.2095978449068894E9 ; 4.182435636675362E9 ; 1.0614405481383759E11 ; 0.0
97 ; 4.442894546645184E7 ; 1.209662144369576E9 ; 4.2268846965297384E9 ; 1.0735365265874448E11 ; 0.0
98 ; 4.441158993645352E7 ; 1.2097265090361614E9 ; 4.27131364199619E9 ; 1.0856331480311406E11 ; 0.0
99 ; 4.439437890718089E7 ; 1.2097909324886909E9 ; 4.315725231932644E9 ; 1.0977304131215022E11 ; 0.0
100 ; 4.437617904152029E7 ; 1.2098554084695299E9 ; 4.360119610839825E9 ; 1.1098283224463892E11 ; 0.0
101 ; 4.4354978242247276E7 ; 1.2099199308757992E9 ; 4.404495789881345E9 ; 1.1219268765310844E11 ; 0.0
102 ; 4.434075162988775E7 ; 1.2099844937540152E9 ; 4.448850768123592E9 ; 1.1340260758398424E11 ; 0.0
103 ; 4.4317173120084755E7 ; 1.2100490912949286E9 ; 4.49319151975348E9 ; 1.1461259207773825E11 ; 0.0
104 ; 4.4301139334230594E7 ; 1.2101137178285537E9 ; 4.537508692873565E9 ; 1.1582264116903317E11 ; 0.0
105 ; 4.428473346782321E7 ; 1.2101783678193831E9 ; 4.581809832207795E9 ; 1.1703275488686172E11 ; 0.0
106 ; 4.426366679722742E7 ; 1.2102430358617816E9 ; 4.626094565675618E9 ; 1.182429332546811E11 ; 0.0
107 ; 4.424094819264173E7 ; 1.2103077166755505E9 ; 4.670358232472846E9 ; 1.194531762905429E11 ; 0.0
108 ; 4.421845350309224E7 ; 1.210372405101661E9 ; 4.714599180665487E9 ; 1.2066348400721844E11 ; 0.0
109 ; 4.419669255194475E7 ; 1.210437096098145E9 ; 4.758817634168579E9 ; 1.218738564123201E11 ; 0.0
110 ; 4.4177401316074006E7 ; 1.2105017847361436E9 ; 4.803014326720524E9 ; 1.2308429350841824E11 ; 0.0
111 ; 4.415747147984477E7 ; 1.2105664661961012E9 ; 4.847191728036598E9 ; 1.2429479529315439E11 ; 0.0
112 ; 4.413448559809061E7 ; 1.2106311357641068E9 ; 4.891349199516443E9 ; 1.255053617593505E11 ; 0.0
113 ; 4.410832983698498E7 ; 1.2106957888283696E9 ; 4.935483685114533E9 ; 1.267159928951146E11 ; 0.0
114 ; 4.40853404536408E7 ; 1.21076042087583E9 ; 4.979592014951518E9 ; 1.2792668868394296E11 ; 0.0
115 ; 4.405224893166527E7 ; 1.2108250274888976E9 ; 5.023677355405159E9 ; 1.2913744910481879E11 ; 0.0
116 ; 4.403578942853872E7 ; 1.210889604342313E9 ; 5.067729604336824E9 ; 1.3034827413230768E11 ; 0.0
117 ; 4.400380760549373E7 ; 1.2109541472001276E9 ; 5.111765393765363E9 ; 1.3155916373665E11 ; 0.0
118 ; 4.398848723552677E7 ; 1.211018651912796E9 ; 5.155769201370856E9 ; 1.3277011788385013E11 ; 0.0
119 ; 4.395969568681074E7 ; 1.2110831144143806E9 ; 5.199757688606383E9 ; 1.3398113653576292E11 ; 0.0
120 ; 4.393037043071738E7 ; 1.211147530719859E9 ; 5.243717384293194E9 ; 1.351922196501773E11 ; 0.0
121 ; 4.3901965094345346E7 ; 1.211211896922533E9 ; 5.287647754723911E9 ; 1.3640336718089717E11 ; 0.0
122 ; 4.388091684218927E7 ; 1.211276209191537E9 ; 5.331549719818256E9 ; 1.376145790778197E11 ; 0.0
123 ; 4.3851926880317174E7 ; 1.211340463769437E9 ; 5.375430636660445E9 ; 1.3882585528701123E11 ; 0.0
124 ; 4.382666767402979E7 ; 1.2114046569699206E9 ; 5.419282563540762E9 ; 1.4003719575078067E11 ; 0.0
125 ; 4.37995100378864E7 ; 1.2114687851755738E9 ; 5.463109231214791E9 ; 1.4124860040775058E11 ; 0.0
126 ; 4.377579104129395E7 ; 1.2115328448357406E9 ; 5.506908741252678E9 ; 1.4246006919292615E11 ; 0.0
127 ; 4.373734803061941E7 ; 1.211596832464461E9 ; 5.550684532293972E9 ; 1.436716020377619E11 ; 0.0
128 ; 4.3708844025878996E7 ; 1.2116607446384883E9 ; 5.594421880324592E9 ; 1.4488319887022635E11 ; 0.0
129 ; 4.368095934249388E7 ; 1.211724577995376E9 ; 5.638130724350471E9 ; 1.4609485961486484E11 ; 0.0
130 ; 4.364716627297495E7 ; 1.2117883292316406E9 ; 5.681811683692965E9 ; 1.473065841928602E11 ; 0.0
131 ; 4.360982821505495E7 ; 1.211851995100986E9 ; 5.7254588499659395E9 ; 1.4851837252209183E11 ; 0.0
132 ; 4.35573666768137E7 ; 1.2119155724126005E9 ; 5.769068678180994E9 ; 1.497302245171928E11 ; 0.0
133 ; 4.351954616917895E7 ; 1.2119790580295093E9 ; 5.812626044857808E9 ; 1.509421400896054E11 ; 0.0
134 ; 4.347149969410784E7 ; 1.2120424488669925E9 ; 5.856145591026987E9 ; 1.5215411914763492E11 ; 0.0
135 ; 4.342222950663835E7 ; 1.2121057418910582E9 ; 5.899617090721095E9 ; 1.5336616159650192E11 ; 0.0
136 ; 4.338445220223274E7 ; 1.2121689341169732E9 ; 5.943039320227734E9 ; 1.5457826733839297E11 ; 0.0
137 ; 4.332928148098008E7 ; 1.212232022607845E9 ; 5.986423772429966E9 ; 1.5579043627250995E11 ; 0.0
138 ; 4.328919723528029E7 ; 1.2122950044732575E9 ; 6.029753053910946E9 ; 1.570026682951178E11 ; 0.0
139 ; 4.325025596051797E7 ; 1.212357876867954E9 ; 6.073042251146226E9 ; 1.5821496329959106E11 ; 0.0
140 ; 4.319616134913294E7 ; 1.2124206369905686E9 ; 6.116292507106744E9 ; 1.59427321176459E11 ; 0.0
141 ; 4.315143947336386E7 ; 1.2124832820824046E9 ; 6.159488668455876E9 ; 1.606397418134496E11 ; 0.0
142 ; 4.3110467522845566E7 ; 1.2125458094262533E9 ; 6.20264010792924E9 ; 1.6185222509553198E11 ; 0.0
143 ; 4.3057788833093524E7 ; 1.2126082163452597E9 ; 6.2457505754520855E9 ; 1.6306477090495822E11 ; 0.0
144 ; 4.300665684250082E7 ; 1.2126705002018235E9 ; 6.288808364285179E9 ; 1.6427737912130347E11 ; 0.0
145 ; 4.29700234929329E7 ; 1.2127326583965445E9 ; 6.33181502112768E9 ; 1.6549004962150528E11 ; 0.0
146 ; 4.294608438745326E7 ; 1.2127946883672004E9 ; 6.374785044620613E9 ; 1.6670278227990182E11 ; 0.0
147 ; 4.291253279892397E7 ; 1.212856587587764E9 ; 6.417731129008066E9 ; 1.67915576968269E11 ; 0.0
148 ; 4.287500436679643E7 ; 1.2129183535674548E9 ; 6.46064366180699E9 ; 1.6912843355585678E11 ; 0.0
149 ; 4.284714509305136E7 ; 1.2129799838498223E9 ; 6.503518666173786E9 ; 1.7034135190942422E11 ; 0.0
150 ; 4.281180392512296E7 ; 1.2130414760118618E9 ; 6.546365811266837E9 ; 1.7155433189327405E11 ; 0.0
151 ; 4.278367645800762E7 ; 1.213102827663164E9 ; 6.58917761519196E9 ; 1.7276737336928592E11 ; 0.0
152 ; 4.2748662751757555E7 ; 1.2131640364450889E9 ; 6.631961291649968E9 ; 1.739804761969491E11 ; 0.0
153 ; 4.271448280595642E7 ; 1.2132251000299745E9 ; 6.674709954401726E9 ; 1.751936402333942E11 ; 0.0
154 ; 4.2679755422747366E7 ; 1.213286016120367E9 ; 6.717424437207683E9 ; 1.7640686533342416E11 ; 0.0
155 ; 4.2648498501733154E7 ; 1.213346782448282E9 ; 6.76010419263043E9 ; 1.7762015134954453E11 ; 0.0
156 ; 4.261701152040163E7 ; 1.2134073967744887E9 ; 6.802752691132163E9 ; 1.788334981319928E11 ; 0.0
157 ; 4.258284335918961E7 ; 1.2134678568878205E9 ; 6.845369702652565E9 ; 1.8004690552876727E11 ; 0.0
158 ; 4.254327583429323E7 ; 1.2135281606045067E9 ; 6.887952546011755E9 ; 1.812603733856551E11 ; 0.0
159 ; 4.251827872318007E7 ; 1.2135883057675295E9 ; 6.930495821846048E9 ; 1.8247390154625958E11 ; 0.0
160 ; 4.248224399901365E7 ; 1.2136482902460017E9 ; 6.973014100569228E9 ; 1.836874898520271E11 ; 0.0
161 ; 4.2445226347674526E7 ; 1.2137081119345646E9 ; 7.015496344568242E9 ; 1.849011381422731E11 ; 0.0
162 ; 4.240487904127377E7 ; 1.2137677687528093E9 ; 7.057941570915916E9 ; 1.8611484625420767E11 ; 0.0
163 ; 4.237691590886469E7 ; 1.2138272586447134E9 ; 7.1003464499571905E9 ; 1.8732861402296048E11 ; 0.0
164 ; 4.2345837822557144E7 ; 1.2138865795780993E9 ; 7.1427233658660555E9 ; 1.885424412816052E11 ; 0.0
165 ; 4.230682685180949E7 ; 1.213945729544111E9 ; 7.185069203688613E9 ; 1.897563278611833E11 ; 0.0
166 ; 4.227442539957443E7 ; 1.214004706556707E9 ; 7.227376030540422E9 ; 1.909702735907274E11 ; 0.0
167 ; 4.2241360620982684E7 ; 1.2140635086521685E9 ; 7.269650455939997E9 ; 1.921842782972841E11 ; 0.0
168 ; 4.219825824836469E7 ; 1.2141221338886304E9 ; 7.31189181656098E9 ; 1.9339834180593625E11 ; 0.0
169 ; 4.21609453135083E7 ; 1.2141805803456185E9 ; 7.354090074809344E9 ; 1.946124639398249E11 ; 0.0
170 ; 4.21281763118731E7 ; 1.214238846123611E9 ; 7.396251020122852E9 ; 1.958266445201705E11 ; 0.0
171 ; 4.209861573289638E7 ; 1.214296929343607E9 ; 7.438379196434726E9 ; 1.970408833662941E11 ; 0.0
172 ; 4.206118437015865E7 ; 1.2143548281467156E9 ; 7.480477812167623E9 ; 1.982551802956377E11 ; 0.0
173 ; 4.202723045149794E7 ; 1.214412540693753E9 ; 7.522538996537781E9 ; 1.9946953512378442E11 ; 0.0
174 ; 4.2006407073689714E7 ; 1.214470065164856E9 ; 7.564566226989279E9 ; 2.0068394766447818E11 ; 0.0
175 ; 4.199077646612346E7 ; 1.2145273997591085E9 ; 7.606572634062968E9 ; 2.0189841772964304E11 ; 0.0
176 ; 4.19611969202472E7 ; 1.2145845426941762E9 ; 7.648563410529092E9 ; 2.0311294512940213E11 ; 0.0
177 ; 4.193702102526788E7 ; 1.2146414922059581E9 ; 7.690524607449339E9 ; 2.043275296720963E11 ; 0.0
178 ; 4.1912886064272754E7 ; 1.2146982465482469E9 ; 7.7324616284746065E9 ; 2.0554217116430228E11 ; 0.0
179 ; 4.189344881964719E7 ; 1.2147548039923987E9 ; 7.774374514538879E9 ; 2.0675686941085052E11 ; 0.0
180 ; 4.187111232941134E7 ; 1.2148111628270173E9 ; 7.816267963358526E9 ; 2.0797162421484293E11 ; 0.0
181 ; 4.184998428406143E7 ; 1.214867321357645E9 ; 7.858139075687938E9 ; 2.0918643537766995E11 ; 0.0
182 ; 4.1830539406060815E7 ; 1.2149232779064648E9 ; 7.899989059971999E9 ; 2.104013026990276E11 ; 0.0
183 ; 4.1807452304734215E7 ; 1.214979030812013E9 ; 7.94181959937806E9 ; 2.1161622597693405E11 ; 0.0
184 ; 4.1786501659761764E7 ; 1.2150345784288983E9 ; 7.983627051682795E9 ; 2.1283120500774606E11 ; 0.0
185 ; 4.17628663604487E7 ; 1.2150899191275334E9 ; 8.025413553342556E9 ; 2.1404623958617496E11 ; 0.0
186 ; 4.1736364137813084E7 ; 1.2151450512938719E9 ; 8.067176419703005E9 ; 2.152613295053025E11 ; 0.0
187 ; 4.172054440047893E7 ; 1.2151999733291554E9 ; 8.108912783840817E9 ; 2.1647647455659637E11 ; 0.0
188 ; 4.17000271914555E7 ; 1.2152546836496682E9 ; 8.150633328241297E9 ; 2.1769167452992554E11 ; 0.0
189 ; 4.167313202660329E7 ; 1.2153091806864982E9 ; 8.192333355432753E9 ; 2.189069292135752E11 ; 0.0
190 ; 4.1648692847599424E7 ; 1.2153634628853087E9 ; 8.234006487459356E9 ; 2.201222383942617E11 ; 0.0
191 ; 4.163107996048065E7 ; 1.2154175287061143E9 ; 8.275655180306955E9 ; 2.21337601857147E11 ; 0.0
192 ; 4.160927233378977E7 ; 1.2154713766230638E9 ; 8.317286260267436E9 ; 2.2255301938585312E11 ; 0.0
193 ; 4.158419697127403E7 ; 1.2155250051242328E9 ; 8.358895532601226E9 ; 2.237684907624762E11 ; 0.0
194 ; 4.156042452756376E7 ; 1.21557841271142E9 ; 8.4004797295725E9 ; 2.2498401576760043E11 ; 0.0
195 ; 4.154202499484673E7 ; 1.2156315978999507E9 ; 8.442040154100064E9 ; 2.2619959418031186E11 ; 0.0
196 ; 4.1516198406396344E7 ; 1.2156845592184858E9 ; 8.483582179094911E9 ; 2.2741522577821182E11 ; 0.0
