CSV File for the Network on Day 231
1 - Minute m 
2 - Power Consumed at minute m 
3 - Power Produced at minute m 
4 - Energy Consumed since the beginning of the day 
5 - Energy Produced since the beginning of the day 
6 - Energy Lost since the beginning of the day 
 
0 ; 3527323.656667284 ; 6.317187602623627E8 ; 0.0 ; 0.0 ; 0.0
1 ; 3559413.990199227 ; 6.325953216289747E8 ; 3527323.656667284 ; 6.317187602623627E8 ; 0.0
2 ; 3609016.3808421604 ; 6.353257692237446E8 ; 7086737.646866512 ; 1.2643140818913374E9 ; 0.0
3 ; 3663213.0916460147 ; 6.399105814127121E8 ; 1.0695754027708672E7 ; 1.899639851115082E9 ; 0.0
4 ; 3717255.921368693 ; 6.463503576394696E8 ; 1.4358967119354688E7 ; 2.539550432527794E9 ; 0.0
5 ; 3793266.071099026 ; 6.546458371358819E8 ; 1.807622304072338E7 ; 3.1859007901672635E9 ; 0.0
6 ; 3895950.263397053 ; 6.647979047509152E8 ; 2.1869489111822404E7 ; 3.8405466273031454E9 ; 0.0
7 ; 4033010.5920964405 ; 6.768075673390651E8 ; 2.5765439375219457E7 ; 4.505344532054061E9 ; 0.0
8 ; 4223567.66403092 ; 6.906758798252697E8 ; 2.9798449967315897E7 ; 5.182152099393126E9 ; 0.0
9 ; 4504369.664812493 ; 7.064038079388523E8 ; 3.4022017631346814E7 ; 5.872827979218395E9 ; 0.0
10 ; 4945028.033816325 ; 7.239920449895533E8 ; 3.8526387296159305E7 ; 6.579231787157248E9 ; 0.0
11 ; 5636370.644506072 ; 7.434408449758893E8 ; 4.347141532997563E7 ; 7.303223832146801E9 ; 0.0
12 ; 6758024.844679602 ; 7.64749953899344E8 ; 4.91077859744817E7 ; 8.04666467712269E9 ; 0.0
13 ; 7821462.760799883 ; 7.87918678450176E8 ; 5.58658108191613E7 ; 8.811414631022034E9 ; 0.0
14 ; 7947965.279793058 ; 8.129460528990635E8 ; 6.368727357996119E7 ; 9.59933330947221E9 ; 0.0
15 ; 8002972.7660321575 ; 8.398310223210671E8 ; 7.163523885975425E7 ; 1.0412279362371273E10 ; 0.0
16 ; 8063074.839050986 ; 8.685725798616918E8 ; 7.963821162578641E7 ; 1.125211038469234E10 ; 0.0
17 ; 8112074.196227003 ; 8.991698406719713E8 ; 8.77012864648374E7 ; 1.2120682964554033E10 ; 0.0
18 ; 8167001.084670672 ; 9.316220655200409E8 ; 9.58133606610644E7 ; 1.3019852805226006E10 ; 0.0
19 ; 8225483.32605708 ; 9.65928654962308E8 ; 1.0398036174573508E8 ; 1.3951474870746046E10 ; 0.0
20 ; 8276954.164277105 ; 1.0020891306327329E9 ; 1.1220584507179216E8 ; 1.4917403525708355E10 ; 0.0
21 ; 8340014.808827669 ; 1.0401031134310288E9 ; 1.2048279923606926E8 ; 1.5919492656341087E10 ; 0.0
22 ; 8397362.917722821 ; 1.0799703032455826E9 ; 1.2882281404489693E8 ; 1.6959595769772116E10 ; 0.0
23 ; 8458311.845714629 ; 1.1216904618602786E9 ; 1.3722017696261975E8 ; 1.80395660730177E10 ; 0.0
24 ; 8507620.549930288 ; 1.1652633992433484E9 ; 1.4567848880833438E8 ; 1.916125653487798E10 ; 0.0
25 ; 8561967.459869256 ; 1.2028172082215939E9 ; 1.5418610935826465E8 ; 2.0326519934121326E10 ; 0.0
26 ; 8622534.504010873 ; 1.2028730524369574E9 ; 1.6274807681813392E8 ; 2.152933714234292E10 ; 0.0
27 ; 8675546.99745874 ; 1.202929447154776E9 ; 1.713706113221448E8 ; 2.2732210194779877E10 ; 0.0
28 ; 8733406.68659732 ; 1.2029863098819327E9 ; 1.8004615831960353E8 ; 2.3935139641934654E10 ; 0.0
29 ; 8786607.20591579 ; 1.2030435723887722E9 ; 1.8877956500620085E8 ; 2.5138125951816586E10 ; 0.0
30 ; 8844414.92758398 ; 1.2031011778240237E9 ; 1.9756617221211663E8 ; 2.6341169524205357E10 ; 0.0
31 ; 8894439.925744217 ; 1.2031590784757724E9 ; 2.0641058713970062E8 ; 2.754427070202938E10 ; 0.0
32 ; 8948406.691313166 ; 1.2032172340233088E9 ; 2.1530502706544483E8 ; 2.8747429780505154E10 ; 0.0
33 ; 8996470.454578847 ; 1.2032756101635008E9 ; 2.24253433756758E8 ; 2.995064701452846E10 ; 0.0
34 ; 9048007.637075301 ; 1.2033341775244021E9 ; 2.3324990421133685E8 ; 3.1153922624691963E10 ; 0.0
35 ; 9096818.164966008 ; 1.2033929108004017E9 ; 2.4229791184841216E8 ; 3.2357256802216366E10 ; 0.0
36 ; 9146303.983835936 ; 1.2034517880593033E9 ; 2.5139473001337817E8 ; 3.356064971301677E10 ; 0.0
37 ; 9190027.612022359 ; 1.2035107901836538E9 ; 2.605410339972141E8 ; 3.476410150107607E10 ; 0.0
38 ; 9240098.87971159 ; 1.2035699004175525E9 ; 2.697310616092365E8 ; 3.596761229125973E10 ; 0.0
39 ; 9280009.855588522 ; 1.2036291039968574E9 ; 2.7897116048894805E8 ; 3.717118219167728E10 ; 0.0
40 ; 9324833.510268439 ; 1.2036883878457255E9 ; 2.8825117034453654E8 ; 3.837481129567413E10 ; 0.0
41 ; 9355932.26673127 ; 1.2037477403262248E9 ; 2.97576003854805E8 ; 3.957849968351986E10 ; 0.0
42 ; 9397084.65652885 ; 1.2038071510306597E9 ; 3.0693193612153625E8 ; 4.0782247423846085E10 ; 0.0
43 ; 9438408.925245857 ; 1.2038666106084554E9 ; 3.163290207780651E8 ; 4.198605457487675E10 ; 0.0
44 ; 9470081.31279806 ; 1.2039261106211581E9 ; 3.2576742970331097E8 ; 4.31899211854852E10 ; 0.0
45 ; 9507133.65580089 ; 1.203985643420429E9 ; 3.3523751101610905E8 ; 4.439384729610635E10 ; 0.0
46 ; 9534883.009260716 ; 1.2040452020449336E9 ; 3.447446446719099E8 ; 4.559783293952678E10 ; 0.0
47 ; 9564358.572557474 ; 1.2041047801328325E9 ; 3.5427952768117064E8 ; 4.680187814157172E10 ; 0.0
48 ; 9600433.191458631 ; 1.2041643718472157E9 ; 3.638438862537281E8 ; 4.800598292170455E10 ; 0.0
49 ; 9625668.08729902 ; 1.2042239718123214E9 ; 3.7344431944518673E8 ; 4.9210147293551765E10 ; 0.0
50 ; 9639990.669162983 ; 1.204283575058779E9 ; 3.830699875324857E8 ; 5.041437126536409E10 ; 0.0
51 ; 9670035.941907717 ; 1.2043431769764297E9 ; 3.927099782016487E8 ; 5.161865484042287E10 ; 0.0
52 ; 9689996.798121484 ; 1.2044027732735445E9 ; 4.023800141435564E8 ; 5.28229980173993E10 ; 0.0
53 ; 9716571.80350098 ; 1.204462359941454E9 ; 4.120700109416779E8 ; 5.4027400790672844E10 ; 0.0
54 ; 9729872.356546924 ; 1.2045219332237768E9 ; 4.2178658274517894E8 ; 5.5231863150614296E10 ; 0.0
55 ; 9763737.326761935 ; 1.2045814895895693E9 ; 4.315164551017259E8 ; 5.643638508383807E10 ; 0.0
56 ; 9778318.82826167 ; 1.2046410257098308E9 ; 4.4128019242848784E8 ; 5.764096657342764E10 ; 0.0
57 ; 9797257.752148382 ; 1.2047005384368863E9 ; 4.510585112567495E8 ; 5.8845607599137474E10 ; 0.0
58 ; 9821214.412593842 ; 1.2047600247862487E9 ; 4.608557690088979E8 ; 6.005030813757436E10 ; 0.0
59 ; 9849321.640365358 ; 1.204819481920618E9 ; 4.7067698342149174E8 ; 6.125506816236061E10 ; 0.0
60 ; 9865343.254868831 ; 1.204878907135739E9 ; 4.805263050618571E8 ; 6.245988764428123E10 ; 0.0
61 ; 9886420.213556584 ; 1.2049382978478599E9 ; 4.903916483167259E8 ; 6.366476655141697E10 ; 0.0
62 ; 9909421.624779737 ; 1.2049976515825984E9 ; 5.002780685302825E8 ; 6.486970484926483E10 ; 0.0
63 ; 9921176.099100718 ; 1.205056965965027E9 ; 5.1018749015506226E8 ; 6.607470250084743E10 ; 0.0
64 ; 9945752.68958412 ; 1.2051162387108285E9 ; 5.2010866625416297E8 ; 6.7279759466812454E10 ; 0.0
65 ; 9966130.566455152 ; 1.2051754676183898E9 ; 5.300544189437471E8 ; 6.8484875705523285E10 ; 0.0
66 ; 9978514.350971848 ; 1.2052346505617218E9 ; 5.400205495102023E8 ; 6.969005117314168E10 ; 0.0
67 ; 9998613.318891544 ; 1.2052937854841042E9 ; 5.499990638611741E8 ; 7.08952858237034E10 ; 0.0
68 ; 1.0020023759524304E7 ; 1.2053528703923733E9 ; 5.599976771800656E8 ; 7.21005796091875E10 ; 0.0
69 ; 1.0034405787102237E7 ; 1.2054119033517797E9 ; 5.7001770093959E8 ; 7.330593247957988E10 ; 0.0
70 ; 1.005086516869429E7 ; 1.2054708824813447E9 ; 5.800521067266922E8 ; 7.451134438293166E10 ; 0.0
71 ; 1.0072394868495934E7 ; 1.2055298059496694E9 ; 5.901029718953865E8 ; 7.5716815265413E10 ; 0.0
72 ; 1.008543265485337E7 ; 1.205588671971139E9 ; 6.001753667638824E8 ; 7.692234507136267E10 ; 0.0
73 ; 1.0103428886620037E7 ; 1.205647478802483E9 ; 6.102607994187357E8 ; 7.812793374333382E10 ; 0.0
74 ; 1.0118494580937576E7 ; 1.205706224739654E9 ; 6.203642283053558E8 ; 7.93335812221363E10 ; 0.0
75 ; 1.012978595312059E7 ; 1.205764908114988E9 ; 6.304827228862934E8 ; 8.053928744687596E10 ; 0.0
76 ; 1.0152113456557475E7 ; 1.2058235272946224E9 ; 6.40612508839414E8 ; 8.174505235499095E10 ; 0.0
77 ; 1.016018418589021E7 ; 1.205882080676139E9 ; 6.507646222959715E8 ; 8.295087588228557E10 ; 0.0
78 ; 1.017166839336725E7 ; 1.2059405666864164E9 ; 6.609248064818617E8 ; 8.41567579629617E10 ; 0.0
79 ; 1.0169755843517493E7 ; 1.2059989837796648E9 ; 6.71096474875229E8 ; 8.536269852964812E10 ; 0.0
80 ; 1.0173171637592936E7 ; 1.2060573304356284E9 ; 6.812662307187465E8 ; 8.656869751342778E10 ; 0.0
81 ; 1.0171735051487302E7 ; 1.2061156051579401E9 ; 6.914394023563395E8 ; 8.77747548438634E10 ; 0.0
82 ; 1.017417995545848E7 ; 1.2061738064726117E9 ; 7.016111374078268E8 ; 8.898087044902135E10 ; 0.0
83 ; 1.0176171322111476E7 ; 1.2062319329266467E9 ; 7.117853173632853E8 ; 9.018704425549396E10 ; 0.0
84 ; 1.0167800004501896E7 ; 1.2062899830867677E9 ; 7.219614886853968E8 ; 9.139327618842061E10 ; 0.0
85 ; 1.0173766913522609E7 ; 1.2063479555382438E9 ; 7.321292886898987E8 ; 9.259956617150737E10 ; 0.0
86 ; 1.0175481114241458E7 ; 1.206405848883812E9 ; 7.423030556034213E8 ; 9.380591412704561E10 ; 0.0
87 ; 1.018360364871598E7 ; 1.206463661742682E9 ; 7.524785367176628E8 ; 9.501231997592941E10 ; 0.0
88 ; 1.0178810266615313E7 ; 1.206521392749618E9 ; 7.626621403663788E8 ; 9.621878363767209E10 ; 0.0
89 ; 1.017175313303487E7 ; 1.2065790405540924E9 ; 7.72840950632994E8 ; 9.74253050304217E10 ; 0.0
90 ; 1.017642943237693E7 ; 1.2066366038195002E9 ; 7.830127037660289E8 ; 9.86318840709758E10 ; 0.0
91 ; 1.017062233183617E7 ; 1.2066940812224379E9 ; 7.931891331984059E8 ; 9.98385206747953E10 ; 0.0
92 ; 1.0166938417629788E7 ; 1.206751471452029E9 ; 8.033597555302421E8 ; 1.0104521475601775E11 ; 0.0
93 ; 1.0172704615707355E7 ; 1.2068087732093048E9 ; 8.135266939478719E8 ; 1.0225196622746977E11 ; 0.0
94 ; 1.0158652995002594E7 ; 1.2068659852066278E9 ; 8.236993985635793E8 ; 1.0345877500067908E11 ; 0.0
95 ; 1.0163836345068624E7 ; 1.2069231061671565E9 ; 8.33858051558582E8 ; 1.0466564098588571E11 ; 0.0
96 ; 1.0163466162727008E7 ; 1.2069801348243496E9 ; 8.440218879036505E8 ; 1.0587256409205287E11 ; 0.0
97 ; 1.0151874943888579E7 ; 1.2070370699215038E9 ; 8.541853540663775E8 ; 1.0707954422687723E11 ; 0.0
98 ; 1.0154396968383275E7 ; 1.2070939102113276E9 ; 8.643372290102661E8 ; 1.0828658129679874E11 ; 0.0
99 ; 1.014570533646832E7 ; 1.2071506544555392E9 ; 8.744916259786494E8 ; 1.0949367520701007E11 ; 0.0
100 ; 1.0151729742821697E7 ; 1.2072073014244986E9 ; 8.846373313151177E8 ; 1.107008258614656E11 ; 0.0
101 ; 1.0136974245284867E7 ; 1.2072638498968592E9 ; 8.947890610579394E8 ; 1.119080331628901E11 ; 0.0
102 ; 1.0134224965019653E7 ; 1.207320298659247E9 ; 9.049260353032243E8 ; 1.1311529701278697E11 ; 0.0
103 ; 1.0129766860247308E7 ; 1.2073766465059614E9 ; 9.15060260268244E8 ; 1.1432261731144621E11 ; 0.0
104 ; 1.0125899686115393E7 ; 1.2074328922386932E9 ; 9.251900271284913E8 ; 1.1552999395795218E11 ; 0.0
105 ; 1.0121405022511778E7 ; 1.207489034666265E9 ; 9.353159268146067E8 ; 1.1673742685019087E11 ; 0.0
106 ; 1.0123320661809623E7 ; 1.2075450726043868E9 ; 9.454373318371184E8 ; 1.1794491588485713E11 ; 0.0
107 ; 1.0109976546493532E7 ; 1.207601004875428E9 ; 9.555606524989281E8 ; 1.1915246095746152E11 ; 0.0
108 ; 1.0101293540958142E7 ; 1.2076568303082051E9 ; 9.656706290454216E8 ; 1.2036006196233694E11 ; 0.0
109 ; 1.0091539449994463E7 ; 1.2077125477377837E9 ; 9.757719225863798E8 ; 1.2156771879264516E11 ; 0.0
110 ; 1.0095769853084894E7 ; 1.2077681560052915E9 ; 9.858634620363742E8 ; 1.2277543134038293E11 ; 0.0
111 ; 1.0082525449626165E7 ; 1.2078236539577456E9 ; 9.959592318894591E8 ; 1.2398319949638823E11 ; 0.0
112 ; 1.0073112664742598E7 ; 1.2078790404478893E9 ; 1.0060417573390853E9 ; 1.2519102315034598E11 ; 0.0
113 ; 1.0066612493622173E7 ; 1.2079343143340418E9 ; 1.0161148700038279E9 ; 1.2639890219079387E11 ; 0.0
114 ; 1.0058294918868922E7 ; 1.2079894744799542E9 ; 1.0261814824974501E9 ; 1.2760683650512791E11 ; 0.0
115 ; 1.0053597682003219E7 ; 1.2080445197546787E9 ; 1.036239777416319E9 ; 1.2881482597960786E11 ; 0.0
116 ; 1.0040705221145742E7 ; 1.208099449032442E9 ; 1.0462933750983223E9 ; 1.3002287049936255E11 ; 0.0
117 ; 1.0028819610946598E7 ; 1.2081542611925309E9 ; 1.056334080319468E9 ; 1.3123096994839499E11 ; 0.0
118 ; 1.0020500549431305E7 ; 1.208208955119182E9 ; 1.0663628999304147E9 ; 1.3243912420958752E11 ; 0.0
119 ; 1.0010771886550568E7 ; 1.2082635297014813E9 ; 1.076383400479846E9 ; 1.3364733316470671E11 ; 0.0
120 ; 1.00066136824415E7 ; 1.208317983833267E9 ; 1.0863941723663967E9 ; 1.3485559669440819E11 ; 0.0
121 ; 9992842.766211666 ; 1.2083723164130418E9 ; 1.0964007860488381E9 ; 1.3606391467824146E11 ; 0.0
122 ; 9986986.493125279 ; 1.2084265263438897E9 ; 1.10639362881505E9 ; 1.372722869946545E11 ; 0.0
123 ; 9968478.103538034 ; 1.2084806125333962E9 ; 1.116380615308175E9 ; 1.3848071352099838E11 ; 0.0
124 ; 9964730.338042758 ; 1.2085345738935764E9 ; 1.1263490934117131E9 ; 1.3968919413353177E11 ; 0.0
125 ; 9947301.027407603 ; 1.2085884093408074E9 ; 1.1363138237497559E9 ; 1.4089772870742535E11 ; 0.0
126 ; 9936334.079233993 ; 1.208642117795764E9 ; 1.1462611247771635E9 ; 1.4210631711676617E11 ; 0.0
127 ; 9925277.14421101 ; 1.2086956981833584E9 ; 1.1561974588563974E9 ; 1.4331495923456195E11 ; 0.0
128 ; 9919119.576215189 ; 1.2087491494326856E9 ; 1.1661227360006084E9 ; 1.445236549327453E11 ; 0.0
129 ; 9900116.099950578 ; 1.2088024704769714E9 ; 1.1760418555768237E9 ; 1.4573240408217798E11 ; 0.0
130 ; 9881155.885738287 ; 1.2088556602535238E9 ; 1.1859419716767743E9 ; 1.4694120655265494E11 ; 0.0
131 ; 9851468.436677432 ; 1.2089087177036877E9 ; 1.1958231275625126E9 ; 1.4815006221290845E11 ; 0.0
132 ; 9827727.898171827 ; 1.2089616417728026E9 ; 1.20567459599919E9 ; 1.4935897093061212E11 ; 0.0
133 ; 9798797.823410477 ; 1.2090144314101658E9 ; 1.215502323897362E9 ; 1.5056793257238492E11 ; 0.0
134 ; 9782181.612379592 ; 1.2090670855689926E9 ; 1.2253011217207725E9 ; 1.5177694700379507E11 ; 0.0
135 ; 9750745.556340903 ; 1.2091196032063856E9 ; 1.235083303333152E9 ; 1.5298601408936407E11 ; 0.0
136 ; 9724407.580571173 ; 1.2091719832833016E9 ; 1.244834048889493E9 ; 1.5419513369257047E11 ; 0.0
137 ; 9690505.436949398 ; 1.2092242247645235E9 ; 1.2545584564700642E9 ; 1.5540430567585376E11 ; 0.0
138 ; 9672997.953409247 ; 1.2092763266186335E9 ; 1.2642489619070137E9 ; 1.566135299006183E11 ; 0.0
139 ; 9639854.492337069 ; 1.209328287817988E9 ; 1.2739219598604228E9 ; 1.578228062272369E11 ; 0.0
140 ; 9609290.93442072 ; 1.2093801073386955E9 ; 1.2835618143527598E9 ; 1.590321345150549E11 ; 0.0
141 ; 9575647.783256263 ; 1.209431784160595E9 ; 1.2931711052871807E9 ; 1.602415146223936E11 ; 0.0
142 ; 9552963.080843776 ; 1.2094833172672377E9 ; 1.302746753070437E9 ; 1.6145094640655417E11 ; 0.0
143 ; 9527969.0732513 ; 1.2095347056458688E9 ; 1.3122997161512806E9 ; 1.626604297238214E11 ; 0.0
144 ; 9493592.197707053 ; 1.209585948287412E9 ; 1.321827685224532E9 ; 1.638699644294673E11 ; 0.0
145 ; 9477880.805275276 ; 1.2096370441864548E9 ; 1.3313212774222388E9 ; 1.650795503777547E11 ; 0.0
146 ; 9464560.205306856 ; 1.2096879923412356E9 ; 1.340799158227514E9 ; 1.6628918742194116E11 ; 0.0
147 ; 9452325.068384465 ; 1.2097387917536325E9 ; 1.3502637184328208E9 ; 1.674988754142824E11 ; 0.0
148 ; 9443723.972722722 ; 1.209789441429151E9 ; 1.3597160435012052E9 ; 1.6870861420603604E11 ; 0.0
149 ; 9428226.734029526 ; 1.2098399403769178E9 ; 1.369159767473928E9 ; 1.6991840364746518E11 ; 0.0
150 ; 9412375.931819445 ; 1.2098902876096694E9 ; 1.3785879942079575E9 ; 1.711282435878421E11 ; 0.0
151 ; 9405233.013508402 ; 1.2099404821437476E9 ; 1.388000370139777E9 ; 1.7233813387545178E11 ; 0.0
152 ; 9389423.984091045 ; 1.2099905229990916E9 ; 1.3974056031532853E9 ; 1.7354807435759552E11 ; 0.0
153 ; 9375920.298358921 ; 1.2100404091992342E9 ; 1.4067950271373763E9 ; 1.747580648805946E11 ; 0.0
154 ; 9356901.471917855 ; 1.2100901397712972E9 ; 1.4161709474357352E9 ; 1.7596810528979385E11 ; 0.0
155 ; 9349870.87190655 ; 1.210139713745987E9 ; 1.425527848907653E9 ; 1.7717819542956516E11 ; 0.0
156 ; 9333839.064666675 ; 1.2101891301575947E9 ; 1.4348777197795596E9 ; 1.7838833514331116E11 ; 0.0
157 ; 9317057.43277356 ; 1.210238388043991E9 ; 1.4442115588442264E9 ; 1.7959852427346875E11 ; 0.0
158 ; 9302616.149296777 ; 1.2102874864466288E9 ; 1.453528616277E9 ; 1.8080876266151276E11 ; 0.0
159 ; 9289248.469498064 ; 1.2103364244105394E9 ; 1.4628312324262967E9 ; 1.8201905014795938E11 ; 0.0
160 ; 9274521.323196847 ; 1.2103852009843357E9 ; 1.4721204808957949E9 ; 1.8322938657236993E11 ; 0.0
161 ; 9270337.246262698 ; 1.2104338152202117E9 ; 1.4813950022189918E9 ; 1.8443977177335428E11 ; 0.0
162 ; 9246775.18185156 ; 1.2104822661739445E9 ; 1.4906653394652545E9 ; 1.856502055885745E11 ; 0.0
163 ; 9240392.49297808 ; 1.2105305529048967E9 ; 1.4999121146471062E9 ; 1.8686068785474844E11 ; 0.0
164 ; 9222491.072723405 ; 1.2105786744760187E9 ; 1.5091525071400843E9 ; 1.8807121840765335E11 ; 0.0
165 ; 9212894.492479375 ; 1.2106266299538524E9 ; 1.5183749982128077E9 ; 1.8928179708212936E11 ; 0.0
166 ; 9197298.990791634 ; 1.2106744184085348E9 ; 1.527587892705287E9 ; 1.9049242371208322E11 ; 0.0
167 ; 9182142.805829788 ; 1.2107220389138014E9 ; 1.5367851916960785E9 ; 1.9170309813049176E11 ; 0.0
168 ; 9162773.6853091 ; 1.2107694905469923E9 ; 1.5459673345019083E9 ; 1.9291382016940555E11 ; 0.0
169 ; 9143874.600979188 ; 1.2108167723890564E9 ; 1.5551301081872175E9 ; 1.9412458965995255E11 ; 0.0
170 ; 9138499.529904917 ; 1.2108638835245564E9 ; 1.5642739827881966E9 ; 1.953354064323416E11 ; 0.0
171 ; 9119169.699060539 ; 1.2109108230416756E9 ; 1.5734124823181014E9 ; 1.9654627031586618E11 ; 0.0
172 ; 9109931.213886837 ; 1.210957590032223E9 ; 1.5825316520171618E9 ; 1.9775718113890787E11 ; 0.0
173 ; 9097224.559198914 ; 1.2110041835916414E9 ; 1.5916415832310486E9 ; 1.989681387289401E11 ; 0.0
174 ; 9084644.547089897 ; 1.2110506028190126E9 ; 1.6007388077902474E9 ; 2.0017914291253174E11 ; 0.0
175 ; 9082082.629115513 ; 1.2110968468170652E9 ; 1.6098234523373373E9 ; 2.0139019351535074E11 ; 0.0
176 ; 9069150.38701447 ; 1.2111429146921825E9 ; 1.6189055349664528E9 ; 2.0260129036216782E11 ; 0.0
177 ; 9057052.166827586 ; 1.2111888055544088E9 ; 1.6279746853534672E9 ; 2.0381243327686E11 ; 0.0
178 ; 9046387.485860888 ; 1.2112345185174594E9 ; 1.637031737520295E9 ; 2.050236220824144E11 ; 0.0
179 ; 9040083.037925925 ; 1.211280052698727E9 ; 1.6460781250061557E9 ; 2.0623485660093185E11 ; 0.0
180 ; 9027508.580550684 ; 1.2113254072192907E9 ; 1.6551182080440817E9 ; 2.0744613665363058E11 ; 0.0
181 ; 9023115.68451101 ; 1.2113705812039254E9 ; 1.6641457166246324E9 ; 2.0865746206084988E11 ; 0.0
182 ; 9013656.293764932 ; 1.21141557378111E9 ; 1.6731688323091433E9 ; 2.098688326420538E11 ; 0.0
183 ; 8999627.890543036 ; 1.211460384083036E9 ; 1.6821824886029081E9 ; 2.110802482158349E11 ; 0.0
184 ; 8995057.285736594 ; 1.2115050112456176E9 ; 1.691182116493451E9 ; 2.1229170859991794E11 ; 0.0
185 ; 8975650.39439752 ; 1.211549454408501E9 ; 1.7001771737791877E9 ; 2.1350321361116354E11 ; 0.0
186 ; 8973493.151245123 ; 1.2115937127150733E9 ; 1.7091528241735852E9 ; 2.1471476306557205E11 ; 0.0
187 ; 8964074.53851346 ; 1.2116377853124733E9 ; 1.7181263173248303E9 ; 2.1592635677828714E11 ; 0.0
188 ; 8947318.793316524 ; 1.2116816713516006E9 ; 1.7270903918633437E9 ; 2.171379945635996E11 ; 0.0
189 ; 8945406.133695895 ; 1.2117253699871264E9 ; 1.7360377106566603E9 ; 2.183496762349512E11 ; 0.0
190 ; 8929094.183787929 ; 1.2117688803775017E9 ; 1.7449831167903562E9 ; 2.1956140160493832E11 ; 0.0
191 ; 8924266.342910731 ; 1.2118122016849709E9 ; 1.753912210974144E9 ; 2.2077317048531583E11 ; 0.0
192 ; 8916634.664546793 ; 1.2118553330755787E9 ; 1.7628364773170547E9 ; 2.219849826870008E11 ; 0.0
193 ; 8909265.305423498 ; 1.211898273719184E9 ; 1.7717531119816015E9 ; 2.231968380200764E11 ; 0.0
194 ; 8889000.776202697 ; 1.2119410227894669E9 ; 1.780662377287025E9 ; 2.2440873629379556E11 ; 0.0
195 ; 8883375.997978378 ; 1.211983579463943E9 ; 1.7895513780632277E9 ; 2.2562067731658502E11 ; 0.0
196 ; 8882380.875036022 ; 1.212025942923971E9 ; 1.798434754061206E9 ; 2.2683266089604895E11 ; 0.0
197 ; 8865668.670418112 ; 1.2120681123547661E9 ; 1.807317134936242E9 ; 2.2804468683897293E11 ; 0.0
198 ; 8863937.10965392 ; 1.2121100869454095E9 ; 1.8161828036066601E9 ; 2.292567549513277E11 ; 0.0
199 ; 8846246.25654414 ; 1.21215186588886E9 ; 1.825046740716314E9 ; 2.304688650382731E11 ; 0.0
