CSV File for the Network on Day 40
1 - Minute m 
2 - Power Consumed at minute m 
3 - Power Produced at minute m 
4 - Energy Consumed since the beginning of the day 
5 - Energy Produced since the beginning of the day 
6 - Energy Lost since the beginning of the day 
 
0 ; 3.8398836049154505E7 ; 6.328550255231663E8 ; 0.0 ; 0.0 ; 0.0
1 ; 3.8434142534260884E7 ; 6.337592947930348E8 ; 3.8398836049154505E7 ; 6.328550255231663E8 ; 0.0
2 ; 3.8474285779005684E7 ; 6.365174756808952E8 ; 7.683297858341539E7 ; 1.2666143203162012E9 ; 0.0
3 ; 3.852560749150805E7 ; 6.41129635938067E8 ; 1.1530726436242107E8 ; 1.9031317959970965E9 ; 0.0
4 ; 3.858067258208178E7 ; 6.475958384143729E8 ; 1.538328718539291E8 ; 2.5442614319351635E9 ; 0.0
5 ; 3.86553643007137E7 ; 6.559161400671827E8 ; 1.924135444360109E8 ; 3.1918572703495364E9 ; 0.0
6 ; 3.8744764384990476E7 ; 6.660905910043193E8 ; 2.3106890873672462E8 ; 3.847773410416719E9 ; 0.0
7 ; 3.887359104773055E7 ; 6.78119233594937E8 ; 2.6981367312171507E8 ; 4.513864001421039E9 ; 0.0
8 ; 3.9059099822935835E7 ; 6.920021016828377E8 ; 3.0868726416944563E8 ; 5.191983235015976E9 ; 0.0
9 ; 3.934614328633039E7 ; 7.077392199348822E8 ; 3.4774636399238145E8 ; 5.883985336698813E9 ; 0.0
10 ; 3.977988529085689E7 ; 7.253306033529903E8 ; 3.8709250727871186E8 ; 6.591724556633696E9 ; 0.0
11 ; 4.046281627488665E7 ; 7.447762569719193E8 ; 4.2687239256956875E8 ; 7.317055159986686E9 ; 0.0
12 ; 4.157222474169013E7 ; 7.660761757569119E8 ; 4.673352088444554E8 ; 8.061831416958605E9 ; 0.0
13 ; 4.263457100415675E7 ; 7.89230344706048E8 ; 5.089074335861455E8 ; 8.827907592715517E9 ; 0.0
14 ; 4.276362818458862E7 ; 8.142387391524675E8 ; 5.515420045903022E8 ; 9.617137937421566E9 ; 0.0
15 ; 4.2807486633749455E7 ; 8.411013252523677E8 ; 5.943056327748909E8 ; 1.0431376676574034E10 ; 0.0
16 ; 4.286468363902158E7 ; 8.698180606365951E8 ; 6.371131194086404E8 ; 1.12724780018264E10 ; 0.0
17 ; 4.291372802374036E7 ; 9.003888951973261E8 ; 6.79977803047662E8 ; 1.2142296062462996E10 ; 0.0
18 ; 4.296167623540768E7 ; 9.328137719771914E8 ; 7.228915310714024E8 ; 1.3042684957660322E10 ; 0.0
19 ; 4.300756377204876E7 ; 9.670926281263682E8 ; 7.658532073068101E8 ; 1.3975498729637514E10 ; 0.0
20 ; 4.306421886480049E7 ; 1.0032253958935364E9 ; 8.088607710788589E8 ; 1.4942591357763882E10 ; 0.0
21 ; 4.311110939716967E7 ; 1.0412120036189057E9 ; 8.519249899436593E8 ; 1.5945816753657417E10 ; 0.0
22 ; 4.316815163187589E7 ; 1.0810523767012768E9 ; 8.95036099340829E8 ; 1.6987028757276323E10 ; 0.0
23 ; 4.320920770773311E7 ; 1.1227464385158753E9 ; 9.382042509727049E8 ; 1.80680811339776E10 ; 0.0
24 ; 4.327156439289303E7 ; 1.166294111264929E9 ; 9.81413458680438E8 ; 1.9190827572493477E10 ; 0.0
25 ; 4.331133558771294E7 ; 1.2038235621373482E9 ; 1.0246850230733311E9 ; 2.0357121683758408E10 ; 0.0
26 ; 4.336226020013952E7 ; 1.203856000212915E9 ; 1.0679963586610441E9 ; 2.1560945245895756E10 ; 0.0
27 ; 4.341065634427319E7 ; 1.2038899642033975E9 ; 1.1113586188611836E9 ; 2.276480124610867E10 ; 0.0
28 ; 4.345519776329365E7 ; 1.2039253784341028E9 ; 1.1547692752054567E9 ; 2.3968691210312065E10 ; 0.0
29 ; 4.350280584195085E7 ; 1.203962169016755E9 ; 1.1982244729687505E9 ; 2.5172616588746166E10 ; 0.0
30 ; 4.35584393731872E7 ; 1.204000264180835E9 ; 1.2417272788107014E9 ; 2.637657875776292E10 ; 0.0
31 ; 4.3596964127201274E7 ; 1.2040395945297468E9 ; 1.2852857181838887E9 ; 2.7580579021943756E10 ; 0.0
32 ; 4.364832758956666E7 ; 1.2040800932295747E9 ; 1.32888268231109E9 ; 2.8784618616473503E10 ; 0.0
33 ; 4.368711905840002E7 ; 1.204121696138557E9 ; 1.3725310099006567E9 ; 2.998869870970308E10 ; 0.0
34 ; 4.372862405118161E7 ; 1.2041643418853655E9 ; 1.4162181289590566E9 ; 3.1192820405841637E10 ; 0.0
35 ; 4.376779327035481E7 ; 1.204207971903969E9 ; 1.4599467530102382E9 ; 3.2396984747727E10 ; 0.0
36 ; 4.381235746060016E7 ; 1.2042525304323401E9 ; 1.503714546280593E9 ; 3.360119271963097E10 ; 0.0
37 ; 4.3850997926432446E7 ; 1.2042979644816294E9 ; 1.547526903741193E9 ; 3.480544525006331E10 ; 0.0
38 ; 4.3881846951909475E7 ; 1.2043442237817216E9 ; 1.5913779016676254E9 ; 3.600974321454494E10 ; 0.0
39 ; 4.3915837676702246E7 ; 1.204391260708381E9 ; 1.635259748619535E9 ; 3.721408743832666E10 ; 0.0
40 ; 4.395298982467967E7 ; 1.204439030196476E9 ; 1.6791755862962372E9 ; 3.841847869903504E10 ; 0.0
41 ; 4.39869257795506E7 ; 1.2044874896431239E9 ; 1.7231285761209168E9 ; 3.962291772923152E10 ; 0.0
42 ; 4.40199739108709E7 ; 1.2045365988039737E9 ; 1.7671155019004674E9 ; 4.082740521887465E10 ; 0.0
43 ; 4.404400277264503E7 ; 1.2045863196852927E9 ; 1.8111354758113382E9 ; 4.203194181767862E10 ; 0.0
44 ; 4.4067298488377765E7 ; 1.2046366164340518E9 ; 1.8551794785839832E9 ; 4.3236528137363914E10 ; 0.0
45 ; 4.409500676464454E7 ; 1.204687455227752E9 ; 1.899246777072361E9 ; 4.4441164753797966E10 ; 0.0
46 ; 4.4113471096878156E7 ; 1.2047388041653907E9 ; 1.9433417838370056E9 ; 4.564585220902572E10 ; 0.0
47 ; 4.41331757114138E7 ; 1.2047906331606445E9 ; 1.9874552549338837E9 ; 4.685059101319111E10 ; 0.0
48 ; 4.415282946003406E7 ; 1.2048429138380826E9 ; 2.0315884306452975E9 ; 4.805538164635175E10 ; 0.0
49 ; 4.417367625090343E7 ; 1.2048956194330125E9 ; 2.0757412601053317E9 ; 4.9260224560189835E10 ; 0.0
50 ; 4.418231754015513E7 ; 1.204948724695372E9 ; 2.119914936356235E9 ; 5.046512017962285E10 ; 0.0
51 ; 4.419298479033927E7 ; 1.205002205797947E9 ; 2.16409725389639E9 ; 5.167006890431822E10 ; 0.0
52 ; 4.421144671372382E7 ; 1.2050560402490597E9 ; 2.2082902386867294E9 ; 5.2875071110116165E10 ; 0.0
53 ; 4.420951809441297E7 ; 1.2051102068097982E9 ; 2.252501685400453E9 ; 5.408012715036523E10 ; 0.0
54 ; 4.423057877674171E7 ; 1.2051646854157703E9 ; 2.296711203494866E9 ; 5.5285237357175026E10 ; 0.0
55 ; 4.4236449463538386E7 ; 1.20521945710331E9 ; 2.3409417822716074E9 ; 5.64904020425908E10 ; 0.0
56 ; 4.425142189874266E7 ; 1.2052745039400325E9 ; 2.3851782317351456E9 ; 5.769562149969411E10 ; 0.0
57 ; 4.4257951808721796E7 ; 1.2053298089595866E9 ; 2.4294296536338882E9 ; 5.890089600363414E10 ; 0.0
58 ; 4.4272097777921885E7 ; 1.2053853561004462E9 ; 2.4736876054426103E9 ; 6.010622581259373E10 ; 0.0
59 ; 4.427572411192225E7 ; 1.2054411301485543E9 ; 2.517959703220532E9 ; 6.1311611168694176E10 ; 0.0
60 ; 4.428745434663189E7 ; 1.20549711668364E9 ; 2.562235427332454E9 ; 6.251705229884273E10 ; 0.0
61 ; 4.429769682739952E7 ; 1.2055533020290043E9 ; 2.606522881679086E9 ; 6.372254941552637E10 ; 0.0
62 ; 4.4306125275174454E7 ; 1.2056096732045953E9 ; 2.650820578506486E9 ; 6.4928102717555374E10 ; 0.0
63 ; 4.430891561767262E7 ; 1.2056662178831677E9 ; 2.6951267037816606E9 ; 6.613371239075997E10 ; 0.0
64 ; 4.431752484405954E7 ; 1.205722924349353E9 ; 2.739435619399333E9 ; 6.733937860864314E10 ; 0.0
65 ; 4.432350353350348E7 ; 1.2057797814614513E9 ; 2.7837531442433925E9 ; 6.854510153299249E10 ; 0.0
66 ; 4.432649286359694E7 ; 1.2058367786157749E9 ; 2.828076647776896E9 ; 6.975088131445395E10 ; 0.0
67 ; 4.433310708277749E7 ; 1.205893905713379E9 ; 2.872403140640493E9 ; 7.095671809306972E10 ; 0.0
68 ; 4.433756552072639E7 ; 1.2059511531290174E9 ; 2.9167362477232704E9 ; 7.21626119987831E10 ; 0.0
69 ; 4.433969693186286E7 ; 1.2060085116821823E9 ; 2.9610738132439966E9 ; 7.336856315191211E10 ; 0.0
70 ; 4.434978264584185E7 ; 1.2060659726100767E9 ; 3.0054135101758595E9 ; 7.45745716635943E10 ; 0.0
71 ; 4.435117988975309E7 ; 1.2061235275423977E9 ; 3.0497632928217015E9 ; 7.578063763620438E10 ; 0.0
72 ; 4.43533573495718E7 ; 1.2061811684777994E9 ; 3.0941144727114544E9 ; 7.698676116374678E10 ; 0.0
73 ; 4.435630826419042E7 ; 1.2062388877619214E9 ; 3.138467830061026E9 ; 7.819294233222458E10 ; 0.0
74 ; 4.436486844311653E7 ; 1.206296678066875E9 ; 3.1828241383252163E9 ; 7.93991812199865E10 ; 0.0
75 ; 4.4359114738725215E7 ; 1.2063545323720853E9 ; 3.227189006768333E9 ; 8.060547789805338E10 ; 0.0
76 ; 4.4363723134200506E7 ; 1.206412443946394E9 ; 3.271548121507058E9 ; 8.181183243042546E10 ; 0.0
77 ; 4.4366662899127305E7 ; 1.2064704063313334E9 ; 3.3159118446412587E9 ; 8.301824487437186E10 ; 0.0
78 ; 4.434686993694113E7 ; 1.2065284133254943E9 ; 3.360278507540386E9 ; 8.422471528070319E10 ; 0.0
79 ; 4.434175677129713E7 ; 1.206586458969907E9 ; 3.4046253774773273E9 ; 8.543124369402869E10 ; 0.0
80 ; 4.432652027886942E7 ; 1.2066445375343668E9 ; 3.4489671342486243E9 ; 8.66378301529986E10 ; 0.0
81 ; 4.431423216647496E7 ; 1.2067026435046368E9 ; 3.493293654527494E9 ; 8.784447469053296E10 ; 0.0
82 ; 4.429987316517828E7 ; 1.2067607715704703E9 ; 3.537607886693969E9 ; 8.90511773340376E10 ; 0.0
83 ; 4.4290120121654525E7 ; 1.206818916614392E9 ; 3.581907759859147E9 ; 9.025793810560806E10 ; 0.0
84 ; 4.4268959053308606E7 ; 1.206877073701188E9 ; 3.6261978799808016E9 ; 9.146475702222246E10 ; 0.0
85 ; 4.425561601535542E7 ; 1.2069352380680563E9 ; 3.67046683903411E9 ; 9.267163409592365E10 ; 0.0
86 ; 4.423778701193826E7 ; 1.2069934051153684E9 ; 3.7147224550494657E9 ; 9.38785693339917E10 ; 0.0
87 ; 4.422367047640173E7 ; 1.2070515703980067E9 ; 3.7589602420614038E9 ; 9.508556273910707E10 ; 0.0
88 ; 4.420328616524287E7 ; 1.2071097296172342E9 ; 3.8031839125378056E9 ; 9.629261430950508E10 ; 0.0
89 ; 4.418886073706942E7 ; 1.207167878613061E9 ; 3.847387198703048E9 ; 9.749972403912231E10 ; 0.0
90 ; 4.416783212074208E7 ; 1.2072260133570738E9 ; 3.891576059440118E9 ; 9.870689191773538E10 ; 0.0
91 ; 4.414853132035692E7 ; 1.2072841299457E9 ; 3.9357438915608597E9 ; 9.991411793109245E10 ; 0.0
92 ; 4.413896576089787E7 ; 1.2073422245938752E9 ; 3.9798924228812165E9 ; 1.0112140206103815E11 ; 0.0
93 ; 4.4118809527976565E7 ; 1.207400293629086E9 ; 4.024031388642114E9 ; 1.0232874428563202E11 ; 0.0
94 ; 4.409432797567767E7 ; 1.2074583334857683E9 ; 4.0681501981700907E9 ; 1.0353614457926111E11 ; 0.0
95 ; 4.407351226437644E7 ; 1.2075163407000306E9 ; 4.112244526145768E9 ; 1.0474360291274687E11 ; 0.0
96 ; 4.405849916678772E7 ; 1.2075743119046888E9 ; 4.156318038410145E9 ; 1.059511192534469E11 ; 0.0
97 ; 4.403421956213387E7 ; 1.2076322438245876E9 ; 4.2003765375769324E9 ; 1.071586935653516E11 ; 0.0
98 ; 4.401353312937314E7 ; 1.2076901332721887E9 ; 4.244410757139066E9 ; 1.0836632580917618E11 ; 0.0
99 ; 4.400073387624544E7 ; 1.2077479771434143E9 ; 4.2884242902684393E9 ; 1.0957401594244836E11 ; 0.0
100 ; 4.397329540290554E7 ; 1.2078057724137244E9 ; 4.332425024144685E9 ; 1.1078176391959178E11 ; 0.0
101 ; 4.395154795790249E7 ; 1.2078635161344168E9 ; 4.37639831954759E9 ; 1.1198956969200551E11 ; 0.0
102 ; 4.392179228697715E7 ; 1.2079212054291317E9 ; 4.420349867505493E9 ; 1.1319743320813992E11 ; 0.0
103 ; 4.39038290844915E7 ; 1.2079788374905524E9 ; 4.46427165979247E9 ; 1.1440535441356906E11 ; 0.0
104 ; 4.388085602540015E7 ; 1.2080364095772889E9 ; 4.508175488876962E9 ; 1.1561333325105962E11 ; 0.0
105 ; 4.3855919748722665E7 ; 1.2080939190109284E9 ; 4.552056344902362E9 ; 1.168213696606369E11 ; 0.0
106 ; 4.383451090149552E7 ; 1.2081513631732516E9 ; 4.595912264651085E9 ; 1.1802946357964783E11 ; 0.0
107 ; 4.3807416160965204E7 ; 1.2082087395035944E9 ; 4.639746775552581E9 ; 1.1923761494282108E11 ; 0.0
108 ; 4.377594127443488E7 ; 1.2082660454963565E9 ; 4.683554191713546E9 ; 1.2044582368232468E11 ; 0.0
109 ; 4.3757690671281904E7 ; 1.208323278698636E9 ; 4.727330132987981E9 ; 1.2165408972782103E11 ; 0.0
110 ; 4.372584579037641E7 ; 1.208380436707998E9 ; 4.771087823659263E9 ; 1.2286241300651967E11 ; 0.0
111 ; 4.369881629477483E7 ; 1.2084375171703513E9 ; 4.814813669449639E9 ; 1.2407079344322766E11 ; 0.0
112 ; 4.367477727307595E7 ; 1.2084945177779436E9 ; 4.858512485744414E9 ; 1.2527923096039801E11 ; 0.0
113 ; 4.3657707885192215E7 ; 1.2085514362674565E9 ; 4.90218726301749E9 ; 1.2648772547817595E11 ; 0.0
114 ; 4.361645093607141E7 ; 1.2086082704182005E9 ; 4.945844970902682E9 ; 1.276962769144434E11 ; 0.0
115 ; 4.359051861743363E7 ; 1.2086650180504017E9 ; 4.989461421838754E9 ; 1.289048851848616E11 ; 0.0
116 ; 4.356010646422342E7 ; 1.2087216770235744E9 ; 5.033051940456187E9 ; 1.30113550202912E11 ; 0.0
117 ; 4.353529015321466E7 ; 1.2087782452349808E9 ; 5.076612046920411E9 ; 1.3132227187993558E11 ; 0.0
118 ; 4.34998553541137E7 ; 1.2088347206181617E9 ; 5.120147337073626E9 ; 1.3253105012517056E11 ; 0.0
119 ; 4.3468950247282706E7 ; 1.2088911011415446E9 ; 5.163647192427739E9 ; 1.3373988484578873E11 ; 0.0
120 ; 4.3443262457242556E7 ; 1.2089473848071203E9 ; 5.207116142675022E9 ; 1.3494877594693027E11 ; 0.0
121 ; 4.341312447231087E7 ; 1.209003569649183E9 ; 5.250559405132265E9 ; 1.3615772333173738E11 ; 0.0
122 ; 4.33810056341241E7 ; 1.2090596537331347E9 ; 5.293972529604576E9 ; 1.3736672690138657E11 ; 0.0
123 ; 4.335087018007658E7 ; 1.2091156351543458E9 ; 5.3373535352387E9 ; 1.385757865551197E11 ; 0.0
124 ; 4.331154876283688E7 ; 1.2091715120370698E9 ; 5.3807044054187765E9 ; 1.3978490219027405E11 ; 0.0
125 ; 4.32824409846157E7 ; 1.2092272825334153E9 ; 5.424015954181613E9 ; 1.4099407370231113E11 ; 0.0
126 ; 4.3248783327371255E7 ; 1.2092829448223603E9 ; 5.467298395166228E9 ; 1.4220330098484454E11 ; 0.0
127 ; 4.321491253757289E7 ; 1.2093384971088178E9 ; 5.5105471784936E9 ; 1.434125839296669E11 ; 0.0
128 ; 4.317808613889366E7 ; 1.2093939376227446E9 ; 5.553762091031173E9 ; 1.4462192242677573E11 ; 0.0
129 ; 4.314238710788247E7 ; 1.209449264618292E9 ; 5.596940177170067E9 ; 1.4583131636439847E11 ; 0.0
130 ; 4.310505284922953E7 ; 1.2095044763729942E9 ; 5.640082564277949E9 ; 1.4704076562901675E11 ; 0.0
131 ; 4.305186839729783E7 ; 1.209559571186998E9 ; 5.683187617127179E9 ; 1.4825027010538974E11 ; 0.0
132 ; 4.30043008630717E7 ; 1.2096145473823245E9 ; 5.726239485524477E9 ; 1.4945982967657675E11 ; 0.0
133 ; 4.295908176329075E7 ; 1.2096694033021667E9 ; 5.769243786387548E9 ; 1.5066944422395908E11 ; 0.0
134 ; 4.290547846184263E7 ; 1.2097241373102193E9 ; 5.812202868150839E9 ; 1.5187911362726123E11 ; 0.0
135 ; 4.285249645071018E7 ; 1.2097787477900372E9 ; 5.855108346612681E9 ; 1.5308883776457144E11 ; 0.0
136 ; 4.2806479050963596E7 ; 1.209833233144425E9 ; 5.897960843063392E9 ; 1.5429861651236148E11 ; 0.0
137 ; 4.275697710880646E7 ; 1.209887591794852E9 ; 5.940767322114355E9 ; 1.5550844974550592E11 ; 0.0
138 ; 4.270045109212953E7 ; 1.209941822180895E9 ; 5.983524299223162E9 ; 1.5671833733730078E11 ; 0.0
139 ; 4.265321346546361E7 ; 1.209995922759705E9 ; 6.026224750315291E9 ; 1.579282791594817E11 ; 0.0
140 ; 4.2597546391554356E7 ; 1.2100498920054975E9 ; 6.068877963780755E9 ; 1.591382750822414E11 ; 0.0
141 ; 4.254890706773745E7 ; 1.2101037284090655E9 ; 6.11147551017231E9 ; 1.603483249742469E11 ; 0.0
142 ; 4.249256915086041E7 ; 1.2101574304773135E9 ; 6.154024417240047E9 ; 1.6155842870265594E11 ; 0.0
143 ; 4.243765458951871E7 ; 1.2102109967328124E9 ; 6.196516986390908E9 ; 1.6276858613313327E11 ; 0.0
144 ; 4.2383795981064975E7 ; 1.2102644257133727E9 ; 6.238954640980427E9 ; 1.639787971298661E11 ; 0.0
145 ; 4.2350833611092016E7 ; 1.2103177159716368E9 ; 6.281338436961492E9 ; 1.6518906155557947E11 ; 0.0
146 ; 4.231197521198267E7 ; 1.2103708660746896E9 ; 6.323689270572583E9 ; 1.6639937927155112E11 ; 0.0
147 ; 4.227401711795847E7 ; 1.2104238746036837E9 ; 6.366001245784566E9 ; 1.676097501376258E11 ; 0.0
148 ; 4.223337063183092E7 ; 1.2104767401534822E9 ; 6.408275262902524E9 ; 1.688201740122295E11 ; 0.0
149 ; 4.2193631726678506E7 ; 1.2105294613323169E9 ; 6.450508633534355E9 ; 1.7003065075238297E11 ; 0.0
150 ; 4.2158353935767606E7 ; 1.2105820367614584E9 ; 6.492702265261034E9 ; 1.7124118021371527E11 ; 0.0
151 ; 4.211839849639215E7 ; 1.210634465074904E9 ; 6.534860619196801E9 ; 1.724517622504767E11 ; 0.0
152 ; 4.2074731646731794E7 ; 1.210686744919075E9 ; 6.576979017693193E9 ; 1.736623967155516E11 ; 0.0
153 ; 4.204103383813601E7 ; 1.2107388749525297E9 ; 6.619053749339925E9 ; 1.7487308346047067E11 ; 0.0
154 ; 4.200092248700235E7 ; 1.2107908538456848E9 ; 6.661094783178061E9 ; 1.760838223354232E11 ; 0.0
155 ; 4.196367780761499E7 ; 1.210842680280552E9 ; 6.703095705665063E9 ; 1.7729461318926886E11 ; 0.0
156 ; 4.191803900763397E7 ; 1.2108943529504828E9 ; 6.745059383472678E9 ; 1.785054558695494E11 ; 0.0
157 ; 4.188087023360045E7 ; 1.2109458705599265E9 ; 6.786977422480312E9 ; 1.7971635022249988E11 ; 0.0
158 ; 4.184351696125527E7 ; 1.2109972318241932E9 ; 6.828858292713913E9 ; 1.809272960930598E11 ; 0.0
159 ; 4.180130276968172E7 ; 1.211048435469233E9 ; 6.870701809675168E9 ; 1.82138293324884E11 ; 0.0
160 ; 4.175757645319951E7 ; 1.2110994802314196E9 ; 6.91250311244485E9 ; 1.8334934176035324E11 ; 0.0
161 ; 4.1720528855735645E7 ; 1.2111503648573425E9 ; 6.954260688898049E9 ; 1.8456044124058466E11 ; 0.0
162 ; 4.167995404357061E7 ; 1.2112010881036115E9 ; 6.995981217753785E9 ; 1.85771591605442E11 ; 0.0
163 ; 4.1635968608389616E7 ; 1.2112516487366655E9 ; 7.037661171797356E9 ; 1.869827926935456E11 ; 0.0
164 ; 4.159375242734502E7 ; 1.2113020455325894E9 ; 7.0792971404057455E9 ; 1.8819404434228226E11 ; 0.0
165 ; 4.155468236602316E7 ; 1.2113522772769403E9 ; 7.120890892833091E9 ; 1.8940534638781485E11 ; 0.0
166 ; 4.151523479156035E7 ; 1.2114023427645788E9 ; 7.162445575199114E9 ; 1.906166986650918E11 ; 0.0
167 ; 4.146946398499682E7 ; 1.211452240799507E9 ; 7.203960809990674E9 ; 1.9182810100785638E11 ; 0.0
168 ; 4.142826111722118E7 ; 1.2115019701947153E9 ; 7.245430273975671E9 ; 1.9303955324865588E11 ; 0.0
169 ; 4.1382535497379355E7 ; 1.2115515297720318E9 ; 7.286858535092892E9 ; 1.942510552188506E11 ; 0.0
170 ; 4.134257726903016E7 ; 1.2116009183619807E9 ; 7.328241070590271E9 ; 1.9546260674862262E11 ; 0.0
171 ; 4.130127281041193E7 ; 1.2116501348036437E9 ; 7.369583647859302E9 ; 1.966742076669846E11 ; 0.0
172 ; 4.126100534499266E7 ; 1.21169917794453E9 ; 7.410884920669714E9 ; 1.9788585780178824E11 ; 0.0
173 ; 4.121729533882839E7 ; 1.2117480466404476E9 ; 7.452145926014707E9 ; 1.9909755697973276E11 ; 0.0
174 ; 4.119086973037462E7 ; 1.2117967397553837E9 ; 7.493363221353535E9 ; 2.003093050263732E11 ; 0.0
175 ; 4.1167659299697645E7 ; 1.211845256161386E9 ; 7.534554091083909E9 ; 2.0152110176612857E11 ; 0.0
176 ; 4.11446339296245E7 ; 1.2118935947384522E9 ; 7.575721750383607E9 ; 2.0273294702228995E11 ; 0.0
177 ; 4.110990161616879E7 ; 1.2119417543744197E9 ; 7.616866384313231E9 ; 2.039448406170284E11 ; 0.0
178 ; 4.10888437601369E7 ; 1.2119897339648652E9 ; 7.6579762859294E9 ; 2.0515678237140283E11 ; 0.0
179 ; 4.106866067092836E7 ; 1.2120375324130015E9 ; 7.699065129689537E9 ; 2.063687721053677E11 ; 0.0
180 ; 4.104047618899162E7 ; 1.2120851486295855E9 ; 7.740133790360465E9 ; 2.075808096377807E11 ; 0.0
181 ; 4.101577142643715E7 ; 1.2121325815328226E9 ; 7.781174266549457E9 ; 2.0879289478641028E11 ; 0.0
182 ; 4.09867388439383E7 ; 1.2121798300482812E9 ; 7.822190037975894E9 ; 2.100050273679431E11 ; 0.0
183 ; 4.096372611545446E7 ; 1.2122268931088061E9 ; 7.863176776819832E9 ; 2.112172071979914E11 ; 0.0
184 ; 4.093147531974235E7 ; 1.212273769654438E9 ; 7.9041405029352865E9 ; 2.124294340911002E11 ; 0.0
185 ; 4.091775902452522E7 ; 1.2123204586323335E9 ; 7.945071978255029E9 ; 2.1364170786075464E11 ; 0.0
186 ; 4.088433896198006E7 ; 1.212366958996692E9 ; 7.985989737279554E9 ; 2.1485402831938696E11 ; 0.0
187 ; 4.086371951667736E7 ; 1.212413269708681E9 ; 8.026874076241534E9 ; 2.1606639527838367E11 ; 0.0
188 ; 4.083958152284586E7 ; 1.2124593897363682E9 ; 8.067737795758211E9 ; 2.1727880854809235E11 ; 0.0
189 ; 4.08105351487803E7 ; 1.2125053180546536E9 ; 8.108577377281057E9 ; 2.184912679378287E11 ; 0.0
190 ; 4.07825498131056E7 ; 1.2125510536452062E9 ; 8.149387912429837E9 ; 2.1970377325588336E11 ; 0.0
191 ; 4.076150467895063E7 ; 1.2125965954964013E9 ; 8.190170462242943E9 ; 2.2091632430952856E11 ; 0.0
192 ; 4.0732268661842346E7 ; 1.2126419426032615E9 ; 8.230931966921893E9 ; 2.2212892090502496E11 ; 0.0
193 ; 4.0707192880599424E7 ; 1.2126870939674003E9 ; 8.271664235583735E9 ; 2.2334156284762823E11 ; 0.0
194 ; 4.068760525570086E7 ; 1.2127320485969665E9 ; 8.3123714284643345E9 ; 2.2455424994159564E11 ; 0.0
195 ; 4.065767165296807E7 ; 1.212776805506593E9 ; 8.353059033720036E9 ; 2.257669819901926E11 ; 0.0
196 ; 4.063014071314548E7 ; 1.212821363717344E9 ; 8.393716705373004E9 ; 2.269797587956992E11 ; 0.0
197 ; 4.060524036221927E7 ; 1.212865722256669E9 ; 8.434346846086149E9 ; 2.2819258015941653E11 ; 0.0
