CSV File for the Network on Day 340
1 - Minute m 
2 - Power Consumed at minute m 
3 - Power Produced at minute m 
4 - Energy Consumed since the beginning of the day 
5 - Energy Produced since the beginning of the day 
6 - Energy Lost since the beginning of the day 
 
0 ; 3.869432798485322E7 ; 6.36340479343639E8 ; 0.0 ; 0.0 ; 0.0
1 ; 3.8736863039869875E7 ; 6.372512924693137E8 ; 3.869432798485322E7 ; 6.36340479343639E8 ; 0.0
2 ; 3.8777640196460396E7 ; 6.400155089358417E8 ; 7.74311910247231E7 ; 1.2735917718129528E9 ; 0.0
3 ; 3.88214002244214E7 ; 6.446331416182464E8 ; 1.162088312211835E8 ; 1.9136072807487946E9 ; 0.0
4 ; 3.8879376195391946E7 ; 6.511042020135453E8 ; 1.550302314456049E8 ; 2.558240422367041E9 ; 0.0
5 ; 3.894861089241254E7 ; 6.594287001911535E8 ; 1.9390960764099684E8 ; 3.2093446243805866E9 ; 0.0
6 ; 3.9046794480111055E7 ; 6.696066447488118E8 ; 2.328582185334094E8 ; 3.86877332457174E9 ; 0.0
7 ; 3.917834780934088E7 ; 6.816380427744803E8 ; 2.719050130135204E8 ; 4.538379969320552E9 ; 0.0
8 ; 3.9362411517325014E7 ; 6.955228998145955E8 ; 3.110833608228613E8 ; 5.220018012095032E9 ; 0.0
9 ; 3.9638412837480605E7 ; 7.112612198490229E8 ; 3.5044577234018636E8 ; 5.915540911909627E9 ; 0.0
10 ; 4.007359898989943E7 ; 7.288530052729704E8 ; 3.9008418517766696E8 ; 6.62680213175865E9 ; 0.0
11 ; 4.0765719685751125E7 ; 7.4829825688606E8 ; 4.301577841675664E8 ; 7.35565513703162E9 ; 0.0
12 ; 4.187835680302352E7 ; 7.695969738886697E8 ; 4.7092350385331756E8 ; 8.10395339391768E9 ; 0.0
13 ; 4.294305291925838E7 ; 7.927491538855914E8 ; 5.128018606563411E8 ; 8.873550367806349E9 ; 0.0
14 ; 4.306656402455277E7 ; 8.1775479289696E8 ; 5.557449135755994E8 ; 9.66629952169194E9 ; 0.0
15 ; 4.311560865357139E7 ; 8.446138853763387E8 ; 5.988114776001523E8 ; 1.04840543145889E10 ; 0.0
16 ; 4.3162475709231645E7 ; 8.733264242357675E8 ; 6.419270862537236E8 ; 1.1328668199965239E10 ; 0.0
17 ; 4.321987020833247E7 ; 9.038924008775058E8 ; 6.850895619629552E8 ; 1.2201994624201006E10 ; 0.0
18 ; 4.326334572952906E7 ; 9.363118052321379E8 ; 7.283094321712877E8 ; 1.3105887025078512E10 ; 0.0
19 ; 4.331911709783132E7 ; 9.70584625802647E8 ; 7.715727779008167E8 ; 1.404219883031065E10 ; 0.0
20 ; 4.337780933611677E7 ; 1.0067108497140092E9 ; 8.14891894998648E8 ; 1.5012783456113297E10 ; 0.0
21 ; 4.341938368419267E7 ; 1.0446904627678138E9 ; 8.582697043347648E8 ; 1.6019494305827305E10 ; 0.0
22 ; 4.347061657565477E7 ; 1.084523449501379E9 ; 9.016890880189575E8 ; 1.706418476859512E10 ; 0.0
23 ; 4.352087154547815E7 ; 1.1262097932508054E9 ; 9.451597045946122E8 ; 1.8148708218096497E10 ; 0.0
24 ; 4.357907667454988E7 ; 1.1697494762173872E9 ; 9.886805761400903E8 ; 1.92749180113473E10 ; 0.0
25 ; 4.3628307636060394E7 ; 1.2072707249258971E9 ; 1.0322596528146403E9 ; 2.044466748756469E10 ; 0.0
26 ; 4.368021629450672E7 ; 1.2072948065173254E9 ; 1.0758879604507008E9 ; 2.1651938212490585E10 ; 0.0
27 ; 4.372158123932733E7 ; 1.2073203159712622E9 ; 1.1195681767452075E9 ; 2.285923301900791E10 ; 0.0
28 ; 4.377687406858481E7 ; 1.2073472316605282E9 ; 1.163289757984535E9 ; 2.4066553334979176E10 ; 0.0
29 ; 4.3830201916927464E7 ; 1.2073755311851249E9 ; 1.20706663205312E9 ; 2.52739005666397E10 ; 0.0
30 ; 4.387149390022672E7 ; 1.2074051914466772E9 ; 1.2508968339700475E9 ; 2.6481276097824825E10 ; 0.0
31 ; 4.39220084127121E7 ; 1.207436188722353E9 ; 1.2947683278702743E9 ; 2.7688681289271503E10 ; 0.0
32 ; 4.396900881112666E7 ; 1.2074684987378106E9 ; 1.3386903362829864E9 ; 2.889611747799386E10 ; 0.0
33 ; 4.401483415565193E7 ; 1.2075020967387514E9 ; 1.382659345094113E9 ; 3.010358597673167E10 ; 0.0
34 ; 4.4054267232788615E7 ; 1.207536957560723E9 ; 1.426674179249765E9 ; 3.131108807347042E10 ; 0.0
35 ; 4.409705828145931E7 ; 1.2075730556968286E9 ; 1.4707284464825535E9 ; 3.2518625031031143E10 ; 0.0
36 ; 4.4142259354954235E7 ; 1.2076103653630683E9 ; 1.5148255047640128E9 ; 3.372619808672797E10 ; 0.0
37 ; 4.418209010074295E7 ; 1.207648860561069E9 ; 1.558967764118967E9 ; 3.493380845209104E10 ; 0.0
38 ; 4.422040110005106E7 ; 1.2076885151379983E9 ; 1.60314985421971E9 ; 3.614145731265211E10 ; 0.0
39 ; 4.425325887174179E7 ; 1.20772930284351E9 ; 1.6473702553197613E9 ; 3.734914582779011E10 ; 0.0
40 ; 4.429035737887914E7 ; 1.2077711973835967E9 ; 1.691623514191503E9 ; 3.855687513063362E10 ; 0.0
41 ; 4.432459731415892E7 ; 1.2078141724712672E9 ; 1.735913871570382E9 ; 3.976464632801722E10 ; 0.0
42 ; 4.4356456157974966E7 ; 1.2078582018740008E9 ; 1.780238468884541E9 ; 4.097246050048849E10 ; 0.0
43 ; 4.438833727799097E7 ; 1.2079032594579513E9 ; 1.824594925042516E9 ; 4.218031870236249E10 ; 0.0
44 ; 4.440896250201499E7 ; 1.207949319228922E9 ; 1.868983262320507E9 ; 4.338822196182044E10 ; 0.0
45 ; 4.444140763437499E7 ; 1.2079963553701336E9 ; 1.913392224822522E9 ; 4.459617128104936E10 ; 0.0
46 ; 4.4471618885710396E7 ; 1.2080443422768493E9 ; 1.957833632456897E9 ; 4.5804167636419495E10 ; 0.0
47 ; 4.448446110708705E7 ; 1.208093254587925E9 ; 2.0023052513426075E9 ; 4.701221197869634E10 ; 0.0
48 ; 4.450556468820478E7 ; 1.208143067214379E9 ; 2.0467897124496946E9 ; 4.822030523328427E10 ; 0.0
49 ; 4.4523963253898926E7 ; 1.2081937553650887E9 ; 2.0912952771378994E9 ; 4.942844830049865E10 ; 0.0
50 ; 4.454134973195639E7 ; 1.2082452945697193E9 ; 2.1358192403917983E9 ; 5.063664205586374E10 ; 0.0
51 ; 4.456041391942209E7 ; 1.2082976606990185E9 ; 2.1803605901237545E9 ; 5.184488735043346E10 ; 0.0
52 ; 4.4575062479055636E7 ; 1.2083508299826016E9 ; 2.2249210040431767E9 ; 5.305318501113248E10 ; 0.0
53 ; 4.458559956440367E7 ; 1.208404779024362E9 ; 2.269496066522232E9 ; 5.426153584111508E10 ; 0.0
54 ; 4.4604172268271685E7 ; 1.2084594848156443E9 ; 2.3140816660866356E9 ; 5.546994062013944E10 ; 0.0
55 ; 4.4613541424952224E7 ; 1.2085149247463162E9 ; 2.358685838354907E9 ; 5.6678400104955086E10 ; 0.0
56 ; 4.462901901774603E7 ; 1.2085710766138804E9 ; 2.403299379779859E9 ; 5.78869150297014E10 ; 0.0
57 ; 4.463760541564092E7 ; 1.2086279186307578E9 ; 2.447928398797605E9 ; 5.9095486106315285E10 ; 0.0
58 ; 4.464985808118348E7 ; 1.2086854294298763E9 ; 2.492566004213246E9 ; 6.0304114024946045E10 ; 0.0
59 ; 4.466795210042992E7 ; 1.2087435880686986E9 ; 2.5372158622944293E9 ; 6.151279945437592E10 ; 0.0
60 ; 4.468062460561924E7 ; 1.2088023740318089E9 ; 2.5818838143948593E9 ; 6.272154304244462E10 ; 0.0
61 ; 4.468494439873835E7 ; 1.2088617672321851E9 ; 2.6265644390004787E9 ; 6.3930345416476425E10 ; 0.0
62 ; 4.469065480617351E7 ; 1.2089217480112667E9 ; 2.671249383399217E9 ; 6.513920718370861E10 ; 0.0
63 ; 4.471045358719236E7 ; 1.2089822971379352E9 ; 2.7159400382053905E9 ; 6.634812893171988E10 ; 0.0
64 ; 4.471948817119002E7 ; 1.2090433958065066E9 ; 2.760650491792583E9 ; 6.755711122885781E10 ; 0.0
65 ; 4.472779961793087E7 ; 1.2091050256338396E9 ; 2.805369979963773E9 ; 6.876615462466432E10 ; 0.0
66 ; 4.472866845763224E7 ; 1.2091671686556478E9 ; 2.8500977795817037E9 ; 6.997525965029816E10 ; 0.0
67 ; 4.4749928998049825E7 ; 1.2092298073221107E9 ; 2.8948264480393357E9 ; 7.118442681895381E10 ; 0.0
68 ; 4.475416833836252E7 ; 1.2092929244928563E9 ; 2.9395763770373855E9 ; 7.239365662627592E10 ; 0.0
69 ; 4.47593842096372E7 ; 1.2093565034314003E9 ; 2.984330545375748E9 ; 7.360294955076878E10 ; 0.0
70 ; 4.477219683114849E7 ; 1.2094205277991097E9 ; 3.0290899295853853E9 ; 7.481230605420018E10 ; 0.0
71 ; 4.477207959457469E7 ; 1.2094849816487515E9 ; 3.073862126416534E9 ; 7.602172658199928E10 ; 0.0
72 ; 4.478628054755994E7 ; 1.2095498494176977E9 ; 3.1186342060111084E9 ; 7.723121156364804E10 ; 0.0
73 ; 4.4785488989138804E7 ; 1.2096151159208298E9 ; 3.163420486558668E9 ; 7.844076141306573E10 ; 0.0
74 ; 4.4794859551201284E7 ; 1.2096807663432062E9 ; 3.2082059755478067E9 ; 7.965037652898657E10 ; 0.0
75 ; 4.4803681435173705E7 ; 1.2097467862325282E9 ; 3.253000835099008E9 ; 8.086005729532977E10 ; 0.0
76 ; 4.48116546318579E7 ; 1.2098131614914563E9 ; 3.2978045165341816E9 ; 8.20698040815623E10 ; 0.0
77 ; 4.481004979697585E7 ; 1.2098798783698096E9 ; 3.3426161711660395E9 ; 8.327961724305376E10 ; 0.0
78 ; 4.479466392785827E7 ; 1.209946923456685E9 ; 3.3874262209630156E9 ; 8.448949712142357E10 ; 0.0
79 ; 4.4793097023743704E7 ; 1.2100142836725292E9 ; 3.432220884890874E9 ; 8.569944404488025E10 ; 0.0
80 ; 4.4784476542494185E7 ; 1.210081946261191E9 ; 3.4770139819146175E9 ; 8.690945832855278E10 ; 0.0
81 ; 4.476865333888771E7 ; 1.2101498987819762E9 ; 3.521798458457112E9 ; 8.811954027481396E10 ; 0.0
82 ; 4.4763463865662724E7 ; 1.2102181291017365E9 ; 3.5665671117959995E9 ; 8.932969017359595E10 ; 0.0
83 ; 4.475512416116562E7 ; 1.2102866253870015E9 ; 3.611330575661662E9 ; 9.053990830269768E10 ; 0.0
84 ; 4.474813428485882E7 ; 1.2103553760961797E9 ; 3.656085699822828E9 ; 9.175019492808469E10 ; 0.0
85 ; 4.473238901034125E7 ; 1.2104243699718413E9 ; 3.7008338341076865E9 ; 9.296055030418086E10 ; 0.0
86 ; 4.472447521429876E7 ; 1.210493596033096E9 ; 3.7455662231180277E9 ; 9.417097467415271E10 ; 0.0
87 ; 4.470862791492182E7 ; 1.2105630435680797E9 ; 3.7902906983323264E9 ; 9.53814682701858E10 ; 0.0
88 ; 4.4693493550610796E7 ; 1.2106327021265576E9 ; 3.834999326247248E9 ; 9.659203131375389E10 ; 0.0
89 ; 4.468430244907045E7 ; 1.2107025615126543E9 ; 3.879692819797859E9 ; 9.780266401588045E10 ; 0.0
90 ; 4.4673697162781686E7 ; 1.2107726117777176E9 ; 3.9243771222469296E9 ; 9.90133665773931E10 ; 0.0
91 ; 4.466124092299248E7 ; 1.2108428432133238E9 ; 3.9690508194097114E9 ; 1.002241391891708E11 ; 0.0
92 ; 4.464425102597801E7 ; 1.210913246344424E9 ; 4.013712060332704E9 ; 1.0143498203238412E11 ; 0.0
93 ; 4.463224638156925E7 ; 1.210983811922644E9 ; 4.058356311358682E9 ; 1.0264589527872855E11 ; 0.0
94 ; 4.461147454941561E7 ; 1.2110545309197323E9 ; 4.1029885577402515E9 ; 1.0385687909065118E11 ; 0.0
95 ; 4.4599212086461335E7 ; 1.211125394521163E9 ; 4.147600032289667E9 ; 1.0506793362157092E11 ; 0.0
96 ; 4.458492290847951E7 ; 1.2111963941198955E9 ; 4.1921992443761287E9 ; 1.0627905901609209E11 ; 0.0
97 ; 4.456747470833644E7 ; 1.2112675213102875E9 ; 4.2367841672846084E9 ; 1.0749025541021198E11 ; 0.0
98 ; 4.455832329448874E7 ; 1.2113387678821676E9 ; 4.2813516419929447E9 ; 1.0870152293152226E11 ; 0.0
99 ; 4.453318212695968E7 ; 1.2114101258150618E9 ; 4.325909965287434E9 ; 1.0991286169940443E11 ; 0.0
100 ; 4.4522955777857825E7 ; 1.2114815872725751E9 ; 4.370443147414393E9 ; 1.111242718252195E11 ; 0.0
101 ; 4.449560571755187E7 ; 1.211553144596929E9 ; 4.414966103192251E9 ; 1.1233575341249207E11 ; 0.0
102 ; 4.448161556007213E7 ; 1.2116247903036485E9 ; 4.459461708909803E9 ; 1.1354730655708899E11 ; 0.0
103 ; 4.4467111453493536E7 ; 1.2116965170764034E9 ; 4.503943324469875E9 ; 1.1475893134739264E11 ; 0.0
104 ; 4.444513365089338E7 ; 1.211768317761995E9 ; 4.548410435923368E9 ; 1.1597062786446904E11 ; 0.0
105 ; 4.443097782373834E7 ; 1.211840185365491E9 ; 4.592855569574262E9 ; 1.1718239618223103E11 ; 0.0
106 ; 4.440937612852069E7 ; 1.2119121130455022E9 ; 4.637286547398E9 ; 1.1839423636759653E11 ; 0.0
107 ; 4.438653118273738E7 ; 1.2119840941096027E9 ; 4.681695923526521E9 ; 1.1960614848064203E11 ; 0.0
108 ; 4.4366596069401965E7 ; 1.2120561220098863E9 ; 4.726082454709258E9 ; 1.2081813257475163E11 ; 0.0
109 ; 4.435111900965622E7 ; 1.2121281903386586E9 ; 4.77044905077866E9 ; 1.2203018869676152E11 ; 0.0
110 ; 4.4328262729413055E7 ; 1.2122002928242617E9 ; 4.814800169788316E9 ; 1.2324231688710017E11 ; 0.0
111 ; 4.430778497064225E7 ; 1.2122724233270276E9 ; 4.859128432517729E9 ; 1.2445451717992444E11 ; 0.0
112 ; 4.4289139592735544E7 ; 1.2123445758353581E9 ; 4.903436217488371E9 ; 1.2566678960325146E11 ; 0.0
113 ; 4.4264386497998565E7 ; 1.2124167444619281E9 ; 4.947725357081106E9 ; 1.2687913417908682E11 ; 0.0
114 ; 4.424493634125351E7 ; 1.212488923440007E9 ; 4.991989743579104E9 ; 1.2809155092354875E11 ; 0.0
115 ; 4.4213923685121454E7 ; 1.2125611071198974E9 ; 5.036234679920358E9 ; 1.2930403984698875E11 ; 0.0
116 ; 4.419344064541338E7 ; 1.2126332899654894E9 ; 5.080448603605479E9 ; 1.3051660095410866E11 ; 0.0
117 ; 4.4172847084900364E7 ; 1.212705466550921E9 ; 5.124642044250893E9 ; 1.3172923424407414E11 ; 0.0
118 ; 4.414790885766578E7 ; 1.212777631557349E9 ; 5.168814891335793E9 ; 1.3294193971062506E11 ; 0.0
119 ; 4.412420489799674E7 ; 1.212849779769823E9 ; 5.212962800193459E9 ; 1.341547173421824E11 ; 0.0
120 ; 4.409861931273188E7 ; 1.2129219060742602E9 ; 5.257087005091455E9 ; 1.3536756712195222E11 ; 0.0
121 ; 4.406914103877631E7 ; 1.212994005454517E9 ; 5.301185624404187E9 ; 1.3658048902802649E11 ; 0.0
122 ; 4.404553892816581E7 ; 1.2130660729895594E9 ; 5.345254765442964E9 ; 1.3779348303348102E11 ; 0.0
123 ; 4.401429966750035E7 ; 1.2131381038507216E9 ; 5.389300304371129E9 ; 1.3900654910647058E11 ; 0.0
124 ; 4.399146938177243E7 ; 1.213210093299055E9 ; 5.43331460403863E9 ; 1.402196872103213E11 ; 0.0
125 ; 4.397145350249983E7 ; 1.2132820366827664E9 ; 5.477306073420402E9 ; 1.4143289730362033E11 ; 0.0
126 ; 4.3942323277745135E7 ; 1.2133539294347358E9 ; 5.521277526922901E9 ; 1.426461793403031E11 ; 0.0
127 ; 4.3916852153301075E7 ; 1.213425767070118E9 ; 5.565219850200646E9 ; 1.4385953326973782E11 ; 0.0
128 ; 4.38861176928494E7 ; 1.2134975451840234E9 ; 5.609136702353948E9 ; 1.4507295903680795E11 ; 0.0
129 ; 4.385580693151083E7 ; 1.2135692594492722E9 ; 5.653022820046797E9 ; 1.4628645658199197E11 ; 0.0
130 ; 4.382057591658561E7 ; 1.213640905614225E9 ; 5.696878626978308E9 ; 1.4750002584144125E11 ; 0.0
131 ; 4.377138194288331E7 ; 1.2137124795006819E9 ; 5.740699202894894E9 ; 1.4871366674705548E11 ; 0.0
132 ; 4.373534655568394E7 ; 1.2137839770018532E9 ; 5.784470584837777E9 ; 1.4992737922655615E11 ; 0.0
133 ; 4.368678225891561E7 ; 1.2138553940803955E9 ; 5.828205931393461E9 ; 1.51141163203558E11 ; 0.0
134 ; 4.364415885076441E7 ; 1.213926726766511E9 ; 5.871892713652377E9 ; 1.523550185976384E11 ; 0.0
135 ; 4.360826073365569E7 ; 1.2139979711561108E9 ; 5.915536872503141E9 ; 1.535689453244049E11 ; 0.0
136 ; 4.3559851445679255E7 ; 1.214069123409037E9 ; 5.959145133236797E9 ; 1.54782943295561E11 ; 0.0
137 ; 4.3517543769881524E7 ; 1.2141401797473464E9 ; 6.002704984682477E9 ; 1.5599701241897003E11 ; 0.0
138 ; 4.347234513253563E7 ; 1.2142111364536443E9 ; 6.046222528452358E9 ; 1.5721115259871738E11 ; 0.0
139 ; 4.342002133375825E7 ; 1.2142819898694782E9 ; 6.089694873584894E9 ; 1.5842536373517102E11 ; 0.0
140 ; 4.338580672390597E7 ; 1.2143527363937817E9 ; 6.133114894918653E9 ; 1.596396457250405E11 ; 0.0
141 ; 4.333193152298677E7 ; 1.2144233724813685E9 ; 6.176500701642558E9 ; 1.6085399846143427E11 ; 0.0
142 ; 4.3289813412055336E7 ; 1.2144938946414788E9 ; 6.2198326331655445E9 ; 1.6206842183391562E11 ; 0.0
143 ; 4.324158383178008E7 ; 1.2145642994363678E9 ; 6.2631224465776E9 ; 1.632829157285571E11 ; 0.0
144 ; 4.319663471303799E7 ; 1.2146345834799442E9 ; 6.30636403040938E9 ; 1.6449748002799347E11 ; 0.0
145 ; 4.316467285124521E7 ; 1.214704743436452E9 ; 6.349560665122418E9 ; 1.6571211461147342E11 ; 0.0
146 ; 4.3136144498360045E7 ; 1.2147747760191934E9 ; 6.392725337973663E9 ; 1.6692681935490988E11 ; 0.0
147 ; 4.310057537766265E7 ; 1.2148446779892955E9 ; 6.435861482472023E9 ; 1.6814159413092908E11 ; 0.0
148 ; 4.307621084199026E7 ; 1.2149144461545148E9 ; 6.478962057849686E9 ; 1.6935643880891837E11 ; 0.0
149 ; 4.30393440052922E7 ; 1.214984077368081E9 ; 6.522038268691676E9 ; 1.7057135325507288E11 ; 0.0
150 ; 4.30106861993332E7 ; 1.2150535685275788E9 ; 6.565077612696968E9 ; 1.7178633733244095E11 ; 0.0
151 ; 4.298076203513959E7 ; 1.215122916573864E9 ; 6.608088298896301E9 ; 1.7300139090096854E11 ; 0.0
152 ; 4.294589592502324E7 ; 1.215192118490015E9 ; 6.651069060931441E9 ; 1.742165138175424E11 ; 0.0
153 ; 4.291714844462448E7 ; 1.21526117130032E9 ; 6.694014956856464E9 ; 1.754317059360324E11 ; 0.0
154 ; 4.288312754698027E7 ; 1.2153300720692925E9 ; 6.736932105301089E9 ; 1.7664696710733273E11 ; 0.0
155 ; 4.285203374820353E7 ; 1.2153988179007218E9 ; 6.779815232848069E9 ; 1.7786229717940204E11 ; 0.0
156 ; 4.2812548288510956E7 ; 1.2154674059367518E9 ; 6.822667266596272E9 ; 1.7907769599730276E11 ; 0.0
157 ; 4.279123492979581E7 ; 1.2155358333569903E9 ; 6.865479814884784E9 ; 1.802931634032395E11 ; 0.0
158 ; 4.275580839041781E7 ; 1.2156040973776445E9 ; 6.90827104981458E9 ; 1.815086992365965E11 ; 0.0
159 ; 4.272238477763779E7 ; 1.2156721952506866E9 ; 6.951026858204998E9 ; 1.8272430333397415E11 ; 0.0
160 ; 4.268160898673466E7 ; 1.2157401242630436E9 ; 6.9937492429826355E9 ; 1.8393997552922485E11 ; 0.0
161 ; 4.266084934032821E7 ; 1.215807881735814E9 ; 7.03643085196937E9 ; 1.8515571565348788E11 ; 0.0
162 ; 4.2619593388649136E7 ; 1.2158754650235078E9 ; 7.079091701309698E9 ; 1.863715235352237E11 ; 0.0
163 ; 4.25913133180397E7 ; 1.2159428715133116E9 ; 7.121711294698347E9 ; 1.875873990002472E11 ; 0.0
164 ; 4.25591984890342E7 ; 1.2160100986243763E9 ; 7.164302608016387E9 ; 1.888033418717605E11 ; 0.0
165 ; 4.2521169138699174E7 ; 1.2160771438071265E9 ; 7.206861806505422E9 ; 1.900193519703849E11 ; 0.0
166 ; 4.24890722005E7 ; 1.2161440045425916E9 ; 7.249382975644121E9 ; 1.9123542911419202E11 ; 0.0
167 ; 4.245667547554305E7 ; 1.2162106783417597E9 ; 7.291872047844621E9 ; 1.9245157311873462E11 ; 0.0
168 ; 4.24154392986434E7 ; 1.2162771627449474E9 ; 7.334328723320164E9 ; 1.936677837970764E11 ; 0.0
169 ; 4.239497371064622E7 ; 1.216343455321194E9 ; 7.376744162618807E9 ; 1.9488406095982132E11 ; 0.0
170 ; 4.235095240987246E7 ; 1.2164095536676702E9 ; 7.419139136329453E9 ; 1.9610040441514252E11 ; 0.0
171 ; 4.2319841140180886E7 ; 1.2164754554091072E9 ; 7.461490088739326E9 ; 1.9731681396881018E11 ; 0.0
172 ; 4.228068213998704E7 ; 1.216541158197244E9 ; 7.503809929879506E9 ; 1.985332894242193E11 ; 0.0
173 ; 4.225037505941041E7 ; 1.2166066597102895E9 ; 7.546090612019493E9 ; 1.9974983058241653E11 ; 0.0
174 ; 4.2233276866219E7 ; 1.2166719576524024E9 ; 7.588340987078903E9 ; 2.0096643724212683E11 ; 0.0
175 ; 4.220510546978077E7 ; 1.216737049753188E9 ; 7.630574263945122E9 ; 2.0218310919977924E11 ; 0.0
176 ; 4.218206769995126E7 ; 1.2168019337672074E9 ; 7.672779369414903E9 ; 2.033998462495324E11 ; 0.0
177 ; 4.216556815323377E7 ; 1.2168666074735048E9 ; 7.714961437114854E9 ; 2.0461664818329962E11 ; 0.0
178 ; 4.21460118918041E7 ; 1.216931068675147E9 ; 7.757127005268087E9 ; 2.0583351479077313E11 ; 0.0
179 ; 4.212185036810173E7 ; 1.216995315198779E9 ; 7.799273017159891E9 ; 2.0705044585944827E11 ; 0.0
180 ; 4.210194142465828E7 ; 1.2170593448941894E9 ; 7.841394867527993E9 ; 2.0826744117464706E11 ; 0.0
181 ; 4.207658695894084E7 ; 1.217123155633893E9 ; 7.883496808952651E9 ; 2.0948450051954126E11 ; 0.0
182 ; 4.205235254627006E7 ; 1.2171867453127234E9 ; 7.925573395911592E9 ; 2.1070162367517514E11 ; 0.0
183 ; 4.203761674860452E7 ; 1.2172501118474395E9 ; 7.967625748457862E9 ; 2.1191881042048785E11 ; 0.0
184 ; 4.201339461476543E7 ; 1.2173132531763418E9 ; 8.009663365206467E9 ; 2.131360605323353E11 ; 0.0
185 ; 4.1998037070180565E7 ; 1.2173761672589016E9 ; 8.051676759821232E9 ; 2.1435337378551163E11 ; 0.0
186 ; 4.197755214214249E7 ; 1.2174388520754008E9 ; 8.093674796891413E9 ; 2.1557074995277054E11 ; 0.0
187 ; 4.19495427295112E7 ; 1.217501305626584E9 ; 8.135652349033555E9 ; 2.1678818880484595E11 ; 0.0
188 ; 4.193757798979586E7 ; 1.2175635259333177E9 ; 8.177601891763066E9 ; 2.1800569011047253E11 ; 0.0
189 ; 4.190865114420601E7 ; 1.2176255110362616E9 ; 8.219539469752862E9 ; 2.1922325363640585E11 ; 0.0
190 ; 4.188552669768155E7 ; 1.217687258995551E9 ; 8.261448120897068E9 ; 2.204408791474421E11 ; 0.0
191 ; 4.186774561016835E7 ; 1.2177487678904862E9 ; 8.303333647594749E9 ; 2.2165856640643765E11 ; 0.0
192 ; 4.1846809835030615E7 ; 1.217810035819231E9 ; 8.345201393204918E9 ; 2.2287631517432812E11 ; 0.0
193 ; 4.18336447141585E7 ; 1.217871060898523E9 ; 8.387048203039948E9 ; 2.2409412521014737E11 ; 0.0
194 ; 4.181533412896492E7 ; 1.2179318412633886E9 ; 8.4288818477541065E9 ; 2.253119962710459E11 ; 0.0
195 ; 4.1781495952190906E7 ; 1.2179923750668693E9 ; 8.470697181883072E9 ; 2.265299281123093E11 ; 0.0
196 ; 4.17662792573244E7 ; 1.218052660479754E9 ; 8.512478677835263E9 ; 2.2774792048737616E11 ; 0.0
197 ; 4.1738198298012614E7 ; 1.218112695690322E9 ; 8.554244957092587E9 ; 2.2896597314785593E11 ; 0.0
