CSV File for the Network on Day 205
1 - Minute m 
2 - Power Consumed at minute m 
3 - Power Produced at minute m 
4 - Energy Consumed since the beginning of the day 
5 - Energy Produced since the beginning of the day 
6 - Energy Lost since the beginning of the day 
 
0 ; 526840.1389277863 ; 2.1074455990411133E8 ; 0.0 ; 0.0 ; 0.0
1 ; 532759.1848052125 ; 2.1104977754210442E8 ; 526840.1389277863 ; 2.1074455990411133E8 ; 356.14
2 ; 536493.3039909527 ; 2.1197261497026497E8 ; 1059599.3237329987 ; 4.2179433744621575E8 ; 712.28
3 ; 542926.5291356225 ; 2.1351307996120042E8 ; 1596092.6277239514 ; 6.337669524164808E8 ; 1068.42
4 ; 546002.4272632492 ; 2.1567117961745423E8 ; 2139019.156859574 ; 8.472800323776813E8 ; 1424.56
5 ; 551319.5724411003 ; 2.184469202886833E8 ; 2685021.584122823 ; 1.0629512119951355E9 ; 1780.6999999999998
6 ; 553263.1773663568 ; 2.2184030749432266E8 ; 3236341.156563923 ; 1.2813981322838187E9 ; 2136.8399999999997
7 ; 560305.0584033888 ; 2.2585134585381007E8 ; 3789604.33393028 ; 1.5032384397781415E9 ; 2492.9799999999996
8 ; 564349.0215523184 ; 2.3048003902634573E8 ; 4349909.392333669 ; 1.7290897856319516E9 ; 2849.1199999999994
9 ; 567708.3460441522 ; 2.3572638966197473E8 ; 4914258.413885987 ; 1.9595698246582973E9 ; 3205.2599999999993
10 ; 571574.4564919629 ; 2.4159039936549366E8 ; 5481966.759930139 ; 2.195296214320272E9 ; 3561.399999999999
11 ; 574658.9042525736 ; 2.4807206867432046E8 ; 6053541.216422102 ; 2.4368866136857657E9 ; 3917.539999999999
12 ; 579225.0849260123 ; 2.5517139705103713E8 ; 6628200.120674676 ; 2.6849586823600864E9 ; 4273.679999999999
13 ; 583215.4058572265 ; 2.628883828908471E8 ; 7207425.205600688 ; 2.9401300794111238E9 ; 4629.82
14 ; 588375.3303920184 ; 2.712230235437054E8 ; 7790640.611457915 ; 3.203018462301971E9 ; 4985.96
15 ; 595237.6137893668 ; 2.8017531535041165E8 ; 8379015.941849934 ; 3.4742414858456764E9 ; 5342.1
16 ; 596113.0260746819 ; 2.897452536915283E8 ; 8974253.5556393 ; 3.754416801196088E9 ; 5698.240000000001
17 ; 598300.891091279 ; 2.999328330476202E8 ; 9570366.581713982 ; 4.044162054887616E9 ; 6054.380000000001
18 ; 599675.0939898093 ; 3.107380470690304E8 ; 1.0168667472805262E7 ; 4.344094887935236E9 ; 6410.520000000001
19 ; 604035.7859352444 ; 3.221608886532155E8 ; 1.0768342566795072E7 ; 4.654832935004267E9 ; 6766.660000000002
20 ; 609784.6582968762 ; 3.3420135002756804E8 ; 1.1372378352730315E7 ; 4.976993823657482E9 ; 7122.800000000002
21 ; 614374.6775129861 ; 3.4685942283565044E8 ; 1.198216301102719E7 ; 5.31119517368505E9 ; 7478.940000000002
22 ; 618433.1850104409 ; 3.601350982248471E8 ; 1.2596537688540177E7 ; 5.6580545965207E9 ; 7835.080000000003
23 ; 622335.6446441715 ; 3.740283669335912E8 ; 1.3214970873550618E7 ; 6.018189694745547E9 ; 8191.220000000003
24 ; 625617.7863040403 ; 3.885392193765253E8 ; 1.3837306518194789E7 ; 6.392218061679138E9 ; 8547.360000000002
25 ; 629737.6015740503 ; 4.010437275225671E8 ; 1.4462924304498829E7 ; 6.780757281055663E9 ; 8903.500000000002
26 ; 635678.2439612111 ; 4.010489770457988E8 ; 1.509266190607288E7 ; 7.18180100857823E9 ; 9259.640000000001
27 ; 637958.5054572668 ; 4.010544964468981E8 ; 1.572834015003409E7 ; 7.582849985624029E9 ; 9615.78
28 ; 640575.8140281591 ; 4.010602756122183E8 ; 1.6366298655491358E7 ; 7.983904482070928E9 ; 9971.92
29 ; 643841.6652397538 ; 4.0106630445934546E8 ; 1.700687446951952E7 ; 8.3849647576831455E9 ; 10328.06
30 ; 647969.5025881715 ; 4.010725729895307E8 ; 1.7650716134759273E7 ; 8.78603106214249E9 ; 10684.199999999999
31 ; 650908.8153059157 ; 4.0107907133350223E8 ; 1.8298685637347445E7 ; 9.18710363513202E9 ; 11040.339999999998
32 ; 654278.1275051075 ; 4.0108578979082227E8 ; 1.894959445265336E7 ; 9.588182706465523E9 ; 11396.479999999998
33 ; 660632.7312897402 ; 4.0109271886307263E8 ; 1.960387258015847E7 ; 9.989268496256346E9 ; 11752.619999999997
34 ; 660895.8447286444 ; 4.010998492812397E8 ; 2.026450531144821E7 ; 1.039036121511942E10 ; 12108.759999999997
35 ; 664171.8195041316 ; 4.011071720277331E8 ; 2.0925401156176854E7 ; 1.079146106440066E10 ; 12464.899999999996
36 ; 667309.2140831813 ; 4.011146783535067E8 ; 2.1589572975680985E7 ; 1.1192568236428392E10 ; 12821.039999999995
37 ; 672309.710934121 ; 4.0112235979077095E8 ; 2.2256882189764164E7 ; 1.1593682914781898E10 ; 13177.179999999995
38 ; 671854.6333017705 ; 4.011302081617849E8 ; 2.2929191900698286E7 ; 1.199480527457267E10 ; 13533.319999999994
39 ; 678455.3759036633 ; 4.0113821558420527E8 ; 2.3601046534000058E7 ; 1.2395935482734455E10 ; 13889.459999999994
40 ; 681943.6409740174 ; 4.0114637447344816E8 ; 2.427950190990372E7 ; 1.279707369831866E10 ; 14245.599999999993
41 ; 682360.0523502008 ; 4.0115467754249185E8 ; 2.496144555087774E7 ; 1.3198220072792109E10 ; 14601.739999999993
42 ; 686764.5663360337 ; 4.011631177995155E8 ; 2.564380560322794E7 ; 1.35993747503346E10 ; 14957.879999999992
43 ; 688167.8798342784 ; 4.011716885437348E8 ; 2.633057016956397E7 ; 1.4000537868134115E10 ; 15314.019999999991
44 ; 693093.6061201183 ; 4.0118038335975975E8 ; 2.701873804939825E7 ; 1.440170955667785E10 ; 15670.15999999999
45 ; 691917.9154136935 ; 4.011891961107632E8 ; 2.7711831655518368E7 ; 1.4802889940037611E10 ; 16026.29999999999
46 ; 698171.5462135664 ; 4.011981209307164E8 ; 2.840374957093206E7 ; 1.5204079136148375E10 ; 16382.43999999999
47 ; 701400.9728507603 ; 4.0120715221591437E8 ; 2.9101921117145628E7 ; 1.560527725707909E10 ; 16738.57999999999
48 ; 703660.4196841313 ; 4.0121628461598355E8 ; 2.9803322089996386E7 ; 1.6006484409295004E10 ; 17094.71999999999
49 ; 704427.3131832456 ; 4.012255130245382E8 ; 3.0506982509680517E7 ; 1.6407700693910988E10 ; 17450.85999999999
50 ; 708417.0193850024 ; 4.0123483256962514E8 ; 3.121140982286376E7 ; 1.6808926206935526E10 ; 17806.99999999999
51 ; 709354.3245905027 ; 4.012442386040751E8 ; 3.1919826842248764E7 ; 1.721016103950515E10 ; 18163.13999999999
52 ; 711407.7256768126 ; 4.0125372669585884E8 ; 3.2629181166839268E7 ; 1.7611405278109226E10 ; 18519.279999999988
53 ; 712260.5590022588 ; 4.0126329261852896E8 ; 3.334058889251608E7 ; 1.8012659004805084E10 ; 18875.419999999987
54 ; 716203.9060610047 ; 4.012729323418124E8 ; 3.405284945151834E7 ; 1.8413922297423615E10 ; 19231.559999999987
55 ; 716645.5138158672 ; 4.0128264202240527E8 ; 3.476905335757934E7 ; 1.8815195229765427E10 ; 19587.699999999986
56 ; 718930.0871051936 ; 4.012924179950119E8 ; 3.548569887139521E7 ; 1.921647787178783E10 ; 19943.839999999986
57 ; 721895.2513662993 ; 4.013022567636579E8 ; 3.62046289585004E7 ; 1.961777028978284E10 ; 20299.979999999985
58 ; 722761.8909332808 ; 4.013121549932997E8 ; 3.69265242098667E7 ; 2.0019072546546497E10 ; 20656.119999999984
59 ; 726285.668790167 ; 4.0132210950174737E8 ; 3.7649286100799985E7 ; 2.04203847015398E10 ; 21012.259999999984
60 ; 728714.4695162268 ; 4.0133211725190985E8 ; 3.8375571769590154E7 ; 2.0821706811041546E10 ; 21368.399999999983
61 ; 729847.8321066897 ; 4.013421753443669E8 ; 3.910428623910638E7 ; 2.1223038928293457E10 ; 21724.539999999983
62 ; 733657.371771617 ; 4.0135228101027066E8 ; 3.983413407121307E7 ; 2.1624381103637825E10 ; 22080.679999999982
63 ; 736714.9405319606 ; 4.013624316045724E8 ; 4.0567791442984685E7 ; 2.2025733384648094E10 ; 22436.81999999998
64 ; 738177.316886829 ; 4.013726245995718E8 ; 4.130450638351665E7 ; 2.2427095816252666E10 ; 22792.95999999998
65 ; 738555.0571995198 ; 4.013828575787806E8 ; 4.2042683700403474E7 ; 2.2828468440852238E10 ; 23149.09999999998
66 ; 741402.8667192947 ; 4.013931282310927E8 ; 4.2781238757603E7 ; 2.322985129843102E10 ; 23505.23999999998
67 ; 745084.4799458521 ; 4.01403434345252E8 ; 4.3522641624322295E7 ; 2.3631244426662113E10 ; 23861.37999999998
68 ; 747166.9567485097 ; 4.014137738046057E8 ; 4.426772610426815E7 ; 2.4032647861007366E10 ; 24217.51999999998
69 ; 748508.817198219 ; 4.014241445821347E8 ; 4.501489306101666E7 ; 2.4434061634811974E10 ; 24573.659999999978
70 ; 747254.5584630967 ; 4.01434544735747E8 ; 4.576340187821487E7 ; 2.4835485779394108E10 ; 24929.799999999977
71 ; 750692.2868430747 ; 4.014449724038248E8 ; 4.651065643667797E7 ; 2.5236920324129856E10 ; 25285.939999999977
72 ; 754090.3450244063 ; 4.014554258010131E8 ; 4.726134872352105E7 ; 2.563836529653368E10 ; 25642.079999999976
73 ; 752440.8174905569 ; 4.014659032142369E8 ; 4.801543906854545E7 ; 2.6039820722334694E10 ; 25998.219999999976
74 ; 755536.0809017831 ; 4.014764029989387E8 ; 4.876787988603601E7 ; 2.644128662554893E10 ; 26354.359999999975
75 ; 756101.590152948 ; 4.014869235755217E8 ; 4.9523415966937795E7 ; 2.684276302854787E10 ; 26710.499999999975
76 ; 759057.745063225 ; 4.014974634259915E8 ; 5.0279517557090744E7 ; 2.7244249952123394E10 ; 27066.639999999974
77 ; 760140.1238287429 ; 4.0150802109078264E8 ; 5.103857530215397E7 ; 2.7645747415549385E10 ; 27422.779999999973
78 ; 760663.6153098278 ; 4.0151859516576266E8 ; 5.179871542598271E7 ; 2.8047255436640167E10 ; 27778.919999999973
79 ; 762579.1436016088 ; 4.0152918429940236E8 ; 5.255937904129254E7 ; 2.844877403180593E10 ; 28135.059999999972
80 ; 764796.2579363475 ; 4.015397871901035E8 ; 5.332195818489415E7 ; 2.8850303216105335E10 ; 28491.19999999997
81 ; 766591.9342066683 ; 4.01550402583676E8 ; 5.40867544428305E7 ; 2.9251843003295437E10 ; 28847.33999999997
82 ; 768700.0265526264 ; 4.015610292709547E8 ; 5.485334637703717E7 ; 2.9653393405879112E10 ; 29203.47999999997
83 ; 769287.9750306943 ; 4.0157166608554924E8 ; 5.562204640358979E7 ; 3.0054954435150066E10 ; 29559.61999999997
84 ; 772521.1893944965 ; 4.01582311901718E8 ; 5.639133437862049E7 ; 3.0456526101235615E10 ; 29915.75999999997
85 ; 773408.0116674283 ; 4.015929656323612E8 ; 5.716385556801499E7 ; 3.0858108413137333E10 ; 30271.89999999997
86 ; 775638.1782071181 ; 4.016036262271233E8 ; 5.793726357968242E7 ; 3.1259701378769695E10 ; 30628.039999999968
87 ; 779550.2902438651 ; 4.0161429267060137E8 ; 5.871290175788954E7 ; 3.166130500499682E10 ; 30984.179999999968
88 ; 778306.033794143 ; 4.016249639806509E8 ; 5.94924520481334E7 ; 3.206291929766742E10 ; 31340.319999999967
89 ; 779091.4440735827 ; 4.016356392067851E8 ; 6.0270758081927545E7 ; 3.246454426164807E10 ; 31696.459999999966
90 ; 782544.0696760023 ; 4.016463174286616E8 ; 6.1049849526001126E7 ; 3.2866179900854855E10 ; 32052.599999999966
91 ; 782409.5132457956 ; 4.01656997754651E8 ; 6.183239359567713E7 ; 3.3267826218283516E10 ; 32408.739999999965
92 ; 784111.6826901801 ; 4.016676793204833E8 ; 6.261480310892293E7 ; 3.3669483216038166E10 ; 32764.879999999965
93 ; 785044.713632858 ; 4.016783612879677E8 ; 6.339891479161311E7 ; 3.407115089535865E10 ; 33121.01999999997
94 ; 786535.137551037 ; 4.0168904284378046E8 ; 6.418395950524597E7 ; 3.447282925664662E10 ; 33477.15999999997
95 ; 786183.9988796415 ; 4.016997231983185E8 ; 6.497049464279701E7 ; 3.48745182994904E10 ; 33833.29999999997
96 ; 788410.2921273556 ; 4.0171040158461344E8 ; 6.575667864167665E7 ; 3.527621802268872E10 ; 34189.439999999966
97 ; 789957.3134203475 ; 4.017210772573035E8 ; 6.6545088933804005E7 ; 3.567792842427333E10 ; 34545.579999999965
98 ; 791462.1110348107 ; 4.017317494916595E8 ; 6.733504624722435E7 ; 3.607964950153063E10 ; 34901.719999999965
99 ; 791404.0158275221 ; 4.017424175826626E8 ; 6.812650835825916E7 ; 3.648138125102229E10 ; 35257.859999999964
100 ; 792997.2152423642 ; 4.0175308084412915E8 ; 6.891791237408668E7 ; 3.688312366860496E10 ; 35613.99999999996
101 ; 794295.8213325877 ; 4.0176373860788214E8 ; 6.971090958932905E7 ; 3.728487674944909E10 ; 35970.13999999996
102 ; 794044.365716568 ; 4.0177439022296506E8 ; 7.050520541066164E7 ; 3.768664048805697E10 ; 36326.27999999996
103 ; 795606.5435295445 ; 4.01785035054896E8 ; 7.12992497763782E7 ; 3.808841487827993E10 ; 36682.41999999996
104 ; 796507.0634690543 ; 4.017956724849604E8 ; 7.209485631990774E7 ; 3.849019991333482E10 ; 37038.55999999996
105 ; 798637.1719347938 ; 4.018063019095396E8 ; 7.289136338337679E7 ; 3.8891995585819786E10 ; 37394.69999999996
106 ; 800383.5182623779 ; 4.018169227394732E8 ; 7.369000055531159E7 ; 3.9293801887729324E10 ; 37750.83999999996
107 ; 799364.9496755901 ; 4.018275343994544E8 ; 7.449038407357396E7 ; 3.9695618810468796E10 ; 38106.97999999996
108 ; 801109.8198902434 ; 4.018381363274542E8 ; 7.528974902324955E7 ; 4.009744634486825E10 ; 38463.11999999996
109 ; 802243.1870808714 ; 4.018487279741756E8 ; 7.60908588431398E7 ; 4.04992844811957E10 ; 38819.25999999996
110 ; 803758.4088272642 ; 4.0185930880253446E8 ; 7.689310203022067E7 ; 4.0901133209169876E10 ; 39175.39999999996
111 ; 806517.3670397921 ; 4.0186987828716576E8 ; 7.769686043904793E7 ; 4.130299251797241E10 ; 39531.53999999996
112 ; 808024.0989285886 ; 4.01880435913954E8 ; 7.850337780608772E7 ; 4.1704862396259575E10 ; 39887.67999999996
113 ; 806905.149674575 ; 4.0189098117958707E8 ; 7.93114019050163E7 ; 4.210674283217353E10 ; 40243.819999999956
114 ; 806611.0882431713 ; 4.019015135911312E8 ; 8.011830705469088E7 ; 4.250863381335312E10 ; 40599.959999999955
115 ; 807578.2003701007 ; 4.019120326656265E8 ; 8.092491814293405E7 ; 4.291053532694425E10 ; 40956.099999999955
116 ; 806882.5066832856 ; 4.019225379297023E8 ; 8.173249634330416E7 ; 4.331244735960988E10 ; 41312.239999999954
117 ; 807869.5660395785 ; 4.019330289192101E8 ; 8.253937884998745E7 ; 4.371436989753958E10 ; 41668.379999999954
118 ; 809222.7167613135 ; 4.0194350517887473E8 ; 8.334724841602702E7 ; 4.411630292645879E10 ; 42024.51999999995
119 ; 810629.0894655249 ; 4.019539662619615E8 ; 8.415647113278835E7 ; 4.4518246431637665E10 ; 42380.65999999995
120 ; 809100.0880422121 ; 4.01964411729959E8 ; 8.496710022225387E7 ; 4.492020039789963E10 ; 42736.79999999995
121 ; 811803.1520123783 ; 4.019748411522769E8 ; 8.577620031029609E7 ; 4.5322164809629585E10 ; 43092.93999999995
122 ; 811575.8744760051 ; 4.0198525410595727E8 ; 8.658800346230847E7 ; 4.572413965078186E10 ; 43449.07999999995
123 ; 812008.0926451725 ; 4.0199565017540026E8 ; 8.739957933678447E7 ; 4.612612490488782E10 ; 43805.21999999995
124 ; 812826.0647112078 ; 4.020060289521009E8 ; 8.821158742942964E7 ; 4.652812055506322E10 ; 44161.35999999995
125 ; 812832.8350945278 ; 4.0201639003439933E8 ; 8.902441349414085E7 ; 4.693012658401532E10 ; 44517.49999999995
126 ; 811765.7776709904 ; 4.0202673302724165E8 ; 8.983724632923537E7 ; 4.733214297404972E10 ; 44873.63999999995
127 ; 810656.1156383526 ; 4.020370575419514E8 ; 9.064901210690637E7 ; 4.7734169707076965E10 ; 45229.77999999995
128 ; 808226.9624218327 ; 4.020473631960119E8 ; 9.145966822254471E7 ; 4.813620676461892E10 ; 45585.91999999995
129 ; 810231.0687191198 ; 4.0205764961285776E8 ; 9.226789518496655E7 ; 4.853825412781493E10 ; 45942.05999999995
130 ; 808044.3409423084 ; 4.0206791642167604E8 ; 9.307812625368567E7 ; 4.894031177742779E10 ; 46298.199999999946
131 ; 810219.0390590093 ; 4.02078163257216E8 ; 9.388617059462798E7 ; 4.9342379693849464E10 ; 46654.339999999946
132 ; 808150.2093800607 ; 4.020883897596074E8 ; 9.469638963368699E7 ; 4.974445785710668E10 ; 47010.479999999945
133 ; 809831.8949672771 ; 4.020985955741863E8 ; 9.550453984306705E7 ; 5.014654624686629E10 ; 47366.619999999944
134 ; 812283.1560134927 ; 4.021087803513293E8 ; 9.631437173803432E7 ; 5.0548644842440475E10 ; 47722.759999999944
135 ; 809770.9851862858 ; 4.02118943746294E8 ; 9.712665489404781E7 ; 5.09507536227918E10 ; 48078.89999999994
136 ; 807701.4312298064 ; 4.021290854190668E8 ; 9.793642587923409E7 ; 5.135287256653809E10 ; 48435.03999999994
137 ; 809911.2976644193 ; 4.0213920503421736E8 ; 9.874412731046389E7 ; 5.175500165195716E10 ; 48791.17999999994
138 ; 810686.2613079221 ; 4.02149302260759E8 ; 9.955403860812831E7 ; 5.215714085699138E10 ; 49147.31999999994
139 ; 810025.9944876466 ; 4.021593767720154E8 ; 1.0036472486943623E8 ; 5.255929015925214E10 ; 49503.45999999994
140 ; 809488.8588957603 ; 4.021694282454921E8 ; 1.0117475086392388E8 ; 5.2961449536024155E10 ; 49859.59999999994
141 ; 809295.2078738551 ; 4.0217945636275446E8 ; 1.0198423972281964E8 ; 5.3363618964269646E10 ; 50215.73999999994
142 ; 810908.7761886264 ; 4.021894608093101E8 ; 1.0279353493069349E8 ; 5.37657984206324E10 ; 50571.87999999994
143 ; 808624.8033421274 ; 4.021994412744962E8 ; 1.0360444370688212E8 ; 5.416798788144171E10 ; 50928.01999999994
144 ; 808454.8723198674 ; 4.02209397451372E8 ; 1.0441306851022425E8 ; 5.457018732271621E10 ; 51284.15999999994
145 ; 811830.8564985944 ; 4.022193290366151E8 ; 1.0522152338254412E8 ; 5.497239672016758E10 ; 51640.29999999994
146 ; 812069.1027290861 ; 4.0222923573042214E8 ; 1.0603335423904271E8 ; 5.537461604920419E10 ; 51996.43999999994
147 ; 814473.3746820927 ; 4.022391172364142E8 ; 1.068454233417718E8 ; 5.5776845284934616E10 ; 52352.579999999936
148 ; 816712.0083317382 ; 4.022489732615452E8 ; 1.076598967164539E8 ; 5.617908440217103E10 ; 52708.719999999936
149 ; 818167.862847525 ; 4.0225880351601434E8 ; 1.0847660872478563E8 ; 5.658133337543257E10 ; 53064.859999999935
150 ; 819476.2956710502 ; 4.0226860771318245E8 ; 1.0929477658763315E8 ; 5.6983592178948586E10 ; 53420.999999999935
151 ; 821048.4864892028 ; 4.0227838556949085E8 ; 1.101142528833042E8 ; 5.7385860786661766E10 ; 53777.139999999934
152 ; 822684.6227491805 ; 4.0228813680438435E8 ; 1.109353013697934E8 ; 5.7788139172231255E10 ; 54133.27999999993
153 ; 822564.326184882 ; 4.0229786114023674E8 ; 1.1175798599254258E8 ; 5.819042730903564E10 ; 54489.41999999993
154 ; 825461.2822059833 ; 4.023075583022796E8 ; 1.1258055031872746E8 ; 5.859272517017587E10 ; 54845.55999999993
155 ; 826514.7967686602 ; 4.023172280185335E8 ; 1.1340601160093345E8 ; 5.899503272847815E10 ; 55201.69999999993
156 ; 831475.4709609674 ; 4.0232687001974237E8 ; 1.1423252639770211E8 ; 5.939734995649668E10 ; 55557.83999999993
157 ; 831482.3840766833 ; 4.0233648403931016E8 ; 1.1506400186866309E8 ; 5.9799676826516426E10 ; 55913.97999999993
158 ; 833886.1370407454 ; 4.0234606981324E8 ; 1.1589548425273977E8 ; 6.020201331055573E10 ; 56270.11999999993
159 ; 836017.8800619934 ; 4.0235562708007586E8 ; 1.1672937038978052E8 ; 6.060435938036897E10 ; 56626.25999999993
160 ; 835683.0778084697 ; 4.0236515558084637E8 ; 1.1756538826984252E8 ; 6.100671500744905E10 ; 56982.39999999993
161 ; 840019.8610164742 ; 4.023746550590108E8 ; 1.1840107134765099E8 ; 6.14090801630299E10 ; 57338.53999999993
162 ; 839837.3082377673 ; 4.023841252604072E8 ; 1.1924109120866746E8 ; 6.181145481808891E10 ; 57694.67999999993
163 ; 840036.9339792972 ; 4.023935659332025E8 ; 1.2008092851690522E8 ; 6.221383894334932E10 ; 58050.81999999993
164 ; 841880.2658562828 ; 4.024029768278443E8 ; 1.2092096545088452E8 ; 6.2616232509282524E10 ; 58406.95999999993
165 ; 843594.6062291291 ; 4.024123576970151E8 ; 1.217628457167408E8 ; 6.301863548611037E10 ; 58763.099999999926
166 ; 844871.5127832487 ; 4.0242170829558754E8 ; 1.2260644032296993E8 ; 6.342104784380738E10 ; 59119.239999999925
167 ; 846132.3181184111 ; 4.024310283805816E8 ; 1.2345131183575317E8 ; 6.382346955210297E10 ; 59475.379999999925
168 ; 846050.1654551751 ; 4.0244031771112394E8 ; 1.2429744415387158E8 ; 6.422590058048355E10 ; 59831.519999999924
169 ; 849014.9554778505 ; 4.0244957604840785E8 ; 1.2514349431932676E8 ; 6.462834089819467E10 ; 60187.65999999992
170 ; 850920.1688439245 ; 4.024588031556554E8 ; 1.259925092748046E8 ; 6.503079047424308E10 ; 60543.79999999992
171 ; 852826.2594577312 ; 4.024679987980806E8 ; 1.2684342944364853E8 ; 6.5433249277398735E10 ; 60899.93999999992
172 ; 853219.3004048612 ; 4.024771627428545E8 ; 1.2769625570310627E8 ; 6.5835717276196815E10 ; 61256.07999999992
173 ; 855078.443191845 ; 4.024862947590705E8 ; 1.2854947500351113E8 ; 6.623819443893967E10 ; 61612.21999999992
174 ; 857875.3540892255 ; 4.024953946177126E8 ; 1.2940455344670297E8 ; 6.664068073369874E10 ; 61968.35999999992
175 ; 859610.3911543768 ; 4.0250446209162307E8 ; 1.302624288007922E8 ; 6.704317612831645E10 ; 62324.49999999992
176 ; 860797.1785966405 ; 4.0251349695547235E8 ; 1.3112203919194658E8 ; 6.744568059040807E10 ; 62680.63999999992
177 ; 862908.2728532465 ; 4.0252249898573005E8 ; 1.3198283637054323E8 ; 6.784819408736355E10 ; 63036.77999999992
