CSV File for the Network on Day 193
1 - Minute m 
2 - Power Consumed at minute m 
3 - Power Produced at minute m 
4 - Energy Consumed since the beginning of the day 
5 - Energy Produced since the beginning of the day 
6 - Energy Lost since the beginning of the day 
 
0 ; 4947005.562279924 ; 6.33983724660503E8 ; 0.0 ; 0.0 ; 0.0
1 ; 4977078.828712908 ; 6.348931991459308E8 ; 4947005.562279924 ; 6.33983724660503E8 ; 0.0
2 ; 5029162.860462175 ; 6.376561769533547E8 ; 9924084.390992831 ; 1.2688769238064337E9 ; 0.0
3 ; 5074635.582774998 ; 6.422726838955436E8 ; 1.4953247251455005E7 ; 1.9065331007597885E9 ; 0.0
4 ; 5134770.176999761 ; 6.487427432868245E8 ; 2.0027882834230002E7 ; 2.548805784655332E9 ; 0.0
5 ; 5205408.080027166 ; 6.570663757540691E8 ; 2.516265301122976E7 ; 3.197548527942157E9 ; 0.0
6 ; 5292654.605489533 ; 6.672435990646077E8 ; 3.0368061091256928E7 ; 3.854614903696226E9 ; 0.0
7 ; 5432490.953100348 ; 6.792744279743209E8 ; 3.566071569674646E7 ; 4.521858502760834E9 ; 0.0
8 ; 5615891.146446281 ; 6.93158874098872E8 ; 4.109320664984681E7 ; 5.201132930735155E9 ; 0.0
9 ; 5897141.513596161 ; 7.088969458106711E8 ; 4.670909779629309E7 ; 5.894291804834027E9 ; 0.0
10 ; 6343604.801585259 ; 7.264886481636904E8 ; 5.260623930988925E7 ; 6.603188750644698E9 ; 0.0
11 ; 7038197.484960461 ; 7.459339828477083E8 ; 5.894984411147451E7 ; 7.329677398808389E9 ; 0.0
12 ; 8150431.31683092 ; 7.672329481729463E8 ; 6.5988041596434966E7 ; 8.075611381656097E9 ; 0.0
13 ; 9204666.066534378 ; 7.90385539085432E8 ; 7.413847291326588E7 ; 8.842844329829044E9 ; 0.0
14 ; 9341519.477139585 ; 8.153917472127559E8 ; 8.334313897980025E7 ; 9.633229868914476E9 ; 0.0
15 ; 9392393.42329574 ; 8.422515609392543E8 ; 9.268465845693985E7 ; 1.0448621616127232E10 ; 0.0
16 ; 9443288.267007675 ; 8.709649655090468E8 ; 1.0207705188023558E8 ; 1.1290873177066486E10 ; 0.0
17 ; 9494713.402936392 ; 9.015319431548028E8 ; 1.1152034014724326E8 ; 1.2161838142575533E10 ; 0.0
18 ; 9551379.97248242 ; 9.33952473249651E8 ; 1.2101505355017966E8 ; 1.3063370085730335E10 ; 0.0
19 ; 9607428.502923222 ; 9.682265324792641E8 ; 1.3056643352266207E8 ; 1.3997322558979986E10 ; 0.0
20 ; 9656243.67427967 ; 1.0043540950308732E9 ; 1.401738620255853E8 ; 1.496554909145925E10 ; 0.0
21 ; 9710787.71511484 ; 1.0423351327958053E9 ; 1.4983010569986495E8 ; 1.5969903186490122E10 ; 0.0
22 ; 9760776.894009145 ; 1.082169615582055E9 ; 1.595408934149798E8 ; 1.7012238319285927E10 ; 0.0
23 ; 9822607.322246118 ; 1.123857511333449E9 ; 1.6930167030898893E8 ; 1.809440793486798E10 ; 0.0
24 ; 9882652.936052976 ; 1.1673987863520684E9 ; 1.7912427763123503E8 ; 1.921826544620143E10 ; 0.0
25 ; 9931862.039201759 ; 1.2049216509099135E9 ; 1.89006930567288E8 ; 2.03856642325535E10 ; 0.0
26 ; 9985151.41446936 ; 1.2049473556900938E9 ; 1.9893879260648978E8 ; 2.1590585883463413E10 ; 0.0
27 ; 1.0044807184692774E7 ; 1.2049744791507711E9 ; 2.0892394402095914E8 ; 2.2795533239153507E10 ; 0.0
28 ; 1.0094494952343285E7 ; 1.2050029832127876E9 ; 2.189687512056519E8 ; 2.400050771830428E10 ; 0.0
29 ; 1.0145857758969337E7 ; 1.205032829216739E9 ; 2.290632461579952E8 ; 2.5205510701517067E10 ; 0.0
30 ; 1.0204888435488472E7 ; 1.205063978109669E9 ; 2.3920910391696453E8 ; 2.6410543530733807E10 ; 0.0
31 ; 1.0250658117532454E7 ; 1.2050963906197014E9 ; 2.49413992352453E8 ; 2.7615607508843475E10 ; 0.0
32 ; 1.0307930699561376E7 ; 1.2051300274177804E9 ; 2.5966465046998546E8 ; 2.8820703899463177E10 ; 0.0
33 ; 1.0350731284422357E7 ; 1.2051648492659974E9 ; 2.6997258116954684E8 ; 3.002583392688096E10 ; 0.0
34 ; 1.0396790147053855E7 ; 1.2052008171522746E9 ; 2.803233124539692E8 ; 3.1230998776146957E10 ; 0.0
35 ; 1.0443564974747092E7 ; 1.2052378924113965E9 ; 2.90720102601023E8 ; 3.2436199593299232E10 ; 0.0
36 ; 1.0487290880408242E7 ; 1.2052760368326159E9 ; 3.0116366757577014E8 ; 3.364143748571063E10 ; 0.0
37 ; 1.0535754758540636E7 ; 1.2053152127542155E9 ; 3.1165095845617837E8 ; 3.484671352254324E10 ; 0.0
38 ; 1.0575128604439238E7 ; 1.205355383145563E9 ; 3.22186713214719E8 ; 3.605202873529746E10 ; 0.0
39 ; 1.0619387168885786E7 ; 1.2053965116772897E9 ; 3.3276184181915826E8 ; 3.725738411844302E10 ; 0.0
40 ; 1.0664548182958627E7 ; 1.205438562780324E9 ; 3.43381228988044E8 ; 3.8462780630120316E10 ; 0.0
41 ; 1.070068017429845E7 ; 1.205481501694542E9 ; 3.540457771710026E8 ; 3.966821919290064E10 ; 0.0
42 ; 1.0734582510854632E7 ; 1.2055252945078473E9 ; 3.647464573453011E8 ; 4.0873700694595184E10 ; 0.0
43 ; 1.0768509542149764E7 ; 1.205569908186494E9 ; 3.7548103985615575E8 ; 4.2079225989103035E10 ; 0.0
44 ; 1.0801335740584185E7 ; 1.2056153105974648E9 ; 3.8624954939830554E8 ; 4.328479589728953E10 ; 0.0
45 ; 1.0838969998791378E7 ; 1.205661470523696E9 ; 3.9705088513888973E8 ; 4.449041120788699E10 ; 0.0
46 ; 1.0865254103906307E7 ; 1.2057083576729198E9 ; 4.078898551376811E8 ; 4.569607267841069E10 ; 0.0
47 ; 1.0890486561538626E7 ; 1.2057559426808512E9 ; 4.1875510924158746E8 ; 4.690178103608361E10 ; 0.0
48 ; 1.0919178131297156E7 ; 1.2058041971094074E9 ; 4.296455958031261E8 ; 4.8107536978764465E10 ; 0.0
49 ; 1.0942697319418084E7 ; 1.2058530934406047E9 ; 4.4056477393442327E8 ; 4.931334117587387E10 ; 0.0
50 ; 1.0969303279131075E7 ; 1.2059026050667288E9 ; 4.5150747125384134E8 ; 5.0519194269314476E10 ; 0.0
51 ; 1.0991250563322552E7 ; 1.2059527062773256E9 ; 4.624767745329724E8 ; 5.17250968743812E10 ; 0.0
52 ; 1.1001808851890951E7 ; 1.2060033722435112E9 ; 4.7346802509629494E8 ; 5.293104958065853E10 ; 0.0
53 ; 1.1027807336569756E7 ; 1.2060545790000558E9 ; 4.844698339481859E8 ; 5.413705295290204E10 ; 0.0
54 ; 1.1048784323880533E7 ; 1.20610630342565E9 ; 4.954976412847557E8 ; 5.534310753190209E10 ; 0.0
55 ; 1.1073111235011235E7 ; 1.2061585232217133E9 ; 5.0654642560863626E8 ; 5.654921383532774E10 ; 0.0
56 ; 1.1093357524696007E7 ; 1.206211216890078E9 ; 5.176195368436475E8 ; 5.775537235854945E10 ; 0.0
57 ; 1.1104723021297816E7 ; 1.206264363709825E9 ; 5.287128943683435E8 ; 5.896158357543953E10 ; 0.0
58 ; 1.1129681044048842E7 ; 1.2063179437135308E9 ; 5.398176173896413E8 ; 6.016784793914935E10 ; 0.0
59 ; 1.1141762912885506E7 ; 1.2063719376631432E9 ; 5.509472984336901E8 ; 6.1374165882862885E10 ; 0.0
60 ; 1.116171237824203E7 ; 1.206426327025676E9 ; 5.620890613465756E8 ; 6.258053782052603E10 ; 0.0
61 ; 1.1186632222187929E7 ; 1.2064810939488835E9 ; 5.732507737248176E8 ; 6.3786964147551704E10 ; 0.0
62 ; 1.1196335233621657E7 ; 1.2065362212370634E9 ; 5.844374059470055E8 ; 6.499344524150059E10 ; 0.0
63 ; 1.1216082487274885E7 ; 1.2065916923270955E9 ; 5.956337411806271E8 ; 6.619998146273765E10 ; 0.0
64 ; 1.1230119676102981E7 ; 1.2066474912648244E9 ; 6.06849823667902E8 ; 6.740657315506474E10 ; 0.0
65 ; 1.1241652854900658E7 ; 1.2067036026818643E9 ; 6.18079943344005E8 ; 6.861322064632957E10 ; 0.0
66 ; 1.1266797689942583E7 ; 1.206760011772894E9 ; 6.293215961989057E8 ; 6.981992424901143E10 ; 0.0
67 ; 1.1275704956835138E7 ; 1.2068167042734947E9 ; 6.405883938888483E8 ; 7.102668426078432E10 ; 0.0
68 ; 1.129926857720652E7 ; 1.2068736664385767E9 ; 6.518640988456835E8 ; 7.223350096505782E10 ; 0.0
69 ; 1.1311356105510706E7 ; 1.206930885021422E9 ; 6.6316336742289E8 ; 7.34403746314964E10 ; 0.0
70 ; 1.1325674091322415E7 ; 1.2069883472533703E9 ; 6.744747235284007E8 ; 7.464730551651782E10 ; 0.0
71 ; 1.1345320520757772E7 ; 1.207046040824163E9 ; 6.858003976197231E8 ; 7.58542938637712E10 ; 0.0
72 ; 1.1357184183731496E7 ; 1.2071039538629525E9 ; 6.971457181404809E8 ; 7.706133990459535E10 ; 0.0
73 ; 1.1370491201766143E7 ; 1.2071620749199843E9 ; 7.085029023242123E8 ; 7.82684438584583E10 ; 0.0
74 ; 1.1385301365722572E7 ; 1.2072203929489472E9 ; 7.198733935259784E8 ; 7.947560593337828E10 ; 0.0
75 ; 1.140005272750028E7 ; 1.2072788972899895E9 ; 7.31258694891701E8 ; 8.068282632632722E10 ; 0.0
76 ; 1.1408850965551957E7 ; 1.2073375776533918E9 ; 7.426587476192013E8 ; 8.189010522361722E10 ; 0.0
77 ; 1.1425049994330298E7 ; 1.2073964241038842E9 ; 7.540675985847533E8 ; 8.309744280127061E10 ; 0.0
78 ; 1.1425640253722258E7 ; 1.2074554270455983E9 ; 7.654926485790836E8 ; 8.43048392253745E10 ; 0.0
79 ; 1.1422950135974145E7 ; 1.2075145772076344E9 ; 7.769182888328059E8 ; 8.551229465242009E10 ; 0.0
80 ; 1.1426566562928386E7 ; 1.207573865630233E9 ; 7.8834123896878E8 ; 8.671980922962773E10 ; 0.0
81 ; 1.1421029313705608E7 ; 1.2076332836515284E9 ; 7.997678055317085E8 ; 8.792738309525797E10 ; 0.0
82 ; 1.1421232360507464E7 ; 1.2076928228948684E9 ; 8.11188834845414E8 ; 8.91350163789095E10 ; 0.0
83 ; 1.1420257606815964E7 ; 1.2077524752566829E9 ; 8.226100672059215E8 ; 9.034270920180437E10 ; 0.0
84 ; 1.1423744817498634E7 ; 1.2078122328948798E9 ; 8.340303248127375E8 ; 9.155046167706105E10 ; 0.0
85 ; 1.1421016266915265E7 ; 1.2078720882177505E9 ; 8.454540696302361E8 ; 9.275827390995593E10 ; 0.0
86 ; 1.1417954630223688E7 ; 1.207932033873365E9 ; 8.568750858971515E8 ; 9.396614599817368E10 ; 0.0
87 ; 1.1414299569980897E7 ; 1.207992062739441E9 ; 8.682930405273751E8 ; 9.517407803204704E10 ; 0.0
88 ; 1.1410694819125379E7 ; 1.2080521679136615E9 ; 8.79707340097356E8 ; 9.638207009478648E10 ; 0.0
89 ; 1.1409714389216185E7 ; 1.2081123427044313E9 ; 8.911180349164814E8 ; 9.759012226270015E10 ; 0.0
90 ; 1.1407964893631447E7 ; 1.2081725806220448E9 ; 9.025277493056976E8 ; 9.879823460540459E10 ; 0.0
91 ; 1.1409798395588918E7 ; 1.2082328753702564E9 ; 9.13935714199329E8 ; 1.0000640718602663E11 ; 0.0
92 ; 1.1402412742949896E7 ; 1.2082932208382294E9 ; 9.253455125949179E8 ; 1.0121464006139688E11 ; 0.0
93 ; 1.1394493887236081E7 ; 1.2083536110928526E9 ; 9.367479253378677E8 ; 1.024229332822351E11 ; 0.0
94 ; 1.1386741907112602E7 ; 1.2084140403714008E9 ; 9.481424192251039E8 ; 1.0363128689332796E11 ; 0.0
95 ; 1.1381756356080342E7 ; 1.2084745030745354E9 ; 9.595291611322165E8 ; 1.0483970093369936E11 ; 0.0
96 ; 1.1376339305964962E7 ; 1.2085349937596152E9 ; 9.709109174882967E8 ; 1.060481754367739E11 ; 0.0
97 ; 1.136738109104076E7 ; 1.2085955071343167E9 ; 9.822872567942617E8 ; 1.0725671043053351E11 ; 0.0
98 ; 1.1367447136014873E7 ; 1.2086560380505428E9 ; 9.936546378853024E8 ; 1.0846530593766783E11 ; 0.0
99 ; 1.1359121566645753E7 ; 1.2087165814986048E9 ; 1.0050220850213172E9 ; 1.0967396197571837E11 ; 0.0
100 ; 1.1352321788569923E7 ; 1.2087771326016722E9 ; 1.016381206587963E9 ; 1.1088267855721698E11 ; 0.0
101 ; 1.1352379676526675E7 ; 1.2088376866104715E9 ; 1.0277335283765329E9 ; 1.1209145568981865E11 ; 0.0
102 ; 1.1335656435922762E7 ; 1.2088982388982248E9 ; 1.0390859080530596E9 ; 1.1330029337642912E11 ; 0.0
103 ; 1.1334804779808313E7 ; 1.208958784955817E9 ; 1.0504215644889823E9 ; 1.1450919161532735E11 ; 0.0
104 ; 1.1325173741685165E7 ; 1.209019320387181E9 ; 1.0617563692687906E9 ; 1.1571815040028316E11 ; 0.0
105 ; 1.1314088228511265E7 ; 1.20907984090489E9 ; 1.0730815430104758E9 ; 1.1692716972067033E11 ; 0.0
106 ; 1.1307964167918546E7 ; 1.2091403423259463E9 ; 1.084395631238987E9 ; 1.1813624956157523E11 ; 0.0
107 ; 1.1306139793506332E7 ; 1.2092008205677605E9 ; 1.0957035954069054E9 ; 1.1934538990390117E11 ; 0.0
108 ; 1.1298541032547044E7 ; 1.2092612716443088E9 ; 1.1070097352004118E9 ; 1.2055459072446893E11 ; 0.0
109 ; 1.1286747991392372E7 ; 1.2093216916624608E9 ; 1.1183082762329588E9 ; 1.2176385199611324E11 ; 0.0
110 ; 1.1274165026530195E7 ; 1.2093820768184717E9 ; 1.1295950242243512E9 ; 1.229731736877757E11 ; 0.0
111 ; 1.1266039554378692E7 ; 1.209442423394627E9 ; 1.1408691892508814E9 ; 1.2418255576459416E11 ; 0.0
112 ; 1.1252934892861247E7 ; 1.2095027277560387E9 ; 1.1521352288052602E9 ; 1.2539199818798878E11 ; 0.0
113 ; 1.1244927506255265E7 ; 1.2095629863475778E9 ; 1.1633881636981215E9 ; 1.2660150091574483E11 ; 0.0
114 ; 1.1231892649708977E7 ; 1.2096231956909463E9 ; 1.1746330912043767E9 ; 1.278110639020924E11 ; 0.0
115 ; 1.1224295911018465E7 ; 1.2096833523818717E9 ; 1.1858649838540857E9 ; 1.2902068709778336E11 ; 0.0
116 ; 1.1206456718011966E7 ; 1.2097434530874274E9 ; 1.197089279765104E9 ; 1.3023037045016522E11 ; 0.0
117 ; 1.1198788241992826E7 ; 1.2098034945434668E9 ; 1.208295736483116E9 ; 1.3144011390325266E11 ; 0.0
118 ; 1.1191479954903608E7 ; 1.2098634735521698E9 ; 1.2194945247251086E9 ; 1.3264991739779613E11 ; 0.0
119 ; 1.1173349411181157E7 ; 1.2099233869796932E9 ; 1.2306860046800122E9 ; 1.338597808713483E11 ; 0.0
120 ; 1.116648550687184E7 ; 1.2099832317539227E9 ; 1.2418593540911934E9 ; 1.3506970425832799E11 ; 0.0
121 ; 1.1149266291834233E7 ; 1.2100430048623219E9 ; 1.2530258395980654E9 ; 1.3627968749008191E11 ; 0.0
122 ; 1.1132584049576245E7 ; 1.21010270334987E9 ; 1.2641751058898995E9 ; 1.3748973049494424E11 ; 0.0
123 ; 1.1120913541987412E7 ; 1.2101623243170886E9 ; 1.2753076899394758E9 ; 1.3869983319829413E11 ; 0.0
124 ; 1.1110031037599385E7 ; 1.210221864918152E9 ; 1.2864286034814632E9 ; 1.399099955226112E11 ; 0.0
125 ; 1.1103849745423978E7 ; 1.2102813223590765E9 ; 1.2975386345190625E9 ; 1.4112021738752936E11 ; 0.0
126 ; 1.1089219572405731E7 ; 1.2103406938959837E9 ; 1.3086424842644866E9 ; 1.4233049870988843E11 ; 0.0
127 ; 1.1064645372553201E7 ; 1.2103999768334389E9 ; 1.3197317038368924E9 ; 1.4354083940378442E11 ; 0.0
128 ; 1.105401713974942E7 ; 1.2104591685228584E9 ; 1.3307963492094455E9 ; 1.4475123938061786E11 ; 0.0
129 ; 1.1037341445999887E7 ; 1.2105182663609784E9 ; 1.341850366349195E9 ; 1.4596169854914072E11 ; 0.0
130 ; 1.1013855923169337E7 ; 1.2105772677883928E9 ; 1.3528877077951949E9 ; 1.471722168155017E11 ; 0.0
131 ; 1.098905540368362E7 ; 1.210636170288146E9 ; 1.3639015637183642E9 ; 1.483827940832901E11 ; 0.0
132 ; 1.095938961530202E7 ; 1.2106949713843873E9 ; 1.374890619122048E9 ; 1.4959343025357825E11 ; 0.0
133 ; 1.0933127485045418E7 ; 1.2107536686410756E9 ; 1.38585000873735E9 ; 1.5080412522496265E11 ; 0.0
134 ; 1.089878353654852E7 ; 1.2108122596607409E9 ; 1.3967831362223954E9 ; 1.5201487889360373E11 ; 0.0
135 ; 1.0871684686225582E7 ; 1.2108707420832922E9 ; 1.407681919758944E9 ; 1.5322569115326447E11 ; 0.0
136 ; 1.0843073318937508E7 ; 1.2109291135848758E9 ; 1.4185536044451697E9 ; 1.5443656189534775E11 ; 0.0
137 ; 1.081117060185802E7 ; 1.2109873718767772E9 ; 1.4293966777641072E9 ; 1.5564749100893262E11 ; 0.0
138 ; 1.0777584087431291E7 ; 1.2110455147043679E9 ; 1.4402078483659654E9 ; 1.568584783808094E11 ; 0.0
139 ; 1.0748147098112972E7 ; 1.2111035398460944E9 ; 1.4509854324533966E9 ; 1.5806952389551376E11 ; 0.0
140 ; 1.0716639941477723E7 ; 1.2111614451125057E9 ; 1.4617335795515096E9 ; 1.5928062743535986E11 ; 0.0
141 ; 1.0679670988192324E7 ; 1.2112192283453197E9 ; 1.4724502194929874E9 ; 1.6049178888047238E11 ; 0.0
142 ; 1.0655361336272154E7 ; 1.2112768874165273E9 ; 1.4831298904811797E9 ; 1.617030081088177E11 ; 0.0
143 ; 1.061634704805744E7 ; 1.2113344202275286E9 ; 1.493785251817452E9 ; 1.6291428499623422E11 ; 0.0
144 ; 1.0588105120290982E7 ; 1.2113918247083068E9 ; 1.5044015988655095E9 ; 1.6412561941646176E11 ; 0.0
145 ; 1.057102720327925E7 ; 1.2114490988166294E9 ; 1.5149897039858005E9 ; 1.6533701124117007E11 ; 0.0
146 ; 1.055732616838821E7 ; 1.2115062405372832E9 ; 1.5255607311890798E9 ; 1.665484603399867E11 ; 0.0
147 ; 1.0541292971709551E7 ; 1.2115632478813396E9 ; 1.536118057357468E9 ; 1.67759966580524E11 ; 0.0
148 ; 1.0523874391896533E7 ; 1.2116201188854427E9 ; 1.5466593503291774E9 ; 1.6897152982840533E11 ; 0.0
149 ; 1.0511531939146025E7 ; 1.2116768516111326E9 ; 1.5571832247210739E9 ; 1.7018314994729077E11 ; 0.0
150 ; 1.0494439644041035E7 ; 1.211733444144186E9 ; 1.56769475666022E9 ; 1.7139482679890192E11 ; 0.0
151 ; 1.047446550263359E7 ; 1.2117898945939884E9 ; 1.578189196304261E9 ; 1.726065602430461E11 ; 0.0
152 ; 1.046634534706076E7 ; 1.2118462010929244E9 ; 1.5886636618068945E9 ; 1.738183501376401E11 ; 0.0
153 ; 1.0445246308505226E7 ; 1.2119023617957969E9 ; 1.5991300071539552E9 ; 1.7503019633873303E11 ; 0.0
154 ; 1.0429660212437356E7 ; 1.2119583748792613E9 ; 1.6095752534624605E9 ; 1.7624209870052884E11 ; 0.0
155 ; 1.041341228328305E7 ; 1.2120142385412867E9 ; 1.620004913674898E9 ; 1.774540570754081E11 ; 0.0
156 ; 1.0397994495716799E7 ; 1.2120699510006332E9 ; 1.630418325958181E9 ; 1.786660713139494E11 ; 0.0
157 ; 1.0379752481721023E7 ; 1.2121255104963505E9 ; 1.6408163204538977E9 ; 1.7987814126495004E11 ; 0.0
158 ; 1.0368400620030455E7 ; 1.2121809152872932E9 ; 1.6511960729356186E9 ; 1.8109026677544638E11 ; 0.0
159 ; 1.035128018927421E7 ; 1.2122361636516562E9 ; 1.661564473555649E9 ; 1.8230244769073367E11 ; 0.0
160 ; 1.033525938477316E7 ; 1.2122912538865247E9 ; 1.6719157537449234E9 ; 1.835146838543853E11 ; 0.0
161 ; 1.0313638771229925E7 ; 1.2123461843074427E9 ; 1.6822510131296966E9 ; 1.8472697510827185E11 ; 0.0
162 ; 1.0296606590471016E7 ; 1.2124009532479954E9 ; 1.6925646519009266E9 ; 1.8593932129257928E11 ; 0.0
163 ; 1.0280437608650528E7 ; 1.2124555590594075E9 ; 1.7028612584913976E9 ; 1.8715172224582727E11 ; 0.0
164 ; 1.026366414572484E7 ; 1.2125100001101563E9 ; 1.713141696100048E9 ; 1.883641778048867E11 ; 0.0
165 ; 1.0252370752266843E7 ; 1.2125642747855983E9 ; 1.7234053602457728E9 ; 1.8957668780499686E11 ; 0.0
166 ; 1.0226535620954745E7 ; 1.2126183814876084E9 ; 1.7336577309980397E9 ; 1.9078925207978244E11 ; 0.0
167 ; 1.0212790365565363E7 ; 1.2126723186342335E9 ; 1.7438842666189945E9 ; 1.9200187046127005E11 ; 0.0
168 ; 1.0200459228688782E7 ; 1.2127260846593573E9 ; 1.7540970569845598E9 ; 1.932145427799043E11 ; 0.0
169 ; 1.0184246825157218E7 ; 1.2127796780123782E9 ; 1.7642975162132485E9 ; 1.9442726886456366E11 ; 0.0
170 ; 1.0161703480785768E7 ; 1.2128330971578956E9 ; 1.7744817630384057E9 ; 1.9564004854257605E11 ; 0.0
171 ; 1.0140042757225577E7 ; 1.2128863405754123E9 ; 1.7846434665191915E9 ; 1.9685288163973395E11 ; 0.0
172 ; 1.0123836755977748E7 ; 1.2129394067590415E9 ; 1.794783509276417E9 ; 1.9806576798030936E11 ; 0.0
173 ; 1.0112792051774345E7 ; 1.2129922942172291E9 ; 1.8049073460323946E9 ; 1.992787073870684E11 ; 0.0
174 ; 1.0103009856002618E7 ; 1.213045001472483E9 ; 1.815020138084169E9 ; 2.004916996812856E11 ; 0.0
175 ; 1.0087895767480306E7 ; 1.2130975270611117E9 ; 1.8251231479401715E9 ; 2.017047446827581E11 ; 0.0
176 ; 1.0076875618821539E7 ; 1.2131498695329733E9 ; 1.8352110437076519E9 ; 2.029178422098192E11 ; 0.0
177 ; 1.0056028868153196E7 ; 1.2132020274512324E9 ; 1.8452879193264735E9 ; 2.0413099207935217E11 ; 0.0
178 ; 1.005091530555595E7 ; 1.213253999392126E9 ; 1.8553439481946266E9 ; 2.053441941068034E11 ; 0.0
179 ; 1.003948986723027E7 ; 1.2133057839447367E9 ; 1.8653948635001826E9 ; 2.0655744810619553E11 ; 0.0
180 ; 1.0031626034113616E7 ; 1.213357379710773E9 ; 1.8754343533674128E9 ; 2.0777075389014026E11 ; 0.0
181 ; 1.001179439989686E7 ; 1.2134087853043604E9 ; 1.8854659794015265E9 ; 2.0898411126985104E11 ; 0.0
182 ; 1.0002409608864088E7 ; 1.2134599993518353E9 ; 1.8954777738014233E9 ; 2.101975200551554E11 ; 0.0
183 ; 9992208.03311846 ; 1.213511020491549E9 ; 1.9054801834102874E9 ; 2.1141098005450723E11 ; 0.0
184 ; 9979481.37279971 ; 1.2135618473736773E9 ; 1.9154723914434059E9 ; 2.1262449107499878E11 ; 0.0
185 ; 9975860.373684725 ; 1.213612478660036E9 ; 1.9254518728162055E9 ; 2.1383805292237247E11 ; 0.0
186 ; 9952863.348563261 ; 1.2136629130239048E9 ; 1.9354277331898901E9 ; 2.150516654010325E11 ; 0.0
187 ; 9942954.6735976 ; 1.2137131491498535E9 ; 1.9453805965384533E9 ; 2.162653283140564E11 ; 0.0
188 ; 9925168.17089723 ; 1.2137631857335782E9 ; 1.955323551212051E9 ; 2.1747904146320624E11 ; 0.0
189 ; 9928636.06467539 ; 1.21381302148174E9 ; 1.9652487193829482E9 ; 2.1869280464893982E11 ; 0.0
190 ; 9913810.161188196 ; 1.21386265511181E9 ; 1.9751773554476235E9 ; 2.1990661767042157E11 ; 0.0
191 ; 9898370.326534778 ; 1.2139120853519206E9 ; 1.9850911656088116E9 ; 2.211204803255334E11 ; 0.0
192 ; 9883679.494520616 ; 1.2139613109407196E9 ; 1.9949895359353464E9 ; 2.223343924108853E11 ; 0.0
193 ; 9873664.323333304 ; 1.2140103306272314E9 ; 2.004873215429867E9 ; 2.2354835372182605E11 ; 0.0
194 ; 9859280.283490913 ; 1.2140591431707206E9 ; 2.0147468797532003E9 ; 2.2476236405245328E11 ; 0.0
195 ; 9843514.536859633 ; 1.2141077473405633E9 ; 2.0246061600366912E9 ; 2.25976423195624E11 ; 0.0
196 ; 9837214.410673216 ; 1.214156141916119E9 ; 2.034449674573551E9 ; 2.2719053094296457E11 ; 0.0
