CSV File for the Network on Day 36
1 - Minute m 
2 - Power Consumed at minute m 
3 - Power Produced at minute m 
4 - Energy Consumed since the beginning of the day 
5 - Energy Produced since the beginning of the day 
6 - Energy Lost since the beginning of the day 
 
0 ; 3.839118788896808E7 ; 6.325631967911047E8 ; 0.0 ; 0.0 ; 0.0
1 ; 3.843525456008188E7 ; 6.334644790244468E8 ; 3.839118788896808E7 ; 6.325631967911047E8 ; 0.0
2 ; 3.847705092155358E7 ; 6.362198695424937E8 ; 7.682644244904995E7 ; 1.2660276758155515E9 ; 0.0
3 ; 3.852232743420117E7 ; 6.408294692621202E8 ; 1.1530349337060353E8 ; 1.902247545358045E9 ; 0.0
4 ; 3.85829541661687E7 ; 6.472933735176256E8 ; 1.538258208048047E8 ; 2.5430770146201653E9 ; 0.0
5 ; 3.865355922560864E7 ; 6.5561167015537E8 ; 1.924087749709734E8 ; 3.1903703881377907E9 ; 0.0
6 ; 3.8744835448671505E7 ; 6.657844376133257E8 ; 2.3106233419658205E8 ; 3.8459820582931604E9 ; 0.0
7 ; 3.8872572914096504E7 ; 6.77811743069956E8 ; 2.6980716964525354E8 ; 4.5117664959064865E9 ; 0.0
8 ; 3.905749770852956E7 ; 6.916936407547184E8 ; 3.0867974255935E8 ; 5.189578238976442E9 ; 0.0
9 ; 3.934047354084982E7 ; 7.074301705131426E8 ; 3.477372402678796E8 ; 5.881271879731161E9 ; 0.0
10 ; 3.9778306048907116E7 ; 7.250213567115744E8 ; 3.870777138087294E8 ; 6.588702050244304E9 ; 0.0
11 ; 4.046885615730192E7 ; 7.4446720755018E8 ; 4.268560198576365E8 ; 7.313723406955878E9 ; 0.0
12 ; 4.1577880537340365E7 ; 7.657677148287925E8 ; 4.673248760149384E8 ; 8.058190614506058E9 ; 0.0
13 ; 4.264041381005008E7 ; 7.88922854181067E8 ; 5.0890275655227876E8 ; 8.82395832933485E9 ; 0.0
14 ; 4.275988623509864E7 ; 8.139325857614739E8 ; 5.515431703623289E8 ; 9.612881183515917E9 ; 0.0
15 ; 4.281126680795437E7 ; 8.407968553405552E8 ; 5.943030565974275E8 ; 1.0426813769277391E10 ; 0.0
16 ; 4.286183144169995E7 ; 8.695155957398478E8 ; 6.371143234053819E8 ; 1.1267610624617947E10 ; 0.0
17 ; 4.291437270794098E7 ; 9.000887285213794E8 ; 6.799761548470819E8 ; 1.2137126220357794E10 ; 0.0
18 ; 4.2959287843229175E7 ; 9.325161658387899E8 ; 7.228905275550228E8 ; 1.3037214948879173E10 ; 0.0
19 ; 4.301267875943468E7 ; 9.667978123577802E8 ; 7.65849815398252E8 ; 1.3969731114717964E10 ; 0.0
20 ; 4.3065230991154775E7 ; 1.0029335671614748E9 ; 8.088624941576867E8 ; 1.4936528927075745E10 ; 0.0
21 ; 4.311462047324833E7 ; 1.0409233255694294E9 ; 8.519277251488415E8 ; 1.5939462494237219E10 ; 0.0
22 ; 4.3168973878778845E7 ; 1.0807669808151698E9 ; 8.950423456220899E8 ; 1.6980385819806648E10 ; 0.0
23 ; 4.321485847002369E7 ; 1.122464425544192E9 ; 9.382113195008687E8 ; 1.806115280062182E10 ; 0.0
24 ; 4.327149170869904E7 ; 1.1660155531105137E9 ; 9.814261779708924E8 ; 1.918361722616601E10 ; 0.0
25 ; 4.3319838900962174E7 ; 1.2035485040530958E9 ; 1.0246976696795914E9 ; 2.0349632779276527E10 ; 0.0
26 ; 4.336496864315673E7 ; 1.2035844631988723E9 ; 1.0680175085805535E9 ; 2.1553181283329624E10 ; 0.0
27 ; 4.342136111194194E7 ; 1.2036219475001657E9 ; 1.1113824772237103E9 ; 2.2756765746528496E10 ; 0.0
28 ; 4.3466916983407915E7 ; 1.203660862027291E9 ; 1.1548038383356524E9 ; 2.396038769402866E10 ; 0.0
29 ; 4.35121868436178E7 ; 1.2037011160848083E9 ; 1.1982707553190603E9 ; 2.516404855605595E10 ; 0.0
30 ; 4.35587810372487E7 ; 1.2037426234351807E9 ; 1.2417829421626782E9 ; 2.636774967214076E10 ; 0.0
31 ; 4.3598450598569155E7 ; 1.203785302411159E9 ; 1.2853417231999269E9 ; 2.757149229557594E10 ; 0.0
32 ; 4.364422435164007E7 ; 1.203829075937469E9 ; 1.328940173798496E9 ; 2.87752775979871E10 ; 0.0
33 ; 4.369319066943139E7 ; 1.2038738714805102E9 ; 1.372584398150136E9 ; 2.997910667392457E10 ; 0.0
34 ; 4.3738218221755184E7 ; 1.2039196209425554E9 ; 1.4162775888195674E9 ; 3.118298054540508E10 ; 0.0
35 ; 4.377429330258341E7 ; 1.2039662605146277E9 ; 1.4600158070413227E9 ; 3.2386900166347633E10 ; 0.0
36 ; 4.381590513095595E7 ; 1.204013730499969E9 ; 1.5037901003439062E9 ; 3.3590866426862263E10 ; 0.0
37 ; 4.385801403099741E7 ; 1.2040619751179273E9 ; 1.547606005474862E9 ; 3.479488015736223E10 ; 0.0
38 ; 4.389643846589296E7 ; 1.2041109422961903E9 ; 1.5914640195058596E9 ; 3.5998942132480156E10 ; 0.0
39 ; 4.392475494291487E7 ; 1.2041605834576416E9 ; 1.6353604579717526E9 ; 3.7203053074776344E10 ; 0.0
40 ; 4.396216341150509E7 ; 1.2042108533067267E9 ; 1.6792852129146676E9 ; 3.8407213658233986E10 ; 0.0
41 ; 4.399300961033268E7 ; 1.2042617096190026E9 ; 1.7232473763261726E9 ; 3.961142451154071E10 ; 0.0
42 ; 4.401687333355396E7 ; 1.2043131130365987E9 ; 1.7672403859365053E9 ; 4.081568622115971E10 ; 0.0
43 ; 4.405274850533965E7 ; 1.204365026871509E9 ; 1.8112572592700593E9 ; 4.201999933419631E10 ; 0.0
44 ; 4.407296751241081E7 ; 1.2044174169180121E9 ; 1.855310007775399E9 ; 4.322436436106782E10 ; 0.0
45 ; 4.409841314275658E7 ; 1.2044702512750106E9 ; 1.8993829752878098E9 ; 4.442878177798583E10 ; 0.0
46 ; 4.4118387950845495E7 ; 1.2045235001787071E9 ; 1.9434813884305663E9 ; 4.563325202926084E10 ; 0.0
47 ; 4.41473254149652E7 ; 1.2045771358457236E9 ; 1.9875997763814118E9 ; 4.6837775529439545E10 ; 0.0
48 ; 4.416053351948684E7 ; 1.2046311323265705E9 ; 2.031747101796377E9 ; 4.804235266528527E10 ; 0.0
49 ; 4.417851317081768E7 ; 1.2046854653691978E9 ; 2.0759076353158638E9 ; 4.924698379761184E10 ; 0.0
50 ; 4.418740938754189E7 ; 1.2047401122922535E9 ; 2.1200861484866815E9 ; 5.045166926298103E10 ; 0.0
51 ; 4.419874319835911E7 ; 1.2047950518676035E9 ; 2.164273557874223E9 ; 5.1656409375273285E10 ; 0.0
52 ; 4.42135221379459E7 ; 1.2048502642116156E9 ; 2.2084723010725822E9 ; 5.286120442714089E10 ; 0.0
53 ; 4.4222704278517276E7 ; 1.2049057306846862E9 ; 2.2526858232105284E9 ; 5.406605469135251E10 ; 0.0
54 ; 4.423255416523978E7 ; 1.2049614337984862E9 ; 2.2969085274890456E9 ; 5.527096042203719E10 ; 0.0
55 ; 4.424790712614823E7 ; 1.2050173571303997E9 ; 2.3411410816542854E9 ; 5.647592185583568E10 ; 0.0
56 ; 4.425958161744836E7 ; 1.205073485244645E9 ; 2.3853889887804337E9 ; 5.768093921296608E10 ; 0.0
57 ; 4.426854322343517E7 ; 1.2051298036195931E9 ; 2.429648570397882E9 ; 5.8886012698210724E10 ; 0.0
58 ; 4.428307564090762E7 ; 1.2051862985808074E9 ; 2.4739171136213174E9 ; 6.0091142501830315E10 ; 0.0
59 ; 4.4288463240803525E7 ; 1.2052429572393692E9 ; 2.518200189262225E9 ; 6.1296328800411125E10 ; 0.0
60 ; 4.429614169541836E7 ; 1.2052997674350705E9 ; 2.562488652503029E9 ; 6.25015717576505E10 ; 0.0
61 ; 4.43088390411816E7 ; 1.2053567176840906E9 ; 2.606784794198447E9 ; 6.370687152508557E10 ; 0.0
62 ; 4.430838361289282E7 ; 1.2054137971307898E9 ; 2.651093633239629E9 ; 6.491222824276966E10 ; 0.0
63 ; 4.4322883642075405E7 ; 1.2054709955032911E9 ; 2.6954020168525214E9 ; 6.611764203990045E10 ; 0.0
64 ; 4.4323157332640715E7 ; 1.2055283030725374E9 ; 2.739724900494597E9 ; 6.732311303540374E10 ; 0.0
65 ; 4.433281815717229E7 ; 1.205585710614543E9 ; 2.7840480578272376E9 ; 6.852864133847628E10 ; 0.0
66 ; 4.434221109885071E7 ; 1.2056432093755715E9 ; 2.82838087598441E9 ; 6.973422704909082E10 ; 0.0
67 ; 4.43465731158143E7 ; 1.2057007910400057E9 ; 2.8727230870832605E9 ; 7.093987025846638E10 ; 0.0
68 ; 4.435036514403823E7 ; 1.2057584477006812E9 ; 2.9170696601990747E9 ; 7.21455710495064E10 ; 0.0
69 ; 4.435726702984826E7 ; 1.2058161718314867E9 ; 2.961420025343113E9 ; 7.335132949720708E10 ; 0.0
70 ; 4.435649477798687E7 ; 1.2058739562620416E9 ; 3.005777292372961E9 ; 7.455714566903856E10 ; 0.0
71 ; 4.4366531883232884E7 ; 1.2059317941542811E9 ; 3.050133787150948E9 ; 7.57630196253006E10 ; 0.0
72 ; 4.436929184364484E7 ; 1.2059896789807963E9 ; 3.094500319034181E9 ; 7.696895141945488E10 ; 0.0
73 ; 4.436474559424046E7 ; 1.2060476045047786E9 ; 3.1388696108778257E9 ; 7.817494109843567E10 ; 0.0
74 ; 4.436631667467672E7 ; 1.2061055647614489E9 ; 3.1832343564720664E9 ; 7.938098870294044E10 ; 0.0
75 ; 4.437199282200338E7 ; 1.206163554040842E9 ; 3.2276006731467433E9 ; 8.058709426770189E10 ; 0.0
76 ; 4.437292978088734E7 ; 1.2062215668718464E9 ; 3.2719726659687467E9 ; 8.179325782174274E10 ; 0.0
77 ; 4.437724808304116E7 ; 1.2062795980073898E9 ; 3.316345595749634E9 ; 8.299947938861458E10 ; 0.0
78 ; 4.436185593527794E7 ; 1.206337642410688E9 ; 3.360722843832675E9 ; 8.420575898662196E10 ; 0.0
79 ; 4.434699142807707E7 ; 1.2063956952424674E9 ; 3.405084699767953E9 ; 8.541209662903265E10 ; 0.0
80 ; 4.4340034897485584E7 ; 1.2064537518490882E9 ; 3.44943169119603E9 ; 8.661849232427512E10 ; 0.0
81 ; 4.431700375220671E7 ; 1.2065118077514951E9 ; 3.493771726093516E9 ; 8.78249460761242E10 ; 0.0
82 ; 4.4301901122138076E7 ; 1.206569858634936E9 ; 3.5380887298457227E9 ; 8.90314578838757E10 ; 0.0
83 ; 4.429605285925194E7 ; 1.2066279003393836E9 ; 3.5823906309678607E9 ; 9.023802774251064E10 ; 0.0
84 ; 4.427981912382356E7 ; 1.2066859288506103E9 ; 3.6266866838271127E9 ; 9.144465564285002E10 ; 0.0
85 ; 4.426901687350153E7 ; 1.2067439402918673E9 ; 3.6709665029509363E9 ; 9.265134157170064E10 ; 0.0
86 ; 4.4250377370158106E7 ; 1.2068019309161196E9 ; 3.7152355198244376E9 ; 9.385808551199251E10 ; 0.0
87 ; 4.423777138221626E7 ; 1.2068598970987976E9 ; 3.759485897194596E9 ; 9.506488744290863E10 ; 0.0
88 ; 4.4218544179341786E7 ; 1.2069178353310251E9 ; 3.8037236685768123E9 ; 9.627174734000743E10 ; 0.0
89 ; 4.419870156240096E7 ; 1.2069757422132902E9 ; 3.847942212756154E9 ; 9.747866517533846E10 ; 0.0
90 ; 4.417661448415209E7 ; 1.2070336144495265E9 ; 3.892140914318555E9 ; 9.868564091755174E10 ; 0.0
91 ; 4.417031603185184E7 ; 1.2070914488415754E9 ; 3.936317528802707E9 ; 9.989267453200127E10 ; 0.0
92 ; 4.414541056913893E7 ; 1.2071492422839973E9 ; 3.980487844834559E9 ; 1.0109976598084283E11 ; 0.0
93 ; 4.4124146681374386E7 ; 1.2072069917592163E9 ; 4.024633255403698E9 ; 1.0230691522312683E11 ; 0.0
94 ; 4.410700815403919E7 ; 1.207264694332964E9 ; 4.0687574020850725E9 ; 1.0351412221488605E11 ; 0.0
95 ; 4.409734560112837E7 ; 1.2073223471500099E9 ; 4.112864410239112E9 ; 1.0472138690921901E11 ; 0.0
96 ; 4.406677120120665E7 ; 1.207379947430153E9 ; 4.1569617558402405E9 ; 1.0592870925636902E11 ; 0.0
97 ; 4.405098069921568E7 ; 1.207437492464459E9 ; 4.201028527041447E9 ; 1.0713608920379916E11 ; 0.0
98 ; 4.403095297493563E7 ; 1.207494979611726E9 ; 4.245079507740663E9 ; 1.0834352669626363E11 ; 0.0
99 ; 4.4007359265272155E7 ; 1.2075524062951624E9 ; 4.2891104607155986E9 ; 1.0955102167587535E11 ; 0.0
100 ; 4.3985263074043676E7 ; 1.2076097699992628E9 ; 4.333117819980871E9 ; 1.1075857408217052E11 ; 0.0
101 ; 4.396358168519957E7 ; 1.2076670682668695E9 ; 4.377103083054914E9 ; 1.1196618385216978E11 ; 0.0
102 ; 4.3939961136407375E7 ; 1.207724298696406E9 ; 4.421066664740114E9 ; 1.1317385092043666E11 ; 0.0
103 ; 4.3912977796945274E7 ; 1.207781458939271E9 ; 4.465006625876522E9 ; 1.1438157521913307E11 ; 0.0
104 ; 4.3890428266614795E7 ; 1.2078385466973853E9 ; 4.508919603673468E9 ; 1.1558935667807234E11 ; 0.0
105 ; 4.386496699501552E7 ; 1.2078955597208762E9 ; 4.552810031940083E9 ; 1.1679719522476973E11 ; 0.0
106 ; 4.384361130456669E7 ; 1.2079524958058965E9 ; 4.596674998935098E9 ; 1.180050907844906E11 ; 0.0
107 ; 4.381462465611866E7 ; 1.2080093527925653E9 ; 4.640518610239664E9 ; 1.192130432802965E11 ; 0.0
108 ; 4.378863419307947E7 ; 1.2080661285630236E9 ; 4.684333234895782E9 ; 1.2042105263308907E11 ; 0.0
109 ; 4.376958069922074E7 ; 1.2081228210396E9 ; 4.728121869088861E9 ; 1.2162911876165208E11 ; 0.0
110 ; 4.374131782548668E7 ; 1.208179428183076E9 ; 4.771891449788082E9 ; 1.2283724158269168E11 ; 0.0
111 ; 4.3711706601859026E7 ; 1.2082359479910462E9 ; 4.815632767613569E9 ; 1.2404542101087476E11 ; 0.0
112 ; 4.368838967668149E7 ; 1.2082923784963696E9 ; 4.859344474215428E9 ; 1.252536569588658E11 ; 0.0
113 ; 4.365615335746026E7 ; 1.2083487177657027E9 ; 4.90303286389211E9 ; 1.2646194933736217E11 ; 0.0
114 ; 4.362854378660111E7 ; 1.2084049638981113E9 ; 4.94668901724957E9 ; 1.2767029805512787E11 ; 0.0
115 ; 4.359998470149229E7 ; 1.2084611150237577E9 ; 4.990317561036171E9 ; 1.2887870301902599E11 ; 0.0
116 ; 4.356906268752186E7 ; 1.208517169302656E9 ; 5.033917545737663E9 ; 1.3008716413404974E11 ; 0.0
117 ; 4.354198009506568E7 ; 1.2085731249234922E9 ; 5.077486608425185E9 ; 1.312956813033524E11 ; 0.0
118 ; 4.3520623478890285E7 ; 1.2086289801025085E9 ; 5.121028588520251E9 ; 1.325042544282759E11 ; 0.0
119 ; 4.348282384738697E7 ; 1.2086847330824416E9 ; 5.164549211999142E9 ; 1.337128834083784E11 ; 0.0
120 ; 4.344917425736617E7 ; 1.2087403821315184E9 ; 5.208032035846529E9 ; 1.3492156814146085E11 ; 0.0
121 ; 4.34190757495903E7 ; 1.208795925542502E9 ; 5.251481210103895E9 ; 1.3613030852359236E11 ; 0.0
122 ; 4.33847161117638E7 ; 1.208851361631787E9 ; 5.294900285853485E9 ; 1.3733910444913486E11 ; 0.0
123 ; 4.335885783263956E7 ; 1.2089066887385378E9 ; 5.338285001965249E9 ; 1.3854795581076663E11 ; 0.0
124 ; 4.332374681314233E7 ; 1.2089619052238736E9 ; 5.381643859797889E9 ; 1.3975686249950516E11 ; 0.0
125 ; 4.329482794116422E7 ; 1.2090170094700913E9 ; 5.424967606611032E9 ; 1.4096582440472903E11 ; 0.0
126 ; 4.3255829622737795E7 ; 1.2090719998799288E9 ; 5.468262434552196E9 ; 1.4217484141419913E11 ; 0.0
127 ; 4.321921484303008E7 ; 1.209126874875862E9 ; 5.511518264174933E9 ; 1.4338391341407907E11 ; 0.0
128 ; 4.319112361714609E7 ; 1.2091816328994381E9 ; 5.554737479017963E9 ; 1.4459304028895493E11 ; 0.0
129 ; 4.314970037310972E7 ; 1.2092362724106426E9 ; 5.59792860263511E9 ; 1.4580222192185437E11 ; 0.0
130 ; 4.310701434014295E7 ; 1.2092907918872926E9 ; 5.64107830300822E9 ; 1.47011458194265E11 ; 0.0
131 ; 4.3065611664724156E7 ; 1.2093451898244631E9 ; 5.684185317348363E9 ; 1.482207489861523E11 ; 0.0
132 ; 4.3013558210200965E7 ; 1.209399464733939E9 ; 5.727250929013087E9 ; 1.4943009417597678E11 ; 0.0
133 ; 4.295785161409319E7 ; 1.2094536151436932E9 ; 5.770264487223289E9 ; 1.5063949364071072E11 ; 0.0
134 ; 4.292008395204054E7 ; 1.2095076395973897E9 ; 5.813222338837381E9 ; 1.5184894725585443E11 ; 0.0
135 ; 4.285855860494343E7 ; 1.2095615366539104E9 ; 5.856142422789422E9 ; 1.530584548954518E11 ; 0.0
136 ; 4.281775603227295E7 ; 1.2096153048869023E9 ; 5.899000981394365E9 ; 1.542680164321057E11 ; 0.0
137 ; 4.276405961890406E7 ; 1.2096689428843477E9 ; 5.941818737426639E9 ; 1.554776317369926E11 ; 0.0
138 ; 4.2708132915928334E7 ; 1.2097224492481532E9 ; 5.984582797045543E9 ; 1.5668730067987695E11 ; 0.0
139 ; 4.265698665492748E7 ; 1.2097758225937579E9 ; 6.027290929961471E9 ; 1.578970231291251E11 ; 0.0
140 ; 4.2606673053886175E7 ; 1.2098290615497594E9 ; 6.069947916616398E9 ; 1.5910679895171884E11 ; 0.0
141 ; 4.254893859574756E7 ; 1.2098821647575574E9 ; 6.112554589670284E9 ; 1.6031662801326862E11 ; 0.0
142 ; 4.249399948833573E7 ; 1.2099351308710117E9 ; 6.155103528266032E9 ; 1.6152651017802618E11 ; 0.0
143 ; 4.244291009397723E7 ; 1.2099879585561185E9 ; 6.197597527754368E9 ; 1.627364453088972E11 ; 0.0
144 ; 4.2387380036259666E7 ; 1.210040646490698E9 ; 6.240040437848345E9 ; 1.639464332674533E11 ; 0.0
145 ; 4.235066265537919E7 ; 1.210093193364099E9 ; 6.282427817884604E9 ; 1.65156473913944E11 ; 0.0
146 ; 4.231438019409012E7 ; 1.2101455978769138E9 ; 6.324778480539984E9 ; 1.663665671073081E11 ; 0.0
147 ; 4.226968144122919E7 ; 1.210197858740709E9 ; 6.367092860734074E9 ; 1.6757671270518503E11 ; 0.0
148 ; 4.223825383743009E7 ; 1.2102499746777647E9 ; 6.4093625421753025E9 ; 1.6878691056392575E11 ; 0.0
149 ; 4.22040887012697E7 ; 1.2103019444208274E9 ; 6.4516007960127325E9 ; 1.6999716053860352E11 ; 0.0
150 ; 4.215990928068719E7 ; 1.2103537667128735E9 ; 6.493804884714003E9 ; 1.7120746248302435E11 ; 0.0
151 ; 4.212179869780828E7 ; 1.2104054403068824E9 ; 6.53596479399469E9 ; 1.724178162497372E11 ; 0.0
152 ; 4.208177709180179E7 ; 1.2104569639656203E9 ; 6.578086592692498E9 ; 1.736282216900441E11 ; 0.0
153 ; 4.204531592932128E7 ; 1.2105083364614322E9 ; 6.6201683697843E9 ; 1.748386786540097E11 ; 0.0
154 ; 4.200331866176797E7 ; 1.210559556576044E9 ; 6.662213685713621E9 ; 1.7604918699047113E11 ; 0.0
155 ; 4.19625201130022E7 ; 1.2106106231003737E9 ; 6.704217004375389E9 ; 1.7725974654704718E11 ; 0.0
156 ; 4.1924666163928986E7 ; 1.210661534834348E9 ; 6.746179524488391E9 ; 1.7847035717014755E11 ; 0.0
157 ; 4.188116580307675E7 ; 1.2107122905867295E9 ; 6.78810419065232E9 ; 1.796810187049819E11 ; 0.0
158 ; 4.184160863357286E7 ; 1.210762889174951E9 ; 6.829985356455397E9 ; 1.8089173099556863E11 ; 0.0
159 ; 4.180181087962324E7 ; 1.2108133294249547E9 ; 6.871826965088969E9 ; 1.821024938847436E11 ; 0.0
160 ; 4.175693251167917E7 ; 1.2108636101710405E9 ; 6.913628775968593E9 ; 1.8331330721416855E11 ; 0.0
161 ; 4.1718111747014575E7 ; 1.2109137302557206E9 ; 6.955385708480272E9 ; 1.845241708243396E11 ; 0.0
162 ; 4.167725495381223E7 ; 1.210963688529578E9 ; 6.997103820227287E9 ; 1.857350845545953E11 ; 0.0
163 ; 4.163529343422337E7 ; 1.2110134838511338E9 ; 7.0387810751811E9 ; 1.8694604824312488E11 ; 0.0
164 ; 4.159269885818762E7 ; 1.2110631150867188E9 ; 7.080416368615323E9 ; 1.88157061726976E11 ; 0.0
165 ; 4.155191818695894E7 ; 1.21111258111035E9 ; 7.122009067473511E9 ; 1.8936812484206274E11 ; 0.0
166 ; 4.150896274651675E7 ; 1.2111618808036132E9 ; 7.16356098566047E9 ; 1.905792374231731E11 ; 0.0
167 ; 4.146527845283103E7 ; 1.2112110130555506E9 ; 7.205069948406987E9 ; 1.917903993039767E11 ; 0.0
168 ; 4.142452175386416E7 ; 1.2112599767625518E9 ; 7.246535226859818E9 ; 1.9300161031703226E11 ; 0.0
169 ; 4.138113527649489E7 ; 1.2113087708282514E9 ; 7.287959748613683E9 ; 1.942128702937948E11 ; 0.0
170 ; 4.134232966520584E7 ; 1.2113573941634285E9 ; 7.329340883890178E9 ; 1.9542417906462305E11 ; 0.0
171 ; 4.129082823238109E7 ; 1.211405845685913E9 ; 7.370683213555384E9 ; 1.9663553645878647E11 ; 0.0
172 ; 4.1249083671880245E7 ; 1.2114541243204937E9 ; 7.411974041787765E9 ; 1.9784694230447238E11 ; 0.0
173 ; 4.1212435084770255E7 ; 1.2115022289988308E9 ; 7.453223125459644E9 ; 1.9905839642879288E11 ; 0.0
174 ; 4.1194421487421826E7 ; 1.2115501586593733E9 ; 7.4944355605444145E9 ; 2.0026989865779172E11 ; 0.0
175 ; 4.116577903142443E7 ; 1.2115979122472777E9 ; 7.5356299820318365E9 ; 2.0148144881645108E11 ; 0.0
176 ; 4.113030619361507E7 ; 1.2116454887143328E9 ; 7.576795761063261E9 ; 2.0269304672869836E11 ; 0.0
177 ; 4.11157863249963E7 ; 1.2116928870188842E9 ; 7.617926067256876E9 ; 2.039046922174127E11 ; 0.0
178 ; 4.1084236241457775E7 ; 1.2117401061257653E9 ; 7.659041853581872E9 ; 2.0511638510443158E11 ; 0.0
179 ; 4.105892783074917E7 ; 1.2117871450062292E9 ; 7.70012608982333E9 ; 2.0632812521055734E11 ; 0.0
180 ; 4.103417467787621E7 ; 1.211834002637884E9 ; 7.741185017654079E9 ; 2.0753991235556357E11 ; 0.0
181 ; 4.100783003378346E7 ; 1.2118806780046313E9 ; 7.782219192331956E9 ; 2.0875174635820145E11 ; 0.0
182 ; 4.098625524893293E7 ; 1.2119271700966067E9 ; 7.82322702236574E9 ; 2.099636270362061E11 ; 0.0
183 ; 4.095942328876596E7 ; 1.2119734779101222E9 ; 7.864213277614673E9 ; 2.111755542063027E11 ; 0.0
184 ; 4.0932640315889806E7 ; 1.2120196004476132E9 ; 7.905172700903439E9 ; 2.1238752768421283E11 ; 0.0
185 ; 4.090953979840077E7 ; 1.212065536717585E9 ; 7.946105341219328E9 ; 2.1359954728466043E11 ; 0.0
186 ; 4.087825150593647E7 ; 1.212111285734564E9 ; 7.987014881017729E9 ; 2.1481161282137802E11 ; 0.0
187 ; 4.08576493993209E7 ; 1.2121568465190494E9 ; 8.027893132523665E9 ; 2.1602372410711258E11 ; 0.0
188 ; 4.083619760064167E7 ; 1.2122022180974672E9 ; 8.068750781922986E9 ; 2.1723588095363162E11 ; 0.0
189 ; 4.080375853690497E7 ; 1.2122473995021272E9 ; 8.109586979523627E9 ; 2.184480831717291E11 ; 0.0
190 ; 4.077840076476653E7 ; 1.2122923897711804E9 ; 8.150390738060533E9 ; 2.1966033057123123E11 ; 0.0
191 ; 4.075159558258777E7 ; 1.21233718794858E9 ; 8.191169138825299E9 ; 2.208726229610024E11 ; 0.0
192 ; 4.072717297372308E7 ; 1.2123817930840416E9 ; 8.231920734407887E9 ; 2.22084960148951E11 ; 0.0
193 ; 4.070638227815515E7 ; 1.212426204233008E9 ; 8.272647907381611E9 ; 2.2329734194203503E11 ; 0.0
194 ; 4.067632016548639E7 ; 1.2124704204566135E9 ; 8.313354289659766E9 ; 2.2450976814626804E11 ; 0.0
195 ; 4.065719225592357E7 ; 1.2125144408216505E9 ; 8.354030609825253E9 ; 2.2572223856672464E11 ; 0.0
196 ; 4.0619907431017876E7 ; 1.2125582644005384E9 ; 8.394687802081176E9 ; 2.269347530075463E11 ; 0.0
197 ; 4.060124681927911E7 ; 1.2126018902712905E9 ; 8.435307709512194E9 ; 2.2814731127194684E11 ; 0.0
