CSV File for the Network on Day 63
1 - Minute m 
2 - Power Consumed at minute m 
3 - Power Produced at minute m 
4 - Energy Consumed since the beginning of the day 
5 - Energy Produced since the beginning of the day 
6 - Energy Lost since the beginning of the day 
 
0 ; 3.8449644439481035E7 ; 6.342054166901271E8 ; 0.0 ; 0.0 ; 0.0
1 ; 3.84810418364107E7 ; 6.351153354769752E8 ; 3.8449644439481035E7 ; 6.342054166901271E8 ; 0.0
2 ; 3.852441300273673E7 ; 6.378787200570478E8 ; 7.693068627589174E7 ; 1.2693207521671023E9 ; 0.0
3 ; 3.857311944717215E7 ; 6.424955933507698E8 ; 1.1545509927862847E8 ; 1.9071994722241502E9 ; 0.0
4 ; 3.8630291596356496E7 ; 6.4896597601419E8 ; 1.5402821872580063E8 ; 2.5496950655749197E9 ; 0.0
5 ; 3.86980525305617E7 ; 6.572898862862661E8 ; 1.9265851032215714E8 ; 3.1986610415891094E9 ; 0.0
6 ; 3.878866601901333E7 ; 6.674673398504858E8 ; 2.3135656285271883E8 ; 3.8559509278753757E9 ; 0.0
7 ; 3.891562555978683E7 ; 6.794983497132133E8 ; 2.701452288717322E8 ; 4.523418267725862E9 ; 0.0
8 ; 3.910552424295683E7 ; 6.933829261009179E8 ; 3.0906085443151903E8 ; 5.2029166174390745E9 ; 0.0
9 ; 3.9377990813770674E7 ; 7.091210763781685E8 ; 3.4816637867447585E8 ; 5.896299543539992E9 ; 0.0
10 ; 3.981730492775597E7 ; 7.267128049879171E8 ; 3.875443694882465E8 ; 6.60542061991816E9 ; 0.0
11 ; 4.050481843753681E7 ; 7.461581134152056E8 ; 4.2736167441600245E8 ; 7.332133424906077E9 ; 0.0
12 ; 4.16123325621526E7 ; 7.674570001749921E8 ; 4.678664928535393E8 ; 8.078291538321283E9 ; 0.0
13 ; 4.266885362305841E7 ; 7.906094608243244E8 ; 5.094788254156919E8 ; 8.845748538496275E9 ; 0.0
14 ; 4.280229100375138E7 ; 8.156154879986341E8 ; 5.521476790387503E8 ; 9.636357999320599E9 ; 0.0
15 ; 4.285145997217159E7 ; 8.42475071471451E8 ; 5.949499700425017E8 ; 1.0451973487319233E10 ; 0.0
16 ; 4.289098294534284E7 ; 8.711881982364123E8 ; 6.378014300146732E8 ; 1.1294448558790684E10 ; 0.0
17 ; 4.294246167763041E7 ; 9.017548526100291E8 ; 6.80692412960016E8 ; 1.2165636757027096E10 ; 0.0
18 ; 4.299351280649985E7 ; 9.341750163533441E8 ; 7.236348746376464E8 ; 1.3067391609637125E10 ; 0.0
19 ; 4.3045798154825404E7 ; 9.684486688103086E8 ; 7.666283874441463E8 ; 1.4001566625990469E10 ; 0.0
20 ; 4.309105174973868E7 ; 1.0045757870604973E9 ; 8.096741855989717E8 ; 1.4970015294800777E10 ; 0.0
21 ; 4.314727333010642E7 ; 1.0425563460836326E9 ; 8.527652373487104E8 ; 1.5974591081861275E10 ; 0.0
22 ; 4.319631655802213E7 ; 1.0823903189333045E9 ; 8.959125106788168E8 ; 1.7017147427944908E10 ; 0.0
23 ; 4.324589803250968E7 ; 1.124077676917273E9 ; 9.391088272368389E8 ; 1.8099537746878212E10 ; 0.0
24 ; 4.329553344086117E7 ; 1.1676183897817883E9 ; 9.823547252693486E8 ; 1.9223615423795486E10 ; 0.0
25 ; 4.334656223231599E7 ; 1.2051406712865856E9 ; 1.0256502587102098E9 ; 2.0391233813577274E10 ; 0.0
26 ; 4.3388877006756745E7 ; 1.2051657756114337E9 ; 1.0689968209425259E9 ; 2.159637448486386E10 ; 0.0
27 ; 4.344040264362532E7 ; 1.2051922846879256E9 ; 1.1123856979492826E9 ; 2.2801540260475296E10 ; 0.0
28 ; 4.3493524032693245E7 ; 1.205220163857813E9 ; 1.155826100592908E9 ; 2.4006732545163223E10 ; 0.0
29 ; 4.353630174540509E7 ; 1.2052493778038995E9 ; 1.199319624625601E9 ; 2.5211952709021034E10 ; 0.0
30 ; 4.358147734793996E7 ; 1.205279890713819E9 ; 1.2428559263710063E9 ; 2.6417202086824932E10 ; 0.0
31 ; 4.361866641204223E7 ; 1.2053116664350667E9 ; 1.2864374037189462E9 ; 2.762248197753875E10 ; 0.0
32 ; 4.366928248735208E7 ; 1.2053446686204371E9 ; 1.3300560701309884E9 ; 2.8827793643973816E10 ; 0.0
33 ; 4.371233148172445E7 ; 1.2053788608632417E9 ; 1.3737253526183405E9 ; 3.0033138312594254E10 ; 0.0
34 ; 4.375939843785828E7 ; 1.2054142068219194E9 ; 1.417437684100065E9 ; 3.1238517173457497E10 ; 0.0
35 ; 4.379788364314757E7 ; 1.2054506703338435E9 ; 1.4611970825379233E9 ; 3.2443931380279415E10 ; 0.0
36 ; 4.383191121834223E7 ; 1.2054882155183022E9 ; 1.5049949661810708E9 ; 3.364938205061326E10 ; 0.0
37 ; 4.387586672723056E7 ; 1.2055268068687959E9 ; 1.548826877399413E9 ; 3.485487026613156E10 ; 0.0
38 ; 4.390732307779158E7 ; 1.2055664093349128E9 ; 1.5927027441266437E9 ; 3.606039707300036E10 ; 0.0
39 ; 4.394205905408591E7 ; 1.2056069883941557E9 ; 1.6366100672044353E9 ; 3.726596348233527E10 ; 0.0
40 ; 4.397407179645957E7 ; 1.2056485101141803E9 ; 1.6805521262585213E9 ; 3.847157047072943E10 ; 0.0
41 ; 4.400584466923972E7 ; 1.2056909412059634E9 ; 1.724526198054981E9 ; 3.967721898084361E10 ; 0.0
42 ; 4.403366117216169E7 ; 1.2057342490684695E9 ; 1.7685320427242208E9 ; 4.0882909922049576E10 ; 0.0
43 ; 4.4067886177204885E7 ; 1.2057784018254144E9 ; 1.8125657038963823E9 ; 4.208864417111804E10 ; 0.0
44 ; 4.4095099497750774E7 ; 1.2058233683547328E9 ; 1.8566335900735872E9 ; 4.329442257294346E10 ; 0.0
45 ; 4.412057055735892E7 ; 1.2058691183113666E9 ; 1.900728689571338E9 ; 4.4500245941298195E10 ; 0.0
46 ; 4.414400154207723E7 ; 1.205915622143983E9 ; 1.944849260128697E9 ; 4.570611505960956E10 ; 0.0
47 ; 4.41597195510278E7 ; 1.2059628511062102E9 ; 1.9889932616707742E9 ; 4.691203068175354E10 ; 0.0
48 ; 4.417217022271076E7 ; 1.2060107772629619E9 ; 2.033152981221802E9 ; 4.811799353285975E10 ; 0.0
49 ; 4.419334015550079E7 ; 1.2060593734923918E9 ; 2.0773251514445128E9 ; 4.932400431012271E10 ; 0.0
50 ; 4.421349994863515E7 ; 1.2061086134839942E9 ; 2.1215184916000137E9 ; 5.0530063683615105E10 ; 0.0
51 ; 4.422031260049337E7 ; 1.2061584717333262E9 ; 2.165731991548649E9 ; 5.17361722970991E10 ; 0.0
52 ; 4.4228378506092235E7 ; 1.206208923533799E9 ; 2.2099523041491423E9 ; 5.294233076883243E10 ; 0.0
53 ; 4.424448765039899E7 ; 1.206259944965949E9 ; 2.2541806826552343E9 ; 5.414853969236623E10 ; 0.0
54 ; 4.425334691489679E7 ; 1.206311512884568E9 ; 2.2984251703056335E9 ; 5.535479963733218E10 ; 0.0
55 ; 4.426135332728557E7 ; 1.2063636049040298E9 ; 2.3426785172205305E9 ; 5.656111115021674E10 ; 0.0
56 ; 4.427963624956938E7 ; 1.2064161993821337E9 ; 2.3869398705478163E9 ; 5.776747475512077E10 ; 0.0
57 ; 4.428767474949455E7 ; 1.206469275402734E9 ; 2.4312195067973857E9 ; 5.897389095450291E10 ; 0.0
58 ; 4.430000005288728E7 ; 1.2065228127574155E9 ; 2.4755071815468802E9 ; 6.018036022990564E10 ; 0.0
59 ; 4.430128304505642E7 ; 1.2065767919264336E9 ; 2.5198071815997677E9 ; 6.1386883042663055E10 ; 0.0
60 ; 4.431686499490589E7 ; 1.2066311940591154E9 ; 2.564108464644824E9 ; 6.259345983458949E10 ; 0.0
61 ; 4.4325724040891916E7 ; 1.2066860009539032E9 ; 2.60842532963973E9 ; 6.3800091028648605E10 ; 0.0
62 ; 4.433059446126179E7 ; 1.2067411950381823E9 ; 2.652751053680622E9 ; 6.500677702960251E10 ; 0.0
63 ; 4.4337450536050454E7 ; 1.2067967593480358E9 ; 2.697081648141884E9 ; 6.621351822464069E10 ; 0.0
64 ; 4.434340894197363E7 ; 1.2068526775080333E9 ; 2.741419098677934E9 ; 6.742031498398873E10 ; 0.0
65 ; 4.435074904644317E7 ; 1.2069089337111578E9 ; 2.785762507619908E9 ; 6.8627167661496765E10 ; 0.0
66 ; 4.436092238333568E7 ; 1.2069655126989484E9 ; 2.830113256666351E9 ; 6.983407659520792E10 ; 0.0
67 ; 4.437271268243893E7 ; 1.207022399741935E9 ; 2.8744741790496864E9 ; 7.104104210790686E10 ; 0.0
68 ; 4.4370863236442395E7 ; 1.2070795806204202E9 ; 2.9188468917321253E9 ; 7.224806450764879E10 ; 0.0
69 ; 4.4375435107731074E7 ; 1.2071370416056564E9 ; 2.963217754968568E9 ; 7.345514408826921E10 ; 0.0
70 ; 4.438714207096399E7 ; 1.20719476944146E9 ; 3.0075931900762987E9 ; 7.466228112987486E10 ; 0.0
71 ; 4.438939316121897E7 ; 1.2072527513262894E9 ; 3.0519803321472626E9 ; 7.586947589931633E10 ; 0.0
72 ; 4.438517637459223E7 ; 1.2073109748958166E9 ; 3.0963697253084817E9 ; 7.707672865064262E10 ; 0.0
73 ; 4.439072444977525E7 ; 1.2073694282060008E9 ; 3.140754901683074E9 ; 7.828403962553844E10 ; 0.0
74 ; 4.439338950864282E7 ; 1.2074280997166867E9 ; 3.185145626132849E9 ; 7.949140905374443E10 ; 0.0
75 ; 4.4399536796426415E7 ; 1.2074869782757258E9 ; 3.229539015641492E9 ; 8.069883715346112E10 ; 0.0
76 ; 4.43949602936718E7 ; 1.20754605310363E9 ; 3.273938552437918E9 ; 8.190632413173685E10 ; 0.0
77 ; 4.439638817564249E7 ; 1.2076053137787535E9 ; 3.31833351273159E9 ; 8.311387018484048E10 ; 0.0
78 ; 4.439114379199917E7 ; 1.2076647502230034E9 ; 3.3627299009072323E9 ; 8.432147549861923E10 ; 0.0
79 ; 4.438682537094168E7 ; 1.20772435268807E9 ; 3.4071210446992316E9 ; 8.552914024884224E10 ; 0.0
80 ; 4.4364682852892056E7 ; 1.2077841117421732E9 ; 3.4515078700701733E9 ; 8.67368646015303E10 ; 0.0
81 ; 4.435592595747155E7 ; 1.2078440182573102E9 ; 3.495872552923065E9 ; 8.794464871327248E10 ; 0.0
82 ; 4.4341685324762255E7 ; 1.207904063397001E9 ; 3.5402284788805366E9 ; 8.915249273152979E10 ; 0.0
83 ; 4.4328611640090205E7 ; 1.207964238604513E9 ; 3.584570164205299E9 ; 9.036039679492679E10 ; 0.0
84 ; 4.431529677593876E7 ; 1.2080245355915582E9 ; 3.628898775845389E9 ; 9.15683610335313E10 ; 0.0
85 ; 4.430069626395046E7 ; 1.2080849463274431E9 ; 3.673214072621328E9 ; 9.277638556912285E10 ; 0.0
86 ; 4.4285303373763114E7 ; 1.208145463028665E9 ; 3.717514768885278E9 ; 9.398447051545029E10 ; 0.0
87 ; 4.42677883512969E7 ; 1.2082060781489344E9 ; 3.7618000722590413E9 ; 9.519261597847896E10 ; 0.0
88 ; 4.425503912480969E7 ; 1.2082667843696113E9 ; 3.806067860610338E9 ; 9.64008220566279E10 ; 0.0
89 ; 4.423709235463765E7 ; 1.2083275745905442E9 ; 3.850322899735148E9 ; 9.760908884099751E10 ; 0.0
90 ; 4.4220712692955755E7 ; 1.208388441921292E9 ; 3.8945599920897856E9 ; 9.881741641558806E10 ; 0.0
91 ; 4.420416205162437E7 ; 1.208449379672719E9 ; 3.9387807047827415E9 ; 1.0002580485750935E11 ; 0.0
92 ; 4.418336890889194E7 ; 1.2085103813489444E9 ; 3.982984866834366E9 ; 1.0123425423718207E11 ; 0.0
93 ; 4.416967718391429E7 ; 1.2085714406396399E9 ; 4.027168235743258E9 ; 1.02442764618531E11 ; 0.0
94 ; 4.414654992654475E7 ; 1.2086325514126525E9 ; 4.071337912927172E9 ; 1.0365133605917064E11 ; 0.0
95 ; 4.414069391781695E7 ; 1.2086937077069476E9 ; 4.115484462853717E9 ; 1.048599686105833E11 ; 0.0
96 ; 4.41144968157188E7 ; 1.208754903725852E9 ; 4.159625156771534E9 ; 1.0606866231829025E11 ; 0.0
97 ; 4.408538921355645E7 ; 1.208816133830594E9 ; 4.2037396535872526E9 ; 1.072774172220161E11 ; 0.0
98 ; 4.4083223803090125E7 ; 1.2088773925341146E9 ; 4.247825042800809E9 ; 1.084862333558467E11 ; 0.0
99 ; 4.406072893962931E7 ; 1.2089386744951532E9 ; 4.291908266603899E9 ; 1.0969511074838081E11 ; 0.0
100 ; 4.403275040051299E7 ; 1.2089999745125833E9 ; 4.335968995543529E9 ; 1.1090404942287596E11 ; 0.0
101 ; 4.401857122782825E7 ; 1.2090612875199983E9 ; 4.380001745944041E9 ; 1.1211304939738855E11 ; 0.0
102 ; 4.39991316846176E7 ; 1.2091226085805259E9 ; 4.424020317171869E9 ; 1.1332211068490855E11 ; 0.0
103 ; 4.396903326419722E7 ; 1.2091839328818703E9 ; 4.468019448856487E9 ; 1.1453123329348907E11 ; 0.0
104 ; 4.394697650984001E7 ; 1.2092452557315679E9 ; 4.511988482120685E9 ; 1.1574041722637094E11 ; 0.0
105 ; 4.3927950082625635E7 ; 1.2093065725524452E9 ; 4.555935458630525E9 ; 1.1694966248210251E11 ; 0.0
106 ; 4.390045211642885E7 ; 1.209367878878275E9 ; 4.59986340871315E9 ; 1.1815896905465495E11 ; 0.0
107 ; 4.3883989991866246E7 ; 1.209429170349618E9 ; 4.643763860829578E9 ; 1.1936833693353323E11 ; 0.0
108 ; 4.385795749164053E7 ; 1.2094904427098436E9 ; 4.6876478508214445E9 ; 1.2057776610388286E11 ; 0.0
109 ; 4.383395623720504E7 ; 1.209551691801321E9 ; 4.731505808313085E9 ; 1.217872565465927E11 ; 0.0
110 ; 4.380942719440079E7 ; 1.209612913561772E9 ; 4.77533976455029E9 ; 1.2299680823839401E11 ; 0.0
111 ; 4.3779084167428374E7 ; 1.2096741040207822E9 ; 4.819149191744691E9 ; 1.2420642115195578E11 ; 0.0
112 ; 4.3758206681926124E7 ; 1.2097352592964573E9 ; 4.862928275912119E9 ; 1.2541609525597656E11 ; 0.0
113 ; 4.372763891628514E7 ; 1.2097963755922246E9 ; 4.906686482594045E9 ; 1.2662583051527303E11 ; 0.0
114 ; 4.370614677380755E7 ; 1.2098574491937675E9 ; 4.95041412151033E9 ; 1.2783562689086525E11 ; 0.0
115 ; 4.367594676600492E7 ; 1.2099184764660907E9 ; 4.994120268284138E9 ; 1.2904548434005902E11 ; 0.0
116 ; 4.36408353421405E7 ; 1.2099794538507092E9 ; 5.037796215050142E9 ; 1.3025540281652512E11 ; 0.0
117 ; 4.362518987661447E7 ; 1.2100403778629546E9 ; 5.0814370503922825E9 ; 1.3146538227037582E11 ; 0.0
118 ; 4.359541198601541E7 ; 1.2101012450893948E9 ; 5.125062240268897E9 ; 1.3267542264823878E11 ; 0.0
119 ; 4.356540184879559E7 ; 1.210162052185361E9 ; 5.168657652254912E9 ; 1.3388552389332819E11 ; 0.0
120 ; 4.353725296148986E7 ; 1.2102227958725767E9 ; 5.212223054103708E9 ; 1.3509568594551355E11 ; 0.0
121 ; 4.3505362129776634E7 ; 1.2102834729368892E9 ; 5.255760307065198E9 ; 1.3630590874138612E11 ; 0.0
122 ; 4.347797845380238E7 ; 1.2103440802260876E9 ; 5.299265669194975E9 ; 1.37516192214323E11 ; 0.0
123 ; 4.344304606965943E7 ; 1.2104046146478176E9 ; 5.342743647648777E9 ; 1.3872653629454907E11 ; 0.0
124 ; 4.342088405550426E7 ; 1.2104650731675792E9 ; 5.386186693718436E9 ; 1.399369409091969E11 ; 0.0
125 ; 4.3379773516133666E7 ; 1.2105254528068037E9 ; 5.42960757777394E9 ; 1.4114740598236447E11 ; 0.0
126 ; 4.335142758166565E7 ; 1.2105857506410143E9 ; 5.472987351290073E9 ; 1.4235793143517126E11 ; 0.0
127 ; 4.3318893271767765E7 ; 1.2106459637980578E9 ; 5.516338778871739E9 ; 1.435685171858123E11 ; 0.0
128 ; 4.328722985115972E7 ; 1.2107060894564075E9 ; 5.559657672143507E9 ; 1.4477916314961035E11 ; 0.0
129 ; 4.3255935113741E7 ; 1.2107661248435385E9 ; 5.602944901994667E9 ; 1.4598986923906677E11 ; 0.0
130 ; 4.3215511918980375E7 ; 1.2108260672343626E9 ; 5.646200837108408E9 ; 1.472006353639103E11 ; 0.0
131 ; 4.317342276083827E7 ; 1.2108859139497309E9 ; 5.689416349027389E9 ; 1.4841146143114468E11 ; 0.0
132 ; 4.312580844158837E7 ; 1.2109456623549926E9 ; 5.732589771788227E9 ; 1.4962234734509442E11 ; 0.0
133 ; 4.3076157124801956E7 ; 1.211005309858614E9 ; 5.7757155802298155E9 ; 1.508332930074494E11 ; 0.0
134 ; 4.302705027576193E7 ; 1.2110648539108484E9 ; 5.818791737354617E9 ; 1.52044298317308E11 ; 0.0
135 ; 4.297961310097855E7 ; 1.2111242920024626E9 ; 5.861818787630379E9 ; 1.5325536317121887E11 ; 0.0
136 ; 4.293050795335372E7 ; 1.2111836216635108E9 ; 5.904798400731358E9 ; 1.5446648746322134E11 ; 0.0
137 ; 4.288629667950463E7 ; 1.2112428404621563E9 ; 5.947728908684711E9 ; 1.5567767108488486E11 ; 0.0
138 ; 4.2827208017736666E7 ; 1.2113019460035405E9 ; 5.990615205364216E9 ; 1.5688891392534702E11 ; 0.0
139 ; 4.2783396094953865E7 ; 1.2113609359286957E9 ; 6.033442413381952E9 ; 1.5810021587135056E11 ; 0.0
140 ; 4.273594829804299E7 ; 1.2114198079134994E9 ; 6.076225809476906E9 ; 1.5931157680727924E11 ; 0.0
141 ; 4.267926234497899E7 ; 1.2114785596676672E9 ; 6.118961757774949E9 ; 1.6052299661519275E11 ; 0.0
142 ; 4.263459777007796E7 ; 1.2115371889337883E9 ; 6.161641020119928E9 ; 1.617344751748604E11 ; 0.0
143 ; 4.257689301235791E7 ; 1.2115956934863942E9 ; 6.204275617890006E9 ; 1.629460123637942E11 ; 0.0
144 ; 4.252853017152781E7 ; 1.2116540711310651E9 ; 6.246852510902364E9 ; 1.6415760805728058E11 ; 0.0
145 ; 4.249269632411613E7 ; 1.21171231970357E9 ; 6.289381041073892E9 ; 1.6536926212841165E11 ; 0.0
146 ; 4.245686462543233E7 ; 1.211770437069036E9 ; 6.331873737398007E9 ; 1.6658097444811523E11 ; 0.0
147 ; 4.2417837199624695E7 ; 1.2118284211211553E9 ; 6.374330602023439E9 ; 1.6779274488518427E11 ; 0.0
148 ; 4.237952383496752E7 ; 1.211886269781416E9 ; 6.416748439223064E9 ; 1.6900457330630542E11 ; 0.0
149 ; 4.234564036315315E7 ; 1.2119439809983637E9 ; 6.459127963058032E9 ; 1.7021645957608682E11 ; 0.0
150 ; 4.231056319786091E7 ; 1.2120015527468925E9 ; 6.5014736034211855E9 ; 1.7142840355708517E11 ; 0.0
151 ; 4.227325274263318E7 ; 1.2120589830275586E9 ; 6.543784166619046E9 ; 1.7264040510983206E11 ; 0.0
152 ; 4.22412170804594E7 ; 1.212116269865923E9 ; 6.586057419361679E9 ; 1.7385246409285962E11 ; 0.0
153 ; 4.220275832505897E7 ; 1.2121734113119159E9 ; 6.628298636442139E9 ; 1.7506458036272556E11 ; 0.0
154 ; 4.216845820819947E7 ; 1.2122304054392242E9 ; 6.670501394767198E9 ; 1.7627675377403748E11 ; 0.0
155 ; 4.21339949263169E7 ; 1.2122872503447046E9 ; 6.712669852975397E9 ; 1.7748898417947668E11 ; 0.0
156 ; 4.20898279131704E7 ; 1.2123439441478143E9 ; 6.754803847901714E9 ; 1.7870127142982138E11 ; 0.0
157 ; 4.205109353461788E7 ; 1.2124004849900637E9 ; 6.796893675814885E9 ; 1.799136153739692E11 ; 0.0
158 ; 4.201375566464629E7 ; 1.21245687103449E9 ; 6.838944769349503E9 ; 1.8112601585895926E11 ; 0.0
159 ; 4.197800304698046E7 ; 1.2125131004651494E9 ; 6.880958525014149E9 ; 1.8233847272999374E11 ; 0.0
160 ; 4.193376652894292E7 ; 1.2125691714866247E9 ; 6.92293652806113E9 ; 1.835509858304589E11 ; 0.0
161 ; 4.190146627371552E7 ; 1.212625082323555E9 ; 6.964870294590073E9 ; 1.8476355500194553E11 ; 0.0
162 ; 4.186626524460811E7 ; 1.2126808312201798E9 ; 7.006771760863789E9 ; 1.8597618008426907E11 ; 0.0
163 ; 4.182419499720189E7 ; 1.2127364164398985E9 ; 7.048638026108397E9 ; 1.8718886091548926E11 ; 0.0
164 ; 4.178941378803952E7 ; 1.2127918362648478E9 ; 7.090462221105598E9 ; 1.8840159733192917E11 ; 0.0
165 ; 4.174642430006963E7 ; 1.212847088995491E9 ; 7.132251634893638E9 ; 1.8961438916819403E11 ; 0.0
166 ; 4.171602175447444E7 ; 1.212902172950226E9 ; 7.173998059193707E9 ; 1.908272362571895E11 ; 0.0
167 ; 4.167243699803046E7 ; 1.212957086465002E9 ; 7.215714080948182E9 ; 1.9204013843013974E11 ; 0.0
168 ; 4.1633601983155176E7 ; 1.2130118278929548E9 ; 7.257386517946213E9 ; 1.9325309551660474E11 ; 0.0
169 ; 4.158784707338867E7 ; 1.2130663956040497E9 ; 7.299020119929368E9 ; 1.9446610734449768E11 ; 0.0
170 ; 4.1557019786833495E7 ; 1.2131207879847403E9 ; 7.340607967002757E9 ; 1.9567917374010175E11 ; 0.0
171 ; 4.151048172625039E7 ; 1.2131750034376397E9 ; 7.382164986789591E9 ; 1.968922945280865E11 ; 0.0
172 ; 4.147355735849523E7 ; 1.2132290403811986E9 ; 7.4236754685158415E9 ; 1.9810546953152414E11 ; 0.0
173 ; 4.142926970003888E7 ; 1.2132828972493997E9 ; 7.465149025874336E9 ; 1.9931869857190533E11 ; 0.0
174 ; 4.140872578867473E7 ; 1.2133365724914591E9 ; 7.506578295574375E9 ; 2.0053198146915472E11 ; 0.0
175 ; 4.138679670942147E7 ; 1.21339006457154E9 ; 7.5479870213630495E9 ; 2.0174531804164618E11 ; 0.0
176 ; 4.136103978898853E7 ; 1.2134433719684749E9 ; 7.589373818072471E9 ; 2.029587081062177E11 ; 0.0
177 ; 4.133394311953486E7 ; 1.2134964931754966E9 ; 7.630734857861459E9 ; 2.041721514781862E11 ; 0.0
178 ; 4.130619355950705E7 ; 1.2135494266999812E9 ; 7.672068800980993E9 ; 2.053856479713617E11 ; 0.0
179 ; 4.129010854505025E7 ; 1.2136021710631971E9 ; 7.713374994540501E9 ; 2.0659919739806168E11 ; 0.0
180 ; 4.1260378142205544E7 ; 1.2136547248000636E9 ; 7.754665103085551E9 ; 2.0781279956912488E11 ; 0.0
181 ; 4.123012591787114E7 ; 1.2137070864589171E9 ; 7.7959254812277565E9 ; 2.0902645429392493E11 ; 0.0
182 ; 4.121428057771938E7 ; 1.2137592546012855E9 ; 7.837155607145628E9 ; 2.1024016138038385E11 ; 0.0
183 ; 4.118894313939903E7 ; 1.2138112278016706E9 ; 7.878369887723348E9 ; 2.1145392063498514E11 ; 0.0
184 ; 4.116281553693634E7 ; 1.2138630046473372E9 ; 7.919558830862746E9 ; 2.126677318627868E11 ; 0.0
185 ; 4.114217720158437E7 ; 1.2139145837381089E9 ; 7.960721646399683E9 ; 2.1388159486743414E11 ; 0.0
186 ; 4.112080933227889E7 ; 1.2139659636861718E9 ; 8.001863823601268E9 ; 2.1509550945117224E11 ; 0.0
187 ; 4.1090401099530764E7 ; 1.2140171431158838E9 ; 8.042984632933547E9 ; 2.163094754148584E11 ; 0.0
188 ; 4.106806817096031E7 ; 1.214068120663591E9 ; 8.084075034033078E9 ; 2.1752349255797427E11 ; 0.0
189 ; 4.104524766558712E7 ; 1.2141188949774475E9 ; 8.125143102204039E9 ; 2.1873756067863788E11 ; 0.0
190 ; 4.101284365598834E7 ; 1.2141694647172475E9 ; 8.166188349869626E9 ; 2.1995167957361533E11 ; 0.0
191 ; 4.099399917295871E7 ; 1.2142198285542543E9 ; 8.207201193525615E9 ; 2.2116584903833258E11 ; 0.0
192 ; 4.096789397970192E7 ; 1.214269985171043E9 ; 8.248195192698573E9 ; 2.2238006886688684E11 ; 0.0
193 ; 4.094696678815774E7 ; 1.2143199332613423E9 ; 8.289163086678275E9 ; 2.235943388520579E11 ; 0.0
194 ; 4.091323454583408E7 ; 1.2143696715298848E9 ; 8.330110053466433E9 ; 2.2480865878531924E11 ; 0.0
195 ; 4.089618731328137E7 ; 1.2144191986922626E9 ; 8.371023288012267E9 ; 2.2602302845684912E11 ; 0.0
196 ; 4.08727107309855E7 ; 1.2144685134747837E9 ; 8.411919475325548E9 ; 2.2723744765554138E11 ; 0.0
