CSV File for the Network on Day 7
1 - Minute m 
2 - Power Consumed at minute m 
3 - Power Produced at minute m 
4 - Energy Consumed since the beginning of the day 
5 - Energy Produced since the beginning of the day 
6 - Energy Lost since the beginning of the day 
 
0 ; 4.998390721125977E7 ; 1.0516072819786593E8 ; 0.0 ; 0.0 ; 0.0
1 ; 5.003021408972931E7 ; 1.0531504918552023E8 ; 4.998390721125977E7 ; 1.0516072819786593E8 ; 613.6199999999999
2 ; 5.008786401141014E7 ; 1.0577801214848319E8 ; 1.0001412130098908E8 ; 2.1047577738338616E8 ; 1227.2399999999998
3 ; 5.015410722453907E7 ; 1.065496170867548E8 ; 1.501019853123992E8 ; 3.1625378953186935E8 ; 1840.8599999999997
4 ; 5.02241636101206E7 ; 1.0762986400033504E8 ; 2.0025609253693828E8 ; 4.2280340661862415E8 ; 2454.4799999999996
5 ; 5.0316627931286074E7 ; 1.0901875288922393E8 ; 2.5048025614705887E8 ; 5.304332706189592E8 ; 3068.0999999999995
6 ; 5.043457148934005E7 ; 1.1071628375342144E8 ; 3.0079688407834494E8 ; 6.394520235081831E8 ; 3681.7199999999993
7 ; 5.06020144366446E7 ; 1.1272245659292762E8 ; 3.51231455567685E8 ; 7.501683072616045E8 ; 4295.339999999999
8 ; 5.084984189549086E7 ; 1.1503727140774243E8 ; 4.018334700043296E8 ; 8.628907638545321E8 ; 4908.959999999999
9 ; 5.1211205772133045E7 ; 1.1766072819786589E8 ; 4.526833118998205E8 ; 9.779280352622745E8 ; 5522.579999999999
10 ; 5.177183964322522E7 ; 1.2059282696329801E8 ; 5.0389451767195356E8 ; 1.0955887634601405E9 ; 6136.199999999999
11 ; 5.267016740719933E7 ; 1.2383356770403877E8 ; 5.556663573151788E8 ; 1.2161815904234385E9 ; 6749.819999999999
12 ; 5.410651417086825E7 ; 1.2738295042008814E8 ; 6.083365247223781E8 ; 1.3400151581274774E9 ; 7363.439999999999
13 ; 5.548151550219254E7 ; 1.3124097511144614E8 ; 6.624430388932464E8 ; 1.4673981085475655E9 ; 7977.059999999999
14 ; 5.564454360231176E7 ; 1.3540764177811283E8 ; 7.179245543954389E8 ; 1.5986390836590116E9 ; 8590.679999999998
15 ; 5.5697460415597916E7 ; 1.398829504200881E8 ; 7.735690979977506E8 ; 1.7340467254371245E9 ; 9204.3
16 ; 5.5767607279174715E7 ; 1.446669010373721E8 ; 8.292665584133486E8 ; 1.8739296758572125E9 ; 9817.919999999998
17 ; 5.5838566428727075E7 ; 1.497594936299647E8 ; 8.850341656925232E8 ; 2.0185965768945847E9 ; 10431.539999999997
18 ; 5.5903916780648306E7 ; 1.5516072819786593E8 ; 9.408727321212503E8 ; 2.1683560705245495E9 ; 11045.159999999996
19 ; 5.59580919016753E7 ; 1.6087060474107578E8 ; 9.967766489018986E8 ; 2.3235167987224154E9 ; 11658.779999999995
20 ; 5.6032763024560004E7 ; 1.668891232595943E8 ; 1.052734740803574E9 ; 2.4843874034634914E9 ; 12272.399999999994
21 ; 5.608477594163416E7 ; 1.732162837534215E8 ; 1.108767503828134E9 ; 2.651276526723086E9 ; 12886.019999999993
22 ; 5.6163559637596264E7 ; 1.7985208622255728E8 ; 1.1648522797697682E9 ; 2.824492810476507E9 ; 13499.639999999992
23 ; 5.622205967179867E7 ; 1.8679653066700175E8 ; 1.2210158394073646E9 ; 3.0043448966990643E9 ; 14113.259999999991
24 ; 5.628912569350976E7 ; 1.9404961708675483E8 ; 1.2772378990791633E9 ; 3.191141427366066E9 ; 14726.87999999999
25 ; 5.635304006288022E7 ; 2.0029938638000003E8 ; 1.3335270247726731E9 ; 3.385191044452821E9 ; 15340.499999999989
26 ; 5.641602848658484E7 ; 2.0029938638000003E8 ; 1.3898800648355534E9 ; 3.585490430832821E9 ; 15954.119999999988
27 ; 5.648273182920161E7 ; 2.0029938638000003E8 ; 1.4462960933221383E9 ; 3.785789817212821E9 ; 16567.739999999987
28 ; 5.65469499017454E7 ; 2.0029938638000003E8 ; 1.50277882515134E9 ; 3.986089203592821E9 ; 17181.359999999986
29 ; 5.66048914468236E7 ; 2.0029938638000003E8 ; 1.5593257750530853E9 ; 4.186388589972821E9 ; 17794.979999999985
30 ; 5.6671715433455214E7 ; 2.0029938638000003E8 ; 1.615930666499909E9 ; 4.386687976352821E9 ; 18408.599999999984
31 ; 5.672809627902823E7 ; 2.0029938638000003E8 ; 1.6726023819333642E9 ; 4.586987362732821E9 ; 19022.219999999983
32 ; 5.6786333060516536E7 ; 2.0029938638000003E8 ; 1.7293304782123923E9 ; 4.787286749112822E9 ; 19635.839999999982
33 ; 5.683768449790535E7 ; 2.0029938638000003E8 ; 1.786116811272909E9 ; 4.987586135492822E9 ; 20249.45999999998
34 ; 5.689796544128566E7 ; 2.0029938638000003E8 ; 1.8429544957708142E9 ; 5.187885521872822E9 ; 20863.07999999998
35 ; 5.695613930536553E7 ; 2.0029938638000003E8 ; 1.8998524612120998E9 ; 5.388184908252822E9 ; 21476.69999999998
36 ; 5.700847299379769E7 ; 2.0029938638000003E8 ; 1.9568086005174654E9 ; 5.588484294632822E9 ; 22090.319999999978
37 ; 5.705484848621692E7 ; 2.0029938638000003E8 ; 2.0138170735112631E9 ; 5.788783681012822E9 ; 22703.939999999977
38 ; 5.710499423155311E7 ; 2.0029938638000003E8 ; 2.0708719219974802E9 ; 5.989083067392822E9 ; 23317.559999999976
39 ; 5.714614044874335E7 ; 2.0029938638000003E8 ; 2.1279769162290332E9 ; 6.189382453772822E9 ; 23931.179999999975
40 ; 5.718792496799519E7 ; 2.0029938638000003E8 ; 2.185123056677777E9 ; 6.3896818401528225E9 ; 24544.799999999974
41 ; 5.722894269900995E7 ; 2.0029938638000003E8 ; 2.242310981645772E9 ; 6.589981226532823E9 ; 25158.419999999973
42 ; 5.7267435844642274E7 ; 2.0029938638000003E8 ; 2.299539924344782E9 ; 6.790280612912823E9 ; 25772.03999999997
43 ; 5.730601701448277E7 ; 2.0029938638000003E8 ; 2.356807360189424E9 ; 6.990579999292823E9 ; 26385.65999999997
44 ; 5.733842471600318E7 ; 2.0029938638000003E8 ; 2.414113377203907E9 ; 7.190879385672823E9 ; 26999.27999999997
45 ; 5.737131056035206E7 ; 2.0029938638000003E8 ; 2.4714518019199104E9 ; 7.391178772052823E9 ; 27612.89999999997
46 ; 5.739925317773507E7 ; 2.0029938638000003E8 ; 2.5288231124802623E9 ; 7.591478158432823E9 ; 28226.519999999968
47 ; 5.74259799076298E7 ; 2.0029938638000003E8 ; 2.586222365657997E9 ; 7.791777544812823E9 ; 28840.139999999967
48 ; 5.744876477752328E7 ; 2.0029938638000003E8 ; 2.643648345565627E9 ; 7.992076931192823E9 ; 29453.759999999966
49 ; 5.747041728336354E7 ; 2.0029938638000003E8 ; 2.70109711034315E9 ; 8.192376317572824E9 ; 30067.379999999965
50 ; 5.748849573596839E7 ; 2.0029938638000003E8 ; 2.7585675276265135E9 ; 8.392675703952824E9 ; 30680.999999999964
51 ; 5.750811714513299E7 ; 2.0029938638000003E8 ; 2.816056023362482E9 ; 8.592975090332823E9 ; 31294.619999999963
52 ; 5.751904128396607E7 ; 2.0029938638000003E8 ; 2.873564140507615E9 ; 8.793274476712822E9 ; 31908.23999999996
53 ; 5.753845861533084E7 ; 2.0029938638000003E8 ; 2.931083181791581E9 ; 8.993573863092821E9 ; 32521.85999999996
54 ; 5.755369058523616E7 ; 2.0029938638000003E8 ; 2.988621640406912E9 ; 9.19387324947282E9 ; 33135.47999999996
55 ; 5.756494184441203E7 ; 2.0029938638000003E8 ; 3.046175330992148E9 ; 9.39417263585282E9 ; 33749.09999999996
56 ; 5.7577145941309385E7 ; 2.0029938638000003E8 ; 3.10374027283656E9 ; 9.594472022232819E9 ; 34362.719999999965
57 ; 5.759117554668823E7 ; 2.0029938638000003E8 ; 3.161317418777869E9 ; 9.794771408612818E9 ; 34976.33999999997
58 ; 5.760982270610936E7 ; 2.0029938638000003E8 ; 3.2189085943245573E9 ; 9.995070794992817E9 ; 35589.95999999997
59 ; 5.7622689485500336E7 ; 2.0029938638000003E8 ; 3.276518417030667E9 ; 1.0195370181372816E10 ; 36203.57999999997
60 ; 5.7631470208499275E7 ; 2.0029938638000003E8 ; 3.334141106516167E9 ; 1.0395669567752815E10 ; 36817.199999999975
61 ; 5.7641958344603516E7 ; 2.0029938638000003E8 ; 3.3917725767246666E9 ; 1.0595968954132814E10 ; 37430.81999999998
62 ; 5.7653042664330095E7 ; 2.0029938638000003E8 ; 3.44941453506927E9 ; 1.0796268340512814E10 ; 38044.43999999998
63 ; 5.766838748711652E7 ; 2.0029938638000003E8 ; 3.5070675777336E9 ; 1.0996567726892813E10 ; 38658.05999999998
64 ; 5.767273254395631E7 ; 2.0029938638000003E8 ; 3.5647359652207165E9 ; 1.1196867113272812E10 ; 39271.679999999986
65 ; 5.76820715606029E7 ; 2.0029938638000003E8 ; 3.6224086977646728E9 ; 1.1397166499652811E10 ; 39885.29999999999
66 ; 5.7689789659092404E7 ; 2.0029938638000003E8 ; 3.6800907693252754E9 ; 1.159746588603281E10 ; 40498.91999999999
67 ; 5.770156678049306E7 ; 2.0029938638000003E8 ; 3.737780558984368E9 ; 1.179776527241281E10 ; 41112.53999999999
68 ; 5.770330312795201E7 ; 2.0029938638000003E8 ; 3.795482125764861E9 ; 1.1998064658792809E10 ; 41726.159999999996
69 ; 5.7705402802489944E7 ; 2.0029938638000003E8 ; 3.853185428892813E9 ; 1.2198364045172808E10 ; 42339.78
70 ; 5.771540468999766E7 ; 2.0029938638000003E8 ; 3.910890831695303E9 ; 1.2398663431552807E10 ; 42953.4
71 ; 5.7721355607677445E7 ; 2.0029938638000003E8 ; 3.9686062363853006E9 ; 1.2598962817932806E10 ; 43567.020000000004
72 ; 5.772749972799216E7 ; 2.0029938638000003E8 ; 4.026327591992978E9 ; 1.2799262204312805E10 ; 44180.64000000001
73 ; 5.773367982638659E7 ; 2.0029938638000003E8 ; 4.08405509172097E9 ; 1.2999561590692804E10 ; 44794.26000000001
74 ; 5.774808019938636E7 ; 2.0029938638000003E8 ; 4.1417887715473566E9 ; 1.3199860977072803E10 ; 45407.88000000001
75 ; 5.774185763468702E7 ; 2.0029938638000003E8 ; 4.199536851746743E9 ; 1.3400160363452803E10 ; 46021.500000000015
76 ; 5.773388194836031E7 ; 2.0029938638000003E8 ; 4.25727870938143E9 ; 1.3600459749832802E10 ; 46635.12000000002
77 ; 5.774926113813339E7 ; 2.0029938638000003E8 ; 4.31501259132979E9 ; 1.3800759136212801E10 ; 47248.74000000002
78 ; 5.7721989618800804E7 ; 2.0029938638000003E8 ; 4.372761852467923E9 ; 1.40010585225928E10 ; 47862.36000000002
79 ; 5.771374206016099E7 ; 2.0029938638000003E8 ; 4.430483842086724E9 ; 1.42013579089728E10 ; 48475.980000000025
80 ; 5.7698932930572644E7 ; 2.0029938638000003E8 ; 4.488197584146885E9 ; 1.4401657295352798E10 ; 49089.60000000003
81 ; 5.76768075018038E7 ; 2.0029938638000003E8 ; 4.545896517077457E9 ; 1.4601956681732798E10 ; 49703.22000000003
82 ; 5.766087499223336E7 ; 2.0029938638000003E8 ; 4.603573324579261E9 ; 1.4802256068112797E10 ; 50316.84000000003
83 ; 5.7644308313327275E7 ; 2.0029938638000003E8 ; 4.661234199571494E9 ; 1.5002555454492796E10 ; 50930.460000000036
84 ; 5.7624879242448196E7 ; 2.0029938638000003E8 ; 4.718878507884821E9 ; 1.5202854840872795E10 ; 51544.08000000004
85 ; 5.761286505672529E7 ; 2.0029938638000003E8 ; 4.776503387127269E9 ; 1.5403154227252794E10 ; 52157.70000000004
86 ; 5.759165749097316E7 ; 2.0029938638000003E8 ; 4.834116252183994E9 ; 1.5603453613632793E10 ; 52771.32000000004
87 ; 5.756968160450198E7 ; 2.0029938638000003E8 ; 4.891707909674968E9 ; 1.5803753000012793E10 ; 53384.940000000046
88 ; 5.755036261617432E7 ; 2.0029938638000003E8 ; 4.9492775912794695E9 ; 1.6004052386392792E10 ; 53998.56000000005
89 ; 5.752997088821782E7 ; 2.0029938638000003E8 ; 5.006827953895644E9 ; 1.620435177277279E10 ; 54612.18000000005
90 ; 5.7511521730478406E7 ; 2.0029938638000003E8 ; 5.064357924783862E9 ; 1.640465115915279E10 ; 55225.800000000054
91 ; 5.74846818927349E7 ; 2.0029938638000003E8 ; 5.12186944651434E9 ; 1.660495054553279E10 ; 55839.42000000006
92 ; 5.747053395490709E7 ; 2.0029938638000003E8 ; 5.179354128407075E9 ; 1.6805249931912788E10 ; 56453.04000000006
93 ; 5.744183455645871E7 ; 2.0029938638000003E8 ; 5.236824662361982E9 ; 1.7005549318292788E10 ; 57066.66000000006
94 ; 5.741382554290095E7 ; 2.0029938638000003E8 ; 5.294266496918441E9 ; 1.7205848704672787E10 ; 57680.280000000064
95 ; 5.739320959389228E7 ; 2.0029938638000003E8 ; 5.351680322461342E9 ; 1.7406148091052788E10 ; 58293.90000000007
96 ; 5.736856236312181E7 ; 2.0029938638000003E8 ; 5.409073532055234E9 ; 1.760644747743279E10 ; 58907.52000000007
97 ; 5.7333926172127515E7 ; 2.0029938638000003E8 ; 5.466442094418356E9 ; 1.780674686381279E10 ; 59521.14000000007
98 ; 5.731650370556178E7 ; 2.0029938638000003E8 ; 5.523776020590484E9 ; 1.800704625019279E10 ; 60134.760000000075
99 ; 5.728920717695818E7 ; 2.0029938638000003E8 ; 5.581092524296045E9 ; 1.8207345636572792E10 ; 60748.38000000008
100 ; 5.7266207523853496E7 ; 2.0029938638000003E8 ; 5.638381731473003E9 ; 1.8407645022952793E10 ; 61362.00000000008
101 ; 5.7229311150601216E7 ; 2.0029938638000003E8 ; 5.695647938996857E9 ; 1.8607944409332794E10 ; 61975.62000000008
102 ; 5.720404516917776E7 ; 2.0029938638000003E8 ; 5.752877250147458E9 ; 1.8808243795712795E10 ; 62589.240000000085
103 ; 5.717903386074954E7 ; 2.0029938638000003E8 ; 5.810081295316636E9 ; 1.9008543182092796E10 ; 63202.86000000009
104 ; 5.714146416018191E7 ; 2.0029938638000003E8 ; 5.867260329177385E9 ; 1.9208842568472797E10 ; 63816.48000000009
105 ; 5.71188517689666E7 ; 2.0029938638000003E8 ; 5.924401793337567E9 ; 1.94091419548528E10 ; 64430.10000000009
106 ; 5.708888591678578E7 ; 2.0029938638000003E8 ; 5.981520645106534E9 ; 1.96094413412328E10 ; 65043.720000000096
107 ; 5.7052824402470574E7 ; 2.0029938638000003E8 ; 6.03860953102332E9 ; 1.98097407276128E10 ; 65657.3400000001
108 ; 5.7020050932303414E7 ; 2.0029938638000003E8 ; 6.095662355425791E9 ; 2.00100401139928E10 ; 66270.9600000001
109 ; 5.698869335287282E7 ; 2.0029938638000003E8 ; 6.152682406358094E9 ; 2.0210339500372803E10 ; 66884.58000000009
110 ; 5.694771381787456E7 ; 2.0029938638000003E8 ; 6.209671099710967E9 ; 2.0410638886752804E10 ; 67498.20000000008
111 ; 5.692067544379224E7 ; 2.0029938638000003E8 ; 6.266618813528842E9 ; 2.0610938273132805E10 ; 68111.82000000008
112 ; 5.6895870497205496E7 ; 2.0029938638000003E8 ; 6.323539488972634E9 ; 2.0811237659512806E10 ; 68725.44000000008
113 ; 5.685562578673225E7 ; 2.0029938638000003E8 ; 6.38043535946984E9 ; 2.1011537045892807E10 ; 69339.06000000007
114 ; 5.6821017990553185E7 ; 2.0029938638000003E8 ; 6.437290985256573E9 ; 2.1211836432272808E10 ; 69952.68000000007
115 ; 5.6789119732211545E7 ; 2.0029938638000003E8 ; 6.494112003247126E9 ; 2.141213581865281E10 ; 70566.30000000006
116 ; 5.674664426100124E7 ; 2.0029938638000003E8 ; 6.550901122979337E9 ; 2.161243520503281E10 ; 71179.92000000006
117 ; 5.6713594452904455E7 ; 2.0029938638000003E8 ; 6.607647767240338E9 ; 2.181273459141281E10 ; 71793.54000000005
118 ; 5.6676562870265424E7 ; 2.0029938638000003E8 ; 6.664361361693243E9 ; 2.2013033977792812E10 ; 72407.16000000005
119 ; 5.663516992744019E7 ; 2.0029938638000003E8 ; 6.721037924563508E9 ; 2.2213333364172813E10 ; 73020.78000000004
120 ; 5.659582365571935E7 ; 2.0029938638000003E8 ; 6.777673094490949E9 ; 2.2413632750552814E10 ; 73634.40000000004
121 ; 5.655715310135932E7 ; 2.0029938638000003E8 ; 6.834268918146668E9 ; 2.2613932136932816E10 ; 74248.02000000003
122 ; 5.651615788739442E7 ; 2.0029938638000003E8 ; 6.890826071248028E9 ; 2.2814231523312817E10 ; 74861.64000000003
123 ; 5.6480017199113265E7 ; 2.0029938638000003E8 ; 6.947342229135422E9 ; 2.3014530909692818E10 ; 75475.26000000002
124 ; 5.643610610826734E7 ; 2.0029938638000003E8 ; 7.003822246334535E9 ; 2.321483029607282E10 ; 76088.88000000002
125 ; 5.6396861221005045E7 ; 2.0029938638000003E8 ; 7.060258352442802E9 ; 2.341512968245282E10 ; 76702.50000000001
126 ; 5.6359622733703434E7 ; 2.0029938638000003E8 ; 7.116655213663808E9 ; 2.361542906883282E10 ; 77316.12000000001
127 ; 5.631327751682312E7 ; 2.0029938638000003E8 ; 7.1730148363975115E9 ; 2.3815728455212822E10 ; 77929.74
128 ; 5.626373061067936E7 ; 2.0029938638000003E8 ; 7.229328113914334E9 ; 2.4016027841592823E10 ; 78543.36
129 ; 5.622681586848539E7 ; 2.0029938638000003E8 ; 7.285591844525014E9 ; 2.4216327227972824E10 ; 79156.98
130 ; 5.617543674138588E7 ; 2.0029938638000003E8 ; 7.341818660393499E9 ; 2.4416626614352825E10 ; 79770.59999999999
131 ; 5.6114328404738754E7 ; 2.0029938638000003E8 ; 7.397994097134885E9 ; 2.4616926000732826E10 ; 80384.21999999999
132 ; 5.604654987146953E7 ; 2.0029938638000003E8 ; 7.454108425539623E9 ; 2.4817225387112827E10 ; 80997.83999999998
133 ; 5.5985686008452475E7 ; 2.0029938638000003E8 ; 7.510154975411093E9 ; 2.501752477349283E10 ; 81611.45999999998
134 ; 5.5926484165236756E7 ; 2.0029938638000003E8 ; 7.566140661419545E9 ; 2.521782415987283E10 ; 82225.07999999997
135 ; 5.5868195037340276E7 ; 2.0029938638000003E8 ; 7.622067145584782E9 ; 2.541812354625283E10 ; 82838.69999999997
136 ; 5.5798225895104855E7 ; 2.0029938638000003E8 ; 7.677935340622122E9 ; 2.561842293263283E10 ; 83452.31999999996
137 ; 5.573009950054782E7 ; 2.0029938638000003E8 ; 7.733733566517226E9 ; 2.5818722319012833E10 ; 84065.93999999996
138 ; 5.567228340198924E7 ; 2.0029938638000003E8 ; 7.789463666017774E9 ; 2.6019021705392834E10 ; 84679.55999999995
139 ; 5.5605663384370685E7 ; 2.0029938638000003E8 ; 7.845135949419763E9 ; 2.6219321091772835E10 ; 85293.17999999995
140 ; 5.553795219894305E7 ; 2.0029938638000003E8 ; 7.900741612804133E9 ; 2.6419620478152836E10 ; 85906.79999999994
141 ; 5.5471853187004134E7 ; 2.0029938638000003E8 ; 7.956279565003077E9 ; 2.6619919864532837E10 ; 86520.41999999994
142 ; 5.5408401391104996E7 ; 2.0029938638000003E8 ; 8.011751418190081E9 ; 2.6820219250912838E10 ; 87134.03999999994
143 ; 5.533151965580246E7 ; 2.0029938638000003E8 ; 8.067159819581185E9 ; 2.702051863729284E10 ; 87747.65999999993
144 ; 5.525558569152556E7 ; 2.0029938638000003E8 ; 8.122491339236988E9 ; 2.722081802367284E10 ; 88361.27999999993
145 ; 5.5216966041574895E7 ; 2.0029938638000003E8 ; 8.177746924928514E9 ; 2.742111741005284E10 ; 88974.89999999992
146 ; 5.517596519287718E7 ; 2.0029938638000003E8 ; 8.232963890970088E9 ; 2.7621416796432842E10 ; 89588.51999999992
147 ; 5.512926835771208E7 ; 2.0029938638000003E8 ; 8.288139856162965E9 ; 2.7821716182812843E10 ; 90202.13999999991
148 ; 5.50824721526622E7 ; 2.0029938638000003E8 ; 8.343269124520677E9 ; 2.8022015569192844E10 ; 90815.75999999991
149 ; 5.5038171357538775E7 ; 2.0029938638000003E8 ; 8.398351596673339E9 ; 2.8222314955572845E10 ; 91429.3799999999
150 ; 5.498145746172525E7 ; 2.0029938638000003E8 ; 8.453389768030878E9 ; 2.8422614341952847E10 ; 92042.9999999999
151 ; 5.4939190780307025E7 ; 2.0029938638000003E8 ; 8.508371225492603E9 ; 2.8622913728332848E10 ; 92656.6199999999
152 ; 5.48915181645755E7 ; 2.0029938638000003E8 ; 8.56331041627291E9 ; 2.882321311471285E10 ; 93270.23999999989
153 ; 5.4838196699368656E7 ; 2.0029938638000003E8 ; 8.618201934437485E9 ; 2.902351250109285E10 ; 93883.85999999988
154 ; 5.4795293074975826E7 ; 2.0029938638000003E8 ; 8.673040131136854E9 ; 2.922381188747285E10 ; 94497.47999999988
155 ; 5.47466545525288E7 ; 2.0029938638000003E8 ; 8.72783542421183E9 ; 2.942411127385285E10 ; 95111.09999999987
156 ; 5.4702195380350076E7 ; 2.0029938638000003E8 ; 8.782582078764359E9 ; 2.9624410660232853E10 ; 95724.71999999987
157 ; 5.465061137309869E7 ; 2.0029938638000003E8 ; 8.837284274144709E9 ; 2.9824710046612854E10 ; 96338.33999999987
158 ; 5.459860842847296E7 ; 2.0029938638000003E8 ; 8.891934885517807E9 ; 3.0025009432992855E10 ; 96951.95999999986
159 ; 5.4552102091452554E7 ; 2.0029938638000003E8 ; 8.94653349394628E9 ; 3.0225308819372856E10 ; 97565.57999999986
160 ; 5.449546537768336E7 ; 2.0029938638000003E8 ; 9.001085596037731E9 ; 3.0425608205752857E10 ; 98179.19999999985
161 ; 5.445002180319035E7 ; 2.0029938638000003E8 ; 9.055581061415415E9 ; 3.062590759213286E10 ; 98792.81999999985
162 ; 5.439778146485586E7 ; 2.0029938638000003E8 ; 9.110031083218605E9 ; 3.082620697851286E10 ; 99406.43999999984
163 ; 5.435061639610837E7 ; 2.0029938638000003E8 ; 9.16442886468346E9 ; 3.102650636489286E10 ; 100020.05999999984
164 ; 5.430000269576094E7 ; 2.0029938638000003E8 ; 9.218779481079569E9 ; 3.122680575127286E10 ; 100633.67999999983
165 ; 5.424667472139497E7 ; 2.0029938638000003E8 ; 9.27307948377533E9 ; 3.1427105137652863E10 ; 101247.29999999983
166 ; 5.419761709718114E7 ; 2.0029938638000003E8 ; 9.327326158496725E9 ; 3.1627404524032864E10 ; 101860.91999999982
167 ; 5.414907472671432E7 ; 2.0029938638000003E8 ; 9.381523775593906E9 ; 3.1827703910412865E10 ; 102474.53999999982
168 ; 5.409435813557124E7 ; 2.0029938638000003E8 ; 9.435672850320621E9 ; 3.2028003296792866E10 ; 103088.15999999981
169 ; 5.404420071792562E7 ; 2.0029938638000003E8 ; 9.489767208456192E9 ; 3.2228302683172867E10 ; 103701.77999999981
170 ; 5.3998400770719424E7 ; 2.0029938638000003E8 ; 9.543811409174118E9 ; 3.2428602069552868E10 ; 104315.3999999998
171 ; 5.394219200903026E7 ; 2.0029938638000003E8 ; 9.597809809944838E9 ; 3.262890145593287E10 ; 104929.0199999998
172 ; 5.3887047207987025E7 ; 2.0029938638000003E8 ; 9.651752001953867E9 ; 3.282920084231287E10 ; 105542.6399999998
