CSV File for the Network on Day 192
1 - Minute m 
2 - Power Consumed at minute m 
3 - Power Produced at minute m 
4 - Energy Consumed since the beginning of the day 
5 - Energy Produced since the beginning of the day 
6 - Energy Lost since the beginning of the day 
 
0 ; 5179278.338073125 ; 6.340336657855192E8 ; 0.0 ; 0.0 ; 0.0
1 ; 5234373.405904267 ; 6.349432504996948E8 ; 5179278.338073125 ; 6.340336657855192E8 ; 0.0
2 ; 5267982.458086578 ; 6.377063292362099E8 ; 1.0413651743977392E7 ; 1.268976916285214E9 ; 0.0
3 ; 5318922.504751031 ; 6.423229270883398E8 ; 1.568163420206397E7 ; 1.9066832455214238E9 ; 0.0
4 ; 5372055.147221954 ; 6.487930667082579E8 ; 2.1000556706815E7 ; 2.5490061726097636E9 ; 0.0
5 ; 5450377.679067179 ; 6.571167681273203E8 ; 2.6372611854036953E7 ; 3.197799239318022E9 ; 0.0
6 ; 5540650.137831137 ; 6.672940485926393E8 ; 3.1822989533104133E7 ; 3.854916007445342E9 ; 0.0
7 ; 5672056.374108845 ; 6.793249224229623E8 ; 3.736363967093527E7 ; 4.522210056037981E9 ; 0.0
8 ; 5858368.783322179 ; 6.93209400886607E8 ; 4.303569604504412E7 ; 5.201534978460943E9 ; 0.0
9 ; 6146881.389300467 ; 7.08947492103857E8 ; 4.8894064828366295E7 ; 5.89474437934755E9 ; 0.0
10 ; 6581030.010476407 ; 7.26539200975775E8 ; 5.504094621766676E7 ; 6.603691871451407E9 ; 0.0
11 ; 7270718.563265555 ; 7.459845291408943E8 ; 6.162197622814317E7 ; 7.330231072427182E9 ; 0.0
12 ; 8382524.9845688585 ; 7.672834749606813E8 ; 6.889269479140872E7 ; 8.076215601568076E9 ; 0.0
13 ; 9444664.282754237 ; 7.904360335340734E8 ; 7.727521977597758E7 ; 8.843499076528757E9 ; 0.0
14 ; 9575708.667936007 ; 8.154421967407875E8 ; 8.671988405873182E7 ; 9.63393511006283E9 ; 0.0
15 ; 9625128.531080782 ; 8.423019533125054E8 ; 9.629559272666784E7 ; 1.0449377306803617E10 ; 0.0
16 ; 9680231.092956495 ; 8.710152889304802E8 ; 1.0592072125774862E8 ; 1.1291679260116123E10 ; 0.0
17 ; 9741061.078748016 ; 9.015821863475991E8 ; 1.1560095235070512E8 ; 1.2162694549046604E10 ; 0.0
18 ; 9787966.216519337 ; 9.340026255325062E8 ; 1.2534201342945313E8 ; 1.3064276735394203E10 ; 0.0
19 ; 9843605.135097427 ; 9.682765838330281E8 ; 1.3512997964597246E8 ; 1.399827936092671E10 ; 0.0
20 ; 9896562.254017621 ; 1.0044040361558894E9 ; 1.4497358478106987E8 ; 1.4966555944759739E10 ; 0.0
21 ; 9956914.755148921 ; 1.042384955159537E9 ; 1.548701470350875E8 ; 1.5970959980915628E10 ; 0.0
22 ; 1.0009137325493187E7 ; 1.0822193114568186E9 ; 1.648270617902364E8 ; 1.7013344936075165E10 ; 0.0
23 ; 1.0055978805671923E7 ; 1.123907073824287E9 ; 1.748361991157296E8 ; 1.8095564247531982E10 ; 0.0
24 ; 1.0117512959429905E7 ; 1.1674482094149976E9 ; 1.8489217792140153E8 ; 1.921947132135627E10 ; 0.0
25 ; 1.01704015956469E7 ; 1.2049709293609476E9 ; 1.9500969088083142E8 ; 2.0386919530771267E10 ; 0.0
26 ; 1.0225854144685272E7 ; 1.2049964852056031E9 ; 2.051800924764783E8 ; 2.1591890460132214E10 ; 0.0
27 ; 1.0276691120905114E7 ; 1.205023456259842E9 ; 2.1540594662116358E8 ; 2.279688694533782E10 ; 0.0
28 ; 1.0328106110733485E7 ; 1.2050518052823482E9 ; 2.2568263774206868E8 ; 2.400191040159766E10 ; 0.0
29 ; 1.0379452615280047E7 ; 1.2050814944302635E9 ; 2.3601074385280216E8 ; 2.520696220688001E10 ; 0.0
30 ; 1.0425683676116582E7 ; 1.205112485440319E9 ; 2.463901964680822E8 ; 2.6412043701310272E10 ; 0.0
31 ; 1.0485134014450053E7 ; 1.205144739798755E9 ; 2.5681588014419878E8 ; 2.761715618675059E10 ; 0.0
32 ; 1.0533613549710264E7 ; 1.2051782188991976E9 ; 2.6730101415864882E8 ; 2.8822300926549347E10 ; 0.0
33 ; 1.0585447419769008E7 ; 1.2052128841879387E9 ; 2.7783462770835906E8 ; 3.0027479145448544E10 ; 0.0
34 ; 1.0634042918350419E7 ; 1.2052486972963314E9 ; 2.8842007512812805E8 ; 3.1232692029636482E10 ; 0.0
35 ; 1.0680799333764292E7 ; 1.2052856201602564E9 ; 2.9905411804647845E8 ; 3.2437940726932816E10 ; 0.0
36 ; 1.0725792858373743E7 ; 1.2053236151268013E9 ; 3.0973491738024276E8 ; 3.364322634709307E10 ; 0.0
37 ; 1.0769999488690546E7 ; 1.2053626450484805E9 ; 3.204607102386165E8 ; 3.484854996221987E10 ; 0.0
38 ; 1.0815614161219083E7 ; 1.2054026733654554E9 ; 3.312307097273071E8 ; 3.605391260726835E10 ; 0.0
39 ; 1.0859617683634575E7 ; 1.20544366417632E9 ; 3.4204632388852614E8 ; 3.7259315280633804E10 ; 0.0
40 ; 1.0894612974571437E7 ; 1.2054855822981095E9 ; 3.529059415721607E8 ; 3.846475894481013E10 ; 0.0
41 ; 1.0934789912408177E7 ; 1.2055283933162374E9 ; 3.638005545467322E8 ; 3.967024452710824E10 ; 0.0
42 ; 1.0966323891768627E7 ; 1.2055720636251059E9 ; 3.7473534445914036E8 ; 4.087577292042448E10 ; 0.0
43 ; 1.0998455957282256E7 ; 1.205616560460152E9 ; 3.85701668350909E8 ; 4.208134498404958E10 ; 0.0
44 ; 1.103687673111625E7 ; 1.2056618519220898E9 ; 3.9670012430819124E8 ; 4.3286961544509735E10 ; 0.0
45 ; 1.1063578813494956E7 ; 1.2057079069941006E9 ; 4.077370010393075E8 ; 4.449262339643182E10 ; 0.0
46 ; 1.1095713972259786E7 ; 1.2057546955526958E9 ; 4.1880057985280246E8 ; 4.569833130342593E10 ; 0.0
47 ; 1.1120938127943084E7 ; 1.2058021883729517E9 ; 4.298962938250622E8 ; 4.690408599897862E10 ; 0.0
48 ; 1.114807067434647E7 ; 1.2058503571287751E9 ; 4.410172319530053E8 ; 4.810988818735158E10 ; 0.0
49 ; 1.1175796111930223E7 ; 1.205899174388819E9 ; 4.5216530262735176E8 ; 4.9315738544480354E10 ; 0.0
50 ; 1.119083048790719E7 ; 1.2059486136086278E9 ; 4.63341098739282E8 ; 5.052163771886917E10 ; 0.0
51 ; 1.1215860920233026E7 ; 1.2059986491195414E9 ; 4.745319292271892E8 ; 5.17275863324778E10 ; 0.0
52 ; 1.123489961124742E7 ; 1.2060492561148462E9 ; 4.857477901474222E8 ; 5.293358498159734E10 ; 0.0
53 ; 1.125415359882585E7 ; 1.2061004106336198E9 ; 4.969826897586696E8 ; 5.413963423771219E10 ; 0.0
54 ; 1.1274532406211602E7 ; 1.2061520895426672E9 ; 5.082368433574955E8 ; 5.534573464834581E10 ; 0.0
55 ; 1.1303036935765404E7 ; 1.2062042705169134E9 ; 5.195113757637071E8 ; 5.655188673788847E10 ; 0.0
56 ; 1.1320768159534723E7 ; 1.206256932018569E9 ; 5.308144126994725E8 ; 5.775809100840539E10 ; 0.0
57 ; 1.133498477618083E7 ; 1.206310053275363E9 ; 5.421351808590072E8 ; 5.896434794042396E10 ; 0.0
58 ; 1.1355559093161296E7 ; 1.2063636142580855E9 ; 5.534701656351881E8 ; 6.017065799369932E10 ; 0.0
59 ; 1.1370904707716158E7 ; 1.206417595657672E9 ; 5.648257247283494E8 ; 6.1377021607957405E10 ; 0.0
60 ; 1.1383232355487917E7 ; 1.2064719788620126E9 ; 5.761966294360656E8 ; 6.2583439203615074E10 ; 0.0
61 ; 1.1403364888843793E7 ; 1.206526745932661E9 ; 5.875798617915535E8 ; 6.378991118247709E10 ; 0.0
62 ; 1.1417414405152554E7 ; 1.206581879581584E9 ; 5.989832266803973E8 ; 6.499643792840975E10 ; 0.0
63 ; 1.1445764859973801E7 ; 1.2066373631480708E9 ; 6.104006410855498E8 ; 6.620301980799133E10 ; 0.0
64 ; 1.1448335014183957E7 ; 1.206693180575912E9 ; 6.218464059455236E8 ; 6.7409657171139404E10 ; 0.0
65 ; 1.1475747422545064E7 ; 1.20674931639093E9 ; 6.332947409597076E8 ; 6.861635035171532E10 ; 0.0
66 ; 1.1484893820449406E7 ; 1.2068057556789331E9 ; 6.447704883822527E8 ; 6.982309966810625E10 ; 0.0
67 ; 1.1507644308534406E7 ; 1.2068624840641541E9 ; 6.56255382202702E8 ; 7.102990542378519E10 ; 0.0
68 ; 1.151428283776183E7 ; 1.2069194876882155E9 ; 6.677630265112364E8 ; 7.223676790784933E10 ; 0.0
69 ; 1.1536528140149549E7 ; 1.2069767531896634E9 ; 6.792773093489983E8 ; 7.344368739553755E10 ; 0.0
70 ; 1.155259469776182E7 ; 1.2070342676840901E9 ; 6.908138374891479E8 ; 7.465066414872722E10 ; 0.0
71 ; 1.1566006782599423E7 ; 1.2070920187448728E9 ; 7.023664321869097E8 ; 7.585769841641132E10 ; 0.0
72 ; 1.1577212038892198E7 ; 1.2071499943845348E9 ; 7.139324389695091E8 ; 7.706479043515619E10 ; 0.0
73 ; 1.1591899849696111E7 ; 1.2072081830367415E9 ; 7.255096510084013E8 ; 7.827194042954073E10 ; 0.0
74 ; 1.1608822551901946E7 ; 1.2072665735389266E9 ; 7.371015508580974E8 ; 7.947914861257747E10 ; 0.0
75 ; 1.161528307310564E7 ; 1.2073251551155567E9 ; 7.487103734099994E8 ; 8.06864151861164E10 ; 0.0
76 ; 1.1634571196695358E7 ; 1.207383917362019E9 ; 7.603256564831051E8 ; 8.189374034123195E10 ; 0.0
77 ; 1.1652595286856811E7 ; 1.2074428502291296E9 ; 7.719602276798004E8 ; 8.310112425859396E10 ; 0.0
78 ; 1.164453981897063E7 ; 1.2075019440082479E9 ; 7.836128229666572E8 ; 8.430856710882309E10 ; 0.0
79 ; 1.1647988858430345E7 ; 1.2075611893169909E9 ; 7.952573627856278E8 ; 8.551606905283134E10 ; 0.0
80 ; 1.164633334849317E7 ; 1.2076205770855246E9 ; 8.069053516440582E8 ; 8.672363024214833E10 ; 0.0
81 ; 1.164706372145246E7 ; 1.207680098543423E9 ; 8.185516849925514E8 ; 8.793125081923386E10 ; 0.0
82 ; 1.1641131667247673E7 ; 1.2077397452070782E9 ; 8.301987487140039E8 ; 8.913893091777728E10 ; 0.0
83 ; 1.1641685112557378E7 ; 1.207799508867641E9 ; 8.418398803812516E8 ; 9.034667066298436E10 ; 0.0
84 ; 1.163941469217548E7 ; 1.2078593815794768E9 ; 8.53481565493809E8 ; 9.1554470171852E10 ; 0.0
85 ; 1.1641820587118685E7 ; 1.2079193556491208E9 ; 8.651209801859845E8 ; 9.276232955343149E10 ; 0.0
86 ; 1.163148255786383E7 ; 1.2079794236247125E9 ; 8.767628007731032E8 ; 9.397024890908061E10 ; 0.0
87 ; 1.1630883834210057E7 ; 1.2080395782858884E9 ; 8.883942833309671E8 ; 9.517822833270532E10 ; 0.0
88 ; 1.1629453698087107E7 ; 1.2080998126341252E9 ; 9.000251671651771E8 ; 9.638626791099121E10 ; 0.0
89 ; 1.1617852695066003E7 ; 1.2081601198835034E9 ; 9.116546208632642E8 ; 9.759436772362534E10 ; 0.0
90 ; 1.1617663466692746E7 ; 1.2082204934518852E9 ; 9.232724735583302E8 ; 9.880252784350883E10 ; 0.0
91 ; 1.1612669114307944E7 ; 1.2082809269524808E9 ; 9.34890137025023E8 ; 1.0001074833696072E11 ; 0.0
92 ; 1.160724792388649E7 ; 1.208341414185794E9 ; 9.46502806139331E8 ; 1.0121902926391321E11 ; 0.0
93 ; 1.1609345406091733E7 ; 1.2084019491319277E9 ; 9.581100540632175E8 ; 1.02427370678099E11 ; 0.0
94 ; 1.1599975955182517E7 ; 1.2084625259432316E9 ; 9.697193994693092E8 ; 1.0363577262723093E11 ; 0.0
95 ; 1.1593718420133889E7 ; 1.2085231389372818E9 ; 9.813193754244918E8 ; 1.0484423515317416E11 ; 0.0
96 ; 1.158340237216293E7 ; 1.2085837825901754E9 ; 9.929130938446257E8 ; 1.0605275829211145E11 ; 0.0
97 ; 1.1583661519665489E7 ; 1.2086444515301244E9 ; 1.0044964962167886E9 ; 1.0726134207470163E11 ; 0.0
98 ; 1.1579258606440762E7 ; 1.2087051405313387E9 ; 1.0160801577364541E9 ; 1.0846998652623175E11 ; 0.0
99 ; 1.1575170373517966E7 ; 1.2087658445081835E9 ; 1.0276594163428949E9 ; 1.0967869166676309E11 ; 0.0
100 ; 1.1559840857120028E7 ; 1.2088265585095978E9 ; 1.0392345867164129E9 ; 1.1088745751127127E11 ; 0.0
101 ; 1.1559365584351353E7 ; 1.208887277713763E9 ; 1.0507944275735329E9 ; 1.1209628406978087E11 ; 0.0
102 ; 1.1548979746694967E7 ; 1.2089479974230115E9 ; 1.0623537931578842E9 ; 1.1330517134749463E11 ; 0.0
103 ; 1.1541055290290162E7 ; 1.2090087130589619E9 ; 1.0739027729045792E9 ; 1.1451411934491763E11 ; 0.0
104 ; 1.153454151378618E7 ; 1.2090694201578686E9 ; 1.0854438281948693E9 ; 1.157231280579766E11 ; 0.0
105 ; 1.152817283456288E7 ; 1.209130114366185E9 ; 1.0969783697086554E9 ; 1.1693219747813446E11 ; 0.0
106 ; 1.1516418253256664E7 ; 1.2091907914363163E9 ; 1.1085065425432181E9 ; 1.1814132759250064E11 ; 0.0
107 ; 1.151519313032372E7 ; 1.2092514472225652E9 ; 1.1200229607964747E9 ; 1.1935051838393695E11 ; 0.0
108 ; 1.1499661618879657E7 ; 1.2093120776772568E9 ; 1.1315381539267983E9 ; 1.2055976983115952E11 ; 0.0
109 ; 1.1483134747908281E7 ; 1.209372678847031E9 ; 1.143037815545678E9 ; 1.2176908190883678E11 ; 0.0
110 ; 1.1481314493182156E7 ; 1.2094332468693023E9 ; 1.1545209502935863E9 ; 1.229784545876838E11 ; 0.0
111 ; 1.1470647331612326E7 ; 1.2094937779688716E9 ; 1.1660022647867684E9 ; 1.2418788783455312E11 ; 0.0
112 ; 1.1461018402638445E7 ; 1.209554268454688E9 ; 1.1774729121183808E9 ; 1.2539738161252199E11 ; 0.0
113 ; 1.1449255560518676E7 ; 1.209614714716751E9 ; 1.1889339305210192E9 ; 1.2660693588097667E11 ; 0.0
114 ; 1.1437483730897557E7 ; 1.209675113223148E9 ; 1.200383186081538E9 ; 1.2781655059569342E11 ; 0.0
115 ; 1.1424801371339392E7 ; 1.209735460517218E9 ; 1.2118206698124356E9 ; 1.2902622570891656E11 ; 0.0
116 ; 1.1417716116822071E7 ; 1.2097957532148416E9 ; 1.223245471183775E9 ; 1.3023596116943378E11 ; 0.0
117 ; 1.1407106984760623E7 ; 1.2098559880018435E9 ; 1.234663187300597E9 ; 1.3144575692264862E11 ; 0.0
118 ; 1.1387142706205305E7 ; 1.2099161616315088E9 ; 1.2460702942853575E9 ; 1.3265561291065047E11 ; 0.0
119 ; 1.1383343841540894E7 ; 1.2099762709222045E9 ; 1.2574574369915628E9 ; 1.3386552907228198E11 ; 0.0
120 ; 1.1369728263002614E7 ; 1.2100363127551038E9 ; 1.2688407808331037E9 ; 1.350755053432042E11 ; 0.0
121 ; 1.134813084626445E7 ; 1.2100962840720024E9 ; 1.2802105090961063E9 ; 1.3628554165595929E11 ; 0.0
122 ; 1.1338121507991724E7 ; 1.2101561818732338E9 ; 1.2915586399423707E9 ; 1.3749563794003128E11 ; 0.0
123 ; 1.1321723327191412E7 ; 1.2102160032156663E9 ; 1.3028967614503624E9 ; 1.387057941219045E11 ; 0.0
124 ; 1.1309943591027256E7 ; 1.2102757452107863E9 ; 1.3142184847775538E9 ; 1.3991601012512018E11 ; 0.0
125 ; 1.129468939073833E7 ; 1.2103354050228634E9 ; 1.325528428368581E9 ; 1.4112628587033096E11 ; 0.0
126 ; 1.1281726355247242E7 ; 1.210394979867188E9 ; 1.3368231177593193E9 ; 1.4233662127535382E11 ; 0.0
127 ; 1.1263255436864248E7 ; 1.210454467008386E9 ; 1.3481048441145666E9 ; 1.43547016255221E11 ; 0.0
128 ; 1.1255074248261968E7 ; 1.2105138637587986E9 ; 1.3593680995514307E9 ; 1.447574707222294E11 ; 0.0
129 ; 1.1231930604324482E7 ; 1.210573167476933E9 ; 1.3706231737996926E9 ; 1.459679845859882E11 ; 0.0
130 ; 1.121033801590623E7 ; 1.2106323755659738E9 ; 1.3818551044040172E9 ; 1.4717855775346512E11 ; 0.0
131 ; 1.1182306682208775E7 ; 1.2106914854723556E9 ; 1.3930654424199235E9 ; 1.483891901290311E11 ; 0.0
132 ; 1.1161184141418524E7 ; 1.2107504946843946E9 ; 1.4042477491021323E9 ; 1.4959988161450345E11 ; 0.0
133 ; 1.1125846052137678E7 ; 1.2108094007309737E9 ; 1.4154089332435508E9 ; 1.5081063210918784E11 ; 0.0
134 ; 1.109373377940675E7 ; 1.210868201180283E9 ; 1.4265347792956884E9 ; 1.5202144150991882E11 ; 0.0
135 ; 1.1060171657552944E7 ; 1.210926893638607E9 ; 1.4376285130750952E9 ; 1.5323230971109912E11 ; 0.0
136 ; 1.1035864042270944E7 ; 1.210985475749165E9 ; 1.4486886847326481E9 ; 1.5444323660473773E11 ; 0.0
137 ; 1.1002541029555146E7 ; 1.2110439451909947E9 ; 1.459724548774919E9 ; 1.556542220804869E11 ; 0.0
138 ; 1.0973119142664477E7 ; 1.2111022996778796E9 ; 1.470727089804474E9 ; 1.5686526602567792E11 ; 0.0
139 ; 1.0933278299421245E7 ; 1.21116053695732E9 ; 1.4817002089471385E9 ; 1.580763683253558E11 ; 0.0
140 ; 1.0911027492895722E7 ; 1.2112186548095455E9 ; 1.4926334872465599E9 ; 1.592875288623131E11 ; 0.0
141 ; 1.0874988678495107E7 ; 1.2112766510465631E9 ; 1.5035445147394557E9 ; 1.6049874751712265E11 ; 0.0
142 ; 1.0848284674147835E7 ; 1.2113345235112445E9 ; 1.5144195034179509E9 ; 1.6171002416816922E11 ; 0.0
143 ; 1.0812441888547733E7 ; 1.2113922700764494E9 ; 1.5252677880920987E9 ; 1.6292135869168045E11 ; 0.0
144 ; 1.0778213154026438E7 ; 1.2114498886441803E9 ; 1.5360802299806464E9 ; 1.641327509617569E11 ; 0.0
145 ; 1.0768759407475293E7 ; 1.2115073771447725E9 ; 1.5468584431346729E9 ; 1.6534420085040106E11 ; 0.0
146 ; 1.0745464885160975E7 ; 1.2115647335361137E9 ; 1.557627202542148E9 ; 1.6655570822754584E11 ; 0.0
147 ; 1.0735078044319056E7 ; 1.2116219558028922E9 ; 1.568372667427309E9 ; 1.6776727296108194E11 ; 0.0
148 ; 1.0716380623131832E7 ; 1.211679041955878E9 ; 1.5791077454716282E9 ; 1.6897889491688483E11 ; 0.0
149 ; 1.0702454499770867E7 ; 1.2117359900312257E9 ; 1.58982412609476E9 ; 1.701905739588407E11 ; 0.0
150 ; 1.0686442685443396E7 ; 1.211792798089808E9 ; 1.6005265805945308E9 ; 1.7140230994887192E11 ; 0.0
151 ; 1.0662809991862785E7 ; 1.2118494642165723E9 ; 1.6112130232799742E9 ; 1.7261410274696173E11 ; 0.0
152 ; 1.06565590996161E7 ; 1.2119059865199208E9 ; 1.621875833271837E9 ; 1.738259522111783E11 ; 0.0
153 ; 1.0635885219678506E7 ; 1.211962363131116E9 ; 1.632532392371453E9 ; 1.7503785819769824E11 ; 0.0
154 ; 1.061284084182857E7 ; 1.212018592203707E9 ; 1.6431682775911314E9 ; 1.7624982056082935E11 ; 0.0
155 ; 1.0606284950315239E7 ; 1.2120746719129758E9 ; 1.65378111843296E9 ; 1.7746183915303305E11 ; 0.0
156 ; 1.0585063922525588E7 ; 1.2121306004554071E9 ; 1.6643874033832753E9 ; 1.78673913824946E11 ; 0.0
157 ; 1.0567803387456454E7 ; 1.212186376048174E9 ; 1.674972467305801E9 ; 1.7988604442540143E11 ; 0.0
158 ; 1.0555722738815181E7 ; 1.2122419969286456E9 ; 1.6855402706932573E9 ; 1.8109823080144962E11 ; 0.0
159 ; 1.0527144814067027E7 ; 1.2122974613539112E9 ; 1.6960959934320724E9 ; 1.8231047279837827E11 ; 0.0
160 ; 1.0518957536160698E7 ; 1.2123527676003218E9 ; 1.7066231382461395E9 ; 1.8352277025973218E11 ; 0.0
161 ; 1.0502457157327216E7 ; 1.2124079139630482E9 ; 1.7171420957823002E9 ; 1.847351230273325E11 ; 0.0
162 ; 1.0482117781557119E7 ; 1.2124628987556562E9 ; 1.7276445529396274E9 ; 1.8594753094129553E11 ; 0.0
163 ; 1.04630906506425E7 ; 1.2125177203096943E9 ; 1.7381266707211845E9 ; 1.8715999384005118E11 ; 0.0
164 ; 1.0450163576783685E7 ; 1.2125723769743009E9 ; 1.748589761371827E9 ; 1.8837251156036087E11 ; 0.0
165 ; 1.0433536733950425E7 ; 1.2126268671158192E9 ; 1.7590399249486105E9 ; 1.8958508393733517E11 ; 0.0
166 ; 1.0411953552165238E7 ; 1.212681189117433E9 ; 1.769473461682561E9 ; 1.90797710804451E11 ; 0.0
167 ; 1.0392412003987286E7 ; 1.212735341378809E9 ; 1.7798854152347262E9 ; 1.9201039199356842E11 ; 0.0
168 ; 1.0375907854345273E7 ; 1.212789322315756E9 ; 1.7902778272387135E9 ; 1.9322312733494724E11 ; 0.0
169 ; 1.036397206810608E7 ; 1.2128431303598943E9 ; 1.8006537350930588E9 ; 1.94435916657263E11 ; 0.0
170 ; 1.0341616572843906E7 ; 1.2128967639583373E9 ; 1.811017707161165E9 ; 1.956487597876229E11 ; 0.0
171 ; 1.0329492354777284E7 ; 1.2129502215733836E9 ; 1.8213593237340088E9 ; 1.9686165655158124E11 ; 0.0
172 ; 1.0308479176730592E7 ; 1.2130035016822214E9 ; 1.8316888160887861E9 ; 1.9807460677315463E11 ; 0.0
173 ; 1.029127666665513E7 ; 1.213056602776641E9 ; 1.8419972952655168E9 ; 1.9928761027483685E11 ; 0.0
174 ; 1.0277807404773526E7 ; 1.2131095233627594E9 ; 1.8522885719321718E9 ; 2.005006668776135E11 ; 0.0
175 ; 1.0264385020812392E7 ; 1.2131622619607534E9 ; 1.8625663793369453E9 ; 2.0171377640097626E11 ; 0.0
176 ; 1.025011321185362E7 ; 1.2132148171046016E9 ; 1.8728307643577576E9 ; 2.02926938662937E11 ; 0.0
177 ; 1.0246424859689359E7 ; 1.2132671873418362E9 ; 1.883080877569611E9 ; 2.0414015348004163E11 ; 0.0
178 ; 1.0218041170790073E7 ; 1.2133193712333033E9 ; 1.8933273024293005E9 ; 2.0535342066738345E11 ; 0.0
179 ; 1.0220881391008409E7 ; 1.2133713673529296E9 ; 1.9035453436000905E9 ; 2.0656674003861676E11 ; 0.0
180 ; 1.0204372554987708E7 ; 1.2134231742875009E9 ; 1.9137662249910989E9 ; 2.077801114059697E11 ; 0.0
181 ; 1.0193327437553996E7 ; 1.2134747906364431E9 ; 1.9239705975460865E9 ; 2.089935345802572E11 ; 0.0
182 ; 1.0185139167820685E7 ; 1.2135262150116155E9 ; 1.9341639249836404E9 ; 2.1020700937089365E11 ; 0.0
183 ; 1.0163751135952897E7 ; 1.213577446037108E9 ; 1.9443490641514611E9 ; 2.1142053558590527E11 ; 0.0
184 ; 1.0151056259114282E7 ; 1.2136284823490458E9 ; 1.954512815287414E9 ; 2.1263411303194238E11 ; 0.0
185 ; 1.0139108909333007E7 ; 1.2136793225954018E9 ; 1.9646638715465283E9 ; 2.1384774151429144E11 ; 0.0
186 ; 1.0133430384948738E7 ; 1.213729965435815E9 ; 1.9748029804558613E9 ; 2.1506142083688684E11 ; 0.0
187 ; 1.0114232073378295E7 ; 1.2137804095414128E9 ; 1.98493641084081E9 ; 2.1627515080232266E11 ; 0.0
188 ; 1.0102208062832773E7 ; 1.2138306535946429E9 ; 1.9950506429141884E9 ; 2.1748893121186407E11 ; 0.0
189 ; 1.0090765437013986E7 ; 1.2138806962891078E9 ; 2.0051528509770212E9 ; 2.187027618654587E11 ; 0.0
190 ; 1.008154068564756E7 ; 1.213930536329407E9 ; 2.0152436164140353E9 ; 2.199166425617478E11 ; 0.0
191 ; 1.0069211621959554E7 ; 1.213980172430982E9 ; 2.0253251570996828E9 ; 2.211305730980772E11 ; 0.0
192 ; 1.0058115306736896E7 ; 1.2140296033199701E9 ; 2.0353943687216423E9 ; 2.2234455327050818E11 ; 0.0
193 ; 1.0048366686433062E7 ; 1.2140788277330592E9 ; 2.0454524840283792E9 ; 2.2355858287382816E11 ; 0.0
194 ; 1.0026321615917025E7 ; 1.2141278444173498E9 ; 2.0555008507148123E9 ; 2.2477266170156122E11 ; 0.0
195 ; 1.00201050905299E7 ; 1.214176652130221E9 ; 2.0655271723307292E9 ; 2.2598678954597858E11 ; 0.0
