CSV File for the Network on Day 220
1 - Minute m 
2 - Power Consumed at minute m 
3 - Power Produced at minute m 
4 - Energy Consumed since the beginning of the day 
5 - Energy Produced since the beginning of the day 
6 - Energy Lost since the beginning of the day 
 
0 ; 2509122.9145872863 ; 6.322204168937424E8 ; 0.0 ; 0.0 ; 0.0
1 ; 2555957.9354901602 ; 6.331160766294775E8 ; 2509122.9145872863 ; 6.322204168937424E8 ; 0.0
2 ; 2600337.236638282 ; 6.35866117780166E8 ; 5065080.850077447 ; 1.26533649352322E9 ; 0.0
3 ; 2655014.248157937 ; 6.404707225457168E8 ; 7665418.086715728 ; 1.9012026113033862E9 ; 0.0
4 ; 2718510.39781312 ; 6.469300703648229E8 ; 1.0320432334873665E7 ; 2.541673333849103E9 ; 0.0
5 ; 2787828.6679847306 ; 6.552443331547818E8 ; 1.3038942732686784E7 ; 3.188603404213926E9 ; 0.0
6 ; 2889770.5378845446 ; 6.654136699672729E8 ; 1.5826771400671516E7 ; 3.8438477373687077E9 ; 0.0
7 ; 3018026.4846542324 ; 6.774382213372569E8 ; 1.871654193855606E7 ; 4.50926140733598E9 ; 0.0
8 ; 3212362.5174882133 ; 6.913181037077678E8 ; 2.1734568423210293E7 ; 5.186699628673237E9 ; 0.0
9 ; 3501137.5973749114 ; 7.07053404386864E8 ; 2.4946930940698504E7 ; 5.878017732381004E9 ; 0.0
10 ; 3937296.175182256 ; 7.246441775098717E8 ; 2.8448068538073417E7 ; 6.585071136767868E9 ; 0.0
11 ; 4631991.840848984 ; 7.440904414239011E8 ; 3.2385364713255674E7 ; 7.30971531427774E9 ; 0.0
12 ; 5747027.058147032 ; 7.653921777818421E8 ; 3.7017356554104656E7 ; 8.053805755701641E9 ; 0.0
13 ; 6816928.303422185 ; 7.885493324483678E8 ; 4.2764383612251684E7 ; 8.819197933483482E9 ; 0.0
14 ; 6951413.464740325 ; 8.13561818115421E8 ; 4.958131191567387E7 ; 9.60774726593185E9 ; 0.0
15 ; 7003826.342508231 ; 8.40429518339967E8 ; 5.653272538041419E7 ; 1.0421309084047272E10 ; 0.0
16 ; 7055894.21501131 ; 8.691522925870451E8 ; 6.353655172292242E7 ; 1.126173860238724E10 ; 0.0
17 ; 7113406.357961239 ; 8.997299818049759E8 ; 7.059244593793373E7 ; 1.2130890894974285E10 ; 0.0
18 ; 7174098.354607303 ; 9.321624140764623E8 ; 7.770585229589497E7 ; 1.303062087677926E10 ; 0.0
19 ; 7228113.082295255 ; 9.664494099628109E8 ; 8.487995065050226E7 ; 1.3962783290855722E10 ; 0.0
20 ; 7287845.721956776 ; 1.0025907872641126E9 ; 9.210806373279752E7 ; 1.4929232700818533E10 ; 0.0
21 ; 7346942.414666491 ; 1.0405863650313398E9 ; 9.93959094547543E7 ; 1.5931823488082645E10 ; 0.0
22 ; 7404251.878728077 ; 1.0804359667680933E9 ; 1.0674285186942078E8 ; 1.6972409853113985E10 ; 0.0
23 ; 7461194.715596046 ; 1.1221394228392954E9 ; 1.1414710374814886E8 ; 1.805284581988208E10 ; 0.0
24 ; 7519908.188696621 ; 1.1656965721580272E9 ; 1.2160829846374491E8 ; 1.9174985242721375E10 ; 0.0
25 ; 7574962.234774692 ; 1.20323550864098E9 ; 1.2912820665244153E8 ; 2.0340681814879402E10 ; 0.0
26 ; 7632590.101338245 ; 1.2032773779882498E9 ; 1.367031688872162E8 ; 2.1543917323520382E10 ; 0.0
27 ; 7690080.979540849 ; 1.2033206649936345E9 ; 1.4433575898855445E8 ; 2.2747194701508633E10 ; 0.0
28 ; 7743613.0994592365 ; 1.2033652488886635E9 ; 1.520258399680953E8 ; 2.3950515366502266E10 ; 0.0
29 ; 7800250.972997069 ; 1.2034110187536306E9 ; 1.5976945306755453E8 ; 2.515388061539093E10 ; 0.0
30 ; 7859261.283105457 ; 1.2034578730274298E9 ; 1.675697040405516E8 ; 2.635729163414456E10 ; 0.0
31 ; 7911839.737536814 ; 1.2035057189308927E9 ; 1.7542896532365707E8 ; 2.7560749507171993E10 ; 0.0
32 ; 7967141.922739504 ; 1.2035544718456492E9 ; 1.8334080506119388E8 ; 2.8764255226102886E10 ; 0.0
33 ; 8018608.463067592 ; 1.203604054679398E9 ; 1.913079469839334E8 ; 2.9967809697948536E10 ; 0.0
34 ; 8066983.906293282 ; 1.203654397239462E9 ; 1.9932655544700098E8 ; 3.1171413752627934E10 ; 0.0
35 ; 8125542.526068563 ; 1.2037054356294222E9 ; 2.0739353935329425E8 ; 3.2375068149867393E10 ; 0.0
36 ; 8171094.3026685435 ; 1.2037571116782365E9 ; 2.1551908187936282E8 ; 3.3578773585496815E10 ; 0.0
37 ; 8218268.87219189 ; 1.20380937240724E9 ; 2.2369017618203136E8 ; 3.478253069717505E10 ; 0.0
38 ; 8258040.503453777 ; 1.2038621695375247E9 ; 2.3190844505422324E8 ; 3.598634006958229E10 ; 0.0
39 ; 8304320.723360906 ; 1.2039154590381687E9 ; 2.4016648555767703E8 ; 3.719020223911981E10 ; 0.0
40 ; 8354469.929739279 ; 1.2039692007143974E9 ; 2.4847080628103793E8 ; 3.839411769815798E10 ; 0.0
41 ; 8396097.60076742 ; 1.2040233578338754E9 ; 2.568252762107772E8 ; 3.9598086898872375E10 ; 0.0
42 ; 8428432.977090592 ; 1.204077896788793E9 ; 2.6522137381154463E8 ; 4.080211025670625E10 ; 0.0
43 ; 8469304.249266718 ; 1.204132786791128E9 ; 2.736498067886352E8 ; 4.200618815349505E10 ; 0.0
44 ; 8511660.239331894 ; 1.204187999598367E9 ; 2.8211911103790194E8 ; 4.321032094028618E10 ; 0.0
45 ; 8543587.507715907 ; 1.2042435092669907E9 ; 2.9063077127723384E8 ; 4.4414508939884544E10 ; 0.0
46 ; 8578196.251184583 ; 1.2042992919311163E9 ; 2.991743587849497E8 ; 4.5618752449151535E10 ; 0.0
47 ; 8608494.906572025 ; 1.2043553256038475E9 ; 3.077525550361343E8 ; 4.682305174108265E10 ; 0.0
48 ; 8637634.050419454 ; 1.2044115899990442E9 ; 3.1636104994270635E8 ; 4.802740706668649E10 ; 0.0
49 ; 8666000.070975514 ; 1.2044680663714156E9 ; 3.249986839931258E8 ; 4.923181865668554E10 ; 0.0
50 ; 8687292.688723773 ; 1.2045247373730235E9 ; 3.3366468406410134E8 ; 5.043628672305695E10 ; 0.0
51 ; 8712774.014724152 ; 1.2045815869244568E9 ; 3.4235197675282514E8 ; 5.164081146042998E10 ; 0.0
52 ; 8739081.349097284 ; 1.204638600099125E9 ; 3.510647507675493E8 ; 5.284539304735443E10 ; 0.0
53 ; 8763885.121653361 ; 1.2046957630192573E9 ; 3.598038321166466E8 ; 5.405003164745355E10 ; 0.0
54 ; 8788501.679841504 ; 1.2047530627623613E9 ; 3.6856771723829997E8 ; 5.525472741047281E10 ; 0.0
55 ; 8806410.789901707 ; 1.2048104872770157E9 ; 3.773562189181415E8 ; 5.645948047323517E10 ; 0.0
56 ; 8834551.25475673 ; 1.2048680253069992E9 ; 3.861626297080432E8 ; 5.7664290960512184E10 ; 0.0
57 ; 8859789.833677474 ; 1.2049256663228662E9 ; 3.9499718096279997E8 ; 5.886915898581918E10 ; 0.0
58 ; 8876069.072117645 ; 1.2049834004601793E9 ; 4.0385697079647744E8 ; 6.007408465214205E10 ; 0.0
59 ; 8906421.640433528 ; 1.205041218463689E9 ; 4.1273303986859506E8 ; 6.1279068052602234E10 ; 0.0
60 ; 8918353.219966281 ; 1.2050991116368432E9 ; 4.216394615090286E8 ; 6.2484109271065926E10 ; 0.0
61 ; 8940437.792850427 ; 1.2051570717960627E9 ; 4.305578147289949E8 ; 6.368920838270277E10 ; 0.0
62 ; 8965769.518941563 ; 1.2052150912292922E9 ; 4.3949825252184534E8 ; 6.489436545449883E10 ; 0.0
63 ; 8985995.916241303 ; 1.205273162658386E9 ; 4.484640220407869E8 ; 6.609958054572813E10 ; 0.0
64 ; 9009554.398785869 ; 1.2053312792049348E9 ; 4.574500179570282E8 ; 6.730485370838651E10 ; 0.0
65 ; 9034899.354125254 ; 1.205389434359189E9 ; 4.664595723558141E8 ; 6.8510184987591446E10 ; 0.0
66 ; 9050444.6857601 ; 1.205447621951763E9 ; 4.7549447170993936E8 ; 6.971557442195064E10 ; 0.0
67 ; 9071160.148510005 ; 1.2055058361278462E9 ; 4.8454491639569944E8 ; 7.09210220439024E10 ; 0.0
68 ; 9089983.60294585 ; 1.2055640713236766E9 ; 4.936160765442094E8 ; 7.212652788003026E10 ; 0.0
69 ; 9111776.83683655 ; 1.2056223222450485E9 ; 5.027060601471553E8 ; 7.333209195135393E10 ; 0.0
70 ; 9126542.8412645 ; 1.205680583847665E9 ; 5.1181783698399186E8 ; 7.453771427359897E10 ; 0.0
71 ; 9144681.416653214 ; 1.2057388513191557E9 ; 5.2094437982525635E8 ; 7.574339485744664E10 ; 0.0
72 ; 9168188.685736863 ; 1.205797120062599E9 ; 5.3008906124190956E8 ; 7.69491337087658E10 ; 0.0
73 ; 9179953.267815232 ; 1.2058553856814117E9 ; 5.392572499276464E8 ; 7.815493082882838E10 ; 0.0
74 ; 9201928.871792912 ; 1.2059136439654799E9 ; 5.484372031954616E8 ; 7.93607862145098E10 ; 0.0
75 ; 9219152.254710816 ; 1.205971890878409E9 ; 5.576391320672545E8 ; 8.056669985847528E10 ; 0.0
76 ; 9238782.681627275 ; 1.2060301225458004E9 ; 5.668582843219653E8 ; 8.177267174935368E10 ; 0.0
77 ; 9251297.02709916 ; 1.2060883352444568E9 ; 5.760970670035926E8 ; 8.297870187189949E10 ; 0.0
78 ; 9253971.033878583 ; 1.2061465253924334E9 ; 5.853483640306917E8 ; 8.418479020714395E10 ; 0.0
79 ; 9262824.585924216 ; 1.206204689539863E9 ; 5.946023350645703E8 ; 8.539093673253639E10 ; 0.0
80 ; 9262452.092492757 ; 1.2062628243604844E9 ; 6.038651596504946E8 ; 8.659714142207625E10 ; 0.0
81 ; 9265772.665422741 ; 1.2063209266438136E9 ; 6.131276117429873E8 ; 8.780340424643674E10 ; 0.0
82 ; 9269411.241179748 ; 1.2063789932879057E9 ; 6.223933844084101E8 ; 8.900972517308055E10 ; 0.0
83 ; 9275277.923722664 ; 1.2064370212926526E9 ; 6.316627956495898E8 ; 9.021610416636845E10 ; 0.0
84 ; 9273572.239671754 ; 1.2064950077535758E9 ; 6.409380735733124E8 ; 9.14225411876611E10 ; 0.0
85 ; 9277262.88966 ; 1.2065529498560686E9 ; 6.502116458129841E8 ; 9.262903619541467E10 ; 0.0
86 ; 9278145.464561835 ; 1.2066108448700573E9 ; 6.594889087026441E8 ; 9.383558914527074E10 ; 0.0
87 ; 9280504.686453702 ; 1.2066686901450388E9 ; 6.687670541672059E8 ; 9.50421999901408E10 ; 0.0
88 ; 9284937.578047736 ; 1.2067264831054728E9 ; 6.780475588536596E8 ; 9.624886868028583E10 ; 0.0
89 ; 9288465.959261648 ; 1.2067842212464924E9 ; 6.873324964317074E8 ; 9.74555951633913E10 ; 0.0
90 ; 9285175.519448498 ; 1.2068419021299136E9 ; 6.96620962390969E8 ; 9.866237938463779E10 ; 0.0
91 ; 9284340.386141174 ; 1.206899523380519E9 ; 7.059061379104176E8 ; 9.98692212867677E10 ; 0.0
92 ; 9284443.072739737 ; 1.2069570826825912E9 ; 7.151904782965587E8 ; 1.0107612081014822E11 ; 0.0
93 ; 9289661.187193435 ; 1.2070145777766817E9 ; 7.244749213692985E8 ; 1.0228307789283081E11 ; 0.0
94 ; 9286377.063363008 ; 1.2070720064565926E9 ; 7.337645825564919E8 ; 1.034900924706075E11 ; 0.0
95 ; 9285782.978710655 ; 1.2071293665665588E9 ; 7.430509596198548E8 ; 1.0469716447706409E11 ; 0.0
96 ; 9283791.480355533 ; 1.2071866559986143E9 ; 7.523367425985655E8 ; 1.0590429384363065E11 ; 0.0
97 ; 9281942.62090735 ; 1.207243872690128E9 ; 7.61620534078921E8 ; 1.0711148049962926E11 ; 0.0
98 ; 9280955.726188792 ; 1.2073010146214976E9 ; 7.709024766998283E8 ; 1.0831872437231938E11 ; 0.0
99 ; 9274958.75694029 ; 1.2073580798139904E9 ; 7.80183432426017E8 ; 1.0952602538694087E11 ; 0.0
100 ; 9278584.62002055 ; 1.2074150663277202E9 ; 7.894583911829573E8 ; 1.1073338346675487E11 ; 0.0
101 ; 9274118.233993866 ; 1.20747197225975E9 ; 7.987369758029778E8 ; 1.1194079853308258E11 ; 0.0
102 ; 9270066.017639937 ; 1.2075287957423105E9 ; 8.080110940369717E8 ; 1.1314827050534233E11 ; 0.0
103 ; 9268365.069792006 ; 1.2075855349411325E9 ; 8.172811600546117E8 ; 1.1435579930108464E11 ; 0.0
104 ; 9266820.29933442 ; 1.207642188053875E9 ; 8.265495251244037E8 ; 1.1556338483602577E11 ; 0.0
105 ; 9265098.754334236 ; 1.2076987533086517E9 ; 8.358163454237381E8 ; 1.1677102702407965E11 ; 0.0
106 ; 9253168.6018194 ; 1.2077552289626439E9 ; 8.450814441780723E8 ; 1.179787257773883E11 ; 0.0
107 ; 9251268.688563237 ; 1.2078116133007956E9 ; 8.543346127798917E8 ; 1.1918648100635095E11 ; 0.0
108 ; 9249390.778783007 ; 1.2078679046345887E9 ; 8.63585881468455E8 ; 1.2039429261965175E11 ; 0.0
109 ; 9247309.669212852 ; 1.2079241013008823E9 ; 8.728352722472379E8 ; 1.2160216052428633E11 ; 0.0
110 ; 9244987.841929927 ; 1.207980201660827E9 ; 8.820825819164507E8 ; 1.2281008462558722E11 ; 0.0
111 ; 9235193.536514284 ; 1.208036204098837E9 ; 8.913275697583807E8 ; 1.2401806482724805E11 ; 0.0
112 ; 9229559.207281625 ; 1.208092107021621E9 ; 9.005627632948949E8 ; 1.2522610103134688E11 ; 0.0
113 ; 9222466.389074618 ; 1.2081479088572702E9 ; 9.097923225021765E8 ; 1.264341931383685E11 ; 0.0
114 ; 9220231.10168637 ; 1.2082036080543947E9 ; 9.190147888912511E8 ; 1.2764234104722577E11 ; 0.0
115 ; 9208469.417743618 ; 1.2082592030813093E9 ; 9.282350199929374E8 ; 1.2885054465528017E11 ; 0.0
116 ; 9209227.5390297 ; 1.2083146924252653E9 ; 9.37443489410681E8 ; 1.3005880385836148E11 ; 0.0
117 ; 9201005.44785072 ; 1.2083700745917215E9 ; 9.466527169497107E8 ; 1.3126711855078674E11 ; 0.0
118 ; 9188534.689309213 ; 1.2084253481036584E9 ; 9.558537223975614E8 ; 1.3247548862537846E11 ; 0.0
119 ; 9182926.459647935 ; 1.208480511500927E9 ; 9.650422570868707E8 ; 1.3368391397348212E11 ; 0.0
120 ; 9177756.505490238 ; 1.2085355633396342E9 ; 9.742251835465186E8 ; 1.3489239448498305E11 ; 0.0
121 ; 9167994.035652699 ; 1.208590502191559E9 ; 9.834029400520087E8 ; 1.3610093004832268E11 ; 0.0
122 ; 9156444.452355064 ; 1.2086453266436024E9 ; 9.925709340876615E8 ; 1.3730952055051424E11 ; 0.0
123 ; 9152346.441713918 ; 1.2087000352972639E9 ; 1.0017273785400165E9 ; 1.3851816587715784E11 ; 0.0
124 ; 9141869.20000035 ; 1.208754626768147E9 ; 1.0108797249817305E9 ; 1.397268659124551E11 ; 0.0
125 ; 9133057.6577724 ; 1.208809099685489E9 ; 1.0200215941817309E9 ; 1.4093562053922327E11 ; 0.0
126 ; 9125857.13093645 ; 1.2088634526917164E9 ; 1.0291546518395033E9 ; 1.4214442963890875E11 ; 0.0
127 ; 9111941.831965066 ; 1.2089176844420233E9 ; 1.0382805089704398E9 ; 1.4335329309160046E11 ; 0.0
128 ; 9110033.709407011 ; 1.2089717936039693E9 ; 1.0473924508024049E9 ; 1.4456221077604248E11 ; 0.0
129 ; 9093068.991469525 ; 1.2090257788571005E9 ; 1.0565024845118119E9 ; 1.4577118256964645E11 ; 0.0
130 ; 9074831.656937622 ; 1.2090796388925874E9 ; 1.0655955535032814E9 ; 1.4698020834850354E11 ; 0.0
131 ; 9049994.42170586 ; 1.209133372412884E9 ; 1.074670385160219E9 ; 1.4818928798739612E11 ; 0.0
132 ; 9026492.584918335 ; 1.2091869781313994E9 ; 1.083720379581925E9 ; 1.49398421359809E11 ; 0.0
133 ; 9010207.704911951 ; 1.2092404547721903E9 ; 1.0927468721668432E9 ; 1.506076083379404E11 ; 0.0
134 ; 8981928.213891108 ; 1.2092938010696666E9 ; 1.1017570798717551E9 ; 1.518168487927126E11 ; 0.0
135 ; 8955274.657026354 ; 1.2093470157683105E9 ; 1.1107390080856462E9 ; 1.5302614259378226E11 ; 0.0
136 ; 8933912.513315883 ; 1.2094000976224124E9 ; 1.1196942827426724E9 ; 1.5423548960955057E11 ; 0.0
137 ; 8910825.213500204 ; 1.2094530453958163E9 ; 1.1286281952559884E9 ; 1.5544488970717297E11 ; 0.0
138 ; 8880072.517878229 ; 1.2095058578616805E9 ; 1.1375390204694886E9 ; 1.566543427525688E11 ; 0.0
139 ; 8856968.299244788 ; 1.2095585338022478E9 ; 1.146419092987367E9 ; 1.5786384861043048E11 ; 0.0
140 ; 8822765.973210232 ; 1.209611072008628E9 ; 1.1552760612866118E9 ; 1.5907340714423273E11 ; 0.0
141 ; 8800636.26091512 ; 1.2096634712805905E9 ; 1.1640988272598221E9 ; 1.6028301821624136E11 ; 0.0
142 ; 8772233.166133372 ; 1.2097157304263663E9 ; 1.1728994635207372E9 ; 1.6149268168752194E11 ; 0.0
143 ; 8744049.668441033 ; 1.2097678482624614E9 ; 1.1816716966868706E9 ; 1.627023974179483E11 ; 0.0
144 ; 8718920.097189657 ; 1.2098198236134756E9 ; 1.1904157463553116E9 ; 1.6391216526621075E11 ; 0.0
145 ; 8707489.629560314 ; 1.2098716553119335E9 ; 1.1991346664525013E9 ; 1.6512198508982422E11 ; 0.0
146 ; 8696788.059318418 ; 1.209923342198122E9 ; 1.2078421560820615E9 ; 1.6633185674513614E11 ; 0.0
147 ; 8687093.96566632 ; 1.2099748831199346E9 ; 1.2165389441413798E9 ; 1.6754178008733426E11 ; 0.0
148 ; 8678702.025534926 ; 1.210026276932724E9 ; 1.2252260381070461E9 ; 1.687517549704542E11 ; 0.0
149 ; 8663732.8087516 ; 1.2100775224991622E9 ; 1.233904740132581E9 ; 1.699617812473869E11 ; 0.0
150 ; 8654694.603138812 ; 1.210128618689106E9 ; 1.2425684729413326E9 ; 1.7117185876988608E11 ; 0.0
151 ; 8645311.849743266 ; 1.2101795643794694E9 ; 1.2512231675444715E9 ; 1.723819873885752E11 ; 0.0
152 ; 8632885.939555105 ; 1.210230358454102E9 ; 1.2598684793942149E9 ; 1.7359216695295465E11 ; 0.0
153 ; 8620316.5908526 ; 1.210280999803672E9 ; 1.26850136533377E9 ; 1.7480239731140875E11 ; 0.0
154 ; 8614930.571018036 ; 1.2103314873255575E9 ; 1.2771216819246225E9 ; 1.7601267831121243E11 ; 0.0
155 ; 8599494.95603253 ; 1.2103818199237385E9 ; 1.2857366124956405E9 ; 1.77223009798538E11 ; 0.0
156 ; 8586548.778302362 ; 1.2104319965086985E9 ; 1.294336107451673E9 ; 1.7843339161846173E11 ; 0.0
157 ; 8577408.375963222 ; 1.2104820159973273E9 ; 1.3029226562299755E9 ; 1.7964382361497043E11 ; 0.0
158 ; 8565840.17776847 ; 1.21053187731283E9 ; 1.3115000646059387E9 ; 1.8085430563096774E11 ; 0.0
159 ; 8552684.682791546 ; 1.21058157938464E9 ; 1.3200659047837071E9 ; 1.8206483750828058E11 ; 0.0
160 ; 8543459.608816966 ; 1.2106311211483355E9 ; 1.3286185894664986E9 ; 1.8327541908766522E11 ; 0.0
161 ; 8539143.745800538 ; 1.2106805015455606E9 ; 1.3371620490753155E9 ; 1.8448605020881357E11 ; 0.0
162 ; 8514502.802604258 ; 1.2107297195239491E9 ; 1.345701192821116E9 ; 1.8569673071035913E11 ; 0.0
163 ; 8515851.612654787 ; 1.210778774037054E9 ; 1.3542156956237202E9 ; 1.869074604298831E11 ; 0.0
164 ; 8498752.393789098 ; 1.210827664044277E9 ; 1.3627315472363749E9 ; 1.8811823920392014E11 ; 0.0
165 ; 8487844.29081593 ; 1.2108763885108037E9 ; 1.371230299630164E9 ; 1.8932906686796442E11 ; 0.0
166 ; 8475699.2862529 ; 1.2109249464075427E9 ; 1.3797181439209797E9 ; 1.9053994325647522E11 ; 0.0
167 ; 8467183.007931843 ; 1.2109733367110639E9 ; 1.3881938432072327E9 ; 1.9175086820288275E11 ; 0.0
168 ; 8457746.442858858 ; 1.2110215584035432E9 ; 1.3966610262151647E9 ; 1.929618415395938E11 ; 0.0
169 ; 8444603.032194506 ; 1.2110696104727092E9 ; 1.4051187726580236E9 ; 1.9417286309799734E11 ; 0.0
170 ; 8434543.437949052 ; 1.2111174919117892E9 ; 1.4135633756902182E9 ; 1.9538393270847006E11 ; 0.0
171 ; 8420612.829163488 ; 1.2111652017194643E9 ; 1.4219979191281672E9 ; 1.9659505020038187E11 ; 0.0
172 ; 8411376.672811063 ; 1.2112127388998199E9 ; 1.4304185319573307E9 ; 1.9780621540210132E11 ; 0.0
173 ; 8397524.158340216 ; 1.211260102462301E9 ; 1.4388299086301417E9 ; 1.9901742814100113E11 ; 0.0
174 ; 8384496.255928077 ; 1.2113072914216733E9 ; 1.447227432788482E9 ; 2.0022868824346344E11 ; 0.0
175 ; 8384139.614009263 ; 1.21135430479798E9 ; 1.45561192904441E9 ; 2.014399955348851E11 ; 0.0
176 ; 8380018.582680753 ; 1.2114011416165051E9 ; 1.4639960686584194E9 ; 2.0265134983968307E11 ; 0.0
177 ; 8368613.608621359 ; 1.2114478009077363E9 ; 1.4723760872411E9 ; 2.038627509812996E11 ; 0.0
178 ; 8361218.8805303015 ; 1.2114942817073324E9 ; 1.4807447008497214E9 ; 2.0507419878220734E11 ; 0.0
179 ; 8351772.129388936 ; 1.211540583056088E9 ; 1.4891059197302518E9 ; 2.0628569306391467E11 ; 0.0
180 ; 8347977.785398237 ; 1.211586703999905E9 ; 1.4974576918596408E9 ; 2.0749723364697076E11 ; 0.0
181 ; 8336050.07708729 ; 1.2116326435897613E9 ; 1.505805669645039E9 ; 2.0870882035097067E11 ; 0.0
182 ; 8330415.115123882 ; 1.211678400881684E9 ; 1.5141417197221265E9 ; 2.0992045299456042E11 ; 0.0
183 ; 8314041.1729281405 ; 1.2117239749367223E9 ; 1.5224721348372505E9 ; 2.111321313954421E11 ; 0.0
184 ; 8312649.877490195 ; 1.2117693648209229E9 ; 1.5307861760101786E9 ; 2.1234385537037885E11 ; 0.0
185 ; 8307777.404538477 ; 1.2118145696053057E9 ; 1.5390988258876688E9 ; 2.1355562473519977E11 ; 0.0
186 ; 8299224.00163674 ; 1.211859588365842E9 ; 1.5474066032922072E9 ; 2.1476743930480508E11 ; 0.0
187 ; 8284937.9283315195 ; 1.211904420183434E9 ; 1.555705827293844E9 ; 2.1597929889317093E11 ; 0.0
188 ; 8283391.105654195 ; 1.2119490641438918E9 ; 1.5639907652221756E9 ; 2.1719120331335437E11 ; 0.0
189 ; 8271555.479760441 ; 1.211993519337918E9 ; 1.5722741563278298E9 ; 2.1840315237749826E11 ; 0.0
190 ; 8271939.920978346 ; 1.2120377848610888E9 ; 1.5805457118075902E9 ; 2.1961514589683618E11 ; 0.0
191 ; 8257592.160076517 ; 1.2120818598138354E9 ; 1.5888176517285686E9 ; 2.2082718368169727E11 ; 0.0
192 ; 8248971.932785468 ; 1.2121257433014307E9 ; 1.5970752438886452E9 ; 2.220392655415111E11 ; 0.0
193 ; 8240861.871485057 ; 1.212169434433974E9 ; 1.6053242158214307E9 ; 2.2325139128481253E11 ; 0.0
194 ; 8226413.3739159545 ; 1.212212932326376E9 ; 1.6135650776929157E9 ; 2.244635607192465E11 ; 0.0
195 ; 8226684.690854832 ; 1.2122562360983462E9 ; 1.6217914910668316E9 ; 2.2567577365157288E11 ; 0.0
196 ; 8217856.316471845 ; 1.2122993448743825E9 ; 1.6300181757576864E9 ; 2.2688802988767123E11 ; 0.0
197 ; 8212106.859623717 ; 1.2123422577837567E9 ; 1.6382360320741582E9 ; 2.2810032923254562E11 ; 0.0
198 ; 8207344.713490253 ; 1.2123849739605072E9 ; 1.6464481389337819E9 ; 2.2931267149032938E11 ; 0.0
199 ; 8196332.862351673 ; 1.212427492543427E9 ; 1.654655483647272E9 ; 2.305250564642899E11 ; 0.0
200 ; 8193071.448145261 ; 1.2124698126760554E9 ; 1.6628518165096238E9 ; 2.317374839568333E11 ; 0.0
201 ; 8184976.215954806 ; 1.1317016257623732E9 ; 1.671044887957769E9 ; 2.3294995376950937E11 ; 0.0
