CSV File for the Network on Day 24
1 - Minute m 
2 - Power Consumed at minute m 
3 - Power Produced at minute m 
4 - Energy Consumed since the beginning of the day 
5 - Energy Produced since the beginning of the day 
6 - Energy Lost since the beginning of the day 
 
0 ; 3.83983586842692E7 ; 6.317733448652663E8 ; 0.0 ; 0.0 ; 0.0
1 ; 3.843765164668128E7 ; 6.326532836239319E8 ; 3.83983586842692E7 ; 6.317733448652663E8 ; 0.0
2 ; 3.847941936300109E7 ; 6.353874042308886E8 ; 7.683601033095047E7 ; 1.2644266284891982E9 ; 0.0
3 ; 3.8531772136436775E7 ; 6.399761627158062E8 ; 1.1531542969395156E8 ; 1.8998140327200868E9 ; 0.0
4 ; 3.8585126464999065E7 ; 6.464200987771738E8 ; 1.5384720183038834E8 ; 2.539790195435893E9 ; 0.0
5 ; 3.86554502829041E7 ; 6.547198364113933E8 ; 1.924323282953874E8 ; 3.186210294213067E9 ; 0.0
6 ; 3.874732713578741E7 ; 6.648760714932756E8 ; 2.3108777857829148E8 ; 3.84093013062446E9 ; 0.0
7 ; 3.887313434315701E7 ; 6.76889538966408E8 ; 2.698351057140789E8 ; 4.505806202117736E9 ; 0.0
8 ; 3.906622894190508E7 ; 6.907609541337175E8 ; 3.087082400572359E8 ; 5.182695741084144E9 ; 0.0
9 ; 3.9347286885592796E7 ; 7.064909298726135E8 ; 3.47774468999141E8 ; 5.873456695217861E9 ; 0.0
10 ; 3.9777462845781E7 ; 7.240798844449482E8 ; 3.871217558847338E8 ; 6.579947625090475E9 ; 0.0
11 ; 4.0465581644615166E7 ; 7.435279669096508E8 ; 4.2689921873051476E8 ; 7.304027509535423E9 ; 0.0
12 ; 4.157697376582979E7 ; 7.648350282077917E8 ; 4.6736480037512994E8 ; 8.047555476445074E9 ; 0.0
13 ; 4.263943802322717E7 ; 7.880006500775189E8 ; 5.0894177414095974E8 ; 8.812390504652866E9 ; 0.0
14 ; 4.27683641683384E7 ; 8.13024219641424E8 ; 5.51581212164187E8 ; 9.600391154730385E9 ; 0.0
15 ; 4.281698274317786E7 ; 8.399050215965784E8 ; 5.943495763325254E8 ; 1.0413415374371809E10 ; 0.0
16 ; 4.286652328430598E7 ; 8.686423209993962E8 ; 6.371665590757033E8 ; 1.1253320395968388E10 ; 0.0
17 ; 4.291275631157245E7 ; 8.992354219750656E8 ; 6.800330823600092E8 ; 1.2121962716967783E10 ; 0.0
18 ; 4.296427185712436E7 ; 9.31683700527185E8 ; 7.229458386715816E8 ; 1.3021198138942848E10 ; 0.0
19 ; 4.30140194454936E7 ; 9.659866169572651E8 ; 7.65910110528706E8 ; 1.3952881839470034E10 ; 0.0
20 ; 4.306442718486592E7 ; 1.0021437152356365E9 ; 8.089241299741995E8 ; 1.49188684564273E10 ; 0.0
21 ; 4.311652164414638E7 ; 1.0401546154918343E9 ; 8.519885571590655E8 ; 1.5921012171662935E10 ; 0.0
22 ; 4.316755234944338E7 ; 1.080019003782756E9 ; 8.951050788032119E8 ; 1.696116678715477E10 ; 0.0
23 ; 4.3217360511136346E7 ; 1.1217366215358326E9 ; 9.382726311526554E8 ; 1.8041185790937527E10 ; 0.0
24 ; 4.326667586470403E7 ; 1.1653072558497343E9 ; 9.814899916637917E8 ; 1.916292241247336E10 ; 0.0
25 ; 4.3313629329968184E7 ; 1.2028589764982512E9 ; 1.0247566675284957E9 ; 2.0328229668323093E10 ; 0.0
26 ; 4.3369119431296535E7 ; 1.202912925150577E9 ; 1.0680702968584639E9 ; 2.1531088644821346E10 ; 0.0
27 ; 4.341462072887188E7 ; 1.2029675967934113E9 ; 1.1114394162897604E9 ; 2.2734001569971924E10 ; 0.0
28 ; 4.3465497060463354E7 ; 1.2030228905807893E9 ; 1.1548540370186322E9 ; 2.3936969166765335E10 ; 0.0
29 ; 4.3504580127303354E7 ; 1.2030787218722754E9 ; 1.1983195340790956E9 ; 2.5139992057346123E10 ; 0.0
30 ; 4.356536391638186E7 ; 1.2031350192499962E9 ; 1.241824114206399E9 ; 2.63430707792184E10 ; 0.0
31 ; 4.360836826423954E7 ; 1.2031917221276045E9 ; 1.2853894781227808E9 ; 2.7546205798468395E10 ; 0.0
32 ; 4.364854100821482E7 ; 1.203248778830596E9 ; 1.3289978463870203E9 ; 2.8749397520596E10 ; 0.0
33 ; 4.368955698005427E7 ; 1.2033061450508466E9 ; 1.372646387395235E9 ; 2.9952646299426598E10 ; 0.0
34 ; 4.373125157285737E7 ; 1.2033637825980701E9 ; 1.4163359443752894E9 ; 3.1155952444477444E10 ; 0.0
35 ; 4.377438371283753E7 ; 1.2034216583871431E9 ; 1.4600671959481468E9 ; 3.2359316227075516E10 ; 0.0
36 ; 4.3814516464210846E7 ; 1.2034797436132236E9 ; 1.5038415796609843E9 ; 3.3562737885462658E10 ; 0.0
37 ; 4.385352533803959E7 ; 1.2035380130768423E9 ; 1.547656096125195E9 ; 3.476621762907588E10 ; 0.0
38 ; 4.388584647261329E7 ; 1.2035964446292088E9 ; 1.5915096214632347E9 ; 3.5969755642152725E10 ; 0.0
39 ; 4.392583451879792E7 ; 1.203655018714242E9 ; 1.635395467935848E9 ; 3.717335208678194E10 ; 0.0
40 ; 4.3958222012367174E7 ; 1.203713717988766E9 ; 1.6793213024546459E9 ; 3.837700710549618E10 ; 0.0
41 ; 4.398622721905477E7 ; 1.2037725270061283E9 ; 1.7232795244670131E9 ; 3.958072082348495E10 ; 0.0
42 ; 4.4013425376210794E7 ; 1.203831431951517E9 ; 1.7672657516860678E9 ; 4.078449335049107E10 ; 0.0
43 ; 4.404680281858984E7 ; 1.2038904204195871E9 ; 1.8112791770622785E9 ; 4.198832478244259E10 ; 0.0
44 ; 4.407313880614339E7 ; 1.2039494812268693E9 ; 1.8553259798808684E9 ; 4.3192215202862175E10 ; 0.0
45 ; 4.409498745045002E7 ; 1.2040086042528968E9 ; 1.8993991186870117E9 ; 4.439616468408904E10 ; 0.0
46 ; 4.4116573711728245E7 ; 1.2040677803051274E9 ; 1.9434941061374617E9 ; 4.560017328834194E10 ; 0.0
47 ; 4.4135234273488335E7 ; 1.2041270010036814E9 ; 1.98761067984919E9 ; 4.680424106864707E10 ; 0.0
48 ; 4.415078721808985E7 ; 1.2041862586826255E9 ; 2.0317459141226783E9 ; 4.800836806965076E10 ; 0.0
49 ; 4.416478237366183E7 ; 1.204245546305144E9 ; 2.075896701340768E9 ; 4.921255432833338E10 ; 0.0
50 ; 4.41911578448875E7 ; 1.2043048573903952E9 ; 2.1200614837144299E9 ; 5.041679987463853E10 ; 0.0
51 ; 4.4192456220052734E7 ; 1.2043641859502413E9 ; 2.1642526415593176E9 ; 5.162110473202892E10 ; 0.0
52 ; 4.420512470236711E7 ; 1.2044235264343543E9 ; 2.2084450977793703E9 ; 5.2825468917979164E10 ; 0.0
53 ; 4.4213252535846435E7 ; 1.20448287368244E9 ; 2.2526502224817376E9 ; 5.402989244441352E10 ; 0.0
54 ; 4.4235336481128015E7 ; 1.2045422228825421E9 ; 2.296863475017584E9 ; 5.523437531809596E10 ; 0.0
55 ; 4.4247413083551496E7 ; 1.2046015695345516E9 ; 2.341098811498712E9 ; 5.643891754097851E10 ; 0.0
56 ; 4.424833652082347E7 ; 1.2046609094181843E9 ; 2.3853462245822635E9 ; 5.764351911051306E10 ; 0.0
57 ; 4.426635902054496E7 ; 1.2047202385648086E9 ; 2.429594561103087E9 ; 5.8848180019931244E10 ; 0.0
58 ; 4.4274858678737745E7 ; 1.204779553232598E9 ; 2.473860920123632E9 ; 6.0052900258496056E10 ; 0.0
59 ; 4.428197149405376E7 ; 1.204838849884565E9 ; 2.5181357788023696E9 ; 6.125767981172865E10 ; 0.0
60 ; 4.428653550706808E7 ; 1.2048981251690955E9 ; 2.5624177502964234E9 ; 6.246251866161322E10 ; 0.0
61 ; 4.4295743884463295E7 ; 1.2049573759026613E9 ; 2.6067042858034916E9 ; 6.366741678678232E10 ; 0.0
62 ; 4.4307190259660766E7 ; 1.205016599054434E9 ; 2.651000029687955E9 ; 6.487237416268498E10 ; 0.0
63 ; 4.430888626600942E7 ; 1.205075791732565E9 ; 2.6953072199476156E9 ; 6.607739076173942E10 ; 0.0
64 ; 4.431662557853795E7 ; 1.205134951171918E9 ; 2.739616106213625E9 ; 6.7282466553471985E10 ; 0.0
65 ; 4.432476197351815E7 ; 1.2051940747230942E9 ; 2.783932731792163E9 ; 6.8487601504643906E10 ; 0.0
66 ; 4.433077386147859E7 ; 1.2052531598425782E9 ; 2.8282574937656813E9 ; 6.9692795579367E10 ; 0.0
67 ; 4.434082964971025E7 ; 1.205312204083887E9 ; 2.87258826762716E9 ; 7.089804873920958E10 ; 0.0
68 ; 4.434159255714033E7 ; 1.205371205089601E9 ; 2.9169290972768703E9 ; 7.210336094329347E10 ; 0.0
69 ; 4.435052489276908E7 ; 1.2054301605841742E9 ; 2.9612706898340106E9 ; 7.330873214838307E10 ; 0.0
70 ; 4.4348551638092354E7 ; 1.2054890683674445E9 ; 3.0056212147267795E9 ; 7.451416230896724E10 ; 0.0
71 ; 4.4356701189089365E7 ; 1.205547926308759E9 ; 3.049969766364872E9 ; 7.571965137733469E10 ; 0.0
72 ; 4.4364863167206034E7 ; 1.205606732341651E9 ; 3.0943264675539613E9 ; 7.692519930364345E10 ; 0.0
73 ; 4.436095151226786E7 ; 1.2056654844590101E9 ; 3.138691330721167E9 ; 7.813080603598509E10 ; 0.0
74 ; 4.436376575981647E7 ; 1.205724180708693E9 ; 3.183052282233435E9 ; 7.93364715204441E10 ; 0.0
75 ; 4.436812484824514E7 ; 1.2057828191895278E9 ; 3.227416047993252E9 ; 8.05421957011528E10 ; 0.0
76 ; 4.4363452181627855E7 ; 1.2058413980476744E9 ; 3.271784172841497E9 ; 8.174797852034233E10 ; 0.0
77 ; 4.43671181653028E7 ; 1.2058999154733012E9 ; 3.3161476250231247E9 ; 8.295381991839E10 ; 0.0
78 ; 4.435488570726093E7 ; 1.2059583696975508E9 ; 3.3605147431884274E9 ; 8.41597198338633E10 ; 0.0
79 ; 4.4344345279249445E7 ; 1.206016758989763E9 ; 3.4048696288956885E9 ; 8.536567820356085E10 ; 0.0
80 ; 4.432816407727407E7 ; 1.2060750816549304E9 ; 3.449213974174938E9 ; 8.657169496255061E10 ; 0.0
81 ; 4.43178063313089E7 ; 1.2061333360313687E9 ; 3.493542138252212E9 ; 8.777777004420555E10 ; 0.0
82 ; 4.430037652259516E7 ; 1.2061915204885733E9 ; 3.537859944583521E9 ; 8.898390338023692E10 ; 0.0
83 ; 4.4287936804926194E7 ; 1.2062496334252534E9 ; 3.582160321106116E9 ; 9.01900949007255E10 ; 0.0
84 ; 4.427831003198323E7 ; 1.2063076732675219E9 ; 3.626448257911042E9 ; 9.139634453415074E10 ; 0.0
85 ; 4.4257356583927885E7 ; 1.2063656384672277E9 ; 3.6707265679430256E9 ; 9.260265220741826E10 ; 0.0
86 ; 4.4241611135621E7 ; 1.20642352750042E9 ; 3.7149839245269537E9 ; 9.380901784588548E10 ; 0.0
87 ; 4.4234278490893714E7 ; 1.2064813388659296E9 ; 3.759225535662575E9 ; 9.501544137338591E10 ; 0.0
88 ; 4.4210184307247356E7 ; 1.2065390710840602E9 ; 3.8034598141534686E9 ; 9.622192271225185E10 ; 0.0
89 ; 4.4192184788330376E7 ; 1.2065967226953762E9 ; 3.847669998460716E9 ; 9.74284617833359E10 ; 0.0
90 ; 4.417178320765571E7 ; 1.206654292259585E9 ; 3.8918621832490463E9 ; 9.863505850603128E10 ; 0.0
91 ; 4.4155943622208074E7 ; 1.206711778354498E9 ; 3.936033966456702E9 ; 9.984171279829086E10 ; 0.0
92 ; 4.4140481925750256E7 ; 1.206769179575069E9 ; 3.9801899100789104E9 ; 1.0104842457664536E11 ; 0.0
93 ; 4.4118687786804974E7 ; 1.206826494532504E9 ; 4.0243303920046606E9 ; 1.0225519375622043E11 ; 0.0
94 ; 4.4103579176772386E7 ; 1.206883721853433E9 ; 4.0684490797914658E9 ; 1.0346202025075293E11 ; 0.0
95 ; 4.4085544373749815E7 ; 1.2069408601791394E9 ; 4.1125526589682384E9 ; 1.0466890397260637E11 ; 0.0
96 ; 4.405622252415864E7 ; 1.2069979081648476E9 ; 4.156638203341988E9 ; 1.058758448327855E11 ; 0.0
97 ; 4.4039765328047305E7 ; 1.207054864479057E9 ; 4.2006944258661466E9 ; 1.0708284274095035E11 ; 0.0
98 ; 4.402364656285267E7 ; 1.207111727802923E9 ; 4.244734191194194E9 ; 1.082898976054294E11 ; 0.0
99 ; 4.3997100280267425E7 ; 1.2071684968296797E9 ; 4.2887578377570467E9 ; 1.0949700933323232E11 ; 0.0
100 ; 4.397890590354188E7 ; 1.2072251702641044E9 ; 4.332754938037314E9 ; 1.10704177830062E11 ; 0.0
101 ; 4.395927292952968E7 ; 1.2072817468220143E9 ; 4.376733843940856E9 ; 1.119114030003261E11 ; 0.0
102 ; 4.393253037860094E7 ; 1.2073382252298002E9 ; 4.420693116870386E9 ; 1.1311868474714812E11 ; 0.0
103 ; 4.3908528436426125E7 ; 1.207394604223988E9 ; 4.464625647248987E9 ; 1.1432602297237791E11 ; 0.0
104 ; 4.3888589270353414E7 ; 1.2074508825508335E9 ; 4.508534175685413E9 ; 1.155334175766019E11 ; 0.0
105 ; 4.385576562662881E7 ; 1.2075070589659379E9 ; 4.552422764955767E9 ; 1.1674086845915273E11 ; 0.0
106 ; 4.3838910960337006E7 ; 1.2075631322338934E9 ; 4.596278530582396E9 ; 1.1794837551811867E11 ; 0.0
107 ; 4.381365619118515E7 ; 1.2076191011279483E9 ; 4.640117441542732E9 ; 1.1915593865035255E11 ; 0.0
108 ; 4.3786228915643156E7 ; 1.2076749644296954E9 ; 4.683931097733917E9 ; 1.203635577514805E11 ; 0.0
109 ; 4.376104295004547E7 ; 1.2077307209287796E9 ; 4.72771732664956E9 ; 1.215712327159102E11 ; 0.0
110 ; 4.373591171770078E7 ; 1.2077863694226227E9 ; 4.771478369599606E9 ; 1.2277896343683899E11 ; 0.0
111 ; 4.371216485142037E7 ; 1.2078419087161684E9 ; 4.8152142813173065E9 ; 1.2398674980626161E11 ; 0.0
112 ; 4.368548420992555E7 ; 1.2078973376216404E9 ; 4.858926446168727E9 ; 1.2519459171497778E11 ; 0.0
113 ; 4.365566088814894E7 ; 1.2079526549583178E9 ; 4.902611930378653E9 ; 1.2640248905259943E11 ; 0.0
114 ; 4.3628059839594595E7 ; 1.2080078595523214E9 ; 4.946267591266802E9 ; 1.2761044170755774E11 ; 0.0
115 ; 4.359360206236014E7 ; 1.2080629502364175E9 ; 4.989895651106397E9 ; 1.2881844956711006E11 ; 0.0
116 ; 4.356769557644802E7 ; 1.2081179258498297E9 ; 5.0334892531687565E9 ; 1.3002651251734648E11 ; 0.0
117 ; 4.3540441920071706E7 ; 1.208172785238064E9 ; 5.077056948745205E9 ; 1.312346304431963E11 ; 0.0
118 ; 4.350889915974339E7 ; 1.2082275272527459E9 ; 5.120597390665277E9 ; 1.3244280322843437E11 ; 0.0
119 ; 4.3482205568869814E7 ; 1.208282150751464E9 ; 5.16410628982502E9 ; 1.3365103075568712E11 ; 0.0
120 ; 4.3444056454339705E7 ; 1.208336654597626E9 ; 5.207588495393889E9 ; 1.3485931290643858E11 ; 0.0
121 ; 4.3417589110275164E7 ; 1.2083910376603227E9 ; 5.251032551848229E9 ; 1.3606764956103621E11 ; 0.0
122 ; 4.3390443720048025E7 ; 1.2084452988141994E9 ; 5.294450140958505E9 ; 1.3727604059869653E11 ; 0.0
123 ; 4.335679866115729E7 ; 1.2084994369393365E9 ; 5.337840584678553E9 ; 1.3848448589751074E11 ; 0.0
124 ; 4.332391323137962E7 ; 1.2085534509211345E9 ; 5.38119738333971E9 ; 1.3969298533445007E11 ; 0.0
125 ; 4.328964481927092E7 ; 1.2086073396502104E9 ; 5.42452129657109E9 ; 1.4090153878537122E11 ; 0.0
126 ; 4.3257722328607515E7 ; 1.208661102022296E9 ; 5.467810941390361E9 ; 1.4211014612502142E11 ; 0.0
127 ; 4.322371904244274E7 ; 1.2087147369381456E9 ; 5.511068663718968E9 ; 1.4331880722704373E11 ; 0.0
128 ; 4.319150052651329E7 ; 1.2087682433034456E9 ; 5.554292382761411E9 ; 1.4452752196398187E11 ; 0.0
129 ; 4.315664014640954E7 ; 1.2088216200287347E9 ; 5.597483883287924E9 ; 1.457362902072853E11 ; 0.0
130 ; 4.310699590548056E7 ; 1.2088748660293233E9 ; 5.640640523434334E9 ; 1.4694511182731406E11 ; 0.0
131 ; 4.305933818212055E7 ; 1.2089279802252223E9 ; 5.683747519339814E9 ; 1.4815398669334338E11 ; 0.0
132 ; 4.3013325579453416E7 ; 1.2089809615410745E9 ; 5.7268068575219345E9 ; 1.493629146735686E11 ; 0.0
133 ; 4.296040178795971E7 ; 1.2090338089060888E9 ; 5.769820183101388E9 ; 1.5057189563510968E11 ; 0.0
134 ; 4.291638568388073E7 ; 1.2090865212539816E9 ; 5.812780584889348E9 ; 1.5178092944401578E11 ; 0.0
135 ; 4.286745155697307E7 ; 1.2091390975229182E9 ; 5.855696970573229E9 ; 1.5299001596526974E11 ; 0.0
136 ; 4.281329721899105E7 ; 1.2091915366554618E9 ; 5.898564422130202E9 ; 1.5419915506279266E11 ; 0.0
137 ; 4.2766884026067555E7 ; 1.2092438375985217E9 ; 5.941377719349194E9 ; 1.5540834659944812E11 ; 0.0
138 ; 4.2715204847977936E7 ; 1.2092959993033085E9 ; 5.984144603375261E9 ; 1.5661759043704663E11 ; 0.0
139 ; 4.2653263689910635E7 ; 1.2093480207252889E9 ; 6.026859808223239E9 ; 1.5782688643634995E11 ; 0.0
140 ; 4.260953406355509E7 ; 1.2093999008241458E9 ; 6.06951307191315E9 ; 1.5903623445707523E11 ; 0.0
141 ; 4.2560001431827486E7 ; 1.2094516385637398E9 ; 6.112122605976705E9 ; 1.6024563435789938E11 ; 0.0
142 ; 4.250390749271912E7 ; 1.209503232912074E9 ; 6.154682607408532E9 ; 1.6145508599646313E11 ; 0.0
143 ; 4.244728128012344E7 ; 1.2095546828412595E9 ; 6.197186514901251E9 ; 1.626645892293752E11 ; 0.0
144 ; 4.2399499238811724E7 ; 1.209605987327486E9 ; 6.239633796181375E9 ; 1.6387414391221646E11 ; 0.0
145 ; 4.2354148777134664E7 ; 1.2096571453509922E9 ; 6.282033295420186E9 ; 1.6508374989954395E11 ; 0.0
146 ; 4.2314049750703365E7 ; 1.2097081558960385E9 ; 6.324387444197321E9 ; 1.6629340704489493E11 ; 0.0
147 ; 4.228696461212917E7 ; 1.2097590179508834E9 ; 6.366701493948025E9 ; 1.6750311520079095E11 ; 0.0
148 ; 4.2246100096224114E7 ; 1.2098097305077589E9 ; 6.408988458560154E9 ; 1.6871287421874185E11 ; 0.0
149 ; 4.220216737319005E7 ; 1.2098602925628502E9 ; 6.451234558656378E9 ; 1.699226839492496E11 ; 0.0
150 ; 4.216832552440259E7 ; 1.2099107031162755E9 ; 6.493436726029568E9 ; 1.7113254424181244E11 ; 0.0
151 ; 4.212823328345041E7 ; 1.2099609611720686E9 ; 6.53560505155397E9 ; 1.723424549449287E11 ; 0.0
152 ; 4.209473463378615E7 ; 1.2100110657381616E9 ; 6.57773328483742E9 ; 1.7355241590610077E11 ; 0.0
153 ; 4.204981803043714E7 ; 1.2100610158263686E9 ; 6.619828019471207E9 ; 1.7476242697183893E11 ; 0.0
154 ; 4.201261457860908E7 ; 1.2101108104523745E9 ; 6.661877837501644E9 ; 1.7597248798766528E11 ; 0.0
155 ; 4.1969077041249394E7 ; 1.21016044863572E9 ; 6.703890452080254E9 ; 1.7718259879811765E11 ; 0.0
156 ; 4.193297998848102E7 ; 1.2102099293997908E9 ; 6.745859529121503E9 ; 1.7839275924675336E11 ; 0.0
157 ; 4.189047692375529E7 ; 1.2102592517718072E9 ; 6.787792509109983E9 ; 1.7960296917615314E11 ; 0.0
158 ; 4.1856534185402595E7 ; 1.2103084147828152E9 ; 6.829682986033739E9 ; 1.8081322842792496E11 ; 0.0
159 ; 4.181141905749972E7 ; 1.2103574174676788E9 ; 6.871539520219142E9 ; 1.8202353684270776E11 ; 0.0
160 ; 4.177642240469475E7 ; 1.2104062588650713E9 ; 6.913350939276642E9 ; 1.8323389426017545E11 ; 0.0
161 ; 4.172778623605229E7 ; 1.2104549380174694E9 ; 6.955127361681336E9 ; 1.8444430051904053E11 ; 0.0
162 ; 4.169396835507735E7 ; 1.2105034539711492E9 ; 6.996855147917389E9 ; 1.8565475545705798E11 ; 0.0
163 ; 4.164601182761736E7 ; 1.2105518057761803E9 ; 7.038549116272467E9 ; 1.8686525891102914E11 ; 0.0
164 ; 4.161399197251423E7 ; 1.210599992486422E9 ; 7.080195128100084E9 ; 1.8807581071680533E11 ; 0.0
165 ; 4.156455711758104E7 ; 1.2106480131595216E9 ; 7.121809120072598E9 ; 1.8928641070929175E11 ; 0.0
166 ; 4.152593862617594E7 ; 1.2106958668569098E9 ; 7.16337367719018E9 ; 1.9049705872245126E11 ; 0.0
167 ; 4.1486620093090646E7 ; 1.2107435526438017E9 ; 7.204899615816356E9 ; 1.9170775458930817E11 ; 0.0
168 ; 4.1438807261445984E7 ; 1.2107910695891943E9 ; 7.246386235909447E9 ; 1.9291849814195197E11 ; 0.0
169 ; 4.140027540354357E7 ; 1.2108384167658668E9 ; 7.287825043170893E9 ; 1.9412928921154117E11 ; 0.0
170 ; 4.136210117117666E7 ; 1.2108855932503808E9 ; 7.329225318574436E9 ; 1.9534012762830704E11 ; 0.0
171 ; 4.131169475130514E7 ; 1.2109325981230803E9 ; 7.370587419745613E9 ; 1.965510132215574E11 ; 0.0
172 ; 4.1275697886312194E7 ; 1.2109794304680953E9 ; 7.411899114496919E9 ; 1.9776194581968048E11 ; 0.0
173 ; 4.1233180104969874E7 ; 1.211026089373341E9 ; 7.453174812383231E9 ; 1.989729252501486E11 ; 0.0
174 ; 4.1205664262912676E7 ; 1.2110725739305227E9 ; 7.494407992488201E9 ; 2.0018395133952194E11 ; 0.0
175 ; 4.117731597039156E7 ; 1.2111188832351365E9 ; 7.535613656751114E9 ; 2.0139502391345245E11 ; 0.0
176 ; 4.1160068696302734E7 ; 1.2111650163864746E9 ; 7.576790972721505E9 ; 2.026061427966876E11 ; 0.0
177 ; 4.1129927641061716E7 ; 1.211210972487627E9 ; 7.617951041417808E9 ; 2.0381730781307407E11 ; 0.0
178 ; 4.1105238550642826E7 ; 1.2112567506454883E9 ; 7.659080969058869E9 ; 2.050285187855617E11 ; 0.0
179 ; 4.108008456871979E7 ; 1.2113023499707587E9 ; 7.700186207609512E9 ; 2.0623977553620718E11 ; 0.0
180 ; 4.1053791550073996E7 ; 1.2113477695779524E9 ; 7.741266292178232E9 ; 2.0745107788617795E11 ; 0.0
181 ; 4.102744741509481E7 ; 1.2113930085854006E9 ; 7.782320083728306E9 ; 2.086624256557559E11 ; 0.0
182 ; 4.10019131153042E7 ; 1.2114380661152582E9 ; 7.8233475311434E9 ; 2.0987381866434128E11 ; 0.0
183 ; 4.097971434201142E7 ; 1.2114829412935088E9 ; 7.864349444258704E9 ; 2.1108525673045654E11 ; 0.0
184 ; 4.095346205233854E7 ; 1.2115276332499712E9 ; 7.905329158600716E9 ; 2.1229673967175006E11 ; 0.0
185 ; 4.092557807461161E7 ; 1.2115721411183062E9 ; 7.946282620653054E9 ; 2.1350826730500003E11 ; 0.0
186 ; 4.090117514367271E7 ; 1.211616464036023E9 ; 7.987208198727666E9 ; 2.1471983944611835E11 ; 0.0
187 ; 4.0882001380806625E7 ; 1.211660601144486E9 ; 8.028109373871339E9 ; 2.1593145591015436E11 ; 0.0
188 ; 4.084723950572682E7 ; 1.211704551588923E9 ; 8.068991375252146E9 ; 2.1714311651129886E11 ; 0.0
189 ; 4.0821406345707715E7 ; 1.2117483145184305E9 ; 8.109838614757873E9 ; 2.183548210628878E11 ; 0.0
190 ; 4.080214708503556E7 ; 1.2117918890859842E9 ; 8.15066002110358E9 ; 2.1956656937740622E11 ; 0.0
191 ; 4.077653875459474E7 ; 1.2118352744484448E9 ; 8.191462168188616E9 ; 2.2077836126649222E11 ; 0.0
192 ; 4.075049606776405E7 ; 1.2118784697665665E9 ; 8.232238706943211E9 ; 2.2199019654094067E11 ; 0.0
193 ; 4.0722970202545464E7 ; 1.2119214742050052E9 ; 8.272989203010975E9 ; 2.2320207501070724E11 ; 0.0
194 ; 4.069263595509709E7 ; 1.211964286932328E9 ; 8.31371217321352E9 ; 2.2441399648491226E11 ; 0.0
195 ; 4.067280411593288E7 ; 1.2120069071210203E9 ; 8.354404809168617E9 ; 2.256259607718446E11 ; 0.0
196 ; 4.064806746472513E7 ; 1.2120493339474955E9 ; 8.39507761328455E9 ; 2.2683796767896564E11 ; 0.0
