CSV File for the Network on Day 350
1 - Minute m 
2 - Power Consumed at minute m 
3 - Power Produced at minute m 
4 - Energy Consumed since the beginning of the day 
5 - Energy Produced since the beginning of the day 
6 - Energy Lost since the beginning of the day 
 
0 ; 3.859116159556517E7 ; 6.352972375167298E8 ; 0.0 ; 0.0 ; 0.0
1 ; 3.863116633863426E7 ; 6.362081463504462E8 ; 3.859116159556517E7 ; 6.352972375167298E8 ; 0.0
2 ; 3.867278202411704E7 ; 6.389724402489167E8 ; 7.722232793419942E7 ; 1.271505383867176E9 ; 0.0
3 ; 3.872095157706283E7 ; 6.435901347048067E8 ; 1.1589510995831646E8 ; 1.9104778241160927E9 ; 0.0
4 ; 3.877794217730011E7 ; 6.500612435915551E8 ; 1.546160615353793E8 ; 2.5540679588208995E9 ; 0.0
5 ; 3.884392433009946E7 ; 6.583857790901527E8 ; 1.933940037126794E8 ; 3.2041292024124546E9 ; 0.0
6 ; 3.893641987115078E7 ; 6.685637516236829E8 ; 2.3223792804277885E8 ; 3.8625149815026073E9 ; 0.0
7 ; 3.9074173748584956E7 ; 6.805951698004372E8 ; 2.7117434791392964E8 ; 4.53107873312629E9 ; 0.0
8 ; 3.925356486635284E7 ; 6.944800403663298E8 ; 3.1024852166251457E8 ; 5.211673902926727E9 ; 0.0
9 ; 3.953496943810649E7 ; 7.102183681672188E8 ; 3.495020865288674E8 ; 5.906153943293057E9 ; 0.0
10 ; 3.997335189835572E7 ; 7.278101561216326E8 ; 3.890370559669739E8 ; 6.616372311460277E9 ; 0.0
11 ; 4.0664541237776086E7 ; 7.47255405204256E8 ; 4.290104078653296E8 ; 7.344182467581909E9 ; 0.0
12 ; 4.176193462775428E7 ; 7.685541144404039E8 ; 4.696749491031057E8 ; 8.091437872786165E9 ; 0.0
13 ; 4.282712614953567E7 ; 7.917062809115483E8 ; 5.1143688373086E8 ; 8.85999198722657E9 ; 0.0
14 ; 4.295453746061998E7 ; 8.16711899771831E8 ; 5.542640098803957E8 ; 9.651698268138119E9 ; 0.0
15 ; 4.300614172186665E7 ; 8.435709642753377E8 ; 5.972185473410156E8 ; 1.046841016790995E10 ; 0.0
16 ; 4.305877852500288E7 ; 8.722834658137773E8 ; 6.402246890628822E8 ; 1.1311981132185287E10 ; 0.0
17 ; 4.310348273185367E7 ; 9.02849393964066E8 ; 6.83283467587885E8 ; 1.2184264597999065E10 ; 0.0
18 ; 4.3154392110773124E7 ; 9.352687365452132E8 ; 7.263869503197387E8 ; 1.308711399196313E10 ; 0.0
19 ; 4.321128474399233E7 ; 9.695414796837795E8 ; 7.695413424305118E8 ; 1.4022382728508345E10 ; 0.0
20 ; 4.325723991119954E7 ; 1.0056676078871E9 ; 8.127526271745042E8 ; 1.4991924208192123E10 ; 0.0
21 ; 4.331018434365734E7 ; 1.0436471041233898E9 ; 8.560098670857037E8 ; 1.5997591816079224E10 ; 0.0
22 ; 4.336116284844512E7 ; 1.0834799499077923E9 ; 8.993200514293611E8 ; 1.7041238920202614E10 ; 0.0
23 ; 4.340982554331306E7 ; 1.1251661253933976E9 ; 9.426812142778063E8 ; 1.8124718870110405E10 ; 0.0
24 ; 4.346455250642435E7 ; 1.16870560946624E9 ; 9.860910398211193E8 ; 1.9249884995503803E10 ; 0.0
25 ; 4.351557037086766E7 ; 1.206226625232389E9 ; 1.0295555923275436E9 ; 2.0418590604970043E10 ; 0.0
26 ; 4.355618143764952E7 ; 1.2062504363393292E9 ; 1.0730711626984112E9 ; 2.162481723020243E10 ; 0.0
27 ; 4.361631273158736E7 ; 1.2062756342264693E9 ; 1.1166273441360607E9 ; 2.283106766654176E10 ; 0.0
28 ; 4.366059075909748E7 ; 1.20630219370705E9 ; 1.1602436568676481E9 ; 2.403734330076823E10 ; 0.0
29 ; 4.3713462705711275E7 ; 1.2063300888282435E9 ; 1.2039042476267457E9 ; 2.524364549447528E10 ; 0.0
30 ; 4.376137233850273E7 ; 1.2063592929703622E9 ; 1.247617710332457E9 ; 2.6449975583303524E10 ; 0.0
31 ; 4.381199572838545E7 ; 1.2063897789439573E9 ; 1.2913790826709597E9 ; 2.7656334876273888E10 ; 0.0
32 ; 4.385602219888385E7 ; 1.2064215190841823E9 ; 1.3351910783993452E9 ; 2.8862724655217846E10 ; 0.0
33 ; 4.389923502697103E7 ; 1.2064544853418882E9 ; 1.379047100598229E9 ; 3.006914617430203E10 ; 0.0
34 ; 4.39377290691632E7 ; 1.2064886493709896E9 ; 1.4229463356252E9 ; 3.1275600659643917E10 ; 0.0
35 ; 4.398357487584536E7 ; 1.2065239826117265E9 ; 1.466884064694363E9 ; 3.2482089309014908E10 ; 0.0
36 ; 4.402434011456957E7 ; 1.2065604563695233E9 ; 1.5108676395702085E9 ; 3.3688613291626633E10 ; 0.0
37 ; 4.406151584599041E7 ; 1.206598041889214E9 ; 1.5548919796847782E9 ; 3.4895173747996155E10 ; 0.0
38 ; 4.40972294205969E7 ; 1.2066367104244852E9 ; 1.5989534955307686E9 ; 3.610177178988537E10 ; 0.0
39 ; 4.4135343448649265E7 ; 1.2066764333024378E9 ; 1.6430507249513655E9 ; 3.730840850030985E10 ; 0.0
40 ; 4.416693163375543E7 ; 1.2067171819832401E9 ; 1.6871860684000146E9 ; 3.851508493361229E10 ; 0.0
41 ; 4.419411913357152E7 ; 1.2067589281148863E9 ; 1.73135300003377E9 ; 3.972180211559553E10 ; 0.0
42 ; 4.423728200581322E7 ; 1.2068016435831242E9 ; 1.7755471191673417E9 ; 4.092856104371041E10 ; 0.0
43 ; 4.42604622437546E7 ; 1.2068453005566635E9 ; 1.8197844011731548E9 ; 4.213536268729353E10 ; 0.0
44 ; 4.429035584629141E7 ; 1.2068898715277946E9 ; 1.8640448634169095E9 ; 4.33422079878502E10 ; 0.0
45 ; 4.431585153988293E7 ; 1.2069353293485842E9 ; 1.9083352192632008E9 ; 4.454909785937799E10 ; 0.0
46 ; 4.43419258432821E7 ; 1.2069816472628412E9 ; 1.9526510708030837E9 ; 4.575603318872658E10 ; 0.0
47 ; 4.436012260335053E7 ; 1.2070287989340515E9 ; 1.9969929966463656E9 ; 4.696301483598942E10 ; 0.0
48 ; 4.437915185449088E7 ; 1.207076758469503E9 ; 2.0413531192497163E9 ; 4.817004363492347E10 ; 0.0
49 ; 4.439496564350312E7 ; 1.2071255004408236E9 ; 2.0857322711042073E9 ; 4.9377120393392975E10 ; 0.0
50 ; 4.440885639732957E7 ; 1.2071749999011674E9 ; 2.1301272367477105E9 ; 5.05842458938338E10 ; 0.0
51 ; 4.442273077119316E7 ; 1.2072252323992743E9 ; 2.17453609314504E9 ; 5.179142089373497E10 ; 0.0
52 ; 4.4439411732971385E7 ; 1.207276173990641E9 ; 2.218958823916233E9 ; 5.299864612613425E10 ; 0.0
53 ; 4.444984198129127E7 ; 1.2073278012460246E9 ; 2.2633982356492043E9 ; 5.4205922300124886E10 ; 0.0
54 ; 4.446144625263986E7 ; 1.2073800912575037E9 ; 2.3078480776304955E9 ; 5.541325010137091E10 ; 0.0
55 ; 4.448148643892862E7 ; 1.2074330216423104E9 ; 2.3523095238831353E9 ; 5.662063019262842E10 ; 0.0
56 ; 4.448912920508733E7 ; 1.2074865705446372E9 ; 2.396791010322064E9 ; 5.782806321427073E10 ; 0.0
57 ; 4.45039180947072E7 ; 1.2075407166356182E9 ; 2.441280139527151E9 ; 5.903554978481537E10 ; 0.0
58 ; 4.4511550499375224E7 ; 1.2075954391116683E9 ; 2.485784057621858E9 ; 6.024309050145099E10 ; 0.0
59 ; 4.452410223859485E7 ; 1.2076507176913567E9 ; 2.5302956081212335E9 ; 6.145068594056266E10 ; 0.0
60 ; 4.452551061815427E7 ; 1.2077065326109822E9 ; 2.5748197103598285E9 ; 6.265833665825401E10 ; 0.0
61 ; 4.45452128003152E7 ; 1.2077628646190002E9 ; 2.6193452209779825E9 ; 6.3866043190865E10 ; 0.0
62 ; 4.455599857505521E7 ; 1.207819694969449E9 ; 2.663890433778298E9 ; 6.5073806055484E10 ; 0.0
63 ; 4.4562912635759585E7 ; 1.207877005414504E9 ; 2.708446432353353E9 ; 6.628162575045345E10 ; 0.0
64 ; 4.456760544596062E7 ; 1.2079347781962879E9 ; 2.7530093449891124E9 ; 6.748950275586796E10 ; 0.0
65 ; 4.457717573898903E7 ; 1.2079929960380418E9 ; 2.797576950435073E9 ; 6.869743753406425E10 ; 0.0
66 ; 4.4589064063935086E7 ; 1.2080516421347675E9 ; 2.842154126174062E9 ; 6.99054305301023E10 ; 0.0
67 ; 4.459958044643183E7 ; 1.2081107001434321E9 ; 2.886743190237997E9 ; 7.111348217223706E10 ; 0.0
68 ; 4.460208184597844E7 ; 1.2081701541728172E9 ; 2.9313427706844287E9 ; 7.23215928723805E10 ; 0.0
69 ; 4.46134390601656E7 ; 1.2082299887730932E9 ; 2.975944852530407E9 ; 7.352976302655331E10 ; 0.0
70 ; 4.4620894567373134E7 ; 1.2082901889251897E9 ; 3.0205582915905724E9 ; 7.47379930153264E10 ; 0.0
71 ; 4.462059953152851E7 ; 1.2083507400300183E9 ; 3.0651791861579456E9 ; 7.594628320425159E10 ; 0.0
72 ; 4.4624879567750074E7 ; 1.2084116278976088E9 ; 3.109799785689474E9 ; 7.71546339442816E10 ; 0.0
73 ; 4.463392121152186E7 ; 1.2084728387362084E9 ; 3.154424665257224E9 ; 7.836304557217921E10 ; 0.0
74 ; 4.46386885706427E7 ; 1.2085343591413825E9 ; 3.1990585864687457E9 ; 7.957151841091542E10 ; 0.0
75 ; 4.46396123628243E7 ; 1.2085961760851612E9 ; 3.243697275039388E9 ; 8.078005277005681E10 ; 0.0
76 ; 4.4644087461605914E7 ; 1.208658276905265E9 ; 3.2883368874022126E9 ; 8.198864894614197E10 ; 0.0
77 ; 4.4655868002320334E7 ; 1.208720649294435E9 ; 3.3329809748638186E9 ; 8.319730722304723E10 ; 0.0
78 ; 4.464043280608563E7 ; 1.208783281289897E9 ; 3.377636842866139E9 ; 8.440602787234166E10 ; 0.0
79 ; 4.463218358648728E7 ; 1.2088461612629805E9 ; 3.4222772756722245E9 ; 8.561481115363156E10 ; 0.0
80 ; 4.4623205124512695E7 ; 1.2089092779089115E9 ; 3.466909459258712E9 ; 8.682365731489455E10 ; 0.0
81 ; 4.4606257327662066E7 ; 1.2089726202367926E9 ; 3.5115326643832245E9 ; 8.803256659280345E10 ; 0.0
82 ; 4.459922970477049E7 ; 1.2090361775597868E9 ; 3.5561389217108865E9 ; 8.924153921304024E10 ; 0.0
83 ; 4.4585466875469305E7 ; 1.2090999394855113E9 ; 3.600738151415657E9 ; 9.045057539060002E10 ; 0.0
84 ; 4.45742965844642E7 ; 1.2091638959066567E9 ; 3.6453236182911263E9 ; 9.165967533008553E10 ; 0.0
85 ; 4.456674863689852E7 ; 1.209228036991828E9 ; 3.6898979148755903E9 ; 9.286883922599219E10 ; 0.0
86 ; 4.454889566625075E7 ; 1.2092923531766222E9 ; 3.734464663512489E9 ; 9.407806726298401E10 ; 0.0
87 ; 4.452952308613588E7 ; 1.2093568351549394E9 ; 3.7790135591787395E9 ; 9.528735961616063E10 ; 0.0
88 ; 4.452368135893175E7 ; 1.209421473870532E9 ; 3.8235430822648754E9 ; 9.649671645131557E10 ; 0.0
89 ; 4.4512149485611424E7 ; 1.2094862605087914E9 ; 3.868066763623807E9 ; 9.77061379251861E10 ; 0.0
90 ; 4.449998009481775E7 ; 1.2095511864887748E9 ; 3.9125789131094184E9 ; 9.891562418569489E10 ; 0.0
91 ; 4.448126902214217E7 ; 1.2096162434554648E9 ; 3.957078893204236E9 ; 1.0012517537218365E11 ; 0.0
92 ; 4.446671170669274E7 ; 1.2096814232722695E9 ; 4.0015601622263784E9 ; 1.0133479161563911E11 ; 0.0
93 ; 4.445056033020405E7 ; 1.2097467180137496E9 ; 4.046026873933071E9 ; 1.0254447303891138E11 ; 0.0
94 ; 4.443263041546267E7 ; 1.2098121199585779E9 ; 4.090477434263275E9 ; 1.0375421975692513E11 ; 0.0
95 ; 4.442669295935249E7 ; 1.2098776215827222E9 ; 4.1349100646787376E9 ; 1.049640318768837E11 ; 0.0
96 ; 4.440476945024463E7 ; 1.2099432155528536E9 ; 4.17933675763809E9 ; 1.0617390949846642E11 ; 0.0
97 ; 4.4385509101136416E7 ; 1.210008894719965E9 ; 4.2237415270883346E9 ; 1.0738385271401927E11 ; 0.0
98 ; 4.436265762378983E7 ; 1.2100746521132092E9 ; 4.268127036189471E9 ; 1.0859386160873924E11 ; 0.0
99 ; 4.434820649920657E7 ; 1.2101404809339402E9 ; 4.312489693813261E9 ; 1.0980393626085245E11 ; 0.0
100 ; 4.433323835932628E7 ; 1.2102063745499566E9 ; 4.356837900312468E9 ; 1.1101407674178639E11 ; 0.0
101 ; 4.430707804253847E7 ; 1.2102723264899452E9 ; 4.401171138671794E9 ; 1.1222428311633635E11 ; 0.0
102 ; 4.429207331345376E7 ; 1.2103383304381146E9 ; 4.445478216714333E9 ; 1.134345554428263E11 ; 0.0
103 ; 4.427241728716848E7 ; 1.2104043802290144E9 ; 4.489770290027786E9 ; 1.146448937732644E11 ; 0.0
104 ; 4.4256400766994596E7 ; 1.2104704698425374E9 ; 4.534042707314955E9 ; 1.1585529815349342E11 ; 0.0
105 ; 4.423230780533526E7 ; 1.2105365933990974E9 ; 4.578299108081949E9 ; 1.1706576862333597E11 ; 0.0
106 ; 4.420921402157074E7 ; 1.2106027451549768E9 ; 4.622531415887284E9 ; 1.1827630521673506E11 ; 0.0
107 ; 4.419160653977757E7 ; 1.210668919497839E9 ; 4.666740629908855E9 ; 1.1948690796189005E11 ; 0.0
108 ; 4.417183911361557E7 ; 1.2107351109424026E9 ; 4.710932236448633E9 ; 1.2069757688138788E11 ; 0.0
109 ; 4.415220456715888E7 ; 1.210801314126268E9 ; 4.755104075562249E9 ; 1.2190831199233028E11 ; 0.0
110 ; 4.412627796140584E7 ; 1.2108675238058949E9 ; 4.799256280129408E9 ; 1.2311911330645654E11 ; 0.0
111 ; 4.410422512341466E7 ; 1.2109337348527257E9 ; 4.843382558090814E9 ; 1.2432998083026244E11 ; 0.0
112 ; 4.408349463104596E7 ; 1.2109999422494462E9 ; 4.887486783214229E9 ; 1.2554091456511516E11 ; 0.0
113 ; 4.4056539298791945E7 ; 1.2110661410863817E9 ; 4.931570277845275E9 ; 1.2675191450736461E11 ; 0.0
114 ; 4.403204051361735E7 ; 1.2111323265580258E9 ; 4.975626817144067E9 ; 1.2796298064845099E11 ; 0.0
115 ; 4.4013154317375965E7 ; 1.2111984939596925E9 ; 5.019658857657684E9 ; 1.2917411297500902E11 ; 0.0
116 ; 4.398508896598163E7 ; 1.2112646386842892E9 ; 5.06367201197506E9 ; 1.303853114689687E11 ; 0.0
117 ; 4.395834720241537E7 ; 1.2113307562192101E9 ; 5.107657100941042E9 ; 1.31596576107653E11 ; 0.0
118 ; 4.393578521100736E7 ; 1.211396842143338E9 ; 5.151615448143457E9 ; 1.3280790686387221E11 ; 0.0
119 ; 4.3909110325825244E7 ; 1.211462892124157E9 ; 5.195551233354465E9 ; 1.3401930370601555E11 ; 0.0
120 ; 4.3880037172253594E7 ; 1.2115289019149718E9 ; 5.23946034368029E9 ; 1.3523076659813971E11 ; 0.0
121 ; 4.385092882148151E7 ; 1.2115948673522232E9 ; 5.283340380852544E9 ; 1.3644229550005469E11 ; 0.0
122 ; 4.3826395370659456E7 ; 1.2116607843529053E9 ; 5.327191309674026E9 ; 1.3765389036740692E11 ; 0.0
123 ; 4.3793448108028516E7 ; 1.211726648912074E9 ; 5.371017705044685E9 ; 1.3886555115175983E11 ; 0.0
124 ; 4.376583921923747E7 ; 1.2117924571004462E9 ; 5.414811153152714E9 ; 1.400772778006719E11 ; 0.0
125 ; 4.373546735095084E7 ; 1.211858205062086E9 ; 5.458576992371951E9 ; 1.4128907025777234E11 ; 0.0
126 ; 4.3709926015824884E7 ; 1.2119238890121746E9 ; 5.502312459722902E9 ; 1.425009284628344E11 ; 0.0
127 ; 4.368546616115688E7 ; 1.2119895052348597E9 ; 5.546022385738728E9 ; 1.437128523518466E11 ; 0.0
128 ; 4.3653604923674375E7 ; 1.2120550500811837E9 ; 5.589707851899884E9 ; 1.4492484185708145E11 ; 0.0
129 ; 4.36273082758897E7 ; 1.2121205199670856E9 ; 5.633361456823559E9 ; 1.4613689690716263E11 ; 0.0
130 ; 4.358454085357206E7 ; 1.2121859113714757E9 ; 5.676988765099448E9 ; 1.473490174271297E11 ; 0.0
131 ; 4.354162522831735E7 ; 1.212251220834377E9 ; 5.72057330595302E9 ; 1.485612033385012E11 ; 0.0
132 ; 4.349545790108377E7 ; 1.2123164449551368E9 ; 5.764114931181337E9 ; 1.4977345455933557E11 ; 0.0
133 ; 4.345597762174216E7 ; 1.2123815803906984E9 ; 5.807610389082421E9 ; 1.509857710042907E11 ; 0.0
134 ; 4.3402224249865055E7 ; 1.2124466238539371E9 ; 5.851066366704164E9 ; 1.521981525846814E11 ; 0.0
135 ; 4.336488966885391E7 ; 1.2125115721120546E9 ; 5.894468590954029E9 ; 1.5341059920853534E11 ; 0.0
136 ; 4.332037159647496E7 ; 1.2125764219850297E9 ; 5.937833480622883E9 ; 1.546231107806474E11 ; 0.0
137 ; 4.32674333949133E7 ; 1.2126411703441253E9 ; 5.9811538522193575E9 ; 1.5583568720263242E11 ; 0.0
138 ; 4.322785239616385E7 ; 1.2127058141104472E9 ; 6.024421285614271E9 ; 1.5704832837297653E11 ; 0.0
139 ; 4.3177508549826816E7 ; 1.2127703502535536E9 ; 6.067649138010435E9 ; 1.5826103418708698E11 ; 0.0
140 ; 4.3129169984079376E7 ; 1.2128347757901149E9 ; 6.110826646560262E9 ; 1.594738045373405E11 ; 0.0
141 ; 4.3075942643406086E7 ; 1.2128990877826188E9 ; 6.153955816544341E9 ; 1.606866393131306E11 ; 0.0
142 ; 4.3033552164446995E7 ; 1.2129632833381214E9 ; 6.197031759187747E9 ; 1.6189953840091324E11 ; 0.0
143 ; 4.2985462402162686E7 ; 1.2130273596070437E9 ; 6.240065311352194E9 ; 1.6311250168425137E11 ; 0.0
144 ; 4.2932745109161966E7 ; 1.2130913137820063E9 ; 6.283050773754356E9 ; 1.6432552904385843E11 ; 0.0
145 ; 4.29062892623337E7 ; 1.2131551430967085E9 ; 6.325983518863519E9 ; 1.6553862035764044E11 ; 0.0
146 ; 4.287226150750911E7 ; 1.213218844824844E9 ; 6.368889808125853E9 ; 1.6675177550073715E11 ; 0.0
147 ; 4.284233117528403E7 ; 1.2132824162790544E9 ; 6.411762069633362E9 ; 1.6796499434556198E11 ; 0.0
148 ; 4.280234002934822E7 ; 1.2133458548099194E9 ; 6.454604400808646E9 ; 1.6917827676184103E11 ; 0.0
149 ; 4.276741620437625E7 ; 1.2134091578049812E9 ; 6.497406740837995E9 ; 1.7039162261665094E11 ; 0.0
150 ; 4.2741546015033685E7 ; 1.2134723226878033E9 ; 6.540174157042371E9 ; 1.7160503177445593E11 ; 0.0
151 ; 4.27107619459956E7 ; 1.213535346917059E9 ; 6.5829157030574045E9 ; 1.7281850409714374E11 ; 0.0
152 ; 4.267139406726186E7 ; 1.2135982279856553E9 ; 6.6256264650034E9 ; 1.740320394440608E11 ; 0.0
153 ; 4.264430519220598E7 ; 1.213660963419882E9 ; 6.668297859070662E9 ; 1.7524563767204645E11 ; 0.0
154 ; 4.260500807759586E7 ; 1.2137235507785933E9 ; 6.710942164262868E9 ; 1.7645929863546634E11 ; 0.0
155 ; 4.2570436519576386E7 ; 1.2137859876524138E9 ; 6.753547172340464E9 ; 1.7767302218624493E11 ; 0.0
156 ; 4.253956092574592E7 ; 1.2138482716629758E9 ; 6.79611760886004E9 ; 1.7888680817389734E11 ; 0.0
157 ; 4.250620267927259E7 ; 1.2139104004621763E9 ; 6.838657169785786E9 ; 1.801006564455603E11 ; 0.0
158 ; 4.2470738983679615E7 ; 1.2139723717314649E9 ; 6.881163372465058E9 ; 1.813145668460225E11 ; 0.0
159 ; 4.243681836907486E7 ; 1.2140341831811516E9 ; 6.923634111448738E9 ; 1.8252853921775397E11 ; 0.0
160 ; 4.240014475861925E7 ; 1.2140958325497394E9 ; 6.966070929817813E9 ; 1.8374257340093512E11 ; 0.0
161 ; 4.2365955579478644E7 ; 1.2141573176032772E9 ; 7.008471074576432E9 ; 1.8495666923348486E11 ; 0.0
162 ; 4.232830232436008E7 ; 1.214218636134739E9 ; 7.0508370301559105E9 ; 1.8617082655108813E11 ; 0.0
163 ; 4.229762371991712E7 ; 1.214279785963416E9 ; 7.09316533248027E9 ; 1.8738504518722287E11 ; 0.0
164 ; 4.226223041486013E7 ; 1.2143407649343371E9 ; 7.135462956200188E9 ; 1.8859932497318628E11 ; 0.0
165 ; 4.22272352777188E7 ; 1.214401570917701E9 ; 7.177725186615047E9 ; 1.898136657381206E11 ; 0.0
166 ; 4.219228085040094E7 ; 1.214462201808333E9 ; 7.219952421892766E9 ; 1.910280673090383E11 ; 0.0
167 ; 4.215172005227575E7 ; 1.2145226555251553E9 ; 7.262144702743167E9 ; 1.9224252951084662E11 ; 0.0
168 ; 4.2115341168034986E7 ; 1.2145829300106773E9 ; 7.304296422795443E9 ; 1.9345705216637177E11 ; 0.0
169 ; 4.208200774684049E7 ; 1.2146430232305012E9 ; 7.346411763963477E9 ; 1.9467163509638245E11 ; 0.0
170 ; 4.204388165918762E7 ; 1.2147029331728435E9 ; 7.388493771710318E9 ; 1.9588627811961295E11 ; 0.0
171 ; 4.201539165005913E7 ; 1.214762657848073E9 ; 7.430537653369505E9 ; 1.971009810527858E11 ; 0.0
172 ; 4.197881640353581E7 ; 1.2148221952882626E9 ; 7.472553045019564E9 ; 1.9831574371063388E11 ; 0.0
173 ; 4.194069544944262E7 ; 1.2148815435467572E9 ; 7.5145318614230995E9 ; 1.9953056590592215E11 ; 0.0
174 ; 4.191201398761154E7 ; 1.2149407006977522E9 ; 7.556472556872542E9 ; 2.007454474494689E11 ; 0.0
175 ; 4.189566023949666E7 ; 1.2149996648358908E9 ; 7.598384570860154E9 ; 2.0196038815016666E11 ; 0.0
176 ; 4.1868425660527416E7 ; 1.2150584340758681E9 ; 7.64028023109965E9 ; 2.0317538781500253E11 ; 0.0
177 ; 4.1850193888188645E7 ; 1.2151170065520527E9 ; 7.682148656760178E9 ; 2.043904462490784E11 ; 0.0
178 ; 4.182561589209593E7 ; 1.215175380418118E9 ; 7.723998850648366E9 ; 2.0560556325563046E11 ; 0.0
179 ; 4.180742114448344E7 ; 1.215233553846685E9 ; 7.765824466540462E9 ; 2.0682073863604858E11 ; 0.0
180 ; 4.178588872890233E7 ; 1.2152915250289779E9 ; 7.807631887684945E9 ; 2.0803597218989526E11 ; 0.0
181 ; 4.175410292546533E7 ; 1.2153492921744893E9 ; 7.849417776413847E9 ; 2.0925126371492426E11 ; 0.0
182 ; 4.1736709639315575E7 ; 1.2154068535106564E9 ; 7.891171879339313E9 ; 2.1046661300709875E11 ; 0.0
183 ; 4.171184405741891E7 ; 1.2154642072825475E9 ; 7.932908588978628E9 ; 2.116820198606094E11 ; 0.0
184 ; 4.168928716011997E7 ; 1.2155213517525582E9 ; 7.974620433036047E9 ; 2.1289748406789197E11 ; 0.0
185 ; 4.166797553654611E7 ; 1.2155782852001166E9 ; 8.016309720196167E9 ; 2.1411300541964453E11 ; 0.0
186 ; 4.164362433299376E7 ; 1.2156350059213996E9 ; 8.057977695732713E9 ; 2.1532858370484464E11 ; 0.0
187 ; 4.162459364234382E7 ; 1.2156915122290537E9 ; 8.099621320065706E9 ; 2.1654421871076602E11 ; 0.0
188 ; 4.160358232862401E7 ; 1.2157478024519312E9 ; 8.14124591370805E9 ; 2.177599102229951E11 ; 0.0
189 ; 4.1575504531012565E7 ; 1.2158038749348278E9 ; 8.182849496036674E9 ; 2.1897565802544702E11 ; 0.0
190 ; 4.15575594974692E7 ; 1.215859728038233E9 ; 8.224425000567686E9 ; 2.2019146190038184E11 ; 0.0
191 ; 4.1533512697887324E7 ; 1.2159153601380856E9 ; 8.265982560065155E9 ; 2.2140732162842007E11 ; 0.0
192 ; 4.151423201289609E7 ; 1.2159707696255374E9 ; 8.307516072763042E9 ; 2.2262323698855817E11 ; 0.0
193 ; 4.148543998694408E7 ; 1.2160259549067264E9 ; 8.349030304775939E9 ; 2.2383920775818372E11 ; 0.0
194 ; 4.146180733362171E7 ; 1.2160809144025512E9 ; 8.390515744762883E9 ; 2.2505523371309045E11 ; 0.0
195 ; 4.144682579093559E7 ; 1.2161356465484607E9 ; 8.431977552096505E9 ; 2.26271314627493E11 ; 0.0
196 ; 4.1418555233885586E7 ; 1.216190149794242E9 ; 8.473424377887441E9 ; 2.2748745027404147E11 ; 0.0
