CSV File for the Network on Day 121
1 - Minute m 
2 - Power Consumed at minute m 
3 - Power Produced at minute m 
4 - Energy Consumed since the beginning of the day 
5 - Energy Produced since the beginning of the day 
6 - Energy Lost since the beginning of the day 
 
0 ; 3.900201005316461E7 ; 6.353776939371272E8 ; 0.0 ; 0.0 ; 0.0
1 ; 3.90453900641117E7 ; 6.362886219497526E8 ; 3.900201005316461E7 ; 6.353776939371272E8 ; 0.0
2 ; 3.9089494176730275E7 ; 6.390529339405136E8 ; 7.804740011727631E7 ; 1.27166631588688E9 ; 0.0
3 ; 3.914186990054675E7 ; 6.436706451050363E8 ; 1.1713689429400659E8 ; 1.9107192498273935E9 ; 0.0
4 ; 3.920203288962093E7 ; 6.50141769046814E8 ; 1.5627876419455335E8 ; 2.55438989493243E9 ; 0.0
5 ; 3.926741657459564E7 ; 6.584663177067518E8 ; 1.9548079708417428E8 ; 3.2045316639792438E9 ; 0.0
6 ; 3.936762755224489E7 ; 6.686443013002217E8 ; 2.347482136587699E8 ; 3.8629979816859956E9 ; 0.0
7 ; 3.949606266487999E7 ; 6.806757282623924E8 ; 2.741158412110148E8 ; 4.5316422829862175E9 ; 0.0
8 ; 3.9683820587711334E7 ; 6.945606052025139E8 ; 3.136119038758948E8 ; 5.21231801124861E9 ; 0.0
9 ; 3.9964831817468576E7 ; 7.102989368677338E8 ; 3.532957244636061E8 ; 5.906878616451123E9 ; 0.0
10 ; 4.0399927547004856E7 ; 7.278907261169122E8 ; 3.932605562810747E8 ; 6.617177553318857E9 ; 0.0
11 ; 4.1096650167004734E7 ; 7.473359739047711E8 ; 4.336604838280796E8 ; 7.345068279435769E9 ; 0.0
12 ; 4.2207352375379495E7 ; 7.686346792765881E8 ; 4.747571339950843E8 ; 8.09240425334054E9 ; 0.0
13 ; 4.327944805741477E7 ; 7.917868393735034E8 ; 5.169644863704638E8 ; 8.861038932617128E9 ; 0.0
14 ; 4.340063371788982E7 ; 8.167924494483699E8 ; 5.602439344278786E8 ; 9.652825771990631E9 ; 0.0
15 ; 4.344795506957304E7 ; 8.436515028919368E8 ; 6.036445681457684E8 ; 1.0469618221439001E10 ; 0.0
16 ; 4.350030900800798E7 ; 8.723639912690363E8 ; 6.470925232153414E8 ; 1.1313269724330938E10 ; 0.0
17 ; 4.355681793793751E7 ; 9.029299043642956E8 ; 6.905928322233495E8 ; 1.2185633715599976E10 ; 0.0
18 ; 4.361027617165139E7 ; 9.353492302368097E8 ; 7.34149650161287E8 ; 1.3088563619964272E10 ; 0.0
19 ; 4.366976630076642E7 ; 9.696219552830858E8 ; 7.777599263329383E8 ; 1.402391285020108E10 ; 0.0
20 ; 4.371577933266919E7 ; 1.0057480643074974E9 ; 8.214296926337048E8 ; 1.4993534805484165E10 ; 0.0
21 ; 4.376850688345304E7 ; 1.0437275405994152E9 ; 8.651454719663739E8 ; 1.5999282869791662E10 ; 0.0
22 ; 4.382643558310228E7 ; 1.0835603660161247E9 ; 9.089139788498269E8 ; 1.7043010410391077E10 ; 0.0
23 ; 4.386988296768308E7 ; 1.125246521070607E9 ; 9.527404144329292E8 ; 1.8126570776407204E10 ; 0.0
24 ; 4.3938392175369576E7 ; 1.1687859850232449E9 ; 9.966102974006122E8 ; 1.925181729747781E10 ; 0.0
25 ; 4.398252744846639E7 ; 1.2063069813656144E9 ; 1.0405486895759819E9 ; 2.0420603282501053E10 ; 0.0
26 ; 4.40380852014566E7 ; 1.2063307741386065E9 ; 1.0845312170244482E9 ; 2.162691026386667E10 ; 0.0
27 ; 4.408773447802918E7 ; 1.2063559551797547E9 ; 1.1285693022259047E9 ; 2.2833241038005276E10 ; 0.0
28 ; 4.414767134342034E7 ; 1.2063824997020814E9 ; 1.172657036703934E9 ; 2.403959699318503E10 ; 0.0
29 ; 4.419702251133584E7 ; 1.2064103821512866E9 ; 1.2168047080473542E9 ; 2.524597949288711E10 ; 0.0
30 ; 4.424485793752142E7 ; 1.2064395763022223E9 ; 1.26100173055869E9 ; 2.64523898750384E10 ; 0.0
31 ; 4.429246528437387E7 ; 1.2064700553534572E9 ; 1.3052465884962115E9 ; 2.7658829451340622E10 ; 0.0
32 ; 4.434006960673902E7 ; 1.2065017920193229E9 ; 1.3495390537805853E9 ; 2.886529950669408E10 ; 0.0
33 ; 4.4390862743909106E7 ; 1.2065347586189213E9 ; 1.3938791233873243E9 ; 3.00718012987134E10 ; 0.0
34 ; 4.443643409877681E7 ; 1.2065689271616387E9 ; 1.4382699861312335E9 ; 3.127833605733232E10 ; 0.0
35 ; 4.4476955370342106E7 ; 1.2066042694287934E9 ; 1.4827064202300103E9 ; 3.248490498449396E10 ; 0.0
36 ; 4.452195207466425E7 ; 1.2066407570511167E9 ; 1.5271833756003523E9 ; 3.3691509253922756E10 ; 0.0
37 ; 4.456837932809074E7 ; 1.2066783615818353E9 ; 1.5717053276750166E9 ; 3.489815001097387E10 ; 0.0
38 ; 4.4610748522816256E7 ; 1.2067170545651915E9 ; 1.6162737070031073E9 ; 3.61048283725557E10 ; 0.0
39 ; 4.465084215372883E7 ; 1.2067568076003003E9 ; 1.6608844555259235E9 ; 3.7311545427120895E10 ; 0.0
40 ; 4.468821362168282E7 ; 1.2067975924002955E9 ; 1.7055352976796522E9 ; 3.85183022347212E10 ; 0.0
41 ; 4.472882743416898E7 ; 1.2068393808467686E9 ; 1.750223511301335E9 ; 3.97250998271215E10 ; 0.0
42 ; 4.47593414186623E7 ; 1.2068821450395555E9 ; 1.7949523387355042E9 ; 4.093193920796827E10 ; 0.0
43 ; 4.475911908663839E7 ; 1.2069258573419514E9 ; 1.8397116801541665E9 ; 4.213882135300783E10 ; 0.0
44 ; 4.473751138586029E7 ; 1.2069704904214811E9 ; 1.884470799240805E9 ; 4.334574721034978E10 ; 0.0
45 ; 4.471753863832116E7 ; 1.207016017286374E9 ; 1.929208310626665E9 ; 4.4552717700771255E10 ; 0.0
46 ; 4.469026856294274E7 ; 1.2070624113179135E9 ; 1.9739258492649863E9 ; 4.575973371805763E10 ; 0.0
47 ; 4.467768699858661E7 ; 1.207109646298851E9 ; 2.018616117827929E9 ; 4.696679612937555E10 ; 0.0
48 ; 4.46486676006229E7 ; 1.207157696438089E9 ; 2.0632938048265157E9 ; 4.81739057756744E10 ; 0.0
49 ; 4.4623596277438566E7 ; 1.2072065363918457E9 ; 2.1079424724271386E9 ; 4.938106347211249E10 ; 0.0
50 ; 4.4585432014449075E7 ; 1.207256141281515E9 ; 2.152566068704577E9 ; 5.058827000850433E10 ; 0.0
51 ; 4.4556317625118345E7 ; 1.2073064867084482E9 ; 2.197151500719026E9 ; 5.179552614978585E10 ; 0.0
52 ; 4.4524655257111326E7 ; 1.2073575487658715E9 ; 2.2417078183441443E9 ; 5.30028326364943E10 ; 0.0
53 ; 4.448973998469125E7 ; 1.2074093040481603E9 ; 2.286232473601256E9 ; 5.421019018526017E10 ; 0.0
54 ; 4.4457992003014505E7 ; 1.207461729657682E9 ; 2.330722213585947E9 ; 5.541759948930833E10 ; 0.0
55 ; 4.44160319384536E7 ; 1.207514803209413E9 ; 2.3751802055889616E9 ; 5.662506121896601E10 ; 0.0
56 ; 4.438297415772361E7 ; 1.2075685028335314E9 ; 2.4195962375274153E9 ; 5.783257602217542E10 ; 0.0
57 ; 4.4357421381742485E7 ; 1.207622807176172E9 ; 2.4639792116851387E9 ; 5.904014452500896E10 ; 0.0
58 ; 4.432292478739893E7 ; 1.2076776953985279E9 ; 2.508336633066881E9 ; 6.024776733218513E10 ; 0.0
59 ; 4.4291717438341826E7 ; 1.2077331471744704E9 ; 2.55265955785428E9 ; 6.145544502758366E10 ; 0.0
60 ; 4.4253486322070666E7 ; 1.2077891426868463E9 ; 2.5969512752926216E9 ; 6.2663178174758125E10 ; 0.0
61 ; 4.4221904492869034E7 ; 1.2078456626226075E9 ; 2.641204761614692E9 ; 6.387096731744497E10 ; 0.0
62 ; 4.418098757103502E7 ; 1.2079026881669092E9 ; 2.685426666107561E9 ; 6.507881298006757E10 ; 0.0
63 ; 4.41472345627163E7 ; 1.2079602009963145E9 ; 2.729607653678596E9 ; 6.628671566823448E10 ; 0.0
64 ; 4.4104368856311426E7 ; 1.2080181832712188E9 ; 2.7737548882413125E9 ; 6.74946758692308E10 ; 0.0
65 ; 4.4073662004097454E7 ; 1.2080766176276138E9 ; 2.817859257097624E9 ; 6.8702694052502014E10 ; 0.0
66 ; 4.403858122514866E7 ; 1.2081354871682858E9 ; 2.8619329191017213E9 ; 6.991077067012962E10 ; 0.0
67 ; 4.3996707406561494E7 ; 1.2081947754535499E9 ; 2.90597150032687E9 ; 7.111890615729791E10 ; 0.0
68 ; 4.396484557258772E7 ; 1.2082544664915965E9 ; 2.9499682077334313E9 ; 7.232710093275146E10 ; 0.0
69 ; 4.391802776119217E7 ; 1.2083145447285385E9 ; 2.993933053306019E9 ; 7.353535539924306E10 ; 0.0
70 ; 4.3885711252958104E7 ; 1.2083749950382183E9 ; 3.037851081067211E9 ; 7.474366994397159E10 ; 0.0
71 ; 4.384348976788509E7 ; 1.208435802711843E9 ; 3.0817367923201694E9 ; 7.595204493900981E10 ; 0.0
72 ; 4.381198623174255E7 ; 1.2084969534475083E9 ; 3.1255802820880547E9 ; 7.716048074172165E10 ; 0.0
73 ; 4.376311718034727E7 ; 1.2085584333396516E9 ; 3.169392268319797E9 ; 7.836897769516916E10 ; 0.0
74 ; 4.3727769749722585E7 ; 1.2086202288684888E9 ; 3.2131553855001445E9 ; 7.95775361285088E10 ; 0.0
75 ; 4.36887021564748E7 ; 1.2086823268894675E9 ; 3.256883155249867E9 ; 8.078615635737729E10 ; 0.0
76 ; 4.364659273544074E7 ; 1.2087447146227777E9 ; 3.3005718574063416E9 ; 8.199483868426675E10 ; 0.0
77 ; 4.3609497943266846E7 ; 1.2088073796429458E9 ; 3.3442184501417823E9 ; 8.320358339888953E10 ; 0.0
78 ; 4.3554279185804665E7 ; 1.2088703098685398E9 ; 3.387827948085049E9 ; 8.441239077853247E10 ; 0.0
79 ; 4.3494852351837896E7 ; 1.2089334935520105E9 ; 3.431382227270854E9 ; 8.562126108840102E10 ; 0.0
80 ; 4.344093238371183E7 ; 1.208996919269688E9 ; 3.474877079622692E9 ; 8.683019458195303E10 ; 0.0
81 ; 4.338337106525059E7 ; 1.2090605759119458E9 ; 3.518318012006404E9 ; 8.803919150122272E10 ; 0.0
82 ; 4.332747543192488E7 ; 1.2091244526735554E9 ; 3.5617013830716543E9 ; 8.924825207713466E10 ; 0.0
83 ; 4.3270267751396075E7 ; 1.2091885390442324E9 ; 3.605028858503579E9 ; 9.045737652980821E10 ; 0.0
84 ; 4.3212270178806335E7 ; 1.2092528247993937E9 ; 3.6482991262549753E9 ; 9.166656506885245E10 ; 0.0
85 ; 4.315684762597755E7 ; 1.2093172999911246E9 ; 3.6915113964337816E9 ; 9.287581789365184E10 ; 0.0
86 ; 4.310886108660198E7 ; 1.2093819549393692E9 ; 3.734668244059759E9 ; 9.408513519364296E10 ; 0.0
87 ; 4.304395097949145E7 ; 1.2094467802233403E9 ; 3.7777771051463614E9 ; 9.529451714858234E10 ; 0.0
88 ; 4.2994061086311474E7 ; 1.2095117666731594E9 ; 3.8208210561258526E9 ; 9.650396392880568E10 ; 0.0
89 ; 4.29285502011738E7 ; 1.2095769053617225E9 ; 3.863815117212164E9 ; 9.771347569547884E10 ; 0.0
90 ; 4.287175087983089E7 ; 1.2096421875967963E9 ; 3.9067436674133377E9 ; 9.892305260084056E10 ; 0.0
91 ; 4.28145090119677E7 ; 1.2097076049133399E9 ; 3.9496154182931685E9 ; 1.0013269478843736E11 ; 0.0
92 ; 4.27538101519017E7 ; 1.209773149066056E9 ; 3.992429927305136E9 ; 1.0134240239335071E11 ; 0.0
93 ; 4.26925283611921E7 ; 1.2098388120221663E9 ; 4.035183737457038E9 ; 1.0255217554241676E11 ; 0.0
94 ; 4.263494569804217E7 ; 1.2099045859544067E9 ; 4.07787626581823E9 ; 1.0376201435443893E11 ; 0.0
95 ; 4.257412942256178E7 ; 1.209970463234247E9 ; 4.1205112115162725E9 ; 1.0497191894039334E11 ; 0.0
96 ; 4.2515280430594645E7 ; 1.2100364364253192E9 ; 4.163085340938834E9 ; 1.061818894036276E11 ; 0.0
97 ; 4.2451945474234164E7 ; 1.2101024982770662E9 ; 4.2056006213694286E9 ; 1.0739192584005292E11 ; 0.0
98 ; 4.238694460662746E7 ; 1.2101686417185879E9 ; 4.2480525668436627E9 ; 1.0860202833832999E11 ; 0.0
99 ; 4.2327156274188325E7 ; 1.2102348598526995E9 ; 4.29043951145029E9 ; 1.0981219698004857E11 ; 0.0
100 ; 4.226394979550933E7 ; 1.2103011459501839E9 ; 4.332766667724479E9 ; 1.1102243183990128E11 ; 0.0
101 ; 4.220006050374901E7 ; 1.2103674934442358E9 ; 4.375030617519988E9 ; 1.1223273298585146E11 ; 0.0
102 ; 4.214583114957925E7 ; 1.2104338959250994E9 ; 4.417230678023737E9 ; 1.1344310047929568E11 ; 0.0
103 ; 4.207382964349308E7 ; 1.2105003471348858E9 ; 4.459376509173316E9 ; 1.1465353437522078E11 ; 0.0
104 ; 4.201102987610836E7 ; 1.21056684096257E9 ; 4.501450338816809E9 ; 1.1586403472235567E11 ; 0.0
105 ; 4.194576449204626E7 ; 1.2106333714391618E9 ; 4.543461368692917E9 ; 1.1707460156331824E11 ; 0.0
106 ; 4.188558958718604E7 ; 1.2106999327330437E9 ; 4.585407133184963E9 ; 1.182852349347574E11 ; 0.0
107 ; 4.1814385672586925E7 ; 1.2107665191454747E9 ; 4.627292722772149E9 ; 1.1949593486749045E11 ; 0.0
108 ; 4.175062489812321E7 ; 1.2108331251062486E9 ; 4.6691071084447365E9 ; 1.2070670138663593E11 ; 0.0
109 ; 4.168556070657265E7 ; 1.2108997451695092E9 ; 4.710857733342859E9 ; 1.2191753451174217E11 ; 0.0
110 ; 4.1619171473685294E7 ; 1.2109663740097108E9 ; 4.752543294049432E9 ; 1.2312843425691168E11 ; 0.0
111 ; 4.155426135082473E7 ; 1.2110330064177234E9 ; 4.794162465523117E9 ; 1.2433940063092139E11 ; 0.0
112 ; 4.14944082202768E7 ; 1.2110996372970781E9 ; 4.835716726873941E9 ; 1.2555043363733911E11 ; 0.0
113 ; 4.142193927020689E7 ; 1.2111662616603436E9 ; 4.877211135094218E9 ; 1.2676153327463618E11 ; 0.0
114 ; 4.135948077501468E7 ; 1.2112328746256347E9 ; 4.918633074364425E9 ; 1.2797269953629652E11 ; 0.0
115 ; 4.128739010412732E7 ; 1.211299471413244E9 ; 4.95999255513944E9 ; 1.2918393241092216E11 ; 0.0
116 ; 4.1221852437340975E7 ; 1.2113660473423965E9 ; 5.0012799452435665E9 ; 1.303952318823354E11 ; 0.0
117 ; 4.1151925505219996E7 ; 1.2114325978281186E9 ; 5.042501797680907E9 ; 1.316065979296778E11 ; 0.0
118 ; 4.107924258594105E7 ; 1.2114991183782206E9 ; 5.083653723186128E9 ; 1.3281803052750592E11 ; 0.0
119 ; 4.1012891717632905E7 ; 1.2115656045903873E9 ; 5.124732965772069E9 ; 1.3402952964588414E11 ; 0.0
120 ; 4.094426206501264E7 ; 1.2116320521493738E9 ; 5.165745857489702E9 ; 1.3524109525047453E11 ; 0.0
121 ; 4.087210319359675E7 ; 1.2116984568243008E9 ; 5.206690119554715E9 ; 1.364527273026239E11 ; 0.0
122 ; 4.079988043000386E7 ; 1.2117648144660482E9 ; 5.247562222748312E9 ; 1.376644257594482E11 ; 0.0
123 ; 4.072961610778566E7 ; 1.211831121004742E9 ; 5.288362103178316E9 ; 1.3887619057391425E11 ; 0.0
124 ; 4.066238702693912E7 ; 1.2118973724473307E9 ; 5.329091719286101E9 ; 1.4008802169491898E11 ; 0.0
125 ; 4.058712848574808E7 ; 1.2119635648752496E9 ; 5.369754106313041E9 ; 1.412999190673663E11 ; 0.0
126 ; 4.052159911701699E7 ; 1.2120296944421687E9 ; 5.410341234798789E9 ; 1.4251188263224155E11 ; 0.0
127 ; 4.044651203425971E7 ; 1.2120957573718197E9 ; 5.450862833915806E9 ; 1.4372391232668372E11 ; 0.0
128 ; 4.036833143048825E7 ; 1.2121617499559035E9 ; 5.491309345950066E9 ; 1.4493600808405554E11 ; 0.0
129 ; 4.030495428756878E7 ; 1.212227668552069E9 ; 5.531677677380554E9 ; 1.4614816983401144E11 ; 0.0
130 ; 4.022785574335068E7 ; 1.212293509581967E9 ; 5.571982631668123E9 ; 1.473603975025635E11 ; 0.0
131 ; 4.012792067701216E7 ; 1.2123592695293725E9 ; 5.612210487411474E9 ; 1.4857269101214548E11 ; 0.0
132 ; 4.004856130700155E7 ; 1.2124249449383717E9 ; 5.652338408088487E9 ; 1.4978505028167484E11 ; 0.0
133 ; 3.996150561328973E7 ; 1.2124905324116154E9 ; 5.692386969395488E9 ; 1.5099747522661322E11 ; 0.0
134 ; 3.986940211568892E7 ; 1.2125560286086357E9 ; 5.732348475008778E9 ; 1.5220996575902484E11 ; 0.0
135 ; 3.978623327061418E7 ; 1.2126214302442179E9 ; 5.772217877124467E9 ; 1.5342252178763348E11 ; 0.0
136 ; 3.968902795336704E7 ; 1.2126867340868335E9 ; 5.8120041103950815E9 ; 1.5463514321787772E11 ; 0.0
137 ; 3.960935318760708E7 ; 1.2127519369571276E9 ; 5.851693138348449E9 ; 1.5584782995196454E11 ; 0.0
138 ; 3.9513296610160336E7 ; 1.212817035726457E9 ; 5.891302491536056E9 ; 1.5706058188892166E11 ; 0.0
139 ; 3.942552580263763E7 ; 1.2128820273154843E9 ; 5.930815788146215E9 ; 1.5827339892464813E11 ; 0.0
140 ; 3.933527654095E7 ; 1.2129469086928158E9 ; 5.9702413139488535E9 ; 1.5948628095196362E11 ; 0.0
141 ; 3.924236592474007E7 ; 1.2130116768736916E9 ; 6.009576590489803E9 ; 1.6069922786065643E11 ; 0.0
142 ; 3.9149707298350066E7 ; 1.213076328918718E9 ; 6.048818956414543E9 ; 1.6191223953753012E11 ; 0.0
143 ; 3.90636361785652E7 ; 1.2131408619326458E9 ; 6.0879686637128935E9 ; 1.6312531586644885E11 ; 0.0
144 ; 3.89715777475224E7 ; 1.2132052730631897E9 ; 6.1270322998914585E9 ; 1.643384567283815E11 ; 0.0
145 ; 3.889962511974027E7 ; 1.2132695594998899E9 ; 6.166003877638981E9 ; 1.655516620014447E11 ; 0.0
146 ; 3.8825008024684176E7 ; 1.213333718473011E9 ; 6.204903502758721E9 ; 1.6676493156094458E11 ; 0.0
147 ; 3.875350733621794E7 ; 1.2133977472524822E9 ; 6.243728510783405E9 ; 1.679782652794176E11 ; 0.0
148 ; 3.8671043042685434E7 ; 1.2134616431468692E9 ; 6.282482018119623E9 ; 1.6919166302667007E11 ; 0.0
149 ; 3.860159320756087E7 ; 1.2135254035023847E9 ; 6.321153061162309E9 ; 1.7040512466981696E11 ; 0.0
150 ; 3.852404237095161E7 ; 1.2135890257019315E9 ; 6.359754654369869E9 ; 1.7161865007331934E11 ; 0.0
151 ; 3.844948032133635E7 ; 1.2136525071641786E9 ; 6.398278696740821E9 ; 1.7283223909902127E11 ; 0.0
152 ; 3.8373181120081194E7 ; 1.213715845342668E9 ; 6.436728177062158E9 ; 1.7404589160618546E11 ; 0.0
153 ; 3.8294858896338955E7 ; 1.213779037724953E9 ; 6.475101358182239E9 ; 1.7525960745152814E11 ; 0.0
154 ; 3.8229281789243266E7 ; 1.2138420818317628E9 ; 6.513396217078578E9 ; 1.7647338648925308E11 ; 0.0
155 ; 3.815002841266162E7 ; 1.2139049752161994E9 ; 6.551625498867822E9 ; 1.7768722857108484E11 ; 0.0
156 ; 3.807079510589867E7 ; 1.2139677154629576E9 ; 6.589775527280483E9 ; 1.7890113354630103E11 ; 0.0
157 ; 3.799667062011811E7 ; 1.2140303001875734E9 ; 6.627846322386382E9 ; 1.8011510126176398E11 ; 0.0
158 ; 3.792126855879124E7 ; 1.2140927270356977E9 ; 6.6658429930065E9 ; 1.8132913156195154E11 ; 0.0
159 ; 3.784395019748541E7 ; 1.2141549936823914E9 ; 6.703764261565291E9 ; 1.8254322428898724E11 ; 0.0
160 ; 3.776427321025773E7 ; 1.2142170978314466E9 ; 6.741608211762776E9 ; 1.8375737928266965E11 ; 0.0
161 ; 3.768883153754993E7 ; 1.2142790372147315E9 ; 6.779372484973034E9 ; 1.849715963805011E11 ; 0.0
162 ; 3.760958676663712E7 ; 1.2143408095915513E9 ; 6.817061316510584E9 ; 1.8618587541771582E11 ; 0.0
163 ; 3.752958135882009E7 ; 1.2144024127480378E9 ; 6.854670903277221E9 ; 1.8740021622730737E11 ; 0.0
164 ; 3.7461606125062525E7 ; 1.2144638444965522E9 ; 6.892200484636041E9 ; 1.8861461864005542E11 ; 0.0
165 ; 3.737847178996178E7 ; 1.2145251026751115E9 ; 6.929662090761104E9 ; 1.8982908248455197E11 ; 0.0
166 ; 3.7302246785888754E7 ; 1.214586185146833E9 ; 6.967040562551065E9 ; 1.9104360758722708E11 ; 0.0
167 ; 3.7227772895141244E7 ; 1.2146470897993956E9 ; 7.004342809336954E9 ; 1.922581937723739E11 ; 0.0
168 ; 3.714343205149743E7 ; 1.2147078145445197E9 ; 7.041570582232096E9 ; 1.934728408621733E11 ; 0.0
169 ; 3.707576454741402E7 ; 1.2147683573174644E9 ; 7.078714014283593E9 ; 1.9468754867671783E11 ; 0.0
170 ; 3.699471595916368E7 ; 1.2148287160765388E9 ; 7.115789778831007E9 ; 1.959023170340353E11 ; 0.0
171 ; 3.691385736249706E7 ; 1.2148888888026326E9 ; 7.152784494790171E9 ; 1.9711714575011185E11 ; 0.0
172 ; 3.684031691122363E7 ; 1.214948873498758E9 ; 7.189698352152668E9 ; 1.983320346389145E11 ; 0.0
173 ; 3.675964537668128E7 ; 1.215008668189609E9 ; 7.226538669063891E9 ; 1.9954698351241324E11 ; 0.0
174 ; 3.66941388514579E7 ; 1.2150682709211338E9 ; 7.263298314440573E9 ; 2.0076199218060284E11 ; 0.0
175 ; 3.663379760622066E7 ; 1.21512767976012E9 ; 7.29999245329203E9 ; 2.01977060451524E11 ; 0.0
176 ; 3.656610601023021E7 ; 1.215186892793795E9 ; 7.336626250898251E9 ; 2.0319218813128412E11 ; 0.0
177 ; 3.6493513655048996E7 ; 1.2152459081294382E9 ; 7.373192356908481E9 ; 2.044073750240779E11 ; 0.0
178 ; 3.642880406700745E7 ; 1.2153047238940039E9 ; 7.40968587056353E9 ; 2.0562262093220734E11 ; 0.0
179 ; 3.636016736195772E7 ; 1.215363338233759E9 ; 7.446114674630537E9 ; 2.0683792565610135E11 ; 0.0
180 ; 3.629373443854721E7 ; 1.21542174931393E9 ; 7.482474841992495E9 ; 2.080532889943351E11 ; 0.0
181 ; 3.6229513418232486E7 ; 1.2154799553183615E9 ; 7.518768576431042E9 ; 2.0926871074364905E11 ; 0.0
182 ; 3.615679052763588E7 ; 1.2155379544491863E9 ; 7.554998089849275E9 ; 2.104841906989674E11 ; 0.0
183 ; 3.608889423020518E7 ; 1.2155957449265046E9 ; 7.59115488037691E9 ; 2.116997286534166E11 ; 0.0
184 ; 3.602686681152188E7 ; 1.2156533249880743E9 ; 7.627243774607116E9 ; 2.129153243983431E11 ; 0.0
185 ; 3.595265915163952E7 ; 1.2157106928890095E9 ; 7.663270641418637E9 ; 2.1413097772333118E11 ; 0.0
186 ; 3.588804747679432E7 ; 1.2157678469014912E9 ; 7.699223300570277E9 ; 2.1534668841622018E11 ; 0.0
187 ; 3.582464284655875E7 ; 1.2158247853144836E9 ; 7.735111348047071E9 ; 2.1656245626312167E11 ; 0.0
188 ; 3.5761803946912244E7 ; 1.215881506433461E9 ; 7.77093599089363E9 ; 2.1777828104843616E11 ; 0.0
189 ; 3.568536710600931E7 ; 1.2159380085801425E9 ; 7.806697794840542E9 ; 2.1899416255486963E11 ; 0.0
190 ; 3.5627228764754556E7 ; 1.2159942900922363E9 ; 7.842383161946551E9 ; 2.2021010056344977E11 ; 0.0
191 ; 3.555654311392396E7 ; 1.2160503493231895E9 ; 7.878010390711306E9 ; 2.21426094853542E11 ; 0.0
192 ; 3.549333140430534E7 ; 1.2161061846419477E9 ; 7.91356693382523E9 ; 2.2264214520286517E11 ; 0.0
193 ; 3.542253951917482E7 ; 1.2161617944327216E9 ; 7.949060265229535E9 ; 2.238582513875071E11 ; 0.0
194 ; 3.5358987229763724E7 ; 1.2162171770947576E9 ; 7.98448280474871E9 ; 2.2507441318193982E11 ; 0.0
195 ; 3.529168936976271E7 ; 1.2162723310421221E9 ; 8.019841791978474E9 ; 2.2629063035903458E11 ; 0.0
196 ; 3.522438383862582E7 ; 1.2163272547034845E9 ; 8.055133481348236E9 ; 2.275069026900767E11 ; 0.0
