CSV File for the Network on Day 113
1 - Minute m 
2 - Power Consumed at minute m 
3 - Power Produced at minute m 
4 - Energy Consumed since the beginning of the day 
5 - Energy Produced since the beginning of the day 
6 - Energy Lost since the beginning of the day 
 
0 ; 3.8909639127908394E7 ; 6.353447555787072E8 ; 0.0 ; 0.0 ; 0.0
1 ; 3.89461928350078E7 ; 6.362556763987881E8 ; 3.8909639127908394E7 ; 6.353447555787072E8 ; 0.0
2 ; 3.898824942056681E7 ; 6.390199815806494E8 ; 7.78558319629162E7 ; 1.2716004319774952E9 ; 0.0
3 ; 3.9034432180390045E7 ; 6.43637686438936E8 ; 1.1684408138348301E8 ; 1.9106204135581446E9 ; 0.0
4 ; 3.909765346943341E7 ; 6.501088046852939E8 ; 1.5587851356387305E8 ; 2.554258099997081E9 ; 0.0
5 ; 3.9173870728894666E7 ; 6.584333483568089E8 ; 1.9497616703330648E8 ; 3.204366904682375E9 ; 0.0
6 ; 3.926063292024262E7 ; 6.686113277520567E8 ; 2.3415003776220113E8 ; 3.8628002530391836E9 ; 0.0
7 ; 3.939561728012909E7 ; 6.806427513755517E8 ; 2.7341067068244374E8 ; 4.531411580791241E9 ; 0.0
8 ; 3.9587847990368E7 ; 6.945276258912814E8 ; 3.128062879625728E8 ; 5.212054332166792E9 ; 0.0
9 ; 3.987275297360261E7 ; 7.10265956085929E8 ; 3.523941359529408E8 ; 5.906581958058073E9 ; 0.0
10 ; 4.02977161385722E7 ; 7.278577448422515E8 ; 3.922668889265434E8 ; 6.616847914144002E9 ; 0.0
11 ; 4.099555612205867E7 ; 7.473029931229663E8 ; 4.3256460506511563E8 ; 7.344705658986254E9 ; 0.0
12 ; 4.210481428361871E7 ; 7.686016999653556E8 ; 4.735601611871743E8 ; 8.0920086521092205E9 ; 0.0
13 ; 4.316583844386533E7 ; 7.917538624866629E8 ; 5.15664975470793E8 ; 8.860610352074575E9 ; 0.0
14 ; 4.32945233371547E7 ; 8.167594759002049E8 ; 5.588308139146583E8 ; 9.652364214561237E9 ; 0.0
15 ; 4.334623130249741E7 ; 8.43618533541994E8 ; 6.02125337251813E8 ; 1.0469123690461443E10 ; 0.0
16 ; 4.339815672469286E7 ; 8.723310269075162E8 ; 6.454715685543104E8 ; 1.1312742224003437E10 ; 0.0
17 ; 4.344997205800859E7 ; 9.028969456981953E8 ; 6.888697252790033E8 ; 1.2185073250910954E10 ; 0.0
18 ; 4.3501857743305996E7 ; 9.353162778769457E8 ; 7.323196973370118E8 ; 1.3087970196609148E10 ; 0.0
19 ; 4.355604261159176E7 ; 9.695890097321212E8 ; 7.758215550803179E8 ; 1.4023286474486094E10 ; 0.0
20 ; 4.360419672469478E7 ; 1.0057151259490774E9 ; 8.193775976919096E8 ; 1.4992875484218214E10 ; 0.0
21 ; 4.366069773352825E7 ; 1.0436946096884886E9 ; 8.629817944166043E8 ; 1.5998590610167292E10 ; 0.0
22 ; 4.3713897548305586E7 ; 1.0835274426705174E9 ; 9.066424921501325E8 ; 1.704228521985578E10 ; 0.0
23 ; 4.376849667482295E7 ; 1.125213605263891E9 ; 9.503563896984382E8 ; 1.81258126625263E10 ; 0.0
24 ; 4.3821836720788345E7 ; 1.168753076578922E9 ; 9.941248863732611E8 ; 1.9251026267790188E10 ; 0.0
25 ; 4.387290001863104E7 ; 1.206274079952622E9 ; 1.0379467230940495E9 ; 2.041977934436911E10 ; 0.0
26 ; 4.39244486068239E7 ; 1.206297879268126E9 ; 1.0818196231126804E9 ; 2.162605342432173E10 ; 0.0
27 ; 4.397677369145052E7 ; 1.2063230662032955E9 ; 1.1257440717195044E9 ; 2.283235130358986E10 ; 0.0
28 ; 4.402503078556025E7 ; 1.2063496158107913E9 ; 1.169720845410955E9 ; 2.4038674369793156E10 ; 0.0
29 ; 4.407823639254357E7 ; 1.2063775023764286E9 ; 1.213745876196515E9 ; 2.5245023985603947E10 ; 0.0
30 ; 4.413162632054874E7 ; 1.2064066995167513E9 ; 1.2578241125890586E9 ; 2.6451401487980377E10 ; 0.0
31 ; 4.417583417312045E7 ; 1.2064371802746096E9 ; 1.3019557389096074E9 ; 2.7657808187497128E10 ; 0.0
32 ; 4.422714412685313E7 ; 1.2064689172121425E9 ; 1.346131573082728E9 ; 2.8864245367771736E10 ; 0.0
33 ; 4.427423440408551E7 ; 1.2065018825006213E9 ; 1.3903587172095811E9 ; 3.007071428498388E10 ; 0.0
34 ; 4.4317170643313296E7 ; 1.206536048006712E9 ; 1.4346329516136665E9 ; 3.12772161674845E10 ; 0.0
35 ; 4.436338605918598E7 ; 1.2065713853747725E9 ; 1.47895012225698E9 ; 3.248375221549121E10 ; 0.0
36 ; 4.440325901748461E7 ; 1.206607866104889E9 ; 1.523313508316166E9 ; 3.3690323600865982E10 ; 0.0
37 ; 4.444392275185549E7 ; 1.2066454616264234E9 ; 1.5677167673336506E9 ; 3.489693146697087E10 ; 0.0
38 ; 4.448550408134925E7 ; 1.2066841433669055E9 ; 1.612160690085506E9 ; 3.61035769285973E10 ; 0.0
39 ; 4.452006699749489E7 ; 1.2067238828161783E9 ; 1.6566461941668553E9 ; 3.73102610719642E10 ; 0.0
40 ; 4.456802393282367E7 ; 1.20676465158575E9 ; 1.7011662611643503E9 ; 3.851698495478038E10 ; 0.0
41 ; 4.459958394100445E7 ; 1.206806421463367E9 ; 1.745734285097174E9 ; 3.972374960636613E10 ; 0.0
42 ; 4.463206212509798E7 ; 1.2068491644628599E9 ; 1.7903338690381784E9 ; 4.093055602782949E10 ; 0.0
43 ; 4.466376355617397E7 ; 1.206892852869359E9 ; 1.8349659311632764E9 ; 4.213740519229235E10 ; 0.0
44 ; 4.469209574375455E7 ; 1.206937459280009E9 ; 1.8796296947194505E9 ; 4.334429804516171E10 ; 0.0
45 ; 4.472195985865624E7 ; 1.206982956640333E9 ; 1.924321790463205E9 ; 4.455123550444172E10 ; 0.0
46 ; 4.4753384263637036E7 ; 1.2070293182764323E9 ; 1.9690437503218613E9 ; 4.5758218461082054E10 ; 0.0
47 ; 4.477236879527016E7 ; 1.2070765179232092E9 ; 2.0137971345854983E9 ; 4.696524777935849E10 ; 0.0
48 ; 4.478947954846564E7 ; 1.2071245297488303E9 ; 2.0585695033807685E9 ; 4.81723242972817E10 ; 0.0
49 ; 4.481141353740775E7 ; 1.20717332837564E9 ; 2.1033589829292343E9 ; 4.937944882703053E10 ; 0.0
50 ; 4.482930095865089E7 ; 1.2072228888977509E9 ; 2.148170396466642E9 ; 5.058662215540617E10 ; 0.0
51 ; 4.484448217956267E7 ; 1.2072731868955395E9 ; 2.192999697425293E9 ; 5.1793845044303925E10 ; 0.0
52 ; 4.4867386331515886E7 ; 1.2073241984472618E9 ; 2.2378441796048555E9 ; 5.300111823119946E10 ; 0.0
53 ; 4.4877155177279174E7 ; 1.2073759001380203E9 ; 2.2827115659363713E9 ; 5.420844242964673E10 ; 0.0
54 ; 4.489691620891468E7 ; 1.207428269066295E9 ; 2.3275887211136503E9 ; 5.541581832978475E10 ; 0.0
55 ; 4.4917057265835024E7 ; 1.2074812828482416E9 ; 2.372485637322565E9 ; 5.662324659885104E10 ; 0.0
56 ; 4.492029295785985E7 ; 1.2075349196199718E9 ; 2.4174026945884E9 ; 5.783072788169929E10 ; 0.0
57 ; 4.494448549931521E7 ; 1.2075891580379953E9 ; 2.46232298754626E9 ; 5.903826280131926E10 ; 0.0
58 ; 4.495426073290213E7 ; 1.2076439772780156E9 ; 2.507267473045575E9 ; 6.0245851959357254E10 ; 0.0
59 ; 4.497178499720337E7 ; 1.207699357032249E9 ; 2.552221733778477E9 ; 6.145349593663527E10 ; 0.0
60 ; 4.497928928981187E7 ; 1.2077552775054321E9 ; 2.5971935187756805E9 ; 6.266119529366752E10 ; 0.0
61 ; 4.500239096087308E7 ; 1.2078117194096665E9 ; 2.6421728080654926E9 ; 6.386895057117295E10 ; 0.0
62 ; 4.50096739709318E7 ; 1.2078686639582477E9 ; 2.6871751990263658E9 ; 6.507676229058262E10 ; 0.0
63 ; 4.501992064150228E7 ; 1.2079260928586059E9 ; 2.732184872997298E9 ; 6.628463095454086E10 ; 0.0
64 ; 4.503724735639874E7 ; 1.2079839883044841E9 ; 2.7772047936388E9 ; 6.749255704739947E10 ; 0.0
65 ; 4.504389771646814E7 ; 1.2080423329674606E9 ; 2.8222420409951987E9 ; 6.870054103570395E10 ; 0.0
66 ; 4.505993335878592E7 ; 1.2081011099879258E9 ; 2.867285938711667E9 ; 6.990858336867142E10 ; 0.0
67 ; 4.5068381669412985E7 ; 1.2081603029655972E9 ; 2.912345872070453E9 ; 7.111668447865935E10 ; 0.0
68 ; 4.507849530586153E7 ; 1.208219895949671E9 ; 2.9574142537398663E9 ; 7.232484478162494E10 ; 0.0
69 ; 4.508934850958267E7 ; 1.2082798734286728E9 ; 3.0024927490457277E9 ; 7.353306467757462E10 ; 0.0
70 ; 4.510083444171424E7 ; 1.2083402203200905E9 ; 3.0475820975553102E9 ; 7.47413445510033E10 ; 0.0
71 ; 4.510702870970949E7 ; 1.2084009219598422E9 ; 3.0926829319970245E9 ; 7.594968477132338E10 ; 0.0
72 ; 4.5117777143313915E7 ; 1.208461964091642E9 ; 3.137789960706734E9 ; 7.715808569328322E10 ; 0.0
73 ; 4.5126479294681236E7 ; 1.2085233328563106E9 ; 3.182907737850048E9 ; 7.836654765737486E10 ; 0.0
74 ; 4.513641770440709E7 ; 1.2085850147810757E9 ; 3.228034217144729E9 ; 7.957507099023117E10 ; 0.0
75 ; 4.513611234897688E7 ; 1.2086469967689004E9 ; 3.2731706348491364E9 ; 8.078365600501225E10 ; 0.0
76 ; 4.5150929701871954E7 ; 1.2087092660878792E9 ; 3.3183067471981134E9 ; 8.199230300178116E10 ; 0.0
77 ; 4.516520508131328E7 ; 1.2087718103607225E9 ; 3.3634576768999853E9 ; 8.320101226786903E10 ; 0.0
78 ; 4.515422607386835E7 ; 1.2088346175543675E9 ; 3.4086228819812984E9 ; 8.440978407822975E10 ; 0.0
79 ; 4.514525948394268E7 ; 1.208897675969726E9 ; 3.4537771080551667E9 ; 8.561861869578412E10 ; 0.0
80 ; 4.5144758090275146E7 ; 1.2089609742315989E9 ; 3.498922367539109E9 ; 8.682751637175385E10 ; 0.0
81 ; 4.513187122290329E7 ; 1.2090245012787664E9 ; 3.5440671256293845E9 ; 8.803647734598544E10 ; 0.0
82 ; 4.512172463565332E7 ; 1.2090882463542721E9 ; 3.589198996852288E9 ; 8.92455018472642E10 ; 0.0
83 ; 4.511417959231817E7 ; 1.2091521989959078E9 ; 3.6343207214879413E9 ; 9.045459009361848E10 ; 0.0
84 ; 4.510866072076338E7 ; 1.2092163490269136E9 ; 3.6794349010802593E9 ; 9.16637422926144E10 ; 0.0
85 ; 4.509815855424851E7 ; 1.2092806865468946E9 ; 3.7245435618010225E9 ; 9.287295864164131E10 ; 0.0
86 ; 4.5094063750045836E7 ; 1.209345201922964E9 ; 3.769641720355271E9 ; 9.40822393281882E10 ; 0.0
87 ; 4.508494251856587E7 ; 1.2094098857811143E9 ; 3.8147357841053166E9 ; 9.529158453011116E10 ; 0.0
88 ; 4.50707279556656E7 ; 1.2094747289978192E9 ; 3.8598207266238823E9 ; 9.650099441589227E10 ; 0.0
89 ; 4.506178155129902E7 ; 1.209539722691867E9 ; 3.904891454579548E9 ; 9.771046914489009E10 ; 0.0
90 ; 4.505786946915811E7 ; 1.2096048582164288E9 ; 3.949953236130847E9 ; 9.892000886758195E10 ; 0.0
91 ; 4.504437715379022E7 ; 1.2096701271513548E9 ; 3.995011105600005E9 ; 1.0012961372579839E11 ; 0.0
92 ; 4.502944939371665E7 ; 1.2097355212957048E9 ; 4.040055482753795E9 ; 1.0133928385294974E11 ; 0.0
93 ; 4.502443299489083E7 ; 1.2098010326605022E9 ; 4.085084932147512E9 ; 1.0254901937424544E11 ; 0.0
94 ; 4.500874391975123E7 ; 1.2098666534617171E9 ; 4.1301093651424026E9 ; 1.0375882040690594E11 ; 0.0
95 ; 4.5002009744029835E7 ; 1.2099323761134691E9 ; 4.175118109062154E9 ; 1.0496868706036766E11 ; 0.0
96 ; 4.498940488024569E7 ; 1.2099981932214475E9 ; 4.220120118806184E9 ; 1.0617861943648112E11 ; 0.0
97 ; 4.497335650838653E7 ; 1.2100640975765474E9 ; 4.2651095236864295E9 ; 1.0738861762970258E11 ; 0.0
98 ; 4.4957313158769034E7 ; 1.2101300821487143E9 ; 4.310082880194816E9 ; 1.0859868172727913E11 ; 0.0
99 ; 4.495002646706473E7 ; 1.2101961400809922E9 ; 4.355040193353584E9 ; 1.0980881180942784E11 ; 0.0
100 ; 4.492460543052825E7 ; 1.210262264683775E9 ; 4.399990219820649E9 ; 1.1101900794950883E11 ; 0.0
101 ; 4.4920837780044615E7 ; 1.2103284494292488E9 ; 4.444914825251178E9 ; 1.1222927021419261E11 ; 0.0
102 ; 4.4905323902506836E7 ; 1.2103946879460275E9 ; 4.489835663031222E9 ; 1.1343959866362186E11 ; 0.0
103 ; 4.488478840139366E7 ; 1.2104609740139725E9 ; 4.534740986933729E9 ; 1.1464999335156789E11 ; 0.0
104 ; 4.4867010443719655E7 ; 1.21052730155919E9 ; 4.579625775335123E9 ; 1.1586045432558186E11 ; 0.0
105 ; 4.485793928776264E7 ; 1.2105936646492054E9 ; 4.624492785778843E9 ; 1.1707098162714105E11 ; 0.0
106 ; 4.4839122916628525E7 ; 1.210660057488305E9 ; 4.669350725066606E9 ; 1.1828157529179025E11 ; 0.0
107 ; 4.4822903898892246E7 ; 1.210726474413043E9 ; 4.714189847983234E9 ; 1.1949223534927856E11 ; 0.0
108 ; 4.4809157103873745E7 ; 1.210792909887906E9 ; 4.759012751882127E9 ; 1.207029618236916E11 ; 0.0
109 ; 4.4788118628028326E7 ; 1.210859358501134E9 ; 4.803821908986001E9 ; 1.2191375473357951E11 ; 0.0
110 ; 4.476829159480241E7 ; 1.2109258149606857E9 ; 4.848610027614029E9 ; 1.2312461409208064E11 ; 0.0
111 ; 4.475138369204989E7 ; 1.2109922740903523E9 ; 4.893378319208832E9 ; 1.2433553990704132E11 ; 0.0
112 ; 4.4733969887077905E7 ; 1.2110587308260093E9 ; 4.938129702900882E9 ; 1.2554653218113167E11 ; 0.0
113 ; 4.471574439541893E7 ; 1.2111251802120001E9 ; 4.98286367278796E9 ; 1.2675759091195767E11 ; 0.0
114 ; 4.469075904810902E7 ; 1.2111916173976533E9 ; 5.027579417183379E9 ; 1.2796871609216968E11 ; 0.0
115 ; 4.4674919937503114E7 ; 1.211258037633922E9 ; 5.072270176231488E9 ; 1.2917990770956734E11 ; 0.0
116 ; 4.464996317064319E7 ; 1.2113244362701468E9 ; 5.116945096168991E9 ; 1.3039116574720126E11 ; 0.0
117 ; 4.463224996752291E7 ; 1.2113908087509336E9 ; 5.161595059339634E9 ; 1.316024901834714E11 ; 0.0
118 ; 4.4618060892740436E7 ; 1.2114571506131444E9 ; 5.206227309307157E9 ; 1.3281388099222234E11 ; 0.0
119 ; 4.4591630846759275E7 ; 1.2115234574829977E9 ; 5.250845370199897E9 ; 1.3402533814283548E11 ; 0.0
120 ; 4.456913208392246E7 ; 1.2115897250732715E9 ; 5.295437001046656E9 ; 1.3523686160031848E11 ; 0.0
121 ; 4.454627252166355E7 ; 1.2116559491806097E9 ; 5.340006133130578E9 ; 1.3644845132539175E11 ; 0.0
122 ; 4.452684984452682E7 ; 1.2117221256829233E9 ; 5.384552405652242E9 ; 1.3766010727457236E11 ; 0.0
123 ; 4.450024654476471E7 ; 1.2117882505368865E9 ; 5.429079255496769E9 ; 1.3887182940025528E11 ; 0.0
124 ; 4.4480955946630895E7 ; 1.211854319775522E9 ; 5.473579502041533E9 ; 1.4008361765079218E11 ; 0.0
125 ; 4.4457930141986564E7 ; 1.2119203295058758E9 ; 5.518060457988164E9 ; 1.412954719705677E11 ; 0.0
126 ; 4.443663021427038E7 ; 1.2119862759067717E9 ; 5.562518388130151E9 ; 1.4250739230007358E11 ; 0.0
127 ; 4.4414553373671465E7 ; 1.2120521552266495E9 ; 5.606955018344421E9 ; 1.4371937857598035E11 ; 0.0
128 ; 4.43834079069882E7 ; 1.2121179637814791E9 ; 5.651369571718093E9 ; 1.44931430731207E11 ; 0.0
129 ; 4.4357961971220724E7 ; 1.2121836979527507E9 ; 5.695752979625081E9 ; 1.461435486949885E11 ; 0.0
130 ; 4.42811261787441E7 ; 1.2122493541855345E9 ; 5.740110941596302E9 ; 1.4735573239294125E11 ; 0.0
131 ; 4.418700371340185E7 ; 1.2123149289866135E9 ; 5.784392067775046E9 ; 1.485679817471268E11 ; 0.0
132 ; 4.409006947043694E7 ; 1.2123804189226785E9 ; 5.828579071488448E9 ; 1.497802966761134E11 ; 0.0
133 ; 4.400075678446647E7 ; 1.2124458206185904E9 ; 5.872669140958885E9 ; 1.5099267709503607E11 ; 0.0
134 ; 4.389644977754128E7 ; 1.2125111307557034E9 ; 5.916669897743352E9 ; 1.5220512291565466E11 ; 0.0
135 ; 4.380492597360916E7 ; 1.2125763460702472E9 ; 5.960566347520893E9 ; 1.5341763404641037E11 ; 0.0
136 ; 4.370614380505538E7 ; 1.2126414633517666E9 ; 6.004371273494502E9 ; 1.5463021039248062E11 ; 0.0
137 ; 4.361147528744449E7 ; 1.2127064794416163E9 ; 6.048077417299558E9 ; 1.558428518558324E11 ; 0.0
138 ; 4.351198568966502E7 ; 1.2127713912315087E9 ; 6.091688892587002E9 ; 1.5705555833527402E11 ; 0.0
139 ; 4.3413578849250585E7 ; 1.2128361956621141E9 ; 6.135200878276667E9 ; 1.5826832972650552E11 ; 0.0
140 ; 4.331680761348119E7 ; 1.2129008897217064E9 ; 6.178614457125917E9 ; 1.5948116592216763E11 ; 0.0
141 ; 4.32180969537031E7 ; 1.2129654704448595E9 ; 6.221931264739399E9 ; 1.6069406681188934E11 ; 0.0
142 ; 4.3123174466927215E7 ; 1.2130299349111896E9 ; 6.265149361693102E9 ; 1.619070322823342E11 ; 0.0
143 ; 4.302403168493891E7 ; 1.2130942802441368E9 ; 6.308272536160029E9 ; 1.631200622172454E11 ; 0.0
144 ; 4.291332638252457E7 ; 1.2131585036097944E9 ; 6.351296567844969E9 ; 1.6433315649748953E11 ; 0.0
145 ; 4.2840029879438974E7 ; 1.2132226022157764E9 ; 6.394209894227493E9 ; 1.6554631500109933E11 ; 0.0
146 ; 4.275614453667684E7 ; 1.213286573310123E9 ; 6.437049924106933E9 ; 1.6675953760331512E11 ; 0.0
147 ; 4.266913311971748E7 ; 1.213350414180245E9 ; 6.479806068643609E9 ; 1.6797282417662524E11 ; 0.0
148 ; 4.259024936941365E7 ; 1.2134141221519065E9 ; 6.522475201763327E9 ; 1.6918617459080548E11 ; 0.0
149 ; 4.250447329907593E7 ; 1.2134776945882373E9 ; 6.56506545113274E9 ; 1.703995887129574E11 ; 0.0
150 ; 4.241981352026131E7 ; 1.213541128888785E9 ; 6.607569924431816E9 ; 1.7161306640754562E11 ; 0.0
151 ; 4.23421324022838E7 ; 1.2136044224885952E9 ; 6.649989737952078E9 ; 1.7282660753643442E11 ; 0.0
152 ; 4.225645898196428E7 ; 1.2136675728573256E9 ; 6.692331870354362E9 ; 1.74040211958923E11 ; 0.0
153 ; 4.216220750726929E7 ; 1.2137305774983878E9 ; 6.734588329336326E9 ; 1.7525387953178033E11 ; 0.0
154 ; 4.208725093893575E7 ; 1.2137934339481196E9 ; 6.776750536843595E9 ; 1.7646761010927872E11 ; 0.0
155 ; 4.200758113337224E7 ; 1.213856139774986E9 ; 6.81883778778253E9 ; 1.7768140354322684E11 ; 0.0
156 ; 4.191659871773427E7 ; 1.2139186925788057E9 ; 6.860845368915902E9 ; 1.7889525968300183E11 ; 0.0
157 ; 4.183979454045236E7 ; 1.2139810899900022E9 ; 6.902761967633636E9 ; 1.8010917837558063E11 ; 0.0
158 ; 4.175387709290226E7 ; 1.2140433296688848E9 ; 6.9446017621740885E9 ; 1.8132315946557062E11 ; 0.0
159 ; 4.1671842464154094E7 ; 1.2141054093049479E9 ; 6.986355639266991E9 ; 1.825372027952395E11 ; 0.0
160 ; 4.1587015460767046E7 ; 1.214167326616198E9 ; 7.028027481731145E9 ; 1.8375130820454446E11 ; 0.0
161 ; 4.150062397162258E7 ; 1.2142290793485003E9 ; 7.069614497191912E9 ; 1.8496547553116068E11 ; 0.0
162 ; 4.141115043753205E7 ; 1.2142906652749474E9 ; 7.111115121163534E9 ; 1.861797046105092E11 ; 0.0
163 ; 4.132533963429811E7 ; 1.214352082195251E9 ; 7.152526271601067E9 ; 1.8739399527578412E11 ; 0.0
164 ; 4.1245032555457875E7 ; 1.214413327935151E9 ; 7.193851611235365E9 ; 1.8860834735797937E11 ; 0.0
165 ; 4.116054665613223E7 ; 1.2144744003458447E9 ; 7.235096643790823E9 ; 1.8982276068591452E11 ; 0.0
166 ; 4.10749650532344E7 ; 1.2145352973034353E9 ; 7.276257190446956E9 ; 1.9103723508626038E11 ; 0.0
167 ; 4.098779369767848E7 ; 1.2145960167083988E9 ; 7.31733215550019E9 ; 1.922517703835638E11 ; 0.0
168 ; 4.0901921672467545E7 ; 1.214656556485066E9 ; 7.358319949197868E9 ; 1.9346636640027222E11 ; 0.0
169 ; 4.081263608184831E7 ; 1.214716914581124E9 ; 7.399221870870336E9 ; 1.946810229567573E11 ; 0.0
170 ; 4.0729256043237366E7 ; 1.2147770889671333E9 ; 7.440034506952184E9 ; 1.958957398713384E11 ; 0.0
171 ; 4.0642827146061264E7 ; 1.2148370776360579E9 ; 7.480763762995421E9 ; 1.9711051696030554E11 ; 0.0
172 ; 4.0560830143378265E7 ; 1.2148968786028142E9 ; 7.521406590141482E9 ; 1.983253540379416E11 ; 0.0
173 ; 4.047464326716338E7 ; 1.2149564899038332E9 ; 7.561967420284861E9 ; 1.995402509165444E11 ; 0.0
174 ; 4.039959554959993E7 ; 1.2150159095966341E9 ; 7.602442063552024E9 ; 2.0075520740644824E11 ; 0.0
175 ; 4.032327361742677E7 ; 1.2150751357594163E9 ; 7.642841659101624E9 ; 2.019702233160449E11 ; 0.0
176 ; 4.024578260409845E7 ; 1.2151341664906597E9 ; 7.68316493271905E9 ; 2.0318529845180432E11 ; 0.0
177 ; 4.0177148837469116E7 ; 1.2151929999087415E9 ; 7.723410715323149E9 ; 2.0440043261829498E11 ; 0.0
178 ; 4.0102835693906054E7 ; 1.215251634151563E9 ; 7.763587864160618E9 ; 2.0561562561820374E11 ; 0.0
179 ; 4.003078794590674E7 ; 1.2153100673761883E9 ; 7.803690699854524E9 ; 2.068308772523553E11 ; 0.0
180 ; 3.995535884910452E7 ; 1.2153682977584949E9 ; 7.84372148780043E9 ; 2.0804618731973148E11 ; 0.0
181 ; 3.98761551815022E7 ; 1.2154263234928367E9 ; 7.883676846649535E9 ; 2.0926155561748996E11 ; 0.0
182 ; 3.9809558096121915E7 ; 1.2154841427917137E9 ; 7.9235530018310375E9 ; 2.104769819409828E11 ; 0.0
183 ; 3.973003515995622E7 ; 1.2155417538854573E9 ; 7.963362559927159E9 ; 2.116924660837745E11 ; 0.0
184 ; 3.9655953035786435E7 ; 1.2155991550219197E9 ; 8.003092595087115E9 ; 2.1290800783765997E11 ; 0.0
185 ; 3.958120625711879E7 ; 1.215656344466179E9 ; 8.042748548122902E9 ; 2.141236069926819E11 ; 0.0
186 ; 3.9511265954486415E7 ; 1.215713320500248E9 ; 8.082329754380021E9 ; 2.1533926333714807E11 ; 0.0
187 ; 3.9431001150490955E7 ; 1.2157700814227955E9 ; 8.121841020334508E9 ; 2.1655497665764832E11 ; 0.0
188 ; 3.9354634462769836E7 ; 1.2158266255488758E9 ; 8.161272021484999E9 ; 2.177707467390711E11 ; 0.0
189 ; 3.9281997531372726E7 ; 1.2158829512096646E9 ; 8.200626655947768E9 ; 2.1898657336462E11 ; 0.0
190 ; 3.92109879177377E7 ; 1.2159390567522058E9 ; 8.239908653479141E9 ; 2.2020245631582965E11 ; 0.0
191 ; 3.913497043642829E7 ; 1.2159949405391638E9 ; 8.279119641396879E9 ; 2.2141839537258185E11 ; 0.0
192 ; 3.906828937873782E7 ; 1.2160506009485855E9 ; 8.318254611833307E9 ; 2.22634390313121E11 ; 0.0
193 ; 3.898502002874423E7 ; 1.216106036373666E9 ; 8.357322901212045E9 ; 2.2385044091406958E11 ; 0.0
194 ; 3.8905462141732275E7 ; 1.2161612452225277E9 ; 8.396307921240789E9 ; 2.2506654695044324E11 ; 0.0
195 ; 3.883243861333896E7 ; 1.2162162259179988E9 ; 8.435213383382522E9 ; 2.2628270819566577E11 ; 0.0
196 ; 3.875975579558487E7 ; 1.2162709768974044E9 ; 8.474045821995861E9 ; 2.2749892442158377E11 ; 0.0
