CSV File for the Network on Day 318
1 - Minute m 
2 - Power Consumed at minute m 
3 - Power Produced at minute m 
4 - Energy Consumed since the beginning of the day 
5 - Energy Produced since the beginning of the day 
6 - Energy Lost since the beginning of the day 
 
0 ; 4594236.91074431 ; 2.1156941896935797E8 ; 0.0 ; 0.0 ; 0.0
1 ; 4597838.839013451 ; 2.118751378076117E8 ; 4594236.91074431 ; 2.1156941896935797E8 ; 356.14
2 ; 4600966.21582441 ; 2.127984418615504E8 ; 9192075.749757761 ; 4.234445567769697E8 ; 712.28
3 ; 4606526.408076795 ; 2.1433933324361306E8 ; 1.3793041965582171E7 ; 6.3624299863852E8 ; 1068.42
4 ; 4611722.910651439 ; 2.1649781383637077E8 ; 1.8399568373658966E7 ; 8.50582331882133E8 ; 1424.56
5 ; 4615816.795896854 ; 2.1927388528572106E8 ; 2.3011291284310404E7 ; 1.0670801457185037E9 ; 1780.6999999999998
6 ; 4619835.729649086 ; 2.226675489948653E8 ; 2.762710808020726E7 ; 1.2863540310042248E9 ; 2136.8399999999997
7 ; 4625307.390266768 ; 2.2667880611912006E8 ; 3.2246943809856344E7 ; 1.5090215799990902E9 ; 2492.9799999999996
8 ; 4627949.959519317 ; 2.3130765756160808E8 ; 3.687225120012311E7 ; 1.7357003861182103E9 ; 2849.1199999999994
9 ; 4633878.641068364 ; 2.3655410396986634E8 ; 4.150020115964243E7 ; 1.9670080436798184E9 ; 3205.2599999999993
10 ; 4637422.2879927745 ; 2.4241814573340112E8 ; 4.613407980071079E7 ; 2.203562147649685E9 ; 3561.399999999999
11 ; 4637473.684702655 ; 2.4889978298221207E8 ; 5.0771502088703565E7 ; 2.445980293383086E9 ; 3917.539999999999
12 ; 4642740.151670359 ; 2.5599901558629948E8 ; 5.540897577340622E7 ; 2.6948800763652983E9 ; 4273.679999999999
13 ; 4646630.847109292 ; 2.6371584315615708E8 ; 6.005171592507658E7 ; 2.9508790919515977E9 ; 4629.82
14 ; 4649384.7765922565 ; 2.720502650442481E8 ; 6.469834677218588E7 ; 3.2145949351077547E9 ; 4985.96
15 ; 4653476.135368559 ; 2.810022803474494E8 ; 6.934773154877813E7 ; 3.486645200152003E9 ; 5342.1
16 ; 4655945.85066383 ; 2.9057188791044486E8 ; 7.400120768414669E7 ; 3.767647480499452E9 ; 5698.240000000001
17 ; 4660217.820517522 ; 3.007590863300328E8 ; 7.865715353481051E7 ; 4.058219368409897E9 ; 6054.380000000001
18 ; 4663298.467705741 ; 3.115638739603158E8 ; 8.331737135532804E7 ; 4.358978454739929E9 ; 6410.520000000001
19 ; 4667558.893881699 ; 3.229862489187228E8 ; 8.798066982303378E7 ; 4.670542328700245E9 ; 6766.660000000002
20 ; 4669881.316056881 ; 3.350262090928147E8 ; 9.264822871691547E7 ; 4.993528577618968E9 ; 7122.800000000002
21 ; 4675053.322343582 ; 3.476837521478156E8 ; 9.731811003297235E7 ; 5.328554786711782E9 ; 7478.940000000002
22 ; 4677894.349244649 ; 3.609588755348073E8 ; 1.0199316335531594E8 ; 5.676238538859598E9 ; 7835.080000000003
23 ; 4679907.420034923 ; 3.748515764995219E8 ; 1.066710577045606E8 ; 6.037197414394405E9 ; 8191.220000000003
24 ; 4683564.458946097 ; 3.893618520916619E8 ; 1.1135096512459552E8 ; 6.412048990893928E9 ; 8547.360000000002
25 ; 4688037.817214602 ; 4.018657809710461E8 ; 1.1603452958354162E8 ; 6.801410842985589E9 ; 8903.500000000002
26 ; 4691798.993115137 ; 4.0187045549156415E8 ; 1.2072256740075622E8 ; 7.203276623956635E9 ; 9259.640000000001
27 ; 4694844.133488048 ; 4.018754107614593E8 ; 1.2541436639387137E8 ; 7.605147079448199E9 ; 9615.78
28 ; 4697431.222487051 ; 4.0188064314758945E8 ; 1.3010921052735941E8 ; 8.007022490209659E9 ; 9971.92
29 ; 4702231.536620605 ; 4.0188614887280405E8 ; 1.3480664174984646E8 ; 8.408903133357248E9 ; 10328.06
30 ; 4703986.25726041 ; 4.01891924026932E8 ; 1.3950887328646708E8 ; 8.810789282230053E9 ; 10684.199999999999
31 ; 4707739.161818249 ; 4.0189796457780504E8 ; 1.442128595437275E8 ; 9.212681206256985E9 ; 11040.339999999998
32 ; 4708492.567281983 ; 4.019042663822538E8 ; 1.4892059870554572E8 ; 9.61457917083479E9 ; 11396.479999999998
33 ; 4712839.6495261965 ; 4.019108251970187E8 ; 1.536290912728277E8 ; 1.0016483437217043E10 ; 11752.619999999997
34 ; 4716077.49187755 ; 4.019176366895195E8 ; 1.5834193092235392E8 ; 1.0418394262414062E10 ; 12108.759999999997
35 ; 4721274.055976421 ; 4.019246964484352E8 ; 1.6305800841423148E8 ; 1.0820311899103582E10 ; 12464.899999999996
36 ; 4722460.531856899 ; 4.0193199999404716E8 ; 1.677792824702079E8 ; 1.1222236595552017E10 ; 12821.039999999995
37 ; 4724983.6038546655 ; 4.0193954278830564E8 ; 1.725017430020648E8 ; 1.1624168595546064E10 ; 13177.179999999995
38 ; 4727405.9664145615 ; 4.019473202445841E8 ; 1.7722672660591945E8 ; 1.202610813833437E10 ; 13533.319999999994
39 ; 4731072.421356933 ; 4.0195532773708916E8 ; 1.8195413257233402E8 ; 1.2428055458578953E10 ; 13889.459999999994
40 ; 4731531.770639848 ; 4.01963560609902E8 ; 1.8668520499369097E8 ; 1.2830010786316042E10 ; 14245.599999999993
41 ; 4735320.0849595945 ; 4.019720141856271E8 ; 1.914167367643308E8 ; 1.3231974346925943E10 ; 14601.739999999993
42 ; 4734601.023811398 ; 4.019806837736336E8 ; 1.961520568492904E8 ; 1.363394636111157E10 ; 14957.879999999992
43 ; 4739092.85317465 ; 4.019895646778745E8 ; 2.008866578731018E8 ; 1.4035927044885204E10 ; 15314.019999999991
44 ; 4739002.276874732 ; 4.019986522042762E8 ; 2.0562575072627646E8 ; 1.4437916609563078E10 ; 15670.15999999999
45 ; 4741736.337960794 ; 4.0200794166769207E8 ; 2.1036475300315118E8 ; 1.4839915261767355E10 ; 16026.29999999999
46 ; 4744438.281056415 ; 4.020174283984189E8 ; 2.1510648934111196E8 ; 1.5241923203435047E10 ; 16382.43999999999
47 ; 4745164.051986852 ; 4.0202710774827737E8 ; 2.1985092762216836E8 ; 1.5643940631833466E10 ; 16738.57999999999
48 ; 4750779.544923189 ; 4.020369750962603E8 ; 2.245960916741552E8 ; 1.6045967739581743E10 ; 17094.71999999999
49 ; 4751190.88476143 ; 4.0204702585375583E8 ; 2.293468712190784E8 ; 1.6448004714678003E10 ; 17450.85999999999
50 ; 4750566.603884432 ; 4.020572554693532E8 ; 2.340980621038398E8 ; 1.685005174053176E10 ; 17806.99999999999
51 ; 4754389.914342917 ; 4.0206765943324345E8 ; 2.3884862870772424E8 ; 1.7252108996001114E10 ; 18163.13999999999
52 ; 4751452.935812243 ; 4.020782332812257E8 ; 2.4360301862206715E8 ; 1.7654176655434357E10 ; 18519.279999999988
53 ; 4755293.086074746 ; 4.020889725983328E8 ; 2.483544715578794E8 ; 1.8056254888715584E10 ; 18875.419999999987
54 ; 4756191.769312729 ; 4.020998730220922E8 ; 2.5310976464395413E8 ; 1.8458343861313915E10 ; 19231.559999999987
55 ; 4756984.208774676 ; 4.0211093024543595E8 ; 2.5786595641326687E8 ; 1.8860443734336006E10 ; 19587.699999999986
56 ; 4760039.146646127 ; 4.0212214001927674E8 ; 2.6262294062204155E8 ; 1.9262554664581444E10 ; 19943.839999999986
57 ; 4761190.643436231 ; 4.021334981547669E8 ; 2.6738297976868767E8 ; 1.966467680460072E10 ; 20299.979999999985
58 ; 4761398.90044139 ; 4.021450005252565E8 ; 2.721441704121239E8 ; 2.0066810302755486E10 ; 20656.119999999984
59 ; 4765290.424015013 ; 4.021566430679672E8 ; 2.769055693125653E8 ; 2.0468955303280743E10 ; 21012.259999999984
60 ; 4765059.523404893 ; 4.0216842178540015E8 ; 2.816708597365803E8 ; 2.087111194634871E10 ; 21368.399999999983
61 ; 4766885.062512313 ; 4.0218033274649334E8 ; 2.864359192599852E8 ; 2.127328036813411E10 ; 21724.539999999983
62 ; 4767729.499419906 ; 4.0219237208754516E8 ; 2.9120280432249755E8 ; 2.1675460700880604E10 ; 22080.679999999982
63 ; 4769570.481365855 ; 4.022045360129206E8 ; 2.959705338219175E8 ; 2.2077653072968147E10 ; 22436.81999999998
64 ; 4771670.803858462 ; 4.0221682079555553E8 ; 3.0074010430328333E8 ; 2.2479857608981068E10 ; 22792.95999999998
65 ; 4771541.092394673 ; 4.022292227772742E8 ; 3.055117751071418E8 ; 2.2882074429776623E10 ; 23149.09999999998
66 ; 4773130.117225815 ; 4.022417383689348E8 ; 3.1028331619953644E8 ; 2.3284303652553898E10 ; 23505.23999999998
67 ; 4774196.108104221 ; 4.0225436405041707E8 ; 3.1505644631676227E8 ; 2.3686545390922832E10 ; 23861.37999999998
68 ; 4779194.040281535 ; 4.022670963704647E8 ; 3.198306424248665E8 ; 2.408879975497325E10 ; 24217.51999999998
69 ; 4777347.579446843 ; 4.022799319463968E8 ; 3.2460983646514803E8 ; 2.4491066851343716E10 ; 24573.659999999978
70 ; 4777065.969204378 ; 4.022928674636995E8 ; 3.293871840445949E8 ; 2.489334678329011E10 ; 24929.799999999977
71 ; 4779275.635211477 ; 4.023058996755087E8 ; 3.3416425001379925E8 ; 2.529563965075381E10 ; 25285.939999999977
72 ; 4780050.963694159 ; 4.023190254019965E8 ; 3.389435256490107E8 ; 2.569794555042932E10 ; 25642.079999999976
73 ; 4781846.4298410835 ; 4.023322415296705E8 ; 3.437235766127049E8 ; 2.6100264575831318E10 ; 25998.219999999976
74 ; 4780899.485337341 ; 4.023455450105948E8 ; 3.48505423042546E8 ; 2.650259681736099E10 ; 26354.359999999975
75 ; 4779934.663236425 ; 4.023589328615438E8 ; 3.532863225278833E8 ; 2.6904942362371582E10 ; 26710.499999999975
76 ; 4783129.233246991 ; 4.023724021630949E8 ; 3.5806625719111973E8 ; 2.7307301295233128E10 ; 27066.639999999974
77 ; 4782287.639414103 ; 4.023859500586694E8 ; 3.628493864243667E8 ; 2.770967369739622E10 ; 27422.779999999973
78 ; 4781060.953502475 ; 4.0239957375352824E8 ; 3.6763167406378084E8 ; 2.811205964745489E10 ; 27778.919999999973
79 ; 4783322.471790265 ; 4.0241327051372945E8 ; 3.724127350172833E8 ; 2.851445922120842E10 ; 28135.059999999972
80 ; 4783949.669969958 ; 4.024270376650534E8 ; 3.771960574890736E8 ; 2.891687249172215E10 ; 28491.19999999997
81 ; 4783846.632700409 ; 4.024408725919017E8 ; 3.8198000715904355E8 ; 2.9319299529387203E10 ; 28847.33999999997
82 ; 4786311.810881046 ; 4.024547727361746E8 ; 3.8676385379174393E8 ; 2.9721740401979103E10 ; 29203.47999999997
83 ; 4786509.292385059 ; 4.024687355961324E8 ; 3.9155016560262495E8 ; 3.012419517471528E10 ; 29559.61999999997
84 ; 4789363.8944960255 ; 4.024827587252446E8 ; 3.9633667489501E8 ; 3.0526663910311413E10 ; 29915.75999999997
85 ; 4789275.195104039 ; 4.0249683973103094E8 ; 4.01126038789506E8 ; 3.092914666903666E10 ; 30271.89999999997
86 ; 4789445.613133235 ; 4.025109762738986E8 ; 4.059153139846101E8 ; 3.133164350876769E10 ; 30628.039999999968
87 ; 4790076.391240492 ; 4.0252516606597733E8 ; 4.1070475959774333E8 ; 3.1734154485041588E10 ; 30984.179999999968
88 ; 4790267.40396344 ; 4.0253940686995775E8 ; 4.154948359889838E8 ; 3.2136679651107567E10 ; 31340.319999999967
89 ; 4790088.93989328 ; 4.025536964979328E8 ; 4.2028510339294726E8 ; 3.2539219057977524E10 ; 31696.459999999966
90 ; 4790242.2647714475 ; 4.0256803281024754E8 ; 4.2507519233284056E8 ; 3.2941772754475456E10 ; 32052.599999999966
91 ; 4792101.497098673 ; 4.025824137143569E8 ; 4.29865434597612E8 ; 3.3344340787285706E10 ; 32408.739999999965
92 ; 4790110.0891405605 ; 4.025968371636951E8 ; 4.346575360947107E8 ; 3.374692320100006E10 ; 32764.879999999965
93 ; 4791666.789305105 ; 4.0261130115655756E8 ; 4.3944764618385124E8 ; 3.4149520038163757E10 ; 33121.01999999997
94 ; 4794529.616352398 ; 4.026258037349969E8 ; 4.4423931297315633E8 ; 3.455213133932031E10 ; 33477.15999999997
95 ; 4791985.309875692 ; 4.026403429837346E8 ; 4.490338425895087E8 ; 3.495475714305531E10 ; 33833.29999999997
96 ; 4791763.9235927705 ; 4.026549170290888E8 ; 4.538258278993844E8 ; 3.535739748603905E10 ; 34189.439999999966
97 ; 4789812.0594823845 ; 4.0266952403792E8 ; 4.586175918229771E8 ; 3.576005240306814E10 ; 34545.579999999965
98 ; 4789477.36919606 ; 4.0268416221659493E8 ; 4.634074038824595E8 ; 3.616272192710606E10 ; 34901.719999999965
99 ; 4789828.25167853 ; 4.026988298099696E8 ; 4.681968812516556E8 ; 3.6565406089322655E10 ; 35257.859999999964
100 ; 4791207.535960563 ; 4.027135251003914E8 ; 4.729867095033341E8 ; 3.696810491913262E10 ; 35613.99999999996
101 ; 4790755.0268858755 ; 4.0272824640672183E8 ; 4.7777791703929466E8 ; 3.737081844423302E10 ; 35970.13999999996
102 ; 4790767.510959177 ; 4.027429920833793E8 ; 4.825686720661805E8 ; 3.777354669063974E10 ; 36326.27999999996
103 ; 4791458.418057306 ; 4.027577605194025E8 ; 4.873594395771397E8 ; 3.817628968272312E10 ; 36682.41999999996
104 ; 4791497.115497996 ; 4.027725501375344E8 ; 4.92150897995197E8 ; 3.857904744324252E10 ; 37038.55999999996
105 ; 4791697.056749844 ; 4.027873593933277E8 ; 4.96942395110695E8 ; 3.898181999338006E10 ; 37394.69999999996
106 ; 4791094.063559177 ; 4.028021867742707E8 ; 5.017340921674448E8 ; 3.9384607352773384E10 ; 37750.83999999996
107 ; 4790152.718346147 ; 4.028170307989341E8 ; 5.06525186231004E8 ; 3.978740953954765E10 ; 38106.97999999996
108 ; 4788204.725262447 ; 4.028318900161388E8 ; 5.113153389493501E8 ; 4.019022657034659E10 ; 38463.11999999996
109 ; 4787668.979206457 ; 4.0284676300414443E8 ; 5.161035436746126E8 ; 4.0593058460362724E10 ; 38819.25999999996
110 ; 4789701.204961625 ; 4.0286164836985815E8 ; 5.20891212653819E8 ; 4.099590522336687E10 ; 39175.39999999996
111 ; 4789940.040881837 ; 4.028765447480639E8 ; 5.256809138587806E8 ; 4.1398766871736725E10 ; 39531.53999999996
112 ; 4790822.135553871 ; 4.0289145080067223E8 ; 5.3047085389966244E8 ; 4.180164341648479E10 ; 39887.67999999996
113 ; 4785929.707986282 ; 4.0290636521598864E8 ; 5.3526167603521633E8 ; 4.220453486728546E10 ; 40243.819999999956
114 ; 4789910.664299527 ; 4.029212867080031E8 ; 5.400476057432026E8 ; 4.260744123250145E10 ; 40599.959999999955
115 ; 4785698.644193537 ; 4.029362140156976E8 ; 5.44837516407502E8 ; 4.301036251920945E10 ; 40956.099999999955
116 ; 4786896.388003686 ; 4.0295114590237314E8 ; 5.496232150516956E8 ; 4.341329873322515E10 ; 41312.239999999954
117 ; 4785046.917658315 ; 4.029660811549951E8 ; 5.544101114396993E8 ; 4.3816249879127525E10 ; 41668.379999999954
118 ; 4785138.60913833 ; 4.029810185835568E8 ; 5.591951583573576E8 ; 4.4219215960282524E10 ; 42024.51999999995
119 ; 4785748.781763411 ; 4.029959570204611E8 ; 5.63980296966496E8 ; 4.462219697886608E10 ; 42380.65999999995
120 ; 4784717.494395265 ; 4.0301089531991947E8 ; 5.687660457482594E8 ; 4.502519293588654E10 ; 42736.79999999995
121 ; 4782848.602448256 ; 4.030258323573674E8 ; 5.735507632426547E8 ; 4.542820383120646E10 ; 43092.93999999995
122 ; 4781735.401550716 ; 4.0304076702889794E8 ; 5.783336118451029E8 ; 4.583122966356383E10 ; 43449.07999999995
123 ; 4782263.239567195 ; 4.0305569825071E8 ; 5.831153472466537E8 ; 4.623427043059273E10 ; 43805.21999999995
124 ; 4778507.342970834 ; 4.0307062495857394E8 ; 5.878976104862208E8 ; 4.663732612884344E10 ; 44161.35999999995
125 ; 4775471.668544724 ; 4.030855461073117E8 ; 5.926761178291917E8 ; 4.704039675380201E10 ; 44517.49999999995
126 ; 4775070.836082082 ; 4.031004606702926E8 ; 5.974515894977365E8 ; 4.7443482299909325E10 ; 44873.63999999995
127 ; 4771711.83000468 ; 4.031153676389439E8 ; 6.022266603338186E8 ; 4.784658276057962E10 ; 45229.77999999995
128 ; 4771633.931863563 ; 4.031302660222756E8 ; 6.069983721638232E8 ; 4.824969812821857E10 ; 45585.91999999995
129 ; 4769517.20028064 ; 4.0314515484641933E8 ; 6.117700060956868E8 ; 4.8652828394240845E10 ; 45942.05999999995
130 ; 4763994.960598061 ; 4.031600331541809E8 ; 6.165395232959675E8 ; 4.9055973549087265E10 ; 46298.199999999946
131 ; 4754407.862450628 ; 4.03174900004606E8 ; 6.213035182565656E8 ; 4.945913358224145E10 ; 46654.339999999946
132 ; 4747691.303640308 ; 4.031897544725592E8 ; 6.260579261190162E8 ; 4.9862308482246056E10 ; 47010.479999999945
133 ; 4738208.305554523 ; 4.0320459564831495E8 ; 6.308056174226565E8 ; 5.026549823671861E10 ; 47366.619999999944
134 ; 4731864.1992471125 ; 4.0321942263716114E8 ; 6.35543825728211E8 ; 5.066870283236693E10 ; 47722.759999999944
135 ; 4724199.107017737 ; 4.032342345590147E8 ; 6.402756899274582E8 ; 5.107192225500409E10 ; 48078.89999999994
136 ; 4716308.056869026 ; 4.0324903054804814E8 ; 6.449998890344759E8 ; 5.14751564895631E10 ; 48435.03999999994
137 ; 4708271.97057682 ; 4.032638097523277E8 ; 6.49716197091345E8 ; 5.187840552011115E10 ; 48791.17999999994
138 ; 4702000.773005895 ; 4.032785713334625E8 ; 6.544244690619217E8 ; 5.228166932986348E10 ; 49147.31999999994
139 ; 4692941.503867727 ; 4.0329331446626383E8 ; 6.591264698349276E8 ; 5.2684947901196945E10 ; 49503.45999999994
140 ; 4684017.695726691 ; 4.0330803833841497E8 ; 6.638194113387953E8 ; 5.308824121566321E10 ; 49859.59999999994
141 ; 4676568.720092648 ; 4.033227421501508E8 ; 6.685034290345219E8 ; 5.3491549254001625E10 ; 50215.73999999994
142 ; 4669321.845906569 ; 4.0333742511394703E8 ; 6.731799977546146E8 ; 5.389487199615178E10 ; 50571.87999999994
143 ; 4660241.911759747 ; 4.033520864542191E8 ; 6.778493196005212E8 ; 5.4298209421265724E10 ; 50928.01999999994
144 ; 4653195.3566729305 ; 4.0336672540703E8 ; 6.82509561512281E8 ; 5.470156150771994E10 ; 51284.15999999994
145 ; 4646758.668918326 ; 4.033813412198062E8 ; 6.871627568689538E8 ; 5.510492823312697E10 ; 51640.29999999994
146 ; 4637747.205017427 ; 4.0339593315106344E8 ; 6.918095155378722E8 ; 5.550830957434677E10 ; 51996.43999999994
147 ; 4634812.464972681 ; 4.0341050047013974E8 ; 6.964472627428896E8 ; 5.591170550749783E10 ; 52352.579999999936
148 ; 4627078.197177396 ; 4.0342504245693684E8 ; 7.010820752078624E8 ; 5.631511600796797E10 ; 52708.719999999936
149 ; 4620837.829267967 ; 4.034395584016694E8 ; 7.057091534050398E8 ; 5.671854105042491E10 ; 53064.859999999935
150 ; 4615065.723573517 ; 4.034540476046214E8 ; 7.103299912343078E8 ; 5.7121980608826584E10 ; 53420.999999999935
151 ; 4608730.479868886 ; 4.0346850937591094E8 ; 7.149450569578813E8 ; 5.7525434656431206E10 ; 53777.139999999934
152 ; 4602083.954446331 ; 4.034829430352603E8 ; 7.195537874377502E8 ; 5.792890316580711E10 ; 54133.27999999993
153 ; 4594815.192842427 ; 4.0349734791177475E8 ; 7.241558713921965E8 ; 5.833238610884238E10 ; 54489.41999999993
154 ; 4590295.2305279495 ; 4.0351172334372675E8 ; 7.28750686585039E8 ; 5.873588345675415E10 ; 54845.55999999993
155 ; 4584461.01796419 ; 4.0352606867834693E8 ; 7.33340981815567E8 ; 5.913939518009788E10 ; 55201.69999999993
156 ; 4578856.991539069 ; 4.035403832716219E8 ; 7.379254428335313E8 ; 5.954292124877622E10 ; 55557.83999999993
157 ; 4571496.755711604 ; 4.035546664880971E8 ; 7.425042998250704E8 ; 5.9946461632047844E10 ; 55913.97999999993
158 ; 4566518.592164684 ; 4.035689177006862E8 ; 7.470757965807819E8 ; 6.035001629853594E10 ; 56270.11999999993
159 ; 4558752.426551921 ; 4.035831362904865E8 ; 7.516423151729466E8 ; 6.0753585216236626E10 ; 56626.25999999993
160 ; 4553863.892115714 ; 4.0359732164659846E8 ; 7.562010675994985E8 ; 6.1157168352527115E10 ; 56982.39999999993
161 ; 4546753.276866667 ; 4.036114731659524E8 ; 7.607549314916142E8 ; 6.156076567417371E10 ; 57338.53999999993
162 ; 4538364.375293939 ; 4.036255902531387E8 ; 7.653016847684809E8 ; 6.196437714733967E10 ; 57694.67999999993
163 ; 4533453.195496195 ; 4.0363967232024443E8 ; 7.698400491437749E8 ; 6.2368002737592804E10 ; 58050.81999999993
164 ; 4526536.083163764 ; 4.0365371878669375E8 ; 7.743735023392711E8 ; 6.277164240991305E10 ; 58406.95999999993
165 ; 4520172.260377975 ; 4.036677290790936E8 ; 7.789000384224348E8 ; 6.3175296128699745E10 ; 58763.099999999926
166 ; 4514074.753095599 ; 4.036817026310836E8 ; 7.834202106828128E8 ; 6.357896385777884E10 ; 59119.239999999925
167 ; 4506886.063448197 ; 4.036956388831911E8 ; 7.879342854359084E8 ; 6.398264556040992E10 ; 59475.379999999925
168 ; 4498931.263687152 ; 4.037095372826894E8 ; 7.924411714993566E8 ; 6.438634119929311E10 ; 59831.519999999924
169 ; 4490494.666220128 ; 4.0372339728346086E8 ; 7.969401027630438E8 ; 6.4790050736575806E10 ; 60187.65999999992
170 ; 4486452.561284567 ; 4.037372183458642E8 ; 8.014305974292638E8 ; 6.519377413385927E10 ; 60543.79999999992
171 ; 4478837.124427202 ; 4.0375099993660486E8 ; 8.059170499905484E8 ; 6.559751135220513E10 ; 60899.93999999992
172 ; 4471304.818830821 ; 4.037647415286102E8 ; 8.103958871149756E8 ; 6.600126235214174E10 ; 61256.07999999992
173 ; 4465305.909639049 ; 4.0377844260090727E8 ; 8.148671919338064E8 ; 6.640502709367035E10 ; 61612.21999999992
174 ; 4461177.04033944 ; 4.037921026385051E8 ; 8.193324978434454E8 ; 6.6808805536271255E10 ; 61968.35999999992
175 ; 4455647.877038817 ; 4.0379964386E8 ; 8.237936748837849E8 ; 6.721259763890976E10 ; 62324.49999999992
176 ; 4450938.530005515 ; 4.0379964386E8 ; 8.282493227608237E8 ; 6.761639728276976E10 ; 62680.63999999992
177 ; 4447689.70253372 ; 4.0379964386E8 ; 8.327002612908292E8 ; 6.802019692662976E10 ; 63036.77999999992
