CSV File for the Network on Day 2
1 - Minute m 
2 - Power Consumed at minute m 
3 - Power Produced at minute m 
4 - Energy Consumed since the beginning of the day 
5 - Energy Produced since the beginning of the day 
6 - Energy Lost since the beginning of the day 
 
0 ; 3.84630947344196E7 ; 6.332610892184085E8 ; 0.0 ; 0.0 ; 0.0
1 ; 3.850713408311468E7 ; 6.341680339919508E8 ; 3.84630947344196E7 ; 6.332610892184085E8 ; 0.0
2 ; 3.855259700858832E7 ; 6.369286893965775E8 ; 7.697022881753428E7 ; 1.267429123210359E9 ; 0.0
3 ; 3.858914476059818E7 ; 6.415430993429341E8 ; 1.1552282582612261E8 ; 1.9043578126069365E9 ; 0.0
4 ; 3.864366911216335E7 ; 6.480113039859908E8 ; 1.541119705867208E8 ; 2.5459009119498706E9 ; 0.0
5 ; 3.871625370311715E7 ; 6.563333392481506E8 ; 1.9275563969888413E8 ; 3.1939122159358616E9 ; 0.0
6 ; 3.88076241314191E7 ; 6.665092363732257E8 ; 2.3147189340200126E8 ; 3.8502455551840124E9 ; 0.0
7 ; 3.893790619262769E7 ; 6.785390215234413E8 ; 2.702795175334204E8 ; 4.516754791557238E9 ; 0.0
8 ; 3.912082507093294E7 ; 6.924227154311038E8 ; 3.0921742372604805E8 ; 5.195293813080679E9 ; 0.0
9 ; 3.9410447110708475E7 ; 7.081603331154655E8 ; 3.48338248796981E8 ; 5.887716528511783E9 ; 0.0
10 ; 3.984066729571347E7 ; 7.257518836736687E8 ; 3.8774869590768945E8 ; 6.595876861627248E9 ; 0.0
11 ; 4.0525092279326856E7 ; 7.451973701525027E8 ; 4.2758936320340294E8 ; 7.321628745300917E9 ; 0.0
12 ; 4.163068421340267E7 ; 7.66496789505178E8 ; 4.681144554827298E8 ; 8.06682611545342E9 ; 0.0
13 ; 4.269420201170036E7 ; 7.896501326345525E8 ; 5.097451396961325E8 ; 8.833322904958597E9 ; 0.0
14 ; 4.281924294911146E7 ; 8.14657384521374E8 ; 5.524393417078328E8 ; 9.62297303759315E9 ; 0.0
15 ; 4.287006643542186E7 ; 8.415185244333355E8 ; 5.952585846569443E8 ; 1.0437630422114523E10 ; 0.0
16 ; 4.29213546708518E7 ; 8.702335262082132E8 ; 6.381286510923661E8 ; 1.127914894654786E10 ; 0.0
17 ; 4.29739559287297E7 ; 9.008023586021934E8 ; 6.810500057632179E8 ; 1.2149382472756073E10 ; 0.0
18 ; 4.302178079190108E7 ; 9.332249856928737E8 ; 7.240239616919476E8 ; 1.3050184831358267E10 ; 0.0
19 ; 4.306798822017359E7 ; 9.675013673252842E8 ; 7.670457424838487E8 ; 1.398340981705114E10 ; 0.0
20 ; 4.311571816484684E7 ; 1.0036314595887786E9 ; 8.101137307040223E8 ; 1.4950911184376425E10 ; 0.0
21 ; 4.31684604739796E7 ; 1.0416152153126518E9 ; 8.532294488688691E8 ; 1.5954542643965204E10 ; 0.0
22 ; 4.322471540541768E7 ; 1.0814525845688612E9 ; 8.963979093428487E8 ; 1.6996157859277857E10 ; 0.0
23 ; 4.3272737632658705E7 ; 1.1231435151711664E9 ; 9.396226247482663E8 ; 1.8077610443846718E10 ; 0.0
24 ; 4.331463767652839E7 ; 1.166687953161229E9 ; 9.82895362380925E8 ; 1.9200753959017883E10 ; 0.0
25 ; 4.336781654024197E7 ; 1.204214088662776E9 ; 1.0262100000574534E9 ; 2.036744191217911E10 ; 0.0
26 ; 4.341975685595207E7 ; 1.2042431525405455E9 ; 1.0695778165976954E9 ; 2.157165600084189E10 ; 0.0
27 ; 4.346862419697677E7 ; 1.2042737039548979E9 ; 1.1129975734536474E9 ; 2.2775899153382435E10 ; 0.0
28 ; 4.352000275709456E7 ; 1.2043056862118902E9 ; 1.156466197650624E9 ; 2.3980172857337334E10 ; 0.0
29 ; 4.3558869770991676E7 ; 1.204339042854432E9 ; 1.1999862004077187E9 ; 2.5184478543549225E10 ; 0.0
30 ; 4.3616163025021896E7 ; 1.204373717955454E9 ; 1.2435450701787102E9 ; 2.6388817586403656E10 ; 0.0
31 ; 4.3650031859363034E7 ; 1.204409656372826E9 ; 1.287161233203732E9 ; 2.759319130435911E10 ; 0.0
32 ; 4.370084228706406E7 ; 1.204446803967154E9 ; 1.330811265063095E9 ; 2.8797600960731937E10 ; 0.0
33 ; 4.374181559080508E7 ; 1.2044851077842393E9 ; 1.3745121073501592E9 ; 3.0002047764699093E10 ; 0.0
34 ; 4.3781787360350594E7 ; 1.2045245162044754E9 ; 1.4182539229409642E9 ; 3.1206532872483334E10 ; 0.0
35 ; 4.382092422907419E7 ; 1.2045649790617843E9 ; 1.4620357103013148E9 ; 3.241105738868781E10 ; 0.0
36 ; 4.386993338057436E7 ; 1.204606447734877E9 ; 1.505856634530389E9 ; 3.361562236774959E10 ; 0.0
37 ; 4.390774339967014E7 ; 1.2046488752137222E9 ; 1.5497265679109635E9 ; 3.482022881548447E10 ; 0.0
38 ; 4.393998240391242E7 ; 1.2046922161440582E9 ; 1.5936343113106337E9 ; 3.602487769069819E10 ; 0.0
39 ; 4.397663520359167E7 ; 1.2047364268527315E9 ; 1.637574293714546E9 ; 3.722956990684225E10 ; 0.0
40 ; 4.4014577524403796E7 ; 1.2047814653564749E9 ; 1.6815509289181376E9 ; 3.843430633369498E10 ; 0.0
41 ; 4.404677796722234E7 ; 1.2048272913565898E9 ; 1.7255655064425414E9 ; 3.963908779905145E10 ; 0.0
42 ; 4.407191475004478E7 ; 1.2048738662217782E9 ; 1.7696122844097638E9 ; 4.084391509040804E10 ; 0.0
43 ; 4.410025368124463E7 ; 1.2049211529611742E9 ; 1.8136841991598086E9 ; 4.204878895662982E10 ; 0.0
44 ; 4.412833376096109E7 ; 1.2049691161894088E9 ; 1.8577844528410532E9 ; 4.3253710109590996E10 ; 0.0
45 ; 4.415009582435116E7 ; 1.2050177220853295E9 ; 1.9019127866020143E9 ; 4.44586792257804E10 ; 0.0
46 ; 4.417536767489372E7 ; 1.205066938345811E9 ; 1.9460628824263654E9 ; 4.566369694786573E10 ; 0.0
47 ; 4.4195889383365706E7 ; 1.2051167341358843E9 ; 1.990238250101259E9 ; 4.686876388621154E10 ; 0.0
48 ; 4.420913886652486E7 ; 1.2051670800362673E9 ; 2.0344341394846246E9 ; 4.807388062034743E10 ; 0.0
49 ; 4.4228572754457004E7 ; 1.2052179479891915E9 ; 2.0786432783511496E9 ; 4.92790477003837E10 ; 0.0
50 ; 4.424066023311972E7 ; 1.205269311243305E9 ; 2.1228718511056066E9 ; 5.048426564837289E10 ; 0.0
51 ; 4.4255110483575776E7 ; 1.205321144298286E9 ; 2.167112511338726E9 ; 5.168953495961619E10 ; 0.0
52 ; 4.427156080313511E7 ; 1.205373422849702E9 ; 2.211367621822302E9 ; 5.2894856103914474E10 ; 0.0
53 ; 4.4281356182034284E7 ; 1.2054261237345386E9 ; 2.255639182625437E9 ; 5.4100229526764175E10 ; 0.0
54 ; 4.429670252361016E7 ; 1.205479224877757E9 ; 2.2999205388074713E9 ; 5.530565565049871E10 ; 0.0
55 ; 4.430726533613055E7 ; 1.2055327052401364E9 ; 2.3442172413310814E9 ; 5.6511134875376465E10 ; 0.0
56 ; 4.431629127537854E7 ; 1.2055865447676282E9 ; 2.388524506667212E9 ; 5.77166675806166E10 ; 0.0
57 ; 4.432163265202695E7 ; 1.2056407243423672E9 ; 2.4328407979425907E9 ; 5.892225412538423E10 ; 0.0
58 ; 4.4336365372969404E7 ; 1.2056952257354543E9 ; 2.477162430594618E9 ; 6.01278948497266E10 ; 0.0
59 ; 4.434995858492467E7 ; 1.2057500315615866E9 ; 2.5214987959675875E9 ; 6.133359007546205E10 ; 0.0
60 ; 4.435426992501873E7 ; 1.2058051252355762E9 ; 2.565848754552512E9 ; 6.2539340107023636E10 ; 0.0
61 ; 4.436032634418844E7 ; 1.2058604909307706E9 ; 2.610203024477531E9 ; 6.374514523225921E10 ; 0.0
62 ; 4.4374742401155025E7 ; 1.205916113539377E9 ; 2.654563350821719E9 ; 6.495100572318998E10 ; 0.0
63 ; 4.4377607959903836E7 ; 1.2059719786346617E9 ; 2.698938093222874E9 ; 6.6156921836729355E10 ; 0.0
64 ; 4.438867079747992E7 ; 1.206028072434996E9 ; 2.743315701182778E9 ; 6.736289381536401E10 ; 0.0
65 ; 4.439431344529175E7 ; 1.2060843817697E9 ; 2.787704371980258E9 ; 6.856892188779901E10 ; 0.0
66 ; 4.439990208581221E7 ; 1.2061408940466318E9 ; 2.8320986854255495E9 ; 6.977500626956871E10 ; 0.0
67 ; 4.4408870492212534E7 ; 1.2061975972214646E9 ; 2.8764985875113616E9 ; 7.098114716361534E10 ; 0.0
68 ; 4.441653676200857E7 ; 1.2062544797685833E9 ; 2.9209074580035744E9 ; 7.21873447608368E10 ; 0.0
69 ; 4.442107241142939E7 ; 1.206311530653546E9 ; 2.965323994765583E9 ; 7.33935992406054E10 ; 0.0
70 ; 4.443217876670331E7 ; 1.2063687393070295E9 ; 3.0097450671770124E9 ; 7.459991077125894E10 ; 0.0
71 ; 4.442660206613904E7 ; 1.2064260956002004E9 ; 3.0541772459437156E9 ; 7.580627951056596E10 ; 0.0
72 ; 4.443311321811356E7 ; 1.2064835898214433E9 ; 3.098603848009855E9 ; 7.701270560616617E10 ; 0.0
73 ; 4.443988956821529E7 ; 1.2065412126543741E9 ; 3.143036961227968E9 ; 7.821918919598761E10 ; 0.0
74 ; 4.44372834562489E7 ; 1.2065989551570807E9 ; 3.1874768507961836E9 ; 7.942573040864198E10 ; 0.0
75 ; 4.444421077974063E7 ; 1.20665680874252E9 ; 3.2319141342524323E9 ; 8.063232936379906E10 ; 0.0
76 ; 4.444509530627641E7 ; 1.2067147651600182E9 ; 3.276358345032173E9 ; 8.183898617254158E10 ; 0.0
77 ; 4.444652293497526E7 ; 1.2067728164778047E9 ; 3.3208034403384495E9 ; 8.30457009377016E10 ; 0.0
78 ; 4.4438977021176204E7 ; 1.2068309550665321E9 ; 3.3652499632734246E9 ; 8.42524737541794E10 ; 0.0
79 ; 4.44201729717444E7 ; 1.2068891735837226E9 ; 3.409688940294601E9 ; 8.545930470924593E10 ; 0.0
80 ; 4.441127959523928E7 ; 1.2069474649590902E9 ; 3.4541091132663455E9 ; 8.666619388282965E10 ; 0.0
81 ; 4.440488860009765E7 ; 1.2070058223806872E9 ; 3.4985203928615847E9 ; 8.787314134778874E10 ; 0.0
82 ; 4.438571576128768E7 ; 1.2070642392818308E9 ; 3.5429252814616823E9 ; 8.908014717016943E10 ; 0.0
83 ; 4.43781261448614E7 ; 1.207122709328763E9 ; 3.58731099722297E9 ; 9.028721140945126E10 ; 0.0
84 ; 4.436310359123388E7 ; 1.2071812264090009E9 ; 3.631689123367831E9 ; 9.149433411878003E10 ; 0.0
85 ; 4.434736666549443E7 ; 1.2072397846203399E9 ; 3.676052226959065E9 ; 9.270151534518903E10 ; 0.0
86 ; 4.433079955694748E7 ; 1.207298378260467E9 ; 3.7203995936245594E9 ; 9.390875512980937E10 ; 0.0
87 ; 4.4320443739128835E7 ; 1.2073570018171558E9 ; 3.764730393181507E9 ; 9.511605350806984E10 ; 0.0
88 ; 4.4306632835026234E7 ; 1.207415649959E9 ; 3.809050836920636E9 ; 9.6323410509887E10 ; 0.0
89 ; 4.4290402040173575E7 ; 1.2074743175266619E9 ; 3.8533574697556624E9 ; 9.7530826159846E10 ; 0.0
90 ; 4.427208296627837E7 ; 1.2075329995246007E9 ; 3.897647871795836E9 ; 9.873830047737265E10 ; 0.0
91 ; 4.425543399381766E7 ; 1.2075916911132565E9 ; 3.9419199547621145E9 ; 9.994583347689725E10 ; 0.0
92 ; 4.4237609847489595E7 ; 1.2076503876016572E9 ; 3.9861753887559323E9 ; 1.011534251680105E11 ; 0.0
93 ; 4.422452817316873E7 ; 1.2077090844404306E9 ; 4.030412998603422E9 ; 1.0236107555561215E11 ; 0.0
94 ; 4.4197406927525975E7 ; 1.2077677772151933E9 ; 4.074637526776591E9 ; 1.0356878464005258E11 ; 0.0
95 ; 4.418555699243826E7 ; 1.2078264616402955E9 ; 4.118834933704117E9 ; 1.0477655241726778E11 ; 0.0
96 ; 4.416843073736798E7 ; 1.2078851335529013E9 ; 4.163020490696555E9 ; 1.0598437887890807E11 ; 0.0
97 ; 4.414969920995219E7 ; 1.2079437889073865E9 ; 4.2071889214339232E9 ; 1.0719226401246097E11 ; 0.0
98 ; 4.413245305242435E7 ; 1.208002423770031E9 ; 4.2513386206438756E9 ; 1.0840020780136835E11 ; 0.0
99 ; 4.410358938863382E7 ; 1.2080610343139937E9 ; 4.2954710736963E9 ; 1.0960821022513838E11 ; 0.0
100 ; 4.409034490048604E7 ; 1.2081196168145518E9 ; 4.339574663084933E9 ; 1.1081627125945238E11 ; 0.0
101 ; 4.4064472986572616E7 ; 1.2081781676445875E9 ; 4.383665007985419E9 ; 1.1202439087626692E11 ; 0.0
102 ; 4.405116689913056E7 ; 1.2082366832703106E9 ; 4.427729480971992E9 ; 1.1323256904391151E11 ; 0.0
103 ; 4.403004329921238E7 ; 1.2082951602472024E9 ; 4.471780647871122E9 ; 1.1444080572718182E11 ; 0.0
104 ; 4.400822391687462E7 ; 1.208353595216168E9 ; 4.515810691170335E9 ; 1.1564910088742903E11 ; 0.0
105 ; 4.397844979339282E7 ; 1.2084119848998854E9 ; 4.55981891508721E9 ; 1.168574544826452E11 ; 0.0
106 ; 4.3959688495871074E7 ; 1.2084703260993426E9 ; 4.603797364880603E9 ; 1.1806586646754509E11 ; 0.0
107 ; 4.3930346231791005E7 ; 1.2085286156905458E9 ; 4.647757053376474E9 ; 1.1927433679364444E11 ; 0.0
108 ; 4.390882378048077E7 ; 1.2085868506213982E9 ; 4.691687399608265E9 ; 1.2048286540933499E11 ; 0.0
109 ; 4.3891211614417195E7 ; 1.2086450279087315E9 ; 4.735596223388745E9 ; 1.2169145225995639E11 ; 0.0
110 ; 4.3866194625771105E7 ; 1.2087031446354866E9 ; 4.779487435003162E9 ; 1.2290009728786513E11 ; 0.0
111 ; 4.383422173853511E7 ; 1.2087611979480357E9 ; 4.823353629628934E9 ; 1.2410880043250061E11 ; 0.0
112 ; 4.381357311250311E7 ; 1.2088191850536318E9 ; 4.867187851367469E9 ; 1.2531756163044864E11 ; 0.0
113 ; 4.37902759054659E7 ; 1.2088771032179883E9 ; 4.911001424479972E9 ; 1.2652638081550227E11 ; 0.0
114 ; 4.376096868128949E7 ; 1.2089349497629719E9 ; 4.954791700385438E9 ; 1.2773525791872026E11 ; 0.0
115 ; 4.373812685888768E7 ; 1.2089927220644112E9 ; 4.998552669066728E9 ; 1.2894419286848323E11 ; 0.0
116 ; 4.37068765894735E7 ; 1.2090504175500083E9 ; 5.042290795925615E9 ; 1.3015318559054764E11 ; 0.0
117 ; 4.367900586763236E7 ; 1.2091080336973503E9 ; 5.085997672515089E9 ; 1.3136223600809764E11 ; 0.0
118 ; 4.364696825938654E7 ; 1.209165568032017E9 ; 5.129676678382721E9 ; 1.32571344041795E11 ; 0.0
119 ; 4.362209135661277E7 ; 1.2092230181257784E9 ; 5.173323646642107E9 ; 1.3378050960982701E11 ; 0.0
120 ; 4.359608546160415E7 ; 1.2092803815948744E9 ; 5.21694573799872E9 ; 1.3498973262795279E11 ; 0.0
121 ; 4.356966565623338E7 ; 1.2093376560983772E9 ; 5.260541823460324E9 ; 1.3619901300954767E11 ; 0.0
122 ; 4.353736808983882E7 ; 1.2093948393366318E9 ; 5.304111489116558E9 ; 1.3740835066564604E11 ; 0.0
123 ; 4.350396925959176E7 ; 1.2094519290497632E9 ; 5.347648857206397E9 ; 1.3861774550498267E11 ; 0.0
124 ; 4.347836473874156E7 ; 1.2095089230162582E9 ; 5.391152826465989E9 ; 1.3982719743403244E11 ; 0.0
125 ; 4.344497199210454E7 ; 1.2095658190516088E9 ; 5.434631191204731E9 ; 1.410367063570487E11 ; 0.0
126 ; 4.342008237728132E7 ; 1.2096226150070179E9 ; 5.4780761631968355E9 ; 1.422462721761003E11 ; 0.0
127 ; 4.338439726858922E7 ; 1.2096793087681649E9 ; 5.521496245574117E9 ; 1.4345589479110733E11 ; 0.0
128 ; 4.335266639141443E7 ; 1.2097358982540252E9 ; 5.564880642842706E9 ; 1.446655740998755E11 ; 0.0
129 ; 4.3314632239712596E7 ; 1.2097923814157448E9 ; 5.60823330923412E9 ; 1.4587530999812952E11 ; 0.0
130 ; 4.327959475774871E7 ; 1.2098487562355614E9 ; 5.651547941473833E9 ; 1.4708510237954526E11 ; 0.0
131 ; 4.3234172951721646E7 ; 1.2099050207257793E9 ; 5.694827536231582E9 ; 1.4829495113578082E11 ; 0.0
132 ; 4.318728460175657E7 ; 1.2099611729277818E9 ; 5.738061709183303E9 ; 1.495048561565066E11 ; 0.0
133 ; 4.313588517250834E7 ; 1.2100172109110951E9 ; 5.781248993785059E9 ; 1.507148173294344E11 ; 0.0
134 ; 4.3090455252416715E7 ; 1.2100731327724862E9 ; 5.824384878957567E9 ; 1.519248345403455E11 ; 0.0
135 ; 4.3048742395195894E7 ; 1.2101289366351044E9 ; 5.867475334209984E9 ; 1.5313490767311798E11 ; 0.0
136 ; 4.299741356151736E7 ; 1.2101846206476576E9 ; 5.91052407660518E9 ; 1.5434503660975308E11 ; 0.0
137 ; 4.295064494343198E7 ; 1.2102401829836261E9 ; 5.9535214901666975E9 ; 1.5555522123040073E11 ; 0.0
138 ; 4.290017184783211E7 ; 1.2102956218405073E9 ; 5.996472135110129E9 ; 1.5676546141338434E11 ; 0.0
139 ; 4.2852350306240976E7 ; 1.210350935439095E9 ; 6.039372306957961E9 ; 1.5797575703522485E11 ; 0.0
140 ; 4.279700584010981E7 ; 1.2104061220227876E9 ; 6.082224657264202E9 ; 1.5918610797066394E11 ; 0.0
141 ; 4.2752106625619605E7 ; 1.2104611798569272E9 ; 6.125021663104312E9 ; 1.6039651409268674E11 ; 0.0
142 ; 4.269500663624993E7 ; 1.210516107228164E9 ; 6.167773769729932E9 ; 1.6160697527254367E11 ; 0.0
143 ; 4.2649324453211024E7 ; 1.2105709024438508E9 ; 6.210468776366181E9 ; 1.6281749137977182E11 ; 0.0
144 ; 4.259842894058355E7 ; 1.2106255638314576E9 ; 6.253118100819392E9 ; 1.6402806228221567E11 ; 0.0
145 ; 4.255881438653423E7 ; 1.2106800897380166E9 ; 6.295716529759975E9 ; 1.6523868784604712E11 ; 0.0
146 ; 4.2523353814968035E7 ; 1.210734478529584E9 ; 6.33827534414651E9 ; 1.6644936793578513E11 ; 0.0
147 ; 4.249244590892249E7 ; 1.210788728590728E9 ; 6.380798697961478E9 ; 1.676601024143147E11 ; 0.0
148 ; 4.245587103051989E7 ; 1.2108428383240376E9 ; 6.4232911438704E9 ; 1.6887089114290543E11 ; 0.0
149 ; 4.241846489464693E7 ; 1.2108968061496472E9 ; 6.46574701490092E9 ; 1.7008173398122946E11 ; 0.0
150 ; 4.23789915860052E7 ; 1.2109506305047865E9 ; 6.508165479795567E9 ; 1.7129263078737912E11 ; 0.0
151 ; 4.234134759557317E7 ; 1.2110043098433437E9 ; 6.550544471381572E9 ; 1.725035814178839E11 ; 0.0
152 ; 4.230948020435405E7 ; 1.2110578426354482E9 ; 6.592885818977145E9 ; 1.7371458572772726E11 ; 0.0
153 ; 4.227790099010164E7 ; 1.2111112273670702E9 ; 6.6351952991814995E9 ; 1.749256435703627E11 ; 0.0
154 ; 4.2235181851502836E7 ; 1.2111644625396352E9 ; 6.677473200171601E9 ; 1.7613675479772977E11 ; 0.0
155 ; 4.219614620176185E7 ; 1.2112175466696556E9 ; 6.719708382023104E9 ; 1.773479192602694E11 ; 0.0
156 ; 4.216436426060887E7 ; 1.2112704782883744E9 ; 6.761904528224866E9 ; 1.7855913680693906E11 ; 0.0
157 ; 4.212758330554956E7 ; 1.2113232559414244E9 ; 6.804068892485475E9 ; 1.7977040728522742E11 ; 0.0
158 ; 4.20831054642436E7 ; 1.211375878188501E9 ; 6.846196475791024E9 ; 1.8098173054116885E11 ; 0.0
159 ; 4.2048277860819094E7 ; 1.211428343603047E9 ; 6.888279581255268E9 ; 1.8219310641935736E11 ; 0.0
160 ; 4.202087652637255E7 ; 1.2114806507719493E9 ; 6.930327859116087E9 ; 1.8340453476296042E11 ; 0.0
161 ; 4.1976373294789515E7 ; 1.2115327982952504E9 ; 6.97234873564246E9 ; 1.8461601541373236E11 ; 0.0
162 ; 4.193990584695316E7 ; 1.2115847847858653E9 ; 7.014325108937249E9 ; 1.8582754821202762E11 ; 0.0
163 ; 4.189998432860485E7 ; 1.2116366088693144E9 ; 7.056265014784203E9 ; 1.8703913299681348E11 ; 0.0
164 ; 4.18641253865128E7 ; 1.2116882691834657E9 ; 7.098164999112807E9 ; 1.882507696056828E11 ; 0.0
165 ; 4.182428211863235E7 ; 1.2117397643782847E9 ; 7.14002912449932E9 ; 1.8946245787486627E11 ; 0.0
166 ; 4.1785715561347544E7 ; 1.2117910931155953E9 ; 7.181853406617952E9 ; 1.9067419763924457E11 ; 0.0
167 ; 4.1741860875998385E7 ; 1.211842254068851E9 ; 7.2236391221793E9 ; 1.9188598873236017E11 ; 0.0
168 ; 4.1708677262059405E7 ; 1.211893245922911E9 ; 7.265380983055299E9 ; 1.9309783098642902E11 ; 0.0
169 ; 4.166346414977488E7 ; 1.2119440673738296E9 ; 7.307089660317358E9 ; 1.9430972423235193E11 ; 0.0
170 ; 4.162523714265146E7 ; 1.2119947171286507E9 ; 7.348753124467133E9 ; 1.9552166829972577E11 ; 0.0
171 ; 4.158281446013065E7 ; 1.2120451939052086E9 ; 7.390378361609784E9 ; 1.9673366301685443E11 ; 0.0
172 ; 4.1553420953710206E7 ; 1.212095496431941E9 ; 7.431961176069915E9 ; 1.9794570821075964E11 ; 0.0
173 ; 4.1510175607940994E7 ; 1.212145623447703E9 ; 7.473514597023625E9 ; 1.991578037071916E11 ; 0.0
174 ; 4.148680636388077E7 ; 1.2121955737015944E9 ; 7.515024772631566E9 ; 2.0036994933063928E11 ; 0.0
175 ; 4.146477397393359E7 ; 1.2122453459527874E9 ; 7.556511578995447E9 ; 2.0158214490434088E11 ; 0.0
176 ; 4.143663918208088E7 ; 1.2122949389703646E9 ; 7.59797635296938E9 ; 2.0279439025029367E11 ; 0.0
177 ; 4.141490387641266E7 ; 1.2123443515331624E9 ; 7.639412992151462E9 ; 2.0400668518926404E11 ; 0.0
178 ; 4.138921331864077E7 ; 1.2123935824296188E9 ; 7.680827896027874E9 ; 2.052190295407972E11 ; 0.0
179 ; 4.136460365072419E7 ; 1.2124426304576275E9 ; 7.722217109346515E9 ; 2.0643142312322684E11 ; 0.0
180 ; 4.134093133328554E7 ; 1.2124914944243982E9 ; 7.763581712997239E9 ; 2.0764386575368448E11 ; 0.0
181 ; 4.1321976438075714E7 ; 1.2125401731463215E9 ; 7.804922644330524E9 ; 2.088563572481089E11 ; 0.0
182 ; 4.129480951346094E7 ; 1.212588665448837E9 ; 7.8462446207686E9 ; 2.1006889742125522E11 ; 0.0
183 ; 4.1266471848365456E7 ; 1.2126369701663103E9 ; 7.887539430282062E9 ; 2.1128148608670404E11 ; 0.0
184 ; 4.124901986007039E7 ; 1.2126850861419096E9 ; 7.928805902130427E9 ; 2.1249412305687036E11 ; 0.0
185 ; 4.122249813704491E7 ; 1.212733012227491E9 ; 7.970054921990498E9 ; 2.1370680814301227E11 ; 0.0
186 ; 4.1193233501924485E7 ; 1.2127807472834854E9 ; 8.0112774201275425E9 ; 2.1491954115523975E11 ; 0.0
187 ; 4.117663511355893E7 ; 1.2128282901787896E9 ; 8.052470653629467E9 ; 2.1613232190252322E11 ; 0.0
188 ; 4.114632756518568E7 ; 1.2128756397906642E9 ; 8.093647288743026E9 ; 2.1734515019270203E11 ; 0.0
189 ; 4.112612273722705E7 ; 1.212922795004631E9 ; 8.134793616308211E9 ; 2.1855802583249268E11 ; 0.0
190 ; 4.1104760471439674E7 ; 1.2129697547143772E9 ; 8.175919739045439E9 ; 2.197709486274973E11 ; 0.0
191 ; 4.107486841921585E7 ; 1.213016517821662E9 ; 8.217024499516878E9 ; 2.209839183822117E11 ; 0.0
192 ; 4.105379557296762E7 ; 1.213063083236226E9 ; 8.258099367936094E9 ; 2.2219693490003336E11 ; 0.0
193 ; 4.103306051317024E7 ; 1.2131094498757064E9 ; 8.299153163509062E9 ; 2.234099979832696E11 ; 0.0
194 ; 4.1000923945706956E7 ; 1.213155616665551E9 ; 8.340186224022232E9 ; 2.246231074331453E11 ; 0.0
195 ; 4.098240950224199E7 ; 1.213201582538939E9 ; 8.381187147967939E9 ; 2.2583626304981085E11 ; 0.0
196 ; 4.095206543585877E7 ; 1.2132473464367034E9 ; 8.422169557470181E9 ; 2.270494646323498E11 ; 0.0
197 ; 4.0929533603368886E7 ; 1.2132929073072572E9 ; 8.46312162290604E9 ; 2.282627119787865E11 ; 0.0
