CSV File for the Network on Day 14
1 - Minute m 
2 - Power Consumed at minute m 
3 - Power Produced at minute m 
4 - Energy Consumed since the beginning of the day 
5 - Energy Produced since the beginning of the day 
6 - Energy Lost since the beginning of the day 
 
0 ; 4.995326912069546E7 ; 1.0516072819786593E8 ; 0.0 ; 0.0 ; 0.0
1 ; 5.000766297807969E7 ; 1.0531504918552023E8 ; 4.995326912069546E7 ; 1.0516072819786593E8 ; 613.6199999999999
2 ; 5.005737914808554E7 ; 1.0577801214848319E8 ; 9.996093209877515E7 ; 2.1047577738338616E8 ; 1227.2399999999998
3 ; 5.012355722823995E7 ; 1.065496170867548E8 ; 1.5001831124686068E8 ; 3.1625378953186935E8 ; 1840.8599999999997
4 ; 5.019178371796906E7 ; 1.0762986400033504E8 ; 2.0014186847510064E8 ; 4.2280340661862415E8 ; 2454.4799999999996
5 ; 5.028640462022294E7 ; 1.0901875288922393E8 ; 2.503336521930697E8 ; 5.304332706189592E8 ; 3068.0999999999995
6 ; 5.04094186593824E7 ; 1.1071628375342146E8 ; 3.006200568132926E8 ; 6.394520235081831E8 ; 3681.7199999999993
7 ; 5.056526598505459E7 ; 1.1272245659292763E8 ; 3.51029475472675E8 ; 7.501683072616045E8 ; 4295.339999999999
8 ; 5.081448395766708E7 ; 1.1503727140774244E8 ; 4.0159474145772964E8 ; 8.628907638545322E8 ; 4908.959999999999
9 ; 5.117439438270122E7 ; 1.176607281978659E8 ; 4.524092254153967E8 ; 9.779280352622747E8 ; 5522.579999999999
10 ; 5.174477857163171E7 ; 1.2059282696329802E8 ; 5.035836197980979E8 ; 1.0955887634601407E9 ; 6136.199999999999
11 ; 5.263913699338732E7 ; 1.2383356770403877E8 ; 5.553283983697296E8 ; 1.2161815904234388E9 ; 6749.819999999999
12 ; 5.407877394313285E7 ; 1.2738295042008814E8 ; 6.07967535363117E8 ; 1.3400151581274776E9 ; 7363.439999999999
13 ; 5.5457060580250554E7 ; 1.3124097511144614E8 ; 6.620463093062499E8 ; 1.4673981085475657E9 ; 7977.059999999999
14 ; 5.56084931837519E7 ; 1.3540764177811283E8 ; 7.175033698865004E8 ; 1.5986390836590118E9 ; 8590.679999999998
15 ; 5.5670760347513914E7 ; 1.398829504200881E8 ; 7.731118630702523E8 ; 1.7340467254371247E9 ; 9204.3
16 ; 5.5741965327788286E7 ; 1.4466690103737208E8 ; 8.287826234177662E8 ; 1.8739296758572128E9 ; 9817.919999999998
17 ; 5.580375817966461E7 ; 1.497594936299647E8 ; 8.845245887455544E8 ; 2.018596576894585E9 ; 10431.539999999997
18 ; 5.5870104304393895E7 ; 1.5516072819786593E8 ; 9.40328346925219E8 ; 2.1683560705245495E9 ; 11045.159999999996
19 ; 5.593503687657235E7 ; 1.608706047410758E8 ; 9.96198451229613E8 ; 2.3235167987224154E9 ; 11658.779999999995
20 ; 5.5996260658545464E7 ; 1.6688912325959432E8 ; 1.0521334881061853E9 ; 2.4843874034634914E9 ; 12272.399999999994
21 ; 5.606665647852196E7 ; 1.732162837534215E8 ; 1.1081297487647307E9 ; 2.651276526723086E9 ; 12886.019999999993
22 ; 5.613277857815996E7 ; 1.7985208622255728E8 ; 1.1641964052432528E9 ; 2.824492810476507E9 ; 13499.639999999992
23 ; 5.619862975565511E7 ; 1.8679653066700175E8 ; 1.2203291838214128E9 ; 3.0043448966990643E9 ; 14113.259999999991
24 ; 5.6261860344961844E7 ; 1.9404961708675483E8 ; 1.2765278135770679E9 ; 3.191141427366066E9 ; 14726.87999999999
25 ; 5.6326762547979E7 ; 2.0029938638000003E8 ; 1.3327896739220297E9 ; 3.385191044452821E9 ; 15340.499999999989
26 ; 5.6397730191505164E7 ; 2.0029938638000003E8 ; 1.3891164364700089E9 ; 3.585490430832821E9 ; 15954.119999999988
27 ; 5.646049263074447E7 ; 2.0029938638000003E8 ; 1.445514166661514E9 ; 3.785789817212821E9 ; 16567.739999999987
28 ; 5.6516325428781934E7 ; 2.0029938638000003E8 ; 1.5019746592922585E9 ; 3.986089203592821E9 ; 17181.359999999986
29 ; 5.6577174796918005E7 ; 2.0029938638000003E8 ; 1.5584909847210405E9 ; 4.186388589972821E9 ; 17794.979999999985
30 ; 5.66432614132141E7 ; 2.0029938638000003E8 ; 1.6150681595179584E9 ; 4.386687976352821E9 ; 18408.599999999984
31 ; 5.670005083652365E7 ; 2.0029938638000003E8 ; 1.6717114209311726E9 ; 4.586987362732821E9 ; 19022.219999999983
32 ; 5.67573473590997E7 ; 2.0029938638000003E8 ; 1.7284114717676964E9 ; 4.787286749112822E9 ; 19635.839999999982
33 ; 5.681290697847115E7 ; 2.0029938638000003E8 ; 1.785168819126796E9 ; 4.987586135492822E9 ; 20249.45999999998
34 ; 5.687224763330489E7 ; 2.0029938638000003E8 ; 1.841981726105267E9 ; 5.187885521872822E9 ; 20863.07999999998
35 ; 5.691867714423594E7 ; 2.0029938638000003E8 ; 1.898853973738572E9 ; 5.388184908252822E9 ; 21476.69999999998
36 ; 5.697672029257644E7 ; 2.0029938638000003E8 ; 1.9557726508828077E9 ; 5.588484294632822E9 ; 22090.319999999978
37 ; 5.702876328087768E7 ; 2.0029938638000003E8 ; 2.0127493711753843E9 ; 5.788783681012822E9 ; 22703.939999999977
38 ; 5.707400605698353E7 ; 2.0029938638000003E8 ; 2.0697781344562619E9 ; 5.989083067392822E9 ; 23317.559999999976
39 ; 5.711599866836163E7 ; 2.0029938638000003E8 ; 2.1268521405132453E9 ; 6.189382453772822E9 ; 23931.179999999975
40 ; 5.715603079138359E7 ; 2.0029938638000003E8 ; 2.183968139181607E9 ; 6.3896818401528225E9 ; 24544.799999999974
41 ; 5.7207463683739334E7 ; 2.0029938638000003E8 ; 2.2411241699729905E9 ; 6.589981226532823E9 ; 25158.419999999973
42 ; 5.724324706927238E7 ; 2.0029938638000003E8 ; 2.2983316336567297E9 ; 6.790280612912823E9 ; 25772.03999999997
43 ; 5.7281671121479005E7 ; 2.0029938638000003E8 ; 2.355574880726002E9 ; 6.990579999292823E9 ; 26385.65999999997
44 ; 5.73143324478152E7 ; 2.0029938638000003E8 ; 2.4128565518474813E9 ; 7.190879385672823E9 ; 26999.27999999997
45 ; 5.733850319040689E7 ; 2.0029938638000003E8 ; 2.4701708842952967E9 ; 7.391178772052823E9 ; 27612.89999999997
46 ; 5.73725695839374E7 ; 2.0029938638000003E8 ; 2.5275093874857035E9 ; 7.591478158432823E9 ; 28226.519999999968
47 ; 5.7402317986380175E7 ; 2.0029938638000003E8 ; 2.5848819570696406E9 ; 7.791777544812823E9 ; 28840.139999999967
48 ; 5.741721831272545E7 ; 2.0029938638000003E8 ; 2.6422842750560207E9 ; 7.992076931192823E9 ; 29453.759999999966
49 ; 5.7438923310052246E7 ; 2.0029938638000003E8 ; 2.6997014933687463E9 ; 8.192376317572824E9 ; 30067.379999999965
50 ; 5.7459180698953345E7 ; 2.0029938638000003E8 ; 2.7571404166787987E9 ; 8.392675703952824E9 ; 30680.999999999964
51 ; 5.747871698768279E7 ; 2.0029938638000003E8 ; 2.814599597377752E9 ; 8.592975090332823E9 ; 31294.619999999963
52 ; 5.748506466728235E7 ; 2.0029938638000003E8 ; 2.8720783143654346E9 ; 8.793274476712822E9 ; 31908.23999999996
53 ; 5.750792982693671E7 ; 2.0029938638000003E8 ; 2.929563379032717E9 ; 8.993573863092821E9 ; 32521.85999999996
54 ; 5.7523507856335916E7 ; 2.0029938638000003E8 ; 2.987071308859654E9 ; 9.19387324947282E9 ; 33135.47999999996
55 ; 5.753616357582883E7 ; 2.0029938638000003E8 ; 3.04459481671599E9 ; 9.39417263585282E9 ; 33749.09999999996
56 ; 5.754873916771592E7 ; 2.0029938638000003E8 ; 3.102130980291819E9 ; 9.594472022232819E9 ; 34362.719999999965
57 ; 5.7566116871938E7 ; 2.0029938638000003E8 ; 3.159679719459535E9 ; 9.794771408612818E9 ; 34976.33999999997
58 ; 5.7577992966819294E7 ; 2.0029938638000003E8 ; 3.2172458363314734E9 ; 9.995070794992817E9 ; 35589.95999999997
59 ; 5.758608897381169E7 ; 2.0029938638000003E8 ; 3.2748238292982926E9 ; 1.0195370181372816E10 ; 36203.57999999997
60 ; 5.760174521735871E7 ; 2.0029938638000003E8 ; 3.3324099182721043E9 ; 1.0395669567752815E10 ; 36817.199999999975
61 ; 5.76093266540115E7 ; 2.0029938638000003E8 ; 3.390011663489463E9 ; 1.0595968954132814E10 ; 37430.81999999998
62 ; 5.7626654075864896E7 ; 2.0029938638000003E8 ; 3.4476209901434746E9 ; 1.0796268340512814E10 ; 38044.43999999998
63 ; 5.7633254526390016E7 ; 2.0029938638000003E8 ; 3.5052476442193394E9 ; 1.0996567726892813E10 ; 38658.05999999998
64 ; 5.763003138664457E7 ; 2.0029938638000003E8 ; 3.5628808987457294E9 ; 1.1196867113272812E10 ; 39271.679999999986
65 ; 5.764876550088459E7 ; 2.0029938638000003E8 ; 3.620510930132374E9 ; 1.1397166499652811E10 ; 39885.29999999999
66 ; 5.7652649182181194E7 ; 2.0029938638000003E8 ; 3.6781596956332583E9 ; 1.159746588603281E10 ; 40498.91999999999
67 ; 5.765429516928396E7 ; 2.0029938638000003E8 ; 3.7358123448154397E9 ; 1.179776527241281E10 ; 41112.53999999999
68 ; 5.766760388266429E7 ; 2.0029938638000003E8 ; 3.7934666399847236E9 ; 1.1998064658792809E10 ; 41726.159999999996
69 ; 5.767041075598768E7 ; 2.0029938638000003E8 ; 3.851134243867388E9 ; 1.2198364045172808E10 ; 42339.78
70 ; 5.767759363258408E7 ; 2.0029938638000003E8 ; 3.9088046546233754E9 ; 1.2398663431552807E10 ; 42953.4
71 ; 5.768244690182784E7 ; 2.0029938638000003E8 ; 3.9664822482559595E9 ; 1.2598962817932806E10 ; 43567.020000000004
72 ; 5.7689861941780604E7 ; 2.0029938638000003E8 ; 4.0241646951577873E9 ; 1.2799262204312805E10 ; 44180.64000000001
73 ; 5.769365552337427E7 ; 2.0029938638000003E8 ; 4.081854557099568E9 ; 1.2999561590692804E10 ; 44794.26000000001
74 ; 5.7693685101106316E7 ; 2.0029938638000003E8 ; 4.139548212622942E9 ; 1.3199860977072803E10 ; 45407.88000000001
75 ; 5.770280916506311E7 ; 2.0029938638000003E8 ; 4.197241897724048E9 ; 1.3400160363452803E10 ; 46021.500000000015
76 ; 5.7699239512059465E7 ; 2.0029938638000003E8 ; 4.254944706889111E9 ; 1.3600459749832802E10 ; 46635.12000000002
77 ; 5.7701138404129356E7 ; 2.0029938638000003E8 ; 4.312643946401171E9 ; 1.3800759136212801E10 ; 47248.74000000002
78 ; 5.7686460507438116E7 ; 2.0029938638000003E8 ; 4.3703450848053E9 ; 1.40010585225928E10 ; 47862.36000000002
79 ; 5.766757324024659E7 ; 2.0029938638000003E8 ; 4.428031545312737E9 ; 1.42013579089728E10 ; 48475.980000000025
80 ; 5.765321317446618E7 ; 2.0029938638000003E8 ; 4.485699118552984E9 ; 1.4401657295352798E10 ; 49089.60000000003
81 ; 5.763924842891739E7 ; 2.0029938638000003E8 ; 4.54335233172745E9 ; 1.4601956681732798E10 ; 49703.22000000003
82 ; 5.761284282215507E7 ; 2.0029938638000003E8 ; 4.600991580156367E9 ; 1.4802256068112797E10 ; 50316.84000000003
83 ; 5.760122257339306E7 ; 2.0029938638000003E8 ; 4.658604422978522E9 ; 1.5002555454492796E10 ; 50930.460000000036
84 ; 5.758331638127695E7 ; 2.0029938638000003E8 ; 4.716205645551915E9 ; 1.5202854840872795E10 ; 51544.08000000004
85 ; 5.755590735642855E7 ; 2.0029938638000003E8 ; 4.773788961933192E9 ; 1.5403154227252794E10 ; 52157.70000000004
86 ; 5.754550093913816E7 ; 2.0029938638000003E8 ; 4.83134486928962E9 ; 1.5603453613632793E10 ; 52771.32000000004
87 ; 5.7521801190382436E7 ; 2.0029938638000003E8 ; 4.888890370228759E9 ; 1.5803753000012793E10 ; 53384.940000000046
88 ; 5.7501706066456705E7 ; 2.0029938638000003E8 ; 4.946412171419141E9 ; 1.6004052386392792E10 ; 53998.56000000005
89 ; 5.748464014449187E7 ; 2.0029938638000003E8 ; 5.003913877485598E9 ; 1.620435177277279E10 ; 54612.18000000005
90 ; 5.7458975739708714E7 ; 2.0029938638000003E8 ; 5.06139851763009E9 ; 1.640465115915279E10 ; 55225.800000000054
91 ; 5.743258105773152E7 ; 2.0029938638000003E8 ; 5.118857493369799E9 ; 1.660495054553279E10 ; 55839.42000000006
92 ; 5.7407531336908355E7 ; 2.0029938638000003E8 ; 5.17629007442753E9 ; 1.6805249931912788E10 ; 56453.04000000006
93 ; 5.738711981091361E7 ; 2.0029938638000003E8 ; 5.233697605764439E9 ; 1.7005549318292788E10 ; 57066.66000000006
94 ; 5.73611423695572E7 ; 2.0029938638000003E8 ; 5.291084725575353E9 ; 1.7205848704672787E10 ; 57680.280000000064
95 ; 5.7340532965840265E7 ; 2.0029938638000003E8 ; 5.34844586794491E9 ; 1.7406148091052788E10 ; 58293.90000000007
96 ; 5.730994557120451E7 ; 2.0029938638000003E8 ; 5.40578640091075E9 ; 1.760644747743279E10 ; 58907.52000000007
97 ; 5.7288959251800224E7 ; 2.0029938638000003E8 ; 5.463096346481955E9 ; 1.780674686381279E10 ; 59521.14000000007
98 ; 5.726065669966217E7 ; 2.0029938638000003E8 ; 5.520385305733755E9 ; 1.800704625019279E10 ; 60134.760000000075
99 ; 5.723592439898763E7 ; 2.0029938638000003E8 ; 5.577645962433417E9 ; 1.8207345636572792E10 ; 60748.38000000008
100 ; 5.7203926878637016E7 ; 2.0029938638000003E8 ; 5.634881886832405E9 ; 1.8407645022952793E10 ; 61362.00000000008
101 ; 5.717596653766384E7 ; 2.0029938638000003E8 ; 5.692085813711042E9 ; 1.8607944409332794E10 ; 61975.62000000008
102 ; 5.714662503422315E7 ; 2.0029938638000003E8 ; 5.749261780248706E9 ; 1.8808243795712795E10 ; 62589.240000000085
103 ; 5.7115581948858805E7 ; 2.0029938638000003E8 ; 5.806408405282929E9 ; 1.9008543182092796E10 ; 63202.86000000009
104 ; 5.7084254236126035E7 ; 2.0029938638000003E8 ; 5.863523987231789E9 ; 1.9208842568472797E10 ; 63816.48000000009
105 ; 5.70559476078075E7 ; 2.0029938638000003E8 ; 5.920608241467915E9 ; 1.94091419548528E10 ; 64430.10000000009
106 ; 5.701987367657957E7 ; 2.0029938638000003E8 ; 5.977664189075722E9 ; 1.96094413412328E10 ; 65043.720000000096
107 ; 5.699076549924254E7 ; 2.0029938638000003E8 ; 6.034684062752301E9 ; 1.98097407276128E10 ; 65657.3400000001
108 ; 5.695746805027838E7 ; 2.0029938638000003E8 ; 6.091674828251544E9 ; 2.00100401139928E10 ; 66270.9600000001
109 ; 5.69183692127357E7 ; 2.0029938638000003E8 ; 6.148632296301823E9 ; 2.0210339500372803E10 ; 66884.58000000009
110 ; 5.689272171464054E7 ; 2.0029938638000003E8 ; 6.205550665514559E9 ; 2.0410638886752804E10 ; 67498.20000000008
111 ; 5.686137987439971E7 ; 2.0029938638000003E8 ; 6.262443387229199E9 ; 2.0610938273132805E10 ; 68111.82000000008
112 ; 5.6821553544038504E7 ; 2.0029938638000003E8 ; 6.3193047671036E9 ; 2.0811237659512806E10 ; 68725.44000000008
113 ; 5.6784972513839915E7 ; 2.0029938638000003E8 ; 6.376126320647638E9 ; 2.1011537045892807E10 ; 69339.06000000007
114 ; 5.674550288942507E7 ; 2.0029938638000003E8 ; 6.432911293161478E9 ; 2.1211836432272808E10 ; 69952.68000000007
115 ; 5.671531430105811E7 ; 2.0029938638000003E8 ; 6.489656796050903E9 ; 2.141213581865281E10 ; 70566.30000000006
116 ; 5.667069490270323E7 ; 2.0029938638000003E8 ; 6.546372110351961E9 ; 2.161243520503281E10 ; 71179.92000000006
117 ; 5.66380370904349E7 ; 2.0029938638000003E8 ; 6.603042805254664E9 ; 2.181273459141281E10 ; 71793.54000000005
118 ; 5.659934916373187E7 ; 2.0029938638000003E8 ; 6.659680842345099E9 ; 2.2013033977792812E10 ; 72407.16000000005
119 ; 5.656850191124354E7 ; 2.0029938638000003E8 ; 6.716280191508831E9 ; 2.2213333364172813E10 ; 73020.78000000004
120 ; 5.653595611091576E7 ; 2.0029938638000003E8 ; 6.772848693420074E9 ; 2.2413632750552814E10 ; 73634.40000000004
121 ; 5.6485684823781446E7 ; 2.0029938638000003E8 ; 6.829384649530991E9 ; 2.2613932136932816E10 ; 74248.02000000003
122 ; 5.644205665820913E7 ; 2.0029938638000003E8 ; 6.885870334354772E9 ; 2.2814231523312817E10 ; 74861.64000000003
123 ; 5.640160097892365E7 ; 2.0029938638000003E8 ; 6.94231239101298E9 ; 2.3014530909692818E10 ; 75475.26000000002
124 ; 5.635706980846469E7 ; 2.0029938638000003E8 ; 6.998713991991904E9 ; 2.321483029607282E10 ; 76088.88000000002
125 ; 5.631622737280653E7 ; 2.0029938638000003E8 ; 7.055071061800369E9 ; 2.341512968245282E10 ; 76702.50000000001
126 ; 5.627533007244288E7 ; 2.0029938638000003E8 ; 7.111387289173176E9 ; 2.361542906883282E10 ; 77316.12000000001
127 ; 5.6229655163982764E7 ; 2.0029938638000003E8 ; 7.167662619245619E9 ; 2.3815728455212822E10 ; 77929.74
128 ; 5.6190887048233755E7 ; 2.0029938638000003E8 ; 7.223892274409601E9 ; 2.4016027841592823E10 ; 78543.36
129 ; 5.613987806305961E7 ; 2.0029938638000003E8 ; 7.280083161457835E9 ; 2.4216327227972824E10 ; 79156.98
130 ; 5.608584718798357E7 ; 2.0029938638000003E8 ; 7.336223039520895E9 ; 2.4416626614352825E10 ; 79770.59999999999
131 ; 5.6029180768938154E7 ; 2.0029938638000003E8 ; 7.3923088867088785E9 ; 2.4616926000732826E10 ; 80384.21999999999
132 ; 5.596691596106408E7 ; 2.0029938638000003E8 ; 7.448338067477817E9 ; 2.4817225387112827E10 ; 80997.83999999998
133 ; 5.589492875708047E7 ; 2.0029938638000003E8 ; 7.504304983438881E9 ; 2.501752477349283E10 ; 81611.45999999998
134 ; 5.5840823479115546E7 ; 2.0029938638000003E8 ; 7.560199912195961E9 ; 2.521782415987283E10 ; 82225.07999999997
135 ; 5.577143588486715E7 ; 2.0029938638000003E8 ; 7.6160407356750765E9 ; 2.541812354625283E10 ; 82838.69999999997
136 ; 5.570610680870487E7 ; 2.0029938638000003E8 ; 7.671812171559943E9 ; 2.561842293263283E10 ; 83452.31999999996
137 ; 5.564063401821061E7 ; 2.0029938638000003E8 ; 7.727518278368649E9 ; 2.5818722319012833E10 ; 84065.93999999996
138 ; 5.5573546370044455E7 ; 2.0029938638000003E8 ; 7.783158912386859E9 ; 2.6019021705392834E10 ; 84679.55999999995
139 ; 5.5507486459683314E7 ; 2.0029938638000003E8 ; 7.838732458756904E9 ; 2.6219321091772835E10 ; 85293.17999999995
140 ; 5.544489212743272E7 ; 2.0029938638000003E8 ; 7.894239945216587E9 ; 2.6419620478152836E10 ; 85906.79999999994
141 ; 5.537493977689074E7 ; 2.0029938638000003E8 ; 7.94968483734402E9 ; 2.6619919864532837E10 ; 86520.41999999994
142 ; 5.530483301673651E7 ; 2.0029938638000003E8 ; 8.005059777120911E9 ; 2.6820219250912838E10 ; 87134.03999999994
143 ; 5.523670923327923E7 ; 2.0029938638000003E8 ; 8.060364610137648E9 ; 2.702051863729284E10 ; 87747.65999999993
144 ; 5.515599130951825E7 ; 2.0029938638000003E8 ; 8.115601319370927E9 ; 2.722081802367284E10 ; 88361.27999999993
145 ; 5.512096840825757E7 ; 2.0029938638000003E8 ; 8.170757310680445E9 ; 2.742111741005284E10 ; 88974.89999999992
146 ; 5.506918024687269E7 ; 2.0029938638000003E8 ; 8.225878279088702E9 ; 2.7621416796432842E10 ; 89588.51999999992
147 ; 5.502357511538621E7 ; 2.0029938638000003E8 ; 8.280947459335575E9 ; 2.7821716182812843E10 ; 90202.13999999991
148 ; 5.497313545432657E7 ; 2.0029938638000003E8 ; 8.335971034450961E9 ; 2.8022015569192844E10 ; 90815.75999999991
149 ; 5.492872020722215E7 ; 2.0029938638000003E8 ; 8.390944169905288E9 ; 2.8222314955572845E10 ; 91429.3799999999
150 ; 5.488473532272108E7 ; 2.0029938638000003E8 ; 8.44587289011251E9 ; 2.8422614341952847E10 ; 92042.9999999999
151 ; 5.4826693144777104E7 ; 2.0029938638000003E8 ; 8.500757625435231E9 ; 2.8622913728332848E10 ; 92656.6199999999
152 ; 5.478175572289658E7 ; 2.0029938638000003E8 ; 8.5555843185800085E9 ; 2.882321311471285E10 ; 93270.23999999989
153 ; 5.4730547371663764E7 ; 2.0029938638000003E8 ; 8.610366074302906E9 ; 2.902351250109285E10 ; 93883.85999999988
154 ; 5.468491174624132E7 ; 2.0029938638000003E8 ; 8.66509662167457E9 ; 2.922381188747285E10 ; 94497.47999999988
155 ; 5.4630118321562484E7 ; 2.0029938638000003E8 ; 8.71978153342081E9 ; 2.942411127385285E10 ; 95111.09999999987
156 ; 5.458836676672363E7 ; 2.0029938638000003E8 ; 8.774411651742373E9 ; 2.9624410660232853E10 ; 95724.71999999987
157 ; 5.453269205023618E7 ; 2.0029938638000003E8 ; 8.829000018509096E9 ; 2.9824710046612854E10 ; 96338.33999999987
158 ; 5.448130050641319E7 ; 2.0029938638000003E8 ; 8.883532710559332E9 ; 3.0025009432992855E10 ; 96951.95999999986
159 ; 5.44307890655368E7 ; 2.0029938638000003E8 ; 8.938014011065744E9 ; 3.0225308819372856E10 ; 97565.57999999986
160 ; 5.437643669402699E7 ; 2.0029938638000003E8 ; 8.99244480013128E9 ; 3.0425608205752857E10 ; 98179.19999999985
161 ; 5.4334050102144465E7 ; 2.0029938638000003E8 ; 9.046821236825308E9 ; 3.062590759213286E10 ; 98792.81999999985
162 ; 5.427662975128813E7 ; 2.0029938638000003E8 ; 9.101155286927452E9 ; 3.082620697851286E10 ; 99406.43999999984
163 ; 5.422154651911307E7 ; 2.0029938638000003E8 ; 9.15543191667874E9 ; 3.102650636489286E10 ; 100020.05999999984
164 ; 5.417958851119366E7 ; 2.0029938638000003E8 ; 9.209653463197853E9 ; 3.122680575127286E10 ; 100633.67999999983
165 ; 5.412908866608885E7 ; 2.0029938638000003E8 ; 9.263833051709047E9 ; 3.1427105137652863E10 ; 101247.29999999983
166 ; 5.4071482494823165E7 ; 2.0029938638000003E8 ; 9.317962140375135E9 ; 3.1627404524032864E10 ; 101860.91999999982
167 ; 5.402230899170245E7 ; 2.0029938638000003E8 ; 9.372033622869959E9 ; 3.1827703910412865E10 ; 102474.53999999982
168 ; 5.396984171520005E7 ; 2.0029938638000003E8 ; 9.426055931861662E9 ; 3.2028003296792866E10 ; 103088.15999999981
169 ; 5.3913172954588585E7 ; 2.0029938638000003E8 ; 9.480025773576862E9 ; 3.2228302683172867E10 ; 103701.77999999981
170 ; 5.3857063385119826E7 ; 2.0029938638000003E8 ; 9.53393894653145E9 ; 3.2428602069552868E10 ; 104315.3999999998
171 ; 5.380504554826931E7 ; 2.0029938638000003E8 ; 9.58779600991657E9 ; 3.262890145593287E10 ; 104929.0199999998
172 ; 5.374905976422261E7 ; 2.0029938638000003E8 ; 9.64160105546484E9 ; 3.282920084231287E10 ; 105542.6399999998
