CSV File for the Network on Day 9
1 - Minute m 
2 - Power Consumed at minute m 
3 - Power Produced at minute m 
4 - Energy Consumed since the beginning of the day 
5 - Energy Produced since the beginning of the day 
6 - Energy Lost since the beginning of the day 
 
0 ; 3.843173012956008E7 ; 6.325010653688872E8 ; 0.0 ; 0.0 ; 0.0
1 ; 3.84752883519596E7 ; 6.334015382624857E8 ; 3.843173012956008E7 ; 6.325010653688872E8 ; 0.0
2 ; 3.852256148607576E7 ; 6.361561670440941E8 ; 7.690701848151968E7 ; 1.265902603631373E9 ; 0.0
3 ; 3.8562638906158075E7 ; 6.407650628390644E8 ; 1.1542957996759544E8 ; 1.902058770675467E9 ; 0.0
4 ; 3.861722855674973E7 ; 6.472283311910527E8 ; 1.5399221887375352E8 ; 2.542823833514531E9 ; 0.0
5 ; 3.868251684393009E7 ; 6.555460698376017E8 ; 1.9260944743050325E8 ; 3.1900521647055836E9 ; 0.0
6 ; 3.8782678229827225E7 ; 6.657183664386642E8 ; 2.3129196427443334E8 ; 3.845598234543185E9 ; 0.0
7 ; 3.890873937661448E7 ; 6.77745296362304E8 ; 2.7007464250426054E8 ; 4.51131660098185E9 ; 0.0
8 ; 3.9096054873041674E7 ; 6.916269206444588E8 ; 3.08983381880875E8 ; 5.189061897344153E9 ; 0.0
9 ; 3.9365331469813675E7 ; 7.073632842427717E8 ; 3.480794367539167E8 ; 5.880688817988612E9 ; 0.0
10 ; 3.981201030294935E7 ; 7.249544146959951E8 ; 3.874447682237303E8 ; 6.588052102231384E9 ; 0.0
11 ; 4.049938509284924E7 ; 7.44400321279809E8 ; 4.272567785266797E8 ; 7.31300651692738E9 ; 0.0
12 ; 4.160108564209848E7 ; 7.657009947185329E8 ; 4.6775616361952895E8 ; 8.057406838207189E9 ; 0.0
13 ; 4.266220156442073E7 ; 7.88856407473415E8 ; 5.0935724926162744E8 ; 8.823107832925722E9 ; 0.0
14 ; 4.279199353996667E7 ; 8.138665145868124E8 ; 5.520194508260481E8 ; 9.611964240399137E9 ; 0.0
15 ; 4.2838191201258115E7 ; 8.407312550227869E8 ; 5.948114443660148E8 ; 1.042583075498595E10 ; 0.0
16 ; 4.2892323561100796E7 ; 8.694505534132749E8 ; 6.376496355672729E8 ; 1.1266562010008738E10 ; 0.0
17 ; 4.294260468399492E7 ; 9.000243220983237E8 ; 6.805419591283737E8 ; 1.2136012563422012E10 ; 0.0
18 ; 4.2989050333762884E7 ; 9.324524633403903E8 ; 7.234845638123686E8 ; 1.3036036885520336E10 ; 0.0
19 ; 4.304080034166356E7 ; 9.667348715958191E8 ; 7.664736141461315E8 ; 1.3968489348860727E10 ; 0.0
20 ; 4.3089532060202114E7 ; 1.0028714357392573E9 ; 8.095144144877951E8 ; 1.4935224220456547E10 ; 0.0
21 ; 4.3140121672345E7 ; 1.0408620411558937E9 ; 8.526039465479972E8 ; 1.5938095656195805E10 ; 0.0
22 ; 4.3190797791318335E7 ; 1.080706571638748E9 ; 8.957440682203423E8 ; 1.6978957697351698E10 ; 0.0
23 ; 4.3238287504058495E7 ; 1.122404911050846E9 ; 9.389348660116606E8 ; 1.8059664268990444E10 ; 0.0
24 ; 4.328681735769363E7 ; 1.1659569447327414E9 ; 9.82173153515719E8 ; 1.918206918004129E10 ; 0.0
25 ; 4.333459085450883E7 ; 1.203490806042192E9 ; 1.0254599708734127E9 ; 2.0348026124774033E10 ; 0.0
26 ; 4.338631702341024E7 ; 1.2035276734800532E9 ; 1.0687945617279216E9 ; 2.1551516930816223E10 ; 0.0
27 ; 4.343336560361906E7 ; 1.203566058518214E9 ; 1.1121808787513318E9 ; 2.2755044604296276E10 ; 0.0
28 ; 4.348169682390882E7 ; 1.2036058615583081E9 ; 1.155614244354951E9 ; 2.395861066281449E10 ; 0.0
29 ; 4.353170064407649E7 ; 1.2036469879968991E9 ; 1.1990959411788597E9 ; 2.51622165243728E10 ; 0.0
30 ; 4.357842259280417E7 ; 1.2036893483871439E9 ; 1.2426276418229363E9 ; 2.6365863512369698E10 ; 0.0
31 ; 4.362730393985714E7 ; 1.2037328584833453E9 ; 1.2862060644157405E9 ; 2.756955286075684E10 ; 0.0
32 ; 4.3665489284775265E7 ; 1.2037774391929615E9 ; 1.3298333683555977E9 ; 2.8773285719240185E10 ; 0.0
33 ; 4.371607632301958E7 ; 1.203823016457726E9 ; 1.373498857640373E9 ; 2.9977063158433147E10 ; 0.0
34 ; 4.37549969343725E7 ; 1.2038695210824308E9 ; 1.4172149339633925E9 ; 3.1180886174890873E10 ; 0.0
35 ; 4.3796147193663016E7 ; 1.2039168885268943E9 ; 1.460969930897765E9 ; 3.2384755695973305E10 ; 0.0
36 ; 4.382918075768468E7 ; 1.2039650586737933E9 ; 1.504766078091428E9 ; 3.35886725845002E10 ; 0.0
37 ; 4.387321208700973E7 ; 1.2040139755825176E9 ; 1.5485952588491127E9 ; 3.479263764317399E10 ; 0.0
38 ; 4.3905285607339874E7 ; 1.204063587237002E9 ; 1.5924684709361224E9 ; 3.599665161875651E10 ; 0.0
39 ; 4.394258269064785E7 ; 1.2041138452936182E9 ; 1.6363737565434623E9 ; 3.720071520599351E10 ; 0.0
40 ; 4.397633987113233E7 ; 1.2041647048336763E9 ; 1.68031633923411E9 ; 3.8404829051287125E10 ; 0.0
41 ; 4.400131911233281E7 ; 1.2042161241238039E9 ; 1.7242926791052425E9 ; 3.9608993756120804E10 ; 0.0
42 ; 4.403723927593507E7 ; 1.2042680643864737E9 ; 1.7682939982175753E9 ; 4.0813209880244606E10 ; 0.0
43 ; 4.406454751015272E7 ; 1.2043204895821433E9 ; 1.8123312374935105E9 ; 4.201747794463108E10 ; 0.0
44 ; 4.408316199788979E7 ; 1.204373366203858E9 ; 1.8563957850036633E9 ; 4.322179843421323E10 ; 0.0
45 ; 4.411073565220821E7 ; 1.2044266630846844E9 ; 1.900478947001553E9 ; 4.442617180041708E10 ; 0.0
46 ; 4.414121879079421E7 ; 1.2044803512180045E9 ; 1.9445896826537614E9 ; 4.563059846350177E10 ; 0.0
47 ; 4.415567938404147E7 ; 1.2045344035904303E9 ; 1.9887309014445555E9 ; 4.683507881471977E10 ; 0.0
48 ; 4.417053043875762E7 ; 1.2045887950269256E9 ; 2.032886580828597E9 ; 4.80396132183102E10 ; 0.0
49 ; 4.419253253875339E7 ; 1.204643502047591E9 ; 2.0770571112673547E9 ; 4.924420201333713E10 ; 0.0
50 ; 4.419742423022895E7 ; 1.2046985027355003E9 ; 2.121249643806108E9 ; 5.044884551538472E10 ; 0.0
51 ; 4.421267686526297E7 ; 1.204753776614925E9 ; 2.165447068036337E9 ; 5.1653544018120224E10 ; 0.0
52 ; 4.422888425706226E7 ; 1.204809304539268E9 ; 2.2096597449016E9 ; 5.2858297794735146E10 ; 0.0
53 ; 4.424161097378487E7 ; 1.2048650685880365E9 ; 2.2538886291586623E9 ; 5.4063107099274414E10 ; 0.0
54 ; 4.425557180473254E7 ; 1.204921051972185E9 ; 2.2981302401324472E9 ; 5.526797216786245E10 ; 0.0
55 ; 4.426349896677691E7 ; 1.2049772389471974E9 ; 2.3423858119371796E9 ; 5.647289321983463E10 ; 0.0
56 ; 4.427796872114948E7 ; 1.2050336147332997E9 ; 2.3866493109039564E9 ; 5.767787045878183E10 ; 0.0
57 ; 4.4281084479433596E7 ; 1.2050901654422321E9 ; 2.430927279625106E9 ; 5.888290407351513E10 ; 0.0
58 ; 4.429585413735169E7 ; 1.2051468780100422E9 ; 2.4752083641045394E9 ; 6.008799423895736E10 ; 0.0
59 ; 4.4302938060359284E7 ; 1.2052037401354017E9 ; 2.519504218241891E9 ; 6.12931411169674E10 ; 0.0
60 ; 4.431124927631162E7 ; 1.2052607402229831E9 ; 2.5638071563022504E9 ; 6.24983448571028E10 ; 0.0
61 ; 4.432073879944209E7 ; 1.205317867331468E9 ; 2.608118405578562E9 ; 6.370360559732578E10 ; 0.0
62 ; 4.432722297271216E7 ; 1.205375111125793E9 ; 2.652439144378004E9 ; 6.490892346465725E10 ; 0.0
63 ; 4.4336376247896135E7 ; 1.2054324618332705E9 ; 2.696766367350716E9 ; 6.611429857578304E10 ; 0.0
64 ; 4.434363621481575E7 ; 1.2054899102032552E9 ; 2.7411027435986123E9 ; 6.731973103761631E10 ; 0.0
65 ; 4.4345797211432464E7 ; 1.2055474474700475E9 ; 2.785446379813428E9 ; 6.8525220947819565E10 ; 0.0
66 ; 4.435233851343694E7 ; 1.2056050653187618E9 ; 2.8297921770248604E9 ; 6.973076839528961E10 ; 0.0
67 ; 4.436210045749959E7 ; 1.2056627558538995E9 ; 2.874144515538297E9 ; 7.093637346060837E10 ; 0.0
68 ; 4.4358418703185216E7 ; 1.2057205115704024E9 ; 2.9185066159957967E9 ; 7.214203621646227E10 ; 0.0
69 ; 4.436840073766319E7 ; 1.2057783253269691E9 ; 2.962865034698982E9 ; 7.334775672803267E10 ; 0.0
70 ; 4.437407534032089E7 ; 1.205836190321446E9 ; 3.007233435436645E9 ; 7.455353505335963E10 ; 0.0
71 ; 4.437897926710044E7 ; 1.2058941000681145E9 ; 3.051607510776966E9 ; 7.575937124368108E10 ; 0.0
72 ; 4.437860260808272E7 ; 1.2059520483767188E9 ; 3.0959864900440664E9 ; 7.696526534374919E10 ; 0.0
73 ; 4.438512328725308E7 ; 1.206010029333082E9 ; 3.140365092652149E9 ; 7.817121739212592E10 ; 0.0
74 ; 4.439422082886727E7 ; 1.2060680372811852E9 ; 3.184750215939402E9 ; 7.9377227421459E10 ; 0.0
75 ; 4.438999196508207E7 ; 1.2061260668065841E9 ; 3.2291444367682695E9 ; 8.058329545874019E10 ; 0.0
76 ; 4.4394925256634705E7 ; 1.206184112721054E9 ; 3.2735344287333517E9 ; 8.178942152554677E10 ; 0.0
77 ; 4.4398408912984684E7 ; 1.2062421700483615E9 ; 3.3179293539899864E9 ; 8.299560563826782E10 ; 0.0
78 ; 4.437852771731572E7 ; 1.206300234011074E9 ; 3.3623277629029713E9 ; 8.420184780831618E10 ; 0.0
79 ; 4.4367588509647205E7 ; 1.2063583000183215E9 ; 3.406706290620287E9 ; 8.540814804232726E10 ; 0.0
80 ; 4.4351597603674375E7 ; 1.2064163636544328E9 ; 3.4510738791299343E9 ; 8.661450634234558E10 ; 0.0
81 ; 4.4350044931843E7 ; 1.2064744206683805E9 ; 3.4954254767336087E9 ; 8.782092270600002E10 ; 0.0
82 ; 4.433266128686863E7 ; 1.2065324669639676E9 ; 3.5397755216654515E9 ; 8.90273971266684E10 ; 0.0
83 ; 4.4317125706087925E7 ; 1.2065904985906973E9 ; 3.58410818295232E9 ; 9.023392959363237E10 ; 0.0
84 ; 4.429620132526171E7 ; 1.2066485117352762E9 ; 3.628425308658408E9 ; 9.144052009222307E10 ; 0.0
85 ; 4.428683041210948E7 ; 1.2067065027136986E9 ; 3.6727215099836698E9 ; 9.264716860395834E10 ; 0.0
86 ; 4.42742901151224E7 ; 1.2067644679638681E9 ; 3.717008340395779E9 ; 9.385387510667204E10 ; 0.0
87 ; 4.426202336876055E7 ; 1.2068224040387173E9 ; 3.7612826305109015E9 ; 9.506063957463591E10 ; 0.0
88 ; 4.424690205548932E7 ; 1.2068803075997858E9 ; 3.805544653879662E9 ; 9.626746197867462E10 ; 0.0
89 ; 4.422726649977502E7 ; 1.206938175411224E9 ; 3.8497915559351516E9 ; 9.747434228627441E10 ; 0.0
90 ; 4.4209837512131736E7 ; 1.2069960043341894E9 ; 3.8940188224349265E9 ; 9.868128046168564E10 ; 0.0
91 ; 4.419170434490265E7 ; 1.207053791321609E9 ; 3.938228659947058E9 ; 9.988827646601982E10 ; 0.0
92 ; 4.41727874896594E7 ; 1.2071115334132767E9 ; 3.9824203642919607E9 ; 1.0109533025734143E11 ; 0.0
93 ; 4.415917532448833E7 ; 1.2071692277312675E9 ; 4.02659315178162E9 ; 1.023024417907547E11 ; 0.0
94 ; 4.4146770576189846E7 ; 1.2072268714756382E9 ; 4.070752327106108E9 ; 1.0350961101848596E11 ; 0.0
95 ; 4.412000384191707E7 ; 1.2072844619204035E9 ; 4.114899097682298E9 ; 1.047168378899616E11 ; 0.0
96 ; 4.409793645419508E7 ; 1.2073419964097586E9 ; 4.159019101524215E9 ; 1.05924122351882E11 ; 0.0
97 ; 4.4082959478256874E7 ; 1.2073994723545356E9 ; 4.2031170379784102E9 ; 1.0713146434829176E11 ; 0.0
98 ; 4.406116956402879E7 ; 1.2074568872288804E9 ; 4.247199997456667E9 ; 1.083388638206463E11 ; 0.0
99 ; 4.40429662503029E7 ; 1.207514238567128E9 ; 4.2912611670206957E9 ; 1.0954632070787518E11 ; 0.0
100 ; 4.402436229780049E7 ; 1.2075715239608667E9 ; 4.335304133270999E9 ; 1.107538349464423E11 ; 0.0
101 ; 4.400353966346042E7 ; 1.20762874105618E9 ; 4.379328495568799E9 ; 1.1196140647040317E11 ; 0.0
102 ; 4.397690567684944E7 ; 1.2076858875510497E9 ; 4.42333203523226E9 ; 1.1316903521145935E11 ; 0.0
103 ; 4.395696475892758E7 ; 1.2077429611929119E9 ; 4.467308940909109E9 ; 1.143767210990104E11 ; 0.0
104 ; 4.393469304524302E7 ; 1.207799959776358E9 ; 4.511265905668036E9 ; 1.1558446406020332E11 ; 0.0
105 ; 4.391516477686355E7 ; 1.2078568811409645E9 ; 4.55520059871328E9 ; 1.1679226401997968E11 ; 0.0
106 ; 4.388021448104105E7 ; 1.2079137231692524E9 ; 4.599115763490143E9 ; 1.1800012090112064E11 ; 0.0
107 ; 4.386409541403148E7 ; 1.2079704837847586E9 ; 4.642995977971184E9 ; 1.1920803462428989E11 ; 0.0
108 ; 4.3836050375516936E7 ; 1.2080271609502194E9 ; 4.686860073385215E9 ; 1.2041600510807465E11 ; 0.0
109 ; 4.3820493542657286E7 ; 1.2080837526658535E9 ; 4.730696123760732E9 ; 1.2162403226902487E11 ; 0.0
110 ; 4.378884125724012E7 ; 1.208140256967743E9 ; 4.774516617303389E9 ; 1.2283211602169072E11 ; 0.0
111 ; 4.376096647945462E7 ; 1.2081966719263005E9 ; 4.818305458560629E9 ; 1.2404025627865846E11 ; 0.0
112 ; 4.3736942196163E7 ; 1.2082529956448252E9 ; 4.862066425040084E9 ; 1.2524845295058476E11 ; 0.0
113 ; 4.37102903107062E7 ; 1.2083092262581332E9 ; 4.905803367236247E9 ; 1.2645670594622958E11 ; 0.0
114 ; 4.368357618556554E7 ; 1.2083653619312625E9 ; 4.949513657546953E9 ; 1.2766501517248772E11 ; 0.0
115 ; 4.365212582230445E7 ; 1.2084214008582506E9 ; 4.993197233732519E9 ; 1.2887338053441898E11 ; 0.0
116 ; 4.362882447220711E7 ; 1.208477341260974E9 ; 5.036849359554824E9 ; 1.3008180193527722E11 ; 0.0
117 ; 4.359647590724829E7 ; 1.2085331813880496E9 ; 5.080478184027031E9 ; 1.312902792765382E11 ; 0.0
118 ; 4.3569927750386775E7 ; 1.208588919513795E9 ; 5.124074659934279E9 ; 1.3249881245792624E11 ; 0.0
119 ; 4.354543661801333E7 ; 1.2086445539372425E9 ; 5.167644587684667E9 ; 1.3370740137744003E11 ; 0.0
120 ; 4.351605132277516E7 ; 1.2087000829812045E9 ; 5.21119002430268E9 ; 1.3491604593137727E11 ; 0.0
121 ; 4.3485740536743306E7 ; 1.2087555049913847E9 ; 5.254706075625455E9 ; 1.3612474601435847E11 ; 0.0
122 ; 4.345111509857558E7 ; 1.2088108183355393E9 ; 5.298191816162198E9 ; 1.3733350151934985E11 ; 0.0
123 ; 4.34247349664748E7 ; 1.2088660214026766E9 ; 5.341642931260774E9 ; 1.385423123376854E11 ; 0.0
124 ; 4.339144378610125E7 ; 1.2089211126022978E9 ; 5.385067666227248E9 ; 1.3975117835908807E11 ; 0.0
125 ; 4.335625481866583E7 ; 1.2089760903636787E9 ; 5.42845911001335E9 ; 1.4096009947169037E11 ; 0.0
126 ; 4.3331977651644826E7 ; 1.2090309531351843E9 ; 5.471815364832015E9 ; 1.4216907556205405E11 ; 0.0
127 ; 4.3293733521546036E7 ; 1.2090856993836174E9 ; 5.51514734248366E9 ; 1.4337810651518924E11 ; 0.0
128 ; 4.3263827545086935E7 ; 1.2091403275936007E9 ; 5.558441076005206E9 ; 1.4458719221457285E11 ; 0.0
129 ; 4.323294210379628E7 ; 1.2091948362669883E9 ; 5.601704903550293E9 ; 1.4579633254216644E11 ; 0.0
130 ; 4.318899131784927E7 ; 1.209249223922307E9 ; 5.644937845654089E9 ; 1.4700552737843344E11 ; 0.0
131 ; 4.314139488493459E7 ; 1.209303489094221E9 ; 5.688126836971938E9 ; 1.4821477660235574E11 ; 0.0
132 ; 4.309006306338213E7 ; 1.2093576303330293E9 ; 5.731268231856873E9 ; 1.4942408009144995E11 ; 0.0
133 ; 4.30440295820294E7 ; 1.2094116462041779E9 ; 5.774358294920255E9 ; 1.50633437721783E11 ; 0.0
134 ; 4.299459016611169E7 ; 1.2094655352878036E9 ; 5.817402324502284E9 ; 1.5184284936798718E11 ; 0.0
135 ; 4.2948859270538375E7 ; 1.2095192961782944E9 ; 5.860396914668396E9 ; 1.53052314903275E11 ; 0.0
136 ; 4.2899313610178955E7 ; 1.2095729274838734E9 ; 5.903345773938934E9 ; 1.5426183419945328E11 ; 0.0
137 ; 4.28544742099046E7 ; 1.2096264278261983E9 ; 5.946245087549113E9 ; 1.5547140712693716E11 ; 0.0
138 ; 4.2798286172907844E7 ; 1.2096797958399854E9 ; 5.989099561759018E9 ; 1.5668103355476337E11 ; 0.0
139 ; 4.274716121389388E7 ; 1.2097330301726446E9 ; 6.031897847931926E9 ; 1.5789071335060336E11 ; 0.0
140 ; 4.270334073303506E7 ; 1.2097861294839373E9 ; 6.07464500914582E9 ; 1.59100446380776E11 ; 0.0
141 ; 4.265000290060486E7 ; 1.2098390924456441E9 ; 6.117348349878855E9 ; 1.6031023251025995E11 ; 0.0
142 ; 4.260085547897461E7 ; 1.2098919177412539E9 ; 6.15999835277946E9 ; 1.615200716027056E11 ; 0.0
143 ; 4.254112748818475E7 ; 1.209944604065661E9 ; 6.202599208258434E9 ; 1.6272996352044684E11 ; 0.0
144 ; 4.249547844618286E7 ; 1.2099971501248808E9 ; 6.245140335746619E9 ; 1.639399081245125E11 ; 0.0
145 ; 4.2463325146535926E7 ; 1.2100495546357746E9 ; 6.287635814192802E9 ; 1.651499052746374E11 ; 0.0
146 ; 4.242225558785927E7 ; 1.210101816325791E9 ; 6.330099139339338E9 ; 1.6635995482927316E11 ; 0.0
147 ; 4.2382604276467234E7 ; 1.210153933932714E9 ; 6.372521394927197E9 ; 1.6757005664559897E11 ; 0.0
148 ; 4.235160690505414E7 ; 1.2102059062044258E9 ; 6.414903999203665E9 ; 1.6878021057953168E11 ; 0.0
149 ; 4.2311484642332695E7 ; 1.2102577318986788E9 ; 6.457255606108719E9 ; 1.699904164857361E11 ; 0.0
150 ; 4.2276495144747294E7 ; 1.2103094097828789E9 ; 6.499567090751052E9 ; 1.712006742176348E11 ; 0.0
151 ; 4.223881934818005E7 ; 1.2103609386338754E9 ; 6.5418435858958E9 ; 1.7241098362741766E11 ; 0.0
152 ; 4.220163885215462E7 ; 1.210412317237764E9 ; 6.584082405243979E9 ; 1.7362134456605154E11 ; 0.0
153 ; 4.216260420198846E7 ; 1.2104635443896954E9 ; 6.626284044096134E9 ; 1.748317568832893E11 ; 0.0
154 ; 4.212654285925423E7 ; 1.2105146188936944E9 ; 6.668446648298122E9 ; 1.7604222042767902E11 ; 0.0
155 ; 4.2091556591319926E7 ; 1.210565539562485E9 ; 6.710573191157376E9 ; 1.7725273504657272E11 ; 0.0
156 ; 4.205396182914174E7 ; 1.2106163052173243E9 ; 6.752664747748696E9 ; 1.7846330058613522E11 ; 0.0
157 ; 4.2010696178216025E7 ; 1.210666914687843E9 ; 6.794718709577838E9 ; 1.7967391689135254E11 ; 0.0
158 ; 4.197754111971534E7 ; 1.2107173668118944E9 ; 6.836729405756054E9 ; 1.8088458380604037E11 ; 0.0
159 ; 4.1939520547786616E7 ; 1.2107676604354067E9 ; 6.87870694687577E9 ; 1.8209530117285226E11 ; 0.0
160 ; 4.190532257870783E7 ; 1.2108177944122448E9 ; 6.920646467423556E9 ; 1.8330606883328766E11 ; 0.0
161 ; 4.1858349353526175E7 ; 1.2108677676040764E9 ; 6.962551790002264E9 ; 1.845168866276999E11 ; 0.0
162 ; 4.1818901251162685E7 ; 1.2109175788802438E9 ; 7.00441013935579E9 ; 1.8572775439530396E11 ; 0.0
163 ; 4.17757134658268E7 ; 1.2109672271176429E9 ; 7.046229040606953E9 ; 1.869386719741842E11 ; 0.0
164 ; 4.173752468084766E7 ; 1.2110167112006042E9 ; 7.08800475407278E9 ; 1.8814963920130185E11 ; 0.0
165 ; 4.170155877276754E7 ; 1.211066030020783E9 ; 7.129742278753628E9 ; 1.8936065591250244E11 ; 0.0
166 ; 4.166033163336106E7 ; 1.2111151824770494E9 ; 7.171443837526395E9 ; 1.9057172194252322E11 ; 0.0
167 ; 4.162595234121478E7 ; 1.2111641674753878E9 ; 7.213104169159756E9 ; 1.9178283712500027E11 ; 0.0
168 ; 4.158751006231284E7 ; 1.2112129839287982E9 ; 7.254730121500971E9 ; 1.9299400129247568E11 ; 0.0
169 ; 4.153444379359255E7 ; 1.2112616307572005E9 ; 7.296317631563284E9 ; 1.9420521427640448E11 ; 0.0
170 ; 4.150406814474041E7 ; 1.2113101068873463E9 ; 7.337852075356876E9 ; 1.9541647590716168E11 ; 0.0
171 ; 4.14563282823743E7 ; 1.2113584112527308E9 ; 7.3793561435016165E9 ; 1.9662778601404904E11 ; 0.0
172 ; 4.142451468332301E7 ; 1.211406542793512E9 ; 7.420812471783991E9 ; 1.9783914442530176E11 ; 0.0
173 ; 4.138076800415927E7 ; 1.21145450045643E9 ; 7.462236986467314E9 ; 1.9905055096809528E11 ; 0.0
174 ; 4.135895640192477E7 ; 1.2115022831947312E9 ; 7.503617754471473E9 ; 2.002620054685517E11 ; 0.0
175 ; 4.134027402433412E7 ; 1.211549889968098E9 ; 7.544976710873398E9 ; 2.0147350775174643E11 ; 0.0
176 ; 4.130746751552768E7 ; 1.2115973197425756E9 ; 7.586316984897732E9 ; 2.0268505764171454E11 ; 0.0
177 ; 4.128253775964463E7 ; 1.2116445714905093E9 ; 7.6276244524132595E9 ; 2.0389665496145712E11 ; 0.0
178 ; 4.125659687226565E7 ; 1.2116916441904783E9 ; 7.668906990172904E9 ; 2.0510829953294763E11 ; 0.0
179 ; 4.124069760475373E7 ; 1.2117385368272357E9 ; 7.71016358704517E9 ; 2.0631999117713812E11 ; 0.0
180 ; 4.120704176587633E7 ; 1.2117852483916512E9 ; 7.751404284649923E9 ; 2.0753172971396536E11 ; 0.0
181 ; 4.118264363047519E7 ; 1.2118317778806522E9 ; 7.7926113264158E9 ; 2.0874351496235703E11 ; 0.0
182 ; 4.115727849032023E7 ; 1.2118781242971745E9 ; 7.833793970046275E9 ; 2.0995534674023767E11 ; 0.0
183 ; 4.113659503255482E7 ; 1.2119242866501086E9 ; 7.874951248536595E9 ; 2.1116722486453485E11 ; 0.0
184 ; 4.1106183672425315E7 ; 1.211970263954251E9 ; 7.91608784356915E9 ; 2.1237914915118497E11 ; 0.0
185 ; 4.108809730399818E7 ; 1.212016055230259E9 ; 7.957194027241575E9 ; 2.1359111941513922E11 ; 0.0
186 ; 4.1060571341971934E7 ; 1.2120616595046036E9 ; 7.998282124545573E9 ; 2.1480313547036948E11 ; 0.0
187 ; 4.1030821310514785E7 ; 1.2121070758095293E9 ; 8.039342695887546E9 ; 2.1601519712987408E11 ; 0.0
188 ; 4.100806117823101E7 ; 1.2121523031830122E9 ; 8.08037351719806E9 ; 2.1722730420568362E11 ; 0.0
189 ; 4.098826522956993E7 ; 1.2121973406687205E9 ; 8.121381578376291E9 ; 2.1843945650886664E11 ; 0.0
190 ; 4.095748745443809E7 ; 1.2122421873159776E9 ; 8.162369843605862E9 ; 2.1965165384953537E11 ; 0.0
191 ; 4.0938132708387114E7 ; 1.2122868421797266E9 ; 8.2033273310603E9 ; 2.2086389603685135E11 ; 0.0
192 ; 4.091334478501053E7 ; 1.2123313043204968E9 ; 8.244265463768687E9 ; 2.2207618287903107E11 ; 0.0
193 ; 4.088599817264969E7 ; 1.2123755728043704E9 ; 8.285178808553698E9 ; 2.2328851418335156E11 ; 0.0
194 ; 4.086670839030338E7 ; 1.2124196467029512E9 ; 8.326064806726347E9 ; 2.2450088975615594E11 ; 0.0
195 ; 4.084021263427104E7 ; 1.2124635250933368E9 ; 8.366931515116651E9 ; 2.257133094028589E11 ; 0.0
196 ; 4.0816010084497094E7 ; 1.2125072070580888E9 ; 8.407771727750921E9 ; 2.269257729279522E11 ; 0.0
197 ; 4.078479973523046E7 ; 1.212550691685206E9 ; 8.448587737835419E9 ; 2.2813828013501028E11 ; 0.0
