CSV File for the Network on Day 176
1 - Minute m 
2 - Power Consumed at minute m 
3 - Power Produced at minute m 
4 - Energy Consumed since the beginning of the day 
5 - Energy Produced since the beginning of the day 
6 - Energy Lost since the beginning of the day 
 
0 ; 1.040121815959646E7 ; 6.346804354698392E8 ; 0.0 ; 0.0 ; 0.0
1 ; 1.0432398083211156E7 ; 6.355909835861338E8 ; 1.040121815959646E7 ; 6.346804354698392E8 ; 0.0
2 ; 1.0471227252256073E7 ; 6.383549446854979E8 ; 2.0833616242807616E7 ; 1.270271419055973E9 ; 0.0
3 ; 1.051384893601257E7 ; 6.429723374529464E8 ; 3.130484349506369E7 ; 1.9086263637414708E9 ; 0.0
4 ; 1.0569513506630715E7 ; 6.494431786692103E8 ; 4.181869243107626E7 ; 2.551598701194417E9 ; 0.0
5 ; 1.0634215271357467E7 ; 6.577674831058077E8 ; 5.238820593770698E7 ; 3.2010418798636274E9 ; 0.0
6 ; 1.0716911426512644E7 ; 6.679452634306645E8 ; 6.302242120906445E7 ; 3.858809362969435E9 ; 0.0
7 ; 1.084387090545373E7 ; 6.799765301256682E8 ; 7.373933263557708E7 ; 4.5267546264001E9 ; 0.0
8 ; 1.1027964242077347E7 ; 6.93861291417388E8 ; 8.458320354103081E7 ; 5.206731156525768E9 ; 0.0
9 ; 1.1297482223854788E7 ; 7.095995532220289E8 ; 9.561116778310816E7 ; 5.900592447943156E9 ; 0.0
10 ; 1.173044886358691E7 ; 7.271913191054767E8 ; 1.0690865000696295E8 ; 6.610192001165185E9 ; 0.0
11 ; 1.241607149999616E7 ; 7.466365902590661E8 ; 1.1863909887054986E8 ; 7.337383320270661E9 ; 0.0
12 ; 1.351801685685121E7 ; 7.679353654914622E8 ; 1.3105517037054601E8 ; 8.084019910529728E9 ; 0.0
13 ; 1.4573493484300856E7 ; 7.910876412367792E8 ; 1.4457318722739723E8 ; 8.85195527602119E9 ; 0.0
14 ; 1.470256665166479E7 ; 8.160934115788127E8 ; 1.5914668071169809E8 ; 9.643042917257969E9 ; 0.0
15 ; 1.4738622275069585E7 ; 8.429526682909927E8 ; 1.7384924736336288E8 ; 1.0459136328836782E10 ; 0.0
16 ; 1.479235838356278E7 ; 8.716654008914325E8 ; 1.8858786963843247E8 ; 1.1302088997127775E10 ; 0.0
17 ; 1.483528575917381E7 ; 9.022315967122058E8 ; 2.0338022802199525E8 ; 1.2173754398019207E10 ; 0.0
18 ; 1.4886372913670164E7 ; 9.346512409817941E8 ; 2.1821551378116906E8 ; 1.3075985994731413E10 ; 0.0
19 ; 1.492990546893906E7 ; 9.689243169194672E8 ; 2.331018866948392E8 ; 1.4010637235713207E10 ; 0.0
20 ; 1.4975426088062905E7 ; 1.0050508058402094E9 ; 2.4803179216377828E8 ; 1.4979561552632675E10 ; 0.0
21 ; 1.502191230618855E7 ; 1.0430306872687149E9 ; 2.630072182518412E8 ; 1.5984612358472885E10 ; 0.0
22 ; 1.5072144530510023E7 ; 1.0828639390608873E9 ; 2.780291305580297E8 ; 1.70276430457416E10 ; 0.0
23 ; 1.5115483723701179E7 ; 1.124550537531255E9 ; 2.931012750885397E8 ; 1.8110506984802486E10 ; 0.0
24 ; 1.516047574938798E7 ; 1.1680904575847101E9 ; 3.082167588122409E8 ; 1.923505752233374E10 ; 0.0
25 ; 1.521269827992433E7 ; 1.2056119182401152E9 ; 3.233772345616289E8 ; 2.040314797991845E10 ; 0.0
26 ; 1.526401076733293E7 ; 1.2056361789874477E9 ; 3.385899328415532E8 ; 2.1608759898158566E10 ; 0.0
27 ; 1.5307286867380705E7 ; 1.2056618270728486E9 ; 3.538539436088861E8 ; 2.281439607714601E10 ; 0.0
28 ; 1.535808475002379E7 ; 1.205688833113431E9 ; 3.691612304762668E8 ; 2.402005790421886E10 ; 0.0
29 ; 1.5398599678521987E7 ; 1.2057171669882972E9 ; 3.845193152262906E8 ; 2.522574673733229E10 ; 0.0
30 ; 1.5437608056192808E7 ; 1.2057467979664009E9 ; 3.999179149048126E8 ; 2.6431463904320587E10 ; 0.0
31 ; 1.5485364428472795E7 ; 1.2057776948298113E9 ; 4.153555229610054E8 ; 2.7637210702286987E10 ; 0.0
32 ; 1.5528820455139808E7 ; 1.2058098259916246E9 ; 4.308408873894782E8 ; 2.88429883971168E10 ; 0.0
33 ; 1.5571516857478015E7 ; 1.205843159607884E9 ; 4.46369707844618E8 ; 3.004879822310842E10 ; 0.0
34 ; 1.5617214487873208E7 ; 1.2058776636830277E9 ; 4.6194122470209605E8 ; 3.1254641382716305E10 ; 0.0
35 ; 1.5653233758573446E7 ; 1.2059133061685035E9 ; 4.7755843918996924E8 ; 3.2460519046399334E10 ; 0.0
36 ; 1.5686748930221003E7 ; 1.2059500550543182E9 ; 4.932116729485427E8 ; 3.3666432352567837E10 ; 0.0
37 ; 1.5726402850708364E7 ; 1.2059878784533885E9 ; 5.0889842187876374E8 ; 3.4872382407622154E10 ; 0.0
38 ; 1.5762434657111717E7 ; 1.2060267446786773E9 ; 5.246248247294721E8 ; 3.607837028607555E10 ; 0.0
39 ; 1.579872694894151E7 ; 1.2060666223131742E9 ; 5.403872593865838E8 ; 3.728439703075423E10 ; 0.0
40 ; 1.5835293794742202E7 ; 1.2061074802728546E9 ; 5.561859863355253E8 ; 3.84904636530674E10 ; 0.0
41 ; 1.5859059776962513E7 ; 1.2061492878628283E9 ; 5.720212801302675E8 ; 3.9696571133340256E10 ; 0.0
42 ; 1.5889065558792036E7 ; 1.2061920148269238E9 ; 5.8788033990723E8 ; 4.090272042120309E10 ; 0.0
43 ; 1.5917034191769835E7 ; 1.2062356313910074E9 ; 6.03769405466022E8 ; 4.2108912436030014E10 ; 0.0
44 ; 1.593938657144332E7 ; 1.2062801083003664E9 ; 6.196864396577919E8 ; 4.331514806742102E10 ; 0.0
45 ; 1.5965151814837752E7 ; 1.2063254168515048E9 ; 6.356258262292352E8 ; 4.452142817572139E10 ; 0.0
46 ; 1.5984516454622915E7 ; 1.2063715289187145E9 ; 6.515909780440729E8 ; 4.572775359257289E10 ; 0.0
47 ; 1.600698940939795E7 ; 1.2064184169757988E9 ; 6.675754944986957E8 ; 4.693412512149161E10 ; 0.0
48 ; 1.6024893132704161E7 ; 1.2064660541133153E9 ; 6.835824839080937E8 ; 4.814054353846741E10 ; 0.0
49 ; 1.6045682653420635E7 ; 1.2065144140517147E9 ; 6.996073770407978E8 ; 4.934700959258072E10 ; 0.0
50 ; 1.6061670353458706E7 ; 1.2065634711507301E9 ; 7.156530596942185E8 ; 5.055352400663243E10 ; 0.0
51 ; 1.6070119022039872E7 ; 1.206613200415376E9 ; 7.317147300476773E8 ; 5.176008747778316E10 ; 0.0
52 ; 1.6083066947781472E7 ; 1.2066635774988818E9 ; 7.477848490697172E8 ; 5.296670067819853E10 ; 0.0
53 ; 1.6093679634203922E7 ; 1.2067145787028913E9 ; 7.638679160174986E8 ; 5.417336425569741E10 ; 0.0
54 ; 1.6114365499896824E7 ; 1.2067661809752226E9 ; 7.799615956517025E8 ; 5.53800788344003E10 ; 0.0
55 ; 1.6123405677362025E7 ; 1.206818361905476E9 ; 7.960759611515994E8 ; 5.658684501537552E10 ; 0.0
56 ; 1.613740065215277E7 ; 1.2068710997187538E9 ; 8.121993668289614E8 ; 5.7793663377281E10 ; 0.0
57 ; 1.6145843293124005E7 ; 1.2069243732677395E9 ; 8.283367674811141E8 ; 5.9000534476999756E10 ; 0.0
58 ; 1.6157197162822869E7 ; 1.206978162023359E9 ; 8.444826107742381E8 ; 6.0207458850267494E10 ; 0.0
59 ; 1.6169287666432397E7 ; 1.2070324460642402E9 ; 8.60639807937061E8 ; 6.1414437012290855E10 ; 0.0
60 ; 1.617223424733182E7 ; 1.207087206065151E9 ; 8.768090956034933E8 ; 6.2621469458355095E10 ; 0.0
61 ; 1.6184583976784024E7 ; 1.2071424232845976E9 ; 8.929813298508252E8 ; 6.382855666442024E10 ; 0.0
62 ; 1.620158869787851E7 ; 1.207198079551735E9 ; 9.091659138276092E8 ; 6.503569908770484E10 ; 0.0
63 ; 1.6208254452271782E7 ; 1.2072541572527328E9 ; 9.253675025254877E8 ; 6.624289716725658E10 ; 0.0
64 ; 1.6217878867945865E7 ; 1.207310639316722E9 ; 9.415757569777595E8 ; 6.745015132450931E10 ; 0.0
65 ; 1.6221880056257967E7 ; 1.207367509201435E9 ; 9.577936358457054E8 ; 6.865746196382603E10 ; 0.0
66 ; 1.62360635917429E7 ; 1.2074247508786426E9 ; 9.740155159019634E8 ; 6.986482947302747E10 ; 0.0
67 ; 1.6234602497729965E7 ; 1.2074823488194726E9 ; 9.902515794937062E8 ; 7.107225422390611E10 ; 0.0
68 ; 1.6245207374255057E7 ; 1.2075402879796898E9 ; 1.0064861819914362E9 ; 7.227973657272559E10 ; 0.0
69 ; 1.625633506469572E7 ; 1.2075985537850075E9 ; 1.0227313893656913E9 ; 7.348727686070528E10 ; 0.0
70 ; 1.6262375831220627E7 ; 1.2076571321164842E9 ; 1.038987724430387E9 ; 7.469487541449028E10 ; 0.0
71 ; 1.62716479229144E7 ; 1.2077160092960649E9 ; 1.0552501002616076E9 ; 7.590253254660677E10 ; 0.0
72 ; 1.6271755775186367E7 ; 1.2077751720723019E9 ; 1.071521748184522E9 ; 7.711024855590283E10 ; 0.0
73 ; 1.6281754196927624E7 ; 1.2078346076063E9 ; 1.0877935039597085E9 ; 7.831802372797513E10 ; 0.0
74 ; 1.6284762733682621E7 ; 1.2078943034579105E9 ; 1.104075258156636E9 ; 7.952585833558142E10 ; 0.0
75 ; 1.6286284645794984E7 ; 1.2079542475722048E9 ; 1.1203600208903186E9 ; 8.073375263903934E10 ; 0.0
76 ; 1.6300237454459857E7 ; 1.2080144282662473E9 ; 1.1366463055361135E9 ; 8.194170688661154E10 ; 0.0
77 ; 1.6307653808263144E7 ; 1.2080748342161834E9 ; 1.1529465429905734E9 ; 8.314972131487779E10 ; 0.0
78 ; 1.6299869962203896E7 ; 1.2081354544446552E9 ; 1.1692541967988365E9 ; 8.435779614909398E10 ; 0.0
79 ; 1.6287062108648494E7 ; 1.2081962783085575E9 ; 1.1855540667610404E9 ; 8.556593160353864E10 ; 0.0
80 ; 1.6268780456132978E7 ; 1.2082572954871378E9 ; 1.201841128869689E9 ; 8.67741278818472E10 ; 0.0
81 ; 1.6271932768233545E7 ; 1.208318495970447E9 ; 1.2181099093258219E9 ; 8.798238517733434E10 ; 0.0
82 ; 1.6266459532528855E7 ; 1.208379870048141E9 ; 1.2343818420940554E9 ; 8.919070367330478E10 ; 0.0
83 ; 1.6250923844292253E7 ; 1.2084414082986348E9 ; 1.2506483016265843E9 ; 9.039908354335292E10 ; 0.0
84 ; 1.6238285447560318E7 ; 1.2085031015786052E9 ; 1.2668992254708765E9 ; 9.160752495165155E10 ; 0.0
85 ; 1.622884822295956E7 ; 1.2085649410128443E9 ; 1.2831375109184368E9 ; 9.281602805323015E10 ; 0.0
86 ; 1.6212521764089799E7 ; 1.208626917984453E9 ; 1.2993663591413963E9 ; 9.4024592994243E10 ; 0.0
87 ; 1.620810487215906E7 ; 1.2086890241253738E9 ; 1.315578880905486E9 ; 9.523321991222745E10 ; 0.0
88 ; 1.6201303414082695E7 ; 1.208751251307256E9 ; 1.331786985777645E9 ; 9.644190893635281E10 ; 0.0
89 ; 1.6182259571037073E7 ; 1.208813591632646E9 ; 1.3479882891917279E9 ; 9.765066018766006E10 ; 0.0
90 ; 1.6178646338382855E7 ; 1.2088760374264965E9 ; 1.364170548762765E9 ; 9.885947377929271E10 ; 0.0
91 ; 1.6166799189806953E7 ; 1.2089385812279832E9 ; 1.380349195101148E9 ; 1.0006834981671921E11 ; 0.0
92 ; 1.6149433626015525E7 ; 1.2090012157826285E9 ; 1.3965159942909548E9 ; 1.0127728839794719E11 ; 0.0
93 ; 1.613785028317479E7 ; 1.2090639340347147E9 ; 1.4126654279169703E9 ; 1.0248628961372981E11 ; 0.0
94 ; 1.6120005900984082E7 ; 1.209126729119986E9 ; 1.428803278200145E9 ; 1.0369535354776453E11 ; 0.0
95 ; 1.6109186487708595E7 ; 1.209189594358625E9 ; 1.444923284101129E9 ; 1.049044802768845E11 ; 0.0
96 ; 1.6096217969483212E7 ; 1.2092525232484982E9 ; 1.4610324705888376E9 ; 1.0611366987124313E11 ; 0.0
97 ; 1.608154457156315E7 ; 1.2093155094586625E9 ; 1.4771286885583208E9 ; 1.0732292239449164E11 ; 0.0
98 ; 1.6066645975382276E7 ; 1.2093785468231196E9 ; 1.493210233129884E9 ; 1.085322379039503E11 ; 0.0
99 ; 1.605947161909626E7 ; 1.2094416293348157E9 ; 1.5092768791052663E9 ; 1.0974161645077342E11 ; 0.0
100 ; 1.6038910356626619E7 ; 1.2095047511398716E9 ; 1.5253363507243626E9 ; 1.1095105808010823E11 ; 0.0
101 ; 1.6023801861247165E7 ; 1.2095679065320418E9 ; 1.5413752610809891E9 ; 1.1216056283124811E11 ; 0.0
102 ; 1.6011052354633594E7 ; 1.2096310899473891E9 ; 1.5573990629422362E9 ; 1.1337013073778015E11 ; 0.0
103 ; 1.5991859335205838E7 ; 1.2096942959591684E9 ; 1.5734101152968698E9 ; 1.1457976182772754E11 ; 0.0
104 ; 1.5979436597405903E7 ; 1.2097575192729125E9 ; 1.5894019746320755E9 ; 1.157894561236867E11 ; 0.0
105 ; 1.5956238522349272E7 ; 1.2098207547217112E9 ; 1.6053814112294815E9 ; 1.1699921364295963E11 ; 0.0
106 ; 1.594353602903444E7 ; 1.2098839972616777E9 ; 1.6213376497518308E9 ; 1.1820903439768134E11 ; 0.0
107 ; 1.5926060192127453E7 ; 1.2099472419675941E9 ; 1.6372811857808652E9 ; 1.1941891839494301E11 ; 0.0
108 ; 1.590938515565334E7 ; 1.2100104840287285E9 ; 1.6532072459729927E9 ; 1.206288656369106E11 ; 0.0
109 ; 1.589253910613942E7 ; 1.2100737187448177E9 ; 1.669116631128646E9 ; 1.2183887612093933E11 ; 0.0
110 ; 1.5868335936178029E7 ; 1.2101369415222094E9 ; 1.6850091702347853E9 ; 1.2304894983968414E11 ; 0.0
111 ; 1.5859967346223066E7 ; 1.210200147870158E9 ; 1.7008775061709633E9 ; 1.2425908678120636E11 ; 0.0
112 ; 1.5838563713709734E7 ; 1.210263333397264E9 ; 1.7167374735171864E9 ; 1.2546928692907652E11 ; 0.0
113 ; 1.5812758670821503E7 ; 1.2103264938080568E9 ; 1.7325760372308962E9 ; 1.2667955026247379E11 ; 0.0
114 ; 1.5797029126688965E7 ; 1.2103896248997118E9 ; 1.7483887959017177E9 ; 1.2788987675628185E11 ; 0.0
115 ; 1.5777151338182777E7 ; 1.210452722558896E9 ; 1.7641858250284066E9 ; 1.2910026638118156E11 ; 0.0
116 ; 1.5751937065844009E7 ; 1.2105157827587385E9 ; 1.7799629763665893E9 ; 1.3031071910374046E11 ; 0.0
117 ; 1.5732768692087067E7 ; 1.2105788015559208E9 ; 1.7957149134324334E9 ; 1.315212348864992E11 ; 0.0
118 ; 1.5716892296080135E7 ; 1.210641775087881E9 ; 1.8114476821245205E9 ; 1.3273181368805513E11 ; 0.0
119 ; 1.5694169895935252E7 ; 1.210704699570126E9 ; 1.8271645744206007E9 ; 1.33942455463143E11 ; 0.0
120 ; 1.5678091490225205E7 ; 1.2107675712936528E9 ; 1.842858744316536E9 ; 1.3515316016271313E11 ; 0.0
121 ; 1.5648327528323762E7 ; 1.2108303866224651E9 ; 1.8585368358067613E9 ; 1.3636392773400679E11 ; 0.0
122 ; 1.5630546056398401E7 ; 1.2108931419911919E9 ; 1.874185163335085E9 ; 1.3757475812062924E11 ; 0.0
123 ; 1.5606913299466062E7 ; 1.2109558339027958E9 ; 1.8898157093914833E9 ; 1.3878565126262042E11 ; 0.0
124 ; 1.558056446415626E7 ; 1.2110184589263701E9 ; 1.9054226226909494E9 ; 1.3999660709652322E11 ; 0.0
125 ; 1.5558068434381228E7 ; 1.211081013695023E9 ; 1.9210031871551056E9 ; 1.412076255554496E11 ; 0.0
126 ; 1.5538090812170906E7 ; 1.2111434949038417E9 ; 1.9365612555894868E9 ; 1.4241870656914462E11 ; 0.0
127 ; 1.5520346906872477E7 ; 1.2112058993079362E9 ; 1.9520993464016578E9 ; 1.4362985006404846E11 ; 0.0
128 ; 1.5495302347267631E7 ; 1.211268223720557E9 ; 1.9676196933085303E9 ; 1.4484105596335638E11 ; 0.0
129 ; 1.5464616725930143E7 ; 1.2113304650112863E9 ; 1.983114995655798E9 ; 1.4605232418707693E11 ; 0.0
130 ; 1.544157121831408E7 ; 1.2113926201042967E9 ; 1.9985796123817282E9 ; 1.4726365465208823E11 ; 0.0
131 ; 1.540037278516529E7 ; 1.211454685976678E9 ; 2.0140211836000423E9 ; 1.4847504727219254E11 ; 0.0
132 ; 1.5360334349483032E7 ; 1.2115166596568258E9 ; 2.0294215563852077E9 ; 1.4968650195816922E11 ; 0.0
133 ; 1.5328205841336336E7 ; 1.211578538222893E9 ; 2.0447818907346907E9 ; 1.5089801861782605E11 ; 0.0
134 ; 1.528689538682302E7 ; 1.2116403188012972E9 ; 2.060110096576027E9 ; 1.5210959715604895E11 ; 0.0
135 ; 1.5250158149829514E7 ; 1.2117019985652866E9 ; 2.0753969919628499E9 ; 1.5332123747485025E11 ; 0.0
136 ; 1.5204903563157689E7 ; 1.21176357473356E9 ; 2.0906471501126795E9 ; 1.5453293947341553E11 ; 0.0
137 ; 1.516985035224514E7 ; 1.2118250445689356E9 ; 2.1058520536758373E9 ; 1.5574470304814908E11 ; 0.0
138 ; 1.5125672252707545E7 ; 1.2118864053770714E9 ; 2.1210219040280824E9 ; 1.5695652809271802E11 ; 0.0
139 ; 1.5078976642680984E7 ; 1.211947654505234E9 ; 2.1361475762807899E9 ; 1.581684144980951E11 ; 0.0
140 ; 1.504437036380766E7 ; 1.212008789341111E9 ; 2.151226552923471E9 ; 1.5938036215260034E11 ; 0.0
141 ; 1.500197981861333E7 ; 1.2120698073116689E9 ; 2.1662709232872787E9 ; 1.6059237094194147E11 ; 0.0
142 ; 1.4962207814127387E7 ; 1.2121307058820515E9 ; 2.181272903105892E9 ; 1.6180444074925314E11 ; 0.0
143 ; 1.4924520358867936E7 ; 1.2121914825545206E9 ; 2.1962351109200196E9 ; 1.630165714551352E11 ; 0.0
144 ; 1.487794507620075E7 ; 1.2122521348674343E9 ; 2.2111596312788877E9 ; 1.6422876293768973E11 ; 0.0
145 ; 1.4850213083316054E7 ; 1.2123126603942611E9 ; 2.2260375763550887E9 ; 1.6544101507255716E11 ; 0.0
146 ; 1.4828552323164195E7 ; 1.2123730567426338E9 ; 2.2408877894384046E9 ; 1.6665332773295142E11 ; 0.0
147 ; 1.480241512603784E7 ; 1.212433321553434E9 ; 2.2557163417615685E9 ; 1.6786570078969406E11 ; 0.0
148 ; 1.4784115178407503E7 ; 1.2124934524999104E9 ; 2.2705187568876066E9 ; 1.690781341112475E11 ; 0.0
149 ; 1.4759233135774892E7 ; 1.2125534472868314E9 ; 2.2853028720660143E9 ; 1.702906275637474E11 ; 0.0
150 ; 1.472689025777072E7 ; 1.2126133036496632E9 ; 2.3000621052017894E9 ; 1.7150318101103424E11 ; 0.0
151 ; 1.470751656048369E7 ; 1.2126730193537827E9 ; 2.31478899545956E9 ; 1.727157943146839E11 ; 0.0
152 ; 1.467734967495365E7 ; 1.2127325921937149E9 ; 2.3294965120200434E9 ; 1.739284673340377E11 ; 0.0
153 ; 1.4640586107443834E7 ; 1.2127920199923975E9 ; 2.344173861694997E9 ; 1.751411999262314E11 ; 0.0
154 ; 1.462527574217332E7 ; 1.212851300600474E9 ; 2.3588144478024406E9 ; 1.7635399194622382E11 ; 0.0
155 ; 1.4601280006765205E7 ; 1.2129104318956091E9 ; 2.373439723544614E9 ; 1.7756684324682428E11 ; 0.0
156 ; 1.4576498911546636E7 ; 1.2129694117818296E9 ; 2.388041003551379E9 ; 1.7877975367871988E11 ; 0.0
157 ; 1.4547230618361643E7 ; 1.2130282381888871E9 ; 2.402617502462926E9 ; 1.799927230905017E11 ; 0.0
158 ; 1.4518186963196537E7 ; 1.2130869090716457E9 ; 2.4171647330812874E9 ; 1.8120575132869058E11 ; 0.0
159 ; 1.4496674774909697E7 ; 1.213145422409488E9 ; 2.431682920044484E9 ; 1.8241883823776224E11 ; 0.0
160 ; 1.4472975639409916E7 ; 1.2132037762057421E9 ; 2.4461795948193936E9 ; 1.8363198366017172E11 ; 0.0
161 ; 1.4443387459509265E7 ; 1.2132619684871318E9 ; 2.4606525704588037E9 ; 1.8484518743637747E11 ; 0.0
162 ; 1.4425064174775362E7 ; 1.2133199973032408E9 ; 2.475095957918313E9 ; 1.860584494048646E11 ; 0.0
163 ; 1.4388924452190105E7 ; 1.2133778607259984E9 ; 2.489521022093088E9 ; 1.8727176940216785E11 ; 0.0
164 ; 1.4369602269094301E7 ; 1.2134355568491836E9 ; 2.503909946545278E9 ; 1.8848514726289386E11 ; 0.0
165 ; 1.4344358597145308E7 ; 1.2134930837879422E9 ; 2.5182795488143725E9 ; 1.8969858281974304E11 ; 0.0
166 ; 1.4314789652690116E7 ; 1.2135504396783254E9 ; 2.5326239074115176E9 ; 1.9091207590353098E11 ; 0.0
167 ; 1.4295995530332018E7 ; 1.21360762267684E9 ; 2.5469386970642076E9 ; 1.921256263432093E11 ; 0.0
168 ; 1.427186034182764E7 ; 1.2136646309600165E9 ; 2.5612346925945396E9 ; 1.9333923396588614E11 ; 0.0
169 ; 1.4231297787940565E7 ; 1.213721462723989E9 ; 2.5755065529363675E9 ; 1.9455289859684616E11 ; 0.0
170 ; 1.420172469850559E7 ; 1.213778116184093E9 ; 2.589737850724308E9 ; 1.9576662005957016E11 ; 0.0
171 ; 1.4178308944914829E7 ; 1.2138345895744731E9 ; 2.6039395754228134E9 ; 1.9698039817575424E11 ; 0.0
172 ; 1.4151481411748737E7 ; 1.2138908811477067E9 ; 2.618117884367728E9 ; 1.981942327653287E11 ; 0.0
173 ; 1.4138554764807105E7 ; 1.2139469891744375E9 ; 2.632269365779477E9 ; 1.994081236464764E11 ; 0.0
174 ; 1.4106444076583873E7 ; 1.2140029119430237E9 ; 2.6464079205442843E9 ; 2.0062207063565085E11 ; 0.0
175 ; 1.4084226237932606E7 ; 1.214058647759196E9 ; 2.660514364620868E9 ; 2.0183607354759387E11 ; 0.0
176 ; 1.4065993680403953E7 ; 1.214114194945729E9 ; 2.674598590858801E9 ; 2.0305013219535306E11 ; 0.0
177 ; 1.4054275137986697E7 ; 1.2141695518421211E9 ; 2.688664584539205E9 ; 2.042642463902988E11 ; 0.0
178 ; 1.403411659531587E7 ; 1.214224716804286E9 ; 2.7027188596771917E9 ; 2.0547841594214093E11 ; 0.0
179 ; 1.4005986003624214E7 ; 1.214279688204255E9 ; 2.7167529762725077E9 ; 2.0669264065894522E11 ; 0.0
180 ; 1.3988345785698354E7 ; 1.2143344644298882E9 ; 2.730758962276132E9 ; 2.0790692034714948E11 ; 0.0
181 ; 1.3968859963778041E7 ; 1.2143890438845952E9 ; 2.7447473080618305E9 ; 2.0912125481157938E11 ; 0.0
182 ; 1.3942518016929885E7 ; 1.2144434249870646E9 ; 2.7587161680256085E9 ; 2.1033564385546396E11 ; 0.0
183 ; 1.3929770457233723E7 ; 1.2144976061710043E9 ; 2.7726586860425386E9 ; 2.1155008728045102E11 ; 0.0
184 ; 1.3901399070671218E7 ; 1.2145515858848867E9 ; 2.7865884564997725E9 ; 2.12764584886622E11 ; 0.0
185 ; 1.3891707343618322E7 ; 1.2146053625917053E9 ; 2.8004898555704436E9 ; 2.139791364725069E11 ; 0.0
186 ; 1.3858736536391443E7 ; 1.214658934768738E9 ; 2.814381562914062E9 ; 2.151937418350986E11 ; 0.0
187 ; 1.383520061180481E7 ; 1.2147123009073176E9 ; 2.8282402994504533E9 ; 2.1640840076986734E11 ; 0.0
188 ; 1.3824060825469114E7 ; 1.21476545951261E9 ; 2.8420755000622582E9 ; 2.1762311307077466E11 ; 0.0
189 ; 1.3799253920577507E7 ; 1.2148184091033993E9 ; 2.8558995608877273E9 ; 2.1883787853028726E11 ; 0.0
190 ; 1.378878995227058E7 ; 1.2148711482118814E9 ; 2.869698814808305E9 ; 2.2005269693939066E11 ; 0.0
191 ; 1.376687810866179E7 ; 1.2149236753834615E9 ; 2.8834876047605753E9 ; 2.2126756808760254E11 ; 0.0
192 ; 1.3740892557626951E7 ; 1.2149759891765597E9 ; 2.897254482869237E9 ; 2.22482491762986E11 ; 0.0
193 ; 1.372438969531694E7 ; 1.2150280881624227E9 ; 2.9109953754268637E9 ; 2.2369746775216257E11 ; 0.0
194 ; 1.3702932637336077E7 ; 1.215079970924941E9 ; 2.9247197651221805E9 ; 2.2491249584032498E11 ; 0.0
195 ; 1.3683024381748484E7 ; 1.2151316360604727E9 ; 2.9384226977595167E9 ; 2.261275758112499E11 ; 0.0
