CSV File for the Network on Day 213
1 - Minute m 
2 - Power Consumed at minute m 
3 - Power Produced at minute m 
4 - Energy Consumed since the beginning of the day 
5 - Energy Produced since the beginning of the day 
6 - Energy Lost since the beginning of the day 
 
0 ; 2472661.8724215496 ; 6.327368292675694E8 ; 0.0 ; 0.0 ; 0.0
1 ; 2513043.853323587 ; 6.336400284472859E8 ; 2472661.8724215496 ; 6.327368292675694E8 ; 0.0
2 ; 2559937.948363573 ; 6.36397213315858E8 ; 4985705.725745137 ; 1.2663768577148552E9 ; 0.0
3 ; 2608317.239609159 ; 6.410084626926887E8 ; 7545643.67410871 ; 1.902774071030713E9 ; 0.0
4 ; 2673789.7869957937 ; 6.474738501518241E8 ; 1.015396091371787E7 ; 2.543782533723402E9 ; 0.0
5 ; 2749241.0329884696 ; 6.557934427488458E8 ; 1.2827750700713664E7 ; 3.191256383875226E9 ; 0.0
6 ; 2846677.870985642 ; 6.659672997734824E8 ; 1.5576991733702134E7 ; 3.847049826624072E9 ; 0.0
7 ; 2976921.7167969206 ; 6.779954715763173E8 ; 1.8423669604687776E7 ; 4.513017126397554E9 ; 0.0
8 ; 3165933.794618468 ; 6.918779985197682E8 ; 2.1400591321484696E7 ; 5.191012597973871E9 ; 0.0
9 ; 3452757.331767766 ; 7.076149101018484E8 ; 2.4566525116103165E7 ; 5.882890596493639E9 ; 0.0
10 ; 3898359.15614812 ; 7.252062242957132E8 ; 2.8019282447870933E7 ; 6.590505506595488E9 ; 0.0
11 ; 4592346.3159396835 ; 7.446519471388856E8 ; 3.1917641604019053E7 ; 7.315711730891201E9 ; 0.0
12 ; 5703703.315647032 ; 7.659520725938426E8 ; 3.650998791995874E7 ; 8.0603636780300865E9 ; 0.0
13 ; 6771751.852933339 ; 7.891065826874284E8 ; 4.221369123560578E7 ; 8.82631575062393E9 ; 0.0
14 ; 6904245.044224303 ; 8.141154479216309E8 ; 4.8985443088539116E7 ; 9.615422333311357E9 ; 0.0
15 ; 6956479.5420634635 ; 8.40978627934031E8 ; 5.5889688132763416E7 ; 1.0429537781232988E10 ; 0.0
16 ; 7016694.858214943 ; 8.696960723740464E8 ; 6.2846167674826875E7 ; 1.1270516409167019E10 ; 0.0
17 ; 7067197.0156977 ; 9.002677219519479E8 ; 6.986286253304182E7 ; 1.2140212481541065E10 ; 0.0
18 ; 7128564.232942488 ; 9.326935096121542E8 ; 7.693005954873952E7 ; 1.3040480203493013E10 ; 0.0
19 ; 7183996.883401275 ; 9.669733617806191E8 ; 8.405862378168201E7 ; 1.3973173713105167E10 ; 0.0
20 ; 7245086.150864427 ; 1.0031071996379396E9 ; 9.124262066508329E7 ; 1.4940147074885786E10 ; 0.0
21 ; 7302444.419518187 ; 1.0410949403744979E9 ; 9.848770681594771E7 ; 1.5943254274523726E10 ; 0.0
22 ; 7355746.1123721 ; 1.0809364983906698E9 ; 1.057901512354659E8 ; 1.6984349214898224E10 ; 0.0
23 ; 7417199.78720011 ; 1.1226317864130154E9 ; 1.13145897347838E8 ; 1.8065285713288895E10 ; 0.0
24 ; 7472499.92762146 ; 1.166180716505585E9 ; 1.2056309713503811E8 ; 1.9187917499701912E10 ; 0.0
25 ; 7532324.137777746 ; 1.2037114463524435E9 ; 1.2803559706265956E8 ; 2.0354098216207497E10 ; 0.0
26 ; 7588361.234882917 ; 1.2037451762486262E9 ; 1.355679212004373E8 ; 2.155780966255994E10 ; 0.0
27 ; 7644504.545119256 ; 1.2037804368952248E9 ; 1.4315628243532023E8 ; 2.2761554838808567E10 ; 0.0
28 ; 7699127.434475323 ; 1.2038171454063416E9 ; 1.5080078698043948E8 ; 2.3965335275703793E10 ; 0.0
29 ; 7757981.1893352745 ; 1.2038552214834576E9 ; 1.5849991441491482E8 ; 2.5169152421110134E10 ; 0.0
30 ; 7816517.774476532 ; 1.203894587729075E9 ; 1.662578956042501E8 ; 2.637300764259359E10 ; 0.0
31 ; 7869967.6684048865 ; 1.2039351698704836E9 ; 1.7407441337872663E8 ; 2.7576902230322666E10 ; 0.0
32 ; 7921760.1422494445 ; 1.2039768969054925E9 ; 1.819443810471315E8 ; 2.878083740019315E10 ; 0.0
33 ; 7973495.273600513 ; 1.2040197011817832E9 ; 1.8986614118938094E8 ; 2.998481429709864E10 ; 0.0
34 ; 8019807.411448468 ; 1.2040635184209502E9 ; 1.9783963646298146E8 ; 3.1188833998280422E10 ; 0.0
35 ; 8072515.14533877 ; 1.2041082876974096E9 ; 2.0585944387442994E8 ; 3.2392897516701374E10 ; 0.0
36 ; 8126290.328213068 ; 1.2041539513813167E9 ; 2.1393195901976871E8 ; 3.3597005804398785E10 ; 0.0
37 ; 8173693.709654276 ; 1.2042004550535202E9 ; 2.2205824934798178E8 ; 3.48011597557801E10 ; 0.0
38 ; 8216177.51211794 ; 1.204247747399487E9 ; 2.3023194305763605E8 ; 3.600536021083362E10 ; 0.0
39 ; 8266415.528554305 ; 1.204295780088069E9 ; 2.38448120569754E8 ; 3.720960795823311E10 ; 0.0
40 ; 8302514.758828861 ; 1.2043445076400125E9 ; 2.4671453609830832E8 ; 3.8413903738321175E10 ; 0.0
41 ; 8350586.30331182 ; 1.2043938872902415E9 ; 2.5501705085713717E8 ; 3.961824824596119E10 ; 0.0
42 ; 8388354.077434678 ; 1.204443878847168E9 ; 2.63367637160449E8 ; 4.0822642133251434E10 ; 0.0
43 ; 8426318.861291584 ; 1.2044944445516129E9 ; 2.717559912378837E8 ; 4.20270860120986E10 ; 0.0
44 ; 8464063.90648055 ; 1.2045455489373608E9 ; 2.801823100991753E8 ; 4.3231580456650215E10 ; 0.0
45 ; 8501894.518329356 ; 1.204597158694878E9 ; 2.886463740056558E8 ; 4.443612600558758E10 ; 0.0
46 ; 8536011.688336339 ; 1.204649242539338E9 ; 2.971482685239852E8 ; 4.5640723164282455E10 ; 0.0
47 ; 8561929.697716326 ; 1.2047017710837624E9 ; 3.056842802123215E8 ; 4.684537240682179E10 ; 0.0
48 ; 8589937.228865955 ; 1.2047547167178237E9 ; 3.142462099100379E8 ; 4.8050074177905556E10 ; 0.0
49 ; 8619892.951927574 ; 1.204808053492644E9 ; 3.2283614713890386E8 ; 4.925482889462338E10 ; 0.0
50 ; 8647696.036770888 ; 1.204861757011755E9 ; 3.3145604009083146E8 ; 5.045963694811603E10 ; 0.0
51 ; 8668592.009657327 ; 1.2049158043282537E9 ; 3.4010373612760234E8 ; 5.1664498705127785E10 ; 0.0
52 ; 8696347.651254427 ; 1.2049701738480892E9 ; 3.4877232813725966E8 ; 5.286941450945604E10 ; 0.0
53 ; 8718508.0522644 ; 1.2050248452393389E9 ; 3.574686757885141E8 ; 5.407438468330413E10 ; 0.0
54 ; 8743535.425314954 ; 1.205079799347282E9 ; 3.6618718384077847E8 ; 5.527940952854347E10 ; 0.0
55 ; 8767064.640060557 ; 1.2051350181150355E9 ; 3.7493071926609343E8 ; 5.6484489327890755E10 ; 0.0
56 ; 8787452.912905656 ; 1.205190484509494E9 ; 3.83697783906154E8 ; 5.768962434600579E10 ; 0.0
57 ; 8809010.532884182 ; 1.2052461824523005E9 ; 3.924852368190596E8 ; 5.889481483051528E10 ; 0.0
58 ; 8834622.967225783 ; 1.2053020967555728E9 ; 4.012942473519438E8 ; 6.010006101296758E10 ; 0.0
59 ; 8852459.317701586 ; 1.2053582130620947E9 ; 4.101288703191696E8 ; 6.130536310972315E10 ; 0.0
60 ; 8878246.876325136 ; 1.2054145177897058E9 ; 4.1898132963687116E8 ; 6.251072132278525E10 ; 0.0
61 ; 8900915.805475045 ; 1.2054709980796106E9 ; 4.278595765131963E8 ; 6.371613584057495E10 ; 0.0
62 ; 8918531.084855195 ; 1.205527641748354E9 ; 4.3676049231867135E8 ; 6.4921606838654564E10 ; 0.0
63 ; 8941696.247071479 ; 1.2055844372432063E9 ; 4.4567902340352654E8 ; 6.6127134480402916E10 ; 0.0
64 ; 8960717.745370038 ; 1.2056413736007285E9 ; 4.5462071965059805E8 ; 6.7332718917646126E10 ; 0.0
65 ; 8982302.98315136 ; 1.2056984404082859E9 ; 4.635814373959681E8 ; 6.853836029124686E10 ; 0.0
66 ; 9002035.201328117 ; 1.205755627768304E9 ; 4.7256374037911946E8 ; 6.974405873165514E10 ; 0.0
67 ; 9028041.418238994 ; 1.205812926265067E9 ; 4.8156577558044755E8 ; 7.094981435942345E10 ; 0.0
68 ; 9044953.88894922 ; 1.2058703269338737E9 ; 4.9059381699868655E8 ; 7.21556272856885E10 ; 0.0
69 ; 9063011.763944361 ; 1.2059278212323744E9 ; 4.9963877088763577E8 ; 7.336149761262238E10 ; 0.0
70 ; 9086546.344470114 ; 1.2059854010139363E9 ; 5.0870178265158015E8 ; 7.456742543385475E10 ; 0.0
71 ; 9103518.945987664 ; 1.2060430585028753E9 ; 5.1778832899605024E8 ; 7.577341083486868E10 ; 0.0
72 ; 9120187.12879841 ; 1.206100786271429E9 ; 5.268918479420379E8 ; 7.697945389337155E10 ; 0.0
73 ; 9138505.28706647 ; 1.206158577218329E9 ; 5.360120350708363E8 ; 7.818555467964297E10 ; 0.0
74 ; 9149793.862882236 ; 1.2062164245488625E9 ; 5.451505403579028E8 ; 7.93917132568613E10 ; 0.0
75 ; 9176428.50844544 ; 1.20627432175631E9 ; 5.54300334220785E8 ; 8.059792968141016E10 ; 0.0
76 ; 9190605.59757547 ; 1.2063322626046562E9 ; 5.634767627292304E8 ; 8.180420400316647E10 ; 0.0
77 ; 9207083.59725397 ; 1.2063902411124783E9 ; 5.726673683268058E8 ; 8.301053626577113E10 ; 0.0
78 ; 9210422.797633318 ; 1.2064482515379303E9 ; 5.818744519240597E8 ; 8.42169265068836E10 ; 0.0
79 ; 9216142.079844683 ; 1.2065062883647377E9 ; 5.91084874721693E8 ; 8.542337475842154E10 ; 0.0
80 ; 9219926.492017815 ; 1.2065643462891288E9 ; 6.003010168015378E8 ; 8.662988104678627E10 ; 0.0
81 ; 9220674.010188354 ; 1.2066224202076368E9 ; 6.095209432935556E8 ; 8.78364453930754E10 ; 0.0
82 ; 9225240.479716362 ; 1.206680505205708E9 ; 6.18741617303744E8 ; 8.904306781328304E10 ; 0.0
83 ; 9228529.878192503 ; 1.206738596547056E9 ; 6.279668577834604E8 ; 9.024974831848874E10 ; 0.0
84 ; 9233760.062217368 ; 1.206796689663712E9 ; 6.371953876616529E8 ; 9.14564869150358E10 ; 0.0
85 ; 9236680.760696229 ; 1.206854780146716E9 ; 6.464291477238703E8 ; 9.266328360469951E10 ; 0.0
86 ; 9237965.078284761 ; 1.2069128637374096E9 ; 6.556658284845665E8 ; 9.387013838484622E10 ; 0.0
87 ; 9234741.555808757 ; 1.2069709363192801E9 ; 6.649037935628512E8 ; 9.507705124858363E10 ; 0.0
88 ; 9239249.038255751 ; 1.207028993910326E9 ; 6.7413853511866E8 ; 9.628402218490291E10 ; 0.0
89 ; 9243277.826648839 ; 1.2070870326558971E9 ; 6.833777841569157E8 ; 9.749105117881323E10 ; 0.0
90 ; 9241692.582263606 ; 1.2071450488219862E9 ; 6.926210619835645E8 ; 9.869813821146913E10 ; 0.0
91 ; 9238369.915064057 ; 1.2072030387889328E9 ; 7.018627545658281E8 ; 9.990528326029112E10 ; 0.0
92 ; 9241295.772601128 ; 1.207260999045517E9 ; 7.111011244808922E8 ; 1.0111248629908005E11 ; 0.0
93 ; 9243502.977675531 ; 1.2073189261834104E9 ; 7.203424202534933E8 ; 1.0231974729812556E11 ; 0.0
94 ; 9239649.921222717 ; 1.2073768168919668E9 ; 7.295859232311689E8 ; 1.0352706622430898E11 ; 0.0
95 ; 9240591.293352593 ; 1.2074346679533224E9 ; 7.388255731523916E8 ; 1.0473444304120094E11 ; 0.0
96 ; 9245332.965618972 ; 1.2074924762377932E9 ; 7.480661644457442E8 ; 1.0594187770915427E11 ; 0.0
97 ; 9241726.091276562 ; 1.207550238699539E9 ; 7.573114974113631E8 ; 1.0714937018539206E11 ; 0.0
98 ; 9239163.812404132 ; 1.207607952372489E9 ; 7.665532235026397E8 ; 1.083569204240916E11 ; 0.0
99 ; 9233236.217453102 ; 1.207665614366498E9 ; 7.757923873150438E8 ; 1.0956452837646408E11 ; 0.0
100 ; 9230558.408454666 ; 1.2077232218637333E9 ; 7.850256235324969E8 ; 1.1077219399083058E11 ; 0.0
101 ; 9231806.65632695 ; 1.207780772115262E9 ; 7.942561819409516E8 ; 1.1197991721269432E11 ; 0.0
102 ; 9229865.731791906 ; 1.2078382624378371E9 ; 8.034879885972786E8 ; 1.1318769798480959E11 ; 0.0
103 ; 9228108.162705842 ; 1.2078956902108657E9 ; 8.127178543290704E8 ; 1.1439553624724742E11 ; 0.0
104 ; 9221815.210542737 ; 1.2079530528735461E9 ; 8.219459624917763E8 ; 1.1560343193745828E11 ; 0.0
105 ; 9219046.21125469 ; 1.2080103479221666E9 ; 8.31167777702319E8 ; 1.1681138499033183E11 ; 0.0
106 ; 9216283.447137035 ; 1.2080675729075508E9 ; 8.403868239135737E8 ; 1.18019395338254E11 ; 0.0
107 ; 9212657.223894304 ; 1.2081247254326494E9 ; 8.496031073607107E8 ; 1.1922746291116154E11 ; 0.0
108 ; 9211137.04892022 ; 1.208181803150256E9 ; 8.588157645846051E8 ; 1.204355876365942E11 ; 0.0
109 ; 9207070.2098985 ; 1.2082388037608533E9 ; 8.680269016335254E8 ; 1.2164376943974445E11 ; 0.0
110 ; 9200933.608469598 ; 1.208295725010573E9 ; 8.772339718434238E8 ; 1.228520082435053E11 ; 0.0
111 ; 9191731.46800102 ; 1.2083525646892624E9 ; 8.864349054518934E8 ; 1.2406030396851587E11 ; 0.0
112 ; 9185611.329323534 ; 1.2084093206286592E9 ; 8.956266369198945E8 ; 1.2526865653320514E11 ; 0.0
113 ; 9178067.792158186 ; 1.208465990700656E9 ; 9.04812248249218E8 ; 1.264770658538338E11 ; 0.0
114 ; 9177835.480862183 ; 1.2085225728156614E9 ; 9.139903160413761E8 ; 1.2768553184453445E11 ; 0.0
115 ; 9167957.618419252 ; 1.2085790649210436E9 ; 9.231681515222383E8 ; 1.2889405441735011E11 ; 0.0
116 ; 9163338.890971996 ; 1.2086354649996545E9 ; 9.323361091406575E8 ; 1.3010263348227116E11 ; 0.0
117 ; 9153810.403432192 ; 1.2086917710684295E9 ; 9.414994480316296E8 ; 1.3131126894727081E11 ; 0.0
118 ; 9147815.376381524 ; 1.2087479811770601E9 ; 9.506532584350618E8 ; 1.3251996071833925E11 ; 0.0
119 ; 9139665.33739363 ; 1.2088040934067338E9 ; 9.598010738114433E8 ; 1.3372870869951631E11 ; 0.0
120 ; 9133519.207471913 ; 1.2088601058689327E9 ; 9.68940739148837E8 ; 1.3493751279292305E11 ; 0.0
121 ; 9121895.578519499 ; 1.2089160167043009E9 ; 9.780742583563089E8 ; 1.3614637289879198E11 ; 0.0
122 ; 9116142.439195259 ; 1.208971824081558E9 ; 9.871961539348284E8 ; 1.3735528891549628E11 ; 0.0
123 ; 9110551.953224197 ; 1.2090275261964765E9 ; 9.963122963740237E8 ; 1.3856426073957782E11 ; 0.0
124 ; 9103220.886329183 ; 1.2090831212709E9 ; 1.0054228483272479E9 ; 1.397732882657743E11 ; 0.0
125 ; 9094941.491539042 ; 1.209138607551816E9 ; 1.014526069213577E9 ; 1.409823713870452E11 ; 0.0
126 ; 9085898.737083726 ; 1.2091939833104706E9 ; 1.023621010705116E9 ; 1.4219150999459702E11 ; 0.0
127 ; 9071658.04185924 ; 1.2092492468415263E9 ; 1.0327069094421997E9 ; 1.4340070397790747E11 ; 0.0
128 ; 9064238.837467961 ; 1.2093043964622593E9 ; 1.041778567484059E9 ; 1.44609953224749E11 ; 0.0
129 ; 9050524.747928753 ; 1.2093594305117974E9 ; 1.0508428063215269E9 ; 1.4581925762121124E11 ; 0.0
130 ; 9031737.62556863 ; 1.2094143473503923E9 ; 1.0598933310694556E9 ; 1.4702861705172305E11 ; 0.0
131 ; 9006823.562006738 ; 1.209469145358725E9 ; 1.0689250686950243E9 ; 1.4823803139907346E11 ; 0.0
132 ; 8990870.755630404 ; 1.2095238229372468E9 ; 1.077931892257031E9 ; 1.494475005444322E11 ; 0.0
133 ; 8965692.343410557 ; 1.209578378505546E9 ; 1.0869227630126615E9 ; 1.5065702436736945E11 ; 0.0
134 ; 8939264.266532138 ; 1.209632810501752E9 ; 1.095888455356072E9 ; 1.51866602745875E11 ; 0.0
135 ; 8914077.958687376 ; 1.2096871173819566E9 ; 1.1048277196226041E9 ; 1.5307623555637674E11 ; 0.0
136 ; 8888849.146236729 ; 1.2097412976196702E9 ; 1.1137417975812914E9 ; 1.542859226737587E11 ; 0.0
137 ; 8867656.10000184 ; 1.2097953497052982E9 ; 1.122630646727528E9 ; 1.5549566397137836E11 ; 0.0
138 ; 8834289.977642894 ; 1.209849272145644E9 ; 1.13149830282753E9 ; 1.5670545932108365E11 ; 0.0
139 ; 8821566.685510807 ; 1.2099030634634304E9 ; 1.140332592805173E9 ; 1.5791530859322928E11 ; 0.0
140 ; 8785741.333549917 ; 1.2099567221968462E9 ; 1.1491541594906838E9 ; 1.5912521165669272E11 ; 0.0
141 ; 8756428.262939915 ; 1.2100102468991127E9 ; 1.1579399008242338E9 ; 1.6033516837888956E11 ; 0.0
142 ; 8734888.583438374 ; 1.2100636361380656E9 ; 1.1666963290871737E9 ; 1.6154517862578867E11 ; 0.0
143 ; 8710369.660084138 ; 1.2101168884957614E9 ; 1.175431217670612E9 ; 1.6275524226192673E11 ; 0.0
144 ; 8679270.489572622 ; 1.2101700025680952E9 ; 1.1841415873306963E9 ; 1.639653591504225E11 ; 0.0
145 ; 8668152.903441854 ; 1.2102229769644399E9 ; 1.1928208578202689E9 ; 1.6517552915299057E11 ; 0.0
146 ; 8656187.751457922 ; 1.2102758103072972E9 ; 1.2014890107237108E9 ; 1.6638575212995502E11 ; 0.0
147 ; 8643600.044053905 ; 1.2103285012319677E9 ; 1.2101451984751687E9 ; 1.6759602794026233E11 ; 0.0
148 ; 8642916.655654658 ; 1.2103810483862314E9 ; 1.2187887985192225E9 ; 1.688063564414943E11 ; 0.0
149 ; 8623955.993984375 ; 1.2104334504300444E9 ; 1.2274317151748772E9 ; 1.7001673748988052E11 ; 0.0
150 ; 8615482.864175377 ; 1.2104857060352483E9 ; 1.2360556711688616E9 ; 1.7122717094031058E11 ; 0.0
151 ; 8606295.68853302 ; 1.210537813885291E9 ; 1.244671154033037E9 ; 1.7243765664634583E11 ; 0.0
152 ; 8594749.079297148 ; 1.2105897726749597E9 ; 1.25327744972157E9 ; 1.736481944602311E11 ; 0.0
153 ; 8587475.724731702 ; 1.2106415811101265E9 ; 1.261872198800867E9 ; 1.7485878423290607E11 ; 0.0
154 ; 8573052.35070866 ; 1.2106932379075031E9 ; 1.2704596745255988E9 ; 1.760694258140162E11 ; 0.0
155 ; 8568791.08382791 ; 1.210744741794406E9 ; 1.2790327268763075E9 ; 1.772801190519237E11 ; 0.0
156 ; 8553104.69422855 ; 1.2107960915085323E9 ; 1.2876015179601355E9 ; 1.784908637937181E11 ; 0.0
157 ; 8547813.76843795 ; 1.2108472857977443E9 ; 1.296154622654364E9 ; 1.7970165988522665E11 ; 0.0
158 ; 8534343.006561566 ; 1.2108983234198637E9 ; 1.304702436422802E9 ; 1.8091250717102438E11 ; 0.0
159 ; 8517624.902301572 ; 1.2109492031424735E9 ; 1.3132367794293635E9 ; 1.8212340549444424E11 ; 0.0
160 ; 8511569.876517393 ; 1.210999923742728E9 ; 1.321754404331665E9 ; 1.8333435469758673E11 ; 0.0
161 ; 8499252.99326305 ; 1.211050484007172E9 ; 1.3302659742081823E9 ; 1.8454535462132947E11 ; 0.0
162 ; 8487222.154054381 ; 1.211100882731566E9 ; 1.3387652272014453E9 ; 1.8575640510533664E11 ; 0.0
163 ; 8477835.184761347 ; 1.2111511187207189E9 ; 1.3472524493554997E9 ; 1.869675059880682E11 ; 0.0
164 ; 8468498.513852874 ; 1.2112011907883282E9 ; 1.355730284540261E9 ; 1.8817865710678894E11 ; 0.0
165 ; 8456766.565039035 ; 1.2112510977568254E9 ; 1.3641987830541139E9 ; 1.8938985829757727E11 ; 0.0
166 ; 8441523.635006297 ; 1.2113008384572306E9 ; 1.3726555496191528E9 ; 1.906011093953341E11 ; 0.0
167 ; 8434398.91637017 ; 1.2113504117290077E9 ; 1.381097073254159E9 ; 1.9181241023379135E11 ; 0.0
168 ; 8421184.559815807 ; 1.2113998164199317E9 ; 1.3895314721705291E9 ; 1.9302376064552036E11 ; 0.0
169 ; 8409401.801355379 ; 1.2114490513859568E9 ; 1.397952656730345E9 ; 1.9423516046194028E11 ; 0.0
170 ; 8396908.425307509 ; 1.211498115491092E9 ; 1.4063620585317004E9 ; 1.9544660951332623E11 ; 0.0
171 ; 8383550.672369966 ; 1.2115470076072805E9 ; 1.414758966957008E9 ; 1.9665810762881732E11 ; 0.0
172 ; 8374005.353515137 ; 1.2115957266142857E9 ; 1.4231425176293778E9 ; 1.978696546364246E11 ; 0.0
173 ; 8361742.7357361745 ; 1.2116442713995793E9 ; 1.431516522982893E9 ; 1.9908125036303888E11 ; 0.0
174 ; 8352678.22968157 ; 1.2116926408582368E9 ; 1.4398782657186291E9 ; 2.0029289463443845E11 ; 0.0
175 ; 8347380.024663644 ; 1.2117408338928342E9 ; 1.4482309439483106E9 ; 2.015045872752967E11 ; 0.0
176 ; 8338929.29587037 ; 1.2117888494133515E9 ; 1.4565783239729743E9 ; 2.027163281091895E11 ; 0.0
177 ; 8333442.356498054 ; 1.211836686337078E9 ; 1.4649172532688446E9 ; 2.0392811695860287E11 ; 0.0
178 ; 8323320.05472623 ; 1.2118843435885234E9 ; 1.4732506956253426E9 ; 2.0513995364493994E11 ; 0.0
179 ; 8321615.707073423 ; 1.2119318200993295E9 ; 1.4815740156800687E9 ; 2.0635183798852847E11 ; 0.0
180 ; 8305932.291809369 ; 1.2119791148081894E9 ; 1.4898956313871422E9 ; 2.075637698086278E11 ; 0.0
181 ; 8296330.808377828 ; 1.2120262266607668E9 ; 1.4982015636789515E9 ; 2.08775748923436E11 ; 0.0
182 ; 8291624.925294748 ; 1.2120731546096191E9 ; 1.5064978944873292E9 ; 2.0998777515009677E11 ; 0.0
183 ; 8288126.902857307 ; 1.212119897614125E9 ; 1.514789519412624E9 ; 2.111998483047064E11 ; 0.0
184 ; 8277034.617646677 ; 1.2121664546404135E9 ; 1.5230776463154812E9 ; 2.1241196820232053E11 ; 0.0
185 ; 8273025.549612975 ; 1.2122128246612966E9 ; 1.5313546809331279E9 ; 2.1362413465696094E11 ; 0.0
186 ; 8262251.985849475 ; 1.2122590066562042E9 ; 1.5396277064827409E9 ; 2.1483634748162222E11 ; 0.0
187 ; 8255937.375501044 ; 1.212304999611122E9 ; 1.5478899584685903E9 ; 2.1604860648827844E11 ; 0.0
188 ; 8247401.305146665 ; 1.2123508025185313E9 ; 1.5561458958440914E9 ; 2.1726091148788956E11 ; 0.0
189 ; 8237999.067083353 ; 1.2123964143773522E9 ; 1.564393297149238E9 ; 2.1847326229040808E11 ; 0.0
190 ; 8229377.837994335 ; 1.212441834192889E9 ; 1.5726312962163215E9 ; 2.1968565870478543E11 ; 0.0
191 ; 8225399.211759461 ; 1.2124870609767756E9 ; 1.5808606740543158E9 ; 2.2089810053897833E11 ; 0.0
192 ; 8219626.3659068495 ; 1.2125320937469273E9 ; 1.5890860732660754E9 ; 2.221105875999551E11 ; 0.0
193 ; 8208645.641255668 ; 1.21257693152749E9 ; 1.5973056996319823E9 ; 2.2332311969370203E11 ; 0.0
194 ; 8199241.137549133 ; 1.2126215733487952E9 ; 1.605514345273238E9 ; 2.2453569662522952E11 ; 0.0
195 ; 8188055.547098232 ; 1.2126660182473145E9 ; 1.613713586410787E9 ; 2.257483181985783E11 ; 0.0
196 ; 8188174.466269305 ; 1.212710265265617E9 ; 1.6219016419578853E9 ; 2.2696098421682562E11 ; 0.0
197 ; 8174297.116163585 ; 1.2127543134523282E9 ; 1.6300898164241545E9 ; 2.2817369448209125E11 ; 0.0
198 ; 8167386.453557489 ; 1.2127981618620906E9 ; 1.638264113540318E9 ; 2.2938644879554358E11 ; 0.0
199 ; 8164317.571438108 ; 1.212841809555526E9 ; 1.6464314999938755E9 ; 2.3059924695740567E11 ; 0.0
200 ; 8150721.307052086 ; 1.2128852555991993E9 ; 1.6545958175653136E9 ; 2.3181208876696118E11 ; 0.0
201 ; 8148467.165154338 ; 1.1068915134875615E9 ; 1.6627465388723657E9 ; 2.330249740225604E11 ; 0.0
