CSV File for the Network on Day 22
1 - Minute m 
2 - Power Consumed at minute m 
3 - Power Produced at minute m 
4 - Energy Consumed since the beginning of the day 
5 - Energy Produced since the beginning of the day 
6 - Energy Lost since the beginning of the day 
 
0 ; 4.993095611460267E7 ; 1.0516072819786593E8 ; 0.0 ; 0.0 ; 0.0
1 ; 4.998342071801854E7 ; 1.0531504918552023E8 ; 4.993095611460267E7 ; 1.0516072819786593E8 ; 613.6199999999999
2 ; 5.003490708830984E7 ; 1.0577801214848319E8 ; 9.991437683262122E7 ; 2.1047577738338616E8 ; 1227.2399999999998
3 ; 5.010500489849885E7 ; 1.065496170867548E8 ; 1.4994928392093104E8 ; 3.1625378953186935E8 ; 1840.8599999999997
4 ; 5.017741662905505E7 ; 1.0762986400033504E8 ; 2.0005428881942987E8 ; 4.2280340661862415E8 ; 2454.4799999999996
5 ; 5.026245028548347E7 ; 1.0901875288922393E8 ; 2.5023170544848493E8 ; 5.304332706189592E8 ; 3068.0999999999995
6 ; 5.03928357598409E7 ; 1.1071628375342144E8 ; 3.004941557339684E8 ; 6.394520235081831E8 ; 3681.7199999999993
7 ; 5.0560510911126405E7 ; 1.1272245659292762E8 ; 3.508869914938093E8 ; 7.501683072616045E8 ; 4295.339999999999
8 ; 5.0793975325457744E7 ; 1.1503727140774243E8 ; 4.014475024049357E8 ; 8.628907638545321E8 ; 4908.959999999999
9 ; 5.115662177492317E7 ; 1.1766072819786589E8 ; 4.5224147773039347E8 ; 9.779280352622745E8 ; 5522.579999999999
10 ; 5.172610091245538E7 ; 1.2059282696329801E8 ; 5.033980995053166E8 ; 1.0955887634601405E9 ; 6136.199999999999
11 ; 5.262739616216616E7 ; 1.2383356770403877E8 ; 5.55124200417772E8 ; 1.2161815904234385E9 ; 6749.819999999999
12 ; 5.4065764839047626E7 ; 1.2738295042008814E8 ; 6.077515965799382E8 ; 1.3400151581274774E9 ; 7363.439999999999
13 ; 5.54358168495574E7 ; 1.3124097511144614E8 ; 6.618173614189858E8 ; 1.4673981085475655E9 ; 7977.059999999999
14 ; 5.560016240864324E7 ; 1.3540764177811283E8 ; 7.172531782685432E8 ; 1.5986390836590116E9 ; 8590.679999999998
15 ; 5.566972977203579E7 ; 1.398829504200881E8 ; 7.728533406771865E8 ; 1.7340467254371245E9 ; 9204.3
16 ; 5.572092903519054E7 ; 1.4466690103737208E8 ; 8.285230704492223E8 ; 1.8739296758572125E9 ; 9817.919999999998
17 ; 5.579960568325009E7 ; 1.4975949362996468E8 ; 8.842439994844129E8 ; 2.0185965768945847E9 ; 10431.539999999997
18 ; 5.586232483751888E7 ; 1.551607281978659E8 ; 9.40043605167663E8 ; 2.1683560705245495E9 ; 11045.159999999996
19 ; 5.592635721116428E7 ; 1.6087060474107578E8 ; 9.959059300051819E8 ; 2.3235167987224154E9 ; 11658.779999999995
20 ; 5.599178471657674E7 ; 1.668891232595943E8 ; 1.0518322872163461E9 ; 2.4843874034634914E9 ; 12272.399999999994
21 ; 5.605452410260427E7 ; 1.7321628375342146E8 ; 1.1078240719329228E9 ; 2.651276526723086E9 ; 12886.019999999993
22 ; 5.612339880629848E7 ; 1.7985208622255725E8 ; 1.1638785960355272E9 ; 2.824492810476507E9 ; 13499.639999999992
23 ; 5.618739397307276E7 ; 1.8679653066700172E8 ; 1.2200019948418257E9 ; 3.0043448966990643E9 ; 14113.259999999991
24 ; 5.6247478818956494E7 ; 1.940496170867548E8 ; 1.2761893888148985E9 ; 3.191141427366066E9 ; 14726.87999999999
25 ; 5.631973837318348E7 ; 2.0029938638E8 ; 1.3324368676338549E9 ; 3.385191044452821E9 ; 15340.499999999989
26 ; 5.638598485029484E7 ; 2.0029938638E8 ; 1.3887566060070384E9 ; 3.585490430832821E9 ; 15954.119999999988
27 ; 5.6447832960079536E7 ; 2.0029938638E8 ; 1.4451425908573332E9 ; 3.785789817212821E9 ; 16567.739999999987
28 ; 5.6506793464101315E7 ; 2.0029938638E8 ; 1.5015904238174126E9 ; 3.986089203592821E9 ; 17181.359999999986
29 ; 5.657184308384131E7 ; 2.0029938638E8 ; 1.558097217281514E9 ; 4.186388589972821E9 ; 17794.979999999985
30 ; 5.663158346478351E7 ; 2.0029938638E8 ; 1.6146690603653553E9 ; 4.386687976352821E9 ; 18408.599999999984
31 ; 5.669383037320937E7 ; 2.0029938638E8 ; 1.6713006438301387E9 ; 4.586987362732821E9 ; 19022.219999999983
32 ; 5.675280809546223E7 ; 2.0029938638E8 ; 1.7279944742033482E9 ; 4.787286749112822E9 ; 19635.839999999982
33 ; 5.680592982293475E7 ; 2.0029938638E8 ; 1.7847472822988105E9 ; 4.987586135492822E9 ; 20249.45999999998
34 ; 5.686165381201626E7 ; 2.0029938638E8 ; 1.841553212121745E9 ; 5.187885521872822E9 ; 20863.07999999998
35 ; 5.691638539489995E7 ; 2.0029938638E8 ; 1.8984148659337614E9 ; 5.388184908252822E9 ; 21476.69999999998
36 ; 5.696773486921045E7 ; 2.0029938638E8 ; 1.9553312513286612E9 ; 5.588484294632822E9 ; 22090.319999999978
37 ; 5.701634166128793E7 ; 2.0029938638E8 ; 2.0122989861978717E9 ; 5.788783681012822E9 ; 22703.939999999977
38 ; 5.706330867009629E7 ; 2.0029938638E8 ; 2.0693153278591597E9 ; 5.989083067392822E9 ; 23317.559999999976
39 ; 5.711077493870268E7 ; 2.0029938638E8 ; 2.126378636529256E9 ; 6.189382453772822E9 ; 23931.179999999975
40 ; 5.715011472128095E7 ; 2.0029938638E8 ; 2.183489411467959E9 ; 6.3896818401528225E9 ; 24544.799999999974
41 ; 5.718939282043224E7 ; 2.0029938638E8 ; 2.24063952618924E9 ; 6.589981226532823E9 ; 25158.419999999973
42 ; 5.7235010852046445E7 ; 2.0029938638E8 ; 2.297828919009672E9 ; 6.790280612912823E9 ; 25772.03999999997
43 ; 5.727741237544121E7 ; 2.0029938638E8 ; 2.3550639298617187E9 ; 6.990579999292823E9 ; 26385.65999999997
44 ; 5.730413550851637E7 ; 2.0029938638E8 ; 2.4123413422371597E9 ; 7.190879385672823E9 ; 26999.27999999997
45 ; 5.7340550796800286E7 ; 2.0029938638E8 ; 2.469645477745676E9 ; 7.391178772052823E9 ; 27612.89999999997
46 ; 5.73594822104406E7 ; 2.0029938638E8 ; 2.526986028542476E9 ; 7.591478158432823E9 ; 28226.519999999968
47 ; 5.738796793259805E7 ; 2.0029938638E8 ; 2.584345510752917E9 ; 7.791777544812823E9 ; 28840.139999999967
48 ; 5.741369480484832E7 ; 2.0029938638E8 ; 2.641733478685515E9 ; 7.992076931192823E9 ; 29453.759999999966
49 ; 5.7436231032684624E7 ; 2.0029938638E8 ; 2.699147173490363E9 ; 8.192376317572824E9 ; 30067.379999999965
50 ; 5.7456291212731004E7 ; 2.0029938638E8 ; 2.756583404523048E9 ; 8.392675703952824E9 ; 30680.999999999964
51 ; 5.7476076691870734E7 ; 2.0029938638E8 ; 2.814039695735779E9 ; 8.592975090332823E9 ; 31294.619999999963
52 ; 5.748517889762584E7 ; 2.0029938638E8 ; 2.8715157724276495E9 ; 8.793274476712822E9 ; 31908.23999999996
53 ; 5.7495358919101164E7 ; 2.0029938638E8 ; 2.9290009513252754E9 ; 8.993573863092821E9 ; 32521.85999999996
54 ; 5.7514583552884564E7 ; 2.0029938638E8 ; 2.9864963102443767E9 ; 9.19387324947282E9 ; 33135.47999999996
55 ; 5.7531131434144E7 ; 2.0029938638E8 ; 3.044010893797261E9 ; 9.39417263585282E9 ; 33749.09999999996
56 ; 5.7539381714942455E7 ; 2.0029938638E8 ; 3.1015420252314053E9 ; 9.594472022232819E9 ; 34362.719999999965
57 ; 5.755702743414043E7 ; 2.0029938638E8 ; 3.1590814069463477E9 ; 9.794771408612818E9 ; 34976.33999999997
58 ; 5.756860780777791E7 ; 2.0029938638E8 ; 3.216638434380488E9 ; 9.995070794992817E9 ; 35589.95999999997
59 ; 5.7579763759774946E7 ; 2.0029938638E8 ; 3.274207042188266E9 ; 1.0195370181372816E10 ; 36203.57999999997
60 ; 5.759551595488733E7 ; 2.0029938638E8 ; 3.331786805948041E9 ; 1.0395669567752815E10 ; 36817.199999999975
61 ; 5.759911051088243E7 ; 2.0029938638E8 ; 3.3893823219029284E9 ; 1.0595968954132814E10 ; 37430.81999999998
62 ; 5.76152077656372E7 ; 2.0029938638E8 ; 3.4469814324138107E9 ; 1.0796268340512814E10 ; 38044.43999999998
63 ; 5.761271168816734E7 ; 2.0029938638E8 ; 3.504596640179448E9 ; 1.0996567726892813E10 ; 38658.05999999998
64 ; 5.761929499123397E7 ; 2.0029938638E8 ; 3.5622093518676157E9 ; 1.1196867113272812E10 ; 39271.679999999986
65 ; 5.76378299522877E7 ; 2.0029938638E8 ; 3.6198286468588495E9 ; 1.1397166499652811E10 ; 39885.29999999999
66 ; 5.764558477817078E7 ; 2.0029938638E8 ; 3.677466476811137E9 ; 1.159746588603281E10 ; 40498.91999999999
67 ; 5.765557701015566E7 ; 2.0029938638E8 ; 3.735112061589308E9 ; 1.179776527241281E10 ; 41112.53999999999
68 ; 5.765557651402105E7 ; 2.0029938638E8 ; 3.7927676385994635E9 ; 1.1998064658792809E10 ; 41726.159999999996
69 ; 5.766769449373268E7 ; 2.0029938638E8 ; 3.8504232151134844E9 ; 1.2198364045172808E10 ; 42339.78
70 ; 5.767343589720589E7 ; 2.0029938638E8 ; 3.908090909607217E9 ; 1.2398663431552807E10 ; 42953.4
71 ; 5.767426648612861E7 ; 2.0029938638E8 ; 3.9657643455044227E9 ; 1.2598962817932806E10 ; 43567.020000000004
72 ; 5.76811010062342E7 ; 2.0029938638E8 ; 4.0234386119905515E9 ; 1.2799262204312805E10 ; 44180.64000000001
73 ; 5.768721618382284E7 ; 2.0029938638E8 ; 4.0811197129967856E9 ; 1.2999561590692804E10 ; 44794.26000000001
74 ; 5.768330052527157E7 ; 2.0029938638E8 ; 4.1388069291806083E9 ; 1.3199860977072803E10 ; 45407.88000000001
75 ; 5.76914511753803E7 ; 2.0029938638E8 ; 4.1964902297058797E9 ; 1.3400160363452803E10 ; 46021.500000000015
76 ; 5.768472639480544E7 ; 2.0029938638E8 ; 4.25418168088126E9 ; 1.3600459749832802E10 ; 46635.12000000002
77 ; 5.769392321183337E7 ; 2.0029938638E8 ; 4.311866407276066E9 ; 1.3800759136212801E10 ; 47248.74000000002
78 ; 5.7677881525174126E7 ; 2.0029938638E8 ; 4.369560330487899E9 ; 1.40010585225928E10 ; 47862.36000000002
79 ; 5.766057274135454E7 ; 2.0029938638E8 ; 4.427238212013073E9 ; 1.42013579089728E10 ; 48475.980000000025
80 ; 5.7645631340341985E7 ; 2.0029938638E8 ; 4.484898784754428E9 ; 1.4401657295352798E10 ; 49089.60000000003
81 ; 5.762518996456842E7 ; 2.0029938638E8 ; 4.5425444160947695E9 ; 1.4601956681732798E10 ; 49703.22000000003
82 ; 5.760640484248943E7 ; 2.0029938638E8 ; 4.600169606059338E9 ; 1.4802256068112797E10 ; 50316.84000000003
83 ; 5.758485685402965E7 ; 2.0029938638E8 ; 4.657776010901827E9 ; 1.5002555454492796E10 ; 50930.460000000036
84 ; 5.756575902622257E7 ; 2.0029938638E8 ; 4.7153608677558565E9 ; 1.5202854840872795E10 ; 51544.08000000004
85 ; 5.755159022231837E7 ; 2.0029938638E8 ; 4.772926626782079E9 ; 1.5403154227252794E10 ; 52157.70000000004
86 ; 5.7528859177383885E7 ; 2.0029938638E8 ; 4.830478217004397E9 ; 1.5603453613632793E10 ; 52771.32000000004
87 ; 5.750815176554659E7 ; 2.0029938638E8 ; 4.888007076181781E9 ; 1.5803753000012793E10 ; 53384.940000000046
88 ; 5.7480592513136886E7 ; 2.0029938638E8 ; 4.945515227947328E9 ; 1.6004052386392792E10 ; 53998.56000000005
89 ; 5.746979396556023E7 ; 2.0029938638E8 ; 5.0029958204604645E9 ; 1.620435177277279E10 ; 54612.18000000005
90 ; 5.7435724456716135E7 ; 2.0029938638E8 ; 5.060465614426024E9 ; 1.640465115915279E10 ; 55225.800000000054
91 ; 5.741250590519077E7 ; 2.0029938638E8 ; 5.117901338882741E9 ; 1.660495054553279E10 ; 55839.42000000006
92 ; 5.739311908996245E7 ; 2.0029938638E8 ; 5.175313844787931E9 ; 1.6805249931912788E10 ; 56453.04000000006
93 ; 5.737509803197342E7 ; 2.0029938638E8 ; 5.232706963877893E9 ; 1.7005549318292788E10 ; 57066.66000000006
94 ; 5.734478187496547E7 ; 2.0029938638E8 ; 5.290082061909867E9 ; 1.7205848704672787E10 ; 57680.280000000064
95 ; 5.73259302669405E7 ; 2.0029938638E8 ; 5.347426843784833E9 ; 1.7406148091052788E10 ; 58293.90000000007
96 ; 5.729326573525377E7 ; 2.0029938638E8 ; 5.404752774051773E9 ; 1.760644747743279E10 ; 58907.52000000007
97 ; 5.726962948313151E7 ; 2.0029938638E8 ; 5.462046039787026E9 ; 1.780674686381279E10 ; 59521.14000000007
98 ; 5.7239003145562865E7 ; 2.0029938638E8 ; 5.519315669270158E9 ; 1.800704625019279E10 ; 60134.760000000075
99 ; 5.721083100008583E7 ; 2.0029938638E8 ; 5.576554672415721E9 ; 1.8207345636572792E10 ; 60748.38000000008
100 ; 5.718589317906789E7 ; 2.0029938638E8 ; 5.633765503415807E9 ; 1.8407645022952793E10 ; 61362.00000000008
101 ; 5.715018267638609E7 ; 2.0029938638E8 ; 5.690951396594874E9 ; 1.8607944409332794E10 ; 61975.62000000008
102 ; 5.71252702797473E7 ; 2.0029938638E8 ; 5.74810157927126E9 ; 1.8808243795712795E10 ; 62589.240000000085
103 ; 5.709916738906667E7 ; 2.0029938638E8 ; 5.805226849551007E9 ; 1.9008543182092796E10 ; 63202.86000000009
104 ; 5.705976538539302E7 ; 2.0029938638E8 ; 5.862326016940074E9 ; 1.9208842568472797E10 ; 63816.48000000009
105 ; 5.703274147661714E7 ; 2.0029938638E8 ; 5.919385782325467E9 ; 1.94091419548528E10 ; 64430.10000000009
106 ; 5.699524970204772E7 ; 2.0029938638E8 ; 5.976418523802084E9 ; 1.96094413412328E10 ; 65043.720000000096
107 ; 5.697135420396297E7 ; 2.0029938638E8 ; 6.033413773504131E9 ; 1.98097407276128E10 ; 65657.3400000001
108 ; 5.693457532672305E7 ; 2.0029938638E8 ; 6.090385127708095E9 ; 2.00100401139928E10 ; 66270.9600000001
109 ; 5.690607570073323E7 ; 2.0029938638E8 ; 6.147319703034818E9 ; 2.0210339500372803E10 ; 66884.58000000009
110 ; 5.686849624846086E7 ; 2.0029938638E8 ; 6.204225778735551E9 ; 2.0410638886752804E10 ; 67498.20000000008
111 ; 5.6833058856492236E7 ; 2.0029938638E8 ; 6.261094274984012E9 ; 2.0610938273132805E10 ; 68111.82000000008
112 ; 5.679774557128538E7 ; 2.0029938638E8 ; 6.317927333840504E9 ; 2.0811237659512806E10 ; 68725.44000000008
113 ; 5.675874235384668E7 ; 2.0029938638E8 ; 6.374725079411789E9 ; 2.1011537045892807E10 ; 69339.06000000007
114 ; 5.672640564554408E7 ; 2.0029938638E8 ; 6.4314838217656355E9 ; 2.1211836432272808E10 ; 69952.68000000007
115 ; 5.669013573490159E7 ; 2.0029938638E8 ; 6.48821022741118E9 ; 2.141213581865281E10 ; 70566.30000000006
116 ; 5.6641712544366255E7 ; 2.0029938638E8 ; 6.544900363146081E9 ; 2.161243520503281E10 ; 71179.92000000006
117 ; 5.6616228780767255E7 ; 2.0029938638E8 ; 6.601542075690447E9 ; 2.181273459141281E10 ; 71793.54000000005
118 ; 5.657169884159398E7 ; 2.0029938638E8 ; 6.658158304471214E9 ; 2.2013033977792812E10 ; 72407.16000000005
119 ; 5.65245025256528E7 ; 2.0029938638E8 ; 6.714730003312808E9 ; 2.2213333364172813E10 ; 73020.78000000004
120 ; 5.649636079959722E7 ; 2.0029938638E8 ; 6.771254505838461E9 ; 2.2413632750552814E10 ; 73634.40000000004
121 ; 5.6448148679042965E7 ; 2.0029938638E8 ; 6.827750866638058E9 ; 2.2613932136932816E10 ; 74248.02000000003
122 ; 5.640658868628629E7 ; 2.0029938638E8 ; 6.884199015317101E9 ; 2.2814231523312817E10 ; 74861.64000000003
123 ; 5.6371421398400515E7 ; 2.0029938638E8 ; 6.9406056040033865E9 ; 2.3014530909692818E10 ; 75475.26000000002
124 ; 5.631647931132094E7 ; 2.0029938638E8 ; 6.996977025401787E9 ; 2.321483029607282E10 ; 76088.88000000002
125 ; 5.627944567012288E7 ; 2.0029938638E8 ; 7.053293504713108E9 ; 2.341512968245282E10 ; 76702.50000000001
126 ; 5.623704471721076E7 ; 2.0029938638E8 ; 7.109572950383231E9 ; 2.361542906883282E10 ; 77316.12000000001
127 ; 5.61916521065601E7 ; 2.0029938638E8 ; 7.165809995100442E9 ; 2.3815728455212822E10 ; 77929.74
128 ; 5.6143240278985E7 ; 2.0029938638E8 ; 7.222001647207002E9 ; 2.4016027841592823E10 ; 78543.36
129 ; 5.609651278026946E7 ; 2.0029938638E8 ; 7.278144887485987E9 ; 2.4216327227972824E10 ; 79156.98
130 ; 5.604838885191212E7 ; 2.0029938638E8 ; 7.334241400266256E9 ; 2.4416626614352825E10 ; 79770.59999999999
131 ; 5.5980237864138186E7 ; 2.0029938638E8 ; 7.390289789118169E9 ; 2.4616926000732826E10 ; 80384.21999999999
132 ; 5.5925598568827346E7 ; 2.0029938638E8 ; 7.446270026982307E9 ; 2.4817225387112827E10 ; 80997.83999999998
133 ; 5.586193346983867E7 ; 2.0029938638E8 ; 7.502195625551135E9 ; 2.501752477349283E10 ; 81611.45999999998
134 ; 5.579701946035047E7 ; 2.0029938638E8 ; 7.558057559020974E9 ; 2.521782415987283E10 ; 82225.07999999997
135 ; 5.5729888242223516E7 ; 2.0029938638E8 ; 7.613854578481324E9 ; 2.541812354625283E10 ; 82838.69999999997
136 ; 5.565416923441118E7 ; 2.0029938638E8 ; 7.669584466723548E9 ; 2.561842293263283E10 ; 83452.31999999996
137 ; 5.5591700085152596E7 ; 2.0029938638E8 ; 7.725238635957959E9 ; 2.5818722319012833E10 ; 84065.93999999996
138 ; 5.552418433037341E7 ; 2.0029938638E8 ; 7.780830336043112E9 ; 2.6019021705392834E10 ; 84679.55999999995
139 ; 5.546201087082164E7 ; 2.0029938638E8 ; 7.836354520373486E9 ; 2.6219321091772835E10 ; 85293.17999999995
140 ; 5.539174262549023E7 ; 2.0029938638E8 ; 7.8918165312443075E9 ; 2.6419620478152836E10 ; 85906.79999999994
141 ; 5.532263797467608E7 ; 2.0029938638E8 ; 7.947208273869798E9 ; 2.6619919864532837E10 ; 86520.41999999994
142 ; 5.525484427314289E7 ; 2.0029938638E8 ; 8.002530911844474E9 ; 2.6820219250912838E10 ; 87134.03999999994
143 ; 5.518025516127821E7 ; 2.0029938638E8 ; 8.057785756117617E9 ; 2.702051863729284E10 ; 87747.65999999993
144 ; 5.511311294604884E7 ; 2.0029938638E8 ; 8.112966011278894E9 ; 2.722081802367284E10 ; 88361.27999999993
145 ; 5.506158567309971E7 ; 2.0029938638E8 ; 8.168079124224943E9 ; 2.742111741005284E10 ; 88974.89999999992
146 ; 5.501402336023444E7 ; 2.0029938638E8 ; 8.223140709898043E9 ; 2.7621416796432842E10 ; 89588.51999999992
147 ; 5.4969666588153526E7 ; 2.0029938638E8 ; 8.278154733258277E9 ; 2.7821716182812843E10 ; 90202.13999999991
148 ; 5.491516994389605E7 ; 2.0029938638E8 ; 8.333124399846431E9 ; 2.8022015569192844E10 ; 90815.75999999991
149 ; 5.487072541408113E7 ; 2.0029938638E8 ; 8.388039569790327E9 ; 2.8222314955572845E10 ; 91429.3799999999
150 ; 5.481843378282128E7 ; 2.0029938638E8 ; 8.442910295204409E9 ; 2.8422614341952847E10 ; 92042.9999999999
151 ; 5.476856049097508E7 ; 2.0029938638E8 ; 8.49772872898723E9 ; 2.8622913728332848E10 ; 92656.6199999999
152 ; 5.471679815332884E7 ; 2.0029938638E8 ; 8.552497289478206E9 ; 2.882321311471285E10 ; 93270.23999999989
153 ; 5.4670838399699435E7 ; 2.0029938638E8 ; 8.607214087631535E9 ; 2.902351250109285E10 ; 93883.85999999988
154 ; 5.461632611192923E7 ; 2.0029938638E8 ; 8.661884926031235E9 ; 2.922381188747285E10 ; 94497.47999999988
155 ; 5.457183359778418E7 ; 2.0029938638E8 ; 8.716501252143164E9 ; 2.942411127385285E10 ; 95111.09999999987
156 ; 5.4518677353227586E7 ; 2.0029938638E8 ; 8.771073085740948E9 ; 2.9624410660232853E10 ; 95724.71999999987
157 ; 5.447240511222615E7 ; 2.0029938638E8 ; 8.825591763094175E9 ; 2.9824710046612854E10 ; 96338.33999999987
158 ; 5.441307706830422E7 ; 2.0029938638E8 ; 8.880064168206402E9 ; 3.0025009432992855E10 ; 96951.95999999986
159 ; 5.436690318981057E7 ; 2.0029938638E8 ; 8.934477245274706E9 ; 3.0225308819372856E10 ; 97565.57999999986
160 ; 5.431408243968709E7 ; 2.0029938638E8 ; 8.988844148464516E9 ; 3.0425608205752857E10 ; 98179.19999999985
161 ; 5.425727666876861E7 ; 2.0029938638E8 ; 9.043158230904203E9 ; 3.062590759213286E10 ; 98792.81999999985
162 ; 5.420289086508646E7 ; 2.0029938638E8 ; 9.097415507572971E9 ; 3.082620697851286E10 ; 99406.43999999984
163 ; 5.414773862955068E7 ; 2.0029938638E8 ; 9.151618398438057E9 ; 3.102650636489286E10 ; 100020.05999999984
164 ; 5.410059478702839E7 ; 2.0029938638E8 ; 9.205766137067608E9 ; 3.122680575127286E10 ; 100633.67999999983
165 ; 5.40435889842035E7 ; 2.0029938638E8 ; 9.259866731854637E9 ; 3.1427105137652863E10 ; 101247.29999999983
166 ; 5.398666006719797E7 ; 2.0029938638E8 ; 9.31391032083884E9 ; 3.1627404524032864E10 ; 101860.91999999982
167 ; 5.393737027290782E7 ; 2.0029938638E8 ; 9.367896980906038E9 ; 3.1827703910412865E10 ; 102474.53999999982
168 ; 5.3884159093669295E7 ; 2.0029938638E8 ; 9.421834351178946E9 ; 3.2028003296792866E10 ; 103088.15999999981
169 ; 5.383410642994516E7 ; 2.0029938638E8 ; 9.475718510272615E9 ; 3.2228302683172867E10 ; 103701.77999999981
170 ; 5.3768126282018006E7 ; 2.0029938638E8 ; 9.52955261670256E9 ; 3.2428602069552868E10 ; 104315.3999999998
171 ; 5.372203046243932E7 ; 2.0029938638E8 ; 9.58332074298458E9 ; 3.262890145593287E10 ; 104929.0199999998
172 ; 5.3667118808396965E7 ; 2.0029938638E8 ; 9.637042773447018E9 ; 3.282920084231287E10 ; 105542.6399999998
173 ; 5.361103867776881E7 ; 2.0029938638E8 ; 9.690709892255415E9 ; 3.302950022869287E10 ; 106156.25999999979
174 ; 5.357448486154652E7 ; 2.0029938638E8 ; 9.744320930933184E9 ; 3.3229799615072872E10 ; 106769.87999999979
175 ; 5.3543462384456836E7 ; 2.0029938638E8 ; 9.797895415794731E9 ; 3.3430099001452873E10 ; 107383.49999999978
176 ; 5.352060626141503E7 ; 2.0029938638E8 ; 9.851438878179188E9 ; 3.3630398387832874E10 ; 107997.11999999978
177 ; 5.347854936628791E7 ; 2.0029938638E8 ; 9.904959484440603E9 ; 3.3830697774212875E10 ; 108610.73999999977
178 ; 5.345332952597666E7 ; 2.0029938638E8 ; 9.95843803380689E9 ; 3.4030997160592876E10 ; 109224.35999999977
179 ; 5.34222026999464E7 ; 2.0029938638E8 ; 1.0011891363332867E10 ; 3.4231296546972878E10 ; 109837.97999999976
180 ; 5.339392243533591E7 ; 2.0029938638E8 ; 1.0065313566032814E10 ; 3.4431595933352875E10 ; 110451.59999999976
