CSV File for the Network on Day 42
1 - Minute m 
2 - Power Consumed at minute m 
3 - Power Produced at minute m 
4 - Energy Consumed since the beginning of the day 
5 - Energy Produced since the beginning of the day 
6 - Energy Lost since the beginning of the day 
 
0 ; 3.839153040003459E7 ; 6.329963078968493E8 ; 0.0 ; 0.0 ; 0.0
1 ; 3.843020321635433E7 ; 6.339016610246078E8 ; 3.839153040003459E7 ; 6.329963078968493E8 ; 0.0
2 ; 3.847884370578231E7 ; 6.366608469394069E8 ; 7.682173361638892E7 ; 1.266897968921457E9 ; 0.0
3 ; 3.852792646836482E7 ; 6.412739230894835E8 ; 1.1530057732217123E8 ; 1.903558815860864E9 ; 0.0
4 ; 3.858221105902495E7 ; 6.477409424479702E8 ; 1.5382850379053605E8 ; 2.5448327389503474E9 ; 0.0
5 ; 3.8649154588269696E7 ; 6.56061952760885E8 ; 1.92410714849561E8 ; 3.1925736813983173E9 ; 0.0
6 ; 3.874616309490891E7 ; 6.66236995830651E8 ; 2.310598694378307E8 ; 3.8486356341592026E9 ; 0.0
7 ; 3.8875721783406906E7 ; 6.78266106858288E8 ; 2.698060325327396E8 ; 4.514872629989854E9 ; 0.0
8 ; 3.906312710073168E7 ; 6.921493138671348E8 ; 3.086817543161465E8 ; 5.193138736848142E9 ; 0.0
9 ; 3.9337030767706014E7 ; 7.078866372293282E8 ; 3.4774488141687816E8 ; 5.885288050715277E9 ; 0.0
10 ; 3.977453228469504E7 ; 7.25478089313303E8 ; 3.870819121845842E8 ; 6.593174687944605E9 ; 0.0
11 ; 4.046377832546638E7 ; 7.449236742663653E8 ; 4.268564444692792E8 ; 7.318652777257908E9 ; 0.0
12 ; 4.156666424080502E7 ; 7.662233879412091E8 ; 4.673202227947456E8 ; 8.063576451524273E9 ; 0.0
13 ; 4.263179221592854E7 ; 7.893772179693992E8 ; 5.0888688703555065E8 ; 8.829799839465483E9 ; 0.0
14 ; 4.276067903643703E7 ; 8.143851439787991E8 ; 5.515186792514791E8 ; 9.619177057434881E9 ; 0.0
15 ; 4.2807730250997126E7 ; 8.412471379460702E8 ; 5.942793582879162E8 ; 1.0433562201413681E10 ; 0.0
16 ; 4.2861829437322974E7 ; 8.699631646701925E8 ; 6.370870885389132E8 ; 1.127480933935975E10 ; 0.0
17 ; 4.291118705626901E7 ; 9.005331823487428E8 ; 6.799489179762362E8 ; 1.2144772504029943E10 ; 0.0
18 ; 4.2958011795647286E7 ; 9.32957143235703E8 ; 7.228601050325053E8 ; 1.3045305686378687E10 ; 0.0
19 ; 4.3009005036210254E7 ; 9.67234994357941E8 ; 7.658181168281525E8 ; 1.397826282961439E10 ; 0.0
20 ; 4.306100874771348E7 ; 1.0033666782672194E9 ; 8.088271218643628E8 ; 1.494549782397233E10 ; 0.0
21 ; 4.31109962792107E7 ; 1.0413521338055E9 ; 8.518881306120763E8 ; 1.594886450223955E10 ; 0.0
22 ; 4.316332184063526E7 ; 1.0811912968632264E9 ; 8.94999126891287E8 ; 1.699021663604505E10 ; 0.0
23 ; 4.320267672507699E7 ; 1.1228841011129248E9 ; 9.381624487319223E8 ; 1.8071407932908276E10 ; 0.0
24 ; 4.326369699121361E7 ; 1.166430478703577E9 ; 9.813651254569993E8 ; 1.9194292034021202E10 ; 0.0
25 ; 4.331314629864094E7 ; 1.2039586062936456E9 ; 1.0246288224482129E9 ; 2.0360722512724777E10 ; 0.0
26 ; 4.3359519532508165E7 ; 1.203989701857978E9 ; 1.0679419687468538E9 ; 2.156468111901842E10 ; 0.0
27 ; 4.341222738702172E7 ; 1.2040223123594985E9 ; 1.111301488279362E9 ; 2.27686708208764E10 ; 0.0
28 ; 4.345758102559589E7 ; 1.2040563696867187E9 ; 1.1547137156663837E9 ; 2.3972693133235897E10 ; 0.0
29 ; 4.35102167796637E7 ; 1.2040918068048644E9 ; 1.1981712966919796E9 ; 2.5176749502922615E10 ; 0.0
30 ; 4.354878097356125E7 ; 1.2041285580843463E9 ; 1.2416815134716434E9 ; 2.6380841309727478E10 ; 0.0
31 ; 4.3596165893794104E7 ; 1.2041665595694895E9 ; 1.2852302944452047E9 ; 2.7584969867811825E10 ; 0.0
32 ; 4.363793744233353E7 ; 1.2042057491919656E9 ; 1.3288264603389988E9 ; 2.8789136427381313E10 ; 0.0
33 ; 4.368709694218714E7 ; 1.2042460669339983E9 ; 1.3724643977813323E9 ; 2.999334217657328E10 ; 0.0
34 ; 4.372458899249729E7 ; 1.2042874549467332E9 ; 1.4161514947235193E9 ; 3.119758824350728E10 ; 0.0
35 ; 4.377305756460024E7 ; 1.2043298576292298E9 ; 1.4598760837160165E9 ; 3.240187569845401E10 ; 0.0
36 ; 4.380717044773953E7 ; 1.2043732216734054E9 ; 1.5036491412806168E9 ; 3.360620555608324E10 ; 0.0
37 ; 4.384380843662657E7 ; 1.2044174960800085E9 ; 1.5474563117283564E9 ; 3.4810578777756645E10 ; 0.0
38 ; 4.3881076344310455E7 ; 1.204462632150322E9 ; 1.591300120164983E9 ; 3.6014996273836655E10 ; 0.0
39 ; 4.3920634793745875E7 ; 1.2045085834578936E9 ; 1.6351811965092936E9 ; 3.721945890598698E10 ; 0.0
40 ; 4.395146242386316E7 ; 1.20455530580414E9 ; 1.6791018313030396E9 ; 3.842396748944487E10 ; 0.0
41 ; 4.398029765257452E7 ; 1.204602757161224E9 ; 1.7230532937269027E9 ; 3.962852279524901E10 ; 0.0
42 ; 4.40073344266052E7 ; 1.204650897605163E9 ; 1.7670335913794773E9 ; 4.083312555241023E10 ; 0.0
43 ; 4.404388006136482E7 ; 1.2046996892417243E9 ; 1.8110409258060825E9 ; 4.2037776450015396E10 ; 0.0
44 ; 4.405842355508741E7 ; 1.204749096127262E9 ; 1.8550848058674474E9 ; 4.324247613925712E10 ; 0.0
45 ; 4.4085931243345216E7 ; 1.2047990841863322E9 ; 1.8991432294225347E9 ; 4.4447225235384384E10 ; 0.0
46 ; 4.411095100829691E7 ; 1.2048496211275756E9 ; 1.94322916066588E9 ; 4.565202431957072E10 ; 0.0
47 ; 4.413090801254599E7 ; 1.2049006763591237E9 ; 1.987340111674177E9 ; 4.6856873940698296E10 ; 0.0
48 ; 4.414297788420175E7 ; 1.2049522209045115E9 ; 2.031471019686723E9 ; 4.806177461705742E10 ; 0.0
49 ; 4.415983195087425E7 ; 1.2050042273198988E9 ; 2.0756139975709248E9 ; 4.926672683796193E10 ; 0.0
50 ; 4.4178071524832904E7 ; 1.2050566696132123E9 ; 2.119773829521799E9 ; 5.047173106528183E10 ; 0.0
51 ; 4.418872609523477E7 ; 1.205109523165679E9 ; 2.163951901046632E9 ; 5.167678773489504E10 ; 0.0
52 ; 4.420308922012986E7 ; 1.2051627646560936E9 ; 2.2081406271418667E9 ; 5.288189725806072E10 ; 0.0
53 ; 4.4214265738112114E7 ; 1.2052163719880674E9 ; 2.2523437163619967E9 ; 5.408706002271681E10 ; 0.0
54 ; 4.42313262883654E7 ; 1.2052703242204027E9 ; 2.2965579821001086E9 ; 5.529227639470488E10 ; 0.0
55 ; 4.423787178683547E7 ; 1.205324601500693E9 ; 2.340789308388474E9 ; 5.6497546718925285E10 ; 0.0
56 ; 4.424995361345045E7 ; 1.2053791850021718E9 ; 2.3850271801753097E9 ; 5.770287132042598E10 ; 0.0
57 ; 4.425962809950733E7 ; 1.2054340568638005E9 ; 2.42927713378876E9 ; 5.8908250505428154E10 ; 0.0
58 ; 4.425609049403867E7 ; 1.2054892001335483E9 ; 2.4735367618882675E9 ; 6.0113684562291954E10 ; 0.0
59 ; 4.427587796383111E7 ; 1.2055445987147882E9 ; 2.517792852382306E9 ; 6.13191737624255E10 ; 0.0
60 ; 4.427708254402854E7 ; 1.2056002373157165E9 ; 2.562068730346137E9 ; 6.252471836114029E10 ; 0.0
61 ; 4.4285192503272206E7 ; 1.2056561014016876E9 ; 2.606345812890166E9 ; 6.373031859845601E10 ; 0.0
62 ; 4.429800471184382E7 ; 1.205712177150346E9 ; 2.650631005393438E9 ; 6.49359746998577E10 ; 0.0
63 ; 4.430507016942004E7 ; 1.2057684514094288E9 ; 2.694929010105282E9 ; 6.614168687700804E10 ; 0.0
64 ; 4.4311285039663576E7 ; 1.2058249116571133E9 ; 2.739234080274702E9 ; 6.734745532841747E10 ; 0.0
65 ; 4.432098415066389E7 ; 1.2058815459647784E9 ; 2.783545365314366E9 ; 6.8553280240074585E10 ; 0.0
66 ; 4.432422987476918E7 ; 1.2059383429620538E9 ; 2.8278663494650297E9 ; 6.975916178603937E10 ; 0.0
67 ; 4.432992094270331E7 ; 1.2059952918040266E9 ; 2.872190579339799E9 ; 7.096510012900142E10 ; 0.0
68 ; 4.4335603982792854E7 ; 1.2060523821404858E9 ; 2.916520500282502E9 ; 7.217109542080545E10 ; 0.0
69 ; 4.4337992434847616E7 ; 1.2061096040870852E9 ; 2.960856104265295E9 ; 7.337714780294594E10 ; 0.0
70 ; 4.4346432686538234E7 ; 1.2061669481983066E9 ; 3.005194096700143E9 ; 7.458325740703302E10 ; 0.0
71 ; 4.434579831376824E7 ; 1.206224405442118E9 ; 3.049540529386681E9 ; 7.578942435523132E10 ; 0.0
72 ; 4.4350853537099734E7 ; 1.2062819671762183E9 ; 3.0938863277004495E9 ; 7.699564876067345E10 ; 0.0
73 ; 4.435037730766271E7 ; 1.2063396251257718E9 ; 3.1382371812375493E9 ; 7.820193072784967E10 ; 0.0
74 ; 4.435601947730019E7 ; 1.206397371362536E9 ; 3.182587558545212E9 ; 7.940827035297545E10 ; 0.0
75 ; 4.435561530089374E7 ; 1.2064551982852974E9 ; 3.226943578022512E9 ; 8.061466772433798E10 ; 0.0
76 ; 4.4358211432854205E7 ; 1.206513098601525E9 ; 3.2712991933234057E9 ; 8.182112292262328E10 ; 0.0
77 ; 4.4358078412944496E7 ; 1.2065710653101697E9 ; 3.31565740475626E9 ; 8.302763602122481E10 ; 0.0
78 ; 4.434684709878786E7 ; 1.2066290916855314E9 ; 3.360015483169204E9 ; 8.423420708653497E10 ; 0.0
79 ; 4.433940757503525E7 ; 1.206687171262125E9 ; 3.404362330267992E9 ; 8.54408361782205E10 ; 0.0
80 ; 4.43230973482661E7 ; 1.2067452978204787E9 ; 3.448701737843027E9 ; 8.664752334948264E10 ; 0.0
81 ; 4.43087226994302E7 ; 1.2068034653738093E9 ; 3.4930248351912932E9 ; 8.785426864730312E10 ; 0.0
82 ; 4.4292347939714E7 ; 1.2068616681555085E9 ; 3.537333557890723E9 ; 8.906107211267693E10 ; 0.0
83 ; 4.429193236071416E7 ; 1.206919900607395E9 ; 3.581625905830437E9 ; 9.026793378083243E10 ; 0.0
84 ; 4.427193255342102E7 ; 1.206978157368678E9 ; 3.625917838191151E9 ; 9.147485368143982E10 ; 0.0
85 ; 4.424946539161366E7 ; 1.2070364332655888E9 ; 3.670189770744572E9 ; 9.26818318388085E10 ; 0.0
86 ; 4.422869075243895E7 ; 1.2070947233016303E9 ; 3.7144392361361856E9 ; 9.38888682720741E10 ; 0.0
87 ; 4.422106750510737E7 ; 1.207153022648416E9 ; 3.7586679268886247E9 ; 9.509596299537573E10 ; 0.0
88 ; 4.4203935928835094E7 ; 1.207211326637048E9 ; 3.802888994393732E9 ; 9.630311601802415E10 ; 0.0
89 ; 4.418596800265008E7 ; 1.2072696307500074E9 ; 3.847092930322567E9 ; 9.751032734466121E10 ; 0.0
90 ; 4.416807293579872E7 ; 1.2073279306135206E9 ; 3.8912788983252172E9 ; 9.871759697541121E10 ; 0.0
91 ; 4.4150527760926515E7 ; 1.2073862219903705E9 ; 3.935446971261016E9 ; 9.992492490602473E10 ; 0.0
92 ; 4.4131504664703846E7 ; 1.2074445007731276E9 ; 3.9795974990219426E9 ; 1.011323111280151E11 ; 0.0
93 ; 4.4112812701679274E7 ; 1.2075027629777708E9 ; 4.0237290036866465E9 ; 1.0233975562878824E11 ; 0.0
94 ; 4.4094421850594446E7 ; 1.2075610047376728E9 ; 4.0678418163883257E9 ; 1.03547258391766E11 ; 0.0
95 ; 4.407711993025689E7 ; 1.2076192222979324E9 ; 4.11193623823892E9 ; 1.0475481939650368E11 ; 0.0
96 ; 4.405440965640521E7 ; 1.207677412010024E9 ; 4.156013358169177E9 ; 1.059624386188016E11 ; 0.0
97 ; 4.40310319588425E7 ; 1.2077355703267517E9 ; 4.2000677678255825E9 ; 1.0717011603081163E11 ; 0.0
98 ; 4.4015268296473466E7 ; 1.2077936937974842E9 ; 4.244098799784425E9 ; 1.0837785160113838E11 ; 0.0
99 ; 4.399004147586213E7 ; 1.207851779063656E9 ; 4.2881140680808983E9 ; 1.0958564529493587E11 ; 0.0
100 ; 4.39735000910463E7 ; 1.2079098228545163E9 ; 4.332104109556761E9 ; 1.1079349707399953E11 ; 0.0
101 ; 4.395340829913797E7 ; 1.2079678219831116E9 ; 4.376077609647807E9 ; 1.1200140689685405E11 ; 0.0
102 ; 4.391861331779376E7 ; 1.2080257733424888E9 ; 4.420031017946945E9 ; 1.1320937471883716E11 ; 0.0
103 ; 4.389849265047456E7 ; 1.2080836739021034E9 ; 4.463949631264739E9 ; 1.1441740049217964E11 ; 0.0
104 ; 4.387872976829274E7 ; 1.2081415207044206E9 ; 4.507848123915214E9 ; 1.1562548416608174E11 ; 0.0
105 ; 4.385454202194745E7 ; 1.2081993108616989E9 ; 4.551726853683506E9 ; 1.1683362568678616E11 ; 0.0
106 ; 4.3831822397371866E7 ; 1.2082570415529463E9 ; 4.595581395705454E9 ; 1.1804182499764786E11 ; 0.0
107 ; 4.379898470140381E7 ; 1.2083147100210357E9 ; 4.639413218102826E9 ; 1.192500820392008E11 ; 0.0
108 ; 4.377934737377601E7 ; 1.2083723135699718E9 ; 4.68321220280423E9 ; 1.2045839674922185E11 ; 0.0
109 ; 4.375198525855384E7 ; 1.2084298495623016E9 ; 4.726991550178006E9 ; 1.2166676906279182E11 ; 0.0
110 ; 4.372212588312761E7 ; 1.2084873154166584E9 ; 4.77074353543656E9 ; 1.2287519891235413E11 ; 0.0
111 ; 4.369656273099214E7 ; 1.208544708605434E9 ; 4.814465661319687E9 ; 1.2408368622777078E11 ; 0.0
112 ; 4.367193669166743E7 ; 1.208602026652567E9 ; 4.858162224050679E9 ; 1.2529223093637622E11 ; 0.0
113 ; 4.364883509633235E7 ; 1.2086592671314464E9 ; 4.901834160742347E9 ; 1.265008329630288E11 ; 0.0
114 ; 4.361422056151071E7 ; 1.2087164276629212E9 ; 4.945482995838679E9 ; 1.2770949223016023E11 ; 0.0
115 ; 4.3591702666764885E7 ; 1.2087735059134078E9 ; 4.98909721640019E9 ; 1.2891820865782315E11 ; 0.0
116 ; 4.355218587272964E7 ; 1.2088304995930934E9 ; 5.032688919066956E9 ; 1.3012698216373656E11 ; 0.0
117 ; 4.353621135140631E7 ; 1.2088874064542286E9 ; 5.076241104939685E9 ; 1.3133581266332965E11 ; 0.0
118 ; 4.350672472650564E7 ; 1.2089442242895048E9 ; 5.119777316291091E9 ; 1.3254470006978387E11 ; 0.0
119 ; 4.346335070028411E7 ; 1.2090009509305081E9 ; 5.163284041017596E9 ; 1.3375364429407338E11 ; 0.0
120 ; 4.343952260586412E7 ; 1.2090575842462535E9 ; 5.20674739171788E9 ; 1.3496264524500389E11 ; 0.0
121 ; 4.3407697100308314E7 ; 1.2091141221417854E9 ; 5.250186914323745E9 ; 1.3617170282925014E11 ; 0.0
122 ; 4.3377471149206705E7 ; 1.2091705625568476E9 ; 5.293594611424053E9 ; 1.3738081695139192E11 ; 0.0
123 ; 4.334088438856624E7 ; 1.2092269034646177E9 ; 5.33697208257326E9 ; 1.3858998751394876E11 ; 0.0
124 ; 4.330803991548868E7 ; 1.2092831428704996E9 ; 5.380312966961826E9 ; 1.397992144174134E11 ; 0.0
125 ; 4.328033024878943E7 ; 1.2093392788109741E9 ; 5.423621006877315E9 ; 1.410084975602839E11 ; 0.0
126 ; 4.324442371330488E7 ; 1.2093953093525047E9 ; 5.466901337126104E9 ; 1.4221783683909488E11 ; 0.0
127 ; 4.321062838315181E7 ; 1.2094512325904927E9 ; 5.510145760839409E9 ; 1.434272321484474E11 ; 0.0
128 ; 4.3181405097476736E7 ; 1.2095070466482816E9 ; 5.553356389222561E9 ; 1.4463668338103787E11 ; 0.0
129 ; 4.314271505800513E7 ; 1.2095627496762075E9 ; 5.596537794320038E9 ; 1.4584619042768616E11 ; 0.0
130 ; 4.310397566789972E7 ; 1.209618339850693E9 ; 5.639680509378043E9 ; 1.4705575317736237E11 ; 0.0
131 ; 4.3054406858033225E7 ; 1.2096738153733826E9 ; 5.682784485045943E9 ; 1.4826537151721307E11 ; 0.0
132 ; 4.300447630046636E7 ; 1.2097291744703178E9 ; 5.725838891903976E9 ; 1.4947504533258646E11 ; 0.0
133 ; 4.295165011122137E7 ; 1.2097844153911486E9 ; 5.768843368204443E9 ; 1.5068477450705676E11 ; 0.0
134 ; 4.290372777714676E7 ; 1.2098395364083803E9 ; 5.811795018315664E9 ; 1.518945589224479E11 ; 0.0
135 ; 4.285790972394663E7 ; 1.209894535816656E9 ; 5.854698746092811E9 ; 1.531043984588563E11 ; 0.0
136 ; 4.28010519556945E7 ; 1.2099494119320688E9 ; 5.897556655816757E9 ; 1.5431429299467294E11 ; 0.0
137 ; 4.2753359066857085E7 ; 1.2100041630915034E9 ; 5.940357707772451E9 ; 1.55524242406605E11 ; 0.0
138 ; 4.270467811071946E7 ; 1.2100587876520119E9 ; 5.983111066839309E9 ; 1.567342465696965E11 ; 0.0
139 ; 4.2652314026944935E7 ; 1.2101132839902105E9 ; 6.025815744950028E9 ; 1.579443053573485E11 ; 0.0
140 ; 4.25956655672651E7 ; 1.2101676505017066E9 ; 6.068468058976974E9 ; 1.591544186413387E11 ; 0.0
141 ; 4.2539200059735715E7 ; 1.2102218856005497E9 ; 6.111063724544239E9 ; 1.6036458629184042E11 ; 0.0
142 ; 4.2489638615901865E7 ; 1.210275987718705E9 ; 6.153602924603974E9 ; 1.6157480817744098E11 ; 0.0
143 ; 4.243387705701566E7 ; 1.2103299553055506E9 ; 6.196092563219876E9 ; 1.627850841651597E11 ; 0.0
144 ; 4.238535162012044E7 ; 1.2103837868273973E9 ; 6.238526440276892E9 ; 1.6399541412046524E11 ; 0.0
145 ; 4.2348890802797064E7 ; 1.2104374807670255E9 ; 6.280911791897012E9 ; 1.6520579790729263E11 ; 0.0
146 ; 4.2303697993409656E7 ; 1.210491035623245E9 ; 6.323260682699809E9 ; 1.6641623538805966E11 ; 0.0
147 ; 4.226944419018142E7 ; 1.2105444499104714E9 ; 6.365564380693219E9 ; 1.676267264236829E11 ; 0.0
148 ; 4.223200784509624E7 ; 1.2105977221583214E9 ; 6.407833824883401E9 ; 1.6883727087359335E11 ; 0.0
149 ; 4.2195312602282286E7 ; 1.210650850911224E9 ; 6.4500658327284975E9 ; 1.7004786859575168E11 ; 0.0
150 ; 4.215058070583713E7 ; 1.2107038347280483E9 ; 6.49226114533078E9 ; 1.712585194466629E11 ; 0.0
151 ; 4.212029143929748E7 ; 1.2107566721817477E9 ; 6.534411726036617E9 ; 1.7246922328139096E11 ; 0.0
152 ; 4.207774921624288E7 ; 1.210809361859017E9 ; 6.576532017475915E9 ; 1.7367997995357272E11 ; 0.0
153 ; 4.20421627340179E7 ; 1.210861902359964E9 ; 6.618609766692158E9 ; 1.7489078931543173E11 ; 0.0
154 ; 4.199840401865655E7 ; 1.2109142922977955E9 ; 6.660651929426176E9 ; 1.761016512177917E11 ; 0.0
155 ; 4.196064650308592E7 ; 1.2109665302985163E9 ; 6.702650333444833E9 ; 1.7731256551008948E11 ; 0.0
156 ; 4.191419512186726E7 ; 1.2110186150006382E9 ; 6.744610979947919E9 ; 1.78523532040388E11 ; 0.0
157 ; 4.187968111244614E7 ; 1.211070545054903E9 ; 6.786525175069786E9 ; 1.7973455065538864E11 ; 0.0
158 ; 4.183575852498517E7 ; 1.2111223191240153E9 ; 6.828404856182232E9 ; 1.8094562120044354E11 ; 0.0
159 ; 4.18031546875102E7 ; 1.211173935882388E9 ; 6.870240614707217E9 ; 1.8215674351956757E11 ; 0.0
160 ; 4.176563226540893E7 ; 1.2112253940158944E9 ; 6.912043769394728E9 ; 1.8336791745544995E11 ; 0.0
161 ; 4.1721767961386666E7 ; 1.2112766922216344E9 ; 6.953809401660136E9 ; 1.8457914284946585E11 ; 0.0
162 ; 4.168541621133034E7 ; 1.2113278292077065E9 ; 6.995531169621523E9 ; 1.857904195416875E11 ; 0.0
163 ; 4.164388551041421E7 ; 1.211378803692991E9 ; 7.037216585832853E9 ; 1.870017473708952E11 ; 0.0
164 ; 4.1595768087714E7 ; 1.2114296144069407E9 ; 7.078860471343267E9 ; 1.882131261745882E11 ; 0.0
165 ; 4.1553941560660034E7 ; 1.2114802600893807E9 ; 7.120456239430982E9 ; 1.8942455578899515E11 ; 0.0
166 ; 4.15130512624409E7 ; 1.2115307394903145E9 ; 7.162010180991642E9 ; 1.9063603604908453E11 ; 0.0
167 ; 4.14779724016509E7 ; 1.2115810513697405E9 ; 7.203523232254083E9 ; 1.9184756678857486E11 ; 0.0
168 ; 4.142704711996961E7 ; 1.2116311944974709E9 ; 7.245001204655733E9 ; 1.930591478399446E11 ; 0.0
169 ; 4.1394738335234776E7 ; 1.2116811676529644E9 ; 7.286428251775702E9 ; 1.9427077903444208E11 ; 0.0
170 ; 4.134738108779225E7 ; 1.2117309696251588E9 ; 7.327822990110937E9 ; 1.9548246020209503E11 ; 0.0
171 ; 4.1301314969455026E7 ; 1.2117805992123137E9 ; 7.3691703711987295E9 ; 1.9669419117172018E11 ; 0.0
172 ; 4.125908425558846E7 ; 1.2118300552218597E9 ; 7.410471686168184E9 ; 1.979059717709325E11 ; 0.0
173 ; 4.122186685080403E7 ; 1.2118793364702497E9 ; 7.451730770423773E9 ; 1.9911780182615436E11 ; 0.0
174 ; 4.119025001394216E7 ; 1.2119284417828207E9 ; 7.492952637274577E9 ; 2.003296811626246E11 ; 0.0
175 ; 4.117555523613758E7 ; 1.2119773699936588E9 ; 7.534142887288519E9 ; 2.015416096044074E11 ; 0.0
176 ; 4.114193134377747E7 ; 1.212026119945467E9 ; 7.575318442524656E9 ; 2.0275358697440106E11 ; 0.0
177 ; 4.1118304845599696E7 ; 1.2120746904894423E9 ; 7.616460373868434E9 ; 2.0396561309434653E11 ; 0.0
178 ; 4.109683327200447E7 ; 1.212123080485155E9 ; 7.657578678714034E9 ; 2.0517768778483597E11 ; 0.0
179 ; 4.1068312556292936E7 ; 1.2121712888004332E9 ; 7.698675511986038E9 ; 2.0638981086532114E11 ; 0.0
180 ; 4.104431485407085E7 ; 1.212219314311251E9 ; 7.739743824542331E9 ; 2.0760198215412158E11 ; 0.0
181 ; 4.10172914386944E7 ; 1.212267155901622E9 ; 7.780788139396401E9 ; 2.0881420146843283E11 ; 0.0
182 ; 4.0993842256757125E7 ; 1.2123148124634974E9 ; 7.821805430835095E9 ; 2.1002646862433444E11 ; 0.0
183 ; 4.096746235905075E7 ; 1.2123622828966656E9 ; 7.862799273091852E9 ; 2.1123878343679794E11 ; 0.0
184 ; 4.0939096453013845E7 ; 1.2124095661086574E9 ; 7.903766735450903E9 ; 2.124511457196946E11 ; 0.0
185 ; 4.0916243262929544E7 ; 1.2124566610146549E9 ; 7.944705831903916E9 ; 2.1366355528580325E11 ; 0.0
186 ; 4.089222192394778E7 ; 1.2125035665374033E9 ; 7.985622075166846E9 ; 2.148760119468179E11 ; 0.0
187 ; 4.086787407174195E7 ; 1.2125502816071253E9 ; 8.026514297090794E9 ; 2.1608851551335532E11 ; 0.0
188 ; 4.083858445804422E7 ; 1.2125968051614413E9 ; 8.067382171162536E9 ; 2.1730106579496243E11 ; 0.0
189 ; 4.081702730441789E7 ; 1.2126431361452894E9 ; 8.10822075562058E9 ; 2.1851366260012387E11 ; 0.0
190 ; 4.0787302321167976E7 ; 1.2126892735108502E9 ; 8.149037782924997E9 ; 2.1972630573626917E11 ; 0.0
191 ; 4.076489112726533E7 ; 1.212735216217475E9 ; 8.189825085246165E9 ; 2.2093899500978003E11 ; 0.0
192 ; 4.0740253844722174E7 ; 1.212780963231615E9 ; 8.23058997637343E9 ; 2.221517302259975E11 ; 0.0
193 ; 4.070999495718752E7 ; 1.2128265135267549E9 ; 8.271330230218152E9 ; 2.2336451118922913E11 ; 0.0
194 ; 4.068452498742802E7 ; 1.2128718660833478E9 ; 8.31204022517534E9 ; 2.245773377027559E11 ; 0.0
195 ; 4.066144163668397E7 ; 1.2129170198887534E9 ; 8.352724750162767E9 ; 2.2579020956883923E11 ; 0.0
196 ; 4.064193585721975E7 ; 1.2129619739371777E9 ; 8.393386191799452E9 ; 2.27003126588728E11 ; 0.0
197 ; 4.0611486784106694E7 ; 1.2130067272296157E9 ; 8.434028127656672E9 ; 2.2821608856266516E11 ; 0.0
