CSV File for the Network on Day 253
1 - Minute m 
2 - Power Consumed at minute m 
3 - Power Produced at minute m 
4 - Energy Consumed since the beginning of the day 
5 - Energy Produced since the beginning of the day 
6 - Energy Lost since the beginning of the day 
 
0 ; 9640695.335848944 ; 6.336787255066396E8 ; 0.0 ; 0.0 ; 0.0
1 ; 9678088.683881575 ; 6.345873737475038E8 ; 9640695.335848944 ; 6.336787255066396E8 ; 0.0
2 ; 9722551.111853298 ; 6.373495944868723E8 ; 1.931878401973052E7 ; 1.2682660992541432E9 ; 0.0
3 ; 9759570.286692033 ; 6.419654190631936E8 ; 2.9041335131583817E7 ; 1.9056156937410154E9 ; 0.0
4 ; 9812096.73346627 ; 6.48434875895335E8 ; 3.880090541827585E7 ; 2.5475811128042088E9 ; 0.0
5 ; 9878194.521509128 ; 6.567579902163785E8 ; 4.8613002151742116E7 ; 3.196015988699544E9 ; 0.0
6 ; 9961982.823075071 ; 6.669347838291616E8 ; 5.849119667325124E7 ; 3.852773978915922E9 ; 0.0
7 ; 1.0091295934732474E7 ; 6.78965274888866E8 ; 6.845317949632631E7 ; 4.519708762745084E9 ; 0.0
8 ; 1.0270539019868245E7 ; 6.928494777175717E8 ; 7.85444754310588E7 ; 5.198674037633949E9 ; 0.0
9 ; 1.0554439739593003E7 ; 7.085874026551249E8 ; 8.881501445092703E7 ; 5.891523515351521E9 ; 0.0
10 ; 1.0985739399697822E7 ; 7.261790559499017E8 ; 9.936945419052003E7 ; 6.600110918006645E9 ; 0.0
11 ; 1.1665916930219265E7 ; 7.456244396921619E8 ; 1.1035519359021786E8 ; 7.326289973956547E9 ; 0.0
12 ; 1.278161698290673E7 ; 7.66923551791646E8 ; 1.2202111052043712E8 ; 8.071914413648708E9 ; 0.0
13 ; 1.384278668830805E7 ; 7.900763859999769E8 ; 1.3480272750334385E8 ; 8.838837965440353E9 ; 0.0
14 ; 1.3961125769652296E7 ; 8.150829319773098E8 ; 1.486455141916519E8 ; 9.62891435144033E9 ; 0.0
15 ; 1.400783336033569E7 ; 8.419431754015636E8 ; 1.6260663996130422E8 ; 1.044399728341764E10 ; 0.0
16 ; 1.4054699477276137E7 ; 8.706570981175572E8 ; 1.766144733216399E8 ; 1.1285940458819204E10 ; 0.0
17 ; 1.4098392814630479E7 ; 9.012246783224529E8 ; 1.9066917279891604E8 ; 1.2156597556936762E10 ; 0.0
18 ; 1.4148074708730148E7 ; 9.336458907831684E8 ; 2.0476756561354652E8 ; 1.3057822235259214E10 ; 0.0
19 ; 1.4193638491200358E7 ; 9.67920707080837E8 ; 2.1891564032227668E8 ; 1.3991468126042383E10 ; 0.0
20 ; 1.4239896273441423E7 ; 1.0040490958770097E9 ; 2.3310927881347704E8 ; 1.495938883312322E10 ; 0.0
21 ; 1.4295144846224926E7 ; 1.042031023196119E9 ; 2.4734917508691847E8 ; 1.596343792900023E10 ; 0.0
22 ; 1.4341172597068582E7 ; 1.0818664527187114E9 ; 2.616443199331434E8 ; 1.700546895219635E10 ; 0.0
23 ; 1.4386168208776606E7 ; 1.1235553460801408E9 ; 2.75985492530212E8 ; 1.8087335404915062E10 ; 0.0
24 ; 1.4435657496479256E7 ; 1.1670976631697278E9 ; 2.903716607389886E8 ; 1.92108907509952E10 ; 0.0
25 ; 1.4484402260783803E7 ; 1.204621607814934E9 ; 3.0480731823546785E8 ; 2.037798841416493E10 ; 0.0
26 ; 1.453334625004142E7 ; 1.2046484242897015E9 ; 3.1929172049625164E8 ; 2.1582610021979862E10 ; 0.0
27 ; 1.4590321653577741E7 ; 1.204676684739289E9 ; 3.3382506674629307E8 ; 2.278725844626956E10 ; 0.0
28 ; 1.4635323195425235E7 ; 1.204706344921949E9 ; 3.484153883998708E8 ; 2.399193513100885E10 ; 0.0
29 ; 1.468000660049671E7 ; 1.2047373602128532E9 ; 3.63050711595296E8 ; 2.5196641475930798E10 ; 0.0
30 ; 1.4726854447729193E7 ; 1.2047696858303452E9 ; 3.7773071819579273E8 ; 2.640137883614365E10 ; 0.0
31 ; 1.4772771354351144E7 ; 1.2048032770429215E9 ; 3.924575726435219E8 ; 2.7606148521973995E10 ; 0.0
32 ; 1.4811825877482971E7 ; 1.204838089356384E9 ; 4.0723034399787307E8 ; 2.881095179901692E10 ; 0.0
33 ; 1.4856056211116673E7 ; 1.204874078681041E9 ; 4.22042169875356E8 ; 3.0015789888373302E10 ; 0.0
34 ; 1.4904648315859132E7 ; 1.2049112014792252E9 ; 4.368982260864727E8 ; 3.1220663967054344E10 ; 0.0
35 ; 1.493499922844149E7 ; 1.204949414893693E9 ; 4.518028744023318E8 ; 3.242557516853357E10 ; 0.0
36 ; 1.4974660356623873E7 ; 1.204988676857736E9 ; 4.667378736307733E8 ; 3.363052458342726E10 ; 0.0
37 ; 1.5014882823119234E7 ; 1.205028946188014E9 ; 4.817125339873972E8 ; 3.4835513260284996E10 ; 0.0
38 ; 1.5058391240588276E7 ; 1.2050701826612592E9 ; 4.967274168105164E8 ; 3.604054220647301E10 ; 0.0
39 ; 1.5088808558432277E7 ; 1.2051123470760872E9 ; 5.1178580805110466E8 ; 3.724561238913427E10 ; 0.0
40 ; 1.5127686507015666E7 ; 1.2051554013011987E9 ; 5.2687461660953695E8 ; 3.845072473621036E10 ; 0.0
41 ; 1.5160989922396202E7 ; 1.2051993083112626E9 ; 5.420023031165526E8 ; 3.965588013751156E10 ; 0.0
42 ; 1.519321257101426E7 ; 1.205244032211756E9 ; 5.571632930389488E8 ; 4.086107944582282E10 ; 0.0
43 ; 1.5215368014163489E7 ; 1.205289538254002E9 ; 5.72356505609963E8 ; 4.206632347803458E10 ; 0.0
44 ; 1.5247947582105136E7 ; 1.2053357928415842E9 ; 5.875718736241266E8 ; 4.327161301628858E10 ; 0.0
45 ; 1.5269781567121672E7 ; 1.2053827635292442E9 ; 6.028198212062317E8 ; 4.4476948809130165E10 ; 0.0
46 ; 1.5291303067195019E7 ; 1.2054304190153096E9 ; 6.180896027733533E8 ; 4.568233157265941E10 ; 0.0
47 ; 1.5311788470634304E7 ; 1.2054787291285982E9 ; 6.333809058405484E8 ; 4.688776199167472E10 ; 0.0
48 ; 1.5336146494101854E7 ; 1.2055276648106742E9 ; 6.486926943111827E8 ; 4.809324072080332E10 ; 0.0
49 ; 1.5351938225538293E7 ; 1.2055771980942447E9 ; 6.640288408052846E8 ; 4.9298768385614E10 ; 0.0
50 ; 1.5366145290311873E7 ; 1.2056273020784106E9 ; 6.793807790308229E8 ; 5.0504345583708244E10 ; 0.0
51 ; 1.5379200909242366E7 ; 1.205677950901395E9 ; 6.947469243211348E8 ; 5.170997288578665E10 ; 0.0
52 ; 1.5391941056280341E7 ; 1.2057291197113194E9 ; 7.101261252303772E8 ; 5.291565083668805E10 ; 0.0
53 ; 1.541123802863349E7 ; 1.20578078463551E9 ; 7.255180662866576E8 ; 5.412137995639937E10 ; 0.0
54 ; 1.5420453370098148E7 ; 1.2058329227487698E9 ; 7.40929304315291E8 ; 5.532716074103488E10 ; 0.0
55 ; 1.5437578149426881E7 ; 1.2058855120409799E9 ; 7.563497576853892E8 ; 5.653299366378365E10 ; 0.0
56 ; 1.545091650642066E7 ; 1.2059385313843577E9 ; 7.717873358348161E8 ; 5.773887917582463E10 ; 0.0
57 ; 1.546352681317896E7 ; 1.2059919605006344E9 ; 7.872382523412367E8 ; 5.894481770720899E10 ; 0.0
58 ; 1.5474133996501982E7 ; 1.2060457799283876E9 ; 8.027017791544157E8 ; 6.0150809667709625E10 ; 0.0
59 ; 1.5480355557952864E7 ; 1.2060999709907172E9 ; 8.181759131509178E8 ; 6.1356855447638016E10 ; 0.0
60 ; 1.5497913914697183E7 ; 1.2061545157634225E9 ; 8.336562687088706E8 ; 6.256295541862873E10 ; 0.0
61 ; 1.5509582802909788E7 ; 1.2062093970438132E9 ; 8.491541826235678E8 ; 6.376910993439215E10 ; 0.0
62 ; 1.5525851646737587E7 ; 1.2062645983202522E9 ; 8.646637654264776E8 ; 6.497531933143597E10 ; 0.0
63 ; 1.5538004083611207E7 ; 1.206320103742516E9 ; 8.801896170732151E8 ; 6.618158392975622E10 ; 0.0
64 ; 1.5539708213710267E7 ; 1.2063758980930307E9 ; 8.957276211568264E8 ; 6.738790403349873E10 ; 0.0
65 ; 1.555028212443467E7 ; 1.2064319667590313E9 ; 9.112673293705367E8 ; 6.859427993159177E10 ; 0.0
66 ; 1.5558309311294697E7 ; 1.2064882957056751E9 ; 9.268176114949714E8 ; 6.98007118983508E10 ; 0.0
67 ; 1.5581458224788606E7 ; 1.2065448714501257E9 ; 9.423759208062661E8 ; 7.100720019405647E10 ; 0.0
68 ; 1.5578853399477549E7 ; 1.2066016810366187E9 ; 9.579573790310547E8 ; 7.221374506550659E10 ; 0.0
69 ; 1.5590501652290657E7 ; 1.2066587120125103E9 ; 9.735362324305323E8 ; 7.342034674654321E10 ; 0.0
70 ; 1.5607178102001706E7 ; 1.2067159524052963E9 ; 9.89126734082823E8 ; 7.462700545855573E10 ; 0.0
71 ; 1.5605463381617073E7 ; 1.2067733907005975E9 ; 1.0047339121848247E9 ; 7.583372141096103E10 ; 0.0
72 ; 1.5612093711420521E7 ; 1.2068310158210843E9 ; 1.0203393755664418E9 ; 7.704049480166162E10 ; 0.0
73 ; 1.5622162298661714E7 ; 1.2068888171063304E9 ; 1.0359514692778623E9 ; 7.824732581748271E10 ; 0.0
74 ; 1.5632418429329187E7 ; 1.2069467842935593E9 ; 1.051573631576524E9 ; 7.945421463458904E10 ; 0.0
75 ; 1.5639437672349669E7 ; 1.2070049074992692E9 ; 1.0672060500058532E9 ; 8.06611614188826E10 ; 0.0
76 ; 1.5635907059800927E7 ; 1.2070631772016976E9 ; 1.0828454876782029E9 ; 8.186816632638187E10 ; 0.0
77 ; 1.5647661551082915E7 ; 1.2071215842241054E9 ; 1.0984813947380037E9 ; 8.307522950358356E10 ; 0.0
78 ; 1.564112751923857E7 ; 1.2071801197188444E9 ; 1.1141290562890866E9 ; 8.428235108780766E10 ; 0.0
79 ; 1.563894823260993E7 ; 1.207238775152182E9 ; 1.129770183808325E9 ; 8.54895312075265E10 ; 0.0
80 ; 1.5632349746584907E7 ; 1.2072975422898488E9 ; 1.145409132040935E9 ; 8.669676998267868E10 ; 0.0
81 ; 1.5619797789990643E7 ; 1.2073564131832824E9 ; 1.16104148178752E9 ; 8.790406752496854E10 ; 0.0
82 ; 1.5617260620638397E7 ; 1.2074153801565356E9 ; 1.1766612795775106E9 ; 8.911142393815182E10 ; 0.0
83 ; 1.5606651677493758E7 ; 1.207474435793823E9 ; 1.192278540198149E9 ; 9.031883931830836E10 ; 0.0
84 ; 1.5598801407384373E7 ; 1.207533572927669E9 ; 1.2078851918756428E9 ; 9.152631375410219E10 ; 0.0
85 ; 1.5581206109034572E7 ; 1.207592784627642E9 ; 1.2234839932830272E9 ; 9.273384732702986E10 ; 0.0
86 ; 1.5580279906007024E7 ; 1.2076520641896338E9 ; 1.2390651993920617E9 ; 9.39414401116575E10 ; 0.0
87 ; 1.5566318637010684E7 ; 1.2077114051256723E9 ; 1.2546454792980688E9 ; 9.514909217584714E10 ; 0.0
88 ; 1.5557521013567276E7 ; 1.2077708011542268E9 ; 1.2702117979350793E9 ; 9.635680358097281E10 ; 0.0
89 ; 1.5548690117409848E7 ; 1.2078302461909962E9 ; 1.2857693189486465E9 ; 9.756457438212703E10 ; 0.0
90 ; 1.554398577304503E7 ; 1.207889734340148E9 ; 1.3013180090660565E9 ; 9.877240462831802E10 ; 0.0
91 ; 1.5528981052647829E7 ; 1.207949259885986E9 ; 1.3168619948391016E9 ; 9.998029436265817E10 ; 0.0
92 ; 1.5519502778506074E7 ; 1.2080088172850304E9 ; 1.3323909758917494E9 ; 1.0118824362254416E11 ; 0.0
93 ; 1.5507479523482814E7 ; 1.2080684011584828E9 ; 1.3479104786702554E9 ; 1.023962524398292E11 ; 0.0
94 ; 1.5493873031693723E7 ; 1.208128006285065E9 ; 1.3634179581937382E9 ; 1.0360432084098767E11 ; 0.0
95 ; 1.5483284284351751E7 ; 1.208187627594203E9 ; 1.378911831225432E9 ; 1.0481244884727274E11 ; 0.0
96 ; 1.5476676856717808E7 ; 1.2082472601595483E9 ; 1.3943951155097837E9 ; 1.0602063647486694E11 ; 0.0
97 ; 1.546049417938081E7 ; 1.20830689919281E9 ; 1.4098717923665016E9 ; 1.0722888373502649E11 ; 0.0
98 ; 1.5443014290117025E7 ; 1.208366540037893E9 ; 1.4253322865458825E9 ; 1.084371906342193E11 ; 0.0
99 ; 1.5436372981475897E7 ; 1.2084261781653123E9 ; 1.4407753008359995E9 ; 1.0964555717425719E11 ; 0.0
100 ; 1.5416700842620477E7 ; 1.2084858091668844E9 ; 1.4562116738174753E9 ; 1.108539833524225E11 ; 0.0
101 ; 1.5406230710990317E7 ; 1.2085454287506697E9 ; 1.4716283746600957E9 ; 1.1206246916158939E11 ; 0.0
102 ; 1.539785275526435E7 ; 1.2086050327361608E9 ; 1.4870346053710861E9 ; 1.1327101459034006E11 ; 0.0
103 ; 1.5369738151312161E7 ; 1.2086646170496993E9 ; 1.5024324581263504E9 ; 1.1447961962307622E11 ; 0.0
104 ; 1.536641825730884E7 ; 1.2087241777201118E9 ; 1.5178021962776625E9 ; 1.1568828424012592E11 ; 0.0
105 ; 1.5343738862712577E7 ; 1.208783710874553E9 ; 1.5331686145349712E9 ; 1.1689700841784602E11 ; 0.0
106 ; 1.5337447050387636E7 ; 1.2088432127345462E9 ; 1.5485123533976839E9 ; 1.1810579212872058E11 ; 0.0
107 ; 1.531455375119239E7 ; 1.2089026796122103E9 ; 1.5638498004480715E9 ; 1.1931463534145512E11 ; 0.0
108 ; 1.529956973127864E7 ; 1.2089621079066637E9 ; 1.5791643541992638E9 ; 1.2052353802106734E11 ; 0.0
109 ; 1.5289243973308545E7 ; 1.2090214941005974E9 ; 1.5944639239305425E9 ; 1.21732500128974E11 ; 0.0
110 ; 1.5269907383084564E7 ; 1.2090808347570071E9 ; 1.609753167903851E9 ; 1.229415216230746E11 ; 0.0
111 ; 1.5246850445125382E7 ; 1.209140126516076E9 ; 1.6250230752869356E9 ; 1.241506024578316E11 ; 0.0
112 ; 1.5230962614486944E7 ; 1.209199366092204E9 ; 1.640269925732061E9 ; 1.2535974258434769E11 ; 0.0
113 ; 1.5215057837404482E7 ; 1.2092585502711725E9 ; 1.6555008883465478E9 ; 1.265689419504399E11 ; 0.0
114 ; 1.5202074206237886E7 ; 1.2093176759074368E9 ; 1.6707159461839523E9 ; 1.2777820050071107E11 ; 0.0
115 ; 1.517722204428782E7 ; 1.2093767399215472E9 ; 1.6859180203901901E9 ; 1.2898751817661852E11 ; 0.0
116 ; 1.5155419827791817E7 ; 1.2094357392976816E9 ; 1.701095242434478E9 ; 1.3019689491654007E11 ; 0.0
117 ; 1.514141562650777E7 ; 1.2094946710812936E9 ; 1.71625066226227E9 ; 1.3140633065583775E11 ; 0.0
118 ; 1.5118370366333451E7 ; 1.2095535323768635E9 ; 1.7313920778887777E9 ; 1.3261582532691905E11 ; 0.0
119 ; 1.5097603586794335E7 ; 1.2096123203457544E9 ; 1.7465104482551112E9 ; 1.3382537885929591E11 ; 0.0
120 ; 1.5080896896497916E7 ; 1.2096710322041569E9 ; 1.7616080518419056E9 ; 1.3503499117964166E11 ; 0.0
121 ; 1.506140550078857E7 ; 1.2097296652211337E9 ; 1.7766889487384036E9 ; 1.3624466221184583E11 ; 0.0
122 ; 1.503647966300755E7 ; 1.2097882167167416E9 ; 1.791750354239192E9 ; 1.3745439187706696E11 ; 0.0
123 ; 1.5024944019085212E7 ; 1.2098466840602448E9 ; 1.8067868339021995E9 ; 1.386641800937837E11 ; 0.0
124 ; 1.4999566337723574E7 ; 1.2099050646683984E9 ; 1.8218117779212847E9 ; 1.3987402677784393E11 ; 0.0
125 ; 1.4976180089831416E7 ; 1.2099633560038133E9 ; 1.8368113442590082E9 ; 1.4108393184251233E11 ; 0.0
126 ; 1.4964330724620543E7 ; 1.210021555573387E9 ; 1.8517875243488395E9 ; 1.4229389519851614E11 ; 0.0
127 ; 1.4934869000516474E7 ; 1.2100796609268057E9 ; 1.86675185507346E9 ; 1.4350391675408954E11 ; 0.0
128 ; 1.4916125814797696E7 ; 1.2101376696551092E9 ; 1.8816867240739765E9 ; 1.4471399641501636E11 ; 0.0
129 ; 1.4899533104194026E7 ; 1.2101955793893166E9 ; 1.8966028498887742E9 ; 1.4592413408467148E11 ; 0.0
130 ; 1.4864040735217325E7 ; 1.2102533877991107E9 ; 1.911502382992968E9 ; 1.471343296640608E11 ; 0.0
131 ; 1.48325001974985E7 ; 1.2103110925915809E9 ; 1.9263664237281854E9 ; 1.483445830518599E11 ; 0.0
132 ; 1.4790485676918253E7 ; 1.2103686915100148E9 ; 1.941198923925684E9 ; 1.4955489414445148E11 ; 0.0
133 ; 1.4752736006732132E7 ; 1.2104261823327427E9 ; 1.9559894096026022E9 ; 1.507652628359615E11 ; 0.0
134 ; 1.471981521573944E7 ; 1.2104835628720312E9 ; 1.9707421456093345E9 ; 1.5197568901829422E11 ; 0.0
135 ; 1.4670582692495927E7 ; 1.210540830973021E9 ; 1.985461960825074E9 ; 1.5318617258116626E11 ; 0.0
136 ; 1.4633438458707957E7 ; 1.2105979845127106E9 ; 2.0001325435175698E9 ; 1.5439671341213928E11 ; 0.0
137 ; 1.4600586457374081E7 ; 1.2106550213989787E9 ; 2.0147659819762778E9 ; 1.5560731139665198E11 ; 0.0
138 ; 1.4568894822915237E7 ; 1.2107119395696511E9 ; 2.029366568433652E9 ; 1.5681796641805096E11 ; 0.0
139 ; 1.4530336959659811E7 ; 1.210768736991603E9 ; 2.0439354632565672E9 ; 1.580286783576206E11 ; 0.0
140 ; 1.4488044940942455E7 ; 1.2108254116598961E9 ; 2.058465800216227E9 ; 1.592394470946122E11 ; 0.0
141 ; 1.4452278609655254E7 ; 1.2108819615969563E9 ; 2.0729538451571696E9 ; 1.604502725062721E11 ; 0.0
142 ; 1.4409704926073208E7 ; 1.210938384851777E9 ; 2.0874061237668247E9 ; 1.6166115446786905E11 ; 0.0
143 ; 1.4365427238784984E7 ; 1.2109946794991627E9 ; 2.101815828692898E9 ; 1.6287209285272083E11 ; 0.0
144 ; 1.4329661466403518E7 ; 1.2110508436389942E9 ; 2.116181255931683E9 ; 1.6408308753222E11 ; 0.0
145 ; 1.4304674515104346E7 ; 1.2111068753955302E9 ; 2.1305109173980865E9 ; 1.65294138375859E11 ; 0.0
146 ; 1.4283017586191386E7 ; 1.2111627729167323E9 ; 2.1448155919131908E9 ; 1.6650524525125455E11 ; 0.0
147 ; 1.42543152335951E7 ; 1.211218534373619E9 ; 2.159098609499382E9 ; 1.6771640802417126E11 ; 0.0
148 ; 1.4240206080762459E7 ; 1.2112741579596434E9 ; 2.173352924732977E9 ; 1.689276265585449E11 ; 0.0
149 ; 1.4213857943709929E7 ; 1.2113296418900948E9 ; 2.1875931308137393E9 ; 1.7013890071650455E11 ; 0.0
150 ; 1.4197081811510926E7 ; 1.2113849844015265E9 ; 2.201806988757449E9 ; 1.7135023035839465E11 ; 0.0
151 ; 1.4165947581167957E7 ; 1.2114401837512035E9 ; 2.21600407056896E9 ; 1.7256161534279617E11 ; 0.0
152 ; 1.4140364925981643E7 ; 1.2114952382165718E9 ; 2.2301700181501284E9 ; 1.7377305552654736E11 ; 0.0
153 ; 1.4119197855045488E7 ; 1.2115501460947478E9 ; 2.24431038307611E9 ; 1.7498455076476395E11 ; 0.0
154 ; 1.4094959308229532E7 ; 1.2116049057020278E9 ; 2.258429580931155E9 ; 1.761961009108587E11 ; 0.0
155 ; 1.4067425618904022E7 ; 1.2116595153734179E9 ; 2.2725245402393847E9 ; 1.7740770581656073E11 ; 0.0
156 ; 1.4044431455504829E7 ; 1.2117139734621778E9 ; 2.286591965858289E9 ; 1.7861936533193414E11 ; 0.0
157 ; 1.401912190572168E7 ; 1.2117682783393855E9 ; 2.3006363973137937E9 ; 1.7983107930539633E11 ; 0.0
158 ; 1.3998870316836817E7 ; 1.211822428393517E9 ; 2.3146555192195153E9 ; 1.8104284758373572E11 ; 0.0
159 ; 1.396815878812138E7 ; 1.211876422030041E9 ; 2.328654389536352E9 ; 1.8225467001212924E11 ; 0.0
160 ; 1.3941379075205913E7 ; 1.2119302576710315E9 ; 2.3426225483244734E9 ; 1.8346654643415927E11 ; 0.0
161 ; 1.3921586657866329E7 ; 1.21198393375479E9 ; 2.356563927399679E9 ; 1.846784766918303E11 ; 0.0
162 ; 1.3891776676869612E7 ; 1.2120374487354884E9 ; 2.3704855140575457E9 ; 1.8589046062558508E11 ; 0.0
163 ; 1.3871912871166628E7 ; 1.212090801082819E9 ; 2.384377290734415E9 ; 1.8710249807432056E11 ; 0.0
164 ; 1.3845044450857023E7 ; 1.21214398928166E9 ; 2.3982492036055818E9 ; 1.8831458887540338E11 ; 0.0
165 ; 1.3818586637936976E7 ; 1.212197011831755E9 ; 2.412094248056439E9 ; 1.8952673286468503E11 ; 0.0
166 ; 1.3801975523275074E7 ; 1.2122498672474008E9 ; 2.425912834694376E9 ; 1.9073892987651678E11 ; 0.0
167 ; 1.376871722332162E7 ; 1.2123025540571485E9 ; 2.439714810217651E9 ; 1.919511797437642E11 ; 0.0
168 ; 1.3746526300213711E7 ; 1.2123550708035164E9 ; 2.4534835274409723E9 ; 1.9316348229782135E11 ; 0.0
169 ; 1.3720993214337464E7 ; 1.2124074160427113E9 ; 2.467230053741186E9 ; 1.9437583736862488E11 ; 0.0
170 ; 1.370059826848036E7 ; 1.2124595883443604E9 ; 2.4809510469555235E9 ; 1.955882447846676E11 ; 0.0
171 ; 1.3675231022940446E7 ; 1.212511586291255E9 ; 2.494651645224004E9 ; 1.9680070437301196E11 ; 0.0
172 ; 1.36510761679504E7 ; 1.2125634084791E9 ; 2.5083268762469444E9 ; 1.9801321595930322E11 ; 0.0
173 ; 1.3627695018381175E7 ; 1.2126150535162747E9 ; 2.521977952414895E9 ; 1.9922577936778232E11 ; 0.0
174 ; 1.3607798481053764E7 ; 1.212666520023602E9 ; 2.535605647433276E9 ; 2.0043839442129858E11 ; 0.0
175 ; 1.358722260895837E7 ; 1.2127178066341252E9 ; 2.54921344591433E9 ; 2.0165106094132217E11 ; 0.0
176 ; 1.3567588674204445E7 ; 1.212768911992892E9 ; 2.5628006685232882E9 ; 2.028637787479563E11 ; 0.0
177 ; 1.3546725485089147E7 ; 1.2128198347567492E9 ; 2.5763682571974926E9 ; 2.040765476599492E11 ; 0.0
178 ; 1.3527723799965076E7 ; 1.2128705735941405E9 ; 2.589914982682582E9 ; 2.0528936749470593E11 ; 0.0
179 ; 1.351445200359013E7 ; 1.2129211271849148E9 ; 2.603442706482547E9 ; 2.0650223806830008E11 ; 0.0
180 ; 1.3489809101500833E7 ; 1.2129714942201397E9 ; 2.616957158486137E9 ; 2.07715159195485E11 ; 0.0
181 ; 1.3473469513246117E7 ; 1.2130216734019213E9 ; 2.630446967587638E9 ; 2.0892813068970514E11 ; 0.0
182 ; 1.34522335459842E7 ; 1.213071663443232E9 ; 2.643920437100884E9 ; 2.1014115236310706E11 ; 0.0
183 ; 1.3431983326402077E7 ; 1.2131214630677426E9 ; 2.657372670646868E9 ; 2.113542240265503E11 ; 0.0
184 ; 1.3420160870740756E7 ; 1.21317107100966E9 ; 2.6708046539732704E9 ; 2.1256734548961804E11 ; 0.0
185 ; 1.3394526239467356E7 ; 1.2132204860135732E9 ; 2.6842248148440113E9 ; 2.1378051656062772E11 ; 0.0
186 ; 1.338318356593275E7 ; 1.2132697068343012E9 ; 2.6976193410834785E9 ; 2.149937370466413E11 ; 0.0
187 ; 1.3357663265053015E7 ; 1.2133187322367494E9 ; 2.711002524649411E9 ; 2.162070067534756E11 ; 0.0
188 ; 1.3340768169726592E7 ; 1.2133675609957685E9 ; 2.724360187914464E9 ; 2.1742032548571234E11 ; 0.0
189 ; 1.332566628330922E7 ; 1.2134161918960183E9 ; 2.7377009560841904E9 ; 2.186336930467081E11 ; 0.0
190 ; 1.3299066059795506E7 ; 1.2134646237318397E9 ; 2.7510266223674994E9 ; 2.1984710923860413E11 ; 0.0
191 ; 1.3286674370607939E7 ; 1.213512855307126E9 ; 2.7643256884272947E9 ; 2.2106057386233597E11 ; 0.0
192 ; 1.3266386577023707E7 ; 1.213560885435203E9 ; 2.7776123627979026E9 ; 2.222740867176431E11 ; 0.0
193 ; 1.3245611161140136E7 ; 1.2136087129387102E9 ; 2.790878749374926E9 ; 2.234876476030783E11 ; 0.0
194 ; 1.3231821404225446E7 ; 1.2136563366494873E9 ; 2.804124360536066E9 ; 2.2470125631601703E11 ; 0.0
195 ; 1.3214006408914115E7 ; 1.2137037554084656E9 ; 2.8173561819402914E9 ; 2.259149126526665E11 ; 0.0
