CSV File for the Network on Day 246
1 - Minute m 
2 - Power Consumed at minute m 
3 - Power Produced at minute m 
4 - Energy Consumed since the beginning of the day 
5 - Energy Produced since the beginning of the day 
6 - Energy Lost since the beginning of the day 
 
0 ; 7190000.574499373 ; 6.328859778905059E8 ; 0.0 ; 0.0 ; 0.0
1 ; 7230237.5726442095 ; 6.337905013589945E8 ; 7190000.574499373 ; 6.328859778905059E8 ; 0.0
2 ; 7269947.672525628 ; 6.365489182918025E8 ; 1.4420238147143584E7 ; 1.2666764792495003E9 ; 0.0
3 ; 7323868.837482902 ; 6.411612939427035E8 ; 2.169018581966921E7 ; 1.9032253975413027E9 ; 0.0
4 ; 7372722.128939511 ; 6.476276887578632E8 ; 2.9014054657152113E7 ; 2.544386691484006E9 ; 0.0
5 ; 7443596.298016914 ; 6.559481574449942E8 ; 3.6386776786091626E7 ; 3.192014380241869E9 ; 0.0
6 ; 7533638.5589783285 ; 6.661227480772595E8 ; 4.383037308410854E7 ; 3.847962537686863E9 ; 0.0
7 ; 7661796.534846475 ; 6.781515012631688E8 ; 5.1364011643086866E7 ; 4.514085285764122E9 ; 0.0
8 ; 7846169.6849896265 ; 6.920344494138614E8 ; 5.902580817793334E7 ; 5.19223678702729E9 ; 0.0
9 ; 8133673.735837862 ; 7.077716161373847E8 ; 6.687197786292297E7 ; 5.884271236441152E9 ; 0.0
10 ; 8564739.812182268 ; 7.253630157857013E8 ; 7.500565159876083E7 ; 6.592042852578536E9 ; 0.0
11 ; 9251524.669201212 ; 7.448086531744219E8 ; 8.357039141094309E7 ; 7.317405868364237E9 ; 0.0
12 ; 1.0360895832468197E7 ; 7.661085234879355E8 ; 9.28219160801443E7 ; 8.062214521538659E9 ; 0.0
13 ; 1.1421979774202485E7 ; 7.892626123742797E8 ; 1.031828119126125E8 ; 8.828323045026594E9 ; 0.0
14 ; 1.1557666952422066E7 ; 8.142708962254078E8 ; 1.1460479168681498E8 ; 9.617585657400873E9 ; 0.0
15 ; 1.1601033804024346E7 ; 8.411333426301792E8 ; 1.2616245863923705E8 ; 1.0431856553626282E10 ; 0.0
16 ; 1.1649342966114735E7 ; 8.698499109800855E8 ; 1.3776349244326138E8 ; 1.127298989625646E10 ; 0.0
17 ; 1.1701144401070243E7 ; 9.004205532019628E8 ; 1.494128354093761E8 ; 1.2142839807236546E10 ; 0.0
18 ; 1.1752427191656277E7 ; 9.328452145880988E8 ; 1.6111397981044635E8 ; 1.3043260360438509E10 ; 0.0
19 ; 1.180061053934262E7 ; 9.671238346923279E8 ; 1.728664070021026E8 ; 1.3976105575026608E10 ; 0.0
20 ; 1.1858190775192998E7 ; 1.003256348260876E9 ; 1.8466701754144523E8 ; 1.4943229409718935E10 ; 0.0
21 ; 1.1910642718358042E7 ; 1.0412426861686221E9 ; 1.9652520831663823E8 ; 1.594648575797981E10 ; 0.0
22 ; 1.195456510203213E7 ; 1.0810827763346753E9 ; 2.0843585103499627E8 ; 1.6987728444148434E10 ; 0.0
23 ; 1.2010794506126456E7 ; 1.1227765445953631E9 ; 2.203904161370284E8 ; 1.806881122048311E10 ; 0.0
24 ; 1.2065924372750752E7 ; 1.1663239155173924E9 ; 2.3240121064315486E8 ; 1.9191587765078472E10 ; 0.0
25 ; 1.2123595726288779E7 ; 1.2038530585278044E9 ; 2.4446713501590562E8 ; 2.0357911680595863E10 ; 0.0
26 ; 1.2167733977303622E7 ; 1.2038851847959712E9 ; 2.5659073074219438E8 ; 2.156176473912367E10 ; 0.0
27 ; 1.2215518133392852E7 ; 1.2039188349595451E9 ; 2.68758464719498E8 ; 2.276564992391964E10 ; 0.0
28 ; 1.2273484023471361E7 ; 1.20395393509715E9 ; 2.8097398285289085E8 ; 2.3969568758879185E10 ; 0.0
29 ; 1.2315138184698049E7 ; 1.2039904128978386E9 ; 2.932474668763622E8 ; 2.5173522693976334E10 ; 0.0
30 ; 1.2367300092208212E7 ; 1.2040281979935288E9 ; 3.0556260506106025E8 ; 2.6377513106874172E10 ; 0.0
31 ; 1.2422266764181105E7 ; 1.204067222219878E9 ; 3.1792990515326846E8 ; 2.7581541304867702E10 ; 0.0
32 ; 1.2466994695457563E7 ; 1.2041074198125062E9 ; 3.3035217191744953E8 ; 2.878560852708758E10 ; 0.0
33 ; 1.2510618832338292E7 ; 1.2041487275459228E9 ; 3.428191666129071E8 ; 2.998971594690009E10 ; 0.0
34 ; 1.25571635403425E7 ; 1.2041910848225758E9 ; 3.553297854452454E8 ; 3.119386467444601E10 ; 0.0
35 ; 1.2602241629346529E7 ; 1.2042344337192457E9 ; 3.678869489855879E8 ; 3.2398055759268585E10 ; 0.0
36 ; 1.2639548393581256E7 ; 1.204278718997584E9 ; 3.8048919061493444E8 ; 3.360229019298783E10 ; 0.0
37 ; 1.2687118364915973E7 ; 1.2043238880850625E9 ; 3.931287390085157E8 ; 3.480656891198541E10 ; 0.0
38 ; 1.272825669207514E7 ; 1.2043698910319767E9 ; 4.058158573734317E8 ; 3.601089280007047E10 ; 0.0
39 ; 1.276630451567495E7 ; 1.2044166804495158E9 ; 4.185441140655068E8 ; 3.721526269110245E10 ; 0.0
40 ; 1.280222697826833E7 ; 1.2044642114332552E9 ; 4.3131041858118176E8 ; 3.841967937155196E10 ; 0.0
41 ; 1.2837501604733236E7 ; 1.2045124414758253E9 ; 4.441126455594501E8 ; 3.962414358298522E10 ; 0.0
42 ; 1.2873069381985232E7 ; 1.2045613303719444E9 ; 4.569501471641833E8 ; 4.0828656024461044E10 ; 0.0
43 ; 1.2898243440635823E7 ; 1.2046108401184587E9 ; 4.6982321654616857E8 ; 4.203321735483299E10 ; 0.0
44 ; 1.293507273274846E7 ; 1.2046609348116024E9 ; 4.8272145998680437E8 ; 4.3237828194951454E10 ; 0.0
45 ; 1.2966791502795972E7 ; 1.2047115805432518E9 ; 4.956565327195528E8 ; 4.4442489129763054E10 ; 0.0
46 ; 1.2988089149973582E7 ; 1.2047627452976117E9 ; 5.086233242223488E8 ; 4.5647200710306305E10 ; 0.0
47 ; 1.3013948810448831E7 ; 1.2048143988494525E9 ; 5.216114133723224E8 ; 4.685196345560392E10 ; 0.0
48 ; 1.3033595190627895E7 ; 1.2048665126647747E9 ; 5.346253621827712E8 ; 4.805677785445337E10 ; 0.0
49 ; 1.3053291032911466E7 ; 1.2049190598045444E9 ; 5.476589573733991E8 ; 4.926164436711814E10 ; 0.0
50 ; 1.307458058466398E7 ; 1.204972014831976E9 ; 5.607122484063106E8 ; 5.046656342692268E10 ; 0.0
51 ; 1.3099083587400831E7 ; 1.2050253537236814E9 ; 5.737868289909745E8 ; 5.167153544175466E10 ; 0.0
52 ; 1.3112751830114298E7 ; 1.2050790537848935E9 ; 5.868859125783753E8 ; 5.287656079547834E10 ; 0.0
53 ; 1.3130625355027543E7 ; 1.2051330935688615E9 ; 5.999986644084896E8 ; 5.408163984926324E10 ; 0.0
54 ; 1.3141885569321642E7 ; 1.2051874528004572E9 ; 6.131292897635171E8 ; 5.52867729428321E10 ; 0.0
55 ; 1.316732294916194E7 ; 1.205242112303953E9 ; 6.262711753328388E8 ; 5.649196039563256E10 ; 0.0
56 ; 1.3181660065560583E7 ; 1.2052970539348993E9 ; 6.394384982820007E8 ; 5.7697202507936516E10 ; 0.0
57 ; 1.320432710816507E7 ; 1.205352260515987E9 ; 6.526201583475612E8 ; 5.8902499561871414E10 ; 0.0
58 ; 1.3205891133523583E7 ; 1.205407715776758E9 ; 6.658244854557263E8 ; 6.01078518223874E10 ; 0.0
59 ; 1.3227841817364207E7 ; 1.20546340429701E9 ; 6.790303765892498E8 ; 6.1313259538164154E10 ; 0.0
60 ; 1.3246868746964145E7 ; 1.205519311453726E9 ; 6.922582184066141E8 ; 6.251872294246117E10 ; 0.0
61 ; 1.3261166666460164E7 ; 1.2055754233713605E9 ; 7.055050871535782E8 ; 6.3724242253914894E10 ; 0.0
62 ; 1.3271712281186188E7 ; 1.2056317268752997E9 ; 7.187662538200383E8 ; 6.4929817677286255E10 ; 0.0
63 ; 1.3289671340620097E7 ; 1.2056882094483256E9 ; 7.320379661012245E8 ; 6.613544940416155E10 ; 0.0
64 ; 1.3303478016524974E7 ; 1.205744859189908E9 ; 7.453276374418446E8 ; 6.734113761360988E10 ; 0.0
65 ; 1.3315012035086956E7 ; 1.2058016647781565E9 ; 7.586311154583696E8 ; 6.854688247279979E10 ; 0.0
66 ; 1.3331691919825327E7 ; 1.2058586154342663E9 ; 7.719461274934566E8 ; 6.975268413757794E10 ; 0.0
67 ; 1.3351286174835365E7 ; 1.205915700889307E9 ; 7.852778194132819E8 ; 7.09585427530122E10 ; 0.0
68 ; 1.3359189678208163E7 ; 1.2059729113531976E9 ; 7.986291055881172E8 ; 7.216445845390152E10 ; 0.0
69 ; 1.3366857873368088E7 ; 1.2060302374857283E9 ; 8.119882952663254E8 ; 7.337043136525471E10 ; 0.0
70 ; 1.3380737631706761E7 ; 1.2060876703694944E9 ; 8.253551531396935E8 ; 7.457646160274045E10 ; 0.0
71 ; 1.3393088743519468E7 ; 1.2061452014846156E9 ; 8.387358907714002E8 ; 7.578254927310994E10 ; 0.0
72 ; 1.3403931001265824E7 ; 1.2062028226851153E9 ; 8.521289795149196E8 ; 7.698869447459456E10 ; 0.0
73 ; 1.3409848231974483E7 ; 1.2062605261768556E9 ; 8.655329105161855E8 ; 7.819489729727968E10 ; 0.0
74 ; 1.3425680834533645E7 ; 1.2063183044969153E9 ; 8.7894275874816E8 ; 7.940115782345653E10 ; 0.0
75 ; 1.3435548794311795E7 ; 1.2063761504943147E9 ; 8.923684395826937E8 ; 8.060747612795345E10 ; 0.0
76 ; 1.3447485828848023E7 ; 1.2064340573119965E9 ; 9.058039883770055E8 ; 8.181385227844775E10 ; 0.0
77 ; 1.3460916806198139E7 ; 1.2064920183699732E9 ; 9.192514742058535E8 ; 8.302028633575975E10 ; 0.0
78 ; 1.3451769459596347E7 ; 1.2065500273495626E9 ; 9.327123910120516E8 ; 8.422677835412973E10 ; 0.0
79 ; 1.3454099002865631E7 ; 1.206608078178637E9 ; 9.46164160471648E8 ; 8.54333283814793E10 ; 0.0
80 ; 1.3447789157358779E7 ; 1.2066661650178165E9 ; 9.596182594745136E8 ; 8.663993645965793E10 ; 0.0
81 ; 1.3449417710549066E7 ; 1.2067242822475376E9 ; 9.730660486318724E8 ; 8.784660262467575E10 ; 0.0
82 ; 1.3443263360939432E7 ; 1.206782424455945E9 ; 9.865154663424215E8 ; 8.90533269069233E10 ; 0.0
83 ; 1.3439595545127336E7 ; 1.2068405864275408E9 ; 9.999587297033609E8 ; 9.026010933137924E10 ; 0.0
84 ; 1.3425634712175574E7 ; 1.2068987631325476E9 ; 1.0133983252484883E9 ; 9.146694991780678E10 ; 0.0
85 ; 1.342535748677105E7 ; 1.206956949716933E9 ; 1.0268239599606639E9 ; 9.267384868093933E10 ; 0.0
86 ; 1.341872481404866E7 ; 1.2070151414930484E9 ; 1.040249317447435E9 ; 9.388080563065627E10 ; 0.0
87 ; 1.3413712270001508E7 ; 1.2070733339308472E9 ; 1.0536680422614837E9 ; 9.50878207721493E10 ; 0.0
88 ; 1.340114647706872E7 ; 1.2071315226496367E9 ; 1.0670817545314852E9 ; 9.629489410608015E10 ; 0.0
89 ; 1.34063313098129E7 ; 1.2071897034103327E9 ; 1.080482901008554E9 ; 9.75020256287298E10 ; 0.0
90 ; 1.3392360674404163E7 ; 1.2072478721081793E9 ; 1.0938892323183668E9 ; 9.870921533214014E10 ; 0.0
91 ; 1.3390802408176074E7 ; 1.2073060247659073E9 ; 1.107281592992771E9 ; 9.991646320424832E10 ; 0.0
92 ; 1.338401462588345E7 ; 1.2073641575272985E9 ; 1.120672395400947E9 ; 1.0112376922901422E11 ; 0.0
93 ; 1.3383672172165805E7 ; 1.2074222666511307E9 ; 1.1340564100268304E9 ; 1.0233113338654152E11 ; 0.0
94 ; 1.3366479035984602E7 ; 1.2074803485054798E9 ; 1.1474400821989963E9 ; 1.0353855565319266E11 ; 0.0
95 ; 1.3360145592106644E7 ; 1.2075383995623527E9 ; 1.1608065612349808E9 ; 1.0474603600169814E11 ; 0.0
96 ; 1.3351684856019072E7 ; 1.207596416392632E9 ; 1.1741667068270874E9 ; 1.0595357440126048E11 ; 0.0
97 ; 1.3338529213330787E7 ; 1.2076543956613135E9 ; 1.1875183916831064E9 ; 1.0716117081765312E11 ; 0.0
98 ; 1.3330175567727894E7 ; 1.207712334123013E9 ; 1.2008569208964372E9 ; 1.0836882521331444E11 ; 0.0
99 ; 1.3319338378179636E7 ; 1.2077702286177309E9 ; 1.214187096464165E9 ; 1.0957653754743745E11 ; 0.0
100 ; 1.3312790741446054E7 ; 1.207828076066854E9 ; 1.2275064348423445E9 ; 1.1078430777605519E11 ; 0.0
101 ; 1.3298456301008847E7 ; 1.2078858734693837E9 ; 1.2408192255837905E9 ; 1.1199213585212204E11 ; 0.0
102 ; 1.3296533096941423E7 ; 1.2079436178983703E9 ; 1.2541176818847995E9 ; 1.1320002172559143E11 ; 0.0
103 ; 1.3277092439370481E7 ; 1.208001306497549E9 ; 1.267414214981741E9 ; 1.144079653434898E11 ; 0.0
104 ; 1.3271425397582343E7 ; 1.2080589364781568E9 ; 1.2806913074211113E9 ; 1.1561596664998735E11 ; 0.0
105 ; 1.3254821480101533E7 ; 1.2081165051159253E9 ; 1.2939627328186936E9 ; 1.168240255864655E11 ; 0.0
106 ; 1.3245043906305067E7 ; 1.2081740097482347E9 ; 1.3072175542987952E9 ; 1.1803214209158142E11 ; 0.0
107 ; 1.3238559986450583E7 ; 1.2082314477714224E9 ; 1.3204625982051003E9 ; 1.1924031610132965E11 ; 0.0
108 ; 1.3223583783412198E7 ; 1.2082888166382356E9 ; 1.333701158191551E9 ; 1.2044854754910107E11 ; 0.0
109 ; 1.3215672688107518E7 ; 1.2083461138554153E9 ; 1.3469247419749632E9 ; 1.216568363657393E11 ; 0.0
110 ; 1.3200791435903512E7 ; 1.2084033369814143E9 ; 1.3601404146630707E9 ; 1.2286518247959473E11 ; 0.0
111 ; 1.3190565796154732E7 ; 1.2084604836242285E9 ; 1.3733412060989742E9 ; 1.2407358581657614E11 ; 0.0
112 ; 1.316869247644562E7 ; 1.2085175514393444E9 ; 1.386531771895129E9 ; 1.2528204630020036E11 ; 0.0
113 ; 1.3161445478335626E7 ; 1.2085745381277924E9 ; 1.3997004643715746E9 ; 1.2649056385163971E11 ; 0.0
114 ; 1.3146375390359657E7 ; 1.2086314414342988E9 ; 1.4128619098499103E9 ; 1.276991383897675E11 ; 0.0
115 ; 1.3125250597962145E7 ; 1.2086882591455321E9 ; 1.42600828524027E9 ; 1.289077698312018E11 ; 0.0
116 ; 1.3110611339824196E7 ; 1.2087449890884402E9 ; 1.439133535838232E9 ; 1.3011645809034734E11 ; 0.0
117 ; 1.3096065404196223E7 ; 1.2088016291286693E9 ; 1.4522441471780562E9 ; 1.3132520307943578E11 ; 0.0
118 ; 1.30833876072143E7 ; 1.2088581771690626E9 ; 1.4653402125822525E9 ; 1.3253400470856444E11 ; 0.0
119 ; 1.3069093510441924E7 ; 1.2089146311482334E9 ; 1.4784236001894667E9 ; 1.337428628857335E11 ; 0.0
120 ; 1.304874214505883E7 ; 1.2089709890392094E9 ; 1.4914926936999087E9 ; 1.3495177751688174E11 ; 0.0
121 ; 1.3033780188844666E7 ; 1.2090272488481417E9 ; 1.5045414358449676E9 ; 1.3616074850592096E11 ; 0.0
122 ; 1.3023113467860783E7 ; 1.2090834086130798E9 ; 1.5175752160338123E9 ; 1.373697757547691E11 ; 0.0
123 ; 1.3005302720692953E7 ; 1.209139466402804E9 ; 1.530598329501673E9 ; 1.3857885916338217E11 ; 0.0
124 ; 1.299040991660821E7 ; 1.209195420315712E9 ; 1.5436036322223659E9 ; 1.3978799862978497E11 ; 0.0
125 ; 1.2970027832508532E7 ; 1.2092512684787655E9 ; 1.556594042138974E9 ; 1.4099719405010068E11 ; 0.0
126 ; 1.294871711914099E7 ; 1.209307009046478E9 ; 1.5695640699714825E9 ; 1.4220644531857944E11 ; 0.0
127 ; 1.2934531669792667E7 ; 1.209362640199959E9 ; 1.5825127870906236E9 ; 1.4341575232762592E11 ; 0.0
128 ; 1.2913075529779797E7 ; 1.209418160145997E9 ; 1.5954473187604163E9 ; 1.4462511496782587E11 ; 0.0
129 ; 1.2891176411013655E7 ; 1.209473567116188E9 ; 1.6083603942901962E9 ; 1.4583453312797186E11 ; 0.0
130 ; 1.2870812892505817E7 ; 1.2095288593661056E9 ; 1.6212515707012098E9 ; 1.4704400669508804E11 ; 0.0
131 ; 1.2840641335839378E7 ; 1.2095840351745064E9 ; 1.6341223835937157E9 ; 1.4825353555445416E11 ; 0.0
132 ; 1.2811616786561482E7 ; 1.2096390928425748E9 ; 1.646963024929555E9 ; 1.4946311958962866E11 ; 0.0
133 ; 1.2771161476686606E7 ; 1.2096940306932013E9 ; 1.6597746417161164E9 ; 1.5067275868247122E11 ; 0.0
134 ; 1.2745119492556723E7 ; 1.2097488470702925E9 ; 1.6725458031928031E9 ; 1.5188245271316443E11 ; 0.0
135 ; 1.2710619983278029E7 ; 1.2098035403381138E9 ; 1.68529092268536E9 ; 1.530922015602347E11 ; 0.0
136 ; 1.2676372654936837E7 ; 1.2098581088806624E9 ; 1.698001542668638E9 ; 1.543020051005728E11 ; 0.0
137 ; 1.264434526055576E7 ; 1.2099125511010659E9 ; 1.7106779153235748E9 ; 1.555118632094535E11 ; 0.0
138 ; 1.2604902770309601E7 ; 1.2099668654210083E9 ; 1.7233222605841305E9 ; 1.5672177576055457E11 ; 0.0
139 ; 1.2573953056975944E7 ; 1.2100210502801843E9 ; 1.7359271633544402E9 ; 1.579317426259756E11 ; 0.0
140 ; 1.2539594880527E7 ; 1.2100751041357737E9 ; 1.748501116411416E9 ; 1.5914176367625577E11 ; 0.0
141 ; 1.2497640733146839E7 ; 1.2101290254619403E9 ; 1.761040711291943E9 ; 1.6035183878039154E11 ; 0.0
142 ; 1.2464120204613399E7 ; 1.2101828127493553E9 ; 1.77353835202509E9 ; 1.615619678058535E11 ; 0.0
143 ; 1.2432477793165721E7 ; 1.210236464504736E9 ; 1.7860024722297034E9 ; 1.6277215061860284E11 ; 0.0
144 ; 1.239113277510553E7 ; 1.2102899792504096E9 ; 1.798434950022869E9 ; 1.6398238708310757E11 ; 0.0
145 ; 1.2377811274295956E7 ; 1.2103433555238929E9 ; 1.8108260827979746E9 ; 1.6519267706235797E11 ; 0.0
146 ; 1.235471357421526E7 ; 1.2103965918774908E9 ; 1.8232038940722706E9 ; 1.6640302041788187E11 ; 0.0
147 ; 1.2337424702532697E7 ; 1.2104496868779118E9 ; 1.8355586076464858E9 ; 1.6761341700975937E11 ; 0.0
148 ; 1.231193636003826E7 ; 1.2105026391058998E9 ; 1.8478960323490186E9 ; 1.6882386669663727E11 ; 0.0
149 ; 1.2298734235772926E7 ; 1.2105554471558824E9 ; 1.8602079687090569E9 ; 1.7003436933574316E11 ; 0.0
150 ; 1.2274388053934893E7 ; 1.210608109635631E9 ; 1.8725067029448297E9 ; 1.7124492478289905E11 ; 0.0
151 ; 1.2256539111799095E7 ; 1.2106606251659403E9 ; 1.8847810909987645E9 ; 1.7245553289253467E11 ; 0.0
152 ; 1.2235541403849501E7 ; 1.2107129923803148E9 ; 1.8970376301105635E9 ; 1.7366619351770062E11 ; 0.0
153 ; 1.2216476119496293E7 ; 1.2107652099246745E9 ; 1.909273171514413E9 ; 1.7487690651008093E11 ; 0.0
154 ; 1.2195902814258084E7 ; 1.210817276457069E9 ; 1.9214896476339095E9 ; 1.760876717200056E11 ; 0.0
155 ; 1.2176616519249452E7 ; 1.2108691906474025E9 ; 1.9336855504481676E9 ; 1.7729848899646268E11 ; 0.0
156 ; 1.2155350530304287E7 ; 1.210920951177176E9 ; 1.945862166967417E9 ; 1.7850935818711008E11 ; 0.0
157 ; 1.2138500741407588E7 ; 1.2109725567392316E9 ; 1.9580175174977212E9 ; 1.7972027913828726E11 ; 0.0
158 ; 1.2118487072371198E7 ; 1.2110240060375147E9 ; 1.9701560182391288E9 ; 1.809312516950265E11 ; 0.0
159 ; 1.2097641843192182E7 ; 1.211075297786841E9 ; 1.9822745053115E9 ; 1.82142275701064E11 ; 0.0
160 ; 1.2078833110842785E7 ; 1.2111264307126763E9 ; 1.9943721471546922E9 ; 1.8335335099885083E11 ; 0.0
161 ; 1.2055763528459724E7 ; 1.2111774035509224E9 ; 2.0064509802655349E9 ; 1.845644774295635E11 ; 0.0
162 ; 1.2032951597246844E7 ; 1.2112282150477133E9 ; 2.0185067437939947E9 ; 1.8577565483311444E11 ; 0.0
163 ; 1.202199998803715E7 ; 1.2112788639592187E9 ; 2.0305396953912416E9 ; 1.8698688304816214E11 ; 0.0
164 ; 1.1996365792078065E7 ; 1.2113293490514572E9 ; 2.0425616953792787E9 ; 1.8819816191212137E11 ; 0.0
165 ; 1.1977621084402474E7 ; 1.211379669100114E9 ; 2.0545580611713567E9 ; 1.8940949126117282E11 ; 0.0
166 ; 1.1960179433673114E7 ; 1.2114298228903682E9 ; 2.0665356822557592E9 ; 1.9062087093027295E11 ; 0.0
167 ; 1.1939084631097741E7 ; 1.2114798092167256E9 ; 2.0784958616894324E9 ; 1.9183230075316333E11 ; 0.0
168 ; 1.1919623586093891E7 ; 1.2115296268828602E9 ; 2.0904349463205302E9 ; 1.9304378056238007E11 ; 0.0
169 ; 1.1888267475490924E7 ; 1.2115792747014585E9 ; 2.102354569906624E9 ; 1.9425531018926294E11 ; 0.0
170 ; 1.187227235493157E7 ; 1.211628751494073E9 ; 2.114242837382115E9 ; 1.954668894639644E11 ; 0.0
171 ; 1.1849453481834862E7 ; 1.2116780560909805E9 ; 2.1261151097370465E9 ; 1.9667851821545847E11 ; 0.0
172 ; 1.183395862958721E7 ; 1.2117271873310459E9 ; 2.1379645632188814E9 ; 1.9789019627154944E11 ; 0.0
173 ; 1.1805286821841476E7 ; 1.2117761440615904E9 ; 2.149798521848469E9 ; 1.991019234588805E11 ; 0.0
174 ; 1.1797275341929182E7 ; 1.2118249251382668E9 ; 2.16160380867031E9 ; 2.0031369960294208E11 ; 0.0
175 ; 1.1778516056997497E7 ; 1.211873529424938E9 ; 2.173401084012239E9 ; 2.0152552452808035E11 ; 0.0
176 ; 1.1770935823470498E7 ; 1.2119219557935612E9 ; 2.1851796000692363E9 ; 2.0273739805750528E11 ; 0.0
177 ; 1.1753293571243953E7 ; 1.2119702031240766E9 ; 2.196950535892707E9 ; 2.0394932001329883E11 ; 0.0
178 ; 1.1738401548612567E7 ; 1.212018270304299E9 ; 2.2087038294639506E9 ; 2.051612902164229E11 ; 0.0
179 ; 1.1719708137108147E7 ; 1.2120661562298155E9 ; 2.220442231012563E9 ; 2.063733084867272E11 ; 0.0
180 ; 1.1706784268163973E7 ; 1.2121138598038874E9 ; 2.2321619391496716E9 ; 2.0758537464295703E11 ; 0.0
181 ; 1.1687237099792771E7 ; 1.2121613799373527E9 ; 2.2438687234178357E9 ; 2.0879748850276093E11 ; 0.0
182 ; 1.167133696460988E7 ; 1.2122087155485365E9 ; 2.2555559605176287E9 ; 2.1000964988269827E11 ; 0.0
183 ; 1.1659818996277746E7 ; 1.2122558655631623E9 ; 2.267227297482239E9 ; 2.112218585982468E11 ; 0.0
184 ; 1.1643392174439978E7 ; 1.2123028289142678E9 ; 2.2788871164785166E9 ; 2.1243411446380997E11 ; 0.0
185 ; 1.1628643800257951E7 ; 1.2123496045421224E9 ; 2.2905305086529565E9 ; 2.1364641729272424E11 ; 0.0
186 ; 1.1613277289986446E7 ; 1.2123961913941503E9 ; 2.3021591524532146E9 ; 2.1485876689726636E11 ; 0.0
187 ; 1.1596424121494725E7 ; 1.2124425884248557E9 ; 2.3137724297432013E9 ; 2.1607116308866052E11 ; 0.0
188 ; 1.1585674429308394E7 ; 1.2124887945957496E9 ; 2.325368853864696E9 ; 2.172836056770854E11 ; 0.0
189 ; 1.156413069151245E7 ; 1.2125348088752804E9 ; 2.3369545282940044E9 ; 2.1849609447168115E11 ; 0.0
190 ; 1.1552166135332568E7 ; 1.2125806302387683E9 ; 2.348518658985517E9 ; 2.1970862928055643E11 ; 0.0
191 ; 1.1538685171726419E7 ; 1.21262625766834E9 ; 2.3600708251208496E9 ; 2.209212099107952E11 ; 0.0
192 ; 1.1525710166078504E7 ; 1.2126716901528678E9 ; 2.371609510292576E9 ; 2.2213383616846353E11 ; 0.0
193 ; 1.1512167825686553E7 ; 1.2127169266879108E9 ; 2.3831352204586544E9 ; 2.233465078586164E11 ; 0.0
194 ; 1.1490399033526268E7 ; 1.2127619662756562E9 ; 2.394647388284341E9 ; 2.245592247853043E11 ; 0.0
195 ; 1.14764510008368E7 ; 1.2128068079248676E9 ; 2.4061377873178673E9 ; 2.2577198675157996E11 ; 0.0
