CSV File for the Network on Day 154
1 - Minute m 
2 - Power Consumed at minute m 
3 - Power Produced at minute m 
4 - Energy Consumed since the beginning of the day 
5 - Energy Produced since the beginning of the day 
6 - Energy Lost since the beginning of the day 
 
0 ; 2.0989673367985617E7 ; 6.351839474450691E8 ; 0.0 ; 0.0 ; 0.0
1 ; 2.100674187605879E7 ; 6.360948196749313E8 ; 2.0989673367985617E7 ; 6.351839474450691E8 ; 0.0
2 ; 2.1030644715170734E7 ; 6.388590793885208E8 ; 4.199641524404441E7 ; 1.2712787671200004E9 ; 0.0
3 ; 2.1061976661973275E7 ; 6.434767425351396E8 ; 6.302705995921514E7 ; 1.910137846508521E9 ; 0.0
4 ; 2.1097127532096952E7 ; 6.499478234033941E8 ; 8.408903662118842E7 ; 2.5536145890436606E9 ; 0.0
5 ; 2.1148359184717044E7 ; 6.582723345436592E8 ; 1.0518616415328537E8 ; 3.203562412447055E9 ; 0.0
6 ; 2.1222128978973135E7 ; 6.684502866986986E8 ; 1.2633452333800241E8 ; 3.861834746990714E9 ; 0.0
7 ; 2.1331093698856637E7 ; 6.804816887433279E8 ; 1.4755665231697553E8 ; 4.530285033689413E9 ; 0.0
8 ; 2.149855557323648E7 ; 6.943665476339028E8 ; 1.688877460158322E8 ; 5.210766722432741E9 ; 0.0
9 ; 2.1760464034271896E7 ; 7.101048683683076E8 ; 1.9038630158906865E8 ; 5.905133270066644E9 ; 0.0
10 ; 2.217824966500572E7 ; 7.276966539569762E8 ; 2.1214676562334055E8 ; 6.615238138434952E9 ; 0.0
11 ; 2.2848947570550177E7 ; 7.471419054053448E8 ; 2.3432501528834626E8 ; 7.342934792391928E9 ; 0.0
12 ; 2.393757220073467E7 ; 7.68440621707977E8 ; 2.5717396285889643E8 ; 8.090076697797273E9 ; 0.0
13 ; 2.4981718159573518E7 ; 7.915927998544389E8 ; 2.811115350596311E8 ; 8.858517319505249E9 ; 0.0
14 ; 2.5084705860878035E7 ; 8.165984348468468E8 ; 3.060932532192046E8 ; 9.650110119359688E9 ; 0.0
15 ; 2.511649810293155E7 ; 8.434575197288443E8 ; 3.3117795908008265E8 ; 1.0466708554206535E10 ; 0.0
16 ; 2.5144867728271905E7 ; 8.721700456256163E8 ; 3.562944571830142E8 ; 1.1310166073935379E10 ; 0.0
17 ; 2.51764089886497E7 ; 9.027360017943989E8 ; 3.814393249112861E8 ; 1.2182336119560995E10 ; 0.0
18 ; 2.520915316443628E7 ; 9.351553756848173E8 ; 4.0661573389993584E8 ; 1.3085072121355394E10 ; 0.0
19 ; 2.5243969129250288E7 ; 9.694281530082647E8 ; 4.318248870643721E8 ; 1.402022749704021E10 ; 0.0
20 ; 2.527106757697421E7 ; 1.0055543178154392E9 ; 4.570688561936224E8 ; 1.4989655650048475E10 ; 0.0
21 ; 2.53085280307486E7 ; 1.0435338525810791E9 ; 4.823399237705966E8 ; 1.5995209967863914E10 ; 0.0
22 ; 2.534384068217802E7 ; 1.083366738294877E9 ; 5.076484518013452E8 ; 1.7038743820444994E10 ; 0.0
23 ; 2.5378158237526927E7 ; 1.125052954557522E9 ; 5.3299229248352325E8 ; 1.8122110558739872E10 ; 0.0
24 ; 2.5408454181204464E7 ; 1.1685924796807961E9 ; 5.583704507210501E8 ; 1.9247163513297394E10 ; 0.0
25 ; 2.5441102786682278E7 ; 1.2061135361797674E9 ; 5.837789049022546E8 ; 2.041575599297819E10 ; 0.0
26 ; 2.5471755208507337E7 ; 1.2061373870992007E9 ; 6.092200076889368E8 ; 2.162186952915796E10 ; 0.0
27 ; 2.55070841025246E7 ; 1.2061626232689667E9 ; 6.346917628974441E8 ; 2.282800691625716E10 ; 0.0
28 ; 2.553962637584588E7 ; 1.2061892188906503E9 ; 6.601988469999688E8 ; 2.4034169539526127E10 ; 0.0
29 ; 2.5561527855976354E7 ; 1.2062171474021173E9 ; 6.857384733758147E8 ; 2.524035875841678E10 ; 0.0
30 ; 2.5594483572733823E7 ; 1.206246381580898E9 ; 7.11300001231791E8 ; 2.6446575905818897E10 ; 0.0
31 ; 2.5624195366194762E7 ; 1.2062768936451468E9 ; 7.368944848045249E8 ; 2.7652822287399796E10 ; 0.0
32 ; 2.5652290572815232E7 ; 1.2063086553515239E9 ; 7.625186801707196E8 ; 2.885909918104494E10 ; 0.0
33 ; 2.568551892276263E7 ; 1.2063416380894475E9 ; 7.881709707435348E8 ; 3.0065407836396465E10 ; 0.0
34 ; 2.5699035499484617E7 ; 1.2063758129712481E9 ; 8.138564896662974E8 ; 3.1271749474485912E10 ; 0.0
35 ; 2.572870360854985E7 ; 1.2064111509178488E9 ; 8.395555251657821E8 ; 3.247812528745716E10 ; 0.0
36 ; 2.575337512516605E7 ; 1.2064476227396688E9 ; 8.652842287743319E8 ; 3.368453643837501E10 ; 0.0
37 ; 2.5776601947268948E7 ; 1.206485199212542E9 ; 8.91037603899498E8 ; 3.489098406111468E10 ; 0.0
38 ; 2.5791509462562546E7 ; 1.2065238511484995E9 ; 9.16814205846767E8 ; 3.609746926032722E10 ; 0.0
39 ; 2.581612918283298E7 ; 1.2065635494613497E9 ; 9.426057153093295E8 ; 3.7303993111475716E10 ; 0.0
40 ; 2.5825077015684627E7 ; 1.2066042652270377E9 ; 9.684218444921625E8 ; 3.8510556660937065E10 ; 0.0
41 ; 2.5849561939870518E7 ; 1.206645969738824E9 ; 9.942469215078471E8 ; 3.97171609261641E10 ; 0.0
42 ; 2.586280607920001E7 ; 1.2066886345573778E9 ; 1.0200964834477175E9 ; 4.092380689590292E10 ; 0.0
43 ; 2.5874917164846316E7 ; 1.2067322315559068E9 ; 1.0459592895269176E9 ; 4.2130495530460304E10 ; 0.0
44 ; 2.5882710576808173E7 ; 1.2067767329604883E9 ; 1.0718342066917639E9 ; 4.333722776201621E10 ; 0.0
45 ; 2.589816589177361E7 ; 1.206822111385797E9 ; 1.097716917268572E9 ; 4.45440044949767E10 ; 0.0
46 ; 2.5898337805619936E7 ; 1.2068683398664327E9 ; 1.1236150831603458E9 ; 4.5750826606362495E10 ; 0.0
47 ; 2.590697782909556E7 ; 1.206915391884084E9 ; 1.1495134209659657E9 ; 4.695769494622893E10 ; 0.0
48 ; 2.5906306184674993E7 ; 1.2069632413907666E9 ; 1.1754203987950613E9 ; 4.8164610338113014E10 ; 0.0
49 ; 2.5909069862701207E7 ; 1.2070118628283763E9 ; 1.2013267049797363E9 ; 4.9371573579503784E10 ; 0.0
50 ; 2.5907078419455625E7 ; 1.2070612311448183E9 ; 1.2272357748424375E9 ; 5.057858544233216E10 ; 0.0
51 ; 2.5905619119161077E7 ; 1.2071113218069503E9 ; 1.253142853261893E9 ; 5.178564667347698E10 ; 0.0
52 ; 2.590588497576505E7 ; 1.207162110810596E9 ; 1.2790484723810542E9 ; 5.2992757995283936E10 ; 0.0
53 ; 2.589550553915559E7 ; 1.2072135746878657E9 ; 1.3049543573568192E9 ; 5.419992010609453E10 ; 0.0
54 ; 2.5899922530686483E7 ; 1.2072656905120187E9 ; 1.3308498628959746E9 ; 5.5407133680782394E10 ; 0.0
55 ; 2.5889859528207023E7 ; 1.2073184359000957E9 ; 1.356749785426661E9 ; 5.661439937129441E10 ; 0.0
56 ; 2.5885252451693688E7 ; 1.207371789013532E9 ; 1.382639644954868E9 ; 5.78217178071945E10 ; 0.0
57 ; 2.5879390060411617E7 ; 1.2074257285569632E9 ; 1.4085248974065619E9 ; 5.902908959620804E10 ; 0.0
58 ; 2.5874300255570047E7 ; 1.20748023377541E9 ; 1.4344042874669735E9 ; 6.0236515324765E10 ; 0.0
59 ; 2.588159670635604E7 ; 1.2075352844500291E9 ; 1.4602785877225435E9 ; 6.144399555854041E10 ; 0.0
60 ; 2.5874746621968657E7 ; 1.2075908608925982E9 ; 1.4861601844288995E9 ; 6.265153084299044E10 ; 0.0
61 ; 2.5865204882840876E7 ; 1.2076469439388895E9 ; 1.5120349310508683E9 ; 6.385912170388304E10 ; 0.0
62 ; 2.585844286695205E7 ; 1.2077035149410892E9 ; 1.5379001359337091E9 ; 6.506676864782193E10 ; 0.0
63 ; 2.584957381808857E7 ; 1.2077605557593803E9 ; 1.563758578800661E9 ; 6.6274472162763016E10 ; 0.0
64 ; 2.584969097042432E7 ; 1.2078180487528353E9 ; 1.5896081526187496E9 ; 6.74822327185224E10 ; 0.0
65 ; 2.5839632300967794E7 ; 1.2078759767697067E9 ; 1.615457843589174E9 ; 6.869005076727524E10 ; 0.0
66 ; 2.5827688980326384E7 ; 1.2079343231372445E9 ; 1.6412974758901417E9 ; 6.989792674404495E10 ; 0.0
67 ; 2.582472442832002E7 ; 1.2079930716511116E9 ; 1.6671251648704681E9 ; 7.110586106718219E10 ; 0.0
68 ; 2.5814813839357942E7 ; 1.2080522065644984E9 ; 1.692949889298788E9 ; 7.23138541388333E10 ; 0.0
69 ; 2.5808967041847073E7 ; 1.2081117125770054E9 ; 1.718764703138146E9 ; 7.35219063453978E10 ; 0.0
70 ; 2.5799763455815755E7 ; 1.2081715748233614E9 ; 1.744573670179993E9 ; 7.473001805797481E10 ; 0.0
71 ; 2.5783855039353203E7 ; 1.2082317788620424E9 ; 1.7703734336358087E9 ; 7.593818963279817E10 ; 0.0
72 ; 2.5778874587501265E7 ; 1.2082923106638432E9 ; 1.7961572886751618E9 ; 7.714642141166022E10 ; 0.0
73 ; 2.577284246823252E7 ; 1.208353156600451E9 ; 1.8219361632626631E9 ; 7.835471372232407E10 ; 0.0
74 ; 2.57653379995308E7 ; 1.2084143034330597E9 ; 1.8477090057308958E9 ; 7.956306687892451E10 ; 0.0
75 ; 2.574456753118724E7 ; 1.2084757383010662E9 ; 1.8734743437304265E9 ; 8.077148118235757E10 ; 0.0
76 ; 2.5742053835530274E7 ; 1.208537448710881E9 ; 1.8992189112616138E9 ; 8.197995692065865E10 ; 0.0
77 ; 2.572846611794646E7 ; 1.2085994225248747E9 ; 1.9249609650971441E9 ; 8.318849436936952E10 ; 0.0
78 ; 2.5710607030603617E7 ; 1.2086616479504938E9 ; 1.9506894312150905E9 ; 8.43970937918944E10 ; 0.0
79 ; 2.567996419487066E7 ; 1.2087241135295541E9 ; 1.9764000382456942E9 ; 8.56057554398449E10 ; 0.0
80 ; 2.5655841396380022E7 ; 1.2087868081277425E9 ; 2.0020800024405649E9 ; 8.681447955337445E10 ; 0.0
81 ; 2.562082053314077E7 ; 1.2088497209243276E9 ; 2.0277358438369448E9 ; 8.80232663615022E10 ; 0.0
82 ; 2.560598546473285E7 ; 1.2089128414021013E9 ; 2.0533566643700855E9 ; 8.923211608242653E10 ; 0.0
83 ; 2.5584305213710666E7 ; 1.2089761593375525E9 ; 2.0789626498348184E9 ; 9.044102892382863E10 ; 0.0
84 ; 2.5552869856870893E7 ; 1.2090396647912846E9 ; 2.1045469550485291E9 ; 9.165000508316618E10 ; 0.0
85 ; 2.5524748021566898E7 ; 1.2091033480986812E9 ; 2.1300998249054E9 ; 9.285904474795747E10 ; 0.0
86 ; 2.550764021048211E7 ; 1.2091671998608215E9 ; 2.155624572926967E9 ; 9.406814809605615E10 ; 0.0
87 ; 2.5472205169237968E7 ; 1.209231210935648E9 ; 2.1811322131374493E9 ; 9.527731529591698E10 ; 0.0
88 ; 2.544719020648709E7 ; 1.209295372429389E9 ; 2.2066044183066874E9 ; 9.648654650685263E10 ; 0.0
89 ; 2.5415383254752852E7 ; 1.2093596756882334E9 ; 2.2320516085131745E9 ; 9.769584187928201E10 ; 0.0
90 ; 2.539384738575911E7 ; 1.2094241122902584E9 ; 2.257466991767927E9 ; 9.890520155497025E10 ; 0.0
91 ; 2.536374043677816E7 ; 1.2094886740376043E9 ; 2.282860839153686E9 ; 1.001146256672605E11 ; 0.0
92 ; 2.532671539619846E7 ; 1.209553352948899E9 ; 2.308224579590464E9 ; 1.013241143412981E11 ; 0.0
93 ; 2.5303956421694934E7 ; 1.2096181412519214E9 ; 2.3335512949866624E9 ; 1.02533667694247E11 ; 0.0
94 ; 2.527692953279756E7 ; 1.2096830313765101E9 ; 2.358855251408357E9 ; 1.0374328583549892E11 ; 0.0
95 ; 2.524620818970931E7 ; 1.2097480159476995E9 ; 2.3841321809411545E9 ; 1.0495296886687543E11 ; 0.0
96 ; 2.5212217264698915E7 ; 1.209813087779091E9 ; 2.4093783891308637E9 ; 1.0616271688282312E11 ; 0.0
97 ; 2.5188343039411005E7 ; 1.2098782398664455E9 ; 2.4345906063955626E9 ; 1.073725299706022E11 ; 0.0
98 ; 2.5155193444988545E7 ; 1.2099434653814983E9 ; 2.4597789494349737E9 ; 1.0858240821046864E11 ; 0.0
99 ; 2.5119289137279205E7 ; 1.210008757665984E9 ; 2.4849341428799624E9 ; 1.0979235167585014E11 ; 0.0
100 ; 2.508582589109184E7 ; 1.2100741102258728E9 ; 2.5100534320172415E9 ; 1.1100236043351613E11 ; 0.0
101 ; 2.506016146925398E7 ; 1.2101395167258072E9 ; 2.5351392579083333E9 ; 1.12212434543742E11 ; 0.0
102 ; 2.5025136617488205E7 ; 1.2102049709837358E9 ; 2.5601994193775873E9 ; 1.134225740604678E11 ; 0.0
103 ; 2.4998547102279216E7 ; 1.2102704669657388E9 ; 2.5852245559950757E9 ; 1.1463277903145154E11 ; 0.0
104 ; 2.4964583100717776E7 ; 1.210335998781037E9 ; 2.610223103097355E9 ; 1.1584304949841728E11 ; 0.0
105 ; 2.4923927687311776E7 ; 1.2104015606771812E9 ; 2.6351876861980724E9 ; 1.1705338549719832E11 ; 0.0
106 ; 2.4892766216647625E7 ; 1.2104671470354142E9 ; 2.660111613885384E9 ; 1.182637870578755E11 ; 0.0
107 ; 2.486286793627458E7 ; 1.2105327523662019E9 ; 2.6850043801020317E9 ; 1.1947425420491092E11 ; 0.0
108 ; 2.4823425885104623E7 ; 1.210598371304926E9 ; 2.709867248038306E9 ; 1.2068478695727711E11 ; 0.0
109 ; 2.479767564823153E7 ; 1.2106639986077323E9 ; 2.734690673923411E9 ; 1.2189538532858205E11 ; 0.0
110 ; 2.4756950706819907E7 ; 1.2107296291475353E9 ; 2.7594883495716424E9 ; 1.2310604932718977E11 ; 0.0
111 ; 2.472124408552591E7 ; 1.210795257910162E9 ; 2.7842453002784624E9 ; 1.2431677895633731E11 ; 0.0
112 ; 2.4688241014170427E7 ; 1.210860879990642E9 ; 2.8089665443639884E9 ; 1.2552757421424747E11 ; 0.0
113 ; 2.4661233920008145E7 ; 1.210926490589634E9 ; 2.833654785378159E9 ; 1.2673843509423811E11 ; 0.0
114 ; 2.462288856640173E7 ; 1.2109920850099797E9 ; 2.858316019298167E9 ; 1.2794936158482774E11 ; 0.0
115 ; 2.458716249756762E7 ; 1.2110576586533878E9 ; 2.882938907864569E9 ; 1.2916035366983772E11 ; 0.0
116 ; 2.4545467694287483E7 ; 1.2111232070172393E9 ; 2.907526070362137E9 ; 1.303714113284911E11 ; 0.0
117 ; 2.4508748182574794E7 ; 1.2111887256915088E9 ; 2.932071538056424E9 ; 1.3158253453550835E11 ; 0.0
118 ; 2.4467521887409233E7 ; 1.2112542103558013E9 ; 2.956580286238999E9 ; 1.3279372326119986E11 ; 0.0
119 ; 2.44373254983861E7 ; 1.211319656776496E9 ; 2.981047808126408E9 ; 1.3400497747155566E11 ; 0.0
120 ; 2.439076677359247E7 ; 1.2113850608039966E9 ; 3.005485133624794E9 ; 1.3521629712833215E11 ; 0.0
121 ; 2.4353036648723476E7 ; 1.211450418370082E9 ; 3.0298759003983865E9 ; 1.3642768218913615E11 ; 0.0
122 ; 2.4324711079807885E7 ; 1.2115157254853544E9 ; 3.05422893704711E9 ; 1.3763913260750623E11 ; 0.0
123 ; 2.4279628770753693E7 ; 1.2115809782367802E9 ; 3.078553648126918E9 ; 1.3885064833299158E11 ; 0.0
124 ; 2.423861769680107E7 ; 1.211646172785324E9 ; 3.1028332768976717E9 ; 1.4006222931122836E11 ; 0.0
125 ; 2.4198236498725798E7 ; 1.211711305363664E9 ; 3.127071894594473E9 ; 1.4127387548401367E11 ; 0.0
126 ; 2.415510038157999E7 ; 1.211776372273996E9 ; 3.151270131093199E9 ; 1.4248558678937735E11 ; 0.0
127 ; 2.4123749629622385E7 ; 1.211841369885916E9 ; 3.1754252314747787E9 ; 1.4369736316165134E11 ; 0.0
128 ; 2.4079648183428496E7 ; 1.2119062946343768E9 ; 3.199548981104401E9 ; 1.4490920453153726E11 ; 0.0
129 ; 2.403338402278025E7 ; 1.211971143017725E9 ; 3.2236286292878294E9 ; 1.4612111082617163E11 ; 0.0
130 ; 2.3987276006998576E7 ; 1.212035911595803E9 ; 3.24766201331061E9 ; 1.4733308196918936E11 ; 0.0
131 ; 2.3928304133110154E7 ; 1.2121005969881248E9 ; 3.2716492893176084E9 ; 1.4854511788078516E11 ; 0.0
132 ; 2.387888028596098E7 ; 1.2121651958721151E9 ; 3.2955775934507184E9 ; 1.497572184777733E11 ; 0.0
133 ; 2.3826532312200453E7 ; 1.212229704981412E9 ; 3.3194564737366796E9 ; 1.509693836736454E11 ; 0.0
134 ; 2.3766946931193247E7 ; 1.212294121104231E9 ; 3.34328300604888E9 ; 1.521816133786268E11 ; 0.0
135 ; 2.370619032580504E7 ; 1.2123584410817916E9 ; 3.3670499529800735E9 ; 1.5339390749973102E11 ; 0.0
136 ; 2.3649236953272253E7 ; 1.2124226618067923E9 ; 3.3907561433058786E9 ; 1.546062659408128E11 ; 0.0
137 ; 2.3590950645134367E7 ; 1.2124867802219481E9 ; 3.414405380259151E9 ; 1.558186886026196E11 ; 0.0
138 ; 2.3541177574972406E7 ; 1.212550793318576E9 ; 3.4379963309042854E9 ; 1.5703117538284155E11 ; 0.0
139 ; 2.3481655234917257E7 ; 1.2126146981352322E9 ; 3.461537508479258E9 ; 1.5824372617616013E11 ; 0.0
140 ; 2.3426002746544864E7 ; 1.2126784917563956E9 ; 3.485019163714175E9 ; 1.5945634087429535E11 ; 0.0
141 ; 2.3369075553810753E7 ; 1.2127421713112023E9 ; 3.50844516646072E9 ; 1.6066901936605176E11 ; 0.0
142 ; 2.3313629942926116E7 ; 1.212805733972221E9 ; 3.5318142420145307E9 ; 1.6188176153736295E11 ; 0.0
143 ; 2.3250164128848866E7 ; 1.2128691769542718E9 ; 3.5551278719574566E9 ; 1.6309456727133517E11 ; 0.0
144 ; 2.3188977948969685E7 ; 1.21293249751329E9 ; 3.5783780360863056E9 ; 1.6430743644828946E11 ; 0.0
145 ; 2.3148982266944062E7 ; 1.2129956929452238E9 ; 3.6015670140352755E9 ; 1.6552036894580273E11 ; 0.0
146 ; 2.3103873139102418E7 ; 1.2130587605849776E9 ; 3.6247159963022194E9 ; 1.6673336463874796E11 ; 0.0
147 ; 2.305725113071323E7 ; 1.2131216978053854E9 ; 3.647819869441322E9 ; 1.6794642339933295E11 ; 0.0
148 ; 2.3023442683554392E7 ; 1.2131845020162256E9 ; 3.6708771205720353E9 ; 1.6915954509713834E11 ; 0.0
149 ; 2.2980400744554706E7 ; 1.2132471706632652E9 ; 3.6939005632555895E9 ; 1.7037272959915457E11 ; 0.0
150 ; 2.293441992953744E7 ; 1.2133097012273412E9 ; 3.716880964000144E9 ; 1.7158597676981784E11 ; 0.0
151 ; 2.2903476308734898E7 ; 1.2133720912234693E9 ; 3.7398153839296813E9 ; 1.727992864710452E11 ; 0.0
152 ; 2.2850492018073417E7 ; 1.2134343381999884E9 ; 3.762718860238416E9 ; 1.7401265856226868E11 ; 0.0
153 ; 2.2807874966417857E7 ; 1.2134964397377295E9 ; 3.7855693522564898E9 ; 1.7522609290046866E11 ; 0.0
154 ; 2.276441986798676E7 ; 1.2135583934492164E9 ; 3.8083772272229075E9 ; 1.764395893402064E11 ; 0.0
155 ; 2.2720112940111287E7 ; 1.213620196977892E9 ; 3.831141647090894E9 ; 1.776531477336556E11 ; 0.0
156 ; 2.2679470668224156E7 ; 1.2136818479973714E9 ; 3.8538617600310054E9 ; 1.788667679306335E11 ; 0.0
157 ; 2.2639790784634255E7 ; 1.2137433442107205E9 ; 3.8765412306992297E9 ; 1.800804497786309E11 ; 0.0
158 ; 2.2594922372637756E7 ; 1.2138046833497581E9 ; 3.899181021483864E9 ; 1.812941931228416E11 ; 0.0
159 ; 2.2549107959630087E7 ; 1.2138658631743832E9 ; 3.9217759438565016E9 ; 1.8250799780619138E11 ; 0.0
160 ; 2.250187045467817E7 ; 1.2139268814719224E9 ; 3.9443250518161316E9 ; 1.8372186366936575E11 ; 0.0
161 ; 2.2458903421702933E7 ; 1.2139877360565023E9 ; 3.9668269222708097E9 ; 1.8493579055083768E11 ; 0.0
162 ; 2.2415907191070713E7 ; 1.2140484247684407E9 ; 3.9892858256925125E9 ; 1.8614977828689417E11 ; 0.0
163 ; 2.2373200962471277E7 ; 1.2141089454736574E9 ; 4.011701732883583E9 ; 1.873638267116626E11 ; 0.0
164 ; 2.233106179617531E7 ; 1.214169296063108E9 ; 4.0340749338460546E9 ; 1.8857793565713626E11 ; 0.0
165 ; 2.2283480687766753E7 ; 1.214229474452232E9 ; 4.05640599564223E9 ; 1.8979210495319937E11 ; 0.0
166 ; 2.2244231458205193E7 ; 1.214289478580423E9 ; 4.0786894763299966E9 ; 1.910063344276516E11 ; 0.0
167 ; 2.219697059429592E7 ; 1.2143493064105144E9 ; 4.100933707788202E9 ; 1.9222062390623203E11 ; 0.0
168 ; 2.215138361038109E7 ; 1.2144089559282815E9 ; 4.123130678382498E9 ; 1.9343497321264255E11 ; 0.0
169 ; 2.210729030843362E7 ; 1.2144684251419623E9 ; 4.145282061992879E9 ; 1.9464938216857083E11 ; 0.0
170 ; 2.206379829188045E7 ; 1.2145277120817904E9 ; 4.1673893523013124E9 ; 1.958638505937128E11 ; 0.0
171 ; 2.20142105223274E7 ; 1.214586814799548E9 ; 4.189453150593193E9 ; 1.970783783057946E11 ; 0.0
172 ; 2.1971612159609985E7 ; 1.2146457313681273E9 ; 4.2114673611155205E9 ; 1.9829296512059415E11 ; 0.0
173 ; 2.192944794454259E7 ; 1.214704459881112E9 ; 4.2334389732751303E9 ; 1.9950761085196228E11 ; 0.0
174 ; 2.189018470117046E7 ; 1.2147629984523683E9 ; 4.2553684212196727E9 ; 2.0072231531184338E11 ; 0.0
175 ; 2.1860107401126735E7 ; 1.2148213452156515E9 ; 4.277258605920843E9 ; 2.0193707831029575E11 ; 0.0
176 ; 2.1820178754235294E7 ; 1.2148794983242235E9 ; 4.29911871332197E9 ; 2.0315189965551138E11 ; 0.0
177 ; 2.1782511289147694E7 ; 1.2149374559504843E9 ; 4.320938892076205E9 ; 2.043667791538356E11 ; 0.0
178 ; 2.1750671630939186E7 ; 1.214995216285612E9 ; 4.342721403365353E9 ; 2.0558171660978607E11 ; 0.0
179 ; 2.1715166181583725E7 ; 1.2150527775392203E9 ; 4.364472074996292E9 ; 2.067967118260717E11 ; 0.0
180 ; 2.1677951668486938E7 ; 1.2151101379390206E9 ; 4.3861872411778755E9 ; 2.080117646036109E11 ; 0.0
181 ; 2.1636468359022323E7 ; 1.2151672957304978E9 ; 4.407865192846362E9 ; 2.0922687474154993E11 ; 0.0
182 ; 2.159766141340738E7 ; 1.215224249176597E9 ; 4.429501661205384E9 ; 2.1044204203728043E11 ; 0.0
183 ; 2.1567371868237276E7 ; 1.2152809965574186E9 ; 4.451099322618792E9 ; 2.1165726628645703E11 ; 0.0
184 ; 2.1529890303816486E7 ; 1.2153375361699228E9 ; 4.472666694487029E9 ; 2.1287254728301443E11 ; 0.0
185 ; 2.1498529010271728E7 ; 1.2153938663276463E9 ; 4.494196584790846E9 ; 2.1408788481918436E11 ; 0.0
186 ; 2.1462171077297308E7 ; 1.2154499853604233E9 ; 4.515695113801118E9 ; 2.15303278685512E11 ; 0.0
187 ; 2.1420368943022132E7 ; 1.2155058916141195E9 ; 4.537157284878415E9 ; 2.165187286708724E11 ; 0.0
188 ; 2.1393190338983458E7 ; 1.215561583450371E9 ; 4.558577653821437E9 ; 2.177342345624865E11 ; 0.0
189 ; 2.134570302444141E7 ; 1.2156170592463353E9 ; 4.57997084416042E9 ; 2.189497961459369E11 ; 0.0
190 ; 2.130707500827823E7 ; 1.215672317394445E9 ; 4.601316547184862E9 ; 2.2016541320518323E11 ; 0.0
191 ; 2.1278397033201113E7 ; 1.2157273563021739E9 ; 4.62262362219314E9 ; 2.2138108552257767E11 ; 0.0
192 ; 2.1243370862918593E7 ; 1.2157821743918076E9 ; 4.643902019226341E9 ; 2.2259681287887985E11 ; 0.0
193 ; 2.1206897577217277E7 ; 1.215836770100221E9 ; 4.66514539008926E9 ; 2.2381259505327167E11 ; 0.0
194 ; 2.116215015372555E7 ; 1.2158911418786652E9 ; 4.686352287666477E9 ; 2.250284318233719E11 ; 0.0
195 ; 2.112761497757967E7 ; 1.2159452881925583E9 ; 4.707514437820203E9 ; 2.2624432296525055E11 ; 0.0
