CSV File for the Network on Day 3
1 - Minute m 
2 - Power Consumed at minute m 
3 - Power Produced at minute m 
4 - Energy Consumed since the beginning of the day 
5 - Energy Produced since the beginning of the day 
6 - Energy Lost since the beginning of the day 
 
0 ; 5.000579770409728E7 ; 1.0516072819786593E8 ; 0.0 ; 0.0 ; 0.0
1 ; 5.005921186864752E7 ; 1.0531504918552023E8 ; 5.000579770409728E7 ; 1.0516072819786593E8 ; 613.6199999999999
2 ; 5.0107851811480865E7 ; 1.0577801214848319E8 ; 1.000650095727448E8 ; 2.1047577738338616E8 ; 1227.2399999999998
3 ; 5.017035769653259E7 ; 1.065496170867548E8 ; 1.5017286138422567E8 ; 3.1625378953186935E8 ; 1840.8599999999997
4 ; 5.025043610585624E7 ; 1.0762986400033504E8 ; 2.0034321908075827E8 ; 4.2280340661862415E8 ; 2454.4799999999996
5 ; 5.03401740521459E7 ; 1.0901875288922393E8 ; 2.505936551866145E8 ; 5.304332706189592E8 ; 3068.0999999999995
6 ; 5.045328171727219E7 ; 1.1071628375342146E8 ; 3.009338292387604E8 ; 6.394520235081831E8 ; 3681.7199999999993
7 ; 5.062497770782293E7 ; 1.1272245659292763E8 ; 3.5138711095603263E8 ; 7.501683072616045E8 ; 4295.339999999999
8 ; 5.086791365132709E7 ; 1.1503727140774244E8 ; 4.0201208866385555E8 ; 8.628907638545322E8 ; 4908.959999999999
9 ; 5.122896526862287E7 ; 1.176607281978659E8 ; 4.528800023151826E8 ; 9.779280352622747E8 ; 5522.579999999999
10 ; 5.179547109812214E7 ; 1.2059282696329802E8 ; 5.041089675838055E8 ; 1.0955887634601407E9 ; 6136.199999999999
11 ; 5.268832570263598E7 ; 1.2383356770403877E8 ; 5.559044386819277E8 ; 1.2161815904234388E9 ; 6749.819999999999
12 ; 5.412692031067559E7 ; 1.2738295042008814E8 ; 6.085927643845637E8 ; 1.3400151581274776E9 ; 7363.439999999999
13 ; 5.54990888537739E7 ; 1.3124097511144614E8 ; 6.627196846952393E8 ; 1.4673981085475657E9 ; 7977.059999999999
14 ; 5.566575906889569E7 ; 1.3540764177811283E8 ; 7.182187735490133E8 ; 1.5986390836590118E9 ; 8590.679999999998
15 ; 5.572840250773016E7 ; 1.398829504200881E8 ; 7.73884532617909E8 ; 1.7340467254371247E9 ; 9204.3
16 ; 5.57901277847926E7 ; 1.4466690103737208E8 ; 8.296129351256391E8 ; 1.8739296758572128E9 ; 9817.919999999998
17 ; 5.5853812334972024E7 ; 1.497594936299647E8 ; 8.854030629104316E8 ; 2.018596576894585E9 ; 10431.539999999997
18 ; 5.592359163584897E7 ; 1.5516072819786593E8 ; 9.412568752454036E8 ; 2.1683560705245495E9 ; 11045.159999999996
19 ; 5.5989525794304185E7 ; 1.608706047410758E8 ; 9.971804668812526E8 ; 2.3235167987224154E9 ; 11658.779999999995
20 ; 5.605193519503378E7 ; 1.6688912325959432E8 ; 1.0531699926755568E9 ; 2.4843874034634914E9 ; 12272.399999999994
21 ; 5.6124406423763245E7 ; 1.732162837534215E8 ; 1.1092219278705904E9 ; 2.651276526723086E9 ; 12886.019999999993
22 ; 5.61876095850516E7 ; 1.7985208622255728E8 ; 1.1653463342943537E9 ; 2.824492810476507E9 ; 13499.639999999992
23 ; 5.625158236741998E7 ; 1.8679653066700175E8 ; 1.2215339438794053E9 ; 3.0043448966990643E9 ; 14113.259999999991
24 ; 5.631553804859486E7 ; 1.9404961708675483E8 ; 1.2777855262468252E9 ; 3.191141427366066E9 ; 14726.87999999999
25 ; 5.637710265738916E7 ; 2.0029938638000003E8 ; 1.3341010642954202E9 ; 3.385191044452821E9 ; 15340.499999999989
26 ; 5.644550490340321E7 ; 2.0029938638000003E8 ; 1.3904781669528093E9 ; 3.585490430832821E9 ; 15954.119999999988
27 ; 5.650609139799754E7 ; 2.0029938638000003E8 ; 1.4469236718562126E9 ; 3.785789817212821E9 ; 16567.739999999987
28 ; 5.657107470605834E7 ; 2.0029938638000003E8 ; 1.5034297632542102E9 ; 3.986089203592821E9 ; 17181.359999999986
29 ; 5.663268066481897E7 ; 2.0029938638000003E8 ; 1.5600008379602685E9 ; 4.186388589972821E9 ; 17794.979999999985
30 ; 5.66895315524542E7 ; 2.0029938638000003E8 ; 1.6166335186250875E9 ; 4.386687976352821E9 ; 18408.599999999984
31 ; 5.67589820004965E7 ; 2.0029938638000003E8 ; 1.6733230501775417E9 ; 4.586987362732821E9 ; 19022.219999999983
32 ; 5.681490876651889E7 ; 2.0029938638000003E8 ; 1.7300820321780381E9 ; 4.787286749112822E9 ; 19635.839999999982
33 ; 5.686599177999558E7 ; 2.0029938638000003E8 ; 1.786896940944557E9 ; 4.987586135492822E9 ; 20249.45999999998
34 ; 5.6924640467135765E7 ; 2.0029938638000003E8 ; 1.8437629327245526E9 ; 5.187885521872822E9 ; 20863.07999999998
35 ; 5.6977398257298455E7 ; 2.0029938638000003E8 ; 1.9006875731916883E9 ; 5.388184908252822E9 ; 21476.69999999998
36 ; 5.703192057493335E7 ; 2.0029938638000003E8 ; 1.9576649714489868E9 ; 5.588484294632822E9 ; 22090.319999999978
37 ; 5.7082362042223394E7 ; 2.0029938638000003E8 ; 2.01469689202392E9 ; 5.788783681012822E9 ; 22703.939999999977
38 ; 5.712462326919854E7 ; 2.0029938638000003E8 ; 2.0717792540661435E9 ; 5.989083067392822E9 ; 23317.559999999976
39 ; 5.7172355826294355E7 ; 2.0029938638000003E8 ; 2.128903877335342E9 ; 6.189382453772822E9 ; 23931.179999999975
40 ; 5.721258050535169E7 ; 2.0029938638000003E8 ; 2.1860762331616364E9 ; 6.3896818401528225E9 ; 24544.799999999974
41 ; 5.725397496387119E7 ; 2.0029938638000003E8 ; 2.243288813666988E9 ; 6.589981226532823E9 ; 25158.419999999973
42 ; 5.7293372439588696E7 ; 2.0029938638000003E8 ; 2.300542788630859E9 ; 6.790280612912823E9 ; 25772.03999999997
43 ; 5.733224067589922E7 ; 2.0029938638000003E8 ; 2.3578361610704474E9 ; 6.990579999292823E9 ; 26385.65999999997
44 ; 5.73679987372946E7 ; 2.0029938638000003E8 ; 2.4151684017463465E9 ; 7.190879385672823E9 ; 26999.27999999997
45 ; 5.739483193642255E7 ; 2.0029938638000003E8 ; 2.472536400483641E9 ; 7.391178772052823E9 ; 27612.89999999997
46 ; 5.742912875633222E7 ; 2.0029938638000003E8 ; 2.5299312324200635E9 ; 7.591478158432823E9 ; 28226.519999999968
47 ; 5.744890614769817E7 ; 2.0029938638000003E8 ; 2.587360361176396E9 ; 7.791777544812823E9 ; 28840.139999999967
48 ; 5.747973667204843E7 ; 2.0029938638000003E8 ; 2.6448092673240943E9 ; 7.992076931192823E9 ; 29453.759999999966
49 ; 5.750165312689204E7 ; 2.0029938638000003E8 ; 2.702289003996143E9 ; 8.192376317572824E9 ; 30067.379999999965
50 ; 5.7523703640920624E7 ; 2.0029938638000003E8 ; 2.759790657123035E9 ; 8.392675703952824E9 ; 30680.999999999964
51 ; 5.7542486204386935E7 ; 2.0029938638000003E8 ; 2.8173143607639556E9 ; 8.592975090332823E9 ; 31294.619999999963
52 ; 5.7560560530516766E7 ; 2.0029938638000003E8 ; 2.8748568469683423E9 ; 8.793274476712822E9 ; 31908.23999999996
53 ; 5.756522848733466E7 ; 2.0029938638000003E8 ; 2.932417407498859E9 ; 8.993573863092821E9 ; 32521.85999999996
54 ; 5.758503316833363E7 ; 2.0029938638000003E8 ; 2.9899826359861937E9 ; 9.19387324947282E9 ; 33135.47999999996
55 ; 5.7599296869686306E7 ; 2.0029938638000003E8 ; 3.047567669154527E9 ; 9.39417263585282E9 ; 33749.09999999996
56 ; 5.761115099430251E7 ; 2.0029938638000003E8 ; 3.1051669660242133E9 ; 9.594472022232819E9 ; 34362.719999999965
57 ; 5.763014667367923E7 ; 2.0029938638000003E8 ; 3.1627781170185156E9 ; 9.794771408612818E9 ; 34976.33999999997
58 ; 5.7636202089156196E7 ; 2.0029938638000003E8 ; 3.220408263692195E9 ; 9.995070794992817E9 ; 35589.95999999997
59 ; 5.764994443576877E7 ; 2.0029938638000003E8 ; 3.278044465781351E9 ; 1.0195370181372816E10 ; 36203.57999999997
60 ; 5.7670685030872606E7 ; 2.0029938638000003E8 ; 3.3356944102171197E9 ; 1.0395669567752815E10 ; 36817.199999999975
61 ; 5.767767958890529E7 ; 2.0029938638000003E8 ; 3.3933650952479925E9 ; 1.0595968954132814E10 ; 37430.81999999998
62 ; 5.768684493771826E7 ; 2.0029938638000003E8 ; 3.451042774836898E9 ; 1.0796268340512814E10 ; 38044.43999999998
63 ; 5.770081505932624E7 ; 2.0029938638000003E8 ; 3.5087296197746162E9 ; 1.0996567726892813E10 ; 38658.05999999998
64 ; 5.770579123494772E7 ; 2.0029938638000003E8 ; 3.5664304348339424E9 ; 1.1196867113272812E10 ; 39271.679999999986
65 ; 5.7719493197899505E7 ; 2.0029938638000003E8 ; 3.62413622606889E9 ; 1.1397166499652811E10 ; 39885.29999999999
66 ; 5.77234503743949E7 ; 2.0029938638000003E8 ; 3.6818557192667894E9 ; 1.159746588603281E10 ; 40498.91999999999
67 ; 5.773320959637982E7 ; 2.0029938638000003E8 ; 3.7395791696411843E9 ; 1.179776527241281E10 ; 41112.53999999999
68 ; 5.773849362420687E7 ; 2.0029938638000003E8 ; 3.797312379237564E9 ; 1.1998064658792809E10 ; 41726.159999999996
69 ; 5.774778990008528E7 ; 2.0029938638000003E8 ; 3.855050872861771E9 ; 1.2198364045172808E10 ; 42339.78
70 ; 5.7750904550180875E7 ; 2.0029938638000003E8 ; 3.9127986627618566E9 ; 1.2398663431552807E10 ; 42953.4
71 ; 5.776063515357277E7 ; 2.0029938638000003E8 ; 3.9705495673120375E9 ; 1.2598962817932806E10 ; 43567.020000000004
72 ; 5.776605333223402E7 ; 2.0029938638000003E8 ; 4.02831020246561E9 ; 1.2799262204312805E10 ; 44180.64000000001
73 ; 5.777229324536194E7 ; 2.0029938638000003E8 ; 4.086076255797844E9 ; 1.2999561590692804E10 ; 44794.26000000001
74 ; 5.777244229445291E7 ; 2.0029938638000003E8 ; 4.1438485490432057E9 ; 1.3199860977072803E10 ; 45407.88000000001
75 ; 5.7786585875841595E7 ; 2.0029938638000003E8 ; 4.201620991337659E9 ; 1.3400160363452803E10 ; 46021.500000000015
76 ; 5.777933083033279E7 ; 2.0029938638000003E8 ; 4.2594075772135005E9 ; 1.3600459749832802E10 ; 46635.12000000002
77 ; 5.778716853720226E7 ; 2.0029938638000003E8 ; 4.317186908043834E9 ; 1.3800759136212801E10 ; 47248.74000000002
78 ; 5.777278163597998E7 ; 2.0029938638000003E8 ; 4.374974076581036E9 ; 1.40010585225928E10 ; 47862.36000000002
79 ; 5.775969271584283E7 ; 2.0029938638000003E8 ; 4.432746858217015E9 ; 1.42013579089728E10 ; 48475.980000000025
80 ; 5.774526442089913E7 ; 2.0029938638000003E8 ; 4.490506550932858E9 ; 1.4401657295352798E10 ; 49089.60000000003
81 ; 5.7719745007345766E7 ; 2.0029938638000003E8 ; 4.548251815353758E9 ; 1.4601956681732798E10 ; 49703.22000000003
82 ; 5.770698438278311E7 ; 2.0029938638000003E8 ; 4.605971560361104E9 ; 1.4802256068112797E10 ; 50316.84000000003
83 ; 5.7691086136139505E7 ; 2.0029938638000003E8 ; 4.663678544743887E9 ; 1.5002555454492796E10 ; 50930.460000000036
84 ; 5.767057775528543E7 ; 2.0029938638000003E8 ; 4.721369630880027E9 ; 1.5202854840872795E10 ; 51544.08000000004
85 ; 5.765886244563635E7 ; 2.0029938638000003E8 ; 4.779040208635312E9 ; 1.5403154227252794E10 ; 52157.70000000004
86 ; 5.763439557401325E7 ; 2.0029938638000003E8 ; 4.836699071080949E9 ; 1.5603453613632793E10 ; 52771.32000000004
87 ; 5.7622762047318526E7 ; 2.0029938638000003E8 ; 4.894333466654963E9 ; 1.5803753000012793E10 ; 53384.940000000046
88 ; 5.759122193811139E7 ; 2.0029938638000003E8 ; 4.951956228702281E9 ; 1.6004052386392792E10 ; 53998.56000000005
89 ; 5.75744911620604E7 ; 2.0029938638000003E8 ; 5.009547450640392E9 ; 1.620435177277279E10 ; 54612.18000000005
90 ; 5.754865337159677E7 ; 2.0029938638000003E8 ; 5.067121941802453E9 ; 1.640465115915279E10 ; 55225.800000000054
91 ; 5.753261876081465E7 ; 2.0029938638000003E8 ; 5.124670595174049E9 ; 1.660495054553279E10 ; 55839.42000000006
92 ; 5.7511721782040924E7 ; 2.0029938638000003E8 ; 5.182203213934864E9 ; 1.6805249931912788E10 ; 56453.04000000006
93 ; 5.74867541411999E7 ; 2.0029938638000003E8 ; 5.239714935716905E9 ; 1.7005549318292788E10 ; 57066.66000000006
94 ; 5.7463178829329014E7 ; 2.0029938638000003E8 ; 5.297201689858105E9 ; 1.7205848704672787E10 ; 57680.280000000064
95 ; 5.743600994560869E7 ; 2.0029938638000003E8 ; 5.354664868687433E9 ; 1.7406148091052788E10 ; 58293.90000000007
96 ; 5.74148832697001E7 ; 2.0029938638000003E8 ; 5.412100878633042E9 ; 1.760644747743279E10 ; 58907.52000000007
97 ; 5.7393629435452476E7 ; 2.0029938638000003E8 ; 5.469515761902742E9 ; 1.780674686381279E10 ; 59521.14000000007
98 ; 5.735831681834458E7 ; 2.0029938638000003E8 ; 5.526909391338195E9 ; 1.800704625019279E10 ; 60134.760000000075
99 ; 5.733937249758771E7 ; 2.0029938638000003E8 ; 5.584267708156539E9 ; 1.8207345636572792E10 ; 60748.38000000008
100 ; 5.731544021180787E7 ; 2.0029938638000003E8 ; 5.641607080654127E9 ; 1.8407645022952793E10 ; 61362.00000000008
101 ; 5.729059025623119E7 ; 2.0029938638000003E8 ; 5.698922520865935E9 ; 1.8607944409332794E10 ; 61975.62000000008
102 ; 5.725491919489775E7 ; 2.0029938638000003E8 ; 5.756213111122167E9 ; 1.8808243795712795E10 ; 62589.240000000085
103 ; 5.722895588287955E7 ; 2.0029938638000003E8 ; 5.813468030317064E9 ; 1.9008543182092796E10 ; 63202.86000000009
104 ; 5.719648452809966E7 ; 2.0029938638000003E8 ; 5.870696986199944E9 ; 1.9208842568472797E10 ; 63816.48000000009
105 ; 5.716233084330635E7 ; 2.0029938638000003E8 ; 5.927893470728044E9 ; 1.94091419548528E10 ; 64430.10000000009
106 ; 5.714392449933739E7 ; 2.0029938638000003E8 ; 5.98505580157135E9 ; 1.96094413412328E10 ; 65043.720000000096
107 ; 5.711124872739825E7 ; 2.0029938638000003E8 ; 6.042199726070687E9 ; 1.98097407276128E10 ; 65657.3400000001
108 ; 5.707637272788365E7 ; 2.0029938638000003E8 ; 6.099310974798085E9 ; 2.00100401139928E10 ; 66270.9600000001
109 ; 5.704215376678053E7 ; 2.0029938638000003E8 ; 6.156387347525969E9 ; 2.0210339500372803E10 ; 66884.58000000009
110 ; 5.7021712943149656E7 ; 2.0029938638000003E8 ; 6.213429501292749E9 ; 2.0410638886752804E10 ; 67498.20000000008
111 ; 5.698387222820857E7 ; 2.0029938638000003E8 ; 6.270451214235899E9 ; 2.0610938273132805E10 ; 68111.82000000008
112 ; 5.69485612570481E7 ; 2.0029938638000003E8 ; 6.3274350864641075E9 ; 2.0811237659512806E10 ; 68725.44000000008
113 ; 5.691395308260161E7 ; 2.0029938638000003E8 ; 6.384383647721155E9 ; 2.1011537045892807E10 ; 69339.06000000007
114 ; 5.687371585833468E7 ; 2.0029938638000003E8 ; 6.441297600803757E9 ; 2.1211836432272808E10 ; 69952.68000000007
115 ; 5.684557047185241E7 ; 2.0029938638000003E8 ; 6.498171316662091E9 ; 2.141213581865281E10 ; 70566.30000000006
116 ; 5.68049619002853E7 ; 2.0029938638000003E8 ; 6.555016887133944E9 ; 2.161243520503281E10 ; 71179.92000000006
117 ; 5.677467377440608E7 ; 2.0029938638000003E8 ; 6.611821849034229E9 ; 2.181273459141281E10 ; 71793.54000000005
118 ; 5.673377618857745E7 ; 2.0029938638000003E8 ; 6.668596522808636E9 ; 2.2013033977792812E10 ; 72407.16000000005
119 ; 5.6691832981672555E7 ; 2.0029938638000003E8 ; 6.725330298997213E9 ; 2.2213333364172813E10 ; 73020.78000000004
120 ; 5.666062944362593E7 ; 2.0029938638000003E8 ; 6.782022131978886E9 ; 2.2413632750552814E10 ; 73634.40000000004
121 ; 5.661936511816943E7 ; 2.0029938638000003E8 ; 6.838682761422512E9 ; 2.2613932136932816E10 ; 74248.02000000003
122 ; 5.659260297093036E7 ; 2.0029938638000003E8 ; 6.895302126540682E9 ; 2.2814231523312817E10 ; 74861.64000000003
123 ; 5.654128576446215E7 ; 2.0029938638000003E8 ; 6.951894729511612E9 ; 2.3014530909692818E10 ; 75475.26000000002
124 ; 5.650220527477598E7 ; 2.0029938638000003E8 ; 7.008436015276074E9 ; 2.321483029607282E10 ; 76088.88000000002
125 ; 5.6462112059589565E7 ; 2.0029938638000003E8 ; 7.06493822055085E9 ; 2.341512968245282E10 ; 76702.50000000001
126 ; 5.6424060077348754E7 ; 2.0029938638000003E8 ; 7.121400332610439E9 ; 2.361542906883282E10 ; 77316.12000000001
127 ; 5.637712780420189E7 ; 2.0029938638000003E8 ; 7.177824392687788E9 ; 2.3815728455212822E10 ; 77929.74
128 ; 5.6335756541130796E7 ; 2.0029938638000003E8 ; 7.23420152049199E9 ; 2.4016027841592823E10 ; 78543.36
129 ; 5.629613933096952E7 ; 2.0029938638000003E8 ; 7.290537277033121E9 ; 2.4216327227972824E10 ; 79156.98
130 ; 5.623035880764416E7 ; 2.0029938638000003E8 ; 7.346833416364091E9 ; 2.4416626614352825E10 ; 79770.59999999999
131 ; 5.617932133107339E7 ; 2.0029938638000003E8 ; 7.403063775171735E9 ; 2.4616926000732826E10 ; 80384.21999999999
132 ; 5.612326290507308E7 ; 2.0029938638000003E8 ; 7.459243096502809E9 ; 2.4817225387112827E10 ; 80997.83999999998
133 ; 5.606377092562628E7 ; 2.0029938638000003E8 ; 7.515366359407882E9 ; 2.501752477349283E10 ; 81611.45999999998
134 ; 5.5998658182347104E7 ; 2.0029938638000003E8 ; 7.571430130333508E9 ; 2.521782415987283E10 ; 82225.07999999997
135 ; 5.593556631044294E7 ; 2.0029938638000003E8 ; 7.627428788515855E9 ; 2.541812354625283E10 ; 82838.69999999997
136 ; 5.587327680745366E7 ; 2.0029938638000003E8 ; 7.683364354826298E9 ; 2.561842293263283E10 ; 83452.31999999996
137 ; 5.580504162854476E7 ; 2.0029938638000003E8 ; 7.739237631633752E9 ; 2.5818722319012833E10 ; 84065.93999999996
138 ; 5.57446030373947E7 ; 2.0029938638000003E8 ; 7.795042673262297E9 ; 2.6019021705392834E10 ; 84679.55999999995
139 ; 5.567521542158302E7 ; 2.0029938638000003E8 ; 7.850787276299691E9 ; 2.6219321091772835E10 ; 85293.17999999995
140 ; 5.560969651359358E7 ; 2.0029938638000003E8 ; 7.906462491721274E9 ; 2.6419620478152836E10 ; 85906.79999999994
141 ; 5.554852961598743E7 ; 2.0029938638000003E8 ; 7.962072188234868E9 ; 2.6619919864532837E10 ; 86520.41999999994
142 ; 5.547675021893186E7 ; 2.0029938638000003E8 ; 8.017620717850856E9 ; 2.6820219250912838E10 ; 87134.03999999994
143 ; 5.541092133649385E7 ; 2.0029938638000003E8 ; 8.073097468069788E9 ; 2.702051863729284E10 ; 87747.65999999993
144 ; 5.533913402204114E7 ; 2.0029938638000003E8 ; 8.128508389406281E9 ; 2.722081802367284E10 ; 88361.27999999993
145 ; 5.5302466651519634E7 ; 2.0029938638000003E8 ; 8.183847523428323E9 ; 2.742111741005284E10 ; 88974.89999999992
146 ; 5.525741294740865E7 ; 2.0029938638000003E8 ; 8.239149990079843E9 ; 2.7621416796432842E10 ; 89588.51999999992
147 ; 5.520548717438647E7 ; 2.0029938638000003E8 ; 8.294407403027251E9 ; 2.7821716182812843E10 ; 90202.13999999991
148 ; 5.515574684551065E7 ; 2.0029938638000003E8 ; 8.349612890201637E9 ; 2.8022015569192844E10 ; 90815.75999999991
149 ; 5.511297041619018E7 ; 2.0029938638000003E8 ; 8.404768637047148E9 ; 2.8222314955572845E10 ; 91429.3799999999
150 ; 5.506717112106184E7 ; 2.0029938638000003E8 ; 8.459881607463338E9 ; 2.8422614341952847E10 ; 92042.9999999999
151 ; 5.502040651597793E7 ; 2.0029938638000003E8 ; 8.5149487785844E9 ; 2.8622913728332848E10 ; 92656.6199999999
152 ; 5.49690765716726E7 ; 2.0029938638000003E8 ; 8.569969185100378E9 ; 2.882321311471285E10 ; 93270.23999999989
153 ; 5.492815625989786E7 ; 2.0029938638000003E8 ; 8.62493826167205E9 ; 2.902351250109285E10 ; 93883.85999999988
154 ; 5.488570988813894E7 ; 2.0029938638000003E8 ; 8.679866417931948E9 ; 2.922381188747285E10 ; 94497.47999999988
155 ; 5.483385617419919E7 ; 2.0029938638000003E8 ; 8.734752127820087E9 ; 2.942411127385285E10 ; 95111.09999999987
156 ; 5.478311915400322E7 ; 2.0029938638000003E8 ; 8.789585983994287E9 ; 2.9624410660232853E10 ; 95724.71999999987
157 ; 5.473628669357013E7 ; 2.0029938638000003E8 ; 8.84436910314829E9 ; 2.9824710046612854E10 ; 96338.33999999987
158 ; 5.468839906176019E7 ; 2.0029938638000003E8 ; 8.89910538984186E9 ; 3.0025009432992855E10 ; 96951.95999999986
159 ; 5.463874610931823E7 ; 2.0029938638000003E8 ; 8.95379378890362E9 ; 3.0225308819372856E10 ; 97565.57999999986
160 ; 5.458410224332495E7 ; 2.0029938638000003E8 ; 9.008432535012938E9 ; 3.0425608205752857E10 ; 98179.19999999985
161 ; 5.454346056984912E7 ; 2.0029938638000003E8 ; 9.063016637256262E9 ; 3.062590759213286E10 ; 98792.81999999985
162 ; 5.449004349942036E7 ; 2.0029938638000003E8 ; 9.11756009782611E9 ; 3.082620697851286E10 ; 99406.43999999984
163 ; 5.443844450585786E7 ; 2.0029938638000003E8 ; 9.172050141325531E9 ; 3.102650636489286E10 ; 100020.05999999984
164 ; 5.440091021988028E7 ; 2.0029938638000003E8 ; 9.226488585831388E9 ; 3.122680575127286E10 ; 100633.67999999983
165 ; 5.433406842277749E7 ; 2.0029938638000003E8 ; 9.28088949605127E9 ; 3.1427105137652863E10 ; 101247.29999999983
166 ; 5.4287242180232845E7 ; 2.0029938638000003E8 ; 9.335223564474047E9 ; 3.1627404524032864E10 ; 101860.91999999982
167 ; 5.4244897110236436E7 ; 2.0029938638000003E8 ; 9.38951080665428E9 ; 3.1827703910412865E10 ; 102474.53999999982
168 ; 5.418979706905071E7 ; 2.0029938638000003E8 ; 9.443755703764517E9 ; 3.2028003296792866E10 ; 103088.15999999981
169 ; 5.413730207556084E7 ; 2.0029938638000003E8 ; 9.497945500833567E9 ; 3.2228302683172867E10 ; 103701.77999999981
170 ; 5.409230278041996E7 ; 2.0029938638000003E8 ; 9.552082802909128E9 ; 3.2428602069552868E10 ; 104315.3999999998
171 ; 5.403065323370741E7 ; 2.0029938638000003E8 ; 9.606175105689548E9 ; 3.262890145593287E10 ; 104929.0199999998
172 ; 5.3986192046963684E7 ; 2.0029938638000003E8 ; 9.660205758923256E9 ; 3.282920084231287E10 ; 105542.6399999998
