CSV File for the Network on Day 165
1 - Minute m 
2 - Power Consumed at minute m 
3 - Power Produced at minute m 
4 - Energy Consumed since the beginning of the day 
5 - Energy Produced since the beginning of the day 
6 - Energy Lost since the beginning of the day 
 
0 ; 1.526935738108548E7 ; 6.349795730994229E8 ; 0.0 ; 0.0 ; 0.0
1 ; 1.5298418115824092E7 ; 6.358903480775453E8 ; 1.526935738108548E7 ; 6.349795730994229E8 ; 0.0
2 ; 1.5327854793746471E7 ; 6.38654517774248E8 ; 3.0567775496909574E7 ; 1.270869921176968E9 ; 0.0
3 ; 1.536697709322369E7 ; 6.432720990935225E8 ; 4.5895630290656045E7 ; 1.9095244389512162E9 ; 0.0
4 ; 1.5410495019661136E7 ; 6.497431071926968E8 ; 6.1262607383879736E7 ; 2.552796538044739E9 ; 0.0
5 ; 1.5465395334047042E7 ; 6.580675553956466E8 ; 7.667310240354088E7 ; 3.2025396452374353E9 ; 0.0
6 ; 1.5554040566536931E7 ; 6.682454551149912E8 ; 9.213849773758793E7 ; 3.860607200633082E9 ; 0.0
7 ; 1.5666686757456895E7 ; 6.802768157843227E8 ; 1.0769253830412486E8 ; 4.528852655748074E9 ; 0.0
8 ; 1.5835634194518995E7 ; 6.941616448013924E8 ; 1.2335922506158176E8 ; 5.209129471532396E9 ; 0.0
9 ; 1.6110601513469577E7 ; 7.098999474830594E8 ; 1.3919485925610074E8 ; 5.903291116333789E9 ; 0.0
10 ; 1.6528025950960347E7 ; 7.274917270326343E8 ; 1.5530546076957032E8 ; 6.613191063816849E9 ; 0.0
11 ; 1.7214643648230147E7 ; 7.469369845200965E8 ; 1.7183348672053066E8 ; 7.3406827908494835E9 ; 0.0
12 ; 1.8307353112472367E7 ; 7.682357188754667E8 ; 1.890481303687608E8 ; 8.08761977536958E9 ; 0.0
13 ; 1.9362519232478626E7 ; 7.913879268954337E8 ; 2.0735548348123315E8 ; 8.855855494245047E9 ; 0.0
14 ; 1.948146168763865E7 ; 8.163936032631394E8 ; 2.2671800271371177E8 ; 9.64724342114048E9 ; 0.0
15 ; 1.9518241744812947E7 ; 8.432527405808315E8 ; 2.461994644013504E8 ; 1.046363702440362E10 ; 0.0
16 ; 1.95494477011803E7 ; 8.719653294149191E8 ; 2.6571770614616334E8 ; 1.1306889764984451E10 ; 0.0
17 ; 1.959650166854852E7 ; 9.025313583527819E8 ; 2.852671538473436E8 ; 1.217885509439937E10 ; 0.0
18 ; 1.9634175102559194E7 ; 9.349508140705442E8 ; 3.0486365551589215E8 ; 1.3081386452752151E10 ; 0.0
19 ; 1.967150227135428E7 ; 9.692236814108785E8 ; 3.2449783061845136E8 ; 1.4016337266822697E10 ; 0.0
20 ; 1.9711906362241603E7 ; 1.0053499434697931E9 ; 3.441693328898056E8 ; 1.4985560948233576E10 ; 0.0
21 ; 1.974938185935679E7 ; 1.0433295816912771E9 ; 3.6388123925204724E8 ; 1.599091089170337E10 ; 0.0
22 ; 1.9794055942585137E7 ; 1.0831625759686065E9 ; 3.8363062111140406E8 ; 1.7034240473394646E10 ; 0.0
23 ; 1.983991657501722E7 ; 1.124848904751079E9 ; 4.034246770539892E8 ; 1.811740304936325E10 ; 0.0
24 ; 1.9879819474654704E7 ; 1.16838854515494E9 ; 4.232645936290064E8 ; 1.924225195411433E10 ; 0.0
25 ; 1.991769918349051E7 ; 1.2059097184663665E9 ; 4.4314441310366106E8 ; 2.041064049926927E10 ; 0.0
26 ; 1.995285215814965E7 ; 1.2059336864784906E9 ; 4.630621122871516E8 ; 2.1616550217735638E10 ; 0.0
27 ; 1.9997547510557104E7 ; 1.2059590387570863E9 ; 4.8301496444530123E8 ; 2.2822483904214127E10 ; 0.0
28 ; 2.0034519023297668E7 ; 1.205985748237019E9 ; 5.0301251195585835E8 ; 2.4028442942971214E10 ; 0.0
29 ; 2.0084136196822997E7 ; 1.2060137870960927E9 ; 5.23047030979156E8 ; 2.5234428691208233E10 ; 0.0
30 ; 2.0111081574287564E7 ; 1.2060431268670824E9 ; 5.43131167175979E8 ; 2.6440442478304325E10 ; 0.0
31 ; 2.0141129917207945E7 ; 1.2060737385466342E9 ; 5.632422487502666E8 ; 2.7646485605171406E10 ; 0.0
32 ; 2.018656720240544E7 ; 1.2061055927003367E9 ; 5.833833786674745E8 ; 2.885255934371804E10 ; 0.0
33 ; 2.021779613085763E7 ; 1.206138659563377E9 ; 6.0356994586988E8 ; 3.0058664936418377E10 ; 0.0
34 ; 2.0258219612959754E7 ; 1.2061729091363032E9 ; 6.237877420007375E8 ; 3.1264803595981754E10 ; 0.0
35 ; 2.0287192882375855E7 ; 1.2062083112755108E9 ; 6.440459616136973E8 ; 3.2470976505118057E10 ; 0.0
36 ; 2.0323494720243223E7 ; 1.206244835778172E9 ; 6.643331544960731E8 ; 3.367718481639357E10 ; 0.0
37 ; 2.0354915834440425E7 ; 1.206282452461417E9 ; 6.846566492163163E8 ; 3.4883429652171745E10 ; 0.0
38 ; 2.037717112354848E7 ; 1.2063211312356553E9 ; 7.050115650507568E8 ; 3.608971210463316E10 ; 0.0
39 ; 2.0403262272510555E7 ; 1.20636084217201E9 ; 7.253887361743053E8 ; 3.729603323586882E10 ; 0.0
40 ; 2.0427639771606363E7 ; 1.2064015555638916E9 ; 7.457919984468158E8 ; 3.850239407804083E10 ; 0.0
41 ; 2.0452795486963544E7 ; 1.2064432419828138E9 ; 7.662196382184222E8 ; 3.970879563360472E10 ; 0.0
42 ; 2.04766159497422E7 ; 1.2064858723285809E9 ; 7.866724337053857E8 ; 4.091523887558753E10 ; 0.0
43 ; 2.0495684978279382E7 ; 1.206529417874043E9 ; 8.071490496551279E8 ; 4.2121724747916115E10 ; 0.0
44 ; 2.0518137710465178E7 ; 1.2065738503046293E9 ; 8.276447346334072E8 ; 4.332825416579016E10 ; 0.0
45 ; 2.053401211156127E7 ; 1.2066191417529068E9 ; 8.481628723438724E8 ; 4.453482801609479E10 ; 0.0
46 ; 2.0547657566609487E7 ; 1.2066652648284295E9 ; 8.686968844554337E8 ; 4.5741447157847694E10 ; 0.0
47 ; 2.0559246998891637E7 ; 1.2067121926431515E9 ; 8.892445420220432E8 ; 4.6948112422676125E10 ; 0.0
48 ; 2.056977519705448E7 ; 1.2067598988326988E9 ; 9.098037890209348E8 ; 4.8154824615319275E10 ; 0.0
49 ; 2.0579591843104742E7 ; 1.2068083575737824E9 ; 9.303735642179893E8 ; 4.936158451415198E10 ; 0.0
50 ; 2.0589918357829288E7 ; 1.206857543598046E9 ; 9.50953156061094E8 ; 5.056839287172576E10 ; 0.0
51 ; 2.059137802680754E7 ; 1.2069074322026355E9 ; 9.715430744189234E8 ; 5.177525041532381E10 ; 0.0
52 ; 2.059639919312116E7 ; 1.2069579992577672E9 ; 9.921344524457309E8 ; 5.298215784752644E10 ; 0.0
53 ; 2.0606968713147357E7 ; 1.2070092212115679E9 ; 1.0127308516388521E9 ; 5.418911584678421E10 ; 0.0
54 ; 2.0610072347038873E7 ; 1.2070610750924451E9 ; 1.0333378203519995E9 ; 5.539612506799578E10 ; 0.0
55 ; 2.0615529656011693E7 ; 1.2071135385092368E9 ; 1.0539478926990384E9 ; 5.660318614308823E10 ; 0.0
56 ; 2.0627967500578318E7 ; 1.2071665896493735E9 ; 1.07456342235505E9 ; 5.7810299681597466E10 ; 0.0
57 ; 2.062059070688022E7 ; 1.2072202072752767E9 ; 1.0951913898556285E9 ; 5.901746627124684E10 ; 0.0
58 ; 2.0628473600088645E7 ; 1.2072743707191966E9 ; 1.1158119805625088E9 ; 6.022468647852212E10 ; 0.0
59 ; 2.063297173783098E7 ; 1.207329059876687E9 ; 1.1364404541625974E9 ; 6.143196084924132E10 ; 0.0
60 ; 2.063638682018058E7 ; 1.2073842551988928E9 ; 1.1570734259004283E9 ; 6.2639289909118004E10 ; 0.0
61 ; 2.0640683314685926E7 ; 1.2074399376838126E9 ; 1.177709812720609E9 ; 6.3846674164316895E10 ; 0.0
62 ; 2.0643431687694006E7 ; 1.2074960888666956E9 ; 1.1983504960352948E9 ; 6.505411410200071E10 ; 0.0
63 ; 2.064391960084126E7 ; 1.2075526908097043E9 ; 1.2189939277229888E9 ; 6.626161019086741E10 ; 0.0
64 ; 2.064066044702912E7 ; 1.20760972609097E9 ; 1.2396378473238301E9 ; 6.746916288167712E10 ; 0.0
65 ; 2.06478001466735E7 ; 1.2076671777931604E9 ; 1.2602785077708592E9 ; 6.867677260776809E10 ; 0.0
66 ; 2.064791184622427E7 ; 1.2077250294916558E9 ; 1.2809263079175327E9 ; 6.988443978556125E10 ; 0.0
67 ; 2.065502212688076E7 ; 1.2077832652424326E9 ; 1.301574219763757E9 ; 7.10921648150529E10 ; 0.0
68 ; 2.0650977519141972E7 ; 1.207841869569731E9 ; 1.3222292418906376E9 ; 7.229994808029533E10 ; 0.0
69 ; 2.0653795484979652E7 ; 1.2079008274535909E9 ; 1.3428802194097795E9 ; 7.350778994986507E10 ; 0.0
70 ; 2.0650299595678322E7 ; 1.207960124317308E9 ; 1.3635340148947592E9 ; 7.471569077731866E10 ; 0.0
71 ; 2.0652256500404548E7 ; 1.2080197460148826E9 ; 1.3841843144904375E9 ; 7.592365090163597E10 ; 0.0
72 ; 2.0647130012174975E7 ; 1.2080796788184996E9 ; 1.404836570990842E9 ; 7.713167064765085E10 ; 0.0
73 ; 2.0648747258017372E7 ; 1.2081399094060926E9 ; 1.4254837010030172E9 ; 7.833975032646935E10 ; 0.0
74 ; 2.064684387501692E7 ; 1.2082004248490295E9 ; 1.4461324482610345E9 ; 7.954789023587544E10 ; 0.0
75 ; 2.065070309252397E7 ; 1.2082612125999465E9 ; 1.4667792921360514E9 ; 8.075609066072447E10 ; 0.0
76 ; 2.0645904112203598E7 ; 1.2083222604807665E9 ; 1.4874299952285755E9 ; 8.196435187332442E10 ; 0.0
77 ; 2.0638604619885378E7 ; 1.208383556670925E9 ; 1.508075899340779E9 ; 8.317267413380519E10 ; 0.0
78 ; 2.062623184130719E7 ; 1.2084450896958158E9 ; 1.5287145039606645E9 ; 8.438105769047612E10 ; 0.0
79 ; 2.0613646868646868E7 ; 1.2085068484154854E9 ; 1.5493407358019717E9 ; 8.558950278017194E10 ; 0.0
80 ; 2.0587570400146242E7 ; 1.208568822013577E9 ; 1.5699543826706185E9 ; 8.679800962858742E10 ; 0.0
81 ; 2.0577171039925672E7 ; 1.2086309999865448E9 ; 1.5905419530707648E9 ; 8.8006578450601E10 ; 0.0
82 ; 2.0563673059239272E7 ; 1.2086933721331394E9 ; 1.6111191241106904E9 ; 8.921520945058754E10 ; 0.0
83 ; 2.054470338042046E7 ; 1.2087559285441742E9 ; 1.6316827971699297E9 ; 9.042390282272067E10 ; 0.0
84 ; 2.0530302138456065E7 ; 1.208818659592576E9 ; 1.6522275005503502E9 ; 9.163265875126485E10 ; 0.0
85 ; 2.05047390006469E7 ; 1.2088815559237201E9 ; 1.6727578026888063E9 ; 9.284147741085742E10 ; 0.0
86 ; 2.049298145782508E7 ; 1.2089446084460526E9 ; 1.6932625416894531E9 ; 9.405035896678114E10 ; 0.0
87 ; 2.0473326619850483E7 ; 1.2090078083219981E9 ; 1.7137555231472783E9 ; 9.52593035752272E10 ; 0.0
88 ; 2.045120988313875E7 ; 1.2090711469591525E9 ; 1.7342288497671287E9 ; 9.64683113835492E10 ; 0.0
89 ; 2.0435180156689808E7 ; 1.2091346160017545E9 ; 1.7546800596502674E9 ; 9.767738253050835E10 ; 0.0
90 ; 2.0420709137181737E7 ; 1.2091982073224387E9 ; 1.7751152398069572E9 ; 9.88865171465101E10 ; 0.0
91 ; 2.0400803805378035E7 ; 1.209261913014258E9 ; 1.795535948944139E9 ; 1.0009571535383253E11 ; 0.0
92 ; 2.038189463496306E7 ; 1.2093257253829768E9 ; 1.815936752749517E9 ; 1.0130497726684679E11 ; 0.0
93 ; 2.0356775133525275E7 ; 1.2093896369396276E9 ; 1.83631864738448E9 ; 1.0251430299222977E11 ; 0.0
94 ; 2.0334322885060653E7 ; 1.2094536403933241E9 ; 1.8566754225180054E9 ; 1.0372369262916939E11 ; 0.0
95 ; 2.031527852088498E7 ; 1.209517728644326E9 ; 1.877009745403066E9 ; 1.0493314626956271E11 ; 0.0
96 ; 2.0287015795907263E7 ; 1.209581894777348E9 ; 1.897325023923951E9 ; 1.0614266399820705E11 ; 0.0
97 ; 2.0277001013965983E7 ; 1.20964613205511E9 ; 1.9176120397198582E9 ; 1.0735224589298439E11 ; 0.0
98 ; 2.0248910091520656E7 ; 1.2097104339121156E9 ; 1.9378890407338243E9 ; 1.085618920250395E11 ; 0.0
99 ; 2.0225141535279077E7 ; 1.2097747939486609E9 ; 1.9581379508253448E9 ; 1.0977160245895161E11 ; 0.0
100 ; 2.0205702312576007E7 ; 1.2098392059250543E9 ; 1.9783630923606238E9 ; 1.1098137725290027E11 ; 0.0
101 ; 2.0183135018317595E7 ; 1.2099036637560573E9 ; 1.9985687946732E9 ; 1.1219121645882532E11 ; 0.0
102 ; 2.0157671653029338E7 ; 1.209968161505522E9 ; 2.0187519296915176E9 ; 1.1340112012258138E11 ; 0.0
103 ; 2.013770511434553E7 ; 1.2100326933812337E9 ; 2.038909601344547E9 ; 1.146110882840869E11 ; 0.0
104 ; 2.011822356714192E7 ; 1.2100972537299407E9 ; 2.0590473064588926E9 ; 1.1582112097746814E11 ; 0.0
105 ; 2.0079877879171588E7 ; 1.2101618370325708E9 ; 2.0791655300260346E9 ; 1.1703121823119807E11 ; 0.0
106 ; 2.0058695839977708E7 ; 1.2102264378996296E9 ; 2.0992454079052062E9 ; 1.1824138006823065E11 ; 0.0
107 ; 2.0035995522931267E7 ; 1.2102910510667663E9 ; 2.119304103745184E9 ; 1.1945160650613028E11 ; 0.0
108 ; 2.0013820103465732E7 ; 1.2103556713905103E9 ; 2.1393400992681153E9 ; 1.2066189755719705E11 ; 0.0
109 ; 1.9984870701044135E7 ; 1.2104202938441675E9 ; 2.159353919371581E9 ; 1.2187225322858755E11 ; 0.0
110 ; 1.9954626844091903E7 ; 1.2104849135138698E9 ; 2.179338790072625E9 ; 1.2308267352243172E11 ; 0.0
111 ; 1.993223773536157E7 ; 1.2105495255947752E9 ; 2.199293416916717E9 ; 1.2429315843594559E11 ; 0.0
112 ; 1.9906293292054754E7 ; 1.210614125387412E9 ; 2.2192256546520786E9 ; 1.2550370796154036E11 ; 0.0
113 ; 1.9883974938960813E7 ; 1.2106787082941592E9 ; 2.2391319479441333E9 ; 1.2671432208692776E11 ; 0.0
114 ; 1.9855491512641035E7 ; 1.2107432698158617E9 ; 2.2590159228830943E9 ; 1.2792500079522192E11 ; 0.0
115 ; 1.9823220246944983E7 ; 1.210807805548573E9 ; 2.2788714143957353E9 ; 1.2913574406503778E11 ; 0.0
116 ; 1.9798855119294997E7 ; 1.2108723111804214E9 ; 2.29869463464268E9 ; 1.3034655187058635E11 ; 0.0
117 ; 1.9772433539087668E7 ; 1.2109367824885926E9 ; 2.3184934897619753E9 ; 1.3155742418176677E11 ; 0.0
118 ; 1.974394564768132E7 ; 1.2110012153364303E9 ; 2.338265923301063E9 ; 1.3276836096425536E11 ; 0.0
119 ; 1.9713327318951026E7 ; 1.2110656056706421E9 ; 2.3580098689487443E9 ; 1.3397936217959178E11 ; 0.0
120 ; 1.9685356427037712E7 ; 1.2111299495186129E9 ; 2.3777231962676954E9 ; 1.3519042778526242E11 ; 0.0
121 ; 1.96622912536546E7 ; 1.2111942429858193E9 ; 2.397408552694733E9 ; 1.3640155773478104E11 ; 0.0
122 ; 1.9624134163280796E7 ; 1.211258482253341E9 ; 2.4170708439483876E9 ; 1.3761275197776685E11 ; 0.0
123 ; 1.9603156991649456E7 ; 1.2113226635754642E9 ; 2.4366949781116686E9 ; 1.3882401046002017E11 ; 0.0
124 ; 1.956480313727794E7 ; 1.211386783277379E9 ; 2.456298135103318E9 ; 1.4003533312359564E11 ; 0.0
125 ; 1.9533109677502844E7 ; 1.2114508377529578E9 ; 2.4758629382405963E9 ; 1.4124671990687302E11 ; 0.0
126 ; 1.9499387386760343E7 ; 1.2115148234626198E9 ; 2.495396047918099E9 ; 1.4245817074462598E11 ; 0.0
127 ; 1.9468800764490705E7 ; 1.211578736931275E9 ; 2.514895435304859E9 ; 1.436696855680886E11 ; 0.0
128 ; 1.943923425766562E7 ; 1.2116425747463439E9 ; 2.53436423606935E9 ; 1.4488126430501987E11 ; 0.0
129 ; 1.940519064754551E7 ; 1.211706333555851E9 ; 2.5538034703270154E9 ; 1.460929068797662E11 ; 0.0
130 ; 1.937150640517477E7 ; 1.2117700100665894E9 ; 2.5732086609745607E9 ; 1.4730461321332205E11 ; 0.0
131 ; 1.9321202683541134E7 ; 1.2118336010423517E9 ; 2.5925801673797355E9 ; 1.4851638322338864E11 ; 0.0
132 ; 1.927524565910586E7 ; 1.2118971033022287E9 ; 2.611901370063277E9 ; 1.49728216824431E11 ; 0.0
133 ; 1.9227701306500882E7 ; 1.2119605137189684E9 ; 2.6311766157223825E9 ; 1.5094011392773322E11 ; 0.0
134 ; 1.9187035045584936E7 ; 1.2120238292173965E9 ; 2.6504043170288835E9 ; 1.5215207444145218E11 ; 0.0
135 ; 1.9137085837409552E7 ; 1.2120870467728941E9 ; 2.6695913520744686E9 ; 1.533640982706696E11 ; 0.0
136 ; 1.9093885574625537E7 ; 1.2121501634099312E9 ; 2.688728437911878E9 ; 1.5457618531744247E11 ; 0.0
137 ; 1.9034025922788505E7 ; 1.2122131762006547E9 ; 2.7078223234865036E9 ; 1.5578833548085242E11 ; 0.0
138 ; 1.8996089818256084E7 ; 1.2122760822635245E9 ; 2.726856349409292E9 ; 1.5700054865705307E11 ; 0.0
139 ; 1.8945732086295806E7 ; 1.2123388787620037E9 ; 2.745852439227548E9 ; 1.582128247393166E11 ; 0.0
140 ; 1.8902314796236143E7 ; 1.2124015629032912E9 ; 2.7647981713138437E9 ; 1.5942516361807858E11 ; 0.0
141 ; 1.88531999134935E7 ; 1.2124641319371037E9 ; 2.78370048611008E9 ; 1.6063756518098187E11 ; 0.0
142 ; 1.880248896444944E7 ; 1.2125265831544998E9 ; 2.8025536860235734E9 ; 1.6185002931291898E11 ; 0.0
143 ; 1.874878423324848E7 ; 1.2125889138867464E9 ; 2.821356174988023E9 ; 1.630625558960735E11 ; 0.0
144 ; 1.8705028638741374E7 ; 1.2126511215042255E9 ; 2.8401049592212715E9 ; 1.6427514480996024E11 ; 0.0
145 ; 1.8676228709720213E7 ; 1.21271320341538E9 ; 2.858809987860013E9 ; 1.6548779593146445E11 ; 0.0
146 ; 1.8641626604062125E7 ; 1.2127751570656972E9 ; 2.877486216569733E9 ; 1.6670050913487982E11 ; 0.0
147 ; 1.8600178938272476E7 ; 1.2128369799367285E9 ; 2.896127843173795E9 ; 1.6791328429194553E11 ; 0.0
148 ; 1.8570030614932638E7 ; 1.2128986695451417E9 ; 2.9147280221120677E9 ; 1.6912612127188226E11 ; 0.0
149 ; 1.854079314183947E7 ; 1.2129602234418108E9 ; 2.933298052727E9 ; 1.703390199414274E11 ; 0.0
150 ; 1.8505326235592343E7 ; 1.2130216392109323E9 ; 2.9518388458688397E9 ; 1.715519801648692E11 ; 0.0
151 ; 1.8471890195361905E7 ; 1.2130829144691772E9 ; 2.970344172104432E9 ; 1.7276500180408014E11 ; 0.0
152 ; 1.8442027625335775E7 ; 1.21314404686487E9 ; 2.988816062299794E9 ; 1.7397808471854932E11 ; 0.0
153 ; 1.8403824955297094E7 ; 1.213205034077197E9 ; 3.00725808992513E9 ; 1.7519122876541418E11 ; 0.0
154 ; 1.83722661790243E7 ; 1.2132658738154411E9 ; 3.025661914880427E9 ; 1.764044337994914E11 ; 0.0
155 ; 1.8339406276268363E7 ; 1.213326563818246E9 ; 3.044034181059451E9 ; 1.7761769967330682E11 ; 0.0
156 ; 1.8300869606282298E7 ; 1.2133871018529E9 ; 3.0623735873357196E9 ; 1.7883102623712506E11 ; 0.0
157 ; 1.826398721879012E7 ; 1.213447485714652E9 ; 3.080674456942002E9 ; 1.8004441333897797E11 ; 0.0
158 ; 1.824102092933086E7 ; 1.2135077132260447E9 ; 3.098938444160792E9 ; 1.8125786082469263E11 ; 0.0
159 ; 1.819807985223184E7 ; 1.213567782236272E9 ; 3.1171794650901227E9 ; 1.8247136853791867E11 ; 0.0
160 ; 1.816847261579591E7 ; 1.2136276906205618E9 ; 3.1353775449423547E9 ; 1.8368493632015494E11 ; 0.0
161 ; 1.8135775664884016E7 ; 1.2136874362795744E9 ; 3.153546017558151E9 ; 1.848985640107755E11 ; 0.0
162 ; 1.80948009367802E7 ; 1.2137470171388252E9 ; 3.171681793223035E9 ; 1.8611225144705508E11 ; 0.0
163 ; 1.8069153868895765E7 ; 1.2138064311481252E9 ; 3.189776594159815E9 ; 1.873259984641939E11 ; 0.0
164 ; 1.8030417972189687E7 ; 1.2138656762810407E9 ; 3.2078457480287104E9 ; 1.8853980489534204E11 ; 0.0
165 ; 1.79928504844686E7 ; 1.2139247505343714E9 ; 3.2258761660009003E9 ; 1.8975367057162308E11 ; 0.0
166 ; 1.7954152595480084E7 ; 1.2139836519276447E9 ; 3.2438690164853687E9 ; 1.9096759532215744E11 ; 0.0
167 ; 1.7925115708532266E7 ; 1.2140423785026293E9 ; 3.2618231690808487E9 ; 1.9218157897408508E11 ; 0.0
168 ; 1.7887134639759067E7 ; 1.2141009283228626E9 ; 3.279748284789381E9 ; 1.933956213525877E11 ; 0.0
169 ; 1.785767992229185E7 ; 1.2141592994731936E9 ; 3.29763541942914E9 ; 1.9460972228091058E11 ; 0.0
170 ; 1.7816301462830823E7 ; 1.2142174900593448E9 ; 3.315493099351432E9 ; 1.958238815803838E11 ; 0.0
171 ; 1.7783213037057046E7 ; 1.2142754982074826E9 ; 3.333309400814263E9 ; 1.9703809907044315E11 ; 0.0
172 ; 1.775065373330409E7 ; 1.214333322063807E9 ; 3.35109261385132E9 ; 1.9825237456865063E11 ; 0.0
173 ; 1.771607893957348E7 ; 1.214390959794152E9 ; 3.368843267584624E9 ; 1.9946670789071445E11 ; 0.0
174 ; 1.7685525290079284E7 ; 1.2144484095836003E9 ; 3.386559346524197E9 ; 2.006810988505086E11 ; 0.0
175 ; 1.765838539836101E7 ; 1.2145056696361089E9 ; 3.404244871814276E9 ; 2.018955472600922E11 ; 0.0
176 ; 1.7633661260998234E7 ; 1.2145627381741488E9 ; 3.4219032572126374E9 ; 2.031100529297283E11 ; 0.0
177 ; 1.760821021228537E7 ; 1.214619613438356E9 ; 3.4395369184736357E9 ; 2.0432461566790247E11 ; 0.0
178 ; 1.7573769629310705E7 ; 1.2146762936871922E9 ; 3.457145128685921E9 ; 2.0553923528134082E11 ; 0.0
179 ; 1.7547664557486497E7 ; 1.214732777196619E9 ; 3.474718898315232E9 ; 2.06753911575028E11 ; 0.0
180 ; 1.7516832492314436E7 ; 1.2147890622597804E9 ; 3.4922665628727183E9 ; 2.0796864435222464E11 ; 0.0
181 ; 1.7493718495117784E7 ; 1.214845147186696E9 ; 3.5097833953650327E9 ; 2.091834334144844E11 ; 0.0
182 ; 1.746475174765779E7 ; 1.2149010303039658E9 ; 3.5272771138601503E9 ; 2.103982785616711E11 ; 0.0
183 ; 1.743879156858364E7 ; 1.2149567099544816E9 ; 3.544741865607808E9 ; 2.1161317959197507E11 ; 0.0
184 ; 1.7413309124126215E7 ; 1.215012184497149E9 ; 3.5621806571763916E9 ; 2.1282813630192953E11 ; 0.0
185 ; 1.7381046553949416E7 ; 1.2150674523066194E9 ; 3.579593966300518E9 ; 2.140431484864267E11 ; 0.0
186 ; 1.7349836690466788E7 ; 1.2151225117730289E9 ; 3.5969750128544674E9 ; 2.152582159387333E11 ; 0.0
187 ; 1.7323141916894272E7 ; 1.2151773613017442E9 ; 3.6143248495449343E9 ; 2.1647333845050635E11 ; 0.0
188 ; 1.729559636639742E7 ; 1.2152319993131218E9 ; 3.6316479914618287E9 ; 2.176885158118081E11 ; 0.0
189 ; 1.7264401265661422E7 ; 1.2152864242422671E9 ; 3.648943587828226E9 ; 2.1890374781112122E11 ; 0.0
190 ; 1.7246515304531414E7 ; 1.2153406345388083E9 ; 3.6662079890938873E9 ; 2.201190342353635E11 ; 0.0
191 ; 1.721537354669647E7 ; 1.2153946286666734E9 ; 3.683454504398419E9 ; 2.213343748699023E11 ; 0.0
192 ; 1.7187463969090812E7 ; 1.2154484051038737E9 ; 3.7006698779451156E9 ; 2.22549769498569E11 ; 0.0
193 ; 1.7170554509269737E7 ; 1.2155019623422973E9 ; 3.7178573419142065E9 ; 2.2376521790367288E11 ; 0.0
194 ; 1.7139334870647136E7 ; 1.215555298887507E9 ; 3.735027896423476E9 ; 2.2498071986601517E11 ; 0.0
195 ; 1.7103779694465682E7 ; 1.2156084132585437E9 ; 3.752167231294123E9 ; 2.2619627516490268E11 ; 0.0
