CSV File for the Network on Day 321
1 - Minute m 
2 - Power Consumed at minute m 
3 - Power Produced at minute m 
4 - Energy Consumed since the beginning of the day 
5 - Energy Produced since the beginning of the day 
6 - Energy Lost since the beginning of the day 
 
0 ; 3.890701012217612E7 ; 6.377102752188684E8 ; 0.0 ; 0.0 ; 0.0
1 ; 3.894605715027988E7 ; 6.386202222469081E8 ; 3.890701012217612E7 ; 6.377102752188684E8 ; 0.0
2 ; 3.899341541678056E7 ; 6.413836675923011E8 ; 7.785306727245599E7 ; 1.2763304974657764E9 ; 0.0
3 ; 3.903313311333153E7 ; 6.460006229171648E8 ; 1.1684648268923655E8 ; 1.9177141650580776E9 ; 0.0
4 ; 3.910249161241719E7 ; 6.524710986157397E8 ; 1.5587961580256808E8 ; 2.5637147879752426E9 ; 0.0
5 ; 3.917589405570416E7 ; 6.607951037764099E8 ; 1.9498210741498527E8 ; 3.2161858865909824E9 ; 0.0
6 ; 3.926567276877486E7 ; 6.709726461480829E8 ; 2.3415800147068942E8 ; 3.8769809903673925E9 ; 0.0
7 ; 3.938668573579851E7 ; 6.830037321112231E8 ; 2.734236742394643E8 ; 4.547953636515475E9 ; 0.0
8 ; 3.9580741110639244E7 ; 6.968883666537873E8 ; 3.1281035997526276E8 ; 5.2309573686266985E9 ; 0.0
9 ; 3.986371967848626E7 ; 7.126265533522823E8 ; 3.52391101085902E8 ; 5.927845735280486E9 ; 0.0
10 ; 4.030694135472461E7 ; 7.30218294358109E8 ; 3.922548207643882E8 ; 6.640472288632769E9 ; 0.0
11 ; 4.099241591122444E7 ; 7.496635903893194E8 ; 4.325617621191128E8 ; 7.370690582990877E9 ; 0.0
12 ; 4.20989935627386E7 ; 7.709624407278614E8 ; 4.735541780303372E8 ; 8.120354173380197E9 ; 0.0
13 ; 4.316986628129846E7 ; 7.941148432223341E8 ; 5.156531715930758E8 ; 8.891316614108059E9 ; 0.0
14 ; 4.329731274794155E7 ; 8.19120794296231E8 ; 5.588230378743743E8 ; 9.685431457330393E9 ; 0.0
15 ; 4.3347951096698955E7 ; 8.459802889615949E8 ; 6.021203506223159E8 ; 1.0504552251626623E10 ; 0.0
16 ; 4.339931788333297E7 ; 8.746933208379619E8 ; 6.454683017190149E8 ; 1.1350532540588219E10 ; 0.0
17 ; 4.3450228170195475E7 ; 9.052598821764239E8 ; 6.888676196023479E8 ; 1.222522586142618E10 ; 0.0
18 ; 4.35026512219642E7 ; 9.376799638885975E8 ; 7.323178477725433E8 ; 1.3130485743602604E10 ; 0.0
19 ; 4.3560602292129144E7 ; 9.719535555802414E8 ; 7.758204989945076E8 ; 1.4068165707491201E10 ; 0.0
20 ; 4.361524614013441E7 ; 1.0080806455892385E9 ; 8.193811012866367E8 ; 1.5040119263071444E10 ; 0.0
21 ; 4.366347892151746E7 ; 1.0460612210276122E9 ; 8.629963474267712E8 ; 1.6048199908660683E10 ; 0.0
22 ; 4.371663462393843E7 ; 1.0858952678272343E9 ; 9.066598263482887E8 ; 1.7094261129688295E10 ; 0.0
23 ; 4.377243790844047E7 ; 1.1275827707888496E9 ; 9.503764609722271E8 ; 1.818015639751553E10 ; 0.0
24 ; 4.381770205402259E7 ; 1.171123713634025E9 ; 9.941488988806676E8 ; 1.930773916830438E10 ; 0.0
25 ; 4.3878376121310845E7 ; 1.2086463244487364E9 ; 1.0379666009346901E9 ; 2.0478862881938404E10 ; 0.0
26 ; 4.393276463490417E7 ; 1.2086718719613419E9 ; 1.081844977056001E9 ; 2.1687509206387142E10 ; 0.0
27 ; 4.398628589912098E7 ; 1.2086989527503214E9 ; 1.125777741690905E9 ; 2.2896181078348484E10 ; 0.0
28 ; 4.403484806295015E7 ; 1.2087275467845387E9 ; 1.1697640275900261E9 ; 2.4104880031098804E10 ; 0.0
29 ; 4.40827941947779E7 ; 1.208757633243255E9 ; 1.2137988756529763E9 ; 2.5313607577883343E10 ; 0.0
30 ; 4.413071618257006E7 ; 1.2087891905772028E9 ; 1.2578816698477542E9 ; 2.65223652111266E10 ; 0.0
31 ; 4.417752482304683E7 ; 1.2088221965698223E9 ; 1.3020123860303242E9 ; 2.77311544017038E10 ; 0.0
32 ; 4.42291076102124E7 ; 1.2088566283983102E9 ; 1.3461899108533711E9 ; 2.893997659827362E10 ; 0.0
33 ; 4.427548335068022E7 ; 1.2088924626941543E9 ; 1.3904190184635835E9 ; 3.0148833226671932E10 ; 0.0
34 ; 4.432227168609238E7 ; 1.208929675602851E9 ; 1.4346945018142636E9 ; 3.1357725689366085E10 ; 0.0
35 ; 4.4365165929479524E7 ; 1.2089682428425217E9 ; 1.479016773500356E9 ; 3.2566655364968937E10 ; 0.0
36 ; 4.440637995070149E7 ; 1.2090081397611852E9 ; 1.5233819394298356E9 ; 3.377562360781146E10 ; 0.0
37 ; 4.44495444863407E7 ; 1.2090493413924506E9 ; 1.567788319380537E9 ; 3.498463174757265E10 ; 0.0
38 ; 4.449346875491673E7 ; 1.209091822509442E9 ; 1.6122378638668778E9 ; 3.6193681088965096E10 ; 0.0
39 ; 4.452671181109763E7 ; 1.2091355576767797E9 ; 1.6567313326217945E9 ; 3.740277291147454E10 ; 0.0
40 ; 4.4562467000534296E7 ; 1.2091805213004763E9 ; 1.701258044432892E9 ; 3.861190846915132E10 ; 0.0
41 ; 4.4603413445118636E7 ; 1.2092266876756294E9 ; 1.7458205114334264E9 ; 3.98210889904518E10 ; 0.0
42 ; 4.4640900532425106E7 ; 1.2092740310318215E9 ; 1.790423924878545E9 ; 4.1030315678127426E10 ; 0.0
43 ; 4.466334413142656E7 ; 1.2093225255761538E9 ; 1.8350648254109702E9 ; 4.223958970915925E10 ; 0.0
44 ; 4.4703315826830626E7 ; 1.209372145533871E9 ; 1.8797281695423968E9 ; 4.3448912234735405E10 ; 0.0
45 ; 4.4730750716709875E7 ; 1.20942286518655E9 ; 1.9244314853692274E9 ; 4.465828438026928E10 ; 0.0
46 ; 4.4754630581158E7 ; 1.2094746589078455E9 ; 1.9691622360859373E9 ; 4.5867707245455826E10 ; 0.0
47 ; 4.477242861522512E7 ; 1.209527501196803E9 ; 2.0139168666670952E9 ; 4.707718190436367E10 ; 0.0
48 ; 4.480418411337706E7 ; 1.2095813667087626E9 ; 2.0586892952823203E9 ; 4.828670940556047E10 ; 0.0
49 ; 4.482269359582554E7 ; 1.209636230283899E9 ; 2.1034934793956974E9 ; 4.949629077226923E10 ; 0.0
50 ; 4.483693544106391E7 ; 1.2096920669734423E9 ; 2.148316172991523E9 ; 5.070592700255313E10 ; 0.0
51 ; 4.486031202572393E7 ; 1.2097488520636437E9 ; 2.1931531084325867E9 ; 5.191561906952657E10 ; 0.0
52 ; 4.487346853904958E7 ; 1.209806561097558E9 ; 2.2380134204583106E9 ; 5.312536792159022E10 ; 0.0
53 ; 4.48893976276923E7 ; 1.2098651698947206E9 ; 2.28288688899736E9 ; 5.4335174482687775E10 ; 0.0
54 ; 4.489988523661408E7 ; 1.2099246545687966E9 ; 2.3277762866250525E9 ; 5.55450396525825E10 ; 0.0
55 ; 4.491344731539002E7 ; 1.209984991543301E9 ; 2.3726761718616667E9 ; 5.675496430715129E10 ; 0.0
56 ; 4.493404132793717E7 ; 1.2100461575654683E9 ; 2.417589619177057E9 ; 5.7964949298694595E10 ; 0.0
57 ; 4.494578115256998E7 ; 1.2101081297183752E9 ; 2.462523660504994E9 ; 5.917499545626006E10 ; 0.0
58 ; 4.496751711433853E7 ; 1.2101708854314075E9 ; 2.5074694416575637E9 ; 6.038510358597844E10 ; 0.0
59 ; 4.497499153277638E7 ; 1.210234402489163E9 ; 2.552436958771902E9 ; 6.159527447140984E10 ; 0.0
60 ; 4.498829550648234E7 ; 1.2102986590388927E9 ; 2.5974119503046784E9 ; 6.280550887389901E10 ; 0.0
61 ; 4.500051024097513E7 ; 1.2103636335965652E9 ; 2.6424002458111606E9 ; 6.4015807532937904E10 ; 0.0
62 ; 4.501476346036188E7 ; 1.210429305051653E9 ; 2.6874007560521355E9 ; 6.522617116653447E10 ; 0.0
63 ; 4.502636827098698E7 ; 1.2104956526707268E9 ; 2.7324155195124974E9 ; 6.643660047158612E10 ; 0.0
64 ; 4.504085655109433E7 ; 1.2105626560999486E9 ; 2.7774418877834845E9 ; 6.764709612425685E10 ; 0.0
65 ; 4.505858264423383E7 ; 1.210630295366542E9 ; 2.822482744334579E9 ; 6.88576587803568E10 ; 0.0
66 ; 4.506289710077164E7 ; 1.2106985508793278E9 ; 2.8675413269788127E9 ; 7.006828907572334E10 ; 0.0
67 ; 4.507446970497257E7 ; 1.2107674034283984E9 ; 2.912604224079584E9 ; 7.127898762660268E10 ; 0.0
68 ; 4.508531390352079E7 ; 1.2108368341840067E9 ; 2.957678693784557E9 ; 7.248975503003108E10 ; 0.0
69 ; 4.509780370154849E7 ; 1.2109068246947415E9 ; 3.0027640076880774E9 ; 7.370059186421509E10 ; 0.0
70 ; 4.51122568031978E7 ; 1.2109773568850532E9 ; 3.047861811389626E9 ; 7.491149868890984E10 ; 0.0
71 ; 4.511885110382797E7 ; 1.2110484130521975E9 ; 3.092974068192824E9 ; 7.612247604579489E10 ; 0.0
72 ; 4.513108810763759E7 ; 1.2111199758626544E9 ; 3.138092919296652E9 ; 7.733352445884709E10 ; 0.0
73 ; 4.513789974870488E7 ; 1.2111920283480787E9 ; 3.1832240074042892E9 ; 7.854464443470975E10 ; 0.0
74 ; 4.51447457046803E7 ; 1.211264553900836E9 ; 3.228361907152994E9 ; 7.975583646305783E10 ; 0.0
75 ; 4.515503933742614E7 ; 1.211337536269173E9 ; 3.2735066528576746E9 ; 8.096710101695866E10 ; 0.0
76 ; 4.5167368765842594E7 ; 1.211410959552067E9 ; 3.318661692195101E9 ; 8.217843855322784E10 ; 0.0
77 ; 4.51691892747937E7 ; 1.211484808193799E9 ; 3.363829060960943E9 ; 8.33898495127799E10 ; 0.0
78 ; 4.516668537418293E7 ; 1.211559066978289E9 ; 3.408998250235737E9 ; 8.460133432097371E10 ; 0.0
79 ; 4.516222183056714E7 ; 1.2116337210232277E9 ; 3.4541649356099195E9 ; 8.5812893387952E10 ; 0.0
80 ; 4.514911330737818E7 ; 1.2117087557740464E9 ; 3.499327157440487E9 ; 8.702452710897522E10 ; 0.0
81 ; 4.5149640794439845E7 ; 1.2117841569977443E9 ; 3.544476270747865E9 ; 8.823623586474927E10 ; 0.0
82 ; 4.513424979878053E7 ; 1.2118599107766123E9 ; 3.589625911542305E9 ; 8.944802002174701E10 ; 0.0
83 ; 4.51293770897723E7 ; 1.211936003501873E9 ; 3.6347601613410854E9 ; 9.065987993252362E10 ; 0.0
84 ; 4.511803042382366E7 ; 1.2120124218672643E9 ; 3.6798895384308577E9 ; 9.18718159360255E10 ; 0.0
85 ; 4.511035959447822E7 ; 1.212089152862583E9 ; 3.7250075688546815E9 ; 9.308382835789276E10 ; 0.0
86 ; 4.510727423236878E7 ; 1.2121661837672176E9 ; 3.7701179284491596E9 ; 9.429591751075534E10 ; 0.0
87 ; 4.509484313733505E7 ; 1.212243502143677E9 ; 3.8152252026815286E9 ; 9.550808369452255E10 ; 0.0
88 ; 4.50865769579983E7 ; 1.2123210958311384E9 ; 3.8603200458188634E9 ; 9.672032719666623E10 ; 0.0
89 ; 4.507500527483055E7 ; 1.2123989529390268E9 ; 3.9054066227768617E9 ; 9.793264829249736E10 ; 0.0
90 ; 4.506002755291791E7 ; 1.2124770618406377E9 ; 3.950481628051692E9 ; 9.914504724543639E10 ; 0.0
91 ; 4.505048899267999E7 ; 1.2125554111668153E9 ; 3.99554165560461E9 ; 1.0035752430727702E11 ; 0.0
92 ; 4.503974701946689E7 ; 1.2126339897996993E9 ; 4.04059214459729E9 ; 1.0157007971844383E11 ; 0.0
93 ; 4.502770231735161E7 ; 1.2127127868665423E9 ; 4.085631891616757E9 ; 1.0278271370824353E11 ; 0.0
94 ; 4.502109654943999E7 ; 1.2127917917336118E9 ; 4.1306595939341087E9 ; 1.0399542649511008E11 ; 0.0
95 ; 4.500754067734797E7 ; 1.2128709940001822E9 ; 4.1756806904835486E9 ; 1.0520821828684369E11 ; 0.0
96 ; 4.499973815942169E7 ; 1.21295038349262E9 ; 4.220688231160897E9 ; 1.0642108928084387E11 ; 0.0
97 ; 4.497855980201934E7 ; 1.2130299502585714E9 ; 4.2656879693203187E9 ; 1.0763403966433649E11 ; 0.0
98 ; 4.496607739175018E7 ; 1.2131096845612512E9 ; 4.310666529122338E9 ; 1.0884706961459506E11 ; 0.0
99 ; 4.4955246138635516E7 ; 1.2131895768738427E9 ; 4.355632606514089E9 ; 1.1006017929915631E11 ; 0.0
100 ; 4.4936612544485345E7 ; 1.213269617874006E9 ; 4.400587852652724E9 ; 1.1127336887603015E11 ; 0.0
101 ; 4.492755183082215E7 ; 1.2133497984384995E9 ; 4.445524465197209E9 ; 1.1248663849390416E11 ; 0.0
102 ; 4.4910590434017465E7 ; 1.213430109637917E9 ; 4.490452017028031E9 ; 1.1369998829234265E11 ; 0.0
103 ; 4.489333596413635E7 ; 1.2135105427315397E9 ; 4.535362607462049E9 ; 1.1491341840198058E11 ; 0.0
104 ; 4.487814025789351E7 ; 1.213591089162304E9 ; 4.580255943426185E9 ; 1.1612692894471211E11 ; 0.0
105 ; 4.485765222835578E7 ; 1.2136717405518875E9 ; 4.625134083684078E9 ; 1.1734052003387442E11 ; 0.0
106 ; 4.484591589088911E7 ; 1.2137524886959121E9 ; 4.669991735912434E9 ; 1.185541917744263E11 ; 0.0
107 ; 4.483034664750856E7 ; 1.2138333255592618E9 ; 4.714837651803323E9 ; 1.1976794426312221E11 ; 0.0
108 ; 4.4821151372663416E7 ; 1.213914243271518E9 ; 4.759667998450831E9 ; 1.2098177758868147E11 ; 0.0
109 ; 4.479292536955631E7 ; 1.2139952341225104E9 ; 4.804489149823495E9 ; 1.2219569183195299E11 ; 0.0
110 ; 4.477573466282639E7 ; 1.2140762905579805E9 ; 4.849282075193051E9 ; 1.234096870660755E11 ; 0.0
111 ; 4.4761463485765144E7 ; 1.2141574051753592E9 ; 4.894057809855878E9 ; 1.2462376335663348E11 ; 0.0
112 ; 4.4747405467714004E7 ; 1.2142385707196555E9 ; 4.938819273341643E9 ; 1.2583792076180884E11 ; 0.0
113 ; 4.471872983076579E7 ; 1.2143197800794551E9 ; 4.983566678809358E9 ; 1.2705215933252849E11 ; 0.0
114 ; 4.470104438400215E7 ; 1.2144010262830267E9 ; 5.028285408640123E9 ; 1.2826647911260794E11 ; 0.0
115 ; 4.4686571065695114E7 ; 1.2144823024945364E9 ; 5.072986453024125E9 ; 1.2948088013889096E11 ; 0.0
116 ; 4.465745633084252E7 ; 1.214563602010365E9 ; 5.11767302408982E9 ; 1.306953624413855E11 ; 0.0
117 ; 4.4640135971116975E7 ; 1.2146449182555275E9 ; 5.162330480420663E9 ; 1.3190992604339586E11 ; 0.0
118 ; 4.462096762737161E7 ; 1.2147262447801962E9 ; 5.20697061639178E9 ; 1.3312457096165138E11 ; 0.0
119 ; 4.460309173107979E7 ; 1.2148075752563176E9 ; 5.251591584019152E9 ; 1.3433929720643158E11 ; 0.0
120 ; 4.458511474057914E7 ; 1.2148889034743304E9 ; 5.296194675750232E9 ; 1.355541047816879E11 ; 0.0
121 ; 4.455996151801908E7 ; 1.2149702233399744E9 ; 5.340779790490811E9 ; 1.3676899368516223E11 ; 0.0
122 ; 4.453532612965183E7 ; 1.2150515288711922E9 ; 5.38533975200883E9 ; 1.379839639085022E11 ; 0.0
123 ; 4.451777842932113E7 ; 1.2151328141951232E9 ; 5.429875078138482E9 ; 1.3919901543737338E11 ; 0.0
124 ; 4.449018842095684E7 ; 1.2152140735451808E9 ; 5.474392856567803E9 ; 1.404141482515685E11 ; 0.0
125 ; 4.446533676619319E7 ; 1.2152953012582195E9 ; 5.51888304498876E9 ; 1.4162936232511368E11 ; 0.0
126 ; 4.444136487805796E7 ; 1.2153764917717824E9 ; 5.563348381754953E9 ; 1.428446576263719E11 ; 0.0
127 ; 4.441443390062377E7 ; 1.2154576396214318E9 ; 5.607789746633011E9 ; 1.4406003411814368E11 ; 0.0
128 ; 4.43911615308832E7 ; 1.2155387394381585E9 ; 5.652204180533634E9 ; 1.452754917577651E11 ; 0.0
129 ; 4.436431809663947E7 ; 1.2156197859458666E9 ; 5.696595342064517E9 ; 1.4649103049720328E11 ; 0.0
130 ; 4.433651952717938E7 ; 1.2157007739589355E9 ; 5.740959660161157E9 ; 1.4770665028314914E11 ; 0.0
131 ; 4.4292376008640334E7 ; 1.2157816983798532E9 ; 5.785296179688336E9 ; 1.4892235105710806E11 ; 0.0
132 ; 4.42588232392715E7 ; 1.2158625541969218E9 ; 5.829588555696977E9 ; 1.501381327554879E11 ; 0.0
133 ; 4.421392817519964E7 ; 1.2159433364820294E9 ; 5.873847378936248E9 ; 1.5135399530968484E11 ; 0.0
134 ; 4.4180938294681236E7 ; 1.2160240403884919E9 ; 5.918061307111447E9 ; 1.5256993864616687E11 ; 0.0
135 ; 4.413783627965694E7 ; 1.2161046611489584E9 ; 5.962242245406129E9 ; 1.5378596268655536E11 ; 0.0
136 ; 4.410394989691812E7 ; 1.216185194073379E9 ; 6.006380081685786E9 ; 1.550020673477043E11 ; 0.0
137 ; 4.4057228988185585E7 ; 1.216265634547036E9 ; 6.050484031582705E9 ; 1.5621825254177768E11 ; 0.0
138 ; 4.401828822848636E7 ; 1.216345978028631E9 ; 6.09454126057089E9 ; 1.574345181763247E11 ; 0.0
139 ; 4.398051453617329E7 ; 1.2164262200484345E9 ; 6.1385595487993765E9 ; 1.5865086415435333E11 ; 0.0
140 ; 4.393167934944466E7 ; 1.2165063562064884E9 ; 6.182540063335549E9 ; 1.5986729037440176E11 ; 0.0
141 ; 4.388486422489831E7 ; 1.2165863821708622E9 ; 6.226471742684994E9 ; 1.6108379673060825E11 ; 0.0
142 ; 4.3847179548687175E7 ; 1.2166662936759646E9 ; 6.270356606909892E9 ; 1.623003831127791E11 ; 0.0
143 ; 4.380514889662734E7 ; 1.216746086520905E9 ; 6.314203786458579E9 ; 1.6351704940645508E11 ; 0.0
144 ; 4.376346701427698E7 ; 1.2168257565679042E9 ; 6.3580089353552065E9 ; 1.6473379549297598E11 ; 0.0
145 ; 4.372623370569727E7 ; 1.2169052997407527E9 ; 6.401772402369484E9 ; 1.6595062124954388E11 ; 0.0
146 ; 4.3712370623308E7 ; 1.2169847120233176E9 ; 6.445498636075181E9 ; 1.6716752654928464E11 ; 0.0
147 ; 4.368517950295605E7 ; 1.2170639894580936E9 ; 6.489211006698489E9 ; 1.6838451126130795E11 ; 0.0
148 ; 4.365767623804672E7 ; 1.2171431281447961E9 ; 6.532896186201446E9 ; 1.6960157525076605E11 ; 0.0
149 ; 4.3629582597936496E7 ; 1.2172221242390013E9 ; 6.576553862439492E9 ; 1.7081871837891086E11 ; 0.0
150 ; 4.358862339152804E7 ; 1.2173009739508214E9 ; 6.620183445037429E9 ; 1.7203594050314987E11 ; 0.0
151 ; 4.357495186244261E7 ; 1.2173796735436249E9 ; 6.663772068428957E9 ; 1.732532414771007E11 ; 0.0
152 ; 4.354435129291023E7 ; 1.2174582193327932E9 ; 6.7073470202914E9 ; 1.7447062115064435E11 ; 0.0
153 ; 4.351507809379968E7 ; 1.217536607684515E9 ; 6.750891371584311E9 ; 1.7568807936997714E11 ; 0.0
154 ; 4.34869483877722E7 ; 1.2176148350146158E9 ; 6.79440644967811E9 ; 1.7690561597766165E11 ; 0.0
155 ; 4.346115276492697E7 ; 1.217692897787426E9 ; 6.837893398065883E9 ; 1.7812323081267627E11 ; 0.0
156 ; 4.3432675520804405E7 ; 1.217770792514679E9 ; 6.88135455083081E9 ; 1.7934092371046368E11 ; 0.0
157 ; 4.336092138405795E7 ; 1.2178485157544436E9 ; 6.924787226351614E9 ; 1.8055869450297836E11 ; 0.0
158 ; 4.327875777595766E7 ; 1.2179260641100912E9 ; 6.968148147735672E9 ; 1.8177654301873282E11 ; 0.0
159 ; 4.3186753297747836E7 ; 1.2180034342292905E9 ; 7.01142690551163E9 ; 1.829944690828429E11 ; 0.0
160 ; 4.310161677936595E7 ; 1.218080622803032E9 ; 7.054613658809378E9 ; 1.8421247251707217E11 ; 0.0
161 ; 4.30173844252268E7 ; 1.2181576265646858E9 ; 7.097715275588743E9 ; 1.854305531398752E11 ; 0.0
162 ; 4.292543266912261E7 ; 1.218234442289082E9 ; 7.14073266001397E9 ; 1.866487107664399E11 ; 0.0
163 ; 4.28388515936979E7 ; 1.218311066791623E9 ; 7.183658092683093E9 ; 1.87866945208729E11 ; 0.0
164 ; 4.275010716596067E7 ; 1.2183874969274201E9 ; 7.226496944276791E9 ; 1.8908525627552063E11 ; 0.0
165 ; 4.265869793542367E7 ; 1.2184637295904546E9 ; 7.269247051442751E9 ; 1.9030364377244806E11 ; 0.0
166 ; 4.257591591991063E7 ; 1.218539761712767E9 ; 7.311905749378175E9 ; 1.915221075020385E11 ; 0.0
167 ; 4.24864897472633E7 ; 1.2186155902636676E9 ; 7.354481665298085E9 ; 1.9274064726375128E11 ; 0.0
168 ; 4.2395830611566834E7 ; 1.218691212248971E9 ; 7.396968155045348E9 ; 1.9395926285401495E11 ; 0.0
169 ; 4.230879344498424E7 ; 1.2187666247102532E9 ; 7.439363985656915E9 ; 1.9517795406626392E11 ; 0.0
170 ; 4.222418406485289E7 ; 1.218841824724132E9 ; 7.481672779101899E9 ; 1.9639672069097418E11 ; 0.0
171 ; 4.213664712437196E7 ; 1.2189168094015656E9 ; 7.523896963166752E9 ; 1.976155625156983E11 ; 0.0
172 ; 4.204419621684667E7 ; 1.2189915758871744E9 ; 7.566033610291123E9 ; 1.9883447932509985E11 ; 0.0
173 ; 4.194731301593542E7 ; 1.2190661213585815E9 ; 7.60807780650797E9 ; 2.0005347090098703E11 ; 0.0
174 ; 4.188192918565845E7 ; 1.2191404430257733E9 ; 7.650025119523905E9 ; 2.012725370223456E11 ; 0.0
175 ; 4.180435707443296E7 ; 1.2192145381304774E9 ; 7.691907048709563E9 ; 2.024916774653714E11 ; 0.0
176 ; 4.1725364064408034E7 ; 1.2192884039455607E9 ; 7.733711405783997E9 ; 2.0371089200350186E11 ; 0.0
177 ; 4.165730551327178E7 ; 1.2193620377744412E9 ; 7.775436769848405E9 ; 2.0493018040744742E11 ; 0.0
178 ; 4.157607192957891E7 ; 1.2194E9 ; 7.817094075361676E9 ; 2.0614954244522186E11 ; 0.0
179 ; 4.1495539900848135E7 ; 1.2194E9 ; 7.858670147291255E9 ; 2.0736894244522186E11 ; 0.0
180 ; 4.141560566276764E7 ; 1.2194E9 ; 7.900165687192103E9 ; 2.0858834244522186E11 ; 0.0
181 ; 4.134224374491889E7 ; 1.2194E9 ; 7.941581292854871E9 ; 2.0980774244522186E11 ; 0.0
182 ; 4.127140207519659E7 ; 1.2194E9 ; 7.98292353659979E9 ; 2.1102714244522186E11 ; 0.0
183 ; 4.118665777556762E7 ; 1.2194E9 ; 8.024194938674986E9 ; 2.1224654244522186E11 ; 0.0
184 ; 4.1113849622984976E7 ; 1.2194E9 ; 8.065381596450554E9 ; 2.1346594244522186E11 ; 0.0
185 ; 4.1033309836186856E7 ; 1.2194E9 ; 8.106495446073539E9 ; 2.1468534244522186E11 ; 0.0
186 ; 4.095798062276174E7 ; 1.2194E9 ; 8.147528755909725E9 ; 2.1590474244522186E11 ; 0.0
187 ; 4.0879818817061156E7 ; 1.2194E9 ; 8.188486736532487E9 ; 2.1712414244522186E11 ; 0.0
188 ; 4.0801572075138666E7 ; 1.2194E9 ; 8.229366555349548E9 ; 2.1834354244522186E11 ; 0.0
189 ; 4.0731677750468954E7 ; 1.2194E9 ; 8.270168127424687E9 ; 2.1956294244522186E11 ; 0.0
190 ; 4.065742781369935E7 ; 1.2194E9 ; 8.310899805175157E9 ; 2.2078234244522186E11 ; 0.0
191 ; 4.057741070179826E7 ; 1.2194E9 ; 8.351557232988856E9 ; 2.2200174244522186E11 ; 0.0
192 ; 4.050305803008679E7 ; 1.2194E9 ; 8.392134643690655E9 ; 2.2322114244522186E11 ; 0.0
193 ; 4.04180650789891E7 ; 1.2194E9 ; 8.432637701720741E9 ; 2.2444054244522186E11 ; 0.0
194 ; 4.033752686566094E7 ; 1.2194E9 ; 8.47305576679973E9 ; 2.2565994244522186E11 ; 0.0
195 ; 4.026647502379386E7 ; 1.2194E9 ; 8.513393293665391E9 ; 2.2687934244522186E11 ; 0.0
196 ; 4.018943550715375E7 ; 1.2194E9 ; 8.553659768689185E9 ; 2.2809874244522186E11 ; 0.0
197 ; 4.0114829833752856E7 ; 1.2194E9 ; 8.593849204196339E9 ; 2.2931814244522186E11 ; 0.0
198 ; 4.003563570392736E7 ; 1.2023174201157422E9 ; 8.633964034030092E9 ; 2.3053754244522186E11 ; 0.0
199 ; 3.9951419071453184E7 ; 1.1285572362329378E9 ; 8.67399966973402E9 ; 2.3173985986533762E11 ; 0.0
