CSV File for the Network on Day 11
1 - Minute m 
2 - Power Consumed at minute m 
3 - Power Produced at minute m 
4 - Energy Consumed since the beginning of the day 
5 - Energy Produced since the beginning of the day 
6 - Energy Lost since the beginning of the day 
 
0 ; 4.99555714111819E7 ; 1.0516072819786595E8 ; 0.0 ; 0.0 ; 0.0
1 ; 5.002167553089161E7 ; 1.0531504918552025E8 ; 4.99555714111819E7 ; 1.0516072819786595E8 ; 613.6199999999999
2 ; 5.007319452556399E7 ; 1.057780121484832E8 ; 9.997724694207351E7 ; 2.104757773833862E8 ; 1227.2399999999998
3 ; 5.013617747290778E7 ; 1.0654961708675481E8 ; 1.500504414676375E8 ; 3.162537895318694E8 ; 1840.8599999999997
4 ; 5.021179667871523E7 ; 1.0762986400033505E8 ; 2.001866189405453E8 ; 4.228034066186242E8 ; 2454.4799999999996
5 ; 5.029447594361617E7 ; 1.0901875288922395E8 ; 2.5039841561926052E8 ; 5.3043327061895925E8 ; 3068.0999999999995
6 ; 5.04146770025021E7 ; 1.1071628375342146E8 ; 3.006928915628767E8 ; 6.394520235081832E8 ; 3681.7199999999993
7 ; 5.058246382260989E7 ; 1.1272245659292763E8 ; 3.511075685653788E8 ; 7.501683072616047E8 ; 4295.339999999999
8 ; 5.081901585623367E7 ; 1.1503727140774244E8 ; 4.016900323879887E8 ; 8.628907638545322E8 ; 4908.959999999999
9 ; 5.119137363598509E7 ; 1.176607281978659E8 ; 4.5250904824422234E8 ; 9.779280352622747E8 ; 5522.579999999999
10 ; 5.175364817404871E7 ; 1.2059282696329802E8 ; 5.037004218802074E8 ; 1.0955887634601407E9 ; 6136.199999999999
11 ; 5.26542626110206E7 ; 1.2383356770403877E8 ; 5.554540700542561E8 ; 1.2161815904234388E9 ; 6749.819999999999
12 ; 5.408531981655895E7 ; 1.2738295042008814E8 ; 6.081083326652766E8 ; 1.3400151581274776E9 ; 7363.439999999999
13 ; 5.545787588051639E7 ; 1.3124097511144614E8 ; 6.621936524818356E8 ; 1.4673981085475657E9 ; 7977.059999999999
14 ; 5.56260701980499E7 ; 1.3540764177811283E8 ; 7.17651528362352E8 ; 1.5986390836590118E9 ; 8590.679999999998
15 ; 5.5691752954639725E7 ; 1.398829504200881E8 ; 7.732775985604019E8 ; 1.7340467254371247E9 ; 9204.3
16 ; 5.574268575685283E7 ; 1.4466690103737208E8 ; 8.289693515150416E8 ; 1.8739296758572128E9 ; 9817.919999999998
17 ; 5.580910669882703E7 ; 1.497594936299647E8 ; 8.847120372718945E8 ; 2.018596576894585E9 ; 10431.539999999997
18 ; 5.588871032312029E7 ; 1.5516072819786593E8 ; 9.405211439707215E8 ; 2.1683560705245495E9 ; 11045.159999999996
19 ; 5.594394923466181E7 ; 1.608706047410758E8 ; 9.964098542938417E8 ; 2.3235167987224154E9 ; 11658.779999999995
20 ; 5.601044766358229E7 ; 1.6688912325959432E8 ; 1.0523538035285035E9 ; 2.4843874034634914E9 ; 12272.399999999994
21 ; 5.607779260609873E7 ; 1.732162837534215E8 ; 1.1083642511920857E9 ; 2.651276526723086E9 ; 12886.019999999993
22 ; 5.614510468354665E7 ; 1.7985208622255728E8 ; 1.1644420437981844E9 ; 2.824492810476507E9 ; 13499.639999999992
23 ; 5.6211649280031234E7 ; 1.8679653066700175E8 ; 1.220587148481731E9 ; 3.0043448966990643E9 ; 14113.259999999991
24 ; 5.627701944038044E7 ; 1.9404961708675483E8 ; 1.2767987977617621E9 ; 3.191141427366066E9 ; 14726.87999999999
25 ; 5.633607410690113E7 ; 2.0029938638000003E8 ; 1.3330758172021425E9 ; 3.385191044452821E9 ; 15340.499999999989
26 ; 5.640542247002436E7 ; 2.0029938638000003E8 ; 1.3894118913090436E9 ; 3.585490430832821E9 ; 15954.119999999988
27 ; 5.6467356562999524E7 ; 2.0029938638000003E8 ; 1.445817313779068E9 ; 3.785789817212821E9 ; 16567.739999999987
28 ; 5.652722907614088E7 ; 2.0029938638000003E8 ; 1.5022846703420675E9 ; 3.986089203592821E9 ; 17181.359999999986
29 ; 5.65915709955295E7 ; 2.0029938638000003E8 ; 1.5588118994182084E9 ; 4.186388589972821E9 ; 17794.979999999985
30 ; 5.665186429376706E7 ; 2.0029938638000003E8 ; 1.6154034704137378E9 ; 4.386687976352821E9 ; 18408.599999999984
31 ; 5.670350753368434E7 ; 2.0029938638000003E8 ; 1.6720553347075047E9 ; 4.586987362732821E9 ; 19022.219999999983
32 ; 5.6773041320647776E7 ; 2.0029938638000003E8 ; 1.728758842241189E9 ; 4.787286749112822E9 ; 19635.839999999982
33 ; 5.682348517943795E7 ; 2.0029938638000003E8 ; 1.7855318835618367E9 ; 4.987586135492822E9 ; 20249.45999999998
34 ; 5.6878399403936274E7 ; 2.0029938638000003E8 ; 1.8423553687412746E9 ; 5.187885521872822E9 ; 20863.07999999998
35 ; 5.693672842305853E7 ; 2.0029938638000003E8 ; 1.899233768145211E9 ; 5.388184908252822E9 ; 21476.69999999998
36 ; 5.698424327457847E7 ; 2.0029938638000003E8 ; 1.9561704965682695E9 ; 5.588484294632822E9 ; 22090.319999999978
37 ; 5.703215249002847E7 ; 2.0029938638000003E8 ; 2.013154739842848E9 ; 5.788783681012822E9 ; 22703.939999999977
38 ; 5.708639605578958E7 ; 2.0029938638000003E8 ; 2.0701868923328764E9 ; 5.989083067392822E9 ; 23317.559999999976
39 ; 5.712544119590692E7 ; 2.0029938638000003E8 ; 2.127273288388666E9 ; 6.189382453772822E9 ; 23931.179999999975
40 ; 5.7170632079778686E7 ; 2.0029938638000003E8 ; 2.184398729584573E9 ; 6.3896818401528225E9 ; 24544.799999999974
41 ; 5.7213675204215586E7 ; 2.0029938638000003E8 ; 2.2415693616643515E9 ; 6.589981226532823E9 ; 25158.419999999973
42 ; 5.725147457418028E7 ; 2.0029938638000003E8 ; 2.298783036868567E9 ; 6.790280612912823E9 ; 25772.03999999997
43 ; 5.728715264149947E7 ; 2.0029938638000003E8 ; 2.356034511442747E9 ; 6.990579999292823E9 ; 26385.65999999997
44 ; 5.732988374177697E7 ; 2.0029938638000003E8 ; 2.4133216640842466E9 ; 7.190879385672823E9 ; 26999.27999999997
45 ; 5.734505206422694E7 ; 2.0029938638000003E8 ; 2.4706515478260236E9 ; 7.391178772052823E9 ; 27612.89999999997
46 ; 5.737950737107609E7 ; 2.0029938638000003E8 ; 2.5279965998902507E9 ; 7.591478158432823E9 ; 28226.519999999968
47 ; 5.74075422628106E7 ; 2.0029938638000003E8 ; 2.585376107261327E9 ; 7.791777544812823E9 ; 28840.139999999967
48 ; 5.742316990703263E7 ; 2.0029938638000003E8 ; 2.6427836495241375E9 ; 7.992076931192823E9 ; 29453.759999999966
49 ; 5.745156363631097E7 ; 2.0029938638000003E8 ; 2.70020681943117E9 ; 8.192376317572824E9 ; 30067.379999999965
50 ; 5.747082914826023E7 ; 2.0029938638000003E8 ; 2.757658383067481E9 ; 8.392675703952824E9 ; 30680.999999999964
51 ; 5.748816594111748E7 ; 2.0029938638000003E8 ; 2.815129212215741E9 ; 8.592975090332823E9 ; 31294.619999999963
52 ; 5.749797379506609E7 ; 2.0029938638000003E8 ; 2.8726173781568584E9 ; 8.793274476712822E9 ; 31908.23999999996
53 ; 5.751614974766454E7 ; 2.0029938638000003E8 ; 2.9301153519519243E9 ; 8.993573863092821E9 ; 32521.85999999996
54 ; 5.753566451479389E7 ; 2.0029938638000003E8 ; 2.987631501699589E9 ; 9.19387324947282E9 ; 33135.47999999996
55 ; 5.754697473125994E7 ; 2.0029938638000003E8 ; 3.0451671662143826E9 ; 9.39417263585282E9 ; 33749.09999999996
56 ; 5.756255664690119E7 ; 2.0029938638000003E8 ; 3.1027141409456425E9 ; 9.594472022232819E9 ; 34362.719999999965
57 ; 5.757543976633825E7 ; 2.0029938638000003E8 ; 3.1602766975925436E9 ; 9.794771408612818E9 ; 34976.33999999997
58 ; 5.758178170229199E7 ; 2.0029938638000003E8 ; 3.217852137358882E9 ; 9.995070794992817E9 ; 35589.95999999997
59 ; 5.760062903705127E7 ; 2.0029938638000003E8 ; 3.275433919061174E9 ; 1.0195370181372816E10 ; 36203.57999999997
60 ; 5.7613363758463256E7 ; 2.0029938638000003E8 ; 3.333034548098225E9 ; 1.0395669567752815E10 ; 36817.199999999975
61 ; 5.762221924534729E7 ; 2.0029938638000003E8 ; 3.3906479118566885E9 ; 1.0595968954132814E10 ; 37430.81999999998
62 ; 5.762911890317296E7 ; 2.0029938638000003E8 ; 3.448270131102036E9 ; 1.0796268340512814E10 ; 38044.43999999998
63 ; 5.763855318416306E7 ; 2.0029938638000003E8 ; 3.505899250005209E9 ; 1.0996567726892813E10 ; 38658.05999999998
64 ; 5.765143963964613E7 ; 2.0029938638000003E8 ; 3.563537803189372E9 ; 1.1196867113272812E10 ; 39271.679999999986
65 ; 5.76558707333935E7 ; 2.0029938638000003E8 ; 3.621189242829018E9 ; 1.1397166499652811E10 ; 39885.29999999999
66 ; 5.7662518375915304E7 ; 2.0029938638000003E8 ; 3.678845113562412E9 ; 1.159746588603281E10 ; 40498.91999999999
67 ; 5.76679768117488E7 ; 2.0029938638000003E8 ; 3.7365076319383273E9 ; 1.179776527241281E10 ; 41112.53999999999
68 ; 5.767636196095104E7 ; 2.0029938638000003E8 ; 3.7941756087500763E9 ; 1.1998064658792809E10 ; 41726.159999999996
69 ; 5.7690526123092875E7 ; 2.0029938638000003E8 ; 3.851851970711027E9 ; 1.2198364045172808E10 ; 42339.78
70 ; 5.768706620617153E7 ; 2.0029938638000003E8 ; 3.90954249683412E9 ; 1.2398663431552807E10 ; 42953.4
71 ; 5.770195569819721E7 ; 2.0029938638000003E8 ; 3.9672295630402913E9 ; 1.2598962817932806E10 ; 43567.020000000004
72 ; 5.770034945753388E7 ; 2.0029938638000003E8 ; 4.0249315187384887E9 ; 1.2799262204312805E10 ; 44180.64000000001
73 ; 5.77027584608388E7 ; 2.0029938638000003E8 ; 4.0826318681960225E9 ; 1.2999561590692804E10 ; 44794.26000000001
74 ; 5.771069204872213E7 ; 2.0029938638000003E8 ; 4.1403346266568613E9 ; 1.3199860977072803E10 ; 45407.88000000001
75 ; 5.7709936721027836E7 ; 2.0029938638000003E8 ; 4.1980453187055836E9 ; 1.3400160363452803E10 ; 46021.500000000015
76 ; 5.771681576127754E7 ; 2.0029938638000003E8 ; 4.2557552554266114E9 ; 1.3600459749832802E10 ; 46635.12000000002
77 ; 5.7715098423358075E7 ; 2.0029938638000003E8 ; 4.313472071187889E9 ; 1.3800759136212801E10 ; 47248.74000000002
78 ; 5.7706011707133286E7 ; 2.0029938638000003E8 ; 4.371187169611247E9 ; 1.40010585225928E10 ; 47862.36000000002
79 ; 5.7686169134822875E7 ; 2.0029938638000003E8 ; 4.42889318131838E9 ; 1.42013579089728E10 ; 48475.980000000025
80 ; 5.766661044189965E7 ; 2.0029938638000003E8 ; 4.486579350453203E9 ; 1.4401657295352798E10 ; 49089.60000000003
81 ; 5.765005541081321E7 ; 2.0029938638000003E8 ; 4.5442459608951025E9 ; 1.4601956681732798E10 ; 49703.22000000003
82 ; 5.763175953672093E7 ; 2.0029938638000003E8 ; 4.601896016305916E9 ; 1.4802256068112797E10 ; 50316.84000000003
83 ; 5.762175027402663E7 ; 2.0029938638000003E8 ; 4.659527775842637E9 ; 1.5002555454492796E10 ; 50930.460000000036
84 ; 5.759360523050257E7 ; 2.0029938638000003E8 ; 4.717149526116664E9 ; 1.5202854840872795E10 ; 51544.08000000004
85 ; 5.7577014803535245E7 ; 2.0029938638000003E8 ; 4.774743131347166E9 ; 1.5403154227252794E10 ; 52157.70000000004
86 ; 5.756207902093714E7 ; 2.0029938638000003E8 ; 4.8323201461507015E9 ; 1.5603453613632793E10 ; 52771.32000000004
87 ; 5.754135307638955E7 ; 2.0029938638000003E8 ; 4.8898822251716385E9 ; 1.5803753000012793E10 ; 53384.940000000046
88 ; 5.751434119482166E7 ; 2.0029938638000003E8 ; 4.947423578248028E9 ; 1.6004052386392792E10 ; 53998.56000000005
89 ; 5.750097146520139E7 ; 2.0029938638000003E8 ; 5.004937919442849E9 ; 1.620435177277279E10 ; 54612.18000000005
90 ; 5.747021865577586E7 ; 2.0029938638000003E8 ; 5.062438890908051E9 ; 1.640465115915279E10 ; 55225.800000000054
91 ; 5.745165703545375E7 ; 2.0029938638000003E8 ; 5.119909109563827E9 ; 1.660495054553279E10 ; 55839.42000000006
92 ; 5.742316459889452E7 ; 2.0029938638000003E8 ; 5.17736076659928E9 ; 1.6805249931912788E10 ; 56453.04000000006
93 ; 5.7404096664409265E7 ; 2.0029938638000003E8 ; 5.234783931198174E9 ; 1.7005549318292788E10 ; 57066.66000000006
94 ; 5.737629483038017E7 ; 2.0029938638000003E8 ; 5.292188027862584E9 ; 1.7205848704672787E10 ; 57680.280000000064
95 ; 5.7352197204891905E7 ; 2.0029938638000003E8 ; 5.349564322692965E9 ; 1.7406148091052788E10 ; 58293.90000000007
96 ; 5.732799631162324E7 ; 2.0029938638000003E8 ; 5.406916519897857E9 ; 1.760644747743279E10 ; 58907.52000000007
97 ; 5.730016657608577E7 ; 2.0029938638000003E8 ; 5.46424451620948E9 ; 1.780674686381279E10 ; 59521.14000000007
98 ; 5.727680294384059E7 ; 2.0029938638000003E8 ; 5.521544682785566E9 ; 1.800704625019279E10 ; 60134.760000000075
99 ; 5.724927638447781E7 ; 2.0029938638000003E8 ; 5.578821485729407E9 ; 1.8207345636572792E10 ; 60748.38000000008
100 ; 5.722833572917716E7 ; 2.0029938638000003E8 ; 5.636070762113885E9 ; 1.8407645022952793E10 ; 61362.00000000008
101 ; 5.720146641542871E7 ; 2.0029938638000003E8 ; 5.693299097843062E9 ; 1.8607944409332794E10 ; 61975.62000000008
102 ; 5.716027245615617E7 ; 2.0029938638000003E8 ; 5.7505005642584915E9 ; 1.8808243795712795E10 ; 62589.240000000085
103 ; 5.71366485533998E7 ; 2.0029938638000003E8 ; 5.807660836714647E9 ; 1.9008543182092796E10 ; 63202.86000000009
104 ; 5.7103897244424775E7 ; 2.0029938638000003E8 ; 5.864797485268047E9 ; 1.9208842568472797E10 ; 63816.48000000009
105 ; 5.707958034858506E7 ; 2.0029938638000003E8 ; 5.921901382512472E9 ; 1.94091419548528E10 ; 64430.10000000009
106 ; 5.704064176179015E7 ; 2.0029938638000003E8 ; 5.978980962861057E9 ; 1.96094413412328E10 ; 65043.720000000096
107 ; 5.701652694243211E7 ; 2.0029938638000003E8 ; 6.036021604622848E9 ; 1.98097407276128E10 ; 65657.3400000001
108 ; 5.69744855307227E7 ; 2.0029938638000003E8 ; 6.09303813156528E9 ; 2.00100401139928E10 ; 66270.9600000001
109 ; 5.695201919870038E7 ; 2.0029938638000003E8 ; 6.150012617096003E9 ; 2.0210339500372803E10 ; 66884.58000000009
110 ; 5.691580988499366E7 ; 2.0029938638000003E8 ; 6.206964636294703E9 ; 2.0410638886752804E10 ; 67498.20000000008
111 ; 5.687799344613461E7 ; 2.0029938638000003E8 ; 6.263880446179696E9 ; 2.0610938273132805E10 ; 68111.82000000008
112 ; 5.6848233458604164E7 ; 2.0029938638000003E8 ; 6.320758439625831E9 ; 2.0811237659512806E10 ; 68725.44000000008
113 ; 5.681022573194061E7 ; 2.0029938638000003E8 ; 6.3776066730844345E9 ; 2.1011537045892807E10 ; 69339.06000000007
114 ; 5.6770906513822965E7 ; 2.0029938638000003E8 ; 6.434416898816375E9 ; 2.1211836432272808E10 ; 69952.68000000007
115 ; 5.673953541262052E7 ; 2.0029938638000003E8 ; 6.491187805330197E9 ; 2.141213581865281E10 ; 70566.30000000006
116 ; 5.6703370262395754E7 ; 2.0029938638000003E8 ; 6.547927340742818E9 ; 2.161243520503281E10 ; 71179.92000000006
117 ; 5.666465460005873E7 ; 2.0029938638000003E8 ; 6.604630711005214E9 ; 2.181273459141281E10 ; 71793.54000000005
118 ; 5.662573549440516E7 ; 2.0029938638000003E8 ; 6.661295365605272E9 ; 2.2013033977792812E10 ; 72407.16000000005
119 ; 5.659401306501397E7 ; 2.0029938638000003E8 ; 6.717921101099677E9 ; 2.2213333364172813E10 ; 73020.78000000004
120 ; 5.6550762030535236E7 ; 2.0029938638000003E8 ; 6.774515114164691E9 ; 2.2413632750552814E10 ; 73634.40000000004
121 ; 5.6513203550997436E7 ; 2.0029938638000003E8 ; 6.831065876195227E9 ; 2.2613932136932816E10 ; 74248.02000000003
122 ; 5.646040975726374E7 ; 2.0029938638000003E8 ; 6.887579079746224E9 ; 2.2814231523312817E10 ; 74861.64000000003
123 ; 5.642644277095175E7 ; 2.0029938638000003E8 ; 6.944039489503489E9 ; 2.3014530909692818E10 ; 75475.26000000002
124 ; 5.638452801947743E7 ; 2.0029938638000003E8 ; 7.000465932274441E9 ; 2.321483029607282E10 ; 76088.88000000002
125 ; 5.635485087083391E7 ; 2.0029938638000003E8 ; 7.056850460293919E9 ; 2.341512968245282E10 ; 76702.50000000001
126 ; 5.6297199579657346E7 ; 2.0029938638000003E8 ; 7.113205311164753E9 ; 2.361542906883282E10 ; 77316.12000000001
127 ; 5.626346592164705E7 ; 2.0029938638000003E8 ; 7.1695025107444105E9 ; 2.3815728455212822E10 ; 77929.74
128 ; 5.621675744892422E7 ; 2.0029938638000003E8 ; 7.225765976666058E9 ; 2.4016027841592823E10 ; 78543.36
129 ; 5.617522449290313E7 ; 2.0029938638000003E8 ; 7.281982734114982E9 ; 2.4216327227972824E10 ; 79156.98
130 ; 5.6117204609780915E7 ; 2.0029938638000003E8 ; 7.338157958607884E9 ; 2.4416626614352825E10 ; 79770.59999999999
131 ; 5.605372144264401E7 ; 2.0029938638000003E8 ; 7.394275163217666E9 ; 2.4616926000732826E10 ; 80384.21999999999
132 ; 5.599593093031417E7 ; 2.0029938638000003E8 ; 7.45032888466031E9 ; 2.4817225387112827E10 ; 80997.83999999998
133 ; 5.5934152126082584E7 ; 2.0029938638000003E8 ; 7.506324815590624E9 ; 2.501752477349283E10 ; 81611.45999999998
134 ; 5.5871376455894515E7 ; 2.0029938638000003E8 ; 7.562258967716706E9 ; 2.521782415987283E10 ; 82225.07999999997
135 ; 5.5807449010200016E7 ; 2.0029938638000003E8 ; 7.618130344172601E9 ; 2.541812354625283E10 ; 82838.69999999997
136 ; 5.5736760424618095E7 ; 2.0029938638000003E8 ; 7.6739377931828E9 ; 2.561842293263283E10 ; 83452.31999999996
137 ; 5.567709011613786E7 ; 2.0029938638000003E8 ; 7.729674553607418E9 ; 2.5818722319012833E10 ; 84065.93999999996
138 ; 5.5611432612613395E7 ; 2.0029938638000003E8 ; 7.785351643723556E9 ; 2.6019021705392834E10 ; 84679.55999999995
139 ; 5.5543119191075355E7 ; 2.0029938638000003E8 ; 7.840963076336169E9 ; 2.6219321091772835E10 ; 85293.17999999995
140 ; 5.5474110659155E7 ; 2.0029938638000003E8 ; 7.896506195527245E9 ; 2.6419620478152836E10 ; 85906.79999999994
141 ; 5.5413982882931314E7 ; 2.0029938638000003E8 ; 7.951980306186399E9 ; 2.6619919864532837E10 ; 86520.41999999994
142 ; 5.534770064948568E7 ; 2.0029938638000003E8 ; 8.007394289069331E9 ; 2.6820219250912838E10 ; 87134.03999999994
143 ; 5.526997405326131E7 ; 2.0029938638000003E8 ; 8.062741989718817E9 ; 2.702051863729284E10 ; 87747.65999999993
144 ; 5.520022504684605E7 ; 2.0029938638000003E8 ; 8.1180119637720785E9 ; 2.722081802367284E10 ; 88361.27999999993
145 ; 5.5159530256822824E7 ; 2.0029938638000003E8 ; 8.173212188818925E9 ; 2.742111741005284E10 ; 88974.89999999992
146 ; 5.510950998252641E7 ; 2.0029938638000003E8 ; 8.2283717190757475E9 ; 2.7621416796432842E10 ; 89588.51999999992
147 ; 5.505728147159985E7 ; 2.0029938638000003E8 ; 8.283481229058274E9 ; 2.7821716182812843E10 ; 90202.13999999991
148 ; 5.502105591302362E7 ; 2.0029938638000003E8 ; 8.338538510529874E9 ; 2.8022015569192844E10 ; 90815.75999999991
149 ; 5.496957925771875E7 ; 2.0029938638000003E8 ; 8.393559566442898E9 ; 2.8222314955572845E10 ; 91429.3799999999
150 ; 5.4920523238123894E7 ; 2.0029938638000003E8 ; 8.448529145700617E9 ; 2.8422614341952847E10 ; 92042.9999999999
151 ; 5.487115579471484E7 ; 2.0029938638000003E8 ; 8.503449668938741E9 ; 2.8622913728332848E10 ; 92656.6199999999
152 ; 5.48203169560885E7 ; 2.0029938638000003E8 ; 8.558320824733456E9 ; 2.882321311471285E10 ; 93270.23999999989
153 ; 5.4772880379099354E7 ; 2.0029938638000003E8 ; 8.613141141689545E9 ; 2.902351250109285E10 ; 93883.85999999988
154 ; 5.473080281287568E7 ; 2.0029938638000003E8 ; 8.667914022068644E9 ; 2.922381188747285E10 ; 94497.47999999988
155 ; 5.467530385044408E7 ; 2.0029938638000003E8 ; 8.72264482488152E9 ; 2.942411127385285E10 ; 95111.09999999987
156 ; 5.462571224712521E7 ; 2.0029938638000003E8 ; 8.777320128731964E9 ; 2.9624410660232853E10 ; 95724.71999999987
157 ; 5.4579394871562585E7 ; 2.0029938638000003E8 ; 8.83194584097909E9 ; 2.9824710046612854E10 ; 96338.33999999987
158 ; 5.4519650062541366E7 ; 2.0029938638000003E8 ; 8.886525235850653E9 ; 3.0025009432992855E10 ; 96951.95999999986
159 ; 5.447885157300343E7 ; 2.0029938638000003E8 ; 8.941044885913195E9 ; 3.0225308819372856E10 ; 97565.57999999986
160 ; 5.443068187461788E7 ; 2.0029938638000003E8 ; 8.995523737486198E9 ; 3.0425608205752857E10 ; 98179.19999999985
161 ; 5.43731963425833E7 ; 2.0029938638000003E8 ; 9.049954419360817E9 ; 3.062590759213286E10 ; 98792.81999999985
162 ; 5.4327830725311995E7 ; 2.0029938638000003E8 ; 9.1043276157034E9 ; 3.082620697851286E10 ; 99406.43999999984
163 ; 5.4274254085798465E7 ; 2.0029938638000003E8 ; 9.15865544642871E9 ; 3.102650636489286E10 ; 100020.05999999984
164 ; 5.421815841374422E7 ; 2.0029938638000003E8 ; 9.21292970051451E9 ; 3.122680575127286E10 ; 100633.67999999983
165 ; 5.416398817850974E7 ; 2.0029938638000003E8 ; 9.267147858928253E9 ; 3.1427105137652863E10 ; 101247.29999999983
166 ; 5.412537534134537E7 ; 2.0029938638000003E8 ; 9.321311847106764E9 ; 3.1627404524032864E10 ; 101860.91999999982
167 ; 5.4063750621353246E7 ; 2.0029938638000003E8 ; 9.375437222448109E9 ; 3.1827703910412865E10 ; 102474.53999999982
168 ; 5.4008811029026E7 ; 2.0029938638000003E8 ; 9.429500973069462E9 ; 3.2028003296792866E10 ; 103088.15999999981
169 ; 5.39550647209764E7 ; 2.0029938638000003E8 ; 9.483509784098488E9 ; 3.2228302683172867E10 ; 103701.77999999981
170 ; 5.3914390290994816E7 ; 2.0029938638000003E8 ; 9.537464848819464E9 ; 3.2428602069552868E10 ; 104315.3999999998
171 ; 5.384888055815944E7 ; 2.0029938638000003E8 ; 9.591379239110458E9 ; 3.262890145593287E10 ; 104929.0199999998
172 ; 5.3809370819632046E7 ; 2.0029938638000003E8 ; 9.645228119668617E9 ; 3.282920084231287E10 ; 105542.6399999998
