CSV File for the Network on Day 84
1 - Minute m 
2 - Power Consumed at minute m 
3 - Power Produced at minute m 
4 - Energy Consumed since the beginning of the day 
5 - Energy Produced since the beginning of the day 
6 - Energy Lost since the beginning of the day 
 
0 ; 3.8591904734341554E7 ; 6.349239870655483E8 ; 0.0 ; 0.0 ; 0.0
1 ; 3.862687539577679E7 ; 6.358347279860381E8 ; 3.8591904734341554E7 ; 6.349239870655483E8 ; 0.0
2 ; 3.8670572821522385E7 ; 6.385988662875305E8 ; 7.721878013011834E7 ; 1.2707587150515864E9 ; 0.0
3 ; 3.872078165534864E7 ; 6.432164191670479E8 ; 1.1588935295164073E8 ; 1.909357581339117E9 ; 0.0
4 ; 3.8775401305445835E7 ; 6.496874020487661E8 ; 1.5461013460698938E8 ; 2.552574000506165E9 ; 0.0
5 ; 3.884910715223986E7 ; 6.580118284943215E8 ; 1.9338553591243523E8 ; 3.202261402554931E9 ; 0.0
6 ; 3.893758782829751E7 ; 6.681897101223564E8 ; 2.322346430646751E8 ; 3.8602732310492525E9 ; 0.0
7 ; 3.906870786290655E7 ; 6.802210565384073E8 ; 2.711722308929726E8 ; 4.528462941171609E9 ; 0.0
8 ; 3.925148107476555E7 ; 6.94105875276104E8 ; 3.1024093875587916E8 ; 5.208683997710016E9 ; 0.0
9 ; 3.953435405918746E7 ; 7.098441717505276E8 ; 3.494924198306447E8 ; 5.90278987298612E9 ; 0.0
10 ; 3.9973883226268634E7 ; 7.274359492243948E8 ; 3.890267738898322E8 ; 6.612634044736648E9 ; 0.0
11 ; 4.0660570311521575E7 ; 7.468812087875649E8 ; 4.2900065711610085E8 ; 7.340069993961042E9 ; 0.0
12 ; 4.176621429629008E7 ; 7.681799493501782E8 ; 4.6966122742762244E8 ; 8.086951202748608E9 ; 0.0
13 ; 4.282801966164123E7 ; 7.913321676495183E8 ; 5.1142744172391254E8 ; 8.855131152098785E9 ; 0.0
14 ; 4.295223659158717E7 ; 8.163378582705047E8 ; 5.542554613855537E8 ; 9.646463319748304E9 ; 0.0
15 ; 4.3001560573826715E7 ; 8.431970136795065E8 ; 5.972076979771409E8 ; 1.0462801178018808E10 ; 0.0
16 ; 4.304893386454791E7 ; 8.719096242709886E8 ; 6.402092585509676E8 ; 1.1305998191698315E10 ; 0.0
17 ; 4.310291781567537E7 ; 9.024756784263072E8 ; 6.832581924155154E8 ; 1.2177907815969303E10 ; 0.0
18 ; 4.315235586311436E7 ; 9.348951625838269E8 ; 7.263611102311908E8 ; 1.308038349439561E10 ; 0.0
19 ; 4.320299584517924E7 ; 9.691680613193715E8 ; 7.695134660943052E8 ; 1.4015278656979437E10 ; 0.0
20 ; 4.325881084714802E7 ; 1.0052943574359185E9 ; 8.127164619394844E8 ; 1.498444671829881E10 ; 0.0
21 ; 4.3308083675168104E7 ; 1.0432740320613499E9 ; 8.559752727866324E8 ; 1.5989741075734728E10 ; 0.0
22 ; 4.335642748101222E7 ; 1.0831070647530055E9 ; 8.992833564618006E8 ; 1.7033015107796078E10 ; 0.0
23 ; 4.341040079731316E7 ; 1.124793433607758E9 ; 9.426397839428128E8 ; 1.8116122172549084E10 ; 0.0
24 ; 4.3458651989456505E7 ; 1.168333115376305E9 ; 9.86050184740126E8 ; 1.924091560615684E10 ; 0.0
25 ; 4.351806827793423E7 ; 1.2058543309695046E9 ; 1.0295088367295825E9 ; 2.0409248721533146E10 ; 0.0
26 ; 4.355867176558402E7 ; 1.2058783417986784E9 ; 1.0730269050075167E9 ; 2.161510305250265E10 ; 0.0
27 ; 4.360860855066796E7 ; 1.2059037370444677E9 ; 1.1165855767731009E9 ; 2.282098139430133E10 ; 0.0
28 ; 4.366099562114745E7 ; 1.2059304892563052E9 ; 1.1601941853237689E9 ; 2.40268851313458E10 ; 0.0
29 ; 4.370589214811492E7 ; 1.2059585702290976E9 ; 1.2038551809449162E9 ; 2.5232815620602104E10 ; 0.0
30 ; 4.375127744154584E7 ; 1.2059879511178906E9 ; 1.2475610730930312E9 ; 2.6438774190831203E10 ; 0.0
31 ; 4.3799357858452596E7 ; 1.2060186025491729E9 ; 1.291312350534577E9 ; 2.7644762141949093E10 ; 0.0
32 ; 4.384155281524593E7 ; 1.2060504947281098E9 ; 1.3351117083930295E9 ; 2.8850780744498264E10 ; 0.0
33 ; 4.3891579980233535E7 ; 1.2060835975411139E9 ; 1.3789532612082753E9 ; 3.0056831239226376E10 ; 0.0
34 ; 4.3932484810415745E7 ; 1.2061178806532695E9 ; 1.4228448411885087E9 ; 3.126291483676749E10 ; 0.0
35 ; 4.3979373133968756E7 ; 1.2061533136002297E9 ; 1.4667773259989245E9 ; 3.246903271742076E10 ; 0.0
36 ; 4.401226429355192E7 ; 1.2061898658743138E9 ; 1.5107566991328933E9 ; 3.3675186031020992E10 ; 0.0
37 ; 4.4056975580223896E7 ; 1.2062275070046186E9 ; 1.5547689634264452E9 ; 3.488137589689531E10 ; 0.0
38 ; 4.408480664611679E7 ; 1.2062662066310506E9 ; 1.598825939006669E9 ; 3.6087603403899925E10 ; 0.0
39 ; 4.4132479439816594E7 ; 1.2063059345722547E9 ; 1.6429107456527858E9 ; 3.7293869610530975E10 ; 0.0
40 ; 4.416514630674803E7 ; 1.2063466608874984E9 ; 1.6870432250926023E9 ; 3.850017554510323E10 ; 0.0
41 ; 4.419777228276527E7 ; 1.20638835593261E9 ; 1.7312083713993502E9 ; 3.970652220599073E10 ; 0.0
42 ; 4.422693395621227E7 ; 1.2064309904101403E9 ; 1.7754061436821156E9 ; 4.091291056192334E10 ; 0.0
43 ; 4.425441702904441E7 ; 1.2064745354139411E9 ; 1.8196330776383278E9 ; 4.211934155233348E10 ; 0.0
44 ; 4.428124229132624E7 ; 1.2065189624684043E9 ; 1.8638874946673722E9 ; 4.332581608774742E10 ; 0.0
45 ; 4.4309099261759296E7 ; 1.2065642435626154E9 ; 1.9081687369586985E9 ; 4.453233505021583E10 ; 0.0
46 ; 4.433039595754799E7 ; 1.2066103511797056E9 ; 1.9524778362204578E9 ; 4.573889929377844E10 ; 0.0
47 ; 4.435069920122344E7 ; 1.2066572583216987E9 ; 1.9968082321780057E9 ; 4.6945509644958145E10 ; 0.0
48 ; 4.437366234015537E7 ; 1.2067049385301461E9 ; 2.041158931379229E9 ; 4.815216690327985E10 ; 0.0
49 ; 4.4390624580281965E7 ; 1.2067533659028637E9 ; 2.0855325937193844E9 ; 4.935887184180999E10 ; 0.0
50 ; 4.440112135359791E7 ; 1.2068025151070607E9 ; 2.1299232182996664E9 ; 5.056562520771285E10 ; 0.0
51 ; 4.4415857276983425E7 ; 1.2068523613891702E9 ; 2.1743243396532645E9 ; 5.1772427722819916E10 ; 0.0
52 ; 4.443501262655506E7 ; 1.2069028805816612E9 ; 2.218740196930248E9 ; 5.297928008420908E10 ; 0.0
53 ; 4.4445680133936346E7 ; 1.2069540491071138E9 ; 2.2631752095568027E9 ; 5.418618296479074E10 ; 0.0
54 ; 4.445197674232109E7 ; 1.2070058439798305E9 ; 2.307620889690739E9 ; 5.539313701389786E10 ; 0.0
55 ; 4.446710045642054E7 ; 1.2070582428052273E9 ; 2.35207286643306E9 ; 5.6600142857877686E10 ; 0.0
56 ; 4.4476298745883904E7 ; 1.2071112237772558E9 ; 2.3965399668894806E9 ; 5.7807201100682915E10 ; 0.0
57 ; 4.449363213106777E7 ; 1.2071647656740751E9 ; 2.4410162656353645E9 ; 5.901431232446017E10 ; 0.0
58 ; 4.4500958885144204E7 ; 1.2072188478521867E9 ; 2.4855098977664323E9 ; 6.022147709013424E10 ; 0.0
59 ; 4.4513150219258524E7 ; 1.207273450239226E9 ; 2.5300108566515765E9 ; 6.142869593798643E10 ; 0.0
60 ; 4.453101071174243E7 ; 1.2073285533255978E9 ; 2.574524006870835E9 ; 6.2635969388225655E10 ; 0.0
61 ; 4.453571072583607E7 ; 1.2073841381551113E9 ; 2.619055017582577E9 ; 6.3843297941551254E10 ; 0.0
62 ; 4.4542816245860174E7 ; 1.207440186314781E9 ; 2.6635907283084135E9 ; 6.505068207970637E10 ; 0.0
63 ; 4.455026663409507E7 ; 1.207496679923919E9 ; 2.7081335445542736E9 ; 6.625812226602115E10 ; 0.0
64 ; 4.4566806992054045E7 ; 1.2075536016226573E9 ; 2.752683811188369E9 ; 6.746561894594507E10 ; 0.0
65 ; 4.4571002260179386E7 ; 1.2076109345600052E9 ; 2.797250618180423E9 ; 6.8673172547567726E10 ; 0.0
66 ; 4.45817149505869E7 ; 1.20766866238155E9 ; 2.8418216204406023E9 ; 6.988078348212773E10 ; 0.0
67 ; 4.458997070000266E7 ; 1.2077267692168932E9 ; 2.886403335391189E9 ; 7.108845214450928E10 ; 0.0
68 ; 4.460086526932037E7 ; 1.2077852396669004E9 ; 2.930993306091192E9 ; 7.229617891372617E10 ; 0.0
69 ; 4.460197338266981E7 ; 1.2078440587908442E9 ; 2.9755941713605123E9 ; 7.350396415339307E10 ; 0.0
70 ; 4.460905494196899E7 ; 1.2079032120935016E9 ; 3.020196144743182E9 ; 7.471180821218391E10 ; 0.0
71 ; 4.46205101842407E7 ; 1.207962685512261E9 ; 3.064805199685151E9 ; 7.591971142427742E10 ; 0.0
72 ; 4.4623557377295524E7 ; 1.2080224654042928E9 ; 3.109425709869392E9 ; 7.712767410978969E10 ; 0.0
73 ; 4.46323054168422E7 ; 1.2080825385338254E9 ; 3.1540492672466874E9 ; 7.833569657519398E10 ; 0.0
74 ; 4.463297690654749E7 ; 1.208142892059563E9 ; 3.1986815726635294E9 ; 7.954377911372781E10 ; 0.0
75 ; 4.4641998554989174E7 ; 1.2082035135222769E9 ; 3.243314549570077E9 ; 8.075192200578738E10 ; 0.0
76 ; 4.4642403818822995E7 ; 1.208264390832601E9 ; 3.2879565481250663E9 ; 8.196012551930966E10 ; 0.0
77 ; 4.464349555510838E7 ; 1.20832551225905E9 ; 3.332598951943889E9 ; 8.316838991014226E10 ; 0.0
78 ; 4.462953913614492E7 ; 1.208386866416281E9 ; 3.3772424474989977E9 ; 8.43767154224013E10 ; 0.0
79 ; 4.462671104137713E7 ; 1.2084484422536163E9 ; 3.421871986635143E9 ; 8.558510228881758E10 ; 0.0
80 ; 4.460973755826404E7 ; 1.2085102290438335E9 ; 3.46649869767652E9 ; 8.67935507310712E10 ; 0.0
81 ; 4.459285967151079E7 ; 1.2085722163722405E9 ; 3.511108435234784E9 ; 8.800206096011504E10 ; 0.0
82 ; 4.4591720565129474E7 ; 1.2086343941260347E9 ; 3.555701294906295E9 ; 8.921063317648727E10 ; 0.0
83 ; 4.457806801780449E7 ; 1.2086967524839578E9 ; 3.600293015471424E9 ; 9.041926757061331E10 ; 0.0
84 ; 4.456260614798141E7 ; 1.208759281906242E9 ; 3.6448710834892287E9 ; 9.162796432309727E10 ; 0.0
85 ; 4.45557562444555E7 ; 1.208821973124858E9 ; 3.6894336896372104E9 ; 9.283672360500351E10 ; 0.0
86 ; 4.45366353740671E7 ; 1.2088848171340554E9 ; 3.7339894458816657E9 ; 9.404554557812837E10 ; 0.0
87 ; 4.452926363626678E7 ; 1.2089478051812003E9 ; 3.778526081255733E9 ; 9.525443039526242E10 ; 0.0
88 ; 4.451724867744739E7 ; 1.2090109287579052E9 ; 3.8230553448919997E9 ; 9.646337820044362E10 ; 0.0
89 ; 4.4502393130898535E7 ; 1.2090741795914483E9 ; 3.867572593569447E9 ; 9.767238912920152E10 ; 0.0
90 ; 4.449018376433726E7 ; 1.2091375496364765E9 ; 3.9120749867003455E9 ; 9.888146330879297E10 ; 0.0
91 ; 4.446865491407689E7 ; 1.20920103106699E9 ; 3.9565651704646826E9 ; 1.0009060085842944E11 ; 0.0
92 ; 4.446173052305418E7 ; 1.2092646162686021E9 ; 4.0010338253787594E9 ; 1.0129980188949643E11 ; 0.0
93 ; 4.444335576164049E7 ; 1.2093282978310652E9 ; 4.0454955559018135E9 ; 1.0250906650576503E11 ; 0.0
94 ; 4.442285277093417E7 ; 1.209392068541061E9 ; 4.089938911663454E9 ; 1.037183948035961E11 ; 0.0
95 ; 4.441838133683636E7 ; 1.2094559213752487E9 ; 4.134361764434388E9 ; 1.0492778687213716E11 ; 0.0
96 ; 4.439337143033475E7 ; 1.2095198494935577E9 ; 4.1787801457712245E9 ; 1.061372427935124E11 ; 0.0
97 ; 4.437709569830495E7 ; 1.209583846232728E9 ; 4.223173517201559E9 ; 1.0734676264300597E11 ; 0.0
98 ; 4.4354226324801885E7 ; 1.2096479051000824E9 ; 4.267550612899864E9 ; 1.085563464892387E11 ; 0.0
99 ; 4.4340834450684845E7 ; 1.2097120197675288E9 ; 4.311904839224666E9 ; 1.0976599439433878E11 ; 0.0
100 ; 4.432995607774496E7 ; 1.2097761840657833E9 ; 4.35624567367535E9 ; 1.1097570641410631E11 ; 0.0
101 ; 4.430594344486909E7 ; 1.2098403919788084E9 ; 4.400575629753096E9 ; 1.1218548259817209E11 ; 0.0
102 ; 4.428737916571591E7 ; 1.2099046376384583E9 ; 4.444881573197965E9 ; 1.133953229901509E11 ; 0.0
103 ; 4.4265211890075415E7 ; 1.2099689153193235E9 ; 4.489168952363681E9 ; 1.1460522762778935E11 ; 0.0
104 ; 4.424187894688895E7 ; 1.2100332194337714E9 ; 4.5334341642537565E9 ; 1.1581519654310867E11 ; 0.0
105 ; 4.42262879092419E7 ; 1.2100975445271716E9 ; 4.577676043200645E9 ; 1.1702522976254245E11 ; 0.0
106 ; 4.421033310058979E7 ; 1.210161885273304E9 ; 4.621902331109887E9 ; 1.1823532730706963E11 ; 0.0
107 ; 4.418460768274583E7 ; 1.2102262364699378E9 ; 4.666112664210477E9 ; 1.1944548919234293E11 ; 0.0
108 ; 4.416068035172483E7 ; 1.2102905930345814E9 ; 4.710297271893223E9 ; 1.2065571542881287E11 ; 0.0
109 ; 4.4135758693010226E7 ; 1.2103549500003924E9 ; 4.754457952244947E9 ; 1.2186600602184744E11 ; 0.0
110 ; 4.411500633381036E7 ; 1.210419302512242E9 ; 4.798593710937958E9 ; 1.2307636097184784E11 ; 0.0
111 ; 4.409105149136091E7 ; 1.210483645822933E9 ; 4.842708717271769E9 ; 1.2428678027436008E11 ; 0.0
112 ; 4.406676199843639E7 ; 1.210547975289556E9 ; 4.886799768763129E9 ; 1.2549726392018301E11 ; 0.0
113 ; 4.404559673515993E7 ; 1.2106122863699923E9 ; 4.930866530761565E9 ; 1.2670781189547256E11 ; 0.0
114 ; 4.402603589762433E7 ; 1.2106765746195416E9 ; 4.974912127496725E9 ; 1.2791842418184256E11 ; 0.0
115 ; 4.399578882184168E7 ; 1.210740835687686E9 ; 5.018938163394349E9 ; 1.291291007564621E11 ; 0.0
116 ; 4.397063502360722E7 ; 1.2108050653149712E9 ; 5.06293395221619E9 ; 1.3033984159214978E11 ; 0.0
117 ; 4.395360874349803E7 ; 1.21086925933001E9 ; 5.106904587239798E9 ; 1.3155064665746475E11 ; 0.0
118 ; 4.392606357227108E7 ; 1.2109334136465983E9 ; 5.150858195983295E9 ; 1.3276151591679477E11 ; 0.0
119 ; 4.38980161747552E7 ; 1.2109975242609415E9 ; 5.194784259555567E9 ; 1.3397244933044136E11 ; 0.0
120 ; 4.386950510681874E7 ; 1.2110615872489862E9 ; 5.238682275730322E9 ; 1.351834468547023E11 ; 0.0
121 ; 4.384221431622341E7 ; 1.211125598763852E9 ; 5.282551780837141E9 ; 1.363945084419513E11 ; 0.0
122 ; 4.3816123107054085E7 ; 1.2111895550333602E9 ; 5.326393995153364E9 ; 1.3760563404071515E11 ; 0.0
123 ; 4.37898956134898E7 ; 1.211253452357659E9 ; 5.370210118260418E9 ; 1.388168235957485E11 ; 0.0
124 ; 4.37663129526145E7 ; 1.2113172871069355E9 ; 5.414000013873908E9 ; 1.4002807704810617E11 ; 0.0
125 ; 4.373722369207337E7 ; 1.2113810557192135E9 ; 5.457766326826523E9 ; 1.412393943352131E11 ; 0.0
126 ; 4.371149404110391E7 ; 1.2114447546982355E9 ; 5.501503550518597E9 ; 1.424507753909323E11 ; 0.0
127 ; 4.367425028926071E7 ; 1.2115083806114247E9 ; 5.545215044559701E9 ; 1.4366222014563055E11 ; 0.0
128 ; 4.3645134208154514E7 ; 1.2115719300879219E9 ; 5.588889294848962E9 ; 1.4487372852624197E11 ; 0.0
129 ; 4.3623701660405345E7 ; 1.2116353998166957E9 ; 5.6325344290571165E9 ; 1.460853004563299E11 ; 0.0
130 ; 4.3577120545493916E7 ; 1.2116987865447233E9 ; 5.676158130717522E9 ; 1.4729693585614658E11 ; 0.0
131 ; 4.353206080308288E7 ; 1.2117620870752409E9 ; 5.719735251263016E9 ; 1.4850863464269128E11 ; 0.0
132 ; 4.3485982572077215E7 ; 1.2118252982660556E9 ; 5.763267312066098E9 ; 1.497203967297665E11 ; 0.0
133 ; 4.344915032447883E7 ; 1.211888417027922E9 ; 5.806753294638175E9 ; 1.5093222202803256E11 ; 0.0
134 ; 4.3399532883994766E7 ; 1.211951440322978E9 ; 5.850202444962654E9 ; 1.521441104450605E11 ; 0.0
135 ; 4.335551304780023E7 ; 1.2120143651632388E9 ; 5.893601977846649E9 ; 1.5335606188538345E11 ; 0.0
136 ; 4.33097203056172E7 ; 1.212077188609145E9 ; 5.936957490894449E9 ; 1.545680762505467E11 ; 0.0
137 ; 4.326387369789666E7 ; 1.2121399077681646E9 ; 5.980267211200067E9 ; 1.5578015343915582E11 ; 0.0
138 ; 4.321619834580038E7 ; 1.2122025197934473E9 ; 6.023531084897964E9 ; 1.5699229334692398E11 ; 0.0
139 ; 4.317183349260479E7 ; 1.2122650218825228E9 ; 6.066747283243764E9 ; 1.5820449586671744E11 ; 0.0
140 ; 4.313207189483801E7 ; 1.2123274112760544E9 ; 6.109919116736369E9 ; 1.5941676088859998E11 ; 0.0
141 ; 4.307573497499463E7 ; 1.21238968525663E9 ; 6.153051188631207E9 ; 1.6062908829987604E11 ; 0.0
142 ; 4.303608479853481E7 ; 1.2124518411476014E9 ; 6.196126923606202E9 ; 1.6184147798513266E11 ; 0.0
143 ; 4.2981702765757374E7 ; 1.212513876311963E9 ; 6.2391630084047365E9 ; 1.6305392982628027E11 ; 0.0
144 ; 4.29318311928417E7 ; 1.2125757881512728E9 ; 6.282144711170494E9 ; 1.6426644370259222E11 ; 0.0
145 ; 4.289721400242838E7 ; 1.2126375741046095E9 ; 6.325076542363336E9 ; 1.654790194907435E11 ; 0.0
146 ; 4.2868287379695244E7 ; 1.2126992316475692E9 ; 6.367973756365764E9 ; 1.666916570648481E11 ; 0.0
147 ; 4.283991096826624E7 ; 1.2127607582912958E9 ; 6.410842043745459E9 ; 1.679043562964957E11 ; 0.0
148 ; 4.280392475568091E7 ; 1.2128221515815468E9 ; 6.453681954713725E9 ; 1.69117117054787E11 ; 0.0
149 ; 4.277406902188459E7 ; 1.2128834090977921E9 ; 6.496485879469406E9 ; 1.7032993920636853E11 ; 0.0
150 ; 4.273553858967067E7 ; 1.2129445284523447E9 ; 6.539259948491291E9 ; 1.715428226154663E11 ; 0.0
151 ; 4.2707436187674694E7 ; 1.2130055072895205E9 ; 6.581995487080962E9 ; 1.7275576714391864E11 ; 0.0
152 ; 4.2670348438036576E7 ; 1.2130663432848299E9 ; 6.624702923268637E9 ; 1.7396877265120816E11 ; 0.0
153 ; 4.263645718351675E7 ; 1.2131270341441948E9 ; 6.667373271706674E9 ; 1.7518183899449298E11 ; 0.0
154 ; 4.260698289676069E7 ; 1.213187577603196E9 ; 6.71000972889019E9 ; 1.7639496602863718E11 ; 0.0
155 ; 4.257442624896412E7 ; 1.2132479714263434E9 ; 6.752616711786951E9 ; 1.776081536062404E11 ; 0.0
156 ; 4.25334899614642E7 ; 1.2133082134063747E9 ; 6.795191138035915E9 ; 1.7882140157766672E11 ; 0.0
157 ; 4.2503825984292895E7 ; 1.2133683013635752E9 ; 6.837724627997379E9 ; 1.800347097910731E11 ; 0.0
158 ; 4.246212683293191E7 ; 1.2134282331451235E9 ; 6.880228453981672E9 ; 1.8124807809243668E11 ; 0.0
159 ; 4.2431884061728954E7 ; 1.213488006624458E9 ; 6.922690580814604E9 ; 1.824615063255818E11 ; 0.0
160 ; 4.240048569615203E7 ; 1.213547619700666E9 ; 6.965122464876333E9 ; 1.8367499433220624E11 ; 0.0
161 ; 4.236067456124058E7 ; 1.2136070702978926E9 ; 7.007522950572485E9 ; 1.848885419519069E11 ; 0.0
162 ; 4.232772661653434E7 ; 1.2136663563647707E9 ; 7.049883625133725E9 ; 1.8610214902220477E11 ; 0.0
163 ; 4.229269027276048E7 ; 1.2137254758738701E9 ; 7.092211351750259E9 ; 1.8731581537856955E11 ; 0.0
164 ; 4.2261020039898545E7 ; 1.2137844268211646E9 ; 7.13450404202302E9 ; 1.8852954085444342E11 ; 0.0
165 ; 4.222433675070459E7 ; 1.2138432072255175E9 ; 7.176765062062919E9 ; 1.897433252812646E11 ; 0.0
166 ; 4.218830609582785E7 ; 1.2139018151281843E9 ; 7.218989398813623E9 ; 1.909571684884901E11 ; 0.0
167 ; 4.215296840266605E7 ; 1.2139602485923321E9 ; 7.2611777049094515E9 ; 1.921710703036183E11 ; 0.0
168 ; 4.211747085335546E7 ; 1.214018505702575E9 ; 7.303330673312118E9 ; 1.9338503055221063E11 ; 0.0
169 ; 4.208109115270729E7 ; 1.2140765845645247E9 ; 7.345448144165473E9 ; 1.945990490579132E11 ; 0.0
170 ; 4.2039370552870475E7 ; 1.214134483304356E9 ; 7.38752923531818E9 ; 1.9581312564247772E11 ; 0.0
171 ; 4.201165400427723E7 ; 1.2141922000683882E9 ; 7.429568605871051E9 ; 1.9702726012578207E11 ; 0.0
172 ; 4.196935958832194E7 ; 1.214249733022677E9 ; 7.471580259875328E9 ; 1.9824145232585046E11 ; 0.0
173 ; 4.193410787767578E7 ; 1.2143070803526232E9 ; 7.51354961946365E9 ; 1.9945570205887314E11 ; 0.0
174 ; 4.191583848490733E7 ; 1.2143642402625928E9 ; 7.555483727341326E9 ; 2.0067000913922577E11 ; 0.0
175 ; 4.189621223147068E7 ; 1.214421210975549E9 ; 7.597399565826233E9 ; 2.0188437337948837E11 ; 0.0
176 ; 4.186647301466222E7 ; 1.2144779907326975E9 ; 7.639295778057704E9 ; 2.0309879459046393E11 ; 0.0
177 ; 4.1848339007626496E7 ; 1.2145345777931418E9 ; 7.681162251072366E9 ; 2.0431327258119662E11 ; 0.0
178 ; 4.182819718028698E7 ; 1.2145909704335515E9 ; 7.723010590079992E9 ; 2.0552780715898978E11 ; 0.0
179 ; 4.179919716536173E7 ; 1.2146471669478397E9 ; 7.76483878726028E9 ; 2.0674239812942334E11 ; 0.0
180 ; 4.178122856908573E7 ; 1.2147031656468518E9 ; 7.806637984425641E9 ; 2.079570452963712E11 ; 0.0
181 ; 4.1752645169853345E7 ; 1.2147589648580635E9 ; 7.848419212994727E9 ; 2.0917174846201804E11 ; 0.0
182 ; 4.173457199424024E7 ; 1.21481456292529E9 ; 7.89017185816458E9 ; 2.103865074268761E11 ; 0.0
183 ; 4.171115484787005E7 ; 1.2148699582084026E9 ; 7.93190643015882E9 ; 2.116013219898014E11 ; 0.0
184 ; 4.168445926980059E7 ; 1.2149251490830562E9 ; 7.97361758500669E9 ; 2.128161919480098E11 ; 0.0
185 ; 4.167639825850722E7 ; 1.2149801339404235E9 ; 8.01530204427649E9 ; 2.1403111709709286E11 ; 0.0
186 ; 4.164437226244083E7 ; 1.2150349111869397E9 ; 8.056978442534997E9 ; 2.152460972310333E11 ; 0.0
187 ; 4.1628142404750586E7 ; 1.2150894792440538E9 ; 8.098622814797438E9 ; 2.1646113214222025E11 ; 0.0
188 ; 4.159759995861871E7 ; 1.215143836547989E9 ; 8.1402509572021885E9 ; 2.176762216214643E11 ; 0.0
189 ; 4.15767755597721E7 ; 1.2151979815495086E9 ; 8.181848557160808E9 ; 2.1889136545801227E11 ; 0.0
190 ; 4.155844680435294E7 ; 1.2152519127136934E9 ; 8.22342533272058E9 ; 2.2010656343956177E11 ; 0.0
191 ; 4.153578569151394E7 ; 1.21530562851972E9 ; 8.264983779524933E9 ; 2.2132181535227545E11 ; 0.0
192 ; 4.1510453995137535E7 ; 1.2153591274606519E9 ; 8.306519565216447E9 ; 2.2253712098079517E11 ; 0.0
193 ; 4.149158103631915E7 ; 1.2154124080432343E9 ; 8.348030019211584E9 ; 2.2375248010825583E11 ; 0.0
194 ; 4.1470243744934246E7 ; 1.2154654687876952E9 ; 8.389521600247903E9 ; 2.2496789251629907E11 ; 0.0
195 ; 4.144614841011678E7 ; 1.215518308227553E9 ; 8.430991843992837E9 ; 2.2618335798508676E11 ; 0.0
196 ; 4.1420531205970384E7 ; 1.2155709249094312E9 ; 8.472437992402954E9 ; 2.273988762933143E11 ; 0.0
