CSV File for the Network on Day 234
1 - Minute m 
2 - Power Consumed at minute m 
3 - Power Produced at minute m 
4 - Energy Consumed since the beginning of the day 
5 - Energy Produced since the beginning of the day 
6 - Energy Lost since the beginning of the day 
 
0 ; 4074252.6263778284 ; 6.31813098207493E8 ; 0.0 ; 0.0 ; 0.0
1 ; 4120498.370335736 ; 6.326951906820548E8 ; 4074252.6263778284 ; 6.31813098207493E8 ; 0.0
2 ; 4168206.6317588645 ; 6.35431598997787E8 ; 8194750.996713564 ; 1.2645082888895478E9 ; 0.0
3 ; 4209282.630030602 ; 6.400227506103129E8 ; 1.2362957628472429E7 ; 1.8999398878873348E9 ; 0.0
4 ; 4272681.021838995 ; 6.464691352124815E8 ; 1.6572240258503031E7 ; 2.539962638497648E9 ; 0.0
5 ; 4347408.696661574 ; 6.547712993353392E8 ; 2.0844921280342028E7 ; 3.1864317737101293E9 ; 0.0
6 ; 4443188.787148235 ; 6.64929830191508E8 ; 2.51923299770036E7 ; 3.8412030730454683E9 ; 0.0
7 ; 4568378.5954254875 ; 6.769453250823724E8 ; 2.9635518764151834E7 ; 4.506132903236977E9 ; 0.0
8 ; 4760774.714611197 ; 6.908183449779701E8 ; 3.420389735957732E7 ; 5.183078228319349E9 ; 0.0
9 ; 5049705.455610774 ; 7.06549355922997E8 ; 3.8964672074188516E7 ; 5.873896573297319E9 ; 0.0
10 ; 5484868.906509674 ; 7.241386687724771E8 ; 4.401437752979929E7 ; 6.580445929220316E9 ; 0.0
11 ; 6188761.604951281 ; 7.435863929600343E8 ; 4.9499246436308965E7 ; 7.304584597992793E9 ; 0.0
12 ; 7290851.462260829 ; 7.648924190520444E8 ; 5.568800804126024E7 ; 8.048170990952827E9 ; 0.0
13 ; 8362173.876163745 ; 7.880564361934836E8 ; 6.297885950352107E7 ; 8.813063410004871E9 ; 0.0
14 ; 8489010.254305009 ; 8.130779783396564E8 ; 7.134103337968482E7 ; 9.601119846198355E9 ; 0.0
15 ; 8546223.251210257 ; 8.399564845205243E8 ; 7.983004363398983E7 ; 1.0414197824538012E10 ; 0.0
16 ; 8600135.82275324 ; 8.686913574347037E8 ; 8.837626688520008E7 ; 1.1254154309058537E10 ; 0.0
17 ; 8651836.218707472 ; 8.992820098695722E8 ; 9.697640270795332E7 ; 1.212284566649324E10 ; 0.0
18 ; 8703401.633225905 ; 9.317278952940834E8 ; 1.0562823892666079E8 ; 1.3022127676362812E10 ; 0.0
19 ; 8765149.286702773 ; 9.660285240153881E8 ; 1.143316405598867E8 ; 1.3953855571656895E10 ; 0.0
20 ; 8823600.462450458 ; 1.0021834685778631E9 ; 1.2309678984658946E8 ; 1.4919884095672283E10 ; 0.0
21 ; 8875853.523015898 ; 1.0401923623103905E9 ; 1.3192039030903992E8 ; 1.5922067564250147E10 ; 0.0
22 ; 8927601.243741946 ; 1.0800548941619391E9 ; 1.407962438320558E8 ; 1.6962259926560537E10 ; 0.0
23 ; 8985850.54889353 ; 1.1217708019737601E9 ; 1.4972384507579777E8 ; 1.8042314820722477E10 ; 0.0
24 ; 9045234.107355358 ; 1.1653398654870691E9 ; 1.587096956246913E8 ; 1.9164085622696236E10 ; 0.0
25 ; 9098644.15285359 ; 1.2028901451686597E9 ; 1.6775492973204666E8 ; 2.0329425488183304E10 ; 0.0
26 ; 9153237.386077939 ; 1.2029427726067085E9 ; 1.7685357388490024E8 ; 2.1532315633351963E10 ; 0.0
27 ; 9206862.619108632 ; 1.2029962326596618E9 ; 1.8600681127097818E8 ; 2.273525840595867E10 ; 0.0
28 ; 9261603.917638691 ; 1.2030504147321632E9 ; 1.9521367389008683E8 ; 2.3938254638618332E10 ; 0.0
29 ; 9323147.419419734 ; 1.203105225043606E9 ; 2.0447527780772552E8 ; 2.5141305053350494E10 ; 0.0
30 ; 9369377.90025736 ; 1.2031605837515178E9 ; 2.1379842522714525E8 ; 2.63444102783941E10 ; 0.0
31 ; 9426226.2951935 ; 1.2032164225906348E9 ; 2.231678031274026E8 ; 2.754757086214562E10 ; 0.0
32 ; 9479560.549821507 ; 1.2032726829383032E9 ; 2.325940294225961E8 ; 2.875078728473625E10 ; 0.0
33 ; 9523992.419675583 ; 1.2033293142290626E9 ; 2.420735899724176E8 ; 2.9954059967674557E10 ; 0.0
34 ; 9574453.392627683 ; 1.2033862726537077E9 ; 2.5159758239209318E8 ; 3.1157389281903618E10 ; 0.0
35 ; 9624473.861604135 ; 1.2034435200895183E9 ; 2.6117203578472087E8 ; 3.2360775554557327E10 ; 0.0
36 ; 9673842.054834057 ; 1.2035010232181869E9 ; 2.70796509646325E8 ; 3.3564219074646847E10 ; 0.0
37 ; 9715495.165261459 ; 1.2035587527962565E9 ; 2.8047035170115906E8 ; 3.4767720097865036E10 ; 0.0
38 ; 9766934.47833119 ; 1.2036166830496595E9 ; 2.901858468664205E8 ; 3.597127885066129E10 ; 0.0
39 ; 9800640.689619977 ; 1.203674791169466E9 ; 2.999527813447517E8 ; 3.717489553371095E10 ; 0.0
40 ; 9845768.498736067 ; 1.2037330568904068E9 ; 3.097534220343717E8 ; 3.837857032488042E10 ; 0.0
41 ; 9886735.131743371 ; 1.2037914621372776E9 ; 3.1959919053310776E8 ; 3.958230338177082E10 ; 0.0
42 ; 9925904.339491 ; 1.2038499907272158E9 ; 3.294859256648511E8 ; 4.07860948439081E10 ; 0.0
43 ; 9961485.15769043 ; 1.2039086281181028E9 ; 3.3941183000434214E8 ; 4.1989944834635315E10 ; 0.0
44 ; 9998310.763614228 ; 1.2039673611951854E9 ; 3.4937331516203254E8 ; 4.319385346275342E10 ; 0.0
45 ; 1.0023817548004072E7 ; 1.2040261780894752E9 ; 3.593716259256468E8 ; 4.43978208239486E10 ; 0.0
46 ; 1.0065043105845083E7 ; 1.2040850680226622E9 ; 3.693954434736509E8 ; 4.560184700203808E10 ; 0.0
47 ; 1.0093061063696755E7 ; 1.2041440211742277E9 ; 3.7946048657949597E8 ; 4.680593207006074E10 ; 0.0
48 ; 1.0117094220692176E7 ; 1.2042030285672078E9 ; 3.895535476431927E8 ; 4.801007609123496E10 ; 0.0
49 ; 1.0142075182139615E7 ; 1.2042620819696798E9 ; 3.9967064186388487E8 ; 4.921427911980217E10 ; 0.0
50 ; 1.0168494298537666E7 ; 1.2043211738095448E9 ; 4.098127170460245E8 ; 5.041854120177185E10 ; 0.0
51 ; 1.0184937740481988E7 ; 1.2043802971005955E9 ; 4.199812113445622E8 ; 5.16228623755814E10 ; 0.0
52 ; 1.0202732075096138E7 ; 1.2044394453781877E9 ; 4.3016614908504415E8 ; 5.282724267268199E10 ; 0.0
53 ; 1.0228805679964317E7 ; 1.2044986126431124E9 ; 4.403688811601403E8 ; 5.403168211806018E10 ; 0.0
54 ; 1.025369432235878E7 ; 1.2045577933124914E9 ; 4.505976868401046E8 ; 5.523618073070329E10 ; 0.0
55 ; 1.027219804060186E7 ; 1.2046169821767046E9 ; 4.6085138116246337E8 ; 5.6440738524015785E10 ; 0.0
56 ; 1.0290167996068716E7 ; 1.204676174361514E9 ; 4.711235792030652E8 ; 5.764535550619249E10 ; 0.0
57 ; 1.0318059008842971E7 ; 1.204735365294674E9 ; 4.8141374719913393E8 ; 5.8850031680554E10 ; 0.0
58 ; 1.0337052897597766E7 ; 1.2047945506764295E9 ; 4.917318062079769E8 ; 6.005476704584868E10 ; 0.0
59 ; 1.0351491263041258E7 ; 1.2048537264533882E9 ; 5.0206885910557467E8 ; 6.125956159652511E10 ; 0.0
60 ; 1.037265443502501E7 ; 1.2049128887953289E9 ; 5.124203503686159E8 ; 6.24644153229785E10 ; 0.0
61 ; 1.039442052710803E7 ; 1.204972034074575E9 ; 5.2279300480364096E8 ; 6.366932821177383E10 ; 0.0
62 ; 1.0414341989079958E7 ; 1.2050311588476086E9 ; 5.33187425330749E8 ; 6.4874300245848404E10 ; 0.0
63 ; 1.04359907878841E7 ; 1.2050902598386505E9 ; 5.43601767319829E8 ; 6.6079331404696014E10 ; 0.0
64 ; 1.0451857664859463E7 ; 1.2051493339249673E9 ; 5.540377581077131E8 ; 6.728442166453467E10 ; 0.0
65 ; 1.0470834044151299E7 ; 1.2052083781236982E9 ; 5.644896157725725E8 ; 6.848957099845963E10 ; 0.0
66 ; 1.048378154749519E7 ; 1.2052673895800242E9 ; 5.749604498167238E8 ; 6.969477937658333E10 ; 0.0
67 ; 1.0501703951153722E7 ; 1.205326365556525E9 ; 5.854442313642191E8 ; 7.090004676616335E10 ; 0.0
68 ; 1.0520023884377103E7 ; 1.2053853034235845E9 ; 5.959459353153728E8 ; 7.210537313171986E10 ; 0.0
69 ; 1.053643304044142E7 ; 1.20544420065073E9 ; 6.0646595919975E8 ; 7.331075843514345E10 ; 0.0
70 ; 1.055389398707226E7 ; 1.205503054798804E9 ; 6.170023922401913E8 ; 7.451620263579417E10 ; 0.0
71 ; 1.0573611032355037E7 ; 1.2055618635128713E9 ; 6.275562862272636E8 ; 7.572170569059297E10 ; 0.0
72 ; 1.0584243497974418E7 ; 1.205620624515788E9 ; 6.381298972596186E8 ; 7.692726755410585E10 ; 0.0
73 ; 1.0597048332406353E7 ; 1.2056793356023607E9 ; 6.48714140757593E8 ; 7.813288817862164E10 ; 0.0
74 ; 1.0616321137206186E7 ; 1.2057379946340322E9 ; 6.593111890899994E8 ; 7.9338567514224E10 ; 0.0
75 ; 1.0630642354982432E7 ; 1.2057965995340443E9 ; 6.699275102272056E8 ; 8.054430550885803E10 ; 0.0
76 ; 1.0647032628612611E7 ; 1.2058551482830215E9 ; 6.80558152582188E8 ; 8.175010210839207E10 ; 0.0
77 ; 1.0663179660317888E7 ; 1.2059136389149432E9 ; 6.912051852108006E8 ; 8.29559572566751E10 ; 0.0
78 ; 1.0662179983554117E7 ; 1.2059720695134578E9 ; 7.018683648711185E8 ; 8.416187089559004E10 ; 0.0
79 ; 1.0663935941909859E7 ; 1.2060304382085078E9 ; 7.125305448546727E8 ; 8.53678429651035E10 ; 0.0
80 ; 1.0667149213939352E7 ; 1.2060887431732397E9 ; 7.231944807965826E8 ; 8.657387340331201E10 ; 0.0
81 ; 1.0665753899233904E7 ; 1.206146982621165E9 ; 7.338616300105219E8 ; 8.777996214648524E10 ; 0.0
82 ; 1.066419259910584E7 ; 1.206205154803555E9 ; 7.445273839097558E8 ; 8.898610912910641E10 ; 0.0
83 ; 1.0669106329534803E7 ; 1.2062632580070438E9 ; 7.551915765088617E8 ; 9.019231428390997E10 ; 0.0
84 ; 1.0668297405018406E7 ; 1.206321290551421E9 ; 7.658606828383964E8 ; 9.139857754191702E10 ; 0.0
85 ; 1.0664638291549984E7 ; 1.206379250787599E9 ; 7.765289802434149E8 ; 9.260489883246844E10 ; 0.0
86 ; 1.0665513810904872E7 ; 1.206437137095738E9 ; 7.871936185349649E8 ; 9.381127808325604E10 ; 0.0
87 ; 1.0663672867257878E7 ; 1.206494947883513E9 ; 7.978591323458698E8 ; 9.501771522035178E10 ; 0.0
88 ; 1.0665309406949438E7 ; 1.2065526815845144E9 ; 8.085228052131276E8 ; 9.622421016823529E10 ; 0.0
89 ; 1.0658614349853352E7 ; 1.2066103366567664E9 ; 8.19188114620077E8 ; 9.743076284981981E10 ; 0.0
90 ; 1.0660526360157477E7 ; 1.2066679115813582E9 ; 8.298467289699304E8 ; 9.863737318647658E10 ; 0.0
91 ; 1.066217411826E7 ; 1.2067254048611715E9 ; 8.405072553300879E8 ; 9.984404109805794E10 ; 0.0
92 ; 1.0660168400419392E7 ; 1.2067828150197053E9 ; 8.511694294483479E8 ; 1.0105076650291911E11 ; 0.0
93 ; 1.065324990195586E7 ; 1.2068401405999799E9 ; 8.618295978487673E8 ; 1.0225754931793881E11 ; 0.0
94 ; 1.065111258524799E7 ; 1.206897380163524E9 ; 8.724828477507231E8 ; 1.0346438945853879E11 ; 0.0
95 ; 1.0648782828255769E7 ; 1.2069545322894292E9 ; 8.831339603359711E8 ; 1.0467128683870232E11 ; 0.0
96 ; 1.0639956729782593E7 ; 1.2070115955734725E9 ; 8.937827431642269E8 ; 1.0587824137099174E11 ; 0.0
97 ; 1.0639595128519746E7 ; 1.2070685686272984E9 ; 9.044226998940095E8 ; 1.0708525296656522E11 ; 0.0
98 ; 1.0636856989950018E7 ; 1.2071254500776582E9 ; 9.150622950225292E8 ; 1.0829232153519252E11 ; 0.0
99 ; 1.0630570340761907E7 ; 1.2071822385657E9 ; 9.256991520124793E8 ; 1.0949944698527017E11 ; 0.0
100 ; 1.0626028161915729E7 ; 1.207238932746306E9 ; 9.363297223532412E8 ; 1.1070662922383588E11 ; 0.0
101 ; 1.0618008393344931E7 ; 1.207295531287475E9 ; 9.46955750515157E8 ; 1.1191386815658218E11 ; 0.0
102 ; 1.0612190457386931E7 ; 1.2073520328697457E9 ; 9.575737589085019E8 ; 1.1312116368786966E11 ; 0.0
103 ; 1.060552731205046E7 ; 1.2074084361856568E9 ; 9.681859493658888E8 ; 1.1432851572073941E11 ; 0.0
104 ; 1.059966470159993E7 ; 1.2074647399392424E9 ; 9.787914766779393E8 ; 1.1553592415692506E11 ; 0.0
105 ; 1.0594654161990661E7 ; 1.2075209428455617E9 ; 9.893911413795393E8 ; 1.167433888968643E11 ; 0.0
106 ; 1.0587908757747727E7 ; 1.2075770436302557E9 ; 9.999857955415299E8 ; 1.1795090983970987E11 ; 0.0
107 ; 1.0576260974111801E7 ; 1.2076330410291364E9 ; 1.0105737042992777E9 ; 1.1915848688334012E11 ; 0.0
108 ; 1.0577572466529058E7 ; 1.2076889337877955E9 ; 1.0211499652733895E9 ; 1.2036611992436925E11 ; 0.0
109 ; 1.0566189101455403E7 ; 1.2077447206612456E9 ; 1.0317275377399185E9 ; 1.2157380885815704E11 ; 0.0
110 ; 1.0561627237072747E7 ; 1.2078004004135764E9 ; 1.0422937268413739E9 ; 1.2278155357881828E11 ; 0.0
111 ; 1.0546875010910055E7 ; 1.2078559718176377E9 ; 1.0528553540784466E9 ; 1.2398935397923186E11 ; 0.0
112 ; 1.0537516653717294E7 ; 1.207911433654738E9 ; 1.0634022290893567E9 ; 1.251972099510495E11 ; 0.0
113 ; 1.0533540786031503E7 ; 1.2079667847143636E9 ; 1.073939745743074E9 ; 1.2640512138470424E11 ; 0.0
114 ; 1.0519608866756573E7 ; 1.2080220237939153E9 ; 1.0844732865291054E9 ; 1.2761308816941861E11 ; 0.0
115 ; 1.0520358484500226E7 ; 1.2080771496984575E9 ; 1.094992895395862E9 ; 1.2882111019321252E11 ; 0.0
116 ; 1.0509994200780388E7 ; 1.2081321612404878E9 ; 1.1055132538803623E9 ; 1.3002918734291098E11 ; 0.0
117 ; 1.0496773352065874E7 ; 1.208187057239716E9 ; 1.1160232480811427E9 ; 1.3123731950415147E11 ; 0.0
118 ; 1.0481119202257257E7 ; 1.208241836522858E9 ; 1.1265200214332085E9 ; 1.3244550656139119E11 ; 0.0
119 ; 1.0476213193656007E7 ; 1.208296497923441E9 ; 1.1370011406354656E9 ; 1.3365374839791405E11 ; 0.0
120 ; 1.0461433391411263E7 ; 1.2083510402816222E9 ; 1.1474773538291216E9 ; 1.348620448958375E11 ; 0.0
121 ; 1.0449048912586235E7 ; 1.2084054624440162E9 ; 1.157938787220533E9 ; 1.3607039593611911E11 ; 0.0
122 ; 1.0442238218790421E7 ; 1.2084597632635338E9 ; 1.168387836133119E9 ; 1.3727880139856313E11 ; 0.0
123 ; 1.0428889343972534E7 ; 1.208513941599229E9 ; 1.1788300743519096E9 ; 1.3848726116182666E11 ; 0.0
124 ; 1.0417848360473564E7 ; 1.2085679963161564E9 ; 1.189258963695882E9 ; 1.396957751034259E11 ; 0.0
125 ; 1.0407024570598073E7 ; 1.208621926285235E9 ; 1.1996768120563557E9 ; 1.4090434309974207E11 ; 0.0
126 ; 1.039289447642195E7 ; 1.2086757303831227E9 ; 1.2100838366269538E9 ; 1.421129650260273E11 ; 0.0
127 ; 1.0375004477242285E7 ; 1.2087294074920955E9 ; 1.2204767311033757E9 ; 1.4332164075641043E11 ; 0.0
128 ; 1.0366805220393138E7 ; 1.208782956499935E9 ; 1.230851735580618E9 ; 1.4453037016390253E11 ; 0.0
129 ; 1.035353647593659E7 ; 1.2088363762998223E9 ; 1.241218540801011E9 ; 1.4573915312040247E11 ; 0.0
130 ; 1.0334355195937458E7 ; 1.2088896657902377E9 ; 1.2515720772769477E9 ; 1.469479894967023E11 ; 0.0
131 ; 1.030049694585483E7 ; 1.2089428238748662E9 ; 1.2619064324728851E9 ; 1.4815687916249255E11 ; 0.0
132 ; 1.0274706214760397E7 ; 1.2089958494625099E9 ; 1.27220692941874E9 ; 1.4936582198636743E11 ; 0.0
133 ; 1.024902151806802E7 ; 1.2090487414670026E9 ; 1.2824816356335003E9 ; 1.5057481783582996E11 ; 0.0
134 ; 1.0222812996947952E7 ; 1.2091014988071334E9 ; 1.2927306571515684E9 ; 1.5178386657729697E11 ; 0.0
135 ; 1.0196745980772382E7 ; 1.2091541204065704E9 ; 1.3029534701485164E9 ; 1.529929680761041E11 ; 0.0
136 ; 1.0165346777963396E7 ; 1.2092066051937923E9 ; 1.313150216129289E9 ; 1.5420212219651068E11 ; 0.0
137 ; 1.014103554713409E7 ; 1.2092589521020222E9 ; 1.3233155629072523E9 ; 1.5541132880170447E11 ; 0.0
138 ; 1.0104893306649584E7 ; 1.2093111600691662E9 ; 1.3334565984543865E9 ; 1.566205877538065E11 ; 0.0
139 ; 1.0074560723790642E7 ; 1.2093632280377545E9 ; 1.3435614917610362E9 ; 1.5782989891387564E11 ; 0.0
140 ; 1.004866189366268E7 ; 1.2094151549548888E9 ; 1.3536360524848268E9 ; 1.590392621419134E11 ; 0.0
141 ; 1.0019346865309097E7 ; 1.2094669397721887E9 ; 1.3636847143784895E9 ; 1.602486772968683E11 ; 0.0
142 ; 9994936.747851124 ; 1.209518581445744E9 ; 1.3737040612437985E9 ; 1.6145814423664047E11 ; 0.0
143 ; 9955281.48337444 ; 1.209570078936071E9 ; 1.3836989979916496E9 ; 1.626676628180862E11 ; 0.0
144 ; 9924283.745563956 ; 1.2096214312080681E9 ; 1.393654279475024E9 ; 1.6387723289702228E11 ; 0.0
145 ; 9912891.426817415 ; 1.2096726372309775E9 ; 1.403578563220588E9 ; 1.6508685432823035E11 ; 0.0
146 ; 9905269.175468797 ; 1.2097236959783463E9 ; 1.4134914546474054E9 ; 1.6629652696546133E11 ; 0.0
147 ; 9888215.055399366 ; 1.2097746064279935E9 ; 1.423396723822874E9 ; 1.6750625066143967E11 ; 0.0
148 ; 9875053.026733119 ; 1.2098253675619757E9 ; 1.4332849388782735E9 ; 1.6871602526786765E11 ; 0.0
149 ; 9855889.71679318 ; 1.2098759783665571E9 ; 1.4431599919050066E9 ; 1.6992585063542963E11 ; 0.0
150 ; 9846586.785935182 ; 1.2099264378321815E9 ; 1.4530158816218E9 ; 1.7113572661379617E11 ; 0.0
151 ; 9834083.982717194 ; 1.2099767449534447E9 ; 1.462862468407735E9 ; 1.7234565305162836E11 ; 0.0
152 ; 9818165.63260079 ; 1.2100268987290711E9 ; 1.4726965523904524E9 ; 1.735556297965818E11 ; 0.0
153 ; 9802777.721959688 ; 1.2100768981618896E9 ; 1.4825147180230532E9 ; 1.7476565669531085E11 ; 0.0
154 ; 9786339.56228426 ; 1.210126742258812E9 ; 1.4923174957450128E9 ; 1.7597573359347275E11 ; 0.0
155 ; 9772303.197666723 ; 1.2101764300308144E9 ; 1.502103835307297E9 ; 1.7718586033573157E11 ; 0.0
156 ; 9760473.101196175 ; 1.2102259604929187E9 ; 1.5118761385049636E9 ; 1.783960367657624E11 ; 0.0
157 ; 9739424.047815148 ; 1.2102753326641743E9 ; 1.52163661160616E9 ; 1.796062627262553E11 ; 0.0
158 ; 9728956.191277541 ; 1.2103245455676444E9 ; 1.531376035653975E9 ; 1.808165380589195E11 ; 0.0
159 ; 9715611.81314175 ; 1.2103735982303905E9 ; 1.5411049918452525E9 ; 1.8202686260448715E11 ; 0.0
160 ; 9710998.705407403 ; 1.21042248968346E9 ; 1.5508206036583943E9 ; 1.8323723620271753E11 ; 0.0
161 ; 9685423.019187428 ; 1.210471218961874E9 ; 1.5605316023638017E9 ; 1.84447658692401E11 ; 0.0
162 ; 9672410.64651186 ; 1.2105197851046174E9 ; 1.5702170253829892E9 ; 1.8565812991136288E11 ; 0.0
163 ; 9657937.174950358 ; 1.210568187154627E9 ; 1.579889436029501E9 ; 1.868686496964675E11 ; 0.0
164 ; 9642672.23080123 ; 1.2106164241587858E9 ; 1.5895473732044513E9 ; 1.8807921788362213E11 ; 0.0
165 ; 9626523.586645123 ; 1.210664495167913E9 ; 1.5991900454352527E9 ; 1.892898343077809E11 ; 0.0
166 ; 9610131.38532902 ; 1.2107123992367582E9 ; 1.6088165690218978E9 ; 1.9050049880294882E11 ; 0.0
167 ; 9594936.765164439 ; 1.210760135423995E9 ; 1.6184267004072268E9 ; 1.9171121120218558E11 ; 0.0
168 ; 9581607.557659153 ; 1.2108077027922153E9 ; 1.6280216371723912E9 ; 1.9292197133760956E11 ; 0.0
169 ; 9562653.177776072 ; 1.2108551004079266E9 ; 1.6376032447300503E9 ; 1.9413277904040176E11 ; 0.0
170 ; 9546677.856254034 ; 1.210902327341547E9 ; 1.6471658979078264E9 ; 1.953436341408097E11 ; 0.0
171 ; 9532975.896580413 ; 1.210949382667403E9 ; 1.6567125757640805E9 ; 1.9655453646815125E11 ; 0.0
172 ; 9519697.338497408 ; 1.210996265463726E9 ; 1.666245551660661E9 ; 1.9776548585081863E11 ; 0.0
173 ; 9505793.835240383 ; 1.2110429748126523E9 ; 1.6757652489991584E9 ; 1.9897648211628235E11 ; 0.0
174 ; 9490134.50983074 ; 1.2110895098002217E9 ; 1.6852710428343987E9 ; 2.00187525091095E11 ; 0.0
175 ; 9481368.050099712 ; 1.2111358695163765E9 ; 1.6947611773442295E9 ; 2.0139861460089523E11 ; 0.0
176 ; 9472832.503469793 ; 1.2111820530549622E9 ; 1.704242545394329E9 ; 2.0260975047041162E11 ; 0.0
177 ; 9460318.544267107 ; 1.2112280595137281E9 ; 1.7137153778977988E9 ; 2.0382093252346658E11 ; 0.0
178 ; 9451716.166816726 ; 1.2112738879943285E9 ; 1.723175696442066E9 ; 2.0503216058298032E11 ; 0.0
179 ; 9442379.564389037 ; 1.2113195376023247E9 ; 1.7326274126088827E9 ; 2.0624343447097464E11 ; 0.0
180 ; 9429901.453499863 ; 1.211365007447187E9 ; 1.7420697921732717E9 ; 2.0745475400857697E11 ; 0.0
181 ; 9416348.488627601 ; 1.211410296642296E9 ; 1.7514996936267715E9 ; 2.0866611901602414E11 ; 0.0
182 ; 9407187.202418115 ; 1.2114554043049486E9 ; 1.7609160421153991E9 ; 2.0987752931266644E11 ; 0.0
183 ; 9402371.003689447 ; 1.2115003295563586E9 ; 1.7703232293178172E9 ; 2.110889847169714E11 ; 0.0
184 ; 9388858.696142767 ; 1.211545071521662E9 ; 1.7797256003215067E9 ; 2.1230048504652777E11 ; 0.0
185 ; 9380554.683791667 ; 1.2115896293299208E9 ; 1.7891144590176494E9 ; 2.1351203011804944E11 ; 0.0
186 ; 9372453.859513655 ; 1.2116340021141272E9 ; 1.798495013701441E9 ; 2.1472361974737936E11 ; 0.0
187 ; 9359696.435222488 ; 1.211678189011209E9 ; 1.8078674675609548E9 ; 2.159352537494935E11 ; 0.0
188 ; 9347891.536295736 ; 1.211722189162034E9 ; 1.8172271639961772E9 ; 2.171469319385047E11 ; 0.0
189 ; 9339355.042188669 ; 1.2117660017114172E9 ; 1.8265750555324728E9 ; 2.1835865412766675E11 ; 0.0
190 ; 9323812.16221423 ; 1.211809625808124E9 ; 1.8359144105746615E9 ; 2.1957042012937817E11 ; 0.0
191 ; 9319821.911525091 ; 1.2118530606048782E9 ; 1.8452382227368758E9 ; 2.207822297551863E11 ; 0.0
192 ; 9305266.746897371 ; 1.2118963052583675E9 ; 1.8545580446484008E9 ; 2.219940828157912E11 ; 0.0
193 ; 9300684.131707754 ; 1.2119393589292498E9 ; 1.8638633113952982E9 ; 2.2320597912104956E11 ; 0.0
194 ; 9292968.42483051 ; 1.2119822207821608E9 ; 1.873163995527006E9 ; 2.2441791847997882E11 ; 0.0
195 ; 9273712.275981724 ; 1.2120248899857202E9 ; 1.8824569639518363E9 ; 2.25629900700761E11 ; 0.0
196 ; 9260720.268451031 ; 1.2120673657125387E9 ; 1.891730676227818E9 ; 2.268419255907467E11 ; 0.0
197 ; 9256129.641019758 ; 1.2121096471392267E9 ; 1.900991396496269E9 ; 2.2805399295645923E11 ; 0.0
198 ; 9242781.696015941 ; 1.2121517334463997E9 ; 1.9102475261372888E9 ; 2.2926610260359845E11 ; 0.0
