CSV File for the Network on Day 29
1 - Minute m 
2 - Power Consumed at minute m 
3 - Power Produced at minute m 
4 - Energy Consumed since the beginning of the day 
5 - Energy Produced since the beginning of the day 
6 - Energy Lost since the beginning of the day 
 
0 ; 3.839538668261255E7 ; 6.320533577508276E8 ; 0.0 ; 0.0 ; 0.0
1 ; 3.84337456916361E7 ; 6.329448083421341E8 ; 3.839538668261255E7 ; 6.320533577508276E8 ; 0.0
2 ; 3.848158097223103E7 ; 6.356907441706535E8 ; 7.682913237424865E7 ; 1.2649981660929618E9 ; 0.0
3 ; 3.8526047934194826E7 ; 6.402914218921264E8 ; 1.1531071334647968E8 ; 1.9006889102636151E9 ; 0.0
4 ; 3.858375951234712E7 ; 6.467471041655056E8 ; 1.5383676128067452E8 ; 2.5409803321557417E9 ; 0.0
5 ; 3.86561332029028E7 ; 6.55058052141273E8 ; 1.9242052079302162E8 ; 3.187727436321247E9 ; 0.0
6 ; 3.874674196226424E7 ; 6.6522451596441E8 ; 2.310766539959244E8 ; 3.84278548846252E9 ; 0.0
7 ; 3.8877304937629536E7 ; 6.772467236871817E8 ; 2.6982339595818865E8 ; 4.50801000442693E9 ; 0.0
8 ; 3.9059611301930316E7 ; 6.911248693938966E8 ; 3.087007008958182E8 ; 5.185256728114112E9 ; 0.0
9 ; 3.933756130839069E7 ; 7.068591017224864E8 ; 3.477603121977485E8 ; 5.876381597508009E9 ; 0.0
10 ; 3.977990110754586E7 ; 7.244495141989427E8 ; 3.8709787350613916E8 ; 6.583240699230495E9 ; 0.0
11 ; 4.047207028958881E7 ; 7.438961387595236E8 ; 4.26877774613685E8 ; 7.307690213429438E9 ; 0.0
12 ; 4.157199924273318E7 ; 7.651989434679708E8 ; 4.673498449032738E8 ; 8.051586352188961E9 ; 0.0
13 ; 4.2639505619048655E7 ; 7.883578347982928E8 ; 5.08921844146007E8 ; 8.816785295656933E9 ; 0.0
14 ; 4.276176165104613E7 ; 8.133726641125582E8 ; 5.515613497650557E8 ; 9.605143130455225E9 ; 0.0
15 ; 4.2808882064937614E7 ; 8.402432373264582E8 ; 5.943231114161018E8 ; 1.0418515794567783E10 ; 0.0
16 ; 4.286399889478375E7 ; 8.689693263877281E8 ; 6.371319934810394E8 ; 1.1258759031894241E10 ; 0.0
17 ; 4.2917557674281016E7 ; 8.995506811513857E8 ; 6.799959923758231E8 ; 1.212772835828197E10 ; 0.0
18 ; 4.296428599131896E7 ; 9.319870404669497E8 ; 7.229135500501041E8 ; 1.3027279039433355E10 ; 0.0
19 ; 4.301008720420141E7 ; 9.662781416754674E8 ; 7.658778360414231E8 ; 1.3959266079900305E10 ; 0.0
20 ; 4.3069983465550214E7 ; 1.0024237281211977E9 ; 8.088879232456245E8 ; 1.4925544221575771E10 ; 0.0
21 ; 4.312114916067528E7 ; 1.0404235546233616E9 ; 8.519579067111747E8 ; 1.5927967949696968E10 ; 0.0
22 ; 4.317305818695676E7 ; 1.080277391086447E9 ; 8.9507905587185E8 ; 1.696839150432033E10 ; 0.0
23 ; 4.32235897092745E7 ; 1.1219850245528045E9 ; 9.382521140588068E8 ; 1.8048668895406776E10 ; 0.0
24 ; 4.326425886785851E7 ; 1.1655462600411787E9 ; 9.814757037680813E8 ; 1.917065391995958E10 ; 0.0
25 ; 4.331695150979367E7 ; 1.203089165887892E9 ; 1.0247399626359398E9 ; 2.033620018000076E10 ; 0.0
26 ; 4.3371649235643074E7 ; 1.2031348693156512E9 ; 1.0680569141457335E9 ; 2.1539289345888653E10 ; 0.0
27 ; 4.341969491535762E7 ; 1.2031818425511591E9 ; 1.1114285633813765E9 ; 2.2742424215204304E10 ; 0.0
28 ; 4.346656288106995E7 ; 1.2032299570648386E9 ; 1.154848258296734E9 ; 2.3945606057755463E10 ; 0.0
29 ; 4.3517409855075665E7 ; 1.2032790980022964E9 ; 1.198314821177804E9 ; 2.51488360148203E10 ; 0.0
30 ; 4.355835152117774E7 ; 1.2033291628523679E9 ; 1.2418322310328796E9 ; 2.6352115112822598E10 ; 0.0
31 ; 4.360496794852866E7 ; 1.203380060164641E9 ; 1.2853905825540574E9 ; 2.7555444275674965E10 ; 0.0
32 ; 4.365082224016201E7 ; 1.203431708348153E9 ; 1.3289955505025861E9 ; 2.8758824335839607E10 ; 0.0
33 ; 4.36939168319457E7 ; 1.2034840345676818E9 ; 1.372646372742748E9 ; 2.996225604418776E10 ; 0.0
34 ; 4.373287289366275E7 ; 1.2035369737437022E9 ; 1.4163402895746937E9 ; 3.116574007875544E10 ; 0.0
35 ; 4.37772436606386E7 ; 1.2035904676554036E9 ; 1.4600731624683564E9 ; 3.236927705249914E10 ; 0.0
36 ; 4.381859831290583E7 ; 1.2036444641420689E9 ; 1.503850406128995E9 ; 3.3572867520154545E10 ; 0.0
37 ; 4.385726551918962E7 ; 1.2036989163958197E9 ; 1.5476690044419007E9 ; 3.4776511984296616E10 ; 0.0
38 ; 4.389516988122538E7 ; 1.2037537823376691E9 ; 1.5915262699610903E9 ; 3.598021090069244E10 ; 0.0
39 ; 4.392773033181497E7 ; 1.2038090240685093E9 ; 1.6354214398423157E9 ; 3.7183964683030106E10 ; 0.0
40 ; 4.39618368585802E7 ; 1.203864607386861E9 ; 1.6793491701741307E9 ; 3.838777370709862E10 ; 0.0
41 ; 4.399253986065197E7 ; 1.203920501365684E9 ; 1.7233110070327108E9 ; 3.959163831448548E10 ; 0.0
42 ; 4.402316996239743E7 ; 1.2039766779811716E9 ; 1.7673035468933628E9 ; 4.0795558815851166E10 ; 0.0
43 ; 4.404942529406466E7 ; 1.2040331117871275E9 ; 1.81132671685576E9 ; 4.199953549383234E10 ; 0.0
44 ; 4.4072968462896384E7 ; 1.2040897796292202E9 ; 1.8553761421498249E9 ; 4.320356860561946E10 ; 0.0
45 ; 4.410238280113024E7 ; 1.204146660394059E9 ; 1.8994491106127212E9 ; 4.440765838524868E10 ; 0.0
46 ; 4.4120654488710664E7 ; 1.2042037347886455E9 ; 1.9435514934138515E9 ; 4.561180504564274E10 ; 0.0
47 ; 4.414424041086069E7 ; 1.204260985146318E9 ; 1.9876721479025621E9 ; 4.681600878043138E10 ; 0.0
48 ; 4.416034938532932E7 ; 1.204318395255798E9 ; 2.031816388313423E9 ; 4.80202697655777E10 ; 0.0
49 ; 4.417582378736046E7 ; 1.2043759502103815E9 ; 2.0759767376987522E9 ; 4.9224588160833496E10 ; 0.0
50 ; 4.41898867108686E7 ; 1.204433636274722E9 ; 2.1201525614861126E9 ; 5.042896411104388E10 ; 0.0
51 ; 4.420961394528637E7 ; 1.2044914407669733E9 ; 2.1643424481969814E9 ; 5.1633397747318596E10 ; 0.0
52 ; 4.421523265517794E7 ; 1.204549351954364E9 ; 2.2085520621422677E9 ; 5.283788918808557E10 ; 0.0
53 ; 4.4227004786249846E7 ; 1.2046073589605317E9 ; 2.252767294797446E9 ; 5.404243854003993E10 ; 0.0
54 ; 4.42388773860017E7 ; 1.2046654516831605E9 ; 2.2969942995836954E9 ; 5.5247045899000465E10 ; 0.0
55 ; 4.424709875837095E7 ; 1.2047236207206612E9 ; 2.341233176969697E9 ; 5.6451711350683624E10 ; 0.0
56 ; 4.426050390248657E7 ; 1.2047818573067997E9 ; 2.385480275728068E9 ; 5.765643497140428E10 ; 0.0
57 ; 4.427034011187869E7 ; 1.2048401532523189E9 ; 2.4297407796305547E9 ; 5.886121682871108E10 ; 0.0
58 ; 4.428063226397598E7 ; 1.2048985008927226E9 ; 2.4740111197424335E9 ; 6.00660569819634E10 ; 0.0
59 ; 4.4283577012757696E7 ; 1.2049568930415015E9 ; 2.5182917520064096E9 ; 6.1270955482856125E10 ; 0.0
60 ; 4.4300704568009816E7 ; 1.2050153229481668E9 ; 2.5625753290191674E9 ; 6.247591237589763E10 ; 0.0
61 ; 4.4303390968239754E7 ; 1.2050737842605407E9 ; 2.6068760335871773E9 ; 6.3680927698845795E10 ; 0.0
62 ; 4.430983484963615E7 ; 1.205132270990824E9 ; 2.651179424555417E9 ; 6.488600148310634E10 ; 0.0
63 ; 4.432395401677714E7 ; 1.2051907774850123E9 ; 2.695489259405053E9 ; 6.609113375409716E10 ; 0.0
64 ; 4.43263286894431E7 ; 1.2052492983952951E9 ; 2.73981321342183E9 ; 6.729632453158218E10 ; 0.0
65 ; 4.433999617031867E7 ; 1.2053078286551092E9 ; 2.7841395421112733E9 ; 6.850157382997747E10 ; 0.0
66 ; 4.434333562425689E7 ; 1.2053663634565592E9 ; 2.828479538281592E9 ; 6.970688165863258E10 ; 0.0
67 ; 4.434643581448612E7 ; 1.2054248982299545E9 ; 2.872822873905849E9 ; 7.091224802208914E10 ; 0.0
68 ; 4.4350529401986554E7 ; 1.2054834286252377E9 ; 2.917169309720335E9 ; 7.211767292031909E10 ; 0.0
69 ; 4.4354580739525184E7 ; 1.205541950495108E9 ; 2.9615198391223216E9 ; 7.332315634894434E10 ; 0.0
70 ; 4.435352564426607E7 ; 1.205600459879664E9 ; 3.005874419861847E9 ; 7.452869829943944E10 ; 0.0
71 ; 4.4361471829277486E7 ; 1.2056589529924154E9 ; 3.050227945506113E9 ; 7.57342987593191E10 ; 0.0
72 ; 4.4360744013070956E7 ; 1.2057174262075212E9 ; 3.0945894173353906E9 ; 7.693995771231152E10 ; 0.0
73 ; 4.437006205220724E7 ; 1.2057758760481331E9 ; 3.1389501613484616E9 ; 7.814567513851904E10 ; 0.0
74 ; 4.436955993426797E7 ; 1.2058342991757412E9 ; 3.183320223400669E9 ; 7.935145101456717E10 ; 0.0
75 ; 4.437192577354609E7 ; 1.205892692380417E9 ; 3.227689783334937E9 ; 8.05572853137429E10 ; 0.0
76 ; 4.437176266594814E7 ; 1.2059510525718749E9 ; 3.2720617091084833E9 ; 8.176317800612332E10 ; 0.0
77 ; 4.437044324045569E7 ; 1.2060093767712688E9 ; 3.316433471774431E9 ; 8.296912905869519E10 ; 0.0
78 ; 4.436696188084924E7 ; 1.2060676621036596E9 ; 3.360803915014887E9 ; 8.417513843546646E10 ; 0.0
79 ; 4.4354085475132495E7 ; 1.2061259057910886E9 ; 3.405170876895736E9 ; 8.538120609757011E10 ; 0.0
80 ; 4.434510880181668E7 ; 1.2061841051462026E9 ; 3.4495249623708687E9 ; 8.65873320033612E10 ; 0.0
81 ; 4.432817092049314E7 ; 1.2062422575663824E9 ; 3.493870071172685E9 ; 8.779351610850742E10 ; 0.0
82 ; 4.4308403100725934E7 ; 1.2063003605283256E9 ; 3.5381982420931783E9 ; 8.899975836607379E10 ; 0.0
83 ; 4.4296620810504526E7 ; 1.2063584115830467E9 ; 3.5825066451939044E9 ; 9.020605872660211E10 ; 0.0
84 ; 4.4276820267456055E7 ; 1.2064164083512597E9 ; 3.626803266004409E9 ; 9.141241713818517E10 ; 0.0
85 ; 4.4267022675044015E7 ; 1.2064743485191052E9 ; 3.671080086271865E9 ; 9.261883354653642E10 ; 0.0
86 ; 4.425173984395656E7 ; 1.2065322298341959E9 ; 3.715347108946909E9 ; 9.382530789505553E10 ; 0.0
87 ; 4.423376919656873E7 ; 1.2065900501019545E9 ; 3.7595988487908654E9 ; 9.503184012488972E10 ; 0.0
88 ; 4.421640695928773E7 ; 1.2066478071822162E9 ; 3.8038326179874344E9 ; 9.623843017499168E10 ; 0.0
89 ; 4.420053710462773E7 ; 1.2067054989860756E9 ; 3.848049024946722E9 ; 9.74450779821739E10 ; 0.0
90 ; 4.418275287454535E7 ; 1.206763123472962E9 ; 3.8922495620513496E9 ; 9.865178348115997E10 ; 0.0
91 ; 4.4160338234450065E7 ; 1.2068206786479142E9 ; 3.936432314925895E9 ; 9.985854660463293E10 ; 0.0
92 ; 4.4144878771348506E7 ; 1.206878162559052E9 ; 3.980592653160345E9 ; 1.0106536728328085E11 ; 0.0
93 ; 4.4128344781141646E7 ; 1.2069355732952185E9 ; 4.0247375319316936E9 ; 1.022722454458399E11 ; 0.0
94 ; 4.410712079514538E7 ; 1.2069929089837847E9 ; 4.0688658767128353E9 ; 1.0347918101913512E11 ; 0.0
95 ; 4.408716419339049E7 ; 1.2070501677886026E9 ; 4.112972997507981E9 ; 1.046861739281189E11 ; 0.0
96 ; 4.4068209043852724E7 ; 1.2071073479080951E9 ; 4.157060161701371E9 ; 1.058932240959075E11 ; 0.0
97 ; 4.404330155585653E7 ; 1.2071644475734735E9 ; 4.201128370745224E9 ; 1.071003314438156E11 ; 0.0
98 ; 4.4032099290738806E7 ; 1.207221465047071E9 ; 4.2451716723010807E9 ; 1.0830749589138907E11 ; 0.0
99 ; 4.400458968910404E7 ; 1.2072783986207871E9 ; 4.2892037715918193E9 ; 1.0951471735643614E11 ; 0.0
100 ; 4.3985233532958046E7 ; 1.2073352466146293E9 ; 4.333208361280923E9 ; 1.1072199575505693E11 ; 0.0
101 ; 4.396463893055677E7 ; 1.2073920073753495E9 ; 4.377193594813881E9 ; 1.1192933100167155E11 ; 0.0
102 ; 4.3936894778734714E7 ; 1.2074486792751672E9 ; 4.421158233744437E9 ; 1.131367230090469E11 ; 0.0
103 ; 4.3914932017756954E7 ; 1.207505260710573E9 ; 4.465095128523172E9 ; 1.1434417168832207E11 ; 0.0
104 ; 4.388717278870511E7 ; 1.2075617501012049E9 ; 4.50901006054093E9 ; 1.1555167694903264E11 ; 0.0
105 ; 4.3864997554359555E7 ; 1.2076181458887959E9 ; 4.552897233329635E9 ; 1.1675923869913385E11 ; 0.0
106 ; 4.383997198837117E7 ; 1.2076744465361853E9 ; 4.596762230883994E9 ; 1.1796685684502264E11 ; 0.0
107 ; 4.382191803183477E7 ; 1.207730650526389E9 ; 4.640602202872365E9 ; 1.1917453129155882E11 ; 0.0
108 ; 4.37905773966697E7 ; 1.2077867563617272E9 ; 4.6844241209042E9 ; 1.203822619420852E11 ; 0.0
109 ; 4.377059641658417E7 ; 1.2078427625630047E9 ; 4.728214698300869E9 ; 1.2159004869844693E11 ; 0.0
110 ; 4.374400015971287E7 ; 1.2078986676687367E9 ; 4.771985294717453E9 ; 1.2279789146100993E11 ; 0.0
111 ; 4.37144617341099E7 ; 1.2079544702344236E9 ; 4.815729294877166E9 ; 1.2400579012867867E11 ; 0.0
112 ; 4.368289970975339E7 ; 1.2080101688318658E9 ; 4.859443756611276E9 ; 1.2521374459891309E11 ; 0.0
113 ; 4.3654218207040615E7 ; 1.2080657620485191E9 ; 4.903126656321029E9 ; 1.2642175476774495E11 ; 0.0
114 ; 4.362642355175584E7 ; 1.2081212484868884E9 ; 4.9467808745280695E9 ; 1.2762982052979347E11 ; 0.0
115 ; 4.3601594941568494E7 ; 1.2081766267639513E9 ; 4.990407298079825E9 ; 1.2883794177828036E11 ; 0.0
116 ; 4.3573354959823266E7 ; 1.2082318955106218E9 ; 5.034008893021394E9 ; 1.3004611840504431E11 ; 0.0
117 ; 4.354188087777762E7 ; 1.2082870533712366E9 ; 5.077582247981217E9 ; 1.3125435030055493E11 ; 0.0
118 ; 4.3505266939878225E7 ; 1.2083420990030754E9 ; 5.121124128858995E9 ; 1.3246263735392616E11 ; 0.0
119 ; 4.348025946244614E7 ; 1.2083970310759053E9 ; 5.164629395798874E9 ; 1.3367097945292924E11 ; 0.0
120 ; 4.345199011704931E7 ; 1.2084518482715516E9 ; 5.20810965526132E9 ; 1.3487937648400516E11 ; 0.0
121 ; 4.342144131429689E7 ; 1.208506549283491E9 ; 5.251561645378369E9 ; 1.360878283322767E11 ; 0.0
122 ; 4.338802686275945E7 ; 1.208561132816467E9 ; 5.294983086692666E9 ; 1.372963348815602E11 ; 0.0
123 ; 4.335975304560369E7 ; 1.2086155975861287E9 ; 5.338371113555426E9 ; 1.3850489601437665E11 ; 0.0
124 ; 4.331965398907785E7 ; 1.208669942318684E9 ; 5.381730866601029E9 ; 1.3971351161196277E11 ; 0.0
125 ; 4.329061760671319E7 ; 1.2087241657505772E9 ; 5.425050520590107E9 ; 1.4092218155428146E11 ; 0.0
126 ; 4.326300219313723E7 ; 1.2087782666281793E9 ; 5.46834113819682E9 ; 1.4213090572003204E11 ; 0.0
127 ; 4.3225748064046085E7 ; 1.2088322437074966E9 ; 5.511604140389957E9 ; 1.4333968398666022E11 ; 0.0
128 ; 4.31874990341544E7 ; 1.2088860957538953E9 ; 5.554829888454003E9 ; 1.445485162303677E11 ; 0.0
129 ; 4.315423034566887E7 ; 1.2089398215418382E9 ; 5.598017387488157E9 ; 1.457574023261216E11 ; 0.0
130 ; 4.3115076756232016E7 ; 1.2089934198546379E9 ; 5.641171617833826E9 ; 1.4696634214766345E11 ; 0.0
131 ; 4.306515818817185E7 ; 1.209046889484221E9 ; 5.684286694590058E9 ; 1.481753355675181E11 ; 0.0
132 ; 4.301395314491114E7 ; 1.209100229230906E9 ; 5.72735185277823E9 ; 1.4938438245700232E11 ; 0.0
133 ; 4.296268804388378E7 ; 1.2091534379031897E9 ; 5.770365805923141E9 ; 1.5059348268623322E11 ; 0.0
134 ; 4.291447690255776E7 ; 1.2092065143175488E9 ; 5.813328493967024E9 ; 1.518026361241364E11 ; 0.0
135 ; 4.2867090064979434E7 ; 1.2092594572982483E9 ; 5.856242970869581E9 ; 1.5301184263845395E11 ; 0.0
136 ; 4.2812469477570884E7 ; 1.209312265677161E9 ; 5.899110060934561E9 ; 1.542211020957522E11 ; 0.0
137 ; 4.275838159005994E7 ; 1.2093649382935963E9 ; 5.941922530412131E9 ; 1.5543041436142935E11 ; 0.0
138 ; 4.2713836847774416E7 ; 1.2094174739941373E9 ; 5.984680912002192E9 ; 1.5663977929972296E11 ; 0.0
139 ; 4.2663913231068194E7 ; 1.2094698716324866E9 ; 6.027394748849966E9 ; 1.578491967737171E11 ; 0.0
140 ; 4.2605848332412064E7 ; 1.2095221300693183E9 ; 6.070058662081035E9 ; 1.5905866664534958E11 ; 0.0
141 ; 4.255123429440842E7 ; 1.2095742481721401E9 ; 6.112664510413446E9 ; 1.6026818877541888E11 ; 0.0
142 ; 4.250019114106788E7 ; 1.2096262248151608E9 ; 6.155215744707855E9 ; 1.6147776302359103E11 ; 0.0
143 ; 4.243975494971743E7 ; 1.2096780588791633E9 ; 6.197715935848923E9 ; 1.626873892484062E11 ; 0.0
144 ; 4.239451904101747E7 ; 1.2097297492513866E9 ; 6.24015569079864E9 ; 1.6389706730728534E11 ; 0.0
145 ; 4.23561123904235E7 ; 1.2097812948254116E9 ; 6.282550209839658E9 ; 1.651067970565367E11 ; 0.0
146 ; 4.2313369237265185E7 ; 1.2098326945010538E9 ; 6.324906322230082E9 ; 1.6631657835136212E11 ; 0.0
147 ; 4.227733110657239E7 ; 1.2098839471842604E9 ; 6.367219691467347E9 ; 1.675264110458632E11 ; 0.0
148 ; 4.224102115609834E7 ; 1.209935051787013E9 ; 6.409497022573919E9 ; 1.6873629499304745E11 ; 0.0
149 ; 4.2197961485083126E7 ; 1.2099860072272367E9 ; 6.451738043730018E9 ; 1.6994623004483447E11 ; 0.0
150 ; 4.215992711857332E7 ; 1.2100368124287097E9 ; 6.493936005215101E9 ; 1.711562160520617E11 ; 0.0
151 ; 4.212073441647489E7 ; 1.2100874663209822E9 ; 6.536095932333674E9 ; 1.7236625286449042E11 ; 0.0
152 ; 4.2085549169103384E7 ; 1.2101379678392959E9 ; 6.57821666675015E9 ; 1.735763403308114E11 ; 0.0
153 ; 4.204815064037128E7 ; 1.210188315924509E9 ; 6.620302215919253E9 ; 1.747864782986507E11 ; 0.0
154 ; 4.200818240616898E7 ; 1.2102385095230255E9 ; 6.662350366559625E9 ; 1.759966666145752E11 ; 0.0
155 ; 4.19719326882069E7 ; 1.210288547586726E9 ; 6.704358548965794E9 ; 1.772069051240982E11 ; 0.0
156 ; 4.1923690880969405E7 ; 1.2103384290729046E9 ; 6.746330481654E9 ; 1.7841719367168494E11 ; 0.0
157 ; 4.1885619186604895E7 ; 1.2103881529442065E9 ; 6.788254172534969E9 ; 1.7962753210075784E11 ; 0.0
158 ; 4.184742941108452E7 ; 1.210437718168571E9 ; 6.830139791721574E9 ; 1.8083792025370206E11 ; 0.0
159 ; 4.18056828254178E7 ; 1.2104871237191758E9 ; 6.871987221132658E9 ; 1.8204835797187064E11 ; 0.0
160 ; 4.176150455438187E7 ; 1.2105363685743845E9 ; 6.913792903958076E9 ; 1.832588450955898E11 ; 0.0
161 ; 4.172304639505879E7 ; 1.210585451717698E9 ; 6.955554408512458E9 ; 1.8446938146416418E11 ; 0.0
162 ; 4.167997906840934E7 ; 1.2106343721377063E9 ; 6.9972774549075165E9 ; 1.856799669158819E11 ; 0.0
163 ; 4.164259336234824E7 ; 1.210683128828045E9 ; 7.038957433975925E9 ; 1.868906012880196E11 ; 0.0
164 ; 4.159296475271341E7 ; 1.2107317207873516E9 ; 7.080600027338274E9 ; 1.8810128441684763E11 ; 0.0
165 ; 4.155662597090713E7 ; 1.2107801470192277E9 ; 7.122192992090987E9 ; 1.8931201613763498E11 ; 0.0
166 ; 4.151369416314329E7 ; 1.210828406532199E9 ; 7.163749618061894E9 ; 1.905227962846542E11 ; 0.0
167 ; 4.147086538410252E7 ; 1.2108764983396802E9 ; 7.205263312225038E9 ; 1.917336246911864E11 ; 0.0
168 ; 4.143092484390468E7 ; 1.2109244214599419E9 ; 7.24673417760914E9 ; 1.929445011895261E11 ; 0.0
169 ; 4.138967566662551E7 ; 1.2109721749160776E9 ; 7.288165102453045E9 ; 1.9415542561098602E11 ; 0.0
170 ; 4.134292791963443E7 ; 1.2110197577359738E9 ; 7.329554778119671E9 ; 1.953663977859021E11 ; 0.0
171 ; 4.129949910949655E7 ; 1.2110671689522808E9 ; 7.370897706039306E9 ; 1.9657741754363806E11 ; 0.0
172 ; 4.125987298831015E7 ; 1.2111144076023867E9 ; 7.412197205148802E9 ; 1.9778848471259033E11 ; 0.0
173 ; 4.121556944297947E7 ; 1.2111614727283916E9 ; 7.453457078137112E9 ; 1.9899959912019272E11 ; 0.0
174 ; 4.119278009644239E7 ; 1.2112083633770838E9 ; 7.494672647580091E9 ; 2.002107605929211E11 ; 0.0
175 ; 4.116844668903637E7 ; 1.2112550785999165E9 ; 7.535865427676534E9 ; 2.014219689562982E11 ; 0.0
176 ; 4.1140641305024475E7 ; 1.2113016174529874E9 ; 7.57703387436557E9 ; 2.026332240348981E11 ; 0.0
177 ; 4.111436645351747E7 ; 1.2113479789970188E9 ; 7.618174515670594E9 ; 2.0384452565235107E11 ; 0.0
178 ; 4.109345500475907E7 ; 1.2113941622973385E9 ; 7.659288882124112E9 ; 2.0505587363134808E11 ; 0.0
179 ; 4.106127950200545E7 ; 1.211440166423863E9 ; 7.700382337128871E9 ; 2.0626726779364542E11 ; 0.0
180 ; 4.1040870703325E7 ; 1.2114859904510808E9 ; 7.741443616630877E9 ; 2.0747870796006927E11 ; 0.0
181 ; 4.1014887621164486E7 ; 1.2115316334580362E9 ; 7.782484487334202E9 ; 2.0869019395052036E11 ; 0.0
182 ; 4.0985881551907904E7 ; 1.2115770945283175E9 ; 7.823499374955366E9 ; 2.099017255839784E11 ; 0.0
183 ; 4.096356624985493E7 ; 1.211622372750041E9 ; 7.864485256507274E9 ; 2.111133026785067E11 ; 0.0
184 ; 4.093818486159123E7 ; 1.2116674672158408E9 ; 7.905448822757129E9 ; 2.1232492505125674E11 ; 0.0
185 ; 4.090617600555211E7 ; 1.2117123770228567E9 ; 7.94638700761872E9 ; 2.135365925184726E11 ; 0.0
186 ; 4.088774931565826E7 ; 1.2117571012727237E9 ; 7.987293183624272E9 ; 2.1474830489549545E11 ; 0.0
187 ; 4.0863582153616495E7 ; 1.2118016390715616E9 ; 8.028180932939931E9 ; 2.159600619967682E11 ; 0.0
188 ; 4.083397056681712E7 ; 1.211845989529968E9 ; 8.069044515093548E9 ; 2.1717186363583975E11 ; 0.0
189 ; 4.081306382048557E7 ; 1.2118901517630086E9 ; 8.109878485660365E9 ; 2.1838370962536972E11 ; 0.0
190 ; 4.07847662865891E7 ; 1.2119341248902104E9 ; 8.15069154948085E9 ; 2.1959559977713272E11 ; 0.0
191 ; 4.075834802322895E7 ; 1.211977908035555E9 ; 8.191476315767439E9 ; 2.2080753390202292E11 ; 0.0
192 ; 4.073679033609401E7 ; 1.2120215003274732E9 ; 8.232234663790668E9 ; 2.2201951181005847E11 ; 0.0
193 ; 4.070604858240323E7 ; 1.2120649008988383E9 ; 8.272971454126761E9 ; 2.2323153331038596E11 ; 0.0
194 ; 4.068066454072578E7 ; 1.212108108886963E9 ; 8.313677502709165E9 ; 2.244435982112848E11 ; 0.0
195 ; 4.065722768218412E7 ; 1.212151123433594E9 ; 8.35435816724989E9 ; 2.2565570632017175E11 ; 0.0
196 ; 4.0632463872990265E7 ; 1.212193943684909E9 ; 8.395015394932075E9 ; 2.2686785744360535E11 ; 0.0
197 ; 4.060247259572475E7 ; 1.2122365687915144E9 ; 8.435647858805065E9 ; 2.2808005138729025E11 ; 0.0
