CSV File for the Network on Day 112
1 - Minute m 
2 - Power Consumed at minute m 
3 - Power Produced at minute m 
4 - Energy Consumed since the beginning of the day 
5 - Energy Produced since the beginning of the day 
6 - Energy Lost since the beginning of the day 
 
0 ; 3.88949189764873E7 ; 6.353384271767884E8 ; 0.0 ; 0.0 ; 0.0
1 ; 3.893592031879006E7 ; 6.362493465113096E8 ; 3.88949189764873E7 ; 6.353384271767884E8 ; 0.0
2 ; 3.898499423806113E7 ; 6.390136502909527E8 ; 7.783083929527736E7 ; 1.271587773688098E9 ; 0.0
3 ; 3.902428499476484E7 ; 6.436313538536351E8 ; 1.1681583353333849E8 ; 1.9106014239790506E9 ; 0.0
4 ; 3.90893345688436E7 ; 6.501024709321506E8 ; 1.5584011852810332E8 ; 2.5542327778326855E9 ; 0.0
5 ; 3.9156963615409665E7 ; 6.584270135823946E8 ; 1.9492945309694692E8 ; 3.2043352487648363E9 ; 0.0
6 ; 3.925211508566452E7 ; 6.686049921192156E8 ; 2.340864167123566E8 ; 3.862762262347231E9 ; 0.0
7 ; 3.938090193783108E7 ; 6.8063641506069E8 ; 2.7333853179802114E8 ; 4.531367254466447E9 ; 0.0
8 ; 3.956252650494522E7 ; 6.945212890815121E8 ; 3.1271943373585224E8 ; 5.212003669527137E9 ; 0.0
9 ; 3.9856073776136406E7 ; 7.102596189760976E8 ; 3.5228196024079746E8 ; 5.906524958608649E9 ; 0.0
10 ; 4.02885513102985E7 ; 7.278514076318781E8 ; 3.9213803401693386E8 ; 6.616784577584747E9 ; 0.0
11 ; 4.097059345206729E7 ; 7.472966560131348E8 ; 4.3242658532723236E8 ; 7.344635985216625E9 ; 0.0
12 ; 4.2089522678165354E7 ; 7.685953631555862E8 ; 4.733971787792997E8 ; 8.09193264122976E9 ; 0.0
13 ; 4.315505070893477E7 ; 7.917475261718011E8 ; 5.1548670145746505E8 ; 8.860528004385345E9 ; 0.0
14 ; 4.3275462145956546E7 ; 8.167531402673638E8 ; 5.586417521663998E8 ; 9.652275530557146E9 ; 0.0
15 ; 4.3340678582625136E7 ; 8.436121987675797E8 ; 6.019172143123564E8 ; 1.046902867082451E10 ; 0.0
16 ; 4.3388626558034964E7 ; 8.723246931543728E8 ; 6.452578928949815E8 ; 1.131264086959209E10 ; 0.0
17 ; 4.343812023604296E7 ; 9.028906131128943E8 ; 6.886465194530165E8 ; 1.2184965562746464E10 ; 0.0
18 ; 4.3490444546403766E7 ; 9.35309946587249E8 ; 7.320846396890595E8 ; 1.3087856175859358E10 ; 0.0
19 ; 4.353804494689739E7 ; 9.69582679844643E8 ; 7.755750842354633E8 ; 1.4023166122446608E10 ; 0.0
20 ; 4.359485430983482E7 ; 1.0057087975471586E9 ; 8.191131291823606E8 ; 1.499274880229125E10 ; 0.0
21 ; 4.36489274172241E7 ; 1.043688282830309E9 ; 8.627079834921955E8 ; 1.599845759983841E10 ; 0.0
22 ; 4.369819580762175E7 ; 1.0835211173874502E9 ; 9.063569109094195E8 ; 1.7042145882668718E10 ; 0.0
23 ; 4.3751806122443005E7 ; 1.1252072815591106E9 ; 9.500551067170413E8 ; 1.8125667000056168E10 ; 0.0
24 ; 4.380905708967343E7 ; 1.1687467544262717E9 ; 9.938069128394842E8 ; 1.925087428161528E10 ; 0.0
25 ; 4.385953888422927E7 ; 1.2062677592957375E9 ; 1.0376159699291576E9 ; 2.0419621036041553E10 ; 0.0
26 ; 4.390577204638004E7 ; 1.2062915600198169E9 ; 1.081475508813387E9 ; 2.162588879533729E10 ; 0.0
27 ; 4.395573833727996E7 ; 1.2063167482451727E9 ; 1.125381280859767E9 ; 2.283218035535711E10 ; 0.0
28 ; 4.401643324627884E7 ; 1.2063432989931383E9 ; 1.169337019197047E9 ; 2.4038497103602283E10 ; 0.0
29 ; 4.406142387435309E7 ; 1.2063711865182967E9 ; 1.2133534524433258E9 ; 2.524484040259542E10 ; 0.0
30 ; 4.4115645607151695E7 ; 1.2064003844062724E9 ; 1.257414876317679E9 ; 2.6451211589113716E10 ; 0.0
31 ; 4.4160062211689115E7 ; 1.2064308656695063E9 ; 1.3015305219248307E9 ; 2.765761197351999E10 ; 0.0
32 ; 4.420282209043481E7 ; 1.2064626028404188E9 ; 1.34569058413652E9 ; 2.8864042839189495E10 ; 0.0
33 ; 4.425929736225268E7 ; 1.20649556806142E9 ; 1.3898934062269547E9 ; 3.0070505442029915E10 ; 0.0
34 ; 4.4303686963444225E7 ; 1.2065297331713126E9 ; 1.4341527035892074E9 ; 3.1277001010091335E10 ; 0.0
35 ; 4.434469714017407E7 ; 1.2065650697877207E9 ; 1.4784563905526516E9 ; 3.248353074326265E10 ; 0.0
36 ; 4.438349728757173E7 ; 1.2066015493852324E9 ; 1.5228010876928258E9 ; 3.369009581305037E10 ; 0.0
37 ; 4.4434801529857874E7 ; 1.2066391433690348E9 ; 1.5671845849803975E9 ; 3.48966973624356E10 ; 0.0
38 ; 4.44722127489606E7 ; 1.2066778231438818E9 ; 1.6116193865102553E9 ; 3.6103336505804634E10 ; 0.0
39 ; 4.450694249704223E7 ; 1.2067175601782937E9 ; 1.6560915992592158E9 ; 3.731001432894852E10 ; 0.0
40 ; 4.45410856633427E7 ; 1.2067583260639482E9 ; 1.700598541756258E9 ; 3.851673188912681E10 ; 0.0
41 ; 4.458367485383829E7 ; 1.2068000925702791E9 ; 1.7451396274196007E9 ; 3.972349021519076E10 ; 0.0
42 ; 4.461727862531556E7 ; 1.2068428316943343E9 ; 1.789723302273439E9 ; 4.093029030776104E10 ; 0.0
43 ; 4.464458732007086E7 ; 1.2068865157059908E9 ; 1.8343405808987546E9 ; 4.2137133139455376E10 ; 0.0
44 ; 4.467620778957651E7 ; 1.2069311171886559E9 ; 1.8789851682188253E9 ; 4.334401965516137E10 ; 0.0
45 ; 4.470438029336056E7 ; 1.2069766090756116E9 ; 1.9236613760084019E9 ; 4.455095077235002E10 ; 0.0
46 ; 4.473346189946105E7 ; 1.2070229646821833E9 ; 1.9683657563017623E9 ; 4.575792738142564E10 ; 0.0
47 ; 4.475626129164364E7 ; 1.207070157733925E9 ; 2.0130992182012234E9 ; 4.696495034610782E10 ; 0.0
48 ; 4.4778429946924865E7 ; 1.2071181623910406E9 ; 2.057855479492867E9 ; 4.817202050384174E10 ; 0.0
49 ; 4.4795241482511766E7 ; 1.2071669532692454E9 ; 2.102633909439792E9 ; 4.937913866623278E10 ; 0.0
50 ; 4.481324553562559E7 ; 1.207216505457307E9 ; 2.1474291509223037E9 ; 5.058630561950203E10 ; 0.0
51 ; 4.482990789016315E7 ; 1.2072667945314817E9 ; 2.192242396457929E9 ; 5.1793522124959335E10 ; 0.0
52 ; 4.484771516990896E7 ; 1.2073177965670738E9 ; 2.237072304348092E9 ; 5.3000788919490814E10 ; 0.0
53 ; 4.486494114747606E7 ; 1.2073694881473408E9 ; 2.281920019518001E9 ; 5.420810671605789E10 ; 0.0
54 ; 4.4877360957298264E7 ; 1.2074218463699632E9 ; 2.3267849606654773E9 ; 5.541547620420523E10 ; 0.0
55 ; 4.4897679535396606E7 ; 1.207474848851283E9 ; 2.3716623216227756E9 ; 5.6622898050575195E10 ; 0.0
56 ; 4.491412489541796E7 ; 1.2075284737285192E9 ; 2.416560001158172E9 ; 5.7830372899426476E10 ; 0.0
57 ; 4.492379245424486E7 ; 1.2075826996601524E9 ; 2.4614741260535903E9 ; 5.903790137315499E10 ; 0.0
58 ; 4.494332893159419E7 ; 1.2076375058246582E9 ; 2.5063979185078354E9 ; 6.024548407281514E10 ; 0.0
59 ; 4.495024844979566E7 ; 1.20769287191777E9 ; 2.5513412474394298E9 ; 6.14531215786398E10 ; 0.0
60 ; 4.496226452252908E7 ; 1.2077487781484277E9 ; 2.5962914958892255E9 ; 6.266081445055757E10 ; 0.0
61 ; 4.497915696090113E7 ; 1.207805205233569E9 ; 2.6412537604117546E9 ; 6.3868563228706E10 ; 0.0
62 ; 4.499328250651374E7 ; 1.2078621343919044E9 ; 2.686232917372656E9 ; 6.507636843393957E10 ; 0.0
63 ; 4.499440966456428E7 ; 1.207919547336808E9 ; 2.7312261998791695E9 ; 6.6284230568331474E10 ; 0.0
64 ; 4.502176282219343E7 ; 1.207977426268446E9 ; 2.7762206095437336E9 ; 6.749215011566828E10 ; 0.0
65 ; 4.503113870104571E7 ; 1.2080357538652554E9 ; 2.821242372365927E9 ; 6.870012754193673E10 ; 0.0
66 ; 4.503507671325245E7 ; 1.2080945132748723E9 ; 2.8662735110669727E9 ; 6.990816329580199E10 ; 0.0
67 ; 4.5051362357974455E7 ; 1.208153688104612E9 ; 2.9113085877802253E9 ; 7.111625780907686E10 ; 0.0
68 ; 4.506058945133212E7 ; 1.208213262411575E9 ; 2.9563599501382E9 ; 7.232441149718147E10 ; 0.0
69 ; 4.506833071922253E7 ; 1.2082732206924653E9 ; 3.001420539589532E9 ; 7.353262475959305E10 ; 0.0
70 ; 4.508104137309088E7 ; 1.2083335478731859E9 ; 3.0464888703087544E9 ; 7.47408979802855E10 ; 0.0
71 ; 4.50923300507575E7 ; 1.2083942292982767E9 ; 3.091569911681845E9 ; 7.594923152815869E10 ; 0.0
72 ; 4.5098209580248274E7 ; 1.2084552507202487E9 ; 3.1366622417326026E9 ; 7.715762575745697E10 ; 0.0
73 ; 4.5108069502671E7 ; 1.208516598288867E9 ; 3.181760451312851E9 ; 7.836608100817722E10 ; 0.0
74 ; 4.511414114843454E7 ; 1.2085782585404239E9 ; 3.226868520815522E9 ; 7.957459760646608E10 ; 0.0
75 ; 4.51165933190261E7 ; 1.2086402183870454E9 ; 3.271982661963957E9 ; 8.07831758650065E10 ; 0.0
76 ; 4.513703560545374E7 ; 1.208702465106062E9 ; 3.317099255282983E9 ; 8.199181608339354E10 ; 0.0
77 ; 4.513970194059929E7 ; 1.2087649863294756E9 ; 3.362236290888437E9 ; 8.32005185484996E10 ; 0.0
78 ; 4.5136684557762265E7 ; 1.2088277700335484E9 ; 3.407375992829036E9 ; 8.440928353482909E10 ; 0.0
79 ; 4.513125712287586E7 ; 1.2088908045285354E9 ; 3.4525126773867984E9 ; 8.561811130486264E10 ; 0.0
80 ; 4.512191320014779E7 ; 1.2089540784485826E9 ; 3.497643934509674E9 ; 8.682700210939117E10 ; 0.0
81 ; 4.5110342672743976E7 ; 1.2090175807418013E9 ; 3.5427658477098217E9 ; 8.803595618783975E10 ; 0.0
82 ; 4.5105631766005374E7 ; 1.2090813006605408E9 ; 3.5878761903825655E9 ; 8.924497376858156E10 ; 0.0
83 ; 4.509968200727676E7 ; 1.2091452277518594E9 ; 3.632981822148571E9 ; 9.04540550692421E10 ; 0.0
84 ; 4.508428832517815E7 ; 1.2092093518482146E9 ; 3.6780815041558475E9 ; 9.166320029699396E10 ; 0.0
85 ; 4.507624237393831E7 ; 1.20927366305837E9 ; 3.7231657924810257E9 ; 9.287240964884218E10 ; 0.0
86 ; 4.5066377097983934E7 ; 1.2093381517585301E9 ; 3.768242034854964E9 ; 9.408168331190054E10 ; 0.0
87 ; 4.506491116183935E7 ; 1.2094028085837014E9 ; 3.8133084119529476E9 ; 9.529102146365907E10 ; 0.0
88 ; 4.505514125475E7 ; 1.2094676244192894E9 ; 3.858373323114787E9 ; 9.650042427224277E10 ; 0.0
89 ; 4.504406778824102E7 ; 1.209532590392926E9 ; 3.903428464369537E9 ; 9.770989189666206E10 ; 0.0
90 ; 4.502994444258345E7 ; 1.2095976978665292E9 ; 3.948472532157778E9 ; 9.8919424487055E10 ; 0.0
91 ; 4.5016493609739654E7 ; 1.2096629384285989E9 ; 3.9935024766003613E9 ; 1.0012902218492152E11 ; 0.0
92 ; 4.5007242150283866E7 ; 1.2097283038867395E9 ; 4.038518970210101E9 ; 1.0133868512335013E11 ; 0.0
93 ; 4.499955513375494E7 ; 1.2097937862604127E9 ; 4.083526212360385E9 ; 1.0254841342723686E11 ; 0.0
94 ; 4.498512898001222E7 ; 1.2098593777739158E9 ; 4.1285257674941397E9 ; 1.0375820721349727E11 ; 0.0
95 ; 4.497423264944438E7 ; 1.2099250708495839E9 ; 4.173510896474152E9 ; 1.0496806659127118E11 ; 0.0
96 ; 4.496741128667733E7 ; 1.209990858101206E9 ; 4.2184851291235967E9 ; 1.0617799166212076E11 ; 0.0
97 ; 4.495034189025906E7 ; 1.2100567323276615E9 ; 4.263452540410274E9 ; 1.0738798252022197E11 ; 0.0
98 ; 4.4938756002674386E7 ; 1.2101226865067601E9 ; 4.308402882300533E9 ; 1.0859803925254964E11 ; 0.0
99 ; 4.4926638083553925E7 ; 1.2101887137892938E9 ; 4.353341638303207E9 ; 1.098081619390564E11 ; 0.0
100 ; 4.4907646632672675E7 ; 1.2102548074932833E9 ; 4.398268276386762E9 ; 1.1101835065284569E11 ; 0.0
101 ; 4.488956592019867E7 ; 1.2103209610984216E9 ; 4.443175923019434E9 ; 1.1222860546033897E11 ; 0.0
102 ; 4.488262299634542E7 ; 1.210387168240711E9 ; 4.488065488939632E9 ; 1.134389264214374E11 ; 0.0
103 ; 4.4859122744104184E7 ; 1.2104534227072797E9 ; 4.532948111935978E9 ; 1.146493135896781E11 ; 0.0
104 ; 4.484354017833462E7 ; 1.2105197184313824E9 ; 4.577807234680082E9 ; 1.1585976701238538E11 ; 0.0
105 ; 4.482930338257466E7 ; 1.2105860494875736E9 ; 4.622650774858417E9 ; 1.1707028673081676E11 ; 0.0
106 ; 4.481172903627399E7 ; 1.210652410087051E9 ; 4.667480078240992E9 ; 1.1828087278030434E11 ; 0.0
107 ; 4.480240522029936E7 ; 1.2107187945731616E9 ; 4.712291807277266E9 ; 1.1949152519039139E11 ; 0.0
108 ; 4.47791924246708E7 ; 1.2107851974170704E9 ; 4.757094212497565E9 ; 1.2070224398496455E11 ; 0.0
109 ; 4.475672767959379E7 ; 1.2108516132135777E9 ; 4.801873404922236E9 ; 1.2191302918238162E11 ; 0.0
110 ; 4.4745243788962126E7 ; 1.2109180366770911E9 ; 4.8466301326018305E9 ; 1.231238807955952E11 ; 0.0
111 ; 4.473032350758048E7 ; 1.2109844626377375E9 ; 4.891375376390793E9 ; 1.243347988322723E11 ; 0.0
112 ; 4.470500496713415E7 ; 1.2110508860376153E9 ; 4.936105699898374E9 ; 1.2554578329491003E11 ; 0.0
113 ; 4.469124102612704E7 ; 1.2111173019271827E9 ; 4.980810704865508E9 ; 1.2675683418094765E11 ; 0.0
114 ; 4.466737171038669E7 ; 1.2111837054617734E9 ; 5.025501945891635E9 ; 1.2796795148287483E11 ; 0.0
115 ; 4.4649196673698336E7 ; 1.21125009189824E9 ; 5.070169317602021E9 ; 1.2917913518833661E11 ; 0.0
116 ; 4.462664968480051E7 ; 1.2113164565917172E9 ; 5.11481851427572E9 ; 1.3039038528023485E11 ; 0.0
117 ; 4.460147013454574E7 ; 1.2113827949925008E9 ; 5.15944516396052E9 ; 1.3160170173682657E11 ; 0.0
118 ; 4.4583772390217945E7 ; 1.2114491026430418E9 ; 5.204046634095065E9 ; 1.3281308453181908E11 ; 0.0
119 ; 4.4568387578601554E7 ; 1.2115153751750479E9 ; 5.248630406485283E9 ; 1.3402453363446211E11 ; 0.0
120 ; 4.454901169333371E7 ; 1.2115816083066869E9 ; 5.293198794063885E9 ; 1.3523604900963716E11 ; 0.0
121 ; 4.451801698538362E7 ; 1.211647797839897E9 ; 5.337747805757218E9 ; 1.3644763061794385E11 ; 0.0
122 ; 4.450252442022801E7 ; 1.2117139396577878E9 ; 5.382265822742602E9 ; 1.3765927841578375E11 ; 0.0
123 ; 4.447752718434631E7 ; 1.2117800297221396E9 ; 5.42676834716283E9 ; 1.3887099235544153E11 ; 0.0
124 ; 4.445630491889374E7 ; 1.2118460640709903E9 ; 5.471245874347177E9 ; 1.4008277238516367E11 ; 0.0
125 ; 4.442717867915089E7 ; 1.211912038816311E9 ; 5.51570217926607E9 ; 1.4129461844923465E11 ; 0.0
126 ; 4.440264664329657E7 ; 1.2119779501417618E9 ; 5.560129357945221E9 ; 1.4250653048805096E11 ; 0.0
127 ; 4.438265505885413E7 ; 1.2120437943005345E9 ; 5.604532004588517E9 ; 1.4371850843819272E11 ; 0.0
128 ; 4.435716092387967E7 ; 1.2121095676132658E9 ; 5.648914659647371E9 ; 1.4493055223249326E11 ; 0.0
129 ; 4.4331415967120074E7 ; 1.2121752664660294E9 ; 5.693271820571251E9 ; 1.461426618001065E11 ; 0.0
130 ; 4.429702777111176E7 ; 1.2122408873083994E9 ; 5.737603236538371E9 ; 1.4735483706657254E11 ; 0.0
131 ; 4.426098401515272E7 ; 1.2123064266515818E9 ; 5.781900264309483E9 ; 1.4856707795388095E11 ; 0.0
132 ; 4.4220677297609255E7 ; 1.2123718810666134E9 ; 5.8261612483246355E9 ; 1.4977938438053253E11 ; 0.0
133 ; 4.418527221435535E7 ; 1.2124372471826255E9 ; 5.870381925622245E9 ; 1.5099175626159915E11 ; 0.0
134 ; 4.4149377528189994E7 ; 1.212502521685167E9 ; 5.9145671978366E9 ; 1.5220419350878177E11 ; 0.0
135 ; 4.410680759228425E7 ; 1.21256770131459E9 ; 5.95871657536479E9 ; 1.5341669603046695E11 ; 0.0
136 ; 4.406312539234959E7 ; 1.2126327828644903E9 ; 6.002823382957074E9 ; 1.5462926373178152E11 ; 0.0
137 ; 4.402617083971466E7 ; 1.2126977631802032E9 ; 6.046886508349423E9 ; 1.5584189651464603E11 ; 0.0
138 ; 4.39809687376688E7 ; 1.212762639157355E9 ; 6.090912679189138E9 ; 1.5705459427782623E11 ; 0.0
139 ; 4.3911023071551956E7 ; 1.2128274077404604E9 ; 6.134893647926807E9 ; 1.5826735691698358E11 ; 0.0
140 ; 4.3806356590413116E7 ; 1.2128920659215736E9 ; 6.17880467099836E9 ; 1.5948018432472403E11 ; 0.0
141 ; 4.370443022608561E7 ; 1.2129566107389853E9 ; 6.222611027588773E9 ; 1.606930763906456E11 ; 0.0
142 ; 4.361064636767867E7 ; 1.2130210392759643E9 ; 6.266315457814858E9 ; 1.6190603300138458E11 ; 0.0
143 ; 4.351617778230114E7 ; 1.213085348659543E9 ; 6.309926104182537E9 ; 1.6311905404066055E11 ; 0.0
144 ; 4.3410332562976465E7 ; 1.213149536059347E9 ; 6.353442281964838E9 ; 1.643321393893201E11 ; 0.0
145 ; 4.3328672985611975E7 ; 1.2132135986864629E9 ; 6.396852614527815E9 ; 1.6554528892537946E11 ; 0.0
146 ; 4.324591963303466E7 ; 1.2132775337923467E9 ; 6.440181287513427E9 ; 1.6675850252406592E11 ; 0.0
147 ; 4.315188797704021E7 ; 1.2133413386677694E9 ; 6.4834272071464615E9 ; 1.6797178005785828E11 ; 0.0
148 ; 4.3072011758495644E7 ; 1.213405010641799E9 ; 6.526579095123502E9 ; 1.6918512139652603E11 ; 0.0
149 ; 4.299122685810609E7 ; 1.2134685470808163E9 ; 6.569651106881997E9 ; 1.7039852640716782E11 ; 0.0
150 ; 4.290911431353477E7 ; 1.213531945387567E9 ; 6.612642333740103E9 ; 1.7161199495424863E11 ; 0.0
151 ; 4.282440992755022E7 ; 1.2135952030002437E9 ; 6.6555514480536375E9 ; 1.728255268996362E11 ; 0.0
152 ; 4.273357962982863E7 ; 1.2136583173916E9 ; 6.698375857981188E9 ; 1.7403912210263644E11 ; 0.0
153 ; 4.2647089437621854E7 ; 1.2137212860680938E9 ; 6.741109437611016E9 ; 1.7525278042002805E11 ; 0.0
154 ; 4.256896534654358E7 ; 1.2137841065690627E9 ; 6.783756527048638E9 ; 1.7646650170609613E11 ; 0.0
155 ; 4.2479093879480876E7 ; 1.213846776465923E9 ; 6.826325492395182E9 ; 1.776802858126652E11 ; 0.0
156 ; 4.239976759184388E7 ; 1.213909293361398E9 ; 6.868804586274663E9 ; 1.788941325891311E11 ; 0.0
157 ; 4.231593184957987E7 ; 1.2139716548887722E9 ; 6.911204353866507E9 ; 1.801080418824925E11 ; 0.0
158 ; 4.223397432456635E7 ; 1.2140338587111702E9 ; 6.953520285716086E9 ; 1.8132201353738126E11 ; 0.0
159 ; 4.214191651690849E7 ; 1.2140959025208597E9 ; 6.995754260040652E9 ; 1.8253604739609244E11 ; 0.0
160 ; 4.205579147535487E7 ; 1.214157784038577E9 ; 7.037896176557561E9 ; 1.837501432986133E11 ; 0.0
161 ; 4.196773905199469E7 ; 1.2142195010128763E9 ; 7.079951968032916E9 ; 1.849643010826519E11 ; 0.0
162 ; 4.188726190885081E7 ; 1.2142810512194982E9 ; 7.12191970708491E9 ; 1.8617852058366476E11 ; 0.0
163 ; 4.179785153317943E7 ; 1.2143424324607632E9 ; 7.163806968993761E9 ; 1.8739280163488428E11 ; 0.0
164 ; 4.171450045502326E7 ; 1.2144036425649805E9 ; 7.20560482052694E9 ; 1.8860714406734503E11 ; 0.0
165 ; 4.162893898852704E7 ; 1.214464679385879E9 ; 7.247319320981963E9 ; 1.8982154770991E11 ; 0.0
166 ; 4.153865796977504E7 ; 1.2145255408020566E9 ; 7.28894825997049E9 ; 1.9103601238929587E11 ; 0.0
167 ; 4.145563354808128E7 ; 1.214586224716446E9 ; 7.330486917940266E9 ; 1.9225053793009793E11 ; 0.0
168 ; 4.137153147525537E7 ; 1.2146467290558004E9 ; 7.371942551488347E9 ; 1.934651241548144E11 ; 0.0
169 ; 4.127685288406879E7 ; 1.2147070517701945E9 ; 7.413314082963602E9 ; 1.9467977088387018E11 ; 0.0
170 ; 4.119674456240874E7 ; 1.2147671908325408E9 ; 7.454590935847671E9 ; 1.9589447793564038E11 ; 0.0
171 ; 4.110546296870125E7 ; 1.2148271442381217E9 ; 7.495787680410079E9 ; 1.9710924512647293E11 ; 0.0
172 ; 4.10162063666946E7 ; 1.214886910004141E9 ; 7.53689314337878E9 ; 1.9832407227071106E11 ; 0.0
173 ; 4.093606393101117E7 ; 1.214946486169282E9 ; 7.577909349745475E9 ; 1.995389591807152E11 ; 0.0
174 ; 4.0854314711156964E7 ; 1.2150058707932873E9 ; 7.618845413676486E9 ; 2.007539056668845E11 ; 0.0
175 ; 4.0779112195256755E7 ; 1.2150650619565465E9 ; 7.659699728387643E9 ; 2.0196891153767776E11 ; 0.0
176 ; 4.0707556568414725E7 ; 1.2151240577597013E9 ; 7.7004788405829E9 ; 2.031839765996343E11 ; 0.0
177 ; 4.063393473085627E7 ; 1.2151828563232594E9 ; 7.741186397151315E9 ; 2.04399100657394E11 ; 0.0
178 ; 4.055694522604284E7 ; 1.2152414557872236E9 ; 7.781820331882171E9 ; 2.056142835137173E11 ; 0.0
179 ; 4.0480265918114446E7 ; 1.215299854310732E9 ; 7.822377277108213E9 ; 2.0682952496950452E11 ; 0.0
180 ; 4.0408110805838734E7 ; 1.2153580500717065E9 ; 7.862857543026328E9 ; 2.0804482482381525E11 ; 0.0
181 ; 4.033001358432224E7 ; 1.215416041266519E9 ; 7.903265653832167E9 ; 2.0926018287388696E11 ; 0.0
182 ; 4.0255972801812E7 ; 1.2154738261096606E9 ; 7.943595667416489E9 ; 2.1047559891515347E11 ; 0.0
183 ; 4.018358212022725E7 ; 1.2155314028334258E9 ; 7.983851640218301E9 ; 2.1169107274126312E11 ; 0.0
184 ; 4.010777830803385E7 ; 1.215588769687606E9 ; 8.024035222338528E9 ; 2.1290660414409656E11 ; 0.0
185 ; 4.002615345812324E7 ; 1.2156459249391918E9 ; 8.064143000646562E9 ; 2.1412219291378415E11 ; 0.0
186 ; 3.9952415343794145E7 ; 1.2157028668720837E9 ; 8.104169154104685E9 ; 2.1533783883872333E11 ; 0.0
187 ; 3.986516849737953E7 ; 1.2157595937868135E9 ; 8.144121569448479E9 ; 2.165535417055954E11 ; 0.0
188 ; 3.979936311610854E7 ; 1.2158161040002744E9 ; 8.183986737945858E9 ; 2.177693012993822E11 ; 0.0
189 ; 3.9723865723836415E7 ; 1.2158723958454583E9 ; 8.223786101061967E9 ; 2.1898511740338248E11 ; 0.0
190 ; 3.9652442085959844E7 ; 1.2159284676712008E9 ; 8.263509966785803E9 ; 2.2020098979922794E11 ; 0.0
191 ; 3.9572043791352026E7 ; 1.2159843178419356E9 ; 8.303162408871762E9 ; 2.2141691826689914E11 ; 0.0
192 ; 3.949842775710325E7 ; 1.2160399447374566E9 ; 8.342734452663115E9 ; 2.226329025847411E11 ; 0.0
193 ; 3.9424018842255875E7 ; 1.2160953467526844E9 ; 8.3822328804202175E9 ; 2.2384894252947855E11 ; 0.0
194 ; 3.9350049220161706E7 ; 1.2161505222974443E9 ; 8.421656899262473E9 ; 2.2506503787623123E11 ; 0.0
195 ; 3.9274748464453295E7 ; 1.2162054697962472E9 ; 8.461006948482635E9 ; 2.262811883985287E11 ; 0.0
196 ; 3.920147800550799E7 ; 1.2162601876880794E9 ; 8.500281696947088E9 ; 2.2749739386832492E11 ; 0.0
197 ; 3.912209705256739E7 ; 1.2163146744261975E9 ; 8.539483174952597E9 ; 2.28713654056013E11 ; 0.0
