CSV File for the Network on Day 348
1 - Minute m 
2 - Power Consumed at minute m 
3 - Power Produced at minute m 
4 - Energy Consumed since the beginning of the day 
5 - Energy Produced since the beginning of the day 
6 - Energy Lost since the beginning of the day 
 
0 ; 3.860672045603028E7 ; 6.355173515763077E8 ; 0.0 ; 0.0 ; 0.0
1 ; 3.865419542387759E7 ; 6.36428300426284E8 ; 3.860672045603028E7 ; 6.355173515763077E8 ; 0.0
2 ; 3.869757877172184E7 ; 6.391926325276223E8 ; 7.726091587990788E7 ; 1.2719456520025916E9 ; 0.0
3 ; 3.874653776727591E7 ; 6.438103626083173E8 ; 1.1595849465162972E8 ; 1.9111382845302138E9 ; 0.0
4 ; 3.879278028832497E7 ; 6.50281503847059E8 ; 1.5470503241890562E8 ; 2.554948647138531E9 ; 0.0
5 ; 3.886221544849598E7 ; 6.586060678070815E8 ; 1.9349781270723057E8 ; 3.20523015098559E9 ; 0.0
6 ; 3.896215126975033E7 ; 6.687840643771186E8 ; 2.3236002815572655E8 ; 3.863836218792671E9 ; 0.0
7 ; 3.909268299953695E7 ; 6.808155017201661E8 ; 2.713221794254769E8 ; 4.53262028316979E9 ; 0.0
8 ; 3.927484361049828E7 ; 6.94700386230667E8 ; 3.1041486242501384E8 ; 5.213435784889956E9 ; 0.0
9 ; 3.955006278261506E7 ; 7.104387225006436E8 ; 3.496897060355121E8 ; 5.908136171120624E9 ; 0.0
10 ; 3.9996881512618266E7 ; 7.280305132951967E8 ; 3.8923976881812716E8 ; 6.618574893621267E9 ; 0.0
11 ; 4.0682371846900396E7 ; 7.474757595376807E8 ; 4.292366503307454E8 ; 7.346605406916464E9 ; 0.0
12 ; 4.178012128033553E7 ; 7.687744603047413E8 ; 4.699190221776458E8 ; 8.0940811664541445E9 ; 0.0
13 ; 4.285188496306087E7 ; 7.919266128312771E8 ; 5.1169914345798135E8 ; 8.862855626758886E9 ; 0.0
14 ; 4.298054918881223E7 ; 8.169322125252669E8 ; 5.545510284210422E8 ; 9.654782239590164E9 ; 0.0
15 ; 4.302551206147974E7 ; 8.437912529922667E8 ; 5.975315776098545E8 ; 1.047171445211543E10 ; 0.0
16 ; 4.307359383273207E7 ; 8.725037260692812E8 ; 6.405570896713341E8 ; 1.1315505705107697E10 ; 0.0
17 ; 4.3124863565779194E7 ; 9.030696218675765E8 ; 6.836306835040662E8 ; 1.2188009431176977E10 ; 0.0
18 ; 4.3179998280624464E7 ; 9.354889288239188E8 ; 7.267555470698454E8 ; 1.3091079053044554E10 ; 0.0
19 ; 4.3233360938973084E7 ; 9.697616337596172E8 ; 7.6993554535047E8 ; 1.4026567981868473E10 ; 0.0
20 ; 4.328139607865241E7 ; 1.0058877219466778E9 ; 8.13168906289443E8 ; 1.499632961562809E10 ; 0.0
21 ; 4.3331401333277956E7 ; 1.0438671771803031E9 ; 8.564503023680954E8 ; 1.6002217337574768E10 ; 0.0
22 ; 4.3383140501437746E7 ; 1.083699981856932E9 ; 8.997817037013733E8 ; 1.7046084514755072E10 ; 0.0
23 ; 4.3436553506909475E7 ; 1.1253861170569713E9 ; 9.431648442028111E8 ; 1.8129784496612003E10 ; 0.0
24 ; 4.348464104135367E7 ; 1.1689255626313567E9 ; 9.866013977097206E8 ; 1.9255170613668976E10 ; 0.0
25 ; 4.3532704178906046E7 ; 1.2064465426801813E9 ; 1.0300860387510743E9 ; 2.042409617630033E10 ; 0.0
26 ; 4.358880728007555E7 ; 1.2064703218657007E9 ; 1.0736187429299804E9 ; 2.163054271898051E10 ; 0.0
27 ; 4.363545564573631E7 ; 1.2064954926546621E9 ; 1.1172075502100558E9 ; 2.283701304084621E10 ; 0.0
28 ; 4.369054090777227E7 ; 1.2065220308923273E9 ; 1.160843005855792E9 ; 2.4043508533500874E10 ; 0.0
29 ; 4.373333118017642E7 ; 1.2065499116550572E9 ; 1.2045335467635643E9 ; 2.52500305643932E10 ; 0.0
30 ; 4.37791355767872E7 ; 1.206579109342456E9 ; 1.2482668779437408E9 ; 2.6456580476048256E10 ; 0.0
31 ; 4.3824732710755184E7 ; 1.206609597767908E9 ; 1.292046013520528E9 ; 2.7663159585390713E10 ; 0.0
32 ; 4.387570019823264E7 ; 1.2066413502469273E9 ; 1.3358707462312832E9 ; 2.8869769183158623E10 ; 0.0
33 ; 4.391521996272759E7 ; 1.2066743396828191E9 ; 1.3797464464295158E9 ; 3.007641053340555E10 ; 0.0
34 ; 4.396246775288422E7 ; 1.2067085386492167E9 ; 1.4236616663922434E9 ; 3.1283084873088367E10 ; 0.0
35 ; 4.400014623999648E7 ; 1.2067439194691153E9 ; 1.4676241341451275E9 ; 3.2489793411737583E10 ; 0.0
36 ; 4.404763151956573E7 ; 1.206780454290113E9 ; 1.511624280385124E9 ; 3.36965373312067E10 ; 0.0
37 ; 4.408058552658454E7 ; 1.2068181151556144E9 ; 1.5556719119046898E9 ; 3.490331778549681E10 ; 0.0
38 ; 4.412181143727405E7 ; 1.2068568740718257E9 ; 1.5997524974312744E9 ; 3.611013590065243E10 ; 0.0
39 ; 4.415411274874802E7 ; 1.2068967030704207E9 ; 1.6438743088685484E9 ; 3.731699277472425E10 ; 0.0
40 ; 4.419716201148657E7 ; 1.2069375742668169E9 ; 1.6880284216172965E9 ; 3.852388947779467E10 ; 0.0
41 ; 4.42235846040348E7 ; 1.206979459914044E9 ; 1.732225583628783E9 ; 3.9730827052061485E10 ; 0.0
42 ; 4.4256283412333995E7 ; 1.2070223324522305E9 ; 1.776449168232818E9 ; 4.093780651197553E10 ; 0.0
43 ; 4.427798406933909E7 ; 1.207066164553775E9 ; 1.8207054516451519E9 ; 4.2144828844427765E10 ; 0.0
44 ; 4.430578115593683E7 ; 1.2071109291642992E9 ; 1.864983435714491E9 ; 4.335189500898154E10 ; 0.0
45 ; 4.4333826846130535E7 ; 1.207156599539505E9 ; 1.9092892168704276E9 ; 4.4559005938145836E10 ; 0.0
46 ; 4.435696074311738E7 ; 1.2072031492780876E9 ; 1.9536230437165582E9 ; 4.576616253768534E10 ; 0.0
47 ; 4.438210187813765E7 ; 1.2072505523508654E9 ; 1.9979800044596756E9 ; 4.6973365686963425E10 ; 0.0
48 ; 4.439803886807685E7 ; 1.2072987831263127E9 ; 2.0423621063378131E9 ; 4.818061623931429E10 ; 0.0
49 ; 4.44204885582711E7 ; 1.2073478163926833E9 ; 2.08676014520589E9 ; 4.9387915022440605E10 ; 0.0
50 ; 4.4436901108877786E7 ; 1.2073976273769178E9 ; 2.131180633764161E9 ; 5.059526283883329E10 ; 0.0
51 ; 4.445819608752389E7 ; 1.2074481917605462E9 ; 2.175617534873039E9 ; 5.1802660466210205E10 ; 0.0
52 ; 4.446493687905286E7 ; 1.207499485692779E9 ; 2.2200757309605627E9 ; 5.301010865797075E10 ; 0.0
53 ; 4.447054600998205E7 ; 1.2075514858009944E9 ; 2.2645406678396153E9 ; 5.421760814366353E10 ; 0.0
54 ; 4.449139404179754E7 ; 1.2076041691988163E9 ; 2.3090112138495975E9 ; 5.542515962946452E10 ; 0.0
55 ; 4.450559374114426E7 ; 1.2076575134919798E9 ; 2.353502607891395E9 ; 5.663276379866334E10 ; 0.0
56 ; 4.451313424929068E7 ; 1.2077114967821724E9 ; 2.3980082016325393E9 ; 5.784042131215532E10 ; 0.0
57 ; 4.4525080843322955E7 ; 1.207766097669028E9 ; 2.4425213358818297E9 ; 5.904813280893749E10 ; 0.0
58 ; 4.454495568125213E7 ; 1.207821295250452E9 ; 2.4870464167251525E9 ; 6.025589890660652E10 ; 0.0
59 ; 4.454465194971497E7 ; 1.207877069121436E9 ; 2.5315913724064045E9 ; 6.146372020185697E10 ; 0.0
60 ; 4.455757463158848E7 ; 1.207933399371525E9 ; 2.5761360243561196E9 ; 6.267159727097841E10 ; 0.0
61 ; 4.45705450652286E7 ; 1.2079902665810761E9 ; 2.620693598987708E9 ; 6.387953067034994E10 ; 0.0
62 ; 4.457965032424489E7 ; 1.208047651816453E9 ; 2.6652641440529366E9 ; 6.5087520936931015E10 ; 0.0
63 ; 4.458783410373514E7 ; 1.2081055366242764E9 ; 2.7098437943771815E9 ; 6.629556858874747E10 ; 0.0
64 ; 4.459938853297213E7 ; 1.2081639030248594E9 ; 2.7544316284809165E9 ; 6.750367412537174E10 ; 0.0
65 ; 4.4603276958518334E7 ; 1.208222733504928E9 ; 2.799031017013889E9 ; 6.87118380283966E10 ; 0.0
66 ; 4.4609009798888415E7 ; 1.2082820110097358E9 ; 2.8436342939724073E9 ; 6.992006076190152E10 ; 0.0
67 ; 4.462126236761838E7 ; 1.2083417189346607E9 ; 2.8882433037712955E9 ; 7.112834277291125E10 ; 0.0
68 ; 4.463158914436252E7 ; 1.208401841116374E9 ; 2.932864566138914E9 ; 7.233668449184592E10 ; 0.0
69 ; 4.463994905306644E7 ; 1.2084623618236556E9 ; 2.9774961552832766E9 ; 7.35450863329623E10 ; 0.0
70 ; 4.46478983099557E7 ; 1.208523265747929E9 ; 3.022136104336343E9 ; 7.475354869478595E10 ; 0.0
71 ; 4.465153478927009E7 ; 1.2085845379935765E9 ; 3.0667840026462984E9 ; 7.596207196053387E10 ; 0.0
72 ; 4.4656880059748694E7 ; 1.2086461640680978E9 ; 3.1114355374355683E9 ; 7.717065649852745E10 ; 0.0
73 ; 4.4662926405467935E7 ; 1.208708129872158E9 ; 3.156092417495317E9 ; 7.837930266259555E10 ; 0.0
74 ; 4.466849121058637E7 ; 1.2087704216895769E9 ; 3.200755343900785E9 ; 7.958801079246771E10 ; 0.0
75 ; 4.467632350088224E7 ; 1.2088330261772947E9 ; 3.2454238351113715E9 ; 8.079678121415729E10 ; 0.0
76 ; 4.467470616748583E7 ; 1.2088959303553586E9 ; 3.2901001586122537E9 ; 8.200561424033458E10 ; 0.0
77 ; 4.4676977637054354E7 ; 1.208959121596954E9 ; 3.3347748647797394E9 ; 8.321451017068994E10 ; 0.0
78 ; 4.467016373336305E7 ; 1.209022587618517E9 ; 3.379451842416794E9 ; 8.44234692922869E10 ; 0.0
79 ; 4.466255491909252E7 ; 1.2090863164699454E9 ; 3.424122006150157E9 ; 8.563249187990541E10 ; 0.0
80 ; 4.465414028014586E7 ; 1.209150296524938E9 ; 3.4687845610692496E9 ; 8.684157819637535E10 ; 0.0
81 ; 4.464009840100097E7 ; 1.2092145164714708E9 ; 3.5134387013493953E9 ; 8.805072849290028E10 ; 0.0
82 ; 4.4633147801740296E7 ; 1.2092789653024354E9 ; 3.5580787997503963E9 ; 8.925994300937175E10 ; 0.0
83 ; 4.462069901457229E7 ; 1.2093436323064456E9 ; 3.6027119475521364E9 ; 9.046922197467418E10 ; 0.0
84 ; 4.461020543892427E7 ; 1.2094085070588279E9 ; 3.6473326465667086E9 ; 9.167856560698062E10 ; 0.0
85 ; 4.459184063969223E7 ; 1.2094735794128032E9 ; 3.691942852005633E9 ; 9.288797411403944E10 ; 0.0
86 ; 4.458066618470587E7 ; 1.2095388394908655E9 ; 3.736534692645325E9 ; 9.409744769345224E10 ; 0.0
87 ; 4.456878745155721E7 ; 1.2096042776763659E9 ; 3.781115358830031E9 ; 9.53069865329431E10 ; 0.0
88 ; 4.455516825440971E7 ; 1.2096698846053045E9 ; 3.825684146281588E9 ; 9.651659081061946E10 ; 0.0
89 ; 4.454183225669938E7 ; 1.2097356511583326E9 ; 3.870239314535998E9 ; 9.772626069522476E10 ; 0.0
90 ; 4.45298914733853E7 ; 1.2098015684529684E9 ; 3.9147811467926974E9 ; 9.893599634638309E10 ; 0.0
91 ; 4.451276267710007E7 ; 1.2098676278360262E9 ; 3.959311038266083E9 ; 1.0014579791483606E11 ; 0.0
92 ; 4.449600813991585E7 ; 1.2099338208762586E9 ; 4.003823800943183E9 ; 1.0135566554267209E11 ; 0.0
93 ; 4.4485151639490224E7 ; 1.21000013935721E9 ; 4.048319809083099E9 ; 1.0256559936354834E11 ; 0.0
94 ; 4.446711462510495E7 ; 1.210066575270283E9 ; 4.092804960722589E9 ; 1.0377559950290555E11 ; 0.0
95 ; 4.445966389988002E7 ; 1.2101331208080125E9 ; 4.137272075347694E9 ; 1.0498566607817583E11 ; 0.0
96 ; 4.4435202839833416E7 ; 1.2101997683575442E9 ; 4.181731739247574E9 ; 1.0619579919898384E11 ; 0.0
97 ; 4.441654885420486E7 ; 1.2102665104943187E9 ; 4.226166942087407E9 ; 1.0740599896734138E11 ; 0.0
98 ; 4.439766415763126E7 ; 1.2103333399759526E9 ; 4.270583490941612E9 ; 1.0861626547783571E11 ; 0.0
99 ; 4.4388564300815254E7 ; 1.2104002497363162E9 ; 4.314981155099243E9 ; 1.0982659881781166E11 ; 0.0
100 ; 4.436299928107895E7 ; 1.2104672328798018E9 ; 4.359369719400059E9 ; 1.1103699906754797E11 ; 0.0
101 ; 4.435076327948098E7 ; 1.210534282675781E9 ; 4.403732718681138E9 ; 1.1224746630042778E11 ; 0.0
102 ; 4.4331672472818725E7 ; 1.2106013925532444E9 ; 4.448083481960619E9 ; 1.1345800058310356E11 ; 0.0
103 ; 4.431139480271309E7 ; 1.2106685560956173E9 ; 4.492415154433437E9 ; 1.146686019756568E11 ; 0.0
104 ; 4.429131144440389E7 ; 1.2107357670357528E9 ; 4.536726549236151E9 ; 1.1587927053175241E11 ; 0.0
105 ; 4.42700499457956E7 ; 1.2108030192510924E9 ; 4.581017860680554E9 ; 1.1709000629878816E11 ; 0.0
106 ; 4.424737067664237E7 ; 1.2108703067589917E9 ; 4.62528791062635E9 ; 1.1830080931803926E11 ; 0.0
107 ; 4.4230808112091295E7 ; 1.210937623712204E9 ; 4.669535281302993E9 ; 1.1951167962479825E11 ; 0.0
108 ; 4.4204017986132786E7 ; 1.211004964394523E9 ; 4.713766089415084E9 ; 1.2072261724851045E11 ; 0.0
109 ; 4.418764164021997E7 ; 1.2110723232165709E9 ; 4.7579701074012165E9 ; 1.2193362221290497E11 ; 0.0
110 ; 4.416591249948241E7 ; 1.211139694711738E9 ; 4.802157749041436E9 ; 1.2314469453612154E11 ; 0.0
111 ; 4.4143832569052905E7 ; 1.21120707353226E9 ; 4.846323661540918E9 ; 1.2435583423083327E11 ; 0.0
112 ; 4.412220185379811E7 ; 1.2112744544454312E9 ; 4.890467494109971E9 ; 1.2556704130436552E11 ; 0.0
113 ; 4.4093935172019556E7 ; 1.2113418323299549E9 ; 4.934589695963769E9 ; 1.2677831575881096E11 ; 0.0
114 ; 4.407168021967063E7 ; 1.2114092021724176E9 ; 4.978683631135789E9 ; 1.2798965759114091E11 ; 0.0
115 ; 4.4049779710473E7 ; 1.211476559063889E9 ; 5.022755311355459E9 ; 1.2920106679331334E11 ; 0.0
116 ; 4.40264387213E7 ; 1.2115438981966405E9 ; 5.066805091065932E9 ; 1.3041254335237723E11 ; 0.0
117 ; 4.399340910832689E7 ; 1.2116112148609815E9 ; 5.110831529787232E9 ; 1.3162408725057387E11 ; 0.0
118 ; 4.397160585063277E7 ; 1.211678504442205E9 ; 5.154824938895559E9 ; 1.3283569846543484E11 ; 0.0
119 ; 4.3947635396599814E7 ; 1.2117457624176435E9 ; 5.198796544746192E9 ; 1.3404737696987704E11 ; 0.0
120 ; 4.391298971219629E7 ; 1.2118129843538265E9 ; 5.242744180142792E9 ; 1.352591227322947E11 ; 0.0
121 ; 4.389116876100649E7 ; 1.21188016590374E9 ; 5.286657169854988E9 ; 1.3647093571664851E11 ; 0.0
122 ; 4.387145928595076E7 ; 1.2119473028041832E9 ; 5.330548338615994E9 ; 1.3768281588255225E11 ; 0.0
123 ; 4.383771085090023E7 ; 1.2120143908732178E9 ; 5.374419797901945E9 ; 1.388947631853564E11 ; 0.0
124 ; 4.381205058318124E7 ; 1.2120814260077078E9 ; 5.418257508752846E9 ; 1.4010677757622964E11 ; 0.0
125 ; 4.378479123398256E7 ; 1.2121484041809468E9 ; 5.462069559336027E9 ; 1.4131885900223737E11 ; 0.0
126 ; 4.375572956818183E7 ; 1.2122153214403675E9 ; 5.505854350570009E9 ; 1.425310074064183E11 ; 0.0
127 ; 4.371776002673311E7 ; 1.2122821739053352E9 ; 5.549610080138191E9 ; 1.4374322272785867E11 ; 0.0
128 ; 4.369667530707743E7 ; 1.2123489577650144E9 ; 5.593327840164925E9 ; 1.44955504901764E11 ; 0.0
129 ; 4.366694794035577E7 ; 1.2124156692763162E9 ; 5.637024515472002E9 ; 1.4616785385952902E11 ; 0.0
130 ; 4.3626941582357295E7 ; 1.2124823047619133E9 ; 5.680691463412357E9 ; 1.4738026952880533E11 ; 0.0
131 ; 4.358616905963104E7 ; 1.2125488606083255E9 ; 5.724318404994715E9 ; 1.4859275183356723E11 ; 0.0
132 ; 4.35474116881066E7 ; 1.2126153332640767E9 ; 5.767904574054346E9 ; 1.4980530069417557E11 ; 0.0
133 ; 4.350181515454434E7 ; 1.2126817192379103E9 ; 5.811451985742453E9 ; 1.5101791602743964E11 ; 0.0
134 ; 4.345590364633796E7 ; 1.21274801509707E9 ; 5.8549538008969965E9 ; 1.5223059774667755E11 ; 0.0
135 ; 4.34022033179802E7 ; 1.212814217465643E9 ; 5.898409704543334E9 ; 1.5344334576177463E11 ; 0.0
136 ; 4.337029209301971E7 ; 1.212880323022956E9 ; 5.941811907861314E9 ; 1.5465615997924026E11 ; 0.0
137 ; 4.331722745827288E7 ; 1.2129463285020308E9 ; 5.985182199954333E9 ; 1.558690403022632E11 ; 0.0
138 ; 4.32752517233485E7 ; 1.2130122306880927E9 ; 6.028499427412606E9 ; 1.5708198663076526E11 ; 0.0
139 ; 4.322883489435038E7 ; 1.2130780264171293E9 ; 6.071774679135955E9 ; 1.5829499886145334E11 ; 0.0
140 ; 4.31837909239083E7 ; 1.2131437125745008E9 ; 6.115003514030305E9 ; 1.5950807688787045E11 ; 0.0
141 ; 4.312500079238196E7 ; 1.2132092860935974E9 ; 6.158187304954213E9 ; 1.6072122060044495E11 ; 0.0
142 ; 4.3083086285041496E7 ; 1.2132747439545443E9 ; 6.201312305746595E9 ; 1.6193442988653854E11 ; 0.0
143 ; 4.302861326448084E7 ; 1.2133400831829479E9 ; 6.244395392031637E9 ; 1.631477046304931E11 ; 0.0
144 ; 4.298832903610892E7 ; 1.213405300848689E9 ; 6.287424005296118E9 ; 1.6436104471367606E11 ; 0.0
145 ; 4.2951808519135915E7 ; 1.213470394064756E9 ; 6.330412334332227E9 ; 1.6557445001452475E11 ; 0.0
146 ; 4.292180921195494E7 ; 1.2135353599861155E9 ; 6.373364142851362E9 ; 1.667879204085895E11 ; 0.0
147 ; 4.2885950424686395E7 ; 1.213600195808625E9 ; 6.416285952063317E9 ; 1.6800145576857562E11 ; 0.0
148 ; 4.2860078688163E7 ; 1.2136648987679803E9 ; 6.459171902488004E9 ; 1.6921505596438425E11 ; 0.0
149 ; 4.2826402439611696E7 ; 1.2137294661386998E9 ; 6.502031981176167E9 ; 1.7042872086315222E11 ; 0.0
150 ; 4.279228087687795E7 ; 1.2137938952331407E9 ; 6.544858383615778E9 ; 1.7164245032929092E11 ; 0.0
151 ; 4.2758538848673195E7 ; 1.2138581834005535E9 ; 6.587650664492656E9 ; 1.7285624422452408E11 ; 0.0
152 ; 4.27292939692781E7 ; 1.2139223280261617E9 ; 6.630409203341329E9 ; 1.7407010240792462E11 ; 0.0
153 ; 4.269453913941972E7 ; 1.2139863265302775E9 ; 6.673138497310607E9 ; 1.7528402473595078E11 ; 0.0
154 ; 4.2661820387852505E7 ; 1.2140501763674455E9 ; 6.7158330364500265E9 ; 1.7649801106248105E11 ; 0.0
155 ; 4.262462318122034E7 ; 1.2141138750256135E9 ; 6.758494856837879E9 ; 1.7771206123884848E11 ; 0.0
156 ; 4.258903028462225E7 ; 1.214177420025334E9 ; 6.801119480019099E9 ; 1.7892617511387408E11 ; 0.0
157 ; 4.255859869508709E7 ; 1.2142408089189882E9 ; 6.843708510303721E9 ; 1.801403525338994E11 ; 0.0
158 ; 4.252497085393646E7 ; 1.2143040392900405E9 ; 6.886267108998809E9 ; 1.813545933428184E11 ; 0.0
159 ; 4.249132689380121E7 ; 1.2143671087523131E9 ; 6.928792079852745E9 ; 1.8256889738210843E11 ; 0.0
160 ; 4.245450602513078E7 ; 1.2144300149492874E9 ; 6.971283406746546E9 ; 1.8378326449086075E11 ; 0.0
161 ; 4.242440653976327E7 ; 1.2144927555534272E9 ; 7.013737912771677E9 ; 1.8499769450581003E11 ; 0.0
162 ; 4.2390057577279255E7 ; 1.214555328265525E9 ; 7.05616231931144E9 ; 1.8621218726136346E11 ; 0.0
163 ; 4.235547449670586E7 ; 1.2146177308140678E9 ; 7.09855237688872E9 ; 1.87426742589629E11 ; 0.0
164 ; 4.231810066791022E7 ; 1.2146799609546256E9 ; 7.140907851385426E9 ; 1.8864136032044305E11 ; 0.0
165 ; 4.228772628308297E7 ; 1.2147420164692593E9 ; 7.183225952053336E9 ; 1.8985604028139767E11 ; 0.0
166 ; 4.224789384330976E7 ; 1.2148038951659462E9 ; 7.225513678336419E9 ; 1.9107078229786694E11 ; 0.0
167 ; 4.2214199353251405E7 ; 1.2148655948780274E9 ; 7.2677615721797285E9 ; 1.922855861930329E11 ; 0.0
168 ; 4.2173870652715445E7 ; 1.2149271134636688E9 ; 7.30997577153298E9 ; 1.9350045178791092E11 ; 0.0
169 ; 4.213950859279935E7 ; 1.2149884488053436E9 ; 7.352149642185696E9 ; 1.9471537890137457E11 ; 0.0
170 ; 4.2101249726505175E7 ; 1.2150495988093283E9 ; 7.394289150778495E9 ; 1.9593036735017993E11 ; 0.0
171 ; 4.206662751404369E7 ; 1.2151105614052162E9 ; 7.436390400505E9 ; 1.9714541694898926E11 ; 0.0
172 ; 4.203113753838113E7 ; 1.2151713345454469E9 ; 7.478457028019044E9 ; 1.9836052751039447E11 ; 0.0
173 ; 4.19941647718925E7 ; 1.2152319162048495E9 ; 7.5204881655574255E9 ; 1.995756988449399E11 ; 0.0
174 ; 4.197586165942423E7 ; 1.2152923043802009E9 ; 7.562482330329318E9 ; 2.0079093076114478E11 ; 0.0
175 ; 4.195870874099414E7 ; 1.2153524970897987E9 ; 7.604458191988742E9 ; 2.0200622306552496E11 ; 0.0
176 ; 4.193014175246163E7 ; 1.2154124923730476E9 ; 7.646416900729736E9 ; 2.0322157556261478E11 ; 0.0
177 ; 4.191164898861142E7 ; 1.2154722882900562E9 ; 7.688347042482198E9 ; 2.0443698805498782E11 ; 0.0
178 ; 4.1887363288657285E7 ; 1.2155318829212515E9 ; 7.730258691470809E9 ; 2.056524603432779E11 ; 0.0
179 ; 4.186727274833162E7 ; 1.215591274367E9 ; 7.772146054759466E9 ; 2.0686799222619916E11 ; 0.0
180 ; 4.184342879776017E7 ; 1.2156504607472453E9 ; 7.814013327507798E9 ; 2.0808358350056616E11 ; 0.0
181 ; 4.18207644567706E7 ; 1.2157094402011535E9 ; 7.855856756305558E9 ; 2.0929923396131342E11 ; 0.0
182 ; 4.179502630777751E7 ; 1.2157682108867726E9 ; 7.897677520762329E9 ; 2.1051494340151456E11 ; 0.0
183 ; 4.177911229009537E7 ; 1.2158267709806995E9 ; 7.9394725470701065E9 ; 2.1173071161240134E11 ; 0.0
184 ; 4.175393544810162E7 ; 1.2158851186777601E9 ; 7.981251659360202E9 ; 2.1294653838338205E11 ; 0.0
185 ; 4.173131528330918E7 ; 1.2159432521906981E9 ; 8.023005594808304E9 ; 2.141624235020598E11 ; 0.0
186 ; 4.171105393150611E7 ; 1.2160011697498722E9 ; 8.064736910091613E9 ; 2.1537836675425052E11 ; 0.0
187 ; 4.16881178990412E7 ; 1.2160588696029654E9 ; 8.106447964023119E9 ; 2.165943679240004E11 ; 0.0
188 ; 4.166724547955996E7 ; 1.2161163500147004E9 ; 8.14813608192216E9 ; 2.1781042679360336E11 ; 0.0
189 ; 4.163853785083952E7 ; 1.2161736092665656E9 ; 8.18980332740172E9 ; 2.1902654314361807E11 ; 0.0
190 ; 4.1620769121679455E7 ; 1.216230645656549E9 ; 8.23144186525256E9 ; 2.2024271675288464E11 ; 0.0
191 ; 4.158931243264217E7 ; 1.21628745749888E9 ; 8.273062634374239E9 ; 2.214589473985412E11 ; 0.0
192 ; 4.1574624333712555E7 ; 1.216344043123779E9 ; 8.314651946806881E9 ; 2.2267523485604007E11 ; 0.0
193 ; 4.154342864725941E7 ; 1.216400400877215E9 ; 8.356226571140594E9 ; 2.2389157889916385E11 ; 0.0
194 ; 4.152468669798709E7 ; 1.2164565291206706E9 ; 8.397769999787853E9 ; 2.2510797930004108E11 ; 0.0
195 ; 4.150989221481776E7 ; 1.2165124262309132E9 ; 8.439294686485841E9 ; 2.2632443582916174E11 ; 0.0
196 ; 4.148307500732772E7 ; 1.2165680905997748E9 ; 8.480804578700659E9 ; 2.2754094825539267E11 ; 0.0
