CSV File for the Network on Day 66
1 - Minute m 
2 - Power Consumed at minute m 
3 - Power Produced at minute m 
4 - Energy Consumed since the beginning of the day 
5 - Energy Produced since the beginning of the day 
6 - Energy Lost since the beginning of the day 
 
0 ; 3.846048263627786E7 ; 6.343356911898538E8 ; 0.0 ; 0.0 ; 0.0
1 ; 3.84971446856917E7 ; 6.35245821753851E8 ; 3.846048263627786E7 ; 6.343356911898538E8 ; 0.0
2 ; 3.854201491395417E7 ; 6.380094002255281E8 ; 7.695762732196957E7 ; 1.2695815129437048E9 ; 0.0
3 ; 3.858423577279798E7 ; 6.426264481400108E8 ; 1.1549964223592374E8 ; 1.9075909131692328E9 ; 0.0
4 ; 3.864097299907032E7 ; 6.490969848835416E8 ; 1.540838780087217E8 ; 2.5502173613092437E9 ; 0.0
5 ; 3.8710199104140446E7 ; 6.574210275571089E8 ; 1.9272485100779203E8 ; 3.1993143461927853E9 ; 0.0
6 ; 3.879826026552362E7 ; 6.675985908531672E8 ; 2.3143505011193246E8 ; 3.856735373749894E9 ; 0.0
7 ; 3.8933858920689926E7 ; 6.796296869474761E8 ; 2.7023331037745607E8 ; 4.524333964603062E9 ; 0.0
8 ; 3.9117961307745025E7 ; 6.93514325407883E8 ; 3.09167169298146E8 ; 5.203963651550538E9 ; 0.0
9 ; 3.939775017860073E7 ; 7.092525131216364E8 ; 3.4828513060589105E8 ; 5.897477976958421E9 ; 0.0
10 ; 3.982902189978025E7 ; 7.268442542425064E8 ; 3.876828807844918E8 ; 6.606730490080057E9 ; 0.0
11 ; 4.0515143125356294E7 ; 7.462895501586734E8 ; 4.2751190268427205E8 ; 7.333574744322563E9 ; 0.0
12 ; 4.163338717478913E7 ; 7.675883994819573E8 ; 4.6802704580962837E8 ; 8.079864294481236E9 ; 0.0
13 ; 4.268448972439651E7 ; 7.907407980585871E8 ; 5.096604329844175E8 ; 8.847452693963194E9 ; 0.0
14 ; 4.2814317141954176E7 ; 8.157467390013155E8 ; 5.52344922708814E8 ; 9.638193492021782E9 ; 0.0
15 ; 4.286012253892847E7 ; 8.426062127422941E8 ; 5.951592398507682E8 ; 1.0453940231023098E10 ; 0.0
16 ; 4.290293469188225E7 ; 8.71319207105764E8 ; 6.380193623896967E8 ; 1.1296546443765392E10 ; 0.0
17 ; 4.2959675828747354E7 ; 9.0188570739927E8 ; 6.80922297081579E8 ; 1.2167865650871157E10 ; 0.0
18 ; 4.3009641938964695E7 ; 9.343056965218244E8 ; 7.238819729103264E8 ; 1.3069751358270428E10 ; 0.0
19 ; 4.3062984379089504E7 ; 9.685791550871843E8 ; 7.668916148492911E8 ; 1.4004057054792252E10 ; 0.0
20 ; 4.31139629074395E7 ; 1.0047060615602239E9 ; 8.099545992283806E8 ; 1.4972636209879436E10 ; 0.0
21 ; 4.31590781492735E7 ; 1.0426863924042438E9 ; 8.5306856213582E8 ; 1.5977342271439661E10 ; 0.0
22 ; 4.320439360403114E7 ; 1.0825201222369769E9 ; 8.962276402850935E8 ; 1.7020028663843904E10 ; 0.0
23 ; 4.325728248727129E7 ; 1.124207223993042E9 ; 9.394320338891246E8 ; 1.8102548786080883E10 ; 0.0
24 ; 4.330339910523675E7 ; 1.1677476690906157E9 ; 9.82689316376396E8 ; 1.9226756010073925E10 ; 0.0
25 ; 4.335840070452668E7 ; 1.2052696729892838E9 ; 1.0259927154816327E9 ; 2.039450367916454E10 ; 0.0
26 ; 4.3406392578271315E7 ; 1.2052944915802264E9 ; 1.0693511161861594E9 ; 2.1599773352153824E10 ; 0.0
27 ; 4.345795012244412E7 ; 1.2053207085026407E9 ; 1.1127575087644308E9 ; 2.280506784373405E10 ; 0.0
28 ; 4.3503236543096505E7 ; 1.2053482907878952E9 ; 1.156215458886875E9 ; 2.401038855223669E10 ; 0.0
29 ; 4.355000187493101E7 ; 1.2053772047775512E9 ; 1.1997186954299715E9 ; 2.5215736843024586E10 ; 0.0
30 ; 4.360613742134171E7 ; 1.2054074162756848E9 ; 1.2432686973049026E9 ; 2.6421114047802135E10 ; 0.0
31 ; 4.3641538213173985E7 ; 1.205438890693915E9 ; 1.2868748347262442E9 ; 2.762652146407782E10 ; 0.0
32 ; 4.369175161895404E7 ; 1.2054715931883075E9 ; 1.3305163729394183E9 ; 2.8831960354771736E10 ; 0.0
33 ; 4.373238602569713E7 ; 1.2055054887875133E9 ; 1.3742081245583723E9 ; 3.0037431947960045E10 ; 0.0
34 ; 4.377087090030579E7 ; 1.2055405425116978E9 ; 1.4179405105840695E9 ; 3.124293743674756E10 ; 0.0
35 ; 4.381807911061682E7 ; 1.2055767194819999E9 ; 1.4617113814843752E9 ; 3.2448477979259254E10 ; 0.0
36 ; 4.384746629656699E7 ; 1.2056139850204082E9 ; 1.5055294605949922E9 ; 3.3654054698741253E10 ; 0.0
37 ; 4.38858922961594E7 ; 1.205652304740099E9 ; 1.5493769268915591E9 ; 3.485966868376166E10 ; 0.0
38 ; 4.39367457137569E7 ; 1.2056916446263838E9 ; 1.5932628191877186E9 ; 3.6065320988501755E10 ; 0.0
39 ; 4.3957845229865E7 ; 1.2057319711085327E9 ; 1.6371995649014754E9 ; 3.7271012633128136E10 ; 0.0
40 ; 4.399122733032872E7 ; 1.205773251122815E9 ; 1.6811574101313405E9 ; 3.847674460423667E10 ; 0.0
41 ; 4.402856588099835E7 ; 1.2058154521671648E9 ; 1.7251486374616692E9 ; 3.968251785535949E10 ; 0.0
42 ; 4.4061268046275795E7 ; 1.2058585423479333E9 ; 1.7691772033426676E9 ; 4.088833330752666E10 ; 0.0
43 ; 4.408273611241306E7 ; 1.205902490419222E9 ; 1.8132384713889434E9 ; 4.209419184987459E10 ; 0.0
44 ; 4.411484934351157E7 ; 1.20594726581531E9 ; 1.8573212075013566E9 ; 4.330009434029381E10 ; 0.0
45 ; 4.413391126789806E7 ; 1.2059928386767046E9 ; 1.9014360568448682E9 ; 4.4506041606109116E10 ; 0.0
46 ; 4.4158222181284E7 ; 1.2060391798703477E9 ; 1.9455699681127663E9 ; 4.571203444478582E10 ; 0.0
47 ; 4.418139146170848E7 ; 1.2060862610044882E9 ; 1.9897281902940502E9 ; 4.6918073624656166E10 ; 0.0
48 ; 4.4190910169108585E7 ; 1.2061340544387414E9 ; 2.0339095817557588E9 ; 4.812415988566065E10 ; 0.0
49 ; 4.4215375545834735E7 ; 1.2061825332898126E9 ; 2.0781004919248674E9 ; 4.9330293940099396E10 ; 0.0
50 ; 4.42226773445918E7 ; 1.2062316714333606E9 ; 2.1223158674707022E9 ; 5.0536476473389206E10 ; 0.0
51 ; 4.42387812727198E7 ; 1.2062814435024383E9 ; 2.166538544815294E9 ; 5.174270814482256E10 ; 0.0
52 ; 4.424555725126851E7 ; 1.2063318248829207E9 ; 2.2107773260880136E9 ; 5.2948989588325005E10 ; 0.0
53 ; 4.426557772725521E7 ; 1.2063827917063138E9 ; 2.255022883339282E9 ; 5.4155321413207924E10 ; 0.0
54 ; 4.427334852391953E7 ; 1.2064343208402958E9 ; 2.2992884610665374E9 ; 5.536170420491424E10 ; 0.0
55 ; 4.428841121533815E7 ; 1.2064863898773155E9 ; 2.343561809590457E9 ; 5.656813852575453E10 ; 0.0
56 ; 4.429602853318516E7 ; 1.2065389771215582E9 ; 2.387850220805795E9 ; 5.777462491563185E10 ; 0.0
57 ; 4.430279379498731E7 ; 1.2065920615745378E9 ; 2.43214624933898E9 ; 5.898116389275341E10 ; 0.0
58 ; 4.432039294154452E7 ; 1.2066456229195724E9 ; 2.4764490431339674E9 ; 6.018775595432795E10 ; 0.0
59 ; 4.4318678397297814E7 ; 1.2066996415053582E9 ; 2.520769436075512E9 ; 6.139440157724752E10 ; 0.0
60 ; 4.434019564545523E7 ; 1.2067540983288455E9 ; 2.56508811447281E9 ; 6.260110121875288E10 ; 0.0
61 ; 4.4347901004450485E7 ; 1.2068089750175834E9 ; 2.609428310118265E9 ; 6.380785531708172E10 ; 0.0
62 ; 4.4355709132746875E7 ; 1.2068642538117027E9 ; 2.6537762111227155E9 ; 6.5014664292099304E10 ; 0.0
63 ; 4.435749558011026E7 ; 1.206919917545661E9 ; 2.698131920255462E9 ; 6.622152854591101E10 ; 0.0
64 ; 4.436729240026238E7 ; 1.2069759496298792E9 ; 2.7424894158355722E9 ; 6.742844846345667E10 ; 0.0
65 ; 4.437799902486095E7 ; 1.2070323340323703E9 ; 2.7868567082358346E9 ; 6.8635424413086555E10 ; 0.0
66 ; 4.438418440156611E7 ; 1.2070890552604504E9 ; 2.8312347072606955E9 ; 6.984245674711893E10 ; 0.0
67 ; 4.439169283527384E7 ; 1.2071460983426108E9 ; 2.8756188916622615E9 ; 7.104954580237938E10 ; 0.0
68 ; 4.4392575526468635E7 ; 1.207203448810616E9 ; 2.920010584497535E9 ; 7.225669190072198E10 ; 0.0
69 ; 4.440104840313879E7 ; 1.2072610926818836E9 ; 2.964403160024004E9 ; 7.346389534953261E10 ; 0.0
70 ; 4.4399570935019545E7 ; 1.207319016442192E9 ; 3.0088042084271426E9 ; 7.46711564422145E10 ; 0.0
71 ; 4.440633350132457E7 ; 1.2073772070287533E9 ; 3.053203779362162E9 ; 7.587847545865668E10 ; 0.0
72 ; 4.44160929462034E7 ; 1.2074356518136816E9 ; 3.097610112863487E9 ; 7.708585266568542E10 ; 0.0
73 ; 4.4418821251291424E7 ; 1.2074943385878844E9 ; 3.14202620580969E9 ; 7.82932883174991E10 ; 0.0
74 ; 4.441504490475963E7 ; 1.207553255545389E9 ; 3.1864450270609813E9 ; 7.950078265608699E10 ; 0.0
75 ; 4.442114222942513E7 ; 1.207612391268122E9 ; 3.2308600719657407E9 ; 8.070833591163239E10 ; 0.0
76 ; 4.44228992371763E7 ; 1.2076717347111526E9 ; 3.2752812141951656E9 ; 8.191594830290051E10 ; 0.0
77 ; 4.442642352357644E7 ; 1.2077312751883974E9 ; 3.319704113432342E9 ; 8.312362003761166E10 ; 0.0
78 ; 4.4414123841928296E7 ; 1.2077910023587978E9 ; 3.3641305369559183E9 ; 8.433135131280006E10 ; 0.0
79 ; 4.440593469226042E7 ; 1.2078509062129626E9 ; 3.408544660797847E9 ; 8.553914231515886E10 ; 0.0
80 ; 4.43967170542961E7 ; 1.2079109770602782E9 ; 3.452950595490107E9 ; 8.674699322137183E10 ; 0.0
81 ; 4.4378773898848444E7 ; 1.2079712055164735E9 ; 3.497347312544403E9 ; 8.79549041984321E10 ; 0.0
82 ; 4.4367955933267966E7 ; 1.2080315824916446E9 ; 3.5417260864432516E9 ; 8.916287540394858E10 ; 0.0
83 ; 4.4357430373508684E7 ; 1.2080920991787174E9 ; 3.5860940423765197E9 ; 9.037090698644022E10 ; 0.0
84 ; 4.434188009091419E7 ; 1.2081527470423508E9 ; 3.630451472750028E9 ; 9.157899908561893E10 ; 0.0
85 ; 4.433097469994129E7 ; 1.2082135178082635E9 ; 3.6747933528409424E9 ; 9.278715183266129E10 ; 0.0
86 ; 4.4308409104595155E7 ; 1.2082744034529753E9 ; 3.7191243275408835E9 ; 9.399536535046954E10 ; 0.0
87 ; 4.4297798176079586E7 ; 1.2083353961939511E9 ; 3.7634327366454787E9 ; 9.520363975392252E10 ; 0.0
88 ; 4.427860234641034E7 ; 1.2083964884801388E9 ; 3.8077305348215585E9 ; 9.641197515011647E10 ; 0.0
89 ; 4.426747413174091E7 ; 1.2084576729828832E9 ; 3.8520091371679688E9 ; 9.76203716385966E10 ; 0.0
90 ; 4.424871427377045E7 ; 1.2085189425872085E9 ; 3.89627661129971E9 ; 9.882882931157948E10 ; 0.0
91 ; 4.423912708794857E7 ; 1.2085802903834572E9 ; 3.94052532557348E9 ; 1.0003734825416669E11 ; 0.0
92 ; 4.421798196140285E7 ; 1.2086417096592667E9 ; 3.984764452661429E9 ; 1.0124592854455014E11 ; 0.0
93 ; 4.419729592809427E7 ; 1.2087031938918824E9 ; 4.028982434622832E9 ; 1.0245457025420941E11 ; 0.0
94 ; 4.418145042693311E7 ; 1.208764736740783E9 ; 4.073179730550926E9 ; 1.0366327344810129E11 ; 0.0
95 ; 4.4164581998549916E7 ; 1.2088263320406156E9 ; 4.1173611809778595E9 ; 1.0487203818484207E11 ; 0.0
96 ; 4.414817943456525E7 ; 1.208887973794423E9 ; 4.1615257629764094E9 ; 1.0608086451688269E11 ; 0.0
97 ; 4.412656188907368E7 ; 1.2089496561671572E9 ; 4.2056739424109745E9 ; 1.0728975249067711E11 ; 0.0
98 ; 4.411029050472166E7 ; 1.2090113734794583E9 ; 4.2498005043000484E9 ; 1.0849870214684427E11 ; 0.0
99 ; 4.4084750167533755E7 ; 1.2090731202017033E9 ; 4.29391079480477E9 ; 1.0970771352032373E11 ; 0.0
100 ; 4.406583064814274E7 ; 1.209134890948296E9 ; 4.337995544972303E9 ; 1.1091678664052544E11 ; 0.0
101 ; 4.404679372583544E7 ; 1.209196680472203E9 ; 4.382061375620446E9 ; 1.1212592153147374E11 ; 0.0
102 ; 4.403120748698126E7 ; 1.2092584836597173E9 ; 4.426108169346282E9 ; 1.1333511821194594E11 ; 0.0
103 ; 4.400478782699987E7 ; 1.209320295525443E9 ; 4.470139376833263E9 ; 1.1454437669560565E11 ; 0.0
104 ; 4.397519281220093E7 ; 1.2093821112074897E9 ; 4.514144164660263E9 ; 1.1575369699113109E11 ; 0.0
105 ; 4.39660861432911E7 ; 1.2094439259628725E9 ; 4.558119357472464E9 ; 1.1696307910233858E11 ; 0.0
106 ; 4.3932741945934996E7 ; 1.209505735163101E9 ; 4.602085443615755E9 ; 1.1817252302830145E11 ; 0.0
107 ; 4.391484378753131E7 ; 1.2095675342899568E9 ; 4.64601818556169E9 ; 1.1938202876346455E11 ; 0.0
108 ; 4.388978945692291E7 ; 1.2096293189314482E9 ; 4.689933029349221E9 ; 1.2059159629775452E11 ; 0.0
109 ; 4.3865370869653374E7 ; 1.209691084777932E9 ; 4.733822818806144E9 ; 1.2180122561668596E11 ; 0.0
110 ; 4.3837092580861956E7 ; 1.2097528276184E9 ; 4.777688189675797E9 ; 1.230109167014639E11 ; 0.0
111 ; 4.381806973988152E7 ; 1.2098145433369207E9 ; 4.8215252822566595E9 ; 1.2422066952908229E11 ; 0.0
112 ; 4.3792538131345496E7 ; 1.2098762279092283E9 ; 4.865343351996541E9 ; 1.254304840724192E11 ; 0.0
113 ; 4.3764977688790634E7 ; 1.2099378773994527E9 ; 4.909135890127887E9 ; 1.2664036030032843E11 ; 0.0
114 ; 4.3742340539548114E7 ; 1.2099994879569893E9 ; 4.952900867816677E9 ; 1.2785029817772789E11 ; 0.0
115 ; 4.3710883312780805E7 ; 1.2100610558134944E9 ; 4.996643208356225E9 ; 1.2906029766568488E11 ; 0.0
116 ; 4.367955503286027E7 ; 1.2101225772800066E9 ; 5.040354091669005E9 ; 1.3027035872149837E11 ; 0.0
117 ; 4.366248044032837E7 ; 1.210184048744187E9 ; 5.084033646701865E9 ; 1.3148048129877838E11 ; 0.0
118 ; 4.362788570077719E7 ; 1.210245466667673E9 ; 5.127696127142194E9 ; 1.3269066534752257E11 ; 0.0
119 ; 4.3606988897589035E7 ; 1.2103068275835402E9 ; 5.171324012842971E9 ; 1.3390091081419025E11 ; 0.0
120 ; 4.357128244630311E7 ; 1.2103681280938675E9 ; 5.21493100174056E9 ; 1.3511121764177379E11 ; 0.0
121 ; 4.3544441423347086E7 ; 1.2104293648674035E9 ; 5.258502284186863E9 ; 1.3632158576986766E11 ; 0.0
122 ; 4.351879850743406E7 ; 1.2104905346373258E9 ; 5.30204672561021E9 ; 1.3753201513473508E11 ; 0.0
123 ; 4.348467373861196E7 ; 1.2105516341990924E9 ; 5.345565524117644E9 ; 1.387425056693724E11 ; 0.0
124 ; 4.345775056902182E7 ; 1.210612660408379E9 ; 5.3890501978562565E9 ; 1.399530573035715E11 ; 0.0
125 ; 4.341973467016061E7 ; 1.2106736101791005E9 ; 5.432507948425279E9 ; 1.411636699639799E11 ; 0.0
126 ; 4.338702843219714E7 ; 1.2107344804815106E9 ; 5.475927683095439E9 ; 1.42374343574159E11 ; 0.0
127 ; 4.336292786652356E7 ; 1.2107952683403788E9 ; 5.519314711527637E9 ; 1.435850780546405E11 ; 0.0
128 ; 4.33284870723131E7 ; 1.2108559708332384E9 ; 5.56267763939416E9 ; 1.447958733229809E11 ; 0.0
129 ; 4.3289687156290494E7 ; 1.2109165850887065E9 ; 5.606006126466474E9 ; 1.4600672929381415E11 ; 0.0
130 ; 4.325444827820523E7 ; 1.2109771082848685E9 ; 5.649295813622764E9 ; 1.4721764587890286E11 ; 0.0
131 ; 4.321113478341202E7 ; 1.211037537647727E9 ; 5.692550261900969E9 ; 1.4842862298718774E11 ; 0.0
132 ; 4.316371842732793E7 ; 1.211097870449712E9 ; 5.735761396684381E9 ; 1.4963966052483548E11 ; 0.0
133 ; 4.311456116749099E7 ; 1.2111581040082495E9 ; 5.778925115111709E9 ; 1.508507583952852E11 ; 0.0
134 ; 4.3067116692610785E7 ; 1.2112182356843858E9 ; 5.8220396762792E9 ; 1.5206191649929343E11 ; 0.0
135 ; 4.3020266572108746E7 ; 1.211278262881465E9 ; 5.86510679297181E9 ; 1.532731347349778E11 ; 0.0
136 ; 4.297251649966225E7 ; 1.2113381830438573E9 ; 5.908127059543919E9 ; 1.5448441299785928E11 ; 0.0
137 ; 4.292265033752164E7 ; 1.2113979936557403E9 ; 5.951099576043581E9 ; 1.5569575118090314E11 ; 0.0
138 ; 4.286764452808088E7 ; 1.2114576922399197E9 ; 5.994022226381103E9 ; 1.5690714917455887E11 ; 0.0
139 ; 4.282794943117073E7 ; 1.2115172763567038E9 ; 6.0368898709091835E9 ; 1.581186068667988E11 ; 0.0
140 ; 4.277124443253212E7 ; 1.2115767436028142E9 ; 6.079717820340354E9 ; 1.593301241431555E11 ; 0.0
141 ; 4.272560572896106E7 ; 1.2116360916103423E9 ; 6.122489064772886E9 ; 1.605417008867583E11 ; 0.0
142 ; 4.2673072982333906E7 ; 1.2116953180457423E9 ; 6.165214670501847E9 ; 1.6175333697836865E11 ; 0.0
143 ; 4.262252450901244E7 ; 1.2117544206088648E9 ; 6.207887743484181E9 ; 1.629650322964144E11 ; 0.0
144 ; 4.256832743566516E7 ; 1.2118133970320249E9 ; 6.250510267993194E9 ; 1.6417678671702325E11 ; 0.0
145 ; 4.253904401300874E7 ; 1.2118722450791075E9 ; 6.293078595428859E9 ; 1.6538860011405527E11 ; 0.0
146 ; 4.250171881431248E7 ; 1.2119309625447028E9 ; 6.335617639441868E9 ; 1.6660047235913437E11 ; 0.0
147 ; 4.246396551486044E7 ; 1.2119895472532768E9 ; 6.378119358256181E9 ; 1.6781240332167908E11 ; 0.0
148 ; 4.24321404690047E7 ; 1.2120479970583708E9 ; 6.420583323771041E9 ; 1.6902439286893234E11 ; 0.0
149 ; 4.2400746351965904E7 ; 1.212106309841833E9 ; 6.463015464240046E9 ; 1.7023644086599072E11 ; 0.0
150 ; 4.236165468165678E7 ; 1.2121644835130749E9 ; 6.505416210592011E9 ; 1.7144854717583255E11 ; 0.0
151 ; 4.231850459906164E7 ; 1.2122225160083573E9 ; 6.547777865273668E9 ; 1.726607116593456E11 ; 0.0
152 ; 4.2294239174231306E7 ; 1.2122804052901022E9 ; 6.59009636987273E9 ; 1.7387293417535397E11 ; 0.0
153 ; 4.225338601469772E7 ; 1.2123381493462296E9 ; 6.632390609046962E9 ; 1.7508521458064407E11 ; 0.0
154 ; 4.221308349022393E7 ; 1.2123957461895177E9 ; 6.67464399506166E9 ; 1.762975527299903E11 ; 0.0
155 ; 4.217852457363932E7 ; 1.2124531938569875E9 ; 6.716857078551884E9 ; 1.775099484761798E11 ; 0.0
156 ; 4.2135428044231854E7 ; 1.2125104904093075E9 ; 6.759035603125523E9 ; 1.787224016700368E11 ; 0.0
157 ; 4.21025624096721E7 ; 1.2125676339302237E9 ; 6.801171031169754E9 ; 1.799349121604461E11 ; 0.0
158 ; 4.207483351872339E7 ; 1.2126246225260053E9 ; 6.843273593579426E9 ; 1.8114747979437634E11 ; 0.0
159 ; 4.203362586152888E7 ; 1.2126814543249135E9 ; 6.885348427098149E9 ; 1.8236010441690234E11 ; 0.0
160 ; 4.199009235361775E7 ; 1.2127381274766874E9 ; 6.927382052959679E9 ; 1.8357278587122726E11 ; 0.0
161 ; 4.1956112996746525E7 ; 1.21279464015205E9 ; 6.969372145313296E9 ; 1.8478552399870395E11 ; 0.0
162 ; 4.191550813217927E7 ; 1.2128509905422292E9 ; 7.011328258310042E9 ; 1.85998318638856E11 ; 0.0
163 ; 4.188498991819863E7 ; 1.212907176858498E9 ; 7.053243766442222E9 ; 1.8721116962939822E11 ; 0.0
164 ; 4.1837709516490236E7 ; 1.212963197331729E9 ; 7.09512875636042E9 ; 1.884240768062567E11 ; 0.0
165 ; 4.1806662522025935E7 ; 1.2130190502119656E9 ; 7.13696646587691E9 ; 1.8963704000358844E11 ; 0.0
166 ; 4.17628146605323E7 ; 1.213074733768008E9 ; 7.178773128398936E9 ; 1.908500590538004E11 ; 0.0
167 ; 4.173014233215911E7 ; 1.2131302462870138E9 ; 7.220535943059468E9 ; 1.9206313378756842E11 ; 0.0
168 ; 4.1691672610250026E7 ; 1.2131855860741105E9 ; 7.262266085391627E9 ; 1.9327626403385544E11 ; 0.0
169 ; 4.1648754343653984E7 ; 1.2132407514520254E9 ; 7.303957758001878E9 ; 1.9448944961992953E11 ; 0.0
170 ; 4.160590276516658E7 ; 1.213295740760724E9 ; 7.345606512345531E9 ; 1.9570269037138156E11 ; 0.0
171 ; 4.1570122175577655E7 ; 1.2133505523570626E9 ; 7.387212415110698E9 ; 1.9691598611214227E11 ; 0.0
172 ; 4.1534407983417146E7 ; 1.213405184614454E9 ; 7.428782537286276E9 ; 1.9812933666449933E11 ; 0.0
173 ; 4.149348795132826E7 ; 1.213459635922543E9 ; 7.470316945269693E9 ; 1.9934274184911377E11 ; 0.0
174 ; 4.146171663825644E7 ; 1.213513904686893E9 ; 7.511810433221022E9 ; 2.0055620148503632E11 ; 0.0
175 ; 4.143927784247988E7 ; 1.2135679893286831E9 ; 7.553272149859278E9 ; 2.017697153897232E11 ; 0.0
176 ; 4.141952614077203E7 ; 1.2136218882844183E9 ; 7.594711427701757E9 ; 2.0298328337905188E11 ; 0.0
177 ; 4.139514899545105E7 ; 1.213675600005644E9 ; 7.636130953842529E9 ; 2.041969052673363E11 ; 0.0
178 ; 4.136281630849989E7 ; 1.2137291229586766E9 ; 7.67752610283798E9 ; 2.0541058086734195E11 ; 0.0
179 ; 4.1348973467001E7 ; 1.2137824556243362E9 ; 7.718888919146481E9 ; 2.0662430999030063E11 ; 0.0
180 ; 4.13168610691126E7 ; 1.213835596497695E9 ; 7.7602378926134815E9 ; 2.0783809244592496E11 ; 0.0
181 ; 4.129957463137635E7 ; 1.2138885440878303E9 ; 7.801554753682594E9 ; 2.0905192804242264E11 ; 0.0
182 ; 4.126924166612644E7 ; 1.2139412969175842E9 ; 7.842854328313971E9 ; 2.1026581658651047E11 ; 0.0
183 ; 4.125100708640765E7 ; 1.2139938535233364E9 ; 7.884123569980097E9 ; 2.1147975788342804E11 ; 0.0
184 ; 4.123129489356874E7 ; 1.2140462124547796E9 ; 7.9253745770665045E9 ; 2.126937517369514E11 ; 0.0
185 ; 4.11972628547922E7 ; 1.2140983722747066E9 ; 7.966605871960073E9 ; 2.1390779794940616E11 ; 0.0
186 ; 4.1176712496712215E7 ; 1.2141503315587988E9 ; 8.007803134814866E9 ; 2.1512189632168088E11 ; 0.0
187 ; 4.114655871418568E7 ; 1.2142020888954284E9 ; 8.048979847311579E9 ; 2.163360466532397E11 ; 0.0
188 ; 4.112999555397348E7 ; 1.2142536428854616E9 ; 8.090126406025764E9 ; 2.175502487421351E11 ; 0.0
189 ; 4.109585610717998E7 ; 1.2143049921420712E9 ; 8.131256401579738E9 ; 2.1876450238502057E11 ; 0.0
190 ; 4.108557150952324E7 ; 1.2143561352905548E9 ; 8.172352257686917E9 ; 2.1997880737716263E11 ; 0.0
191 ; 4.105763901158037E7 ; 1.2144070709681578E9 ; 8.213437829196441E9 ; 2.211931635124532E11 ; 0.0
192 ; 4.1031375307256006E7 ; 1.2144577978239036E9 ; 8.254495468208021E9 ; 2.2240757058342136E11 ; 0.0
193 ; 4.100730450107293E7 ; 1.214508314518429E9 ; 8.295526843515277E9 ; 2.2362202838124527E11 ; 0.0
194 ; 4.097637988295258E7 ; 1.2145586197238245E9 ; 8.33653414801635E9 ; 2.248365366957637E11 ; 0.0
195 ; 4.095654861770948E7 ; 1.214608712123479E9 ; 8.3775105278993025E9 ; 2.2605109531548752E11 ; 0.0
196 ; 4.093202741287683E7 ; 1.2146585904119315E9 ; 8.418467076517012E9 ; 2.27265704027611E11 ; 0.0
