CSV File for the Network on Day 47
1 - Minute m 
2 - Power Consumed at minute m 
3 - Power Produced at minute m 
4 - Energy Consumed since the beginning of the day 
5 - Energy Produced since the beginning of the day 
6 - Energy Lost since the beginning of the day 
 
0 ; 3.839961881793029E7 ; 6.333314957578366E8 ; 0.0 ; 0.0 ; 0.0
1 ; 3.844295837083413E7 ; 6.34238786988193E8 ; 3.839961881793029E7 ; 6.333314957578366E8 ; 0.0
2 ; 3.848574429946003E7 ; 6.369997613298587E8 ; 7.684257718876442E7 ; 1.2675702827460296E9 ; 0.0
3 ; 3.853099810525669E7 ; 6.416144599855399E8 ; 1.1532832148822445E8 ; 1.9045700440758882E9 ; 0.0
4 ; 3.858959329482908E7 ; 6.480829205683973E8 ; 1.5385931959348112E8 ; 2.546184504061428E9 ; 0.0
5 ; 3.8656292327653006E7 ; 6.564051766744032E8 ; 1.924489128883102E8 ; 3.1942674246298256E9 ; 0.0
6 ; 3.875003724311319E7 ; 6.665812574839011E8 ; 2.3110520521596318E8 ; 3.850672601304229E9 ; 0.0
7 ; 3.887139865679349E7 ; 6.786111874027966E8 ; 2.698552424590764E8 ; 4.51725385878813E9 ; 0.0
8 ; 3.9068496292581476E7 ; 6.924949857532734E8 ; 3.087266411158699E8 ; 5.195865046190927E9 ; 0.0
9 ; 3.934863891975363E7 ; 7.08232666522964E8 ; 3.477951374084514E8 ; 5.8883600319442E9 ; 0.0
10 ; 3.978043391984303E7 ; 7.258242381800567E8 ; 3.87143776328205E8 ; 6.596592698467163E9 ; 0.0
11 ; 4.047074359621177E7 ; 7.452697035600013E8 ; 4.26924210248048E8 ; 7.32241693664722E9 ; 0.0
12 ; 4.158010903558856E7 ; 7.665690598273476E8 ; 4.673949538442598E8 ; 8.067686640207221E9 ; 0.0
13 ; 4.263821355177055E7 ; 7.897222985139077E8 ; 5.0897506287984836E8 ; 8.834255700034569E9 ; 0.0
14 ; 4.2764224614211924E7 ; 8.147294056320496E8 ; 5.516132764316189E8 ; 9.623977998548477E9 ; 0.0
15 ; 4.281625435378804E7 ; 8.415903618595884E8 ; 5.943775010458308E8 ; 1.0438707404180527E10 ; 0.0
16 ; 4.286161636092386E7 ; 8.703051427906197E8 ; 6.371937553996189E8 ; 1.1280297766040115E10 ; 0.0
17 ; 4.291309049672109E7 ; 9.008737192447991E8 ; 6.800553717605428E8 ; 1.2150602908830734E10 ; 0.0
18 ; 4.2957197793691754E7 ; 9.332960576261549E8 ; 7.229684622572639E8 ; 1.3051476628075533E10 ; 0.0
19 ; 4.300953175287991E7 ; 9.675721203215263E8 ; 7.659256600509557E8 ; 1.3984772685701687E10 ; 0.0
20 ; 4.305871520809232E7 ; 1.0037018661282067E9 ; 8.089351918038355E8 ; 1.4952344806023212E10 ; 0.0
21 ; 4.311172595216375E7 ; 1.0416852507003167E9 ; 8.519939070119278E8 ; 1.5956046672151419E10 ; 0.0
22 ; 4.315998082276386E7 ; 1.081522227003772E9 ; 8.951056329640915E8 ; 1.6997731922851736E10 ; 0.0
23 ; 4.321406850532026E7 ; 1.1232127457704394E9 ; 9.382656137868555E8 ; 1.8079254149855507E10 ; 0.0
24 ; 4.326304457081833E7 ; 1.166756755943024E9 ; 9.814796822921758E8 ; 1.9202466895625946E10 ; 0.0
25 ; 4.331564485859124E7 ; 1.2042824504925418E9 ; 1.0247427268629941E9 ; 2.036922365156897E10 ; 0.0
26 ; 4.335844325123321E7 ; 1.204311063045549E9 ; 1.0680583717215853E9 ; 2.1573506102061512E10 ; 0.0
27 ; 4.34030626441602E7 ; 1.2043411554122417E9 ; 1.1114168149728184E9 ; 2.277781716510706E10 ; 0.0
28 ; 4.3458472217909396E7 ; 1.2043726734152112E9 ; 1.1548198776169786E9 ; 2.3982158320519302E10 ; 0.0
29 ; 4.350042409003506E7 ; 1.2044055629642987E9 ; 1.198278349834888E9 ; 2.5186530993934513E10 ; 0.0
30 ; 4.3552344011021435E7 ; 1.2044397703381512E9 ; 1.241778773924923E9 ; 2.639093655689881E10 ; 0.0
31 ; 4.359581431934092E7 ; 1.204475242431797E9 ; 1.2853311179359443E9 ; 2.759537632723696E10 ; 0.0
32 ; 4.363260151824771E7 ; 1.2045119269708824E9 ; 1.3289269322552853E9 ; 2.879985156966876E10 ; 0.0
33 ; 4.367428374534108E7 ; 1.2045497726938322E9 ; 1.3725595337735329E9 ; 3.000436349663964E10 ; 0.0
34 ; 4.371896964551151E7 ; 1.204588729503693E9 ; 1.416233817518874E9 ; 3.1208913269333473E10 ; 0.0
35 ; 4.37679280195881E7 ; 1.2046287485917504E9 ; 1.4599527871643853E9 ; 3.2413501998837166E10 ; 0.0
36 ; 4.380567350948197E7 ; 1.2046697825352378E9 ; 1.5037207151839733E9 ; 3.3618130747428917E10 ; 0.0
37 ; 4.384344209121168E7 ; 1.2047117853715787E9 ; 1.5475263886934552E9 ; 3.482280052996416E10 ; 0.0
38 ; 4.387898204355316E7 ; 1.2047547126516314E9 ; 1.591369830784667E9 ; 3.602751231533574E10 ; 0.0
39 ; 4.390985372138147E7 ; 1.204798521474363E9 ; 1.6352488128282201E9 ; 3.723226702798737E10 ; 0.0
40 ; 4.394616510784005E7 ; 1.2048431705053148E9 ; 1.6791586665496016E9 ; 3.843706554946174E10 ; 0.0
41 ; 4.397238507706137E7 ; 1.2048886199810543E9 ; 1.7231048316574416E9 ; 3.964190871996706E10 ; 0.0
42 ; 4.400747740073523E7 ; 1.2049348317017033E9 ; 1.767077216734503E9 ; 4.084679733994811E10 ; 0.0
43 ; 4.403500342072577E7 ; 1.204981769013417E9 ; 1.8110846941352382E9 ; 4.205173217164982E10 ; 0.0
44 ; 4.406156601583942E7 ; 1.2050293967825518E9 ; 1.855119697555964E9 ; 4.325671394066324E10 ; 0.0
45 ; 4.4094921650857806E7 ; 1.2050776813630526E9 ; 1.8991812635718033E9 ; 4.446174333744579E10 ; 0.0
46 ; 4.410256292408469E7 ; 1.2051265905584364E9 ; 1.943276185222661E9 ; 4.5666821018808846E10 ; 0.0
47 ; 4.412389106037678E7 ; 1.205176093579575E9 ; 1.9873787481467457E9 ; 4.687194760936728E10 ; 0.0
48 ; 4.414466940281371E7 ; 1.2052261609993286E9 ; 2.0315026392071226E9 ; 4.807712370294685E10 ; 0.0
49 ; 4.4159063914834924E7 ; 1.2052767647049332E9 ; 2.0756473086099362E9 ; 4.928234986394618E10 ; 0.0
50 ; 4.4177263909479015E7 ; 1.2053278778489213E9 ; 2.1198063725247712E9 ; 5.0487626628651115E10 ; 0.0
51 ; 4.418109271895477E7 ; 1.2053794747992308E9 ; 2.1639836364342504E9 ; 5.169295450650004E10 ; 0.0
52 ; 4.419616294861833E7 ; 1.2054315310890512E9 ; 2.208164729153205E9 ; 5.289833398129927E10 ; 0.0
53 ; 4.420496234261281E7 ; 1.2054840233668718E9 ; 2.2523608921018233E9 ; 5.410376551238832E10 ; 0.0
54 ; 4.422067050689516E7 ; 1.2055369293470993E9 ; 2.296565854444436E9 ; 5.5309249535755196E10 ; 0.0
55 ; 4.4224955869360484E7 ; 1.2055902277615495E9 ; 2.340786524951331E9 ; 5.6514786465102295E10 ; 0.0
56 ; 4.424086292238982E7 ; 1.2056438983120594E9 ; 2.3850114808206916E9 ; 5.7720376692863846E10 ; 0.0
57 ; 4.4254204252745815E7 ; 1.2056979216243987E9 ; 2.4292523437430816E9 ; 5.89260205911759E10 ; 0.0
58 ; 4.4259176955890775E7 ; 1.2057522792036276E9 ; 2.473506547995827E9 ; 6.01317185128003E10 ; 0.0
59 ; 4.4265183909876995E7 ; 1.205806953391E9 ; 2.517765724951718E9 ; 6.133747079200393E10 ; 0.0
60 ; 4.428158067042898E7 ; 1.2058619273224847E9 ; 2.5620309088615947E9 ; 6.254327774539493E10 ; 0.0
61 ; 4.4283637480614305E7 ; 1.2059171848889427E9 ; 2.6063124895320234E9 ; 6.3749139672717415E10 ; 0.0
62 ; 4.429544039641075E7 ; 1.2059727106979854E9 ; 2.6505961270126376E9 ; 6.495505685760635E10 ; 0.0
63 ; 4.429916143005588E7 ; 1.2060284900375087E9 ; 2.6948915674090486E9 ; 6.616102956830434E10 ; 0.0
64 ; 4.4304310808923006E7 ; 1.2060845088408937E9 ; 2.7391907288391047E9 ; 6.736705805834184E10 ; 0.0
65 ; 4.431468050118658E7 ; 1.2061407536538453E9 ; 2.7834950396480274E9 ; 6.857314256718274E10 ; 0.0
66 ; 4.431998975051622E7 ; 1.2061972116028335E9 ; 2.827809720149214E9 ; 6.977928332083658E10 ; 0.0
67 ; 4.4329817669268355E7 ; 1.206253870365093E9 ; 2.87212970989973E9 ; 7.09854805324394E10 ; 0.0
68 ; 4.43284918201217E7 ; 1.206310718140135E9 ; 2.9164595275689983E9 ; 7.21917344028045E10 ; 0.0
69 ; 4.433084128977163E7 ; 1.2063677436227162E9 ; 2.96078801938912E9 ; 7.339804512094464E10 ; 0.0
70 ; 4.433620625618425E7 ; 1.2064249359772084E9 ; 3.0051188606788917E9 ; 7.460441286456735E10 ; 0.0
71 ; 4.434851392059149E7 ; 1.2064822848133159E9 ; 3.0494550669350758E9 ; 7.581083780054456E10 ; 0.0
72 ; 4.4345014668936E7 ; 1.2065397801630769E9 ; 3.093803580855667E9 ; 7.701732008535786E10 ; 0.0
73 ; 4.435194361491832E7 ; 1.2065974124590964E9 ; 3.138148595524603E9 ; 7.822385986552094E10 ; 0.0
74 ; 4.43547552992297E7 ; 1.2066551725139487E9 ; 3.182500539139521E9 ; 7.943045727798003E10 ; 0.0
75 ; 4.435287750798535E7 ; 1.2067130515006928E9 ; 3.2268552944387507E9 ; 8.063711245049397E10 ; 0.0
76 ; 4.435149128845195E7 ; 1.2067710409344501E9 ; 3.2712081719467363E9 ; 8.184382550199466E10 ; 0.0
77 ; 4.435529805719746E7 ; 1.2068291326549835E9 ; 3.3155596632351885E9 ; 8.305059654292911E10 ; 0.0
78 ; 4.434082920717202E7 ; 1.2068873188102305E9 ; 3.359914961292386E9 ; 8.425742567558409E10 ; 0.0
79 ; 4.432871070709525E7 ; 1.206945591840738E9 ; 3.404255790499558E9 ; 8.546431299439432E10 ; 0.0
80 ; 4.431201215429441E7 ; 1.2070039444649518E9 ; 3.448584501206653E9 ; 8.667125858623506E10 ; 0.0
81 ; 4.4303940335840054E7 ; 1.2070623696653097E9 ; 3.4928965133609476E9 ; 8.787826253070001E10 ; 0.0
82 ; 4.428951506212307E7 ; 1.2071208606751025E9 ; 3.537200453696788E9 ; 8.908532490036533E10 ; 0.0
83 ; 4.4274740806052044E7 ; 1.2071794109660525E9 ; 3.581489968758911E9 ; 9.029244576104044E10 ; 0.0
84 ; 4.426054505907756E7 ; 1.2072380142365723E9 ; 3.6257647095649633E9 ; 9.149962517200648E10 ; 0.0
85 ; 4.4245243499219865E7 ; 1.2072966644006677E9 ; 3.670025254624041E9 ; 9.270686318624306E10 ; 0.0
86 ; 4.422924499132064E7 ; 1.2073553555774446E9 ; 3.714270498123261E9 ; 9.391415985064372E10 ; 0.0
87 ; 4.421593334180798E7 ; 1.2074140820811884E9 ; 3.7584997431145816E9 ; 9.512151520622116E10 ; 0.0
88 ; 4.4202062222193E7 ; 1.2074728384119835E9 ; 3.8027156764563894E9 ; 9.632892928830235E10 ; 0.0
89 ; 4.417585951679914E7 ; 1.207531619246839E9 ; 3.846917738678582E9 ; 9.753640212671434E10 ; 0.0
90 ; 4.416234337225193E7 ; 1.2075904194312952E9 ; 3.891093598195381E9 ; 9.874393374596118E10 ; 0.0
91 ; 4.414639115035823E7 ; 1.207649233971481E9 ; 3.935255941567633E9 ; 9.995152416539247E10 ; 0.0
92 ; 4.41301243657223E7 ; 1.2077080580266008E9 ; 3.9794023327179914E9 ; 1.0115917339936395E11 ; 0.0
93 ; 4.410629567426044E7 ; 1.2077668869018173E9 ; 4.0235324570837135E9 ; 1.0236688145739055E11 ; 0.0
94 ; 4.408362255418425E7 ; 1.2078257160415187E9 ; 4.067638752757974E9 ; 1.0357464834429236E11 ; 0.0
95 ; 4.4069868190201394E7 ; 1.2078845410229392E9 ; 4.1117223753121586E9 ; 1.0478247406033388E11 ; 0.0
96 ; 4.4053704116968304E7 ; 1.2079433575501177E9 ; 4.15579224350236E9 ; 1.0599035860135681E11 ; 0.0
97 ; 4.4030929393080324E7 ; 1.2080021614481764E9 ; 4.199845947619328E9 ; 1.0719830195890694E11 ; 0.0
98 ; 4.401056379277906E7 ; 1.2080609486578932E9 ; 4.2438768770124083E9 ; 1.0840630412035512E11 ; 0.0
99 ; 4.398894161703293E7 ; 1.2081197152305632E9 ; 4.287887440805187E9 ; 1.0961436506901302E11 ; 0.0
100 ; 4.396409322463165E7 ; 1.2081784573231218E9 ; 4.33187638242222E9 ; 1.1082248478424358E11 ; 0.0
101 ; 4.394029921316785E7 ; 1.208237171193522E9 ; 4.375840475646852E9 ; 1.120306632415667E11 ; 0.0
102 ; 4.391748620507681E7 ; 1.2082958531963484E9 ; 4.41978077486002E9 ; 1.1323890041276022E11 ; 0.0
103 ; 4.3895405631768145E7 ; 1.208354499778655E9 ; 4.463698261065097E9 ; 1.1444719626595657E11 ; 0.0
104 ; 4.387119213388647E7 ; 1.2084131074760156E9 ; 4.507593666696865E9 ; 1.1565555076573523E11 ; 0.0
105 ; 4.3850662929746315E7 ; 1.208471672908771E9 ; 4.551464858830751E9 ; 1.1686396387321124E11 ; 0.0
106 ; 4.38304698345184E7 ; 1.20853019277847E9 ; 4.595315521760498E9 ; 1.1807243554612001E11 ; 0.0
107 ; 4.380393911020067E7 ; 1.2085886638644829E9 ; 4.6391459915950165E9 ; 1.1928096573889848E11 ; 0.0
108 ; 4.377381589015641E7 ; 1.2086470830207887E9 ; 4.682949930705217E9 ; 1.2048955440276297E11 ; 0.0
109 ; 4.3748966643827006E7 ; 1.2087054471729178E9 ; 4.726723746595374E9 ; 1.2169820148578375E11 ; 0.0
110 ; 4.372492990472178E7 ; 1.2087637533150468E9 ; 4.770472713239202E9 ; 1.2290690693295667E11 ; 0.0
111 ; 4.369390899454379E7 ; 1.208821998507235E9 ; 4.814197643143924E9 ; 1.2411567068627171E11 ; 0.0
112 ; 4.367356040036729E7 ; 1.2088801798727973E9 ; 4.857891552138468E9 ; 1.2532449268477895E11 ; 0.0
113 ; 4.364446601367647E7 ; 1.2089382945958014E9 ; 4.901565112538836E9 ; 1.2653337286465175E11 ; 0.0
114 ; 4.361582334501674E7 ; 1.2089963399186888E9 ; 4.945209578552512E9 ; 1.2774231115924754E11 ; 0.0
115 ; 4.35891788186693E7 ; 1.2090543131400075E9 ; 4.988825401897529E9 ; 1.2895130749916623E11 ; 0.0
116 ; 4.356048196287442E7 ; 1.2091122116122541E9 ; 5.032414580716198E9 ; 1.3016036181230624E11 ; 0.0
117 ; 4.353695322573189E7 ; 1.209170032739819E9 ; 5.075975062679072E9 ; 1.313694740239185E11 ; 0.0
118 ; 4.349935168894127E7 ; 1.209227773977025E9 ; 5.119512015904804E9 ; 1.3257864405665833E11 ; 0.0
119 ; 4.347284641094392E7 ; 1.2092854328262627E9 ; 5.163011367593745E9 ; 1.3378787183063535E11 ; 0.0
120 ; 4.343981502504794E7 ; 1.2093430068362095E9 ; 5.206484214004689E9 ; 1.3499715726346161E11 ; 0.0
121 ; 4.3413055969790414E7 ; 1.2094004936001325E9 ; 5.249924029029737E9 ; 1.3620650027029782E11 ; 0.0
122 ; 4.3372336039408326E7 ; 1.2094578907542696E9 ; 5.293337084999528E9 ; 1.3741590076389795E11 ; 0.0
123 ; 4.3346333227471195E7 ; 1.2095151959762855E9 ; 5.336709421038937E9 ; 1.3862535865465222E11 ; 0.0
124 ; 4.3307242889044E7 ; 1.2095724069837966E9 ; 5.380055754266408E9 ; 1.398348738506285E11 ; 0.0
125 ; 4.327947991788639E7 ; 1.209629521532965E9 ; 5.423362997155452E9 ; 1.410444462576123E11 ; 0.0
126 ; 4.324672747567996E7 ; 1.2096865374171536E9 ; 5.4666424770733385E9 ; 1.4225407577914526E11 ; 0.0
127 ; 4.321418916671878E7 ; 1.2097434524656456E9 ; 5.509889204549019E9 ; 1.434637623165624E11 ; 0.0
128 ; 4.318068043407332E7 ; 1.2098002645424151E9 ; 5.553103393715737E9 ; 1.4467350576902805E11 ; 0.0
129 ; 4.3144520945443206E7 ; 1.2098569715449593E9 ; 5.596284074149811E9 ; 1.4588330603357047E11 ; 0.0
130 ; 4.309910226914255E7 ; 1.209913571403177E9 ; 5.639428595095254E9 ; 1.4709316300511542E11 ; 0.0
131 ; 4.305776765455641E7 ; 1.209970062078299E9 ; 5.682527697364396E9 ; 1.483030765765186E11 ; 0.0
132 ; 4.3005939350277655E7 ; 1.2100264415618658E9 ; 5.725585465018952E9 ; 1.495130466385969E11 ; 0.0
133 ; 4.295959674737748E7 ; 1.2100827078747468E9 ; 5.76859140436923E9 ; 1.5072307308015875E11 ; 0.0
134 ; 4.29106748608139E7 ; 1.210138859066206E9 ; 5.811551001116608E9 ; 1.519331557880335E11 ; 0.0
135 ; 4.2859399510087155E7 ; 1.210194893213005E9 ; 5.854461675977422E9 ; 1.531432946470997E11 ; 0.0
136 ; 4.2808302734345175E7 ; 1.210250808418547E9 ; 5.897321075487509E9 ; 1.543534895403127E11 ; 0.0
137 ; 4.27618387658489E7 ; 1.2103066028120532E9 ; 5.940129378221854E9 ; 1.5556374034873126E11 ; 0.0
138 ; 4.270917243854431E7 ; 1.2103622745477796E9 ; 5.982891216987703E9 ; 1.567740469515433E11 ; 0.0
139 ; 4.265684210270774E7 ; 1.2104178218042634E9 ; 6.025600389426248E9 ; 1.579844092260911E11 ; 0.0
140 ; 4.2606345101209395E7 ; 1.2104732427836008E9 ; 6.068257231528955E9 ; 1.5919482704789536E11 ; 0.0
141 ; 4.255323934973246E7 ; 1.2105285357107577E9 ; 6.110863576630165E9 ; 1.6040530029067896E11 ; 0.0
142 ; 4.24996824418361E7 ; 1.210583698832907E9 ; 6.1534168159798975E9 ; 1.616158288263897E11 ; 0.0
143 ; 4.2447087134827785E7 ; 1.210638730418794E9 ; 6.195916498421734E9 ; 1.6282641252522263E11 ; 0.0
144 ; 4.2391535122476876E7 ; 1.2106936287581275E9 ; 6.238363585556561E9 ; 1.6403705125564142E11 ; 0.0
145 ; 4.234988841056739E7 ; 1.2107483921609974E9 ; 6.280755120679038E9 ; 1.6524774488439954E11 ; 0.0
146 ; 4.2323149984920025E7 ; 1.210803018957315E9 ; 6.323105009089605E9 ; 1.6645849327656055E11 ; 0.0
147 ; 4.2277773611676425E7 ; 1.2108575074962752E9 ; 6.365428159074526E9 ; 1.6766929629551785E11 ; 0.0
148 ; 4.2240903148691125E7 ; 1.2109118561458428E9 ; 6.407705932686202E9 ; 1.6888015380301413E11 ; 0.0
149 ; 4.220667713192035E7 ; 1.210966063292258E9 ; 6.449946835834893E9 ; 1.7009106565915997E11 ; 0.0
150 ; 4.216252004100645E7 ; 1.2110201273395612E9 ; 6.492153512966814E9 ; 1.7130203172245224E11 ; 0.0
151 ; 4.213205109740967E7 ; 1.211074046709139E9 ; 6.53431603300782E9 ; 1.725130518497918E11 ; 0.0
152 ; 4.209325518035692E7 ; 1.2111278198392866E9 ; 6.576448084105229E9 ; 1.7372412589650095E11 ; 0.0
153 ; 4.2049105179715134E7 ; 1.2111814451847875E9 ; 6.618541339285586E9 ; 1.7493525371634024E11 ; 0.0
154 ; 4.201940246335526E7 ; 1.2112349212165108E9 ; 6.6605904444653015E9 ; 1.7614643516152502E11 ; 0.0
155 ; 4.197142008250642E7 ; 1.2112882464210234E9 ; 6.702609846928657E9 ; 1.7735767008274155E11 ; 0.0
156 ; 4.1932815642217785E7 ; 1.2113414193002186E9 ; 6.744581267011163E9 ; 1.7856895832916257E11 ; 0.0
157 ; 4.1896914670819044E7 ; 1.2113944383709579E9 ; 6.78651408265338E9 ; 1.797802997484628E11 ; 0.0
158 ; 4.1858478133917056E7 ; 1.2114473021647277E9 ; 6.8284109973242E9 ; 1.8099169418683377E11 ; 0.0
159 ; 4.181669941666697E7 ; 1.2115000092273088E9 ; 6.870269475458117E9 ; 1.822031414889985E11 ; 0.0
160 ; 4.177311891213825E7 ; 1.2115525581184578E9 ; 6.9120861748747835E9 ; 1.834146414982258E11 ; 0.0
161 ; 4.17343946537714E7 ; 1.211604947411604E9 ; 6.9538592937869215E9 ; 1.8462619405634427E11 ; 0.0
162 ; 4.170307400213693E7 ; 1.211657175693554E9 ; 6.995593688440693E9 ; 1.8583779900375586E11 ; 0.0
163 ; 4.1655653000569515E7 ; 1.2117092415642095E9 ; 7.03729676244283E9 ; 1.870494561794494E11 ; 0.0
164 ; 4.162014991975289E7 ; 1.2117611436362965E9 ; 7.078952415443399E9 ; 1.882611654210136E11 ; 0.0
165 ; 4.157222009674597E7 ; 1.2118128805351026E9 ; 7.1205725653631525E9 ; 1.894729265646499E11 ; 0.0
166 ; 4.153332276764648E7 ; 1.2118644508982272E9 ; 7.162144785459898E9 ; 1.90684739445185E11 ; 0.0
167 ; 4.1491311984485865E7 ; 1.2119158533753376E9 ; 7.203678108227545E9 ; 1.9189660389608322E11 ; 0.0
168 ; 4.1449650476911426E7 ; 1.2119670866279383E9 ; 7.24516942021203E9 ; 1.9310851974945856E11 ; 0.0
169 ; 4.140905034290868E7 ; 1.212018149329145E9 ; 7.286619070688942E9 ; 1.943204868360865E11 ; 0.0
170 ; 4.136448542117879E7 ; 1.2120690401634698E9 ; 7.328028121031851E9 ; 1.9553250498541562E11 ; 0.0
171 ; 4.132257049328947E7 ; 1.2121197578266137E9 ; 7.36939260645303E9 ; 1.967445740255791E11 ; 0.0
172 ; 4.128481274665921E7 ; 1.212170301025266E9 ; 7.41071517694632E9 ; 1.979566937834057E11 ; 0.0
173 ; 4.124369228359525E7 ; 1.2122206684769115E9 ; 7.451999989692979E9 ; 1.9916886408443097E11 ; 0.0
174 ; 4.1212997265046194E7 ; 1.212270858909647E9 ; 7.493243681976574E9 ; 2.0038108475290787E11 ; 0.0
175 ; 4.119290532896333E7 ; 1.2123208710619993E9 ; 7.53445667924162E9 ; 2.015933556118175E11 ; 0.0
176 ; 4.11662419681728E7 ; 1.2123707036827571E9 ; 7.575649584570583E9 ; 2.0280567648287952E11 ; 0.0
177 ; 4.1141512844686836E7 ; 1.2124203555308018E9 ; 7.616815826538756E9 ; 2.040180471865623E11 ; 0.0
178 ; 4.111275185375942E7 ; 1.2124698253749504E9 ; 7.657957339383443E9 ; 2.0523046754209308E11 ; 0.0
179 ; 4.1089638391558096E7 ; 1.2125191119938006E9 ; 7.699070091237203E9 ; 2.0644293736746802E11 ; 0.0
180 ; 4.106967618297401E7 ; 1.212568214175582E9 ; 7.74015972962876E9 ; 2.0765545647946182E11 ; 0.0
181 ; 4.103755114671686E7 ; 1.2126171307180152E9 ; 7.781229405811734E9 ; 2.088680246936374E11 ; 0.0
182 ; 4.101573221071384E7 ; 1.2126658604281723E9 ; 7.822266956958451E9 ; 2.100806418243554E11 ; 0.0
183 ; 4.0989377908672996E7 ; 1.212714402122345E9 ; 7.863282689169165E9 ; 2.1129330768478357E11 ; 0.0
184 ; 4.0965180675994694E7 ; 1.212762754625918E9 ; 7.904272067077838E9 ; 2.125060220869059E11 ; 0.0
185 ; 4.093759936473489E7 ; 1.2128109167732427E9 ; 7.945237247753833E9 ; 2.1371878484153183E11 ; 0.0
186 ; 4.09110132567097E7 ; 1.2128588874075224E9 ; 7.986174847118567E9 ; 2.1493159575830508E11 ; 0.0
187 ; 4.0886547854410455E7 ; 1.2129066653806946E9 ; 8.0270858603752775E9 ; 2.1614445464571262E11 ; 0.0
188 ; 4.085785126369708E7 ; 1.2129542495533233E9 ; 8.067972408229688E9 ; 2.1735736131109332E11 ; 0.0
189 ; 4.083475971815699E7 ; 1.2130016387944899E9 ; 8.108830259493384E9 ; 2.1857031556064664E11 ; 0.0
190 ; 4.080865141903542E7 ; 1.2130488319816933E9 ; 8.149665019211541E9 ; 2.1978331719944113E11 ; 0.0
191 ; 4.07855327436111E7 ; 1.213095828000749E9 ; 8.190473670630576E9 ; 2.2099636603142282E11 ; 0.0
192 ; 4.076251243954741E7 ; 1.2131426257456956E9 ; 8.231259203374187E9 ; 2.2220946185942358E11 ; 0.0
193 ; 4.073573984384355E7 ; 1.2131892241187012E9 ; 8.272021715813735E9 ; 2.2342260448516928E11 ; 0.0
194 ; 4.070754642182209E7 ; 1.2132356220299761E9 ; 8.312757455657578E9 ; 2.24635793709288E11 ; 0.0
195 ; 4.068558748873581E7 ; 1.2132818183976865E9 ; 8.353465002079401E9 ; 2.2584902933131796E11 ; 0.0
196 ; 4.0658217326297626E7 ; 1.213327812147873E9 ; 8.394150589568137E9 ; 2.2706231114971564E11 ; 0.0
