CSV File for the Network on Day 164
1 - Minute m 
2 - Power Consumed at minute m 
3 - Power Produced at minute m 
4 - Energy Consumed since the beginning of the day 
5 - Energy Produced since the beginning of the day 
6 - Energy Lost since the beginning of the day 
 
0 ; 1.576022382982299E7 ; 6.350017745725161E8 ; 0.0 ; 0.0 ; 0.0
1 ; 1.5782648653684165E7 ; 6.359125622031345E8 ; 1.576022382982299E7 ; 6.350017745725161E8 ; 0.0
2 ; 1.5810129091235835E7 ; 6.386767435754249E8 ; 3.1542872483507156E7 ; 1.2709143367756505E9 ; 0.0
3 ; 1.5849377862266948E7 ; 6.432943354806015E8 ; 4.735300157474299E7 ; 1.9095910803510754E9 ; 0.0
4 ; 1.5893756754366357E7 ; 6.49765352973317E8 ; 6.320237943700994E7 ; 2.552885415831677E9 ; 0.0
5 ; 1.5955759162229143E7 ; 6.58089809285985E8 ; 7.90961361913763E7 ; 3.202650768804994E9 ; 0.0
6 ; 1.6031346578119315E7 ; 6.682677157519869E8 ; 9.505189535360545E7 ; 3.860740578090979E9 ; 0.0
7 ; 1.6145182903004836E7 ; 6.802990817387936E8 ; 1.1108324193172476E8 ; 4.529008293842966E9 ; 0.0
8 ; 1.6324936552995283E7 ; 6.941839145919124E8 ; 1.272284248347296E8 ; 5.209307375581759E9 ; 0.0
9 ; 1.659103892939208E7 ; 7.099222195904394E8 ; 1.4355336138772488E8 ; 5.903491290173672E9 ; 0.0
10 ; 1.7018412781124253E7 ; 7.275139999148488E8 ; 1.6014440031711695E8 ; 6.6134135097641115E9 ; 0.0
11 ; 1.769668692574702E7 ; 7.469592566274768E8 ; 1.771628130982412E8 ; 7.340927509678961E9 ; 0.0
12 ; 1.8782854421299577E7 ; 7.682579886659865E8 ; 1.9485950002398822E8 ; 8.0878867663064375E9 ; 0.0
13 ; 1.9841027038290165E7 ; 7.914101928499045E8 ; 2.136423544452878E8 ; 8.856144754972424E9 ; 0.0
14 ; 1.995590772845515E7 ; 8.16415863900135E8 ; 2.3348338148357797E8 ; 9.647554947822329E9 ; 0.0
15 ; 1.999442374617434E7 ; 8.432749944711701E8 ; 2.5343928921203312E8 ; 1.0463970811722464E10 ; 0.0
16 ; 2.0032163371195126E7 ; 8.719875751955392E8 ; 2.734337129582075E8 ; 1.1307245806193634E10 ; 0.0
17 ; 2.006525532487106E7 ; 9.025535947398608E8 ; 2.934658763294026E8 ; 1.2179233381389174E10 ; 0.0
18 ; 2.0108852021533746E7 ; 9.349730398717213E8 ; 3.135311316542737E8 ; 1.3081786976129034E10 ; 0.0
19 ; 2.014899262557852E7 ; 9.692458955364679E8 ; 3.336399836758074E8 ; 1.4016760016000755E10 ; 0.0
20 ; 2.0188504712370384E7 ; 1.0053721449428862E9 ; 3.5378897630138594E8 ; 1.4986005911537224E10 ; 0.0
21 ; 2.0232160388838086E7 ; 1.0433517696566588E9 ; 3.7397748101375633E8 ; 1.599137805648011E10 ; 0.0
22 ; 2.0265202098995816E7 ; 1.0831847497004263E9 ; 3.9420964140259445E8 ; 1.7034729826136768E10 ; 0.0
23 ; 2.030652176068403E7 ; 1.1248710636592479E9 ; 4.1447484350159025E8 ; 1.8117914575837196E10 ; 0.0
24 ; 2.0349525325520925E7 ; 1.1684106887902324E9 ; 4.3478136526227427E8 ; 1.9242785639496445E10 ; 0.0
25 ; 2.0391086049811948E7 ; 1.2059318465242424E9 ; 4.551308905877952E8 ; 2.041119632828668E10 ; 0.0
26 ; 2.042923510141523E7 ; 1.2059557988016534E9 ; 4.7552197663760716E8 ; 2.161712817481092E10 ; 0.0
27 ; 2.0466053522026353E7 ; 1.2059811353368266E9 ; 4.959512117390224E8 ; 2.2823083973612576E10 ; 0.0
28 ; 2.0505173681901276E7 ; 1.2060078292133932E9 ; 5.1641726526104873E8 ; 2.40290651089494E10 ; 0.0
29 ; 2.0541946591831304E7 ; 1.2060358527570097E9 ; 5.3692243894295E8 ; 2.5235072938162796E10 ; 0.0
30 ; 2.0577204614412807E7 ; 1.206065177646374E9 ; 5.574643855347813E8 ; 2.6441108790919807E10 ; 0.0
31 ; 2.0625064352236573E7 ; 1.2060957750211966E9 ; 5.780415901491941E8 ; 2.764717396856618E10 ; 0.0
32 ; 2.0648576013957836E7 ; 1.2061276155864336E9 ; 5.986666545014307E8 ; 2.885326974358738E10 ; 0.0
33 ; 2.0688216423603043E7 ; 1.2061606697122004E9 ; 6.193152305153886E8 ; 3.0059397359173813E10 ; 0.0
34 ; 2.071668433011887E7 ; 1.2061949075288868E9 ; 6.400034469389917E8 ; 3.1265558028886013E10 ; 0.0
35 ; 2.0754534220595777E7 ; 1.206230299017092E9 ; 6.607201312691106E8 ; 3.24717529364149E10 ; 0.0
36 ; 2.0780857877372235E7 ; 1.2062668140920968E9 ; 6.814746654897063E8 ; 3.3677983235431995E10 ; 0.0
37 ; 2.0807641083705984E7 ; 1.2063044226826777E9 ; 7.022555233670785E8 ; 3.488425004952409E10 ; 0.0
38 ; 2.0842248460195664E7 ; 1.2063430948041468E9 ; 7.230631644507846E8 ; 3.609055447220677E10 ; 0.0
39 ; 2.0866000499263026E7 ; 1.2063828006255846E9 ; 7.439054129109802E8 ; 3.729689756701092E10 ; 0.0
40 ; 2.0891257091216393E7 ; 1.2064235105312908E9 ; 7.647714134102433E8 ; 3.8503280367636505E10 ; 0.0
41 ; 2.0910076556244615E7 ; 1.2064651951765387E9 ; 7.856626705014597E8 ; 3.970970387816779E10 ; 0.0
42 ; 2.0936853781124357E7 ; 1.2065078255377703E9 ; 8.065727470577043E8 ; 4.091616907334433E10 ; 0.0
43 ; 2.095651360290757E7 ; 1.206551372957409E9 ; 8.275096008388287E8 ; 4.21226768988821E10 ; 0.0
44 ; 2.0972477598450176E7 ; 1.2065958091835022E9 ; 8.484661144417362E8 ; 4.332922827183951E10 ; 0.0
45 ; 2.099071006723102E7 ; 1.20664110640443E9 ; 8.694385920401864E8 ; 4.453582408102301E10 ; 0.0
46 ; 2.100183142432691E7 ; 1.2066872372789364E9 ; 8.904293021074175E8 ; 4.574246518742744E10 ; 0.0
47 ; 2.1014749904166266E7 ; 1.2067341749617648E9 ; 9.114311335317444E8 ; 4.6949152424706375E10 ; 0.0
48 ; 2.1027174042107776E7 ; 1.206781893125163E9 ; 9.324458834359106E8 ; 4.815588659966814E10 ; 0.0
49 ; 2.1035275955123052E7 ; 1.2068303659765592E9 ; 9.534730574780184E8 ; 4.93626684927933E10 ; 0.0
50 ; 2.104248023717705E7 ; 1.2068795682726808E9 ; 9.745083334331415E8 ; 5.056949885876986E10 ; 0.0
51 ; 2.1048822479128443E7 ; 1.20692947533041E9 ; 9.955508136703185E8 ; 5.177637842704254E10 ; 0.0
52 ; 2.1058456941320106E7 ; 1.2069800630346406E9 ; 1.016599636149447E9 ; 5.2983307902372955E10 ; 0.0
53 ; 2.104878252103036E7 ; 1.2070313078434122E9 ; 1.037658093090767E9 ; 5.419028796540759E10 ; 0.0
54 ; 2.1060697297738146E7 ; 1.2070831867905736E9 ; 1.0587068756117973E9 ; 5.539731927325101E10 ; 0.0
55 ; 2.1062561195064783E7 ; 1.2071356774862251E9 ; 1.0797675729095354E9 ; 5.660440246004158E10 ; 0.0
56 ; 2.1080322184314866E7 ; 1.2071887581151662E9 ; 1.1008301341046002E9 ; 5.78115381375278E10 ; 0.0
57 ; 2.1069362251945745E7 ; 1.2072424074335754E9 ; 1.1219104562889152E9 ; 5.901872689564297E10 ; 0.0
58 ; 2.1078854067487456E7 ; 1.2072966047641213E9 ; 1.142979818540861E9 ; 6.0225969303076546E10 ; 0.0
59 ; 2.1076125555148963E7 ; 1.2073513299897017E9 ; 1.1640586726083484E9 ; 6.143326590784067E10 ; 0.0
60 ; 2.108052632451936E7 ; 1.2074065635459838E9 ; 1.1851347981634974E9 ; 6.264061723783037E10 ; 0.0
61 ; 2.1084929783248592E7 ; 1.2074622864129126E9 ; 1.2062153244880168E9 ; 6.384802380137635E10 ; 0.0
62 ; 2.1085378333617754E7 ; 1.2075184801053395E9 ; 1.2273002542712655E9 ; 6.505548608778926E10 ; 0.0
63 ; 2.1089281408696353E7 ; 1.2075751266629057E9 ; 1.2483856326048832E9 ; 6.62630045678946E10 ; 0.0
64 ; 2.1090976813916843E7 ; 1.2076322086393085E9 ; 1.2694749140135796E9 ; 6.74705796945575E10 ; 0.0
65 ; 2.10893598049889E7 ; 1.2076897090910654E9 ; 1.2905658908274965E9 ; 6.867821190319681E10 ; 0.0
66 ; 2.1091731848047927E7 ; 1.2077476115658789E9 ; 1.3116552506324854E9 ; 6.988590161228787E10 ; 0.0
67 ; 2.108908740796641E7 ; 1.2078059000906925E9 ; 1.3327469824805334E9 ; 7.109364922385374E10 ; 0.0
68 ; 2.1092084610343013E7 ; 1.2078645591595252E9 ; 1.3538360698884997E9 ; 7.230145512394444E10 ; 0.0
69 ; 2.1091759930812374E7 ; 1.2079235737211576E9 ; 1.3749281544988427E9 ; 7.350931968310397E10 ; 0.0
70 ; 2.10898851837705E7 ; 1.2079829291667328E9 ; 1.396019914429655E9 ; 7.471724325682513E10 ; 0.0
71 ; 2.1085233420868315E7 ; 1.208042611317336E9 ; 1.4171097996134255E9 ; 7.592522618599187E10 ; 0.0
72 ; 2.1086261358464703E7 ; 1.2081026064115987E9 ; 1.438195033034294E9 ; 7.71332687973092E10 ; 0.0
73 ; 2.108088965432517E7 ; 1.2081629010933764E9 ; 1.4592812943927586E9 ; 7.834137140372081E10 ; 0.0
74 ; 2.108674613746544E7 ; 1.2082234823995364E9 ; 1.4803621840470839E9 ; 7.95495343048142E10 ; 0.0
75 ; 2.108034124858489E7 ; 1.2082843377478905E9 ; 1.5014489301845493E9 ; 8.075775778721373E10 ; 0.0
76 ; 2.108198830161895E7 ; 1.2083454549253023E9 ; 1.5225292714331343E9 ; 8.196604212496162E10 ; 0.0
77 ; 2.106950271451185E7 ; 1.2084068220759912E9 ; 1.5436112597347534E9 ; 8.317438757988693E10 ; 0.0
78 ; 2.1061091588997226E7 ; 1.2084684276900551E9 ; 1.5646807624492652E9 ; 8.438279440196292E10 ; 0.0
79 ; 2.104369943317732E7 ; 1.2085302605922298E9 ; 1.5857418540382624E9 ; 8.559126282965297E10 ; 0.0
80 ; 2.1030243365477085E7 ; 1.2085923099308956E9 ; 1.6067855534714396E9 ; 8.67997930902452E10 ; 0.0
81 ; 2.10063524178822E7 ; 1.2086545651673455E9 ; 1.6278157968369167E9 ; 8.800838540017609E10 ; 0.0
82 ; 2.0994013811655007E7 ; 1.2087170160653229E9 ; 1.648822149254799E9 ; 8.921703996534343E10 ; 0.0
83 ; 2.096701710018514E7 ; 1.208779652680831E9 ; 1.669816163066454E9 ; 9.042575698140875E10 ; 0.0
84 ; 2.095429322497545E7 ; 1.2088424653522234E9 ; 1.690783180166639E9 ; 9.163453663408958E10 ; 0.0
85 ; 2.0937194155008614E7 ; 1.208905444690578E9 ; 1.7117374733916144E9 ; 9.28433790994418E10 ; 0.0
86 ; 2.0918217371438354E7 ; 1.2089685815703478E9 ; 1.732674667546623E9 ; 9.405228454413239E10 ; 0.0
87 ; 2.090126150837971E7 ; 1.2090318671202993E9 ; 1.7535928849180613E9 ; 9.526125312570273E10 ; 0.0
88 ; 2.0880461591948934E7 ; 1.2090952927147293E9 ; 1.774494146426441E9 ; 9.647028499282303E10 ; 0.0
89 ; 2.0857261605092034E7 ; 1.2091588499649591E9 ; 1.79537460801839E9 ; 9.767938028553775E10 ; 0.0
90 ; 2.0843834969940387E7 ; 1.2092225307111044E9 ; 1.816231869623482E9 ; 9.888853913550272E10 ; 0.0
91 ; 2.0816334267926738E7 ; 1.2092863270141158E9 ; 1.8370757045934224E9 ; 1.0009776166621382E11 ; 0.0
92 ; 2.0795575451434173E7 ; 1.2093502311480856E9 ; 1.857892038861349E9 ; 1.0130704799322794E11 ; 0.0
93 ; 2.0772788948282547E7 ; 1.2094142355928154E9 ; 1.8786876143127832E9 ; 1.0251639822437602E11 ; 0.0
94 ; 2.0755740851044744E7 ; 1.2094783330266385E9 ; 1.8994604032610657E9 ; 1.0372581245996884E11 ; 0.0
95 ; 2.0736274033937246E7 ; 1.2095425163194926E9 ; 1.9202161441121104E9 ; 1.0493529079299548E11 ; 0.0
96 ; 2.0711020530740257E7 ; 1.209606778526236E9 ; 1.9409524181460476E9 ; 1.0614483330931497E11 ; 0.0
97 ; 2.068629777441372E7 ; 1.2096711128802006E9 ; 1.9616634386767879E9 ; 1.073544400878412E11 ; 0.0
98 ; 2.0672811727871846E7 ; 1.2097355127869742E9 ; 1.9823497364512017E9 ; 1.085641112007214E11 ; 0.0
99 ; 2.064161890003841E7 ; 1.2097999718184092E9 ; 2.0030225481790736E9 ; 1.0977384671350838E11 ; 0.0
100 ; 2.0618999895959467E7 ; 1.2098644837068477E9 ; 2.023664167079112E9 ; 1.1098364668532678E11 ; 0.0
101 ; 2.0591469333017115E7 ; 1.2099290423395567E9 ; 2.0442831669750714E9 ; 1.1219351116903363E11 ; 0.0
102 ; 2.0574827585829046E7 ; 1.2099936417533674E9 ; 2.0648746363080885E9 ; 1.1340344021137318E11 ; 0.0
103 ; 2.0552802688202135E7 ; 1.2100582761295147E9 ; 2.0854494638939176E9 ; 1.1461343385312656E11 ; 0.0
104 ; 2.0523587254815668E7 ; 1.2101229397886634E9 ; 2.1060022665821197E9 ; 1.1582349212925607E11 ; 0.0
105 ; 2.0498198269007217E7 ; 1.210187627186124E9 ; 2.1265258538369353E9 ; 1.1703361506904474E11 ; 0.0
106 ; 2.047359860377843E7 ; 1.2102523329072425E9 ; 2.1470240521059425E9 ; 1.1824380269623087E11 ; 0.0
107 ; 2.0449226728613634E7 ; 1.2103170516629653E9 ; 2.167497650709721E9 ; 1.194540550291381E11 ; 0.0
108 ; 2.0417440567747537E7 ; 1.2103817782855694E9 ; 2.187946877438335E9 ; 1.2066437208080107E11 ; 0.0
109 ; 2.040307377236112E7 ; 1.2104465077245524E9 ; 2.2083643180060825E9 ; 1.2187475385908664E11 ; 0.0
110 ; 2.0372955669999935E7 ; 1.2105112350426779E9 ; 2.228767391778444E9 ; 1.2308520036681119E11 ; 0.0
111 ; 2.0344352533366207E7 ; 1.2105759554121675E9 ; 2.249140347448444E9 ; 1.2429571160185387E11 ; 0.0
112 ; 2.0322574084674053E7 ; 1.210640664111041E9 ; 2.26948469998181E9 ; 1.2550628755726604E11 ; 0.0
113 ; 2.0288935418027055E7 ; 1.210705356519588E9 ; 2.289807274066484E9 ; 1.2671692822137708E11 ; 0.0
114 ; 2.0263259273359623E7 ; 1.210770028116977E9 ; 2.310096209484511E9 ; 1.2792763357789667E11 ; 0.0
115 ; 2.023186615158225E7 ; 1.2108346744779928E9 ; 2.3303594687578707E9 ; 1.2913840360601364E11 ; 0.0
116 ; 2.01980595135837E7 ; 1.2108992912698927E9 ; 2.350591334909453E9 ; 1.3034923828049164E11 ; 0.0
117 ; 2.0170625879341826E7 ; 1.2109638742493858E9 ; 2.3707893944230366E9 ; 1.3156013757176154E11 ; 0.0
118 ; 2.0147223905671038E7 ; 1.2110284192597225E9 ; 2.390960020302378E9 ; 1.3277110144601093E11 ; 0.0
119 ; 2.0113427927048396E7 ; 1.2110929222278965E9 ; 2.4111072442080493E9 ; 1.3398212986527065E11 ; 0.0
120 ; 2.00883446574642E7 ; 1.2111573791619487E9 ; 2.4312206721350975E9 ; 1.3519322278749854E11 ; 0.0
121 ; 2.0050791167696662E7 ; 1.2112217861483762E9 ; 2.4513090167925615E9 ; 1.3640438016666048E11 ; 0.0
122 ; 2.00276365394976E7 ; 1.2112861393496342E9 ; 2.471359807960258E9 ; 1.3761560195280884E11 ; 0.0
123 ; 1.999766788329168E7 ; 1.2113504350017364E9 ; 2.4913874444997554E9 ; 1.3882688809215848E11 ; 0.0
124 ; 1.9961690570902888E7 ; 1.2114146694119396E9 ; 2.511385112383047E9 ; 1.4003823852716022E11 ; 0.0
125 ; 1.9933463085715853E7 ; 1.2114788389565196E9 ; 2.53134680295395E9 ; 1.4124965319657214E11 ; 0.0
126 ; 1.9900079229528785E7 ; 1.2115429400786278E9 ; 2.5512802660396657E9 ; 1.4246113203552866E11 ; 0.0
127 ; 1.986520102566103E7 ; 1.211606969286227E9 ; 2.5711803452691946E9 ; 1.4367267497560727E11 ; 0.0
128 ; 1.9838619052072447E7 ; 1.2116709231501048E9 ; 2.5910455462948556E9 ; 1.448842819448935E11 ; 0.0
129 ; 1.9810243178923894E7 ; 1.2117347983019605E9 ; 2.610884165346928E9 ; 1.460959528680436E11 ; 0.0
130 ; 1.977036100701502E7 ; 1.211798591432563E9 ; 2.630694408525852E9 ; 1.4730768766634558E11 ; 0.0
131 ; 1.9715395194163453E7 ; 1.2118622992899766E9 ; 2.6504647695328674E9 ; 1.4851948625777814E11 ; 0.0
132 ; 1.9666984971646093E7 ; 1.2119259186778498E9 ; 2.6701801647270308E9 ; 1.497313485570681E11 ; 0.0
133 ; 1.9619347622250438E7 ; 1.2119894464537718E9 ; 2.689847149698677E9 ; 1.5094327447574597E11 ; 0.0
134 ; 1.9576541419259623E7 ; 1.212052879527684E9 ; 2.7094664973209276E9 ; 1.5215526392219974E11 ; 0.0
135 ; 1.953072785331778E7 ; 1.212116214860353E9 ; 2.729043038740187E9 ; 1.5336731680172742E11 ; 0.0
136 ; 1.9475442404068448E7 ; 1.2121794494618976E9 ; 2.748573766593505E9 ; 1.5457943301658777E11 ; 0.0
137 ; 1.9427384780557055E7 ; 1.2122425803903708E9 ; 2.7680492089975734E9 ; 1.5579161246604965E11 ; 0.0
138 ; 1.9389147310818408E7 ; 1.2123056047503912E9 ; 2.7874765937781305E9 ; 1.5700385504644003E11 ; 0.0
139 ; 1.933747254004499E7 ; 1.2123685196918254E9 ; 2.8068657410889487E9 ; 1.5821616065119043E11 ; 0.0
140 ; 1.928597405880796E7 ; 1.2124313224085174E9 ; 2.8262032136289935E9 ; 1.5942852917088226E11 ; 0.0
141 ; 1.9231151025089588E7 ; 1.2124940101370635E9 ; 2.8454891876878014E9 ; 1.6064096049329077E11 ; 0.0
142 ; 1.9189956750968914E7 ; 1.2125565801556318E9 ; 2.864720338712891E9 ; 1.6185345450342783E11 ; 0.0
143 ; 1.9133622565890364E7 ; 1.2126190297828238E9 ; 2.88391029546386E9 ; 1.6306601108358347E11 ; 0.0
144 ; 1.9086233088430863E7 ; 1.2126813563765745E9 ; 2.9030439180297503E9 ; 1.642786301133663E11 ; 0.0
145 ; 1.905125708934614E7 ; 1.2127435573330956E9 ; 2.922130151118181E9 ; 1.654913114697429E11 ; 0.0
146 ; 1.9019636373173613E7 ; 1.2128056300858521E9 ; 2.941181408207527E9 ; 1.66704055027076E11 ; 0.0
147 ; 1.897933516491142E7 ; 1.2128675721045785E9 ; 2.960201044580701E9 ; 1.6791686065716183E11 ; 0.0
148 ; 1.895467674007836E7 ; 1.2129293808943257E9 ; 2.979180379745612E9 ; 1.6912972822926642E11 ; 0.0
149 ; 1.8919237780674644E7 ; 1.2129910539945467E9 ; 2.9981350564856906E9 ; 1.7034265761016074E11 ; 0.0
150 ; 1.8879069137559928E7 ; 1.2130525889782085E9 ; 3.017054294266365E9 ; 1.7155564866415527E11 ; 0.0
151 ; 1.88483343003944E7 ; 1.21311398345094E9 ; 3.035933363403925E9 ; 1.7276870125313348E11 ; 0.0
152 ; 1.8816466665134832E7 ; 1.2131752350502055E9 ; 3.0547816977043195E9 ; 1.739818152365844E11 ; 0.0
153 ; 1.87770562995818E7 ; 1.2132363414445107E9 ; 3.0735981643694544E9 ; 1.751949904716346E11 ; 0.0
154 ; 1.874568238023066E7 ; 1.213297300332633E9 ; 3.0923752206690364E9 ; 1.7640822681307913E11 ; 0.0
155 ; 1.870850792094355E7 ; 1.21335810944288E9 ; 3.111120903049267E9 ; 1.7762152411341177E11 ; 0.0
156 ; 1.8673542348704234E7 ; 1.2134187665323727E9 ; 3.1298294109702106E9 ; 1.7883488222285464E11 ; 0.0
157 ; 1.8639217069566354E7 ; 1.2134792693863554E9 ; 3.148502953318915E9 ; 1.8004830098938702E11 ; 0.0
158 ; 1.8612009877558354E7 ; 1.2135396158175251E9 ; 3.167142170388481E9 ; 1.8126178025877338E11 ; 0.0
159 ; 1.8566382773070376E7 ; 1.2135998036653879E9 ; 3.1857541802660394E9 ; 1.824753198745909E11 ; 0.0
160 ; 1.853766265268022E7 ; 1.2136598307956352E9 ; 3.2043205630391097E9 ; 1.836889196782563E11 ; 0.0
161 ; 1.850426275720226E7 ; 1.2137196950995402E9 ; 3.22285822569179E9 ; 1.849025795090519E11 ; 0.0
162 ; 1.846713570873895E7 ; 1.213779394493379E9 ; 3.2413624884489923E9 ; 1.8611629920415146E11 ; 0.0
163 ; 1.8426041229749076E7 ; 1.2138389269178648E9 ; 3.259829624157731E9 ; 1.8733007859864484E11 ; 0.0
164 ; 1.8401326603106033E7 ; 1.2138982903376062E9 ; 3.2782556653874803E9 ; 1.885439175255627E11 ; 0.0
165 ; 1.8362962144821644E7 ; 1.213957482740582E9 ; 3.2966569919905863E9 ; 1.8975781581590033E11 ; 0.0
166 ; 1.8329013463973776E7 ; 1.2140165021376336E9 ; 3.315019954135408E9 ; 1.909717732986409E11 ; 0.0
167 ; 1.829141206554167E7 ; 1.2140753465619738E9 ; 3.333348967599382E9 ; 1.9218578980077853E11 ; 0.0
168 ; 1.8254238633095045E7 ; 1.2141340140687113E9 ; 3.3516403796649237E9 ; 1.933998651473405E11 ; 0.0
169 ; 1.8214388844185174E7 ; 1.2141925027343953E9 ; 3.369894618298019E9 ; 1.9461399916140924E11 ; 0.0
170 ; 1.8179850086625434E7 ; 1.214250810656567E9 ; 3.3881090071422043E9 ; 1.9582819166414365E11 ; 0.0
171 ; 1.814470846271013E7 ; 1.2143089359533358E9 ; 3.40628885722883E9 ; 1.970424424748002E11 ; 0.0
172 ; 1.8110667666605253E7 ; 1.2143668767629597E9 ; 3.42443356569154E9 ; 1.9825675141075354E11 ; 0.0
173 ; 1.807964841866955E7 ; 1.2144246312434473E9 ; 3.442544233358145E9 ; 1.994711182875165E11 ; 0.0
174 ; 1.804541921990533E7 ; 1.2144821975721684E9 ; 3.460623881776815E9 ; 2.0068554291875995E11 ; 0.0
175 ; 1.802074152513817E7 ; 1.214539573945478E9 ; 3.4786693009967203E9 ; 2.0190002511633212E11 ; 0.0
176 ; 1.798891523705507E7 ; 1.214596758578353E9 ; 3.4966900425218587E9 ; 2.031145646902776E11 ; 0.0
177 ; 1.796119091812639E7 ; 1.214653749704042E9 ; 3.514678957758914E9 ; 2.0432916144885593E11 ; 0.0
178 ; 1.7932654737741772E7 ; 1.2147105455737228E9 ; 3.5326401486770406E9 ; 2.0554381519855997E11 ; 0.0
179 ; 1.79086877913837E7 ; 1.2147671444561756E9 ; 3.5505728034147825E9 ; 2.067585257441337E11 ; 0.0
180 ; 1.787911047453151E7 ; 1.214823544637462E9 ; 3.5684814912061663E9 ; 2.0797329288858987E11 ; 0.0
181 ; 1.7846172050631158E7 ; 1.214879744420618E9 ; 3.586360601680698E9 ; 2.0918811643322733E11 ; 0.0
182 ; 1.78169217836074E7 ; 1.2149357421253548E9 ; 3.604206773731329E9 ; 2.1040299617764795E11 ; 0.0
183 ; 1.779062972691461E7 ; 1.2149915360877705E9 ; 3.6220236955149364E9 ; 2.1161793191977332E11 ; 0.0
184 ; 1.7757617583718576E7 ; 1.215047124660069E9 ; 3.639814325241851E9 ; 2.1283292345586108E11 ; 0.0
185 ; 1.7739449444968045E7 ; 1.2151025062102904E9 ; 3.6575719428255696E9 ; 2.1404797058052115E11 ; 0.0
186 ; 1.7700408128443588E7 ; 1.2151576791220472E9 ; 3.675311392270538E9 ; 2.1526307308673145E11 ; 0.0
187 ; 1.7678589541174322E7 ; 1.2152126417942715E9 ; 3.6930118003989816E9 ; 2.164782307658535E11 ; 0.0
188 ; 1.7649486254991885E7 ; 1.2152673926409683E9 ; 3.710690389940156E9 ; 2.1769344340764777E11 ; 0.0
189 ; 1.76223292224573E7 ; 1.215321930090977E9 ; 3.728339876195148E9 ; 2.1890871080028873E11 ; 0.0
190 ; 1.7592204985930458E7 ; 1.2153762525877414E9 ; 3.7459622054176054E9 ; 2.201240327303797E11 ; 0.0
191 ; 1.7560367205847804E7 ; 1.2154303585890846E9 ; 3.763554410403536E9 ; 2.2133940898296744E11 ; 0.0
192 ; 1.75387158530435E7 ; 1.2154842465669942E9 ; 3.7811147776093836E9 ; 2.2255483934155652E11 ; 0.0
193 ; 1.7501623696442705E7 ; 1.2155379150074115E9 ; 3.798653493462427E9 ; 2.237703235881235E11 ; 0.0
194 ; 1.7477536264063742E7 ; 1.2155913624100277E9 ; 3.8161551171588697E9 ; 2.2498586150313092E11 ; 0.0
195 ; 1.7454201433893375E7 ; 1.2156445872880878E9 ; 3.8336326534229336E9 ; 2.2620145286554095E11 ; 0.0
