CSV File for the Network on Day 35
1 - Minute m 
2 - Power Consumed at minute m 
3 - Power Produced at minute m 
4 - Energy Consumed since the beginning of the day 
5 - Energy Produced since the beginning of the day 
6 - Energy Lost since the beginning of the day 
 
0 ; 3.839125435164524E7 ; 6.324890302719526E8 ; 0.0 ; 0.0 ; 0.0
1 ; 3.843431625557759E7 ; 6.333893376129439E8 ; 3.839125435164524E7 ; 6.324890302719526E8 ; 0.0
2 ; 3.847838751899731E7 ; 6.361438102603709E8 ; 7.682557060722283E7 ; 1.2658783678848965E9 ; 0.0
3 ; 3.8524525009837314E7 ; 6.407525614917454E8 ; 1.1530395812622014E8 ; 1.9020221781452675E9 ; 0.0
4 ; 3.858304485264948E7 ; 6.472156990157344E8 ; 1.5382848313605744E8 ; 2.542774739637013E9 ; 0.0
5 ; 3.8652824432795845E7 ; 6.555333226785567E8 ; 1.9241152798870692E8 ; 3.189990438652747E9 ; 0.0
6 ; 3.8741532336284764E7 ; 6.657055221153804E8 ; 2.3106435242150277E8 ; 3.8455237613313036E9 ; 0.0
7 ; 3.887113684426929E7 ; 6.777323744553895E8 ; 2.698058847577875E8 ; 4.511229283446684E9 ; 0.0
8 ; 3.906523065023904E7 ; 6.916139422030075E8 ; 3.086770216020568E8 ; 5.188961657902073E9 ; 0.0
9 ; 3.9339768655933335E7 ; 7.073502714215679E8 ; 3.4774225225229585E8 ; 5.880575600105081E9 ; 0.0
10 ; 3.978230925640744E7 ; 7.249413903371358E8 ; 3.870820209082292E8 ; 6.5879258715266485E9 ; 0.0
11 ; 4.046874807962944E7 ; 7.44387308458605E8 ; 4.268643301646366E8 ; 7.312867261863785E9 ; 0.0
12 ; 4.157635797616366E7 ; 7.656880162770816E8 ; 4.6733307824426603E8 ; 8.05725457032239E9 ; 0.0
13 ; 4.264417731116574E7 ; 7.888434855665004E8 ; 5.089094362204297E8 ; 8.822942586599472E9 ; 0.0
14 ; 4.276111659030104E7 ; 8.138536702635285E8 ; 5.515536135315955E8 ; 9.611786072165972E9 ; 0.0
15 ; 4.281658046591343E7 ; 8.407185078637419E8 ; 5.943147301218965E8 ; 1.04256397424295E10 ; 0.0
16 ; 4.286145091956155E7 ; 8.694379212379566E8 ; 6.371313105878099E8 ; 1.1266358250293243E10 ; 0.0
17 ; 4.290992083442436E7 ; 9.000118207510046E8 ; 6.799927615073714E8 ; 1.21357961715312E10 ; 0.0
18 ; 4.296880828246291E7 ; 9.324401065566673E8 ; 7.229026823417958E8 ; 1.3035807992282206E10 ; 0.0
19 ; 4.300980596734525E7 ; 9.667226709462771E8 ; 7.658714906242588E8 ; 1.3968248098838873E10 ; 0.0
20 ; 4.306403643797765E7 ; 1.0028594006423228E9 ; 8.08881296591604E8 ; 1.493497076978515E10 ; 0.0
21 ; 4.311854960045384E7 ; 1.0408501789489895E9 ; 8.519453330295817E8 ; 1.5937830170427473E10 ; 0.0
22 ; 4.316636483152197E7 ; 1.0806948876953585E9 ; 8.950638826300355E8 ; 1.6978680349376463E10 ; 0.0
23 ; 4.3220439020506844E7 ; 1.122393408930884E9 ; 9.382302474615575E8 ; 1.8059375237071823E10 ; 0.0
24 ; 4.327116458708059E7 ; 1.1659456263543828E9 ; 9.814506864820644E8 ; 1.918176864600271E10 ; 0.0
25 ; 4.3318499598913155E7 ; 1.2034796718647752E9 ; 1.024721851069145E9 ; 2.034771427235709E10 ; 0.0
26 ; 4.337160795681791E7 ; 1.203516722689427E9 ; 1.0680403506680582E9 ; 2.1551193944221867E10 ; 0.0
27 ; 4.341863636893484E7 ; 1.20355528920781E9 ; 1.111411958624876E9 ; 2.2754710666911293E10 ; 0.0
28 ; 4.3464359441565014E7 ; 1.203595270901017E9 ; 1.154830594993811E9 ; 2.3958265956119102E10 ; 0.0
29 ; 4.350957628935138E7 ; 1.2036365724044366E9 ; 1.198294954435376E9 ; 2.516186122702012E10 ; 0.0
30 ; 4.356369136415645E7 ; 1.2036791036549454E9 ; 1.2418045307247274E9 ; 2.6365497799424557E10 ; 0.0
31 ; 4.3602227082635984E7 ; 1.203722779920099E9 ; 1.2853682220888839E9 ; 2.7569176903079502E10 ; 0.0
32 ; 4.3647157725804076E7 ; 1.2037675217347083E9 ; 1.3289704491715198E9 ; 2.87728996829996E10 ; 0.0
33 ; 4.369743471151118E7 ; 1.2038132547670355E9 ; 1.3726176068973238E9 ; 2.9976667204734306E10 ; 0.0
34 ; 4.374139271593575E7 ; 1.2038599096335576E9 ; 1.416315041608835E9 ; 3.1180480459501343E10 ; 0.0
35 ; 4.377857974237696E7 ; 1.2039074216780465E9 ; 1.4600564343247707E9 ; 3.23843403691349E10 ; 0.0
36 ; 4.381814690875164E7 ; 1.203955730727775E9 ; 1.5038350140671477E9 ; 3.3588247790812946E10 ; 0.0
37 ; 4.3858053857746325E7 ; 1.2040047808370323E9 ; 1.5476531609758995E9 ; 3.479220352154072E10 ; 0.0
38 ; 4.389178665637252E7 ; 1.2040545200258706E9 ; 1.5915112148336458E9 ; 3.599620830237775E10 ; 0.0
39 ; 4.39255708981036E7 ; 1.2041049000201113E9 ; 1.6354030014900184E9 ; 3.720026282240362E10 ; 0.0
40 ; 4.396124843855679E7 ; 1.204155875997056E9 ; 1.679328572388122E9 ; 3.840436772242373E10 ; 0.0
41 ; 4.3998950998362206E7 ; 1.2042074063400726E9 ; 1.7232898208266788E9 ; 3.9608523598420784E10 ; 0.0
42 ; 4.4022170916147955E7 ; 1.2042594524042194E9 ; 1.767288771825041E9 ; 4.081273100476086E10 ; 0.0
43 ; 4.4052670176158935E7 ; 1.2043119782942655E9 ; 1.811310942741189E9 ; 4.201699045716508E10 ; 0.0
44 ; 4.408093036882802E7 ; 1.2043649506558554E9 ; 1.855363612917348E9 ; 4.322130243545934E10 ; 0.0
45 ; 4.410444336557064E7 ; 1.204418338480099E9 ; 1.899444543286176E9 ; 4.44256673861152E10 ; 0.0
46 ; 4.412791376371213E7 ; 1.2044721129215288E9 ; 1.9435489866517465E9 ; 4.56300857245953E10 ; 0.0
47 ; 4.414918380652454E7 ; 1.2045262471291094E9 ; 1.9876769004154587E9 ; 4.683455783751683E10 ; 0.0
48 ; 4.416400332262027E7 ; 1.2045807160898225E9 ; 2.0318260842219832E9 ; 4.803908408464594E10 ; 0.0
49 ; 4.418318713590348E7 ; 1.2046354964842257E9 ; 2.0759900875446033E9 ; 4.924366480073576E10 ; 0.0
50 ; 4.4193283217722654E7 ; 1.2046905665533214E9 ; 2.1201732746805067E9 ; 5.0448300297219986E10 ; 0.0
51 ; 4.4207320668356165E7 ; 1.2047459059760303E9 ; 2.1643665578982296E9 ; 5.165299086377331E10 ; 0.0
52 ; 4.4217549074873544E7 ; 1.2048014957565582E9 ; 2.2085738785665855E9 ; 5.285773676974934E10 ; 0.0
53 ; 4.422678379413173E7 ; 1.204857318120946E9 ; 2.252791427641459E9 ; 5.40625382655059E10 ; 0.0
54 ; 4.423723242678775E7 ; 1.2049133564221168E9 ; 2.2970182114355907E9 ; 5.526739558362685E10 ; 0.0
55 ; 4.4253682380926594E7 ; 1.2049695950527613E9 ; 2.3412554438623786E9 ; 5.6472308940048965E10 ; 0.0
56 ; 4.426285477695877E7 ; 1.2050260193654356E9 ; 2.385509126243305E9 ; 5.767727853510173E10 ; 0.0
57 ; 4.427765726342198E7 ; 1.2050826155992837E9 ; 2.429771981020264E9 ; 5.888230455446716E10 ; 0.0
58 ; 4.42788670858037E7 ; 1.2051393708128343E9 ; 2.474049638283686E9 ; 6.0087387170066444E10 ; 0.0
59 ; 4.4291785577857465E7 ; 1.2051962728223648E9 ; 2.5183285053694897E9 ; 6.129252654087928E10 ; 0.0
60 ; 4.430099885113834E7 ; 1.205253310145355E9 ; 2.562620290947347E9 ; 6.2497722813701645E10 ; 0.0
61 ; 4.430816198304134E7 ; 1.2053104719485998E9 ; 2.6069212897984853E9 ; 6.3702976123847E10 ; 0.0
62 ; 4.4316651791856825E7 ; 1.2053677480005777E9 ; 2.6512294517815266E9 ; 6.49082865957956E10 ; 0.0
63 ; 4.432473123302456E7 ; 1.2054251286277103E9 ; 2.6955461035733833E9 ; 6.611365434379618E10 ; 0.0
64 ; 4.433075096575147E7 ; 1.2054826046741726E9 ; 2.739870834806408E9 ; 6.731907947242389E10 ; 0.0
65 ; 4.4333849657268524E7 ; 1.2055401674649518E9 ; 2.7842015857721596E9 ; 6.852456207709806E10 ; 0.0
66 ; 4.434380441600084E7 ; 1.2055978087718713E9 ; 2.828535435429428E9 ; 6.973010224456302E10 ; 0.0
67 ; 4.43448715531258E7 ; 1.2056555207823234E9 ; 2.872879239845429E9 ; 7.093570005333488E10 ; 0.0
68 ; 4.435687719383542E7 ; 1.2057132960704792E9 ; 2.917224111398555E9 ; 7.21413555741172E10 ; 0.0
69 ; 4.4353618047651835E7 ; 1.2057711275707626E9 ; 2.96158098859239E9 ; 7.334706887018768E10 ; 0.0
70 ; 4.435550889987908E7 ; 1.2058290085533943E9 ; 3.005934606640042E9 ; 7.455283999775845E10 ; 0.0
71 ; 4.436733926932661E7 ; 1.2058869326018305E9 ; 3.050290115539921E9 ; 7.575866900631184E10 ; 0.0
72 ; 4.436579134905146E7 ; 1.2059448935919333E9 ; 3.0946574548092475E9 ; 7.696455593891368E10 ; 0.0
73 ; 4.4373387456138246E7 ; 1.2060028856727326E9 ; 3.139023246158299E9 ; 7.817050083250562E10 ; 0.0
74 ; 4.437606174114457E7 ; 1.2060609032486389E9 ; 3.183396633614437E9 ; 7.937650371817834E10 ; 0.0
75 ; 4.436866070936221E7 ; 1.2061189409629912E9 ; 3.2277726953555818E9 ; 8.058256462142699E10 ; 0.0
76 ; 4.43779590740844E7 ; 1.2061769936828291E9 ; 3.272141356064944E9 ; 8.178868356238998E10 ; 0.0
77 ; 4.437424997548339E7 ; 1.206235056484784E9 ; 3.316519315139028E9 ; 8.299486055607281E10 ; 0.0
78 ; 4.4363674672636755E7 ; 1.206293124642005E9 ; 3.3608935651145115E9 ; 8.42010956125576E10 ; 0.0
79 ; 4.435399528616395E7 ; 1.2063511936120305E9 ; 3.4052572397871485E9 ; 8.54073887371996E10 ; 0.0
80 ; 4.4336665929051094E7 ; 1.2064092590255308E9 ; 3.4496112350733123E9 ; 8.661373993081163E10 ; 0.0
81 ; 4.433090182737227E7 ; 1.206467316675851E9 ; 3.493947901002363E9 ; 8.782014918983716E10 ; 0.0
82 ; 4.431686441210249E7 ; 1.206525362509295E9 ; 3.5382788028297353E9 ; 8.902661650651302E10 ; 0.0
83 ; 4.429523048694402E7 ; 1.2065833926160843E9 ; 3.582595667241838E9 ; 9.023314186902231E10 ; 0.0
84 ; 4.42828224199475E7 ; 1.20664140322195E9 ; 3.626890897728782E9 ; 9.14397252616384E10 ; 0.0
85 ; 4.426620422347875E7 ; 1.206699390680296E9 ; 3.67117372014873E9 ; 9.264636666486035E10 ; 0.0
86 ; 4.424837762569947E7 ; 1.2067573514649E9 ; 3.7154399243722086E9 ; 9.385306605554065E10 ; 0.0
87 ; 4.423666781996045E7 ; 1.2068152821631079E9 ; 3.759688301997908E9 ; 9.505982340700555E10 ; 0.0
88 ; 4.421753458210835E7 ; 1.2068731794694805E9 ; 3.8039249698178687E9 ; 9.626663868916866E10 ; 0.0
89 ; 4.420487102506368E7 ; 1.206931040179864E9 ; 3.848142504399977E9 ; 9.747351186863814E10 ; 0.0
90 ; 4.4183277341733575E7 ; 1.20698886118585E9 ; 3.8923473754250407E9 ; 9.868044290881801E10 ; 0.0
91 ; 4.416436278225137E7 ; 1.2070466394695966E9 ; 3.936530652766774E9 ; 9.988743177000386E10 ; 0.0
92 ; 4.4149694644095145E7 ; 1.207104372098985E9 ; 3.9806950155490255E9 ; 1.0109447840947345E11 ; 0.0
93 ; 4.4131096906182244E7 ; 1.2071620562230833E9 ; 4.0248447101931205E9 ; 1.0230158278157243E11 ; 0.0
94 ; 4.410934169875134E7 ; 1.2072196890679035E9 ; 4.068975807099303E9 ; 1.0350874483779552E11 ; 0.0
95 ; 4.4087791201129764E7 ; 1.207277267932422E9 ; 4.113085148798054E9 ; 1.0471596452686342E11 ; 0.0
96 ; 4.4071590531568706E7 ; 1.207334790184849E9 ; 4.157172939999184E9 ; 1.0592324179479584E11 ; 0.0
97 ; 4.404656223745333E7 ; 1.2073922532591302E9 ; 4.2012445305307527E9 ; 1.0713057658498068E11 ; 0.0
98 ; 4.402720012810309E7 ; 1.2074496546516633E9 ; 4.245291092768206E9 ; 1.083379688382398E11 ; 0.0
99 ; 4.400365666177065E7 ; 1.207506991918212E9 ; 4.2893182928963094E9 ; 1.0954541849289146E11 ; 0.0
100 ; 4.399270763265989E7 ; 1.20756426267101E9 ; 4.33332194955808E9 ; 1.1075292548480968E11 ; 0.0
101 ; 4.39636705704206E7 ; 1.207621464576036E9 ; 4.37731465719074E9 ; 1.1196048974748068E11 ; 0.0
102 ; 4.394456590593521E7 ; 1.2076785953504503E9 ; 4.42127832776116E9 ; 1.1316811121205672E11 ; 0.0
103 ; 4.3913434144385815E7 ; 1.2077356527601843E9 ; 4.465222893667095E9 ; 1.1437578980740717E11 ; 0.0
104 ; 4.389452735518552E7 ; 1.2077926346176693E9 ; 4.509136327811481E9 ; 1.1558352546016734E11 ; 0.0
105 ; 4.387318961265371E7 ; 1.2078495387796984E9 ; 4.553030855166667E9 ; 1.1679131809478502E11 ; 0.0
106 ; 4.3841878058034815E7 ; 1.2079063631454096E9 ; 4.596904044779321E9 ; 1.1799916763356471E11 ; 0.0
107 ; 4.382149941714807E7 ; 1.2079631056543858E9 ; 4.640745922837356E9 ; 1.1920707399671013E11 ; 0.0
108 ; 4.379264904756035E7 ; 1.2080197642848606E9 ; 4.684567422254503E9 ; 1.2041503710236452E11 ; 0.0
109 ; 4.3766125228653684E7 ; 1.2080763370520272E9 ; 4.728360071302064E9 ; 1.2162305686664938E11 ; 0.0
110 ; 4.37433347292826E7 ; 1.2081328220064392E9 ; 4.772126196530718E9 ; 1.2283113320370142E11 ; 0.0
111 ; 4.371170889352713E7 ; 1.2081892172325025E9 ; 4.81586953126E9 ; 1.2403926602570786E11 ; 0.0
112 ; 4.368470609895024E7 ; 1.2082455208470461E9 ; 4.859581240153527E9 ; 1.2524745524294035E11 ; 0.0
113 ; 4.366501912710208E7 ; 1.2083017309979765E9 ; 4.903265946252478E9 ; 1.264557007637874E11 ; 0.0
114 ; 4.3623116912002094E7 ; 1.2083578458629994E9 ; 4.94693096537958E9 ; 1.2766400249478537E11 ; 0.0
115 ; 4.359640410066424E7 ; 1.208413863648414E9 ; 4.990554082291582E9 ; 1.2887236034064838E11 ; 0.0
116 ; 4.357244680919759E7 ; 1.2084697825879686E9 ; 5.034150486392246E9 ; 1.3008077420429678E11 ; 0.0
117 ; 4.354169404496801E7 ; 1.2085256009417799E9 ; 5.077722933201444E9 ; 1.3128924398688475E11 ; 0.0
118 ; 4.351481818348014E7 ; 1.208581316995307E9 ; 5.121264627246411E9 ; 1.3249776958782652E11 ; 0.0
119 ; 4.34794821105947E7 ; 1.2086369290583792E9 ; 5.164779445429892E9 ; 1.3370635090482182E11 ; 0.0
120 ; 4.345536144564716E7 ; 1.2086924354642763E9 ; 5.208258927540486E9 ; 1.349149878338802E11 ; 0.0
121 ; 4.3423565080005184E7 ; 1.2087478345688524E9 ; 5.251714288986134E9 ; 1.3612368026934448E11 ; 0.0
122 ; 4.3391111632511735E7 ; 1.2088031247497082E9 ; 5.295137854066139E9 ; 1.3733242810391333E11 ; 0.0
123 ; 4.335749010490323E7 ; 1.2088583044054048E9 ; 5.338528965698651E9 ; 1.3854123122866302E11 ; 0.0
124 ; 4.3326364554127015E7 ; 1.208913371954715E9 ; 5.381886455803555E9 ; 1.3975008953306842E11 ; 0.0
125 ; 4.32891568479611E7 ; 1.2089683258359144E9 ; 5.425212820357681E9 ; 1.4095900290502313E11 ; 0.0
126 ; 4.3262458632123575E7 ; 1.2090231645061073E9 ; 5.468501977205643E9 ; 1.4216797123085904E11 ; 0.0
127 ; 4.3221724917188324E7 ; 1.2090778864405868E9 ; 5.511764435837767E9 ; 1.4337699439536514E11 ; 0.0
128 ; 4.31904371943325E7 ; 1.2091324901322227E9 ; 5.554986160754955E9 ; 1.4458607228180573E11 ; 0.0
129 ; 4.315677864718287E7 ; 1.2091869740908866E9 ; 5.598176597949287E9 ; 1.4579520477193796E11 ; 0.0
130 ; 4.3115669701292396E7 ; 1.2092413368428962E9 ; 5.64133337659647E9 ; 1.4700439174602884E11 ; 0.0
131 ; 4.306262751855037E7 ; 1.209295576930495E9 ; 5.684449046297762E9 ; 1.4821363308287173E11 ; 0.0
132 ; 4.300769688726393E7 ; 1.2093496929113505E9 ; 5.727511673816312E9 ; 1.4942292865980222E11 ; 0.0
133 ; 4.296194681224671E7 ; 1.2094036833580794E9 ; 5.770519370703576E9 ; 1.5063227835271356E11 ; 0.0
134 ; 4.291514648528635E7 ; 1.2094575468577962E9 ; 5.813481317515822E9 ; 1.5184168203607166E11 ; 0.0
135 ; 4.286251153524471E7 ; 1.2095112820116808E9 ; 5.856396464001109E9 ; 1.5305113958292944E11 ; 0.0
136 ; 4.280426726865901E7 ; 1.2095648874345686E9 ; 5.899258975536354E9 ; 1.5426065086494113E11 ; 0.0
137 ; 4.276004462620921E7 ; 1.2096183617545578E9 ; 5.942063242805013E9 ; 1.554702157523757E11 ; 0.0
138 ; 4.2713105243152544E7 ; 1.2096717036126375E9 ; 5.984823287431222E9 ; 1.5667983411413025E11 ; 0.0
139 ; 4.265428432372365E7 ; 1.2097249116623302E9 ; 6.027536392674375E9 ; 1.578895058177429E11 ; 0.0
140 ; 4.2605108492532626E7 ; 1.2097779845693538E9 ; 6.070190676998098E9 ; 1.590992307294052E11 ; 0.0
141 ; 4.2552807730361536E7 ; 1.2098309210112967E9 ; 6.112795785490631E9 ; 1.6030900871397458E11 ; 0.0
142 ; 4.249960738507516E7 ; 1.2098837196773093E9 ; 6.155348593220993E9 ; 1.6151883963498587E11 ; 0.0
143 ; 4.244596370239647E7 ; 1.2099363792678084E9 ; 6.197848200606069E9 ; 1.6272872335466318E11 ; 0.0
144 ; 4.239206886726864E7 ; 1.2099888984941962E9 ; 6.240294164308465E9 ; 1.63938659733931E11 ; 0.0
145 ; 4.2351362896192774E7 ; 1.2100412760785906E9 ; 6.282686233175734E9 ; 1.651486486324252E11 ; 0.0
146 ; 4.231552638216461E7 ; 1.2100935107535698E9 ; 6.325037596071926E9 ; 1.6635868990850378E11 ; 0.0
147 ; 4.2273392889568724E7 ; 1.2101456012619255E9 ; 6.367353122454091E9 ; 1.6756878341925735E11 ; 0.0
148 ; 4.223709687835598E7 ; 1.210197546356429E9 ; 6.409626515343659E9 ; 1.687789290205193E11 ; 0.0
149 ; 4.219231088424407E7 ; 1.210249344799609E9 ; 6.451863612222015E9 ; 1.699891265668757E11 ; 0.0
150 ; 4.215585693096107E7 ; 1.2103009953635342E9 ; 6.494055923106259E9 ; 1.7119937591167532E11 ; 0.0
151 ; 4.2114716845135644E7 ; 1.2103524968296123E9 ; 6.53621178003722E9 ; 1.7240967690703885E11 ; 0.0
152 ; 4.207809153394332E7 ; 1.2104038479883924E9 ; 6.578326496882356E9 ; 1.7362002940386847E11 ; 0.0
153 ; 4.2047355116192624E7 ; 1.2104550476393785E9 ; 6.620404588416299E9 ; 1.7483043325185687E11 ; 0.0
154 ; 4.2003191283165574E7 ; 1.210506094590851E9 ; 6.662451943532492E9 ; 1.7604088829949625E11 ; 0.0
155 ; 4.196147956760256E7 ; 1.210556987659696E9 ; 6.704455134815658E9 ; 1.772513943940871E11 ; 0.0
156 ; 4.1922933984899186E7 ; 1.2106077256712406E9 ; 6.74641661438326E9 ; 1.784619513817468E11 ; 0.0
157 ; 4.188532586444585E7 ; 1.2106583074590979E9 ; 6.788339548368159E9 ; 1.7967255910741803E11 ; 0.0
158 ; 4.184460004159008E7 ; 1.2107087318650165E9 ; 6.830224874232605E9 ; 1.8088321741487714E11 ; 0.0
159 ; 4.179965198782879E7 ; 1.2107589977387378E9 ; 6.872069474274195E9 ; 1.8209392614674216E11 ; 0.0
160 ; 4.175945342284311E7 ; 1.210809103937859E9 ; 6.913869126262024E9 ; 1.833046851444809E11 ; 0.0
161 ; 4.171893173117584E7 ; 1.2108590493277016E9 ; 6.955628579684867E9 ; 1.8451549424841876E11 ; 0.0
162 ; 4.167676611122841E7 ; 1.2109088327811859E9 ; 6.997347511416042E9 ; 1.8572635329774646E11 ; 0.0
163 ; 4.163185195819264E7 ; 1.2109584531787117E9 ; 7.03902427752727E9 ; 1.8693726213052765E11 ; 0.0
164 ; 4.15944278850572E7 ; 1.2110079094080424E9 ; 7.080656129485463E9 ; 1.8814822058370636E11 ; 0.0
165 ; 4.15513189174043E7 ; 1.2110572003641963E9 ; 7.122250557370521E9 ; 1.893592284931144E11 ; 0.0
166 ; 4.151102221698952E7 ; 1.2111063249493392E9 ; 7.163801876287925E9 ; 1.905702856934786E11 ; 0.0
167 ; 4.146510038085459E7 ; 1.211155282072686E9 ; 7.205312898504914E9 ; 1.9178139201842795E11 ; 0.0
168 ; 4.142413602110162E7 ; 1.211204070650402E9 ; 7.246777998885769E9 ; 1.9299254730050064E11 ; 0.0
169 ; 4.1379279501448154E7 ; 1.2112526896055126E9 ; 7.288202134906871E9 ; 1.9420375137115103E11 ; 0.0
170 ; 4.1347590525940895E7 ; 1.2113011378678136E9 ; 7.329581414408319E9 ; 1.9541500406075653E11 ; 0.0
171 ; 4.129564943012907E7 ; 1.2113494143737864E9 ; 7.37092900493426E9 ; 1.9662630519862436E11 ; 0.0
172 ; 4.125206279211068E7 ; 1.211397518066517E9 ; 7.412224654364389E9 ; 1.9783765461299814E11 ; 0.0
173 ; 4.120918024141376E7 ; 1.21144544789562E9 ; 7.4534767171565E9 ; 1.9904905213106467E11 ; 0.0
174 ; 4.118920057357846E7 ; 1.2114932028171618E9 ; 7.494685897397914E9 ; 2.002604975789603E11 ; 0.0
175 ; 4.115771230052909E7 ; 1.2115407817935915E9 ; 7.535875097971493E9 ; 2.0147199078177747E11 ; 0.0
176 ; 4.1135513370595686E7 ; 1.2115881837936718E9 ; 7.577032810272022E9 ; 2.0268353156357104E11 ; 0.0
177 ; 4.1109279094103985E7 ; 1.2116354077924147E9 ; 7.618168323642618E9 ; 2.0389511974736472E11 ; 0.0
178 ; 4.108536937445326E7 ; 1.211682452771018E9 ; 7.659277602736722E9 ; 2.0510675515515714E11 ; 0.0
179 ; 4.106145764440729E7 ; 1.2117293177168071E9 ; 7.700362972111176E9 ; 2.0631843760792816E11 ; 0.0
180 ; 4.103452267896575E7 ; 1.2117760016231763E9 ; 7.741424429755583E9 ; 2.0753016692564496E11 ; 0.0
181 ; 4.10028920394756E7 ; 1.211822503489536E9 ; 7.782458952434548E9 ; 2.0874194292726813E11 ; 0.0
182 ; 4.097819920354145E7 ; 1.211868822321259E9 ; 7.823461844474024E9 ; 2.0995376543075766E11 ; 0.0
183 ; 4.0956570978153825E7 ; 1.2119149571296306E9 ; 7.864440043677566E9 ; 2.1116563425307892E11 ; 0.0
184 ; 4.092918358476347E7 ; 1.2119609069318027E9 ; 7.90539661465572E9 ; 2.1237754921020856E11 ; 0.0
185 ; 4.090862817228144E7 ; 1.2120066707507455E9 ; 7.946325798240483E9 ; 2.1358951011714035E11 ; 0.0
186 ; 4.088169479849057E7 ; 1.2120522476152055E9 ; 7.987234426412765E9 ; 2.1480151678789108E11 ; 0.0
187 ; 4.085372994363629E7 ; 1.212097636559663E9 ; 8.028116121211255E9 ; 2.160135690355063E11 ; 0.0
188 ; 4.083489935046463E7 ; 1.2121428366242933E9 ; 8.068969851154891E9 ; 2.1722566667206595E11 ; 0.0
189 ; 4.080199562323797E7 ; 1.2121878468549266E9 ; 8.109804750505356E9 ; 2.1843780950869025E11 ; 0.0
190 ; 4.0776025356293686E7 ; 1.2122326663030138E9 ; 8.150606746128593E9 ; 2.1964999735554517E11 ; 0.0
191 ; 4.0751024962651566E7 ; 1.2122772940255907E9 ; 8.191382771484887E9 ; 2.2086223002184818E11 ; 0.0
192 ; 4.073280630070402E7 ; 1.2123217290852437E9 ; 8.232133796447538E9 ; 2.2207450731587378E11 ; 0.0
193 ; 4.070509182362254E7 ; 1.212365970550081E9 ; 8.272866602748242E9 ; 2.23286829044959E11 ; 0.0
194 ; 4.0674763413453355E7 ; 1.212410017493699E9 ; 8.313571694571865E9 ; 2.244991950155091E11 ; 0.0
195 ; 4.065437020857416E7 ; 1.212453868995157E9 ; 8.354246457985318E9 ; 2.257116050330028E11 ; 0.0
196 ; 4.063134948986943E7 ; 1.212497524138946E9 ; 8.3949008281938925E9 ; 2.2692405890199796E11 ; 0.0
197 ; 4.060491324786724E7 ; 1.2125409820149658E9 ; 8.435532177683762E9 ; 2.281365564261369E11 ; 0.0
