CSV File for the Network on Day 18
1 - Minute m 
2 - Power Consumed at minute m 
3 - Power Produced at minute m 
4 - Energy Consumed since the beginning of the day 
5 - Energy Produced since the beginning of the day 
6 - Energy Lost since the beginning of the day 
 
0 ; 3.840704329231202E7 ; 6.317831115700738E8 ; 0.0 ; 0.0 ; 0.0
1 ; 3.8444849144538075E7 ; 6.326636012427118E8 ; 3.840704329231202E7 ; 6.317831115700738E8 ; 0.0
2 ; 3.849157929332328E7 ; 6.35398310890484E8 ; 7.68518924368501E7 ; 1.2644467128127856E9 ; 0.0
3 ; 3.853517518973292E7 ; 6.399876900601549E8 ; 1.1534347173017338E8 ; 1.8998450237032695E9 ; 0.0
4 ; 3.859450497259772E7 ; 6.464322662259581E8 ; 1.538786469199063E8 ; 2.5398327137634244E9 ; 0.0
5 ; 3.8670507077666596E7 ; 6.547326435303855E8 ; 1.92473151892504E8 ; 3.1862649799893827E9 ; 0.0
6 ; 3.875794464761844E7 ; 6.648894889793512E8 ; 2.3114365897017062E8 ; 3.840997623519768E9 ; 0.0
7 ; 3.887605214200255E7 ; 6.769034998501649E8 ; 2.6990160361778903E8 ; 4.50588711249912E9 ; 0.0
8 ; 3.9076468963462844E7 ; 6.907753481588496E8 ; 3.087776557597916E8 ; 5.182790612349285E9 ; 0.0
9 ; 3.935146513542207E7 ; 7.065056047854409E8 ; 3.4785412472325444E8 ; 5.873565960508135E9 ; 0.0
10 ; 3.978479188923378E7 ; 7.240946568448265E8 ; 3.872055898586765E8 ; 6.580071565293575E9 ; 0.0
11 ; 4.0481526732642666E7 ; 7.435426418224782E8 ; 4.2699038174791026E8 ; 7.304166222138402E9 ; 0.0
12 ; 4.158302722814759E7 ; 7.648494222329239E8 ; 4.674719084805529E8 ; 8.04770886396088E9 ; 0.0
13 ; 4.264546941122161E7 ; 7.88014610961276E8 ; 5.090549357087005E8 ; 8.812558286193804E9 ; 0.0
14 ; 4.2763253796413064E7 ; 8.130376371274995E8 ; 5.51700405119922E8 ; 9.600572897155079E9 ; 0.0
15 ; 4.281413494349827E7 ; 8.399178287155704E8 ; 5.944636589163351E8 ; 1.0413610534282578E10 ; 0.0
16 ; 4.286929762684053E7 ; 8.686544884481806E8 ; 6.372777938598334E8 ; 1.1253528362998148E10 ; 0.0
17 ; 4.291760175206899E7 ; 8.992469493194143E8 ; 6.801470914866738E8 ; 1.212218285144633E10 ; 0.0
18 ; 4.296422447349664E7 ; 9.316946071867802E8 ; 7.230646932387428E8 ; 1.3021429800765743E10 ; 0.0
19 ; 4.302385865605587E7 ; 9.65996934576045E8 ; 7.660289177122395E8 ; 1.3953124407952524E10 ; 0.0
20 ; 4.3070391750644445E7 ; 1.002153481940444E9 ; 8.090527763682954E8 ; 1.4919121342528568E10 ; 0.0
21 ; 4.3120328965413705E7 ; 1.0401638719222751E9 ; 8.521231681189399E8 ; 1.5921274824469013E10 ; 0.0
22 ; 4.317369372853242E7 ; 1.080027790533983E9 ; 8.952434970843536E8 ; 1.6961438696391289E10 ; 0.0
23 ; 4.322596559102203E7 ; 1.1217449776273484E9 ; 9.38417190812886E8 ; 1.804146648692527E10 ; 0.0
24 ; 4.327103667651002E7 ; 1.1653152178934581E9 ; 9.81643156403908E8 ; 1.916321146455262E10 ; 0.0
25 ; 4.331771346372566E7 ; 1.2028665783202872E9 ; 1.024914193080418E9 ; 2.032852668244608E10 ; 0.0
26 ; 4.336650582213502E7 ; 1.2029201976943674E9 ; 1.0682319065441437E9 ; 2.1531393260766365E10 ; 0.0
27 ; 4.341747596184369E7 ; 1.2029745681887295E9 ; 1.1115984123662786E9 ; 2.273431345846073E10 ; 0.0
28 ; 4.346953017595399E7 ; 1.2030295863037233E9 ; 1.1550158883281224E9 ; 2.393728802664946E10 ; 0.0
29 ; 4.3517881307629846E7 ; 1.2030851649491105E9 ; 1.1984854185040765E9 ; 2.5140317612953182E10 ; 0.0
30 ; 4.355794633835403E7 ; 1.2031412304763067E9 ; 1.2420032998117063E9 ; 2.6343402777902294E10 ; 0.0
31 ; 4.360474008963452E7 ; 1.2031977202857082E9 ; 1.2855612461500604E9 ; 2.75465440083786E10 ; 0.0
32 ; 4.364614752050866E7 ; 1.203254580896067E9 ; 1.3291659862396948E9 ; 2.874974172866431E10 ; 0.0
33 ; 4.369334791881758E7 ; 1.2033117663834178E9 ; 1.3728121337602036E9 ; 2.995299630956038E10 ; 0.0
34 ; 4.37369508551946E7 ; 1.203369237115109E9 ; 1.4165054816790211E9 ; 3.1156308075943798E10 ; 0.0
35 ; 4.3774051752975196E7 ; 1.2034269587195232E9 ; 1.4602424325342157E9 ; 3.2359677313058907E10 ; 0.0
36 ; 4.3815725108774975E7 ; 1.203484901244356E9 ; 1.504016484287191E9 ; 3.356310427177843E10 ; 0.0
37 ; 4.3849759942242414E7 ; 1.2035430384660969E9 ; 1.5478322093959658E9 ; 3.476658917302279E10 ; 0.0
38 ; 4.38827611623762E7 ; 1.203601347321158E9 ; 1.5916819693382082E9 ; 3.5970132211488884E10 ; 0.0
39 ; 4.3925702647114456E7 ; 1.2036598074352016E9 ; 1.6355647305005844E9 ; 3.717373355881004E10 ; 0.0
40 ; 4.3955781402535856E7 ; 1.2037184007320495E9 ; 1.6794904331476989E9 ; 3.837739336624525E10 ; 0.0
41 ; 4.399077675485061E7 ; 1.20377711110734E9 ; 1.7234462145502348E9 ; 3.9581111766977295E10 ; 0.0
42 ; 4.402106450726181E7 ; 1.2038359241550777E9 ; 1.7674369913050854E9 ; 4.078488887808463E10 ; 0.0
43 ; 4.404165304097926E7 ; 1.2038948269375687E9 ; 1.8114580558123472E9 ; 4.198872480223971E10 ; 0.0
44 ; 4.4070491330851875E7 ; 1.2039538077910914E9 ; 1.8554997088533263E9 ; 4.319261962917728E10 ; 0.0
45 ; 4.4095873568690784E7 ; 1.204012856161114E9 ; 1.899570200184178E9 ; 4.439657343696837E10 ; 0.0
46 ; 4.411658011909148E7 ; 1.204071962462049E9 ; 1.943666073752869E9 ; 4.5600586293129486E10 ; 0.0
47 ; 4.413819507948917E7 ; 1.2041311179574518E9 ; 1.9877826538719604E9 ; 4.680465825559154E10 ; 0.0
48 ; 4.4160218379838355E7 ; 1.2041903146573327E9 ; 2.0319208489514496E9 ; 4.800878937354899E10 ; 0.0
49 ; 4.417709090256395E7 ; 1.2042495452298293E9 ; 2.076081067331288E9 ; 4.921297968820632E10 ; 0.0
50 ; 4.418408566173302E7 ; 1.2043088029249947E9 ; 2.1202581582338521E9 ; 5.041722923343615E10 ; 0.0
51 ; 4.419956535850227E7 ; 1.2043680815088227E9 ; 2.164442243895585E9 ; 5.1621538036361145E10 ; 0.0
52 ; 4.421199930435902E7 ; 1.2044273752059639E9 ; 2.2086418092540874E9 ; 5.2825906117869965E10 ; 0.0
53 ; 4.4218441325907536E7 ; 1.204486678649846E9 ; 2.2528538085584464E9 ; 5.403033349307593E10 ; 0.0
54 ; 4.423038934195632E7 ; 1.2045459868391109E9 ; 2.297072249884354E9 ; 5.523482017172578E10 ; 0.0
55 ; 4.4239045029563025E7 ; 1.2046052950994701E9 ; 2.3413026392263103E9 ; 5.643936615856489E10 ; 0.0
56 ; 4.4247215139875054E7 ; 1.2046645990502167E9 ; 2.385541684255873E9 ; 5.764397145366436E10 ; 0.0
57 ; 4.426166777428058E7 ; 1.2047238945747445E9 ; 2.429788899395748E9 ; 5.884863605271458E10 ; 0.0
58 ; 4.427206920806431E7 ; 1.2047831777945404E9 ; 2.4740505671700287E9 ; 6.005335994728932E10 ; 0.0
59 ; 4.42838674565546E7 ; 1.2048424450461779E9 ; 2.518322636378093E9 ; 6.125814312508386E10 ; 0.0
60 ; 4.428710200453712E7 ; 1.2049016928609247E9 ; 2.562606503834647E9 ; 6.246298557013004E10 ; 0.0
61 ; 4.4300189839294545E7 ; 1.2049609179466238E9 ; 2.6068936058391843E9 ; 6.366788726299097E10 ; 0.0
62 ; 4.430986988706048E7 ; 1.2050201171715624E9 ; 2.6511937956784787E9 ; 6.487284818093759E10 ; 0.0
63 ; 4.4312080641441725E7 ; 1.205079287550082E9 ; 2.6955036655655394E9 ; 6.607786829810915E10 ; 0.0
64 ; 4.432016433544657E7 ; 1.2051384262297099E9 ; 2.739815746206981E9 ; 6.728294758565923E10 ; 0.0
65 ; 4.4320743841121025E7 ; 1.205197530479638E9 ; 2.7841359105424275E9 ; 6.848808601188895E10 ; 0.0
66 ; 4.433197919188603E7 ; 1.2052565976803832E9 ; 2.8284566543835487E9 ; 6.969328354236859E10 ; 0.0
67 ; 4.4337680862234846E7 ; 1.2053156253144903E9 ; 2.8727886335754347E9 ; 7.089854014004898E10 ; 0.0
68 ; 4.433962995357785E7 ; 1.2053746109581628E9 ; 2.9171263144376698E9 ; 7.210385576536346E10 ; 0.0
69 ; 4.434774985052022E7 ; 1.2054335522737105E9 ; 2.9614659443912477E9 ; 7.330923037632162E10 ; 0.0
70 ; 4.4348509199572176E7 ; 1.20549244700273E9 ; 3.005813694241768E9 ; 7.451466392859534E10 ; 0.0
71 ; 4.4353766514569044E7 ; 1.2055512929599278E9 ; 3.05016220344134E9 ; 7.572015637559807E10 ; 0.0
72 ; 4.435699868447511E7 ; 1.205610088027527E9 ; 3.094515969955909E9 ; 7.6925707668558E10 ; 0.0
73 ; 4.436066403820794E7 ; 1.205668830150188E9 ; 3.1388729686403837E9 ; 7.813131775658553E10 ; 0.0
74 ; 4.4365578160684906E7 ; 1.2057275173303905E9 ; 3.1832336326785917E9 ; 7.933698658673572E10 ; 0.0
75 ; 4.436918120995638E7 ; 1.2057861476242323E9 ; 3.227599210839277E9 ; 8.05427141040661E10 ; 0.0
76 ; 4.436889825713167E7 ; 1.205844719137599E9 ; 3.271968392049233E9 ; 8.174850025169034E10 ; 0.0
77 ; 4.437016102859935E7 ; 1.205903230022667E9 ; 3.3163372903063645E9 ; 8.295434497082794E10 ; 0.0
78 ; 4.435373736286434E7 ; 1.2059616784747102E9 ; 3.360707451334964E9 ; 8.416024820085062E10 ; 0.0
79 ; 4.434188839478774E7 ; 1.206020062729175E9 ; 3.4050611886978283E9 ; 8.536620987932533E10 ; 0.0
80 ; 4.43275136298624E7 ; 1.2060783810590043E9 ; 3.449403077092616E9 ; 8.65722299420545E10 ; 0.0
81 ; 4.4321214586625546E7 ; 1.20613663177218E9 ; 3.4937305907224784E9 ; 8.777830832311351E10 ; 0.0
82 ; 4.42984695771485E7 ; 1.2061948132094703E9 ; 3.538051805309104E9 ; 8.89844449548857E10 ; 0.0
83 ; 4.4288318207647815E7 ; 1.2062529237423549E9 ; 3.5823502748862524E9 ; 9.019063976809517E10 ; 0.0
84 ; 4.427405630365606E7 ; 1.2063109617711186E9 ; 3.6266385930939E9 ; 9.139689269183752E10 ; 0.0
85 ; 4.4264421826207E7 ; 1.2063689257230968E9 ; 3.6709126493975563E9 ; 9.260320365360864E10 ; 0.0
86 ; 4.424403575277544E7 ; 1.206426814051052E9 ; 3.7151770712237635E9 ; 9.380957257933174E10 ; 0.0
87 ; 4.4224374759563625E7 ; 1.206484625231683E9 ; 3.759421106976539E9 ; 9.50159993933828E10 ; 0.0
88 ; 4.420799717684536E7 ; 1.2065423577642426E9 ; 3.8036454817361026E9 ; 9.622248401861449E10 ; 0.0
89 ; 4.419543829919741E7 ; 1.2066000101692605E9 ; 3.847853478912948E9 ; 9.742902637637872E10 ; 0.0
90 ; 4.4177522921578966E7 ; 1.2066575809873636E9 ; 3.8920489172121453E9 ; 9.863562638654799E10 ; 0.0
91 ; 4.416684395606822E7 ; 1.20671506877818E9 ; 3.936226440133724E9 ; 9.984228396753535E10 ; 0.0
92 ; 4.414471248205277E7 ; 1.206772472119326E9 ; 3.9803932840897923E9 ; 1.0104899903631354E11 ; 0.0
93 ; 4.41274537855569E7 ; 1.2068297896054664E9 ; 4.024537996571845E9 ; 1.0225577150843286E11 ; 0.0
94 ; 4.410308657454292E7 ; 1.2068870198474371E9 ; 4.068665450357402E9 ; 1.0346260129803833E11 ; 0.0
95 ; 4.408372449266324E7 ; 1.2069441614714384E9 ; 4.112768536931945E9 ; 1.0466948831788577E11 ; 0.0
96 ; 4.407025852059726E7 ; 1.2070012131182766E9 ; 4.156852261424608E9 ; 1.0587643247935721E11 ; 0.0
97 ; 4.404442502766994E7 ; 1.2070581734426641E9 ; 4.2009225199452057E9 ; 1.0708343369247548E11 ; 0.0
98 ; 4.4020914800897114E7 ; 1.2071150411125646E9 ; 4.2449669449728756E9 ; 1.0829049186591814E11 ; 0.0
99 ; 4.40051845165639E7 ; 1.2071718148085837E9 ; 4.2889878597737727E9 ; 1.094976069070307E11 ; 0.0
100 ; 4.397935230847542E7 ; 1.207228493223403E9 ; 4.332993044290337E9 ; 1.1070477872183928E11 ; 0.0
101 ; 4.395921146265349E7 ; 1.2072850750612483E9 ; 4.376972396598812E9 ; 1.1191200721506268E11 ; 0.0
102 ; 4.394062252327843E7 ; 1.207341559037396E9 ; 4.420931608061465E9 ; 1.1311929229012393E11 ; 0.0
103 ; 4.39152529380994E7 ; 1.207397943877712E9 ; 4.4648722305847435E9 ; 1.1432663384916133E11 ; 0.0
104 ; 4.389412192549327E7 ; 1.2074542283182192E9 ; 4.508787483522843E9 ; 1.1553403179303905E11 ; 0.0
105 ; 4.387841549469731E7 ; 1.2075104111046953E9 ; 4.552681605448337E9 ; 1.1674148602135727E11 ; 0.0
106 ; 4.384268113131129E7 ; 1.2075664909922938E9 ; 4.596560020943034E9 ; 1.1794899643246196E11 ; 0.0
107 ; 4.382029913795762E7 ; 1.207622466745193E9 ; 4.640402702074346E9 ; 1.1915656292345425E11 ; 0.0
108 ; 4.379732041909523E7 ; 1.2076783371362638E9 ; 4.684223001212303E9 ; 1.2036418539019945E11 ; 0.0
109 ; 4.376698216034192E7 ; 1.2077341009467614E9 ; 4.728020321631398E9 ; 1.2157186372733571E11 ; 0.0
110 ; 4.374289386462627E7 ; 1.2077897569660335E9 ; 4.77178730379174E9 ; 1.2277959782828247E11 ; 0.0
111 ; 4.3717188500001766E7 ; 1.2078453039912503E9 ; 4.815530197656366E9 ; 1.239873875852485E11 ; 0.0
112 ; 4.369022427440262E7 ; 1.2079007408271475E9 ; 4.859247386156368E9 ; 1.2519523288923976E11 ; 0.0
113 ; 4.365765785800821E7 ; 1.207956066285789E9 ; 4.902937610430771E9 ; 1.2640313363006691E11 ; 0.0
114 ; 4.36311122486212E7 ; 1.2080112791863403E9 ; 4.946595268288779E9 ; 1.2761108969635269E11 ; 0.0
115 ; 4.3607617373893246E7 ; 1.2080663783548598E9 ; 4.9902263805374E9 ; 1.2881910097553903E11 ; 0.0
116 ; 4.3578412903832644E7 ; 1.2081213626240995E9 ; 5.033833997911293E9 ; 1.3002716735389389E11 ; 0.0
117 ; 4.354698337786216E7 ; 1.2081762308333197E9 ; 5.077412410815125E9 ; 1.3123528871651799E11 ; 0.0
118 ; 4.351857086856425E7 ; 1.2082309818281145E9 ; 5.120959394192987E9 ; 1.324434649473513E11 ; 0.0
119 ; 4.348786494891499E7 ; 1.2082856144602473E9 ; 5.164477965061552E9 ; 1.3365169592917941E11 ; 0.0
120 ; 4.3459956337868184E7 ; 1.2083401275874975E9 ; 5.207965830010467E9 ; 1.3485998154363966E11 ; 0.0
121 ; 4.3431760845199436E7 ; 1.2083945200735147E9 ; 5.251425786348334E9 ; 1.3606832167122716E11 ; 0.0
122 ; 4.339733642052645E7 ; 1.2084487907876835E9 ; 5.294857547193534E9 ; 1.3727671619130067E11 ; 0.0
123 ; 4.3362747833929576E7 ; 1.2085029386049938E9 ; 5.33825488361406E9 ; 1.3848516498208835E11 ; 0.0
124 ; 4.333694307524631E7 ; 1.208556962405923E9 ; 5.38161763144799E9 ; 1.3969366792069333E11 ; 0.0
125 ; 4.330293006843223E7 ; 1.20861086107632E9 ; 5.424954574523236E9 ; 1.4090222488309924E11 ; 0.0
126 ; 4.326799263915143E7 ; 1.2086646335073004E9 ; 5.468257504591668E9 ; 1.4211083574417557E11 ; 0.0
127 ; 4.3228302568387896E7 ; 1.2087182785951462E9 ; 5.51152549723082E9 ; 1.4331950037768286E11 ; 0.0
128 ; 4.320687117566301E7 ; 1.208771795241212E9 ; 5.554753799799208E9 ; 1.44528218656278E11 ; 0.0
129 ; 4.317093480410142E7 ; 1.208825182351835E9 ; 5.597960670974871E9 ; 1.4573699045151923E11 ; 0.0
130 ; 4.312594264317651E7 ; 1.208878438838254E9 ; 5.641131605778972E9 ; 1.4694581563387106E11 ; 0.0
131 ; 4.307633366096943E7 ; 1.20893156361653E9 ; 5.684257548422148E9 ; 1.4815469407270932E11 ; 0.0
132 ; 4.303330818838543E7 ; 1.2089845556074717E9 ; 5.7273338820831175E9 ; 1.4936362563632584E11 ; 0.0
133 ; 4.2978468266469486E7 ; 1.2090374137365694E9 ; 5.7703671902715025E9 ; 1.5057261019193332E11 ; 0.0
134 ; 4.293336513715826E7 ; 1.209090136933927E9 ; 5.813345658537972E9 ; 1.517816476056699E11 ; 0.0
135 ; 4.2884152875649676E7 ; 1.2091427241342032E9 ; 5.856279023675131E9 ; 1.5299073774260382E11 ; 0.0
136 ; 4.28286676151595E7 ; 1.2091951742765536E9 ; 5.89916317655078E9 ; 1.5419988046673804E11 ; 0.0
137 ; 4.277904683737706E7 ; 1.2092474863045769E9 ; 5.941991844165939E9 ; 1.554090756410146E11 ; 0.0
138 ; 4.272215355633539E7 ; 1.2092996591662655E9 ; 5.984770891003316E9 ; 1.5661832312731915E11 ; 0.0
139 ; 4.267603891759725E7 ; 1.2093516918139565E9 ; 6.027493044559651E9 ; 1.578276227864854E11 ; 0.0
140 ; 4.2624366567677155E7 ; 1.2094035832042897E9 ; 6.070169083477248E9 ; 1.5903697447829938E11 ; 0.0
141 ; 4.256868515224266E7 ; 1.2094553322981648E9 ; 6.112793450044926E9 ; 1.6024637806150366E11 ; 0.0
142 ; 4.252247265318113E7 ; 1.2095069380607035E9 ; 6.155362135197168E9 ; 1.6145583339380182E11 ; 0.0
143 ; 4.246085169270683E7 ; 1.2095583994612126E9 ; 6.197884607850349E9 ; 1.6266534033186252E11 ; 0.0
144 ; 4.241301330347499E7 ; 1.2096097154731512E9 ; 6.2403454595430565E9 ; 1.6387489873132373E11 ; 0.0
145 ; 4.237190851528663E7 ; 1.209660885074098E9 ; 6.282758472846532E9 ; 1.6508450844679688E11 ; 0.0
146 ; 4.234297936605728E7 ; 1.2097119072457235E9 ; 6.325130381361818E9 ; 1.6629416933187097E11 ; 0.0
147 ; 4.230998302757287E7 ; 1.2097627809737601E9 ; 6.367473360727876E9 ; 1.675038812391167E11 ; 0.0
148 ; 4.226691279507077E7 ; 1.2098135052479804E9 ; 6.409783343755448E9 ; 1.6871364402009045E11 ; 0.0
149 ; 4.2232202889268614E7 ; 1.2098640790621698E9 ; 6.452050256550519E9 ; 1.6992345752533844E11 ; 0.0
150 ; 4.218587201933122E7 ; 1.2099145014141078E9 ; 6.494282459439788E9 ; 1.711333216044006E11 ; 0.0
151 ; 4.215135245116414E7 ; 1.209964771305545E9 ; 6.536468331459119E9 ; 1.723432361058147E11 ; 0.0
152 ; 4.2115237556421176E7 ; 1.2100148877421885E9 ; 6.578619683910283E9 ; 1.7355320087712024E11 ; 0.0
153 ; 4.207368824617498E7 ; 1.2100648497336786E9 ; 6.620734921466704E9 ; 1.7476321576486243E11 ; 0.0
154 ; 4.204092478712304E7 ; 1.2101146562935796E9 ; 6.662808609712879E9 ; 1.759732806145961E11 ; 0.0
155 ; 4.200150625305215E7 ; 1.210164306439361E9 ; 6.704849534500002E9 ; 1.7718339527088968E11 ; 0.0
156 ; 4.1962866803424135E7 ; 1.2102137991923866E9 ; 6.746851040753054E9 ; 1.7839355957732904E11 ; 0.0
157 ; 4.192439079842335E7 ; 1.2102631335779018E9 ; 6.788813907556478E9 ; 1.7960377337652142E11 ; 0.0
158 ; 4.187977922331837E7 ; 1.2103123086250222E9 ; 6.830738298354901E9 ; 1.8081403651009933E11 ; 0.0
159 ; 4.183891315036151E7 ; 1.2103613233667252E9 ; 6.872618077578219E9 ; 1.8202434881872437E11 ; 0.0
160 ; 4.180017311300532E7 ; 1.2104101768398404E9 ; 6.91445699072858E9 ; 1.832347101420911E11 ; 0.0
161 ; 4.175789082635023E7 ; 1.210458868085043E9 ; 6.956257163841586E9 ; 1.8444512031893094E11 ; 0.0
162 ; 4.172129159719737E7 ; 1.210507396146846E9 ; 6.998015054667936E9 ; 1.85655579187016E11 ; 0.0
163 ; 4.168105790451769E7 ; 1.2105557600735946E9 ; 7.039736346265134E9 ; 1.8686608658316284E11 ; 0.0
164 ; 4.1637775477939226E7 ; 1.2106039589174623E9 ; 7.081417404169652E9 ; 1.8807664234323645E11 ; 0.0
165 ; 4.159919417036289E7 ; 1.2106519917344449E9 ; 7.123055179647592E9 ; 1.892872463021539E11 ; 0.0
166 ; 4.156141393581578E7 ; 1.210699857584359E9 ; 7.164654373817954E9 ; 1.9049789829388834E11 ; 0.0
167 ; 4.151330960522305E7 ; 1.210747555530838E9 ; 7.20621578775377E9 ; 1.917085981514727E11 ; 0.0
168 ; 4.147050515258047E7 ; 1.2107950846413312E9 ; 7.247729097358993E9 ; 1.9291934570700354E11 ; 0.0
169 ; 4.14377904463818E7 ; 1.2108424439871016E9 ; 7.289199602511573E9 ; 1.9413014079164487E11 ; 0.0
170 ; 4.1387609931602135E7 ; 1.2108896326432257E9 ; 7.330637392957954E9 ; 1.9534098323563196E11 ; 0.0
171 ; 4.135421530873898E7 ; 1.2109366496885939E9 ; 7.372025002889557E9 ; 1.9655187286827518E11 ; 0.0
172 ; 4.130479089467389E7 ; 1.2109834942059093E9 ; 7.413379218198296E9 ; 1.9776280951796378E11 ; 0.0
173 ; 4.126997560681094E7 ; 1.2110301652816918E9 ; 7.45468400909297E9 ; 1.9897379301216968E11 ; 0.0
174 ; 4.12404937513466E7 ; 1.2110766620062761E9 ; 7.49595398469978E9 ; 2.0018482317745135E11 ; 0.0
175 ; 4.12153140315803E7 ; 1.211122983473817E9 ; 7.537194478451127E9 ; 2.0139589983945764E11 ; 0.0
176 ; 4.1196606289070964E7 ; 1.21116912878229E9 ; 7.578409792482707E9 ; 2.0260702282293146E11 ; 0.0
177 ; 4.116550488291953E7 ; 1.2112150970334947E9 ; 7.619606398771778E9 ; 2.0381819195171375E11 ; 0.0
178 ; 4.1139382074858174E7 ; 1.2112608873330588E9 ; 7.660771903654697E9 ; 2.0502940704874725E11 ; 0.0
179 ; 4.111462529000384E7 ; 1.2113064987904413E9 ; 7.701911285729555E9 ; 2.0624066793608032E11 ; 0.0
180 ; 4.1085823768073104E7 ; 1.2113519305189369E9 ; 7.743025911019559E9 ; 2.0745197443487076E11 ; 0.0
181 ; 4.1064034913487636E7 ; 1.2113971816356807E9 ; 7.784111734787632E9 ; 2.086633263653897E11 ; 0.0
182 ; 4.1047032897134244E7 ; 1.2114422512616534E9 ; 7.825175769701119E9 ; 2.098747235470254E11 ; 0.0
183 ; 4.101330313417372E7 ; 1.211487138521686E9 ; 7.866222802598253E9 ; 2.1108616579828705E11 ; 0.0
184 ; 4.0986798404838175E7 ; 1.2115318425444663E9 ; 7.907236105732427E9 ; 2.1229765293680875E11 ; 0.0
185 ; 4.096725285036338E7 ; 1.2115763624625435E9 ; 7.948222904137265E9 ; 2.135091847793532E11 ; 0.0
186 ; 4.0939166070115685E7 ; 1.211620697412335E9 ; 7.989190156987629E9 ; 2.1472076114181577E11 ; 0.0
187 ; 4.091916283357711E7 ; 1.2116648465341337E9 ; 8.030129323057745E9 ; 2.159323818392281E11 ; 0.0
188 ; 4.089177214310545E7 ; 1.2117088089721136E9 ; 8.071048485891322E9 ; 2.171440466857622E11 ; 0.0
189 ; 4.086342869726569E7 ; 1.211752583874337E9 ; 8.111940258034428E9 ; 2.183557554947343E11 ; 0.0
190 ; 4.083448723985645E7 ; 1.211796170392762E9 ; 8.152803686731693E9 ; 2.1956750807860864E11 ; 0.0
191 ; 4.081683090759451E7 ; 1.2118395676832495E9 ; 8.19363817397155E9 ; 2.207793042490014E11 ; 0.0
192 ; 4.07882631640715E7 ; 1.2118827749055715E9 ; 8.234455004879145E9 ; 2.2199114381668466E11 ; 0.0
193 ; 4.0769024491189204E7 ; 1.2119257912234178E9 ; 8.275243268043216E9 ; 2.2320302659159024E11 ; 0.0
194 ; 4.0743197642658904E7 ; 1.211968615804406E9 ; 8.316012292534405E9 ; 2.2441495238281366E11 ; 0.0
195 ; 4.071313030694218E7 ; 1.212011247820087E9 ; 8.356755490177064E9 ; 2.2562692099861807E11 ; 0.0
196 ; 4.0680422605078E7 ; 1.2120536864459555E9 ; 8.397468620484006E9 ; 2.2683893224643817E11 ; 0.0
197 ; 4.066441940772862E7 ; 1.212095930861458E9 ; 8.438149043089084E9 ; 2.2805098593288412E11 ; 0.0
