CSV File for the Network on Day 309
1 - Minute m 
2 - Power Consumed at minute m 
3 - Power Produced at minute m 
4 - Energy Consumed since the beginning of the day 
5 - Energy Produced since the beginning of the day 
6 - Energy Lost since the beginning of the day 
 
0 ; 3.905683671291797E7 ; 6.3798808890022E8 ; 0.0 ; 0.0 ; 0.0
1 ; 3.909062571960123E7 ; 6.388977971088052E8 ; 3.905683671291797E7 ; 6.3798808890022E8 ; 0.0
2 ; 3.913611454559851E7 ; 6.416610290719771E8 ; 7.81474624325192E7 ; 1.276885886009025E9 ; 0.0
3 ; 3.919084877901086E7 ; 6.462777963584114E8 ; 1.172835769781177E8 ; 1.9185469150810022E9 ; 0.0
4 ; 3.9244971848374754E7 ; 6.527481092764375E8 ; 1.5647442575712857E8 ; 2.5648247114394135E9 ; 0.0
5 ; 3.93251038229561E7 ; 6.610719768372974E8 ; 1.9571939760550332E8 ; 3.217572820715851E9 ; 0.0
6 ; 3.942143591415319E7 ; 6.712494067226362E8 ; 2.350445014284594E8 ; 3.8786447975531483E9 ; 0.0
7 ; 3.954764084014891E7 ; 6.832804052565067E8 ; 2.744659373426126E8 ; 4.5498942042757845E9 ; 0.0
8 ; 3.9737121806243755E7 ; 6.971649773821199E8 ; 3.1401357818276155E8 ; 5.233174609532291E9 ; 0.0
9 ; 4.0014053227001645E7 ; 7.129031266435502E8 ; 3.537506999890053E8 ; 5.930339586914412E9 ; 0.0
10 ; 4.0459244979928225E7 ; 7.304948551725491E8 ; 3.93764753216007E8 ; 6.643242713557961E9 ; 0.0
11 ; 4.114971505100563E7 ; 7.499401636805874E8 ; 4.3422399819593525E8 ; 7.373737568730511E9 ; 0.0
12 ; 4.226030323757746E7 ; 7.71239051456194E8 ; 4.7537371324694085E8 ; 8.1236777324110985E9 ; 0.0
13 ; 4.332524650175586E7 ; 7.943915163676177E8 ; 5.176340164845183E8 ; 8.894916783867292E9 ; 0.0
14 ; 4.345607265863736E7 ; 8.193975548707845E8 ; 5.609592629862741E8 ; 9.689308300234911E9 ; 0.0
15 ; 4.350676370437434E7 ; 8.462571620224825E8 ; 6.044153356449115E8 ; 1.0508705855105696E10 ; 0.0
16 ; 4.3557228637378894E7 ; 8.7497033149866E8 ; 6.479220993492858E8 ; 1.1354963017128178E10 ; 0.0
17 ; 4.3617394090695105E7 ; 9.055370556176707E8 ; 6.914793279866648E8 ; 1.2229933348626837E10 ; 0.0
18 ; 4.367020074695558E7 ; 9.379573253682735E8 ; 7.350967220773599E8 ; 1.3135470404244507E10 ; 0.0
19 ; 4.3719102020030245E7 ; 9.722311304421386E8 ; 7.787669228243155E8 ; 1.407342772961278E10 ; 0.0
20 ; 4.377366556565992E7 ; 1.0083584592705902E9 ; 8.224860248443458E8 ; 1.5045658860054918E10 ; 0.0
21 ; 4.382728125954545E7 ; 1.0463392990652839E9 ; 8.662596904100057E8 ; 1.6054017319325508E10 ; 0.0
22 ; 4.388581305577642E7 ; 1.0861736358624802E9 ; 9.100869716695511E8 ; 1.7100356618390793E10 ; 0.0
23 ; 4.393617884773718E7 ; 1.1278614545705714E9 ; 9.539727847253275E8 ; 1.8186530254253273E10 ; 0.0
24 ; 4.399652869655854E7 ; 1.171402739020483E9 ; 9.979089635730647E8 ; 1.9314391708823845E10 ; 0.0
25 ; 4.405224894937748E7 ; 1.2089257174076858E9 ; 1.0419054922696233E9 ; 2.048579444784433E10 ; 0.0
26 ; 4.409901373744927E7 ; 1.2089516585685844E9 ; 1.0859577412190008E9 ; 2.1694720165252014E10 ; 0.0
27 ; 4.41544477605428E7 ; 1.208979159186686E9 ; 1.13005675495645E9 ; 2.29036718238206E10 ; 0.0
28 ; 4.4201813010795176E7 ; 1.2090081993313162E9 ; 1.1742112027169929E9 ; 2.4112650983007286E10 ; 0.0
29 ; 4.4263360230897866E7 ; 1.2090387582761345E9 ; 1.218413015727788E9 ; 2.5321659182338604E10 ; 0.0
30 ; 4.4302603339302815E7 ; 1.2090708145587711E9 ; 1.2626763759586859E9 ; 2.653069794061474E10 ; 0.0
31 ; 4.430467719224826E7 ; 1.209104346040698E9 ; 1.3069789792979887E9 ; 2.7739768755173508E10 ; 0.0
32 ; 4.429492957579168E7 ; 1.2091393299670036E9 ; 1.351283656490237E9 ; 2.8948873101214207E10 ; 0.0
33 ; 4.430144710371195E7 ; 1.209175743025743E9 ; 1.3955785860660286E9 ; 3.015801243118121E10 ; 0.0
34 ; 4.4304106799448006E7 ; 1.2092135614065814E9 ; 1.4398800331697404E9 ; 3.136718817420695E10 ; 0.0
35 ; 4.429779702381262E7 ; 1.2092527608584468E9 ; 1.4841841399691885E9 ; 3.2576401735613533E10 ; 0.0
36 ; 4.4295448955061965E7 ; 1.2092933167459493E9 ; 1.528481936993001E9 ; 3.378565449647198E10 ; 0.0
37 ; 4.429582543266328E7 ; 1.2093352041043463E9 ; 1.572777385948063E9 ; 3.499494781321793E10 ; 0.0
38 ; 4.4279080918970205E7 ; 1.2093783976928537E9 ; 1.617073211380726E9 ; 3.620428301732228E10 ; 0.0
39 ; 4.4269572830241166E7 ; 1.209422872046135E9 ; 1.6613522922996962E9 ; 3.741366141501514E10 ; 0.0
40 ; 4.426213020775998E7 ; 1.2094686015238206E9 ; 1.7056218651299374E9 ; 3.862308428706127E10 ; 0.0
41 ; 4.424466360968073E7 ; 1.2095155603579423E9 ; 1.7498839953376975E9 ; 3.983255288858509E10 ; 0.0
42 ; 4.423149551001483E7 ; 1.209563722698178E9 ; 1.7941286589473782E9 ; 4.104206844894303E10 ; 0.0
43 ; 4.421927013300942E7 ; 1.2096130626548421E9 ; 1.838360154457393E9 ; 4.225163217164121E10 ; 0.0
44 ; 4.420204372346981E7 ; 1.209663554339562E9 ; 1.8825794245904024E9 ; 4.346124523429605E10 ; 0.0
45 ; 4.418150049437828E7 ; 1.2097151719036112E9 ; 1.926781468313872E9 ; 4.467090878863561E10 ; 0.0
46 ; 4.415874034768118E7 ; 1.2097678895738885E9 ; 1.9709629688082504E9 ; 4.588062396053922E10 ; 0.0
47 ; 4.413811382509858E7 ; 1.209821681686537E9 ; 2.0151217091559317E9 ; 4.709039185011311E10 ; 0.0
48 ; 4.4116423977743566E7 ; 1.2098765227182326E9 ; 2.0592598229810302E9 ; 4.830021353179965E10 ; 0.0
49 ; 4.408549516504143E7 ; 1.2099323873151639E9 ; 2.1033762469587739E9 ; 4.951009005451788E10 ; 0.0
50 ; 4.406205656067671E7 ; 1.2099892503197553E9 ; 2.1474617421238153E9 ; 5.0720022441833046E10 ; 0.0
51 ; 4.403292020629418E7 ; 1.21004708679518E9 ; 2.191523798684492E9 ; 5.19300116921528E10 ; 0.0
52 ; 4.399904404419147E7 ; 1.210105872047734E9 ; 2.235556718890786E9 ; 5.314005877894798E10 ; 0.0
53 ; 4.396438039858556E7 ; 1.2101655816471338E9 ; 2.2795557629349775E9 ; 5.435016465099572E10 ; 0.0
54 ; 4.392421672097707E7 ; 1.2102261914448211E9 ; 2.323520143333563E9 ; 5.556033023264285E10 ; 0.0
55 ; 4.390007007129268E7 ; 1.2102876775903528E9 ; 2.3674443600545397E9 ; 5.677055642408768E10 ; 0.0
56 ; 4.387053076892109E7 ; 1.210350016545962E9 ; 2.4113444301258326E9 ; 5.798084410167803E10 ; 0.0
57 ; 4.383461372808763E7 ; 1.2104131850993798E9 ; 2.4552149608947535E9 ; 5.919119411822399E10 ; 0.0
58 ; 4.38058645946307E7 ; 1.210477160375004E9 ; 2.499049574622841E9 ; 6.040160730332337E10 ; 0.0
59 ; 4.377306912125477E7 ; 1.2105419198435102E9 ; 2.5428554392174716E9 ; 6.161208446369838E10 ; 0.0
60 ; 4.373717633003635E7 ; 1.2106074413299904E9 ; 2.5866285083387265E9 ; 6.282262638354189E10 ; 0.0
61 ; 4.370540604761929E7 ; 1.2106737030207138E9 ; 2.6303656846687627E9 ; 6.403323382487189E10 ; 0.0
62 ; 4.3671007695991464E7 ; 1.2107406834685962E9 ; 2.674071090716382E9 ; 6.52439075278926E10 ; 0.0
63 ; 4.363361417357907E7 ; 1.2108083615974627E9 ; 2.7177420984123735E9 ; 6.64546482113612E10 ; 0.0
64 ; 4.360281805181519E7 ; 1.2108767167051942E9 ; 2.7613757125859528E9 ; 6.7665456572958664E10 ; 0.0
65 ; 4.356093308693984E7 ; 1.2109457284658346E9 ; 2.804978530637768E9 ; 6.887633328966386E10 ; 0.0
66 ; 4.3530726033785835E7 ; 1.2110153769307408E9 ; 2.8485394637247076E9 ; 7.00872790181297E10 ; 0.0
67 ; 4.348907390496101E7 ; 1.2110856425288503E9 ; 2.8920701897584934E9 ; 7.129829439506044E10 ; 0.0
68 ; 4.345510114047752E7 ; 1.2111565060661426E9 ; 2.9355592636634545E9 ; 7.25093800375893E10 ; 0.0
69 ; 4.342409737658712E7 ; 1.2112279487243612E9 ; 2.979014364803932E9 ; 7.372053654365544E10 ; 0.0
70 ; 4.338951555249148E7 ; 1.211299952059062E9 ; 3.022438462180519E9 ; 7.49317644923798E10 ; 0.0
71 ; 4.3343727698619366E7 ; 1.211372497997058E9 ; 3.065827977733011E9 ; 7.614306444443887E10 ; 0.0
72 ; 4.3308456280781426E7 ; 1.2114455688333085E9 ; 3.10917170543163E9 ; 7.735443694243593E10 ; 0.0
73 ; 4.327464494189261E7 ; 1.2115191472273214E9 ; 3.1524801617124114E9 ; 7.856588251126924E10 ; 0.0
74 ; 4.3233612087916106E7 ; 1.2115932161991107E9 ; 3.195754806654304E9 ; 7.977740165849657E10 ; 0.0
75 ; 4.319209180469165E7 ; 1.2116677591247673E9 ; 3.23898841874222E9 ; 8.098899487469568E10 ; 0.0
76 ; 4.3156612480216786E7 ; 1.211742759731682E9 ; 3.2821805105469117E9 ; 8.220066263382045E10 ; 0.0
77 ; 4.311356965444775E7 ; 1.2118182020934708E9 ; 3.3253371230271287E9 ; 8.341240539355214E10 ; 0.0
78 ; 4.305550372552633E7 ; 1.2118940706246364E9 ; 3.3684506926815763E9 ; 8.462422359564561E10 ; 0.0
79 ; 4.2997941955483004E7 ; 1.2119703500750077E9 ; 3.4115061964071026E9 ; 8.583611766627025E10 ; 0.0
80 ; 4.295199134144674E7 ; 1.2120470255239887E9 ; 3.4545041383625855E9 ; 8.704808801634526E10 ; 0.0
81 ; 4.290258490014662E7 ; 1.2121240823746524E9 ; 3.4974561297040324E9 ; 8.826013504186925E10 ; 0.0
82 ; 4.284549004267213E7 ; 1.2122015063477015E9 ; 3.540358714604179E9 ; 8.94722591242439E10 ; 0.0
83 ; 4.2789362243599854E7 ; 1.2122792834753344E9 ; 3.583204204646851E9 ; 9.06844606305916E10 ; 0.0
84 ; 4.273946580195695E7 ; 1.2123574000950274E9 ; 3.625993566890451E9 ; 9.189673991406694E10 ; 0.0
85 ; 4.2677928409177825E7 ; 1.2124358428432696E9 ; 3.668733032692408E9 ; 9.310909731416197E10 ; 0.0
86 ; 4.262469336018362E7 ; 1.2125145986492567E9 ; 3.711410961101586E9 ; 9.432153315700525E10 ; 0.0
87 ; 4.257425929163623E7 ; 1.2125936547285764E9 ; 3.7540356544617696E9 ; 9.553404775565451E10 ; 0.0
88 ; 4.25123213203523E7 ; 1.212672998576891E9 ; 3.7966099137534056E9 ; 9.674664141038309E10 ; 0.0
89 ; 4.24527308534843E7 ; 1.2127526179636378E9 ; 3.8391222350737576E9 ; 9.795931440895998E10 ; 0.0
90 ; 4.240204283596949E7 ; 1.2128325009257603E9 ; 3.881574965927242E9 ; 9.917206702692361E10 ; 0.0
91 ; 4.234165153561465E7 ; 1.2129126357614822E9 ; 3.9239770087632113E9 ; 1.0038489952784938E11 ; 0.0
92 ; 4.228381546526764E7 ; 1.2129930110241342E9 ; 3.9663186602988257E9 ; 1.0159781216361087E11 ; 0.0
93 ; 4.222365913523364E7 ; 1.2130736155160449E9 ; 4.0086024757640934E9 ; 1.0281080517463501E11 ; 0.0
94 ; 4.216938401036394E7 ; 1.2131544382825012E9 ; 4.0508261348993273E9 ; 1.0402387879015106E11 ; 0.0
95 ; 4.210085978705499E7 ; 1.2132354686057918E9 ; 4.0929955189096913E9 ; 1.0523703322843356E11 ; 0.0
96 ; 4.2049366928968236E7 ; 1.213316695999332E9 ; 4.1350963786967463E9 ; 1.0645026869703935E11 ; 0.0
97 ; 4.198227417243019E7 ; 1.2133981102018824E9 ; 4.177145745625715E9 ; 1.0766358539303868E11 ; 0.0
98 ; 4.1924233242123604E7 ; 1.2134797011718636E9 ; 4.219128019798145E9 ; 1.0887698350324057E11 ; 0.0
99 ; 4.1866879160474434E7 ; 1.2135614590817711E9 ; 4.2610522530402684E9 ; 1.1009046320441243E11 ; 0.0
100 ; 4.180905009424616E7 ; 1.2136433743126907E9 ; 4.302919132200743E9 ; 1.113040246634942E11 ; 0.0
101 ; 4.174977942861688E7 ; 1.2137254374489262E9 ; 4.344728182294989E9 ; 1.1251766803780688E11 ; 0.0
102 ; 4.1684032376047626E7 ; 1.2138076392727294E9 ; 4.386477961723605E9 ; 1.1373139347525581E11 ; 0.0
103 ; 4.161798191835896E7 ; 1.2138899707591455E9 ; 4.428161994099653E9 ; 1.1494520111452855E11 ; 0.0
104 ; 4.155599746516575E7 ; 1.2139724230709648E9 ; 4.469779976018012E9 ; 1.1615909108528769E11 ; 0.0
105 ; 4.149480344438102E7 ; 1.214054987553792E9 ; 4.511335973483178E9 ; 1.1737306350835866E11 ; 0.0
106 ; 4.1429438366617404E7 ; 1.214137655731224E9 ; 4.552830776927559E9 ; 1.1858711849591245E11 ; 0.0
107 ; 4.136747668862988E7 ; 1.2142204193001423E9 ; 4.594260215294176E9 ; 1.1980125615164368E11 ; 0.0
108 ; 4.1300681802701436E7 ; 1.2143032701261177E9 ; 4.635627691982806E9 ; 1.2101547657094382E11 ; 0.0
109 ; 4.1239672907410964E7 ; 1.214386200238927E9 ; 4.676928373785507E9 ; 1.2222977984106993E11 ; 0.0
110 ; 4.1181646321664564E7 ; 1.2144692018281798E9 ; 4.718168046692918E9 ; 1.2344416604130885E11 ; 0.0
111 ; 4.1111532819750145E7 ; 1.214552267239059E9 ; 4.759349693014583E9 ; 1.2465863524313704E11 ; 0.0
112 ; 4.104632881417443E7 ; 1.2146353889681647E9 ; 4.800461225834332E9 ; 1.258731875103761E11 ; 0.0
113 ; 4.0980930646667056E7 ; 1.214718559659473E9 ; 4.841507554648507E9 ; 1.2708782289934427E11 ; 0.0
114 ; 4.091427922841817E7 ; 1.2148017721003957E9 ; 4.882488485295175E9 ; 1.2830254145900374E11 ; 0.0
115 ; 4.085305251470691E7 ; 1.2148850192179468E9 ; 4.923402764523593E9 ; 1.2951734323110414E11 ; 0.0
116 ; 4.0779346333943464E7 ; 1.2149682940750127E9 ; 4.9642558170383E9 ; 1.3073222825032208E11 ; 0.0
117 ; 4.071376634310955E7 ; 1.2150515898667238E9 ; 5.005035163372243E9 ; 1.319471965443971E11 ; 0.0
118 ; 4.064910448358295E7 ; 1.215134899916925E9 ; 5.045748929715352E9 ; 1.3316224813426382E11 ; 0.0
119 ; 4.057828683122168E7 ; 1.2152182176747422E9 ; 5.086398034198935E9 ; 1.3437738303418076E11 ; 0.0
120 ; 4.05070770745867E7 ; 1.2153015367112498E9 ; 5.126976321030156E9 ; 1.355926012518555E11 ; 0.0
121 ; 4.043995371928942E7 ; 1.2153848507162256E9 ; 5.167483398104743E9 ; 1.3680790278856674E11 ; 0.0
122 ; 4.037147027580783E7 ; 1.2154681534950018E9 ; 5.207923351824033E9 ; 1.3802328763928296E11 ; 0.0
123 ; 4.030138462775969E7 ; 1.2155514389654028E9 ; 5.24829482209984E9 ; 1.3923875579277795E11 ; 0.0
124 ; 4.023015722562237E7 ; 1.2156347011547728E9 ; 5.2885962067276E9 ; 1.4045430723174335E11 ; 0.0
125 ; 4.016348850515654E7 ; 1.215717934197088E9 ; 5.328826363953222E9 ; 1.4166994193289813E11 ; 0.0
126 ; 4.009817185295694E7 ; 1.215801132330151E9 ; 5.368989852458379E9 ; 1.428856598670952E11 ; 0.0
127 ; 4.002726810595512E7 ; 1.2158842898928685E9 ; 5.409088024311336E9 ; 1.4410146099942535E11 ; 0.0
128 ; 3.995274245502623E7 ; 1.2159674013226075E9 ; 5.449115292417291E9 ; 1.4531734528931824E11 ; 0.0
129 ; 3.988393057206135E7 ; 1.2160504611526287E9 ; 5.489068034872317E9 ; 1.4653331269064084E11 ; 0.0
130 ; 3.980656532745445E7 ; 1.216133464009594E9 ; 5.528951965444379E9 ; 1.4774936315179346E11 ; 0.0
131 ; 3.9716710442089185E7 ; 1.2162164046111503E9 ; 5.568758530771833E9 ; 1.4896549661580304E11 ; 0.0
132 ; 3.963338404741773E7 ; 1.2162992777635815E9 ; 5.6084752412139225E9 ; 1.5018171302041418E11 ; 0.0
133 ; 3.954112828494886E7 ; 1.2163820783595312E9 ; 5.64810862526134E9 ; 1.5139801229817776E11 ; 0.0
134 ; 3.945994735750525E7 ; 1.2164648013757932E9 ; 5.687649753546289E9 ; 1.526143943765373E11 ; 0.0
135 ; 3.937250425393675E7 ; 1.2165474418711667E9 ; 5.727109700903794E9 ; 1.538308591779131E11 ; 0.0
136 ; 3.928477988024898E7 ; 1.216629994984376E9 ; 5.766482205157731E9 ; 1.5504740661978424E11 ; 0.0
137 ; 3.919916591599102E7 ; 1.2167124559320502E9 ; 5.80576698503798E9 ; 1.5626403661476862E11 ; 0.0
138 ; 3.910469478317493E7 ; 1.216794820006767E9 ; 5.844966150953971E9 ; 1.5748074907070065E11 ; 0.0
139 ; 3.902431848294194E7 ; 1.2168770825751514E9 ; 5.884070845737145E9 ; 1.5869754389070743E11 ; 0.0
140 ; 3.893381296751882E7 ; 1.2169592390760312E9 ; 5.923095164220087E9 ; 1.599144209732826E11 ; 0.0
141 ; 3.884710231560714E7 ; 1.2170412850186505E9 ; 5.962028977187606E9 ; 1.611313802123586E11 ; 0.0
142 ; 3.8753984110207655E7 ; 1.2171232159809332E9 ; 6.000876079503213E9 ; 1.6234842149737726E11 ; 0.0
143 ; 3.8670563647221066E7 ; 1.217205027607801E9 ; 6.0396300636134205E9 ; 1.635655447133582E11 ; 0.0
144 ; 3.858372338547337E7 ; 1.2172867156095397E9 ; 6.078300627260641E9 ; 1.6478274974096597E11 ; 0.0
145 ; 3.8506927230616115E7 ; 1.2173682757602172E9 ; 6.116884350646114E9 ; 1.660000364565755E11 ; 0.0
146 ; 3.842962758473407E7 ; 1.2174497038961437E9 ; 6.155391277876731E9 ; 1.6721740473233572E11 ; 0.0
147 ; 3.836251851695903E7 ; 1.2175309959143853E9 ; 6.193820905461465E9 ; 1.6843485443623187E11 ; 0.0
148 ; 3.828259127714348E7 ; 1.2176121477713149E9 ; 6.232183423978424E9 ; 1.6965238543214627E11 ; 0.0
149 ; 3.821200469724858E7 ; 1.2176931554812105E9 ; 6.270466015255568E9 ; 1.7086999757991757E11 ; 0.0
150 ; 3.813901186207248E7 ; 1.2177740151148944E9 ; 6.308678019952816E9 ; 1.7208769073539877E11 ; 0.0
151 ; 3.806210778214797E7 ; 1.2178547227984133E9 ; 6.346817031814889E9 ; 1.7330546475051367E11 ; 0.0
152 ; 3.799418949038563E7 ; 1.2179352747117577E9 ; 6.384879139597037E9 ; 1.7452331947331207E11 ; 0.0
153 ; 3.7919872869072676E7 ; 1.2180156670876179E9 ; 6.422873329087423E9 ; 1.7574125474802383E11 ; 0.0
154 ; 3.784340661261725E7 ; 1.2180958962101798E9 ; 6.460793201956496E9 ; 1.7695927041511145E11 ; 0.0
155 ; 3.776785136786042E7 ; 1.2181759584139555E9 ; 6.498636608569114E9 ; 1.7817736631132162E11 ; 0.0
156 ; 3.769044853931938E7 ; 1.2182558500826473E9 ; 6.536404459936975E9 ; 1.7939554226973557E11 ; 0.0
157 ; 3.7620285792729154E7 ; 1.2183355676480477E9 ; 6.574094908476294E9 ; 1.806137981198182E11 ; 0.0
158 ; 3.75447547795136E7 ; 1.2184151075889702E9 ; 6.611715194269023E9 ; 1.8183213368746625E11 ; 0.0
159 ; 3.747304485638936E7 ; 1.2184944664302125E9 ; 6.649259949048536E9 ; 1.830505487950552E11 ; 0.0
160 ; 3.739425962131105E7 ; 1.2185736407415514E9 ; 6.686732993904925E9 ; 1.842690432614854E11 ; 0.0
161 ; 3.7315670918430105E7 ; 1.2186526271367664E9 ; 6.724127253526237E9 ; 1.8548761690222696E11 ; 0.0
162 ; 3.723964575458352E7 ; 1.2187314222726908E9 ; 6.761442924444667E9 ; 1.8670626952936374E11 ; 0.0
163 ; 3.717132834195191E7 ; 1.2188100228482938E9 ; 6.79868257019925E9 ; 1.8792500095163644E11 ; 0.0
164 ; 3.7093544054976515E7 ; 1.2188884256037884E9 ; 6.835853898541203E9 ; 1.8914381097448474E11 ; 0.0
165 ; 3.7015423623319685E7 ; 1.2189666273197641E9 ; 6.872947442596179E9 ; 1.9036269940008853E11 ; 0.0
166 ; 3.694142400482462E7 ; 1.2190446248163464E9 ; 6.909962866219499E9 ; 1.915816660274083E11 ; 0.0
167 ; 3.686697100353895E7 ; 1.219122414952382E9 ; 6.946904290224323E9 ; 1.9280071065222464E11 ; 0.0
168 ; 3.678706808172098E7 ; 1.2191999946246467E9 ; 6.983771261227862E9 ; 1.9401983306717703E11 ; 0.0
169 ; 3.6714208835286334E7 ; 1.219277360767074E9 ; 7.020558329309584E9 ; 1.9523903306180167E11 ; 0.0
170 ; 3.664370692327324E7 ; 1.2193545103500128E9 ; 7.05727253814487E9 ; 1.9645831042256873E11 ; 0.0
171 ; 3.6565027540991254E7 ; 1.2194E9 ; 7.093916245068143E9 ; 1.9767766493291873E11 ; 0.0
172 ; 3.648247065150612E7 ; 1.2194E9 ; 7.130481272609134E9 ; 1.9889706493291873E11 ; 0.0
173 ; 3.6412590615484826E7 ; 1.2194E9 ; 7.16696374326064E9 ; 2.0011646493291873E11 ; 0.0
174 ; 3.634671304301772E7 ; 1.2194E9 ; 7.203376333876125E9 ; 2.0133586493291873E11 ; 0.0
175 ; 3.6280994778676E7 ; 1.2194E9 ; 7.239723046919143E9 ; 2.0255526493291873E11 ; 0.0
176 ; 3.621768993931735E7 ; 1.2194E9 ; 7.276004041697819E9 ; 2.0377466493291873E11 ; 0.0
177 ; 3.6145750840051524E7 ; 1.2194E9 ; 7.312221731637136E9 ; 2.0499406493291873E11 ; 0.0
178 ; 3.608576119419692E7 ; 1.2194E9 ; 7.348367482477188E9 ; 2.0621346493291873E11 ; 0.0
179 ; 3.601844197974602E7 ; 1.2194E9 ; 7.384453243671385E9 ; 2.0743286493291873E11 ; 0.0
180 ; 3.594752003183621E7 ; 1.2194E9 ; 7.420471685651131E9 ; 2.0865226493291873E11 ; 0.0
181 ; 3.589466585538593E7 ; 1.2194E9 ; 7.456419205682967E9 ; 2.0987166493291873E11 ; 0.0
182 ; 3.582435782608062E7 ; 1.2194E9 ; 7.492313871538353E9 ; 2.1109106493291873E11 ; 0.0
183 ; 3.575806950635299E7 ; 1.2194E9 ; 7.528138229364433E9 ; 2.1231046493291873E11 ; 0.0
184 ; 3.5692093313187145E7 ; 1.2194E9 ; 7.563896298870787E9 ; 2.1352986493291873E11 ; 0.0
185 ; 3.562454775730274E7 ; 1.2194E9 ; 7.599588392183974E9 ; 2.1474926493291873E11 ; 0.0
186 ; 3.555964227007378E7 ; 1.2194E9 ; 7.635212939941277E9 ; 2.1596866493291873E11 ; 0.0
187 ; 3.5495108567562014E7 ; 1.2194E9 ; 7.67077258221135E9 ; 2.1718806493291873E11 ; 0.0
188 ; 3.5429096490242735E7 ; 1.2194E9 ; 7.706267690778913E9 ; 2.1840746493291873E11 ; 0.0
189 ; 3.536348822664335E7 ; 1.2194E9 ; 7.7416967872691555E9 ; 2.1962686493291873E11 ; 0.0
190 ; 3.529570270750055E7 ; 1.2194E9 ; 7.777060275495799E9 ; 2.2084626493291873E11 ; 0.0
191 ; 3.5230211961080864E7 ; 1.2194E9 ; 7.8123559782032995E9 ; 2.2206566493291873E11 ; 0.0
192 ; 3.516733904111659E7 ; 1.2194E9 ; 7.84758619016438E9 ; 2.2328506493291873E11 ; 0.0
193 ; 3.5099405029606104E7 ; 1.2194E9 ; 7.882753529205497E9 ; 2.2450446493291873E11 ; 0.0
194 ; 3.5038863135883585E7 ; 1.2194E9 ; 7.917852934235103E9 ; 2.2572386493291873E11 ; 0.0
195 ; 3.497548432536739E7 ; 1.2194E9 ; 7.952891797370986E9 ; 2.2694326493291873E11 ; 0.0
196 ; 3.490667824893994E7 ; 1.2194E9 ; 7.987867281696353E9 ; 2.2816266493291873E11 ; 0.0
197 ; 3.484054305669868E7 ; 1.2194E9 ; 8.022773959945292E9 ; 2.2938206493291873E11 ; 0.0
198 ; 3.477447173181294E7 ; 1.1955598503013616E9 ; 8.057614503001991E9 ; 2.3060146493291873E11 ; 0.0
199 ; 3.471407744071718E7 ; 1.11826475659173E9 ; 8.092388974733804E9 ; 2.317970247832201E11 ; 0.0
