CSV File for the Network on Day 90
1 - Minute m 
2 - Power Consumed at minute m 
3 - Power Produced at minute m 
4 - Energy Consumed since the beginning of the day 
5 - Energy Produced since the beginning of the day 
6 - Energy Lost since the beginning of the day 
 
0 ; 3.865312545063696E7 ; 6.350566883998325E8 ; 0.0 ; 0.0 ; 0.0
1 ; 3.868569347147473E7 ; 6.359675050711224E8 ; 3.865312545063696E7 ; 6.350566883998325E8 ; 0.0
2 ; 3.873129857494393E7 ; 6.387317132734782E8 ; 7.733881892211169E7 ; 1.271024193470955E9 ; 0.0
3 ; 3.878294503305747E7 ; 6.433493295291064E8 ; 1.1607011749705562E8 ; 1.909755906744433E9 ; 0.0
4 ; 3.883988257678057E7 ; 6.498203686478086E8 ; 1.548530625301131E8 ; 2.5531052362735395E9 ; 0.0
5 ; 3.890337734116687E7 ; 6.581448436439307E8 ; 1.9369294510689366E8 ; 3.202925604921348E9 ; 0.0
6 ; 3.8998679220087774E7 ; 6.683227656619657E8 ; 2.325963224480605E8 ; 3.861070448565279E9 ; 0.0
7 ; 3.912595357150608E7 ; 6.803541439117907E8 ; 2.715950016681483E8 ; 4.529393214227244E9 ; 0.0
8 ; 3.931421499501185E7 ; 6.942389856144055E8 ; 3.1072095523965436E8 ; 5.209747358139035E9 ; 0.0
9 ; 3.959623600333117E7 ; 7.099772959589218E8 ; 3.500351702346662E8 ; 5.903986343753441E9 ; 0.0
10 ; 4.003593410069795E7 ; 7.275690780713973E8 ; 3.896314062379974E8 ; 6.613963639712362E9 ; 0.0
11 ; 4.071960892591601E7 ; 7.470143329959589E8 ; 4.2966734033869535E8 ; 7.34153271778376E9 ; 0.0
12 ; 4.1829610334255874E7 ; 7.683130596884798E8 ; 4.7038694926461136E8 ; 8.088547050779719E9 ; 0.0
13 ; 4.289292776200634E7 ; 7.914652550229018E8 ; 5.1221655959886724E8 ; 8.856860110468199E9 ; 0.0
14 ; 4.302147343206323E7 ; 8.164709138101139E8 ; 5.551094873608736E8 ; 9.6483253654911E9 ; 0.0
15 ; 4.3060791303308666E7 ; 8.433300288291159E8 ; 5.981309607929368E8 ; 1.0464796279301214E10 ; 0.0
16 ; 4.311899201236968E7 ; 8.720425908700309E8 ; 6.411917520962455E8 ; 1.130812630813033E10 ; 0.0
17 ; 4.3163537650081344E7 ; 9.026085887883657E8 ; 6.843107441086152E8 ; 1.218016889900036E10 ; 0.0
18 ; 4.321820320819063E7 ; 9.350280095697744E8 ; 7.274742817586966E8 ; 1.3082777487788727E10 ; 0.0
19 ; 4.3270614951118745E7 ; 9.693008384044558E8 ; 7.706924849668872E8 ; 1.4017805497358501E10 ; 0.0
20 ; 4.332410000317437E7 ; 1.0054270587702026E9 ; 8.13963099918006E8 ; 1.4987106335762957E10 ; 0.0
21 ; 4.337619237903711E7 ; 1.0434066525230461E9 ; 8.572871999211804E8 ; 1.599253339453316E10 ; 0.0
22 ; 4.341953869045268E7 ; 1.0832395999943693E9 ; 9.006633923002175E8 ; 1.7035940047056206E10 ; 0.0
23 ; 4.347532081643924E7 ; 1.1249258800933356E9 ; 9.440829309906702E8 ; 1.8119179647050575E10 ; 0.0
24 ; 4.3523940319417395E7 ; 1.168465470413454E9 ; 9.875582518071095E8 ; 1.924410552714391E10 ; 0.0
25 ; 4.357111974850494E7 ; 1.205986592731229E9 ; 1.0310821921265268E9 ; 2.0412570997557365E10 ; 0.0
26 ; 4.3624611560994744E7 ; 1.2060105093389237E9 ; 1.0746533118750317E9 ; 2.1618557590288593E10 ; 0.0
27 ; 4.367758556920122E7 ; 1.2060358103061283E9 ; 1.1182779234360266E9 ; 2.2824568099627518E10 ; 0.0
28 ; 4.372351800899949E7 ; 1.2060624690722759E9 ; 1.1619555090052278E9 ; 2.4030603909933647E10 ; 0.0
29 ; 4.377781734084881E7 ; 1.206090458316782E9 ; 1.2056790270142274E9 ; 2.5236666379005924E10 ; 0.0
30 ; 4.382371639599375E7 ; 1.2061197500676355E9 ; 1.2494568443550763E9 ; 2.644275683732271E10 ; 0.0
31 ; 4.386680321050394E7 ; 1.2061503158071415E9 ; 1.29328056075107E9 ; 2.7648876587390343E10 ; 0.0
32 ; 4.3913940224906616E7 ; 1.2061821265741446E9 ; 1.337147363961574E9 ; 2.8855026903197483E10 ; 0.0
33 ; 4.395391462469464E7 ; 1.2062151530621543E9 ; 1.3810613041864808E9 ; 3.006120902977163E10 ; 0.0
34 ; 4.400254443227928E7 ; 1.2062493657129033E9 ; 1.4250152188111753E9 ; 3.1267424182833782E10 ; 0.0
35 ; 4.404207380173883E7 ; 1.2062847348049467E9 ; 1.4690177632434547E9 ; 3.2473673548546684E10 ; 0.0
36 ; 4.408321076017205E7 ; 1.2063212305370257E9 ; 1.5130598370451934E9 ; 3.367995828335163E10 ; 0.0
37 ; 4.412472079563777E7 ; 1.206358823105985E9 ; 1.5571430478053656E9 ; 3.488627951388866E10 ; 0.0
38 ; 4.416912011017435E7 ; 1.2063974827791219E9 ; 1.6012677686010034E9 ; 3.6092638336994644E10 ; 0.0
39 ; 4.419462909057702E7 ; 1.2064371799609232E9 ; 1.6454368887111778E9 ; 3.7299035819773766E10 ; 0.0
40 ; 4.423072119296968E7 ; 1.2064778852541938E9 ; 1.689631517801755E9 ; 3.850547299973469E10 ; 0.0
41 ; 4.4267480731950596E7 ; 1.206519569515657E9 ; 1.7338622389947248E9 ; 3.9711950884988884E10 ; 0.0
42 ; 4.429490693789696E7 ; 1.2065622039061427E9 ; 1.7781297197266753E9 ; 4.091847045450454E10 ; 0.0
43 ; 4.432457528034588E7 ; 1.2066057599355276E9 ; 1.8224246266645722E9 ; 4.212503265841068E10 ; 0.0
44 ; 4.435256133961466E7 ; 1.2066502095026174E9 ; 1.8667492019449182E9 ; 4.333163841834621E10 ; 0.0
45 ; 4.4382303635756224E7 ; 1.2066955249302032E9 ; 1.9111017632845328E9 ; 4.453828862784882E10 ; 0.0
46 ; 4.440502343769397E7 ; 1.206741678995524E9 ; 1.955484066920289E9 ; 4.574498415277903E10 ; 0.0
47 ; 4.442988636099903E7 ; 1.2067886449564042E9 ; 1.999889090357983E9 ; 4.695172583177455E10 ; 0.0
48 ; 4.44443569663481E7 ; 1.2068363965733266E9 ; 2.0443189767189822E9 ; 4.815851447673096E10 ; 0.0
49 ; 4.446523236505987E7 ; 1.206884908127715E9 ; 2.0887633336853304E9 ; 4.936535087330428E10 ; 0.0
50 ; 4.448071866021116E7 ; 1.2069341544367073E9 ; 2.1332285660503902E9 ; 5.0572235781432E10 ; 0.0
51 ; 4.449846746065436E7 ; 1.206984110864677E9 ; 2.1777092847106013E9 ; 5.1779169935868706E10 ; 0.0
52 ; 4.45112578035712E7 ; 1.2070347533317866E9 ; 2.2222077521712556E9 ; 5.298615404673338E10 ; 0.0
53 ; 4.452324976602087E7 ; 1.2070860583198197E9 ; 2.266719009974827E9 ; 5.419318880006517E10 ; 0.0
54 ; 4.453115750984045E7 ; 1.2071380028755445E9 ; 2.3112422597408476E9 ; 5.540027485838499E10 ; 0.0
55 ; 4.454952564250535E7 ; 1.2071905646118548E9 ; 2.355773417250688E9 ; 5.660741286126053E10 ; 0.0
56 ; 4.4555401730140015E7 ; 1.2072437217069035E9 ; 2.4003229428931932E9 ; 5.781460342587238E10 ; 0.0
57 ; 4.457444380470435E7 ; 1.2072974529014575E9 ; 2.4448783446233335E9 ; 5.9021847147579285E10 ; 0.0
58 ; 4.458982001213869E7 ; 1.207351737494664E9 ; 2.4894527884280376E9 ; 6.022914460048074E10 ; 0.0
59 ; 4.45967434582862E7 ; 1.2074065553384228E9 ; 2.5340426084401765E9 ; 6.143649633797541E10 ; 0.0
60 ; 4.460451377602568E7 ; 1.2074618868305411E9 ; 2.578639351898463E9 ; 6.2643902893313835E10 ; 0.0
61 ; 4.462022326776851E7 ; 1.2075177129068284E9 ; 2.6232438656744885E9 ; 6.385136478014438E10 ; 0.0
62 ; 4.4629732340663336E7 ; 1.2075740150322857E9 ; 2.667864088942257E9 ; 6.505888249305121E10 ; 0.0
63 ; 4.464023328338801E7 ; 1.207630775191523E9 ; 2.7124938212829204E9 ; 6.6266456508083496E10 ; 0.0
64 ; 4.464966623031233E7 ; 1.2076879758785338E9 ; 2.7571340545663085E9 ; 6.747408728327502E10 ; 0.0
65 ; 4.46608606525152E7 ; 1.2077456000859377E9 ; 2.801783720796621E9 ; 6.868177525915355E10 ; 0.0
66 ; 4.4665942161214E7 ; 1.207803631293795E9 ; 2.8464445814491363E9 ; 6.988952085923949E10 ; 0.0
67 ; 4.467968421147831E7 ; 1.2078620534580908E9 ; 2.89111052361035E9 ; 7.109732449053328E10 ; 0.0
68 ; 4.468038744826736E7 ; 1.2079208509989638E9 ; 2.9357902078218284E9 ; 7.230518654399136E10 ; 0.0
69 ; 4.4685795659821264E7 ; 1.2079800087887664E9 ; 2.980470595270096E9 ; 7.351310739499033E10 ; 0.0
70 ; 4.4695400470602095E7 ; 1.208039512140011E9 ; 3.025156390929917E9 ; 7.47210874037791E10 ; 0.0
71 ; 4.4704859631401405E7 ; 1.2080993467932734E9 ; 3.069851791400519E9 ; 7.592912691591911E10 ; 0.0
72 ; 4.470676571386494E7 ; 1.2081594989050932E9 ; 3.1145566510319204E9 ; 7.713722626271239E10 ; 0.0
73 ; 4.4711686829498515E7 ; 1.2082199550359316E9 ; 3.159263416745785E9 ; 7.834538576161748E10 ; 0.0
74 ; 4.471875491856497E7 ; 1.2082807021382117E9 ; 3.2039751035752835E9 ; 7.955360571665341E10 ; 0.0
75 ; 4.472259073918895E7 ; 1.2083417275444884E9 ; 3.2486938584938483E9 ; 8.076188641879163E10 ; 0.0
76 ; 4.4732139469969936E7 ; 1.2084030189557703E9 ; 3.2934164492330375E9 ; 8.197022814633612E10 ; 0.0
77 ; 4.473789403915721E7 ; 1.2084645644300225E9 ; 3.338148588703007E9 ; 8.317863116529189E10 ; 0.0
78 ; 4.472524217615588E7 ; 1.20852635237087E9 ; 3.3828864827421646E9 ; 8.438709572972191E10 ; 0.0
79 ; 4.471726267358158E7 ; 1.2085883715165224E9 ; 3.4276117249183207E9 ; 8.559562208209277E10 ; 0.0
80 ; 4.470742451525165E7 ; 1.2086506109289303E9 ; 3.4723289875919023E9 ; 8.68042104536093E10 ; 0.0
81 ; 4.4691205828806125E7 ; 1.2087130599831889E9 ; 3.517036412107154E9 ; 8.801286106453822E10 ; 0.0
82 ; 4.46837260010993E7 ; 1.2087757083571994E9 ; 3.56172761793596E9 ; 8.922157412452141E10 ; 0.0
83 ; 4.468129213084936E7 ; 1.2088385460215895E9 ; 3.606411343937059E9 ; 9.04303498328786E10 ; 0.0
84 ; 4.466612213491481E7 ; 1.2089015632299027E9 ; 3.6510926360679083E9 ; 9.163918837890019E10 ; 0.0
85 ; 4.4655734185639285E7 ; 1.2089647505090601E9 ; 3.695758758202823E9 ; 9.28480899421301E10 ; 0.0
86 ; 4.463983779699285E7 ; 1.209028098650093E9 ; 3.7404144923884625E9 ; 9.405705469263916E10 ; 0.0
87 ; 4.462805503643358E7 ; 1.2090915986991482E9 ; 3.7850543301854553E9 ; 9.526608279128925E10 ; 0.0
88 ; 4.461480955730266E7 ; 1.2091552419487693E9 ; 3.829682385221889E9 ; 9.647517438998839E10 ; 0.0
89 ; 4.460460969795544E7 ; 1.209219019929443E9 ; 3.8742971947791915E9 ; 9.768432963193716E10 ; 0.0
90 ; 4.458866167569974E7 ; 1.2092829244014168E9 ; 3.918901804477147E9 ; 9.889354865186661E10 ; 0.0
91 ; 4.4578976136336595E7 ; 1.209346947346781E9 ; 3.963490466152847E9 ; 1.0010283157626802E11 ; 0.0
92 ; 4.456378962205593E7 ; 1.209411080961808E9 ; 4.0080694422891836E9 ; 1.013121785236148E11 ; 0.0
93 ; 4.45447637954192E7 ; 1.20947531764955E9 ; 4.0526332319112396E9 ; 1.0252158960457661E11 ; 0.0
94 ; 4.453165129740542E7 ; 1.2095396500126853E9 ; 4.097177995706659E9 ; 1.0373106492222617E11 ; 0.0
95 ; 4.451708622917932E7 ; 1.2096040708466115E9 ; 4.141709647004064E9 ; 1.0494060457223885E11 ; 0.0
96 ; 4.4491546101345845E7 ; 1.209668573132775E9 ; 4.1862267332332435E9 ; 1.0615020864308546E11 ; 0.0
97 ; 4.4481984178647116E7 ; 1.2097331500322366E9 ; 4.2307182793345895E9 ; 1.0735987721621825E11 ; 0.0
98 ; 4.4470781105641745E7 ; 1.2097977948794625E9 ; 4.2752002635132365E9 ; 1.0856961036625049E11 ; 0.0
99 ; 4.444937216247172E7 ; 1.2098625011763375E9 ; 4.319671044618878E9 ; 1.0977940816112994E11 ; 0.0
100 ; 4.443343072213798E7 ; 1.209927262586392E9 ; 4.36412041678135E9 ; 1.1098927066230627E11 ; 0.0
101 ; 4.4414190484236896E7 ; 1.2099920729292355E9 ; 4.408553847503489E9 ; 1.1219919792489267E11 ; 0.0
102 ; 4.4397931964263104E7 ; 1.2100569261751971E9 ; 4.452968037987725E9 ; 1.134091899978219E11 ; 0.0
103 ; 4.438047470041746E7 ; 1.2101218164401562E9 ; 4.497365969951988E9 ; 1.146192469239971E11 ; 0.0
104 ; 4.436157262736963E7 ; 1.210186737980565E9 ; 4.541746444652406E9 ; 1.1582936874043726E11 ; 0.0
105 ; 4.433863373562877E7 ; 1.2102516851886535E9 ; 4.586108017279776E9 ; 1.1703955547841782E11 ; 0.0
106 ; 4.4322182099556714E7 ; 1.2103166525878124E9 ; 4.630446651015405E9 ; 1.1824980716360648E11 ; 0.0
107 ; 4.429749176090926E7 ; 1.2103816348281448E9 ; 4.674768833114962E9 ; 1.1946012381619429E11 ; 0.0
108 ; 4.427647503188721E7 ; 1.2104466266821868E9 ; 4.719066324875871E9 ; 1.2067050545102243E11 ; 0.0
109 ; 4.426015991984544E7 ; 1.2105116230407815E9 ; 4.763342799907758E9 ; 1.2188095207770462E11 ; 0.0
110 ; 4.423339547555925E7 ; 1.2105766189091122E9 ; 4.807602959827603E9 ; 1.230914637007454E11 ; 0.0
111 ; 4.42154873333733E7 ; 1.2106416094028816E9 ; 4.851836355303163E9 ; 1.2430204031965453E11 ; 0.0
112 ; 4.4194305349932164E7 ; 1.2107065897446315E9 ; 4.896051842636536E9 ; 1.255126819290574E11 ; 0.0
113 ; 4.4169272364297055E7 ; 1.2107715552602038E9 ; 4.940246147986467E9 ; 1.2672338851880203E11 ; 0.0
114 ; 4.414872704392465E7 ; 1.2108365013753324E9 ; 4.984415420350764E9 ; 1.2793416007406224E11 ; 0.0
115 ; 4.4128469769436695E7 ; 1.2109014236123607E9 ; 5.028564147394689E9 ; 1.2914499657543758E11 ; 0.0
116 ; 4.409303765191296E7 ; 1.2109663175870852E9 ; 5.072692617164125E9 ; 1.3035589799904994E11 ; 0.0
117 ; 4.407753051096295E7 ; 1.211031179005714E9 ; 5.116785654816038E9 ; 1.3156686431663702E11 ; 0.0
118 ; 4.4050222655840844E7 ; 1.2110960036619422E9 ; 5.160863185327001E9 ; 1.3277789549564273E11 ; 0.0
119 ; 4.402459407504836E7 ; 1.211160787434134E9 ; 5.2049134079828415E9 ; 1.3398899149930467E11 ; 0.0
120 ; 4.399848494882883E7 ; 1.2112255262826118E9 ; 5.24893800205789E9 ; 1.352001522867388E11 ; 0.0
121 ; 4.397325214126828E7 ; 1.2112902162470438E9 ; 5.292936487006719E9 ; 1.3641137781302141E11 ; 0.0
122 ; 4.394686686150374E7 ; 1.2113548534439335E9 ; 5.336909739147987E9 ; 1.3762266802926846E11 ; 0.0
123 ; 4.39210123349913E7 ; 1.211419434064198E9 ; 5.380856606009491E9 ; 1.388340228827124E11 ; 0.0
124 ; 4.38948275068796E7 ; 1.2114839543708386E9 ; 5.424777618344482E9 ; 1.400454423167766E11 ; 0.0
125 ; 4.386478214997782E7 ; 1.211548410696699E9 ; 5.468672445851362E9 ; 1.4125692627114746E11 ; 0.0
126 ; 4.383889729731339E7 ; 1.2116127994423018E9 ; 5.51253722800134E9 ; 1.4246847468184415E11 ; 0.0
127 ; 4.380806446641496E7 ; 1.2116771170737727E9 ; 5.556376125298654E9 ; 1.4368008748128644E11 ; 0.0
128 ; 4.377744016790842E7 ; 1.2117413601208339E9 ; 5.600184189765069E9 ; 1.448917645983602E11 ; 0.0
129 ; 4.375000255345446E7 ; 1.2118055251748743E9 ; 5.643961629932978E9 ; 1.4610350595848102E11 ; 0.0
130 ; 4.3715490488460384E7 ; 1.2118696088870935E9 ; 5.687711632486432E9 ; 1.4731531148365588E11 ; 0.0
131 ; 4.367488883787678E7 ; 1.2119336079667087E9 ; 5.731427122974893E9 ; 1.4852718109254297E11 ; 0.0
132 ; 4.36277533299814E7 ; 1.211997519179231E9 ; 5.775102011812769E9 ; 1.4973911470050967E11 ; 0.0
133 ; 4.358058958209404E7 ; 1.212061339344803E9 ; 5.818729765142751E9 ; 1.509511122196889E11 ; 0.0
134 ; 4.35368710754614E7 ; 1.2121250653365986E9 ; 5.862310354724845E9 ; 1.5216317355903372E11 ; 0.0
135 ; 4.349856405266541E7 ; 1.2121886940792785E9 ; 5.905847225800306E9 ; 1.5337529862437033E11 ; 0.0
136 ; 4.346065371511307E7 ; 1.2122522225475032E9 ; 5.949345789852972E9 ; 1.5458748731844962E11 ; 0.0
137 ; 4.340737099508213E7 ; 1.212315647764501E9 ; 5.992806443568085E9 ; 1.5579973954099713E11 ; 0.0
138 ; 4.336289471620907E7 ; 1.2123789668006847E9 ; 6.036213814563167E9 ; 1.5701205518876163E11 ; 0.0
139 ; 4.331301451717724E7 ; 1.212442176772321E9 ; 6.079576709279376E9 ; 1.5822443415556232E11 ; 0.0
140 ; 4.327285657084443E7 ; 1.212505274840245E9 ; 6.122889723796554E9 ; 1.5943687633233463E11 ; 0.0
141 ; 4.321744961119719E7 ; 1.2125682582086236E9 ; 6.166162580367398E9 ; 1.6064938160717487E11 ; 0.0
142 ; 4.317470922624675E7 ; 1.2126311241237605E9 ; 6.209380029978596E9 ; 1.6186194986538348E11 ; 0.0
143 ; 4.313027630090697E7 ; 1.2126938698729453E9 ; 6.252554739204843E9 ; 1.6307458098950723E11 ; 0.0
144 ; 4.308596254551892E7 ; 1.2127564927833424E9 ; 6.29568501550575E9 ; 1.642872748593802E11 ; 0.0
145 ; 4.305262474325199E7 ; 1.21281899022092E9 ; 6.338770978051269E9 ; 1.6550003135216354E11 ; 0.0
146 ; 4.3019598875911E7 ; 1.212881359589417E9 ; 6.38182360279452E9 ; 1.6671285034238446E11 ; 0.0
147 ; 4.298962138477813E7 ; 1.212943598329346E9 ; 6.424843201670431E9 ; 1.6792573170197388E11 ; 0.0
148 ; 4.295889485487595E7 ; 1.2130057039170294E9 ; 6.467832823055209E9 ; 1.6913867530030322E11 ; 0.0
149 ; 4.293414575738908E7 ; 1.2130676738636737E9 ; 6.510791717910085E9 ; 1.7035168100422025E11 ; 0.0
150 ; 4.289167851728354E7 ; 1.2131295057144713E9 ; 6.553725863667474E9 ; 1.7156474867808392E11 ; 0.0
151 ; 4.2857842415027626E7 ; 1.2131911970477374E9 ; 6.596617542184757E9 ; 1.727778781837984E11 ; 0.0
152 ; 4.2832126716335E7 ; 1.2132527454740734E9 ; 6.639475384599785E9 ; 1.7399106938084613E11 ; 0.0
153 ; 4.2796273417978086E7 ; 1.213314148635562E9 ; 6.68230751131612E9 ; 1.752043221263202E11 ; 0.0
154 ; 4.276668905366172E7 ; 1.2133754042049885E9 ; 6.725103784734098E9 ; 1.7641763627495575E11 ; 0.0
155 ; 4.273303966536792E7 ; 1.2134365098850894E9 ; 6.76787047378776E9 ; 1.7763101167916074E11 ; 0.0
156 ; 4.270157966122182E7 ; 1.213497463407828E9 ; 6.810603513453128E9 ; 1.7884444818904584E11 ; 0.0
157 ; 4.266728432668032E7 ; 1.2135582625336907E9 ; 6.853305093114349E9 ; 1.8005794565245367E11 ; 0.0
158 ; 4.263477264306801E7 ; 1.213618905051013E9 ; 6.89597237744103E9 ; 1.8127150391498737E11 ; 0.0
159 ; 4.260369821196163E7 ; 1.213679388775323E9 ; 6.938607150084098E9 ; 1.824851228200384E11 ; 0.0
160 ; 4.257285288500027E7 ; 1.2137397115487113E9 ; 6.98121084829606E9 ; 1.8369880220881372E11 ; 0.0
161 ; 4.253151753788304E7 ; 1.21379987123922E9 ; 7.02378370118106E9 ; 1.8491254192036243E11 ; 0.0
162 ; 4.249768406953062E7 ; 1.2138598657402525E9 ; 7.066315218718943E9 ; 1.8612634179160165E11 ; 0.0
163 ; 4.2462448694852784E7 ; 1.213919692970003E9 ; 7.108812902788473E9 ; 1.8734020165734192E11 ; 0.0
164 ; 4.2439294912026696E7 ; 1.2139793508709064E9 ; 7.151275351483326E9 ; 1.8855412135031192E11 ; 0.0
165 ; 4.2394300426488645E7 ; 1.2140388374091048E9 ; 7.193714646395352E9 ; 1.8976810070118283E11 ; 0.0
166 ; 4.23636174908612E7 ; 1.2140981505739331E9 ; 7.236108946821841E9 ; 1.9098213953859195E11 ; 0.0
167 ; 4.2326096499081805E7 ; 1.2141572883774214E9 ; 7.278472564312702E9 ; 1.921962376891659E11 ; 0.0
168 ; 4.229365395066388E7 ; 1.2142162488538127E9 ; 7.320798660811784E9 ; 1.934103949775433E11 ; 0.0
169 ; 4.225394219583796E7 ; 1.2142750300590985E9 ; 7.363092314762447E9 ; 1.9462461122639713E11 ; 0.0
170 ; 4.2228339502213955E7 ; 1.2143336300705674E9 ; 7.405346256958285E9 ; 1.9583888625645624E11 ; 0.0
171 ; 4.219117754524331E7 ; 1.2143920469863713E9 ; 7.447574596460499E9 ; 1.970532198865268E11 ; 0.0
172 ; 4.215311847522877E7 ; 1.2144502789251032E9 ; 7.489765774005742E9 ; 1.9826761193351315E11 ; 0.0
173 ; 4.2120296897770114E7 ; 1.2145083240253901E9 ; 7.53191889248097E9 ; 1.9948206221243826E11 ; 0.0
174 ; 4.210114489354975E7 ; 1.2145661804454987E9 ; 7.57403918937874E9 ; 2.0069657053646365E11 ; 0.0
175 ; 4.207593880096898E7 ; 1.2146238463629558E9 ; 7.61614033427229E9 ; 2.0191113671690915E11 ; 0.0
176 ; 4.2053701515386365E7 ; 1.2146813199741757E9 ; 7.658216273073259E9 ; 2.031257605632721E11 ; 0.0
177 ; 4.2034809568888456E7 ; 1.2147385994941068E9 ; 7.700269974588646E9 ; 2.0434044188324628E11 ; 0.0
178 ; 4.2017079429144755E7 ; 1.2147956831558847E9 ; 7.742304784157535E9 ; 2.055551804827404E11 ; 0.0
179 ; 4.198941294041059E7 ; 1.2148525692104974E9 ; 7.784321863586679E9 ; 2.0676997616589627E11 ; 0.0
180 ; 4.196774396150839E7 ; 1.2149092559264617E9 ; 7.82631127652709E9 ; 2.0798482873510678E11 ; 0.0
181 ; 4.195063174566532E7 ; 1.2149657415895104E9 ; 7.868279020488599E9 ; 2.0919973799103323E11 ; 0.0
182 ; 4.192720498878934E7 ; 1.2150220245022895E9 ; 7.910229652234264E9 ; 2.1041470373262274E11 ; 0.0
183 ; 4.1899275033386454E7 ; 1.215078102984062E9 ; 7.952156857223054E9 ; 2.1162972575712503E11 ; 0.0
184 ; 4.188395317754547E7 ; 1.215133975370426E9 ; 7.99405613225644E9 ; 2.128448038601091E11 ; 0.0
185 ; 4.1858607846469514E7 ; 1.215189640013039E9 ; 8.035940085433986E9 ; 2.1405993783547952E11 ; 0.0
186 ; 4.1840631223156676E7 ; 1.2152450952793505E9 ; 8.077798693280456E9 ; 2.1527512747549255E11 ; 0.0
187 ; 4.181856571500325E7 ; 1.2153003395523431E9 ; 8.1196393245036125E9 ; 2.164903725707719E11 ; 0.0
188 ; 4.17932397147263E7 ; 1.2153553712302847E9 ; 8.161457890218616E9 ; 2.1770567291032425E11 ; 0.0
189 ; 4.17697099997763E7 ; 1.2154101887264833E9 ; 8.203251129933342E9 ; 2.1892102828155453E11 ; 0.0
190 ; 4.175055266171854E7 ; 1.2154647904690557E9 ; 8.245020839933118E9 ; 2.20136438470281E11 ; 0.0
191 ; 4.173339485519427E7 ; 1.2155191749006958E9 ; 8.286771392594836E9 ; 2.2135190326075006E11 ; 0.0
192 ; 4.17053293514549E7 ; 1.2155733404784591E9 ; 8.32850478745003E9 ; 2.2256742243565076E11 ; 0.0
193 ; 4.168592688161035E7 ; 1.215627285673545E9 ; 8.370210116801485E9 ; 2.237829957761292E11 ; 0.0
194 ; 4.166549207625581E7 ; 1.2156810089710934E9 ; 8.411896043683095E9 ; 2.2499862306180276E11 ; 0.0
195 ; 4.1642440635265835E7 ; 1.215734508869982E9 ; 8.453561535759351E9 ; 2.2621430407077386E11 ; 0.0
196 ; 4.161862574267233E7 ; 1.2157877838826332E9 ; 8.495203976394617E9 ; 2.2743003857964386E11 ; 0.0
197 ; 4.160019770396384E7 ; 1.215840832534826E9 ; 8.536822602137289E9 ; 2.286458263635265E11 ; 0.0
