CSV File for the Network on Day 162
1 - Minute m 
2 - Power Consumed at minute m 
3 - Power Produced at minute m 
4 - Energy Consumed since the beginning of the day 
5 - Energy Produced since the beginning of the day 
6 - Energy Lost since the beginning of the day 
 
0 ; 1.6753704316986278E7 ; 6.350438936661528E8 ; 0.0 ; 0.0 ; 0.0
1 ; 1.677625158636047E7 ; 6.359547038534131E8 ; 1.6753704316986278E7 ; 6.350438936661528E8 ; 0.0
2 ; 1.6805076479324162E7 ; 6.387189060610057E8 ; 3.3529955903346747E7 ; 1.270998597519566E9 ; 0.0
3 ; 1.6846760399448052E7 ; 6.433365168725808E8 ; 5.033503238267091E7 ; 1.9097175035805717E9 ; 0.0
4 ; 1.688276255939539E7 ; 6.498075511538577E8 ; 6.718179278211896E7 ; 2.5530540204531527E9 ; 0.0
5 ; 1.6945564094732795E7 ; 6.581320219689784E8 ; 8.406455534151435E7 ; 3.2028615716070104E9 ; 0.0
6 ; 1.7019108176249355E7 ; 6.683099405055645E8 ; 1.0101011943624714E8 ; 3.860993593575989E9 ; 0.0
7 ; 1.7133877584901698E7 ; 6.803413160094733E8 ; 1.180292276124965E8 ; 4.529303534081553E9 ; 0.0
8 ; 1.7314108496808894E7 ; 6.942261557301291E8 ; 1.351631051973982E8 ; 5.209644850091026E9 ; 0.0
9 ; 1.7579476662872817E7 ; 7.099644648771857E8 ; 1.5247721369420707E8 ; 5.903871005821156E9 ; 0.0
10 ; 1.7994165651746716E7 ; 7.275562465891224E8 ; 1.700566903570799E8 ; 6.613835470698341E9 ; 0.0
11 ; 1.8673517977855735E7 ; 7.470015019142228E8 ; 1.880508560088266E8 ; 7.341391717287464E9 ; 0.0
12 ; 1.9766103804067858E7 ; 7.683002298042034E8 ; 2.0672437398668236E8 ; 8.088393219201687E9 ; 0.0
13 ; 2.0817863580091376E7 ; 7.914524271205844E8 ; 2.264904777907502E8 ; 8.85669344900589E9 ; 0.0
14 ; 2.0930928321319167E7 ; 8.164580886537127E8 ; 2.473083413708416E8 ; 9.648145876126474E9 ; 0.0
15 ; 2.0971232655447632E7 ; 8.433172071541634E8 ; 2.6823926969216076E8 ; 1.0464603964780188E10 ; 0.0
16 ; 2.0995748269849874E7 ; 8.7202977337608E8 ; 2.892105023476084E8 ; 1.1307921171934351E10 ; 0.0
17 ; 2.1036732648411483E7 ; 9.0259577613184E8 ; 3.102062506174583E8 ; 1.217995094531043E10 ; 0.0
18 ; 2.1084772199436422E7 ; 9.35015202357302E8 ; 3.3124298326586974E8 ; 1.308254672144227E10 ; 0.0
19 ; 2.111788757316721E7 ; 9.692880371867464E8 ; 3.5232775546530616E8 ; 1.4017561923799572E10 ; 0.0
20 ; 2.1152561780949157E7 ; 1.005414264036523E9 ; 3.7344564303847337E8 ; 1.4986849960986319E10 ; 0.0
21 ; 2.119516339108342E7 ; 1.0433938646963363E9 ; 3.9459820481942254E8 ; 1.5992264225022842E10 ; 0.0
22 ; 2.123335567469513E7 ; 1.0832268194270298E9 ; 4.1579336821050596E8 ; 1.703565808971918E10 ; 0.0
23 ; 2.1272174409851134E7 ; 1.1249131070637054E9 ; 4.370267238852011E8 ; 1.811888490914621E10 ; 0.0
24 ; 2.131443592502283E7 ; 1.1684527051229877E9 ; 4.5829889829505223E8 ; 1.9243798016209915E10 ; 0.0
25 ; 2.1357701533032894E7 ; 1.2059738353023689E9 ; 4.796133342200751E8 ; 2.04122507213329E10 ; 0.0
26 ; 2.1388500986414216E7 ; 1.2059977598136563E9 ; 5.0097103575310796E8 ; 2.161822455663527E10 ; 0.0
27 ; 2.1428913510599542E7 ; 1.206023068645204E9 ; 5.2235953673952216E8 ; 2.2824222316448925E10 ; 0.0
28 ; 2.1468523052239306E7 ; 1.2060497351550603E9 ; 5.437884502501217E8 ; 2.4030245385094128E10 ; 0.0
29 ; 2.1496837535720505E7 ; 1.2060777319417055E9 ; 5.65256973302361E8 ; 2.5236295120249187E10 ; 0.0
30 ; 2.1533304555547204E7 ; 1.206107030953197E9 ; 5.867538108380815E8 ; 2.644237285219089E10 ; 0.0
31 ; 2.1568341803008616E7 ; 1.2061376035934227E9 ; 6.082871153936287E8 ; 2.764847988314409E10 ; 0.0
32 ; 2.1601099215725508E7 ; 1.2061694208247852E9 ; 6.298554571966374E8 ; 2.885461748673751E10 ; 0.0
33 ; 2.1638373442579366E7 ; 1.2062024532667377E9 ; 6.514565564123629E8 ; 3.0060786907562294E10 ; 0.0
34 ; 2.166928735617183E7 ; 1.206236671289698E9 ; 6.730949298549423E8 ; 3.1266989360829033E10 ; 0.0
35 ; 2.169707917189648E7 ; 1.2062720451039567E9 ; 6.947642172111142E8 ; 3.2473226032118732E10 ; 0.0
36 ; 2.1727546262904026E7 ; 1.2063085448432972E9 ; 7.164612963830106E8 ; 3.367949807722269E10 ; 0.0
37 ; 2.1761034238862947E7 ; 1.2063461406431184E9 ; 7.381888426459147E8 ; 3.488580662206599E10 ; 0.0
38 ; 2.1775493683522332E7 ; 1.2063848027129452E9 ; 7.599498768847777E8 ; 3.609215276270911E10 ; 0.0
39 ; 2.1810211946906667E7 ; 1.206424501403281E9 ; 7.817253705683E8 ; 3.729853756542205E10 ; 0.0
40 ; 2.183163209417298E7 ; 1.2064652072668118E9 ; 8.035355825152067E8 ; 3.850496206682533E10 ; 0.0
41 ; 2.1850303979352046E7 ; 1.2065068911140454E9 ; 8.253672146093796E8 ; 3.971142727409215E10 ; 0.0
42 ; 2.18779077401754E7 ; 1.2065495240635014E9 ; 8.472175185887316E8 ; 4.091793416520619E10 ; 0.0
43 ; 2.1895865623326454E7 ; 1.2065930775866253E9 ; 8.69095426328907E8 ; 4.212448368926969E10 ; 0.0
44 ; 2.190976766381747E7 ; 1.2066375235476184E9 ; 8.909912919522334E8 ; 4.3331076766856316E10 ; 0.0
45 ; 2.192498112820331E7 ; 1.2066828342384148E9 ; 9.12901059616051E8 ; 4.453771429040393E10 ; 0.0
46 ; 2.193915867397902E7 ; 1.2067289824090486E9 ; 9.348260407442542E8 ; 4.574439712464235E10 ; 0.0
47 ; 2.194197210747845E7 ; 1.2067759412936764E9 ; 9.567651994182333E8 ; 4.69511261070514E10 ; 0.0
48 ; 2.19600125482709E7 ; 1.2068236846325219E9 ; 9.787071715257118E8 ; 4.815790204834508E10 ; 0.0
49 ; 2.1972517993926845E7 ; 1.2068721866900222E9 ; 1.0006671840739827E9 ; 4.93647257329776E10 ; 0.0
50 ; 2.1967163433147736E7 ; 1.2069214222694497E9 ; 1.0226397020679096E9 ; 5.0571597919667625E10 ; 0.0
51 ; 2.197407682543222E7 ; 1.2069713667242844E9 ; 1.0446068655010574E9 ; 5.177851934193707E10 ; 0.0
52 ; 2.1970928000507634E7 ; 1.207021995966606E9 ; 1.0665809423264896E9 ; 5.2985490708661354E10 ; 0.0
53 ; 2.1983225438157897E7 ; 1.2070732864727674E9 ; 1.0885518703269973E9 ; 5.419251270462796E10 ; 0.0
54 ; 2.197603154892371E7 ; 1.2071252152865999E9 ; 1.110535095765155E9 ; 5.539958599110073E10 ; 0.0
55 ; 2.1978159990624946E7 ; 1.2071777600203917E9 ; 1.1325111273140788E9 ; 5.660671120638733E10 ; 0.0
56 ; 2.198816223204584E7 ; 1.2072308988538673E9 ; 1.1544892873047037E9 ; 5.781388896640772E10 ; 0.0
57 ; 2.1994867540097546E7 ; 1.2072846105313845E9 ; 1.1764774495367496E9 ; 5.902111986526159E10 ; 0.0
58 ; 2.198931986092142E7 ; 1.2073388743575528E9 ; 1.198472317076847E9 ; 6.022840447579298E10 ; 0.0
59 ; 2.199371321652129E7 ; 1.2073936701914601E9 ; 1.2204616369377685E9 ; 6.143574335015053E10 ; 0.0
60 ; 2.2005868447959393E7 ; 1.207448978439686E9 ; 1.2424553501542897E9 ; 6.264313702034199E10 ; 0.0
61 ; 2.1994118855202876E7 ; 1.2075047800482616E9 ; 1.2644612186022491E9 ; 6.385058599878168E10 ; 0.0
62 ; 2.1991435869671047E7 ; 1.207561056493731E9 ; 1.286455337457452E9 ; 6.505809077882994E10 ; 0.0
63 ; 2.1996412377441894E7 ; 1.207617789773445E9 ; 1.3084467733271232E9 ; 6.626565183532367E10 ; 0.0
64 ; 2.1988853796579313E7 ; 1.2076749623952188E9 ; 1.330443185704565E9 ; 6.7473269625097115E10 ; 0.0
65 ; 2.199132176653484E7 ; 1.207732557366465E9 ; 1.3524320395011444E9 ; 6.868094458749233E10 ; 0.0
66 ; 2.1994120155133136E7 ; 1.2077905581829045E9 ; 1.3744233612676792E9 ; 6.98886771448588E10 ; 0.0
67 ; 2.1984886369320523E7 ; 1.2078489488169506E9 ; 1.3964174814228125E9 ; 7.10964677030417E10 ; 0.0
68 ; 2.198683369928574E7 ; 1.2079077137058494E9 ; 1.418402367792133E9 ; 7.230431665185866E10 ; 0.0
69 ; 2.1981833215027247E7 ; 1.2079668377396514E9 ; 1.4403892014914188E9 ; 7.351222436556451E10 ; 0.0
70 ; 2.198666690897036E7 ; 1.2080263062490792E9 ; 1.4623710347064462E9 ; 7.472019120330417E10 ; 0.0
71 ; 2.1982505765272822E7 ; 1.2080861049933553E9 ; 1.4843577016154165E9 ; 7.592821750955325E10 ; 0.0
72 ; 2.198044179702591E7 ; 1.2081462201480355E9 ; 1.5063402073806894E9 ; 7.713630361454662E10 ; 0.0
73 ; 2.197393322535421E7 ; 1.2082066382929003E9 ; 1.5283206491777153E9 ; 7.834444983469466E10 ; 0.0
74 ; 2.1976700446440317E7 ; 1.208267346399938E9 ; 1.5502945824030695E9 ; 7.955265647298756E10 ; 0.0
75 ; 2.196708549749361E7 ; 1.2083283318214598E9 ; 1.5722712828495097E9 ; 8.07609238193875E10 ; 0.0
76 ; 2.195864369656809E7 ; 1.2083895822783704E9 ; 1.5942383683470032E9 ; 8.196925215120895E10 ; 0.0
77 ; 2.1957204824435994E7 ; 1.2084510858486266E9 ; 1.6161970120435712E9 ; 8.317764173348732E10 ; 0.0
78 ; 2.1947864137367234E7 ; 1.2085128309558983E9 ; 1.6381542168680072E9 ; 8.438609281933595E10 ; 0.0
79 ; 2.1927079128528155E7 ; 1.2085748063584542E9 ; 1.6601020810053744E9 ; 8.559460565029185E10 ; 0.0
80 ; 2.190462799267456E7 ; 1.2086370011382842E9 ; 1.6820291601339025E9 ; 8.680318045665031E10 ; 0.0
81 ; 2.1886750182961337E7 ; 1.2086994046904724E9 ; 1.7039337881265771E9 ; 8.80118174577886E10 ; 0.0
82 ; 2.1863681277249753E7 ; 1.2087620067128267E9 ; 1.7258205383095384E9 ; 8.922051686247908E10 ; 0.0
83 ; 2.1850041439497303E7 ; 1.2088247971957777E9 ; 1.7476842195867882E9 ; 9.042927886919191E10 ; 0.0
84 ; 2.1835045407603092E7 ; 1.2088877664125412E9 ; 1.7695342610262854E9 ; 9.163810366638768E10 ; 0.0
85 ; 2.1812025501137696E7 ; 1.2089509049095616E9 ; 1.7913693064338884E9 ; 9.284699143280022E10 ; 0.0
86 ; 2.1789198577334445E7 ; 1.2090142034972253E9 ; 1.8131813319350262E9 ; 9.405594233770978E10 ; 0.0
87 ; 2.176767879107151E7 ; 1.2090776532408514E9 ; 1.8349705305123606E9 ; 9.5264956541207E10 ; 0.0
88 ; 2.175526531375098E7 ; 1.2091412454519546E9 ; 1.856738209303432E9 ; 9.647403419444785E10 ; 0.0
89 ; 2.17233064099106E7 ; 1.2092049716797826E9 ; 1.878493474617183E9 ; 9.76831754398998E10 ; 0.0
90 ; 2.1706558149634846E7 ; 1.2092688237031221E9 ; 1.9002167810270936E9 ; 9.889238041157957E10 ; 0.0
91 ; 2.1682091995270163E7 ; 1.2093327935223691E9 ; 1.9219233391767285E9 ; 1.001016492352827E11 ; 0.0
92 ; 2.166169740504302E7 ; 1.2093968733518631E9 ; 1.9436054311719987E9 ; 1.0131098202880507E11 ; 0.0
93 ; 2.1638865490202807E7 ; 1.2094610556124759E9 ; 1.9652671285770419E9 ; 1.0252037890215694E11 ; 0.0
94 ; 2.1616561143555E7 ; 1.209525332924454E9 ; 1.9869059940672448E9 ; 1.0372983995776941E11 ; 0.0
95 ; 2.1592550289960872E7 ; 1.2095896981005044E9 ; 2.0085225552107997E9 ; 1.0493936529069386E11 ; 0.0
96 ; 2.1573322825105526E7 ; 1.209654144139124E9 ; 2.0301151055007606E9 ; 1.0614895498879437E11 ; 0.0
97 ; 2.1539367880915657E7 ; 1.2097186642181597E9 ; 2.051688428325866E9 ; 1.073586091329335E11 ; 0.0
98 ; 2.152074852288156E7 ; 1.209783251688599E9 ; 2.0732277962067816E9 ; 1.0856832779715166E11 ; 0.0
99 ; 2.149275441974944E7 ; 1.209847900068581E9 ; 2.0947485447296631E9 ; 1.0977811104884026E11 ; 0.0
100 ; 2.1473011684496716E7 ; 1.2099126030376225E9 ; 2.1162412991494126E9 ; 1.1098795894890884E11 ; 0.0
101 ; 2.1440614901085213E7 ; 1.209977354431054E9 ; 2.1377143108339093E9 ; 1.1219787155194647E11 ; 0.0
102 ; 2.14246438660189E7 ; 1.2100421482346582E9 ; 2.1591549257349944E9 ; 1.1340784890637753E11 ; 0.0
103 ; 2.139230580286795E7 ; 1.2101069785795012E9 ; 2.180579569601013E9 ; 1.146178910546122E11 ; 0.0
104 ; 2.1374841572388425E7 ; 1.2101718397369595E9 ; 2.201971875403881E9 ; 1.158279980331917E11 ; 0.0
105 ; 2.1348224110990383E7 ; 1.210236726113925E9 ; 2.2233467169762697E9 ; 1.1703816987292865E11 ; 0.0
106 ; 2.132341996601627E7 ; 1.2103016322481885E9 ; 2.2446949410872602E9 ; 1.1824840659904257E11 ; 0.0
107 ; 2.128727315569181E7 ; 1.2103665528039985E9 ; 2.2660183610532765E9 ; 1.1945870823129076E11 ; 0.0
108 ; 2.1262380698005512E7 ; 1.2104314825677779E9 ; 2.287305634208968E9 ; 1.2066907478409476E11 ; 0.0
109 ; 2.123386402365014E7 ; 1.2104964164440079E9 ; 2.308568014906974E9 ; 1.2187950626666254E11 ; 0.0
110 ; 2.120179523756268E7 ; 1.2105613494512594E9 ; 2.329801878930624E9 ; 1.2309000268310654E11 ; 0.0
111 ; 2.1174934765254896E7 ; 1.2106262767183776E9 ; 2.3510036741681867E9 ; 1.243005640325578E11 ; 0.0
112 ; 2.1145391812056724E7 ; 1.2106911934808059E9 ; 2.3721786089334416E9 ; 1.2551119030927618E11 ; 0.0
113 ; 2.1116823022706226E7 ; 1.2107560950770483E9 ; 2.393324000745498E9 ; 1.2672188150275699E11 ; 0.0
114 ; 2.108909624195733E7 ; 1.210820976945266E9 ; 2.414440823768204E9 ; 1.2793263759783403E11 ; 0.0
115 ; 2.1066492971574306E7 ; 1.2108858346200004E9 ; 2.4355299200101614E9 ; 1.291434585747793E11 ; 0.0
116 ; 2.102986364107761E7 ; 1.2109506637290175E9 ; 2.4565964129817357E9 ; 1.3035434440939929E11 ; 0.0
117 ; 2.1001115951008085E7 ; 1.211015459990274E9 ; 2.477626276622813E9 ; 1.3156529507312831E11 ; 0.0
118 ; 2.0969491996247344E7 ; 1.2110802192089925E9 ; 2.4986273925738215E9 ; 1.3277631053311859E11 ; 0.0
119 ; 2.0936013369595062E7 ; 1.2111449372748518E9 ; 2.519596884570069E9 ; 1.3398739075232759E11 ; 0.0
120 ; 2.0910800207182117E7 ; 1.2112096101592753E9 ; 2.540532897939664E9 ; 1.3519853568960245E11 ; 0.0
121 ; 2.0866833304886393E7 ; 1.2112742339128287E9 ; 2.561443698146846E9 ; 1.3640974529976172E11 ; 0.0
122 ; 2.0845964168037947E7 ; 1.2113388046627073E9 ; 2.582310531451732E9 ; 1.3762101953367456E11 ; 0.0
123 ; 2.0808119730302695E7 ; 1.2114033186103227E9 ; 2.60315649561977E9 ; 1.3883235833833728E11 ; 0.0
124 ; 2.077691411364602E7 ; 1.211467772028975E9 ; 2.623964615350073E9 ; 1.400437616569476E11 ; 0.0
125 ; 2.0742577004531138E7 ; 1.211532161261616E9 ; 2.644741529463719E9 ; 1.4125522942897656E11 ; 0.0
126 ; 2.0717324723855525E7 ; 1.2115964827186904E9 ; 2.66548410646825E9 ; 1.424667615902382E11 ; 0.0
127 ; 2.068117471765393E7 ; 1.2116607328760607E9 ; 2.6862014311921053E9 ; 1.4367835807295688E11 ; 0.0
128 ; 2.0644799641434297E7 ; 1.2117249082730083E9 ; 2.706882605909759E9 ; 1.4489001880583295E11 ; 0.0
129 ; 2.059962329974055E7 ; 1.211789005510306E9 ; 2.727527405551193E9 ; 1.4610174371410596E11 ; 0.0
130 ; 2.0573237745925706E7 ; 1.211853021248364E9 ; 2.7481270288509336E9 ; 1.4731353271961627E11 ; 0.0
131 ; 2.0525018809986625E7 ; 1.2119169522054439E9 ; 2.7687002665968595E9 ; 1.4852538574086462E11 ; 0.0
132 ; 2.0471694193789355E7 ; 1.2119807951559353E9 ; 2.789225285406846E9 ; 1.4973730269307007E11 ; 0.0
133 ; 2.0421918538365405E7 ; 1.2120445469286997E9 ; 2.8096969796006355E9 ; 1.50949283488226E11 ; 0.0
134 ; 2.037913228814232E7 ; 1.2121082044054718E9 ; 2.830118898139001E9 ; 1.5216132803515472E11 ; 0.0
135 ; 2.0323936601280645E7 ; 1.2121717645193188E9 ; 2.850498030427143E9 ; 1.5337343623956018E11 ; 0.0
136 ; 2.0273714083073143E7 ; 1.2122352242531588E9 ; 2.870821967028424E9 ; 1.545856080040795E11 ; 0.0
137 ; 2.0225592808973897E7 ; 1.2122985806383295E9 ; 2.891095681111497E9 ; 1.5579784322833267E11 ; 0.0
138 ; 2.017616240643251E7 ; 1.2123618307532094E9 ; 2.9113212739204707E9 ; 1.57010141808971E11 ; 0.0
139 ; 2.0127130975797005E7 ; 1.21242497172189E9 ; 2.9314974363269033E9 ; 1.582225036397242E11 ; 0.0
140 ; 2.007432218628264E7 ; 1.2124880007128944E9 ; 2.9516245673027005E9 ; 1.594349286114461E11 ; 0.0
141 ; 2.002200632778253E7 ; 1.2125509149379427E9 ; 2.971698889488983E9 ; 1.60647416612159E11 ; 0.0
142 ; 1.997434279835232E7 ; 1.2126137116507604E9 ; 2.991720895816766E9 ; 1.6185996752709695E11 ; 0.0
143 ; 1.9917683541327555E7 ; 1.2126763881459305E9 ; 3.011695238615118E9 ; 1.630725812387477E11 ; 0.0
144 ; 1.986529358356351E7 ; 1.2127389417577848E9 ; 3.0316129221564455E9 ; 1.6428525762689365E11 ; 0.0
145 ; 1.982752112876921E7 ; 1.212801369859337E9 ; 3.051478215740009E9 ; 1.6549799656865143E11 ; 0.0
146 ; 1.9797412844748322E7 ; 1.2128636698612509E9 ; 3.071305736868778E9 ; 1.6671079793851077E11 ; 0.0
147 ; 1.976395328858905E7 ; 1.2129258392108464E9 ; 3.0911031497135267E9 ; 1.67923661608372E11 ; 0.0
148 ; 1.972467067066028E7 ; 1.212987875391139E9 ; 3.1108671030021157E9 ; 1.6913658744758286E11 ; 0.0
149 ; 1.9694302160629034E7 ; 1.2130497759199166E9 ; 3.130591773672776E9 ; 1.70349575322974E11 ; 0.0
150 ; 1.965207860324534E7 ; 1.2131115383488426E9 ; 3.1502860758334055E9 ; 1.7156262509889392E11 ; 0.0
151 ; 1.9619551473221976E7 ; 1.213173160262596E9 ; 3.1699381544366508E9 ; 1.7277573663724277E11 ; 0.0
152 ; 1.95846445974546E7 ; 1.2132346392780375E9 ; 3.1895577059098725E9 ; 1.7398890979750537E11 ; 0.0
153 ; 1.9545964317013737E7 ; 1.213295973043407E9 ; 3.209142350507327E9 ; 1.7520214443678342E11 ; 0.0
154 ; 1.95094321394054E7 ; 1.213357159237547E9 ; 3.228688314824341E9 ; 1.764154404098268E11 ; 0.0
155 ; 1.9477597293053355E7 ; 1.213418195569152E9 ; 3.248197746963746E9 ; 1.7762879756906436E11 ; 0.0
156 ; 1.9439482519785784E7 ; 1.213479079776049E9 ; 3.267675344256799E9 ; 1.788422157646335E11 ; 0.0
157 ; 1.940118759079078E7 ; 1.2135398096244931E9 ; 3.287114826776585E9 ; 1.8005569484440958E11 ; 0.0
158 ; 1.9363573463675786E7 ; 1.2136003829084983E9 ; 3.306516014367376E9 ; 1.8126923465403406E11 ; 0.0
159 ; 1.932459224541961E7 ; 1.2136607974491808E9 ; 3.325879587831052E9 ; 1.8248283503694257E11 ; 0.0
160 ; 1.9289071695077315E7 ; 1.2137210510941317E9 ; 3.3452041800764713E9 ; 1.8369649583439175E11 ; 0.0
161 ; 1.925552230752198E7 ; 1.213781141716808E9 ; 3.3644932517715487E9 ; 1.849102168854859E11 ; 0.0
162 ; 1.921510238277873E7 ; 1.2138410672159443E9 ; 3.3837487740790706E9 ; 1.861239980272027E11 ; 0.0
163 ; 1.917286741027214E7 ; 1.2139008255149832E9 ; 3.402963876461849E9 ; 1.8733783909441864E11 ; 0.0
164 ; 1.914817057879142E7 ; 1.2139604145615292E9 ; 3.4221367438721213E9 ; 1.8855173991993362E11 ; 0.0
165 ; 1.9111665386675656E7 ; 1.2140198323268144E9 ; 3.441284914450913E9 ; 1.8976570033449515E11 ; 0.0
166 ; 1.9066179346232068E7 ; 1.2140790768051872E9 ; 3.460396579837589E9 ; 1.9097972016682196E11 ; 0.0
167 ; 1.9035127366459206E7 ; 1.2141381460136151E9 ; 3.4794627591838207E9 ; 1.9219379924362714E11 ; 0.0
168 ; 1.8990450168333653E7 ; 1.2141970379912064E9 ; 3.49849788655028E9 ; 1.9340793738964075E11 ; 0.0
169 ; 1.8956473896302573E7 ; 1.2142557507987442E9 ; 3.5174883367186136E9 ; 1.9462213442763196E11 ; 0.0
170 ; 1.8912128108465184E7 ; 1.2143142825182397E9 ; 3.5364448106149163E9 ; 1.958363901784307E11 ; 0.0
171 ; 1.8881927809990358E7 ; 1.2143726312524974E9 ; 3.5553569387233815E9 ; 1.9705070446094894E11 ; 0.0
172 ; 1.8842993007310808E7 ; 1.2144307951246953E9 ; 3.574238866533372E9 ; 1.9826507709220145E11 ; 0.0
173 ; 1.8806981073922936E7 ; 1.2144887722779794E9 ; 3.593081859540683E9 ; 1.9947950788732614E11 ; 0.0
174 ; 1.8779506656372353E7 ; 1.2145465608750708E9 ; 3.611888840614606E9 ; 2.0069399665960413E11 ; 0.0
175 ; 1.875285357699487E7 ; 1.2146041590978854E9 ; 3.6306683472709785E9 ; 2.019085432204792E11 ; 0.0
176 ; 1.872115419090438E7 ; 1.214661565147167E9 ; 3.6494212008479733E9 ; 2.031231473795771E11 ; 0.0
177 ; 1.8685750292085767E7 ; 1.2147187772421308E9 ; 3.6681423550388775E9 ; 2.0433780894472424E11 ; 0.0
178 ; 1.8653640911748923E7 ; 1.2147757936201196E9 ; 3.686828105330963E9 ; 2.0555252772196637E11 ; 0.0
179 ; 1.8628389534457047E7 ; 1.2148326125362701E9 ; 3.705481746242712E9 ; 2.067673035155865E11 ; 0.0
180 ; 1.859872010609275E7 ; 1.2148892322631912E9 ; 3.724110135777169E9 ; 2.0798213612812274E11 ; 0.0
181 ; 1.8567552573383134E7 ; 1.2149456510906506E9 ; 3.742708855883262E9 ; 2.0919702536038593E11 ; 0.0
182 ; 1.8543655721272174E7 ; 1.2150018673252733E9 ; 3.7612764084566455E9 ; 2.1041197101147656E11 ; 0.0
183 ; 1.850891234417169E7 ; 1.2150578792902493E9 ; 3.7798200641779175E9 ; 2.1162697287880185E11 ; 0.0
184 ; 1.847809141647456E7 ; 1.2151136853250499E9 ; 3.798328976522089E9 ; 2.128420307580921E11 ; 0.0
185 ; 1.8456346621447034E7 ; 1.2151692837851524E9 ; 3.8168070679385633E9 ; 2.1405714444341714E11 ; 0.0
186 ; 1.8418998872918546E7 ; 1.2152246730417762E9 ; 3.8352634145600104E9 ; 2.152723137272023E11 ; 0.0
187 ; 1.8387918420777816E7 ; 1.2152798514816246E9 ; 3.853682413432929E9 ; 2.1648753840024408E11 ; 0.0
188 ; 1.835745538987521E7 ; 1.2153348175066352E9 ; 3.872070331853707E9 ; 2.177028182517257E11 ; 0.0
189 ; 1.832505081541865E7 ; 1.215389569533739E9 ; 3.8904277872435822E9 ; 2.1891815306923233E11 ; 0.0
190 ; 1.829953895059008E7 ; 1.2154441059946272E9 ; 3.908752838059001E9 ; 2.2013354263876608E11 ; 0.0
191 ; 1.8271390097525522E7 ; 1.2154984253355238E9 ; 3.927052377009591E9 ; 2.213489867447607E11 ; 0.0
192 ; 1.8240036043915953E7 ; 1.2155525260169663E9 ; 3.9453237671071167E9 ; 2.2256448517009622E11 ; 0.0
193 ; 1.8208980381344218E7 ; 1.2156064065135932E9 ; 3.9635638031510324E9 ; 2.237800376961132E11 ; 0.0
194 ; 1.817993864325068E7 ; 1.215660065313939E9 ; 3.981772783532377E9 ; 2.2499564410262677E11 ; 0.0
195 ; 1.8154353442144364E7 ; 1.2157135009202325E9 ; 3.999952722175627E9 ; 2.262113041679407E11 ; 0.0
