CSV File for the Network on Day 209
1 - Minute m 
2 - Power Consumed at minute m 
3 - Power Produced at minute m 
4 - Energy Consumed since the beginning of the day 
5 - Energy Produced since the beginning of the day 
6 - Energy Lost since the beginning of the day 
 
0 ; 2578943.4805816277 ; 6.33021525986435E8 ; 0.0 ; 0.0 ; 0.0
1 ; 2618236.6073097447 ; 6.339270533707097E8 ; 2578943.4805816277 ; 6.33021525986435E8 ; 0.0
2 ; 2670614.596375823 ; 6.366864005276781E8 ; 5197180.087891372 ; 1.2669485793571448E9 ; 0.0
3 ; 2717829.915559414 ; 6.412996233326293E8 ; 7867794.684267195 ; 1.9036349798848228E9 ; 0.0
4 ; 2780851.9287353302 ; 6.477667732599711E8 ; 1.0585624599826608E7 ; 2.544934603217452E9 ; 0.0
5 ; 2857896.4839223633 ; 6.560878966655412E8 ; 1.3366476528561939E7 ; 3.192701376477423E9 ; 0.0
6 ; 2953405.3239727668 ; 6.66263034104265E8 ; 1.62243730124843E7 ; 3.8487892731429644E9 ; 0.0
7 ; 3086055.5023343377 ; 6.78292219704832E8 ; 1.9177778336457066E7 ; 4.51505230724723E9 ; 0.0
8 ; 3279743.263208073 ; 6.921754806227152E8 ; 2.2263833838791404E7 ; 5.193344526952062E9 ; 0.0
9 ; 3567483.6376458243 ; 7.079128365912814E8 ; 2.5543577101999477E7 ; 5.885520007574777E9 ; 0.0
10 ; 3999861.397442721 ; 7.255042995879341E8 ; 2.9111060739645302E7 ; 6.593432844166058E9 ; 0.0
11 ; 4702194.305463085 ; 7.449498736283187E8 ; 3.3110922137088023E7 ; 7.318937143753992E9 ; 0.0
12 ; 5814122.735821301 ; 7.662495546967895E8 ; 3.7813116442551106E7 ; 8.063887017382311E9 ; 0.0
13 ; 6878104.66505387 ; 7.89403330815943E8 ; 4.3627239178372405E7 ; 8.8301365720791E9 ; 0.0
14 ; 7011046.558389547 ; 8.144111822524133E8 ; 5.050534384342627E7 ; 9.619539902895042E9 ; 0.0
15 ; 7072025.773387161 ; 8.412730818507264E8 ; 5.751639040181582E7 ; 1.0433951085147455E10 ; 0.0
16 ; 7125064.167745346 ; 8.699889954821935E8 ; 6.458841617520298E7 ; 1.1275224166998182E10 ; 0.0
17 ; 7183099.5885900315 ; 9.005588825918885E8 ; 7.171348034294833E7 ; 1.2145213162480375E10 ; 0.0
18 ; 7234736.121201042 ; 9.329826968239744E8 ; 7.889657993153836E7 ; 1.3045772045072264E10 ; 0.0
19 ; 7295247.375215888 ; 9.672603867040429E8 ; 8.61313160527394E7 ; 1.3978754741896238E10 ; 0.0
20 ; 7354074.279925271 ; 1.0033918963568052E9 ; 9.342656342795528E7 ; 1.494601512860028E10 ; 0.0
21 ; 7410088.113961579 ; 1.0413771662382172E9 ; 1.0078063770788056E8 ; 1.5949407024957087E10 ; 0.0
22 ; 7473507.918426344 ; 1.0812161338628302E9 ; 1.0819072582184213E8 ; 1.6990784191195303E10 ; 0.0
23 ; 7528906.732549636 ; 1.1229087345095496E9 ; 1.1566423374026848E8 ; 1.8072000325058132E10 ; 0.0
24 ; 7582353.83099093 ; 1.166454901891838E9 ; 1.2319314047281812E8 ; 1.919490905956768E10 ; 0.0
25 ; 7646818.462431455 ; 1.2039828141705503E9 ; 1.3077549430380905E8 ; 2.036136396145952E10 ; 0.0
26 ; 7701870.501982449 ; 1.2040136907447183E9 ; 1.384223127662405E8 ; 2.156534677563007E10 ; 0.0
27 ; 7758094.996064575 ; 1.204046079911085E9 ; 1.4612418326822296E8 ; 2.2769360466374786E10 ; 0.0
28 ; 7814261.19519862 ; 1.204079914793154E9 ; 1.5388227826428753E8 ; 2.397340654628587E10 ; 0.0
29 ; 7866934.012221721 ; 1.2041151294872005E9 ; 1.6169653945948616E8 ; 2.5177486461079025E10 ; 0.0
30 ; 7921962.735922731 ; 1.2041516593885329E9 ; 1.6956347347170788E8 ; 2.6381601590566227E10 ; 0.0
31 ; 7977871.523127411 ; 1.2041894414604762E9 ; 1.774854362076306E8 ; 2.758575324995476E10 ; 0.0
32 ; 8029030.243576548 ; 1.2042284144500618E9 ; 1.85463307730758E8 ; 2.8789942691415237E10 ; 0.0
33 ; 8085943.322219232 ; 1.2042685190550673E9 ; 1.9349233797433457E8 ; 2.99941711058653E10 ; 0.0
34 ; 8135811.441466596 ; 1.2043096980473948E9 ; 2.015782812965538E8 ; 3.119843962492037E10 ; 0.0
35 ; 8182397.296806287 ; 1.2043518963579037E9 ; 2.097140927380204E8 ; 3.2402749322967762E10 ; 0.0
36 ; 8233196.366481774 ; 1.2043950611277237E9 ; 2.1789649003482667E8 ; 3.3607101219325665E10 ; 0.0
37 ; 8281766.68145338 ; 1.2044391417308712E9 ; 2.2612968640130845E8 ; 3.4811496280453384E10 ; 0.0
38 ; 8326340.535250053 ; 1.2044840897726696E9 ; 2.3441145308276182E8 ; 3.601593542218426E10 ; 0.0
39 ; 8372840.746054627 ; 1.2045298590681102E9 ; 2.427377936180119E8 ; 3.7220419511956924E10 ; 0.0
40 ; 8418885.812723061 ; 1.204576405603878E9 ; 2.511106343640665E8 ; 3.842494937102503E10 ; 0.0
41 ; 8461309.074364929 ; 1.2046236874873471E9 ; 2.5952952017678958E8 ; 3.962952577662891E10 ; 0.0
42 ; 8496953.637275217 ; 1.2046716648854566E9 ; 2.679908292511545E8 ; 4.083414946411626E10 ; 0.0
43 ; 8540931.237767922 ; 1.2047202999559684E9 ; 2.764877828884297E8 ; 4.203882112900172E10 ; 0.0
44 ; 8577543.95110908 ; 1.2047695567732592E9 ; 2.8502871412619764E8 ; 4.324354142895769E10 ; 0.0
45 ; 8611046.635022301 ; 1.2048194012504601E9 ; 2.936062580773067E8 ; 4.444831098573095E10 ; 0.0
46 ; 8643768.634748405 ; 1.2048698010594594E9 ; 3.02217304712329E8 ; 4.565313038698141E10 ; 0.0
47 ; 8673628.7980125 ; 1.2049207255500166E9 ; 3.1086107334707737E8 ; 4.685800018804086E10 ; 0.0
48 ; 8706774.525722126 ; 1.2049721456690106E9 ; 3.1953470214508986E8 ; 4.806292091359088E10 ; 0.0
49 ; 8729084.612359295 ; 1.2050240338806317E9 ; 3.28241476670812E8 ; 4.9267893059259895E10 ; 0.0
50 ; 8755977.940246515 ; 1.2050763640881646E9 ; 3.369705612831713E8 ; 5.0472917093140526E10 ; 0.0
51 ; 8774497.889433559 ; 1.2051291115578537E9 ; 3.457265392234178E8 ; 5.167799345722869E10 ; 0.0
52 ; 8804754.46000648 ; 1.205182252845225E9 ; 3.545010371128514E8 ; 5.2883122568786545E10 ; 0.0
53 ; 8826029.325288275 ; 1.2052357657241266E9 ; 3.6330579157285786E8 ; 5.408830482163177E10 ; 0.0
54 ; 8851428.30702744 ; 1.2052896291186757E9 ; 3.7213182089814615E8 ; 5.5293540587355896E10 ; 0.0
55 ; 8874309.44791248 ; 1.2053438230382166E9 ; 3.809832492051736E8 ; 5.649883021647457E10 ; 0.0
56 ; 8899644.317244967 ; 1.2053983285153444E9 ; 3.8985755865308607E8 ; 5.770417403951279E10 ; 0.0
57 ; 8917573.423621794 ; 1.2054531275470042E9 ; 3.98757202970331E8 ; 5.890957236802813E10 ; 0.0
58 ; 8940324.281187698 ; 1.2055082030386353E9 ; 4.076747763939528E8 ; 6.0115025495575134E10 ; 0.0
59 ; 8966661.216664135 ; 1.2055635387513015E9 ; 4.166151006751405E8 ; 6.132053369861377E10 ; 0.0
60 ; 8992990.387844875 ; 1.2056191192517328E9 ; 4.2558176189180464E8 ; 6.2526097237365074E10 ; 0.0
61 ; 9006484.004526345 ; 1.205674929865182E9 ; 4.345747522796495E8 ; 6.3731716356616806E10 ; 0.0
62 ; 9030502.626892708 ; 1.2057309566309886E9 ; 4.435812362841758E8 ; 6.493739128648199E10 ; 0.0
63 ; 9050413.673427012 ; 1.2057871862607398E9 ; 4.526117389110685E8 ; 6.6143122243112976E10 ; 0.0
64 ; 9078061.09336019 ; 1.205843606098908E9 ; 4.616621525844955E8 ; 6.734890942937372E10 ; 0.0
65 ; 9095961.796315573 ; 1.2059002040858448E9 ; 4.707402136778557E8 ; 6.8554753035472626E10 ; 0.0
66 ; 9115670.543047087 ; 1.2059569687230115E9 ; 4.798361754741712E8 ; 6.976065323955847E10 ; 0.0
67 ; 9131856.564385816 ; 1.206013889040327E9 ; 4.889518460172183E8 ; 7.096661020828148E10 ; 0.0
68 ; 9148877.87843898 ; 1.206070954565513E9 ; 4.980837025816041E8 ; 7.217262409732181E10 ; 0.0
69 ; 9170139.029516239 ; 1.2061281552953262E9 ; 5.072325804600431E8 ; 7.337869505188731E10 ; 0.0
70 ; 9189996.852255888 ; 1.2061854816685658E9 ; 5.164027194895593E8 ; 7.458482320718265E10 ; 0.0
71 ; 9207378.414754204 ; 1.2062429245407503E9 ; 5.255927163418152E8 ; 7.579100868885121E10 ; 0.0
72 ; 9233755.079282958 ; 1.2063004751603634E9 ; 5.348000947565694E8 ; 7.699725161339197E10 ; 0.0
73 ; 9247007.039193679 ; 1.2063581251465712E9 ; 5.440338498358524E8 ; 7.820355208855234E10 ; 0.0
74 ; 9258081.471852273 ; 1.2064158664683218E9 ; 5.53280856875046E8 ; 7.940991021369891E10 ; 0.0
75 ; 9282271.419623286 ; 1.2064736914247363E9 ; 5.625389383468983E8 ; 8.061632608016724E10 ; 0.0
76 ; 9299660.490433427 ; 1.2065315926267161E9 ; 5.718212097665216E8 ; 8.182279977159198E10 ; 0.0
77 ; 9312262.68462488 ; 1.2065895629796808E9 ; 5.81120870256955E8 ; 8.302933136421869E10 ; 0.0
78 ; 9316996.567046652 ; 1.2066475956673725E9 ; 5.904331329415799E8 ; 8.423592092719836E10 ; 0.0
79 ; 9324068.181926917 ; 1.2067056841366525E9 ; 5.997501295086266E8 ; 8.544256852286574E10 ; 0.0
80 ; 9329376.195536803 ; 1.2067638220832276E9 ; 6.090741976905535E8 ; 8.66492742070024E10 ; 0.0
81 ; 9324827.530157492 ; 1.2068220034382496E9 ; 6.184035738860904E8 ; 8.785603802908562E10 ; 0.0
82 ; 9331371.065007646 ; 1.206880222355725E9 ; 6.277284014162478E8 ; 8.906286003252386E10 ; 0.0
83 ; 9337967.273938872 ; 1.2069384732006896E9 ; 6.370597724812555E8 ; 9.02697402548796E10 ; 0.0
84 ; 9338191.775684182 ; 1.2069967505380926E9 ; 6.463977397551944E8 ; 9.147667872808028E10 ; 0.0
85 ; 9337722.092749067 ; 1.2070550491223493E9 ; 6.557359315308787E8 ; 9.268367547861836E10 ; 0.0
86 ; 9339462.081612859 ; 1.2071133638875155E9 ; 6.650736536236278E8 ; 9.38907305277407E10 ; 0.0
87 ; 9346919.72415995 ; 1.2071716899380457E9 ; 6.744131157052406E8 ; 9.509784389162822E10 ; 0.0
88 ; 9342689.145327237 ; 1.2072300225400968E9 ; 6.837600354294006E8 ; 9.630501558156627E10 ; 0.0
89 ; 9346818.681338066 ; 1.207288357113343E9 ; 6.931027245747278E8 ; 9.751224560410637E10 ; 0.0
90 ; 9346416.841070432 ; 1.2073466892232683E9 ; 7.024495432560658E8 ; 9.871953396121971E10 ; 0.0
91 ; 9351063.779278941 ; 1.2074050145739074E9 ; 7.117959600971363E8 ; 9.992688065044298E10 ; 0.0
92 ; 9346401.561871538 ; 1.2074633290010056E9 ; 7.211470238764153E8 ; 1.0113428566501689E11 ; 0.0
93 ; 9342634.025865331 ; 1.2075216284655702E9 ; 7.304934254382868E8 ; 1.023417489940179E11 ; 0.0
94 ; 9342341.178039104 ; 1.207579909047793E9 ; 7.398360594641521E8 ; 1.0354927062248347E11 ; 0.0
95 ; 9343817.106405018 ; 1.207638166941314E9 ; 7.491784006421912E8 ; 1.0475685053153127E11 ; 0.0
96 ; 9343691.247873142 ; 1.2076963984478126E9 ; 7.585222177485962E8 ; 1.0596448869847258E11 ; 0.0
97 ; 9343991.813774373 ; 1.2077545999718978E9 ; 7.678659089964694E8 ; 1.071721850969204E11 ; 0.0
98 ; 9338470.53331868 ; 1.2078127680162878E9 ; 7.772099008102437E8 ; 1.0837993969689229E11 ; 0.0
99 ; 9340511.120930545 ; 1.2078708991772523E9 ; 7.865483713435624E8 ; 1.0958775246490857E11 ; 0.0
100 ; 9331770.279258665 ; 1.207928990140307E9 ; 7.958888824644929E8 ; 1.1079562336408582E11 ; 0.0
101 ; 9330650.297933891 ; 1.2079870376761458E9 ; 8.052206527437515E8 ; 1.1200355235422612E11 ; 0.0
102 ; 9328196.196168445 ; 1.2080450386367915E9 ; 8.145513030416855E8 ; 1.1321153939190227E11 ; 0.0
103 ; 9322338.62456569 ; 1.2081029899519544E9 ; 8.238794992378539E8 ; 1.1441958443053906E11 ; 0.0
104 ; 9326315.304562412 ; 1.208160888625588E9 ; 8.332018378624196E8 ; 1.1562768742049101E11 ; 0.0
105 ; 9317075.214294001 ; 1.2082187317326267E9 ; 8.42528153166982E8 ; 1.1683584830911661E11 ; 0.0
106 ; 9314705.973113028 ; 1.2082765164158978E9 ; 8.51845228381276E8 ; 1.1804406704084923E11 ; 0.0
107 ; 9309745.058218308 ; 1.208334239883195E9 ; 8.611599343543891E8 ; 1.1925234355726512E11 ; 0.0
108 ; 9306532.818517517 ; 1.2083918994045057E9 ; 8.704696794126074E8 ; 1.2046067779714832E11 ; 0.0
109 ; 9293952.578632422 ; 1.208449492309382E9 ; 8.79776212231125E8 ; 1.2166906969655283E11 ; 0.0
110 ; 9299255.380897759 ; 1.208507015984448E9 ; 8.890701648097575E8 ; 1.2287751918886221E11 ; 0.0
111 ; 9291923.562210845 ; 1.2085644678710341E9 ; 8.983694201906552E8 ; 1.2408602620484666E11 ; 0.0
112 ; 9284124.036924893 ; 1.2086218454629343E9 ; 9.07661343752866E8 ; 1.252945906727177E11 ; 0.0
113 ; 9283011.736684326 ; 1.2086791463042736E9 ; 9.169454677897909E8 ; 1.2650321251818063E11 ; 0.0
114 ; 9271535.466477256 ; 1.208736367987487E9 ; 9.262284795264752E8 ; 1.2771189166448491E11 ; 0.0
115 ; 9266063.295781167 ; 1.2087935081513963E9 ; 9.355000149929525E8 ; 1.289206280324724E11 ; 0.0
116 ; 9258594.350820685 ; 1.2088505644793835E9 ; 9.447660782887336E8 ; 1.301294215406238E11 ; 0.0
117 ; 9248640.0320537 ; 1.2089075346976562E9 ; 9.540246726395543E8 ; 1.3133827210510318E11 ; 0.0
118 ; 9241048.877459621 ; 1.2089644165735965E9 ; 9.63273312671608E8 ; 1.3254717963980084E11 ; 0.0
119 ; 9237063.881743034 ; 1.2090212079141908E9 ; 9.725143615490676E8 ; 1.3375614405637444E11 ; 0.0
120 ; 9228312.286654377 ; 1.209077906564537E9 ; 9.817514254308107E8 ; 1.3496516526428862E11 ; 0.0
121 ; 9221634.958324363 ; 1.209134510406421E9 ; 9.90979737717465E8 ; 1.3617424317085315E11 ; 0.0
122 ; 9211237.15958022 ; 1.2091910173569658E9 ; 1.0002013726757894E9 ; 1.3738337768125957E11 ; 0.0
123 ; 9203283.777605603 ; 1.2092474253673413E9 ; 1.0094126098353696E9 ; 1.3859256869861655E11 ; 0.0
124 ; 9192155.329995923 ; 1.209303732421536E9 ; 1.0186158936129752E9 ; 1.398018161239839E11 ; 0.0
125 ; 9183589.455839032 ; 1.2093599365351892E9 ; 1.0278080489429711E9 ; 1.4101111985640543E11 ; 0.0
126 ; 9170196.9802704 ; 1.2094160357544732E9 ; 1.0369916383988101E9 ; 1.422204797929406E11 ; 0.0
127 ; 9161793.436675057 ; 1.209472028155033E9 ; 1.0461618353790805E9 ; 1.434298958286951E11 ; 0.0
128 ; 9155131.582443789 ; 1.209527911840971E9 ; 1.0553236288157556E9 ; 1.4463936785685013E11 ; 0.0
129 ; 9143350.979364892 ; 1.2095836849438796E9 ; 1.0644787603981994E9 ; 1.458488957686911E11 ; 0.0
130 ; 9125164.644162275 ; 1.2096393456219192E9 ; 1.0736221113775643E9 ; 1.4705847945363498E11 ; 0.0
131 ; 9102866.166756991 ; 1.209694892058937E9 ; 1.0827472760217266E9 ; 1.482681187992569E11 ; 0.0
132 ; 9080079.017540578 ; 1.2097503224636266E9 ; 1.0918501421884837E9 ; 1.4947781369131583E11 ; 0.0
133 ; 9053220.420549959 ; 1.2098056350687242E9 ; 1.1009302212060244E9 ; 1.5068756401377945E11 ; 0.0
134 ; 9029115.006959083 ; 1.2098608281302423E9 ; 1.1099834416265743E9 ; 1.5189736964884818E11 ; 0.0
135 ; 9007869.144550856 ; 1.209915899926736E9 ; 1.1190125566335335E9 ; 1.5310723047697842E11 ; 0.0
136 ; 8976729.04588291 ; 1.2099708487586045E9 ; 1.1280204257780843E9 ; 1.5431714637690515E11 ; 0.0
137 ; 8952782.168086456 ; 1.2100256729474192E9 ; 1.1369971548239672E9 ; 1.5552711722566376E11 ; 0.0
138 ; 8922521.938866138 ; 1.2100803708352854E9 ; 1.1459499369920537E9 ; 1.5673714289861118E11 ; 0.0
139 ; 8904374.444094077 ; 1.2101349407842298E9 ; 1.15487245893092E9 ; 1.5794722326944647E11 ; 0.0
140 ; 8869892.604610978 ; 1.210189381175614E9 ; 1.163776833375014E9 ; 1.591573582102307E11 ; 0.0
141 ; 8843714.218508102 ; 1.2102436904095767E9 ; 1.172646725979625E9 ; 1.6036754759140634E11 ; 0.0
142 ; 8821238.203869788 ; 1.2102978669044938E9 ; 1.181490440198133E9 ; 1.6157779128181592E11 ; 0.0
143 ; 8797775.293079555 ; 1.210351909096469E9 ; 1.1903116784020028E9 ; 1.627880891487204E11 ; 0.0
144 ; 8769390.604177123 ; 1.2104058154388402E9 ; 1.1991094536950824E9 ; 1.6399844105781686E11 ; 0.0
145 ; 8757940.082443684 ; 1.2104595844017096E9 ; 1.2078788442992597E9 ; 1.652088468732557E11 ; 0.0
146 ; 8738121.905581044 ; 1.2105132144714932E9 ; 1.2166367843817034E9 ; 1.664193064576574E11 ; 0.0
147 ; 8731347.942567669 ; 1.2105667041504889E9 ; 1.2253749062872844E9 ; 1.676298196721289E11 ; 0.0
148 ; 8725269.618659439 ; 1.210620051956463E9 ; 1.234106254229852E9 ; 1.688403863762794E11 ; 0.0
149 ; 8712737.832585175 ; 1.210673256422254E9 ; 1.2428315238485115E9 ; 1.7005100642823584E11 ; 0.0
150 ; 8702221.094655592 ; 1.2107263160953922E9 ; 1.2515442616810966E9 ; 1.7126167968465808E11 ; 0.0
151 ; 8690783.544046523 ; 1.210779229537735E9 ; 1.260246482775752E9 ; 1.7247240600075348E11 ; 0.0
152 ; 8678073.35726457 ; 1.2108319953251188E9 ; 1.2689372663197987E9 ; 1.736831852302912E11 ; 0.0
153 ; 8661179.731273293 ; 1.210884612047023E9 ; 1.2776153396770632E9 ; 1.748940172256163E11 ; 0.0
154 ; 8653963.98683823 ; 1.2109370783062491E9 ; 1.2862765194083366E9 ; 1.7610490183766333E11 ; 0.0
155 ; 8643629.785182435 ; 1.2109893927186117E9 ; 1.294930483395175E9 ; 1.7731583891596957E11 ; 0.0
156 ; 8633367.705576506 ; 1.2110415539126444E9 ; 1.3035741131803575E9 ; 1.7852682830868817E11 ; 0.0
157 ; 8621775.10182501 ; 1.211093560529313E9 ; 1.3122074808859339E9 ; 1.7973786986260083E11 ; 0.0
158 ; 8612460.74544651 ; 1.211145411221747E9 ; 1.3208292559877589E9 ; 1.8094896342313016E11 ; 0.0
159 ; 8600089.711810172 ; 1.211197104654973E9 ; 1.3294417167332053E9 ; 1.821601088343519E11 ; 0.0
160 ; 8584799.148569807 ; 1.2112486395056689E9 ; 1.3380418064450154E9 ; 1.8337130593900687E11 ; 0.0
161 ; 8573081.758746687 ; 1.2113000144619188E9 ; 1.3466266055935853E9 ; 1.8458255457851254E11 ; 0.0
162 ; 8569897.073433034 ; 1.2113512282229822E9 ; 1.3551996873523319E9 ; 1.8579385459297446E11 ; 0.0
163 ; 8551076.766405325 ; 1.2114022794990733E9 ; 1.3637695844257648E9 ; 1.8700520582119745E11 ; 0.0
164 ; 8540390.845961079 ; 1.2114531670111456E9 ; 1.3723206611921701E9 ; 1.8821660810069653E11 ; 0.0
165 ; 8530840.781188346 ; 1.2115038894906862E9 ; 1.3808610520381312E9 ; 1.8942806126770767E11 ; 0.0
166 ; 8519391.324149095 ; 1.2115544456795208E9 ; 1.3893918928193195E9 ; 1.9063956515719836E11 ; 0.0
167 ; 8502647.954716612 ; 1.2116048343296216E9 ; 1.3979112841434686E9 ; 1.918511196028779E11 ; 0.0
168 ; 8491374.278493399 ; 1.2116550542029262E9 ; 1.4064139320981853E9 ; 1.9306272443720752E11 ; 0.0
169 ; 8482817.43150143 ; 1.2117051040711627E9 ; 1.4149053063766787E9 ; 1.9427437949141043E11 ; 0.0
170 ; 8469227.869419232 ; 1.2117549827156816E9 ; 1.42338812380818E9 ; 1.954860845954816E11 ; 0.0
171 ; 8452162.266708648 ; 1.2118046889272919E9 ; 1.4318573516775994E9 ; 1.9669783957819727E11 ; 0.0
172 ; 8446235.014817087 ; 1.2118542215061083E9 ; 1.440309513944308E9 ; 1.9790964426712457E11 ; 0.0
173 ; 8435183.930073004 ; 1.2119035792614005E9 ; 1.448755748959125E9 ; 1.9912149848863068E11 ; 0.0
174 ; 8427954.004173005 ; 1.211952761011448E9 ; 1.457190932889198E9 ; 2.003334020678921E11 ; 0.0
175 ; 8417061.638656747 ; 1.212001765583403E9 ; 1.465618886893371E9 ; 2.0154535482890353E11 ; 0.0
176 ; 8405619.419832043 ; 1.2120505918131588E9 ; 1.474035948532028E9 ; 2.0275735659448694E11 ; 0.0
177 ; 8401322.798025608 ; 1.2120992385452178E9 ; 1.48244156795186E9 ; 2.039694071863001E11 ; 0.0
178 ; 8390406.440359883 ; 1.2121477046325724E9 ; 1.4908428907498856E9 ; 2.0518150642484534E11 ; 0.0
179 ; 8388531.128342322 ; 1.212195988936584E9 ; 1.4992332971902454E9 ; 2.063936541294779E11 ; 0.0
180 ; 8380040.0883296 ; 1.212244090326871E9 ; 1.5076218283185878E9 ; 2.076058501184145E11 ; 0.0
181 ; 8366036.569889151 ; 1.2122920076811972E9 ; 1.5160018684069173E9 ; 2.0881809420874136E11 ; 0.0
182 ; 8369718.854658059 ; 1.2123397398853674E9 ; 1.5243679049768064E9 ; 2.1003038621642255E11 ; 0.0
183 ; 8358616.583239963 ; 1.2123872858331268E9 ; 1.5327376238314645E9 ; 2.1124272595630792E11 ; 0.0
184 ; 8350699.832160135 ; 1.2124346444260612E9 ; 1.5410962404147046E9 ; 2.1245511324214105E11 ; 0.0
185 ; 8334163.496879293 ; 1.212481814573505E9 ; 1.5494469402468648E9 ; 2.136675478865671E11 ; 0.0
186 ; 8330990.234760238 ; 1.21252879519245E9 ; 1.5577811037437441E9 ; 2.1488002970114062E11 ; 0.0
187 ; 8323139.4172525555 ; 1.2125755852074587E9 ; 1.5661120939785044E9 ; 2.1609255849633307E11 ; 0.0
188 ; 8317329.036088379 ; 1.21262218355058E9 ; 1.574435233395757E9 ; 2.1730513408154053E11 ; 0.0
189 ; 8305845.4213473 ; 1.2126685891612701E9 ; 1.5827525624318454E9 ; 2.185177562650911E11 ; 0.0
190 ; 8297320.000159361 ; 1.2127148009863129E9 ; 1.5910584078531928E9 ; 2.1973042485425238E11 ; 0.0
191 ; 8287776.251375856 ; 1.212760817979748E9 ; 1.599355727853352E9 ; 2.209431396552387E11 ; 0.0
192 ; 8285741.39488421 ; 1.2128066391027958E9 ; 1.607643504104728E9 ; 2.2215590047321844E11 ; 0.0
193 ; 8278595.026281327 ; 1.212852263323792E9 ; 1.615929245499612E9 ; 2.2336870711232123E11 ; 0.0
194 ; 8270920.392228024 ; 1.212897689618119E9 ; 1.6242078405258934E9 ; 2.2458155937564502E11 ; 0.0
195 ; 8259243.880399493 ; 1.2129429169681418E9 ; 1.6324787609181216E9 ; 2.2579445706526315E11 ; 0.0
196 ; 8251929.296349399 ; 1.2129879443631477E9 ; 1.640738004798521E9 ; 2.270073999822313E11 ; 0.0
197 ; 8243240.424303157 ; 1.213032770799287E9 ; 1.6489899340948703E9 ; 2.2822038792659445E11 ; 0.0
198 ; 8235677.580075122 ; 1.2130773952795155E9 ; 1.6572331745191734E9 ; 2.2943342069739374E11 ; 0.0
199 ; 8228017.856513239 ; 1.2131218168135395E9 ; 1.6654688520992484E9 ; 2.3064649809267325E11 ; 0.0
200 ; 8219764.855960477 ; 1.2099900391634104E9 ; 1.6736968699557617E9 ; 2.318596199094868E11 ; 0.0
201 ; 8209710.638397145 ; 1.0935043619745634E9 ; 1.681916634811722E9 ; 2.330696099486502E11 ; 0.0
