CSV File for the Network on Day 194
1 - Minute m 
2 - Power Consumed at minute m 
3 - Power Produced at minute m 
4 - Energy Consumed since the beginning of the day 
5 - Energy Produced since the beginning of the day 
6 - Energy Lost since the beginning of the day 
 
0 ; 4708156.304220577 ; 6.33932591547278E8 ; 0.0 ; 0.0 ; 0.0
1 ; 4748065.989413032 ; 6.348419464967438E8 ; 4708156.304220577 ; 6.33932591547278E8 ; 0.0
2 ; 4791695.455359258 ; 6.37604814838841E8 ; 9456222.29363361 ; 1.2687745380440218E9 ; 0.0
3 ; 4846707.801218625 ; 6.422212231698842E8 ; 1.4247917748992868E7 ; 1.9063793528828628E9 ; 0.0
4 ; 4902778.461677119 ; 6.486911955259664E8 ; 1.9094625550211493E7 ; 2.548600576052747E9 ; 0.0
5 ; 4973581.490710199 ; 6.570147531836152E8 ; 2.3997404011888612E7 ; 3.1972917715787134E9 ; 0.0
6 ; 5066832.417255889 ; 6.671919144780747E8 ; 2.897098550259881E7 ; 3.8543065247623286E9 ; 0.0
7 ; 5197961.903102546 ; 6.792226946427208E8 ; 3.40378179198547E7 ; 4.521498439240403E9 ; 0.0
8 ; 5393866.328826415 ; 6.931071056728153E8 ; 3.923577982295725E7 ; 5.200721133883124E9 ; 0.0
9 ; 5668608.7269845335 ; 7.088451562164056E8 ; 4.462964615178366E7 ; 5.89382823955594E9 ; 0.0
10 ; 6106178.8848161725 ; 7.264368514946744E8 ; 5.029825487876819E7 ; 6.602673395772346E9 ; 0.0
11 ; 6803338.889307497 ; 7.458821932534429E8 ; 5.640443376358436E7 ; 7.32911024726702E9 ; 0.0
12 ; 7911672.728547355 ; 7.671811797468895E8 ; 6.320777265289186E7 ; 8.074992440520463E9 ; 0.0
13 ; 8975385.032141684 ; 7.903338057538319E8 ; 7.111944538143921E7 ; 8.842173620267353E9 ; 0.0
14 ; 9107359.756205777 ; 8.153400626262231E8 ; 8.00948304135809E7 ; 9.632507426021185E9 ; 0.0
15 ; 9160211.218305405 ; 8.421999383688002E8 ; 8.920219016978668E7 ; 1.0447847488647408E10 ; 0.0
16 ; 9208579.258455181 ; 8.709134177481886E8 ; 9.836240138809209E7 ; 1.1290047427016209E10 ; 0.0
17 ; 9269188.990786107 ; 9.014804824291434E8 ; 1.0757098064654727E8 ; 1.2160960844764397E10 ; 0.0
18 ; 9321699.295352727 ; 9.339011111351373E8 ; 1.1684016963733338E8 ; 1.306244132719354E10 ; 0.0
19 ; 9377248.250776336 ; 9.68175279830077E8 ; 1.261618689326861E8 ; 1.3996342438328678E10 ; 0.0
20 ; 9433099.019721214 ; 1.0043029619176482E9 ; 1.3553911718346244E8 ; 1.4964517718158754E10 ; 0.0
21 ; 9487362.601989403 ; 1.0422841284546151E9 ; 1.4497221620318365E8 ; 1.5968820680076403E10 ; 0.0
22 ; 9540536.414211018 ; 1.082118748374335E9 ; 1.5445957880517304E8 ; 1.7011104808531017E10 ; 0.0
23 ; 9590897.547155082 ; 1.123806788716797E9 ; 1.6400011521938404E8 ; 1.8093223556905354E10 ; 0.0
24 ; 9645797.271338165 ; 1.1673482148616364E9 ; 1.7359101276653913E8 ; 1.921703034562215E10 ; 0.0
25 ; 9706179.737207213 ; 1.2048712361499038E9 ; 1.832368100378773E8 ; 2.0384378560483788E10 ; 0.0
26 ; 9760282.477681 ; 1.2048971023347287E9 ; 1.929429897750845E8 ; 2.158924979663369E10 ; 0.0
27 ; 9812311.735244175 ; 1.2049243909539592E9 ; 2.027032722527655E8 ; 2.279414689896842E10 ; 0.0
28 ; 9873156.685279008 ; 1.2049530630256276E9 ; 2.125155839880097E8 ; 2.399907128992238E10 ; 0.0
29 ; 9918344.881228566 ; 1.204983079011935E9 ; 2.223887406732887E8 ; 2.5204024352948006E10 ; 0.0
30 ; 9975714.07110605 ; 1.2050143990119057E9 ; 2.3230708555451727E8 ; 2.640900743195994E10 ; 0.0
31 ; 1.002181306208282E7 ; 1.2050469829410179E9 ; 2.4228279962562332E8 ; 2.7614021830971848E10 ; 0.0
32 ; 1.007848584166678E7 ; 1.2050807906970057E9 ; 2.5230461268770614E8 ; 2.8819068813912865E10 ; 0.0
33 ; 1.0124545918410849E7 ; 1.2051157823113537E9 ; 2.6238309852937293E8 ; 3.002414960460987E10 ; 0.0
34 ; 1.017247191938324E7 ; 1.2051519180862966E9 ; 2.7250764444778377E8 ; 3.1229265386921227E10 ; 0.0
35 ; 1.0219036889964856E7 ; 1.2051891587173991E9 ; 2.82680116367167E8 ; 3.2434417305007523E10 ; 0.0
36 ; 1.0267390734156266E7 ; 1.2052274654020002E9 ; 2.928991532571319E8 ; 3.3639606463724922E10 ; 0.0
37 ; 1.0313762668773912E7 ; 1.2052667999339926E9 ; 3.031665439912881E8 ; 3.484483392912692E10 ; 0.0
38 ; 1.0348410810168257E7 ; 1.205307124785544E9 ; 3.13480306660062E8 ; 3.605010072906091E10 ; 0.0
39 ; 1.0395344287417468E7 ; 1.2053484031764812E9 ; 3.238287174702303E8 ; 3.725540785384646E10 ; 0.0
40 ; 1.0433254800535921E7 ; 1.205390599132133E9 ; 3.3422406175764775E8 ; 3.846075625702294E10 ; 0.0
41 ; 1.0478711923930425E7 ; 1.2054336775304704E9 ; 3.4465731655818367E8 ; 3.9666146856155075E10 ; 0.0
42 ; 1.051030444454711E7 ; 1.2054776041394238E9 ; 3.551360284821141E8 ; 4.087158053368555E10 ; 0.0
43 ; 1.0545868341056775E7 ; 1.2055223456452484E9 ; 3.656463329266612E8 ; 4.2077058137824974E10 ; 0.0
44 ; 1.058351355682092E7 ; 1.2055678696728022E9 ; 3.7619220126771796E8 ; 4.328258048347022E10 ; 0.0
45 ; 1.0619822932230167E7 ; 1.2056141447985845E9 ; 3.867757148245389E8 ; 4.448814835314303E10 ; 0.0
46 ; 1.0648887350935707E7 ; 1.205661140557334E9 ; 3.9739553775676906E8 ; 4.569376249794161E10 ; 0.0
47 ; 1.0672951973898359E7 ; 1.20570882744296E9 ; 4.0804442510770476E8 ; 4.689942363849895E10 ; 0.0
48 ; 1.070277115706626E7 ; 1.2057571769045188E9 ; 4.187173770816031E8 ; 4.810513246594191E10 ; 0.0
49 ; 1.0732854711227126E7 ; 1.205806161337906E9 ; 4.294201482386694E8 ; 4.931088964284643E10 ; 0.0
50 ; 1.074784272248645E7 ; 1.2058557540738788E9 ; 4.401530029498965E8 ; 5.051669580418433E10 ; 0.0
51 ; 1.0769457112794757E7 ; 1.2059059293629763E9 ; 4.5090084567238295E8 ; 5.172255155825821E10 ; 0.0
52 ; 1.0787884298116362E7 ; 1.2059566623578413E9 ; 4.616703027851777E8 ; 5.2928457487621185E10 ; 0.0
53 ; 1.0813055870102763E7 ; 1.2060079290934112E9 ; 4.724581870832941E8 ; 5.413441414997903E10 ; 0.0
54 ; 1.0831057793875067E7 ; 1.2060597064653902E9 ; 4.8327124295339686E8 ; 5.534042207907244E10 ; 0.0
55 ; 1.085475299698193E7 ; 1.206111972207371E9 ; 4.941023007472719E8 ; 5.6546481785537834E10 ; 0.0
56 ; 1.086880171253024E7 ; 1.2061647048669305E9 ; 5.049570537442538E8 ; 5.775259375774521E10 ; 0.0
57 ; 1.0890424120403599E7 ; 1.2062178837809892E9 ; 5.1582585545678407E8 ; 5.895875846261214E10 ; 0.0
58 ; 1.0905619269516436E7 ; 1.206271489050679E9 ; 5.2671627957718766E8 ; 6.016497634639313E10 ; 0.0
59 ; 1.09320973197277E7 ; 1.2063255015159445E9 ; 5.376218988467041E8 ; 6.137124783544381E10 ; 0.0
60 ; 1.0949189274676658E7 ; 1.20637990273006E9 ; 5.485539961664318E8 ; 6.2577573336959755E10 ; 0.0
61 ; 1.096670061755833E7 ; 1.2064346749342191E9 ; 5.595031854411085E8 ; 6.378395323968981E10 ; 0.0
62 ; 1.098268398781437E7 ; 1.206489801032342E9 ; 5.704698860586668E8 ; 6.499038791462403E10 ; 0.0
63 ; 1.1001756599058878E7 ; 1.2065452645662045E9 ; 5.814525700464813E8 ; 6.619687771565637E10 ; 0.0
64 ; 1.1015864377219336E7 ; 1.2066010496909904E9 ; 5.924543266455401E8 ; 6.740342298022258E10 ; 0.0
65 ; 1.1034993126002468E7 ; 1.2066571411513407E9 ; 6.034701910227594E8 ; 6.8610024029913574E10 ; 0.0
66 ; 1.1041605760210296E7 ; 1.2067135242579625E9 ; 6.145051841487619E8 ; 6.981668117106491E10 ; 0.0
67 ; 1.1067751934168596E7 ; 1.2067701848648486E9 ; 6.255467899089721E8 ; 7.102339469532288E10 ; 0.0
68 ; 1.108876255151989E7 ; 1.2068271093471444E9 ; 6.366145418431407E8 ; 7.223016488018773E10 ; 0.0
69 ; 1.110092980245611E7 ; 1.2068842845796866E9 ; 6.477033043946606E8 ; 7.343699198953487E10 ; 0.0
70 ; 1.1115738935341444E7 ; 1.206941697916241E9 ; 6.588042341971167E8 ; 7.464387627411455E10 ; 0.0
71 ; 1.1127243641392872E7 ; 1.206999337169441E9 ; 6.699199731324582E8 ; 7.585081797203079E10 ; 0.0
72 ; 1.1144497060605725E7 ; 1.2070571905914392E9 ; 6.81047216773851E8 ; 7.705781730920023E10 ; 0.0
73 ; 1.116250550350459E7 ; 1.2071152468552709E9 ; 6.921917138344568E8 ; 7.826487449979167E10 ; 0.0
74 ; 1.1176858051631685E7 ; 1.2071734950369215E9 ; 7.033542193379614E8 ; 7.947198974664694E10 ; 0.0
75 ; 1.1193515400176771E7 ; 1.207231924598095E9 ; 7.145310773895931E8 ; 8.067916324168387E10 ; 0.0
76 ; 1.1206425153999843E7 ; 1.2072905253696692E9 ; 7.257245927897699E8 ; 8.188639516628197E10 ; 0.0
77 ; 1.1210989725930132E7 ; 1.207349287535823E9 ; 7.369310179437697E8 ; 8.309368569165164E10 ; 0.0
78 ; 1.1217193515385335E7 ; 1.207408201618824E9 ; 7.481420076696998E8 ; 8.430103497918747E10 ; 0.0
79 ; 1.1218054973393228E7 ; 1.207467258464454E9 ; 7.593592011850852E8 ; 8.550844318080629E10 ; 0.0
80 ; 1.1217768956239883E7 ; 1.2075264492280588E9 ; 7.705772561584784E8 ; 8.671591043927074E10 ; 0.0
81 ; 1.121987250010598E7 ; 1.2075857653612008E9 ; 7.817950251147183E8 ; 8.79234368884988E10 ; 0.0
82 ; 1.1219975333442386E7 ; 1.2076451985988927E9 ; 7.930148976148243E8 ; 8.913102265386E10 ; 0.0
83 ; 1.1218586728277152E7 ; 1.2077047409473944E9 ; 8.042348729482666E8 ; 9.03386678524589E10 ; 0.0
84 ; 1.1215905330990478E7 ; 1.2077643846725543E9 ; 8.154534596765438E8 ; 9.154637259340628E10 ; 0.0
85 ; 1.1213615263421264E7 ; 1.2078241222886677E9 ; 8.266693650075343E8 ; 9.275413697807884E10 ; 0.0
86 ; 1.120637306997275E7 ; 1.2078839465478406E9 ; 8.378829802709556E8 ; 9.396196110036751E10 ; 0.0
87 ; 1.1207760915276997E7 ; 1.2079438504298315E9 ; 8.490893533409283E8 ; 9.516984504691534E10 ; 0.0
88 ; 1.1209979491977584E7 ; 1.2080038271323566E9 ; 8.602971142562053E8 ; 9.637778889734517E10 ; 0.0
89 ; 1.121037998469768E7 ; 1.2080638700618346E9 ; 8.715070937481829E8 ; 9.758579272447752E10 ; 0.0
90 ; 1.1199229409042131E7 ; 1.2081239728245566E9 ; 8.827174737328806E8 ; 9.879385659453935E10 ; 0.0
91 ; 1.1196537941029564E7 ; 1.2081841292182584E9 ; 8.939167031419227E8 ; 1.000019805673639E11 ; 0.0
92 ; 1.1191749616817858E7 ; 1.2082443332240813E9 ; 9.051132410829523E8 ; 1.0121016469658217E11 ; 0.0
93 ; 1.1183495638684126E7 ; 1.2083045789989002E9 ; 9.163049906997701E8 ; 1.0241840902980624E11 ; 0.0
94 ; 1.118362597941384E7 ; 1.2083648608680065E9 ; 9.274884863384542E8 ; 1.0362671360880515E11 ; 0.0
95 ; 1.1187075730016876E7 ; 1.208425173318125E9 ; 9.386721123178681E8 ; 1.0483507846967316E11 ; 0.0
96 ; 1.1177170280355094E7 ; 1.2084855109907541E9 ; 9.49859188047885E8 ; 1.0604350364299129E11 ; 0.0
97 ; 1.1165711506240396E7 ; 1.2085458686758103E9 ; 9.6103635832824E8 ; 1.0725198915398204E11 ; 0.0
98 ; 1.1160283426795185E7 ; 1.208606241305567E9 ; 9.722020698344804E8 ; 1.0846053502265785E11 ; 0.0
99 ; 1.1161683675551716E7 ; 1.2086666239488678E9 ; 9.833623532612755E8 ; 1.0966914126396342E11 ; 0.0
100 ; 1.1154202135203082E7 ; 1.2087270118056078E9 ; 9.945240369368273E8 ; 1.108778078879123E11 ; 0.0
101 ; 1.1143103721091108E7 ; 1.2087874002014666E9 ; 1.0056782390720304E9 ; 1.120865348997179E11 ; 0.0
102 ; 1.11378371203316E7 ; 1.208847784582882E9 ; 1.0168213427931216E9 ; 1.1329532229991936E11 ; 0.0
103 ; 1.1134294661496554E7 ; 1.2089081605122507E9 ; 1.0279591799134532E9 ; 1.1450417008450224E11 ; 0.0
104 ; 1.1121367946714595E7 ; 1.2089685236633518E9 ; 1.0390934745749497E9 ; 1.157130782450145E11 ; 0.0
105 ; 1.111529199010754E7 ; 1.209028869816972E9 ; 1.0502148425216644E9 ; 1.1692204676867784E11 ; 0.0
106 ; 1.11106267679821E7 ; 1.2090891948567348E9 ; 1.0613301345117719E9 ; 1.1813107563849481E11 ; 0.0
107 ; 1.1101652026622793E7 ; 1.2091494947651124E9 ; 1.072440761279754E9 ; 1.1934016483335155E11 ; 0.0
108 ; 1.1092194116095256E7 ; 1.2092097656196206E9 ; 1.083542413306377E9 ; 1.2054931432811665E11 ; 0.0
109 ; 1.1091157200073827E7 ; 1.2092700035891843E9 ; 1.0946346074224722E9 ; 1.2175852409373627E11 ; 0.0
110 ; 1.1077291447593192E7 ; 1.2093302049306626E9 ; 1.105725764622546E9 ; 1.2296779409732545E11 ; 0.0
111 ; 1.10681411595933E7 ; 1.209390365985532E9 ; 1.1168030560701392E9 ; 1.2417712430225612E11 ; 0.0
112 ; 1.1056396344438232E7 ; 1.209450483176716E9 ; 1.1278711972297325E9 ; 1.2538651466824165E11 ; 0.0
113 ; 1.1046448963411415E7 ; 1.2095105530055542E9 ; 1.1389275935741708E9 ; 1.2659596515141837E11 ; 0.0
114 ; 1.1039630865141949E7 ; 1.209570572048905E9 ; 1.1499740425375822E9 ; 1.2780547570442392E11 ; 0.0
115 ; 1.1020479792431377E7 ; 1.209630536956378E9 ; 1.161013673402724E9 ; 1.2901504627647282E11 ; 0.0
116 ; 1.1017615667588925E7 ; 1.2096904444476843E9 ; 1.1720341531951554E9 ; 1.302246768134292E11 ; 0.0
117 ; 1.1004461068982447E7 ; 1.2097502913101048E9 ; 1.1830517688627443E9 ; 1.3143436725787688E11 ; 0.0
118 ; 1.0992893009657597E7 ; 1.2098100743960688E9 ; 1.1940562299317267E9 ; 1.3264411754918698E11 ; 0.0
119 ; 1.0981138990772448E7 ; 1.2098697906208336E9 ; 1.2050491229413843E9 ; 1.3385392762358305E11 ; 0.0
120 ; 1.0968396736214627E7 ; 1.2099294369602697E9 ; 1.2160302619321568E9 ; 1.3506379741420389E11 ; 0.0
121 ; 1.0956821274849646E7 ; 1.2099890104487374E9 ; 1.2269986586683714E9 ; 1.3627372685116415E11 ; 0.0
122 ; 1.0939817796682078E7 ; 1.2100485081770544E9 ; 1.237955479943221E9 ; 1.3748371586161288E11 ; 0.0
123 ; 1.0934243354848035E7 ; 1.2101079272905526E9 ; 1.2488952977399032E9 ; 1.3869376436978995E11 ; 0.0
124 ; 1.0915736921052769E7 ; 1.210167264987214E9 ; 1.2598295410947514E9 ; 1.399038722970805E11 ; 0.0
125 ; 1.0902600908588976E7 ; 1.2102265185158877E9 ; 1.270745278015804E9 ; 1.4111403956206772E11 ; 0.0
126 ; 1.0892537783111181E7 ; 1.2102856851745813E9 ; 1.281647878924393E9 ; 1.4232426608058362E11 ; 0.0
127 ; 1.087735099685754E7 ; 1.2103447623088226E9 ; 1.292540416707504E9 ; 1.435345517657582E11 ; 0.0
128 ; 1.086793158986741E7 ; 1.2104037473100934E9 ; 1.3034177677043617E9 ; 1.4474489652806702E11 ; 0.0
129 ; 1.0849226340215748E7 ; 1.2104626376143222E9 ; 1.314285699294229E9 ; 1.459553002753771E11 ; 0.0
130 ; 1.0829430151242107E7 ; 1.2105214307004473E9 ; 1.3251349256344447E9 ; 1.4716576291299142E11 ; 0.0
131 ; 1.0794615207860373E7 ; 1.2105801240890303E9 ; 1.3359643557856867E9 ; 1.4837628434369186E11 ; 0.0
132 ; 1.0764543589225495E7 ; 1.2106387153409348E9 ; 1.3467589709935472E9 ; 1.4958686446778088E11 ; 0.0
133 ; 1.0745068550346904E7 ; 1.2106972020560524E9 ; 1.3575235145827727E9 ; 1.5079750318312183E11 ; 0.0
134 ; 1.0716578348457722E7 ; 1.210755581872085E9 ; 1.3682685831331196E9 ; 1.520082003851779E11 ; 0.0
135 ; 1.0684678488408927E7 ; 1.2108138524633741E9 ; 1.3789851614815774E9 ; 1.5321895596704996E11 ; 0.0
136 ; 1.0654406429925682E7 ; 1.2108720115397787E9 ; 1.3896698399699864E9 ; 1.5442976981951334E11 ; 0.0
137 ; 1.0622109307768147E7 ; 1.2109300568455968E9 ; 1.400324246399912E9 ; 1.556406418310531E11 ; 0.0
138 ; 1.059114900628714E7 ; 1.210987986158531E9 ; 1.4109463557076802E9 ; 1.568515718878987E11 ; 0.0
139 ; 1.0559735938839357E7 ; 1.2110457972886963E9 ; 1.4215375047139673E9 ; 1.5806255987405725E11 ; 0.0
140 ; 1.0528811199355371E7 ; 1.2111034880776653E9 ; 1.4320972406528068E9 ; 1.5927360567134595E11 ; 0.0
141 ; 1.0498617324775193E7 ; 1.211161056397551E9 ; 1.4426260518521621E9 ; 1.604847091594236E11 ; 0.0
142 ; 1.047114908022837E7 ; 1.2112185001501288E9 ; 1.4531246691769373E9 ; 1.6169587021582117E11 ; 0.0
143 ; 1.044607489038324E7 ; 1.2112758172659895E9 ; 1.4635958182571657E9 ; 1.6290708871597128E11 ; 0.0
144 ; 1.0402075817622395E7 ; 1.2113330057037265E9 ; 1.474041893147549E9 ; 1.6411836453323727E11 ; 0.0
145 ; 1.0381176452529773E7 ; 1.2113900634491558E9 ; 1.4844439689651713E9 ; 1.65329697538941E11 ; 0.0
146 ; 1.0373533499347243E7 ; 1.211446988514563E9 ; 1.494825145417701E9 ; 1.6654108760239017E11 ; 0.0
147 ; 1.035415124749923E7 ; 1.2115037789379847E9 ; 1.5051986789170482E9 ; 1.6775253459090472E11 ; 0.0
148 ; 1.0338322625182815E7 ; 1.2115604327825115E9 ; 1.5155528301645474E9 ; 1.689640383698427E11 ; 0.0
149 ; 1.03267105127737E7 ; 1.21161694813562E9 ; 1.5258911527897303E9 ; 1.701755988026252E11 ; 0.0
150 ; 1.0312286379070088E7 ; 1.2116733231085348E9 ; 1.536217863302504E9 ; 1.7138721575076083E11 ; 0.0
151 ; 1.0300014038678274E7 ; 1.2117295558356047E9 ; 1.546530149681574E9 ; 1.7259888907386935E11 ; 0.0
152 ; 1.028058765718758E7 ; 1.2117856444737134E9 ; 1.5568301637202523E9 ; 1.7381061862970496E11 ; 0.0
153 ; 1.0264760803514756E7 ; 1.2118415872017043E9 ; 1.5671107513774397E9 ; 1.7502240427417868E11 ; 0.0
154 ; 1.0250551679589951E7 ; 1.2118973822198308E9 ; 1.5773755121809545E9 ; 1.7623424586138037E11 ; 0.0
155 ; 1.023268024312873E7 ; 1.2119530277492259E9 ; 1.5876260638605444E9 ; 1.774461432436002E11 ; 0.0
156 ; 1.0216215590458967E7 ; 1.212008522031393E9 ; 1.5978587441036732E9 ; 1.7865809627134943E11 ; 0.0
157 ; 1.0203561957560398E7 ; 1.212063863327713E9 ; 1.608074959694132E9 ; 1.7987010479338083E11 ; 0.0
158 ; 1.0182766079817511E7 ; 1.2121190499189715E9 ; 1.6182785216516924E9 ; 1.8108216865670856E11 ; 0.0
159 ; 1.0161671287240922E7 ; 1.212174080104904E9 ; 1.62846128773151E9 ; 1.8229428770662753E11 ; 0.0
160 ; 1.015273089211334E7 ; 1.212228952203755E9 ; 1.638622959018751E9 ; 1.8350646178673242E11 ; 0.0
161 ; 1.0134758617212413E7 ; 1.212283664551856E9 ; 1.6487756899108644E9 ; 1.847186907389362E11 ; 0.0
162 ; 1.0124638874251451E7 ; 1.2123382155032177E9 ; 1.6589104485280766E9 ; 1.8593097440348804E11 ; 0.0
163 ; 1.0104901945948102E7 ; 1.2123926034291377E9 ; 1.669035087402328E9 ; 1.8714331261899124E11 ; 0.0
164 ; 1.00891488315003E7 ; 1.21244682671782E9 ; 1.6791399893482761E9 ; 1.8835570522242038E11 ; 0.0
165 ; 1.0070938372428259E7 ; 1.2125008837740128E9 ; 1.6892291381797764E9 ; 1.895681520491382E11 ; 0.0
166 ; 1.004948347724922E7 ; 1.2125547730186539E9 ; 1.6993000765522046E9 ; 1.9078065293291223E11 ; 0.0
167 ; 1.0037860865049757E7 ; 1.2126084928885326E9 ; 1.7093495600294538E9 ; 1.9199320770593088E11 ; 0.0
168 ; 1.0022233095348239E7 ; 1.2126620418359632E9 ; 1.7193874208945036E9 ; 1.932058161988194E11 ; 0.0
169 ; 1.0003567722802512E7 ; 1.2127154183284683E9 ; 1.729409653989852E9 ; 1.9441847824065536E11 ; 0.0
170 ; 9989230.848658714 ; 1.2127686208484755E9 ; 1.7394132217126544E9 ; 1.9563119365898383E11 ; 0.0
171 ; 9969010.26874067 ; 1.2128216478930223E9 ; 1.7494024525613132E9 ; 1.968439622798323E11 ; 0.0
172 ; 9949934.925372828 ; 1.2128744979734745E9 ; 1.7593714628300538E9 ; 1.9805678392772534E11 ; 0.0
173 ; 9936683.600428835 ; 1.2129271696152523E9 ; 1.7693213977554266E9 ; 1.9926965842569882E11 ; 0.0
174 ; 9928909.998297162 ; 1.2129796613575664E9 ; 1.7792580813558555E9 ; 2.004825855953141E11 ; 0.0
175 ; 9912705.711279882 ; 1.213031971753164E9 ; 1.7891869913541527E9 ; 2.0169556525667166E11 ; 0.0
176 ; 9901414.828618282 ; 1.2130840993680828E9 ; 1.7990996970654325E9 ; 2.0290859722842484E11 ; 0.0
177 ; 9894561.314169202 ; 1.2131360427814138E9 ; 1.8090011118940508E9 ; 2.041216813277929E11 ; 0.0
178 ; 9880942.819515571 ; 1.2131878005850735E9 ; 1.81889567320822E9 ; 2.053348173705743E11 ; 0.0
179 ; 9873435.790240716 ; 1.2132393713835814E9 ; 1.8287766160277355E9 ; 2.065480051711594E11 ; 0.0
180 ; 9868235.126219543 ; 1.213290753793848E9 ; 1.8386500518179762E9 ; 2.0776124454254297E11 ; 0.0
181 ; 9848346.453783225 ; 1.2133419464449682E9 ; 1.8485182869441957E9 ; 2.0897453529633682E11 ; 0.0
182 ; 9838517.736064382 ; 1.2133929479780226E9 ; 1.858366633397979E9 ; 2.101878772427818E11 ; 0.0
183 ; 9823774.44660365 ; 1.2134437570458848E9 ; 1.8682051511340435E9 ; 2.1140127019075983E11 ; 0.0
184 ; 9818563.71011384 ; 1.2134943723130374E9 ; 1.878028925580647E9 ; 2.1261471394780573E11 ; 0.0
185 ; 9804286.48802134 ; 1.2135447924553914E9 ; 1.8878474892907608E9 ; 2.1382820832011877E11 ; 0.0
186 ; 9789318.044716101 ; 1.213595016160113E9 ; 1.8976517757787821E9 ; 2.1504175311257416E11 ; 0.0
187 ; 9774945.548865942 ; 1.2136450421254575E9 ; 1.9074410938234982E9 ; 2.1625534812873428E11 ; 0.0
188 ; 9766964.590441737 ; 1.213694869060607E9 ; 1.9172160393723643E9 ; 2.1746899317085974E11 ; 0.0
189 ; 9752918.887137009 ; 1.2137444956855142E9 ; 1.926983003962806E9 ; 2.1868268803992035E11 ; 0.0
190 ; 9739974.04497334 ; 1.213793920730752E9 ; 1.936735922849943E9 ; 2.1989643253560587E11 ; 0.0
191 ; 9730066.557431199 ; 1.213843142937367E9 ; 1.9464758968949163E9 ; 2.211102264563366E11 ; 0.0
192 ; 9723977.587739635 ; 1.2138921610567398E9 ; 1.9562059634523475E9 ; 2.22324069599274E11 ; 0.0
193 ; 9703579.610209713 ; 1.2139409738504477E9 ; 1.9659299410400872E9 ; 2.2353796176033072E11 ; 0.0
194 ; 9700076.270733427 ; 1.213989580090134E9 ; 1.975633520650297E9 ; 2.2475190273418115E11 ; 0.0
195 ; 9684204.836983178 ; 1.2140379785573802E9 ; 1.9853335969210303E9 ; 2.259658923142713E11 ; 0.0
196 ; 9672535.17110549 ; 1.2140861680435839E9 ; 1.9950178017580135E9 ; 2.2717993029282867E11 ; 0.0
197 ; 9660619.75882385 ; 1.2141341473498385E9 ; 2.0046903369291189E9 ; 2.2839401646087225E11 ; 0.0
