CSV File for the Network on Day 22
1 - Minute m 
2 - Power Consumed at minute m 
3 - Power Produced at minute m 
4 - Energy Consumed since the beginning of the day 
5 - Energy Produced since the beginning of the day 
6 - Energy Lost since the beginning of the day 
 
0 ; 3.8401950927333005E7 ; 6.317213469202783E8 ; 0.0 ; 0.0 ; 0.0
1 ; 3.84352597498303E7 ; 6.325980808255681E8 ; 3.8401950927333005E7 ; 6.317213469202783E8 ; 0.0
2 ; 3.848179645269074E7 ; 6.353287187591974E8 ; 7.68372106771633E7 ; 1.2643194277458463E9 ; 0.0
3 ; 3.8530798154267624E7 ; 6.399137388349506E8 ; 1.1531900712985405E8 ; 1.8996481465050435E9 ; 0.0
4 ; 3.85923829010878E7 ; 6.46353738313555E8 ; 1.538498052841217E8 ; 2.539561885339994E9 ; 0.0
5 ; 3.8660515470377676E7 ; 6.546494510871122E8 ; 1.9244218818520948E8 ; 3.185915623653549E9 ; 0.0
6 ; 3.8748940977901645E7 ; 6.648017520586354E8 ; 2.3110270365558717E8 ; 3.8405650747406616E9 ; 0.0
7 ; 3.887393993420068E7 ; 6.768116324104279E8 ; 2.6985164463348883E8 ; 4.505366826799297E9 ; 0.0
8 ; 3.9068029819111645E7 ; 6.906801260356939E8 ; 3.0872558456768954E8 ; 5.182178459209725E9 ; 0.0
9 ; 3.93512794103822E7 ; 7.064081755454428E8 ; 3.477936143868012E8 ; 5.8728585852454195E9 ; 0.0
10 ; 3.977722226526891E7 ; 7.239964554965847E8 ; 3.871448937971834E8 ; 6.579266760790862E9 ; 0.0
11 ; 4.0468905252587385E7 ; 7.434452125824798E8 ; 4.269221160624523E8 ; 7.303263216287447E9 ; 0.0
12 ; 4.157624003273388E7 ; 7.647542001097682E8 ; 4.673910213150397E8 ; 8.046708428869926E9 ; 0.0
13 ; 4.2634486223184526E7 ; 7.87922743521539E8 ; 5.0896726134777355E8 ; 8.811462628979694E9 ; 0.0
14 ; 4.276168171518159E7 ; 8.129499002067835E8 ; 5.516017475709581E8 ; 9.599385372501234E9 ; 0.0
15 ; 4.2816316055658884E7 ; 8.398346362722973E8 ; 5.943634292861397E8 ; 1.0412335272708017E10 ; 0.0
16 ; 4.286261272805922E7 ; 8.685759605357772E8 ; 6.371797453417987E8 ; 1.1252169908980314E10 ; 0.0
17 ; 4.2914834082940616E7 ; 8.991729980942099E8 ; 6.800423580698578E8 ; 1.2120745869516092E10 ; 0.0
18 ; 4.29631683161949E7 ; 9.316250150554938E8 ; 7.229571921527984E8 ; 1.3019918867610302E10 ; 0.0
19 ; 4.301311891937476E7 ; 9.659314141589015E8 ; 7.659203604689933E8 ; 1.3951543882665796E10 ; 0.0
20 ; 4.3067728955278955E7 ; 1.0020917172906485E9 ; 8.08933479388368E8 ; 1.4917475296824697E10 ; 0.0
21 ; 4.311620017347013E7 ; 1.0401055445391835E9 ; 8.52001208343647E8 ; 1.5919567014115345E10 ; 0.0
22 ; 4.316627434286174E7 ; 1.0799725944705412E9 ; 8.951174085171171E8 ; 1.6959672558654528E10 ; 0.0
23 ; 4.321149209270004E7 ; 1.1216926273619518E9 ; 9.382836828599789E8 ; 1.803964515312507E10 ; 0.0
24 ; 4.32649958586641E7 ; 1.165265451671367E9 ; 9.814951749526789E8 ; 1.9161337780487022E10 ; 0.0
25 ; 4.330777263799809E7 ; 1.2028191588035498E9 ; 1.0247601708113431E9 ; 2.032660323215839E10 ; 0.0
26 ; 4.337114961263712E7 ; 1.2028749111070175E9 ; 1.0680679434493412E9 ; 2.152942239096194E10 ; 0.0
27 ; 4.341252127689462E7 ; 1.202931222694127E9 ; 1.1114390930619783E9 ; 2.273229730206896E10 ; 0.0
28 ; 4.345708343859491E7 ; 1.2029880100560787E9 ; 1.154851614338873E9 ; 2.3935228524763084E10 ; 0.0
29 ; 4.351189341606768E7 ; 1.203045204074518E9 ; 1.1983086977774677E9 ; 2.5138216534819164E10 ; 0.0
30 ; 4.3557189037914164E7 ; 1.2031027471233084E9 ; 1.2418205911935353E9 ; 2.634126173889368E10 ; 0.0
31 ; 4.360115243315297E7 ; 1.2031605908158512E9 ; 1.2853777802314496E9 ; 2.754436448601699E10 ; 0.0
32 ; 4.3646726572928764E7 ; 1.2032186942439456E9 ; 1.3289789326646025E9 ; 2.874752507683284E10 ; 0.0
33 ; 4.368667312128246E7 ; 1.2032770225923746E9 ; 1.3726256592375312E9 ; 2.9950743771076786E10 ; 0.0
34 ; 4.373130407180613E7 ; 1.2033355460420804E9 ; 1.4163123323588138E9 ; 3.115402079366916E10 ; 0.0
35 ; 4.377023979288225E7 ; 1.2033942388962507E9 ; 1.46004363643062E9 ; 3.235735633971124E10 ; 0.0
36 ; 4.381150010969533E7 ; 1.2034530788795857E9 ; 1.5038138762235022E9 ; 3.356075057860749E10 ; 0.0
37 ; 4.384589169961757E7 ; 1.203512046572938E9 ; 1.5476253763331976E9 ; 3.4764203657487076E10 ; 0.0
38 ; 4.388937949143937E7 ; 1.203571124954415E9 ; 1.5914712680328152E9 ; 3.596771570406001E10 ; 0.0
39 ; 4.3922585396680765E7 ; 1.203630299024725E9 ; 1.6353606475242546E9 ; 3.717128682901443E10 ; 0.0
40 ; 4.3953483833217114E7 ; 1.203689555499571E9 ; 1.6792832329209354E9 ; 3.8374917128039154E10 ; 0.0
41 ; 4.398259658127017E7 ; 1.2037488825557353E9 ; 1.7232367167541525E9 ; 3.957860668353873E10 ; 0.0
42 ; 4.4016115047916315E7 ; 1.2038082696203885E9 ; 1.7672193133354228E9 ; 4.078235556609446E10 ; 0.0
43 ; 4.404336189040885E7 ; 1.203867707195397E9 ; 1.8112354283833392E9 ; 4.198616383571485E10 ; 0.0
44 ; 4.40729965355965E7 ; 1.203927186710119E9 ; 1.855278790273748E9 ; 4.319003154291025E10 ; 0.0
45 ; 4.408742659953195E7 ; 1.203986700397502E9 ; 1.8993517868093445E9 ; 4.439395872962037E10 ; 0.0
46 ; 4.411051828220673E7 ; 1.2040462411893406E9 ; 1.9434392134088764E9 ; 4.559794543001787E10 ; 0.0
47 ; 4.4129217103815E7 ; 1.2041058026273637E9 ; 1.9875497316910832E9 ; 4.680199167120721E10 ; 0.0
48 ; 4.415051306117246E7 ; 1.2041653787874498E9 ; 2.0316789487948983E9 ; 4.800609747383457E10 ; 0.0
49 ; 4.4165842680109456E7 ; 1.204224964214794E9 ; 2.0758294618560708E9 ; 4.9210262852622025E10 ; 0.0
50 ; 4.417864643491456E7 ; 1.2042845538682323E9 ; 2.1199953045361803E9 ; 5.0414487816836815E10 ; 0.0
51 ; 4.419225078010112E7 ; 1.2043441430722651E9 ; 2.1641739509710946E9 ; 5.161877237070505E10 ; 0.0
52 ; 4.420631678337079E7 ; 1.2044037274755793E9 ; 2.208366201751196E9 ; 5.282311651377731E10 ; 0.0
53 ; 4.4219186517680265E7 ; 1.2044633030150647E9 ; 2.252572518534567E9 ; 5.402752024125289E10 ; 0.0
54 ; 4.4231782504460774E7 ; 1.2045228658845081E9 ; 2.296791705052247E9 ; 5.523198354426796E10 ; 0.0
55 ; 4.424180241506005E7 ; 1.2045824125072734E9 ; 2.341023487556708E9 ; 5.6436506410152466E10 ; 0.0
56 ; 4.424998843776282E7 ; 1.204641939512388E9 ; 2.385265289971768E9 ; 5.764108882265974E10 ; 0.0
57 ; 4.4253599260490805E7 ; 1.2047014437135608E9 ; 2.4295152784095306E9 ; 5.884573076217213E10 ; 0.0
58 ; 4.427413699542769E7 ; 1.2047609220907176E9 ; 2.4737688776700215E9 ; 6.005043220588569E10 ; 0.0
59 ; 4.428425991535997E7 ; 1.2048203717737138E9 ; 2.518043014665449E9 ; 6.125519312797641E10 ; 0.0
60 ; 4.4292394789871E7 ; 1.2048797900279331E9 ; 2.562327274580809E9 ; 6.246001349975012E10 ; 0.0
61 ; 4.429651758118243E7 ; 1.2049391742415192E9 ; 2.6066196693706803E9 ; 6.366489328977805E10 ; 0.0
62 ; 4.430705265057938E7 ; 1.2049985219140372E9 ; 2.650916186951863E9 ; 6.486983246401957E10 ; 0.0
63 ; 4.431204685247516E7 ; 1.2050578306463757E9 ; 2.6952232396024423E9 ; 6.607483098593361E10 ; 0.0
64 ; 4.432443357981978E7 ; 1.2051170981317394E9 ; 2.7395352864549174E9 ; 6.727988881657999E10 ; 0.0
65 ; 4.4322645893237114E7 ; 1.2051763221475954E9 ; 2.783859720034737E9 ; 6.848500591471172E10 ; 0.0
66 ; 4.433413319373638E7 ; 1.2052355005484624E9 ; 2.828182365927974E9 ; 6.969018223685931E10 ; 0.0
67 ; 4.433314042870048E7 ; 1.2052946312594333E9 ; 2.872516499121711E9 ; 7.089541773740778E10 ; 0.0
68 ; 4.433936617202052E7 ; 1.2053537122703602E9 ; 2.916849639550411E9 ; 7.21007123686672E10 ; 0.0
69 ; 4.434123112657987E7 ; 1.2054127416306095E9 ; 2.9611890057224317E9 ; 7.330606608093756E10 ; 0.0
70 ; 4.435249874435285E7 ; 1.205471717444336E9 ; 3.0055302368490114E9 ; 7.451147882256818E10 ; 0.0
71 ; 4.435823474268116E7 ; 1.2055306378662074E9 ; 3.0498827355933642E9 ; 7.571695054001251E10 ; 0.0
72 ; 4.435577697442115E7 ; 1.20558950109754E9 ; 3.0942409703360453E9 ; 7.692248117787872E10 ; 0.0
73 ; 4.43610938094703E7 ; 1.2056483053827915E9 ; 3.1385967473104663E9 ; 7.812807067897626E10 ; 0.0
74 ; 4.435939165349816E7 ; 1.2057070490063794E9 ; 3.1829578411199365E9 ; 7.933371898435905E10 ; 0.0
75 ; 4.4361577131042995E7 ; 1.2057657302897878E9 ; 3.2273172327734346E9 ; 8.053942603336543E10 ; 0.0
76 ; 4.4360997742961235E7 ; 1.205824347588934E9 ; 3.2716788099044776E9 ; 8.174519176365523E10 ; 0.0
77 ; 4.4365358612602204E7 ; 1.2058828992917695E9 ; 3.316039807647439E9 ; 8.295101611124416E10 ; 0.0
78 ; 4.435340497984722E7 ; 1.2059413838160853E9 ; 3.360405166260041E9 ; 8.415689901053592E10 ; 0.0
79 ; 4.4341014873438895E7 ; 1.2059997996075127E9 ; 3.4047585712398887E9 ; 8.5362840394352E10 ; 0.0
80 ; 4.432374849567575E7 ; 1.20605814513769E9 ; 3.4490995861133275E9 ; 8.656884019395952E10 ; 0.0
81 ; 4.431975828530212E7 ; 1.206116418902583E9 ; 3.493423334609003E9 ; 8.777489833909721E10 ; 0.0
82 ; 4.4300388229695745E7 ; 1.2061746194209468E9 ; 3.537743092894305E9 ; 8.89810147579998E10 ; 0.0
83 ; 4.428763601362622E7 ; 1.2062327452329123E9 ; 3.582043481124001E9 ; 9.018718937742075E10 ; 0.0
84 ; 4.4272670233677834E7 ; 1.206290794898687E9 ; 3.626331117137627E9 ; 9.139342212265366E10 ; 0.0
85 ; 4.425497789931689E7 ; 1.206348766997359E9 ; 3.670603787371305E9 ; 9.259971291755234E10 ; 0.0
86 ; 4.424108658059053E7 ; 1.2064066601257994E9 ; 3.714858765270622E9 ; 9.38060616845497E10 ; 0.0
87 ; 4.42277540228803E7 ; 1.2064644728976436E9 ; 3.7590998518512125E9 ; 9.501246834467549E10 ; 0.0
88 ; 4.420883034793835E7 ; 1.206522203942358E9 ; 3.8033276058740926E9 ; 9.621893281757314E10 ; 0.0
89 ; 4.4191983416753486E7 ; 1.2065798519043746E9 ; 3.847536436222031E9 ; 9.742545502151549E10 ; 0.0
90 ; 4.416940066300401E7 ; 1.2066374154422925E9 ; 3.8917284196387844E9 ; 9.863203487341986E10 ; 0.0
91 ; 4.416036927242239E7 ; 1.2066948932281373E9 ; 3.9358978203017883E9 ; 9.983867228886215E10 ; 0.0
92 ; 4.414445000950768E7 ; 1.2067522839466777E9 ; 3.9800581895742106E9 ; 1.0104536718209029E11 ; 0.0
93 ; 4.4119460184365414E7 ; 1.206809586294792E9 ; 4.0242026395837183E9 ; 1.0225211946603696E11 ; 0.0
94 ; 4.410046194699412E7 ; 1.2068667989808786E9 ; 4.0683220997680836E9 ; 1.0345892905233174E11 ; 0.0
95 ; 4.408203821215886E7 ; 1.206923920724312E9 ; 4.112422561715078E9 ; 1.0466579585131262E11 ; 0.0
96 ; 4.405864693520288E7 ; 1.2069809502549357E9 ; 4.1565045999272366E9 ; 1.0587271977203694E11 ; 0.0
97 ; 4.4038992134614825E7 ; 1.2070378863125908E9 ; 4.2005632468624396E9 ; 1.0707970072229187E11 ; 0.0
98 ; 4.4021722793690845E7 ; 1.2070947276466792E9 ; 4.2446022389970546E9 ; 1.0828673860860446E11 ; 0.0
99 ; 4.399949808757704E7 ; 1.2071514730157568E9 ; 4.2886239617907453E9 ; 1.0949383333625114E11 ; 0.0
100 ; 4.3981509272482574E7 ; 1.2072081211871543E9 ; 4.332623459878323E9 ; 1.107009848092669E11 ; 0.0
101 ; 4.3949629227797806E7 ; 1.2072646709366236E9 ; 4.376604969150805E9 ; 1.1190819293045406E11 ; 0.0
102 ; 4.393869247212621E7 ; 1.2073211210480099E9 ; 4.420554598378603E9 ; 1.1311545760139069E11 ; 0.0
103 ; 4.39107518519953E7 ; 1.2073774703129458E9 ; 4.464493290850729E9 ; 1.1432277872243869E11 ; 0.0
104 ; 4.388517095769721E7 ; 1.2074337175305634E9 ; 4.508404042702724E9 ; 1.1553015619275163E11 ; 0.0
105 ; 4.386563505439981E7 ; 1.2074898615072289E9 ; 4.552289213660421E9 ; 1.167375899102822E11 ; 0.0
106 ; 4.3840050547482125E7 ; 1.2075459010562935E9 ; 4.596154848714821E9 ; 1.1794507977178943E11 ; 0.0
107 ; 4.381080411769421E7 ; 1.2076018349978604E9 ; 4.639994899262303E9 ; 1.1915262567284572E11 ; 0.0
108 ; 4.379013558697906E7 ; 1.2076576621585681E9 ; 4.683805703379997E9 ; 1.2036022750784358E11 ; 0.0
109 ; 4.3766120645578064E7 ; 1.2077133813713863E9 ; 4.727595838966976E9 ; 1.2156788517000215E11 ; 0.0
110 ; 4.3732623578166924E7 ; 1.2077689914754272E9 ; 4.771361959612555E9 ; 1.2277559855137354E11 ; 0.0
111 ; 4.370770079693437E7 ; 1.2078244913157678E9 ; 4.8150945831907215E9 ; 1.2398336754284897E11 ; 0.0
112 ; 4.3679896154847555E7 ; 1.2078798797432828E9 ; 4.858802283987656E9 ; 1.2519119203416473E11 ; 0.0
113 ; 4.3653526952022634E7 ; 1.2079351556144915E9 ; 4.902482180142503E9 ; 1.2639907191390802E11 ; 0.0
114 ; 4.362386167563741E7 ; 1.2079903177914107E9 ; 4.946135707094525E9 ; 1.276070070695225E11 ; 0.0
115 ; 4.359925659641497E7 ; 1.2080453651414187E9 ; 4.989759568770163E9 ; 1.2881499738731392E11 ; 0.0
116 ; 4.3569987461380094E7 ; 1.2081002965371296E9 ; 5.033358825366577E9 ; 1.3002304275245534E11 ; 0.0
117 ; 4.353841016641329E7 ; 1.2081551108562734E9 ; 5.076928812827957E9 ; 1.3123114304899246E11 ; 0.0
118 ; 4.3513360134243876E7 ; 1.2082098069815838E9 ; 5.12046722299437E9 ; 1.3243929815984874E11 ; 0.0
119 ; 4.347870427144554E7 ; 1.208264383800695E9 ; 5.163980583128614E9 ; 1.3364750796683032E11 ; 0.0
120 ; 4.3451181221455865E7 ; 1.2083188402060432E9 ; 5.20745928740006E9 ; 1.3485577235063101E11 ; 0.0
121 ; 4.3415482155913465E7 ; 1.208373175094777E9 ; 5.250910468621515E9 ; 1.3606409119083705E11 ; 0.0
122 ; 4.3386629066302314E7 ; 1.2084273873686688E9 ; 5.294325950777429E9 ; 1.3727246436593182E11 ; 0.0
123 ; 4.335322485002548E7 ; 1.208481475934038E9 ; 5.337712579843731E9 ; 1.384808917533005E11 ; 0.0
124 ; 4.3324952105255075E7 ; 1.2085354397016735E9 ; 5.381065804693756E9 ; 1.3968937322923456E11 ; 0.0
125 ; 4.329073932097867E7 ; 1.2085892775867665E9 ; 5.424390756799011E9 ; 1.4089790866893622E11 ; 0.0
126 ; 4.3260187755778335E7 ; 1.2086429885088422E9 ; 5.46768149611999E9 ; 1.4210649794652298E11 ; 0.0
127 ; 4.322157930248098E7 ; 1.2086965713917012E9 ; 5.510941683875769E9 ; 1.4331514093503183E11 ; 0.0
128 ; 4.31900183915758E7 ; 1.20875002516336E9 ; 5.554163263178249E9 ; 1.4452383750642352E11 ; 0.0
129 ; 4.315836724703261E7 ; 1.208803348756E9 ; 5.597353281569825E9 ; 1.4573258753158688E11 ; 0.0
130 ; 4.3114106383116305E7 ; 1.2088565411059165E9 ; 5.640511648816857E9 ; 1.469413908803429E11 ; 0.0
131 ; 4.307191301458016E7 ; 1.2089096011534722E9 ; 5.683625755199974E9 ; 1.4815024742144882E11 ; 0.0
132 ; 4.301196956462566E7 ; 1.208962527843054E9 ; 5.726697668214554E9 ; 1.493591570226023E11 ; 0.0
133 ; 4.296295712886281E7 ; 1.2090153201230342E9 ; 5.76970963777918E9 ; 1.5056811955044534E11 ; 0.0
134 ; 4.291572053197662E7 ; 1.2090679769457312E9 ; 5.812672594908042E9 ; 1.517771348705684E11 ; 0.0
135 ; 4.287412248828196E7 ; 1.209120497267375E9 ; 5.855588315440019E9 ; 1.5298620284751413E11 ; 0.0
136 ; 4.2819384669089206E7 ; 1.2091728800480766E9 ; 5.898462437928301E9 ; 1.541953233447815E11 ; 0.0
137 ; 4.276393098936952E7 ; 1.2092251242517962E9 ; 5.94128182259739E9 ; 1.5540449622482956E11 ; 0.0
138 ; 4.271810668191977E7 ; 1.2092772288463166E9 ; 5.98404575358676E9 ; 1.5661372134908136E11 ; 0.0
139 ; 4.266285410437338E7 ; 1.209329192803217E9 ; 6.02676386026868E9 ; 1.5782299857792767E11 ; 0.0
140 ; 4.2613507955221E7 ; 1.2093810150978498E9 ; 6.069426714373053E9 ; 1.590323277707309E11 ; 0.0
141 ; 4.2561903264750324E7 ; 1.2094326947093196E9 ; 6.112040222328274E9 ; 1.6024170878582874E11 ; 0.0
142 ; 4.250869351386689E7 ; 1.2094842306204615E9 ; 6.154602125593024E9 ; 1.6145114148053806E11 ; 0.0
143 ; 4.2454819846799776E7 ; 1.209535621817825E9 ; 6.197110819106891E9 ; 1.626606257111585E11 ; 0.0
144 ; 4.239640418079783E7 ; 1.209586867291656E9 ; 6.239565638953691E9 ; 1.6387016133297632E11 ; 0.0
145 ; 4.236168391587133E7 ; 1.2096379660358818E9 ; 6.281962043134488E9 ; 1.6507974820026797E11 ; 0.0
146 ; 4.232380053115689E7 ; 1.2096889170480976E9 ; 6.32432372705036E9 ; 1.6628938616630386E11 ; 0.0
147 ; 4.2283383692017734E7 ; 1.209739719329555E9 ; 6.366647527581516E9 ; 1.6749907508335196E11 ; 0.0
148 ; 4.225398837587343E7 ; 1.20979037188515E9 ; 6.408930911273534E9 ; 1.6870881480268152E11 ; 0.0
149 ; 4.2215561642409846E7 ; 1.2098408737234125E9 ; 6.451184899649407E9 ; 1.6991860517456668E11 ; 0.0
150 ; 4.217678101188493E7 ; 1.2098912238565E9 ; 6.493400461291818E9 ; 1.711284460482901E11 ; 0.0
151 ; 4.21365113764718E7 ; 1.2099414213001876E9 ; 6.535577242303702E9 ; 1.723383372721466E11 ; 0.0
152 ; 4.2091977710026875E7 ; 1.2099914650738626E9 ; 6.577713753680174E9 ; 1.735482786934468E11 ; 0.0
153 ; 4.20564487918065E7 ; 1.210041354200519E9 ; 6.619805731390201E9 ; 1.7475827015852066E11 ; 0.0
154 ; 4.2012007806776606E7 ; 1.2100910877067525E9 ; 6.661862180182007E9 ; 1.759683115127212E11 ; 0.0
155 ; 4.197705939492553E7 ; 1.2101406646227565E9 ; 6.703874187988784E9 ; 1.7717840260042795E11 ; 0.0
156 ; 4.193535193624671E7 ; 1.21019008398232E9 ; 6.745851247383709E9 ; 1.783885432650507E11 ; 0.0
157 ; 4.189892013924979E7 ; 1.2102393448228252E9 ; 6.787786599319956E9 ; 1.7959873334903302E11 ; 0.0
158 ; 4.185927275597667E7 ; 1.210288446185245E9 ; 6.829685519459206E9 ; 1.8080897269385583E11 ; 0.0
159 ; 4.1821581106194675E7 ; 1.2103373871141443E9 ; 6.871544792215182E9 ; 1.8201926114004108E11 ; 0.0
160 ; 4.1780621598612E7 ; 1.2103861666576793E9 ; 6.913366373321377E9 ; 1.832295985271552E11 ; 0.0
161 ; 4.1734672537122585E7 ; 1.2104347838675966E9 ; 6.955146994919989E9 ; 1.844399846938129E11 ; 0.0
162 ; 4.17020174738439E7 ; 1.2104832377992368E9 ; 6.996881667457111E9 ; 1.8565041947768048E11 ; 0.0
163 ; 4.1656490825081475E7 ; 1.2105315275115354E9 ; 7.038583684930955E9 ; 1.868609027154797E11 ; 0.0
164 ; 4.16238686872768E7 ; 1.2105796520670252E9 ; 7.080240175756037E9 ; 1.8807143424299124E11 ; 0.0
165 ; 4.157466483654322E7 ; 1.2106276105318387E9 ; 7.121864044443314E9 ; 1.8928201389505826E11 ; 0.0
166 ; 4.1531748519645534E7 ; 1.2106754019757128E9 ; 7.163438709279857E9 ; 1.904926415055901E11 ; 0.0
167 ; 4.1497356649421E7 ; 1.210723025471992E9 ; 7.204970457799502E9 ; 1.917033169075658E11 ; 0.0
168 ; 4.145603813261011E7 ; 1.2107704800976326E9 ; 7.246467814448923E9 ; 1.9291403993303778E11 ; 0.0
169 ; 4.141149113599599E7 ; 1.2108177649332082E9 ; 7.287923852581533E9 ; 1.941248104131354E11 ; 0.0
170 ; 4.136691311527011E7 ; 1.2108648790629134E9 ; 7.329335343717529E9 ; 1.953356281780686E11 ; 0.0
171 ; 4.1329986455730364E7 ; 1.2109118215745716E9 ; 7.370702256832799E9 ; 1.9654649305713153E11 ; 0.0
172 ; 4.127955798253119E7 ; 1.2109585915596392E9 ; 7.412032243288529E9 ; 1.9775740487870612E11 ; 0.0
173 ; 4.124145243290517E7 ; 1.2110051881132126E9 ; 7.453311801271061E9 ; 1.9896836347026575E11 ; 0.0
174 ; 4.121279467399684E7 ; 1.211051610334035E9 ; 7.494553253703966E9 ; 2.0017936865837897E11 ; 0.0
175 ; 4.1190246051667094E7 ; 1.211097857324502E9 ; 7.535766048377963E9 ; 2.01390420268713E11 ; 0.0
176 ; 4.116375449389445E7 ; 1.2111439281906717E9 ; 7.57695629442963E9 ; 2.026015181260375E11 ; 0.0
177 ; 4.114416040343446E7 ; 1.2111898220422692E9 ; 7.618120048923525E9 ; 2.0381266205422818E11 ; 0.0
178 ; 4.111453141289218E7 ; 1.2112355379926958E9 ; 7.65926420932696E9 ; 2.0502385187627045E11 ; 0.0
179 ; 4.1093198339833826E7 ; 1.2112810751590366E9 ; 7.700378740739852E9 ; 2.0623508741426315E11 ; 0.0
180 ; 4.10622741358864E7 ; 1.2113264326620698E9 ; 7.741471939079686E9 ; 2.0744636848942218E11 ; 0.0
181 ; 4.1039871454357356E7 ; 1.211371609626274E9 ; 7.782534213215572E9 ; 2.0865769492208426E11 ; 0.0
182 ; 4.101402558764896E7 ; 1.2114166051798372E9 ; 7.8235740846699295E9 ; 2.0986906653171054E11 ; 0.0
183 ; 4.09923661744958E7 ; 1.2114614184546661E9 ; 7.864588110257579E9 ; 2.1108048313689038E11 ; 0.0
184 ; 4.0959603033254184E7 ; 1.2115060485863948E9 ; 7.905580476432075E9 ; 2.1229194455534503E11 ; 0.0
185 ; 4.093832866699417E7 ; 1.2115504947143946E9 ; 7.946540079465329E9 ; 2.1350345060393143E11 ; 0.0
186 ; 4.091572081972758E7 ; 1.2115947559817824E9 ; 7.987478408132323E9 ; 2.147150010986458E11 ; 0.0
187 ; 4.088456738950513E7 ; 1.2116388315354323E9 ; 8.028394128952051E9 ; 2.159265958546276E11 ; 0.0
188 ; 4.0859355044241264E7 ; 1.2116827205259826E9 ; 8.069278696341557E9 ; 2.1713823468616302E11 ; 0.0
189 ; 4.083377011879617E7 ; 1.2117264221078486E9 ; 8.1101380513857975E9 ; 2.18349917406689E11 ; 0.0
190 ; 4.081263302472644E7 ; 1.2117699354392307E9 ; 8.150971821504594E9 ; 2.1956164382879684E11 ; 0.0
191 ; 4.0788820887036264E7 ; 1.211813259682125E9 ; 8.191784454529321E9 ; 2.2077341376423608E11 ; 0.0
192 ; 4.075906621500689E7 ; 1.2118563940023339E9 ; 8.232573275416357E9 ; 2.219852270239182E11 ; 0.0
193 ; 4.073284442075156E7 ; 1.2118993375694768E9 ; 8.273332341631364E9 ; 2.2319708341792053E11 ; 0.0
194 ; 4.071045017268178E7 ; 1.2119420895569992E9 ; 8.314065186052115E9 ; 2.2440898275549002E11 ; 0.0
195 ; 4.0685103411872566E7 ; 1.2119846491421857E9 ; 8.354775636224797E9 ; 2.2562092484504703E11 ; 0.0
196 ; 4.065517456567842E7 ; 1.212027015506168E9 ; 8.39546073963667E9 ; 2.268329094941892E11 ; 0.0
