CSV File for the Network on Day 153
1 - Minute m 
2 - Power Consumed at minute m 
3 - Power Produced at minute m 
4 - Energy Consumed since the beginning of the day 
5 - Energy Produced since the beginning of the day 
6 - Energy Lost since the beginning of the day 
 
0 ; 2.154574818723265E7 ; 6.351984697196889E8 ; 0.0 ; 0.0 ; 0.0
1 ; 2.1562039501568366E7 ; 6.361093472955618E8 ; 2.154574818723265E7 ; 6.351984697196889E8 ; 0.0
2 ; 2.1589431212844104E7 ; 6.38873611984702E8 ; 4.310778768880102E7 ; 1.2713078170152507E9 ; 0.0
3 ; 2.1611679955833666E7 ; 6.434912796752079E8 ; 6.4697218901645124E7 ; 1.9101814289999528E9 ; 0.0
4 ; 2.1655465693473615E7 ; 6.499623646000288E8 ; 8.63088988574788E7 ; 2.5536727086751604E9 ; 0.0
5 ; 2.169938363819614E7 ; 6.582868792600088E8 ; 1.079643645509524E8 ; 3.2036350732751894E9 ; 0.0
6 ; 2.1773703277931526E7 ; 6.684648343550388E8 ; 1.2966374818914855E8 ; 3.861921952535198E9 ; 0.0
7 ; 2.1878668441417903E7 ; 6.80496238724184E8 ; 1.5143745146708006E8 ; 4.530386786890237E9 ; 0.0
8 ; 2.205291423014184E7 ; 6.943810992955706E8 ; 1.7331611990849796E8 ; 5.210883025614421E9 ; 0.0
9 ; 2.2309207666497E7 ; 7.10119421046686E8 ; 1.953690341386398E8 ; 5.905264124909991E9 ; 0.0
10 ; 2.2722761021988437E7 ; 7.277112069756336E8 ; 2.176782418051368E8 ; 6.615383545956677E9 ; 0.0
11 ; 2.3392708407446206E7 ; 7.471564580837233E8 ; 2.4040100282712525E8 ; 7.343094752932311E9 ; 0.0
12 ; 2.4483163442863382E7 ; 7.684551733696448E8 ; 2.6379371123457146E8 ; 8.090251211016034E9 ; 0.0
13 ; 2.552708561534752E7 ; 7.916073498352952E8 ; 2.8827687467743486E8 ; 8.85870638438568E9 ; 0.0
14 ; 2.5635811675929733E7 ; 8.166129825031871E8 ; 3.1380396029278237E8 ; 9.650313734220974E9 ; 0.0
15 ; 2.566082403425897E7 ; 8.434720644451938E8 ; 3.394397719687121E8 ; 1.0466926716724161E10 ; 0.0
16 ; 2.569259055727884E7 ; 8.72184586822251E8 ; 3.6510059600297105E8 ; 1.1310398781169355E10 ; 0.0
17 ; 2.572018576846622E7 ; 9.027505389344672E8 ; 3.907931865602499E8 ; 1.2182583367991606E10 ; 0.0
18 ; 2.575031361507489E7 ; 9.351699082809982E8 ; 4.1651337232871616E8 ; 1.3085333906926073E10 ; 0.0
19 ; 2.578364494197133E7 ; 9.694426806288952E8 ; 4.4226368594379103E8 ; 1.4020503815207071E10 ; 0.0
20 ; 2.5814577143680118E7 ; 1.005568840090059E9 ; 4.6804733088576233E8 ; 1.4989946495835966E10 ; 0.0
21 ; 2.5847367624011688E7 ; 1.0435483692053522E9 ; 4.938619080294424E8 ; 1.5995515335926025E10 ; 0.0
22 ; 2.5874083466161635E7 ; 1.0833812490348558E9 ; 5.197092756534541E8 ; 1.7039063705131378E10 ; 0.0
23 ; 2.591741230950956E7 ; 1.1250674592532356E9 ; 5.455833591196158E8 ; 1.8122444954166233E10 ; 0.0
24 ; 2.5941210266757544E7 ; 1.1686069782491524E9 ; 5.715007714291253E8 ; 1.9247512413419468E10 ; 0.0
25 ; 2.597909963225751E7 ; 1.2061280286167676E9 ; 5.974419816958828E8 ; 2.041611939166862E10 ; 0.0
26 ; 2.6010422028562855E7 ; 1.2061518734814818E9 ; 6.234210813281403E8 ; 2.162224742028539E10 ; 0.0
27 ; 2.603247160646579E7 ; 1.2061771037546802E9 ; 6.494315033567032E8 ; 2.2828399293766872E10 ; 0.0
28 ; 2.606304455631026E7 ; 1.206203693719718E9 ; 6.75463974963169E8 ; 2.4034576397521553E10 ; 0.0
29 ; 2.6100164472479798E7 ; 1.206231616895884E9 ; 7.015270195194793E8 ; 2.5240780091241272E10 ; 0.0
30 ; 2.6124360673405077E7 ; 1.206260846141229E9 ; 7.276271839919591E8 ; 2.6447011708137157E10 ; 0.0
31 ; 2.6157901848370615E7 ; 1.2062913537530093E9 ; 7.537515446653641E8 ; 2.7653272554278385E10 ; 0.0
32 ; 2.6182642618889526E7 ; 1.2063231115650997E9 ; 7.799094465137348E8 ; 2.8859563908031395E10 ; 0.0
33 ; 2.620780833701676E7 ; 1.2063560910418277E9 ; 8.060920891326244E8 ; 3.0065887019596497E10 ; 0.0
34 ; 2.623761550120718E7 ; 1.206390263367756E9 ; 8.322998974696412E8 ; 3.1272243110638325E10 ; 0.0
35 ; 2.6259203080239054E7 ; 1.206425599533044E9 ; 8.585375129708484E8 ; 3.247863337400608E10 ; 0.0
36 ; 2.627397270298781E7 ; 1.2064620704140837E9 ; 8.847967160510875E8 ; 3.3685058973539124E10 ; 0.0
37 ; 2.6292204699376844E7 ; 1.2064996468491936E9 ; 9.110706887540753E8 ; 3.489152104395321E10 ; 0.0
38 ; 2.631887050433959E7 ; 1.2065382997092273E9 ; 9.373628934534521E8 ; 3.60980206908024E10 ; 0.0
39 ; 2.6335089257697966E7 ; 1.2065779999630241E9 ; 9.636817639577917E8 ; 3.730455899051163E10 ; 0.0
40 ; 2.635247477196023E7 ; 1.206618718737675E9 ; 9.900168532154896E8 ; 3.8511136990474655E10 ; 0.0
41 ; 2.6371372575702377E7 ; 1.2066604273736532E9 ; 1.0163693279874499E9 ; 3.971775570921233E10 ; 0.0
42 ; 2.638558654978069E7 ; 1.206703097474888E9 ; 1.0427407005631523E9 ; 4.092441613658598E10 ; 0.0
43 ; 2.639184166439525E7 ; 1.206746700953908E9 ; 1.069126287112933E9 ; 4.2131119234060875E10 ; 0.0
44 ; 2.6407257205722805E7 ; 1.206791210072217E9 ; 1.0955181287773283E9 ; 4.3337865935014786E10 ; 0.0
45 ; 2.6409966000933688E7 ; 1.2068365974760847E9 ; 1.121925385983051E9 ; 4.4544657145087006E10 ; 0.0
46 ; 2.6418711705125082E7 ; 1.2068828362279663E9 ; 1.1483353519839847E9 ; 4.575149374256309E10 ; 0.0
47 ; 2.6425969668600265E7 ; 1.2069298998337703E9 ; 1.1747540636891098E9 ; 4.695837657879105E10 ; 0.0
48 ; 2.64284390913543E7 ; 1.2069777622662158E9 ; 1.2011800333577101E9 ; 4.8165306478624825E10 ; 0.0
49 ; 2.642788735690801E7 ; 1.2070263979845233E9 ; 1.2276084724490645E9 ; 4.937228424089104E10 ; 0.0
50 ; 2.6418582661524035E7 ; 1.2070757819506822E9 ; 1.2540363598059726E9 ; 5.057931063887556E10 ; 0.0
51 ; 2.6416426179024078E7 ; 1.2071258896425486E9 ; 1.2804549424674966E9 ; 5.178638642082624E10 ; 0.0
52 ; 2.6410996664295856E7 ; 1.2071766970640113E9 ; 1.3068713686465206E9 ; 5.299351231046879E10 ; 0.0
53 ; 2.6411146005659416E7 ; 1.2072281807524734E9 ; 1.3332823653108165E9 ; 5.42006890075328E10 ; 0.0
54 ; 2.640373925807673E7 ; 1.207280317783873E9 ; 1.3596935113164759E9 ; 5.540791718828527E10 ; 0.0
55 ; 2.6408449602508835E7 ; 1.2073330857754765E9 ; 1.3860972505745525E9 ; 5.6615197506069145E10 ; 0.0
56 ; 2.6398529784615897E7 ; 1.207386462886652E9 ; 1.4125057001770613E9 ; 5.782253059184462E10 ; 0.0
57 ; 2.639708067051299E7 ; 1.20744042781783E9 ; 1.4389042299616773E9 ; 5.902991705473127E10 ; 0.0
58 ; 2.6385164511849925E7 ; 1.2074949598078442E9 ; 1.4653013106321902E9 ; 6.02373574825491E10 ; 0.0
59 ; 2.6385003516283814E7 ; 1.2075500386298277E9 ; 1.49168647514404E9 ; 6.144485244235695E10 ; 0.0
60 ; 2.6377815609752845E7 ; 1.2076056445858455E9 ; 1.5180714786603239E9 ; 6.265240248098678E10 ; 0.0
61 ; 2.6371789470804658E7 ; 1.207661758500407E9 ; 1.5444492942700768E9 ; 6.3860008125572624E10 ; 0.0
62 ; 2.637213872836546E7 ; 1.2077183617130172E9 ; 1.5708210837408814E9 ; 6.506766988407303E10 ; 0.0
63 ; 2.6358328464283407E7 ; 1.2077754360698912E9 ; 1.5971932224692469E9 ; 6.627538824578605E10 ; 0.0
64 ; 2.6345852769134156E7 ; 1.2078329639149628E9 ; 1.6235515509335303E9 ; 6.748316368185594E10 ; 0.0
65 ; 2.6342270873006463E7 ; 1.2078909280802965E9 ; 1.6498974037026644E9 ; 6.8690996645770905E10 ; 0.0
66 ; 2.6336380521136675E7 ; 1.2079493118760097E9 ; 1.6762396745756707E9 ; 6.98988875738512E10 ; 0.0
67 ; 2.632942954798439E7 ; 1.2080080990797942E9 ; 1.7025760550968075E9 ; 7.11068368857272E10 ; 0.0
68 ; 2.6320499146089412E7 ; 1.2080672739261267E9 ; 1.7289054846447918E9 ; 7.231484498480699E10 ; 0.0
69 ; 2.6305148113661654E7 ; 1.2081268210952413E9 ; 1.7552259837908812E9 ; 7.352291225873312E10 ; 0.0
70 ; 2.6302327682200417E7 ; 1.2081867257019343E9 ; 1.781531131904543E9 ; 7.473103907982837E10 ; 0.0
71 ; 2.6289971325772103E7 ; 1.2082469732842622E9 ; 1.8078334595867434E9 ; 7.59392258055303E10 ; 0.0
72 ; 2.6271474644605972E7 ; 1.208307549792187E9 ; 1.8341234309125154E9 ; 7.714747277881456E10 ; 0.0
73 ; 2.6272402269617528E7 ; 1.2083684415762177E9 ; 1.8603949055571213E9 ; 7.835578032860675E10 ; 0.0
74 ; 2.62531231573341E7 ; 1.2084296353760898E9 ; 1.8866673078267388E9 ; 7.956414877018297E10 ; 0.0
75 ; 2.623776816223576E7 ; 1.2084911183095195E9 ; 1.912920430984073E9 ; 8.077257840555905E10 ; 0.0
76 ; 2.623000276252891E7 ; 1.2085528778610678E9 ; 1.9391581991463087E9 ; 8.198106952386858E10 ; 0.0
77 ; 2.622780684735009E7 ; 1.2086149018711383E9 ; 1.9653882019088376E9 ; 8.318962240172964E10 ; 0.0
78 ; 2.6194080453242637E7 ; 1.2086771785251367E9 ; 1.9916160087561877E9 ; 8.439823730360078E10 ; 0.0
79 ; 2.6173489109122656E7 ; 1.2087396963428087E9 ; 2.0178100892094302E9 ; 8.560691448212592E10 ; 0.0
80 ; 2.6149494591949306E7 ; 1.2088024441677775E9 ; 2.043983578318553E9 ; 8.681565417846872E10 ; 0.0
81 ; 2.6124345479720507E7 ; 1.2088654111572907E9 ; 2.0701330729105022E9 ; 8.802445662263649E10 ; 0.0
82 ; 2.6095087396095477E7 ; 1.2089285867721922E9 ; 2.0962574183902228E9 ; 8.923332203379378E10 ; 0.0
83 ; 2.6067284061948173E7 ; 1.2089919607671258E9 ; 2.1223525057863183E9 ; 9.044225062056596E10 ; 0.0
84 ; 2.6042897723913528E7 ; 1.2090555231809778E9 ; 2.1484197898482666E9 ; 9.165124258133308E10 ; 0.0
85 ; 2.6014549518306356E7 ; 1.2091192643275652E9 ; 2.1744626875721803E9 ; 9.286029810451407E10 ; 0.0
86 ; 2.5985333803391006E7 ; 1.2091831747865725E9 ; 2.2004772370904865E9 ; 9.406941736884163E10 ; 0.0
87 ; 2.5953575161723897E7 ; 1.2092472453947377E9 ; 2.2264625708938775E9 ; 9.52786005436282E10 ; 0.0
88 ; 2.5929480469058428E7 ; 1.209311467237291E9 ; 2.2524161460556016E9 ; 9.648784778902295E10 ; 0.0
89 ; 2.590211406424632E7 ; 1.209375831639645E9 ; 2.27834562652466E9 ; 9.769715925626024E10 ; 0.0
90 ; 2.587743733985689E7 ; 1.2094403301593328E9 ; 2.3042477405889063E9 ; 9.890653508789989E10 ; 0.0
91 ; 2.5844987195490837E7 ; 1.2095049545781956E9 ; 2.3301251779287634E9 ; 1.0011597541805922E11 ; 0.0
92 ; 2.5813511795442343E7 ; 1.209569696894816E9 ; 2.355970165124254E9 ; 1.0132548037263742E11 ; 0.0
93 ; 2.5783429296725318E7 ; 1.2096345493171906E9 ; 2.381783676919697E9 ; 1.0253505006953224E11 ; 0.0
94 ; 2.5752150604272462E7 ; 1.209699504255643E9 ; 2.407567106216422E9 ; 1.0374468461884943E11 ; 0.0
95 ; 2.572432410543469E7 ; 1.2097645543159676E9 ; 2.4333192568206944E9 ; 1.0495438412310507E11 ; 0.0
96 ; 2.569539043624108E7 ; 1.2098296922928052E9 ; 2.4590435809261293E9 ; 1.0616414867742104E11 ; 0.0
97 ; 2.566350784240494E7 ; 1.2098949111632385E9 ; 2.4847389713623705E9 ; 1.0737397836971384E11 ; 0.0
98 ; 2.5633283323597353E7 ; 1.2099602040806088E9 ; 2.5104024792047753E9 ; 1.0858387328087708E11 ; 0.0
99 ; 2.560161362429843E7 ; 1.2100255643685448E9 ; 2.536035762528373E9 ; 1.0979383348495769E11 ; 0.0
100 ; 2.556964973729061E7 ; 1.2100909855151985E9 ; 2.5616373761526713E9 ; 1.1100385904932623E11 ; 0.0
101 ; 2.5538408374373265E7 ; 1.2101564611676824E9 ; 2.5872070258899617E9 ; 1.1221395003484143E11 ; 0.0
102 ; 2.550266943294846E7 ; 1.2102219851267042E9 ; 2.612745434264335E9 ; 1.1342410649600911E11 ; 0.0
103 ; 2.5468914530591402E7 ; 1.2102875513413906E9 ; 2.6382481036972837E9 ; 1.1463432848113582E11 ; 0.0
104 ; 2.543898799279003E7 ; 1.2103531539042954E9 ; 2.663717018227875E9 ; 1.158446160324772E11 ; 0.0
105 ; 2.5396999628071815E7 ; 1.210418787046587E9 ; 2.6891560062206655E9 ; 1.170549691863815E11 ; 0.0
106 ; 2.5371080203568608E7 ; 1.2104844451334095E9 ; 2.7145530058487372E9 ; 1.1826538797342809E11 ; 0.0
107 ; 2.5332326914648604E7 ; 1.2105501226594102E9 ; 2.7399240860523057E9 ; 1.194758724185615E11 ; 0.0
108 ; 2.5297995543939687E7 ; 1.210615814244429E9 ; 2.765256412966954E9 ; 1.206864225412209E11 ; 0.0
109 ; 2.5261736319021136E7 ; 1.2106815146293476E9 ; 2.790554408510894E9 ; 1.2189703835546533E11 ; 0.0
110 ; 2.5224009320859574E7 ; 1.2107472186720846E9 ; 2.815816144829915E9 ; 1.2310771987009468E11 ; 0.0
111 ; 2.5188764158837304E7 ; 1.2108129213437414E9 ; 2.8410401541507745E9 ; 1.2431846708876677E11 ; 0.0
112 ; 2.515833893093463E7 ; 1.2108786177248876E9 ; 2.866228918309612E9 ; 1.255292800101105E11 ; 0.0
113 ; 2.511272427486916E7 ; 1.2109443030019808E9 ; 2.891387257240546E9 ; 1.2674015862783539E11 ; 0.0
114 ; 2.5081814609843086E7 ; 1.2110099724639204E9 ; 2.916499981515415E9 ; 1.2795110293083737E11 ; 0.0
115 ; 2.504151521133089E7 ; 1.211075621498725E9 ; 2.9415817961252584E9 ; 1.2916211290330128E11 ; 0.0
116 ; 2.5005549472489364E7 ; 1.2111412455903354E9 ; 2.9666233113365893E9 ; 1.303731885248E11 ; 0.0
117 ; 2.496552551807444E7 ; 1.2112068403155303E9 ; 2.9916288608090787E9 ; 1.3158432977039034E11 ; 0.0
118 ; 2.4931134970677443E7 ; 1.2112724013409603E9 ; 3.016594386327153E9 ; 1.3279553661070587E11 ; 0.0
119 ; 2.4891871173910916E7 ; 1.2113379244202867E9 ; 3.0415255212978306E9 ; 1.3400680901204683E11 ; 0.0
120 ; 2.4857758786188666E7 ; 1.211403405391427E9 ; 3.0664173924717417E9 ; 1.3521814693646712E11 ; 0.0
121 ; 2.4813440998478435E7 ; 1.2114688401739035E9 ; 3.0912751512579303E9 ; 1.3642955034185855E11 ; 0.0
122 ; 2.4768078007363167E7 ; 1.2115342247662835E9 ; 3.1160885922564087E9 ; 1.3764101918203244E11 ; 0.0
123 ; 2.4734412227471463E7 ; 1.2115995552437205E9 ; 3.140856670263772E9 ; 1.3885255340679874E11 ; 0.0
124 ; 2.46894659711192E7 ; 1.2116648277555788E9 ; 3.1655910824912434E9 ; 1.4006415296204245E11 ; 0.0
125 ; 2.4651960207099434E7 ; 1.2117300385231493E9 ; 3.190280548462363E9 ; 1.4127581778979803E11 ; 0.0
126 ; 2.4610952820658445E7 ; 1.2117951838374472E9 ; 3.214932508669462E9 ; 1.424875478283212E11 ; 0.0
127 ; 2.4570799480254285E7 ; 1.2118602600570889E9 ; 3.239543461490121E9 ; 1.4369934301215863E11 ; 0.0
128 ; 2.4530815436698936E7 ; 1.2119252636062489E9 ; 3.264114260970375E9 ; 1.4491120327221573E11 ; 0.0
129 ; 2.4485555005591363E7 ; 1.211990190972687E9 ; 3.288645076407074E9 ; 1.46123128535822E11 ; 0.0
130 ; 2.4431497056138072E7 ; 1.2120550387058518E9 ; 3.3131306314126654E9 ; 1.4733511872679468E11 ; 0.0
131 ; 2.43846091651062E7 ; 1.212119803415048E9 ; 3.3375621284688034E9 ; 1.4854717376550052E11 ; 0.0
132 ; 2.4324080556674723E7 ; 1.2121844817676735E9 ; 3.3619467376339097E9 ; 1.4975929356891556E11 ; 0.0
133 ; 2.4269780654866844E7 ; 1.2122490704875197E9 ; 3.3862708181905847E9 ; 1.5097147805068323E11 ; 0.0
134 ; 2.4207781982937813E7 ; 1.2123135663531299E9 ; 3.4105405988454514E9 ; 1.5218372712117075E11 ; 0.0
135 ; 2.4160404878196128E7 ; 1.21237796619622E9 ; 3.434748380828389E9 ; 1.5339604068752386E11 ; 0.0
136 ; 2.4094098284183003E7 ; 1.212442266900155E9 ; 3.4589087857065854E9 ; 1.546084186537201E11 ; 0.0
137 ; 2.403965482467486E7 ; 1.2125064653984787E9 ; 3.4830028839907684E9 ; 1.5582086092062024E11 ; 0.0
138 ; 2.397733611776904E7 ; 1.212570558673498E9 ; 3.5070425388154435E9 ; 1.570333673860187E11 ; 0.0
139 ; 2.3923803367802072E7 ; 1.2126345437549136E9 ; 3.5310198749332128E9 ; 1.582459379446922E11 ; 0.0
140 ; 2.3867176892904986E7 ; 1.2126984177185047E9 ; 3.554943678301015E9 ; 1.594585724884471E11 ; 0.0
141 ; 2.38195017190251E7 ; 1.212762177684856E9 ; 3.5788108551939197E9 ; 1.6067127090616562E11 ; 0.0
142 ; 2.3748178726719387E7 ; 1.2128258208181305E9 ; 3.602630356912945E9 ; 1.6188403308385046E11 ; 0.0
143 ; 2.3690385772430412E7 ; 1.2128893443248887E9 ; 3.626378535639664E9 ; 1.6309685890466858E11 ; 0.0
144 ; 2.3631900100411274E7 ; 1.2129527454529433E9 ; 3.6500689214120946E9 ; 1.6430974824899347E11 ; 0.0
145 ; 2.3586678644137353E7 ; 1.2130160214902594E9 ; 3.673700821512506E9 ; 1.655227009944464E11 ; 0.0
146 ; 2.354240038533101E7 ; 1.2130791697638905E9 ; 3.6972875001566434E9 ; 1.6673571701593668E11 ; 0.0
147 ; 2.3499817293332018E7 ; 1.2131421876389525E9 ; 3.7208299005419745E9 ; 1.6794879618570056E11 ; 0.0
148 ; 2.3462355704547856E7 ; 1.2132050725176325E9 ; 3.7443297178353066E9 ; 1.691619383733395E11 ; 0.0
149 ; 2.341228038163153E7 ; 1.2132678218382318E9 ; 3.7677920735398545E9 ; 1.7037514344585715E11 ; 0.0
150 ; 2.336963803654068E7 ; 1.2133304330742445E9 ; 3.791204353921486E9 ; 1.7158841126769537E11 ; 0.0
151 ; 2.3331164813231543E7 ; 1.2133929037334642E9 ; 3.8145739919580264E9 ; 1.7280174170076962E11 ; 0.0
152 ; 2.3278894726922676E7 ; 1.2134552313571234E9 ; 3.837905156771258E9 ; 1.7401513460450308E11 ; 0.0
153 ; 2.3237226668357797E7 ; 1.2135174135190625E9 ; 3.8611840514981804E9 ; 1.752285898358602E11 ; 0.0
154 ; 2.3192970326644894E7 ; 1.2135794478249266E9 ; 3.8844212781665382E9 ; 1.7644210724937927E11 ; 0.0
155 ; 2.3150524046714615E7 ; 1.2136413319113894E9 ; 3.907614248493183E9 ; 1.776556866972042E11 ; 0.0
156 ; 2.3104972189758502E7 ; 1.2137030634454045E9 ; 3.930764772539898E9 ; 1.7886932802911557E11 ; 0.0
157 ; 2.306476723027932E7 ; 1.2137646401234808E9 ; 3.953869744729656E9 ; 1.8008303109256097E11 ; 0.0
158 ; 2.3013290373653222E7 ; 1.213826059670983E9 ; 3.9769345119599357E9 ; 1.8129679573268445E11 ; 0.0
159 ; 2.2970880628767803E7 ; 1.2138873198414574E9 ; 3.999947802333589E9 ; 1.8251062179235544E11 ; 0.0
160 ; 2.2922049698394835E7 ; 1.213948418415975E9 ; 4.022918682962357E9 ; 1.837245091121969E11 ; 0.0
161 ; 2.2884981098110758E7 ; 1.214009353202504E9 ; 4.045840732660752E9 ; 1.8493845753061288E11 ; 0.0
162 ; 2.2837327670103934E7 ; 1.214070122035297E9 ; 4.0687257137588625E9 ; 1.861524668838154E11 ; 0.0
163 ; 2.2795648396364354E7 ; 1.2141307227743015E9 ; 4.0915630414289665E9 ; 1.873665370058507E11 ; 0.0
164 ; 2.2744756626027778E7 ; 1.2141911533045907E9 ; 4.1143586898253307E9 ; 1.88580667728625E11 ; 0.0
165 ; 2.2698449414732516E7 ; 1.2142514115358105E9 ; 4.1371034464513583E9 ; 1.897948588819296E11 ; 0.0
166 ; 2.266041909160589E7 ; 1.2143114954016464E9 ; 4.159801895866091E9 ; 1.910091102934654E11 ; 0.0
167 ; 2.260927108904936E7 ; 1.2143714028593087E9 ; 4.1824623149576964E9 ; 1.9222342178886703E11 ; 0.0
168 ; 2.256845628975959E7 ; 1.214431131889033E9 ; 4.205071586046746E9 ; 1.9343779319172635E11 ; 0.0
169 ; 2.2523639766801517E7 ; 1.2144906804935977E9 ; 4.2276400423365054E9 ; 1.946522243236154E11 ; 0.0
170 ; 2.2472587220164463E7 ; 1.2145500466978574E9 ; 4.250163682103307E9 ; 1.9586671500410898E11 ; 0.0
171 ; 2.2426033554510146E7 ; 1.2146092285482917E9 ; 4.272636269323471E9 ; 1.9708126505080682E11 ; 0.0
172 ; 2.2383363169468343E7 ; 1.2146682241125674E9 ; 4.295062302877981E9 ; 1.982958742793551E11 ; 0.0
173 ; 2.2338688926482458E7 ; 1.2147270314791176E9 ; 4.317445666047449E9 ; 1.9951054250346768E11 ; 0.0
174 ; 2.2297932048311166E7 ; 1.21478564875673E9 ; 4.339784354973931E9 ; 2.007252695349468E11 ; 0.0
175 ; 2.2264276083537754E7 ; 1.2148440740741544E9 ; 4.362082287022243E9 ; 2.0194005518370355E11 ; 0.0
176 ; 2.22310921526241E7 ; 1.2149023055797157E9 ; 4.384346563105781E9 ; 2.031548992577777E11 ; 0.0
177 ; 2.2194468121784255E7 ; 1.2149603414409463E9 ; 4.406577655258405E9 ; 2.0436980156335742E11 ; 0.0
178 ; 2.215538480450865E7 ; 1.2150181798442256E9 ; 4.428772123380189E9 ; 2.0558476190479837E11 ; 0.0
179 ; 2.211794471192933E7 ; 1.2150758189944334E9 ; 4.450927508184697E9 ; 2.067997800846426E11 ; 0.0
180 ; 2.2080977614880532E7 ; 1.2151332571146111E9 ; 4.473045452896626E9 ; 2.0801485590363705E11 ; 0.0
181 ; 2.2039866146935113E7 ; 1.2151904924456387E9 ; 4.495126430511507E9 ; 2.0922998916075168E11 ; 0.0
182 ; 2.2005803758940414E7 ; 1.2152475232459185E9 ; 4.5171662966584425E9 ; 2.1044517965319733E11 ; 0.0
183 ; 2.1968774602061052E7 ; 1.2153043477910678E9 ; 4.539172100417383E9 ; 2.1166042717644324E11 ; 0.0
184 ; 2.1932838811293673E7 ; 1.2153609643736258E9 ; 4.561140875019444E9 ; 2.128757315242343E11 ; 0.0
185 ; 2.1895116595962353E7 ; 1.215417371302765E9 ; 4.583073713830738E9 ; 2.1409109248860794E11 ; 0.0
186 ; 2.1856457432066813E7 ; 1.2154735669040136E9 ; 4.604968830426701E9 ; 2.153065098599107E11 ; 0.0
187 ; 2.182374271590565E7 ; 1.2155295495189888E9 ; 4.6268252878587675E9 ; 2.1652198342681473E11 ; 0.0
188 ; 2.178182164656629E7 ; 1.2155853175051332E9 ; 4.648649030574673E9 ; 2.177375129763337E11 ; 0.0
189 ; 2.1742026181512617E7 ; 1.2156408692354639E9 ; 4.670430852221239E9 ; 2.1895309829383884E11 ; 0.0
190 ; 2.169971802989994E7 ; 1.215696203098329E9 ; 4.692172878402752E9 ; 2.201687391630743E11 ; 0.0
191 ; 2.16714054216391E7 ; 1.215751317497169E9 ; 4.7138725964326515E9 ; 2.2138443536617264E11 ; 0.0
192 ; 2.1630747636790607E7 ; 1.215806210850287E9 ; 4.735544001854291E9 ; 2.226001866836698E11 ; 0.0
193 ; 2.1596184147847332E7 ; 1.215860881590628E9 ; 4.757174749491081E9 ; 2.2381599289452008E11 ; 0.0
194 ; 2.1561673620934792E7 ; 1.2159153281655612E9 ; 4.778770933638928E9 ; 2.2503185377611072E11 ; 0.0
195 ; 2.1518140031580996E7 ; 1.215969549036672E9 ; 4.800332607259863E9 ; 2.2624776910427628E11 ; 0.0
