CSV File for the Network on Day 328
1 - Minute m 
2 - Power Consumed at minute m 
3 - Power Produced at minute m 
4 - Energy Consumed since the beginning of the day 
5 - Energy Produced since the beginning of the day 
6 - Energy Lost since the beginning of the day 
 
0 ; 3.882436902760063E7 ; 6.373235746132761E8 ; 0.0 ; 0.0 ; 0.0
1 ; 3.8865268338859126E7 ; 6.382338240993258E8 ; 3.882436902760063E7 ; 6.373235746132761E8 ; 0.0
2 ; 3.891973763235142E7 ; 6.40997539441394E8 ; 7.768963736645976E7 ; 1.275557398712602E9 ; 0.0
3 ; 3.8961969730228186E7 ; 6.456147324988661E8 ; 1.1660937499881119E8 ; 1.916554938153996E9 ; 0.0
4 ; 3.902211143423309E7 ; 6.520854138461602E8 ; 1.5557134472903937E8 ; 2.562169670652862E9 ; 0.0
5 ; 3.908376207127797E7 ; 6.604095927325637E8 ; 1.9459345616327247E8 ; 3.2142550844990225E9 ; 0.0
6 ; 3.917382440609206E7 ; 6.705872770466467E8 ; 2.3367721823455045E8 ; 3.8746646772315865E9 ; 0.0
7 ; 3.930996914325446E7 ; 6.826184732855806E8 ; 2.728510426406425E8 ; 4.545251954278234E9 ; 0.0
8 ; 3.94978160259259E7 ; 6.965031865296324E8 ; 3.12161011783897E8 ; 5.227870427563814E9 ; 0.0
9 ; 3.978160581188197E7 ; 7.122414204220773E8 ; 3.5165882780982286E8 ; 5.924373614093447E9 ; 0.0
10 ; 4.021950534508136E7 ; 7.298331771547133E8 ; 3.914404336217048E8 ; 6.636615034515524E9 ; 0.0
11 ; 4.090888317449248E7 ; 7.492784574591146E8 ; 4.3165993896678615E8 ; 7.366448211670238E9 ; 0.0
12 ; 4.201151798867719E7 ; 7.705772606037066E8 ; 4.725688221412786E8 ; 8.115726669129353E9 ; 0.0
13 ; 4.307912395652476E7 ; 7.937295843966918E8 ; 5.145803401299558E8 ; 8.886303929733059E9 ; 0.0
14 ; 4.320629049733485E7 ; 8.187354251947949E8 ; 5.576594640864806E8 ; 9.680033514129751E9 ; 0.0
15 ; 4.325769542595903E7 ; 8.455947779177487E8 ; 6.008657545838155E8 ; 1.0498768939324547E10 ; 0.0
16 ; 4.331157221666078E7 ; 8.743076360683824E8 ; 6.441234500097744E8 ; 1.1344363717242296E10 ; 0.0
17 ; 4.336177077583681E7 ; 9.048739917581254E8 ; 6.874350222264352E8 ; 1.2218671353310678E10 ; 0.0
18 ; 4.341662306836012E7 ; 9.372938357376902E8 ; 7.30796793002272E8 ; 1.3123545345068804E10 ; 0.0
19 ; 4.3457775798645645E7 ; 9.71567157432659E8 ; 7.742134160706321E8 ; 1.4060839180806494E10 ; 0.0
20 ; 4.3522663983698145E7 ; 1.0076939449836463E9 ; 8.176711918692777E8 ; 1.5032406338239153E10 ; 0.0
21 ; 4.356889654243676E7 ; 1.0456741852906928E9 ; 8.611938558529758E8 ; 1.60401002832228E10 ; 0.0
22 ; 4.3625917471467085E7 ; 1.0855078640615003E9 ; 9.047627523954126E8 ; 1.7085774468513493E10 ; 0.0
23 ; 4.3675635588519655E7 ; 1.1271949658631084E9 ; 9.483886698668797E8 ; 1.8171282332574993E10 ; 0.0
24 ; 4.372315685033609E7 ; 1.1707354741765785E9 ; 9.920643054553994E8 ; 1.9298477298438103E10 ; 0.0
25 ; 4.3777826640198946E7 ; 1.2082576168433661E9 ; 1.0357874623057355E9 ; 2.046921277261468E10 ; 0.0
26 ; 4.382761894330487E7 ; 1.2082826623460958E9 ; 1.0795652889459343E9 ; 2.1677470389458046E10 ; 0.0
27 ; 4.3885353428773835E7 ; 1.2083092070190864E9 ; 1.123392907889239E9 ; 2.2885753051804142E10 ; 0.0
28 ; 4.393552536810265E7 ; 1.2083372305913455E9 ; 1.167278261318013E9 ; 2.4094062258823227E10 ; 0.0
29 ; 4.398686792838991E7 ; 1.208366712009244E9 ; 1.2112137866861155E9 ; 2.5302399489414574E10 ; 0.0
30 ; 4.4030727837068304E7 ; 1.2083976295001395E9 ; 1.2552006546145053E9 ; 2.6510766201423817E10 ; 0.0
31 ; 4.407814576353447E7 ; 1.2084299606360407E9 ; 1.2992313824515736E9 ; 2.7719163830923958E10 ; 0.0
32 ; 4.413077177807654E7 ; 1.2084636823969314E9 ; 1.3433095282151082E9 ; 2.8927593791559998E10 ; 0.0
33 ; 4.417340191288066E7 ; 1.2084987712334156E9 ; 1.3874402999931848E9 ; 3.013605747395693E10 ; 0.0
34 ; 4.422070564938436E7 ; 1.208535203128366E9 ; 1.4316137019060655E9 ; 3.1344556245190346E10 ; 0.0
35 ; 4.427045898089054E7 ; 1.208572953657282E9 ; 1.4758344075554497E9 ; 3.255309144831871E10 ; 0.0
36 ; 4.430280338078449E7 ; 1.2086119980471044E9 ; 1.5201048665363402E9 ; 3.3761664401975994E10 ; 0.0
37 ; 4.435059958741344E7 ; 1.2086523112332475E9 ; 1.5644076699171247E9 ; 3.49702764000231E10 ; 0.0
38 ; 4.4387717040952116E7 ; 1.208693867914662E9 ; 1.6087582695045383E9 ; 3.617892871125635E10 ; 0.0
39 ; 4.442603101573144E7 ; 1.2087366426067467E9 ; 1.6531459865454905E9 ; 3.738762257917101E10 ; 0.0
40 ; 4.445530199863659E7 ; 1.2087806096919794E9 ; 1.6975720175612218E9 ; 3.8596359221777756E10 ; 0.0
41 ; 4.4489384847568944E7 ; 1.20882574346815E9 ; 1.7420273195598583E9 ; 3.9805139831469734E10 ; 0.0
42 ; 4.452500518147871E7 ; 1.2088720181941092E9 ; 1.7865167044074273E9 ; 4.101396557493788E10 ; 0.0
43 ; 4.4557920697966225E7 ; 1.2089194081329794E9 ; 1.831041709588906E9 ; 4.222283759313199E10 ; 0.0
44 ; 4.45830575163091E7 ; 1.208967887592784E9 ; 1.8755996302868724E9 ; 4.343175700126497E10 ; 0.0
45 ; 4.461815658885437E7 ; 1.2090174309644866E9 ; 1.9201826878031814E9 ; 4.464072488885775E10 ; 0.0
46 ; 4.4648435956175804E7 ; 1.2090680127574403E9 ; 1.9648008443920357E9 ; 4.5849742319822235E10 ; 0.0
47 ; 4.466704229475141E7 ; 1.209119607632272E9 ; 2.0094492803482115E9 ; 4.705881033257967E10 ; 0.0
48 ; 4.469186372577258E7 ; 1.2091721904312415E9 ; 2.054116322642963E9 ; 4.8267929940211945E10 ; 0.0
49 ; 4.470049801621105E7 ; 1.2092257362061245E9 ; 2.0988081863687356E9 ; 4.947710213064319E10 ; 0.0
50 ; 4.47288143086959E7 ; 1.2092802202436836E9 ; 2.1435086843849466E9 ; 5.068632786684931E10 ; 0.0
51 ; 4.473709874089817E7 ; 1.2093356180888054E9 ; 2.1882374986936426E9 ; 5.1895608087092995E10 ; 0.0
52 ; 4.4759882802394725E7 ; 1.209391905565382E9 ; 2.2329745974345407E9 ; 5.31049437051818E10 ; 0.0
53 ; 4.4774798009819545E7 ; 1.2094490587950277E9 ; 2.2777344802369356E9 ; 5.4314335610747185E10 ; 0.0
54 ; 4.4784915733138874E7 ; 1.2095070542137237E9 ; 2.322509278246755E9 ; 5.552378466954221E10 ; 0.0
55 ; 4.480398800851388E7 ; 1.2095658685864952E9 ; 2.367294193979894E9 ; 5.6733291723755936E10 ; 0.0
56 ; 4.481113056296417E7 ; 1.2096254790202112E9 ; 2.412098181988408E9 ; 5.794285759234243E10 ; 0.0
57 ; 4.4829667878587596E7 ; 1.209685862974621E9 ; 2.456909312551372E9 ; 5.915248307136264E10 ; 0.0
58 ; 4.484723983980948E7 ; 1.2097469982717214E9 ; 2.50173898042996E9 ; 6.0362168934337265E10 ; 0.0
59 ; 4.486035696260159E7 ; 1.209808863103563E9 ; 2.546586220269769E9 ; 6.1571915932608986E10 ; 0.0
60 ; 4.487293543272276E7 ; 1.2098714360385942E9 ; 2.591446577232371E9 ; 6.278172479571255E10 ; 0.0
61 ; 4.488573680113889E7 ; 1.2099346960266423E9 ; 2.6363195126650934E9 ; 6.3991596231751144E10 ; 0.0
62 ; 4.488908258565567E7 ; 1.2099986224026325E9 ; 2.6812052494662323E9 ; 6.520153092777779E10 ; 0.0
63 ; 4.49070787554433E7 ; 1.2100631948891344E9 ; 2.726094332051888E9 ; 6.641152955018042E10 ; 0.0
64 ; 4.491300469156739E7 ; 1.2101283935978317E9 ; 2.771001410807331E9 ; 6.762159274506956E10 ; 0.0
65 ; 4.493276310215323E7 ; 1.2101941990299993E9 ; 2.8159144154988985E9 ; 6.883172113866739E10 ; 0.0
66 ; 4.493823650834028E7 ; 1.2102605920760756E9 ; 2.860847178601052E9 ; 7.004191533769739E10 ; 0.0
67 ; 4.494902257183978E7 ; 1.2103275540144086E9 ; 2.905785415109392E9 ; 7.125217592977347E10 ; 0.0
68 ; 4.496488087082606E7 ; 1.2103950665092483E9 ; 2.950734437681232E9 ; 7.246250348378787E10 ; 0.0
69 ; 4.497217331717517E7 ; 1.2104631116080663E9 ; 2.995699318552058E9 ; 7.367289855029712E10 ; 0.0
70 ; 4.4974235929049484E7 ; 1.2105316717382631E9 ; 3.0406714918692336E9 ; 7.488336166190518E10 ; 0.0
71 ; 4.498451187777382E7 ; 1.2106007297033293E9 ; 3.085645727798283E9 ; 7.609389333364345E10 ; 0.0
72 ; 4.499710494516495E7 ; 1.2106702686785245E9 ; 3.130630239676057E9 ; 7.730449406334677E10 ; 0.0
73 ; 4.500582410683424E7 ; 1.2107402722061236E9 ; 3.175627344621222E9 ; 7.85151643320253E10 ; 0.0
74 ; 4.500199788560882E7 ; 1.2108107241902905E9 ; 3.2206331687280564E9 ; 7.972590460423143E10 ; 0.0
75 ; 4.501730345490784E7 ; 1.2108816088916216E9 ; 3.265635166613665E9 ; 8.093671532842172E10 ; 0.0
76 ; 4.502624090439456E7 ; 1.210952910921409E9 ; 3.310652470068573E9 ; 8.214759693731334E10 ; 0.0
77 ; 4.502555628339662E7 ; 1.211024615235661E9 ; 3.3556787109729676E9 ; 8.335854984823474E10 ; 0.0
78 ; 4.502242514534723E7 ; 1.2110967071289256E9 ; 3.4007042672563643E9 ; 8.45695744634704E10 ; 0.0
79 ; 4.5018631945754625E7 ; 1.2111691722279418E9 ; 3.4457266924017115E9 ; 8.578067117059932E10 ; 0.0
80 ; 4.5011495593004644E7 ; 1.2112419964851632E9 ; 3.490745324347466E9 ; 8.699184034282726E10 ; 0.0
81 ; 4.499882443044804E7 ; 1.2113151661721754E9 ; 3.5357568199404707E9 ; 8.820308233931242E10 ; 0.0
82 ; 4.49960467300127E7 ; 1.2113886678730369E9 ; 3.5807556443709188E9 ; 8.94143975054846E10 ; 0.0
83 ; 4.4980090790308E7 ; 1.211462488477571E9 ; 3.6257516911009316E9 ; 9.062578617335764E10 ; 0.0
84 ; 4.4975620060466856E7 ; 1.2115366151746259E9 ; 3.6707317818912396E9 ; 9.18372486618352E10 ; 0.0
85 ; 4.496923829500601E7 ; 1.2116110354453278E9 ; 3.7157074019517064E9 ; 9.304878527700983E10 ; 0.0
86 ; 4.496170552731216E7 ; 1.2116857370563433E9 ; 3.760676640246712E9 ; 9.426039631245515E10 ; 0.0
87 ; 4.4949120166452855E7 ; 1.2117607080531695E9 ; 3.8056383457740245E9 ; 9.54720820495115E10 ; 0.0
88 ; 4.4937794098801196E7 ; 1.2118359367534618E9 ; 3.8505874659404774E9 ; 9.668384275756468E10 ; 0.0
89 ; 4.491860338171163E7 ; 1.2119114117404187E9 ; 3.8955252600392785E9 ; 9.789567869431815E10 ; 0.0
90 ; 4.491422478183633E7 ; 1.2119871218562303E9 ; 3.94044386342099E9 ; 9.910759010605856E10 ; 0.0
91 ; 4.4900922828844205E7 ; 1.2120630561956031E9 ; 3.9853580882028265E9 ; 1.003195772279148E11 ; 0.0
92 ; 4.48832411344727E7 ; 1.2121392040993693E9 ; 4.0302590110316706E9 ; 1.015316402841104E11 ; 0.0
93 ; 4.487674300268357E7 ; 1.2122155551481903E9 ; 4.0751422521661434E9 ; 1.0274377948820976E11 ; 0.0
94 ; 4.486266352197641E7 ; 1.2122920991563544E9 ; 4.120018995168827E9 ; 1.0395599504335796E11 ; 0.0
95 ; 4.4848043595244825E7 ; 1.2123688261656854E9 ; 4.1648816586908035E9 ; 1.0516828714251431E11 ; 0.0
96 ; 4.483660119276881E7 ; 1.212445726439557E9 ; 4.2097297022860484E9 ; 1.0638065596868E11 ; 0.0
97 ; 4.48251374166557E7 ; 1.2125227904570212E9 ; 4.254566303478817E9 ; 1.0759310169511955E11 ; 0.0
98 ; 4.481269631942295E7 ; 1.2126000089070559E9 ; 4.299391440895473E9 ; 1.0880562448557657E11 ; 0.0
99 ; 4.478930963974196E7 ; 1.2126773726829271E9 ; 4.344204137214895E9 ; 1.1001822449448363E11 ; 0.0
100 ; 4.476836627153656E7 ; 1.2127548728766794E9 ; 4.388993446854637E9 ; 1.1123090186716655E11 ; 0.0
101 ; 4.47689636326371E7 ; 1.212832500773743E9 ; 4.433761813126174E9 ; 1.1244365674004323E11 ; 0.0
102 ; 4.474405717110695E7 ; 1.2129102478476672E9 ; 4.478530776758811E9 ; 1.1365648924081697E11 ; 0.0
103 ; 4.473017872557782E7 ; 1.2129881057549796E9 ; 4.523274833929918E9 ; 1.1486939948866464E11 ; 0.0
104 ; 4.471269313529904E7 ; 1.2130660663301659E9 ; 4.568005012655496E9 ; 1.1608238759441962E11 ; 0.0
105 ; 4.470021596473245E7 ; 1.2131441215807772E9 ; 4.612717705790794E9 ; 1.1729545366074979E11 ; 0.0
106 ; 4.468301418498825E7 ; 1.2132222636826587E9 ; 4.657417921755527E9 ; 1.1850859778233057E11 ; 0.0
107 ; 4.466033791303118E7 ; 1.2133004849753017E9 ; 4.702100935940515E9 ; 1.1972182004601323E11 ; 0.0
108 ; 4.46463525738717E7 ; 1.213378777957317E9 ; 4.746761273853546E9 ; 1.2093512053098853E11 ; 0.0
109 ; 4.462436019973012E7 ; 1.213457135282029E9 ; 4.791407626427418E9 ; 1.2214849930894585E11 ; 0.0
110 ; 4.461035698513195E7 ; 1.2135355497531848E9 ; 4.836031986627148E9 ; 1.2336195644422787E11 ; 0.0
111 ; 4.4588825078680545E7 ; 1.2136140143207874E9 ; 4.88064234361228E9 ; 1.2457549199398106E11 ; 0.0
112 ; 4.456358467855939E7 ; 1.2136925220770361E9 ; 4.925231168690961E9 ; 1.2578910600830185E11 ; 0.0
113 ; 4.454614059740317E7 ; 1.2137710662523854E9 ; 4.96979475336952E9 ; 1.2700279853037889E11 ; 0.0
114 ; 4.451886605138415E7 ; 1.2138496402117114E9 ; 5.014340893966924E9 ; 1.2821656959663127E11 ; 0.0
115 ; 4.4505819975705825E7 ; 1.2139282374505904E9 ; 5.058859760018308E9 ; 1.2943041923684299E11 ; 0.0
116 ; 4.448031727730887E7 ; 1.2140068515916812E9 ; 5.103365579994014E9 ; 1.3064434747429358E11 ; 0.0
117 ; 4.446172683605509E7 ; 1.2140854763812137E9 ; 5.147845897271322E9 ; 1.3185835432588525E11 ; 0.0
118 ; 4.444076456738696E7 ; 1.2141641056855793E9 ; 5.192307624107377E9 ; 1.3307243980226646E11 ; 0.0
119 ; 4.4418934489580475E7 ; 1.21424273348802E9 ; 5.236748388674764E9 ; 1.3428660390795204E11 ; 0.0
120 ; 4.439539630749332E7 ; 1.2143213538854167E9 ; 5.281167323164344E9 ; 1.3550084664144006E11 ; 0.0
121 ; 4.436714550125111E7 ; 1.214399961085172E9 ; 5.325562719471837E9 ; 1.3671516799532549E11 ; 0.0
122 ; 4.434295078230526E7 ; 1.214478549402184E9 ; 5.369929864973088E9 ; 1.3792956795641064E11 ; 0.0
123 ; 4.432707325449863E7 ; 1.2145571132559142E9 ; 5.414272815755394E9 ; 1.3914404650581284E11 ; 0.0
124 ; 4.429388361129531E7 ; 1.2146356471675391E9 ; 5.458599889009892E9 ; 1.4035860361906876E11 ; 0.0
125 ; 4.4278889738723E7 ; 1.214714145757192E9 ; 5.502893772621188E9 ; 1.415732392662363E11 ; 0.0
126 ; 4.424679436596343E7 ; 1.2147926037412834E9 ; 5.547172662359911E9 ; 1.427879534119935E11 ; 0.0
127 ; 4.422160585769377E7 ; 1.2148710159299078E9 ; 5.591419456725874E9 ; 1.4400274601573477E11 ; 0.0
128 ; 4.419024240847418E7 ; 1.2149493772243245E9 ; 5.635641062583568E9 ; 1.4521761703166467E11 ; 0.0
129 ; 4.417211729193318E7 ; 1.2150276826145186E9 ; 5.679831304992042E9 ; 1.46432566408889E11 ; 0.0
130 ; 4.413436237006863E7 ; 1.2151059271768353E9 ; 5.724003422283975E9 ; 1.4764759409150354E11 ; 0.0
131 ; 4.40941591996737E7 ; 1.2151841060716856E9 ; 5.768137784654043E9 ; 1.488627000186804E11 ; 0.0
132 ; 4.4053792385352E7 ; 1.215262214541324E9 ; 5.812231943853717E9 ; 1.5007788412475208E11 ; 0.0
133 ; 4.401477830520411E7 ; 1.2153402479076934E9 ; 5.856285736239069E9 ; 1.512931463392934E11 ; 0.0
134 ; 4.397323058132193E7 ; 1.2154182015703363E9 ; 5.900300514544273E9 ; 1.5250848658720108E11 ; 0.0
135 ; 4.3934130339118786E7 ; 1.215496071004372E9 ; 5.944273745125595E9 ; 1.5372390478877142E11 ; 0.0
136 ; 4.389497680377378E7 ; 1.215573851758531E9 ; 5.988207875464714E9 ; 1.549394008597758E11 ; 0.0
137 ; 4.3850256559534766E7 ; 1.2156515394532576E9 ; 6.032102852268488E9 ; 1.5615497471153433E11 ; 0.0
138 ; 4.380800830198465E7 ; 1.2157291297788634E9 ; 6.075953108828023E9 ; 1.5737062625098758E11 ; 0.0
139 ; 4.37621894756308E7 ; 1.2158066184937432E9 ; 6.119761117130008E9 ; 1.5858635538076645E11 ; 0.0
140 ; 4.371930856295747E7 ; 1.2158840014226437E9 ; 6.1635233066056385E9 ; 1.598021619992602E11 ; 0.0
141 ; 4.3671216669255644E7 ; 1.2159612744549847E9 ; 6.207242615168596E9 ; 1.6101804600068283E11 ; 0.0
142 ; 4.363507490044272E7 ; 1.2160384335432336E9 ; 6.250913831837852E9 ; 1.6223400727513782E11 ; 0.0
143 ; 4.359285660866971E7 ; 1.2161154747013304E9 ; 6.294548906738295E9 ; 1.6345004570868106E11 ; 0.0
144 ; 4.354677773073914E7 ; 1.216192394003159E9 ; 6.338141763346964E9 ; 1.646661611833824E11 ; 0.0
145 ; 4.351697245473442E7 ; 1.2162691875810683E9 ; 6.381688541077703E9 ; 1.6588235357738556E11 ; 0.0
146 ; 4.349151983224842E7 ; 1.2163458516244364E9 ; 6.425205513532438E9 ; 1.670986227649666E11 ; 0.0
147 ; 4.345981599884791E7 ; 1.2164223823782806E9 ; 6.468697033364687E9 ; 1.6831496861659106E11 ; 0.0
148 ; 4.343210944775249E7 ; 1.2164987761419091E9 ; 6.512156849363535E9 ; 1.6953139099896936E11 ; 0.0
149 ; 4.340297624862781E7 ; 1.2165750292676158E9 ; 6.555588958811288E9 ; 1.7074788977511127E11 ; 0.0
150 ; 4.337749758545412E7 ; 1.2166511381594126E9 ; 6.598991935059916E9 ; 1.7196446480437888E11 ; 0.0
151 ; 4.3341942582223825E7 ; 1.2167270992718027E9 ; 6.64236943264537E9 ; 1.731811159425383E11 ; 0.0
152 ; 4.331718045573892E7 ; 1.216802909108591E9 ; 6.685711375227593E9 ; 1.743978430418101E11 ; 0.0
153 ; 4.32834843212169E7 ; 1.2168785642217293E9 ; 6.729028555683332E9 ; 1.7561464595091867E11 ; 0.0
154 ; 4.326325784584617E7 ; 1.2169540612102E9 ; 6.772312040004549E9 ; 1.768315245151404E11 ; 0.0
155 ; 4.32217580684372E7 ; 1.21702939671893E9 ; 6.815575297850395E9 ; 1.7804847857635062E11 ; 0.0
156 ; 4.319615915130138E7 ; 1.2171045674377415E9 ; 6.858797055918833E9 ; 1.7926550797306955E11 ; 0.0
157 ; 4.316273527006168E7 ; 1.2171795701003313E9 ; 6.901993215070134E9 ; 1.804826125405073E11 ; 0.0
158 ; 4.313969205022903E7 ; 1.217254401483284E9 ; 6.945155950340196E9 ; 1.8169979211060764E11 ; 0.0
159 ; 4.311269276294029E7 ; 1.2173290584051132E9 ; 6.988295642390425E9 ; 1.829170465120909E11 ; 0.0
160 ; 4.3078570593541145E7 ; 1.2174035377253325E9 ; 7.031408335153365E9 ; 1.8413437557049603E11 ; 0.0
161 ; 4.304729098587333E7 ; 1.2174778363435547E9 ; 7.074486905746906E9 ; 1.8535177910822137E11 ; 0.0
162 ; 4.3010840550349995E7 ; 1.2175519511986184E9 ; 7.1175341967327795E9 ; 1.8656925694456494E11 ; 0.0
163 ; 4.2983446513932966E7 ; 1.2176258792677395E9 ; 7.16054503728313E9 ; 1.8778680889576355E11 ; 0.0
164 ; 4.295447003615228E7 ; 1.217699617565691E9 ; 7.203528483797063E9 ; 1.8900443477503128E11 ; 0.0
165 ; 4.291891180051103E7 ; 1.2177731631440043E9 ; 7.246482953833215E9 ; 1.90222134392597E11 ; 0.0
166 ; 4.2887079368246675E7 ; 1.217846513090197E9 ; 7.289401865633726E9 ; 1.91439907555741E11 ; 0.0
167 ; 4.2858179650579594E7 ; 1.2179196645270226E9 ; 7.332288945001973E9 ; 1.926577540688312E11 ; 0.0
168 ; 4.282825963198447E7 ; 1.217992614611742E9 ; 7.375147124652553E9 ; 1.9387567373335822E11 ; 0.0
169 ; 4.279666073539464E7 ; 1.2180653605354192E9 ; 7.417975384284537E9 ; 1.9509366634796997E11 ; 0.0
170 ; 4.276088527393226E7 ; 1.2181378995222352E9 ; 7.460772045019932E9 ; 1.963117317085054E11 ; 0.0
171 ; 4.2736237134235084E7 ; 1.2182102288288243E9 ; 7.503532930293864E9 ; 1.9752986960802765E11 ; 0.0
172 ; 4.26998291321241E7 ; 1.218282345743629E9 ; 7.5462691674281E9 ; 1.9874807983685648E11 ; 0.0
173 ; 4.267393608873898E7 ; 1.2183542475862732E9 ; 7.588968996560224E9 ; 1.999663621826001E11 ; 0.0
174 ; 4.265984074565136E7 ; 1.2184259317069583E9 ; 7.631642932648963E9 ; 2.0118471643018637E11 ; 0.0
175 ; 4.263214044845912E7 ; 1.2184973954858701E9 ; 7.674302773394614E9 ; 2.0240314236189334E11 ; 0.0
176 ; 4.260981908719956E7 ; 1.21856863633261E9 ; 7.716934913843073E9 ; 2.036216397573792E11 ; 0.0
177 ; 4.259285317927413E7 ; 1.2186396516856384E9 ; 7.759544732930272E9 ; 2.0484020839371182E11 ; 0.0
178 ; 4.256735267978302E7 ; 1.2187104390117364E9 ; 7.802137586109547E9 ; 2.0605884804539746E11 ; 0.0
179 ; 4.255955115458067E7 ; 1.2187809958054829E9 ; 7.84470493878933E9 ; 2.072775584844092E11 ; 0.0
180 ; 4.253698399397147E7 ; 1.2188513195887475E9 ; 7.887264489943911E9 ; 2.084963394802147E11 ; 0.0
181 ; 4.251494537717669E7 ; 1.2189214079101973E9 ; 7.929801473937882E9 ; 2.0971519079980344E11 ; 0.0
182 ; 4.2492668265479825E7 ; 1.2189912583448174E9 ; 7.972316419315059E9 ; 2.1093411220771362E11 ; 0.0
183 ; 4.247211513566122E7 ; 1.2190608684934492E9 ; 8.014809087580539E9 ; 2.1215310346605844E11 ; 0.0
184 ; 4.245179671277009E7 ; 1.2191302359823368E9 ; 8.0572812027162E9 ; 2.1337216433455188E11 ; 0.0
185 ; 4.24322056233348E7 ; 1.2191993584626899E9 ; 8.09973299942897E9 ; 2.145912945705342E11 ; 0.0
186 ; 4.241258503563533E7 ; 1.2192682336102595E9 ; 8.142165205052305E9 ; 2.158104939289969E11 ; 0.0
187 ; 4.239428319546841E7 ; 1.219336859124923E9 ; 8.18457779008794E9 ; 2.1702976216260715E11 ; 0.0
188 ; 4.237838074636161E7 ; 1.2194E9 ; 8.226972073283408E9 ; 2.1824909902173206E11 ; 0.0
189 ; 4.235537666527369E7 ; 1.2194E9 ; 8.26935045402977E9 ; 2.1946849902173206E11 ; 0.0
190 ; 4.233478512524226E7 ; 1.2194E9 ; 8.311705830695044E9 ; 2.2068789902173206E11 ; 0.0
191 ; 4.232309740019766E7 ; 1.2194E9 ; 8.354040615820286E9 ; 2.2190729902173206E11 ; 0.0
192 ; 4.229981508468383E7 ; 1.2194E9 ; 8.396363713220484E9 ; 2.2312669902173206E11 ; 0.0
193 ; 4.2281815562794395E7 ; 1.2194E9 ; 8.438663528305167E9 ; 2.2434609902173206E11 ; 0.0
194 ; 4.225365605634512E7 ; 1.2194E9 ; 8.480945343867962E9 ; 2.2556549902173206E11 ; 0.0
195 ; 4.2237681786193244E7 ; 1.2194E9 ; 8.523198999924307E9 ; 2.2678489902173206E11 ; 0.0
196 ; 4.222322447692717E7 ; 1.2194E9 ; 8.5654366817105E9 ; 2.2800429902173206E11 ; 0.0
197 ; 4.219817552935441E7 ; 1.2194E9 ; 8.607659906187428E9 ; 2.2922369902173206E11 ; 0.0
198 ; 4.218594468721635E7 ; 1.211697452788053E9 ; 8.649858081716782E9 ; 2.3044309902173206E11 ; 0.0
